#wls	flux	fluxerr
1.581966E+03	2.443901E-02	1.154515E-03
1.621515E+03	2.519189E-02	1.185102E-03
1.661064E+03	2.596056E-02	1.216008E-03
1.700613E+03	2.673825E-02	1.246897E-03
1.740162E+03	2.752791E-02	1.277886E-03
1.779711E+03	2.832169E-02	1.308591E-03
1.819260E+03	2.912506E-02	1.339245E-03
1.858810E+03	2.993258E-02	1.369581E-03
1.898359E+03	3.074158E-02	1.399458E-03
1.937908E+03	3.154865E-02	1.428706E-03
1.977457E+03	3.235323E-02	1.457285E-03
2.017006E+03	3.315744E-02	1.485277E-03
2.056555E+03	3.395164E-02	1.512237E-03
2.096104E+03	3.474292E-02	1.538471E-03
2.135654E+03	3.552985E-02	1.563901E-03
2.175203E+03	3.631281E-02	1.588534E-03
2.214752E+03	3.709370E-02	1.612437E-03
2.254301E+03	3.786861E-02	1.635428E-03
2.293850E+03	3.863118E-02	1.657222E-03
2.333399E+03	3.937566E-02	1.677569E-03
2.372948E+03	4.007427E-02	1.695294E-03
2.412498E+03	4.071378E-02	1.709868E-03
2.452047E+03	4.126392E-02	1.720069E-03
2.491596E+03	4.170898E-02	1.725318E-03
2.531145E+03	4.202100E-02	1.724558E-03
2.570694E+03	4.218133E-02	1.717152E-03
2.610243E+03	4.216945E-02	1.702418E-03
2.649792E+03	4.197180E-02	1.679986E-03
2.689342E+03	4.156569E-02	1.649151E-03
2.728891E+03	4.094676E-02	1.609968E-03
2.768440E+03	4.010820E-02	1.562410E-03
2.807989E+03	3.905110E-02	1.506775E-03
2.847538E+03	3.778420E-02	1.443661E-03
2.887087E+03	3.632971E-02	1.374169E-03
2.926636E+03	3.471587E-02	1.299601E-03
2.966185E+03	3.297691E-02	1.221443E-03
2.976073E+03	3.252806E-02	1.201565E-03
2.985960E+03	3.207409E-02	1.181576E-03
2.995847E+03	3.161531E-02	1.161488E-03
3.005735E+03	3.115419E-02	1.141395E-03
3.015622E+03	3.068991E-02	1.121267E-03
3.025509E+03	3.022374E-02	1.101153E-03
3.035396E+03	2.975503E-02	1.081030E-03
3.045284E+03	2.928689E-02	1.061012E-03
3.055171E+03	2.881770E-02	1.041041E-03
3.065058E+03	2.834866E-02	1.021161E-03
3.074946E+03	2.788087E-02	1.001412E-03
3.084833E+03	2.741460E-02	9.818045E-04
3.094720E+03	2.695087E-02	9.623743E-04
3.104607E+03	2.648912E-02	9.431015E-04
3.114495E+03	2.603113E-02	9.240489E-04
3.124382E+03	2.557710E-02	9.052235E-04
3.134269E+03	2.512789E-02	8.866548E-04
3.144157E+03	2.468301E-02	8.683245E-04
3.154044E+03	2.424334E-02	8.502627E-04
3.163931E+03	2.380970E-02	8.324966E-04
3.173818E+03	2.338226E-02	8.150311E-04
3.183706E+03	2.296177E-02	7.978908E-04
3.193593E+03	2.254837E-02	7.810787E-04
3.203480E+03	2.214276E-02	7.646168E-04
3.213368E+03	2.174504E-02	7.485070E-04
3.223255E+03	2.135535E-02	7.327517E-04
3.233142E+03	2.097434E-02	7.173712E-04
3.243029E+03	2.060212E-02	7.023669E-04
3.252917E+03	2.023883E-02	6.877405E-04
3.262804E+03	1.988549E-02	6.735245E-04
3.272691E+03	1.954173E-02	6.597037E-04
3.282579E+03	1.920768E-02	6.462795E-04
3.292466E+03	1.888349E-02	6.332537E-04
3.302353E+03	1.857005E-02	6.206536E-04
3.312240E+03	1.826670E-02	6.084538E-04
3.322128E+03	1.797395E-02	5.966684E-04
3.332015E+03	1.769193E-02	5.852979E-04
3.341902E+03	1.742042E-02	5.743324E-04
3.351790E+03	1.715959E-02	5.637736E-04
3.361677E+03	1.690989E-02	5.536334E-04
3.371564E+03	1.667053E-02	5.438823E-04
3.381451E+03	1.644230E-02	5.345424E-04
3.391339E+03	1.622445E-02	5.255864E-04
3.401226E+03	1.601745E-02	5.170257E-04
3.411113E+03	1.582063E-02	5.088355E-04
3.421001E+03	1.563443E-02	5.010264E-04
3.430888E+03	1.545822E-02	4.935752E-04
3.440775E+03	1.529217E-02	4.864833E-04
3.450662E+03	1.513569E-02	4.797292E-04
3.460550E+03	1.498891E-02	4.733139E-04
3.470437E+03	1.485128E-02	4.672164E-04
3.480324E+03	1.472268E-02	4.614305E-04
3.490212E+03	1.460276E-02	4.559417E-04
3.500099E+03	1.449110E-02	4.507342E-04
3.509986E+03	1.438745E-02	4.457971E-04
3.519873E+03	1.429095E-02	4.411018E-04
3.529761E+03	1.420142E-02	4.366398E-04
3.539648E+03	1.411870E-02	4.324042E-04
3.549535E+03	1.404251E-02	4.283838E-04
3.559423E+03	1.397264E-02	4.245701E-04
3.569310E+03	1.390897E-02	4.209576E-04
3.579197E+03	1.385167E-02	4.175488E-04
3.589084E+03	1.380099E-02	4.143491E-04
3.598972E+03	1.375677E-02	4.113515E-04
3.608859E+03	1.371965E-02	4.085728E-04
3.618746E+03	1.368986E-02	4.060175E-04
3.628634E+03	1.366840E-02	4.037124E-04
3.638521E+03	1.365585E-02	4.016716E-04
3.648408E+03	1.365306E-02	3.999167E-04
3.658295E+03	1.366108E-02	3.984748E-04
3.668183E+03	1.368087E-02	3.973700E-04
3.678070E+03	1.371374E-02	3.966360E-04
3.687957E+03	1.376058E-02	3.962932E-04
3.697845E+03	1.382271E-02	3.963751E-04
3.707732E+03	1.390134E-02	3.969100E-04
3.717619E+03	1.399777E-02	3.979292E-04
3.727506E+03	1.411299E-02	3.994535E-04
3.737394E+03	1.424819E-02	4.015103E-04
3.747281E+03	1.440437E-02	4.041196E-04
3.757168E+03	1.458255E-02	4.073023E-04
3.767056E+03	1.478332E-02	4.110671E-04
3.776943E+03	1.500776E-02	4.154345E-04
3.786830E+03	1.525598E-02	4.203993E-04
3.796717E+03	1.552850E-02	4.259670E-04
3.806605E+03	1.582516E-02	4.321238E-04
3.816492E+03	1.614616E-02	4.388661E-04
3.826379E+03	1.649060E-02	4.461607E-04
3.836267E+03	1.685776E-02	4.539793E-04
3.846154E+03	1.724673E-02	4.622889E-04
3.856041E+03	1.765574E-02	4.710343E-04
3.865928E+03	1.808297E-02	4.801598E-04
3.875816E+03	1.852624E-02	4.896006E-04
3.885703E+03	1.898260E-02	4.992734E-04
3.895590E+03	1.944927E-02	5.091010E-04
3.905478E+03	1.992280E-02	5.189890E-04
3.915365E+03	2.039919E-02	5.288320E-04
3.925252E+03	2.087482E-02	5.385354E-04
3.935139E+03	2.134552E-02	5.479929E-04
3.945027E+03	2.180729E-02	5.571040E-04
3.954914E+03	2.225570E-02	5.657601E-04
3.964801E+03	2.268687E-02	5.738684E-04
3.974689E+03	2.309694E-02	5.813382E-04
3.984576E+03	2.348235E-02	5.880891E-04
3.994463E+03	2.384036E-02	5.940623E-04
4.004350E+03	2.416788E-02	5.991918E-04
4.014238E+03	2.446317E-02	6.034469E-04
4.024125E+03	2.472449E-02	6.067970E-04
4.034012E+03	2.495114E-02	6.092384E-04
4.043900E+03	2.514278E-02	6.107765E-04
4.053787E+03	2.529943E-02	6.114248E-04
4.063674E+03	2.542235E-02	6.112275E-04
4.073561E+03	2.551265E-02	6.102241E-04
4.083449E+03	2.557203E-02	6.084679E-04
4.093336E+03	2.560268E-02	6.060224E-04
4.103223E+03	2.560729E-02	6.029620E-04
4.113111E+03	2.558829E-02	5.993539E-04
4.122998E+03	2.554882E-02	5.952803E-04
4.132885E+03	2.549167E-02	5.908138E-04
4.142772E+03	2.541969E-02	5.860270E-04
4.152660E+03	2.533641E-02	5.810068E-04
4.162547E+03	2.524470E-02	5.758229E-04
4.172434E+03	2.514730E-02	5.705412E-04
4.182322E+03	2.504732E-02	5.652341E-04
4.192209E+03	2.494710E-02	5.599554E-04
4.202096E+03	2.484946E-02	5.547687E-04
4.211983E+03	2.475665E-02	5.497229E-04
4.221871E+03	2.467069E-02	5.448618E-04
4.231758E+03	2.459371E-02	5.402298E-04
4.241645E+03	2.452718E-02	5.358561E-04
4.251533E+03	2.447277E-02	5.317738E-04
4.261420E+03	2.443134E-02	5.279975E-04
4.271307E+03	2.440413E-02	5.245498E-04
4.281194E+03	2.439166E-02	5.214372E-04
4.291082E+03	2.439448E-02	5.186668E-04
4.300969E+03	2.441233E-02	5.162282E-04
4.310856E+03	2.444548E-02	5.141225E-04
4.320744E+03	2.449390E-02	5.123445E-04
4.330631E+03	2.455824E-02	5.109028E-04
4.340518E+03	2.463924E-02	5.098082E-04
4.350405E+03	2.473825E-02	5.090835E-04
4.360293E+03	2.485743E-02	5.087679E-04
4.370180E+03	2.499793E-02	5.088784E-04
4.380067E+03	2.516110E-02	5.094365E-04
4.389955E+03	2.534787E-02	5.104540E-04
4.399842E+03	2.555840E-02	5.119270E-04
4.409729E+03	2.579278E-02	5.138499E-04
4.419616E+03	2.605074E-02	5.162106E-04
4.429504E+03	2.633074E-02	5.189720E-04
4.439391E+03	2.663177E-02	5.221079E-04
4.449278E+03	2.695134E-02	5.255640E-04
4.459166E+03	2.728710E-02	5.292898E-04
4.469053E+03	2.763599E-02	5.332221E-04
4.478940E+03	2.799400E-02	5.372811E-04
4.488827E+03	2.835728E-02	5.413915E-04
4.498715E+03	2.872108E-02	5.454624E-04
4.508602E+03	2.908057E-02	5.494036E-04
4.518489E+03	2.943022E-02	5.531135E-04
4.528377E+03	2.976460E-02	5.564944E-04
4.538264E+03	3.007788E-02	5.594439E-04
4.548151E+03	3.036450E-02	5.618656E-04
4.558038E+03	3.061910E-02	5.636700E-04
4.567926E+03	3.083645E-02	5.647709E-04
4.577813E+03	3.101207E-02	5.650983E-04
4.587700E+03	3.114234E-02	5.645988E-04
4.597588E+03	3.122477E-02	5.632407E-04
4.607475E+03	3.125710E-02	5.609969E-04
4.617362E+03	3.123917E-02	5.578785E-04
4.627249E+03	3.117170E-02	5.539123E-04
4.637137E+03	3.105703E-02	5.491527E-04
4.647024E+03	3.089749E-02	5.436532E-04
4.656911E+03	3.069753E-02	5.375031E-04
4.666798E+03	3.046153E-02	5.307889E-04
4.676686E+03	3.019537E-02	5.236213E-04
4.686573E+03	2.990555E-02	5.161197E-04
4.696460E+03	2.959986E-02	5.084231E-04
4.706348E+03	2.928617E-02	5.006695E-04
4.716235E+03	2.897325E-02	4.930093E-04
4.726122E+03	2.866988E-02	4.855904E-04
4.736009E+03	2.838466E-02	4.785552E-04
4.745897E+03	2.812613E-02	4.720416E-04
4.755784E+03	2.790150E-02	4.661640E-04
4.765671E+03	2.771711E-02	4.610196E-04
4.775559E+03	2.757871E-02	4.566938E-04
4.785446E+03	2.749065E-02	4.532477E-04
4.795333E+03	2.745584E-02	4.507170E-04
4.805220E+03	2.747667E-02	4.491290E-04
4.815108E+03	2.755330E-02	4.484741E-04
4.824995E+03	2.768549E-02	4.487364E-04
4.834882E+03	2.787124E-02	4.498724E-04
4.844770E+03	2.810713E-02	4.518159E-04
4.854657E+03	2.838832E-02	4.544802E-04
4.864544E+03	2.870898E-02	4.577635E-04
4.874431E+03	2.906154E-02	4.615382E-04
4.884319E+03	2.943784E-02	4.656698E-04
4.894206E+03	2.982867E-02	4.700091E-04
4.904093E+03	3.022455E-02	4.744053E-04
4.913981E+03	3.061565E-02	4.787044E-04
4.923868E+03	3.099215E-02	4.827547E-04
4.933755E+03	3.134583E-02	4.864315E-04
4.943642E+03	3.166905E-02	4.896215E-04
4.953530E+03	3.195602E-02	4.922408E-04
4.963417E+03	3.220260E-02	4.942327E-04
4.973304E+03	3.240717E-02	4.955790E-04
4.983192E+03	3.256969E-02	4.962864E-04
4.993079E+03	3.269152E-02	4.963824E-04
5.002966E+03	3.277622E-02	4.959273E-04
5.012853E+03	3.282835E-02	4.949958E-04
5.022741E+03	3.285314E-02	4.936711E-04
5.032628E+03	3.285722E-02	4.920568E-04
5.042515E+03	3.284726E-02	4.902552E-04
5.052403E+03	3.283008E-02	4.883697E-04
5.062290E+03	3.281207E-02	4.864959E-04
5.072177E+03	3.280029E-02	4.847379E-04
5.082064E+03	3.279954E-02	4.831653E-04
5.091952E+03	3.281529E-02	4.818569E-04
5.101839E+03	3.285164E-02	4.808702E-04
5.111726E+03	3.291173E-02	4.802480E-04
5.121614E+03	3.299838E-02	4.800283E-04
5.131501E+03	3.311421E-02	4.802456E-04
5.141388E+03	3.326027E-02	4.809113E-04
5.151275E+03	3.343808E-02	4.820435E-04
5.161163E+03	3.364829E-02	4.836482E-04
5.171050E+03	3.389110E-02	4.857242E-04
5.180937E+03	3.416584E-02	4.882586E-04
5.190825E+03	3.447204E-02	4.912413E-04
5.200712E+03	3.480784E-02	4.946428E-04
5.210599E+03	3.517223E-02	4.984461E-04
5.220486E+03	3.556249E-02	5.026102E-04
5.230374E+03	3.597662E-02	5.071049E-04
5.240261E+03	3.641198E-02	5.118915E-04
5.250148E+03	3.686493E-02	5.169176E-04
5.260036E+03	3.733311E-02	5.221497E-04
5.269923E+03	3.781266E-02	5.275331E-04
5.279810E+03	3.830024E-02	5.330220E-04
5.289697E+03	3.879308E-02	5.385780E-04
5.299585E+03	3.928772E-02	5.441543E-04
5.309472E+03	3.978127E-02	5.497122E-04
5.319359E+03	4.027029E-02	5.552059E-04
5.329247E+03	4.075162E-02	5.605938E-04
5.339134E+03	4.122097E-02	5.658192E-04
5.349021E+03	4.167419E-02	5.708271E-04
5.358908E+03	4.210674E-02	5.755570E-04
5.368796E+03	4.251356E-02	5.799410E-04
5.378683E+03	4.288822E-02	5.838934E-04
5.388570E+03	4.322325E-02	5.873149E-04
5.398458E+03	4.351111E-02	5.901058E-04
5.408345E+03	4.374264E-02	5.921448E-04
5.418232E+03	4.390893E-02	5.933153E-04
5.428119E+03	4.399970E-02	5.934824E-04
5.438007E+03	4.400708E-02	5.925448E-04
5.447894E+03	4.392331E-02	5.904027E-04
5.457781E+03	4.374244E-02	5.869817E-04
5.467669E+03	4.346186E-02	5.822518E-04
5.477556E+03	4.308174E-02	5.762210E-04
5.487443E+03	4.260528E-02	5.689368E-04
5.497330E+03	4.204002E-02	5.605046E-04
5.507218E+03	4.139557E-02	5.510566E-04
5.517105E+03	4.068454E-02	5.407636E-04
5.526992E+03	3.992175E-02	5.298252E-04
5.536880E+03	3.912409E-02	5.184666E-04
5.546767E+03	3.830950E-02	5.069262E-04
5.556654E+03	3.749665E-02	4.954506E-04
5.566541E+03	3.670462E-02	4.842898E-04
5.576429E+03	3.595214E-02	4.736888E-04
5.586316E+03	3.525657E-02	4.638725E-04
5.596203E+03	3.463366E-02	4.550442E-04
5.606091E+03	3.409790E-02	4.473888E-04
5.615978E+03	3.366090E-02	4.410535E-04
5.625865E+03	3.333200E-02	4.361545E-04
5.635752E+03	3.311984E-02	4.327988E-04
5.645640E+03	3.302921E-02	4.310422E-04
5.655527E+03	3.306460E-02	4.309369E-04
5.665414E+03	3.322664E-02	4.324845E-04
5.675302E+03	3.351603E-02	4.356876E-04
5.685189E+03	3.392870E-02	4.404872E-04
5.695076E+03	3.446047E-02	4.468232E-04
5.704963E+03	3.510316E-02	4.545839E-04
5.714851E+03	3.584523E-02	4.636152E-04
5.724738E+03	3.667293E-02	4.737352E-04
5.734625E+03	3.756997E-02	4.847303E-04
5.744513E+03	3.851669E-02	4.963446E-04
5.754400E+03	3.949163E-02	5.083003E-04
5.764287E+03	4.047236E-02	5.203087E-04
5.774174E+03	4.143549E-02	5.320704E-04
5.784062E+03	4.235855E-02	5.432990E-04
5.793949E+03	4.321991E-02	5.537201E-04
5.803836E+03	4.400169E-02	5.631092E-04
5.813724E+03	4.468728E-02	5.712582E-04
5.823611E+03	4.526505E-02	5.780240E-04
5.833498E+03	4.572619E-02	5.833001E-04
5.843385E+03	4.606531E-02	5.870237E-04
5.853273E+03	4.628035E-02	5.891744E-04
5.863160E+03	4.637286E-02	5.897780E-04
5.873047E+03	4.634785E-02	5.889036E-04
5.882935E+03	4.621229E-02	5.866449E-04
5.892822E+03	4.597590E-02	5.831300E-04
5.902709E+03	4.565046E-02	5.785124E-04
5.912596E+03	4.524864E-02	5.729562E-04
5.922484E+03	4.478220E-02	5.666127E-04
5.932371E+03	4.426496E-02	5.596595E-04
5.942258E+03	4.370963E-02	5.522585E-04
5.952146E+03	4.312689E-02	5.445461E-04
5.962033E+03	4.252746E-02	5.366585E-04
5.971920E+03	4.192142E-02	5.287232E-04
5.981807E+03	4.131552E-02	5.208256E-04
5.991695E+03	4.071790E-02	5.130681E-04
6.001582E+03	4.013347E-02	5.055125E-04
6.011469E+03	3.956705E-02	4.982194E-04
6.021357E+03	3.902187E-02	4.912290E-04
6.031244E+03	3.850115E-02	4.845816E-04
6.041131E+03	3.800618E-02	4.782932E-04
6.051018E+03	3.753730E-02	4.723679E-04
6.060906E+03	3.709406E-02	4.667999E-04
6.070793E+03	3.667499E-02	4.615707E-04
6.080680E+03	3.627745E-02	4.566472E-04
6.090568E+03	3.589852E-02	4.519927E-04
6.100455E+03	3.553415E-02	4.475562E-04
6.110342E+03	3.518159E-02	4.433034E-04
6.120229E+03	3.483612E-02	4.391748E-04
6.130117E+03	3.449425E-02	4.351262E-04
6.140004E+03	3.415183E-02	4.311032E-04
6.149891E+03	3.380532E-02	4.270583E-04
6.159779E+03	3.345187E-02	4.229528E-04
6.169666E+03	3.309002E-02	4.187654E-04
6.179553E+03	3.271949E-02	4.144898E-04
6.189440E+03	3.234037E-02	4.101242E-04
6.199328E+03	3.195449E-02	4.056890E-04
6.209215E+03	3.156407E-02	4.012096E-04
6.219102E+03	3.117114E-02	3.967095E-04
6.228990E+03	3.077777E-02	3.922125E-04
6.238877E+03	3.038645E-02	3.877480E-04
6.248764E+03	2.999955E-02	3.833446E-04
6.258651E+03	2.961884E-02	3.790232E-04
6.268539E+03	2.924639E-02	3.748083E-04
6.278426E+03	2.888376E-02	3.707188E-04
6.288313E+03	2.853326E-02	3.667833E-04
6.298201E+03	2.819632E-02	3.630192E-04
6.308088E+03	2.787493E-02	3.594512E-04
6.317975E+03	2.757119E-02	3.561062E-04
6.327862E+03	2.728774E-02	3.530179E-04
6.337750E+03	2.702707E-02	3.502187E-04
6.347637E+03	2.679225E-02	3.477485E-04
6.357524E+03	2.658663E-02	3.456515E-04
6.367412E+03	2.641411E-02	3.439792E-04
6.377299E+03	2.627727E-02	3.427665E-04
6.387186E+03	2.618081E-02	3.420761E-04
6.397073E+03	2.612736E-02	3.419441E-04
6.406961E+03	2.611997E-02	3.424125E-04
6.416848E+03	2.616201E-02	3.435277E-04
6.426735E+03	2.625411E-02	3.453001E-04
6.436623E+03	2.639847E-02	3.477614E-04
6.446510E+03	2.659458E-02	3.509073E-04
6.456397E+03	2.684146E-02	3.547271E-04
6.466284E+03	2.713757E-02	3.592030E-04
6.476172E+03	2.747953E-02	3.642921E-04
6.486059E+03	2.786317E-02	3.699409E-04
6.495946E+03	2.828328E-02	3.760818E-04
6.505833E+03	2.873348E-02	3.826309E-04
6.515721E+03	2.920581E-02	3.894830E-04
6.525608E+03	2.969271E-02	3.965371E-04
6.535495E+03	3.018435E-02	4.036615E-04
6.545383E+03	3.067220E-02	4.107412E-04
6.555270E+03	3.114679E-02	4.176479E-04
6.565157E+03	3.159962E-02	4.242657E-04
6.575044E+03	3.202149E-02	4.304688E-04
6.584932E+03	3.240408E-02	4.361425E-04
6.594819E+03	3.274027E-02	4.411882E-04
6.604706E+03	3.302279E-02	4.455048E-04
6.614594E+03	3.324595E-02	4.490123E-04
6.624481E+03	3.340542E-02	4.516487E-04
6.634368E+03	3.349920E-02	4.533839E-04
6.644255E+03	3.352577E-02	4.541943E-04
6.654143E+03	3.348561E-02	4.540833E-04
6.664030E+03	3.338083E-02	4.530771E-04
6.673917E+03	3.321496E-02	4.512211E-04
6.683805E+03	3.299335E-02	4.485865E-04
6.693692E+03	3.272442E-02	4.452861E-04
6.703579E+03	3.241704E-02	4.414396E-04
6.713466E+03	3.208179E-02	4.371907E-04
6.723354E+03	3.172858E-02	4.326743E-04
6.733241E+03	3.136960E-02	4.280570E-04
6.743128E+03	3.101602E-02	4.234919E-04
6.753016E+03	3.067883E-02	4.191302E-04
6.762903E+03	3.036908E-02	4.151239E-04
6.772790E+03	3.009744E-02	4.116205E-04
6.782677E+03	2.987248E-02	4.087387E-04
6.792565E+03	2.970257E-02	4.065948E-04
6.802452E+03	2.959335E-02	4.052678E-04
6.812339E+03	2.954944E-02	4.048225E-04
6.822227E+03	2.957309E-02	4.052913E-04
6.832114E+03	2.966398E-02	4.066716E-04
6.842001E+03	2.982060E-02	4.089441E-04
6.851888E+03	3.003727E-02	4.120320E-04
6.861776E+03	3.030716E-02	4.158429E-04
6.871663E+03	3.062182E-02	4.202621E-04
6.881550E+03	3.096878E-02	4.251194E-04
6.891438E+03	3.133630E-02	4.302542E-04
6.901325E+03	3.170930E-02	4.354607E-04
6.911212E+03	3.207390E-02	4.405489E-04
6.921099E+03	3.241652E-02	4.453330E-04
6.930987E+03	3.272675E-02	4.496709E-04
6.940874E+03	3.299460E-02	4.534260E-04
6.950761E+03	3.321483E-02	4.565273E-04
6.960649E+03	3.338440E-02	4.589338E-04
6.970536E+03	3.350300E-02	4.606424E-04
6.980423E+03	3.357510E-02	4.617155E-04
6.990310E+03	3.360412E-02	4.622011E-04
7.000198E+03	3.359815E-02	4.622118E-04
7.010085E+03	3.356411E-02	4.618440E-04
7.019972E+03	3.351050E-02	4.612158E-04
7.029860E+03	3.344432E-02	4.604251E-04
7.039747E+03	3.337334E-02	4.595802E-04
7.049634E+03	3.330310E-02	4.587590E-04
7.059521E+03	3.323935E-02	4.580423E-04
7.069409E+03	3.318615E-02	4.574877E-04
7.079296E+03	3.314551E-02	4.571250E-04
7.089183E+03	3.312024E-02	4.569948E-04
7.099071E+03	3.310934E-02	4.570854E-04
7.108958E+03	3.311200E-02	4.573878E-04
7.118845E+03	3.312773E-02	4.578976E-04
7.128732E+03	3.315341E-02	4.585737E-04
7.138620E+03	3.318589E-02	4.593751E-04
7.148507E+03	3.322169E-02	4.602557E-04
7.158394E+03	3.325770E-02	4.611747E-04
7.168282E+03	3.328873E-02	4.620622E-04
7.178169E+03	3.331237E-02	4.628870E-04
7.188056E+03	3.332447E-02	4.635928E-04
7.197943E+03	3.332284E-02	4.641510E-04
7.207831E+03	3.330444E-02	4.645206E-04
7.217718E+03	3.326807E-02	4.646859E-04
7.227605E+03	3.321204E-02	4.646241E-04
7.237493E+03	3.313650E-02	4.643380E-04
7.247380E+03	3.304144E-02	4.638280E-04
7.257267E+03	3.292828E-02	4.631143E-04
7.267154E+03	3.279734E-02	4.622015E-04
7.277042E+03	3.264968E-02	4.611044E-04
7.286929E+03	3.248785E-02	4.598589E-04
7.296816E+03	3.231209E-02	4.584684E-04
7.306704E+03	3.212383E-02	4.569527E-04
7.316591E+03	3.192362E-02	4.553194E-04
7.326478E+03	3.171315E-02	4.535917E-04
7.336365E+03	3.149244E-02	4.517696E-04
7.346253E+03	3.126070E-02	4.498406E-04
7.356140E+03	3.101835E-02	4.478097E-04
7.366027E+03	3.076455E-02	4.456635E-04
7.375915E+03	3.049833E-02	4.433859E-04
7.385802E+03	3.022096E-02	4.409935E-04
7.395689E+03	2.993263E-02	4.384868E-04
7.405576E+03	2.963421E-02	4.358758E-04
7.415464E+03	2.932743E-02	4.331826E-04
7.425351E+03	2.901430E-02	4.304317E-04
7.435238E+03	2.869709E-02	4.276522E-04
7.445126E+03	2.837760E-02	4.248667E-04
7.455013E+03	2.805928E-02	4.221229E-04
7.464900E+03	2.774481E-02	4.194581E-04
7.474787E+03	2.743792E-02	4.169264E-04
7.484675E+03	2.714367E-02	4.146035E-04
7.494562E+03	2.686399E-02	4.125184E-04
7.504449E+03	2.660388E-02	4.107491E-04
7.514337E+03	2.636615E-02	4.093410E-04
7.524224E+03	2.615441E-02	4.083532E-04
7.534111E+03	2.597064E-02	4.078214E-04
7.543998E+03	2.581748E-02	4.077922E-04
7.553886E+03	2.569580E-02	4.082859E-04
7.563773E+03	2.560711E-02	4.093332E-04
7.573660E+03	2.555093E-02	4.109346E-04
7.583548E+03	2.552723E-02	4.130971E-04
7.593435E+03	2.553460E-02	4.158064E-04
7.603322E+03	2.557032E-02	4.190260E-04
7.613209E+03	2.563144E-02	4.227152E-04
7.623097E+03	2.571565E-02	4.268424E-04
7.632984E+03	2.581769E-02	4.313265E-04
7.642871E+03	2.593332E-02	4.361013E-04
7.652759E+03	2.605934E-02	4.411163E-04
7.662646E+03	2.618997E-02	4.462758E-04
7.672533E+03	2.632143E-02	4.515159E-04
