#wls	flux	fluxerr
1.581966E+03	3.244300E-02	1.354611E-03
1.621515E+03	3.360042E-02	1.395746E-03
1.661064E+03	3.480681E-02	1.438242E-03
1.700613E+03	3.605833E-02	1.481890E-03
1.740162E+03	3.735807E-02	1.526764E-03
1.779711E+03	3.870066E-02	1.572593E-03
1.819260E+03	4.009147E-02	1.619541E-03
1.858810E+03	4.151931E-02	1.667099E-03
1.898359E+03	4.299142E-02	1.715506E-03
1.937908E+03	4.449814E-02	1.764321E-03
1.977457E+03	4.603239E-02	1.813211E-03
2.017006E+03	4.758950E-02	1.861947E-03
2.056555E+03	4.916321E-02	1.910239E-03
2.096104E+03	5.074162E-02	1.957588E-03
2.135654E+03	5.230723E-02	2.003292E-03
2.175203E+03	5.386002E-02	2.047332E-03
2.214752E+03	5.538996E-02	2.089315E-03
2.254301E+03	5.692185E-02	2.130163E-03
2.293850E+03	5.843184E-02	2.168959E-03
2.333399E+03	5.989368E-02	2.204734E-03
2.372948E+03	6.128957E-02	2.236856E-03
2.412498E+03	6.259545E-02	2.264494E-03
2.452047E+03	6.380150E-02	2.287360E-03
2.491596E+03	6.488099E-02	2.304583E-03
2.531145E+03	6.581434E-02	2.315582E-03
2.570694E+03	6.657000E-02	2.319393E-03
2.610243E+03	6.712118E-02	2.315263E-03
2.649792E+03	6.743454E-02	2.302262E-03
2.689342E+03	6.748036E-02	2.279636E-03
2.728891E+03	6.722583E-02	2.246582E-03
2.768440E+03	6.663586E-02	2.202275E-03
2.807989E+03	6.568736E-02	2.146349E-03
2.847538E+03	6.435611E-02	2.078445E-03
2.887087E+03	6.264354E-02	1.999073E-03
2.926636E+03	6.058933E-02	1.909956E-03
2.966185E+03	5.823645E-02	1.812868E-03
2.976073E+03	5.760790E-02	1.787594E-03
2.985960E+03	5.696436E-02	1.761965E-03
2.995847E+03	5.630619E-02	1.735997E-03
3.005735E+03	5.563638E-02	1.709788E-03
3.015622E+03	5.495392E-02	1.683310E-03
3.025509E+03	5.426046E-02	1.656620E-03
3.035396E+03	5.355638E-02	1.629731E-03
3.045284E+03	5.284338E-02	1.602700E-03
3.055171E+03	5.212187E-02	1.575542E-03
3.065058E+03	5.139348E-02	1.548311E-03
3.074946E+03	5.065871E-02	1.521023E-03
3.084833E+03	4.991814E-02	1.493700E-03
3.094720E+03	4.917342E-02	1.466391E-03
3.104607E+03	4.842514E-02	1.439117E-03
3.114495E+03	4.767593E-02	1.411959E-03
3.124382E+03	4.692446E-02	1.384877E-03
3.134269E+03	4.617338E-02	1.357950E-03
3.144157E+03	4.542333E-02	1.331199E-03
3.154044E+03	4.467592E-02	1.304670E-03
3.163931E+03	4.393103E-02	1.278360E-03
3.173818E+03	4.319109E-02	1.252339E-03
3.183706E+03	4.245681E-02	1.226627E-03
3.193593E+03	4.172822E-02	1.201224E-03
3.203480E+03	4.100762E-02	1.176194E-03
3.213368E+03	4.029646E-02	1.151577E-03
3.223255E+03	3.959411E-02	1.127352E-03
3.233142E+03	3.890277E-02	1.103580E-03
3.243029E+03	3.822319E-02	1.080280E-03
3.252917E+03	3.755617E-02	1.057469E-03
3.262804E+03	3.690251E-02	1.035168E-03
3.272691E+03	3.626362E-02	1.013413E-03
3.282579E+03	3.564028E-02	9.922199E-04
3.292466E+03	3.503330E-02	9.716075E-04
3.302353E+03	3.444354E-02	9.515948E-04
3.312240E+03	3.387181E-02	9.321991E-04
3.322128E+03	3.331950E-02	9.134531E-04
3.332015E+03	3.278699E-02	8.953613E-04
3.341902E+03	3.227521E-02	8.779432E-04
3.351790E+03	3.178515E-02	8.612194E-04
3.361677E+03	3.131778E-02	8.452093E-04
3.371564E+03	3.087418E-02	8.299353E-04
3.381451E+03	3.045502E-02	8.154076E-04
3.391339E+03	3.006108E-02	8.016399E-04
3.401226E+03	2.969401E-02	7.886680E-04
3.411113E+03	2.935473E-02	7.765078E-04
3.421001E+03	2.904385E-02	7.651669E-04
3.430888E+03	2.876286E-02	7.546754E-04
3.440775E+03	2.851288E-02	7.450533E-04
3.450662E+03	2.829480E-02	7.363137E-04
3.460550E+03	2.810952E-02	7.284703E-04
3.470437E+03	2.795848E-02	7.215499E-04
3.480324E+03	2.784146E-02	7.155356E-04
3.490212E+03	2.775897E-02	7.104296E-04
3.500099E+03	2.770887E-02	7.061665E-04
3.509986E+03	2.768835E-02	7.026646E-04
3.519873E+03	2.769448E-02	6.998403E-04
3.529761E+03	2.772405E-02	6.976043E-04
3.539648E+03	2.777424E-02	6.958784E-04
3.549535E+03	2.784191E-02	6.945777E-04
3.559423E+03	2.792415E-02	6.936243E-04
3.569310E+03	2.801913E-02	6.929682E-04
3.579197E+03	2.812557E-02	6.925741E-04
3.589084E+03	2.824271E-02	6.924199E-04
3.598972E+03	2.837033E-02	6.924965E-04
3.608859E+03	2.850895E-02	6.928135E-04
3.618746E+03	2.865889E-02	6.933750E-04
3.628634E+03	2.882116E-02	6.942018E-04
3.638521E+03	2.899679E-02	6.953151E-04
3.648408E+03	2.918719E-02	6.967440E-04
3.658295E+03	2.939376E-02	6.985172E-04
3.668183E+03	2.961822E-02	7.006704E-04
3.678070E+03	2.986241E-02	7.032415E-04
3.687957E+03	3.012797E-02	7.062624E-04
3.697845E+03	3.041680E-02	7.097710E-04
3.707732E+03	3.073076E-02	7.138031E-04
3.717619E+03	3.107110E-02	7.183800E-04
3.727506E+03	3.143999E-02	7.235431E-04
3.737394E+03	3.183814E-02	7.293000E-04
3.747281E+03	3.226758E-02	7.356876E-04
3.757168E+03	3.272853E-02	7.427013E-04
3.767056E+03	3.322193E-02	7.503527E-04
3.776943E+03	3.374784E-02	7.586329E-04
3.786830E+03	3.430625E-02	7.675319E-04
3.796717E+03	3.489670E-02	7.770293E-04
3.806605E+03	3.551828E-02	7.870952E-04
3.816492E+03	3.616942E-02	7.976857E-04
3.826379E+03	3.684830E-02	8.087518E-04
3.836267E+03	3.755263E-02	8.202354E-04
3.846154E+03	3.827971E-02	8.320704E-04
3.856041E+03	3.902580E-02	8.441691E-04
3.865928E+03	3.978792E-02	8.564623E-04
3.875816E+03	4.056152E-02	8.688483E-04
3.885703E+03	4.134237E-02	8.812337E-04
3.895590E+03	4.212629E-02	8.935287E-04
3.905478E+03	4.290766E-02	9.056147E-04
3.915365E+03	4.368238E-02	9.174072E-04
3.925252E+03	4.444533E-02	9.288021E-04
3.935139E+03	4.519115E-02	9.396929E-04
3.945027E+03	4.591594E-02	9.500054E-04
3.954914E+03	4.661476E-02	9.596453E-04
3.964801E+03	4.728327E-02	9.685328E-04
3.974689E+03	4.791823E-02	9.766124E-04
3.984576E+03	4.851617E-02	9.838253E-04
3.994463E+03	4.907370E-02	9.901157E-04
4.004350E+03	4.958947E-02	9.954699E-04
4.014238E+03	5.006085E-02	9.998495E-04
4.024125E+03	5.048723E-02	1.003257E-03
4.034012E+03	5.086746E-02	1.005684E-03
4.043900E+03	5.120210E-02	1.007157E-03
4.053787E+03	5.149110E-02	1.007690E-03
4.063674E+03	5.173606E-02	1.007329E-03
4.073561E+03	5.193754E-02	1.006099E-03
4.083449E+03	5.209811E-02	1.004063E-03
4.093336E+03	5.221994E-02	1.001277E-03
4.103223E+03	5.230606E-02	9.978094E-04
4.113111E+03	5.235892E-02	9.937196E-04
4.122998E+03	5.238254E-02	9.890937E-04
4.132885E+03	5.238035E-02	9.840055E-04
4.142772E+03	5.235594E-02	9.785307E-04
4.152660E+03	5.231313E-02	9.727473E-04
4.162547E+03	5.225662E-02	9.667483E-04
4.172434E+03	5.219030E-02	9.606102E-04
4.182322E+03	5.211853E-02	9.544164E-04
4.192209E+03	5.204518E-02	9.482398E-04
4.202096E+03	5.197437E-02	9.421563E-04
4.211983E+03	5.191009E-02	9.362379E-04
4.221871E+03	5.185560E-02	9.305424E-04
4.231758E+03	5.181470E-02	9.251357E-04
4.241645E+03	5.179003E-02	9.200618E-04
4.251533E+03	5.178457E-02	9.153704E-04
4.261420E+03	5.179972E-02	9.110817E-04
4.271307E+03	5.183797E-02	9.072349E-04
4.281194E+03	5.190023E-02	9.038411E-04
4.291082E+03	5.198782E-02	9.009180E-04
4.300969E+03	5.210172E-02	8.984776E-04
4.310856E+03	5.224245E-02	8.965231E-04
4.320744E+03	5.241059E-02	8.950592E-04
4.330631E+03	5.260579E-02	8.940747E-04
4.340518E+03	5.282921E-02	8.935844E-04
4.350405E+03	5.308028E-02	8.935731E-04
4.360293E+03	5.336092E-02	8.940684E-04
4.370180E+03	5.367141E-02	8.950699E-04
4.380067E+03	5.401276E-02	8.965883E-04
4.389955E+03	5.438497E-02	8.986170E-04
4.399842E+03	5.478842E-02	9.011552E-04
4.409729E+03	5.522225E-02	9.041825E-04
4.419616E+03	5.568393E-02	9.076511E-04
4.429504E+03	5.617083E-02	9.115128E-04
4.439391E+03	5.668043E-02	9.157219E-04
4.449278E+03	5.720744E-02	9.201891E-04
4.459166E+03	5.774656E-02	9.248264E-04
4.469053E+03	5.829219E-02	9.295426E-04
4.478940E+03	5.883700E-02	9.342207E-04
4.488827E+03	5.937399E-02	9.387508E-04
4.498715E+03	5.989519E-02	9.430093E-04
4.508602E+03	6.039133E-02	9.468548E-04
4.518489E+03	6.085552E-02	9.501849E-04
4.528377E+03	6.127792E-02	9.528533E-04
4.538264E+03	6.165217E-02	9.547697E-04
4.548151E+03	6.196946E-02	9.558076E-04
4.558038E+03	6.222445E-02	9.558954E-04
4.567926E+03	6.241147E-02	9.549579E-04
4.577813E+03	6.252671E-02	9.529492E-04
4.587700E+03	6.256802E-02	9.498492E-04
4.597588E+03	6.253447E-02	9.456564E-04
4.607475E+03	6.242744E-02	9.404043E-04
4.617362E+03	6.225020E-02	9.341537E-04
4.627249E+03	6.200834E-02	9.269995E-04
4.637137E+03	6.170800E-02	9.190428E-04
4.647024E+03	6.135780E-02	9.104205E-04
4.656911E+03	6.096706E-02	9.012774E-04
4.666798E+03	6.054637E-02	8.917748E-04
4.676686E+03	6.010638E-02	8.820726E-04
4.686573E+03	5.965890E-02	8.723454E-04
4.696460E+03	5.921389E-02	8.627380E-04
4.706348E+03	5.878263E-02	8.534125E-04
4.716235E+03	5.837271E-02	8.444758E-04
4.726122E+03	5.799225E-02	8.360403E-04
4.736009E+03	5.764688E-02	8.281814E-04
4.745897E+03	5.734267E-02	8.209797E-04
4.755784E+03	5.708325E-02	8.144797E-04
4.765671E+03	5.687219E-02	8.087237E-04
4.775559E+03	5.671153E-02	8.037324E-04
4.785446E+03	5.660289E-02	7.995203E-04
4.795333E+03	5.654581E-02	7.960722E-04
4.805220E+03	5.653948E-02	7.933686E-04
4.815108E+03	5.658268E-02	7.913842E-04
4.824995E+03	5.667240E-02	7.900696E-04
4.834882E+03	5.680590E-02	7.893796E-04
4.844770E+03	5.697889E-02	7.892482E-04
4.854657E+03	5.718755E-02	7.896167E-04
4.864544E+03	5.742681E-02	7.904100E-04
4.874431E+03	5.769178E-02	7.915566E-04
4.884319E+03	5.797822E-02	7.929948E-04
4.894206E+03	5.828085E-02	7.946492E-04
4.904093E+03	5.859522E-02	7.964570E-04
4.913981E+03	5.891722E-02	7.983607E-04
4.923868E+03	5.924271E-02	8.003031E-04
4.933755E+03	5.956974E-02	8.022574E-04
4.943642E+03	5.989422E-02	8.041680E-04
4.953530E+03	6.021595E-02	8.060324E-04
4.963417E+03	6.053210E-02	8.078132E-04
4.973304E+03	6.084316E-02	8.095173E-04
4.983192E+03	6.114792E-02	8.111292E-04
4.993079E+03	6.144795E-02	8.126703E-04
5.002966E+03	6.174278E-02	8.141348E-04
5.012853E+03	6.203407E-02	8.155454E-04
5.022741E+03	6.232241E-02	8.169100E-04
5.032628E+03	6.260905E-02	8.182455E-04
5.042515E+03	6.289583E-02	8.195763E-04
5.052403E+03	6.318270E-02	8.209016E-04
5.062290E+03	6.347117E-02	8.222415E-04
5.072177E+03	6.376194E-02	8.236048E-04
5.082064E+03	6.405483E-02	8.249894E-04
5.091952E+03	6.435055E-02	8.264046E-04
5.101839E+03	6.464763E-02	8.278315E-04
5.111726E+03	6.494676E-02	8.292793E-04
5.121614E+03	6.524647E-02	8.307295E-04
5.131501E+03	6.554500E-02	8.321603E-04
5.141388E+03	6.584168E-02	8.335640E-04
5.151275E+03	6.613437E-02	8.349144E-04
5.161163E+03	6.642219E-02	8.362017E-04
5.171050E+03	6.670242E-02	8.373927E-04
5.180937E+03	6.697493E-02	8.384879E-04
5.190825E+03	6.723811E-02	8.394683E-04
5.200712E+03	6.749122E-02	8.403270E-04
5.210599E+03	6.773344E-02	8.410555E-04
5.220486E+03	6.796572E-02	8.416678E-04
5.230374E+03	6.818895E-02	8.421769E-04
5.240261E+03	6.840387E-02	8.425938E-04
5.250148E+03	6.861220E-02	8.429417E-04
5.260036E+03	6.881668E-02	8.432558E-04
5.269923E+03	6.901857E-02	8.435531E-04
5.279810E+03	6.922004E-02	8.438616E-04
5.289697E+03	6.942051E-02	8.441754E-04
5.299585E+03	6.962084E-02	8.445065E-04
5.309472E+03	6.981782E-02	8.448172E-04
5.319359E+03	7.000879E-02	8.450768E-04
5.329247E+03	7.018881E-02	8.452253E-04
5.339134E+03	7.035150E-02	8.451858E-04
5.349021E+03	7.048774E-02	8.448489E-04
5.358908E+03	7.058999E-02	8.441252E-04
5.368796E+03	7.064795E-02	8.428932E-04
5.378683E+03	7.065051E-02	8.410228E-04
5.388570E+03	7.058979E-02	8.384235E-04
5.398458E+03	7.045615E-02	8.349843E-04
5.408345E+03	7.024274E-02	8.306286E-04
5.418232E+03	6.994461E-02	8.253026E-04
5.428119E+03	6.955899E-02	8.189788E-04
5.438007E+03	6.908546E-02	8.116574E-04
5.447894E+03	6.852474E-02	8.033519E-04
5.457781E+03	6.788284E-02	7.941379E-04
5.467669E+03	6.716610E-02	7.840938E-04
5.477556E+03	6.638312E-02	7.733242E-04
5.487443E+03	6.554584E-02	7.619712E-04
5.497330E+03	6.466582E-02	7.501720E-04
5.507218E+03	6.375790E-02	7.381004E-04
5.517105E+03	6.283720E-02	7.259317E-04
5.526992E+03	6.191799E-02	7.138307E-04
5.536880E+03	6.101719E-02	7.019911E-04
5.546767E+03	6.014890E-02	6.905725E-04
5.556654E+03	5.932852E-02	6.797486E-04
5.566541E+03	5.856972E-02	6.696718E-04
5.576429E+03	5.788449E-02	6.604741E-04
5.586316E+03	5.728448E-02	6.522824E-04
5.596203E+03	5.677798E-02	6.451849E-04
5.606091E+03	5.637395E-02	6.392762E-04
5.615978E+03	5.607771E-02	6.346095E-04
5.625865E+03	5.589389E-02	6.312293E-04
5.635752E+03	5.582338E-02	6.291380E-04
5.645640E+03	5.586756E-02	6.283434E-04
5.655527E+03	5.602396E-02	6.288101E-04
5.665414E+03	5.628888E-02	6.304892E-04
5.675302E+03	5.665729E-02	6.333173E-04
5.685189E+03	5.712159E-02	6.372033E-04
5.695076E+03	5.767130E-02	6.420245E-04
5.704963E+03	5.829726E-02	6.476741E-04
5.714851E+03	5.898576E-02	6.539958E-04
5.724738E+03	5.972369E-02	6.608414E-04
5.734625E+03	6.049693E-02	6.680528E-04
5.744513E+03	6.128869E-02	6.754440E-04
5.754400E+03	6.208447E-02	6.828554E-04
5.764287E+03	6.286788E-02	6.901088E-04
5.774174E+03	6.362424E-02	6.970458E-04
5.784062E+03	6.433838E-02	7.035040E-04
5.793949E+03	6.499851E-02	7.093593E-04
5.803836E+03	6.559137E-02	7.144727E-04
5.813724E+03	6.610845E-02	7.187581E-04
5.823611E+03	6.654098E-02	7.221271E-04
5.833498E+03	6.688378E-02	7.245308E-04
5.843385E+03	6.713216E-02	7.259261E-04
5.853273E+03	6.728502E-02	7.263088E-04
5.863160E+03	6.734244E-02	7.256875E-04
5.873047E+03	6.730700E-02	7.240972E-04
5.882935E+03	6.718050E-02	7.215646E-04
5.892822E+03	6.696993E-02	7.181712E-04
5.902709E+03	6.667944E-02	7.139679E-04
5.912596E+03	6.631629E-02	7.090378E-04
5.922484E+03	6.588753E-02	7.034616E-04
5.932371E+03	6.540046E-02	6.973213E-04
5.942258E+03	6.486333E-02	6.907091E-04
5.952146E+03	6.428340E-02	6.837052E-04
5.962033E+03	6.366778E-02	6.763881E-04
5.971920E+03	6.302312E-02	6.688307E-04
5.981807E+03	6.235642E-02	6.611090E-04
5.991695E+03	6.167258E-02	6.532764E-04
6.001582E+03	6.097748E-02	6.453961E-04
6.011469E+03	6.027564E-02	6.375168E-04
6.021357E+03	5.957173E-02	6.296882E-04
6.031244E+03	5.886837E-02	6.219383E-04
6.041131E+03	5.816986E-02	6.143127E-04
6.051018E+03	5.747700E-02	6.068196E-04
6.060906E+03	5.679303E-02	5.994932E-04
6.070793E+03	5.611854E-02	5.923394E-04
6.080680E+03	5.545509E-02	5.853744E-04
6.090568E+03	5.480235E-02	5.785943E-04
6.100455E+03	5.416175E-02	5.720137E-04
6.110342E+03	5.353286E-02	5.656277E-04
6.120229E+03	5.291495E-02	5.594278E-04
6.130117E+03	5.230701E-02	5.534010E-04
6.140004E+03	5.170855E-02	5.475372E-04
6.149891E+03	5.111842E-02	5.418193E-04
6.159779E+03	5.053519E-02	5.362276E-04
6.169666E+03	4.995979E-02	5.307675E-04
6.179553E+03	4.939187E-02	5.254306E-04
6.189440E+03	4.883244E-02	5.202238E-04
6.199328E+03	4.828280E-02	5.151566E-04
6.209215E+03	4.774448E-02	5.102416E-04
6.219102E+03	4.721843E-02	5.054856E-04
6.228990E+03	4.670807E-02	5.009219E-04
6.238877E+03	4.621399E-02	4.965537E-04
6.248764E+03	4.573799E-02	4.923980E-04
6.258651E+03	4.528173E-02	4.884702E-04
6.268539E+03	4.484696E-02	4.847871E-04
6.278426E+03	4.443483E-02	4.813595E-04
6.288313E+03	4.404796E-02	4.782143E-04
6.298201E+03	4.368853E-02	4.753742E-04
6.308088E+03	4.335903E-02	4.728656E-04
6.317975E+03	4.306156E-02	4.707111E-04
6.327862E+03	4.279907E-02	4.689431E-04
6.337750E+03	4.257285E-02	4.675760E-04
6.347637E+03	4.238684E-02	4.666540E-04
6.357524E+03	4.224178E-02	4.661863E-04
6.367412E+03	4.214030E-02	4.662034E-04
6.377299E+03	4.208348E-02	4.667189E-04
6.387186E+03	4.207274E-02	4.677505E-04
6.397073E+03	4.210900E-02	4.693105E-04
6.406961E+03	4.219326E-02	4.714125E-04
6.416848E+03	4.232457E-02	4.740480E-04
6.426735E+03	4.250252E-02	4.772148E-04
6.436623E+03	4.272515E-02	4.808934E-04
6.446510E+03	4.299037E-02	4.850623E-04
6.456397E+03	4.329452E-02	4.896820E-04
6.466284E+03	4.363438E-02	4.947181E-04
6.476172E+03	4.400391E-02	5.001031E-04
6.486059E+03	4.439907E-02	5.057920E-04
6.495946E+03	4.481229E-02	5.116991E-04
6.505833E+03	4.523689E-02	5.177480E-04
6.515721E+03	4.566651E-02	5.238649E-04
6.525608E+03	4.609303E-02	5.299556E-04
6.535495E+03	4.650980E-02	5.359418E-04
6.545383E+03	4.690873E-02	5.417279E-04
6.555270E+03	4.728357E-02	5.472388E-04
6.565157E+03	4.762700E-02	5.523868E-04
6.575044E+03	4.793312E-02	5.570994E-04
6.584932E+03	4.819767E-02	5.613234E-04
6.594819E+03	4.841656E-02	5.650070E-04
6.604706E+03	4.858594E-02	5.681010E-04
6.614594E+03	4.870392E-02	5.705791E-04
6.624481E+03	4.877061E-02	5.724383E-04
6.634368E+03	4.878564E-02	5.736705E-04
6.644255E+03	4.875152E-02	5.743013E-04
6.654143E+03	4.867096E-02	5.743594E-04
6.664030E+03	4.854681E-02	5.738753E-04
6.673917E+03	4.838452E-02	5.729110E-04
6.683805E+03	4.818937E-02	5.715269E-04
6.693692E+03	4.796643E-02	5.697815E-04
6.703579E+03	4.772195E-02	5.677480E-04
6.713466E+03	4.746416E-02	5.655235E-04
6.723354E+03	4.719789E-02	5.631656E-04
6.733241E+03	4.693052E-02	5.607624E-04
6.743128E+03	4.666822E-02	5.583885E-04
6.753016E+03	4.641599E-02	5.561045E-04
6.762903E+03	4.617993E-02	5.539848E-04
6.772790E+03	4.596385E-02	5.520768E-04
6.782677E+03	4.577335E-02	5.504493E-04
6.792565E+03	4.560984E-02	5.491212E-04
6.802452E+03	4.547564E-02	5.481224E-04
6.812339E+03	4.537380E-02	5.474916E-04
6.822227E+03	4.530314E-02	5.472169E-04
6.832114E+03	4.526420E-02	5.473065E-04
6.842001E+03	4.525497E-02	5.477384E-04
6.851888E+03	4.527443E-02	5.485019E-04
6.861776E+03	4.531999E-02	5.495677E-04
6.871663E+03	4.538763E-02	5.508889E-04
6.881550E+03	4.547462E-02	5.524338E-04
6.891438E+03	4.557615E-02	5.541458E-04
6.901325E+03	4.568898E-02	5.559868E-04
6.911212E+03	4.580884E-02	5.579065E-04
6.921099E+03	4.593077E-02	5.598459E-04
6.930987E+03	4.605169E-02	5.617686E-04
6.940874E+03	4.616714E-02	5.636216E-04
6.950761E+03	4.627386E-02	5.653663E-04
6.960649E+03	4.637003E-02	5.669819E-04
6.970536E+03	4.645351E-02	5.684433E-04
6.980423E+03	4.652082E-02	5.697093E-04
6.990310E+03	4.657278E-02	5.707912E-04
7.000198E+03	4.660886E-02	5.716838E-04
7.010085E+03	4.662815E-02	5.723775E-04
7.019972E+03	4.663108E-02	5.728790E-04
7.029860E+03	4.661848E-02	5.731997E-04
7.039747E+03	4.659236E-02	5.733662E-04
7.049634E+03	4.655211E-02	5.733725E-04
7.059521E+03	4.650110E-02	5.732618E-04
7.069409E+03	4.644078E-02	5.730536E-04
7.079296E+03	4.637066E-02	5.727440E-04
7.089183E+03	4.629308E-02	5.723635E-04
7.099071E+03	4.620929E-02	5.719294E-04
7.108958E+03	4.612130E-02	5.714689E-04
7.118845E+03	4.602809E-02	5.709712E-04
7.128732E+03	4.593229E-02	5.704711E-04
7.138620E+03	4.583249E-02	5.699530E-04
7.148507E+03	4.573091E-02	5.694469E-04
7.158394E+03	4.562574E-02	5.689322E-04
7.168282E+03	4.551796E-02	5.684233E-04
7.178169E+03	4.540836E-02	5.679322E-04
7.188056E+03	4.529469E-02	5.674330E-04
7.197943E+03	4.517757E-02	5.669355E-04
7.207831E+03	4.505652E-02	5.664354E-04
7.217718E+03	4.493107E-02	5.659290E-04
7.227605E+03	4.480067E-02	5.654110E-04
7.237493E+03	4.466578E-02	5.648892E-04
7.247380E+03	4.452387E-02	5.643333E-04
7.257267E+03	4.437639E-02	5.637629E-04
7.267154E+03	4.422184E-02	5.631606E-04
7.277042E+03	4.406066E-02	5.625333E-04
7.286929E+03	4.389136E-02	5.618630E-04
7.296816E+03	4.371541E-02	5.611696E-04
7.306704E+03	4.353232E-02	5.604475E-04
7.316591E+03	4.334151E-02	5.596901E-04
7.326478E+03	4.314348E-02	5.589045E-04
7.336365E+03	4.293768E-02	5.580839E-04
7.346253E+03	4.272558E-02	5.572477E-04
7.356140E+03	4.250460E-02	5.563621E-04
7.366027E+03	4.227628E-02	5.554474E-04
7.375915E+03	4.203913E-02	5.544835E-04
7.385802E+03	4.179178E-02	5.534516E-04
7.395689E+03	4.153497E-02	5.523603E-04
7.405576E+03	4.126560E-02	5.511667E-04
7.415464E+03	4.098581E-02	5.498959E-04
7.425351E+03	4.069504E-02	5.485349E-04
7.435238E+03	4.039316E-02	5.470766E-04
7.445126E+03	4.008276E-02	5.455507E-04
7.455013E+03	3.976538E-02	5.439729E-04
7.464900E+03	3.944287E-02	5.423636E-04
7.474787E+03	3.912052E-02	5.407912E-04
7.484675E+03	3.880131E-02	5.392939E-04
7.494562E+03	3.848836E-02	5.379123E-04
7.504449E+03	3.818659E-02	5.367134E-04
7.514337E+03	3.789865E-02	5.357342E-04
7.524224E+03	3.762776E-02	5.350206E-04
7.534111E+03	3.737755E-02	5.346255E-04
7.543998E+03	3.715023E-02	5.345831E-04
7.553886E+03	3.694553E-02	5.348926E-04
7.563773E+03	3.676645E-02	5.356011E-04
7.573660E+03	3.661258E-02	5.367069E-04
7.583548E+03	3.648399E-02	5.382159E-04
7.593435E+03	3.638121E-02	5.401405E-04
7.603322E+03	3.630241E-02	5.424588E-04
7.613209E+03	3.624628E-02	5.451562E-04
7.623097E+03	3.621216E-02	5.482274E-04
7.632984E+03	3.619708E-02	5.516322E-04
7.642871E+03	3.619978E-02	5.553554E-04
7.652759E+03	3.621684E-02	5.593481E-04
7.662646E+03	3.624653E-02	5.635864E-04
7.672533E+03	3.628508E-02	5.680138E-04
