#wls	flux	fluxerr
1.581966E+03	2.517459E-02	5.321519E-04
1.621515E+03	2.586906E-02	5.457600E-04
1.661064E+03	2.656745E-02	5.593646E-04
1.700613E+03	2.726607E-02	5.728856E-04
1.740162E+03	2.796836E-02	5.863919E-04
1.779711E+03	2.866993E-02	5.997882E-04
1.819260E+03	2.936972E-02	6.130495E-04
1.858810E+03	3.006224E-02	6.260586E-04
1.898359E+03	3.075319E-02	6.389322E-04
1.937908E+03	3.143204E-02	6.514486E-04
1.977457E+03	3.210723E-02	6.637815E-04
2.017006E+03	3.277462E-02	6.758423E-04
2.056555E+03	3.343312E-02	6.876069E-04
2.096104E+03	3.408054E-02	6.990287E-04
2.135654E+03	3.471352E-02	7.100372E-04
2.175203E+03	3.533894E-02	7.207720E-04
2.214752E+03	3.595029E-02	7.310988E-04
2.254301E+03	3.653561E-02	7.407741E-04
2.293850E+03	3.709994E-02	7.499014E-04
2.333399E+03	3.762026E-02	7.580177E-04
2.372948E+03	3.809050E-02	7.650064E-04
2.412498E+03	3.848885E-02	7.704377E-04
2.452047E+03	3.879662E-02	7.739508E-04
2.491596E+03	3.899816E-02	7.752509E-04
2.531145E+03	3.907182E-02	7.739296E-04
2.570694E+03	3.900629E-02	7.697900E-04
2.610243E+03	3.878561E-02	7.625482E-04
2.649792E+03	3.839383E-02	7.519272E-04
2.689342E+03	3.782891E-02	7.379270E-04
2.728891E+03	3.707981E-02	7.203756E-04
2.768440E+03	3.615212E-02	6.994282E-04
2.807989E+03	3.504911E-02	6.751951E-04
2.847538E+03	3.377992E-02	6.479000E-04
2.887087E+03	3.236261E-02	6.179357E-04
2.926636E+03	3.082403E-02	5.858575E-04
2.966185E+03	2.919954E-02	5.523737E-04
2.976073E+03	2.878519E-02	5.438849E-04
2.985960E+03	2.836747E-02	5.353482E-04
2.995847E+03	2.794796E-02	5.267938E-04
3.005735E+03	2.752694E-02	5.182269E-04
3.015622E+03	2.710577E-02	5.096739E-04
3.025509E+03	2.668476E-02	5.011402E-04
3.035396E+03	2.626301E-02	4.926092E-04
3.045284E+03	2.584294E-02	4.841267E-04
3.055171E+03	2.542372E-02	4.756769E-04
3.065058E+03	2.500660E-02	4.672833E-04
3.074946E+03	2.459178E-02	4.589496E-04
3.084833E+03	2.418038E-02	4.506966E-04
3.094720E+03	2.377166E-02	4.425106E-04
3.104607E+03	2.336757E-02	4.344277E-04
3.114495E+03	2.296656E-02	4.264188E-04
3.124382E+03	2.257129E-02	4.185331E-04
3.134269E+03	2.218101E-02	4.107568E-04
3.144157E+03	2.179587E-02	4.030921E-04
3.154044E+03	2.141674E-02	3.955548E-04
3.163931E+03	2.104439E-02	3.881591E-04
3.173818E+03	2.067819E-02	3.808925E-04
3.183706E+03	2.031889E-02	3.737689E-04
3.193593E+03	1.996654E-02	3.667887E-04
3.203480E+03	1.962244E-02	3.599754E-04
3.213368E+03	1.928595E-02	3.533166E-04
3.223255E+03	1.895709E-02	3.468123E-04
3.233142E+03	1.863702E-02	3.404831E-04
3.243029E+03	1.832512E-02	3.343173E-04
3.252917E+03	1.802192E-02	3.283241E-04
3.262804E+03	1.772739E-02	3.225022E-04
3.272691E+03	1.744198E-02	3.168592E-04
3.282579E+03	1.716563E-02	3.113934E-04
3.292466E+03	1.689873E-02	3.061113E-04
3.302353E+03	1.664075E-02	3.010027E-04
3.312240E+03	1.639250E-02	2.960818E-04
3.322128E+03	1.615346E-02	2.913381E-04
3.332015E+03	1.592396E-02	2.867772E-04
3.341902E+03	1.570390E-02	2.823965E-04
3.351790E+03	1.549281E-02	2.781869E-04
3.361677E+03	1.529135E-02	2.741596E-04
3.371564E+03	1.509868E-02	2.702990E-04
3.381451E+03	1.491543E-02	2.666154E-04
3.391339E+03	1.474078E-02	2.630936E-04
3.401226E+03	1.457496E-02	2.597372E-04
3.411113E+03	1.441720E-02	2.565318E-04
3.421001E+03	1.426772E-02	2.534804E-04
3.430888E+03	1.412604E-02	2.505743E-04
3.440775E+03	1.399144E-02	2.477999E-04
3.450662E+03	1.386378E-02	2.451541E-04
3.460550E+03	1.374232E-02	2.426236E-04
3.470437E+03	1.362638E-02	2.401957E-04
3.480324E+03	1.351578E-02	2.378669E-04
3.490212E+03	1.340958E-02	2.356201E-04
3.500099E+03	1.330759E-02	2.334519E-04
3.509986E+03	1.320869E-02	2.313421E-04
3.519873E+03	1.311297E-02	2.292924E-04
3.529761E+03	1.301941E-02	2.272844E-04
3.539648E+03	1.292777E-02	2.253139E-04
3.549535E+03	1.283766E-02	2.233741E-04
3.559423E+03	1.274861E-02	2.214565E-04
3.569310E+03	1.266029E-02	2.195556E-04
3.579197E+03	1.257315E-02	2.176790E-04
3.589084E+03	1.248756E-02	2.158330E-04
3.598972E+03	1.240424E-02	2.140298E-04
3.608859E+03	1.232400E-02	2.122835E-04
3.618746E+03	1.224784E-02	2.106108E-04
3.628634E+03	1.217684E-02	2.090301E-04
3.638521E+03	1.211223E-02	2.075619E-04
3.648408E+03	1.205552E-02	2.062316E-04
3.658295E+03	1.200812E-02	2.050625E-04
3.668183E+03	1.197137E-02	2.040766E-04
3.678070E+03	1.194701E-02	2.033026E-04
3.687957E+03	1.193664E-02	2.027666E-04
3.697845E+03	1.194173E-02	2.024924E-04
3.707732E+03	1.196424E-02	2.025117E-04
3.717619E+03	1.200546E-02	2.028447E-04
3.727506E+03	1.206714E-02	2.035192E-04
3.737394E+03	1.215079E-02	2.045586E-04
3.747281E+03	1.225769E-02	2.059826E-04
3.757168E+03	1.238950E-02	2.078168E-04
3.767056E+03	1.254711E-02	2.100739E-04
3.776943E+03	1.273192E-02	2.127747E-04
3.786830E+03	1.294449E-02	2.159260E-04
3.796717E+03	1.318565E-02	2.195391E-04
3.806605E+03	1.345581E-02	2.236182E-04
3.816492E+03	1.375527E-02	2.281653E-04
3.826379E+03	1.408346E-02	2.331682E-04
3.836267E+03	1.444010E-02	2.386195E-04
3.846154E+03	1.482378E-02	2.444932E-04
3.856041E+03	1.523331E-02	2.507673E-04
3.865928E+03	1.566667E-02	2.574058E-04
3.875816E+03	1.612092E-02	2.643584E-04
3.885703E+03	1.659354E-02	2.715815E-04
3.895590E+03	1.708052E-02	2.790080E-04
3.905478E+03	1.757771E-02	2.865688E-04
3.915365E+03	1.808093E-02	2.941946E-04
3.925252E+03	1.858475E-02	3.017968E-04
3.935139E+03	1.908408E-02	3.092925E-04
3.945027E+03	1.957362E-02	3.165966E-04
3.954914E+03	2.004741E-02	3.236138E-04
3.964801E+03	2.050049E-02	3.302654E-04
3.974689E+03	2.092774E-02	3.364711E-04
3.984576E+03	2.132406E-02	3.421517E-04
3.994463E+03	2.168611E-02	3.472566E-04
4.004350E+03	2.201015E-02	3.517292E-04
4.014238E+03	2.229372E-02	3.555341E-04
4.024125E+03	2.253571E-02	3.586575E-04
4.034012E+03	2.273494E-02	3.610850E-04
4.043900E+03	2.289181E-02	3.628266E-04
4.053787E+03	2.300721E-02	3.639010E-04
4.063674E+03	2.308275E-02	3.643378E-04
4.073561E+03	2.312064E-02	3.641753E-04
4.083449E+03	2.312356E-02	3.634596E-04
4.093336E+03	2.309434E-02	3.622388E-04
4.103223E+03	2.303659E-02	3.605723E-04
4.113111E+03	2.295361E-02	3.585147E-04
4.122998E+03	2.284929E-02	3.561291E-04
4.132885E+03	2.272683E-02	3.534675E-04
4.142772E+03	2.259008E-02	3.505915E-04
4.152660E+03	2.244257E-02	3.475572E-04
4.162547E+03	2.228723E-02	3.444111E-04
4.172434E+03	2.212727E-02	3.412035E-04
4.182322E+03	2.196572E-02	3.379814E-04
4.192209E+03	2.180498E-02	3.347822E-04
4.202096E+03	2.164771E-02	3.316463E-04
4.211983E+03	2.149617E-02	3.286080E-04
4.221871E+03	2.135247E-02	3.256992E-04
4.231758E+03	2.121838E-02	3.229457E-04
4.241645E+03	2.109571E-02	3.203745E-04
4.251533E+03	2.098596E-02	3.180071E-04
4.261420E+03	2.089087E-02	3.158684E-04
4.271307E+03	2.081119E-02	3.139684E-04
4.281194E+03	2.074825E-02	3.123259E-04
4.291082E+03	2.070255E-02	3.109463E-04
4.300969E+03	2.067467E-02	3.098368E-04
4.310856E+03	2.066507E-02	3.090028E-04
4.320744E+03	2.067360E-02	3.084399E-04
4.330631E+03	2.070058E-02	3.081515E-04
4.340518E+03	2.074718E-02	3.081528E-04
4.350405E+03	2.081574E-02	3.084768E-04
4.360293E+03	2.090870E-02	3.091573E-04
4.370180E+03	2.102788E-02	3.102189E-04
4.380067E+03	2.117515E-02	3.116865E-04
4.389955E+03	2.135217E-02	3.135817E-04
4.399842E+03	2.155960E-02	3.159113E-04
4.409729E+03	2.179787E-02	3.186786E-04
4.419616E+03	2.206699E-02	3.218808E-04
4.429504E+03	2.236673E-02	3.255114E-04
4.439391E+03	2.269571E-02	3.295475E-04
4.449278E+03	2.305225E-02	3.339618E-04
4.459166E+03	2.343449E-02	3.387250E-04
4.469053E+03	2.383930E-02	3.437893E-04
4.478940E+03	2.426286E-02	3.490975E-04
4.488827E+03	2.470104E-02	3.545890E-04
4.498715E+03	2.514832E-02	3.601830E-04
4.508602E+03	2.559907E-02	3.657984E-04
4.518489E+03	2.604651E-02	3.713384E-04
4.528377E+03	2.648294E-02	3.766937E-04
4.538264E+03	2.690039E-02	3.817526E-04
4.548151E+03	2.729095E-02	3.864051E-04
4.558038E+03	2.764567E-02	3.905276E-04
4.567926E+03	2.795619E-02	3.940056E-04
4.577813E+03	2.821456E-02	3.967319E-04
4.587700E+03	2.841365E-02	3.986119E-04
4.597588E+03	2.854714E-02	3.995627E-04
4.607475E+03	2.861022E-02	3.995237E-04
4.617362E+03	2.859996E-02	3.984608E-04
4.627249E+03	2.851508E-02	3.963637E-04
4.637137E+03	2.835592E-02	3.932442E-04
4.647024E+03	2.812586E-02	3.891562E-04
4.656911E+03	2.782930E-02	3.841672E-04
4.666798E+03	2.747306E-02	3.783775E-04
4.676686E+03	2.706575E-02	3.719112E-04
4.686573E+03	2.661741E-02	3.649106E-04
4.696460E+03	2.613918E-02	3.575318E-04
4.706348E+03	2.564328E-02	3.499448E-04
4.716235E+03	2.514436E-02	3.423503E-04
4.726122E+03	2.465671E-02	3.349425E-04
4.736009E+03	2.419383E-02	3.279035E-04
4.745897E+03	2.376851E-02	3.214037E-04
4.755784E+03	2.339144E-02	3.155840E-04
4.765671E+03	2.307228E-02	3.105696E-04
4.775559E+03	2.281928E-02	3.064661E-04
4.785446E+03	2.263844E-02	3.033476E-04
4.795333E+03	2.253458E-02	3.012720E-04
4.805220E+03	2.251069E-02	3.002720E-04
4.815108E+03	2.256825E-02	3.003602E-04
4.824995E+03	2.270701E-02	3.015257E-04
4.834882E+03	2.292461E-02	3.037303E-04
4.844770E+03	2.321650E-02	3.069067E-04
4.854657E+03	2.357665E-02	3.109688E-04
4.864544E+03	2.399636E-02	3.157963E-04
4.874431E+03	2.446448E-02	3.212375E-04
4.884319E+03	2.496840E-02	3.271232E-04
4.894206E+03	2.549271E-02	3.332491E-04
4.904093E+03	2.602162E-02	3.394075E-04
4.913981E+03	2.653817E-02	3.453776E-04
4.923868E+03	2.702520E-02	3.509378E-04
4.933755E+03	2.746801E-02	3.559004E-04
4.943642E+03	2.785300E-02	3.600935E-04
4.953530E+03	2.817038E-02	3.633961E-04
4.963417E+03	2.841389E-02	3.657333E-04
4.973304E+03	2.858104E-02	3.670796E-04
4.983192E+03	2.867387E-02	3.674678E-04
4.993079E+03	2.869774E-02	3.669727E-04
5.002966E+03	2.866069E-02	3.657026E-04
5.012853E+03	2.857347E-02	3.637995E-04
5.022741E+03	2.844758E-02	3.614136E-04
5.032628E+03	2.829546E-02	3.587062E-04
5.042515E+03	2.812922E-02	3.558320E-04
5.052403E+03	2.795952E-02	3.529271E-04
5.062290E+03	2.779731E-02	3.501297E-04
5.072177E+03	2.765046E-02	3.475378E-04
5.082064E+03	2.752649E-02	3.452447E-04
5.091952E+03	2.743119E-02	3.433209E-04
5.101839E+03	2.736924E-02	3.418226E-04
5.111726E+03	2.734335E-02	3.407809E-04
5.121614E+03	2.735572E-02	3.402206E-04
5.131501E+03	2.740833E-02	3.401631E-04
5.141388E+03	2.750103E-02	3.406035E-04
5.151275E+03	2.763452E-02	3.415474E-04
5.161163E+03	2.780809E-02	3.429832E-04
5.171050E+03	2.802089E-02	3.448975E-04
5.180937E+03	2.827163E-02	3.472714E-04
5.190825E+03	2.855828E-02	3.500775E-04
5.200712E+03	2.887908E-02	3.532919E-04
5.210599E+03	2.923124E-02	3.568780E-04
5.220486E+03	2.961230E-02	3.608038E-04
5.230374E+03	3.001861E-02	3.650231E-04
5.240261E+03	3.044722E-02	3.694987E-04
5.250148E+03	3.089471E-02	3.741875E-04
5.260036E+03	3.135728E-02	3.790428E-04
5.269923E+03	3.183132E-02	3.840201E-04
5.279810E+03	3.231357E-02	3.890800E-04
5.289697E+03	3.279996E-02	3.941731E-04
5.299585E+03	3.328715E-02	3.992595E-04
5.309472E+03	3.377241E-02	4.043069E-04
5.319359E+03	3.425351E-02	4.092890E-04
5.329247E+03	3.472917E-02	4.141915E-04
5.339134E+03	3.519973E-02	4.190190E-04
5.349021E+03	3.566450E-02	4.237640E-04
5.358908E+03	3.612272E-02	4.284181E-04
5.368796E+03	3.657114E-02	4.329436E-04
5.378683E+03	3.700602E-02	4.372969E-04
5.388570E+03	3.742058E-02	4.413994E-04
5.398458E+03	3.780587E-02	4.451471E-04
5.408345E+03	3.815088E-02	4.484125E-04
5.418232E+03	3.844220E-02	4.510411E-04
5.428119E+03	3.866533E-02	4.528666E-04
5.438007E+03	3.880564E-02	4.537218E-04
5.447894E+03	3.884855E-02	4.534421E-04
5.457781E+03	3.878139E-02	4.518855E-04
5.467669E+03	3.859468E-02	4.489482E-04
5.477556E+03	3.828185E-02	4.445609E-04
5.487443E+03	3.784255E-02	4.387268E-04
5.497330E+03	3.728062E-02	4.314973E-04
5.507218E+03	3.660459E-02	4.229777E-04
5.517105E+03	3.582839E-02	4.133348E-04
5.526992E+03	3.496918E-02	4.027716E-04
5.536880E+03	3.404801E-02	3.915341E-04
5.546767E+03	3.308776E-02	3.798880E-04
5.556654E+03	3.211259E-02	3.681119E-04
5.566541E+03	3.114696E-02	3.564859E-04
5.576429E+03	3.021453E-02	3.452794E-04
5.586316E+03	2.933868E-02	3.347569E-04
5.596203E+03	2.854002E-02	3.251497E-04
5.606091E+03	2.783724E-02	3.166660E-04
5.615978E+03	2.724690E-02	3.094885E-04
5.625865E+03	2.678237E-02	3.037630E-04
5.635752E+03	2.645469E-02	2.996079E-04
5.645640E+03	2.627289E-02	2.971182E-04
5.655527E+03	2.624223E-02	2.963460E-04
5.665414E+03	2.636593E-02	2.973205E-04
5.675302E+03	2.664499E-02	3.000456E-04
5.685189E+03	2.707655E-02	3.044819E-04
5.695076E+03	2.765483E-02	3.105574E-04
5.704963E+03	2.837073E-02	3.181640E-04
5.714851E+03	2.921043E-02	3.271407E-04
5.724738E+03	3.015758E-02	3.372998E-04
5.734625E+03	3.119040E-02	3.483937E-04
5.744513E+03	3.228402E-02	3.601421E-04
5.754400E+03	3.341152E-02	3.722428E-04
5.764287E+03	3.454315E-02	3.843642E-04
5.774174E+03	3.564899E-02	3.961745E-04
5.784062E+03	3.670018E-02	4.073550E-04
5.793949E+03	3.767077E-02	4.176211E-04
5.803836E+03	3.853801E-02	4.267247E-04
5.813724E+03	3.928350E-02	4.344671E-04
5.823611E+03	3.989483E-02	4.407166E-04
5.833498E+03	4.036507E-02	4.454023E-04
5.843385E+03	4.069178E-02	4.485031E-04
5.853273E+03	4.087770E-02	4.500548E-04
5.863160E+03	4.093027E-02	4.501446E-04
5.873047E+03	4.085933E-02	4.488855E-04
5.882935E+03	4.067859E-02	4.464325E-04
5.892822E+03	4.040196E-02	4.429417E-04
5.902709E+03	4.004457E-02	4.385821E-04
5.912596E+03	3.962165E-02	4.335227E-04
5.922484E+03	3.914833E-02	4.279312E-04
5.932371E+03	3.863849E-02	4.219601E-04
5.942258E+03	3.810422E-02	4.157426E-04
5.952146E+03	3.755763E-02	4.094109E-04
5.962033E+03	3.700765E-02	4.030623E-04
5.971920E+03	3.646350E-02	3.967972E-04
5.981807E+03	3.593134E-02	3.906820E-04
5.991695E+03	3.541772E-02	3.847873E-04
6.001582E+03	3.492688E-02	3.791581E-04
6.011469E+03	3.446227E-02	3.738313E-04
6.021357E+03	3.402682E-02	3.688376E-04
6.031244E+03	3.362170E-02	3.641889E-04
6.041131E+03	3.324802E-02	3.598960E-04
6.051018E+03	3.290585E-02	3.559591E-04
6.060906E+03	3.259309E-02	3.523545E-04
6.070793E+03	3.230857E-02	3.490689E-04
6.080680E+03	3.204882E-02	3.460640E-04
6.090568E+03	3.180957E-02	3.432933E-04
6.100455E+03	3.158520E-02	3.406957E-04
6.110342E+03	3.136884E-02	3.381969E-04
6.120229E+03	3.115393E-02	3.357257E-04
6.130117E+03	3.093255E-02	3.331971E-04
6.140004E+03	3.069797E-02	3.305381E-04
6.149891E+03	3.044348E-02	3.276767E-04
6.159779E+03	3.016527E-02	3.245713E-04
6.169666E+03	2.986008E-02	3.211868E-04
6.179553E+03	2.952818E-02	3.175261E-04
6.189440E+03	2.917278E-02	3.136233E-04
6.199328E+03	2.879848E-02	3.095276E-04
6.209215E+03	2.841090E-02	3.052991E-04
6.219102E+03	2.801478E-02	3.009885E-04
6.228990E+03	2.761655E-02	2.966641E-04
6.238877E+03	2.722014E-02	2.923679E-04
6.248764E+03	2.682989E-02	2.881461E-04
6.258651E+03	2.644879E-02	2.840301E-04
6.268539E+03	2.607897E-02	2.800425E-04
6.278426E+03	2.572174E-02	2.761970E-04
6.288313E+03	2.537812E-02	2.725038E-04
6.298201E+03	2.504799E-02	2.689617E-04
6.308088E+03	2.473224E-02	2.655796E-04
6.317975E+03	2.443047E-02	2.623530E-04
6.327862E+03	2.414377E-02	2.592933E-04
6.337750E+03	2.387356E-02	2.564154E-04
6.347637E+03	2.362204E-02	2.537429E-04
6.357524E+03	2.339265E-02	2.513124E-04
6.367412E+03	2.318842E-02	2.491563E-04
6.377299E+03	2.301502E-02	2.473356E-04
6.387186E+03	2.287682E-02	2.458970E-04
6.397073E+03	2.277938E-02	2.449005E-04
6.406961E+03	2.272823E-02	2.444056E-04
6.416848E+03	2.272845E-02	2.444674E-04
6.426735E+03	2.278409E-02	2.451294E-04
6.436623E+03	2.289805E-02	2.464236E-04
6.446510E+03	2.307222E-02	2.483706E-04
6.456397E+03	2.330723E-02	2.509779E-04
6.466284E+03	2.360106E-02	2.542242E-04
6.476172E+03	2.395124E-02	2.580839E-04
6.486059E+03	2.435189E-02	2.624941E-04
6.495946E+03	2.479711E-02	2.673920E-04
6.505833E+03	2.527877E-02	2.726904E-04
6.515721E+03	2.578689E-02	2.782825E-04
6.525608E+03	2.631076E-02	2.840530E-04
6.535495E+03	2.683927E-02	2.898823E-04
6.545383E+03	2.736010E-02	2.956376E-04
6.555270E+03	2.786165E-02	3.011934E-04
6.565157E+03	2.833191E-02	3.064200E-04
6.575044E+03	2.876080E-02	3.112078E-04
6.584932E+03	2.913750E-02	3.154392E-04
6.594819E+03	2.945390E-02	3.190255E-04
6.604706E+03	2.970295E-02	3.218896E-04
6.614594E+03	2.987941E-02	3.239736E-04
6.624481E+03	2.998041E-02	3.252451E-04
6.634368E+03	3.000369E-02	3.256782E-04
6.644255E+03	2.995060E-02	3.252861E-04
6.654143E+03	2.982346E-02	3.240928E-04
6.664030E+03	2.962571E-02	3.221342E-04
6.673917E+03	2.936335E-02	3.194739E-04
6.683805E+03	2.904298E-02	3.161824E-04
6.693692E+03	2.867355E-02	3.123562E-04
6.703579E+03	2.826493E-02	3.081014E-04
6.713466E+03	2.782814E-02	3.035374E-04
6.723354E+03	2.737522E-02	2.987948E-04
6.733241E+03	2.691850E-02	2.940077E-04
6.743128E+03	2.647197E-02	2.893289E-04
6.753016E+03	2.604840E-02	2.848981E-04
6.762903E+03	2.566079E-02	2.808578E-04
6.772790E+03	2.532092E-02	2.773378E-04
6.782677E+03	2.504112E-02	2.744744E-04
6.792565E+03	2.482986E-02	2.723617E-04
6.802452E+03	2.469564E-02	2.710947E-04
6.812339E+03	2.464323E-02	2.707278E-04
6.822227E+03	2.467642E-02	2.713045E-04
6.832114E+03	2.479540E-02	2.728294E-04
6.842001E+03	2.499654E-02	2.752648E-04
6.851888E+03	2.527465E-02	2.785559E-04
6.861776E+03	2.562044E-02	2.826024E-04
6.871663E+03	2.602053E-02	2.872586E-04
6.881550E+03	2.646048E-02	2.923669E-04
6.891438E+03	2.692272E-02	2.977342E-04
6.901325E+03	2.738789E-02	3.031473E-04
6.911212E+03	2.783683E-02	3.083944E-04
6.921099E+03	2.825153E-02	3.132753E-04
6.930987E+03	2.861673E-02	3.176202E-04
6.940874E+03	2.891976E-02	3.212869E-04
6.950761E+03	2.915318E-02	3.241910E-04
6.960649E+03	2.931328E-02	3.262892E-04
6.970536E+03	2.940196E-02	3.276004E-04
6.980423E+03	2.942442E-02	3.281805E-04
6.990310E+03	2.938981E-02	3.281296E-04
7.000198E+03	2.931027E-02	3.275812E-04
7.010085E+03	2.919823E-02	3.266732E-04
7.019972E+03	2.906752E-02	3.255594E-04
7.029860E+03	2.893035E-02	3.243759E-04
7.039747E+03	2.879853E-02	3.232550E-04
7.049634E+03	2.868151E-02	3.223034E-04
7.059521E+03	2.858595E-02	3.215964E-04
7.069409E+03	2.851658E-02	3.211883E-04
7.079296E+03	2.847694E-02	3.211200E-04
7.089183E+03	2.846563E-02	3.213771E-04
7.099071E+03	2.848265E-02	3.219608E-04
7.108958E+03	2.852430E-02	3.228305E-04
7.118845E+03	2.858560E-02	3.239312E-04
7.128732E+03	2.866240E-02	3.252166E-04
7.138620E+03	2.874790E-02	3.266104E-04
7.148507E+03	2.883717E-02	3.280570E-04
7.158394E+03	2.892369E-02	3.294827E-04
7.168282E+03	2.900232E-02	3.308289E-04
7.178169E+03	2.906729E-02	3.320295E-04
7.188056E+03	2.911465E-02	3.330389E-04
7.197943E+03	2.914059E-02	3.338127E-04
7.207831E+03	2.914298E-02	3.343258E-04
7.217718E+03	2.911948E-02	3.345502E-04
7.227605E+03	2.907007E-02	3.344843E-04
7.237493E+03	2.899513E-02	3.341315E-04
7.247380E+03	2.889605E-02	3.335066E-04
7.257267E+03	2.877551E-02	3.326392E-04
7.267154E+03	2.863674E-02	3.315656E-04
7.277042E+03	2.848206E-02	3.303118E-04
7.286929E+03	2.831497E-02	3.289174E-04
7.296816E+03	2.813806E-02	3.274121E-04
7.306704E+03	2.795411E-02	3.258275E-04
7.316591E+03	2.776466E-02	3.241811E-04
7.326478E+03	2.757066E-02	3.224837E-04
7.336365E+03	2.737187E-02	3.207321E-04
7.346253E+03	2.716925E-02	3.189373E-04
7.356140E+03	2.696108E-02	3.170788E-04
7.366027E+03	2.674654E-02	3.151463E-04
7.375915E+03	2.652528E-02	3.131353E-04
7.385802E+03	2.629576E-02	3.110270E-04
7.395689E+03	2.605664E-02	3.088047E-04
7.405576E+03	2.580733E-02	3.064608E-04
7.415464E+03	2.554709E-02	3.039854E-04
7.425351E+03	2.527667E-02	3.013863E-04
7.435238E+03	2.499568E-02	2.986576E-04
7.445126E+03	2.470599E-02	2.958204E-04
7.455013E+03	2.440975E-02	2.928992E-04
7.464900E+03	2.410980E-02	2.899275E-04
7.474787E+03	2.381108E-02	2.869636E-04
7.484675E+03	2.351940E-02	2.840776E-04
7.494562E+03	2.324013E-02	2.813345E-04
7.504449E+03	2.297761E-02	2.787875E-04
7.514337E+03	2.273747E-02	2.765060E-04
7.524224E+03	2.252447E-02	2.745495E-04
7.534111E+03	2.234285E-02	2.729717E-04
7.543998E+03	2.219621E-02	2.718191E-04
7.553886E+03	2.208686E-02	2.711228E-04
7.563773E+03	2.201719E-02	2.709151E-04
7.573660E+03	2.198758E-02	2.712042E-04
7.583548E+03	2.199779E-02	2.719902E-04
7.593435E+03	2.204689E-02	2.732653E-04
7.603322E+03	2.213229E-02	2.750007E-04
7.613209E+03	2.224979E-02	2.771471E-04
7.623097E+03	2.239462E-02	2.796482E-04
7.632984E+03	2.256171E-02	2.824427E-04
7.642871E+03	2.274480E-02	2.854544E-04
7.652759E+03	2.293673E-02	2.885948E-04
7.662646E+03	2.313077E-02	2.917795E-04
7.672533E+03	2.332094E-02	2.949333E-04
