#wls	flux	fluxerr
1.581966E+03	1.601454E-02	6.646041E-04
1.621515E+03	1.635311E-02	6.781219E-04
1.661064E+03	1.668741E-02	6.914263E-04
1.700613E+03	1.701244E-02	7.043102E-04
1.740162E+03	1.732868E-02	7.167928E-04
1.779711E+03	1.763362E-02	7.287699E-04
1.819260E+03	1.792753E-02	7.402536E-04
1.858810E+03	1.821064E-02	7.512525E-04
1.898359E+03	1.848003E-02	7.616471E-04
1.937908E+03	1.873867E-02	7.715598E-04
1.977457E+03	1.898334E-02	7.808580E-04
2.017006E+03	1.921361E-02	7.895255E-04
2.056555E+03	1.943194E-02	7.976632E-04
2.096104E+03	1.963438E-02	8.051101E-04
2.135654E+03	1.982889E-02	8.121928E-04
2.175203E+03	2.000777E-02	8.185971E-04
2.214752E+03	2.017211E-02	8.243678E-04
2.254301E+03	2.031364E-02	8.291691E-04
2.293850E+03	2.042702E-02	8.327853E-04
2.333399E+03	2.050404E-02	8.348862E-04
2.372948E+03	2.054245E-02	8.353844E-04
2.412498E+03	2.053194E-02	8.338669E-04
2.452047E+03	2.047115E-02	8.302858E-04
2.491596E+03	2.035402E-02	8.244042E-04
2.531145E+03	2.017815E-02	8.161342E-04
2.570694E+03	1.994453E-02	8.055258E-04
2.610243E+03	1.964816E-02	7.923881E-04
2.649792E+03	1.929467E-02	7.769602E-04
2.689342E+03	1.888411E-02	7.592551E-04
2.728891E+03	1.842594E-02	7.396649E-04
2.768440E+03	1.792420E-02	7.183617E-04
2.807989E+03	1.738751E-02	6.957010E-04
2.847538E+03	1.681518E-02	6.716640E-04
2.887087E+03	1.621509E-02	6.465743E-04
2.926636E+03	1.559023E-02	6.205589E-04
2.966185E+03	1.495450E-02	5.941783E-04
2.976073E+03	1.479478E-02	5.875630E-04
2.985960E+03	1.463418E-02	5.809170E-04
2.995847E+03	1.447531E-02	5.743441E-04
3.005735E+03	1.431584E-02	5.677520E-04
3.015622E+03	1.415712E-02	5.611944E-04
3.025509E+03	1.399928E-02	5.546757E-04
3.035396E+03	1.384241E-02	5.482005E-04
3.045284E+03	1.368553E-02	5.417296E-04
3.055171E+03	1.353097E-02	5.353550E-04
3.065058E+03	1.337771E-02	5.290365E-04
3.074946E+03	1.322585E-02	5.227779E-04
3.084833E+03	1.307549E-02	5.165832E-04
3.094720E+03	1.292772E-02	5.104951E-04
3.104607E+03	1.278061E-02	5.044376E-04
3.114495E+03	1.263717E-02	4.985298E-04
3.124382E+03	1.249456E-02	4.926587E-04
3.134269E+03	1.235567E-02	4.869386E-04
3.144157E+03	1.221864E-02	4.812966E-04
3.154044E+03	1.208356E-02	4.757351E-04
3.163931E+03	1.195220E-02	4.703247E-04
3.173818E+03	1.182368E-02	4.650297E-04
3.183706E+03	1.169798E-02	4.598500E-04
3.193593E+03	1.157511E-02	4.547852E-04
3.203480E+03	1.145505E-02	4.498347E-04
3.213368E+03	1.133856E-02	4.450284E-04
3.223255E+03	1.122482E-02	4.403333E-04
3.233142E+03	1.111531E-02	4.358076E-04
3.243029E+03	1.100841E-02	4.313879E-04
3.252917E+03	1.090555E-02	4.271297E-04
3.262804E+03	1.080587E-02	4.229995E-04
3.272691E+03	1.071000E-02	4.190211E-04
3.282579E+03	1.061708E-02	4.151614E-04
3.292466E+03	1.052838E-02	4.114693E-04
3.302353E+03	1.044302E-02	4.079108E-04
3.312240E+03	1.036086E-02	4.044796E-04
3.322128E+03	1.028300E-02	4.012187E-04
3.332015E+03	1.020856E-02	3.980935E-04
3.341902E+03	1.013732E-02	3.950954E-04
3.351790E+03	1.006966E-02	3.922386E-04
3.361677E+03	1.000589E-02	3.895356E-04
3.371564E+03	9.945705E-03	3.869737E-04
3.381451E+03	9.888773E-03	3.845400E-04
3.391339E+03	9.835329E-03	3.822435E-04
3.401226E+03	9.785000E-03	3.800694E-04
3.411113E+03	9.737952E-03	3.780240E-04
3.421001E+03	9.694311E-03	3.761120E-04
3.430888E+03	9.653105E-03	3.742953E-04
3.440775E+03	9.615475E-03	3.726182E-04
3.450662E+03	9.580923E-03	3.710611E-04
3.460550E+03	9.548960E-03	3.696049E-04
3.470437E+03	9.519596E-03	3.682497E-04
3.480324E+03	9.492326E-03	3.669760E-04
3.490212E+03	9.468083E-03	3.658196E-04
3.500099E+03	9.445399E-03	3.647235E-04
3.509986E+03	9.424258E-03	3.636872E-04
3.519873E+03	9.404208E-03	3.626930E-04
3.529761E+03	9.384838E-03	3.617251E-04
3.539648E+03	9.365796E-03	3.607698E-04
3.549535E+03	9.346392E-03	3.598007E-04
3.559423E+03	9.326463E-03	3.588113E-04
3.569310E+03	9.305554E-03	3.577844E-04
3.579197E+03	9.284140E-03	3.567381E-04
3.589084E+03	9.262033E-03	3.556654E-04
3.598972E+03	9.239584E-03	3.545798E-04
3.608859E+03	9.216561E-03	3.534724E-04
3.618746E+03	9.194378E-03	3.523974E-04
3.628634E+03	9.173129E-03	3.513584E-04
3.638521E+03	9.153790E-03	3.503927E-04
3.648408E+03	9.137140E-03	3.495301E-04
3.658295E+03	9.124748E-03	3.488301E-04
3.668183E+03	9.117612E-03	3.483307E-04
3.678070E+03	9.116834E-03	3.480736E-04
3.687957E+03	9.123888E-03	3.481145E-04
3.697845E+03	9.140284E-03	3.485103E-04
3.707732E+03	9.167224E-03	3.493063E-04
3.717619E+03	9.206203E-03	3.505586E-04
3.727506E+03	9.258674E-03	3.523214E-04
3.737394E+03	9.325741E-03	3.546358E-04
3.747281E+03	9.408728E-03	3.575509E-04
3.757168E+03	9.508575E-03	3.611011E-04
3.767056E+03	9.626397E-03	3.653276E-04
3.776943E+03	9.763168E-03	3.702657E-04
3.786830E+03	9.919419E-03	3.759342E-04
3.796717E+03	1.009577E-02	3.823549E-04
3.806605E+03	1.029234E-02	3.895308E-04
3.816492E+03	1.050928E-02	3.974659E-04
3.826379E+03	1.074646E-02	4.061536E-04
3.836267E+03	1.100315E-02	4.155646E-04
3.846154E+03	1.127855E-02	4.256673E-04
3.856041E+03	1.157122E-02	4.364059E-04
3.865928E+03	1.187964E-02	4.477213E-04
3.875816E+03	1.220190E-02	4.595409E-04
3.885703E+03	1.253547E-02	4.717674E-04
3.895590E+03	1.287742E-02	4.842903E-04
3.905478E+03	1.322510E-02	4.970092E-04
3.915365E+03	1.357498E-02	5.097904E-04
3.925252E+03	1.392322E-02	5.224904E-04
3.935139E+03	1.426612E-02	5.349701E-04
3.945027E+03	1.459953E-02	5.470741E-04
3.954914E+03	1.491989E-02	5.586701E-04
3.964801E+03	1.522309E-02	5.696053E-04
3.974689E+03	1.550521E-02	5.797344E-04
3.984576E+03	1.576264E-02	5.889244E-04
3.994463E+03	1.599317E-02	5.970944E-04
4.004350E+03	1.619349E-02	6.041236E-04
4.014238E+03	1.636219E-02	6.099615E-04
4.024125E+03	1.649783E-02	6.145572E-04
4.034012E+03	1.659992E-02	6.178956E-04
4.043900E+03	1.666859E-02	6.199837E-04
4.053787E+03	1.670419E-02	6.208377E-04
4.063674E+03	1.670791E-02	6.205043E-04
4.073561E+03	1.668104E-02	6.190344E-04
4.083449E+03	1.662558E-02	6.165050E-04
4.093336E+03	1.654385E-02	6.130038E-04
4.103223E+03	1.643837E-02	6.086272E-04
4.113111E+03	1.631161E-02	6.034678E-04
4.122998E+03	1.616642E-02	5.976335E-04
4.132885E+03	1.600600E-02	5.912435E-04
4.142772E+03	1.583268E-02	5.843860E-04
4.152660E+03	1.564960E-02	5.771770E-04
4.162547E+03	1.545919E-02	5.697079E-04
4.172434E+03	1.526429E-02	5.620832E-04
4.182322E+03	1.506726E-02	5.543906E-04
4.192209E+03	1.487004E-02	5.467019E-04
4.202096E+03	1.467516E-02	5.391091E-04
4.211983E+03	1.448397E-02	5.316627E-04
4.221871E+03	1.429867E-02	5.244428E-04
4.231758E+03	1.412090E-02	5.175084E-04
4.241645E+03	1.395219E-02	5.109157E-04
4.251533E+03	1.379427E-02	5.047270E-04
4.261420E+03	1.364862E-02	4.989955E-04
4.271307E+03	1.351692E-02	4.937814E-04
4.281194E+03	1.340061E-02	4.891363E-04
4.291082E+03	1.330171E-02	4.851323E-04
4.300969E+03	1.322119E-02	4.818032E-04
4.310856E+03	1.316093E-02	4.792161E-04
4.320744E+03	1.312212E-02	4.774123E-04
4.330631E+03	1.310622E-02	4.764432E-04
4.340518E+03	1.311417E-02	4.763407E-04
4.350405E+03	1.314713E-02	4.771449E-04
4.360293E+03	1.320592E-02	4.788833E-04
4.370180E+03	1.329119E-02	4.815770E-04
4.380067E+03	1.340321E-02	4.852336E-04
4.389955E+03	1.354266E-02	4.898753E-04
4.399842E+03	1.370929E-02	4.954902E-04
4.409729E+03	1.390263E-02	5.020595E-04
4.419616E+03	1.412222E-02	5.095639E-04
4.429504E+03	1.436734E-02	5.179750E-04
4.439391E+03	1.463620E-02	5.272257E-04
4.449278E+03	1.492781E-02	5.372789E-04
4.459166E+03	1.523960E-02	5.480395E-04
4.469053E+03	1.556969E-02	5.594389E-04
4.478940E+03	1.591468E-02	5.713524E-04
4.488827E+03	1.627095E-02	5.836493E-04
4.498715E+03	1.663446E-02	5.961842E-04
4.508602E+03	1.700038E-02	6.087826E-04
4.518489E+03	1.736300E-02	6.212406E-04
4.528377E+03	1.771676E-02	6.333597E-04
4.538264E+03	1.805500E-02	6.449025E-04
4.548151E+03	1.837119E-02	6.556377E-04
4.558038E+03	1.865846E-02	6.653221E-04
4.567926E+03	1.891002E-02	6.737166E-04
4.577813E+03	1.911962E-02	6.806024E-04
4.587700E+03	1.928161E-02	6.857818E-04
4.597588E+03	1.939092E-02	6.890793E-04
4.607475E+03	1.944403E-02	6.903748E-04
4.617362E+03	1.943800E-02	6.895692E-04
4.627249E+03	1.937208E-02	6.866409E-04
4.637137E+03	1.924685E-02	6.816165E-04
4.647024E+03	1.906477E-02	6.745882E-04
4.656911E+03	1.882947E-02	6.656898E-04
4.666798E+03	1.854680E-02	6.551327E-04
4.676686E+03	1.822336E-02	6.431540E-04
4.686573E+03	1.786760E-02	6.300556E-04
4.696460E+03	1.748849E-02	6.161564E-04
4.706348E+03	1.709584E-02	6.018043E-04
4.716235E+03	1.669978E-02	5.873561E-04
4.726122E+03	1.631033E-02	5.731645E-04
4.736009E+03	1.593688E-02	5.595591E-04
4.745897E+03	1.558816E-02	5.468439E-04
4.755784E+03	1.527193E-02	5.352894E-04
4.765671E+03	1.499475E-02	5.251219E-04
4.775559E+03	1.476207E-02	5.165284E-04
4.785446E+03	1.457820E-02	5.096563E-04
4.795333E+03	1.444687E-02	5.046305E-04
4.805220E+03	1.436985E-02	5.015090E-04
4.815108E+03	1.434867E-02	5.003397E-04
4.824995E+03	1.438308E-02	5.011089E-04
4.834882E+03	1.447213E-02	5.037789E-04
4.844770E+03	1.461331E-02	5.082571E-04
4.854657E+03	1.480308E-02	5.144163E-04
4.864544E+03	1.503638E-02	5.220759E-04
4.874431E+03	1.530655E-02	5.310017E-04
4.884319E+03	1.560592E-02	5.409243E-04
4.894206E+03	1.592545E-02	5.515280E-04
4.904093E+03	1.625496E-02	5.624592E-04
4.913981E+03	1.658422E-02	5.733632E-04
4.923868E+03	1.690220E-02	5.838588E-04
4.933755E+03	1.719905E-02	5.936073E-04
4.943642E+03	1.746543E-02	6.022890E-04
4.953530E+03	1.769405E-02	6.096548E-04
4.963417E+03	1.787930E-02	6.155157E-04
4.973304E+03	1.801839E-02	6.197787E-04
4.983192E+03	1.811061E-02	6.224243E-04
4.993079E+03	1.815821E-02	6.235337E-04
5.002966E+03	1.816498E-02	6.232405E-04
5.012853E+03	1.813651E-02	6.217401E-04
5.022741E+03	1.807954E-02	6.192666E-04
5.032628E+03	1.800162E-02	6.160811E-04
5.042515E+03	1.791009E-02	6.124355E-04
5.052403E+03	1.781236E-02	6.085853E-04
5.062290E+03	1.771513E-02	6.047590E-04
5.072177E+03	1.762411E-02	6.011514E-04
5.082064E+03	1.754467E-02	5.979451E-04
5.091952E+03	1.748050E-02	5.952653E-04
5.101839E+03	1.743519E-02	5.932319E-04
5.111726E+03	1.741095E-02	5.919193E-04
5.121614E+03	1.740955E-02	5.913855E-04
5.131501E+03	1.743218E-02	5.916695E-04
5.141388E+03	1.747978E-02	5.928002E-04
5.151275E+03	1.755248E-02	5.947812E-04
5.161163E+03	1.765029E-02	5.976099E-04
5.171050E+03	1.777305E-02	6.012793E-04
5.180937E+03	1.792014E-02	6.057664E-04
5.190825E+03	1.809048E-02	6.110326E-04
5.200712E+03	1.828289E-02	6.170369E-04
5.210599E+03	1.849617E-02	6.237367E-04
5.220486E+03	1.872873E-02	6.310768E-04
5.230374E+03	1.897862E-02	6.389905E-04
5.240261E+03	1.924420E-02	6.474208E-04
5.250148E+03	1.952336E-02	6.562962E-04
5.260036E+03	1.981422E-02	6.655526E-04
5.269923E+03	2.011516E-02	6.751348E-04
5.279810E+03	2.042429E-02	6.849786E-04
5.289697E+03	2.074026E-02	6.950385E-04
5.299585E+03	2.106149E-02	7.052611E-04
5.309472E+03	2.138673E-02	7.156044E-04
5.319359E+03	2.171501E-02	7.260363E-04
5.329247E+03	2.204463E-02	7.364994E-04
5.339134E+03	2.237460E-02	7.469611E-04
5.349021E+03	2.270299E-02	7.573572E-04
5.358908E+03	2.302736E-02	7.676063E-04
5.368796E+03	2.334519E-02	7.776251E-04
5.378683E+03	2.365224E-02	7.872729E-04
5.388570E+03	2.394297E-02	7.963668E-04
5.398458E+03	2.421094E-02	8.046936E-04
5.408345E+03	2.444801E-02	8.119851E-04
5.418232E+03	2.464458E-02	8.179251E-04
5.428119E+03	2.479068E-02	8.221853E-04
5.438007E+03	2.487579E-02	8.244215E-04
5.447894E+03	2.488961E-02	8.242964E-04
5.457781E+03	2.482355E-02	8.215308E-04
5.467669E+03	2.467066E-02	8.159008E-04
5.477556E+03	2.442750E-02	8.072983E-04
5.487443E+03	2.409317E-02	7.956996E-04
5.497330E+03	2.367056E-02	7.812065E-04
5.507218E+03	2.316631E-02	7.640435E-04
5.517105E+03	2.258977E-02	7.445243E-04
5.526992E+03	2.195344E-02	7.230652E-04
5.536880E+03	2.127165E-02	7.001413E-04
5.546767E+03	2.056028E-02	6.762777E-04
5.556654E+03	1.983545E-02	6.520058E-04
5.566541E+03	1.911351E-02	6.278634E-04
5.576429E+03	1.841046E-02	6.043753E-04
5.586316E+03	1.774091E-02	5.820193E-04
5.596203E+03	1.711850E-02	5.612398E-04
5.606091E+03	1.655511E-02	5.424229E-04
5.615978E+03	1.606094E-02	5.258987E-04
5.625865E+03	1.564450E-02	5.119411E-04
5.635752E+03	1.531265E-02	5.007695E-04
5.645640E+03	1.507066E-02	4.925508E-04
5.655527E+03	1.492227E-02	4.874019E-04
5.665414E+03	1.486975E-02	4.853908E-04
5.675302E+03	1.491399E-02	4.865406E-04
5.685189E+03	1.505380E-02	4.908076E-04
5.695076E+03	1.528695E-02	4.981126E-04
5.704963E+03	1.560900E-02	5.083069E-04
5.714851E+03	1.601327E-02	5.211669E-04
5.724738E+03	1.649152E-02	5.364211E-04
5.734625E+03	1.703291E-02	5.537129E-04
5.744513E+03	1.762486E-02	5.726302E-04
5.754400E+03	1.825259E-02	5.926908E-04
5.764287E+03	1.889989E-02	6.133671E-04
5.774174E+03	1.955028E-02	6.341236E-04
5.784062E+03	2.018658E-02	6.544036E-04
5.793949E+03	2.079243E-02	6.736784E-04
5.803836E+03	2.135288E-02	6.914657E-04
5.813724E+03	2.185507E-02	7.073519E-04
5.823611E+03	2.228853E-02	7.210021E-04
5.833498E+03	2.264627E-02	7.321934E-04
5.843385E+03	2.292396E-02	7.407908E-04
5.853273E+03	2.312092E-02	7.467756E-04
5.863160E+03	2.323860E-02	7.501995E-04
5.873047E+03	2.328192E-02	7.512252E-04
5.882935E+03	2.325688E-02	7.500491E-04
5.892822E+03	2.317160E-02	7.469368E-04
5.902709E+03	2.303439E-02	7.421592E-04
5.912596E+03	2.285489E-02	7.360283E-04
5.922484E+03	2.264191E-02	7.288302E-04
5.932371E+03	2.240407E-02	7.208433E-04
5.942258E+03	2.214906E-02	7.123160E-04
5.952146E+03	2.188392E-02	7.034751E-04
5.962033E+03	2.161497E-02	6.945247E-04
5.971920E+03	2.134694E-02	6.856159E-04
5.981807E+03	2.108431E-02	6.768926E-04
5.991695E+03	2.083050E-02	6.684644E-04
6.001582E+03	2.058800E-02	6.604104E-04
6.011469E+03	2.035907E-02	6.528029E-04
6.021357E+03	2.014524E-02	6.456900E-04
6.031244E+03	1.994734E-02	6.390978E-04
6.041131E+03	1.976622E-02	6.330526E-04
6.051018E+03	1.960211E-02	6.275612E-04
6.060906E+03	1.945464E-02	6.226112E-04
6.070793E+03	1.932361E-02	6.181953E-04
6.080680E+03	1.920773E-02	6.142716E-04
6.090568E+03	1.910579E-02	6.108014E-04
6.100455E+03	1.901509E-02	6.076975E-04
6.110342E+03	1.893385E-02	6.049027E-04
6.120229E+03	1.885857E-02	6.023047E-04
6.130117E+03	1.878654E-02	5.998173E-04
6.140004E+03	1.871452E-02	5.973367E-04
6.149891E+03	1.863991E-02	5.947797E-04
6.159779E+03	1.855996E-02	5.920588E-04
6.169666E+03	1.847284E-02	5.891159E-04
6.179553E+03	1.837738E-02	5.859131E-04
6.189440E+03	1.827249E-02	5.824162E-04
6.199328E+03	1.815799E-02	5.786195E-04
6.209215E+03	1.803441E-02	5.745398E-04
6.219102E+03	1.790268E-02	5.702071E-04
6.228990E+03	1.776456E-02	5.656776E-04
6.238877E+03	1.762148E-02	5.609963E-04
6.248764E+03	1.747564E-02	5.562334E-04
6.258651E+03	1.732853E-02	5.514367E-04
6.268539E+03	1.718142E-02	5.466456E-04
6.278426E+03	1.703575E-02	5.419067E-04
6.288313E+03	1.689173E-02	5.372258E-04
6.298201E+03	1.675032E-02	5.326335E-04
6.308088E+03	1.661113E-02	5.281172E-04
6.317975E+03	1.647452E-02	5.236885E-04
6.327862E+03	1.634032E-02	5.193413E-04
6.337750E+03	1.620883E-02	5.150853E-04
6.347637E+03	1.608029E-02	5.109277E-04
6.357524E+03	1.595570E-02	5.069008E-04
6.367412E+03	1.583662E-02	5.030529E-04
6.377299E+03	1.572512E-02	4.994505E-04
6.387186E+03	1.562401E-02	4.961824E-04
6.397073E+03	1.553621E-02	4.933411E-04
6.406961E+03	1.546547E-02	4.910452E-04
6.416848E+03	1.541475E-02	4.893887E-04
6.426735E+03	1.538724E-02	4.884723E-04
6.436623E+03	1.538553E-02	4.883788E-04
6.446510E+03	1.541180E-02	4.891761E-04
6.456397E+03	1.546734E-02	4.909058E-04
6.466284E+03	1.555268E-02	4.935842E-04
6.476172E+03	1.566689E-02	4.971813E-04
6.486059E+03	1.580807E-02	5.016376E-04
6.495946E+03	1.597379E-02	5.068750E-04
6.505833E+03	1.615941E-02	5.127470E-04
6.515721E+03	1.636050E-02	5.191124E-04
6.525608E+03	1.657109E-02	5.257824E-04
6.535495E+03	1.678490E-02	5.325575E-04
6.545383E+03	1.699576E-02	5.392424E-04
6.555270E+03	1.719672E-02	5.456162E-04
6.565157E+03	1.738208E-02	5.514984E-04
6.575044E+03	1.754556E-02	5.566900E-04
6.584932E+03	1.768240E-02	5.610399E-04
6.594819E+03	1.778801E-02	5.644027E-04
6.604706E+03	1.785921E-02	5.666771E-04
6.614594E+03	1.789363E-02	5.677879E-04
6.624481E+03	1.788998E-02	5.676946E-04
6.634368E+03	1.784807E-02	5.663905E-04
6.644255E+03	1.776872E-02	5.639014E-04
6.654143E+03	1.765408E-02	5.602957E-04
6.664030E+03	1.750601E-02	5.556319E-04
6.673917E+03	1.732844E-02	5.500342E-04
6.683805E+03	1.712503E-02	5.436191E-04
6.693692E+03	1.690007E-02	5.365222E-04
6.703579E+03	1.665906E-02	5.289176E-04
6.713466E+03	1.640730E-02	5.209735E-04
6.723354E+03	1.615072E-02	5.128783E-04
6.733241E+03	1.589582E-02	5.048376E-04
6.743128E+03	1.564887E-02	4.970510E-04
6.753016E+03	1.541651E-02	4.897291E-04
6.762903E+03	1.520559E-02	4.830893E-04
6.772790E+03	1.502257E-02	4.773375E-04
6.782677E+03	1.487339E-02	4.726626E-04
6.792565E+03	1.476378E-02	4.692469E-04
6.802452E+03	1.469820E-02	4.672331E-04
6.812339E+03	1.468041E-02	4.667405E-04
6.822227E+03	1.471237E-02	4.678330E-04
6.832114E+03	1.479513E-02	4.705445E-04
6.842001E+03	1.492704E-02	4.748233E-04
6.851888E+03	1.510583E-02	4.805980E-04
6.861776E+03	1.532636E-02	4.877065E-04
6.871663E+03	1.558230E-02	4.959478E-04
6.881550E+03	1.586524E-02	5.050550E-04
6.891438E+03	1.616582E-02	5.147310E-04
6.901325E+03	1.647336E-02	5.246360E-04
6.911212E+03	1.677728E-02	5.344336E-04
6.921099E+03	1.706690E-02	5.437834E-04
6.930987E+03	1.733304E-02	5.523928E-04
6.940874E+03	1.756774E-02	5.600079E-04
6.950761E+03	1.776572E-02	5.664601E-04
6.960649E+03	1.792379E-02	5.716462E-04
6.970536E+03	1.804162E-02	5.755551E-04
6.980423E+03	1.812138E-02	5.782555E-04
6.990310E+03	1.816746E-02	5.798861E-04
7.000198E+03	1.818589E-02	5.806389E-04
7.010085E+03	1.818380E-02	5.807412E-04
7.019972E+03	1.816883E-02	5.804357E-04
7.029860E+03	1.814848E-02	5.799628E-04
7.039747E+03	1.812974E-02	5.795450E-04
7.049634E+03	1.811837E-02	5.793668E-04
7.059521E+03	1.811921E-02	5.795832E-04
7.069409E+03	1.813605E-02	5.803161E-04
7.079296E+03	1.817082E-02	5.816278E-04
7.089183E+03	1.822441E-02	5.835476E-04
7.099071E+03	1.829653E-02	5.860664E-04
7.108958E+03	1.838583E-02	5.891421E-04
7.118845E+03	1.848980E-02	5.926950E-04
7.128732E+03	1.860575E-02	5.966394E-04
7.138620E+03	1.872990E-02	6.008542E-04
7.148507E+03	1.885830E-02	6.052138E-04
7.158394E+03	1.898677E-02	6.095838E-04
7.168282E+03	1.911101E-02	6.138265E-04
7.178169E+03	1.922675E-02	6.178047E-04
7.188056E+03	1.932934E-02	6.213687E-04
7.197943E+03	1.941559E-02	6.244152E-04
7.207831E+03	1.948165E-02	6.268198E-04
7.217718E+03	1.952513E-02	6.285054E-04
7.227605E+03	1.954413E-02	6.294094E-04
7.237493E+03	1.953698E-02	6.294770E-04
7.247380E+03	1.950372E-02	6.287084E-04
7.257267E+03	1.944462E-02	6.271109E-04
7.267154E+03	1.936092E-02	6.247239E-04
7.277042E+03	1.925442E-02	6.216039E-04
7.286929E+03	1.912698E-02	6.178097E-04
7.296816E+03	1.898120E-02	6.134245E-04
7.306704E+03	1.881884E-02	6.085041E-04
7.316591E+03	1.864242E-02	6.031288E-04
7.326478E+03	1.845339E-02	5.973452E-04
7.336365E+03	1.825411E-02	5.912283E-04
7.346253E+03	1.804581E-02	5.848180E-04
7.356140E+03	1.782982E-02	5.781561E-04
7.366027E+03	1.760726E-02	5.712788E-04
7.375915E+03	1.737941E-02	5.642270E-04
7.385802E+03	1.714669E-02	5.570138E-04
7.395689E+03	1.691056E-02	5.496862E-04
7.405576E+03	1.667173E-02	5.422670E-04
7.415464E+03	1.643153E-02	5.347989E-04
7.425351E+03	1.619142E-02	5.273291E-04
7.435238E+03	1.595254E-02	5.198945E-04
7.445126E+03	1.571676E-02	5.125559E-04
7.455013E+03	1.548587E-02	5.053719E-04
7.464900E+03	1.526204E-02	4.984125E-04
7.474787E+03	1.504704E-02	4.917368E-04
7.484675E+03	1.484339E-02	4.854267E-04
7.494562E+03	1.465349E-02	4.795617E-04
7.504449E+03	1.447985E-02	4.742244E-04
7.514337E+03	1.432493E-02	4.694967E-04
7.524224E+03	1.419129E-02	4.654637E-04
7.534111E+03	1.408103E-02	4.621957E-04
7.543998E+03	1.399593E-02	4.597524E-04
7.553886E+03	1.393711E-02	4.581726E-04
7.563773E+03	1.390587E-02	4.575009E-04
7.573660E+03	1.390204E-02	4.577338E-04
7.583548E+03	1.392570E-02	4.588762E-04
7.593435E+03	1.397558E-02	4.608879E-04
7.603322E+03	1.405011E-02	4.637194E-04
7.613209E+03	1.414632E-02	4.672742E-04
7.623097E+03	1.426162E-02	4.714688E-04
7.632984E+03	1.439142E-02	4.761528E-04
7.642871E+03	1.453172E-02	4.811949E-04
7.652759E+03	1.467721E-02	4.864199E-04
7.662646E+03	1.482336E-02	4.916783E-04
7.672533E+03	1.496530E-02	4.968080E-04
