#wls	flux	fluxerr
1.581966E+03	9.995716E-03	2.855681E-04
1.621515E+03	1.020148E-02	2.911109E-04
1.661064E+03	1.040322E-02	2.965168E-04
1.700613E+03	1.060406E-02	3.018744E-04
1.740162E+03	1.079897E-02	3.070399E-04
1.779711E+03	1.098897E-02	3.120426E-04
1.819260E+03	1.117302E-02	3.168526E-04
1.858810E+03	1.135441E-02	3.215631E-04
1.898359E+03	1.152552E-02	3.259583E-04
1.937908E+03	1.169186E-02	3.301939E-04
1.977457E+03	1.185009E-02	3.341761E-04
2.017006E+03	1.199908E-02	3.378733E-04
2.056555E+03	1.213997E-02	3.413178E-04
2.096104E+03	1.226931E-02	3.444133E-04
2.135654E+03	1.239056E-02	3.472581E-04
2.175203E+03	1.250030E-02	3.497563E-04
2.214752E+03	1.259737E-02	3.518769E-04
2.254301E+03	1.268298E-02	3.536551E-04
2.293850E+03	1.275604E-02	3.550613E-04
2.333399E+03	1.281546E-02	3.560671E-04
2.372948E+03	1.286250E-02	3.567087E-04
2.412498E+03	1.289384E-02	3.568959E-04
2.452047E+03	1.291301E-02	3.567285E-04
2.491596E+03	1.291898E-02	3.561796E-04
2.531145E+03	1.290855E-02	3.551633E-04
2.570694E+03	1.288512E-02	3.537756E-04
2.610243E+03	1.284765E-02	3.519902E-04
2.649792E+03	1.279718E-02	3.498375E-04
2.689342E+03	1.273454E-02	3.473433E-04
2.728891E+03	1.265847E-02	3.444751E-04
2.768440E+03	1.256959E-02	3.412522E-04
2.807989E+03	1.247192E-02	3.377870E-04
2.847538E+03	1.236172E-02	3.339797E-04
2.887087E+03	1.224228E-02	3.299219E-04
2.926636E+03	1.211281E-02	3.255950E-04
2.966185E+03	1.197545E-02	3.210583E-04
2.976073E+03	1.193931E-02	3.198764E-04
2.985960E+03	1.190358E-02	3.187060E-04
2.995847E+03	1.186666E-02	3.175039E-04
3.005735E+03	1.182851E-02	3.162693E-04
3.015622E+03	1.179059E-02	3.150411E-04
3.025509E+03	1.175280E-02	3.138170E-04
3.035396E+03	1.171507E-02	3.125948E-04
3.045284E+03	1.167587E-02	3.113336E-04
3.055171E+03	1.163516E-02	3.100329E-04
3.065058E+03	1.159572E-02	3.087666E-04
3.074946E+03	1.155465E-02	3.074573E-04
3.084833E+03	1.151328E-02	3.061406E-04
3.094720E+03	1.147288E-02	3.048503E-04
3.104607E+03	1.143066E-02	3.035122E-04
3.114495E+03	1.138791E-02	3.021605E-04
3.124382E+03	1.134453E-02	3.007932E-04
3.134269E+03	1.130176E-02	2.994424E-04
3.144157E+03	1.125819E-02	2.980712E-04
3.154044E+03	1.121375E-02	2.966779E-04
3.163931E+03	1.116838E-02	2.952606E-04
3.173818E+03	1.112322E-02	2.938498E-04
3.183706E+03	1.107815E-02	2.924422E-04
3.193593E+03	1.103189E-02	2.910041E-04
3.203480E+03	1.098439E-02	2.895340E-04
3.213368E+03	1.093786E-02	2.880905E-04
3.223255E+03	1.088991E-02	2.866106E-04
3.233142E+03	1.084160E-02	2.851223E-04
3.243029E+03	1.079283E-02	2.836230E-04
3.252917E+03	1.074459E-02	2.821386E-04
3.262804E+03	1.069465E-02	2.806105E-04
3.272691E+03	1.064503E-02	2.790922E-04
3.282579E+03	1.059461E-02	2.775540E-04
3.292466E+03	1.054432E-02	2.760204E-04
3.302353E+03	1.049308E-02	2.744630E-04
3.312240E+03	1.044083E-02	2.728806E-04
3.322128E+03	1.038943E-02	2.713217E-04
3.332015E+03	1.033689E-02	2.697341E-04
3.341902E+03	1.028500E-02	2.681650E-04
3.351790E+03	1.023187E-02	2.665649E-04
3.361677E+03	1.017925E-02	2.649795E-04
3.371564E+03	1.012618E-02	2.633839E-04
3.381451E+03	1.007264E-02	2.617774E-04
3.391339E+03	1.001944E-02	2.601810E-04
3.401226E+03	9.965688E-03	2.585721E-04
3.411113E+03	9.912985E-03	2.569917E-04
3.421001E+03	9.859675E-03	2.553971E-04
3.430888E+03	9.806523E-03	2.538081E-04
3.440775E+03	9.754241E-03	2.522431E-04
3.450662E+03	9.702020E-03	2.506812E-04
3.460550E+03	9.649839E-03	2.491218E-04
3.470437E+03	9.598388E-03	2.475828E-04
3.480324E+03	9.547617E-03	2.460628E-04
3.490212E+03	9.496826E-03	2.445438E-04
3.500099E+03	9.447358E-03	2.430603E-04
3.509986E+03	9.398522E-03	2.415946E-04
3.519873E+03	9.350335E-03	2.401470E-04
3.529761E+03	9.302830E-03	2.387183E-04
3.539648E+03	9.257259E-03	2.373406E-04
3.549535E+03	9.212432E-03	2.359833E-04
3.559423E+03	9.169011E-03	2.346633E-04
3.569310E+03	9.127058E-03	2.333822E-04
3.579197E+03	9.087217E-03	2.321562E-04
3.589084E+03	9.048471E-03	2.309594E-04
3.598972E+03	9.012571E-03	2.298362E-04
3.608859E+03	8.978555E-03	2.287619E-04
3.618746E+03	8.947595E-03	2.277665E-04
3.628634E+03	8.918811E-03	2.268271E-04
3.638521E+03	8.893367E-03	2.259732E-04
3.648408E+03	8.870924E-03	2.251962E-04
3.658295E+03	8.852143E-03	2.245124E-04
3.668183E+03	8.837198E-03	2.239260E-04
3.678070E+03	8.826274E-03	2.234415E-04
3.687957E+03	8.819140E-03	2.230528E-04
3.697845E+03	8.817320E-03	2.227981E-04
3.707732E+03	8.819719E-03	2.226494E-04
3.717619E+03	8.827819E-03	2.226437E-04
3.727506E+03	8.840966E-03	2.227643E-04
3.737394E+03	8.859748E-03	2.230254E-04
3.747281E+03	8.884697E-03	2.234402E-04
3.757168E+03	8.915495E-03	2.240001E-04
3.767056E+03	8.952190E-03	2.247060E-04
3.776943E+03	8.995133E-03	2.255662E-04
3.786830E+03	9.044227E-03	2.265779E-04
3.796717E+03	9.099286E-03	2.277359E-04
3.806605E+03	9.159689E-03	2.290242E-04
3.816492E+03	9.225808E-03	2.304519E-04
3.826379E+03	9.297200E-03	2.320073E-04
3.836267E+03	9.372990E-03	2.336683E-04
3.846154E+03	9.452603E-03	2.354203E-04
3.856041E+03	9.536084E-03	2.372640E-04
3.865928E+03	9.622054E-03	2.391649E-04
3.875816E+03	9.710123E-03	2.411130E-04
3.885703E+03	9.799528E-03	2.430895E-04
3.895590E+03	9.889476E-03	2.450744E-04
3.905478E+03	9.979168E-03	2.470479E-04
3.915365E+03	1.006810E-02	2.489976E-04
3.925252E+03	1.015512E-02	2.508953E-04
3.935139E+03	1.023942E-02	2.527207E-04
3.945027E+03	1.032018E-02	2.544540E-04
3.954914E+03	1.039689E-02	2.560832E-04
3.964801E+03	1.046818E-02	2.575747E-04
3.974689E+03	1.053393E-02	2.589256E-04
3.984576E+03	1.059344E-02	2.601199E-04
3.994463E+03	1.064556E-02	2.611291E-04
4.004350E+03	1.069009E-02	2.619493E-04
4.014238E+03	1.072695E-02	2.625789E-04
4.024125E+03	1.075533E-02	2.629989E-04
4.034012E+03	1.077515E-02	2.632079E-04
4.043900E+03	1.078671E-02	2.632139E-04
4.053787E+03	1.079017E-02	2.630214E-04
4.063674E+03	1.078530E-02	2.626256E-04
4.073561E+03	1.077279E-02	2.620435E-04
4.083449E+03	1.075289E-02	2.612824E-04
4.093336E+03	1.072648E-02	2.603640E-04
4.103223E+03	1.069382E-02	2.592948E-04
4.113111E+03	1.065593E-02	2.581005E-04
4.122998E+03	1.061347E-02	2.567971E-04
4.132885E+03	1.056714E-02	2.554023E-04
4.142772E+03	1.051814E-02	2.539449E-04
4.152660E+03	1.046701E-02	2.524384E-04
4.162547E+03	1.041473E-02	2.509067E-04
4.172434E+03	1.036205E-02	2.493680E-04
4.182322E+03	1.030990E-02	2.478442E-04
4.192209E+03	1.025894E-02	2.463516E-04
4.202096E+03	1.020979E-02	2.449051E-04
4.211983E+03	1.016323E-02	2.435228E-04
4.221871E+03	1.011959E-02	2.422128E-04
4.231758E+03	1.007938E-02	2.409869E-04
4.241645E+03	1.004324E-02	2.398601E-04
4.251533E+03	1.001160E-02	2.388424E-04
4.261420E+03	9.984545E-03	2.379356E-04
4.271307E+03	9.962837E-03	2.371575E-04
4.281194E+03	9.946564E-03	2.365096E-04
4.291082E+03	9.936138E-03	2.360013E-04
4.300969E+03	9.931975E-03	2.356422E-04
4.310856E+03	9.934173E-03	2.354341E-04
4.320744E+03	9.943134E-03	2.353859E-04
4.330631E+03	9.959100E-03	2.355029E-04
4.340518E+03	9.982332E-03	2.357907E-04
4.350405E+03	1.001297E-02	2.362521E-04
4.360293E+03	1.005127E-02	2.368925E-04
4.370180E+03	1.009741E-02	2.377157E-04
4.380067E+03	1.015150E-02	2.387234E-04
4.389955E+03	1.021340E-02	2.399118E-04
4.399842E+03	1.028312E-02	2.412806E-04
4.409729E+03	1.036040E-02	2.428231E-04
4.419616E+03	1.044524E-02	2.445387E-04
4.429504E+03	1.053731E-02	2.464190E-04
4.439391E+03	1.063622E-02	2.484544E-04
4.449278E+03	1.074136E-02	2.506303E-04
4.459166E+03	1.085194E-02	2.529276E-04
4.469053E+03	1.096678E-02	2.553188E-04
4.478940E+03	1.108482E-02	2.577784E-04
4.488827E+03	1.120474E-02	2.602760E-04
4.498715E+03	1.132477E-02	2.627702E-04
4.508602E+03	1.144323E-02	2.652218E-04
4.518489E+03	1.155797E-02	2.675817E-04
4.528377E+03	1.166702E-02	2.698042E-04
4.538264E+03	1.176800E-02	2.718353E-04
4.548151E+03	1.185900E-02	2.736310E-04
4.558038E+03	1.193754E-02	2.751353E-04
4.567926E+03	1.200189E-02	2.763095E-04
4.577813E+03	1.204997E-02	2.771066E-04
4.587700E+03	1.208062E-02	2.775012E-04
4.597588E+03	1.209262E-02	2.774667E-04
4.607475E+03	1.208551E-02	2.769942E-04
4.617362E+03	1.205903E-02	2.760794E-04
4.627249E+03	1.201360E-02	2.747330E-04
4.637137E+03	1.195027E-02	2.729804E-04
4.647024E+03	1.187025E-02	2.708509E-04
4.656911E+03	1.177544E-02	2.683891E-04
4.666798E+03	1.166768E-02	2.656377E-04
4.676686E+03	1.154946E-02	2.626548E-04
4.686573E+03	1.142335E-02	2.594990E-04
4.696460E+03	1.129183E-02	2.562277E-04
4.706348E+03	1.115729E-02	2.528951E-04
4.716235E+03	1.102253E-02	2.495649E-04
4.726122E+03	1.088957E-02	2.462830E-04
4.736009E+03	1.076087E-02	2.431047E-04
4.745897E+03	1.063847E-02	2.400756E-04
4.755784E+03	1.052426E-02	2.372377E-04
4.765671E+03	1.042017E-02	2.346344E-04
4.775559E+03	1.032760E-02	2.322959E-04
4.785446E+03	1.024786E-02	2.302509E-04
4.795333E+03	1.018203E-02	2.285226E-04
4.805220E+03	1.013108E-02	2.271320E-04
4.815108E+03	1.009550E-02	2.260887E-04
4.824995E+03	1.007563E-02	2.253992E-04
4.834882E+03	1.007151E-02	2.250634E-04
4.844770E+03	1.008286E-02	2.250741E-04
4.854657E+03	1.010886E-02	2.254113E-04
4.864544E+03	1.014872E-02	2.260570E-04
4.874431E+03	1.020085E-02	2.269742E-04
4.884319E+03	1.026355E-02	2.281249E-04
4.894206E+03	1.033462E-02	2.294592E-04
4.904093E+03	1.041126E-02	2.309145E-04
4.913981E+03	1.049072E-02	2.324292E-04
4.923868E+03	1.057005E-02	2.339383E-04
4.933755E+03	1.064583E-02	2.353661E-04
4.943642E+03	1.071556E-02	2.366575E-04
4.953530E+03	1.077645E-02	2.377514E-04
4.963417E+03	1.082694E-02	2.386143E-04
4.973304E+03	1.086593E-02	2.392224E-04
4.983192E+03	1.089321E-02	2.395723E-04
4.993079E+03	1.090936E-02	2.396772E-04
5.002966E+03	1.091554E-02	2.395635E-04
5.012853E+03	1.091335E-02	2.392672E-04
5.022741E+03	1.090467E-02	2.388295E-04
5.032628E+03	1.089146E-02	2.382944E-04
5.042515E+03	1.087570E-02	2.377048E-04
5.052403E+03	1.085913E-02	2.370994E-04
5.062290E+03	1.084371E-02	2.365209E-04
5.072177E+03	1.083075E-02	2.359978E-04
5.082064E+03	1.082185E-02	2.355645E-04
5.091952E+03	1.081793E-02	2.352410E-04
5.101839E+03	1.082009E-02	2.350510E-04
5.111726E+03	1.082926E-02	2.350140E-04
5.121614E+03	1.084586E-02	2.351388E-04
5.131501E+03	1.087063E-02	2.354410E-04
5.141388E+03	1.090371E-02	2.359230E-04
5.151275E+03	1.094557E-02	2.365947E-04
5.161163E+03	1.099624E-02	2.374560E-04
5.171050E+03	1.105574E-02	2.385068E-04
5.180937E+03	1.112398E-02	2.397448E-04
5.190825E+03	1.120077E-02	2.411654E-04
5.200712E+03	1.128584E-02	2.427621E-04
5.210599E+03	1.137895E-02	2.445293E-04
5.220486E+03	1.147953E-02	2.464545E-04
5.230374E+03	1.158707E-02	2.485265E-04
5.240261E+03	1.170113E-02	2.507350E-04
5.250148E+03	1.182094E-02	2.530636E-04
5.260036E+03	1.194583E-02	2.554974E-04
5.269923E+03	1.207504E-02	2.580202E-04
5.279810E+03	1.220778E-02	2.606147E-04
5.289697E+03	1.234331E-02	2.632654E-04
5.299585E+03	1.248061E-02	2.659500E-04
5.309472E+03	1.261865E-02	2.686468E-04
5.319359E+03	1.275615E-02	2.713286E-04
5.329247E+03	1.289133E-02	2.739577E-04
5.339134E+03	1.302225E-02	2.764928E-04
5.349021E+03	1.314646E-02	2.788824E-04
5.358908E+03	1.326182E-02	2.810819E-04
5.368796E+03	1.336618E-02	2.830458E-04
5.378683E+03	1.345693E-02	2.847197E-04
5.388570E+03	1.353186E-02	2.860579E-04
5.398458E+03	1.358852E-02	2.870091E-04
5.408345E+03	1.362478E-02	2.875297E-04
5.418232E+03	1.363837E-02	2.875728E-04
5.428119E+03	1.362733E-02	2.870986E-04
5.438007E+03	1.359001E-02	2.860735E-04
5.447894E+03	1.352512E-02	2.844715E-04
5.457781E+03	1.343185E-02	2.822773E-04
5.467669E+03	1.331010E-02	2.794901E-04
5.477556E+03	1.316003E-02	2.761146E-04
5.487443E+03	1.298301E-02	2.721811E-04
5.497330E+03	1.278083E-02	2.677284E-04
5.507218E+03	1.255582E-02	2.628062E-04
5.517105E+03	1.231107E-02	2.574804E-04
5.526992E+03	1.204998E-02	2.518230E-04
5.536880E+03	1.177637E-02	2.459143E-04
5.546767E+03	1.149400E-02	2.398330E-04
5.556654E+03	1.120680E-02	2.336619E-04
5.566541E+03	1.091870E-02	2.274826E-04
5.576429E+03	1.063361E-02	2.213768E-04
5.586316E+03	1.035516E-02	2.154193E-04
5.596203E+03	1.008651E-02	2.096757E-04
5.606091E+03	9.831044E-03	2.042155E-04
5.615978E+03	9.591212E-03	1.990891E-04
5.625865E+03	9.369595E-03	1.943490E-04
5.635752E+03	9.168205E-03	1.900362E-04
5.645640E+03	8.988595E-03	1.861817E-04
5.655527E+03	8.832021E-03	1.828107E-04
5.665414E+03	8.699376E-03	1.799403E-04
5.675302E+03	8.591270E-03	1.775823E-04
5.685189E+03	8.507710E-03	1.757357E-04
5.695076E+03	8.448693E-03	1.743993E-04
5.704963E+03	8.413703E-03	1.735615E-04
5.714851E+03	8.401721E-03	1.732002E-04
5.724738E+03	8.411625E-03	1.732915E-04
5.734625E+03	8.441770E-03	1.738005E-04
5.744513E+03	8.490429E-03	1.746910E-04
5.754400E+03	8.555318E-03	1.759152E-04
5.764287E+03	8.633900E-03	1.774206E-04
5.774174E+03	8.723542E-03	1.791525E-04
5.784062E+03	8.821605E-03	1.810564E-04
5.793949E+03	8.925389E-03	1.830767E-04
5.803836E+03	9.032119E-03	1.851563E-04
5.813724E+03	9.139520E-03	1.872487E-04
5.823611E+03	9.245242E-03	1.893056E-04
5.833498E+03	9.347130E-03	1.912832E-04
5.843385E+03	9.443501E-03	1.931473E-04
5.853273E+03	9.532530E-03	1.948607E-04
5.863160E+03	9.612788E-03	1.963947E-04
5.873047E+03	9.683167E-03	1.977269E-04
5.882935E+03	9.742607E-03	1.988360E-04
5.892822E+03	9.790286E-03	1.997058E-04
5.902709E+03	9.825919E-03	2.003308E-04
5.912596E+03	9.849111E-03	2.007034E-04
5.922484E+03	9.859919E-03	2.008252E-04
5.932371E+03	9.858777E-03	2.007054E-04
5.942258E+03	9.846091E-03	2.003526E-04
5.952146E+03	9.822808E-03	1.997865E-04
5.962033E+03	9.790002E-03	1.990291E-04
5.971920E+03	9.748853E-03	1.981048E-04
5.981807E+03	9.700691E-03	1.970408E-04
5.991695E+03	9.647162E-03	1.958706E-04
6.001582E+03	9.589813E-03	1.946258E-04
6.011469E+03	9.530347E-03	1.933411E-04
6.021357E+03	9.470410E-03	1.920498E-04
6.031244E+03	9.411752E-03	1.907875E-04
6.041131E+03	9.356112E-03	1.895892E-04
6.051018E+03	9.305023E-03	1.884861E-04
6.060906E+03	9.260132E-03	1.875112E-04
6.070793E+03	9.222997E-03	1.866962E-04
6.080680E+03	9.194868E-03	1.860660E-04
6.090568E+03	9.176908E-03	1.856440E-04
6.100455E+03	9.170073E-03	1.854493E-04
6.110342E+03	9.174967E-03	1.854941E-04
6.120229E+03	9.192083E-03	1.857881E-04
6.130117E+03	9.221860E-03	1.863399E-04
6.140004E+03	9.264236E-03	1.871482E-04
6.149891E+03	9.318820E-03	1.882048E-04
6.159779E+03	9.384983E-03	1.894970E-04
6.169666E+03	9.461612E-03	1.910019E-04
6.179553E+03	9.546943E-03	1.926841E-04
6.189440E+03	9.638511E-03	1.944935E-04
6.199328E+03	9.733660E-03	1.963767E-04
6.209215E+03	9.829660E-03	1.982786E-04
6.219102E+03	9.923742E-03	2.001432E-04
6.228990E+03	1.001331E-02	2.019184E-04
6.238877E+03	1.009626E-02	2.035619E-04
6.248764E+03	1.017061E-02	2.050336E-04
6.258651E+03	1.023498E-02	2.063060E-04
6.268539E+03	1.028826E-02	2.073565E-04
6.278426E+03	1.033013E-02	2.081791E-04
6.288313E+03	1.035999E-02	2.087616E-04
6.298201E+03	1.037807E-02	2.091088E-04
6.308088E+03	1.038434E-02	2.092201E-04
6.317975E+03	1.037881E-02	2.090955E-04
6.327862E+03	1.036177E-02	2.087414E-04
6.337750E+03	1.033328E-02	2.081585E-04
6.347637E+03	1.029306E-02	2.073414E-04
6.357524E+03	1.024119E-02	2.062915E-04
6.367412E+03	1.017726E-02	2.050007E-04
6.377299E+03	1.010133E-02	2.034701E-04
6.387186E+03	1.001327E-02	2.016972E-04
6.397073E+03	9.913374E-03	1.996874E-04
6.406961E+03	9.802296E-03	1.974543E-04
6.416848E+03	9.681090E-03	1.950187E-04
6.426735E+03	9.551591E-03	1.924177E-04
6.436623E+03	9.415734E-03	1.896899E-04
6.446510E+03	9.275805E-03	1.868816E-04
6.456397E+03	9.134294E-03	1.840425E-04
6.466284E+03	8.993520E-03	1.812196E-04
6.476172E+03	8.855589E-03	1.784550E-04
6.486059E+03	8.722274E-03	1.757844E-04
6.495946E+03	8.595068E-03	1.732379E-04
6.505833E+03	8.474567E-03	1.708275E-04
6.515721E+03	8.361292E-03	1.685636E-04
6.525608E+03	8.254853E-03	1.664384E-04
6.535495E+03	8.154791E-03	1.644426E-04
6.545383E+03	8.060360E-03	1.625611E-04
6.555270E+03	7.970796E-03	1.607786E-04
6.565157E+03	7.885136E-03	1.590755E-04
6.575044E+03	7.802717E-03	1.574386E-04
6.584932E+03	7.722516E-03	1.558471E-04
6.594819E+03	7.644131E-03	1.542929E-04
6.604706E+03	7.566938E-03	1.527634E-04
6.614594E+03	7.490549E-03	1.512507E-04
6.624481E+03	7.414727E-03	1.497501E-04
6.634368E+03	7.339402E-03	1.482600E-04
6.644255E+03	7.264660E-03	1.467822E-04
6.654143E+03	7.190819E-03	1.453231E-04
6.664030E+03	7.118092E-03	1.438870E-04
6.673917E+03	7.047135E-03	1.424870E-04
6.683805E+03	6.978459E-03	1.411336E-04
6.693692E+03	6.912753E-03	1.398406E-04
6.703579E+03	6.850764E-03	1.386232E-04
6.713466E+03	6.793302E-03	1.374979E-04
6.723354E+03	6.741217E-03	1.364818E-04
6.733241E+03	6.695481E-03	1.355948E-04
6.743128E+03	6.656933E-03	1.348539E-04
6.753016E+03	6.626532E-03	1.342786E-04
6.762903E+03	6.605248E-03	1.338889E-04
6.772790E+03	6.594082E-03	1.337050E-04
6.782677E+03	6.594031E-03	1.337475E-04
6.792565E+03	6.606067E-03	1.340363E-04
6.802452E+03	6.631119E-03	1.345905E-04
6.812339E+03	6.670090E-03	1.354287E-04
6.822227E+03	6.723516E-03	1.365622E-04
6.832114E+03	6.792041E-03	1.380043E-04
6.842001E+03	6.875733E-03	1.397568E-04
6.851888E+03	6.974621E-03	1.418208E-04
6.861776E+03	7.088029E-03	1.441827E-04
6.871663E+03	7.214782E-03	1.468193E-04
6.881550E+03	7.352994E-03	1.496923E-04
6.891438E+03	7.499984E-03	1.527477E-04
6.901325E+03	7.652253E-03	1.559145E-04
6.911212E+03	7.805585E-03	1.591068E-04
6.921099E+03	7.955305E-03	1.622295E-04
6.930987E+03	8.096665E-03	1.651857E-04
6.940874E+03	8.225337E-03	1.678870E-04
6.950761E+03	8.337936E-03	1.702639E-04
6.960649E+03	8.432414E-03	1.722742E-04
6.970536E+03	8.508376E-03	1.739094E-04
6.980423E+03	8.566624E-03	1.751854E-04
6.990310E+03	8.609596E-03	1.761515E-04
7.000198E+03	8.640768E-03	1.768786E-04
7.010085E+03	8.664072E-03	1.774468E-04
7.019972E+03	8.683757E-03	1.779430E-04
7.029860E+03	8.704371E-03	1.784603E-04
7.039747E+03	8.729835E-03	1.790792E-04
7.049634E+03	8.763653E-03	1.798718E-04
7.059521E+03	8.808684E-03	1.808972E-04
7.069409E+03	8.867061E-03	1.821996E-04
7.079296E+03	8.940164E-03	1.838080E-04
7.089183E+03	9.028701E-03	1.857373E-04
7.099071E+03	9.132242E-03	1.879796E-04
7.108958E+03	9.250039E-03	1.905199E-04
7.118845E+03	9.380273E-03	1.933214E-04
7.128732E+03	9.520710E-03	1.963387E-04
7.138620E+03	9.668326E-03	1.995098E-04
7.148507E+03	9.819731E-03	2.027651E-04
7.158394E+03	9.971142E-03	2.060268E-04
7.168282E+03	1.011860E-02	2.092131E-04
7.178169E+03	1.025769E-02	2.122327E-04
7.188056E+03	1.038424E-02	2.149986E-04
7.197943E+03	1.049403E-02	2.174237E-04
7.207831E+03	1.058298E-02	2.194219E-04
7.217718E+03	1.064820E-02	2.209332E-04
7.227605E+03	1.068705E-02	2.219013E-04
7.237493E+03	1.069777E-02	2.222886E-04
7.247380E+03	1.067984E-02	2.220831E-04
7.257267E+03	1.063358E-02	2.212900E-04
7.267154E+03	1.056003E-02	2.199300E-04
7.277042E+03	1.046143E-02	2.180479E-04
7.286929E+03	1.034015E-02	2.156919E-04
7.296816E+03	1.019904E-02	2.129208E-04
7.306704E+03	1.004131E-02	2.098001E-04
7.316591E+03	9.869726E-03	2.063870E-04
7.326478E+03	9.687349E-03	2.027446E-04
7.336365E+03	9.497008E-03	1.989314E-04
7.346253E+03	9.301026E-03	1.949956E-04
7.356140E+03	9.101616E-03	1.909833E-04
7.366027E+03	8.900908E-03	1.869388E-04
7.375915E+03	8.700502E-03	1.828955E-04
7.385802E+03	8.502242E-03	1.788921E-04
7.395689E+03	8.307851E-03	1.749649E-04
7.405576E+03	8.118639E-03	1.711416E-04
7.415464E+03	7.936168E-03	1.674552E-04
7.425351E+03	7.761815E-03	1.639351E-04
7.435238E+03	7.596768E-03	1.606066E-04
7.445126E+03	7.442204E-03	1.574952E-04
7.455013E+03	7.299200E-03	1.546240E-04
7.464900E+03	7.168311E-03	1.520056E-04
7.474787E+03	7.049950E-03	1.496492E-04
7.484675E+03	6.944408E-03	1.475618E-04
7.494562E+03	6.851893E-03	1.457485E-04
7.504449E+03	6.772532E-03	1.442128E-04
7.514337E+03	6.706381E-03	1.429567E-04
7.524224E+03	6.653323E-03	1.419785E-04
7.534111E+03	6.613345E-03	1.412789E-04
7.543998E+03	6.586158E-03	1.408523E-04
7.553886E+03	6.571571E-03	1.406957E-04
7.563773E+03	6.569189E-03	1.408014E-04
7.573660E+03	6.578410E-03	1.411574E-04
7.583548E+03	6.598580E-03	1.417503E-04
7.593435E+03	6.628971E-03	1.425654E-04
7.603322E+03	6.668497E-03	1.435800E-04
7.613209E+03	6.715966E-03	1.447690E-04
7.623097E+03	6.770088E-03	1.461052E-04
7.632984E+03	6.829209E-03	1.475534E-04
7.642871E+03	6.891712E-03	1.490789E-04
7.652759E+03	6.955686E-03	1.506408E-04
7.662646E+03	7.019258E-03	1.521983E-04
7.672533E+03	7.080670E-03	1.537135E-04
