#wls	flux	fluxerr
1.581966E+03	1.087705E-02	4.208520E-04
1.621515E+03	1.109354E-02	4.289602E-04
1.661064E+03	1.130502E-02	4.368568E-04
1.700613E+03	1.151257E-02	4.445843E-04
1.740162E+03	1.171515E-02	4.521014E-04
1.779711E+03	1.191160E-02	4.593640E-04
1.819260E+03	1.210311E-02	4.664174E-04
1.858810E+03	1.228377E-02	4.730339E-04
1.898359E+03	1.245947E-02	4.794406E-04
1.937908E+03	1.262664E-02	4.855000E-04
1.977457E+03	1.278402E-02	4.911642E-04
2.017006E+03	1.293034E-02	4.963848E-04
2.056555E+03	1.306682E-02	5.012090E-04
2.096104E+03	1.319222E-02	5.055897E-04
2.135654E+03	1.330531E-02	5.094801E-04
2.175203E+03	1.340484E-02	5.128338E-04
2.214752E+03	1.349213E-02	5.157023E-04
2.254301E+03	1.356352E-02	5.179459E-04
2.293850E+03	1.362289E-02	5.197146E-04
2.333399E+03	1.366417E-02	5.207778E-04
2.372948E+03	1.369133E-02	5.212885E-04
2.412498E+03	1.370095E-02	5.211182E-04
2.452047E+03	1.369700E-02	5.204195E-04
2.491596E+03	1.367385E-02	5.189798E-04
2.531145E+03	1.363551E-02	5.169540E-04
2.570694E+03	1.358123E-02	5.143152E-04
2.610243E+03	1.351033E-02	5.110399E-04
2.649792E+03	1.342440E-02	5.071900E-04
2.689342E+03	1.332274E-02	5.027415E-04
2.728891E+03	1.320884E-02	4.978284E-04
2.768440E+03	1.308173E-02	4.924160E-04
2.807989E+03	1.294239E-02	4.865433E-04
2.847538E+03	1.279340E-02	4.803090E-04
2.887087E+03	1.263317E-02	4.736554E-04
2.926636E+03	1.246525E-02	4.667179E-04
2.966185E+03	1.228903E-02	4.594747E-04
2.976073E+03	1.224518E-02	4.576722E-04
2.985960E+03	1.220046E-02	4.558382E-04
2.995847E+03	1.215485E-02	4.539712E-04
3.005735E+03	1.210832E-02	4.520699E-04
3.015622E+03	1.206239E-02	4.501917E-04
3.025509E+03	1.201541E-02	4.482751E-04
3.035396E+03	1.196890E-02	4.463762E-04
3.045284E+03	1.192125E-02	4.444353E-04
3.055171E+03	1.187391E-02	4.425068E-04
3.065058E+03	1.182680E-02	4.405872E-04
3.074946E+03	1.177838E-02	4.386193E-04
3.084833E+03	1.173004E-02	4.366553E-04
3.094720E+03	1.168172E-02	4.346922E-04
3.104607E+03	1.163191E-02	4.326748E-04
3.114495E+03	1.158336E-02	4.307046E-04
3.124382E+03	1.153457E-02	4.287260E-04
3.134269E+03	1.148411E-02	4.266861E-04
3.144157E+03	1.143461E-02	4.246827E-04
3.154044E+03	1.138464E-02	4.226623E-04
3.163931E+03	1.133540E-02	4.206699E-04
3.173818E+03	1.128424E-02	4.186069E-04
3.183706E+03	1.123364E-02	4.165654E-04
3.193593E+03	1.118348E-02	4.145410E-04
3.203480E+03	1.113243E-02	4.124847E-04
3.213368E+03	1.108164E-02	4.104384E-04
3.223255E+03	1.102981E-02	4.083548E-04
3.233142E+03	1.097807E-02	4.062749E-04
3.243029E+03	1.092744E-02	4.042371E-04
3.252917E+03	1.087554E-02	4.021530E-04
3.262804E+03	1.082343E-02	4.000625E-04
3.272691E+03	1.077105E-02	3.979624E-04
3.282579E+03	1.071937E-02	3.958894E-04
3.292466E+03	1.066723E-02	3.938002E-04
3.302353E+03	1.061560E-02	3.917307E-04
3.312240E+03	1.056336E-02	3.896395E-04
3.322128E+03	1.051046E-02	3.875251E-04
3.332015E+03	1.045882E-02	3.854580E-04
3.341902E+03	1.040638E-02	3.833625E-04
3.351790E+03	1.035502E-02	3.813074E-04
3.361677E+03	1.030275E-02	3.792202E-04
3.371564E+03	1.025139E-02	3.771675E-04
3.381451E+03	1.019997E-02	3.751132E-04
3.391339E+03	1.014930E-02	3.730876E-04
3.401226E+03	1.009845E-02	3.710567E-04
3.411113E+03	1.004826E-02	3.690505E-04
3.421001E+03	9.998647E-03	3.670668E-04
3.430888E+03	9.949577E-03	3.651039E-04
3.440775E+03	9.901006E-03	3.631603E-04
3.450662E+03	9.853681E-03	3.612634E-04
3.460550E+03	9.806021E-03	3.593551E-04
3.470437E+03	9.760300E-03	3.575188E-04
3.480324E+03	9.714970E-03	3.556977E-04
3.490212E+03	9.670768E-03	3.539188E-04
3.500099E+03	9.627680E-03	3.521816E-04
3.509986E+03	9.585701E-03	3.504857E-04
3.519873E+03	9.544851E-03	3.488319E-04
3.529761E+03	9.505811E-03	3.472450E-04
3.539648E+03	9.468580E-03	3.457249E-04
3.549535E+03	9.432548E-03	3.442493E-04
3.559423E+03	9.399013E-03	3.428654E-04
3.569310E+03	9.366779E-03	3.415294E-04
3.579197E+03	9.337122E-03	3.402880E-04
3.589084E+03	9.309500E-03	3.391212E-04
3.598972E+03	9.284567E-03	3.380526E-04
3.608859E+03	9.262384E-03	3.370845E-04
3.618746E+03	9.243026E-03	3.362193E-04
3.628634E+03	9.226046E-03	3.354408E-04
3.638521E+03	9.213141E-03	3.348103E-04
3.648408E+03	9.202810E-03	3.342733E-04
3.658295E+03	9.196704E-03	3.338895E-04
3.668183E+03	9.193885E-03	3.336247E-04
3.678070E+03	9.194953E-03	3.335004E-04
3.687957E+03	9.200463E-03	3.335366E-04
3.697845E+03	9.210004E-03	3.337181E-04
3.707732E+03	9.223645E-03	3.340473E-04
3.717619E+03	9.242345E-03	3.345586E-04
3.727506E+03	9.265219E-03	3.352197E-04
3.737394E+03	9.292720E-03	3.360468E-04
3.747281E+03	9.324825E-03	3.370388E-04
3.757168E+03	9.361904E-03	3.382089E-04
3.767056E+03	9.403851E-03	3.395528E-04
3.776943E+03	9.450119E-03	3.410506E-04
3.786830E+03	9.500951E-03	3.427109E-04
3.796717E+03	9.556122E-03	3.445253E-04
3.806605E+03	9.615375E-03	3.464842E-04
3.816492E+03	9.678398E-03	3.485762E-04
3.826379E+03	9.745225E-03	3.508023E-04
3.836267E+03	9.815442E-03	3.531474E-04
3.846154E+03	9.888232E-03	3.555819E-04
3.856041E+03	9.963480E-03	3.581016E-04
3.865928E+03	1.004101E-02	3.606999E-04
3.875816E+03	1.011951E-02	3.633297E-04
3.885703E+03	1.019873E-02	3.659816E-04
3.895590E+03	1.027800E-02	3.686321E-04
3.905478E+03	1.035699E-02	3.712691E-04
3.915365E+03	1.043464E-02	3.738547E-04
3.925252E+03	1.051025E-02	3.763634E-04
3.935139E+03	1.058340E-02	3.787808E-04
3.945027E+03	1.065302E-02	3.810690E-04
3.954914E+03	1.071841E-02	3.832025E-04
3.964801E+03	1.077920E-02	3.851688E-04
3.974689E+03	1.083442E-02	3.869333E-04
3.984576E+03	1.088350E-02	3.884762E-04
3.994463E+03	1.092627E-02	3.897916E-04
4.004350E+03	1.096175E-02	3.908446E-04
4.014238E+03	1.099026E-02	3.916479E-04
4.024125E+03	1.101113E-02	3.921772E-04
4.034012E+03	1.102468E-02	3.924449E-04
4.043900E+03	1.103079E-02	3.924467E-04
4.053787E+03	1.103001E-02	3.922030E-04
4.063674E+03	1.102218E-02	3.917085E-04
4.073561E+03	1.100806E-02	3.909903E-04
4.083449E+03	1.098793E-02	3.900591E-04
4.093336E+03	1.096242E-02	3.889373E-04
4.103223E+03	1.093220E-02	3.876491E-04
4.113111E+03	1.089751E-02	3.862032E-04
4.122998E+03	1.085935E-02	3.846355E-04
4.132885E+03	1.081804E-02	3.829576E-04
4.142772E+03	1.077464E-02	3.812070E-04
4.152660E+03	1.072975E-02	3.794049E-04
4.162547E+03	1.068397E-02	3.775730E-04
4.172434E+03	1.063772E-02	3.757260E-04
4.182322E+03	1.059204E-02	3.739007E-04
4.192209E+03	1.054752E-02	3.721179E-04
4.202096E+03	1.050453E-02	3.703904E-04
4.211983E+03	1.046361E-02	3.687376E-04
4.221871E+03	1.042549E-02	3.671846E-04
4.231758E+03	1.039047E-02	3.657419E-04
4.241645E+03	1.035903E-02	3.644266E-04
4.251533E+03	1.033165E-02	3.632549E-04
4.261420E+03	1.030878E-02	3.622426E-04
4.271307E+03	1.029087E-02	3.614053E-04
4.281194E+03	1.027802E-02	3.607463E-04
4.291082E+03	1.027085E-02	3.602864E-04
4.300969E+03	1.026960E-02	3.600344E-04
4.310856E+03	1.027467E-02	3.600038E-04
4.320744E+03	1.028660E-02	3.602131E-04
4.330631E+03	1.030541E-02	3.606625E-04
4.340518E+03	1.033157E-02	3.613680E-04
4.350405E+03	1.036533E-02	3.623381E-04
4.360293E+03	1.040703E-02	3.635843E-04
4.370180E+03	1.045665E-02	3.651051E-04
4.380067E+03	1.051469E-02	3.669176E-04
4.389955E+03	1.058110E-02	3.690194E-04
4.399842E+03	1.065589E-02	3.714106E-04
4.409729E+03	1.073864E-02	3.740762E-04
4.419616E+03	1.082915E-02	3.770080E-04
4.429504E+03	1.092672E-02	3.801823E-04
4.439391E+03	1.103054E-02	3.835694E-04
4.449278E+03	1.114003E-02	3.871495E-04
4.459166E+03	1.125414E-02	3.908858E-04
4.469053E+03	1.137161E-02	3.947338E-04
4.478940E+03	1.149126E-02	3.986527E-04
4.488827E+03	1.161145E-02	4.025854E-04
4.498715E+03	1.173065E-02	4.064789E-04
4.508602E+03	1.184718E-02	4.102751E-04
4.518489E+03	1.195894E-02	4.139017E-04
4.528377E+03	1.206422E-02	4.172994E-04
4.538264E+03	1.216107E-02	4.204018E-04
4.548151E+03	1.224746E-02	4.231386E-04
4.558038E+03	1.232155E-02	4.254475E-04
4.567926E+03	1.238168E-02	4.272713E-04
4.577813E+03	1.242635E-02	4.285602E-04
4.587700E+03	1.245457E-02	4.292801E-04
4.597588E+03	1.246532E-02	4.293971E-04
4.607475E+03	1.245827E-02	4.289012E-04
4.617362E+03	1.243325E-02	4.277877E-04
4.627249E+03	1.239081E-02	4.260762E-04
4.637137E+03	1.233173E-02	4.237944E-04
4.647024E+03	1.225719E-02	4.209848E-04
4.656911E+03	1.216888E-02	4.177053E-04
4.666798E+03	1.206854E-02	4.140173E-04
4.676686E+03	1.195801E-02	4.099843E-04
4.686573E+03	1.183971E-02	4.056895E-04
4.696460E+03	1.171569E-02	4.012037E-04
4.706348E+03	1.158835E-02	3.966099E-04
4.716235E+03	1.145983E-02	3.919811E-04
4.726122E+03	1.133234E-02	3.873932E-04
4.736009E+03	1.120777E-02	3.829102E-04
4.745897E+03	1.108827E-02	3.786057E-04
4.755784E+03	1.097521E-02	3.745262E-04
4.765671E+03	1.087059E-02	3.707393E-04
4.775559E+03	1.077547E-02	3.672804E-04
4.785446E+03	1.069120E-02	3.641957E-04
4.795333E+03	1.061881E-02	3.615189E-04
4.805220E+03	1.055908E-02	3.592762E-04
4.815108E+03	1.051249E-02	3.574827E-04
4.824995E+03	1.047947E-02	3.561528E-04
4.834882E+03	1.046001E-02	3.552854E-04
4.844770E+03	1.045402E-02	3.548760E-04
4.854657E+03	1.046123E-02	3.549153E-04
4.864544E+03	1.048079E-02	3.553732E-04
4.874431E+03	1.051186E-02	3.562210E-04
4.884319E+03	1.055304E-02	3.574101E-04
4.894206E+03	1.060259E-02	3.588816E-04
4.904093E+03	1.065848E-02	3.605659E-04
4.913981E+03	1.071871E-02	3.623950E-04
4.923868E+03	1.078108E-02	3.642948E-04
4.933755E+03	1.084333E-02	3.661887E-04
4.943642E+03	1.090362E-02	3.680141E-04
4.953530E+03	1.096005E-02	3.697074E-04
4.963417E+03	1.101119E-02	3.712208E-04
4.973304E+03	1.105625E-02	3.725281E-04
4.983192E+03	1.109476E-02	3.736134E-04
4.993079E+03	1.112641E-02	3.744669E-04
5.002966E+03	1.115189E-02	3.751119E-04
5.012853E+03	1.117198E-02	3.755755E-04
5.022741E+03	1.118748E-02	3.758848E-04
5.032628E+03	1.119988E-02	3.760897E-04
5.042515E+03	1.121052E-02	3.762359E-04
5.052403E+03	1.122055E-02	3.763617E-04
5.062290E+03	1.123167E-02	3.765240E-04
5.072177E+03	1.124478E-02	3.767535E-04
5.082064E+03	1.126130E-02	3.770973E-04
5.091952E+03	1.128213E-02	3.775851E-04
5.101839E+03	1.130824E-02	3.782498E-04
5.111726E+03	1.134027E-02	3.791119E-04
5.121614E+03	1.137892E-02	3.801946E-04
5.131501E+03	1.142452E-02	3.815084E-04
5.141388E+03	1.147739E-02	3.830645E-04
5.151275E+03	1.153789E-02	3.848735E-04
5.161163E+03	1.160600E-02	3.869349E-04
5.171050E+03	1.168188E-02	3.892535E-04
5.180937E+03	1.176536E-02	3.918232E-04
5.190825E+03	1.185633E-02	3.946399E-04
5.200712E+03	1.195471E-02	3.977009E-04
5.210599E+03	1.206024E-02	4.009970E-04
5.220486E+03	1.217232E-02	4.045077E-04
5.230374E+03	1.229078E-02	4.082272E-04
5.240261E+03	1.241496E-02	4.121337E-04
5.250148E+03	1.254441E-02	4.162112E-04
5.260036E+03	1.267828E-02	4.204322E-04
5.269923E+03	1.281580E-02	4.247702E-04
5.279810E+03	1.295605E-02	4.291953E-04
5.289697E+03	1.309803E-02	4.336736E-04
5.299585E+03	1.324055E-02	4.381663E-04
5.309472E+03	1.338230E-02	4.426297E-04
5.319359E+03	1.352179E-02	4.470146E-04
5.329247E+03	1.365719E-02	4.512611E-04
5.339134E+03	1.378695E-02	4.553179E-04
5.349021E+03	1.390883E-02	4.591116E-04
5.358908E+03	1.402081E-02	4.625755E-04
5.368796E+03	1.412092E-02	4.656460E-04
5.378683E+03	1.420692E-02	4.682493E-04
5.388570E+03	1.427671E-02	4.703167E-04
5.398458E+03	1.432834E-02	4.717858E-04
5.408345E+03	1.435971E-02	4.725871E-04
5.418232E+03	1.436893E-02	4.726605E-04
5.428119E+03	1.435448E-02	4.719564E-04
5.438007E+03	1.431482E-02	4.704259E-04
5.447894E+03	1.424928E-02	4.680476E-04
5.457781E+03	1.415714E-02	4.647994E-04
5.467669E+03	1.403864E-02	4.606904E-04
5.477556E+03	1.389421E-02	4.557359E-04
5.487443E+03	1.372483E-02	4.499692E-04
5.497330E+03	1.353221E-02	4.434474E-04
5.507218E+03	1.331869E-02	4.362481E-04
5.517105E+03	1.308707E-02	4.284638E-04
5.526992E+03	1.284043E-02	4.201965E-04
5.536880E+03	1.258203E-02	4.115529E-04
5.546767E+03	1.231559E-02	4.026554E-04
5.556654E+03	1.204439E-02	3.936115E-04
5.566541E+03	1.177211E-02	3.845412E-04
5.576429E+03	1.150228E-02	3.755602E-04
5.586316E+03	1.123794E-02	3.667672E-04
5.596203E+03	1.098224E-02	3.582650E-04
5.606091E+03	1.073798E-02	3.501440E-04
5.615978E+03	1.050766E-02	3.424853E-04
5.625865E+03	1.029349E-02	3.353606E-04
5.635752E+03	1.009751E-02	3.288352E-04
5.645640E+03	9.921168E-03	3.229555E-04
5.655527E+03	9.765897E-03	3.177674E-04
5.665414E+03	9.632771E-03	3.133047E-04
5.675302E+03	9.522511E-03	3.095901E-04
5.685189E+03	9.435426E-03	3.066327E-04
5.695076E+03	9.371496E-03	3.044308E-04
5.704963E+03	9.330229E-03	3.029675E-04
5.714851E+03	9.310793E-03	3.022149E-04
5.724738E+03	9.311922E-03	3.021312E-04
5.734625E+03	9.332020E-03	3.026637E-04
5.744513E+03	9.369394E-03	3.037568E-04
5.754400E+03	9.421979E-03	3.053430E-04
5.764287E+03	9.487679E-03	3.073540E-04
5.774174E+03	9.564291E-03	3.097177E-04
5.784062E+03	9.649529E-03	3.123600E-04
5.793949E+03	9.741118E-03	3.152069E-04
5.803836E+03	9.836845E-03	3.181866E-04
5.813724E+03	9.934460E-03	3.212263E-04
5.823611E+03	1.003196E-02	3.242613E-04
5.833498E+03	1.012716E-02	3.272210E-04
5.843385E+03	1.021837E-02	3.300508E-04
5.853273E+03	1.030366E-02	3.326888E-04
5.863160E+03	1.038162E-02	3.350897E-04
5.873047E+03	1.045086E-02	3.372088E-04
5.882935E+03	1.051030E-02	3.390116E-04
5.892822E+03	1.055910E-02	3.404718E-04
5.902709E+03	1.059661E-02	3.415682E-04
5.912596E+03	1.062251E-02	3.422914E-04
5.922484E+03	1.063694E-02	3.426457E-04
5.932371E+03	1.063986E-02	3.426311E-04
5.942258E+03	1.063202E-02	3.422713E-04
5.952146E+03	1.061404E-02	3.415870E-04
5.962033E+03	1.058687E-02	3.406090E-04
5.971920E+03	1.055140E-02	3.393661E-04
5.981807E+03	1.050898E-02	3.379021E-04
5.991695E+03	1.046098E-02	3.362613E-04
6.001582E+03	1.040876E-02	3.344872E-04
6.011469E+03	1.035373E-02	3.326255E-04
6.021357E+03	1.029753E-02	3.307290E-04
6.031244E+03	1.024160E-02	3.288437E-04
6.041131E+03	1.018742E-02	3.270175E-04
6.051018E+03	1.013644E-02	3.252963E-04
6.060906E+03	1.008999E-02	3.237232E-04
6.070793E+03	1.004923E-02	3.223349E-04
6.080680E+03	1.001545E-02	3.211732E-04
6.090568E+03	9.989607E-03	3.202679E-04
6.100455E+03	9.972299E-03	3.196386E-04
6.110342E+03	9.964123E-03	3.193038E-04
6.120229E+03	9.965434E-03	3.192750E-04
6.130117E+03	9.976003E-03	3.195446E-04
6.140004E+03	9.995742E-03	3.201095E-04
6.149891E+03	1.002414E-02	3.209534E-04
6.159779E+03	1.006025E-02	3.220452E-04
6.169666E+03	1.010312E-02	3.233552E-04
6.179553E+03	1.015150E-02	3.248424E-04
6.189440E+03	1.020384E-02	3.264578E-04
6.199328E+03	1.025859E-02	3.281513E-04
6.209215E+03	1.031402E-02	3.298676E-04
6.219102E+03	1.036832E-02	3.315492E-04
6.228990E+03	1.042017E-02	3.331535E-04
6.238877E+03	1.046784E-02	3.346256E-04
6.248764E+03	1.051024E-02	3.359304E-04
6.258651E+03	1.054615E-02	3.370292E-04
6.268539E+03	1.057496E-02	3.379025E-04
6.278426E+03	1.059573E-02	3.385205E-04
6.288313E+03	1.060814E-02	3.388729E-04
6.298201E+03	1.061177E-02	3.389465E-04
6.308088E+03	1.060641E-02	3.387347E-04
6.317975E+03	1.059175E-02	3.382276E-04
6.327862E+03	1.056796E-02	3.374309E-04
6.337750E+03	1.053497E-02	3.363420E-04
6.347637E+03	1.049264E-02	3.349571E-04
6.357524E+03	1.044127E-02	3.332855E-04
6.367412E+03	1.038115E-02	3.313364E-04
6.377299E+03	1.031257E-02	3.291192E-04
6.387186E+03	1.023607E-02	3.266512E-04
6.397073E+03	1.015226E-02	3.239518E-04
6.406961E+03	1.006210E-02	3.210520E-04
6.416848E+03	9.966508E-03	3.179805E-04
6.426735E+03	9.866554E-03	3.147718E-04
6.436623E+03	9.763423E-03	3.114636E-04
6.446510E+03	9.658358E-03	3.080955E-04
6.456397E+03	9.552524E-03	3.047047E-04
6.466284E+03	9.447164E-03	3.013306E-04
6.476172E+03	9.343308E-03	2.980061E-04
6.486059E+03	9.242008E-03	2.947648E-04
6.495946E+03	9.143831E-03	2.916246E-04
6.505833E+03	9.049372E-03	2.886045E-04
6.515721E+03	8.958779E-03	2.857091E-04
6.525608E+03	8.871853E-03	2.829320E-04
6.535495E+03	8.788329E-03	2.802648E-04
6.545383E+03	8.707793E-03	2.776941E-04
6.555270E+03	8.629657E-03	2.752012E-04
6.565157E+03	8.553581E-03	2.727753E-04
6.575044E+03	8.478969E-03	2.703972E-04
6.584932E+03	8.405346E-03	2.680518E-04
6.594819E+03	8.332206E-03	2.657229E-04
6.604706E+03	8.259408E-03	2.634061E-04
6.614594E+03	8.186533E-03	2.610878E-04
6.624481E+03	8.113667E-03	2.587709E-04
6.634368E+03	8.040712E-03	2.564521E-04
6.644255E+03	7.968072E-03	2.541443E-04
6.654143E+03	7.895974E-03	2.518547E-04
6.664030E+03	7.824931E-03	2.495997E-04
6.673917E+03	7.755358E-03	2.473925E-04
6.683805E+03	7.687826E-03	2.452512E-04
6.693692E+03	7.623072E-03	2.431994E-04
6.703579E+03	7.561709E-03	2.412566E-04
6.713466E+03	7.504556E-03	2.394489E-04
6.723354E+03	7.452380E-03	2.378009E-04
6.733241E+03	7.405965E-03	2.363375E-04
6.743128E+03	7.366024E-03	2.350816E-04
6.753016E+03	7.333456E-03	2.340618E-04
6.762903E+03	7.309069E-03	2.333040E-04
6.772790E+03	7.293746E-03	2.328365E-04
6.782677E+03	7.288113E-03	2.326792E-04
6.792565E+03	7.293002E-03	2.328590E-04
6.802452E+03	7.309056E-03	2.333964E-04
6.812339E+03	7.336761E-03	2.343070E-04
6.822227E+03	7.376448E-03	2.356015E-04
6.832114E+03	7.428363E-03	2.372881E-04
6.842001E+03	7.492346E-03	2.393617E-04
6.851888E+03	7.567998E-03	2.418098E-04
6.861776E+03	7.654869E-03	2.446182E-04
6.871663E+03	7.751788E-03	2.477496E-04
6.881550E+03	7.857413E-03	2.511613E-04
6.891438E+03	7.969817E-03	2.547919E-04
6.901325E+03	8.087131E-03	2.585818E-04
6.911212E+03	8.206905E-03	2.624528E-04
6.921099E+03	8.327066E-03	2.663386E-04
6.930987E+03	8.445477E-03	2.701711E-04
6.940874E+03	8.560021E-03	2.738824E-04
6.950761E+03	8.669365E-03	2.774300E-04
6.960649E+03	8.772350E-03	2.807766E-04
6.970536E+03	8.868763E-03	2.839155E-04
6.980423E+03	8.958585E-03	2.868459E-04
6.990310E+03	9.042437E-03	2.895877E-04
7.000198E+03	9.121378E-03	2.921748E-04
7.010085E+03	9.196896E-03	2.946548E-04
7.019972E+03	9.270381E-03	2.970721E-04
7.029860E+03	9.343810E-03	2.994903E-04
7.039747E+03	9.418697E-03	3.019578E-04
7.049634E+03	9.496892E-03	3.045341E-04
7.059521E+03	9.579701E-03	3.072611E-04
7.069409E+03	9.668264E-03	3.101757E-04
7.079296E+03	9.763292E-03	3.133009E-04
7.089183E+03	9.865110E-03	3.166472E-04
7.099071E+03	9.973605E-03	3.202113E-04
7.108958E+03	1.008817E-02	3.239740E-04
7.118845E+03	1.020788E-02	3.279057E-04
7.128732E+03	1.033102E-02	3.319516E-04
7.138620E+03	1.045598E-02	3.360600E-04
7.148507E+03	1.058028E-02	3.401514E-04
7.158394E+03	1.070168E-02	3.441539E-04
7.168282E+03	1.081728E-02	3.479744E-04
7.178169E+03	1.092419E-02	3.515192E-04
7.188056E+03	1.101946E-02	3.546936E-04
7.197943E+03	1.110039E-02	3.574108E-04
7.207831E+03	1.116407E-02	3.595758E-04
7.217718E+03	1.120847E-02	3.611234E-04
7.227605E+03	1.123165E-02	3.619904E-04
7.237493E+03	1.123236E-02	3.621355E-04
7.247380E+03	1.121006E-02	3.615410E-04
7.257267E+03	1.116465E-02	3.602026E-04
7.267154E+03	1.109676E-02	3.581402E-04
7.277042E+03	1.100753E-02	3.553895E-04
7.286929E+03	1.089871E-02	3.520063E-04
7.296816E+03	1.077196E-02	3.480438E-04
7.306704E+03	1.062973E-02	3.435800E-04
7.316591E+03	1.047428E-02	3.386875E-04
7.326478E+03	1.030765E-02	3.334318E-04
7.336365E+03	1.013228E-02	3.278912E-04
7.346253E+03	9.950391E-03	3.221373E-04
7.356140E+03	9.764236E-03	3.162427E-04
7.366027E+03	9.575593E-03	3.102646E-04
7.375915E+03	9.386513E-03	3.042694E-04
7.385802E+03	9.198806E-03	2.983156E-04
7.395689E+03	9.014173E-03	2.924583E-04
7.405576E+03	8.834242E-03	2.867505E-04
7.415464E+03	8.660511E-03	2.812408E-04
7.425351E+03	8.494363E-03	2.759743E-04
7.435238E+03	8.337048E-03	2.709917E-04
7.445126E+03	8.189550E-03	2.663255E-04
7.455013E+03	8.052978E-03	2.620119E-04
7.464900E+03	7.927765E-03	2.580655E-04
7.474787E+03	7.814451E-03	2.545043E-04
7.484675E+03	7.713313E-03	2.513379E-04
7.494562E+03	7.624398E-03	2.485681E-04
7.504449E+03	7.547749E-03	2.461971E-04
7.514337E+03	7.483532E-03	2.442307E-04
7.524224E+03	7.431427E-03	2.426591E-04
7.534111E+03	7.391251E-03	2.414769E-04
7.543998E+03	7.362745E-03	2.406761E-04
7.553886E+03	7.345685E-03	2.402501E-04
7.563773E+03	7.339663E-03	2.401861E-04
7.573660E+03	7.343985E-03	2.404619E-04
7.583548E+03	7.358231E-03	2.410642E-04
7.593435E+03	7.381567E-03	2.419664E-04
7.603322E+03	7.413126E-03	2.431404E-04
7.613209E+03	7.451960E-03	2.445557E-04
7.623097E+03	7.496776E-03	2.461700E-04
7.632984E+03	7.546243E-03	2.479402E-04
7.642871E+03	7.598864E-03	2.498171E-04
7.652759E+03	7.653134E-03	2.517515E-04
7.662646E+03	7.707287E-03	2.536854E-04
7.672533E+03	7.759639E-03	2.555633E-04
