#wls	flux	fluxerr
1.581966E+03	7.208621E-03	4.360768E-04
1.621515E+03	7.371747E-03	4.455978E-04
1.661064E+03	7.533096E-03	4.549874E-04
1.700613E+03	7.694912E-03	4.643804E-04
1.740162E+03	7.853671E-03	4.735636E-04
1.779711E+03	8.011637E-03	4.826731E-04
1.819260E+03	8.166633E-03	4.915771E-04
1.858810E+03	8.319454E-03	5.003231E-04
1.898359E+03	8.467785E-03	5.087717E-04
1.937908E+03	8.613999E-03	5.170652E-04
1.977457E+03	8.755714E-03	5.250603E-04
2.017006E+03	8.892084E-03	5.327064E-04
2.056555E+03	9.022223E-03	5.399505E-04
2.096104E+03	9.148557E-03	5.469382E-04
2.135654E+03	9.268542E-03	5.535174E-04
2.175203E+03	9.381246E-03	5.596329E-04
2.214752E+03	9.489082E-03	5.654293E-04
2.254301E+03	9.587727E-03	5.706496E-04
2.293850E+03	9.679555E-03	5.754361E-04
2.333399E+03	9.763554E-03	5.797293E-04
2.372948E+03	9.838691E-03	5.834693E-04
2.412498E+03	9.905568E-03	5.866929E-04
2.452047E+03	9.963093E-03	5.893368E-04
2.491596E+03	1.001178E-02	5.914332E-04
2.531145E+03	1.005207E-02	5.930091E-04
2.570694E+03	1.008270E-02	5.939929E-04
2.610243E+03	1.010399E-02	5.944038E-04
2.649792E+03	1.011611E-02	5.942552E-04
2.689342E+03	1.011913E-02	5.935529E-04
2.728891E+03	1.011300E-02	5.922957E-04
2.768440E+03	1.009895E-02	5.905579E-04
2.807989E+03	1.007517E-02	5.882364E-04
2.847538E+03	1.004392E-02	5.854649E-04
2.887087E+03	1.000441E-02	5.822001E-04
2.926636E+03	9.957023E-03	5.784665E-04
2.966185E+03	9.901892E-03	5.742741E-04
2.976073E+03	9.887395E-03	5.731834E-04
2.985960E+03	9.871699E-03	5.720227E-04
2.995847E+03	9.855951E-03	5.708586E-04
3.005735E+03	9.840090E-03	5.696877E-04
3.015622E+03	9.822931E-03	5.684412E-04
3.025509E+03	9.806708E-03	5.672486E-04
3.035396E+03	9.789108E-03	5.659760E-04
3.045284E+03	9.771216E-03	5.646863E-04
3.055171E+03	9.754072E-03	5.634395E-04
3.065058E+03	9.735441E-03	5.621067E-04
3.074946E+03	9.716377E-03	5.607486E-04
3.084833E+03	9.697884E-03	5.594233E-04
3.094720E+03	9.677810E-03	5.580066E-04
3.104607E+03	9.658195E-03	5.566163E-04
3.114495E+03	9.637951E-03	5.551896E-04
3.124382E+03	9.618040E-03	5.537821E-04
3.134269E+03	9.597400E-03	5.523325E-04
3.144157E+03	9.575997E-03	5.508389E-04
3.154044E+03	9.554756E-03	5.493547E-04
3.163931E+03	9.533609E-03	5.478758E-04
3.173818E+03	9.511553E-03	5.463447E-04
3.183706E+03	9.490407E-03	5.448660E-04
3.193593E+03	9.467342E-03	5.432771E-04
3.203480E+03	9.445061E-03	5.417334E-04
3.213368E+03	9.422584E-03	5.401785E-04
3.223255E+03	9.399856E-03	5.386093E-04
3.233142E+03	9.376822E-03	5.370227E-04
3.243029E+03	9.353430E-03	5.354159E-04
3.252917E+03	9.330462E-03	5.338334E-04
3.262804E+03	9.306196E-03	5.321769E-04
3.272691E+03	9.283045E-03	5.305844E-04
3.282579E+03	9.259301E-03	5.289582E-04
3.292466E+03	9.234925E-03	5.272962E-04
3.302353E+03	9.211420E-03	5.256842E-04
3.312240E+03	9.187155E-03	5.240291E-04
3.322128E+03	9.162845E-03	5.223717E-04
3.332015E+03	9.138416E-03	5.207078E-04
3.341902E+03	9.113803E-03	5.190338E-04
3.351790E+03	9.088933E-03	5.173455E-04
3.361677E+03	9.064443E-03	5.156792E-04
3.371564E+03	9.039537E-03	5.139897E-04
3.381451E+03	9.014828E-03	5.123117E-04
3.391339E+03	8.990212E-03	5.106394E-04
3.401226E+03	8.964934E-03	5.089299E-04
3.411113E+03	8.939565E-03	5.072157E-04
3.421001E+03	8.914005E-03	5.054911E-04
3.430888E+03	8.888185E-03	5.037523E-04
3.440775E+03	8.862640E-03	5.020296E-04
3.450662E+03	8.836682E-03	5.002840E-04
3.460550E+03	8.810294E-03	4.985146E-04
3.470437E+03	8.784028E-03	4.967527E-04
3.480324E+03	8.757849E-03	4.949964E-04
3.490212E+03	8.731213E-03	4.932148E-04
3.500099E+03	8.705256E-03	4.914721E-04
3.509986E+03	8.679431E-03	4.897375E-04
3.519873E+03	8.653786E-03	4.880137E-04
3.529761E+03	8.628882E-03	4.863323E-04
3.539648E+03	8.604232E-03	4.846657E-04
3.549535E+03	8.580389E-03	4.830451E-04
3.559423E+03	8.556897E-03	4.814448E-04
3.569310E+03	8.534774E-03	4.799220E-04
3.579197E+03	8.513597E-03	4.784527E-04
3.589084E+03	8.493441E-03	4.770413E-04
3.598972E+03	8.474396E-03	4.756924E-04
3.608859E+03	8.457064E-03	4.744400E-04
3.618746E+03	8.441588E-03	4.732918E-04
3.628634E+03	8.428123E-03	4.722563E-04
3.638521E+03	8.416457E-03	4.713214E-04
3.648408E+03	8.407637E-03	4.705456E-04
3.658295E+03	8.401453E-03	4.699169E-04
3.668183E+03	8.398548E-03	4.694709E-04
3.678070E+03	8.398766E-03	4.691987E-04
3.687957E+03	8.402351E-03	4.691134E-04
3.697845E+03	8.410324E-03	4.692718E-04
3.707732E+03	8.422545E-03	4.696655E-04
3.717619E+03	8.438880E-03	4.702868E-04
3.727506E+03	8.460288E-03	4.711885E-04
3.737394E+03	8.486605E-03	4.723610E-04
3.747281E+03	8.518345E-03	4.738324E-04
3.757168E+03	8.555280E-03	4.755894E-04
3.767056E+03	8.597831E-03	4.776549E-04
3.776943E+03	8.646025E-03	4.800298E-04
3.786830E+03	8.699507E-03	4.826938E-04
3.796717E+03	8.758857E-03	4.856785E-04
3.806605E+03	8.823293E-03	4.889399E-04
3.816492E+03	8.893249E-03	4.925014E-04
3.826379E+03	8.967821E-03	4.963125E-04
3.836267E+03	9.047305E-03	5.003890E-04
3.846154E+03	9.131277E-03	5.047070E-04
3.856041E+03	9.218649E-03	5.092058E-04
3.865928E+03	9.309486E-03	5.138887E-04
3.875816E+03	9.402864E-03	5.187042E-04
3.885703E+03	9.498106E-03	5.236148E-04
3.895590E+03	9.594776E-03	5.285961E-04
3.905478E+03	9.691850E-03	5.335918E-04
3.915365E+03	9.788563E-03	5.385595E-04
3.925252E+03	9.884124E-03	5.434558E-04
3.935139E+03	9.977787E-03	5.482400E-04
3.945027E+03	1.006880E-02	5.528705E-04
3.954914E+03	1.015611E-02	5.572905E-04
3.964801E+03	1.023932E-02	5.614784E-04
3.974689E+03	1.031776E-02	5.653976E-04
3.984576E+03	1.039024E-02	5.689832E-04
3.994463E+03	1.045677E-02	5.722372E-04
4.004350E+03	1.051634E-02	5.751046E-04
4.014238E+03	1.056877E-02	5.775765E-04
4.024125E+03	1.061348E-02	5.796222E-04
4.034012E+03	1.065023E-02	5.812284E-04
4.043900E+03	1.067856E-02	5.823723E-04
4.053787E+03	1.069853E-02	5.830577E-04
4.063674E+03	1.071029E-02	5.832928E-04
4.073561E+03	1.071377E-02	5.830763E-04
4.083449E+03	1.070938E-02	5.824303E-04
4.093336E+03	1.069757E-02	5.813799E-04
4.103223E+03	1.067838E-02	5.799292E-04
4.113111E+03	1.065256E-02	5.781198E-04
4.122998E+03	1.062114E-02	5.760073E-04
4.132885E+03	1.058426E-02	5.736006E-04
4.142772E+03	1.054304E-02	5.709607E-04
4.152660E+03	1.049815E-02	5.681252E-04
4.162547E+03	1.045049E-02	5.651417E-04
4.172434E+03	1.040054E-02	5.620378E-04
4.182322E+03	1.034937E-02	5.588716E-04
4.192209E+03	1.029744E-02	5.556671E-04
4.202096E+03	1.024552E-02	5.524666E-04
4.211983E+03	1.019417E-02	5.492998E-04
4.221871E+03	1.014422E-02	5.462121E-04
4.231758E+03	1.009576E-02	5.432080E-04
4.241645E+03	1.004971E-02	5.403362E-04
4.251533E+03	1.000620E-02	5.376043E-04
4.261420E+03	9.965681E-03	5.350357E-04
4.271307E+03	9.928369E-03	5.326417E-04
4.281194E+03	9.894905E-03	5.304563E-04
4.291082E+03	9.865098E-03	5.284689E-04
4.300969E+03	9.839505E-03	5.267090E-04
4.310856E+03	9.818179E-03	5.251788E-04
4.320744E+03	9.801601E-03	5.239035E-04
4.330631E+03	9.790067E-03	5.228986E-04
4.340518E+03	9.783841E-03	5.221773E-04
4.350405E+03	9.783441E-03	5.217668E-04
4.360293E+03	9.789055E-03	5.216765E-04
4.370180E+03	9.801242E-03	5.219353E-04
4.380067E+03	9.819971E-03	5.225408E-04
4.389955E+03	9.845720E-03	5.235177E-04
4.399842E+03	9.878300E-03	5.248552E-04
4.409729E+03	9.917980E-03	5.265667E-04
4.419616E+03	9.964633E-03	5.286446E-04
4.429504E+03	1.001776E-02	5.310619E-04
4.439391E+03	1.007701E-02	5.337982E-04
4.449278E+03	1.014202E-02	5.368352E-04
4.459166E+03	1.021180E-02	5.401188E-04
4.469053E+03	1.028558E-02	5.436078E-04
4.478940E+03	1.036233E-02	5.472474E-04
4.488827E+03	1.044090E-02	5.509771E-04
4.498715E+03	1.052003E-02	5.547294E-04
4.508602E+03	1.059861E-02	5.584463E-04
4.518489E+03	1.067493E-02	5.620377E-04
4.528377E+03	1.074777E-02	5.654398E-04
4.538264E+03	1.081575E-02	5.685806E-04
4.548151E+03	1.087722E-02	5.713740E-04
4.558038E+03	1.093108E-02	5.737622E-04
4.567926E+03	1.097597E-02	5.756766E-04
4.577813E+03	1.101084E-02	5.770616E-04
4.587700E+03	1.103506E-02	5.778860E-04
4.597588E+03	1.104775E-02	5.781056E-04
4.607475E+03	1.104867E-02	5.777081E-04
4.617362E+03	1.103772E-02	5.766909E-04
4.627249E+03	1.101532E-02	5.750770E-04
4.637137E+03	1.098180E-02	5.728851E-04
4.647024E+03	1.093803E-02	5.701614E-04
4.656911E+03	1.088491E-02	5.669545E-04
4.666798E+03	1.082348E-02	5.633196E-04
4.676686E+03	1.075530E-02	5.593386E-04
4.686573E+03	1.068172E-02	5.550834E-04
4.696460E+03	1.060402E-02	5.506196E-04
4.706348E+03	1.052384E-02	5.460345E-04
4.716235E+03	1.044237E-02	5.413890E-04
4.726122E+03	1.036100E-02	5.367551E-04
4.736009E+03	1.028099E-02	5.321988E-04
4.745897E+03	1.020355E-02	5.277821E-04
4.755784E+03	1.012980E-02	5.235624E-04
4.765671E+03	1.006100E-02	5.196045E-04
4.775559E+03	9.998086E-03	5.159564E-04
4.785446E+03	9.942107E-03	5.126710E-04
4.795333E+03	9.893820E-03	5.097866E-04
4.805220E+03	9.853864E-03	5.073354E-04
4.815108E+03	9.822731E-03	5.053414E-04
4.824995E+03	9.800572E-03	5.038115E-04
4.834882E+03	9.787710E-03	5.027610E-04
4.844770E+03	9.783895E-03	5.021763E-04
4.854657E+03	9.788762E-03	5.020373E-04
4.864544E+03	9.801701E-03	5.023118E-04
4.874431E+03	9.822168E-03	5.029710E-04
4.884319E+03	9.848987E-03	5.039539E-04
4.894206E+03	9.881075E-03	5.052042E-04
4.904093E+03	9.917153E-03	5.066561E-04
4.913981E+03	9.955869E-03	5.082400E-04
4.923868E+03	9.995608E-03	5.098732E-04
4.933755E+03	1.003500E-02	5.114858E-04
4.943642E+03	1.007283E-02	5.130158E-04
4.953530E+03	1.010763E-02	5.143890E-04
4.963417E+03	1.013854E-02	5.155622E-04
4.973304E+03	1.016487E-02	5.164999E-04
4.983192E+03	1.018630E-02	5.171872E-04
4.993079E+03	1.020264E-02	5.176149E-04
5.002966E+03	1.021405E-02	5.177918E-04
5.012853E+03	1.022122E-02	5.177532E-04
5.022741E+03	1.022451E-02	5.175177E-04
5.032628E+03	1.022478E-02	5.171295E-04
5.042515E+03	1.022296E-02	5.166358E-04
5.052403E+03	1.021967E-02	5.160684E-04
5.062290E+03	1.021593E-02	5.154787E-04
5.072177E+03	1.021242E-02	5.149011E-04
5.082064E+03	1.020986E-02	5.143722E-04
5.091952E+03	1.020899E-02	5.139286E-04
5.101839E+03	1.021025E-02	5.135928E-04
5.111726E+03	1.021423E-02	5.133938E-04
5.121614E+03	1.022131E-02	5.133505E-04
5.131501E+03	1.023168E-02	5.134720E-04
5.141388E+03	1.024566E-02	5.137740E-04
5.151275E+03	1.026337E-02	5.142620E-04
5.161163E+03	1.028473E-02	5.149322E-04
5.171050E+03	1.030992E-02	5.157923E-04
5.180937E+03	1.033872E-02	5.168315E-04
5.190825E+03	1.037095E-02	5.180401E-04
5.200712E+03	1.040635E-02	5.194046E-04
5.210599E+03	1.044472E-02	5.209149E-04
5.220486E+03	1.048556E-02	5.225462E-04
5.230374E+03	1.052845E-02	5.242762E-04
5.240261E+03	1.057314E-02	5.260934E-04
5.250148E+03	1.061892E-02	5.279620E-04
5.260036E+03	1.066525E-02	5.298545E-04
5.269923E+03	1.071181E-02	5.317552E-04
5.279810E+03	1.075791E-02	5.336303E-04
5.289697E+03	1.080291E-02	5.354478E-04
5.299585E+03	1.084613E-02	5.371743E-04
5.309472E+03	1.088694E-02	5.387789E-04
5.319359E+03	1.092442E-02	5.402159E-04
5.329247E+03	1.095769E-02	5.414430E-04
5.339134E+03	1.098596E-02	5.424212E-04
5.349021E+03	1.100826E-02	5.431036E-04
5.358908E+03	1.102354E-02	5.434386E-04
5.368796E+03	1.103095E-02	5.433851E-04
5.378683E+03	1.102954E-02	5.428981E-04
5.388570E+03	1.101846E-02	5.419362E-04
5.398458E+03	1.099681E-02	5.404564E-04
5.408345E+03	1.096397E-02	5.384296E-04
5.418232E+03	1.091934E-02	5.358271E-04
5.428119E+03	1.086239E-02	5.326252E-04
5.438007E+03	1.079278E-02	5.288076E-04
5.447894E+03	1.071031E-02	5.243667E-04
5.457781E+03	1.061497E-02	5.193030E-04
5.467669E+03	1.050695E-02	5.136272E-04
5.477556E+03	1.038673E-02	5.073647E-04
5.487443E+03	1.025491E-02	5.005455E-04
5.497330E+03	1.011247E-02	4.932191E-04
5.507218E+03	9.960495E-03	4.854394E-04
5.517105E+03	9.800317E-03	4.772724E-04
5.526992E+03	9.633578E-03	4.687987E-04
5.536880E+03	9.461602E-03	4.600836E-04
5.546767E+03	9.286156E-03	4.512133E-04
5.556654E+03	9.109016E-03	4.422745E-04
5.566541E+03	8.931835E-03	4.333476E-04
5.576429E+03	8.756231E-03	4.245109E-04
5.586316E+03	8.583936E-03	4.158482E-04
5.596203E+03	8.416619E-03	4.074398E-04
5.606091E+03	8.255761E-03	3.993568E-04
5.615978E+03	8.102790E-03	3.916675E-04
5.625865E+03	7.959127E-03	3.844398E-04
5.635752E+03	7.825808E-03	3.777225E-04
5.645640E+03	7.703942E-03	3.715680E-04
5.655527E+03	7.594362E-03	3.660153E-04
5.665414E+03	7.497677E-03	3.610923E-04
5.675302E+03	7.414462E-03	3.568254E-04
5.685189E+03	7.344695E-03	3.532121E-04
5.695076E+03	7.288498E-03	3.502567E-04
5.704963E+03	7.245568E-03	3.479435E-04
5.714851E+03	7.215518E-03	3.462524E-04
5.724738E+03	7.197712E-03	3.451516E-04
5.734625E+03	7.191563E-03	3.446117E-04
5.744513E+03	7.196074E-03	3.445839E-04
5.754400E+03	7.210460E-03	3.450295E-04
5.764287E+03	7.233583E-03	3.458931E-04
5.774174E+03	7.264397E-03	3.471239E-04
5.784062E+03	7.301657E-03	3.486619E-04
5.793949E+03	7.344243E-03	3.504527E-04
5.803836E+03	7.390905E-03	3.524366E-04
5.813724E+03	7.440400E-03	3.545537E-04
5.823611E+03	7.491713E-03	3.567557E-04
5.833498E+03	7.543642E-03	3.589852E-04
5.843385E+03	7.595236E-03	3.611969E-04
5.853273E+03	7.645549E-03	3.633460E-04
5.863160E+03	7.693616E-03	3.653869E-04
5.873047E+03	7.738870E-03	3.672929E-04
5.882935E+03	7.780616E-03	3.690314E-04
5.892822E+03	7.818442E-03	3.705833E-04
5.902709E+03	7.852130E-03	3.719386E-04
5.912596E+03	7.881328E-03	3.730811E-04
5.922484E+03	7.906049E-03	3.740121E-04
5.932371E+03	7.926404E-03	3.747370E-04
5.942258E+03	7.942376E-03	3.752556E-04
5.952146E+03	7.954333E-03	3.755857E-04
5.962033E+03	7.962735E-03	3.757495E-04
5.971920E+03	7.967975E-03	3.757657E-04
5.981807E+03	7.970759E-03	3.756680E-04
5.991695E+03	7.971773E-03	3.754890E-04
6.001582E+03	7.971688E-03	3.752605E-04
6.011469E+03	7.971592E-03	3.750338E-04
6.021357E+03	7.972209E-03	3.748429E-04
6.031244E+03	7.974571E-03	3.747363E-04
6.041131E+03	7.979553E-03	3.747551E-04
6.051018E+03	7.988081E-03	3.749425E-04
6.060906E+03	8.000951E-03	3.753356E-04
6.070793E+03	8.019024E-03	3.759746E-04
6.080680E+03	8.042932E-03	3.768887E-04
6.090568E+03	8.073296E-03	3.781066E-04
6.100455E+03	8.110564E-03	3.796488E-04
6.110342E+03	8.154830E-03	3.815194E-04
6.120229E+03	8.206474E-03	3.837356E-04
6.130117E+03	8.265036E-03	3.862756E-04
6.140004E+03	8.330411E-03	3.891340E-04
6.149891E+03	8.401945E-03	3.922799E-04
6.159779E+03	8.478976E-03	3.956822E-04
6.169666E+03	8.560712E-03	3.993034E-04
6.179553E+03	8.646071E-03	4.030929E-04
6.189440E+03	8.733939E-03	4.069986E-04
6.199328E+03	8.823012E-03	4.109598E-04
6.209215E+03	8.911997E-03	4.149161E-04
6.219102E+03	8.999519E-03	4.188038E-04
6.228990E+03	9.084079E-03	4.225531E-04
6.238877E+03	9.164271E-03	4.260991E-04
6.248764E+03	9.238748E-03	4.293794E-04
6.258651E+03	9.306219E-03	4.323344E-04
6.268539E+03	9.365474E-03	4.349085E-04
6.278426E+03	9.415445E-03	4.370525E-04
6.288313E+03	9.455476E-03	4.387367E-04
6.298201E+03	9.484841E-03	4.399277E-04
6.308088E+03	9.502824E-03	4.405932E-04
6.317975E+03	9.509337E-03	4.407295E-04
6.327862E+03	9.504021E-03	4.403208E-04
6.337750E+03	9.486881E-03	4.393676E-04
6.347637E+03	9.457954E-03	4.378724E-04
6.357524E+03	9.417589E-03	4.358519E-04
6.367412E+03	9.366026E-03	4.333176E-04
6.377299E+03	9.303821E-03	4.302958E-04
6.387186E+03	9.231736E-03	4.268220E-04
6.397073E+03	9.150519E-03	4.229313E-04
6.406961E+03	9.061006E-03	4.186626E-04
6.416848E+03	8.964325E-03	4.140682E-04
6.426735E+03	8.861448E-03	4.091932E-04
6.436623E+03	8.753596E-03	4.040942E-04
6.446510E+03	8.641907E-03	3.988237E-04
6.456397E+03	8.527381E-03	3.934280E-04
6.466284E+03	8.411352E-03	3.879686E-04
6.476172E+03	8.294629E-03	3.824827E-04
6.486059E+03	8.178368E-03	3.770235E-04
6.495946E+03	8.063263E-03	3.716229E-04
6.505833E+03	7.949924E-03	3.663088E-04
6.515721E+03	7.838803E-03	3.611019E-04
6.525608E+03	7.729848E-03	3.559996E-04
6.535495E+03	7.623200E-03	3.510083E-04
6.545383E+03	7.518701E-03	3.461205E-04
6.555270E+03	7.416485E-03	3.413421E-04
6.565157E+03	7.316405E-03	3.366663E-04
6.575044E+03	7.218460E-03	3.320929E-04
6.584932E+03	7.122719E-03	3.276249E-04
6.594819E+03	7.029027E-03	3.232551E-04
6.604706E+03	6.937661E-03	3.189959E-04
6.614594E+03	6.848759E-03	3.148537E-04
6.624481E+03	6.762406E-03	3.108322E-04
6.634368E+03	6.678950E-03	3.069472E-04
6.644255E+03	6.598684E-03	3.032122E-04
6.654143E+03	6.521901E-03	2.996403E-04
6.664030E+03	6.448924E-03	2.962464E-04
6.673917E+03	6.379860E-03	2.930351E-04
6.683805E+03	6.315195E-03	2.900287E-04
6.693692E+03	6.255080E-03	2.872340E-04
6.703579E+03	6.199892E-03	2.846681E-04
6.713466E+03	6.149873E-03	2.823421E-04
6.723354E+03	6.105567E-03	2.802809E-04
6.733241E+03	6.067091E-03	2.784896E-04
6.743128E+03	6.034914E-03	2.769897E-04
6.753016E+03	6.009304E-03	2.757934E-04
6.762903E+03	5.990727E-03	2.749221E-04
6.772790E+03	5.979363E-03	2.743838E-04
6.782677E+03	5.975643E-03	2.741984E-04
6.792565E+03	5.979912E-03	2.743816E-04
6.802452E+03	5.992446E-03	2.749459E-04
6.812339E+03	6.013382E-03	2.758978E-04
6.822227E+03	6.042844E-03	2.772429E-04
6.832114E+03	6.080735E-03	2.789767E-04
6.842001E+03	6.126947E-03	2.810943E-04
6.851888E+03	6.181132E-03	2.835799E-04
6.861776E+03	6.242977E-03	2.864191E-04
6.871663E+03	6.311857E-03	2.895834E-04
6.881550E+03	6.386957E-03	2.930354E-04
6.891438E+03	6.467517E-03	2.967404E-04
6.901325E+03	6.552466E-03	3.006494E-04
6.911212E+03	6.640669E-03	3.047105E-04
6.921099E+03	6.730985E-03	3.088714E-04
6.930987E+03	6.822258E-03	3.130792E-04
6.940874E+03	6.913410E-03	3.172846E-04
6.950761E+03	7.003497E-03	3.214444E-04
6.960649E+03	7.091867E-03	3.255288E-04
6.970536E+03	7.178079E-03	3.295175E-04
6.980423E+03	7.262011E-03	3.334052E-04
6.990310E+03	7.343688E-03	3.371931E-04
7.000198E+03	7.423727E-03	3.409096E-04
7.010085E+03	7.502638E-03	3.445781E-04
7.019972E+03	7.581192E-03	3.482343E-04
7.029860E+03	7.660339E-03	3.519219E-04
7.039747E+03	7.740850E-03	3.556764E-04
7.049634E+03	7.823463E-03	3.595320E-04
7.059521E+03	7.908927E-03	3.635232E-04
7.069409E+03	7.997656E-03	3.676693E-04
7.079296E+03	8.089973E-03	3.719854E-04
7.089183E+03	8.185793E-03	3.764678E-04
7.099071E+03	8.285021E-03	3.811123E-04
7.108958E+03	8.387114E-03	3.858944E-04
7.118845E+03	8.491180E-03	3.907731E-04
7.128732E+03	8.596432E-03	3.957126E-04
7.138620E+03	8.701387E-03	4.006447E-04
7.148507E+03	8.804705E-03	4.055079E-04
7.158394E+03	8.904778E-03	4.102283E-04
7.168282E+03	8.999951E-03	4.147296E-04
7.178169E+03	9.088268E-03	4.189217E-04
7.188056E+03	9.167844E-03	4.227176E-04
7.197943E+03	9.236793E-03	4.260300E-04
7.207831E+03	9.293539E-03	4.287860E-04
7.217718E+03	9.336190E-03	4.308977E-04
7.227605E+03	9.363555E-03	4.323098E-04
7.237493E+03	9.374456E-03	4.329670E-04
7.247380E+03	9.368425E-03	4.328471E-04
7.257267E+03	9.345129E-03	4.319338E-04
7.267154E+03	9.304962E-03	4.302445E-04
7.277042E+03	9.248489E-03	4.278044E-04
7.286929E+03	9.176565E-03	4.246520E-04
7.296816E+03	9.090524E-03	4.208483E-04
7.306704E+03	8.991495E-03	4.164445E-04
7.316591E+03	8.880985E-03	4.115096E-04
7.326478E+03	8.760699E-03	4.061218E-04
7.336365E+03	8.631900E-03	4.003389E-04
7.346253E+03	8.496277E-03	3.942386E-04
7.356140E+03	8.355372E-03	3.878917E-04
7.366027E+03	8.210793E-03	3.813725E-04
7.375915E+03	8.063851E-03	3.747413E-04
7.385802E+03	7.916007E-03	3.680657E-04
7.395689E+03	7.768519E-03	3.614040E-04
7.405576E+03	7.622678E-03	3.548161E-04
7.415464E+03	7.479467E-03	3.483473E-04
7.425351E+03	7.339986E-03	3.420491E-04
7.435238E+03	7.205070E-03	3.359602E-04
7.445126E+03	7.075662E-03	3.301248E-04
7.455013E+03	6.952500E-03	3.245775E-04
7.464900E+03	6.836053E-03	3.193406E-04
7.474787E+03	6.727070E-03	3.144493E-04
7.484675E+03	6.625924E-03	3.099215E-04
7.494562E+03	6.532950E-03	3.057735E-04
7.504449E+03	6.448402E-03	3.020177E-04
7.514337E+03	6.372361E-03	2.986585E-04
7.524224E+03	6.304859E-03	2.956979E-04
7.534111E+03	6.245944E-03	2.931391E-04
7.543998E+03	6.195511E-03	2.909777E-04
7.553886E+03	6.153180E-03	2.891967E-04
7.563773E+03	6.118765E-03	2.877878E-04
7.573660E+03	6.091940E-03	2.867367E-04
7.583548E+03	6.072340E-03	2.860266E-04
7.593435E+03	6.059297E-03	2.856270E-04
7.603322E+03	6.052253E-03	2.855120E-04
7.613209E+03	6.050645E-03	2.856556E-04
7.623097E+03	6.053522E-03	2.860136E-04
7.632984E+03	6.060139E-03	2.865510E-04
7.642871E+03	6.069542E-03	2.872232E-04
7.652759E+03	6.080744E-03	2.879836E-04
7.662646E+03	6.092747E-03	2.887852E-04
7.672533E+03	6.104474E-03	2.895769E-04
