#wls	flux	fluxerr
1.581966E+03	6.236266E-03	3.297092E-04
1.621515E+03	6.382412E-03	3.371659E-04
1.661064E+03	6.528883E-03	3.446205E-04
1.700613E+03	6.676388E-03	3.521100E-04
1.740162E+03	6.822096E-03	3.594842E-04
1.779711E+03	6.967818E-03	3.668383E-04
1.819260E+03	7.113017E-03	3.741435E-04
1.858810E+03	7.255865E-03	3.813029E-04
1.898359E+03	7.396943E-03	3.883470E-04
1.937908E+03	7.535569E-03	3.952396E-04
1.977457E+03	7.672313E-03	4.020103E-04
2.017006E+03	7.805143E-03	4.085524E-04
2.056555E+03	7.934552E-03	4.148918E-04
2.096104E+03	8.059715E-03	4.209852E-04
2.135654E+03	8.179758E-03	4.267872E-04
2.175203E+03	8.295093E-03	4.323197E-04
2.214752E+03	8.404777E-03	4.375336E-04
2.254301E+03	8.507823E-03	4.423783E-04
2.293850E+03	8.604541E-03	4.468704E-04
2.333399E+03	8.693867E-03	4.509555E-04
2.372948E+03	8.774707E-03	4.545779E-04
2.412498E+03	8.848568E-03	4.578168E-04
2.452047E+03	8.912959E-03	4.605443E-04
2.491596E+03	8.966699E-03	4.627013E-04
2.531145E+03	9.012430E-03	4.644257E-04
2.570694E+03	9.046327E-03	4.655221E-04
2.610243E+03	9.070893E-03	4.661215E-04
2.649792E+03	9.083556E-03	4.660938E-04
2.689342E+03	9.085425E-03	4.654984E-04
2.728891E+03	9.073988E-03	4.642093E-04
2.768440E+03	9.052542E-03	4.623980E-04
2.807989E+03	9.017425E-03	4.598801E-04
2.847538E+03	8.970633E-03	4.567608E-04
2.887087E+03	8.910813E-03	4.529745E-04
2.926636E+03	8.838738E-03	4.485637E-04
2.966185E+03	8.755074E-03	4.435659E-04
2.976073E+03	8.731375E-03	4.421758E-04
2.985960E+03	8.707566E-03	4.407806E-04
2.995847E+03	8.683613E-03	4.393782E-04
3.005735E+03	8.658564E-03	4.379208E-04
3.015622E+03	8.632421E-03	4.364084E-04
3.025509E+03	8.606058E-03	4.348854E-04
3.035396E+03	8.578567E-03	4.333058E-04
3.045284E+03	8.549946E-03	4.316696E-04
3.055171E+03	8.521048E-03	4.300200E-04
3.065058E+03	8.491842E-03	4.283555E-04
3.074946E+03	8.461464E-03	4.266325E-04
3.084833E+03	8.430738E-03	4.248926E-04
3.094720E+03	8.398826E-03	4.230936E-04
3.104607E+03	8.366535E-03	4.212763E-04
3.114495E+03	8.333843E-03	4.194396E-04
3.124382E+03	8.299941E-03	4.175429E-04
3.134269E+03	8.266389E-03	4.156647E-04
3.144157E+03	8.231605E-03	4.137253E-04
3.154044E+03	8.195607E-03	4.117260E-04
3.163931E+03	8.159891E-03	4.097418E-04
3.173818E+03	8.122947E-03	4.076970E-04
3.183706E+03	8.086242E-03	4.056653E-04
3.193593E+03	8.048306E-03	4.035729E-04
3.203480E+03	8.010564E-03	4.014914E-04
3.213368E+03	7.971595E-03	3.993496E-04
3.223255E+03	7.932793E-03	3.972173E-04
3.233142E+03	7.892770E-03	3.950252E-04
3.243029E+03	7.852892E-03	3.928416E-04
3.252917E+03	7.812469E-03	3.906322E-04
3.262804E+03	7.771515E-03	3.883975E-04
3.272691E+03	7.730038E-03	3.861380E-04
3.282579E+03	7.688687E-03	3.838863E-04
3.292466E+03	7.646852E-03	3.816118E-04
3.302353E+03	7.605166E-03	3.793462E-04
3.312240E+03	7.563052E-03	3.770609E-04
3.322128E+03	7.520558E-03	3.747580E-04
3.332015E+03	7.478303E-03	3.724686E-04
3.341902E+03	7.435748E-03	3.701658E-04
3.351790E+03	7.393489E-03	3.678793E-04
3.361677E+03	7.351550E-03	3.656103E-04
3.371564E+03	7.309941E-03	3.633593E-04
3.381451E+03	7.268140E-03	3.611002E-04
3.391339E+03	7.226692E-03	3.588603E-04
3.401226E+03	7.185590E-03	3.566392E-04
3.411113E+03	7.144815E-03	3.544358E-04
3.421001E+03	7.103847E-03	3.522245E-04
3.430888E+03	7.063650E-03	3.500530E-04
3.440775E+03	7.023683E-03	3.478944E-04
3.450662E+03	6.983907E-03	3.457469E-04
3.460550E+03	6.944280E-03	3.436083E-04
3.470437E+03	6.904770E-03	3.414771E-04
3.480324E+03	6.865340E-03	3.393515E-04
3.490212E+03	6.826397E-03	3.372515E-04
3.500099E+03	6.787464E-03	3.351536E-04
3.509986E+03	6.748939E-03	3.330774E-04
3.519873E+03	6.710358E-03	3.310001E-04
3.529761E+03	6.671700E-03	3.289205E-04
3.539648E+03	6.633343E-03	3.268575E-04
3.549535E+03	6.595247E-03	3.248089E-04
3.559423E+03	6.556990E-03	3.227540E-04
3.569310E+03	6.518941E-03	3.207110E-04
3.579197E+03	6.481093E-03	3.186795E-04
3.589084E+03	6.443447E-03	3.166596E-04
3.598972E+03	6.406046E-03	3.146533E-04
3.608859E+03	6.368604E-03	3.126467E-04
3.618746E+03	6.331944E-03	3.106802E-04
3.628634E+03	6.295530E-03	3.087273E-04
3.638521E+03	6.260254E-03	3.068319E-04
3.648408E+03	6.226034E-03	3.049897E-04
3.658295E+03	6.193178E-03	3.032159E-04
3.668183E+03	6.162037E-03	3.015275E-04
3.678070E+03	6.133306E-03	2.999584E-04
3.687957E+03	6.107086E-03	2.985132E-04
3.697845E+03	6.083817E-03	2.972134E-04
3.707732E+03	6.064249E-03	2.960953E-04
3.717619E+03	6.048543E-03	2.951666E-04
3.727506E+03	6.037160E-03	2.944493E-04
3.737394E+03	6.031105E-03	2.939920E-04
3.747281E+03	6.030225E-03	2.937871E-04
3.757168E+03	6.034903E-03	2.938527E-04
3.767056E+03	6.045750E-03	2.942180E-04
3.776943E+03	6.063046E-03	2.948963E-04
3.786830E+03	6.087011E-03	2.958976E-04
3.796717E+03	6.117539E-03	2.972164E-04
3.806605E+03	6.154999E-03	2.988699E-04
3.816492E+03	6.199413E-03	3.008588E-04
3.826379E+03	6.250740E-03	3.031805E-04
3.836267E+03	6.308611E-03	3.058165E-04
3.846154E+03	6.373084E-03	3.087690E-04
3.856041E+03	6.444120E-03	3.120358E-04
3.865928E+03	6.520817E-03	3.155726E-04
3.875816E+03	6.602904E-03	3.193658E-04
3.885703E+03	6.689727E-03	3.233835E-04
3.895590E+03	6.780235E-03	3.275744E-04
3.905478E+03	6.874003E-03	3.319177E-04
3.915365E+03	6.969456E-03	3.363372E-04
3.925252E+03	7.065691E-03	3.407893E-04
3.935139E+03	7.161483E-03	3.452146E-04
3.945027E+03	7.255574E-03	3.495529E-04
3.954914E+03	7.346457E-03	3.537316E-04
3.964801E+03	7.433169E-03	3.577046E-04
3.974689E+03	7.514565E-03	3.614173E-04
3.984576E+03	7.589343E-03	3.648075E-04
3.994463E+03	7.656583E-03	3.678315E-04
4.004350E+03	7.715752E-03	3.704645E-04
4.014238E+03	7.766225E-03	3.726771E-04
4.024125E+03	7.807071E-03	3.744253E-04
4.034012E+03	7.838540E-03	3.757220E-04
4.043900E+03	7.860360E-03	3.765549E-04
4.053787E+03	7.872748E-03	3.769351E-04
4.063674E+03	7.875897E-03	3.768729E-04
4.073561E+03	7.870679E-03	3.764104E-04
4.083449E+03	7.857895E-03	3.755869E-04
4.093336E+03	7.838475E-03	3.744473E-04
4.103223E+03	7.812975E-03	3.730187E-04
4.113111E+03	7.782888E-03	3.713728E-04
4.122998E+03	7.749023E-03	3.695487E-04
4.132885E+03	7.712379E-03	3.675943E-04
4.142772E+03	7.673690E-03	3.655447E-04
4.152660E+03	7.634029E-03	3.634513E-04
4.162547E+03	7.593979E-03	3.613418E-04
4.172434E+03	7.554248E-03	3.592499E-04
4.182322E+03	7.515646E-03	3.572143E-04
4.192209E+03	7.478134E-03	3.552329E-04
4.202096E+03	7.442740E-03	3.533545E-04
4.211983E+03	7.409269E-03	3.515696E-04
4.221871E+03	7.378388E-03	3.499097E-04
4.231758E+03	7.349949E-03	3.483678E-04
4.241645E+03	7.324285E-03	3.469592E-04
4.251533E+03	7.301488E-03	3.456882E-04
4.261420E+03	7.281275E-03	3.445412E-04
4.271307E+03	7.263858E-03	3.435281E-04
4.281194E+03	7.249273E-03	3.426503E-04
4.291082E+03	7.237406E-03	3.419022E-04
4.300969E+03	7.228504E-03	3.412953E-04
4.310856E+03	7.222364E-03	3.408199E-04
4.320744E+03	7.219332E-03	3.404920E-04
4.330631E+03	7.219505E-03	3.403159E-04
4.340518E+03	7.223204E-03	3.403067E-04
4.350405E+03	7.231005E-03	3.404911E-04
4.360293E+03	7.242935E-03	3.408702E-04
4.370180E+03	7.259997E-03	3.414908E-04
4.380067E+03	7.282320E-03	3.423586E-04
4.389955E+03	7.310650E-03	3.435083E-04
4.399842E+03	7.345557E-03	3.449663E-04
4.409729E+03	7.387547E-03	3.467558E-04
4.419616E+03	7.436894E-03	3.488892E-04
4.429504E+03	7.493721E-03	3.513717E-04
4.439391E+03	7.558421E-03	3.542212E-04
4.449278E+03	7.630725E-03	3.574247E-04
4.459166E+03	7.709977E-03	3.609509E-04
4.469053E+03	7.795981E-03	3.647901E-04
4.478940E+03	7.887370E-03	3.688780E-04
4.488827E+03	7.983070E-03	3.731640E-04
4.498715E+03	8.081582E-03	3.775779E-04
4.508602E+03	8.181120E-03	3.820361E-04
4.518489E+03	8.279684E-03	3.864453E-04
4.528377E+03	8.374926E-03	3.906960E-04
4.538264E+03	8.464521E-03	3.946801E-04
4.548151E+03	8.546114E-03	3.982884E-04
4.558038E+03	8.617560E-03	4.014214E-04
4.567926E+03	8.676404E-03	4.039657E-04
4.577813E+03	8.721077E-03	4.058491E-04
4.587700E+03	8.749912E-03	4.069952E-04
4.597588E+03	8.761676E-03	4.073475E-04
4.607475E+03	8.755900E-03	4.068857E-04
4.617362E+03	8.732471E-03	4.056055E-04
4.627249E+03	8.691762E-03	4.035255E-04
4.637137E+03	8.634447E-03	4.006780E-04
4.647024E+03	8.561927E-03	3.971291E-04
4.656911E+03	8.475790E-03	3.929535E-04
4.666798E+03	8.377889E-03	3.882378E-04
4.676686E+03	8.270120E-03	3.830706E-04
4.686573E+03	8.154898E-03	3.775642E-04
4.696460E+03	8.034121E-03	3.718070E-04
4.706348E+03	7.910080E-03	3.659052E-04
4.716235E+03	7.784882E-03	3.599564E-04
4.726122E+03	7.660396E-03	3.540469E-04
4.736009E+03	7.538746E-03	3.482748E-04
4.745897E+03	7.421530E-03	3.427135E-04
4.755784E+03	7.310302E-03	3.374347E-04
4.765671E+03	7.206565E-03	3.325072E-04
4.775559E+03	7.111389E-03	3.279797E-04
4.785446E+03	7.025752E-03	3.238970E-04
4.795333E+03	6.950521E-03	3.202983E-04
4.805220E+03	6.886247E-03	3.172085E-04
4.815108E+03	6.833187E-03	3.146387E-04
4.824995E+03	6.791651E-03	3.126025E-04
4.834882E+03	6.761693E-03	3.111017E-04
4.844770E+03	6.743326E-03	3.101364E-04
4.854657E+03	6.736104E-03	3.096855E-04
4.864544E+03	6.739816E-03	3.097385E-04
4.874431E+03	6.753819E-03	3.102655E-04
4.884319E+03	6.777113E-03	3.112199E-04
4.894206E+03	6.808515E-03	3.125470E-04
4.904093E+03	6.846766E-03	3.141888E-04
4.913981E+03	6.889903E-03	3.160547E-04
4.923868E+03	6.936071E-03	3.180595E-04
4.933755E+03	6.983299E-03	3.201128E-04
4.943642E+03	7.029426E-03	3.221155E-04
4.953530E+03	7.072548E-03	3.239805E-04
4.963417E+03	7.111194E-03	3.256406E-04
4.973304E+03	7.144147E-03	3.270403E-04
4.983192E+03	7.170933E-03	3.281583E-04
4.993079E+03	7.191385E-03	3.289872E-04
5.002966E+03	7.206182E-03	3.295583E-04
5.012853E+03	7.215986E-03	3.299022E-04
5.022741E+03	7.222082E-03	3.300778E-04
5.032628E+03	7.225823E-03	3.301472E-04
5.042515E+03	7.228739E-03	3.301804E-04
5.052403E+03	7.232000E-03	3.302307E-04
5.062290E+03	7.237072E-03	3.303653E-04
5.072177E+03	7.244809E-03	3.306228E-04
5.082064E+03	7.256320E-03	3.310539E-04
5.091952E+03	7.271797E-03	3.316672E-04
5.101839E+03	7.291682E-03	3.324827E-04
5.111726E+03	7.315876E-03	3.334958E-04
5.121614E+03	7.344217E-03	3.346989E-04
5.131501E+03	7.376501E-03	3.360826E-04
5.141388E+03	7.412232E-03	3.376243E-04
5.151275E+03	7.450957E-03	3.393032E-04
5.161163E+03	7.492181E-03	3.410967E-04
5.171050E+03	7.535498E-03	3.429864E-04
5.180937E+03	7.580379E-03	3.449481E-04
5.190825E+03	7.626063E-03	3.469471E-04
5.200712E+03	7.672227E-03	3.489689E-04
5.210599E+03	7.718112E-03	3.509789E-04
5.220486E+03	7.763401E-03	3.529628E-04
5.230374E+03	7.807458E-03	3.548918E-04
5.240261E+03	7.849778E-03	3.567430E-04
5.250148E+03	7.889876E-03	3.584943E-04
5.260036E+03	7.927293E-03	3.601252E-04
5.269923E+03	7.961597E-03	3.616161E-04
5.279810E+03	7.992280E-03	3.629440E-04
5.289697E+03	8.019182E-03	3.641019E-04
5.299585E+03	8.041716E-03	3.650631E-04
5.309472E+03	8.059628E-03	3.658163E-04
5.319359E+03	8.072399E-03	3.663380E-04
5.329247E+03	8.079766E-03	3.666164E-04
5.339134E+03	8.080867E-03	3.666124E-04
5.349021E+03	8.075534E-03	3.663187E-04
5.358908E+03	8.062947E-03	3.656981E-04
5.368796E+03	8.043031E-03	3.647474E-04
5.378683E+03	8.015186E-03	3.634394E-04
5.388570E+03	7.979119E-03	3.617609E-04
5.398458E+03	7.934706E-03	3.597065E-04
5.408345E+03	7.881641E-03	3.572624E-04
5.418232E+03	7.819894E-03	3.544273E-04
5.428119E+03	7.749362E-03	3.511966E-04
5.438007E+03	7.669875E-03	3.475626E-04
5.447894E+03	7.581423E-03	3.435250E-04
5.457781E+03	7.484281E-03	3.390962E-04
5.467669E+03	7.378380E-03	3.342732E-04
5.477556E+03	7.263978E-03	3.290676E-04
5.487443E+03	7.141669E-03	3.235063E-04
5.497330E+03	7.011784E-03	3.176044E-04
5.507218E+03	6.875225E-03	3.114025E-04
5.517105E+03	6.732663E-03	3.049311E-04
5.526992E+03	6.585325E-03	2.982457E-04
5.536880E+03	6.434304E-03	2.913957E-04
5.546767E+03	6.280915E-03	2.844404E-04
5.556654E+03	6.126663E-03	2.774480E-04
5.566541E+03	5.972915E-03	2.704804E-04
5.576429E+03	5.821135E-03	2.636035E-04
5.586316E+03	5.672884E-03	2.568881E-04
5.596203E+03	5.529306E-03	2.503858E-04
5.606091E+03	5.391665E-03	2.441537E-04
5.615978E+03	5.261021E-03	2.382398E-04
5.625865E+03	5.138378E-03	2.326894E-04
5.635752E+03	5.024389E-03	2.275320E-04
5.645640E+03	4.919879E-03	2.228049E-04
5.655527E+03	4.825313E-03	2.185291E-04
5.665414E+03	4.741174E-03	2.147265E-04
5.675302E+03	4.667654E-03	2.114058E-04
5.685189E+03	4.604940E-03	2.085754E-04
5.695076E+03	4.553010E-03	2.062344E-04
5.704963E+03	4.511641E-03	2.043727E-04
5.714851E+03	4.480604E-03	2.029800E-04
5.724738E+03	4.459526E-03	2.020394E-04
5.734625E+03	4.447710E-03	2.015196E-04
5.744513E+03	4.444487E-03	2.013901E-04
5.754400E+03	4.449048E-03	2.016146E-04
5.764287E+03	4.460251E-03	2.021413E-04
5.774174E+03	4.477080E-03	2.029242E-04
5.784062E+03	4.498219E-03	2.039039E-04
5.793949E+03	4.522361E-03	2.050212E-04
5.803836E+03	4.548246E-03	2.062188E-04
5.813724E+03	4.574458E-03	2.074329E-04
5.823611E+03	4.599956E-03	2.086161E-04
5.833498E+03	4.623749E-03	2.097235E-04
5.843385E+03	4.644882E-03	2.107118E-04
5.853273E+03	4.662852E-03	2.115581E-04
5.863160E+03	4.677142E-03	2.122390E-04
5.873047E+03	4.687523E-03	2.127439E-04
5.882935E+03	4.693693E-03	2.130592E-04
5.892822E+03	4.695739E-03	2.131886E-04
5.902709E+03	4.693628E-03	2.131306E-04
5.912596E+03	4.687471E-03	2.128902E-04
5.922484E+03	4.677429E-03	2.124744E-04
5.932371E+03	4.663782E-03	2.118961E-04
5.942258E+03	4.646671E-03	2.111614E-04
5.952146E+03	4.626559E-03	2.102913E-04
5.962033E+03	4.603714E-03	2.092979E-04
5.971920E+03	4.578773E-03	2.082101E-04
5.981807E+03	4.552202E-03	2.070490E-04
5.991695E+03	4.524783E-03	2.058501E-04
6.001582E+03	4.497421E-03	2.046545E-04
6.011469E+03	4.470942E-03	2.034998E-04
6.021357E+03	4.446411E-03	2.024346E-04
6.031244E+03	4.425121E-03	2.015178E-04
6.041131E+03	4.408167E-03	2.007992E-04
6.051018E+03	4.396843E-03	2.003381E-04
6.060906E+03	4.392605E-03	2.002011E-04
6.070793E+03	4.396692E-03	2.004448E-04
6.080680E+03	4.410474E-03	2.011321E-04
6.090568E+03	4.435367E-03	2.023280E-04
6.100455E+03	4.472677E-03	2.040926E-04
6.110342E+03	4.523564E-03	2.064794E-04
6.120229E+03	4.589137E-03	2.095396E-04
6.130117E+03	4.670392E-03	2.133195E-04
6.140004E+03	4.767934E-03	2.178475E-04
6.149891E+03	4.882164E-03	2.231428E-04
6.159779E+03	5.012887E-03	2.291973E-04
6.169666E+03	5.159459E-03	2.359824E-04
6.179553E+03	5.320667E-03	2.434435E-04
6.189440E+03	5.494454E-03	2.514874E-04
6.199328E+03	5.678268E-03	2.599978E-04
6.209215E+03	5.868795E-03	2.688238E-04
6.219102E+03	6.062283E-03	2.777937E-04
6.228990E+03	6.254667E-03	2.867216E-04
6.238877E+03	6.441564E-03	2.954066E-04
6.248764E+03	6.618371E-03	3.036373E-04
6.258651E+03	6.781180E-03	3.112338E-04
6.268539E+03	6.926034E-03	3.180139E-04
6.278426E+03	7.049832E-03	3.238341E-04
6.288313E+03	7.150313E-03	3.285893E-04
6.298201E+03	7.225834E-03	3.322028E-04
6.308088E+03	7.275353E-03	3.346251E-04
6.317975E+03	7.298721E-03	3.358478E-04
6.327862E+03	7.296332E-03	3.358874E-04
6.337750E+03	7.269176E-03	3.347880E-04
6.347637E+03	7.218666E-03	3.326130E-04
6.357524E+03	7.147005E-03	3.294624E-04
6.367412E+03	7.056303E-03	3.254323E-04
6.377299E+03	6.949332E-03	3.206490E-04
6.387186E+03	6.828615E-03	3.152280E-04
6.397073E+03	6.696760E-03	3.092888E-04
6.406961E+03	6.556260E-03	3.029455E-04
6.416848E+03	6.409540E-03	2.963098E-04
6.426735E+03	6.258604E-03	2.894737E-04
6.436623E+03	6.105345E-03	2.825244E-04
6.446510E+03	5.951598E-03	2.755467E-04
6.456397E+03	5.798598E-03	2.685975E-04
6.466284E+03	5.647564E-03	2.617334E-04
6.476172E+03	5.499703E-03	2.550103E-04
6.486059E+03	5.355676E-03	2.484590E-04
6.495946E+03	5.216290E-03	2.421172E-04
6.505833E+03	5.081787E-03	2.359963E-04
6.515721E+03	4.952526E-03	2.301133E-04
6.525608E+03	4.828454E-03	2.244660E-04
6.535495E+03	4.709573E-03	2.190548E-04
6.545383E+03	4.595683E-03	2.138708E-04
6.555270E+03	4.486724E-03	2.089113E-04
6.565157E+03	4.382477E-03	2.041667E-04
6.575044E+03	4.282886E-03	1.996344E-04
6.584932E+03	4.187838E-03	1.953096E-04
6.594819E+03	4.097236E-03	1.911879E-04
6.604706E+03	4.011011E-03	1.872666E-04
6.614594E+03	3.929046E-03	1.835403E-04
6.624481E+03	3.851511E-03	1.800174E-04
6.634368E+03	3.778202E-03	1.766886E-04
6.644255E+03	3.709244E-03	1.735600E-04
6.654143E+03	3.644561E-03	1.706283E-04
6.664030E+03	3.584178E-03	1.678951E-04
6.673917E+03	3.527986E-03	1.653555E-04
6.683805E+03	3.476002E-03	1.630106E-04
6.693692E+03	3.428183E-03	1.608588E-04
6.703579E+03	3.384451E-03	1.588967E-04
6.713466E+03	3.344914E-03	1.571296E-04
6.723354E+03	3.309480E-03	1.555536E-04
6.733241E+03	3.278254E-03	1.541738E-04
6.743128E+03	3.251301E-03	1.529937E-04
6.753016E+03	3.228706E-03	1.520176E-04
6.762903E+03	3.210585E-03	1.512512E-04
6.772790E+03	3.197129E-03	1.507041E-04
6.782677E+03	3.188394E-03	1.503791E-04
6.792565E+03	3.184676E-03	1.502906E-04
6.802452E+03	3.186098E-03	1.504448E-04
6.812339E+03	3.192841E-03	1.508507E-04
6.822227E+03	3.205060E-03	1.515160E-04
6.832114E+03	3.222944E-03	1.524501E-04
6.842001E+03	3.246532E-03	1.536554E-04
6.851888E+03	3.275877E-03	1.551348E-04
6.861776E+03	3.310954E-03	1.568876E-04
6.871663E+03	3.351718E-03	1.589121E-04
6.881550E+03	3.397919E-03	1.611969E-04
6.891438E+03	3.449285E-03	1.637297E-04
6.901325E+03	3.505513E-03	1.664963E-04
6.911212E+03	3.566065E-03	1.694718E-04
6.921099E+03	3.630601E-03	1.726402E-04
6.930987E+03	3.698600E-03	1.759770E-04
6.940874E+03	3.769626E-03	1.794619E-04
6.950761E+03	3.843331E-03	1.830785E-04
6.960649E+03	3.919488E-03	1.868162E-04
6.970536E+03	3.998096E-03	1.906752E-04
6.980423E+03	4.079138E-03	1.946548E-04
6.990310E+03	4.162991E-03	1.987733E-04
7.000198E+03	4.250075E-03	2.030510E-04
7.010085E+03	4.341190E-03	2.075263E-04
7.019972E+03	4.436939E-03	2.122285E-04
7.029860E+03	4.538218E-03	2.172008E-04
7.039747E+03	4.645827E-03	2.224819E-04
7.049634E+03	4.760412E-03	2.281034E-04
7.059521E+03	4.882568E-03	2.340945E-04
7.069409E+03	5.012807E-03	2.404802E-04
7.079296E+03	5.151152E-03	2.472624E-04
7.089183E+03	5.297791E-03	2.544508E-04
7.099071E+03	5.452060E-03	2.620141E-04
7.108958E+03	5.613282E-03	2.699204E-04
7.118845E+03	5.780317E-03	2.781156E-04
7.128732E+03	5.951651E-03	2.865270E-04
7.138620E+03	6.125284E-03	2.950589E-04
7.148507E+03	6.299186E-03	3.036134E-04
7.158394E+03	6.470434E-03	3.120497E-04
7.168282E+03	6.636353E-03	3.202384E-04
7.178169E+03	6.793805E-03	3.280275E-04
7.188056E+03	6.939378E-03	3.352516E-04
7.197943E+03	7.069636E-03	3.417433E-04
7.207831E+03	7.181663E-03	3.473605E-04
7.217718E+03	7.272530E-03	3.519598E-04
7.227605E+03	7.339956E-03	3.554290E-04
7.237493E+03	7.382346E-03	3.576887E-04
7.247380E+03	7.398728E-03	3.586897E-04
7.257267E+03	7.389213E-03	3.584354E-04
7.267154E+03	7.354535E-03	3.569589E-04
7.277042E+03	7.295961E-03	3.543199E-04
7.286929E+03	7.215436E-03	3.506107E-04
7.296816E+03	7.115412E-03	3.459488E-04
7.306704E+03	6.998306E-03	3.404501E-04
7.316591E+03	6.866746E-03	3.342412E-04
7.326478E+03	6.723448E-03	3.274529E-04
7.336365E+03	6.570768E-03	3.201994E-04
7.346253E+03	6.410896E-03	3.125864E-04
7.356140E+03	6.246154E-03	3.047268E-04
7.366027E+03	6.078289E-03	2.967053E-04
7.375915E+03	5.908828E-03	2.885964E-04
7.385802E+03	5.739430E-03	2.804810E-04
7.395689E+03	5.571250E-03	2.724157E-04
7.405576E+03	5.405347E-03	2.644522E-04
7.415464E+03	5.242895E-03	2.566483E-04
7.425351E+03	5.084921E-03	2.490546E-04
7.435238E+03	4.932422E-03	2.417203E-04
7.445126E+03	4.786340E-03	2.346921E-04
7.455013E+03	4.647533E-03	2.280127E-04
7.464900E+03	4.516654E-03	2.217145E-04
7.474787E+03	4.394393E-03	2.158324E-04
7.484675E+03	4.281203E-03	2.103892E-04
7.494562E+03	4.177382E-03	2.054002E-04
7.504449E+03	4.083033E-03	2.008715E-04
7.514337E+03	3.998356E-03	1.968135E-04
7.524224E+03	3.923166E-03	1.932179E-04
7.534111E+03	3.857427E-03	1.900838E-04
7.543998E+03	3.800965E-03	1.874034E-04
7.553886E+03	3.753499E-03	1.851635E-04
7.563773E+03	3.714913E-03	1.833591E-04
7.573660E+03	3.684772E-03	1.819695E-04
7.583548E+03	3.662790E-03	1.809812E-04
7.593435E+03	3.648534E-03	1.803735E-04
7.603322E+03	3.641481E-03	1.801211E-04
7.613209E+03	3.640921E-03	1.801894E-04
7.623097E+03	3.646250E-03	1.805490E-04
7.632984E+03	3.656488E-03	1.811519E-04
7.642871E+03	3.670783E-03	1.819562E-04
7.652759E+03	3.688079E-03	1.829098E-04
7.662646E+03	3.707494E-03	1.839693E-04
7.672533E+03	3.727869E-03	1.850771E-04
