#wls	flux	fluxerr
1.581966E+03	5.592251E-03	1.582269E-04
1.621515E+03	5.723859E-03	1.619095E-04
1.661064E+03	5.855857E-03	1.656002E-04
1.700613E+03	5.987833E-03	1.692872E-04
1.740162E+03	6.119345E-03	1.729580E-04
1.779711E+03	6.250989E-03	1.766294E-04
1.819260E+03	6.381196E-03	1.802569E-04
1.858810E+03	6.509409E-03	1.838247E-04
1.898359E+03	6.637281E-03	1.873794E-04
1.937908E+03	6.761977E-03	1.908410E-04
1.977457E+03	6.885131E-03	1.942556E-04
2.017006E+03	7.004934E-03	1.975721E-04
2.056555E+03	7.121846E-03	2.008034E-04
2.096104E+03	7.235142E-03	2.039290E-04
2.135654E+03	7.344049E-03	2.069273E-04
2.175203E+03	7.448954E-03	2.098093E-04
2.214752E+03	7.547836E-03	2.125178E-04
2.254301E+03	7.642214E-03	2.150960E-04
2.293850E+03	7.729997E-03	2.174850E-04
2.333399E+03	7.811452E-03	2.196923E-04
2.372948E+03	7.885620E-03	2.216913E-04
2.412498E+03	7.952706E-03	2.234879E-04
2.452047E+03	8.011694E-03	2.250537E-04
2.491596E+03	8.062722E-03	2.263927E-04
2.531145E+03	8.104728E-03	2.274755E-04
2.570694E+03	8.136661E-03	2.282728E-04
2.610243E+03	8.160810E-03	2.288491E-04
2.649792E+03	8.173832E-03	2.291111E-04
2.689342E+03	8.176837E-03	2.290902E-04
2.728891E+03	8.169774E-03	2.287854E-04
2.768440E+03	8.152560E-03	2.281947E-04
2.807989E+03	8.124085E-03	2.272876E-04
2.847538E+03	8.085269E-03	2.260902E-04
2.887087E+03	8.035048E-03	2.245733E-04
2.926636E+03	7.973396E-03	2.227366E-04
2.966185E+03	7.902052E-03	2.206293E-04
2.976073E+03	7.882610E-03	2.200577E-04
2.985960E+03	7.862329E-03	2.194627E-04
2.995847E+03	7.842039E-03	2.188675E-04
3.005735E+03	7.820053E-03	2.182250E-04
3.015622E+03	7.798027E-03	2.175814E-04
3.025509E+03	7.775929E-03	2.169359E-04
3.035396E+03	7.752133E-03	2.162430E-04
3.045284E+03	7.728240E-03	2.155476E-04
3.055171E+03	7.704227E-03	2.148489E-04
3.065058E+03	7.678521E-03	2.141030E-04
3.074946E+03	7.653437E-03	2.133746E-04
3.084833E+03	7.626663E-03	2.125991E-04
3.094720E+03	7.600467E-03	2.118399E-04
3.104607E+03	7.572586E-03	2.110338E-04
3.114495E+03	7.545239E-03	2.102427E-04
3.124382E+03	7.516220E-03	2.094051E-04
3.134269E+03	7.487697E-03	2.085815E-04
3.144157E+03	7.458221E-03	2.077314E-04
3.154044E+03	7.428497E-03	2.068745E-04
3.163931E+03	7.397829E-03	2.059916E-04
3.173818E+03	7.367573E-03	2.051202E-04
3.183706E+03	7.336366E-03	2.042225E-04
3.193593E+03	7.304221E-03	2.032988E-04
3.203480E+03	7.272451E-03	2.023858E-04
3.213368E+03	7.239749E-03	2.014470E-04
3.223255E+03	7.207391E-03	2.005179E-04
3.233142E+03	7.174106E-03	1.995632E-04
3.243029E+03	7.140532E-03	1.986006E-04
3.252917E+03	7.106669E-03	1.976302E-04
3.262804E+03	7.072520E-03	1.966520E-04
3.272691E+03	7.038685E-03	1.956827E-04
3.282579E+03	7.004002E-03	1.946901E-04
3.292466E+03	6.969654E-03	1.937069E-04
3.302353E+03	6.934529E-03	1.927024E-04
3.312240E+03	6.899791E-03	1.917088E-04
3.322128E+03	6.864907E-03	1.907114E-04
3.332015E+03	6.829917E-03	1.897112E-04
3.341902E+03	6.795387E-03	1.887240E-04
3.351790E+03	6.760813E-03	1.877358E-04
3.361677E+03	6.726229E-03	1.867475E-04
3.371564E+03	6.692169E-03	1.857740E-04
3.381451E+03	6.658629E-03	1.848152E-04
3.391339E+03	6.624631E-03	1.838438E-04
3.401226E+03	6.591645E-03	1.829007E-04
3.411113E+03	6.558680E-03	1.819585E-04
3.421001E+03	6.525734E-03	1.810169E-04
3.430888E+03	6.493251E-03	1.800884E-04
3.440775E+03	6.461195E-03	1.791720E-04
3.450662E+03	6.429528E-03	1.782665E-04
3.460550E+03	6.398210E-03	1.773710E-04
3.470437E+03	6.366773E-03	1.764723E-04
3.480324E+03	6.335622E-03	1.755818E-04
3.490212E+03	6.304725E-03	1.746985E-04
3.500099E+03	6.274046E-03	1.738214E-04
3.509986E+03	6.243557E-03	1.729499E-04
3.519873E+03	6.213625E-03	1.720939E-04
3.529761E+03	6.183428E-03	1.712309E-04
3.539648E+03	6.153345E-03	1.703711E-04
3.549535E+03	6.123737E-03	1.695248E-04
3.559423E+03	6.094205E-03	1.686807E-04
3.569310E+03	6.064746E-03	1.678389E-04
3.579197E+03	6.035372E-03	1.669996E-04
3.589084E+03	6.006469E-03	1.661736E-04
3.598972E+03	5.977730E-03	1.653524E-04
3.608859E+03	5.949237E-03	1.645381E-04
3.618746E+03	5.921444E-03	1.637434E-04
3.628634E+03	5.894486E-03	1.629719E-04
3.638521E+03	5.868216E-03	1.622197E-04
3.648408E+03	5.842859E-03	1.614930E-04
3.658295E+03	5.818981E-03	1.608072E-04
3.668183E+03	5.796857E-03	1.601702E-04
3.678070E+03	5.776777E-03	1.595897E-04
3.687957E+03	5.758766E-03	1.590666E-04
3.697845E+03	5.743467E-03	1.586184E-04
3.707732E+03	5.731226E-03	1.582548E-04
3.717619E+03	5.722412E-03	1.579859E-04
3.727506E+03	5.717104E-03	1.578138E-04
3.737394E+03	5.716237E-03	1.577644E-04
3.747281E+03	5.719605E-03	1.578317E-04
3.757168E+03	5.727834E-03	1.580331E-04
3.767056E+03	5.741236E-03	1.583771E-04
3.776943E+03	5.760084E-03	1.588712E-04
3.786830E+03	5.784605E-03	1.595216E-04
3.796717E+03	5.814963E-03	1.603326E-04
3.806605E+03	5.851517E-03	1.613141E-04
3.816492E+03	5.893774E-03	1.624525E-04
3.826379E+03	5.941943E-03	1.637535E-04
3.836267E+03	5.995889E-03	1.652131E-04
3.846154E+03	6.055392E-03	1.668254E-04
3.856041E+03	6.120395E-03	1.685886E-04
3.865928E+03	6.189973E-03	1.704772E-04
3.875816E+03	6.263876E-03	1.724842E-04
3.885703E+03	6.341747E-03	1.745999E-04
3.895590E+03	6.422384E-03	1.767909E-04
3.905478E+03	6.505254E-03	1.790427E-04
3.915365E+03	6.589760E-03	1.813387E-04
3.925252E+03	6.674481E-03	1.836400E-04
3.935139E+03	6.758708E-03	1.859268E-04
3.945027E+03	6.841460E-03	1.881723E-04
3.954914E+03	6.921756E-03	1.903495E-04
3.964801E+03	6.998376E-03	1.924250E-04
3.974689E+03	7.070917E-03	1.943876E-04
3.984576E+03	7.138019E-03	1.962001E-04
3.994463E+03	7.199189E-03	1.978489E-04
4.004350E+03	7.253539E-03	1.993098E-04
4.014238E+03	7.300559E-03	2.005689E-04
4.024125E+03	7.340395E-03	2.016303E-04
4.034012E+03	7.372111E-03	2.024682E-04
4.043900E+03	7.396164E-03	2.030955E-04
4.053787E+03	7.412454E-03	2.035095E-04
4.063674E+03	7.421049E-03	2.037121E-04
4.073561E+03	7.422864E-03	2.037287E-04
4.083449E+03	7.418228E-03	2.035681E-04
4.093336E+03	7.407573E-03	2.032426E-04
4.103223E+03	7.391860E-03	2.027784E-04
4.113111E+03	7.371853E-03	2.021966E-04
4.122998E+03	7.348114E-03	2.015127E-04
4.132885E+03	7.321427E-03	2.007483E-04
4.142772E+03	7.292558E-03	1.999243E-04
4.152660E+03	7.262236E-03	1.990607E-04
4.162547E+03	7.231141E-03	1.981764E-04
4.172434E+03	7.199907E-03	1.972885E-04
4.182322E+03	7.168915E-03	1.964076E-04
4.192209E+03	7.138690E-03	1.955481E-04
4.202096E+03	7.109891E-03	1.947279E-04
4.211983E+03	7.082536E-03	1.939476E-04
4.221871E+03	7.057162E-03	1.932219E-04
4.231758E+03	7.034057E-03	1.925586E-04
4.241645E+03	7.013263E-03	1.919588E-04
4.251533E+03	6.995158E-03	1.914328E-04
4.261420E+03	6.979528E-03	1.909749E-04
4.271307E+03	6.966858E-03	1.905981E-04
4.281194E+03	6.956914E-03	1.902960E-04
4.291082E+03	6.949989E-03	1.900768E-04
4.300969E+03	6.946041E-03	1.899390E-04
4.310856E+03	6.945230E-03	1.898872E-04
4.320744E+03	6.947569E-03	1.899216E-04
4.330631E+03	6.953618E-03	1.900575E-04
4.340518E+03	6.963313E-03	1.902930E-04
4.350405E+03	6.977147E-03	1.906417E-04
4.360293E+03	6.995164E-03	1.911047E-04
4.370180E+03	7.018076E-03	1.917013E-04
4.380067E+03	7.045968E-03	1.924339E-04
4.389955E+03	7.079390E-03	1.933173E-04
4.399842E+03	7.118697E-03	1.943613E-04
4.409729E+03	7.164020E-03	1.955693E-04
4.419616E+03	7.215409E-03	1.969426E-04
4.429504E+03	7.273240E-03	1.984915E-04
4.439391E+03	7.337121E-03	2.002051E-04
4.449278E+03	7.406941E-03	2.020803E-04
4.459166E+03	7.482238E-03	2.041045E-04
4.469053E+03	7.562185E-03	2.062552E-04
4.478940E+03	7.645894E-03	2.085078E-04
4.488827E+03	7.732255E-03	2.108323E-04
4.498715E+03	7.819947E-03	2.131926E-04
4.508602E+03	7.907446E-03	2.155471E-04
4.518489E+03	7.992909E-03	2.178455E-04
4.528377E+03	8.074688E-03	2.200431E-04
4.538264E+03	8.150892E-03	2.220883E-04
4.548151E+03	8.219461E-03	2.239252E-04
4.558038E+03	8.278558E-03	2.255036E-04
4.567926E+03	8.326481E-03	2.267775E-04
4.577813E+03	8.361898E-03	2.277106E-04
4.587700E+03	8.383454E-03	2.282663E-04
4.597588E+03	8.390289E-03	2.284212E-04
4.607475E+03	8.381915E-03	2.281623E-04
4.617362E+03	8.358087E-03	2.274830E-04
4.627249E+03	8.319432E-03	2.264007E-04
4.637137E+03	8.266475E-03	2.249296E-04
4.647024E+03	8.200267E-03	2.230987E-04
4.656911E+03	8.121989E-03	2.209401E-04
4.666798E+03	8.033369E-03	2.185010E-04
4.676686E+03	7.936302E-03	2.158330E-04
4.686573E+03	7.832344E-03	2.129785E-04
4.696460E+03	7.723538E-03	2.099932E-04
4.706348E+03	7.611766E-03	2.069281E-04
4.716235E+03	7.498831E-03	2.038325E-04
4.726122E+03	7.386436E-03	2.007525E-04
4.736009E+03	7.276185E-03	1.977318E-04
4.745897E+03	7.169543E-03	1.948100E-04
4.755784E+03	7.067838E-03	1.920233E-04
4.765671E+03	6.972250E-03	1.894036E-04
4.775559E+03	6.883910E-03	1.869817E-04
4.785446E+03	6.803545E-03	1.847770E-04
4.795333E+03	6.731825E-03	1.828079E-04
4.805220E+03	6.669264E-03	1.810881E-04
4.815108E+03	6.616320E-03	1.796300E-04
4.824995E+03	6.573177E-03	1.784385E-04
4.834882E+03	6.539766E-03	1.775116E-04
4.844770E+03	6.516099E-03	1.768495E-04
4.854657E+03	6.501940E-03	1.764458E-04
4.864544E+03	6.496796E-03	1.762870E-04
4.874431E+03	6.500353E-03	1.763645E-04
4.884319E+03	6.511692E-03	1.766533E-04
4.894206E+03	6.530156E-03	1.771355E-04
4.904093E+03	6.554574E-03	1.777793E-04
4.913981E+03	6.583709E-03	1.785511E-04
4.923868E+03	6.616190E-03	1.794136E-04
4.933755E+03	6.650712E-03	1.803316E-04
4.943642E+03	6.685768E-03	1.812640E-04
4.953530E+03	6.720063E-03	1.821758E-04
4.963417E+03	6.752744E-03	1.830439E-04
4.973304E+03	6.782781E-03	1.838404E-04
4.983192E+03	6.809797E-03	1.845551E-04
4.993079E+03	6.833512E-03	1.851803E-04
5.002966E+03	6.854290E-03	1.857262E-04
5.012853E+03	6.872317E-03	1.861976E-04
5.022741E+03	6.888323E-03	1.866144E-04
5.032628E+03	6.903166E-03	1.869998E-04
5.042515E+03	6.917458E-03	1.873705E-04
5.052403E+03	6.932255E-03	1.877550E-04
5.062290E+03	6.948119E-03	1.881686E-04
5.072177E+03	6.965972E-03	1.886362E-04
5.082064E+03	6.986247E-03	1.891696E-04
5.091952E+03	7.009436E-03	1.897820E-04
5.101839E+03	7.035529E-03	1.904731E-04
5.111726E+03	7.064823E-03	1.912511E-04
5.121614E+03	7.097141E-03	1.921110E-04
5.131501E+03	7.132311E-03	1.930483E-04
5.141388E+03	7.170189E-03	1.940589E-04
5.151275E+03	7.210325E-03	1.951308E-04
5.161163E+03	7.252440E-03	1.962564E-04
5.171050E+03	7.295873E-03	1.974176E-04
5.180937E+03	7.340394E-03	1.986085E-04
5.190825E+03	7.385405E-03	1.998127E-04
5.200712E+03	7.430534E-03	2.010202E-04
5.210599E+03	7.475175E-03	2.022147E-04
5.220486E+03	7.518834E-03	2.033827E-04
5.230374E+03	7.561035E-03	2.045114E-04
5.240261E+03	7.601305E-03	2.055881E-04
5.250148E+03	7.639314E-03	2.066037E-04
5.260036E+03	7.674515E-03	2.075437E-04
5.269923E+03	7.706499E-03	2.083968E-04
5.279810E+03	7.734887E-03	2.091529E-04
5.289697E+03	7.759318E-03	2.098022E-04
5.299585E+03	7.779448E-03	2.103356E-04
5.309472E+03	7.795051E-03	2.107467E-04
5.319359E+03	7.805494E-03	2.110187E-04
5.329247E+03	7.810545E-03	2.111452E-04
5.339134E+03	7.809441E-03	2.111055E-04
5.349021E+03	7.801922E-03	2.108929E-04
5.358908E+03	7.787269E-03	2.104877E-04
5.368796E+03	7.765302E-03	2.098852E-04
5.378683E+03	7.735528E-03	2.090720E-04
5.388570E+03	7.697524E-03	2.080368E-04
5.398458E+03	7.651288E-03	2.067794E-04
5.408345E+03	7.596519E-03	2.052919E-04
5.418232E+03	7.533108E-03	2.035713E-04
5.428119E+03	7.461006E-03	2.016162E-04
5.438007E+03	7.380246E-03	1.994276E-04
5.447894E+03	7.290938E-03	1.970085E-04
5.457781E+03	7.193395E-03	1.943673E-04
5.467669E+03	7.087800E-03	1.915089E-04
5.477556E+03	6.974569E-03	1.884447E-04
5.487443E+03	6.854226E-03	1.851887E-04
5.497330E+03	6.727532E-03	1.817616E-04
5.507218E+03	6.595154E-03	1.781813E-04
5.517105E+03	6.457998E-03	1.744724E-04
5.526992E+03	6.317177E-03	1.706648E-04
5.536880E+03	6.173792E-03	1.667884E-04
5.546767E+03	6.028928E-03	1.628723E-04
5.556654E+03	5.883899E-03	1.589522E-04
5.566541E+03	5.739935E-03	1.550612E-04
5.576429E+03	5.598244E-03	1.512319E-04
5.586316E+03	5.459907E-03	1.474935E-04
5.596203E+03	5.326188E-03	1.438801E-04
5.606091E+03	5.198009E-03	1.404166E-04
5.615978E+03	5.076277E-03	1.371276E-04
5.625865E+03	4.961799E-03	1.340348E-04
5.635752E+03	4.855272E-03	1.311569E-04
5.645640E+03	4.757346E-03	1.285116E-04
5.655527E+03	4.668404E-03	1.261091E-04
5.665414E+03	4.588791E-03	1.239589E-04
5.675302E+03	4.518803E-03	1.220688E-04
5.685189E+03	4.458541E-03	1.204417E-04
5.695076E+03	4.407922E-03	1.190752E-04
5.704963E+03	4.366881E-03	1.179675E-04
5.714851E+03	4.335159E-03	1.171119E-04
5.724738E+03	4.312379E-03	1.164979E-04
5.734625E+03	4.297964E-03	1.161101E-04
5.744513E+03	4.291338E-03	1.159328E-04
5.754400E+03	4.291799E-03	1.159473E-04
5.764287E+03	4.298325E-03	1.161257E-04
5.774174E+03	4.309984E-03	1.164430E-04
5.784062E+03	4.325752E-03	1.168715E-04
5.793949E+03	4.344359E-03	1.173770E-04
5.803836E+03	4.364727E-03	1.179302E-04
5.813724E+03	4.385817E-03	1.185032E-04
5.823611E+03	4.406547E-03	1.190666E-04
5.833498E+03	4.426054E-03	1.195972E-04
5.843385E+03	4.443559E-03	1.200740E-04
5.853273E+03	4.458725E-03	1.204878E-04
5.863160E+03	4.470952E-03	1.208224E-04
5.873047E+03	4.480063E-03	1.210730E-04
5.882935E+03	4.486005E-03	1.212381E-04
5.892822E+03	4.488683E-03	1.213153E-04
5.902709E+03	4.488161E-03	1.213062E-04
5.912596E+03	4.484569E-03	1.212143E-04
5.922484E+03	4.478102E-03	1.210449E-04
5.932371E+03	4.469003E-03	1.208045E-04
5.942258E+03	4.457576E-03	1.205014E-04
5.952146E+03	4.444260E-03	1.201474E-04
5.962033E+03	4.429339E-03	1.197502E-04
5.971920E+03	4.413466E-03	1.193274E-04
5.981807E+03	4.397160E-03	1.188930E-04
5.991695E+03	4.381041E-03	1.184639E-04
6.001582E+03	4.366021E-03	1.180647E-04
6.011469E+03	4.352831E-03	1.177151E-04
6.021357E+03	4.342555E-03	1.174444E-04
6.031244E+03	4.336131E-03	1.172782E-04
6.041131E+03	4.334552E-03	1.172432E-04
6.051018E+03	4.338988E-03	1.173711E-04
6.060906E+03	4.350626E-03	1.176941E-04
6.070793E+03	4.370455E-03	1.182389E-04
6.080680E+03	4.399651E-03	1.190374E-04
6.090568E+03	4.439270E-03	1.201184E-04
6.100455E+03	4.490202E-03	1.215058E-04
6.110342E+03	4.553450E-03	1.232270E-04
6.120229E+03	4.629578E-03	1.252973E-04
6.130117E+03	4.719177E-03	1.277328E-04
6.140004E+03	4.822546E-03	1.305416E-04
6.149891E+03	4.939713E-03	1.337248E-04
6.159779E+03	5.070366E-03	1.372738E-04
6.169666E+03	5.213714E-03	1.411675E-04
6.179553E+03	5.368638E-03	1.453756E-04
6.189440E+03	5.533402E-03	1.498512E-04
6.199328E+03	5.705752E-03	1.545334E-04
6.209215E+03	5.882971E-03	1.593486E-04
6.219102E+03	6.061828E-03	1.642094E-04
6.228990E+03	6.239078E-03	1.690279E-04
6.238877E+03	6.410879E-03	1.737001E-04
6.248764E+03	6.573664E-03	1.781292E-04
6.258651E+03	6.723886E-03	1.822190E-04
6.268539E+03	6.858288E-03	1.858813E-04
6.278426E+03	6.974065E-03	1.890397E-04
6.288313E+03	7.068940E-03	1.916325E-04
6.298201E+03	7.141321E-03	1.936163E-04
6.308088E+03	7.189845E-03	1.949539E-04
6.317975E+03	7.214102E-03	1.956341E-04
6.327862E+03	7.214286E-03	1.956618E-04
6.337750E+03	7.190775E-03	1.950471E-04
6.347637E+03	7.144958E-03	1.938273E-04
6.357524E+03	7.078437E-03	1.920459E-04
6.367412E+03	6.992955E-03	1.897497E-04
6.377299E+03	6.891002E-03	1.870062E-04
6.387186E+03	6.774976E-03	1.838804E-04
6.397073E+03	6.647198E-03	1.804350E-04
6.406961E+03	6.510065E-03	1.767350E-04
6.416848E+03	6.365975E-03	1.728453E-04
6.426735E+03	6.217045E-03	1.688235E-04
6.436623E+03	6.065190E-03	1.647213E-04
6.446510E+03	5.912001E-03	1.605820E-04
6.456397E+03	5.759054E-03	1.564484E-04
6.466284E+03	5.607605E-03	1.523546E-04
6.476172E+03	5.458696E-03	1.483288E-04
6.486059E+03	5.313184E-03	1.443944E-04
6.495946E+03	5.171821E-03	1.405719E-04
6.505833E+03	5.034908E-03	1.368695E-04
6.515721E+03	4.902917E-03	1.332999E-04
6.525608E+03	4.775922E-03	1.298653E-04
6.535495E+03	4.653984E-03	1.265675E-04
6.545383E+03	4.537179E-03	1.234084E-04
6.555270E+03	4.425457E-03	1.203868E-04
6.565157E+03	4.318665E-03	1.174986E-04
6.575044E+03	4.216717E-03	1.147414E-04
6.584932E+03	4.119599E-03	1.121150E-04
6.594819E+03	4.027294E-03	1.096190E-04
6.604706E+03	3.939579E-03	1.072472E-04
6.614594E+03	3.856385E-03	1.049979E-04
6.624481E+03	3.777799E-03	1.028736E-04
6.634368E+03	3.703707E-03	1.008710E-04
6.644255E+03	3.634072E-03	9.898935E-05
6.654143E+03	3.568854E-03	9.722751E-05
6.664030E+03	3.508061E-03	9.558577E-05
6.673917E+03	3.451515E-03	9.405936E-05
6.683805E+03	3.399290E-03	9.265029E-05
6.693692E+03	3.351285E-03	9.135588E-05
6.703579E+03	3.307536E-03	9.017718E-05
6.713466E+03	3.267974E-03	8.911234E-05
6.723354E+03	3.232618E-03	8.816192E-05
6.733241E+03	3.201565E-03	8.732862E-05
6.743128E+03	3.174871E-03	8.661404E-05
6.753016E+03	3.152550E-03	8.601859E-05
6.762903E+03	3.134750E-03	8.554639E-05
6.772790E+03	3.121521E-03	8.519883E-05
6.782677E+03	3.113047E-03	8.498100E-05
6.792565E+03	3.109460E-03	8.489656E-05
6.802452E+03	3.110836E-03	8.494766E-05
6.812339E+03	3.117357E-03	8.513935E-05
6.822227E+03	3.129130E-03	8.547457E-05
6.832114E+03	3.146246E-03	8.595592E-05
6.842001E+03	3.168704E-03	8.658340E-05
6.851888E+03	3.196588E-03	8.735941E-05
6.861776E+03	3.229880E-03	8.828354E-05
6.871663E+03	3.268448E-03	8.935222E-05
6.881550E+03	3.312220E-03	9.056356E-05
6.891438E+03	3.361020E-03	9.191280E-05
6.901325E+03	3.414621E-03	9.339384E-05
6.911212E+03	3.472709E-03	9.499814E-05
6.921099E+03	3.535076E-03	9.672006E-05
6.930987E+03	3.601400E-03	9.855084E-05
6.940874E+03	3.671594E-03	1.004882E-04
6.950761E+03	3.745290E-03	1.025220E-04
6.960649E+03	3.822551E-03	1.046541E-04
6.970536E+03	3.903402E-03	1.068853E-04
6.980423E+03	3.987911E-03	1.092174E-04
6.990310E+03	4.076404E-03	1.116594E-04
7.000198E+03	4.169159E-03	1.142190E-04
7.010085E+03	4.266619E-03	1.169084E-04
7.019972E+03	4.369366E-03	1.197436E-04
7.029860E+03	4.477843E-03	1.227368E-04
7.039747E+03	4.592562E-03	1.259021E-04
7.049634E+03	4.713974E-03	1.292520E-04
7.059521E+03	4.842427E-03	1.327961E-04
7.069409E+03	4.978122E-03	1.365400E-04
7.079296E+03	5.121055E-03	1.404838E-04
7.089183E+03	5.270986E-03	1.446208E-04
7.099071E+03	5.427386E-03	1.489368E-04
7.108958E+03	5.589412E-03	1.534086E-04
7.118845E+03	5.755764E-03	1.580007E-04
7.128732E+03	5.924894E-03	1.626706E-04
7.138620E+03	6.095152E-03	1.673730E-04
7.148507E+03	6.264097E-03	1.720409E-04
7.158394E+03	6.429213E-03	1.766051E-04
7.168282E+03	6.587734E-03	1.809898E-04
7.178169E+03	6.736859E-03	1.851176E-04
7.188056E+03	6.873464E-03	1.889027E-04
7.197943E+03	6.994609E-03	1.922642E-04
7.207831E+03	7.097550E-03	1.951263E-04
7.217718E+03	7.179884E-03	1.974227E-04
7.227605E+03	7.239829E-03	1.991041E-04
7.237493E+03	7.275606E-03	2.001213E-04
7.247380E+03	7.286930E-03	2.004661E-04
7.257267E+03	7.273613E-03	2.001330E-04
7.267154E+03	7.236111E-03	1.991342E-04
7.277042E+03	7.175746E-03	1.975058E-04
7.286929E+03	7.094038E-03	1.952892E-04
7.296816E+03	6.993166E-03	1.925442E-04
7.306704E+03	6.875288E-03	1.893300E-04
7.316591E+03	6.742976E-03	1.857172E-04
7.326478E+03	6.598578E-03	1.817702E-04
7.336365E+03	6.444529E-03	1.775560E-04
7.346253E+03	6.283286E-03	1.731421E-04
7.356140E+03	6.116895E-03	1.685848E-04
7.366027E+03	5.947361E-03	1.639394E-04
7.375915E+03	5.776490E-03	1.592555E-04
7.385802E+03	5.606012E-03	1.545809E-04
7.395689E+03	5.437156E-03	1.499494E-04
7.405576E+03	5.271414E-03	1.454024E-04
7.415464E+03	5.109817E-03	1.409681E-04
7.425351E+03	4.953270E-03	1.366717E-04
7.435238E+03	4.802852E-03	1.325429E-04
7.445126E+03	4.659227E-03	1.286004E-04
7.455013E+03	4.523046E-03	1.248619E-04
7.464900E+03	4.394756E-03	1.213401E-04
7.474787E+03	4.274957E-03	1.180516E-04
7.484675E+03	4.163871E-03	1.150027E-04
7.494562E+03	4.061623E-03	1.121968E-04
7.504449E+03	3.968485E-03	1.096418E-04
7.514337E+03	3.884321E-03	1.073338E-04
7.524224E+03	3.809148E-03	1.052735E-04
7.534111E+03	3.742839E-03	1.034576E-04
7.543998E+03	3.685203E-03	1.018807E-04
7.553886E+03	3.635994E-03	1.005364E-04
7.563773E+03	3.594915E-03	9.941648E-05
7.573660E+03	3.561620E-03	9.851144E-05
7.583548E+03	3.535631E-03	9.780817E-05
7.593435E+03	3.516636E-03	9.729819E-05
7.603322E+03	3.503978E-03	9.696333E-05
7.613209E+03	3.497157E-03	9.678989E-05
7.623097E+03	3.495540E-03	9.676042E-05
7.632984E+03	3.498375E-03	9.685416E-05
7.642871E+03	3.505072E-03	9.705482E-05
7.652759E+03	3.514724E-03	9.733735E-05
7.662646E+03	3.526613E-03	9.768188E-05
7.672533E+03	3.539937E-03	9.806626E-05
