#wls	flux	fluxerr
1.581966E+03	5.305439E-03	2.584707E-04
1.621515E+03	5.429814E-03	2.644756E-04
1.661064E+03	5.554609E-03	2.704971E-04
1.700613E+03	5.680436E-03	2.765649E-04
1.740162E+03	5.804926E-03	2.825635E-04
1.779711E+03	5.929619E-03	2.885677E-04
1.819260E+03	6.053049E-03	2.945061E-04
1.858810E+03	6.175745E-03	3.004045E-04
1.898359E+03	6.296133E-03	3.061860E-04
1.937908E+03	6.415775E-03	3.119266E-04
1.977457E+03	6.533033E-03	3.175467E-04
2.017006E+03	6.647279E-03	3.230157E-04
2.056555E+03	6.757855E-03	3.283015E-04
2.096104E+03	6.866290E-03	3.334785E-04
2.135654E+03	6.970780E-03	3.384590E-04
2.175203E+03	7.070583E-03	3.432071E-04
2.214752E+03	7.164919E-03	3.476850E-04
2.254301E+03	7.255252E-03	3.519639E-04
2.293850E+03	7.339630E-03	3.559492E-04
2.333399E+03	7.417203E-03	3.595998E-04
2.372948E+03	7.489355E-03	3.629829E-04
2.412498E+03	7.554062E-03	3.660008E-04
2.452047E+03	7.610421E-03	3.686099E-04
2.491596E+03	7.660824E-03	3.709264E-04
2.531145E+03	7.702109E-03	3.727975E-04
2.570694E+03	7.734431E-03	3.742310E-04
2.610243E+03	7.758969E-03	3.752845E-04
2.649792E+03	7.773681E-03	3.758596E-04
2.689342E+03	7.778678E-03	3.759621E-04
2.728891E+03	7.774038E-03	3.755963E-04
2.768440E+03	7.760784E-03	3.748122E-04
2.807989E+03	7.736061E-03	3.734724E-04
2.847538E+03	7.702803E-03	3.717191E-04
2.887087E+03	7.659192E-03	3.694653E-04
2.926636E+03	7.605373E-03	3.667186E-04
2.966185E+03	7.542356E-03	3.635283E-04
2.976073E+03	7.525366E-03	3.626712E-04
2.985960E+03	7.507697E-03	3.617814E-04
2.995847E+03	7.489338E-03	3.608584E-04
3.005735E+03	7.470290E-03	3.599022E-04
3.015622E+03	7.451333E-03	3.589505E-04
3.025509E+03	7.430880E-03	3.579268E-04
3.035396E+03	7.410496E-03	3.569064E-04
3.045284E+03	7.389392E-03	3.558515E-04
3.055171E+03	7.368324E-03	3.547983E-04
3.065058E+03	7.346518E-03	3.537098E-04
3.074946E+03	7.323980E-03	3.525861E-04
3.084833E+03	7.300709E-03	3.514272E-04
3.094720E+03	7.277432E-03	3.502681E-04
3.104607E+03	7.253414E-03	3.490735E-04
3.114495E+03	7.229367E-03	3.478775E-04
3.124382E+03	7.204577E-03	3.466460E-04
3.134269E+03	7.179050E-03	3.453792E-04
3.144157E+03	7.153478E-03	3.441103E-04
3.154044E+03	7.127848E-03	3.428388E-04
3.163931E+03	7.101479E-03	3.415319E-04
3.173818E+03	7.074387E-03	3.401903E-04
3.183706E+03	7.047880E-03	3.388771E-04
3.193593E+03	7.020009E-03	3.374985E-04
3.203480E+03	6.992710E-03	3.361475E-04
3.213368E+03	6.964706E-03	3.347628E-04
3.223255E+03	6.936632E-03	3.333750E-04
3.233142E+03	6.908490E-03	3.319841E-04
3.243029E+03	6.879684E-03	3.305615E-04
3.252917E+03	6.850828E-03	3.291367E-04
3.262804E+03	6.821935E-03	3.277103E-04
3.272691E+03	6.793015E-03	3.262828E-04
3.282579E+03	6.764082E-03	3.248549E-04
3.292466E+03	6.734591E-03	3.234004E-04
3.302353E+03	6.705693E-03	3.219746E-04
3.312240E+03	6.676296E-03	3.205251E-04
3.322128E+03	6.647521E-03	3.191057E-04
3.332015E+03	6.618312E-03	3.176656E-04
3.341902E+03	6.589758E-03	3.162572E-04
3.351790E+03	6.561345E-03	3.148558E-04
3.361677E+03	6.532585E-03	3.134380E-04
3.371564E+03	6.504523E-03	3.120539E-04
3.381451E+03	6.476654E-03	3.106793E-04
3.391339E+03	6.449474E-03	3.093380E-04
3.401226E+03	6.422495E-03	3.080065E-04
3.411113E+03	6.395241E-03	3.066620E-04
3.421001E+03	6.369129E-03	3.053725E-04
3.430888E+03	6.342737E-03	3.040699E-04
3.440775E+03	6.316984E-03	3.027980E-04
3.450662E+03	6.291837E-03	3.015555E-04
3.460550E+03	6.266825E-03	3.003196E-04
3.470437E+03	6.241940E-03	2.990899E-04
3.480324E+03	6.217588E-03	2.978861E-04
3.490212E+03	6.193323E-03	2.966866E-04
3.500099E+03	6.169544E-03	2.955106E-04
3.509986E+03	6.146225E-03	2.943568E-04
3.519873E+03	6.122931E-03	2.932045E-04
3.529761E+03	6.100058E-03	2.920725E-04
3.539648E+03	6.077581E-03	2.909596E-04
3.549535E+03	6.055485E-03	2.898652E-04
3.559423E+03	6.033387E-03	2.887709E-04
3.569310E+03	6.011675E-03	2.876952E-04
3.579197E+03	5.990363E-03	2.866390E-04
3.589084E+03	5.969483E-03	2.856035E-04
3.598972E+03	5.949085E-03	2.845913E-04
3.608859E+03	5.928884E-03	2.835887E-04
3.618746E+03	5.909685E-03	2.826342E-04
3.628634E+03	5.891253E-03	2.817166E-04
3.638521E+03	5.873394E-03	2.808264E-04
3.648408E+03	5.856958E-03	2.800046E-04
3.658295E+03	5.841792E-03	2.792435E-04
3.668183E+03	5.828113E-03	2.785537E-04
3.678070E+03	5.816153E-03	2.779461E-04
3.687957E+03	5.806160E-03	2.774327E-04
3.697845E+03	5.798708E-03	2.770406E-04
3.707732E+03	5.793450E-03	2.767535E-04
3.717619E+03	5.791286E-03	2.766141E-04
3.727506E+03	5.792199E-03	2.766217E-04
3.737394E+03	5.796779E-03	2.768043E-04
3.747281E+03	5.805009E-03	2.771611E-04
3.757168E+03	5.816875E-03	2.776914E-04
3.767056E+03	5.833497E-03	2.784484E-04
3.776943E+03	5.854225E-03	2.794012E-04
3.786830E+03	5.879812E-03	2.805855E-04
3.796717E+03	5.910104E-03	2.819940E-04
3.806605E+03	5.945458E-03	2.836436E-04
3.816492E+03	5.985605E-03	2.855214E-04
3.826379E+03	6.030498E-03	2.876249E-04
3.836267E+03	6.080280E-03	2.899611E-04
3.846154E+03	6.134477E-03	2.925071E-04
3.856041E+03	6.192811E-03	2.952496E-04
3.865928E+03	6.254916E-03	2.981711E-04
3.875816E+03	6.320623E-03	3.012636E-04
3.885703E+03	6.389141E-03	3.044891E-04
3.895590E+03	6.460144E-03	3.078322E-04
3.905478E+03	6.532438E-03	3.112359E-04
3.915365E+03	6.605857E-03	3.146922E-04
3.925252E+03	6.679383E-03	3.181527E-04
3.935139E+03	6.752250E-03	3.215809E-04
3.945027E+03	6.823955E-03	3.249528E-04
3.954914E+03	6.893195E-03	3.282065E-04
3.964801E+03	6.959770E-03	3.313325E-04
3.974689E+03	7.022452E-03	3.342723E-04
3.984576E+03	7.080869E-03	3.370082E-04
3.994463E+03	7.134719E-03	3.395262E-04
4.004350E+03	7.182986E-03	3.417778E-04
4.014238E+03	7.225542E-03	3.437572E-04
4.024125E+03	7.261844E-03	3.454385E-04
4.034012E+03	7.292247E-03	3.468388E-04
4.043900E+03	7.316178E-03	3.479310E-04
4.053787E+03	7.333707E-03	3.487186E-04
4.063674E+03	7.345277E-03	3.492226E-04
4.073561E+03	7.350928E-03	3.494451E-04
4.083449E+03	7.351042E-03	3.494044E-04
4.093336E+03	7.346090E-03	3.491230E-04
4.103223E+03	7.336837E-03	3.486373E-04
4.113111E+03	7.323374E-03	3.479518E-04
4.122998E+03	7.306543E-03	3.471065E-04
4.132885E+03	7.286958E-03	3.461307E-04
4.142772E+03	7.265237E-03	3.450537E-04
4.152660E+03	7.241756E-03	3.438934E-04
4.162547E+03	7.217108E-03	3.426781E-04
4.172434E+03	7.192075E-03	3.414449E-04
4.182322E+03	7.166955E-03	3.402080E-04
4.192209E+03	7.142238E-03	3.389906E-04
4.202096E+03	7.118163E-03	3.378040E-04
4.211983E+03	7.095550E-03	3.366872E-04
4.221871E+03	7.074347E-03	3.356377E-04
4.231758E+03	7.054887E-03	3.346712E-04
4.241645E+03	7.037655E-03	3.338107E-04
4.251533E+03	7.022711E-03	3.330590E-04
4.261420E+03	7.010291E-03	3.324273E-04
4.271307E+03	7.000416E-03	3.319165E-04
4.281194E+03	6.993667E-03	3.315542E-04
4.291082E+03	6.989856E-03	3.313313E-04
4.300969E+03	6.989165E-03	3.312565E-04
4.310856E+03	6.991970E-03	3.313475E-04
4.320744E+03	6.998268E-03	3.316040E-04
4.330631E+03	7.008248E-03	3.320351E-04
4.340518E+03	7.022102E-03	3.326497E-04
4.350405E+03	7.039848E-03	3.334486E-04
4.360293E+03	7.061858E-03	3.344494E-04
4.370180E+03	7.088135E-03	3.356522E-04
4.380067E+03	7.119022E-03	3.370730E-04
4.389955E+03	7.154477E-03	3.387100E-04
4.399842E+03	7.194413E-03	3.405587E-04
4.409729E+03	7.239211E-03	3.426373E-04
4.419616E+03	7.288475E-03	3.449269E-04
4.429504E+03	7.342239E-03	3.474290E-04
4.439391E+03	7.400081E-03	3.501237E-04
4.449278E+03	7.461803E-03	3.530014E-04
4.459166E+03	7.526548E-03	3.560215E-04
4.469053E+03	7.594015E-03	3.591699E-04
4.478940E+03	7.663235E-03	3.624006E-04
4.488827E+03	7.733264E-03	3.656690E-04
4.498715E+03	7.802857E-03	3.689161E-04
4.508602E+03	7.871169E-03	3.721022E-04
4.518489E+03	7.936394E-03	3.751417E-04
4.528377E+03	7.997714E-03	3.779963E-04
4.538264E+03	8.053244E-03	3.805767E-04
4.548151E+03	8.101997E-03	3.828365E-04
4.558038E+03	8.142708E-03	3.847161E-04
4.567926E+03	8.173882E-03	3.861450E-04
4.577813E+03	8.194888E-03	3.870934E-04
4.587700E+03	8.204778E-03	3.875169E-04
4.597588E+03	8.203010E-03	3.873899E-04
4.607475E+03	8.189138E-03	3.866917E-04
4.617362E+03	8.163504E-03	3.854385E-04
4.627249E+03	8.126201E-03	3.836350E-04
4.637137E+03	8.077601E-03	3.812989E-04
4.647024E+03	8.018813E-03	3.784827E-04
4.656911E+03	7.950502E-03	3.752179E-04
4.666798E+03	7.874004E-03	3.715677E-04
4.676686E+03	7.790622E-03	3.675938E-04
4.686573E+03	7.701744E-03	3.633617E-04
4.696460E+03	7.608815E-03	3.589397E-04
4.706348E+03	7.513122E-03	3.543885E-04
4.716235E+03	7.416372E-03	3.497886E-04
4.726122E+03	7.319621E-03	3.451899E-04
4.736009E+03	7.224284E-03	3.406591E-04
4.745897E+03	7.131541E-03	3.362517E-04
4.755784E+03	7.042461E-03	3.320182E-04
4.765671E+03	6.957869E-03	3.279974E-04
4.775559E+03	6.878879E-03	3.242417E-04
4.785446E+03	6.806077E-03	3.207786E-04
4.795333E+03	6.740066E-03	3.176365E-04
4.805220E+03	6.681195E-03	3.148317E-04
4.815108E+03	6.630079E-03	3.123930E-04
4.824995E+03	6.586947E-03	3.103313E-04
4.834882E+03	6.551663E-03	3.086398E-04
4.844770E+03	6.524454E-03	3.073293E-04
4.854657E+03	6.505051E-03	3.063870E-04
4.864544E+03	6.493177E-03	3.057996E-04
4.874431E+03	6.488540E-03	3.055534E-04
4.884319E+03	6.490484E-03	3.056174E-04
4.894206E+03	6.498470E-03	3.059660E-04
4.904093E+03	6.511618E-03	3.065579E-04
4.913981E+03	6.529215E-03	3.073594E-04
4.923868E+03	6.550369E-03	3.083284E-04
4.933755E+03	6.574055E-03	3.094166E-04
4.943642E+03	6.599515E-03	3.105884E-04
4.953530E+03	6.625931E-03	3.118053E-04
4.963417E+03	6.652589E-03	3.130336E-04
4.973304E+03	6.678916E-03	3.142464E-04
4.983192E+03	6.704367E-03	3.154180E-04
4.993079E+03	6.728942E-03	3.165485E-04
5.002966E+03	6.752450E-03	3.176289E-04
5.012853E+03	6.774851E-03	3.186574E-04
5.022741E+03	6.796607E-03	3.196555E-04
5.032628E+03	6.818039E-03	3.206386E-04
5.042515E+03	6.839286E-03	3.216132E-04
5.052403E+03	6.860893E-03	3.226048E-04
5.062290E+03	6.883391E-03	3.236384E-04
5.072177E+03	6.907044E-03	3.247264E-04
5.082064E+03	6.932301E-03	3.258900E-04
5.091952E+03	6.959173E-03	3.271297E-04
5.101839E+03	6.988201E-03	3.284707E-04
5.111726E+03	7.019106E-03	3.299002E-04
5.121614E+03	7.052139E-03	3.314297E-04
5.131501E+03	7.087100E-03	3.330500E-04
5.141388E+03	7.123968E-03	3.347599E-04
5.151275E+03	7.162411E-03	3.365440E-04
5.161163E+03	7.202162E-03	3.383896E-04
5.171050E+03	7.243041E-03	3.402882E-04
5.180937E+03	7.284700E-03	3.422236E-04
5.190825E+03	7.326640E-03	3.441724E-04
5.200712E+03	7.368464E-03	3.461157E-04
5.210599E+03	7.409892E-03	3.480406E-04
5.220486E+03	7.450374E-03	3.499211E-04
5.230374E+03	7.489610E-03	3.517433E-04
5.240261E+03	7.527054E-03	3.534814E-04
5.250148E+03	7.562274E-03	3.551153E-04
5.260036E+03	7.594990E-03	3.566318E-04
5.269923E+03	7.624655E-03	3.580053E-04
5.279810E+03	7.651002E-03	3.592232E-04
5.289697E+03	7.673491E-03	3.602602E-04
5.299585E+03	7.691856E-03	3.611039E-04
5.309472E+03	7.705553E-03	3.617288E-04
5.319359E+03	7.714299E-03	3.621215E-04
5.329247E+03	7.717521E-03	3.622554E-04
5.339134E+03	7.714777E-03	3.621095E-04
5.349021E+03	7.705759E-03	3.616696E-04
5.358908E+03	7.689923E-03	3.609102E-04
5.368796E+03	7.667015E-03	3.598193E-04
5.378683E+03	7.636568E-03	3.583750E-04
5.388570E+03	7.598291E-03	3.565639E-04
5.398458E+03	7.552089E-03	3.543814E-04
5.408345E+03	7.497796E-03	3.518197E-04
5.418232E+03	7.435198E-03	3.488689E-04
5.428119E+03	7.364406E-03	3.455344E-04
5.438007E+03	7.285371E-03	3.418136E-04
5.447894E+03	7.198379E-03	3.377201E-04
5.457781E+03	7.103563E-03	3.332603E-04
5.467669E+03	7.001408E-03	3.284568E-04
5.477556E+03	6.892369E-03	3.233310E-04
5.487443E+03	6.776895E-03	3.179040E-04
5.497330E+03	6.655768E-03	3.122125E-04
5.507218E+03	6.529750E-03	3.062922E-04
5.517105E+03	6.399688E-03	3.001830E-04
5.526992E+03	6.266509E-03	2.939281E-04
5.536880E+03	6.131101E-03	2.875694E-04
5.546767E+03	5.994719E-03	2.811656E-04
5.556654E+03	5.858234E-03	2.747576E-04
5.566541E+03	5.722937E-03	2.684059E-04
5.576429E+03	5.589703E-03	2.621514E-04
5.586316E+03	5.459769E-03	2.560523E-04
5.596203E+03	5.334011E-03	2.501496E-04
5.606091E+03	5.213328E-03	2.444854E-04
5.615978E+03	5.098602E-03	2.391010E-04
5.625865E+03	4.990431E-03	2.340244E-04
5.635752E+03	4.889383E-03	2.292822E-04
5.645640E+03	4.795991E-03	2.248994E-04
5.655527E+03	4.710502E-03	2.208877E-04
5.665414E+03	4.633226E-03	2.172613E-04
5.675302E+03	4.564192E-03	2.140218E-04
5.685189E+03	4.503491E-03	2.111733E-04
5.695076E+03	4.451037E-03	2.087118E-04
5.704963E+03	4.406573E-03	2.066252E-04
5.714851E+03	4.369900E-03	2.049042E-04
5.724738E+03	4.340651E-03	2.035315E-04
5.734625E+03	4.318378E-03	2.024862E-04
5.744513E+03	4.302472E-03	2.017397E-04
5.754400E+03	4.292470E-03	2.012702E-04
5.764287E+03	4.287554E-03	2.010394E-04
5.774174E+03	4.287145E-03	2.010202E-04
5.784062E+03	4.290331E-03	2.011698E-04
5.793949E+03	4.296404E-03	2.014549E-04
5.803836E+03	4.304668E-03	2.018431E-04
5.813724E+03	4.314228E-03	2.022922E-04
5.823611E+03	4.324529E-03	2.027763E-04
5.833498E+03	4.334798E-03	2.032592E-04
5.843385E+03	4.344634E-03	2.037220E-04
5.853273E+03	4.353510E-03	2.041400E-04
5.863160E+03	4.361074E-03	2.044967E-04
5.873047E+03	4.367069E-03	2.047802E-04
5.882935E+03	4.371339E-03	2.049829E-04
5.892822E+03	4.373816E-03	2.051019E-04
5.902709E+03	4.374596E-03	2.051415E-04
5.912596E+03	4.373694E-03	2.051025E-04
5.922484E+03	4.371201E-03	2.049891E-04
5.932371E+03	4.367507E-03	2.048196E-04
5.942258E+03	4.362829E-03	2.046043E-04
5.952146E+03	4.357603E-03	2.043635E-04
5.962033E+03	4.352102E-03	2.041100E-04
5.971920E+03	4.346958E-03	2.038735E-04
5.981807E+03	4.342570E-03	2.036727E-04
5.991695E+03	4.339697E-03	2.035432E-04
6.001582E+03	4.338932E-03	2.035129E-04
6.011469E+03	4.340996E-03	2.036155E-04
6.021357E+03	4.346659E-03	2.038872E-04
6.031244E+03	4.356731E-03	2.043659E-04
6.041131E+03	4.372127E-03	2.050948E-04
6.051018E+03	4.393543E-03	2.061063E-04
6.060906E+03	4.421985E-03	2.074478E-04
6.070793E+03	4.458211E-03	2.091549E-04
6.080680E+03	4.502931E-03	2.112608E-04
6.090568E+03	4.557038E-03	2.138076E-04
6.100455E+03	4.621091E-03	2.168216E-04
6.110342E+03	4.695619E-03	2.203277E-04
6.120229E+03	4.781087E-03	2.243476E-04
6.130117E+03	4.877533E-03	2.288834E-04
6.140004E+03	4.985035E-03	2.339388E-04
6.149891E+03	5.103439E-03	2.395066E-04
6.159779E+03	5.232034E-03	2.455536E-04
6.169666E+03	5.370155E-03	2.520485E-04
6.179553E+03	5.516416E-03	2.589266E-04
6.189440E+03	5.669461E-03	2.661241E-04
6.199328E+03	5.827268E-03	2.735463E-04
6.209215E+03	5.987569E-03	2.810868E-04
6.219102E+03	6.147920E-03	2.886307E-04
6.228990E+03	6.305298E-03	2.960363E-04
6.238877E+03	6.457004E-03	3.031768E-04
6.248764E+03	6.599961E-03	3.099078E-04
6.258651E+03	6.731298E-03	3.160942E-04
6.268539E+03	6.848469E-03	3.216166E-04
6.278426E+03	6.948864E-03	3.263521E-04
6.288313E+03	7.030783E-03	3.302208E-04
6.298201E+03	7.092730E-03	3.331522E-04
6.308088E+03	7.133454E-03	3.350876E-04
6.317975E+03	7.152869E-03	3.360225E-04
6.327862E+03	7.150617E-03	3.359400E-04
6.337750E+03	7.127470E-03	3.348760E-04
6.347637E+03	7.084369E-03	3.328747E-04
6.357524E+03	7.022493E-03	3.299912E-04
6.367412E+03	6.943448E-03	3.263008E-04
6.377299E+03	6.849323E-03	3.219014E-04
6.387186E+03	6.741701E-03	3.168673E-04
6.397073E+03	6.623005E-03	3.113123E-04
6.406961E+03	6.495024E-03	3.053202E-04
6.416848E+03	6.359874E-03	2.989904E-04
6.426735E+03	6.219443E-03	2.924116E-04
6.436623E+03	6.075488E-03	2.856663E-04
6.446510E+03	5.929605E-03	2.788295E-04
6.456397E+03	5.783101E-03	2.719627E-04
6.466284E+03	5.637434E-03	2.651343E-04
6.476172E+03	5.493531E-03	2.583880E-04
6.486059E+03	5.352250E-03	2.517641E-04
6.495946E+03	5.214263E-03	2.452943E-04
6.505833E+03	5.080080E-03	2.390024E-04
6.515721E+03	4.950058E-03	2.329055E-04
6.525608E+03	4.824533E-03	2.270194E-04
6.535495E+03	4.703552E-03	2.213461E-04
6.545383E+03	4.587278E-03	2.158936E-04
6.555270E+03	4.475559E-03	2.106547E-04
6.565157E+03	4.368656E-03	2.056416E-04
6.575044E+03	4.266369E-03	2.008451E-04
6.584932E+03	4.168676E-03	1.962641E-04
6.594819E+03	4.075702E-03	1.919046E-04
6.604706E+03	3.987252E-03	1.877575E-04
6.614594E+03	3.903305E-03	1.838218E-04
6.624481E+03	3.823981E-03	1.801032E-04
6.634368E+03	3.749102E-03	1.765933E-04
6.644255E+03	3.678714E-03	1.732945E-04
6.654143E+03	3.612788E-03	1.702054E-04
6.664030E+03	3.551290E-03	1.673243E-04
6.673917E+03	3.494117E-03	1.646467E-04
6.683805E+03	3.441383E-03	1.621778E-04
6.693692E+03	3.392998E-03	1.599134E-04
6.703579E+03	3.348943E-03	1.578528E-04
6.713466E+03	3.309227E-03	1.559964E-04
6.723354E+03	3.273857E-03	1.543446E-04
6.733241E+03	3.242928E-03	1.529020E-04
6.743128E+03	3.216356E-03	1.516646E-04
6.753016E+03	3.194323E-03	1.506410E-04
6.762903E+03	3.176837E-03	1.498318E-04
6.772790E+03	3.163977E-03	1.492407E-04
6.782677E+03	3.155896E-03	1.488750E-04
6.792565E+03	3.152563E-03	1.487333E-04
6.802452E+03	3.154198E-03	1.488260E-04
6.812339E+03	3.160886E-03	1.491573E-04
6.822227E+03	3.172581E-03	1.497250E-04
6.832114E+03	3.189470E-03	1.505380E-04
6.842001E+03	3.211528E-03	1.515953E-04
6.851888E+03	3.238841E-03	1.529009E-04
6.861776E+03	3.271331E-03	1.544513E-04
6.871663E+03	3.308948E-03	1.562442E-04
6.881550E+03	3.351614E-03	1.582760E-04
6.891438E+03	3.399287E-03	1.605447E-04
6.901325E+03	3.451758E-03	1.630407E-04
6.911212E+03	3.508862E-03	1.657561E-04
6.921099E+03	3.570504E-03	1.686865E-04
6.930987E+03	3.636370E-03	1.718172E-04
6.940874E+03	3.706468E-03	1.751487E-04
6.950761E+03	3.780626E-03	1.786729E-04
6.960649E+03	3.858803E-03	1.823878E-04
6.970536E+03	3.941037E-03	1.862955E-04
6.980423E+03	4.027540E-03	1.904058E-04
6.990310E+03	4.118360E-03	1.947213E-04
7.000198E+03	4.213873E-03	1.992597E-04
7.010085E+03	4.314526E-03	2.040423E-04
7.019972E+03	4.420539E-03	2.090795E-04
7.029860E+03	4.532397E-03	2.143944E-04
7.039747E+03	4.650567E-03	2.200093E-04
7.049634E+03	4.775149E-03	2.259288E-04
7.059521E+03	4.906329E-03	2.321620E-04
7.069409E+03	5.044338E-03	2.387198E-04
7.079296E+03	5.188815E-03	2.455853E-04
7.089183E+03	5.339488E-03	2.527458E-04
7.099071E+03	5.495604E-03	2.601657E-04
7.108958E+03	5.656351E-03	2.678065E-04
7.118845E+03	5.820384E-03	2.756049E-04
7.128732E+03	5.986275E-03	2.834931E-04
7.138620E+03	6.152033E-03	2.913770E-04
7.148507E+03	6.315606E-03	2.991592E-04
7.158394E+03	6.474409E-03	3.067174E-04
7.168282E+03	6.625751E-03	3.139239E-04
7.178169E+03	6.766790E-03	3.206439E-04
7.188056E+03	6.894790E-03	3.267477E-04
7.197943E+03	7.006667E-03	3.320889E-04
7.207831E+03	7.100142E-03	3.365591E-04
7.217718E+03	7.172730E-03	3.400402E-04
7.227605E+03	7.223032E-03	3.424656E-04
7.237493E+03	7.249630E-03	3.437676E-04
7.247380E+03	7.252199E-03	3.439304E-04
7.257267E+03	7.230893E-03	3.429610E-04
7.267154E+03	7.186459E-03	3.408943E-04
7.277042E+03	7.120027E-03	3.377836E-04
7.286929E+03	7.033472E-03	3.337174E-04
7.296816E+03	6.928839E-03	3.287925E-04
7.306704E+03	6.808252E-03	3.231093E-04
7.316591E+03	6.674249E-03	3.167880E-04
7.326478E+03	6.529100E-03	3.099361E-04
7.336365E+03	6.375307E-03	3.026722E-04
7.346253E+03	6.214978E-03	2.950963E-04
7.356140E+03	6.050342E-03	2.873141E-04
7.366027E+03	5.883054E-03	2.794040E-04
7.375915E+03	5.715223E-03	2.714664E-04
7.385802E+03	5.548015E-03	2.635564E-04
7.395689E+03	5.383033E-03	2.557503E-04
7.405576E+03	5.221353E-03	2.480992E-04
7.415464E+03	5.064023E-03	2.406530E-04
7.425351E+03	4.912050E-03	2.334596E-04
7.435238E+03	4.765996E-03	2.265458E-04
7.445126E+03	4.626717E-03	2.199525E-04
7.455013E+03	4.494642E-03	2.137000E-04
7.464900E+03	4.370194E-03	2.078088E-04
7.474787E+03	4.253690E-03	2.022939E-04
7.484675E+03	4.145353E-03	1.971660E-04
7.494562E+03	4.045306E-03	1.924313E-04
7.504449E+03	3.953591E-03	1.880918E-04
7.514337E+03	3.870270E-03	1.841507E-04
7.524224E+03	3.795077E-03	1.805953E-04
7.534111E+03	3.727952E-03	1.774231E-04
7.543998E+03	3.668779E-03	1.746286E-04
7.553886E+03	3.617159E-03	1.721929E-04
7.563773E+03	3.572888E-03	1.701066E-04
7.573660E+03	3.535647E-03	1.683545E-04
7.583548E+03	3.505145E-03	1.669228E-04
7.593435E+03	3.480823E-03	1.657852E-04
7.603322E+03	3.462304E-03	1.649237E-04
7.613209E+03	3.449018E-03	1.643112E-04
7.623097E+03	3.440579E-03	1.639296E-04
7.632984E+03	3.436340E-03	1.637480E-04
7.642871E+03	3.435696E-03	1.637377E-04
7.652759E+03	3.437941E-03	1.638651E-04
7.662646E+03	3.442515E-03	1.641035E-04
7.672533E+03	3.448766E-03	1.644219E-04
