#wls	flux	fluxerr
1.581966E+03	2.404680E-03	6.385488E-05
1.621515E+03	2.459516E-03	6.530934E-05
1.661064E+03	2.515048E-03	6.678214E-05
1.700613E+03	2.571210E-03	6.827156E-05
1.740162E+03	2.627931E-03	6.977569E-05
1.779711E+03	2.685139E-03	7.129261E-05
1.819260E+03	2.742745E-03	7.281995E-05
1.858810E+03	2.800188E-03	7.434286E-05
1.898359E+03	2.858317E-03	7.588378E-05
1.937908E+03	2.916567E-03	7.742780E-05
1.977457E+03	2.974833E-03	7.897207E-05
2.017006E+03	3.033510E-03	8.052708E-05
2.056555E+03	3.091480E-03	8.206320E-05
2.096104E+03	3.149649E-03	8.360438E-05
2.135654E+03	3.207385E-03	8.513391E-05
2.175203E+03	3.265100E-03	8.666270E-05
2.214752E+03	3.321601E-03	8.815910E-05
2.254301E+03	3.378391E-03	8.966297E-05
2.293850E+03	3.434262E-03	9.114226E-05
2.333399E+03	3.489088E-03	9.259363E-05
2.372948E+03	3.543870E-03	9.404363E-05
2.412498E+03	3.596798E-03	9.544422E-05
2.452047E+03	3.649458E-03	9.683750E-05
2.491596E+03	3.700599E-03	9.819028E-05
2.531145E+03	3.751264E-03	9.953021E-05
2.570694E+03	3.800190E-03	1.008238E-04
2.610243E+03	3.847858E-03	1.020838E-04
2.649792E+03	3.894172E-03	1.033076E-04
2.689342E+03	3.939046E-03	1.044931E-04
2.728891E+03	3.982396E-03	1.056379E-04
2.768440E+03	4.024148E-03	1.067401E-04
2.807989E+03	4.064828E-03	1.078136E-04
2.847538E+03	4.103775E-03	1.088410E-04
2.887087E+03	4.140932E-03	1.098207E-04
2.926636E+03	4.176250E-03	1.107514E-04
2.966185E+03	4.209683E-03	1.116319E-04
2.976073E+03	4.218151E-03	1.118549E-04
2.985960E+03	4.226423E-03	1.120727E-04
2.995847E+03	4.233907E-03	1.122696E-04
3.005735E+03	4.241786E-03	1.124770E-04
3.015622E+03	4.250064E-03	1.126949E-04
3.025509E+03	4.257550E-03	1.128918E-04
3.035396E+03	4.264835E-03	1.130834E-04
3.045284E+03	4.272519E-03	1.132855E-04
3.055171E+03	4.279412E-03	1.134666E-04
3.065058E+03	4.286695E-03	1.136581E-04
3.074946E+03	4.293780E-03	1.138443E-04
3.084833E+03	4.301258E-03	1.140409E-04
3.094720E+03	4.307942E-03	1.142165E-04
3.104607E+03	4.314429E-03	1.143868E-04
3.114495E+03	4.321303E-03	1.145673E-04
3.124382E+03	4.327974E-03	1.147425E-04
3.134269E+03	4.334447E-03	1.149124E-04
3.144157E+03	4.340718E-03	1.150769E-04
3.154044E+03	4.346785E-03	1.152361E-04
3.163931E+03	4.352654E-03	1.153899E-04
3.173818E+03	4.358904E-03	1.155539E-04
3.183706E+03	4.364369E-03	1.156970E-04
3.193593E+03	4.370215E-03	1.158502E-04
3.203480E+03	4.375861E-03	1.159981E-04
3.213368E+03	4.381303E-03	1.161406E-04
3.223255E+03	4.387125E-03	1.162931E-04
3.233142E+03	4.392164E-03	1.164249E-04
3.243029E+03	4.397580E-03	1.165667E-04
3.252917E+03	4.402218E-03	1.166878E-04
3.262804E+03	4.407233E-03	1.168189E-04
3.272691E+03	4.412046E-03	1.169446E-04
3.282579E+03	4.416657E-03	1.170650E-04
3.292466E+03	4.421644E-03	1.171954E-04
3.302353E+03	4.425855E-03	1.173051E-04
3.312240E+03	4.430441E-03	1.174248E-04
3.322128E+03	4.434826E-03	1.175391E-04
3.332015E+03	4.438446E-03	1.176332E-04
3.341902E+03	4.442435E-03	1.177370E-04
3.351790E+03	4.446797E-03	1.178507E-04
3.361677E+03	4.450396E-03	1.179442E-04
3.371564E+03	4.454365E-03	1.180474E-04
3.381451E+03	4.457576E-03	1.181306E-04
3.391339E+03	4.461157E-03	1.182236E-04
3.401226E+03	4.464548E-03	1.183115E-04
3.411113E+03	4.467748E-03	1.183944E-04
3.421001E+03	4.470764E-03	1.184723E-04
3.430888E+03	4.473590E-03	1.185452E-04
3.440775E+03	4.476791E-03	1.186281E-04
3.450662E+03	4.479807E-03	1.187060E-04
3.460550E+03	4.482088E-03	1.187645E-04
3.470437E+03	4.484745E-03	1.188329E-04
3.480324E+03	4.487227E-03	1.188966E-04
3.490212E+03	4.489538E-03	1.189558E-04
3.500099E+03	4.492223E-03	1.190249E-04
3.509986E+03	4.494195E-03	1.190752E-04
3.519873E+03	4.496547E-03	1.191354E-04
3.529761E+03	4.498196E-03	1.191771E-04
3.539648E+03	4.500230E-03	1.192289E-04
3.549535E+03	4.502111E-03	1.192767E-04
3.559423E+03	4.503841E-03	1.193205E-04
3.569310E+03	4.505427E-03	1.193604E-04
3.579197E+03	4.506876E-03	1.193967E-04
3.589084E+03	4.508720E-03	1.194435E-04
3.598972E+03	4.509903E-03	1.194727E-04
3.608859E+03	4.511490E-03	1.195127E-04
3.618746E+03	4.512956E-03	1.195494E-04
3.628634E+03	4.514309E-03	1.195831E-04
3.638521E+03	4.515549E-03	1.196138E-04
3.648408E+03	4.516690E-03	1.196419E-04
3.658295E+03	4.517735E-03	1.196675E-04
3.668183E+03	4.518689E-03	1.196906E-04
3.678070E+03	4.519565E-03	1.197117E-04
3.687957E+03	4.520883E-03	1.197444E-04
3.697845E+03	4.522134E-03	1.197754E-04
3.707732E+03	4.522806E-03	1.197910E-04
3.717619E+03	4.523942E-03	1.198190E-04
3.727506E+03	4.525034E-03	1.198457E-04
3.737394E+03	4.526092E-03	1.198715E-04
3.747281E+03	4.527121E-03	1.198966E-04
3.757168E+03	4.528130E-03	1.199211E-04
3.767056E+03	4.529133E-03	1.199455E-04
3.776943E+03	4.530639E-03	1.199831E-04
3.786830E+03	4.531647E-03	1.200076E-04
3.796717E+03	4.532676E-03	1.200327E-04
3.806605E+03	4.534234E-03	1.200717E-04
3.816492E+03	4.535328E-03	1.200984E-04
3.826379E+03	4.536966E-03	1.201396E-04
3.836267E+03	4.538659E-03	1.201822E-04
3.846154E+03	4.540419E-03	1.202265E-04
3.856041E+03	4.541758E-03	1.202597E-04
3.865928E+03	4.543677E-03	1.203083E-04
3.875816E+03	4.545693E-03	1.203594E-04
3.885703E+03	4.547810E-03	1.204132E-04
3.895590E+03	4.550041E-03	1.204700E-04
3.905478E+03	4.552395E-03	1.205300E-04
3.915365E+03	4.555369E-03	1.206065E-04
3.925252E+03	4.557996E-03	1.206737E-04
3.935139E+03	4.560774E-03	1.207450E-04
3.945027E+03	4.563711E-03	1.208204E-04
3.954914E+03	4.566819E-03	1.209004E-04
3.964801E+03	4.570584E-03	1.209978E-04
3.974689E+03	4.574051E-03	1.210873E-04
3.984576E+03	4.577714E-03	1.211819E-04
3.994463E+03	4.582054E-03	1.212945E-04
4.004350E+03	4.586128E-03	1.214000E-04
4.014238E+03	4.590418E-03	1.215112E-04
4.024125E+03	4.595403E-03	1.216408E-04
4.034012E+03	4.600146E-03	1.217640E-04
4.043900E+03	4.605595E-03	1.219059E-04
4.053787E+03	4.610814E-03	1.220417E-04
4.063674E+03	4.616278E-03	1.221839E-04
4.073561E+03	4.622465E-03	1.223453E-04
4.083449E+03	4.628434E-03	1.225009E-04
4.093336E+03	4.634663E-03	1.226634E-04
4.103223E+03	4.641619E-03	1.228451E-04
4.113111E+03	4.648368E-03	1.230213E-04
4.122998E+03	4.655381E-03	1.232045E-04
4.132885E+03	4.662656E-03	1.233946E-04
4.142772E+03	4.670655E-03	1.236039E-04
4.152660E+03	4.678450E-03	1.238078E-04
4.162547E+03	4.686499E-03	1.240183E-04
4.172434E+03	4.694799E-03	1.242356E-04
4.182322E+03	4.703345E-03	1.244592E-04
4.192209E+03	4.712132E-03	1.246893E-04
4.202096E+03	4.721148E-03	1.249255E-04
4.211983E+03	4.730391E-03	1.251676E-04
4.221871E+03	4.739845E-03	1.254153E-04
4.231758E+03	4.749046E-03	1.256563E-04
4.241645E+03	4.758900E-03	1.259145E-04
4.251533E+03	4.768936E-03	1.261776E-04
4.261420E+03	4.778686E-03	1.264331E-04
4.271307E+03	4.789053E-03	1.267049E-04
4.281194E+03	4.799111E-03	1.269685E-04
4.291082E+03	4.809303E-03	1.272356E-04
4.300969E+03	4.819620E-03	1.275061E-04
4.310856E+03	4.830050E-03	1.277795E-04
4.320744E+03	4.840585E-03	1.280557E-04
4.330631E+03	4.851212E-03	1.283343E-04
4.340518E+03	4.861923E-03	1.286151E-04
4.350405E+03	4.872711E-03	1.288979E-04
4.360293E+03	4.883106E-03	1.291704E-04
4.370180E+03	4.894019E-03	1.294565E-04
4.380067E+03	4.904524E-03	1.297319E-04
4.389955E+03	4.915075E-03	1.300084E-04
4.399842E+03	4.925660E-03	1.302858E-04
4.409729E+03	4.936273E-03	1.305640E-04
4.419616E+03	4.946905E-03	1.308427E-04
4.429504E+03	4.957542E-03	1.311214E-04
4.439391E+03	4.968176E-03	1.314002E-04
4.449278E+03	4.978340E-03	1.316664E-04
4.459166E+03	4.988472E-03	1.319318E-04
4.469053E+03	4.998559E-03	1.321960E-04
4.478940E+03	5.008582E-03	1.324585E-04
4.488827E+03	5.018523E-03	1.327188E-04
4.498715E+03	5.028364E-03	1.329765E-04
4.508602E+03	5.038079E-03	1.332308E-04
4.518489E+03	5.047193E-03	1.334693E-04
4.528377E+03	5.056132E-03	1.337031E-04
4.538264E+03	5.064877E-03	1.339318E-04
4.548151E+03	5.073394E-03	1.341544E-04
4.558038E+03	5.081657E-03	1.343703E-04
4.567926E+03	5.089641E-03	1.345789E-04
4.577813E+03	5.096860E-03	1.347672E-04
4.587700E+03	5.103741E-03	1.349465E-04
4.597588E+03	5.110257E-03	1.351162E-04
4.607475E+03	5.116378E-03	1.352755E-04
4.617362E+03	5.122079E-03	1.354237E-04
4.627249E+03	5.126888E-03	1.355483E-04
4.637137E+03	5.131678E-03	1.356724E-04
4.647024E+03	5.135534E-03	1.357718E-04
4.656911E+03	5.138888E-03	1.358579E-04
4.666798E+03	5.141726E-03	1.359304E-04
4.676686E+03	5.143591E-03	1.359771E-04
4.686573E+03	5.145373E-03	1.360217E-04
4.696460E+03	5.146170E-03	1.360403E-04
4.706348E+03	5.146437E-03	1.360448E-04
4.716235E+03	5.145731E-03	1.360236E-04
4.726122E+03	5.144954E-03	1.360006E-04
4.736009E+03	5.143227E-03	1.359525E-04
4.745897E+03	5.141451E-03	1.359030E-04
4.755784E+03	5.138761E-03	1.358295E-04
4.765671E+03	5.135176E-03	1.357322E-04
4.775559E+03	5.131598E-03	1.356352E-04
4.785446E+03	5.127167E-03	1.355157E-04
4.795333E+03	5.122346E-03	1.353858E-04
4.805220E+03	5.117152E-03	1.352461E-04
4.815108E+03	5.111607E-03	1.350972E-04
4.824995E+03	5.105292E-03	1.349279E-04
4.834882E+03	5.099089E-03	1.347615E-04
4.844770E+03	5.092151E-03	1.345758E-04
4.854657E+03	5.084488E-03	1.343709E-04
4.864544E+03	5.076970E-03	1.341699E-04
4.874431E+03	5.068745E-03	1.339502E-04
4.884319E+03	5.060670E-03	1.337345E-04
4.894206E+03	5.051893E-03	1.335002E-04
4.904093E+03	5.042418E-03	1.332476E-04
4.913981E+03	5.033087E-03	1.329987E-04
4.923868E+03	5.023045E-03	1.327311E-04
4.933755E+03	5.012706E-03	1.324556E-04
4.943642E+03	5.002063E-03	1.321721E-04
4.953530E+03	4.991095E-03	1.318801E-04
4.963417E+03	4.979380E-03	1.315683E-04
4.973304E+03	4.967316E-03	1.312473E-04
4.983192E+03	4.954882E-03	1.309166E-04
4.993079E+03	4.942061E-03	1.305757E-04
5.002966E+03	4.928426E-03	1.302133E-04
5.012853E+03	4.914366E-03	1.298397E-04
5.022741E+03	4.899861E-03	1.294543E-04
5.032628E+03	4.884885E-03	1.290565E-04
5.042515E+03	4.869417E-03	1.286458E-04
5.052403E+03	4.853036E-03	1.282110E-04
5.062290E+03	4.836122E-03	1.277620E-04
5.072177E+03	4.818648E-03	1.272984E-04
5.082064E+03	4.800591E-03	1.268193E-04
5.091952E+03	4.781535E-03	1.263139E-04
5.101839E+03	4.762242E-03	1.258022E-04
5.111726E+03	4.741908E-03	1.252631E-04
5.121614E+03	4.720512E-03	1.246960E-04
5.131501E+03	4.698810E-03	1.241208E-04
5.141388E+03	4.676009E-03	1.235166E-04
5.151275E+03	4.652474E-03	1.228930E-04
5.161163E+03	4.628188E-03	1.222496E-04
5.171050E+03	4.603131E-03	1.215859E-04
5.180937E+03	4.576924E-03	1.208919E-04
5.190825E+03	4.550295E-03	1.201867E-04
5.200712E+03	4.522498E-03	1.194507E-04
5.210599E+03	4.493535E-03	1.186840E-04
5.220486E+03	4.464133E-03	1.179056E-04
5.230374E+03	4.433570E-03	1.170967E-04
5.240261E+03	4.402210E-03	1.162668E-04
5.250148E+03	4.370068E-03	1.154162E-04
5.260036E+03	4.337152E-03	1.145452E-04
5.269923E+03	4.303477E-03	1.136542E-04
5.279810E+03	4.268719E-03	1.127347E-04
5.289697E+03	4.233246E-03	1.117963E-04
5.299585E+03	4.197081E-03	1.108396E-04
5.309472E+03	4.159916E-03	1.098566E-04
5.319359E+03	4.122447E-03	1.088656E-04
5.329247E+03	4.084038E-03	1.078498E-04
5.339134E+03	4.045055E-03	1.068189E-04
5.349021E+03	4.005523E-03	1.057736E-04
5.358908E+03	3.965480E-03	1.047148E-04
5.368796E+03	3.924647E-03	1.036351E-04
5.378683E+03	3.883384E-03	1.025442E-04
5.388570E+03	3.841734E-03	1.014430E-04
5.398458E+03	3.799740E-03	1.003328E-04
5.408345E+03	3.757455E-03	9.921500E-05
5.418232E+03	3.714631E-03	9.808299E-05
5.428119E+03	3.671625E-03	9.694620E-05
5.438007E+03	3.628497E-03	9.580623E-05
5.447894E+03	3.585304E-03	9.466459E-05
5.457781E+03	3.542106E-03	9.352284E-05
5.467669E+03	3.498692E-03	9.237543E-05
5.477556E+03	3.455682E-03	9.123871E-05
5.487443E+03	3.412588E-03	9.009984E-05
5.497330E+03	3.369757E-03	8.896794E-05
5.507218E+03	3.326989E-03	8.783773E-05
5.517105E+03	3.284882E-03	8.672501E-05
5.526992E+03	3.242973E-03	8.561754E-05
5.536880E+03	3.201595E-03	8.452413E-05
5.546767E+03	3.160807E-03	8.344636E-05
5.556654E+03	3.120673E-03	8.238586E-05
5.566541E+03	3.081255E-03	8.134429E-05
5.576429E+03	3.042370E-03	8.031684E-05
5.586316E+03	3.004563E-03	7.931786E-05
5.596203E+03	2.967409E-03	7.833616E-05
5.606091E+03	2.931200E-03	7.737943E-05
5.615978E+03	2.895987E-03	7.644905E-05
5.625865E+03	2.861590E-03	7.554019E-05
5.635752E+03	2.828509E-03	7.466613E-05
5.645640E+03	2.796334E-03	7.381600E-05
5.655527E+03	2.765324E-03	7.299667E-05
5.665414E+03	2.735517E-03	7.220911E-05
5.675302E+03	2.706939E-03	7.145400E-05
5.685189E+03	2.679615E-03	7.073202E-05
5.695076E+03	2.653358E-03	7.003823E-05
5.704963E+03	2.628608E-03	6.938424E-05
5.714851E+03	2.604964E-03	6.875946E-05
5.724738E+03	2.582648E-03	6.816975E-05
5.734625E+03	2.561670E-03	6.761540E-05
5.744513E+03	2.542040E-03	6.709664E-05
5.754400E+03	2.523767E-03	6.661369E-05
5.764287E+03	2.506658E-03	6.616151E-05
5.774174E+03	2.490922E-03	6.574557E-05
5.784062E+03	2.476760E-03	6.537119E-05
5.793949E+03	2.463788E-03	6.502823E-05
5.803836E+03	2.452210E-03	6.472207E-05
5.813724E+03	2.442035E-03	6.445298E-05
5.823611E+03	2.433084E-03	6.421617E-05
5.833498E+03	2.425753E-03	6.402214E-05
5.843385E+03	2.419674E-03	6.386119E-05
5.853273E+03	2.415248E-03	6.374386E-05
5.863160E+03	2.412115E-03	6.366064E-05
5.873047E+03	2.410486E-03	6.361716E-05
5.882935E+03	2.410389E-03	6.361410E-05
5.892822E+03	2.411851E-03	6.365221E-05
5.902709E+03	2.414713E-03	6.372727E-05
5.912596E+03	2.419390E-03	6.385021E-05
5.922484E+03	2.425533E-03	6.401188E-05
5.932371E+03	2.433564E-03	6.422337E-05
5.942258E+03	2.443136E-03	6.447553E-05
5.952146E+03	2.454481E-03	6.477449E-05
5.962033E+03	2.467638E-03	6.512127E-05
5.971920E+03	2.482647E-03	6.551693E-05
5.981807E+03	2.499545E-03	6.596246E-05
5.991695E+03	2.518172E-03	6.645360E-05
6.001582E+03	2.538957E-03	6.700170E-05
6.011469E+03	2.561733E-03	6.760235E-05
6.021357E+03	2.586322E-03	6.825084E-05
6.031244E+03	2.612942E-03	6.895292E-05
6.041131E+03	2.641815E-03	6.971446E-05
6.051018E+03	2.672527E-03	7.052456E-05
6.060906E+03	2.705278E-03	7.138842E-05
6.070793E+03	2.740045E-03	7.230552E-05
6.080680E+03	2.776574E-03	7.326910E-05
6.090568E+03	2.815252E-03	7.428941E-05
6.100455E+03	2.855794E-03	7.535889E-05
6.110342E+03	2.897879E-03	7.646910E-05
6.120229E+03	2.941859E-03	7.762931E-05
6.130117E+03	2.987134E-03	7.882371E-05
6.140004E+03	3.034018E-03	8.006056E-05
6.149891E+03	3.081852E-03	8.132247E-05
6.159779E+03	3.130667E-03	8.261028E-05
6.169666E+03	3.180223E-03	8.391767E-05
6.179553E+03	3.230261E-03	8.523777E-05
6.189440E+03	3.280492E-03	8.656295E-05
6.199328E+03	3.330608E-03	8.788513E-05
6.209215E+03	3.380274E-03	8.919543E-05
6.219102E+03	3.428865E-03	9.047737E-05
6.228990E+03	3.476558E-03	9.173564E-05
6.238877E+03	3.522706E-03	9.295313E-05
6.248764E+03	3.566641E-03	9.411226E-05
6.258651E+03	3.608544E-03	9.521777E-05
6.268539E+03	3.647476E-03	9.624488E-05
6.278426E+03	3.683349E-03	9.719132E-05
6.288313E+03	3.716121E-03	9.805591E-05
6.298201E+03	3.744879E-03	9.881464E-05
6.308088E+03	3.769636E-03	9.946777E-05
6.317975E+03	3.790132E-03	1.000085E-04
6.327862E+03	3.806162E-03	1.004314E-04
6.337750E+03	3.817558E-03	1.007321E-04
6.347637E+03	3.824197E-03	1.009072E-04
6.357524E+03	3.826006E-03	1.009549E-04
6.367412E+03	3.822659E-03	1.008666E-04
6.377299E+03	3.814787E-03	1.006589E-04
6.387186E+03	3.802161E-03	1.003257E-04
6.397073E+03	3.784889E-03	9.986999E-05
6.406961E+03	3.762832E-03	9.928802E-05
6.416848E+03	3.736780E-03	9.860065E-05
6.426735E+03	3.706366E-03	9.779822E-05
6.436623E+03	3.672437E-03	9.690303E-05
6.446510E+03	3.634682E-03	9.590691E-05
6.456397E+03	3.593695E-03	9.482551E-05
6.466284E+03	3.550075E-03	9.367464E-05
6.476172E+03	3.503566E-03	9.244755E-05
6.486059E+03	3.454785E-03	9.116052E-05
6.495946E+03	3.404065E-03	8.982235E-05
6.505833E+03	3.351730E-03	8.844154E-05
6.515721E+03	3.298098E-03	8.702655E-05
6.525608E+03	3.243488E-03	8.558573E-05
6.535495E+03	3.188203E-03	8.412714E-05
6.545383E+03	3.132531E-03	8.265832E-05
6.555270E+03	3.076750E-03	8.118663E-05
6.565157E+03	3.021122E-03	7.971898E-05
6.575044E+03	2.965895E-03	7.826191E-05
6.584932E+03	2.911296E-03	7.682140E-05
6.594819E+03	2.857534E-03	7.540300E-05
6.604706E+03	2.804584E-03	7.400602E-05
6.614594E+03	2.753076E-03	7.264709E-05
6.624481E+03	2.702942E-03	7.132442E-05
6.634368E+03	2.654114E-03	7.003622E-05
6.644255E+03	2.607157E-03	6.879739E-05
6.654143E+03	2.561759E-03	6.759970E-05
6.664030E+03	2.518442E-03	6.645690E-05
6.673917E+03	2.476883E-03	6.536052E-05
6.683805E+03	2.437567E-03	6.432331E-05
6.693692E+03	2.400163E-03	6.333656E-05
6.703579E+03	2.365123E-03	6.241219E-05
6.713466E+03	2.332110E-03	6.154131E-05
6.723354E+03	2.301363E-03	6.073022E-05
6.733241E+03	2.273103E-03	5.998477E-05
6.743128E+03	2.246990E-03	5.929597E-05
6.753016E+03	2.223238E-03	5.866948E-05
6.762903E+03	2.201870E-03	5.810589E-05
6.772790E+03	2.183084E-03	5.761045E-05
6.782677E+03	2.166540E-03	5.717418E-05
6.792565E+03	2.152432E-03	5.680221E-05
6.802452E+03	2.140775E-03	5.649490E-05
6.812339E+03	2.131580E-03	5.625257E-05
6.822227E+03	2.124858E-03	5.607552E-05
6.832114E+03	2.120619E-03	5.596399E-05
6.842001E+03	2.118871E-03	5.591822E-05
6.851888E+03	2.119623E-03	5.593842E-05
6.861776E+03	2.122706E-03	5.602015E-05
6.871663E+03	2.128473E-03	5.617272E-05
6.881550E+03	2.136752E-03	5.639162E-05
6.891438E+03	2.147545E-03	5.667685E-05
6.901325E+03	2.160670E-03	5.702364E-05
6.911212E+03	2.176475E-03	5.744117E-05
6.921099E+03	2.194771E-03	5.792445E-05
6.930987E+03	2.215358E-03	5.846822E-05
6.940874E+03	2.238574E-03	5.908139E-05
6.950761E+03	2.264019E-03	5.975341E-05
6.960649E+03	2.292021E-03	6.049295E-05
6.970536E+03	2.322151E-03	6.128865E-05
6.980423E+03	2.354722E-03	6.214881E-05
6.990310E+03	2.389267E-03	6.306109E-05
7.000198E+03	2.425881E-03	6.402798E-05
7.010085E+03	2.464651E-03	6.505183E-05
7.019972E+03	2.505040E-03	6.611843E-05
7.029860E+03	2.547092E-03	6.722895E-05
7.039747E+03	2.590630E-03	6.837873E-05
7.049634E+03	2.635673E-03	6.956825E-05
7.059521E+03	2.681560E-03	7.078008E-05
7.069409E+03	2.728259E-03	7.201338E-05
7.079296E+03	2.775491E-03	7.326080E-05
7.089183E+03	2.822961E-03	7.451450E-05
7.099071E+03	2.870341E-03	7.576590E-05
7.108958E+03	2.917051E-03	7.699962E-05
7.118845E+03	2.963206E-03	7.821874E-05
7.128732E+03	3.008190E-03	7.940699E-05
7.138620E+03	3.051616E-03	8.055412E-05
7.148507E+03	3.092827E-03	8.164283E-05
7.158394E+03	3.131940E-03	8.267621E-05
7.168282E+03	3.168313E-03	8.363728E-05
7.178169E+03	3.201303E-03	8.450908E-05
7.188056E+03	3.230816E-03	8.528913E-05
7.197943E+03	3.256798E-03	8.597598E-05
7.207831E+03	3.278410E-03	8.654751E-05
7.217718E+03	3.295954E-03	8.701169E-05
7.227605E+03	3.308672E-03	8.734845E-05
7.237493E+03	3.316689E-03	8.756115E-05
7.247380E+03	3.319910E-03	8.764724E-05
7.257267E+03	3.318293E-03	8.760562E-05
7.267154E+03	3.311864E-03	8.743698E-05
7.277042E+03	3.300699E-03	8.714330E-05
7.286929E+03	3.284930E-03	8.672808E-05
7.296816E+03	3.264737E-03	8.619606E-05
7.306704E+03	3.240354E-03	8.555341E-05
7.316591E+03	3.211778E-03	8.480007E-05
7.326478E+03	3.179858E-03	8.395842E-05
7.336365E+03	3.144386E-03	8.302297E-05
7.346253E+03	3.106252E-03	8.201721E-05
7.356140E+03	3.065288E-03	8.093674E-05
7.366027E+03	3.022399E-03	7.980541E-05
7.375915E+03	2.977438E-03	7.861936E-05
7.385802E+03	2.931036E-03	7.739521E-05
7.395689E+03	2.883553E-03	7.614253E-05
7.405576E+03	2.835579E-03	7.487683E-05
7.415464E+03	2.786953E-03	7.359392E-05
7.425351E+03	2.738224E-03	7.230824E-05
7.435238E+03	2.689445E-03	7.102123E-05
7.445126E+03	2.641325E-03	6.975157E-05
7.455013E+03	2.593853E-03	6.849903E-05
7.464900E+03	2.547218E-03	6.726853E-05
7.474787E+03	2.501360E-03	6.605853E-05
7.484675E+03	2.456842E-03	6.488391E-05
7.494562E+03	2.413344E-03	6.373618E-05
7.504449E+03	2.371164E-03	6.262324E-05
7.514337E+03	2.330568E-03	6.155209E-05
7.524224E+03	2.291197E-03	6.051330E-05
7.534111E+03	2.253289E-03	5.951310E-05
7.543998E+03	2.216862E-03	5.855200E-05
7.553886E+03	2.181923E-03	5.763017E-05
7.563773E+03	2.148468E-03	5.674752E-05
7.573660E+03	2.116301E-03	5.589887E-05
7.583548E+03	2.085771E-03	5.509342E-05
7.593435E+03	2.056664E-03	5.432554E-05
7.603322E+03	2.028771E-03	5.358972E-05
7.613209E+03	2.002236E-03	5.288974E-05
7.623097E+03	1.977188E-03	5.222903E-05
7.632984E+03	1.953238E-03	5.159731E-05
7.642871E+03	1.930513E-03	5.099792E-05
7.652759E+03	1.908965E-03	5.042962E-05
7.662646E+03	1.888546E-03	4.989112E-05
7.672533E+03	1.869206E-03	4.938112E-05
