#wls	flux	fluxerr
1.600000E+03	7.396297E-15	2.608635E-16
1.640000E+03	6.302775E-15	2.170838E-16
1.680000E+03	5.328003E-15	1.790733E-16
1.720000E+03	4.467076E-15	1.463956E-16
1.760000E+03	3.714283E-15	1.185987E-16
1.800000E+03	3.062988E-15	9.521565E-17
1.840000E+03	2.504705E-15	7.574139E-17
1.880000E+03	2.031867E-15	5.972286E-17
1.920000E+03	1.636041E-15	4.670519E-17
1.960000E+03	1.309153E-15	3.627020E-17
2.000000E+03	1.043675E-15	2.804049E-17
2.040000E+03	8.329729E-16	2.168697E-17
2.080000E+03	6.710171E-16	1.691829E-17
2.120000E+03	5.524453E-16	1.348037E-17
2.160000E+03	4.736872E-16	1.118058E-17
2.200000E+03	4.318605E-16	9.855826E-18
2.240000E+03	4.270446E-16	9.420471E-18
2.280000E+03	4.643962E-16	9.901033E-18
2.320000E+03	5.553989E-16	1.144498E-17
2.360000E+03	7.206385E-16	1.435717E-17
2.400000E+03	9.937318E-16	1.915126E-17
2.440000E+03	1.422093E-15	2.653348E-17
2.480000E+03	2.060321E-15	3.725818E-17
2.520000E+03	2.949908E-15	5.176875E-17
2.560000E+03	4.086939E-15	6.969780E-17
2.600000E+03	5.394356E-15	8.951245E-17
2.640000E+03	6.735351E-15	1.088771E-16
2.680000E+03	8.042562E-15	1.267800E-16
2.720000E+03	9.381514E-15	1.443409E-16
2.760000E+03	1.088705E-14	1.636056E-16
2.800000E+03	1.270700E-14	1.866142E-16
2.840000E+03	1.494726E-14	2.146142E-16
2.880000E+03	1.762149E-14	2.474363E-16
2.920000E+03	2.061925E-14	2.832088E-16
2.960000E+03	2.374131E-14	3.190194E-16
3.000000E+03	2.678472E-14	3.521596E-16
3.010000E+03	2.751482E-14	3.598034E-16
3.020000E+03	2.822765E-14	3.671341E-16
3.030000E+03	2.892111E-14	3.741298E-16
3.040000E+03	2.959445E-14	3.807866E-16
3.050000E+03	3.024500E-14	3.870761E-16
3.060000E+03	3.087079E-14	3.929797E-16
3.070000E+03	3.147060E-14	3.984890E-16
3.080000E+03	3.204209E-14	4.035818E-16
3.090000E+03	3.258396E-14	4.082495E-16
3.100000E+03	3.309678E-14	4.125072E-16
3.110000E+03	3.357913E-14	4.163451E-16
3.120000E+03	3.403254E-14	4.197901E-16
3.130000E+03	3.445830E-14	4.228643E-16
3.140000E+03	3.486167E-14	4.256375E-16
3.150000E+03	3.524502E-14	4.281432E-16
3.160000E+03	3.561462E-14	4.304612E-16
3.170000E+03	3.597779E-14	4.326827E-16
3.180000E+03	3.634196E-14	4.348983E-16
3.190000E+03	3.671373E-14	4.371869E-16
3.200000E+03	3.710321E-14	4.396681E-16
3.210000E+03	3.751699E-14	4.424170E-16
3.220000E+03	3.796309E-14	4.455251E-16
3.230000E+03	3.844748E-14	4.490574E-16
3.240000E+03	3.897650E-14	4.530831E-16
3.250000E+03	3.955488E-14	4.576510E-16
3.260000E+03	4.018635E-14	4.627979E-16
3.270000E+03	4.087293E-14	4.685409E-16
3.280000E+03	4.161706E-14	4.749015E-16
3.290000E+03	4.241946E-14	4.818817E-16
3.300000E+03	4.327932E-14	4.894668E-16
3.310000E+03	4.419652E-14	4.976504E-16
3.320000E+03	4.516903E-14	5.064050E-16
3.330000E+03	4.619585E-14	5.157158E-16
3.340000E+03	4.727420E-14	5.255490E-16
3.350000E+03	4.840172E-14	5.358766E-16
3.360000E+03	4.957570E-14	5.466676E-16
3.370000E+03	5.079293E-14	5.578868E-16
3.380000E+03	5.204961E-14	5.694937E-16
3.390000E+03	5.334038E-14	5.814319E-16
3.400000E+03	5.466054E-14	5.936537E-16
3.410000E+03	5.600200E-14	6.060765E-16
3.420000E+03	5.735872E-14	6.186409E-16
3.430000E+03	5.872023E-14	6.312417E-16
3.440000E+03	6.007628E-14	6.437779E-16
3.450000E+03	6.141539E-14	6.561371E-16
3.460000E+03	6.272448E-14	6.681913E-16
3.470000E+03	6.399267E-14	6.798378E-16
3.480000E+03	6.520718E-14	6.909549E-16
3.490000E+03	6.635479E-14	7.014173E-16
3.500000E+03	6.742352E-14	7.111135E-16
3.510000E+03	6.840081E-14	7.199255E-16
3.520000E+03	6.927471E-14	7.277347E-16
3.530000E+03	7.002688E-14	7.343514E-16
3.540000E+03	7.064200E-14	7.396178E-16
3.550000E+03	7.110069E-14	7.433328E-16
3.560000E+03	7.137613E-14	7.452171E-16
3.570000E+03	7.143904E-14	7.449658E-16
3.580000E+03	7.126580E-14	7.423329E-16
3.590000E+03	7.084102E-14	7.371577E-16
3.600000E+03	7.015295E-14	7.293166E-16
3.610000E+03	6.920130E-14	7.188045E-16
3.620000E+03	6.799369E-14	7.056978E-16
3.630000E+03	6.654468E-14	6.901443E-16
3.640000E+03	6.487844E-14	6.723904E-16
3.650000E+03	6.303142E-14	6.528098E-16
3.660000E+03	6.104393E-14	6.318153E-16
3.670000E+03	5.896669E-14	6.099271E-16
3.680000E+03	5.686499E-14	5.878155E-16
3.690000E+03	5.480646E-14	5.661744E-16
3.700000E+03	5.284795E-14	5.455854E-16
3.710000E+03	5.103487E-14	5.265116E-16
3.720000E+03	4.940249E-14	5.093104E-16
3.730000E+03	4.797863E-14	4.942626E-16
3.740000E+03	4.678104E-14	4.815442E-16
3.750000E+03	4.582314E-14	4.712862E-16
3.760000E+03	4.511583E-14	4.635929E-16
3.770000E+03	4.466900E-14	4.585574E-16
3.780000E+03	4.449219E-14	4.562682E-16
3.790000E+03	4.459537E-14	4.568166E-16
3.800000E+03	4.498956E-14	4.603036E-16
3.810000E+03	4.568463E-14	4.668164E-16
3.820000E+03	4.668432E-14	4.763778E-16
3.830000E+03	4.796686E-14	4.887487E-16
3.840000E+03	4.949619E-14	5.035447E-16
3.850000E+03	5.123052E-14	5.203239E-16
3.860000E+03	5.311823E-14	5.385464E-16
3.870000E+03	5.509796E-14	5.575765E-16
3.880000E+03	5.710474E-14	5.767463E-16
3.890000E+03	5.907844E-14	5.954417E-16
3.900000E+03	6.096160E-14	6.130808E-16
3.910000E+03	6.270239E-14	6.291440E-16
3.920000E+03	6.426903E-14	6.433185E-16
3.930000E+03	6.564245E-14	6.554227E-16
3.940000E+03	6.681237E-14	6.653660E-16
3.950000E+03	6.778086E-14	6.731834E-16
3.960000E+03	6.855827E-14	6.789929E-16
3.970000E+03	6.916150E-14	6.829778E-16
3.980000E+03	6.961677E-14	6.854130E-16
3.990000E+03	6.995337E-14	6.866011E-16
4.000000E+03	7.020329E-14	6.868689E-16
4.010000E+03	7.039603E-14	6.865159E-16
4.020000E+03	7.055956E-14	6.858235E-16
4.030000E+03	7.071693E-14	6.850228E-16
4.040000E+03	7.087154E-14	6.841521E-16
4.050000E+03	7.101938E-14	6.831788E-16
4.060000E+03	7.113690E-14	6.818841E-16
4.070000E+03	7.115534E-14	6.796207E-16
4.080000E+03	7.098991E-14	6.755989E-16
4.090000E+03	7.057583E-14	6.692311E-16
4.100000E+03	6.989528E-14	6.603819E-16
4.110000E+03	6.895400E-14	6.491409E-16
4.120000E+03	6.776780E-14	6.356904E-16
4.130000E+03	6.636088E-14	6.202885E-16
4.140000E+03	6.476480E-14	6.032576E-16
4.150000E+03	6.301391E-14	5.849409E-16
4.160000E+03	6.114691E-14	5.657158E-16
4.170000E+03	5.920295E-14	5.459578E-16
4.180000E+03	5.721969E-14	5.260226E-16
4.190000E+03	5.523333E-14	5.062468E-16
4.200000E+03	5.327697E-14	4.869334E-16
4.210000E+03	5.138099E-14	4.683565E-16
4.220000E+03	4.957479E-14	4.507778E-16
4.230000E+03	4.788400E-14	4.344215E-16
4.240000E+03	4.633108E-14	4.194817E-16
4.250000E+03	4.493705E-14	4.061379E-16
4.260000E+03	4.371946E-14	3.945385E-16
4.270000E+03	4.268984E-14	3.847783E-16
4.280000E+03	4.185299E-14	3.768927E-16
4.290000E+03	4.121028E-14	3.708890E-16
4.300000E+03	4.075914E-14	3.667415E-16
4.310000E+03	4.048775E-14	3.643422E-16
4.320000E+03	4.038094E-14	3.635522E-16
4.330000E+03	4.041914E-14	3.641954E-16
4.340000E+03	4.056555E-14	3.659424E-16
4.350000E+03	4.077947E-14	3.684291E-16
4.360000E+03	4.102757E-14	3.713572E-16
4.370000E+03	4.129697E-14	3.746122E-16
4.380000E+03	4.158348E-14	3.781580E-16
4.390000E+03	4.188627E-14	3.819889E-16
4.400000E+03	4.220860E-14	3.861354E-16
4.410000E+03	4.255631E-14	3.906491E-16
4.420000E+03	4.293416E-14	3.955717E-16
4.430000E+03	4.334525E-14	4.009305E-16
4.440000E+03	4.379208E-14	4.067479E-16
4.450000E+03	4.427273E-14	4.130054E-16
4.460000E+03	4.477791E-14	4.196153E-16
4.470000E+03	4.529418E-14	4.264495E-16
4.480000E+03	4.580143E-14	4.333140E-16
4.490000E+03	4.627018E-14	4.399221E-16
4.500000E+03	4.666583E-14	4.459320E-16
4.510000E+03	4.696006E-14	4.510550E-16
4.520000E+03	4.714485E-14	4.551924E-16
4.530000E+03	4.722131E-14	4.583318E-16
4.540000E+03	4.719380E-14	4.604922E-16
4.550000E+03	4.707187E-14	4.617448E-16
4.560000E+03	4.686674E-14	4.621786E-16
4.570000E+03	4.658549E-14	4.618443E-16
4.580000E+03	4.622533E-14	4.606960E-16
4.590000E+03	4.577822E-14	4.586350E-16
4.600000E+03	4.524107E-14	4.556112E-16
4.610000E+03	4.462192E-14	4.516871E-16
4.620000E+03	4.393274E-14	4.469672E-16
4.630000E+03	4.318692E-14	4.415743E-16
4.640000E+03	4.240573E-14	4.357150E-16
4.650000E+03	4.160856E-14	4.295816E-16
4.660000E+03	4.081489E-14	4.233718E-16
4.670000E+03	4.003921E-14	4.172357E-16
4.680000E+03	3.929325E-14	4.112974E-16
4.690000E+03	3.858444E-14	4.056386E-16
4.700000E+03	3.791234E-14	4.002591E-16
4.710000E+03	3.727390E-14	3.951310E-16
4.720000E+03	3.666339E-14	3.901980E-16
4.730000E+03	3.607303E-14	3.853804E-16
4.740000E+03	3.549455E-14	3.805925E-16
4.750000E+03	3.491888E-14	3.757384E-16
4.760000E+03	3.433906E-14	3.707445E-16
4.770000E+03	3.374675E-14	3.655208E-16
4.780000E+03	3.313673E-14	3.600109E-16
4.790000E+03	3.250561E-14	3.541777E-16
4.800000E+03	3.185111E-14	3.479964E-16
4.810000E+03	3.117692E-14	3.415076E-16
4.820000E+03	3.049719E-14	3.348676E-16
4.830000E+03	2.982847E-14	3.282610E-16
4.840000E+03	2.918863E-14	3.218885E-16
4.850000E+03	2.859699E-14	3.159686E-16
4.860000E+03	2.807186E-14	3.107097E-16
4.870000E+03	2.762617E-14	3.062619E-16
4.880000E+03	2.726211E-14	3.026556E-16
4.890000E+03	2.697692E-14	2.998660E-16
4.900000E+03	2.676660E-14	2.978535E-16
4.910000E+03	2.662280E-14	2.965292E-16
4.920000E+03	2.653664E-14	2.957969E-16
4.930000E+03	2.650024E-14	2.955712E-16
4.940000E+03	2.650901E-14	2.958024E-16
4.950000E+03	2.656018E-14	2.964608E-16
4.960000E+03	2.665197E-14	2.975270E-16
4.970000E+03	2.678731E-14	2.990343E-16
4.980000E+03	2.697012E-14	3.010263E-16
4.990000E+03	2.720444E-14	3.035479E-16
5.000000E+03	2.749412E-14	3.066412E-16
5.010000E+03	2.784346E-14	3.103530E-16
5.020000E+03	2.825289E-14	3.146864E-16
5.030000E+03	2.871667E-14	3.195753E-16
5.040000E+03	2.922572E-14	3.249168E-16
5.050000E+03	2.976708E-14	3.305645E-16
5.060000E+03	3.032200E-14	3.363089E-16
5.070000E+03	3.086810E-14	3.419007E-16
5.080000E+03	3.138265E-14	3.470891E-16
5.090000E+03	3.184552E-14	3.516534E-16
5.100000E+03	3.223806E-14	3.553912E-16
5.110000E+03	3.254384E-14	3.581265E-16
5.120000E+03	3.275093E-14	3.597352E-16
5.130000E+03	3.285178E-14	3.601423E-16
5.140000E+03	3.283905E-14	3.592767E-16
5.150000E+03	3.270989E-14	3.571176E-16
5.160000E+03	3.246269E-14	3.536585E-16
5.170000E+03	3.209985E-14	3.489372E-16
5.180000E+03	3.163039E-14	3.430632E-16
5.190000E+03	3.106609E-14	3.361755E-16
5.200000E+03	3.042165E-14	3.284434E-16
5.210000E+03	2.971605E-14	3.200806E-16
5.220000E+03	2.897022E-14	3.113202E-16
5.230000E+03	2.820439E-14	3.023851E-16
5.240000E+03	2.744322E-14	2.935435E-16
5.250000E+03	2.671022E-14	2.850483E-16
5.260000E+03	2.602559E-14	2.771150E-16
5.270000E+03	2.540543E-14	2.699130E-16
5.280000E+03	2.486356E-14	2.635866E-16
5.290000E+03	2.440833E-14	2.582202E-16
5.300000E+03	2.403997E-14	2.538127E-16
5.310000E+03	2.375469E-14	2.503202E-16
5.320000E+03	2.354550E-14	2.476663E-16
5.330000E+03	2.339719E-14	2.456891E-16
5.340000E+03	2.329196E-14	2.442009E-16
5.350000E+03	2.321190E-14	2.430147E-16
5.360000E+03	2.314114E-14	2.419656E-16
5.370000E+03	2.306366E-14	2.408884E-16
5.380000E+03	2.296771E-14	2.396632E-16
5.390000E+03	2.284910E-14	2.382484E-16
5.400000E+03	2.270748E-14	2.366411E-16
5.410000E+03	2.254637E-14	2.348771E-16
5.420000E+03	2.237872E-14	2.330900E-16
5.430000E+03	2.222112E-14	2.314500E-16
5.440000E+03	2.208971E-14	2.301224E-16
5.450000E+03	2.200190E-14	2.292858E-16
5.460000E+03	2.197443E-14	2.291124E-16
5.470000E+03	2.202007E-14	2.297341E-16
5.480000E+03	2.214118E-14	2.311748E-16
5.490000E+03	2.233471E-14	2.334026E-16
5.500000E+03	2.259477E-14	2.363565E-16
5.510000E+03	2.290557E-14	2.398717E-16
5.520000E+03	2.324769E-14	2.437448E-16
5.530000E+03	2.360262E-14	2.477815E-16
5.540000E+03	2.396015E-14	2.518734E-16
5.550000E+03	2.431264E-14	2.559388E-16
5.560000E+03	2.465401E-14	2.599117E-16
5.570000E+03	2.497907E-14	2.637349E-16
5.580000E+03	2.528402E-14	2.673659E-16
5.590000E+03	2.556549E-14	2.707659E-16
5.600000E+03	2.582196E-14	2.739160E-16
5.610000E+03	2.605194E-14	2.767970E-16
5.620000E+03	2.625325E-14	2.793824E-16
5.630000E+03	2.641994E-14	2.816053E-16
5.640000E+03	2.654456E-14	2.833827E-16
5.650000E+03	2.662067E-14	2.846418E-16
5.660000E+03	2.664218E-14	2.853130E-16
5.670000E+03	2.660465E-14	2.853447E-16
5.680000E+03	2.650434E-14	2.846921E-16
5.690000E+03	2.633706E-14	2.833059E-16
5.700000E+03	2.609994E-14	2.811512E-16
5.710000E+03	2.579607E-14	2.782573E-16
5.720000E+03	2.544106E-14	2.747891E-16
5.730000E+03	2.505441E-14	2.709551E-16
5.740000E+03	2.465935E-14	2.670054E-16
5.750000E+03	2.428388E-14	2.632432E-16
5.760000E+03	2.395643E-14	2.599780E-16
5.770000E+03	2.369838E-14	2.574438E-16
5.780000E+03	2.351443E-14	2.556945E-16
5.790000E+03	2.340248E-14	2.547095E-16
5.800000E+03	2.335757E-14	2.544372E-16
5.810000E+03	2.336759E-14	2.547474E-16
5.820000E+03	2.341658E-14	2.554676E-16
5.830000E+03	2.348940E-14	2.564335E-16
5.840000E+03	2.357087E-14	2.574800E-16
5.850000E+03	2.364619E-14	2.584458E-16
5.860000E+03	2.370534E-14	2.592217E-16
5.870000E+03	2.374856E-14	2.598105E-16
5.880000E+03	2.378175E-14	2.602773E-16
5.890000E+03	2.380952E-14	2.606732E-16
5.900000E+03	2.383438E-14	2.610265E-16
5.910000E+03	2.385787E-14	2.613553E-16
5.920000E+03	2.388110E-14	2.616728E-16
5.930000E+03	2.390461E-14	2.619862E-16
5.940000E+03	2.392753E-14	2.622874E-16
5.950000E+03	2.394588E-14	2.625341E-16
5.960000E+03	2.394704E-14	2.625898E-16
5.970000E+03	2.391449E-14	2.622748E-16
5.980000E+03	2.382850E-14	2.613743E-16
5.990000E+03	2.366404E-14	2.596155E-16
6.000000E+03	2.339392E-14	2.567014E-16
6.010000E+03	2.299614E-14	2.523918E-16
6.020000E+03	2.245239E-14	2.464865E-16
6.030000E+03	2.175198E-14	2.388683E-16
6.040000E+03	2.089690E-14	2.295588E-16
6.050000E+03	1.990765E-14	2.187820E-16
6.060000E+03	1.881420E-14	2.068656E-16
6.070000E+03	1.765711E-14	1.942535E-16
6.080000E+03	1.649680E-14	1.816083E-16
6.090000E+03	1.539001E-14	1.695534E-16
6.100000E+03	1.438352E-14	1.586037E-16
6.110000E+03	1.351573E-14	1.491842E-16
6.120000E+03	1.281604E-14	1.416218E-16
6.130000E+03	1.230124E-14	1.361076E-16
6.140000E+03	1.197219E-14	1.326574E-16
6.150000E+03	1.182693E-14	1.312586E-16
6.160000E+03	1.186273E-14	1.318911E-16
6.170000E+03	1.206753E-14	1.344330E-16
6.180000E+03	1.242696E-14	1.387381E-16
6.190000E+03	1.292751E-14	1.446705E-16
6.200000E+03	1.355133E-14	1.520464E-16
6.210000E+03	1.427582E-14	1.606288E-16
6.220000E+03	1.507408E-14	1.701313E-16
6.230000E+03	1.591713E-14	1.802417E-16
6.240000E+03	1.677131E-14	1.905921E-16
6.250000E+03	1.760064E-14	2.007828E-16
6.260000E+03	1.837675E-14	2.104952E-16
6.270000E+03	1.907431E-14	2.194392E-16
6.280000E+03	1.967196E-14	2.273610E-16
6.290000E+03	2.015825E-14	2.341151E-16
6.300000E+03	2.052846E-14	2.396298E-16
6.310000E+03	2.078341E-14	2.438948E-16
6.320000E+03	2.093120E-14	2.469839E-16
6.330000E+03	2.098380E-14	2.490170E-16
6.340000E+03	2.095662E-14	2.501564E-16
6.350000E+03	2.086778E-14	2.506003E-16
6.360000E+03	2.073549E-14	2.505523E-16
6.370000E+03	2.057742E-14	2.502138E-16
6.380000E+03	2.040746E-14	2.497454E-16
6.390000E+03	2.023620E-14	2.492712E-16
6.400000E+03	2.006981E-14	2.488640E-16
6.410000E+03	1.990888E-14	2.485288E-16
6.420000E+03	1.974843E-14	2.482014E-16
6.430000E+03	1.958347E-14	2.478156E-16
6.440000E+03	1.941211E-14	2.473430E-16
6.450000E+03	1.923330E-14	2.467657E-16
6.460000E+03	1.904685E-14	2.460764E-16
6.470000E+03	1.885543E-14	2.453051E-16
6.480000E+03	1.866294E-14	2.444990E-16
6.490000E+03	1.847220E-14	2.436926E-16
6.500000E+03	1.828721E-14	2.429369E-16
6.510000E+03	1.811115E-14	2.422741E-16
6.520000E+03	1.794557E-14	2.417253E-16
6.530000E+03	1.778975E-14	2.412819E-16
6.540000E+03	1.764155E-14	2.409156E-16
6.550000E+03	1.749867E-14	2.405950E-16
6.560000E+03	1.735851E-14	2.402840E-16
6.570000E+03	1.721866E-14	2.399484E-16
6.580000E+03	1.707661E-14	2.395516E-16
6.590000E+03	1.693094E-14	2.390717E-16
6.600000E+03	1.678096E-14	2.384965E-16
6.610000E+03	1.662629E-14	2.378182E-16
6.620000E+03	1.646747E-14	2.370425E-16
6.630000E+03	1.630611E-14	2.361904E-16
6.640000E+03	1.614328E-14	2.352762E-16
6.650000E+03	1.598079E-14	2.343250E-16
6.660000E+03	1.581923E-14	2.333451E-16
6.670000E+03	1.565883E-14	2.323395E-16
6.680000E+03	1.549791E-14	2.312830E-16
6.690000E+03	1.533381E-14	2.301349E-16
6.700000E+03	1.516477E-14	2.288676E-16
6.710000E+03	1.499199E-14	2.274977E-16
6.720000E+03	1.481800E-14	2.260628E-16
6.730000E+03	1.464538E-14	2.246019E-16
6.740000E+03	1.447857E-14	2.231838E-16
6.750000E+03	1.432146E-14	2.218699E-16
6.760000E+03	1.417753E-14	2.207169E-16
6.770000E+03	1.404600E-14	2.197154E-16
6.780000E+03	1.392577E-14	2.188510E-16
6.790000E+03	1.381409E-14	2.180826E-16
6.800000E+03	1.370752E-14	2.173575E-16
6.810000E+03	1.360194E-14	2.166111E-16
6.820000E+03	1.349404E-14	2.157908E-16
6.830000E+03	1.338348E-14	2.148908E-16
6.840000E+03	1.327046E-14	2.139137E-16
6.850000E+03	1.315607E-14	2.128771E-16
6.860000E+03	1.304154E-14	2.118007E-16
6.870000E+03	1.292932E-14	2.107249E-16
6.880000E+03	1.282103E-14	2.096768E-16
6.890000E+03	1.271831E-14	2.086840E-16
6.900000E+03	1.262234E-14	2.077675E-16
6.910000E+03	1.253466E-14	2.069537E-16
6.920000E+03	1.245466E-14	2.062342E-16
6.930000E+03	1.238279E-14	2.056177E-16
6.940000E+03	1.231789E-14	2.050864E-16
6.950000E+03	1.225835E-14	2.046142E-16
6.960000E+03	1.220247E-14	2.041737E-16
6.970000E+03	1.214853E-14	2.037368E-16
6.980000E+03	1.209610E-14	2.032965E-16
6.990000E+03	1.204522E-14	2.028536E-16
7.000000E+03	1.199632E-14	2.024162E-16
7.010000E+03	1.195080E-14	2.020079E-16
7.020000E+03	1.191012E-14	2.016542E-16
7.030000E+03	1.187604E-14	2.013855E-16
7.040000E+03	1.184822E-14	2.011967E-16
7.050000E+03	1.182729E-14	2.010988E-16
7.060000E+03	1.181203E-14	2.010720E-16
7.070000E+03	1.180150E-14	2.011003E-16
7.080000E+03	1.179366E-14	2.011497E-16
7.090000E+03	1.178664E-14	2.011881E-16
7.100000E+03	1.177871E-14	2.011862E-16
7.110000E+03	1.176738E-14	2.011016E-16
7.120000E+03	1.175116E-14	2.009087E-16
7.130000E+03	1.172858E-14	2.005825E-16
7.140000E+03	1.169895E-14	2.001113E-16
7.150000E+03	1.166154E-14	1.994829E-16
7.160000E+03	1.161584E-14	1.986891E-16
7.170000E+03	1.156206E-14	1.977337E-16
7.180000E+03	1.149996E-14	1.966131E-16
7.190000E+03	1.143070E-14	1.953481E-16
7.200000E+03	1.135498E-14	1.939513E-16
7.210000E+03	1.127369E-14	1.924387E-16
7.220000E+03	1.118853E-14	1.908403E-16
7.230000E+03	1.110109E-14	1.891838E-16
7.240000E+03	1.101260E-14	1.874913E-16
7.250000E+03	1.092421E-14	1.857833E-16
7.260000E+03	1.083694E-14	1.840775E-16
7.270000E+03	1.075162E-14	1.823890E-16
7.280000E+03	1.066881E-14	1.807280E-16
7.290000E+03	1.058849E-14	1.790946E-16
7.300000E+03	1.051128E-14	1.775000E-16
7.310000E+03	1.043670E-14	1.759366E-16
7.320000E+03	1.036410E-14	1.743939E-16
7.330000E+03	1.029328E-14	1.728694E-16
7.340000E+03	1.022339E-14	1.713492E-16
7.350000E+03	1.015406E-14	1.698281E-16
7.360000E+03	1.008477E-14	1.682979E-16
7.370000E+03	1.001442E-14	1.667412E-16
7.380000E+03	9.942208E-15	1.651457E-16
7.390000E+03	9.866110E-15	1.634789E-16
7.400000E+03	9.784248E-15	1.617110E-16
7.410000E+03	9.693625E-15	1.597942E-16
7.420000E+03	9.591953E-15	1.576932E-16
7.430000E+03	9.476623E-15	1.553674E-16
7.440000E+03	9.345586E-15	1.527863E-16
7.450000E+03	9.199274E-15	1.499602E-16
7.460000E+03	9.042715E-15	1.469739E-16
7.470000E+03	8.883421E-15	1.439519E-16
7.480000E+03	8.727567E-15	1.409953E-16
7.490000E+03	8.581458E-15	1.382062E-16
7.500000E+03	8.450283E-15	1.356674E-16
7.510000E+03	8.339089E-15	1.334585E-16
7.520000E+03	8.250697E-15	1.316223E-16
7.530000E+03	8.187403E-15	1.301926E-16
7.540000E+03	8.150208E-15	1.291825E-16
7.550000E+03	8.136486E-15	1.285472E-16
7.560000E+03	8.142664E-15	1.282278E-16
7.570000E+03	8.164589E-15	1.281569E-16
7.580000E+03	8.199109E-15	1.282838E-16
7.590000E+03	8.243236E-15	1.285610E-16
7.600000E+03	8.293794E-15	1.289389E-16
7.610000E+03	8.348486E-15	1.293820E-16
7.620000E+03	8.404821E-15	1.298525E-16
7.630000E+03	8.461135E-15	1.303259E-16
7.640000E+03	8.515744E-15	1.307776E-16
7.650000E+03	8.568052E-15	1.312001E-16
7.660000E+03	8.617079E-15	1.315803E-16
7.670000E+03	8.663578E-15	1.319316E-16
7.680000E+03	8.707929E-15	1.322616E-16
7.690000E+03	8.751325E-15	1.325903E-16
7.700000E+03	8.794325E-15	1.329279E-16
7.710000E+03	8.837657E-15	1.332871E-16
7.720000E+03	8.881873E-15	1.336780E-16
7.730000E+03	8.927042E-15	1.341033E-16
7.740000E+03	8.973004E-15	1.345623E-16
7.750000E+03	9.018958E-15	1.350451E-16
7.760000E+03	9.063676E-15	1.355351E-16
