#wls	flux	fluxerr
1.600000E+03	1.024386E-15	5.125241E-17
1.640000E+03	8.602025E-16	4.239547E-17
1.680000E+03	7.196180E-16	3.492212E-17
1.720000E+03	6.001067E-16	2.866251E-17
1.760000E+03	4.993078E-16	2.346088E-17
1.800000E+03	4.150069E-16	1.917434E-17
1.840000E+03	3.449998E-16	1.566636E-17
1.880000E+03	2.874425E-16	1.282257E-17
1.920000E+03	2.405753E-16	1.053751E-17
1.960000E+03	2.028477E-16	8.719755E-18
2.000000E+03	1.728973E-16	7.290406E-18
2.040000E+03	1.495668E-16	6.183124E-18
2.080000E+03	1.318494E-16	5.341199E-18
2.120000E+03	1.190311E-16	4.722664E-18
2.160000E+03	1.110868E-16	4.314532E-18
2.200000E+03	1.081676E-16	4.110488E-18
2.240000E+03	1.107440E-16	4.115524E-18
2.280000E+03	1.198580E-16	4.353803E-18
2.320000E+03	1.371719E-16	4.868088E-18
2.360000E+03	1.653104E-16	5.729129E-18
2.400000E+03	2.083583E-16	7.048699E-18
2.440000E+03	2.721280E-16	8.982762E-18
2.480000E+03	3.646415E-16	1.174051E-17
2.520000E+03	4.962248E-16	1.557928E-17
2.560000E+03	6.791629E-16	2.078597E-17
2.600000E+03	9.260500E-16	2.762204E-17
2.640000E+03	1.246619E-15	3.623257E-17
2.680000E+03	1.651300E-15	4.676057E-17
2.720000E+03	2.153130E-15	5.940012E-17
2.760000E+03	2.763264E-15	7.426964E-17
2.800000E+03	3.488473E-15	9.135738E-17
2.840000E+03	4.327690E-15	1.104472E-16
2.880000E+03	5.268459E-15	1.310554E-16
2.920000E+03	6.284044E-15	1.523976E-16
2.960000E+03	7.335067E-15	1.734689E-16
3.000000E+03	8.372779E-15	1.931507E-16
3.010000E+03	8.624468E-15	1.977354E-16
3.020000E+03	8.871360E-15	2.021518E-16
3.030000E+03	9.112768E-15	2.063877E-16
3.040000E+03	9.348463E-15	2.104412E-16
3.050000E+03	9.577684E-15	2.142986E-16
3.060000E+03	9.799948E-15	2.179531E-16
3.070000E+03	1.001508E-14	2.214046E-16
3.080000E+03	1.022257E-14	2.246458E-16
3.090000E+03	1.042223E-14	2.276765E-16
3.100000E+03	1.061438E-14	2.305081E-16
3.110000E+03	1.079862E-14	2.331355E-16
3.120000E+03	1.097528E-14	2.355701E-16
3.130000E+03	1.114437E-14	2.378156E-16
3.140000E+03	1.130684E-14	2.398962E-16
3.150000E+03	1.146243E-14	2.418097E-16
3.160000E+03	1.161184E-14	2.435742E-16
3.170000E+03	1.175581E-14	2.452083E-16
3.180000E+03	1.189492E-14	2.467268E-16
3.190000E+03	1.202932E-14	2.481354E-16
3.200000E+03	1.216033E-14	2.494635E-16
3.210000E+03	1.228812E-14	2.507162E-16
3.220000E+03	1.241355E-14	2.519124E-16
3.230000E+03	1.253701E-14	2.530610E-16
3.240000E+03	1.265931E-14	2.541797E-16
3.250000E+03	1.278100E-14	2.552798E-16
3.260000E+03	1.290259E-14	2.563725E-16
3.270000E+03	1.302434E-14	2.574628E-16
3.280000E+03	1.314687E-14	2.585639E-16
3.290000E+03	1.327059E-14	2.596833E-16
3.300000E+03	1.339560E-14	2.608236E-16
3.310000E+03	1.352240E-14	2.619944E-16
3.320000E+03	1.365105E-14	2.631966E-16
3.330000E+03	1.378198E-14	2.644384E-16
3.340000E+03	1.391514E-14	2.657191E-16
3.350000E+03	1.405071E-14	2.670414E-16
3.360000E+03	1.418880E-14	2.684078E-16
3.370000E+03	1.432954E-14	2.698203E-16
3.380000E+03	1.447298E-14	2.712797E-16
3.390000E+03	1.461895E-14	2.727830E-16
3.400000E+03	1.476768E-14	2.743341E-16
3.410000E+03	1.491867E-14	2.759239E-16
3.420000E+03	1.507216E-14	2.775569E-16
3.430000E+03	1.522745E-14	2.792202E-16
3.440000E+03	1.538404E-14	2.809051E-16
3.450000E+03	1.554125E-14	2.825995E-16
3.460000E+03	1.569786E-14	2.842819E-16
3.470000E+03	1.585286E-14	2.859350E-16
3.480000E+03	1.600408E-14	2.875209E-16
3.490000E+03	1.614700E-14	2.889602E-16
3.500000E+03	1.627649E-14	2.901638E-16
3.510000E+03	1.638723E-14	2.910403E-16
3.520000E+03	1.647460E-14	2.915110E-16
3.530000E+03	1.653364E-14	2.914922E-16
3.540000E+03	1.656100E-14	2.909296E-16
3.550000E+03	1.655397E-14	2.897807E-16
3.560000E+03	1.651127E-14	2.880286E-16
3.570000E+03	1.643265E-14	2.856740E-16
3.580000E+03	1.631949E-14	2.827459E-16
3.590000E+03	1.617501E-14	2.793049E-16
3.600000E+03	1.600297E-14	2.754195E-16
3.610000E+03	1.580902E-14	2.711902E-16
3.620000E+03	1.559929E-14	2.667238E-16
3.630000E+03	1.538033E-14	2.621333E-16
3.640000E+03	1.515913E-14	2.575379E-16
3.650000E+03	1.494293E-14	2.530591E-16
3.660000E+03	1.473837E-14	2.488071E-16
3.670000E+03	1.455220E-14	2.448926E-16
3.680000E+03	1.439001E-14	2.414056E-16
3.690000E+03	1.425734E-14	2.384338E-16
3.700000E+03	1.415890E-14	2.360505E-16
3.710000E+03	1.409901E-14	2.343215E-16
3.720000E+03	1.408118E-14	2.332980E-16
3.730000E+03	1.410866E-14	2.330270E-16
3.740000E+03	1.418414E-14	2.335450E-16
3.750000E+03	1.430999E-14	2.348832E-16
3.760000E+03	1.448798E-14	2.370621E-16
3.770000E+03	1.471947E-14	2.400955E-16
3.780000E+03	1.500502E-14	2.439842E-16
3.790000E+03	1.534445E-14	2.487161E-16
3.800000E+03	1.573705E-14	2.542712E-16
3.810000E+03	1.618026E-14	2.605997E-16
3.820000E+03	1.667086E-14	2.676417E-16
3.830000E+03	1.720432E-14	2.753169E-16
3.840000E+03	1.777425E-14	2.835164E-16
3.850000E+03	1.837322E-14	2.921157E-16
3.860000E+03	1.899284E-14	3.009771E-16
3.870000E+03	1.962366E-14	3.099480E-16
3.880000E+03	2.025574E-14	3.188694E-16
3.890000E+03	2.087879E-14	3.275796E-16
3.900000E+03	2.148328E-14	3.359308E-16
3.910000E+03	2.206025E-14	3.437861E-16
3.920000E+03	2.260188E-14	3.510286E-16
3.930000E+03	2.310171E-14	3.575638E-16
3.940000E+03	2.355478E-14	3.633221E-16
3.950000E+03	2.395783E-14	3.682612E-16
3.960000E+03	2.430879E-14	3.723580E-16
3.970000E+03	2.460661E-14	3.756049E-16
3.980000E+03	2.485178E-14	3.780189E-16
3.990000E+03	2.504487E-14	3.796178E-16
4.000000E+03	2.518728E-14	3.804319E-16
4.010000E+03	2.528037E-14	3.804909E-16
4.020000E+03	2.532529E-14	3.798207E-16
4.030000E+03	2.532370E-14	3.784552E-16
4.040000E+03	2.527656E-14	3.764171E-16
4.050000E+03	2.518516E-14	3.737338E-16
4.060000E+03	2.505064E-14	3.704308E-16
4.070000E+03	2.487439E-14	3.665361E-16
4.080000E+03	2.465812E-14	3.620828E-16
4.090000E+03	2.440422E-14	3.571134E-16
4.100000E+03	2.411516E-14	3.516703E-16
4.110000E+03	2.379412E-14	3.458066E-16
4.120000E+03	2.344519E-14	3.395872E-16
4.130000E+03	2.307203E-14	3.330698E-16
4.140000E+03	2.267922E-14	3.263248E-16
4.150000E+03	2.227137E-14	3.194217E-16
4.160000E+03	2.185317E-14	3.124304E-16
4.170000E+03	2.142934E-14	3.054200E-16
4.180000E+03	2.100454E-14	2.984577E-16
4.190000E+03	2.058324E-14	2.916074E-16
4.200000E+03	2.016969E-14	2.849287E-16
4.210000E+03	1.976785E-14	2.784768E-16
4.220000E+03	1.938134E-14	2.723008E-16
4.230000E+03	1.901316E-14	2.664412E-16
4.240000E+03	1.866609E-14	2.609349E-16
4.250000E+03	1.834257E-14	2.558135E-16
4.260000E+03	1.804437E-14	2.510992E-16
4.270000E+03	1.777245E-14	2.468031E-16
4.280000E+03	1.752774E-14	2.429358E-16
4.290000E+03	1.731052E-14	2.394988E-16
4.300000E+03	1.712054E-14	2.364871E-16
4.310000E+03	1.695708E-14	2.338881E-16
4.320000E+03	1.681876E-14	2.316804E-16
4.330000E+03	1.670416E-14	2.298420E-16
4.340000E+03	1.661079E-14	2.283368E-16
4.350000E+03	1.653619E-14	2.271299E-16
4.360000E+03	1.647719E-14	2.261762E-16
4.370000E+03	1.643115E-14	2.254389E-16
4.380000E+03	1.639779E-14	2.249133E-16
4.390000E+03	1.637700E-14	2.245975E-16
4.400000E+03	1.636799E-14	2.244800E-16
4.410000E+03	1.636978E-14	2.245451E-16
4.420000E+03	1.638055E-14	2.247665E-16
4.430000E+03	1.639812E-14	2.251122E-16
4.440000E+03	1.642027E-14	2.255502E-16
4.450000E+03	1.644420E-14	2.260404E-16
4.460000E+03	1.646719E-14	2.265435E-16
4.470000E+03	1.648665E-14	2.270220E-16
4.480000E+03	1.649960E-14	2.274332E-16
4.490000E+03	1.650333E-14	2.277371E-16
4.500000E+03	1.649502E-14	2.278926E-16
4.510000E+03	1.647211E-14	2.278619E-16
4.520000E+03	1.643264E-14	2.276154E-16
4.530000E+03	1.637509E-14	2.271288E-16
4.540000E+03	1.629835E-14	2.263841E-16
4.550000E+03	1.620178E-14	2.253693E-16
4.560000E+03	1.608500E-14	2.240762E-16
4.570000E+03	1.594806E-14	2.225023E-16
4.580000E+03	1.579185E-14	2.206572E-16
4.590000E+03	1.561701E-14	2.185471E-16
4.600000E+03	1.542469E-14	2.161854E-16
4.610000E+03	1.521658E-14	2.135931E-16
4.620000E+03	1.499442E-14	2.107927E-16
4.630000E+03	1.475964E-14	2.078021E-16
4.640000E+03	1.451460E-14	2.046527E-16
4.650000E+03	1.426063E-14	2.013619E-16
4.660000E+03	1.399988E-14	1.979588E-16
4.670000E+03	1.373399E-14	1.944653E-16
4.680000E+03	1.346449E-14	1.909026E-16
4.690000E+03	1.319282E-14	1.872904E-16
4.700000E+03	1.292034E-14	1.836477E-16
4.710000E+03	1.264862E-14	1.799966E-16
4.720000E+03	1.237872E-14	1.763521E-16
4.730000E+03	1.211187E-14	1.727321E-16
4.740000E+03	1.184936E-14	1.691550E-16
4.750000E+03	1.159211E-14	1.656344E-16
4.760000E+03	1.134168E-14	1.621932E-16
4.770000E+03	1.109894E-14	1.588443E-16
4.780000E+03	1.086540E-14	1.556100E-16
4.790000E+03	1.064238E-14	1.525099E-16
4.800000E+03	1.043102E-14	1.495611E-16
4.810000E+03	1.023286E-14	1.467862E-16
4.820000E+03	1.004937E-14	1.442074E-16
4.830000E+03	9.881713E-15	1.418419E-16
4.840000E+03	9.731230E-15	1.397095E-16
4.850000E+03	9.598997E-15	1.378263E-16
4.860000E+03	9.485775E-15	1.362037E-16
4.870000E+03	9.392171E-15	1.348509E-16
4.880000E+03	9.318605E-15	1.337740E-16
4.890000E+03	9.265024E-15	1.329725E-16
4.900000E+03	9.231308E-15	1.324447E-16
4.910000E+03	9.216812E-15	1.321813E-16
4.920000E+03	9.220979E-15	1.321739E-16
4.930000E+03	9.242986E-15	1.324106E-16
4.940000E+03	9.281769E-15	1.328757E-16
4.950000E+03	9.336321E-15	1.335542E-16
4.960000E+03	9.405315E-15	1.344268E-16
4.970000E+03	9.487474E-15	1.354747E-16
4.980000E+03	9.581175E-15	1.366742E-16
4.990000E+03	9.684713E-15	1.380003E-16
5.000000E+03	9.796090E-15	1.394244E-16
5.010000E+03	9.913409E-15	1.409189E-16
5.020000E+03	1.003419E-14	1.424483E-16
5.030000E+03	1.015596E-14	1.439778E-16
5.040000E+03	1.027625E-14	1.454720E-16
5.050000E+03	1.039227E-14	1.468922E-16
5.060000E+03	1.050142E-14	1.482020E-16
5.070000E+03	1.060117E-14	1.493665E-16
5.080000E+03	1.068915E-14	1.503536E-16
5.090000E+03	1.076321E-14	1.511342E-16
5.100000E+03	1.082159E-14	1.516856E-16
5.110000E+03	1.086307E-14	1.519921E-16
5.120000E+03	1.088645E-14	1.520393E-16
5.130000E+03	1.089141E-14	1.518248E-16
5.140000E+03	1.087750E-14	1.513447E-16
5.150000E+03	1.084523E-14	1.506082E-16
5.160000E+03	1.079517E-14	1.496258E-16
5.170000E+03	1.072840E-14	1.484148E-16
5.180000E+03	1.064642E-14	1.469981E-16
5.190000E+03	1.055095E-14	1.454018E-16
5.200000E+03	1.044417E-14	1.436576E-16
5.210000E+03	1.032839E-14	1.417991E-16
5.220000E+03	1.020639E-14	1.398661E-16
5.230000E+03	1.008044E-14	1.378909E-16
5.240000E+03	9.953204E-15	1.359110E-16
5.250000E+03	9.827013E-15	1.339591E-16
5.260000E+03	9.703948E-15	1.320642E-16
5.270000E+03	9.585532E-15	1.302474E-16
5.280000E+03	9.473223E-15	1.285289E-16
5.290000E+03	9.367904E-15	1.269211E-16
5.300000E+03	9.270214E-15	1.254328E-16
5.310000E+03	9.180405E-15	1.240676E-16
5.320000E+03	9.098695E-15	1.228289E-16
5.330000E+03	9.024870E-15	1.217139E-16
5.340000E+03	8.958827E-15	1.207216E-16
5.350000E+03	8.900352E-15	1.198496E-16
5.360000E+03	8.849427E-15	1.190980E-16
5.370000E+03	8.805719E-15	1.184629E-16
5.380000E+03	8.769282E-15	1.179455E-16
5.390000E+03	8.739995E-15	1.175448E-16
5.400000E+03	8.717684E-15	1.172587E-16
5.410000E+03	8.701892E-15	1.170807E-16
5.420000E+03	8.692192E-15	1.170048E-16
5.430000E+03	8.688579E-15	1.170304E-16
5.440000E+03	8.691083E-15	1.171574E-16
5.450000E+03	8.700181E-15	1.173917E-16
5.460000E+03	8.715847E-15	1.177323E-16
5.470000E+03	8.737884E-15	1.181762E-16
5.480000E+03	8.766206E-15	1.187219E-16
5.490000E+03	8.800080E-15	1.193592E-16
5.500000E+03	8.838867E-15	1.200789E-16
5.510000E+03	8.881542E-15	1.208670E-16
5.520000E+03	8.927181E-15	1.217103E-16
5.530000E+03	8.974295E-15	1.225882E-16
5.540000E+03	9.021584E-15	1.234825E-16
5.550000E+03	9.067537E-15	1.243716E-16
5.560000E+03	9.110926E-15	1.252380E-16
5.570000E+03	9.150209E-15	1.260596E-16
5.580000E+03	9.184121E-15	1.268179E-16
5.590000E+03	9.211444E-15	1.274949E-16
5.600000E+03	9.231334E-15	1.280774E-16
5.610000E+03	9.242898E-15	1.285517E-16
5.620000E+03	9.245695E-15	1.289102E-16
5.630000E+03	9.239588E-15	1.291492E-16
5.640000E+03	9.224658E-15	1.292684E-16
5.650000E+03	9.201402E-15	1.292732E-16
5.660000E+03	9.170432E-15	1.291706E-16
5.670000E+03	9.132834E-15	1.289746E-16
5.680000E+03	9.089928E-15	1.287026E-16
5.690000E+03	9.043124E-15	1.283733E-16
5.700000E+03	8.993941E-15	1.280077E-16
5.710000E+03	8.943939E-15	1.276271E-16
5.720000E+03	8.894824E-15	1.272555E-16
5.730000E+03	8.847806E-15	1.269100E-16
5.740000E+03	8.804280E-15	1.266105E-16
5.750000E+03	8.765206E-15	1.263708E-16
5.760000E+03	8.731147E-15	1.261994E-16
5.770000E+03	8.702524E-15	1.261027E-16
5.780000E+03	8.679408E-15	1.260821E-16
5.790000E+03	8.661337E-15	1.261311E-16
5.800000E+03	8.647605E-15	1.262400E-16
5.810000E+03	8.637397E-15	1.263971E-16
5.820000E+03	8.629261E-15	1.265813E-16
5.830000E+03	8.621814E-15	1.267725E-16
5.840000E+03	8.613421E-15	1.269465E-16
5.850000E+03	8.602339E-15	1.270775E-16
5.860000E+03	8.586860E-15	1.271399E-16
5.870000E+03	8.564977E-15	1.271035E-16
5.880000E+03	8.535089E-15	1.269439E-16
5.890000E+03	8.495381E-15	1.266333E-16
5.900000E+03	8.444242E-15	1.261468E-16
5.910000E+03	8.380229E-15	1.254619E-16
5.920000E+03	8.302113E-15	1.245590E-16
5.930000E+03	8.209048E-15	1.234243E-16
5.940000E+03	8.100258E-15	1.220449E-16
5.950000E+03	7.975583E-15	1.204171E-16
5.960000E+03	7.835447E-15	1.185463E-16
5.970000E+03	7.680726E-15	1.164444E-16
5.980000E+03	7.512703E-15	1.141300E-16
5.990000E+03	7.333591E-15	1.116359E-16
6.000000E+03	7.145715E-15	1.089967E-16
6.010000E+03	6.952382E-15	1.062624E-16
6.020000E+03	6.756764E-15	1.034816E-16
6.030000E+03	6.562521E-15	1.007104E-16
6.040000E+03	6.373480E-15	9.800795E-17
6.050000E+03	6.193255E-15	9.543074E-17
6.060000E+03	6.025342E-15	9.303380E-17
6.070000E+03	5.872787E-15	9.086559E-17
6.080000E+03	5.738513E-15	8.897310E-17
6.090000E+03	5.624627E-15	8.739101E-17
6.100000E+03	5.533071E-15	8.615176E-17
6.110000E+03	5.465062E-15	8.527676E-17
6.120000E+03	5.421301E-15	8.477956E-17
6.130000E+03	5.402046E-15	8.466700E-17
6.140000E+03	5.407140E-15	8.493947E-17
6.150000E+03	5.435828E-15	8.558809E-17
6.160000E+03	5.486979E-15	8.659802E-17
6.170000E+03	5.559185E-15	8.795000E-17
6.180000E+03	5.650373E-15	8.961415E-17
6.190000E+03	5.758314E-15	9.155796E-17
6.200000E+03	5.880471E-15	9.374378E-17
6.210000E+03	6.014051E-15	9.612957E-17
6.220000E+03	6.155925E-15	9.866755E-17
6.230000E+03	6.302926E-15	1.013089E-16
6.240000E+03	6.451969E-15	1.040057E-16
6.250000E+03	6.599894E-15	1.067082E-16
6.260000E+03	6.743911E-15	1.093721E-16
6.270000E+03	6.881437E-15	1.119560E-16
6.280000E+03	7.010346E-15	1.144254E-16
6.290000E+03	7.128845E-15	1.167506E-16
6.300000E+03	7.235591E-15	1.189089E-16
6.310000E+03	7.329800E-15	1.208862E-16
6.320000E+03	7.411140E-15	1.226748E-16
6.330000E+03	7.479481E-15	1.242700E-16
6.340000E+03	7.535260E-15	1.256764E-16
6.350000E+03	7.579231E-15	1.269040E-16
6.360000E+03	7.612188E-15	1.279633E-16
6.370000E+03	7.635454E-15	1.288741E-16
6.380000E+03	7.650293E-15	1.296552E-16
6.390000E+03	7.658089E-15	1.303279E-16
6.400000E+03	7.660307E-15	1.309152E-16
6.410000E+03	7.658340E-15	1.314390E-16
6.420000E+03	7.652435E-15	1.319022E-16
6.430000E+03	7.643074E-15	1.323116E-16
6.440000E+03	7.630531E-15	1.326705E-16
6.450000E+03	7.615083E-15	1.329825E-16
6.460000E+03	7.597107E-15	1.332528E-16
6.470000E+03	7.576849E-15	1.334845E-16
6.480000E+03	7.554632E-15	1.336823E-16
6.490000E+03	7.530395E-15	1.338440E-16
6.500000E+03	7.504490E-15	1.339748E-16
6.510000E+03	7.476985E-15	1.340749E-16
6.520000E+03	7.447782E-15	1.341417E-16
6.530000E+03	7.416971E-15	1.341757E-16
6.540000E+03	7.384489E-15	1.341751E-16
6.550000E+03	7.350242E-15	1.341371E-16
6.560000E+03	7.314124E-15	1.340588E-16
6.570000E+03	7.276138E-15	1.339395E-16
6.580000E+03	7.236060E-15	1.337741E-16
6.590000E+03	7.193799E-15	1.335599E-16
6.600000E+03	7.149403E-15	1.332970E-16
6.610000E+03	7.102838E-15	1.329838E-16
6.620000E+03	7.053988E-15	1.326173E-16
6.630000E+03	7.003014E-15	1.321996E-16
6.640000E+03	6.949888E-15	1.317294E-16
6.650000E+03	6.894978E-15	1.312129E-16
6.660000E+03	6.838226E-15	1.306484E-16
6.670000E+03	6.779854E-15	1.300395E-16
6.680000E+03	6.720229E-15	1.293926E-16
6.690000E+03	6.659630E-15	1.287127E-16
6.700000E+03	6.598234E-15	1.280029E-16
6.710000E+03	6.536343E-15	1.272687E-16
6.720000E+03	6.474367E-15	1.265178E-16
6.730000E+03	6.412473E-15	1.257536E-16
6.740000E+03	6.351034E-15	1.249832E-16
6.750000E+03	6.290061E-15	1.242070E-16
6.760000E+03	6.229990E-15	1.234335E-16
6.770000E+03	6.170779E-15	1.226621E-16
6.780000E+03	6.112815E-15	1.219008E-16
6.790000E+03	6.056013E-15	1.211480E-16
6.800000E+03	6.000612E-15	1.204087E-16
6.810000E+03	5.946722E-15	1.196855E-16
6.820000E+03	5.894334E-15	1.189785E-16
6.830000E+03	5.843645E-15	1.182920E-16
6.840000E+03	5.794627E-15	1.176257E-16
6.850000E+03	5.747456E-15	1.169836E-16
6.860000E+03	5.701982E-15	1.163630E-16
6.870000E+03	5.658472E-15	1.157697E-16
6.880000E+03	5.616871E-15	1.152028E-16
6.890000E+03	5.577226E-15	1.146639E-16
6.900000E+03	5.539485E-15	1.141521E-16
6.910000E+03	5.503913E-15	1.136732E-16
6.920000E+03	5.470255E-15	1.132224E-16
6.930000E+03	5.438890E-15	1.128079E-16
6.940000E+03	5.409674E-15	1.124269E-16
6.950000E+03	5.382666E-15	1.120812E-16
6.960000E+03	5.358017E-15	1.117742E-16
6.970000E+03	5.335651E-15	1.115046E-16
6.980000E+03	5.315562E-15	1.112726E-16
6.990000E+03	5.297712E-15	1.110778E-16
7.000000E+03	5.282020E-15	1.109187E-16
7.010000E+03	5.268365E-15	1.107930E-16
7.020000E+03	5.256478E-15	1.106954E-16
7.030000E+03	5.246361E-15	1.106260E-16
7.040000E+03	5.237464E-15	1.105735E-16
7.050000E+03	5.229828E-15	1.105388E-16
7.060000E+03	5.222849E-15	1.105093E-16
7.070000E+03	5.216424E-15	1.104830E-16
7.080000E+03	5.210131E-15	1.104510E-16
7.090000E+03	5.203650E-15	1.104066E-16
7.100000E+03	5.196770E-15	1.103453E-16
7.110000E+03	5.188980E-15	1.102565E-16
7.120000E+03	5.180104E-15	1.101363E-16
7.130000E+03	5.169788E-15	1.099773E-16
7.140000E+03	5.157914E-15	1.097771E-16
7.150000E+03	5.144304E-15	1.095320E-16
7.160000E+03	5.128710E-15	1.092368E-16
7.170000E+03	5.111139E-15	1.088918E-16
7.180000E+03	5.091321E-15	1.084914E-16
7.190000E+03	5.069437E-15	1.080395E-16
7.200000E+03	5.045391E-15	1.075344E-16
7.210000E+03	5.019111E-15	1.069747E-16
7.220000E+03	4.990759E-15	1.063642E-16
7.230000E+03	4.960408E-15	1.057045E-16
7.240000E+03	4.928054E-15	1.049961E-16
7.250000E+03	4.893805E-15	1.042413E-16
7.260000E+03	4.857788E-15	1.034433E-16
7.270000E+03	4.820142E-15	1.026054E-16
7.280000E+03	4.781018E-15	1.017311E-16
7.290000E+03	4.740377E-15	1.008199E-16
7.300000E+03	4.698584E-15	9.988003E-17
7.310000E+03	4.655711E-15	9.891332E-17
7.320000E+03	4.611829E-15	9.792165E-17
7.330000E+03	4.567196E-15	9.691089E-17
7.340000E+03	4.521779E-15	9.588071E-17
7.350000E+03	4.475730E-15	9.483471E-17
7.360000E+03	4.429198E-15	9.377641E-17
7.370000E+03	4.382241E-15	9.270742E-17
7.380000E+03	4.335113E-15	9.163348E-17
7.390000E+03	4.287718E-15	9.055289E-17
7.400000E+03	4.240444E-15	8.947420E-17
7.410000E+03	4.193344E-15	8.839890E-17
7.420000E+03	4.146781E-15	8.733490E-17
7.430000E+03	4.100964E-15	8.628695E-17
7.440000E+03	4.056223E-15	8.526223E-17
7.450000E+03	4.012988E-15	8.427004E-17
7.460000E+03	3.971520E-15	8.331609E-17
7.470000E+03	3.932413E-15	8.241303E-17
7.480000E+03	3.895815E-15	8.156408E-17
7.490000E+03	3.862172E-15	8.077877E-17
7.500000E+03	3.831639E-15	8.006042E-17
7.510000E+03	3.804647E-15	7.941817E-17
7.520000E+03	3.781241E-15	7.885301E-17
7.530000E+03	3.761483E-15	7.836633E-17
7.540000E+03	3.745465E-15	7.796015E-17
7.550000E+03	3.733131E-15	7.763339E-17
7.560000E+03	3.724542E-15	7.738745E-17
7.570000E+03	3.719376E-15	7.721578E-17
7.580000E+03	3.717519E-15	7.711619E-17
7.590000E+03	3.718819E-15	7.708574E-17
7.600000E+03	3.722930E-15	7.711747E-17
7.610000E+03	3.729646E-15	7.720744E-17
7.620000E+03	3.738575E-15	7.734782E-17
7.630000E+03	3.749562E-15	7.753577E-17
7.640000E+03	3.762096E-15	7.776113E-17
7.650000E+03	3.775992E-15	7.802049E-17
7.660000E+03	3.790709E-15	7.830317E-17
7.670000E+03	3.806034E-15	7.860520E-17
7.680000E+03	3.821389E-15	7.891523E-17
7.690000E+03	3.836533E-15	7.922877E-17
7.700000E+03	3.850947E-15	7.953564E-17
7.710000E+03	3.864192E-15	7.982733E-17
7.720000E+03	3.875830E-15	8.009533E-17
7.730000E+03	3.885432E-15	8.033126E-17
7.740000E+03	3.892584E-15	8.052703E-17
7.750000E+03	3.896815E-15	8.067333E-17
7.760000E+03	3.897961E-15	8.076712E-17
