#wls	flux	fluxerr
1.600000E+03	7.488199E-15	2.303325E-16
1.640000E+03	6.313053E-15	1.908829E-16
1.680000E+03	5.276321E-15	1.567563E-16
1.720000E+03	4.375095E-15	1.276628E-16
1.760000E+03	3.601117E-15	1.031610E-16
1.800000E+03	2.945262E-15	8.279871E-17
1.840000E+03	2.397100E-15	6.610438E-17
1.880000E+03	1.944845E-15	5.258980E-17
1.920000E+03	1.576766E-15	4.179173E-17
1.960000E+03	1.281409E-15	3.327815E-17
2.000000E+03	1.047907E-15	2.665595E-17
2.040000E+03	8.667612E-16	2.158912E-17
2.080000E+03	7.293620E-16	1.778367E-17
2.120000E+03	6.292898E-16	1.501646E-17
2.160000E+03	5.637713E-16	1.316362E-17
2.200000E+03	5.313350E-16	1.213770E-17
2.240000E+03	5.325803E-16	1.190192E-17
2.280000E+03	5.718515E-16	1.250197E-17
2.320000E+03	6.571217E-16	1.405526E-17
2.360000E+03	8.017298E-16	1.678000E-17
2.400000E+03	1.026010E-15	2.101854E-17
2.440000E+03	1.357175E-15	2.722284E-17
2.480000E+03	1.826628E-15	3.589088E-17
2.520000E+03	2.462448E-15	4.741736E-17
2.560000E+03	3.278148E-15	6.189047E-17
2.600000E+03	4.258375E-15	7.885643E-17
2.640000E+03	5.353181E-15	9.726577E-17
2.680000E+03	6.525147E-15	1.163677E-16
2.720000E+03	7.779968E-15	1.362186E-16
2.760000E+03	9.147990E-15	1.572915E-16
2.800000E+03	1.066844E-14	1.801736E-16
2.840000E+03	1.236697E-14	2.051825E-16
2.880000E+03	1.423097E-14	2.319871E-16
2.920000E+03	1.619773E-14	2.594739E-16
2.960000E+03	1.816428E-14	2.859715E-16
3.000000E+03	2.001787E-14	3.097735E-16
3.010000E+03	2.045183E-14	3.151364E-16
3.020000E+03	2.087151E-14	3.202316E-16
3.030000E+03	2.127573E-14	3.250448E-16
3.040000E+03	2.166390E-14	3.295704E-16
3.050000E+03	2.203458E-14	3.337903E-16
3.060000E+03	2.238690E-14	3.376957E-16
3.070000E+03	2.272106E-14	3.412934E-16
3.080000E+03	2.303548E-14	3.445640E-16
3.090000E+03	2.333064E-14	3.475192E-16
3.100000E+03	2.360580E-14	3.501518E-16
3.110000E+03	2.386086E-14	3.524649E-16
3.120000E+03	2.409698E-14	3.544799E-16
3.130000E+03	2.431368E-14	3.561939E-16
3.140000E+03	2.451226E-14	3.576297E-16
3.150000E+03	2.469391E-14	3.588081E-16
3.160000E+03	2.486068E-14	3.597620E-16
3.170000E+03	2.501404E-14	3.605154E-16
3.180000E+03	2.515685E-14	3.611117E-16
3.190000E+03	2.529180E-14	3.615914E-16
3.200000E+03	2.542149E-14	3.619930E-16
3.210000E+03	2.554972E-14	3.623713E-16
3.220000E+03	2.568046E-14	3.627830E-16
3.230000E+03	2.581652E-14	3.632673E-16
3.240000E+03	2.596257E-14	3.638891E-16
3.250000E+03	2.612155E-14	3.646878E-16
3.260000E+03	2.629852E-14	3.657319E-16
3.270000E+03	2.649583E-14	3.670517E-16
3.280000E+03	2.671744E-14	3.686987E-16
3.290000E+03	2.696713E-14	3.707214E-16
3.300000E+03	2.724762E-14	3.731531E-16
3.310000E+03	2.756225E-14	3.760353E-16
3.320000E+03	2.791288E-14	3.793886E-16
3.330000E+03	2.830244E-14	3.832476E-16
3.340000E+03	2.873312E-14	3.876372E-16
3.350000E+03	2.920696E-14	3.925793E-16
3.360000E+03	2.972568E-14	3.980914E-16
3.370000E+03	3.029029E-14	4.041819E-16
3.380000E+03	3.090192E-14	4.108601E-16
3.390000E+03	3.156129E-14	4.181304E-16
3.400000E+03	3.226868E-14	4.259912E-16
3.410000E+03	3.302337E-14	4.344278E-16
3.420000E+03	3.382440E-14	4.434230E-16
3.430000E+03	3.466999E-14	4.529493E-16
3.440000E+03	3.555695E-14	4.629610E-16
3.450000E+03	3.648136E-14	4.734042E-16
3.460000E+03	3.743799E-14	4.842088E-16
3.470000E+03	3.841909E-14	4.952731E-16
3.480000E+03	3.941674E-14	5.064951E-16
3.490000E+03	4.042073E-14	5.177446E-16
3.500000E+03	4.141914E-14	5.288718E-16
3.510000E+03	4.239877E-14	5.397118E-16
3.520000E+03	4.334384E-14	5.500701E-16
3.530000E+03	4.423831E-14	5.597494E-16
3.540000E+03	4.506471E-14	5.685356E-16
3.550000E+03	4.580533E-14	5.762137E-16
3.560000E+03	4.644285E-14	5.825755E-16
3.570000E+03	4.696125E-14	5.874313E-16
3.580000E+03	4.734606E-14	5.906124E-16
3.590000E+03	4.758683E-14	5.920016E-16
3.600000E+03	4.767583E-14	5.915163E-16
3.610000E+03	4.761067E-14	5.891408E-16
3.620000E+03	4.739220E-14	5.848990E-16
3.630000E+03	4.702819E-14	5.788996E-16
3.640000E+03	4.652872E-14	5.712786E-16
3.650000E+03	4.591031E-14	5.622488E-16
3.660000E+03	4.519227E-14	5.520556E-16
3.670000E+03	4.439791E-14	5.409899E-16
3.680000E+03	4.355125E-14	5.293490E-16
3.690000E+03	4.267881E-14	5.174573E-16
3.700000E+03	4.180652E-14	5.056289E-16
3.710000E+03	4.096047E-14	4.941771E-16
3.720000E+03	4.016475E-14	4.833880E-16
3.730000E+03	3.944275E-14	4.735367E-16
3.740000E+03	3.881424E-14	4.648520E-16
3.750000E+03	3.829808E-14	4.575504E-16
3.760000E+03	3.791000E-14	4.518083E-16
3.770000E+03	3.766359E-14	4.477756E-16
3.780000E+03	3.756978E-14	4.455685E-16
3.790000E+03	3.763779E-14	4.452826E-16
3.800000E+03	3.787352E-14	4.469727E-16
3.810000E+03	3.828158E-14	4.506780E-16
3.820000E+03	3.886376E-14	4.564042E-16
3.830000E+03	3.961935E-14	4.641274E-16
3.840000E+03	4.054489E-14	4.737918E-16
3.850000E+03	4.163364E-14	4.853035E-16
3.860000E+03	4.287693E-14	4.985473E-16
3.870000E+03	4.426226E-14	5.133644E-16
3.880000E+03	4.577367E-14	5.295575E-16
3.890000E+03	4.739312E-14	5.469073E-16
3.900000E+03	4.909966E-14	5.651630E-16
3.910000E+03	5.087078E-14	5.840584E-16
3.920000E+03	5.268177E-14	6.033050E-16
3.930000E+03	5.450857E-14	6.226248E-16
3.940000E+03	5.632596E-14	6.417291E-16
3.950000E+03	5.811090E-14	6.603577E-16
3.960000E+03	5.984041E-14	6.782536E-16
3.970000E+03	6.149386E-14	6.951892E-16
3.980000E+03	6.305388E-14	7.109766E-16
3.990000E+03	6.450396E-14	7.254394E-16
4.000000E+03	6.583096E-14	7.384416E-16
4.010000E+03	6.702349E-14	7.498677E-16
4.020000E+03	6.807263E-14	7.596322E-16
4.030000E+03	6.897074E-14	7.676643E-16
4.040000E+03	6.971168E-14	7.739109E-16
4.050000E+03	7.029127E-14	7.783416E-16
4.060000E+03	7.070667E-14	7.809414E-16
4.070000E+03	7.095468E-14	7.816910E-16
4.080000E+03	7.103649E-14	7.806203E-16
4.090000E+03	7.095202E-14	7.777445E-16
4.100000E+03	7.070544E-14	7.731254E-16
4.110000E+03	7.030125E-14	7.668273E-16
4.120000E+03	6.974725E-14	7.589502E-16
4.130000E+03	6.905296E-14	7.496110E-16
4.140000E+03	6.823008E-14	7.389491E-16
4.150000E+03	6.729237E-14	7.271247E-16
4.160000E+03	6.625540E-14	7.143153E-16
4.170000E+03	6.513680E-14	7.007190E-16
4.180000E+03	6.395470E-14	6.865368E-16
4.190000E+03	6.272745E-14	6.719703E-16
4.200000E+03	6.147418E-14	6.572271E-16
4.210000E+03	6.021375E-14	6.425102E-16
4.220000E+03	5.896487E-14	6.280189E-16
4.230000E+03	5.774412E-14	6.139287E-16
4.240000E+03	5.656712E-14	6.004030E-16
4.250000E+03	5.544718E-14	5.875799E-16
4.260000E+03	5.439643E-14	5.755843E-16
4.270000E+03	5.342377E-14	5.645062E-16
4.280000E+03	5.253614E-14	5.544148E-16
4.290000E+03	5.173792E-14	5.453522E-16
4.300000E+03	5.103012E-14	5.373254E-16
4.310000E+03	5.041290E-14	5.303330E-16
4.320000E+03	4.988235E-14	5.243310E-16
4.330000E+03	4.943301E-14	5.192586E-16
4.340000E+03	4.905673E-14	5.150256E-16
4.350000E+03	4.874445E-14	5.115325E-16
4.360000E+03	4.848295E-14	5.086371E-16
4.370000E+03	4.826459E-14	5.062561E-16
4.380000E+03	4.809571E-14	5.044535E-16
4.390000E+03	4.798403E-14	5.033079E-16
4.400000E+03	4.793546E-14	5.028793E-16
4.410000E+03	4.795336E-14	5.032015E-16
4.420000E+03	4.803979E-14	5.042949E-16
4.430000E+03	4.819312E-14	5.061405E-16
4.440000E+03	4.841122E-14	5.087144E-16
4.450000E+03	4.868870E-14	5.119583E-16
4.460000E+03	4.901861E-14	5.157978E-16
4.470000E+03	4.939297E-14	5.201477E-16
4.480000E+03	4.979973E-14	5.248800E-16
4.490000E+03	5.022508E-14	5.298473E-16
4.500000E+03	5.065022E-14	5.348491E-16
4.510000E+03	5.105789E-14	5.397008E-16
4.520000E+03	5.142939E-14	5.442012E-16
4.530000E+03	5.174709E-14	5.481598E-16
4.540000E+03	5.199443E-14	5.513964E-16
4.550000E+03	5.215580E-14	5.537399E-16
4.560000E+03	5.221974E-14	5.550626E-16
4.570000E+03	5.217574E-14	5.552463E-16
4.580000E+03	5.201741E-14	5.542158E-16
4.590000E+03	5.174165E-14	5.519310E-16
4.600000E+03	5.134874E-14	5.483880E-16
4.610000E+03	5.084172E-14	5.436122E-16
4.620000E+03	5.022663E-14	5.376615E-16
4.630000E+03	4.951250E-14	5.306268E-16
4.640000E+03	4.871046E-14	5.226219E-16
4.650000E+03	4.783317E-14	5.137779E-16
4.660000E+03	4.689339E-14	5.042281E-16
4.670000E+03	4.590558E-14	4.941249E-16
4.680000E+03	4.488326E-14	4.836117E-16
4.690000E+03	4.383947E-14	4.728274E-16
4.700000E+03	4.278679E-14	4.619070E-16
4.710000E+03	4.173630E-14	4.509698E-16
4.720000E+03	4.069785E-14	4.401229E-16
4.730000E+03	3.968002E-14	4.294595E-16
4.740000E+03	3.869007E-14	4.190596E-16
4.750000E+03	3.773407E-14	4.089901E-16
4.760000E+03	3.681696E-14	3.993064E-16
4.770000E+03	3.594270E-14	3.900529E-16
4.780000E+03	3.511406E-14	3.812616E-16
4.790000E+03	3.433379E-14	3.729641E-16
4.800000E+03	3.360306E-14	3.651749E-16
4.810000E+03	3.292391E-14	3.579176E-16
4.820000E+03	3.229667E-14	3.511977E-16
4.830000E+03	3.172237E-14	3.450276E-16
4.840000E+03	3.120145E-14	3.394136E-16
4.850000E+03	3.073352E-14	3.343525E-16
4.860000E+03	3.031923E-14	3.298526E-16
4.870000E+03	2.995816E-14	3.259101E-16
4.880000E+03	2.965035E-14	3.225260E-16
4.890000E+03	2.939449E-14	3.196869E-16
4.900000E+03	2.919098E-14	3.173971E-16
4.910000E+03	2.903862E-14	3.156440E-16
4.920000E+03	2.893705E-14	3.144239E-16
4.930000E+03	2.888531E-14	3.137258E-16
4.940000E+03	2.888291E-14	3.135445E-16
4.950000E+03	2.892853E-14	3.138650E-16
4.960000E+03	2.902152E-14	3.146799E-16
4.970000E+03	2.916112E-14	3.159805E-16
4.980000E+03	2.934545E-14	3.177454E-16
4.990000E+03	2.957280E-14	3.199556E-16
5.000000E+03	2.984122E-14	3.225891E-16
5.010000E+03	3.014781E-14	3.256137E-16
5.020000E+03	3.048820E-14	3.289817E-16
5.030000E+03	3.085797E-14	3.326446E-16
5.040000E+03	3.125129E-14	3.365392E-16
5.050000E+03	3.166119E-14	3.405904E-16
5.060000E+03	3.207929E-14	3.447080E-16
5.070000E+03	3.249643E-14	3.487942E-16
5.080000E+03	3.290298E-14	3.527468E-16
5.090000E+03	3.328773E-14	3.564469E-16
5.100000E+03	3.364024E-14	3.597849E-16
5.110000E+03	3.394959E-14	3.626468E-16
5.120000E+03	3.420590E-14	3.649304E-16
5.130000E+03	3.440045E-14	3.665463E-16
5.140000E+03	3.452612E-14	3.674230E-16
5.150000E+03	3.457750E-14	3.675075E-16
5.160000E+03	3.455215E-14	3.667789E-16
5.170000E+03	3.444912E-14	3.652320E-16
5.180000E+03	3.427104E-14	3.628998E-16
5.190000E+03	3.402232E-14	3.598336E-16
5.200000E+03	3.370996E-14	3.561120E-16
5.210000E+03	3.334286E-14	3.518330E-16
5.220000E+03	3.293140E-14	3.471099E-16
5.230000E+03	3.248630E-14	3.420585E-16
5.240000E+03	3.202012E-14	3.368136E-16
5.250000E+03	3.154374E-14	3.314915E-16
5.260000E+03	3.106920E-14	3.262202E-16
5.270000E+03	3.060634E-14	3.211039E-16
5.280000E+03	3.016473E-14	3.162439E-16
5.290000E+03	2.975177E-14	3.117182E-16
5.300000E+03	2.937323E-14	3.075876E-16
5.310000E+03	2.903367E-14	3.039004E-16
5.320000E+03	2.873498E-14	3.006767E-16
5.330000E+03	2.847820E-14	2.979281E-16
5.340000E+03	2.826217E-14	2.956434E-16
5.350000E+03	2.808429E-14	2.937965E-16
5.360000E+03	2.794102E-14	2.923517E-16
5.370000E+03	2.782779E-14	2.912629E-16
5.380000E+03	2.773936E-14	2.904769E-16
5.390000E+03	2.766939E-14	2.899293E-16
5.400000E+03	2.761215E-14	2.895620E-16
5.410000E+03	2.756135E-14	2.893096E-16
5.420000E+03	2.751155E-14	2.891153E-16
5.430000E+03	2.746173E-14	2.889681E-16
5.440000E+03	2.741735E-14	2.889245E-16
5.450000E+03	2.738655E-14	2.890692E-16
5.460000E+03	2.737907E-14	2.895045E-16
5.470000E+03	2.740146E-14	2.902997E-16
5.480000E+03	2.745761E-14	2.914967E-16
5.490000E+03	2.755038E-14	2.931271E-16
5.500000E+03	2.768168E-14	2.952129E-16
5.510000E+03	2.785256E-14	2.977675E-16
5.520000E+03	2.806073E-14	3.007688E-16
5.530000E+03	2.830365E-14	3.041920E-16
5.540000E+03	2.857558E-14	3.079778E-16
5.550000E+03	2.887004E-14	3.120584E-16
5.560000E+03	2.917928E-14	3.163517E-16
5.570000E+03	2.949471E-14	3.207653E-16
5.580000E+03	2.980663E-14	3.251938E-16
5.590000E+03	3.010597E-14	3.295371E-16
5.600000E+03	3.038409E-14	3.336987E-16
5.610000E+03	3.063297E-14	3.375871E-16
5.620000E+03	3.084585E-14	3.411237E-16
5.630000E+03	3.101818E-14	3.442531E-16
5.640000E+03	3.114621E-14	3.469282E-16
5.650000E+03	3.122875E-14	3.491291E-16
5.660000E+03	3.126609E-14	3.508526E-16
5.670000E+03	3.126058E-14	3.521185E-16
5.680000E+03	3.121578E-14	3.529604E-16
5.690000E+03	3.113648E-14	3.534267E-16
5.700000E+03	3.102875E-14	3.535807E-16
5.710000E+03	3.089925E-14	3.534937E-16
5.720000E+03	3.075429E-14	3.532342E-16
5.730000E+03	3.060077E-14	3.528785E-16
5.740000E+03	3.044496E-14	3.524972E-16
5.750000E+03	3.029255E-14	3.521549E-16
5.760000E+03	3.014910E-14	3.519164E-16
5.770000E+03	3.001796E-14	3.518211E-16
5.780000E+03	2.990266E-14	3.519119E-16
5.790000E+03	2.980463E-14	3.522070E-16
5.800000E+03	2.972470E-14	3.527184E-16
5.810000E+03	2.966214E-14	3.534396E-16
5.820000E+03	2.961500E-14	3.543491E-16
5.830000E+03	2.958042E-14	3.554147E-16
5.840000E+03	2.955378E-14	3.565822E-16
5.850000E+03	2.953003E-14	3.577912E-16
5.860000E+03	2.950289E-14	3.589656E-16
5.870000E+03	2.946495E-14	3.600141E-16
5.880000E+03	2.940917E-14	3.608486E-16
5.890000E+03	2.932684E-14	3.613588E-16
5.900000E+03	2.921040E-14	3.614469E-16
5.910000E+03	2.905150E-14	3.610039E-16
5.920000E+03	2.884256E-14	3.599283E-16
5.930000E+03	2.857719E-14	3.581319E-16
5.940000E+03	2.824919E-14	3.555277E-16
5.950000E+03	2.785490E-14	3.520593E-16
5.960000E+03	2.739248E-14	3.476924E-16
5.970000E+03	2.686135E-14	3.424083E-16
5.980000E+03	2.626408E-14	3.362286E-16
5.990000E+03	2.560539E-14	3.292027E-16
6.000000E+03	2.489198E-14	3.214066E-16
6.010000E+03	2.413302E-14	3.129497E-16
6.020000E+03	2.333943E-14	3.039661E-16
6.030000E+03	2.252331E-14	2.946077E-16
6.040000E+03	2.169785E-14	2.850433E-16
6.050000E+03	2.087684E-14	2.754525E-16
6.060000E+03	2.007287E-14	2.660022E-16
6.070000E+03	1.929905E-14	2.568693E-16
6.080000E+03	1.856625E-14	2.482034E-16
6.090000E+03	1.788507E-14	2.401535E-16
6.100000E+03	1.726343E-14	2.328349E-16
6.110000E+03	1.670850E-14	2.263548E-16
6.120000E+03	1.622516E-14	2.207909E-16
6.130000E+03	1.581738E-14	2.162101E-16
6.140000E+03	1.548707E-14	2.126522E-16
6.150000E+03	1.523510E-14	2.101432E-16
6.160000E+03	1.506150E-14	2.086982E-16
6.170000E+03	1.496474E-14	2.083105E-16
6.180000E+03	1.494282E-14	2.089672E-16
6.190000E+03	1.499263E-14	2.106392E-16
6.200000E+03	1.511013E-14	2.132838E-16
6.210000E+03	1.529030E-14	2.168440E-16
6.220000E+03	1.552759E-14	2.212537E-16
6.230000E+03	1.581507E-14	2.264255E-16
6.240000E+03	1.614512E-14	2.322603E-16
6.250000E+03	1.650928E-14	2.386443E-16
6.260000E+03	1.689883E-14	2.454584E-16
6.270000E+03	1.730378E-14	2.525622E-16
6.280000E+03	1.771438E-14	2.598158E-16
6.290000E+03	1.812129E-14	2.670829E-16
6.300000E+03	1.851549E-14	2.742294E-16
6.310000E+03	1.888867E-14	2.811282E-16
6.320000E+03	1.923370E-14	2.876683E-16
6.330000E+03	1.954552E-14	2.937672E-16
6.340000E+03	1.981998E-14	2.993545E-16
6.350000E+03	2.005522E-14	3.043933E-16
6.360000E+03	2.025090E-14	3.088692E-16
6.370000E+03	2.040825E-14	3.127918E-16
6.380000E+03	2.052993E-14	3.161931E-16
6.390000E+03	2.061978E-14	3.191236E-16
6.400000E+03	2.068249E-14	3.216487E-16
6.410000E+03	2.072176E-14	3.238192E-16
6.420000E+03	2.073901E-14	3.256518E-16
6.430000E+03	2.073512E-14	3.271548E-16
6.440000E+03	2.071132E-14	3.283420E-16
6.450000E+03	2.066886E-14	3.292284E-16
6.460000E+03	2.060834E-14	3.298188E-16
6.470000E+03	2.053120E-14	3.301318E-16
6.480000E+03	2.043824E-14	3.301757E-16
6.490000E+03	2.033047E-14	3.299630E-16
6.500000E+03	2.020826E-14	3.294960E-16
6.510000E+03	2.007290E-14	3.287920E-16
6.520000E+03	1.992470E-14	3.278528E-16
6.530000E+03	1.976464E-14	3.266910E-16
6.540000E+03	1.959305E-14	3.253096E-16
6.550000E+03	1.941095E-14	3.237222E-16
6.560000E+03	1.921934E-14	3.219433E-16
6.570000E+03	1.901836E-14	3.199728E-16
6.580000E+03	1.880910E-14	3.178267E-16
6.590000E+03	1.859266E-14	3.155219E-16
6.600000E+03	1.836930E-14	3.130611E-16
6.610000E+03	1.814050E-14	3.104677E-16
6.620000E+03	1.790656E-14	3.077458E-16
6.630000E+03	1.766897E-14	3.049202E-16
6.640000E+03	1.742809E-14	3.019961E-16
6.650000E+03	1.718514E-14	2.989940E-16
6.660000E+03	1.694104E-14	2.959297E-16
6.670000E+03	1.669638E-14	2.928134E-16
6.680000E+03	1.645234E-14	2.896659E-16
6.690000E+03	1.620948E-14	2.864972E-16
6.700000E+03	1.596858E-14	2.833218E-16
6.710000E+03	1.573070E-14	2.801589E-16
6.720000E+03	1.549624E-14	2.770165E-16
6.730000E+03	1.526556E-14	2.739021E-16
6.740000E+03	1.503981E-14	2.708371E-16
6.750000E+03	1.481895E-14	2.678222E-16
6.760000E+03	1.460369E-14	2.648715E-16
6.770000E+03	1.439444E-14	2.619934E-16
6.780000E+03	1.419122E-14	2.591902E-16
6.790000E+03	1.399433E-14	2.564684E-16
6.800000E+03	1.380394E-14	2.538329E-16
6.810000E+03	1.362045E-14	2.512921E-16
6.820000E+03	1.344370E-14	2.488449E-16
6.830000E+03	1.327349E-14	2.464890E-16
6.840000E+03	1.311006E-14	2.442303E-16
6.850000E+03	1.295338E-14	2.420697E-16
6.860000E+03	1.280337E-14	2.400072E-16
6.870000E+03	1.265975E-14	2.380386E-16
6.880000E+03	1.252239E-14	2.361632E-16
6.890000E+03	1.239140E-14	2.343843E-16
6.900000E+03	1.226644E-14	2.326965E-16
6.910000E+03	1.214736E-14	2.310984E-16
6.920000E+03	1.203401E-14	2.295883E-16
6.930000E+03	1.192624E-14	2.281642E-16
6.940000E+03	1.182388E-14	2.268244E-16
6.950000E+03	1.172675E-14	2.255662E-16
6.960000E+03	1.163445E-14	2.243830E-16
6.970000E+03	1.154679E-14	2.232720E-16
6.980000E+03	1.146379E-14	2.222345E-16
6.990000E+03	1.138521E-14	2.212667E-16
7.000000E+03	1.131039E-14	2.203565E-16
7.010000E+03	1.123950E-14	2.195081E-16
7.020000E+03	1.117204E-14	2.187124E-16
7.030000E+03	1.110772E-14	2.179645E-16
7.040000E+03	1.104599E-14	2.172540E-16
7.050000E+03	1.098672E-14	2.165788E-16
7.060000E+03	1.092951E-14	2.159316E-16
7.070000E+03	1.087396E-14	2.153051E-16
7.080000E+03	1.081941E-14	2.146863E-16
7.090000E+03	1.076538E-14	2.140662E-16
7.100000E+03	1.071161E-14	2.134395E-16
7.110000E+03	1.065735E-14	2.127920E-16
7.120000E+03	1.060186E-14	2.121087E-16
7.130000E+03	1.054503E-14	2.113873E-16
7.140000E+03	1.048610E-14	2.106127E-16
7.150000E+03	1.042453E-14	2.097743E-16
7.160000E+03	1.035961E-14	2.088572E-16
7.170000E+03	1.029103E-14	2.078554E-16
7.180000E+03	1.021835E-14	2.067595E-16
7.190000E+03	1.014094E-14	2.055566E-16
7.200000E+03	1.005844E-14	2.042392E-16
7.210000E+03	9.970756E-15	2.028052E-16
7.220000E+03	9.877470E-15	2.012457E-16
7.230000E+03	9.778441E-15	1.995575E-16
7.240000E+03	9.673619E-15	1.977393E-16
7.250000E+03	9.563044E-15	1.957917E-16
7.260000E+03	9.446660E-15	1.937132E-16
7.270000E+03	9.325098E-15	1.915166E-16
7.280000E+03	9.198494E-15	1.892044E-16
7.290000E+03	9.066892E-15	1.867774E-16
7.300000E+03	8.931386E-15	1.842581E-16
7.310000E+03	8.792007E-15	1.816471E-16
7.320000E+03	8.649804E-15	1.789659E-16
7.330000E+03	8.505323E-15	1.762260E-16
7.340000E+03	8.359352E-15	1.734439E-16
7.350000E+03	8.212534E-15	1.706331E-16
7.360000E+03	8.065725E-15	1.678116E-16
7.370000E+03	7.919790E-15	1.649977E-16
7.380000E+03	7.775597E-15	1.622100E-16
7.390000E+03	7.633672E-15	1.594597E-16
7.400000E+03	7.495028E-15	1.567687E-16
7.410000E+03	7.360158E-15	1.541476E-16
7.420000E+03	7.229694E-15	1.516103E-16
7.430000E+03	7.104227E-15	1.491698E-16
7.440000E+03	6.984611E-15	1.468447E-16
7.450000E+03	6.871475E-15	1.446489E-16
7.460000E+03	6.765684E-15	1.426013E-16
7.470000E+03	6.668013E-15	1.407191E-16
7.480000E+03	6.578716E-15	1.390085E-16
7.490000E+03	6.498267E-15	1.374803E-16
7.500000E+03	6.427201E-15	1.361468E-16
7.510000E+03	6.365400E-15	1.350063E-16
7.520000E+03	6.313245E-15	1.340679E-16
7.530000E+03	6.270759E-15	1.333329E-16
7.540000E+03	6.237889E-15	1.328012E-16
7.550000E+03	6.214523E-15	1.324713E-16
7.560000E+03	6.200484E-15	1.323404E-16
7.570000E+03	6.195684E-15	1.324075E-16
7.580000E+03	6.199699E-15	1.326644E-16
7.590000E+03	6.212347E-15	1.331083E-16
7.600000E+03	6.233121E-15	1.337291E-16
7.610000E+03	6.261768E-15	1.345224E-16
7.620000E+03	6.297863E-15	1.354798E-16
7.630000E+03	6.340808E-15	1.365894E-16
7.640000E+03	6.390274E-15	1.378449E-16
7.650000E+03	6.445767E-15	1.392365E-16
7.660000E+03	6.506618E-15	1.407505E-16
7.670000E+03	6.572437E-15	1.423794E-16
7.680000E+03	6.642503E-15	1.441083E-16
7.690000E+03	6.716539E-15	1.459318E-16
7.700000E+03	6.793607E-15	1.478303E-16
7.710000E+03	6.873208E-15	1.497937E-16
7.720000E+03	6.954487E-15	1.518038E-16
7.730000E+03	7.036876E-15	1.538489E-16
7.740000E+03	7.119615E-15	1.559128E-16
7.750000E+03	7.201904E-15	1.579785E-16
7.760000E+03	7.282746E-15	1.600245E-16
