#wls	flux	fluxerr
1.600000E+03	4.080935E-15	1.570215E-16
1.640000E+03	3.400626E-15	1.287203E-16
1.680000E+03	2.820925E-15	1.050048E-16
1.720000E+03	2.330816E-15	8.528996E-17
1.760000E+03	1.920056E-15	6.904335E-17
1.800000E+03	1.578467E-15	5.575848E-17
1.840000E+03	1.296529E-15	4.497587E-17
1.880000E+03	1.065630E-15	3.628997E-17
1.920000E+03	8.778001E-16	2.933784E-17
1.960000E+03	7.262304E-16	2.381431E-17
2.000000E+03	6.050028E-16	1.946001E-17
2.040000E+03	5.089984E-16	1.605569E-17
2.080000E+03	4.343877E-16	1.343502E-17
2.120000E+03	3.783630E-16	1.147250E-17
2.160000E+03	3.393911E-16	1.008790E-17
2.200000E+03	3.166148E-16	9.225070E-18
2.240000E+03	3.100400E-16	8.855425E-18
2.280000E+03	3.206995E-16	8.980269E-18
2.320000E+03	3.507156E-16	9.629996E-18
2.360000E+03	4.038776E-16	1.087724E-17
2.400000E+03	4.863085E-16	1.285092E-17
2.440000E+03	6.069695E-16	1.574431E-17
2.480000E+03	7.776168E-16	1.980832E-17
2.520000E+03	1.012064E-15	2.532767E-17
2.560000E+03	1.324266E-15	3.257113E-17
2.600000E+03	1.724990E-15	4.171224E-17
2.640000E+03	2.218403E-15	5.275567E-17
2.680000E+03	2.801414E-15	6.553492E-17
2.720000E+03	3.463863E-15	7.972992E-17
2.760000E+03	4.188837E-15	9.488595E-17
2.800000E+03	4.952681E-15	1.104244E-16
2.840000E+03	5.726999E-15	1.256967E-16
2.880000E+03	6.482809E-15	1.400807E-16
2.920000E+03	7.194046E-15	1.530546E-16
2.960000E+03	7.842911E-15	1.643027E-16
3.000000E+03	8.419152E-15	1.736868E-16
3.010000E+03	8.551491E-15	1.757435E-16
3.020000E+03	8.679042E-15	1.776851E-16
3.030000E+03	8.801988E-15	1.795166E-16
3.040000E+03	8.920296E-15	1.812386E-16
3.050000E+03	9.033972E-15	1.828526E-16
3.060000E+03	9.143255E-15	1.843646E-16
3.070000E+03	9.248397E-15	1.857808E-16
3.080000E+03	9.349240E-15	1.870994E-16
3.090000E+03	9.446294E-15	1.883317E-16
3.100000E+03	9.539421E-15	1.894760E-16
3.110000E+03	9.629169E-15	1.905442E-16
3.120000E+03	9.715425E-15	1.915352E-16
3.130000E+03	9.798747E-15	1.924608E-16
3.140000E+03	9.879043E-15	1.933203E-16
3.150000E+03	9.956679E-15	1.941216E-16
3.160000E+03	1.003200E-14	1.948723E-16
3.170000E+03	1.010495E-14	1.955721E-16
3.180000E+03	1.017610E-14	1.962327E-16
3.190000E+03	1.024560E-14	1.968573E-16
3.200000E+03	1.031361E-14	1.974495E-16
3.210000E+03	1.038050E-14	1.980166E-16
3.220000E+03	1.044641E-14	1.985617E-16
3.230000E+03	1.051172E-14	1.990920E-16
3.240000E+03	1.057657E-14	1.996107E-16
3.250000E+03	1.064113E-14	2.001210E-16
3.260000E+03	1.070576E-14	2.006296E-16
3.270000E+03	1.077078E-14	2.011430E-16
3.280000E+03	1.083618E-14	2.016604E-16
3.290000E+03	1.090210E-14	2.021850E-16
3.300000E+03	1.096907E-14	2.027263E-16
3.310000E+03	1.103705E-14	2.032835E-16
3.320000E+03	1.110636E-14	2.038625E-16
3.330000E+03	1.117716E-14	2.044660E-16
3.340000E+03	1.124940E-14	2.050932E-16
3.350000E+03	1.132340E-14	2.057495E-16
3.360000E+03	1.139946E-14	2.064402E-16
3.370000E+03	1.147735E-14	2.071613E-16
3.380000E+03	1.155735E-14	2.079175E-16
3.390000E+03	1.163960E-14	2.087110E-16
3.400000E+03	1.172416E-14	2.095428E-16
3.410000E+03	1.181080E-14	2.104088E-16
3.420000E+03	1.189993E-14	2.113159E-16
3.430000E+03	1.199129E-14	2.122596E-16
3.440000E+03	1.208482E-14	2.132386E-16
3.450000E+03	1.218076E-14	2.142569E-16
3.460000E+03	1.227881E-14	2.153095E-16
3.470000E+03	1.237917E-14	2.163996E-16
3.480000E+03	1.248202E-14	2.175305E-16
3.490000E+03	1.258746E-14	2.187036E-16
3.500000E+03	1.269571E-14	2.199230E-16
3.510000E+03	1.280708E-14	2.211937E-16
3.520000E+03	1.292153E-14	2.225150E-16
3.530000E+03	1.303958E-14	2.238960E-16
3.540000E+03	1.316138E-14	2.253383E-16
3.550000E+03	1.328678E-14	2.268386E-16
3.560000E+03	1.341579E-14	2.283962E-16
3.570000E+03	1.354851E-14	2.300121E-16
3.580000E+03	1.368466E-14	2.316806E-16
3.590000E+03	1.382409E-14	2.333982E-16
3.600000E+03	1.396678E-14	2.351642E-16
3.610000E+03	1.411262E-14	2.369754E-16
3.620000E+03	1.426214E-14	2.388403E-16
3.630000E+03	1.441570E-14	2.407638E-16
3.640000E+03	1.457418E-14	2.427598E-16
3.650000E+03	1.473812E-14	2.448363E-16
3.660000E+03	1.490841E-14	2.470067E-16
3.670000E+03	1.508612E-14	2.492876E-16
3.680000E+03	1.527213E-14	2.516922E-16
3.690000E+03	1.546780E-14	2.542412E-16
3.700000E+03	1.567417E-14	2.569501E-16
3.710000E+03	1.589247E-14	2.598371E-16
3.720000E+03	1.612425E-14	2.629256E-16
3.730000E+03	1.637081E-14	2.662346E-16
3.740000E+03	1.663361E-14	2.697855E-16
3.750000E+03	1.691395E-14	2.735965E-16
3.760000E+03	1.721318E-14	2.776869E-16
3.770000E+03	1.753254E-14	2.820739E-16
3.780000E+03	1.787284E-14	2.867671E-16
3.790000E+03	1.823525E-14	2.917821E-16
3.800000E+03	1.862022E-14	2.971230E-16
3.810000E+03	1.902793E-14	3.027888E-16
3.820000E+03	1.945847E-14	3.087778E-16
3.830000E+03	1.991126E-14	3.150770E-16
3.840000E+03	2.038543E-14	3.216694E-16
3.850000E+03	2.087954E-14	3.285292E-16
3.860000E+03	2.139209E-14	3.356291E-16
3.870000E+03	2.192081E-14	3.429312E-16
3.880000E+03	2.246328E-14	3.503949E-16
3.890000E+03	2.301679E-14	3.579756E-16
3.900000E+03	2.357824E-14	3.656234E-16
3.910000E+03	2.414458E-14	3.732896E-16
3.920000E+03	2.471274E-14	3.809257E-16
3.930000E+03	2.527971E-14	3.884851E-16
3.940000E+03	2.584223E-14	3.959177E-16
3.950000E+03	2.639811E-14	4.031902E-16
3.960000E+03	2.694442E-14	4.102590E-16
3.970000E+03	2.747960E-14	4.171017E-16
3.980000E+03	2.800168E-14	4.236901E-16
3.990000E+03	2.850946E-14	4.300078E-16
4.000000E+03	2.900194E-14	4.360420E-16
4.010000E+03	2.947888E-14	4.417918E-16
4.020000E+03	2.993944E-14	4.472470E-16
4.030000E+03	3.038417E-14	4.524187E-16
4.040000E+03	3.081261E-14	4.573028E-16
4.050000E+03	3.122532E-14	4.619105E-16
4.060000E+03	3.162236E-14	4.662459E-16
4.070000E+03	3.200400E-14	4.703157E-16
4.080000E+03	3.236956E-14	4.741132E-16
4.090000E+03	3.271938E-14	4.776470E-16
4.100000E+03	3.305255E-14	4.809069E-16
4.110000E+03	3.336807E-14	4.838821E-16
4.120000E+03	3.366491E-14	4.865615E-16
4.130000E+03	3.394140E-14	4.889252E-16
4.140000E+03	3.419560E-14	4.909497E-16
4.150000E+03	3.442586E-14	4.926161E-16
4.160000E+03	3.462926E-14	4.938877E-16
4.170000E+03	3.480386E-14	4.947425E-16
4.180000E+03	3.494721E-14	4.951513E-16
4.190000E+03	3.505694E-14	4.950872E-16
4.200000E+03	3.513152E-14	4.945347E-16
4.210000E+03	3.516893E-14	4.934722E-16
4.220000E+03	3.516844E-14	4.918965E-16
4.230000E+03	3.512908E-14	4.898006E-16
4.240000E+03	3.505161E-14	4.872021E-16
4.250000E+03	3.493667E-14	4.841163E-16
4.260000E+03	3.478589E-14	4.805724E-16
4.270000E+03	3.460161E-14	4.766083E-16
4.280000E+03	3.438714E-14	4.722752E-16
4.290000E+03	3.414613E-14	4.676281E-16
4.300000E+03	3.388307E-14	4.627324E-16
4.310000E+03	3.360239E-14	4.576521E-16
4.320000E+03	3.330996E-14	4.524701E-16
4.330000E+03	3.301071E-14	4.472552E-16
4.340000E+03	3.271074E-14	4.420912E-16
4.350000E+03	3.241652E-14	4.370662E-16
4.360000E+03	3.213418E-14	4.322629E-16
4.370000E+03	3.187111E-14	4.277795E-16
4.380000E+03	3.163415E-14	4.237052E-16
4.390000E+03	3.143017E-14	4.201273E-16
4.400000E+03	3.126575E-14	4.171292E-16
4.410000E+03	3.114642E-14	4.147795E-16
4.420000E+03	3.107642E-14	4.131299E-16
4.430000E+03	3.105862E-14	4.122136E-16
4.440000E+03	3.109459E-14	4.120467E-16
4.450000E+03	3.118378E-14	4.126176E-16
4.460000E+03	3.132428E-14	4.138971E-16
4.470000E+03	3.151345E-14	4.158466E-16
4.480000E+03	3.174583E-14	4.183908E-16
4.490000E+03	3.201563E-14	4.214496E-16
4.500000E+03	3.231530E-14	4.249202E-16
4.510000E+03	3.263661E-14	4.286918E-16
4.520000E+03	3.296989E-14	4.326348E-16
4.530000E+03	3.330517E-14	4.366164E-16
4.540000E+03	3.363146E-14	4.404909E-16
4.550000E+03	3.393780E-14	4.441132E-16
4.560000E+03	3.421371E-14	4.473451E-16
4.570000E+03	3.444867E-14	4.500482E-16
4.580000E+03	3.463391E-14	4.521072E-16
4.590000E+03	3.476083E-14	4.534094E-16
4.600000E+03	3.482324E-14	4.538738E-16
4.610000E+03	3.481653E-14	4.534399E-16
4.620000E+03	3.473803E-14	4.520732E-16
4.630000E+03	3.458716E-14	4.497659E-16
4.640000E+03	3.436530E-14	4.465365E-16
4.650000E+03	3.407520E-14	4.424207E-16
4.660000E+03	3.372208E-14	4.374866E-16
4.670000E+03	3.331230E-14	4.318171E-16
4.680000E+03	3.285243E-14	4.254978E-16
4.690000E+03	3.235093E-14	4.186387E-16
4.700000E+03	3.181610E-14	4.113475E-16
4.710000E+03	3.125714E-14	4.037434E-16
4.720000E+03	3.068304E-14	3.959430E-16
4.730000E+03	3.010208E-14	3.880528E-16
4.740000E+03	2.952212E-14	3.801745E-16
4.750000E+03	2.894953E-14	3.723898E-16
4.760000E+03	2.839062E-14	3.647795E-16
4.770000E+03	2.785030E-14	3.574062E-16
4.780000E+03	2.733284E-14	3.503243E-16
4.790000E+03	2.684148E-14	3.435742E-16
4.800000E+03	2.637887E-14	3.371892E-16
4.810000E+03	2.594697E-14	3.311930E-16
4.820000E+03	2.554635E-14	3.255919E-16
4.830000E+03	2.517802E-14	3.203975E-16
4.840000E+03	2.484177E-14	3.156057E-16
4.850000E+03	2.453771E-14	3.112164E-16
4.860000E+03	2.426451E-14	3.072114E-16
4.870000E+03	2.402196E-14	3.035864E-16
4.880000E+03	2.380880E-14	3.003240E-16
4.890000E+03	2.362369E-14	2.974057E-16
4.900000E+03	2.346568E-14	2.948182E-16
4.910000E+03	2.333367E-14	2.925459E-16
4.920000E+03	2.322661E-14	2.905743E-16
4.930000E+03	2.314337E-14	2.888880E-16
4.940000E+03	2.308343E-14	2.874787E-16
4.950000E+03	2.304618E-14	2.863375E-16
4.960000E+03	2.303080E-14	2.854530E-16
4.970000E+03	2.303773E-14	2.848288E-16
4.980000E+03	2.306625E-14	2.844551E-16
4.990000E+03	2.311691E-14	2.843368E-16
5.000000E+03	2.318967E-14	2.844721E-16
5.010000E+03	2.328476E-14	2.848624E-16
5.020000E+03	2.340222E-14	2.855066E-16
5.030000E+03	2.354268E-14	2.864108E-16
5.040000E+03	2.370575E-14	2.875689E-16
5.050000E+03	2.389131E-14	2.889781E-16
5.060000E+03	2.409921E-14	2.906349E-16
5.070000E+03	2.432878E-14	2.925301E-16
5.080000E+03	2.457852E-14	2.946446E-16
5.090000E+03	2.484742E-14	2.969654E-16
5.100000E+03	2.513311E-14	2.994637E-16
5.110000E+03	2.543343E-14	3.021135E-16
5.120000E+03	2.574548E-14	3.048807E-16
5.130000E+03	2.606589E-14	3.077259E-16
5.140000E+03	2.639053E-14	3.106019E-16
5.150000E+03	2.671513E-14	3.134603E-16
5.160000E+03	2.703501E-14	3.162488E-16
5.170000E+03	2.734525E-14	3.189133E-16
5.180000E+03	2.764080E-14	3.213986E-16
5.190000E+03	2.791654E-14	3.236500E-16
5.200000E+03	2.816757E-14	3.256159E-16
5.210000E+03	2.838894E-14	3.272450E-16
5.220000E+03	2.857647E-14	3.284956E-16
5.230000E+03	2.872686E-14	3.293361E-16
5.240000E+03	2.883696E-14	3.297376E-16
5.250000E+03	2.890474E-14	3.296839E-16
5.260000E+03	2.892877E-14	3.291655E-16
5.270000E+03	2.890938E-14	3.281930E-16
5.280000E+03	2.884664E-14	3.267737E-16
5.290000E+03	2.874232E-14	3.249337E-16
5.300000E+03	2.859867E-14	3.227037E-16
5.310000E+03	2.841805E-14	3.201153E-16
5.320000E+03	2.820445E-14	3.172176E-16
5.330000E+03	2.796143E-14	3.140543E-16
5.340000E+03	2.769315E-14	3.106749E-16
5.350000E+03	2.740395E-14	3.071303E-16
5.360000E+03	2.709818E-14	3.034710E-16
5.370000E+03	2.677994E-14	2.997438E-16
5.380000E+03	2.645368E-14	2.959989E-16
5.390000E+03	2.612306E-14	2.922768E-16
5.400000E+03	2.579195E-14	2.886184E-16
5.410000E+03	2.546311E-14	2.850520E-16
5.420000E+03	2.513894E-14	2.816007E-16
5.430000E+03	2.482081E-14	2.782754E-16
5.440000E+03	2.451021E-14	2.750887E-16
5.450000E+03	2.420655E-14	2.720298E-16
5.460000E+03	2.390982E-14	2.690948E-16
5.470000E+03	2.362000E-14	2.662799E-16
5.480000E+03	2.333696E-14	2.635801E-16
5.490000E+03	2.305982E-14	2.609820E-16
5.500000E+03	2.278826E-14	2.584786E-16
5.510000E+03	2.252202E-14	2.560640E-16
5.520000E+03	2.226097E-14	2.537339E-16
5.530000E+03	2.200513E-14	2.514855E-16
5.540000E+03	2.175443E-14	2.493155E-16
5.550000E+03	2.150899E-14	2.472228E-16
5.560000E+03	2.126975E-14	2.452158E-16
5.570000E+03	2.103697E-14	2.432957E-16
5.580000E+03	2.081150E-14	2.414703E-16
5.590000E+03	2.059438E-14	2.397502E-16
5.600000E+03	2.038705E-14	2.381508E-16
5.610000E+03	2.019037E-14	2.366815E-16
5.620000E+03	2.000601E-14	2.353610E-16
5.630000E+03	1.983548E-14	2.342070E-16
5.640000E+03	1.968006E-14	2.332347E-16
5.650000E+03	1.954148E-14	2.324651E-16
5.660000E+03	1.942091E-14	2.319130E-16
5.670000E+03	1.931982E-14	2.315971E-16
5.680000E+03	1.923884E-14	2.315265E-16
5.690000E+03	1.917917E-14	2.317174E-16
5.700000E+03	1.914129E-14	2.321778E-16
5.710000E+03	1.912487E-14	2.329060E-16
5.720000E+03	1.913005E-14	2.339058E-16
5.730000E+03	1.915581E-14	2.351675E-16
5.740000E+03	1.920116E-14	2.366811E-16
5.750000E+03	1.926412E-14	2.384246E-16
5.760000E+03	1.934243E-14	2.403722E-16
5.770000E+03	1.943355E-14	2.424941E-16
5.780000E+03	1.953424E-14	2.447513E-16
5.790000E+03	1.964059E-14	2.470958E-16
5.800000E+03	1.974878E-14	2.494803E-16
5.810000E+03	1.985467E-14	2.518522E-16
5.820000E+03	1.995328E-14	2.541477E-16
5.830000E+03	2.004020E-14	2.563091E-16
5.840000E+03	2.011110E-14	2.582791E-16
5.850000E+03	2.016135E-14	2.599955E-16
5.860000E+03	2.018711E-14	2.614053E-16
5.870000E+03	2.018478E-14	2.624579E-16
5.880000E+03	2.015131E-14	2.631090E-16
5.890000E+03	2.008409E-14	2.633200E-16
5.900000E+03	1.998197E-14	2.630698E-16
5.910000E+03	1.984407E-14	2.623419E-16
5.920000E+03	1.967016E-14	2.611271E-16
5.930000E+03	1.946121E-14	2.594329E-16
5.940000E+03	1.921872E-14	2.572737E-16
5.950000E+03	1.894513E-14	2.546767E-16
5.960000E+03	1.864279E-14	2.516688E-16
5.970000E+03	1.831570E-14	2.482992E-16
5.980000E+03	1.796735E-14	2.446116E-16
5.990000E+03	1.760180E-14	2.406576E-16
6.000000E+03	1.722346E-14	2.364951E-16
6.010000E+03	1.683669E-14	2.321817E-16
6.020000E+03	1.644580E-14	2.277756E-16
6.030000E+03	1.605505E-14	2.233353E-16
6.040000E+03	1.566892E-14	2.189232E-16
6.050000E+03	1.529128E-14	2.145942E-16
6.060000E+03	1.492554E-14	2.103979E-16
6.070000E+03	1.457535E-14	2.063880E-16
6.080000E+03	1.424366E-14	2.026092E-16
6.090000E+03	1.393305E-14	1.991015E-16
6.100000E+03	1.364606E-14	1.959056E-16
6.110000E+03	1.338417E-14	1.930471E-16
6.120000E+03	1.314916E-14	1.905568E-16
6.130000E+03	1.294206E-14	1.884551E-16
6.140000E+03	1.276358E-14	1.867580E-16
6.150000E+03	1.261402E-14	1.854762E-16
6.160000E+03	1.249317E-14	1.846129E-16
6.170000E+03	1.240084E-14	1.841715E-16
6.180000E+03	1.233616E-14	1.841457E-16
6.190000E+03	1.229860E-14	1.845343E-16
6.200000E+03	1.228650E-14	1.853188E-16
6.210000E+03	1.229876E-14	1.864891E-16
6.220000E+03	1.233318E-14	1.880179E-16
6.230000E+03	1.238766E-14	1.898777E-16
6.240000E+03	1.246006E-14	1.920404E-16
6.250000E+03	1.254775E-14	1.944691E-16
6.260000E+03	1.264813E-14	1.971267E-16
6.270000E+03	1.275871E-14	1.999777E-16
6.280000E+03	1.287647E-14	2.029763E-16
6.290000E+03	1.299912E-14	2.060880E-16
6.300000E+03	1.312394E-14	2.092703E-16
6.310000E+03	1.324874E-14	2.124884E-16
6.320000E+03	1.337115E-14	2.157037E-16
6.330000E+03	1.348962E-14	2.188898E-16
6.340000E+03	1.360252E-14	2.220186E-16
6.350000E+03	1.370868E-14	2.250688E-16
6.360000E+03	1.380705E-14	2.280206E-16
6.370000E+03	1.389722E-14	2.308643E-16
6.380000E+03	1.397839E-14	2.335836E-16
6.390000E+03	1.405049E-14	2.361741E-16
6.400000E+03	1.411328E-14	2.386283E-16
6.410000E+03	1.416580E-14	2.409266E-16
6.420000E+03	1.420767E-14	2.430586E-16
6.430000E+03	1.423751E-14	2.449970E-16
6.440000E+03	1.425482E-14	2.467285E-16
6.450000E+03	1.425823E-14	2.482250E-16
6.460000E+03	1.424736E-14	2.494750E-16
6.470000E+03	1.422131E-14	2.504574E-16
6.480000E+03	1.417954E-14	2.511577E-16
6.490000E+03	1.412216E-14	2.515722E-16
6.500000E+03	1.404904E-14	2.516932E-16
6.510000E+03	1.395999E-14	2.515121E-16
6.520000E+03	1.385570E-14	2.510357E-16
6.530000E+03	1.373679E-14	2.502703E-16
6.540000E+03	1.360359E-14	2.492171E-16
6.550000E+03	1.345750E-14	2.478969E-16
6.560000E+03	1.329913E-14	2.463168E-16
6.570000E+03	1.312963E-14	2.444942E-16
6.580000E+03	1.295047E-14	2.424528E-16
6.590000E+03	1.276273E-14	2.402098E-16
6.600000E+03	1.256775E-14	2.377878E-16
6.610000E+03	1.236709E-14	2.352141E-16
6.620000E+03	1.216167E-14	2.325044E-16
6.630000E+03	1.195319E-14	2.296901E-16
6.640000E+03	1.174274E-14	2.267910E-16
6.650000E+03	1.153130E-14	2.238256E-16
6.660000E+03	1.132040E-14	2.208236E-16
6.670000E+03	1.111069E-14	2.177979E-16
6.680000E+03	1.090349E-14	2.147749E-16
6.690000E+03	1.069929E-14	2.117649E-16
6.700000E+03	1.049917E-14	2.087909E-16
6.710000E+03	1.030363E-14	2.058636E-16
6.720000E+03	1.011304E-14	2.029922E-16
6.730000E+03	9.928181E-15	2.001940E-16
6.740000E+03	9.749251E-15	1.974748E-16
6.750000E+03	9.576523E-15	1.948418E-16
6.760000E+03	9.410189E-15	1.923011E-16
6.770000E+03	9.250372E-15	1.898569E-16
6.780000E+03	9.097283E-15	1.875158E-16
6.790000E+03	8.950601E-15	1.852729E-16
6.800000E+03	8.810583E-15	1.831355E-16
6.810000E+03	8.676968E-15	1.811002E-16
6.820000E+03	8.549617E-15	1.791659E-16
6.830000E+03	8.428504E-15	1.773339E-16
6.840000E+03	8.313275E-15	1.755984E-16
6.850000E+03	8.203706E-15	1.739565E-16
6.860000E+03	8.099555E-15	1.724046E-16
6.870000E+03	8.000711E-15	1.709418E-16
6.880000E+03	7.906761E-15	1.695607E-16
6.890000E+03	7.817432E-15	1.682569E-16
6.900000E+03	7.732447E-15	1.670256E-16
6.910000E+03	7.651664E-15	1.658649E-16
6.920000E+03	7.574804E-15	1.647700E-16
6.930000E+03	7.501303E-15	1.637296E-16
6.940000E+03	7.431164E-15	1.627447E-16
6.950000E+03	7.363973E-15	1.618071E-16
6.960000E+03	7.299598E-15	1.609147E-16
6.970000E+03	7.237635E-15	1.600594E-16
6.980000E+03	7.177825E-15	1.592360E-16
6.990000E+03	7.120053E-15	1.584428E-16
7.000000E+03	7.063934E-15	1.576716E-16
7.010000E+03	7.009364E-15	1.569206E-16
7.020000E+03	6.955977E-15	1.561822E-16
7.030000E+03	6.903550E-15	1.554516E-16
7.040000E+03	6.852004E-15	1.547274E-16
7.050000E+03	6.800997E-15	1.540024E-16
7.060000E+03	6.750338E-15	1.532723E-16
7.070000E+03	6.699975E-15	1.525363E-16
7.080000E+03	6.649601E-15	1.517875E-16
7.090000E+03	6.599186E-15	1.510256E-16
7.100000E+03	6.548454E-15	1.502443E-16
7.110000E+03	6.497395E-15	1.494435E-16
7.120000E+03	6.445761E-15	1.486177E-16
7.130000E+03	6.393442E-15	1.477645E-16
7.140000E+03	6.340475E-15	1.468847E-16
7.150000E+03	6.286781E-15	1.459766E-16
7.160000E+03	6.232166E-15	1.450359E-16
7.170000E+03	6.176583E-15	1.440615E-16
7.180000E+03	6.120255E-15	1.430587E-16
7.190000E+03	6.062781E-15	1.420182E-16
7.200000E+03	6.004542E-15	1.409490E-16
7.210000E+03	5.945172E-15	1.398427E-16
7.220000E+03	5.885080E-15	1.387088E-16
7.230000E+03	5.824058E-15	1.375428E-16
7.240000E+03	5.762295E-15	1.363491E-16
7.250000E+03	5.699867E-15	1.351296E-16
7.260000E+03	5.636742E-15	1.338839E-16
7.270000E+03	5.573153E-15	1.326175E-16
7.280000E+03	5.509220E-15	1.313335E-16
7.290000E+03	5.444956E-15	1.300325E-16
7.300000E+03	5.380633E-15	1.287210E-16
7.310000E+03	5.316406E-15	1.274032E-16
7.320000E+03	5.252450E-15	1.260834E-16
7.330000E+03	5.188822E-15	1.247633E-16
7.340000E+03	5.125829E-15	1.234505E-16
7.350000E+03	5.063662E-15	1.221499E-16
7.360000E+03	5.002403E-15	1.208640E-16
7.370000E+03	4.942252E-15	1.195977E-16
7.380000E+03	4.883521E-15	1.183591E-16
7.390000E+03	4.826295E-15	1.171505E-16
7.400000E+03	4.770880E-15	1.159798E-16
7.410000E+03	4.717353E-15	1.148492E-16
7.420000E+03	4.666003E-15	1.137663E-16
7.430000E+03	4.617004E-15	1.127356E-16
7.440000E+03	4.570514E-15	1.117614E-16
7.450000E+03	4.526791E-15	1.108507E-16
7.460000E+03	4.485863E-15	1.100044E-16
7.470000E+03	4.447960E-15	1.092287E-16
7.480000E+03	4.413191E-15	1.085268E-16
7.490000E+03	4.381651E-15	1.079015E-16
7.500000E+03	4.353414E-15	1.073551E-16
7.510000E+03	4.328443E-15	1.068872E-16
7.520000E+03	4.306993E-15	1.065046E-16
7.530000E+03	4.288885E-15	1.062034E-16
7.540000E+03	4.274346E-15	1.059897E-16
7.550000E+03	4.263164E-15	1.058588E-16
7.560000E+03	4.255428E-15	1.058134E-16
7.570000E+03	4.251105E-15	1.058531E-16
7.580000E+03	4.250039E-15	1.059747E-16
7.590000E+03	4.252271E-15	1.061797E-16
7.600000E+03	4.257611E-15	1.064638E-16
7.610000E+03	4.265960E-15	1.068251E-16
7.620000E+03	4.277309E-15	1.072638E-16
7.630000E+03	4.291419E-15	1.077744E-16
7.640000E+03	4.308134E-15	1.083537E-16
7.650000E+03	4.327287E-15	1.089977E-16
7.660000E+03	4.348802E-15	1.097052E-16
7.670000E+03	4.372244E-15	1.104656E-16
7.680000E+03	4.397614E-15	1.112794E-16
7.690000E+03	4.424551E-15	1.121379E-16
7.700000E+03	4.452785E-15	1.130348E-16
7.710000E+03	4.482028E-15	1.139631E-16
7.720000E+03	4.511970E-15	1.149154E-16
7.730000E+03	4.542281E-15	1.158835E-16
7.740000E+03	4.572735E-15	1.168621E-16
7.750000E+03	4.602969E-15	1.178422E-16
7.760000E+03	4.632352E-15	1.188078E-16
