#wls	flux	fluxerr
1.600000E+03	3.079342E-15	1.112599E-16
1.640000E+03	2.594685E-15	9.261567E-17
1.680000E+03	2.178063E-15	7.678934E-17
1.720000E+03	1.822177E-15	6.344031E-17
1.760000E+03	1.520613E-15	5.227013E-17
1.800000E+03	1.266857E-15	4.298740E-17
1.840000E+03	1.054754E-15	3.532366E-17
1.880000E+03	8.786168E-16	2.903630E-17
1.920000E+03	7.332270E-16	2.390771E-17
1.960000E+03	6.141286E-16	1.975390E-17
2.000000E+03	5.174247E-16	1.641634E-17
2.040000E+03	4.397995E-16	1.376158E-17
2.080000E+03	3.786540E-16	1.168413E-17
2.120000E+03	3.322511E-16	1.010940E-17
2.160000E+03	2.995666E-16	8.987337E-18
2.200000E+03	2.800798E-16	8.284796E-18
2.240000E+03	2.739695E-16	7.990237E-18
2.280000E+03	2.822177E-16	8.115322E-18
2.320000E+03	3.064469E-16	8.688813E-18
2.360000E+03	3.493838E-16	9.768433E-18
2.400000E+03	4.154508E-16	1.145526E-17
2.440000E+03	5.111635E-16	1.390148E-17
2.480000E+03	6.447612E-16	1.729698E-17
2.520000E+03	8.259629E-16	2.186004E-17
2.560000E+03	1.064513E-15	2.779730E-17
2.600000E+03	1.368759E-15	3.526754E-17
2.640000E+03	1.743658E-15	4.433384E-17
2.680000E+03	2.188644E-15	5.491583E-17
2.720000E+03	2.696551E-15	6.677205E-17
2.760000E+03	3.254472E-15	7.953159E-17
2.800000E+03	3.843762E-15	9.270258E-17
2.840000E+03	4.442706E-15	1.057442E-16
2.880000E+03	5.027893E-15	1.181031E-16
2.920000E+03	5.578391E-15	1.293119E-16
2.960000E+03	6.077525E-15	1.390256E-16
3.000000E+03	6.514931E-15	1.470613E-16
3.010000E+03	6.614085E-15	1.488025E-16
3.020000E+03	6.708872E-15	1.504322E-16
3.030000E+03	6.799406E-15	1.519538E-16
3.040000E+03	6.885823E-15	1.533715E-16
3.050000E+03	6.968088E-15	1.546854E-16
3.060000E+03	7.046186E-15	1.558961E-16
3.070000E+03	7.120482E-15	1.570127E-16
3.080000E+03	7.190809E-15	1.580323E-16
3.090000E+03	7.257198E-15	1.589567E-16
3.100000E+03	7.320052E-15	1.597954E-16
3.110000E+03	7.379424E-15	1.605505E-16
3.120000E+03	7.435555E-15	1.612280E-16
3.130000E+03	7.488166E-15	1.618227E-16
3.140000E+03	7.538039E-15	1.623521E-16
3.150000E+03	7.584915E-15	1.628114E-16
3.160000E+03	7.629062E-15	1.632069E-16
3.170000E+03	7.670750E-15	1.635451E-16
3.180000E+03	7.710081E-15	1.638288E-16
3.190000E+03	7.747328E-15	1.640642E-16
3.200000E+03	7.782601E-15	1.642540E-16
3.210000E+03	7.816171E-15	1.644043E-16
3.220000E+03	7.848152E-15	1.645180E-16
3.230000E+03	7.878813E-15	1.646009E-16
3.240000E+03	7.908268E-15	1.646557E-16
3.250000E+03	7.936631E-15	1.646850E-16
3.260000E+03	7.964172E-15	1.646946E-16
3.270000E+03	7.991005E-15	1.646870E-16
3.280000E+03	8.017392E-15	1.646677E-16
3.290000E+03	8.043449E-15	1.646392E-16
3.300000E+03	8.069295E-15	1.646040E-16
3.310000E+03	8.095051E-15	1.645646E-16
3.320000E+03	8.120985E-15	1.645263E-16
3.330000E+03	8.147223E-15	1.644918E-16
3.340000E+03	8.173908E-15	1.644638E-16
3.350000E+03	8.201189E-15	1.644453E-16
3.360000E+03	8.229109E-15	1.644369E-16
3.370000E+03	8.257991E-15	1.644450E-16
3.380000E+03	8.287929E-15	1.644712E-16
3.390000E+03	8.319311E-15	1.645231E-16
3.400000E+03	8.352320E-15	1.646039E-16
3.410000E+03	8.387093E-15	1.647160E-16
3.420000E+03	8.424321E-15	1.648726E-16
3.430000E+03	8.464203E-15	1.650771E-16
3.440000E+03	8.507407E-15	1.653419E-16
3.450000E+03	8.554626E-15	1.656799E-16
3.460000E+03	8.606713E-15	1.661068E-16
3.464000E+03	4.906086E-15	9.455338E-17
3.466000E+03	4.948373E-15	9.530159E-17
3.468000E+03	4.994348E-15	9.611969E-17
3.470000E+03	5.037831E-15	9.688862E-17
3.472000E+03	5.088081E-15	9.778649E-17
3.474000E+03	5.144456E-15	9.880066E-17
3.476000E+03	5.201730E-15	9.983058E-17
3.478000E+03	5.267495E-15	1.010218E-16
3.480000E+03	5.333811E-15	1.022219E-16
3.482000E+03	5.408517E-15	1.035810E-16
3.484000E+03	5.486517E-15	1.050010E-16
3.486000E+03	5.565258E-15	1.064332E-16
3.488000E+03	5.646103E-15	1.079036E-16
3.490000E+03	5.734062E-15	1.095076E-16
3.492000E+03	5.825142E-15	1.111689E-16
3.494000E+03	5.915635E-15	1.128166E-16
3.496000E+03	6.013831E-15	1.146087E-16
3.498000E+03	6.108407E-15	1.163293E-16
3.500000E+03	6.203926E-15	1.180653E-16
3.502000E+03	6.301922E-15	1.198459E-16
3.504000E+03	6.399953E-15	1.216246E-16
3.506000E+03	6.501239E-15	1.234625E-16
3.508000E+03	6.603796E-15	1.253219E-16
3.510000E+03	6.708552E-15	1.272203E-16
3.512000E+03	6.819213E-15	1.292278E-16
3.514000E+03	6.933720E-15	1.313053E-16
3.516000E+03	7.046992E-15	1.333563E-16
3.518000E+03	7.160109E-15	1.354015E-16
3.520000E+03	7.276552E-15	1.375066E-16
3.522000E+03	7.395015E-15	1.396467E-16
3.524000E+03	7.517914E-15	1.418675E-16
3.526000E+03	7.643789E-15	1.441411E-16
3.528000E+03	7.771798E-15	1.464517E-16
3.530000E+03	7.900387E-15	1.487698E-16
3.532000E+03	8.025731E-15	1.510236E-16
3.534000E+03	8.153761E-15	1.533245E-16
3.536000E+03	8.282920E-15	1.556433E-16
3.538000E+03	8.403015E-15	1.577886E-16
3.540000E+03	8.516364E-15	1.598041E-16
3.542000E+03	8.638669E-15	1.619846E-16
3.544000E+03	8.755787E-15	1.640648E-16
3.546000E+03	8.871640E-15	1.661182E-16
3.548000E+03	8.987012E-15	1.681596E-16
3.550000E+03	9.090826E-15	1.699818E-16
3.552000E+03	9.196498E-15	1.718361E-16
3.554000E+03	9.294516E-15	1.735448E-16
3.556000E+03	9.388024E-15	1.751667E-16
3.558000E+03	9.471438E-15	1.765981E-16
3.560000E+03	9.552669E-15	1.779866E-16
3.562000E+03	9.623740E-15	1.791838E-16
3.564000E+03	9.688591E-15	1.802635E-16
3.566000E+03	9.744011E-15	1.811662E-16
3.568000E+03	9.785143E-15	1.818020E-16
3.570000E+03	9.832783E-15	1.825576E-16
3.572000E+03	9.867681E-15	1.830756E-16
3.574000E+03	9.894612E-15	1.834451E-16
3.576000E+03	9.919978E-15	1.837848E-16
3.578000E+03	9.931672E-15	1.838709E-16
3.580000E+03	9.938532E-15	1.838672E-16
3.582000E+03	9.933248E-15	1.836389E-16
3.584000E+03	9.930356E-15	1.834550E-16
3.586000E+03	9.920134E-15	1.831358E-16
3.588000E+03	9.897657E-15	1.825910E-16
3.590000E+03	9.864519E-15	1.818502E-16
3.592000E+03	9.835340E-15	1.811832E-16
3.594000E+03	9.795447E-15	1.803198E-16
3.596000E+03	9.751328E-15	1.793798E-16
3.598000E+03	9.716069E-15	1.786038E-16
3.600000E+03	9.672485E-15	1.776759E-16
3.602000E+03	9.632045E-15	1.768069E-16
3.604000E+03	9.584891E-15	1.758158E-16
3.606000E+03	9.544990E-15	1.749589E-16
3.608000E+03	9.518968E-15	1.743573E-16
3.610000E+03	9.501107E-15	1.739058E-16
3.612000E+03	9.486481E-15	1.735140E-16
3.614000E+03	9.485867E-15	1.733787E-16
3.616000E+03	9.509274E-15	1.736822E-16
3.618000E+03	9.550991E-15	1.743193E-16
3.620000E+03	9.609435E-15	1.752604E-16
3.622000E+03	9.688843E-15	1.765821E-16
3.624000E+03	9.796797E-15	1.784216E-16
3.626000E+03	9.915060E-15	1.804459E-16
3.628000E+03	1.006123E-14	1.829747E-16
3.630000E+03	1.023374E-14	1.859785E-16
3.632000E+03	1.042183E-14	1.892606E-16
3.634000E+03	1.063645E-14	1.930193E-16
3.636000E+03	1.086596E-14	1.970424E-16
3.638000E+03	1.111209E-14	2.013607E-16
3.640000E+03	1.137408E-14	2.059600E-16
3.642000E+03	1.164185E-14	2.106570E-16
3.644000E+03	1.193066E-14	2.157274E-16
3.646000E+03	1.223382E-14	2.210495E-16
3.648000E+03	1.255053E-14	2.266085E-16
3.650000E+03	1.286726E-14	2.321597E-16
3.652000E+03	1.319677E-14	2.379330E-16
3.654000E+03	1.352549E-14	2.436835E-16
3.656000E+03	1.385767E-14	2.494879E-16
3.658000E+03	1.418308E-14	2.551617E-16
3.660000E+03	1.450340E-14	2.607356E-16
3.662000E+03	1.482032E-14	2.662401E-16
3.664000E+03	1.513553E-14	2.717059E-16
3.666000E+03	1.544817E-14	2.771172E-16
3.668000E+03	1.575136E-14	2.823509E-16
3.670000E+03	1.605019E-14	2.874989E-16
3.672000E+03	1.634813E-14	2.926231E-16
3.674000E+03	1.663737E-14	2.975838E-16
3.676000E+03	1.691789E-14	3.023814E-16
3.678000E+03	1.718792E-14	3.069842E-16
3.680000E+03	1.744392E-14	3.113297E-16
3.682000E+03	1.768847E-14	3.154643E-16
3.684000E+03	1.791366E-14	3.192476E-16
3.686000E+03	1.812203E-14	3.227256E-16
3.688000E+03	1.831525E-14	3.259285E-16
3.690000E+03	1.849502E-14	3.288872E-16
3.692000E+03	1.864375E-14	3.312898E-16
3.694000E+03	1.876922E-14	3.332754E-16
3.696000E+03	1.887219E-14	3.348586E-16
3.698000E+03	1.895082E-14	3.360077E-16
3.700000E+03	1.900411E-14	3.367056E-16
3.702000E+03	1.903373E-14	3.369832E-16
3.704000E+03	1.904309E-14	3.369016E-16
3.706000E+03	1.902682E-14	3.363665E-16
3.708000E+03	1.898478E-14	3.353769E-16
3.710000E+03	1.891955E-14	3.339789E-16
3.712000E+03	1.883280E-14	3.322029E-16
3.714000E+03	1.872177E-14	3.300013E-16
3.716000E+03	1.858456E-14	3.273415E-16
3.718000E+03	1.842821E-14	3.243484E-16
3.720000E+03	1.826156E-14	3.211781E-16
3.722000E+03	1.807742E-14	3.177048E-16
3.724000E+03	1.787481E-14	3.139119E-16
3.726000E+03	1.765096E-14	3.097516E-16
3.728000E+03	1.741388E-14	3.053651E-16
3.730000E+03	1.716169E-14	3.007201E-16
3.732000E+03	1.689796E-14	2.958794E-16
3.734000E+03	1.663162E-14	2.910001E-16
3.736000E+03	1.635096E-14	2.858772E-16
3.738000E+03	1.605499E-14	2.804942E-16
3.740000E+03	1.576088E-14	2.751512E-16
3.742000E+03	1.547494E-14	2.699584E-16
3.744000E+03	1.517545E-14	2.645369E-16
3.746000E+03	1.487871E-14	2.591711E-16
3.748000E+03	1.458382E-14	2.538453E-16
3.750000E+03	1.429171E-14	2.485754E-16
3.752000E+03	1.401335E-14	2.435519E-16
3.754000E+03	1.373781E-14	2.385848E-16
3.756000E+03	1.346788E-14	2.337221E-16
3.758000E+03	1.320448E-14	2.289797E-16
3.760000E+03	1.295958E-14	2.245647E-16
3.762000E+03	1.271854E-14	2.202229E-16
3.764000E+03	1.249521E-14	2.161938E-16
3.766000E+03	1.227859E-14	2.122864E-16
3.768000E+03	1.208072E-14	2.087086E-16
3.770000E+03	1.190536E-14	2.055247E-16
3.772000E+03	1.172855E-14	2.023202E-16
3.774000E+03	1.156419E-14	1.993349E-16
3.776000E+03	1.141884E-14	1.966812E-16
3.778000E+03	1.127211E-14	1.940077E-16
3.780000E+03	1.114356E-14	1.916504E-16
3.782000E+03	1.101741E-14	1.893380E-16
3.784000E+03	1.090302E-14	1.872305E-16
3.786000E+03	1.079200E-14	1.851841E-16
3.788000E+03	1.068065E-14	1.831348E-16
3.790000E+03	1.057834E-14	1.812432E-16
3.792000E+03	1.048227E-14	1.794612E-16
3.794000E+03	1.037932E-14	1.775639E-16
3.796000E+03	1.028452E-14	1.758087E-16
3.798000E+03	1.019792E-14	1.741960E-16
3.800000E+03	1.010538E-14	1.724840E-16
3.802000E+03	1.001633E-14	1.708341E-16
3.804000E+03	9.937415E-15	1.693592E-16
3.806000E+03	9.884791E-15	1.683340E-16
3.808000E+03	9.843380E-15	1.675010E-16
3.810000E+03	9.813230E-15	1.668606E-16
3.812000E+03	9.805807E-15	1.666071E-16
3.814000E+03	9.825021E-15	1.668060E-16
3.816000E+03	9.870025E-15	1.674420E-16
3.818000E+03	9.936146E-15	1.684347E-16
3.820000E+03	1.002251E-14	1.697687E-16
3.822000E+03	1.014263E-14	1.716717E-16
3.824000E+03	1.028319E-14	1.739173E-16
3.826000E+03	1.044526E-14	1.765226E-16
3.828000E+03	1.064044E-14	1.796830E-16
3.830000E+03	1.085443E-14	1.831557E-16
3.832000E+03	1.107378E-14	1.867133E-16
3.834000E+03	1.133912E-14	1.910399E-16
3.836000E+03	1.165061E-14	1.961366E-16
3.838000E+03	1.198520E-14	2.016138E-16
3.840000E+03	1.234781E-14	2.075533E-16
3.842000E+03	1.269389E-14	2.132057E-16
3.844000E+03	1.302820E-14	2.186516E-16
3.846000E+03	1.342961E-14	2.252141E-16
3.848000E+03	1.388668E-14	2.326990E-16
3.850000E+03	1.434299E-14	2.401591E-16
3.852000E+03	1.480439E-14	2.476926E-16
3.854000E+03	1.527971E-14	2.554467E-16
3.856000E+03	1.575919E-14	2.632581E-16
3.858000E+03	1.623696E-14	2.710285E-16
3.860000E+03	1.671693E-14	2.788232E-16
3.862000E+03	1.719911E-14	2.866422E-16
3.864000E+03	1.767759E-14	2.943871E-16
3.866000E+03	1.815727E-14	3.021395E-16
3.868000E+03	1.863026E-14	3.097683E-16
3.870000E+03	1.911631E-14	3.176018E-16
3.872000E+03	1.959070E-14	3.252291E-16
3.874000E+03	2.005834E-14	3.327320E-16
3.876000E+03	2.052416E-14	3.401926E-16
3.878000E+03	2.095032E-14	3.469845E-16
3.880000E+03	2.138352E-14	3.538816E-16
3.882000E+03	2.184371E-14	3.612139E-16
3.884000E+03	2.230204E-14	3.685035E-16
3.886000E+03	2.276049E-14	3.757832E-16
3.888000E+03	2.320703E-14	3.828544E-16
3.890000E+03	2.364963E-14	3.898493E-16
3.892000E+03	2.407824E-14	3.966021E-16
3.894000E+03	2.450284E-14	4.032780E-16
3.896000E+03	2.492241E-14	4.098600E-16
3.898000E+03	2.534297E-14	4.164475E-16
3.900000E+03	2.574030E-14	4.226426E-16
3.902000E+03	2.613452E-14	4.287764E-16
3.904000E+03	2.652054E-14	4.347655E-16
3.906000E+03	2.689428E-14	4.405435E-16
3.908000E+03	2.726279E-14	4.462263E-16
3.910000E+03	2.762096E-14	4.517304E-16
3.912000E+03	2.797180E-14	4.571054E-16
3.914000E+03	2.831834E-14	4.624012E-16
3.916000E+03	2.864321E-14	4.673343E-16
3.918000E+03	2.896368E-14	4.721875E-16
3.920000E+03	2.927259E-14	4.768440E-16
3.922000E+03	2.956374E-14	4.812035E-16
3.924000E+03	2.982988E-14	4.851487E-16
3.926000E+03	3.008733E-14	4.889458E-16
3.928000E+03	3.033399E-14	4.925611E-16
3.930000E+03	3.055955E-14	4.958277E-16
3.932000E+03	3.076495E-14	4.987616E-16
3.934000E+03	3.095113E-14	5.013789E-16
3.936000E+03	3.110873E-14	5.035289E-16
3.938000E+03	3.125211E-14	5.054449E-16
3.940000E+03	3.136777E-14	5.069092E-16
3.942000E+03	3.146803E-14	5.081218E-16
3.944000E+03	3.154245E-14	5.089151E-16
3.946000E+03	3.159407E-14	5.093388E-16
3.948000E+03	3.161652E-14	5.092916E-16
3.950000E+03	3.162120E-14	5.089577E-16
3.952000E+03	3.159862E-14	5.081854E-16
3.954000E+03	3.155079E-14	5.070079E-16
3.956000E+03	3.147656E-14	5.054078E-16
3.958000E+03	3.138003E-14	5.034520E-16
3.960000E+03	3.126530E-14	5.012069E-16
3.962000E+03	3.112706E-14	4.985885E-16
3.964000E+03	3.096523E-14	4.955960E-16
3.966000E+03	3.078183E-14	4.922629E-16
3.968000E+03	3.058733E-14	4.887572E-16
3.970000E+03	3.036690E-14	4.848426E-16
3.972000E+03	3.011835E-14	4.804852E-16
3.974000E+03	2.986274E-14	4.760217E-16
3.976000E+03	2.959790E-14	4.714180E-16
3.978000E+03	2.930793E-14	4.664212E-16
3.980000E+03	2.901926E-14	4.614527E-16
3.982000E+03	2.871065E-14	4.561749E-16
3.984000E+03	2.840119E-14	4.508916E-16
3.986000E+03	2.808979E-14	4.455857E-16
3.988000E+03	2.776902E-14	4.401393E-16
3.990000E+03	2.745376E-14	4.347886E-16
3.992000E+03	2.712802E-14	4.292804E-16
3.994000E+03	2.680247E-14	4.237835E-16
3.996000E+03	2.647819E-14	4.183152E-16
3.998000E+03	2.615517E-14	4.128753E-16
4.000000E+03	2.583236E-14	4.074470E-16
4.002000E+03	2.551836E-14	4.021661E-16
4.004000E+03	2.521536E-14	3.970665E-16
4.006000E+03	2.491154E-14	3.919619E-16
4.008000E+03	2.461446E-14	3.869713E-16
4.010000E+03	2.432954E-14	3.821795E-16
4.012000E+03	2.405901E-14	3.776208E-16
4.014000E+03	2.378883E-14	3.730746E-16
4.016000E+03	2.353742E-14	3.688298E-16
4.018000E+03	2.329403E-14	3.647169E-16
4.020000E+03	2.306301E-14	3.608040E-16
4.022000E+03	2.285093E-14	3.571933E-16
4.024000E+03	2.265896E-14	3.539020E-16
4.026000E+03	2.248279E-14	3.508626E-16
4.028000E+03	2.233340E-14	3.482452E-16
4.030000E+03	2.219997E-14	3.458805E-16
4.032000E+03	2.209675E-14	3.439895E-16
4.034000E+03	2.204356E-14	3.428796E-16
4.036000E+03	2.201207E-14	3.421083E-16
4.038000E+03	2.197162E-14	3.411989E-16
4.040000E+03	2.194746E-14	3.405434E-16
4.042000E+03	2.193304E-14	3.400397E-16
4.044000E+03	2.198014E-14	3.404894E-16
4.046000E+03	2.212199E-14	3.424046E-16
4.048000E+03	2.223316E-14	3.438419E-16
4.050000E+03	2.233012E-14	3.450569E-16
4.052000E+03	2.243935E-14	3.464589E-16
4.054000E+03	2.256641E-14	3.481335E-16
4.056000E+03	2.269143E-14	3.497736E-16
4.058000E+03	2.281771E-14	3.514300E-16
4.060000E+03	2.294529E-14	3.531033E-16
4.062000E+03	2.307190E-14	3.547587E-16
4.064000E+03	2.319090E-14	3.562941E-16
4.066000E+03	2.331116E-14	3.578460E-16
4.068000E+03	2.342152E-14	3.592432E-16
4.070000E+03	2.353089E-14	3.606225E-16
4.072000E+03	2.361021E-14	3.615392E-16
4.074000E+03	2.368401E-14	3.623695E-16
4.076000E+03	2.374777E-14	3.630448E-16
4.078000E+03	2.379026E-14	3.633936E-16
4.080000E+03	2.387087E-14	3.643233E-16
4.082000E+03	2.394703E-14	3.651835E-16
4.084000E+03	2.398390E-14	3.654432E-16
4.086000E+03	2.400611E-14	3.654789E-16
4.088000E+03	2.401586E-14	3.653248E-16
4.090000E+03	2.401423E-14	3.649978E-16
4.092000E+03	2.400233E-14	3.645149E-16
4.094000E+03	2.398125E-14	3.638934E-16
4.096000E+03	2.396229E-14	3.633046E-16
4.098000E+03	2.393185E-14	3.625428E-16
4.100000E+03	2.389105E-14	3.616250E-16
4.102000E+03	2.385004E-14	3.607053E-16
4.104000E+03	2.380997E-14	3.598012E-16
4.106000E+03	2.377882E-14	3.590329E-16
4.108000E+03	2.374293E-14	3.581941E-16
4.110000E+03	2.371142E-14	3.574225E-16
4.112000E+03	2.367973E-14	3.566492E-16
4.114000E+03	2.365586E-14	3.559947E-16
4.116000E+03	2.363068E-14	3.553214E-16
4.118000E+03	2.362136E-14	3.548870E-16
4.120000E+03	2.361876E-14	3.545542E-16
4.122000E+03	2.362407E-14	3.543402E-16
4.124000E+03	2.363271E-14	3.541764E-16
4.126000E+03	2.366650E-14	3.543893E-16
4.128000E+03	2.370599E-14	3.546867E-16
4.130000E+03	2.375234E-14	3.550861E-16
4.132000E+03	2.381592E-14	3.557420E-16
4.134000E+03	2.389794E-14	3.566717E-16
4.136000E+03	2.399498E-14	3.578238E-16
4.138000E+03	2.410131E-14	3.591122E-16
4.140000E+03	2.421698E-14	3.605372E-16
4.142000E+03	2.434891E-14	3.622016E-16
4.144000E+03	2.449139E-14	3.640199E-16
4.146000E+03	2.463749E-14	3.658888E-16
4.148000E+03	2.479531E-14	3.679283E-16
4.150000E+03	2.496839E-14	3.701906E-16
4.152000E+03	2.514049E-14	3.724343E-16
4.154000E+03	2.531975E-14	3.747802E-16
4.156000E+03	2.550969E-14	3.772800E-16
4.158000E+03	2.570449E-14	3.798473E-16
4.160000E+03	2.590650E-14	3.825168E-16
4.162000E+03	2.610524E-14	3.851334E-16
4.164000E+03	2.629952E-14	3.876798E-16
4.166000E+03	2.650103E-14	3.903284E-16
4.168000E+03	2.669925E-14	3.929240E-16
4.170000E+03	2.688597E-14	3.953462E-16
4.172000E+03	2.707523E-14	3.978014E-16
4.174000E+03	2.727639E-14	4.004273E-16
4.176000E+03	2.746369E-14	4.028454E-16
4.178000E+03	2.764764E-14	4.052103E-16
4.180000E+03	2.782471E-14	4.074705E-16
4.182000E+03	2.799487E-14	4.096258E-16
4.184000E+03	2.816167E-14	4.117282E-16
4.186000E+03	2.831916E-14	4.136911E-16
4.188000E+03	2.846616E-14	4.154977E-16
4.190000E+03	2.860500E-14	4.171820E-16
4.192000E+03	2.872266E-14	4.185550E-16
4.194000E+03	2.883801E-14	4.198920E-16
4.196000E+03	2.893683E-14	4.209863E-16
4.198000E+03	2.903092E-14	4.220101E-16
4.200000E+03	2.910015E-14	4.226709E-16
4.202000E+03	2.915036E-14	4.230546E-16
4.204000E+03	2.918390E-14	4.231957E-16
4.206000E+03	2.920071E-14	4.230944E-16
4.208000E+03	2.920432E-14	4.228021E-16
4.210000E+03	2.919234E-14	4.222847E-16
4.212000E+03	2.915876E-14	4.214558E-16
4.214000E+03	2.910830E-14	4.203845E-16
4.216000E+03	2.905762E-14	4.193119E-16
4.218000E+03	2.898643E-14	4.179452E-16
4.220000E+03	2.890902E-14	4.164911E-16
4.222000E+03	2.882179E-14	4.148981E-16
4.224000E+03	2.873310E-14	4.132865E-16
4.226000E+03	2.862976E-14	4.114673E-16
4.228000E+03	2.852493E-14	4.096294E-16
4.230000E+03	2.840902E-14	4.076356E-16
4.232000E+03	2.829279E-14	4.056406E-16
4.234000E+03	2.817747E-14	4.036618E-16
4.236000E+03	2.806183E-14	4.016817E-16
4.238000E+03	2.793988E-14	3.996145E-16
4.240000E+03	2.782242E-14	3.976150E-16
4.242000E+03	2.771910E-14	3.958207E-16
4.244000E+03	2.761189E-14	3.939738E-16
4.246000E+03	2.750559E-14	3.921429E-16
4.248000E+03	2.740022E-14	3.903283E-16
4.250000E+03	2.731628E-14	3.888217E-16
4.252000E+03	2.724176E-14	3.874517E-16
4.254000E+03	2.717787E-14	3.862351E-16
4.256000E+03	2.712223E-14	3.851376E-16
4.258000E+03	2.707485E-14	3.841592E-16
4.260000E+03	2.703453E-14	3.832826E-16
4.262000E+03	2.700492E-14	3.825593E-16
4.264000E+03	2.697393E-14	3.818177E-16
4.266000E+03	2.695733E-14	3.812809E-16
4.268000E+03	2.693205E-14	3.806227E-16
4.270000E+03	2.691877E-14	3.801349E-16
4.272000E+03	2.691019E-14	3.797145E-16
4.274000E+03	2.690510E-14	3.793442E-16
4.276000E+03	2.689988E-14	3.789728E-16
4.278000E+03	2.689086E-14	3.785487E-16
4.280000E+03	2.688534E-14	3.781747E-16
4.282000E+03	2.687236E-14	3.776966E-16
4.284000E+03	2.686411E-14	3.772859E-16
4.286000E+03	2.685693E-14	3.768912E-16
4.288000E+03	2.684472E-14	3.764267E-16
4.290000E+03	2.683357E-14	3.759781E-16
4.292000E+03	2.682227E-14	3.755283E-16
4.294000E+03	2.680593E-14	3.750090E-16
4.296000E+03	2.678820E-14	3.744713E-16
4.298000E+03	2.675806E-14	3.737614E-16
4.300000E+03	2.672774E-14	3.730503E-16
4.302000E+03	2.668745E-14	3.722016E-16
4.304000E+03	2.664084E-14	3.712663E-16
4.306000E+03	2.659279E-14	3.703129E-16
4.308000E+03	2.653351E-14	3.692048E-16
4.310000E+03	2.646419E-14	3.679592E-16
4.312000E+03	2.638359E-14	3.665592E-16
4.314000E+03	2.629784E-14	3.650900E-16
4.316000E+03	2.619709E-14	3.634154E-16
4.318000E+03	2.608501E-14	3.615865E-16
4.320000E+03	2.596035E-14	3.595866E-16
4.322000E+03	2.581940E-14	3.573645E-16
