#wls	flux	fluxerr
1.600000E+03	2.784912E-16	1.927329E-17
1.640000E+03	2.584676E-16	1.775324E-17
1.680000E+03	2.404353E-16	1.638899E-17
1.720000E+03	2.241765E-16	1.516295E-17
1.760000E+03	2.096523E-16	1.406995E-17
1.800000E+03	1.967085E-16	1.309717E-17
1.840000E+03	1.853084E-16	1.223984E-17
1.880000E+03	1.753508E-16	1.148901E-17
1.920000E+03	1.667786E-16	1.083878E-17
1.960000E+03	1.595181E-16	1.028231E-17
2.000000E+03	1.535423E-16	9.815847E-18
2.040000E+03	1.488167E-16	9.435255E-18
2.080000E+03	1.454066E-16	9.142729E-18
2.120000E+03	1.433378E-16	8.937883E-18
2.160000E+03	1.427620E-16	8.828084E-18
2.200000E+03	1.438001E-16	8.818533E-18
2.240000E+03	1.466524E-16	8.919036E-18
2.280000E+03	1.515468E-16	9.140759E-18
2.320000E+03	1.585807E-16	9.486649E-18
2.360000E+03	1.678442E-16	9.959065E-18
2.400000E+03	1.794235E-16	1.055993E-17
2.440000E+03	1.933885E-16	1.129005E-17
2.480000E+03	2.097464E-16	1.214646E-17
2.520000E+03	2.284442E-16	1.312275E-17
2.560000E+03	2.494137E-16	1.421171E-17
2.600000E+03	2.724310E-16	1.539743E-17
2.640000E+03	2.972452E-16	1.666284E-17
2.680000E+03	3.236069E-16	1.799133E-17
2.720000E+03	3.512720E-16	1.936697E-17
2.760000E+03	3.801119E-16	2.078050E-17
2.800000E+03	4.098736E-16	2.221605E-17
2.840000E+03	4.404084E-16	2.366375E-17
2.880000E+03	4.714463E-16	2.510743E-17
2.920000E+03	5.027389E-16	2.653253E-17
2.960000E+03	5.342389E-16	2.793539E-17
3.000000E+03	5.658502E-16	2.930985E-17
3.010000E+03	5.737895E-16	2.964989E-17
3.020000E+03	5.817744E-16	2.999006E-17
3.030000E+03	5.897483E-16	3.032741E-17
3.040000E+03	5.977121E-16	3.066199E-17
3.050000E+03	6.057863E-16	3.099994E-17
3.060000E+03	6.137953E-16	3.133224E-17
3.070000E+03	6.219206E-16	3.166816E-17
3.080000E+03	6.300453E-16	3.200168E-17
3.090000E+03	6.382331E-16	3.233603E-17
3.100000E+03	6.464879E-16	3.267135E-17
3.110000E+03	6.547521E-16	3.300471E-17
3.120000E+03	6.631531E-16	3.334249E-17
3.130000E+03	6.715719E-16	3.367865E-17
3.140000E+03	6.801380E-16	3.401965E-17
3.150000E+03	6.887314E-16	3.435943E-17
3.160000E+03	6.974834E-16	3.470448E-17
3.170000E+03	7.063371E-16	3.505191E-17
3.180000E+03	7.153626E-16	3.540513E-17
3.190000E+03	7.245027E-16	3.576121E-17
3.200000E+03	7.338286E-16	3.612360E-17
3.210000E+03	7.432829E-16	3.648939E-17
3.220000E+03	7.529380E-16	3.686204E-17
3.230000E+03	7.628020E-16	3.724186E-17
3.240000E+03	7.728831E-16	3.762913E-17
3.250000E+03	7.832564E-16	3.802738E-17
3.260000E+03	7.937977E-16	3.843046E-17
3.270000E+03	8.046490E-16	3.884514E-17
3.280000E+03	8.158202E-16	3.927173E-17
3.290000E+03	8.273209E-16	3.971055E-17
3.300000E+03	8.390925E-16	4.015861E-17
3.310000E+03	8.512813E-16	4.062277E-17
3.320000E+03	8.638288E-16	4.110004E-17
3.330000E+03	8.768123E-16	4.159391E-17
3.340000E+03	8.902430E-16	4.210469E-17
3.350000E+03	9.041301E-16	4.263261E-17
3.360000E+03	9.184814E-16	4.317779E-17
3.370000E+03	9.333761E-16	4.374372E-17
3.380000E+03	9.488206E-16	4.433043E-17
3.390000E+03	9.648230E-16	4.493804E-17
3.400000E+03	9.814591E-16	4.556978E-17
3.410000E+03	9.987323E-16	4.622550E-17
3.420000E+03	1.016645E-15	4.690500E-17
3.430000E+03	1.035269E-15	4.761125E-17
3.440000E+03	1.054601E-15	4.834374E-17
3.450000E+03	1.074635E-15	4.910186E-17
3.460000E+03	1.095434E-15	4.988815E-17
3.470000E+03	1.117062E-15	5.070506E-17
3.480000E+03	1.139427E-15	5.154809E-17
3.490000E+03	1.162667E-15	5.242299E-17
3.500000E+03	1.186692E-15	5.332536E-17
3.510000E+03	1.211635E-15	5.426069E-17
3.520000E+03	1.237397E-15	5.522416E-17
3.530000E+03	1.263952E-15	5.621414E-17
3.540000E+03	1.291423E-15	5.723564E-17
3.550000E+03	1.319699E-15	5.828332E-17
3.560000E+03	1.348819E-15	5.935847E-17
3.570000E+03	1.378664E-15	6.045543E-17
3.580000E+03	1.409271E-15	6.157540E-17
3.590000E+03	1.440595E-15	6.271600E-17
3.600000E+03	1.472511E-15	6.387140E-17
3.610000E+03	1.505054E-15	6.504281E-17
3.620000E+03	1.538184E-15	6.622809E-17
3.630000E+03	1.571700E-15	6.741829E-17
3.640000E+03	1.605729E-15	6.861863E-17
3.650000E+03	1.640244E-15	6.982761E-17
3.660000E+03	1.675065E-15	7.103725E-17
3.670000E+03	1.710342E-15	7.225376E-17
3.680000E+03	1.745916E-15	7.347011E-17
3.690000E+03	1.781878E-15	7.468995E-17
3.700000E+03	1.818174E-15	7.591070E-17
3.710000E+03	1.854920E-15	7.713701E-17
3.720000E+03	1.892082E-15	7.836720E-17
3.730000E+03	1.929720E-15	7.960342E-17
3.740000E+03	1.967900E-15	8.084815E-17
3.750000E+03	2.006696E-15	8.210404E-17
3.760000E+03	2.046103E-15	8.337050E-17
3.770000E+03	2.086196E-15	8.465028E-17
3.780000E+03	2.127050E-15	8.594594E-17
3.790000E+03	2.168646E-15	8.725629E-17
3.800000E+03	2.211117E-15	8.858623E-17
3.810000E+03	2.254416E-15	8.993340E-17
3.820000E+03	2.298560E-15	9.129796E-17
3.830000E+03	2.343538E-15	9.267898E-17
3.840000E+03	2.389154E-15	9.406831E-17
3.850000E+03	2.435506E-15	9.546939E-17
3.860000E+03	2.482341E-15	9.687193E-17
3.870000E+03	2.529620E-15	9.827408E-17
3.880000E+03	2.577035E-15	9.966373E-17
3.890000E+03	2.624578E-15	1.010404E-16
3.900000E+03	2.671816E-15	1.023874E-16
3.910000E+03	2.718706E-15	1.037032E-16
3.920000E+03	2.764868E-15	1.049737E-16
3.930000E+03	2.810086E-15	1.061909E-16
3.940000E+03	2.854143E-15	1.073473E-16
3.950000E+03	2.896834E-15	1.084358E-16
3.960000E+03	2.937889E-15	1.094469E-16
3.970000E+03	2.977141E-15	1.103756E-16
3.980000E+03	3.014372E-15	1.112146E-16
3.990000E+03	3.049476E-15	1.119612E-16
4.000000E+03	3.082380E-15	1.126139E-16
4.010000E+03	3.112972E-15	1.131700E-16
4.020000E+03	3.141259E-15	1.136307E-16
4.030000E+03	3.167201E-15	1.139962E-16
4.040000E+03	3.190950E-15	1.142732E-16
4.050000E+03	3.212462E-15	1.144613E-16
4.060000E+03	3.231946E-15	1.145692E-16
4.070000E+03	3.249482E-15	1.146009E-16
4.080000E+03	3.265241E-15	1.145636E-16
4.090000E+03	3.279333E-15	1.144622E-16
4.100000E+03	3.291946E-15	1.143041E-16
4.110000E+03	3.303269E-15	1.140968E-16
4.120000E+03	3.313411E-15	1.138449E-16
4.130000E+03	3.322616E-15	1.135574E-16
4.140000E+03	3.330972E-15	1.132379E-16
4.150000E+03	3.338555E-15	1.128896E-16
4.160000E+03	3.345628E-15	1.125218E-16
4.170000E+03	3.352097E-15	1.121318E-16
4.180000E+03	3.358190E-15	1.117276E-16
4.190000E+03	3.363852E-15	1.113078E-16
4.200000E+03	3.369275E-15	1.108789E-16
4.210000E+03	3.374448E-15	1.104409E-16
4.220000E+03	3.379354E-15	1.099934E-16
4.230000E+03	3.384160E-15	1.095423E-16
4.240000E+03	3.388788E-15	1.090851E-16
4.250000E+03	3.393409E-15	1.086275E-16
4.260000E+03	3.397963E-15	1.081678E-16
4.270000E+03	3.402643E-15	1.077122E-16
4.280000E+03	3.407537E-15	1.072637E-16
4.290000E+03	3.412693E-15	1.068237E-16
4.300000E+03	3.418300E-15	1.063982E-16
4.310000E+03	3.424504E-15	1.059915E-16
4.320000E+03	3.431528E-15	1.056104E-16
4.330000E+03	3.439555E-15	1.052602E-16
4.340000E+03	3.448774E-15	1.049464E-16
4.350000E+03	3.459388E-15	1.046745E-16
4.360000E+03	3.471702E-15	1.044533E-16
4.370000E+03	3.485910E-15	1.042879E-16
4.380000E+03	3.502494E-15	1.041918E-16
4.390000E+03	3.521837E-15	1.041754E-16
4.400000E+03	3.544457E-15	1.042528E-16
4.410000E+03	3.570720E-15	1.044332E-16
4.420000E+03	3.600890E-15	1.047228E-16
4.430000E+03	3.635283E-15	1.051291E-16
4.440000E+03	3.674044E-15	1.056542E-16
4.450000E+03	3.717355E-15	1.063015E-16
4.460000E+03	3.765152E-15	1.070671E-16
4.470000E+03	3.817511E-15	1.079513E-16
4.480000E+03	3.874303E-15	1.089484E-16
4.490000E+03	3.935157E-15	1.100463E-16
4.500000E+03	3.999763E-15	1.112347E-16
4.510000E+03	4.067600E-15	1.124978E-16
4.520000E+03	4.138177E-15	1.138208E-16
4.530000E+03	4.210748E-15	1.151825E-16
4.540000E+03	4.284675E-15	1.165648E-16
4.550000E+03	4.359152E-15	1.179457E-16
4.560000E+03	4.433396E-15	1.193043E-16
4.570000E+03	4.506557E-15	1.206182E-16
4.580000E+03	4.577791E-15	1.218655E-16
4.590000E+03	4.646422E-15	1.230292E-16
4.600000E+03	4.711715E-15	1.240911E-16
4.610000E+03	4.773090E-15	1.250374E-16
4.620000E+03	4.830013E-15	1.258560E-16
4.630000E+03	4.882142E-15	1.265396E-16
4.640000E+03	4.929269E-15	1.270849E-16
4.650000E+03	4.971331E-15	1.274922E-16
4.660000E+03	5.008335E-15	1.277637E-16
4.670000E+03	5.040550E-15	1.279081E-16
4.680000E+03	5.068225E-15	1.279335E-16
4.690000E+03	5.091772E-15	1.278518E-16
4.700000E+03	5.111673E-15	1.276767E-16
4.710000E+03	5.128456E-15	1.274226E-16
4.720000E+03	5.142608E-15	1.271024E-16
4.730000E+03	5.154739E-15	1.267320E-16
4.740000E+03	5.165306E-15	1.263232E-16
4.750000E+03	5.174780E-15	1.258880E-16
4.760000E+03	5.183508E-15	1.254349E-16
4.770000E+03	5.191818E-15	1.249721E-16
4.780000E+03	5.199953E-15	1.245052E-16
4.790000E+03	5.207935E-15	1.240347E-16
4.800000E+03	5.215817E-15	1.235618E-16
4.810000E+03	5.223608E-15	1.230866E-16
4.820000E+03	5.231234E-15	1.226072E-16
4.830000E+03	5.238404E-15	1.221169E-16
4.840000E+03	5.244879E-15	1.216101E-16
4.850000E+03	5.250299E-15	1.210786E-16
4.860000E+03	5.254317E-15	1.205148E-16
4.870000E+03	5.256561E-15	1.199108E-16
4.880000E+03	5.256529E-15	1.192555E-16
4.890000E+03	5.253801E-15	1.185404E-16
4.900000E+03	5.248052E-15	1.177592E-16
4.910000E+03	5.238903E-15	1.169043E-16
4.920000E+03	5.226172E-15	1.159731E-16
4.930000E+03	5.209720E-15	1.149637E-16
4.940000E+03	5.189578E-15	1.138782E-16
4.950000E+03	5.165732E-15	1.127176E-16
4.960000E+03	5.138469E-15	1.114896E-16
4.970000E+03	5.108143E-15	1.102031E-16
4.980000E+03	5.075289E-15	1.088707E-16
4.990000E+03	5.040435E-15	1.075046E-16
5.000000E+03	5.004261E-15	1.061201E-16
5.010000E+03	4.967573E-15	1.047347E-16
5.020000E+03	4.931121E-15	1.033644E-16
5.030000E+03	4.895795E-15	1.020277E-16
5.040000E+03	4.862438E-15	1.007418E-16
5.050000E+03	4.831888E-15	9.952327E-17
5.060000E+03	4.804898E-15	9.838676E-17
5.070000E+03	4.782341E-15	9.734885E-17
5.080000E+03	4.764828E-15	9.642044E-17
5.090000E+03	4.753116E-15	9.561515E-17
5.100000E+03	4.747790E-15	9.494276E-17
5.110000E+03	4.749261E-15	9.440942E-17
5.120000E+03	4.758122E-15	9.402468E-17
5.130000E+03	4.774591E-15	9.379047E-17
5.140000E+03	4.799111E-15	9.371311E-17
5.150000E+03	4.831806E-15	9.379254E-17
5.160000E+03	4.872932E-15	9.403125E-17
5.170000E+03	4.922478E-15	9.442658E-17
5.180000E+03	4.980520E-15	9.497764E-17
5.190000E+03	5.047086E-15	9.568259E-17
5.200000E+03	5.122041E-15	9.653670E-17
5.210000E+03	5.205262E-15	9.753556E-17
5.220000E+03	5.296582E-15	9.867411E-17
5.230000E+03	5.395807E-15	9.994700E-17
5.240000E+03	5.502773E-15	1.013496E-16
5.250000E+03	5.617249E-15	1.028763E-16
5.260000E+03	5.738937E-15	1.045205E-16
5.270000E+03	5.867594E-15	1.062767E-16
5.280000E+03	6.003049E-15	1.081412E-16
5.290000E+03	6.145015E-15	1.101083E-16
5.300000E+03	6.293344E-15	1.121751E-16
5.310000E+03	6.447840E-15	1.143379E-16
5.320000E+03	6.608238E-15	1.165922E-16
5.330000E+03	6.774410E-15	1.189362E-16
5.340000E+03	6.946073E-15	1.213654E-16
5.350000E+03	7.123053E-15	1.238778E-16
5.360000E+03	7.304986E-15	1.264681E-16
5.370000E+03	7.491590E-15	1.291327E-16
5.380000E+03	7.682348E-15	1.318644E-16
5.390000E+03	7.876795E-15	1.346571E-16
5.400000E+03	8.074203E-15	1.375005E-16
5.410000E+03	8.273879E-15	1.403855E-16
5.420000E+03	8.474841E-15	1.432980E-16
5.430000E+03	8.675917E-15	1.462214E-16
5.440000E+03	8.875343E-15	1.491294E-16
5.450000E+03	9.070905E-15	1.519885E-16
5.460000E+03	9.260271E-15	1.547638E-16
5.470000E+03	9.440868E-15	1.574165E-16
5.480000E+03	9.610329E-15	1.599112E-16
5.490000E+03	9.766289E-15	1.622113E-16
5.500000E+03	9.906451E-15	1.642809E-16
5.510000E+03	1.002906E-14	1.660925E-16
5.520000E+03	1.013248E-14	1.676205E-16
5.530000E+03	1.021546E-14	1.688452E-16
5.540000E+03	1.027720E-14	1.697536E-16
5.550000E+03	1.031734E-14	1.703399E-16
5.560000E+03	1.033600E-14	1.706057E-16
5.570000E+03	1.033379E-14	1.705598E-16
5.580000E+03	1.031163E-14	1.702164E-16
5.590000E+03	1.027107E-14	1.695990E-16
5.600000E+03	1.021386E-14	1.687348E-16
5.610000E+03	1.014194E-14	1.676535E-16
5.620000E+03	1.005771E-14	1.663925E-16
5.630000E+03	9.963380E-15	1.649859E-16
5.640000E+03	9.861185E-15	1.634684E-16
5.650000E+03	9.753590E-15	1.618786E-16
5.660000E+03	9.642647E-15	1.602482E-16
5.670000E+03	9.530325E-15	1.586082E-16
5.680000E+03	9.418364E-15	1.569856E-16
5.690000E+03	9.308340E-15	1.554051E-16
5.700000E+03	9.201357E-15	1.538838E-16
5.710000E+03	9.098408E-15	1.524372E-16
5.720000E+03	9.000008E-15	1.510727E-16
5.730000E+03	8.906480E-15	1.497951E-16
5.740000E+03	8.817957E-15	1.486058E-16
5.750000E+03	8.734237E-15	1.475009E-16
5.760000E+03	8.654813E-15	1.464713E-16
5.770000E+03	8.579162E-15	1.455076E-16
5.780000E+03	8.506445E-15	1.445952E-16
5.790000E+03	8.435883E-15	1.437202E-16
5.800000E+03	8.366460E-15	1.428649E-16
5.810000E+03	8.297305E-15	1.420138E-16
5.820000E+03	8.227475E-15	1.411503E-16
5.830000E+03	8.156005E-15	1.402569E-16
5.840000E+03	8.082098E-15	1.393193E-16
5.850000E+03	8.005156E-15	1.383264E-16
5.860000E+03	7.924559E-15	1.372666E-16
5.870000E+03	7.840006E-15	1.361340E-16
5.880000E+03	7.751128E-15	1.349212E-16
5.890000E+03	7.658034E-15	1.336293E-16
5.900000E+03	7.560764E-15	1.322582E-16
5.910000E+03	7.459511E-15	1.308105E-16
5.920000E+03	7.354827E-15	1.292953E-16
5.930000E+03	7.247004E-15	1.277172E-16
5.940000E+03	7.136867E-15	1.260901E-16
5.950000E+03	7.024873E-15	1.244218E-16
5.960000E+03	6.911870E-15	1.227271E-16
5.970000E+03	6.798522E-15	1.210177E-16
5.980000E+03	6.685488E-15	1.193052E-16
5.990000E+03	6.573542E-15	1.176035E-16
6.000000E+03	6.463292E-15	1.159239E-16
6.010000E+03	6.355370E-15	1.142778E-16
6.020000E+03	6.250295E-15	1.126751E-16
6.030000E+03	6.148655E-15	1.111269E-16
6.040000E+03	6.050802E-15	1.096401E-16
6.050000E+03	5.957222E-15	1.082243E-16
6.060000E+03	5.868231E-15	1.068857E-16
6.070000E+03	5.784108E-15	1.056305E-16
6.080000E+03	5.705155E-15	1.044649E-16
6.090000E+03	5.631640E-15	1.033947E-16
6.100000E+03	5.563702E-15	1.024235E-16
6.110000E+03	5.501572E-15	1.015565E-16
6.120000E+03	5.445463E-15	1.007987E-16
6.130000E+03	5.395472E-15	1.001531E-16
6.140000E+03	5.351848E-15	9.962535E-17
6.150000E+03	5.314723E-15	9.921929E-17
6.160000E+03	5.284221E-15	9.893845E-17
6.170000E+03	5.260512E-15	9.878737E-17
6.180000E+03	5.243804E-15	9.877141E-17
6.190000E+03	5.234248E-15	9.889490E-17
6.200000E+03	5.231922E-15	9.916091E-17
6.210000E+03	5.237000E-15	9.957438E-17
6.220000E+03	5.249527E-15	1.001379E-16
6.230000E+03	5.269639E-15	1.008560E-16
6.240000E+03	5.297390E-15	1.017315E-16
6.250000E+03	5.332863E-15	1.027680E-16
6.260000E+03	5.376053E-15	1.039676E-16
6.270000E+03	5.426921E-15	1.053318E-16
6.280000E+03	5.485491E-15	1.068631E-16
6.290000E+03	5.551572E-15	1.085604E-16
6.300000E+03	5.625090E-15	1.104246E-16
6.310000E+03	5.705790E-15	1.124531E-16
6.320000E+03	5.793347E-15	1.146414E-16
6.330000E+03	5.887479E-15	1.169856E-16
6.340000E+03	5.987638E-15	1.194763E-16
6.350000E+03	6.093255E-15	1.221036E-16
6.360000E+03	6.203800E-15	1.248580E-16
6.370000E+03	6.318602E-15	1.277274E-16
6.380000E+03	6.436716E-15	1.306934E-16
6.390000E+03	6.557391E-15	1.337415E-16
6.400000E+03	6.679760E-15	1.368545E-16
6.410000E+03	6.802657E-15	1.400087E-16
6.420000E+03	6.924400E-15	1.431691E-16
6.430000E+03	7.043198E-15	1.462979E-16
6.440000E+03	7.157315E-15	1.493577E-16
6.450000E+03	7.264958E-15	1.523091E-16
6.460000E+03	7.364388E-15	1.551131E-16
6.470000E+03	7.453873E-15	1.577303E-16
6.480000E+03	7.531812E-15	1.601231E-16
6.490000E+03	7.597019E-15	1.622621E-16
6.500000E+03	7.648354E-15	1.641185E-16
6.510000E+03	7.684995E-15	1.656699E-16
6.520000E+03	7.706299E-15	1.668972E-16
6.530000E+03	7.712061E-15	1.677907E-16
6.540000E+03	7.702018E-15	1.683395E-16
6.550000E+03	7.676524E-15	1.685460E-16
6.560000E+03	7.636026E-15	1.684147E-16
6.570000E+03	7.581133E-15	1.679543E-16
6.580000E+03	7.512930E-15	1.671839E-16
6.590000E+03	7.432429E-15	1.661219E-16
6.600000E+03	7.340884E-15	1.647922E-16
6.610000E+03	7.239655E-15	1.632221E-16
6.620000E+03	7.130175E-15	1.614407E-16
6.630000E+03	7.013990E-15	1.594807E-16
6.640000E+03	6.892557E-15	1.573732E-16
6.650000E+03	6.767213E-15	1.551471E-16
6.660000E+03	6.639389E-15	1.528343E-16
6.670000E+03	6.510342E-15	1.504630E-16
6.680000E+03	6.381220E-15	1.480596E-16
6.690000E+03	6.253126E-15	1.456497E-16
6.700000E+03	6.126879E-15	1.432530E-16
6.710000E+03	6.003321E-15	1.408897E-16
6.720000E+03	5.883015E-15	1.385741E-16
6.730000E+03	5.766616E-15	1.363225E-16
6.740000E+03	5.654383E-15	1.341423E-16
6.750000E+03	5.546742E-15	1.320450E-16
6.760000E+03	5.443824E-15	1.300348E-16
6.770000E+03	5.345740E-15	1.281161E-16
6.780000E+03	5.252601E-15	1.262926E-16
6.790000E+03	5.164388E-15	1.245654E-16
6.800000E+03	5.080967E-15	1.229326E-16
6.810000E+03	5.002359E-15	1.213960E-16
6.820000E+03	4.928300E-15	1.199504E-16
6.830000E+03	4.858693E-15	1.185946E-16
6.840000E+03	4.793420E-15	1.173270E-16
6.850000E+03	4.732237E-15	1.161426E-16
6.860000E+03	4.674953E-15	1.150377E-16
6.870000E+03	4.621381E-15	1.140086E-16
6.880000E+03	4.571396E-15	1.130531E-16
6.890000E+03	4.524764E-15	1.121663E-16
6.900000E+03	4.481381E-15	1.113463E-16
6.910000E+03	4.441043E-15	1.105888E-16
6.920000E+03	4.403673E-15	1.098925E-16
6.930000E+03	4.369104E-15	1.092539E-16
6.940000E+03	4.337301E-15	1.086726E-16
6.950000E+03	4.308190E-15	1.081473E-16
6.960000E+03	4.281666E-15	1.076759E-16
6.970000E+03	4.257698E-15	1.072581E-16
6.980000E+03	4.236386E-15	1.068968E-16
6.990000E+03	4.217568E-15	1.065884E-16
7.000000E+03	4.201430E-15	1.063380E-16
7.010000E+03	4.187843E-15	1.061426E-16
7.020000E+03	4.176956E-15	1.060065E-16
7.030000E+03	4.168819E-15	1.059312E-16
7.040000E+03	4.163426E-15	1.059169E-16
7.050000E+03	4.160826E-15	1.059651E-16
7.060000E+03	4.161063E-15	1.060773E-16
7.070000E+03	4.164171E-15	1.062544E-16
7.080000E+03	4.170228E-15	1.064989E-16
7.090000E+03	4.179134E-15	1.068081E-16
7.100000E+03	4.190936E-15	1.071837E-16
7.110000E+03	4.205607E-15	1.076249E-16
7.120000E+03	4.223050E-15	1.081294E-16
7.130000E+03	4.243255E-15	1.086971E-16
7.140000E+03	4.266083E-15	1.093245E-16
7.150000E+03	4.291431E-15	1.100089E-16
7.160000E+03	4.319182E-15	1.107473E-16
7.170000E+03	4.349140E-15	1.115349E-16
7.180000E+03	4.381276E-15	1.123706E-16
7.190000E+03	4.415254E-15	1.132460E-16
7.200000E+03	4.450961E-15	1.141581E-16
7.210000E+03	4.488284E-15	1.151038E-16
7.220000E+03	4.526858E-15	1.160739E-16
7.230000E+03	4.566620E-15	1.170667E-16
7.240000E+03	4.607321E-15	1.180757E-16
7.250000E+03	4.648710E-15	1.190944E-16
7.260000E+03	4.690660E-15	1.201196E-16
7.270000E+03	4.732855E-15	1.211433E-16
7.280000E+03	4.775105E-15	1.221604E-16
7.290000E+03	4.817284E-15	1.231680E-16
7.300000E+03	4.859073E-15	1.241578E-16
7.310000E+03	4.900286E-15	1.251253E-16
7.320000E+03	4.940672E-15	1.260642E-16
7.330000E+03	4.980119E-15	1.269718E-16
7.340000E+03	5.018326E-15	1.278407E-16
7.350000E+03	5.055064E-15	1.286652E-16
7.360000E+03	5.090263E-15	1.294440E-16
7.370000E+03	5.123737E-15	1.301725E-16
7.380000E+03	5.155325E-15	1.308472E-16
7.390000E+03	5.184972E-15	1.314670E-16
7.400000E+03	5.212513E-15	1.320283E-16
7.410000E+03	5.238042E-15	1.325338E-16
7.420000E+03	5.261625E-15	1.329859E-16
7.430000E+03	5.283155E-15	1.333823E-16
7.440000E+03	5.302930E-15	1.337311E-16
7.450000E+03	5.321143E-15	1.340378E-16
7.460000E+03	5.338024E-15	1.343087E-16
7.470000E+03	5.353824E-15	1.345508E-16
7.480000E+03	5.368891E-15	1.347734E-16
7.490000E+03	5.383501E-15	1.349839E-16
7.500000E+03	5.397997E-15	1.351916E-16
7.510000E+03	5.412703E-15	1.354051E-16
7.520000E+03	5.427912E-15	1.356323E-16
7.530000E+03	5.443643E-15	1.358742E-16
7.540000E+03	5.460316E-15	1.361418E-16
7.550000E+03	5.477751E-15	1.364313E-16
7.560000E+03	5.496156E-15	1.367484E-16
7.570000E+03	5.515435E-15	1.370913E-16
7.580000E+03	5.535331E-15	1.374543E-16
7.590000E+03	5.555744E-15	1.378356E-16
7.600000E+03	5.576266E-15	1.382258E-16
7.610000E+03	5.596657E-15	1.386198E-16
7.620000E+03	5.616382E-15	1.390051E-16
7.630000E+03	5.634934E-15	1.393700E-16
7.640000E+03	5.651855E-15	1.397041E-16
7.650000E+03	5.666589E-15	1.399946E-16
7.660000E+03	5.678570E-15	1.402285E-16
7.670000E+03	5.687251E-15	1.403931E-16
7.680000E+03	5.692109E-15	1.404766E-16
7.690000E+03	5.692750E-15	1.404700E-16
7.700000E+03	5.688755E-15	1.403640E-16
7.710000E+03	5.679693E-15	1.401486E-16
7.720000E+03	5.665295E-15	1.398179E-16
7.730000E+03	5.645459E-15	1.393701E-16
7.740000E+03	5.620008E-15	1.388012E-16
7.750000E+03	5.589023E-15	1.381137E-16
7.760000E+03	5.552503E-15	1.373077E-16
