#wls	flux	fluxerr
1.597671E+03	2.428767E-15	8.183370E-17
1.637612E+03	1.971589E-15	6.625773E-17
1.677554E+03	1.570770E-15	5.264743E-17
1.717496E+03	1.227408E-15	4.102682E-17
1.757438E+03	9.400598E-16	3.133416E-17
1.797379E+03	7.048508E-16	2.342675E-17
1.837321E+03	5.165760E-16	1.711863E-17
1.877263E+03	3.697267E-16	1.221526E-17
1.917205E+03	2.583464E-16	8.508992E-18
1.957146E+03	1.765428E-16	5.796223E-18
1.997088E+03	1.186815E-16	3.883851E-18
2.037030E+03	7.955046E-17	2.594605E-18
2.076972E+03	5.442566E-17	1.769069E-18
2.116914E+03	3.917264E-17	1.268818E-18
2.156855E+03	3.048429E-17	9.838532E-19
2.196797E+03	2.610060E-17	8.392742E-19
2.236739E+03	2.472051E-17	7.919004E-19
2.276681E+03	2.578189E-17	8.227121E-19
2.316622E+03	2.925930E-17	9.299856E-19
2.356564E+03	3.556464E-17	1.125819E-18
2.396506E+03	4.552036E-17	1.434999E-18
2.436448E+03	6.030253E-17	1.892929E-18
2.476389E+03	8.129196E-17	2.540715E-18
2.516331E+03	1.097446E-16	3.414736E-18
2.556273E+03	1.463944E-16	4.534391E-18
2.596215E+03	1.911782E-16	5.893974E-18
2.636156E+03	2.432325E-16	7.463127E-18
2.676098E+03	3.004962E-16	9.175319E-18
2.716040E+03	3.600435E-16	1.093888E-17
2.755982E+03	4.194619E-16	1.267941E-17
2.795924E+03	4.775131E-16	1.435927E-17
2.835865E+03	5.338326E-16	1.596777E-17
2.875807E+03	5.881197E-16	1.749639E-17
2.915749E+03	6.392212E-16	1.891162E-17
2.955691E+03	6.847245E-16	2.014369E-17
2.995632E+03	7.208937E-16	2.108584E-17
3.005618E+03	7.280026E-16	2.126273E-17
3.015603E+03	7.341937E-16	2.141214E-17
3.025589E+03	7.394111E-16	2.153256E-17
3.035574E+03	7.436569E-16	2.162418E-17
3.045560E+03	7.469257E-16	2.168695E-17
3.055545E+03	7.492563E-16	2.172214E-17
3.065530E+03	7.506287E-16	2.172929E-17
3.075516E+03	7.510049E-16	2.170741E-17
3.085501E+03	7.503776E-16	2.165644E-17
3.095487E+03	7.487855E-16	2.157762E-17
3.105472E+03	7.462186E-16	2.147079E-17
3.115458E+03	7.427272E-16	2.133753E-17
3.125443E+03	7.383434E-16	2.117888E-17
3.135429E+03	7.331684E-16	2.099786E-17
3.145414E+03	7.272234E-16	2.079519E-17
3.155399E+03	7.205950E-16	2.057344E-17
3.165385E+03	7.133721E-16	2.033526E-17
3.175370E+03	7.056307E-16	2.008287E-17
3.185356E+03	6.974203E-16	1.981776E-17
3.195341E+03	6.888526E-16	1.954317E-17
3.205327E+03	6.799700E-16	1.926036E-17
3.215312E+03	6.708471E-16	1.897147E-17
3.225298E+03	6.615261E-16	1.867774E-17
3.235283E+03	6.520655E-16	1.838085E-17
3.245268E+03	6.425026E-16	1.808187E-17
3.255254E+03	6.328661E-16	1.778163E-17
3.265239E+03	6.231650E-16	1.748039E-17
3.275225E+03	6.134222E-16	1.717880E-17
3.285210E+03	6.036412E-16	1.687699E-17
3.295196E+03	5.938097E-16	1.657460E-17
3.305181E+03	5.839284E-16	1.627168E-17
3.315166E+03	5.739746E-16	1.596760E-17
3.325152E+03	5.639408E-16	1.566216E-17
3.335137E+03	5.537985E-16	1.535460E-17
3.345123E+03	5.435272E-16	1.504437E-17
3.355108E+03	5.331077E-16	1.473096E-17
3.365094E+03	5.225215E-16	1.441387E-17
3.375079E+03	5.117525E-16	1.409270E-17
3.385065E+03	5.007824E-16	1.376697E-17
3.395050E+03	4.896119E-16	1.343674E-17
3.405035E+03	4.782269E-16	1.310165E-17
3.415021E+03	4.666487E-16	1.276231E-17
3.425006E+03	4.548787E-16	1.241881E-17
3.434992E+03	4.429410E-16	1.207181E-17
3.444977E+03	4.308683E-16	1.172225E-17
3.454963E+03	4.186952E-16	1.137109E-17
3.464948E+03	4.064749E-16	1.101978E-17
3.474934E+03	3.942605E-16	1.066977E-17
3.484919E+03	3.821186E-16	1.032287E-17
3.494904E+03	3.701315E-16	9.981284E-18
3.504890E+03	3.583858E-16	9.647325E-18
3.514875E+03	3.469831E-16	9.323697E-18
3.524861E+03	3.360133E-16	9.012757E-18
3.534846E+03	3.255880E-16	8.717439E-18
3.544832E+03	3.158137E-16	8.440512E-18
3.554817E+03	3.068031E-16	8.184887E-18
3.564803E+03	2.986607E-16	7.953244E-18
3.574788E+03	2.914936E-16	7.748301E-18
3.584773E+03	2.854099E-16	7.572788E-18
3.594759E+03	2.804982E-16	7.428896E-18
3.604744E+03	2.768522E-16	7.318937E-18
3.614730E+03	2.745511E-16	7.244812E-18
3.624715E+03	2.736625E-16	7.208111E-18
3.634701E+03	2.742511E-16	7.210330E-18
3.644686E+03	2.763776E-16	7.252849E-18
3.654671E+03	2.800915E-16	7.336744E-18
3.664657E+03	2.854470E-16	7.463199E-18
3.674642E+03	2.924814E-16	7.632951E-18
3.684628E+03	3.012350E-16	7.846806E-18
3.694613E+03	3.117372E-16	8.105285E-18
3.704599E+03	3.240120E-16	8.408754E-18
3.714584E+03	3.380632E-16	8.757059E-18
3.724570E+03	3.538845E-16	9.149780E-18
3.734555E+03	3.714474E-16	9.585930E-18
3.744540E+03	3.907023E-16	1.006398E-17
3.754526E+03	4.115682E-16	1.058161E-17
3.764511E+03	4.339378E-16	1.113583E-17
3.774497E+03	4.576659E-16	1.172272E-17
3.784482E+03	4.825722E-16	1.233748E-17
3.794468E+03	5.084577E-16	1.297485E-17
3.804453E+03	5.350696E-16	1.362828E-17
3.814439E+03	5.621490E-16	1.429109E-17
3.824424E+03	5.894229E-16	1.495628E-17
3.834409E+03	6.165960E-16	1.561636E-17
3.844395E+03	6.433880E-16	1.626427E-17
3.854380E+03	6.695434E-16	1.689363E-17
3.864366E+03	6.948288E-16	1.749866E-17
3.874351E+03	7.190464E-16	1.807453E-17
3.884337E+03	7.420339E-16	1.861732E-17
3.894322E+03	7.636849E-16	1.912456E-17
3.904308E+03	7.839269E-16	1.959464E-17
3.914293E+03	8.027209E-16	2.002680E-17
3.924278E+03	8.200538E-16	2.042092E-17
3.934264E+03	8.359298E-16	2.077733E-17
3.944249E+03	8.503666E-16	2.109668E-17
3.954235E+03	8.633738E-16	2.137943E-17
3.964220E+03	8.749457E-16	2.162563E-17
3.974206E+03	8.850881E-16	2.183565E-17
3.984191E+03	8.937706E-16	2.200894E-17
3.994176E+03	9.009652E-16	2.214503E-17
4.004162E+03	9.066240E-16	2.224296E-17
4.014147E+03	9.106848E-16	2.230141E-17
4.024133E+03	9.131085E-16	2.231967E-17
4.034118E+03	9.138334E-16	2.229645E-17
4.044104E+03	9.128253E-16	2.223115E-17
4.054089E+03	9.100579E-16	2.212338E-17
4.064075E+03	9.055215E-16	2.197315E-17
4.074060E+03	8.992325E-16	2.178107E-17
4.084045E+03	8.912440E-16	2.154868E-17
4.094031E+03	8.816210E-16	2.127775E-17
4.104016E+03	8.704723E-16	2.097114E-17
4.114002E+03	8.579593E-16	2.063291E-17
4.123987E+03	8.442462E-16	2.026717E-17
4.133973E+03	8.295597E-16	1.987951E-17
4.143958E+03	8.141560E-16	1.947618E-17
4.153944E+03	7.983159E-16	1.906396E-17
4.163929E+03	7.823460E-16	1.865021E-17
4.173914E+03	7.665650E-16	1.824253E-17
4.183900E+03	7.512876E-16	1.784834E-17
4.193885E+03	7.368179E-16	1.747481E-17
4.203871E+03	7.234382E-16	1.712850E-17
4.213856E+03	7.113928E-16	1.681506E-17
4.223842E+03	7.008787E-16	1.653895E-17
4.233827E+03	6.920543E-16	1.630374E-17
4.243813E+03	6.850312E-16	1.611184E-17
4.253798E+03	6.798650E-16	1.596435E-17
4.263783E+03	6.765518E-16	1.586097E-17
4.273769E+03	6.750590E-16	1.580071E-17
4.283754E+03	6.753075E-16	1.578155E-17
4.293740E+03	6.771832E-16	1.580062E-17
4.303725E+03	6.805389E-16	1.585432E-17
4.313711E+03	6.851967E-16	1.593838E-17
4.323696E+03	6.909763E-16	1.604847E-17
4.333681E+03	6.976530E-16	1.617928E-17
4.343667E+03	7.050166E-16	1.632587E-17
4.353652E+03	7.128410E-16	1.648295E-17
4.363638E+03	7.209087E-16	1.664547E-17
4.373623E+03	7.290056E-16	1.680849E-17
4.383609E+03	7.369340E-16	1.696748E-17
4.393594E+03	7.444938E-16	1.711788E-17
4.403580E+03	7.515072E-16	1.725564E-17
4.413565E+03	7.577971E-16	1.737679E-17
4.423550E+03	7.632009E-16	1.747767E-17
4.433536E+03	7.675965E-16	1.755559E-17
4.443521E+03	7.708779E-16	1.760823E-17
4.453507E+03	7.729695E-16	1.763395E-17
4.463492E+03	7.738266E-16	1.763185E-17
4.473478E+03	7.734019E-16	1.760094E-17
4.483463E+03	7.716759E-16	1.754090E-17
4.493449E+03	7.686349E-16	1.745151E-17
4.503434E+03	7.642734E-16	1.733275E-17
4.513419E+03	7.586106E-16	1.718514E-17
4.523405E+03	7.516932E-16	1.700983E-17
4.533390E+03	7.435988E-16	1.680866E-17
4.543376E+03	7.344338E-16	1.658410E-17
4.553361E+03	7.243276E-16	1.633913E-17
4.563347E+03	7.134372E-16	1.607733E-17
4.573332E+03	7.019547E-16	1.580307E-17
4.583318E+03	6.900573E-16	1.552036E-17
4.593303E+03	6.779325E-16	1.523341E-17
4.603288E+03	6.657686E-16	1.494644E-17
4.613274E+03	6.537328E-16	1.466320E-17
4.623259E+03	6.419499E-16	1.438644E-17
4.633245E+03	6.305498E-16	1.411904E-17
4.643230E+03	6.195861E-16	1.386217E-17
4.653216E+03	6.091160E-16	1.361706E-17
4.663201E+03	5.991434E-16	1.338375E-17
4.673186E+03	5.896450E-16	1.316168E-17
4.683172E+03	5.805770E-16	1.294984E-17
4.693157E+03	5.718812E-16	1.274689E-17
4.703143E+03	5.635093E-16	1.255173E-17
4.713128E+03	5.554027E-16	1.236302E-17
4.723114E+03	5.475235E-16	1.217990E-17
4.733099E+03	5.398628E-16	1.200215E-17
4.743085E+03	5.324244E-16	1.182983E-17
4.753070E+03	5.252660E-16	1.166419E-17
4.763055E+03	5.184422E-16	1.150645E-17
4.773041E+03	5.120587E-16	1.135890E-17
4.783026E+03	5.062260E-16	1.122398E-17
4.793012E+03	5.010552E-16	1.110413E-17
4.802997E+03	4.966745E-16	1.100216E-17
4.812983E+03	4.932061E-16	1.092073E-17
4.822968E+03	4.907452E-16	1.086194E-17
4.832954E+03	4.893860E-16	1.082782E-17
4.842939E+03	4.891980E-16	1.081990E-17
4.852924E+03	4.902259E-16	1.083913E-17
4.862910E+03	4.924990E-16	1.088614E-17
4.872895E+03	4.960315E-16	1.096122E-17
4.882881E+03	5.008066E-16	1.106398E-17
4.892866E+03	5.067995E-16	1.119387E-17
4.902852E+03	5.139476E-16	1.134949E-17
4.912837E+03	5.221833E-16	1.152935E-17
4.922823E+03	5.314122E-16	1.173137E-17
4.932808E+03	5.415109E-16	1.195283E-17
4.942793E+03	5.523460E-16	1.219080E-17
4.952779E+03	5.637515E-16	1.244162E-17
4.962764E+03	5.755536E-16	1.270149E-17
4.972750E+03	5.875521E-16	1.296601E-17
4.982735E+03	5.995429E-16	1.323068E-17
4.992721E+03	6.113099E-16	1.349077E-17
5.002706E+03	6.226590E-16	1.374201E-17
5.012691E+03	6.333802E-16	1.397979E-17
5.022677E+03	6.432897E-16	1.420007E-17
5.032662E+03	6.522326E-16	1.439944E-17
5.042648E+03	6.600663E-16	1.457476E-17
5.052633E+03	6.666806E-16	1.472360E-17
5.062619E+03	6.719955E-16	1.484419E-17
5.072604E+03	6.759606E-16	1.493542E-17
5.082590E+03	6.785429E-16	1.499654E-17
5.092575E+03	6.797439E-16	1.502756E-17
5.102560E+03	6.795977E-16	1.502923E-17
5.112546E+03	6.781367E-16	1.500221E-17
5.122531E+03	6.754452E-16	1.494837E-17
5.132517E+03	6.715979E-16	1.486930E-17
5.142502E+03	6.667221E-16	1.476780E-17
5.152488E+03	6.609480E-16	1.464671E-17
5.162473E+03	6.544335E-16	1.450950E-17
5.172459E+03	6.473473E-16	1.435989E-17
5.182444E+03	6.398615E-16	1.420164E-17
5.192429E+03	6.321557E-16	1.403873E-17
5.202415E+03	6.243901E-16	1.387471E-17
5.212400E+03	6.167272E-16	1.371315E-17
5.222386E+03	6.092732E-16	1.355643E-17
5.232371E+03	6.021261E-16	1.340671E-17
5.242357E+03	5.953470E-16	1.326537E-17
5.252342E+03	5.889680E-16	1.313313E-17
5.262328E+03	5.829806E-16	1.300979E-17
5.272313E+03	5.773773E-16	1.289522E-17
5.282298E+03	5.721295E-16	1.278878E-17
5.292284E+03	5.672090E-16	1.268985E-17
5.302269E+03	5.625874E-16	1.259781E-17
5.312255E+03	5.582598E-16	1.251256E-17
5.322240E+03	5.542134E-16	1.243382E-17
5.332226E+03	5.504612E-16	1.236190E-17
5.342211E+03	5.470219E-16	1.229723E-17
5.352196E+03	5.439292E-16	1.224058E-17
5.362182E+03	5.411966E-16	1.219229E-17
5.372167E+03	5.388578E-16	1.215312E-17
5.382153E+03	5.369262E-16	1.212340E-17
5.392138E+03	5.354066E-16	1.210327E-17
5.402124E+03	5.342859E-16	1.209245E-17
5.412109E+03	5.335536E-16	1.209072E-17
5.422095E+03	5.331969E-16	1.209782E-17
5.432080E+03	5.331838E-16	1.211304E-17
5.442065E+03	5.335048E-16	1.213621E-17
5.452051E+03	5.341370E-16	1.216681E-17
5.462036E+03	5.350684E-16	1.220460E-17
5.472022E+03	5.363067E-16	1.224978E-17
5.482007E+03	5.378320E-16	1.230192E-17
5.491993E+03	5.396360E-16	1.236086E-17
5.501978E+03	5.416861E-16	1.242586E-17
5.511964E+03	5.439550E-16	1.249634E-17
5.521949E+03	5.463762E-16	1.257076E-17
5.531934E+03	5.488880E-16	1.264774E-17
5.541920E+03	5.514093E-16	1.272540E-17
5.551905E+03	5.538704E-16	1.280213E-17
5.561891E+03	5.561753E-16	1.287570E-17
5.571876E+03	5.582408E-16	1.294417E-17
5.581862E+03	5.599851E-16	1.300560E-17
5.591847E+03	5.613449E-16	1.305848E-17
5.601833E+03	5.622534E-16	1.310121E-17
5.611818E+03	5.626712E-16	1.313281E-17
5.621803E+03	5.625718E-16	1.315260E-17
5.631789E+03	5.619394E-16	1.316014E-17
5.641774E+03	5.607786E-16	1.315547E-17
5.651760E+03	5.590924E-16	1.313860E-17
5.661745E+03	5.569055E-16	1.311002E-17
5.671731E+03	5.542489E-16	1.307041E-17
5.681716E+03	5.511495E-16	1.302033E-17
5.691701E+03	5.476341E-16	1.296034E-17
5.701687E+03	5.437270E-16	1.289098E-17
5.711672E+03	5.394563E-16	1.281283E-17
5.721658E+03	5.348192E-16	1.272579E-17
5.731643E+03	5.298245E-16	1.263000E-17
5.741629E+03	5.244568E-16	1.252504E-17
5.751614E+03	5.186828E-16	1.241006E-17
5.761600E+03	5.124693E-16	1.228418E-17
5.771585E+03	5.057741E-16	1.214634E-17
5.781570E+03	4.985413E-16	1.199511E-17
5.791556E+03	4.907243E-16	1.182928E-17
5.801541E+03	4.822983E-16	1.164817E-17
5.811527E+03	4.732371E-16	1.145105E-17
5.821512E+03	4.635587E-16	1.123825E-17
5.831498E+03	4.533059E-16	1.101072E-17
5.841483E+03	4.425558E-16	1.077024E-17
5.851469E+03	4.314211E-16	1.051948E-17
5.861454E+03	4.200231E-16	1.026134E-17
5.871439E+03	4.085203E-16	9.999648E-18
5.881425E+03	3.970650E-16	9.738116E-18
5.891410E+03	3.858130E-16	9.480570E-18
5.901396E+03	3.749127E-16	9.230683E-18
5.911381E+03	3.645007E-16	8.991863E-18
5.921367E+03	3.547000E-16	8.767217E-18
5.931352E+03	3.456036E-16	8.559124E-18
5.941338E+03	3.372946E-16	8.369746E-18
5.951323E+03	3.298417E-16	8.200896E-18
5.961308E+03	3.232943E-16	8.053924E-18
5.971294E+03	3.176837E-16	7.929744E-18
5.981279E+03	3.130471E-16	7.829413E-18
5.991265E+03	3.093959E-16	7.753362E-18
6.001250E+03	3.067572E-16	7.702409E-18
6.011236E+03	3.051319E-16	7.676730E-18
6.021221E+03	3.045261E-16	7.676622E-18
6.031207E+03	3.049439E-16	7.702340E-18
6.041192E+03	3.063789E-16	7.753873E-18
6.051177E+03	3.088207E-16	7.831109E-18
6.061163E+03	3.122439E-16	7.933551E-18
6.071148E+03	3.166296E-16	8.060863E-18
6.081134E+03	3.219281E-16	8.211927E-18
6.091119E+03	3.280949E-16	8.385737E-18
6.101105E+03	3.350598E-16	8.580628E-18
6.111090E+03	3.427352E-16	8.794472E-18
6.121075E+03	3.510202E-16	9.024781E-18
6.131061E+03	3.598017E-16	9.268733E-18
6.141046E+03	3.689440E-16	9.522899E-18
6.151032E+03	3.783034E-16	9.783622E-18
6.161017E+03	3.877391E-16	1.004728E-17
6.171003E+03	3.970910E-16	1.030973E-17
6.180988E+03	4.062178E-16	1.056728E-17
6.190974E+03	4.149902E-16	1.081652E-17
6.200959E+03	4.232975E-16	1.105451E-17
6.210944E+03	4.310411E-16	1.127860E-17
6.220930E+03	4.381519E-16	1.148689E-17
6.230915E+03	4.445943E-16	1.167834E-17
6.240901E+03	4.503470E-16	1.185229E-17
6.250886E+03	4.554231E-16	1.200898E-17
6.260872E+03	4.598491E-16	1.214899E-17
6.270857E+03	4.636725E-16	1.227350E-17
6.280843E+03	4.669439E-16	1.238375E-17
6.290828E+03	4.697181E-16	1.248110E-17
6.300813E+03	4.720599E-16	1.256721E-17
6.310799E+03	4.740329E-16	1.264371E-17
6.320784E+03	4.756870E-16	1.271186E-17
6.330770E+03	4.770860E-16	1.277333E-17
6.340755E+03	4.782917E-16	1.282973E-17
6.350741E+03	4.793537E-16	1.288237E-17
6.360726E+03	4.803411E-16	1.293309E-17
6.370712E+03	4.813035E-16	1.298320E-17
6.380697E+03	4.822809E-16	1.303378E-17
6.390682E+03	4.832962E-16	1.308546E-17
6.400668E+03	4.843625E-16	1.313860E-17
6.410653E+03	4.854477E-16	1.319232E-17
6.420639E+03	4.865201E-16	1.324576E-17
6.430624E+03	4.875198E-16	1.329729E-17
6.440610E+03	4.883812E-16	1.334511E-17
6.450595E+03	4.890474E-16	1.338762E-17
6.460580E+03	4.894600E-16	1.342321E-17
6.470566E+03	4.895771E-16	1.345068E-17
6.480551E+03	4.893458E-16	1.346852E-17
6.490537E+03	4.887532E-16	1.347634E-17
6.500522E+03	4.877827E-16	1.347361E-17
6.510508E+03	4.864205E-16	1.345990E-17
6.520493E+03	4.846769E-16	1.343544E-17
6.530479E+03	4.825623E-16	1.340045E-17
6.540464E+03	4.800944E-16	1.335538E-17
6.550449E+03	4.772959E-16	1.330080E-17
6.560435E+03	4.742005E-16	1.323761E-17
6.570420E+03	4.708300E-16	1.316637E-17
6.580406E+03	4.672133E-16	1.308786E-17
6.590391E+03	4.633879E-16	1.300308E-17
6.600377E+03	4.593823E-16	1.291282E-17
6.610362E+03	4.552162E-16	1.281760E-17
6.620348E+03	4.509220E-16	1.271831E-17
6.630333E+03	4.465158E-16	1.261538E-17
6.640318E+03	4.420340E-16	1.250985E-17
6.650304E+03	4.374814E-16	1.240182E-17
6.660289E+03	4.328763E-16	1.229180E-17
6.670275E+03	4.282430E-16	1.218050E-17
6.680260E+03	4.235973E-16	1.206835E-17
6.690246E+03	4.189462E-16	1.195555E-17
6.700231E+03	4.143038E-16	1.184250E-17
6.710217E+03	4.096905E-16	1.172979E-17
6.720202E+03	4.051116E-16	1.161759E-17
6.730187E+03	4.005865E-16	1.150644E-17
6.740173E+03	3.961122E-16	1.139629E-17
6.750158E+03	3.917148E-16	1.128787E-17
6.760144E+03	3.873908E-16	1.118111E-17
6.770129E+03	3.831658E-16	1.107676E-17
6.780115E+03	3.790368E-16	1.097475E-17
6.790100E+03	3.750215E-16	1.087560E-17
6.800085E+03	3.711307E-16	1.077964E-17
6.810071E+03	3.673697E-16	1.068705E-17
6.820056E+03	3.637566E-16	1.059837E-17
6.830042E+03	3.602973E-16	1.051380E-17
6.840027E+03	3.570117E-16	1.043394E-17
6.850013E+03	3.538992E-16	1.035879E-17
6.859998E+03	3.509862E-16	1.028917E-17
6.869984E+03	3.482789E-16	1.022526E-17
6.879969E+03	3.457887E-16	1.016745E-17
6.889954E+03	3.435191E-16	1.011586E-17
6.899940E+03	3.414915E-16	1.007115E-17
6.909925E+03	3.396907E-16	1.003290E-17
6.919911E+03	3.381381E-16	1.000178E-17
6.929896E+03	3.368180E-16	9.977365E-18
6.939882E+03	3.357243E-16	9.959493E-18
6.949867E+03	3.348532E-16	9.948086E-18
6.959853E+03	3.341844E-16	9.942567E-18
6.969838E+03	3.337011E-16	9.942462E-18
6.979823E+03	3.333830E-16	9.947190E-18
6.989809E+03	3.332082E-16	9.956118E-18
6.999794E+03	3.331522E-16	9.968530E-18
7.009780E+03	3.331826E-16	9.983470E-18
7.019765E+03	3.332859E-16	1.000054E-17
7.029751E+03	3.334145E-16	1.001833E-17
7.039736E+03	3.335603E-16	1.003659E-17
7.049722E+03	3.336757E-16	1.005389E-17
7.059707E+03	3.337472E-16	1.006981E-17
7.069692E+03	3.337419E-16	1.008337E-17
7.079678E+03	3.336367E-16	1.009384E-17
7.089663E+03	3.334170E-16	1.010078E-17
7.099649E+03	3.330516E-16	1.010323E-17
7.109634E+03	3.325336E-16	1.010095E-17
7.119620E+03	3.318465E-16	1.009344E-17
7.129605E+03	3.309919E-16	1.008070E-17
7.139590E+03	3.299685E-16	1.006270E-17
7.149576E+03	3.287725E-16	1.003928E-17
7.159561E+03	3.274165E-16	1.001083E-17
7.169547E+03	3.258968E-16	9.977193E-18
7.179532E+03	3.242379E-16	9.939115E-18
7.189518E+03	3.224467E-16	9.896793E-18
7.199503E+03	3.205319E-16	9.850475E-18
7.209489E+03	3.185168E-16	9.800869E-18
7.219474E+03	3.164183E-16	9.748480E-18
7.229459E+03	3.142483E-16	9.693671E-18
7.239445E+03	3.120250E-16	9.636994E-18
7.249430E+03	3.097669E-16	9.579017E-18
7.259416E+03	3.074922E-16	9.520301E-18
7.269401E+03	3.052178E-16	9.461370E-18
7.279387E+03	3.029467E-16	9.402318E-18
7.289372E+03	3.007063E-16	9.343996E-18
7.299358E+03	2.985017E-16	9.286570E-18
7.309343E+03	2.963369E-16	9.230166E-18
7.319328E+03	2.942266E-16	9.175252E-18
7.329314E+03	2.921647E-16	9.121644E-18
7.339299E+03	2.901575E-16	9.069542E-18
7.349285E+03	2.882101E-16	9.019118E-18
7.359270E+03	2.863221E-16	8.970362E-18
7.369256E+03	2.845054E-16	8.923656E-18
7.379241E+03	2.827494E-16	8.878678E-18
7.389227E+03	2.810743E-16	8.836069E-18
7.399212E+03	2.794773E-16	8.795750E-18
7.409197E+03	2.779746E-16	8.758240E-18
7.419183E+03	2.765710E-16	8.723705E-18
7.429168E+03	2.752765E-16	8.692468E-18
7.439154E+03	2.741068E-16	8.665039E-18
7.449139E+03	2.730635E-16	8.641479E-18
7.459125E+03	2.721690E-16	8.622517E-18
7.469110E+03	2.714144E-16	8.607883E-18
7.479095E+03	2.708094E-16	8.597900E-18
7.489081E+03	2.703434E-16	8.592248E-18
7.499066E+03	2.700245E-16	8.591201E-18
7.509052E+03	2.698334E-16	8.594155E-18
7.519037E+03	2.697526E-16	8.600563E-18
7.529023E+03	2.697658E-16	8.609925E-18
7.539008E+03	2.698478E-16	8.621437E-18
7.548994E+03	2.699814E-16	8.634562E-18
7.558979E+03	2.701225E-16	8.647888E-18
7.568964E+03	2.702413E-16	8.660461E-18
7.578950E+03	2.703065E-16	8.671279E-18
7.588935E+03	2.702725E-16	8.678872E-18
7.598921E+03	2.701050E-16	8.682124E-18
7.608906E+03	2.697562E-16	8.679486E-18
7.618892E+03	2.691981E-16	8.670041E-18
7.628877E+03	2.683792E-16	8.652105E-18
7.638863E+03	2.672740E-16	8.624837E-18
7.648848E+03	2.658372E-16	8.586745E-18
7.658833E+03	2.640511E-16	8.537226E-18
7.668819E+03	2.618807E-16	8.475117E-18
7.678804E+03	2.593223E-16	8.400262E-18
7.688790E+03	2.563625E-16	8.312192E-18
7.698775E+03	2.530041E-16	8.210964E-18
7.708761E+03	2.492605E-16	8.096982E-18
7.718746E+03	2.451561E-16	7.970999E-18
7.728732E+03	2.407262E-16	7.834140E-18
7.738717E+03	2.360113E-16	7.687697E-18
7.748702E+03	2.310773E-16	7.533791E-18
