#wls	flux	fluxerr
1.597671E+03	1.154364E-15	8.589676E-17
1.637612E+03	9.563222E-16	7.037872E-17
1.677554E+03	7.795304E-16	5.672428E-17
1.717496E+03	6.247758E-16	4.494222E-17
1.757438E+03	4.919459E-16	3.497341E-17
1.797379E+03	3.799703E-16	2.669051E-17
1.837321E+03	2.872609E-16	1.993276E-17
1.877263E+03	2.121658E-16	1.453947E-17
1.917205E+03	1.528054E-16	1.033937E-17
1.957146E+03	1.072667E-16	7.164802E-18
1.997088E+03	7.364123E-17	4.854549E-18
2.037030E+03	4.998619E-17	3.251424E-18
2.076972E+03	3.431500E-17	2.201983E-18
2.116914E+03	2.462727E-17	1.558718E-18
2.156855E+03	1.906460E-17	1.189925E-18
2.196797E+03	1.632686E-17	1.004755E-18
2.236739E+03	1.570839E-17	9.529832E-19
2.276681E+03	1.705561E-17	1.019890E-18
2.316622E+03	2.068068E-17	1.218774E-18
2.356564E+03	2.744670E-17	1.593885E-18
2.396506E+03	3.900496E-17	2.231669E-18
2.436448E+03	5.803317E-17	3.270839E-18
2.476389E+03	8.836037E-17	4.904999E-18
2.516331E+03	1.345814E-16	7.356745E-18
2.556273E+03	2.008147E-16	1.080766E-17
2.596215E+03	2.888784E-16	1.530383E-17
2.636156E+03	3.976768E-16	2.073353E-17
2.676098E+03	5.223039E-16	2.679359E-17
2.716040E+03	6.563849E-16	3.312344E-17
2.755982E+03	7.972797E-16	3.956945E-17
2.795924E+03	9.473107E-16	4.622928E-17
2.835865E+03	1.111958E-15	5.334475E-17
2.875807E+03	1.296691E-15	6.113980E-17
2.915749E+03	1.503884E-15	6.967773E-17
2.955691E+03	1.730262E-15	7.875818E-17
2.995632E+03	1.963875E-15	8.780511E-17
3.005618E+03	2.021155E-15	8.995993E-17
3.015603E+03	2.077167E-15	9.203640E-17
3.025589E+03	2.131489E-15	9.401685E-17
3.035574E+03	2.183851E-15	9.589053E-17
3.045560E+03	2.233963E-15	9.764606E-17
3.055545E+03	2.281670E-15	9.927810E-17
3.065530E+03	2.326664E-15	1.007749E-16
3.075516E+03	2.368596E-15	1.021230E-16
3.085501E+03	2.407241E-15	1.033149E-16
3.095487E+03	2.442564E-15	1.043510E-16
3.105472E+03	2.474418E-15	1.052271E-16
3.115458E+03	2.502905E-15	1.059498E-16
3.125443E+03	2.528122E-15	1.065250E-16
3.135429E+03	2.550453E-15	1.069711E-16
3.145414E+03	2.570062E-15	1.072965E-16
3.155399E+03	2.587378E-15	1.075207E-16
3.165385E+03	2.602873E-15	1.076645E-16
3.175370E+03	2.617009E-15	1.077480E-16
3.185356E+03	2.630154E-15	1.077868E-16
3.195341E+03	2.642924E-15	1.078067E-16
3.205327E+03	2.655670E-15	1.078220E-16
3.215312E+03	2.668853E-15	1.078514E-16
3.225298E+03	2.682795E-15	1.079074E-16
3.235283E+03	2.697861E-15	1.080042E-16
3.245268E+03	2.714305E-15	1.081512E-16
3.255254E+03	2.732318E-15	1.083552E-16
3.265239E+03	2.751976E-15	1.086181E-16
3.275225E+03	2.773376E-15	1.089428E-16
3.285210E+03	2.796500E-15	1.093275E-16
3.295196E+03	2.821212E-15	1.097660E-16
3.305181E+03	2.847404E-15	1.102531E-16
3.315166E+03	2.874803E-15	1.107773E-16
3.325152E+03	2.903173E-15	1.113290E-16
3.335137E+03	2.932118E-15	1.118922E-16
3.345123E+03	2.961238E-15	1.124516E-16
3.355108E+03	2.990074E-15	1.129895E-16
3.365094E+03	3.018128E-15	1.134874E-16
3.375079E+03	3.044856E-15	1.139252E-16
3.385065E+03	3.069636E-15	1.142804E-16
3.395050E+03	3.091911E-15	1.145334E-16
3.405035E+03	3.110979E-15	1.146598E-16
3.415021E+03	3.126310E-15	1.146417E-16
3.425006E+03	3.137210E-15	1.144558E-16
3.434992E+03	3.143102E-15	1.140838E-16
3.444977E+03	3.143457E-15	1.135091E-16
3.454963E+03	3.137795E-15	1.127175E-16
3.464948E+03	3.125822E-15	1.117020E-16
3.474934E+03	3.107286E-15	1.104570E-16
3.484919E+03	3.082021E-15	1.089804E-16
3.494904E+03	3.050023E-15	1.072756E-16
3.504890E+03	3.011459E-15	1.053525E-16
3.514875E+03	2.966787E-15	1.032304E-16
3.524861E+03	2.916507E-15	1.009303E-16
3.534846E+03	2.861530E-15	9.848652E-17
3.544832E+03	2.803038E-15	9.594218E-17
3.554817E+03	2.742584E-15	9.335224E-17
3.564803E+03	2.681933E-15	9.077746E-17
3.574788E+03	2.623032E-15	8.828358E-17
3.584773E+03	2.567953E-15	8.593894E-17
3.594759E+03	2.518698E-15	8.380795E-17
3.604744E+03	2.477273E-15	8.195373E-17
3.614730E+03	2.445321E-15	8.042578E-17
3.624715E+03	2.424373E-15	7.926867E-17
3.634701E+03	2.415854E-15	7.852243E-17
3.644686E+03	2.420848E-15	7.821474E-17
3.654671E+03	2.440331E-15	7.836913E-17
3.664657E+03	2.475367E-15	7.901098E-17
3.674642E+03	2.526670E-15	8.015383E-17
3.684628E+03	2.595050E-15	8.181348E-17
3.694613E+03	2.681317E-15	8.400513E-17
3.704599E+03	2.786042E-15	8.673588E-17
3.714584E+03	2.909664E-15	9.000819E-17
3.724570E+03	3.052647E-15	9.382482E-17
3.734555E+03	3.215164E-15	9.817932E-17
3.744540E+03	3.397229E-15	1.030602E-16
3.754526E+03	3.598623E-15	1.084487E-16
3.764511E+03	3.818785E-15	1.143163E-16
3.774497E+03	4.056752E-15	1.206227E-16
3.784482E+03	4.311151E-15	1.273161E-16
3.794468E+03	4.580205E-15	1.343341E-16
3.804453E+03	4.861424E-15	1.415951E-16
3.814439E+03	5.152059E-15	1.490117E-16
3.824424E+03	5.448978E-15	1.564879E-16
3.834409E+03	5.748593E-15	1.639172E-16
3.844395E+03	6.047317E-15	1.711963E-16
3.854380E+03	6.341791E-15	1.782310E-16
3.864366E+03	6.628877E-15	1.849362E-16
3.874351E+03	6.905842E-15	1.912407E-16
3.884337E+03	7.170576E-15	1.970927E-16
3.894322E+03	7.421795E-15	2.024647E-16
3.904308E+03	7.658796E-15	2.073463E-16
3.914293E+03	7.881493E-15	2.117440E-16
3.924278E+03	8.090399E-15	2.156806E-16
3.934264E+03	8.286288E-15	2.191854E-16
3.944249E+03	8.469706E-15	2.222813E-16
3.954235E+03	8.641119E-15	2.249885E-16
3.964220E+03	8.800887E-15	2.273242E-16
3.974206E+03	8.949062E-15	2.292977E-16
3.984191E+03	9.085287E-15	2.309075E-16
3.994176E+03	9.209140E-15	2.321511E-16
4.004162E+03	9.319502E-15	2.330090E-16
4.014147E+03	9.414915E-15	2.334541E-16
4.024133E+03	9.494081E-15	2.334645E-16
4.034118E+03	9.555216E-15	2.330076E-16
4.044104E+03	9.596713E-15	2.320565E-16
4.054089E+03	9.617162E-15	2.305902E-16
4.064075E+03	9.615604E-15	2.285998E-16
4.074060E+03	9.591439E-15	2.260854E-16
4.084045E+03	9.544445E-15	2.230564E-16
4.094031E+03	9.474511E-15	2.195247E-16
4.104016E+03	9.381936E-15	2.155118E-16
4.114002E+03	9.267652E-15	2.110530E-16
4.123987E+03	9.132856E-15	2.061888E-16
4.133973E+03	8.979474E-15	2.009750E-16
4.143958E+03	8.810126E-15	1.954807E-16
4.153944E+03	8.628609E-15	1.897992E-16
4.163929E+03	8.439236E-15	1.840315E-16
4.173914E+03	8.246702E-15	1.782836E-16
4.183900E+03	8.056402E-15	1.726729E-16
4.193885E+03	7.873762E-15	1.673132E-16
4.203871E+03	7.703781E-15	1.623056E-16
4.213856E+03	7.551101E-15	1.577399E-16
4.223842E+03	7.419837E-15	1.536921E-16
4.233827E+03	7.313243E-15	1.502177E-16
4.243813E+03	7.233304E-15	1.473446E-16
4.253798E+03	7.181264E-15	1.450847E-16
4.263783E+03	7.157392E-15	1.434299E-16
4.273769E+03	7.160470E-15	1.423433E-16
4.283754E+03	7.188571E-15	1.417749E-16
4.293740E+03	7.239452E-15	1.416706E-16
4.303725E+03	7.309949E-15	1.419602E-16
4.313711E+03	7.396627E-15	1.425709E-16
4.323696E+03	7.496349E-15	1.434377E-16
4.333681E+03	7.605554E-15	1.444901E-16
4.343667E+03	7.721249E-15	1.456700E-16
4.353652E+03	7.840680E-15	1.469256E-16
4.363638E+03	7.961311E-15	1.482109E-16
4.373623E+03	8.081301E-15	1.494938E-16
4.383609E+03	8.199269E-15	1.507518E-16
4.393594E+03	8.313118E-15	1.519497E-16
4.403580E+03	8.420787E-15	1.530539E-16
4.413565E+03	8.520435E-15	1.540355E-16
4.423550E+03	8.610600E-15	1.548728E-16
4.433536E+03	8.690362E-15	1.555540E-16
4.443521E+03	8.759634E-15	1.560820E-16
4.453507E+03	8.820216E-15	1.564914E-16
4.463492E+03	8.874406E-15	1.568240E-16
4.473478E+03	8.923160E-15	1.570968E-16
4.483463E+03	8.965519E-15	1.572931E-16
4.493449E+03	8.998276E-15	1.573565E-16
4.503434E+03	9.017633E-15	1.572210E-16
4.513419E+03	9.020687E-15	1.568364E-16
4.523405E+03	9.005299E-15	1.561660E-16
4.533390E+03	8.970137E-15	1.551871E-16
4.543376E+03	8.914980E-15	1.538960E-16
4.553361E+03	8.840535E-15	1.523046E-16
4.563347E+03	8.748405E-15	1.504397E-16
4.573332E+03	8.641328E-15	1.483474E-16
4.583318E+03	8.522423E-15	1.460796E-16
4.593303E+03	8.395287E-15	1.436963E-16
4.603288E+03	8.263759E-15	1.412609E-16
4.613274E+03	8.131648E-15	1.388363E-16
4.623259E+03	8.002245E-15	1.364764E-16
4.633245E+03	7.878538E-15	1.342296E-16
4.643230E+03	7.762510E-15	1.321274E-16
4.653216E+03	7.655761E-15	1.301946E-16
4.663201E+03	7.558030E-15	1.284249E-16
4.673186E+03	7.468332E-15	1.267993E-16
4.683172E+03	7.385165E-15	1.252907E-16
4.693157E+03	7.305966E-15	1.238540E-16
4.703143E+03	7.228077E-15	1.224428E-16
4.713128E+03	7.148845E-15	1.210109E-16
4.723114E+03	7.065915E-15	1.195177E-16
4.733099E+03	6.977486E-15	1.179318E-16
4.743085E+03	6.882448E-15	1.162339E-16
4.753070E+03	6.781160E-15	1.144294E-16
4.763055E+03	6.674486E-15	1.125328E-16
4.773041E+03	6.564474E-15	1.105780E-16
4.783026E+03	6.453966E-15	1.086127E-16
4.793012E+03	6.346285E-15	1.066925E-16
4.802997E+03	6.245029E-15	1.048774E-16
4.812983E+03	6.153457E-15	1.032215E-16
4.822968E+03	6.074599E-15	1.017748E-16
4.832954E+03	6.011238E-15	1.005831E-16
4.842939E+03	5.964862E-15	9.967011E-17
4.852924E+03	5.936548E-15	9.905243E-17
4.862910E+03	5.927253E-15	9.874458E-17
4.872895E+03	5.937233E-15	9.874916E-17
4.882881E+03	5.966456E-15	9.906381E-17
4.892866E+03	6.014936E-15	9.968687E-17
4.902852E+03	6.081934E-15	1.006040E-16
4.912837E+03	6.166702E-15	1.018008E-16
4.922823E+03	6.268324E-15	1.032600E-16
4.932808E+03	6.385249E-15	1.049538E-16
4.942793E+03	6.515816E-15	1.068529E-16
4.952779E+03	6.658000E-15	1.089223E-16
4.962764E+03	6.809333E-15	1.111197E-16
4.972750E+03	6.966908E-15	1.133964E-16
4.982735E+03	7.127725E-15	1.157024E-16
4.992721E+03	7.288401E-15	1.179823E-16
5.002706E+03	7.445686E-15	1.201835E-16
5.012691E+03	7.596156E-15	1.222511E-16
5.022677E+03	7.736759E-15	1.241373E-16
5.032662E+03	7.864823E-15	1.258008E-16
5.042648E+03	7.977927E-15	1.272053E-16
5.052633E+03	8.074361E-15	1.283262E-16
5.062619E+03	8.152882E-15	1.291472E-16
5.072604E+03	8.212672E-15	1.296587E-16
5.082590E+03	8.253309E-15	1.298580E-16
5.092575E+03	8.274750E-15	1.297485E-16
5.102560E+03	8.277147E-15	1.293368E-16
5.112546E+03	8.260487E-15	1.286269E-16
5.122531E+03	8.225141E-15	1.276289E-16
5.132517E+03	8.171280E-15	1.263497E-16
5.142502E+03	8.100042E-15	1.248114E-16
5.152488E+03	8.012597E-15	1.230357E-16
5.162473E+03	7.910771E-15	1.210548E-16
5.172459E+03	7.797664E-15	1.189191E-16
5.182444E+03	7.676735E-15	1.166844E-16
5.192429E+03	7.551629E-15	1.144081E-16
5.202415E+03	7.426281E-15	1.121512E-16
5.212400E+03	7.304680E-15	1.099748E-16
5.222386E+03	7.189642E-15	1.079216E-16
5.232371E+03	7.083217E-15	1.060222E-16
5.242357E+03	6.986548E-15	1.042935E-16
5.252342E+03	6.899985E-15	1.027404E-16
5.262328E+03	6.822671E-15	1.013498E-16
5.272313E+03	6.753344E-15	1.001030E-16
5.282298E+03	6.690421E-15	9.897660E-17
5.292284E+03	6.632433E-15	9.794933E-17
5.302269E+03	6.577880E-15	9.699952E-17
5.312255E+03	6.525729E-15	9.611258E-17
5.322240E+03	6.475589E-15	9.528343E-17
5.332226E+03	6.427592E-15	9.451468E-17
5.342211E+03	6.381984E-15	9.381060E-17
5.352196E+03	6.339483E-15	9.318235E-17
5.362182E+03	6.300617E-15	9.263757E-17
5.372167E+03	6.265830E-15	9.218154E-17
5.382153E+03	6.234714E-15	9.180701E-17
5.392138E+03	6.206603E-15	9.150294E-17
5.402124E+03	6.180389E-15	9.125170E-17
5.412109E+03	6.154686E-15	9.103131E-17
5.422095E+03	6.128978E-15	9.083260E-17
5.432080E+03	6.103679E-15	9.066009E-17
5.442065E+03	6.079752E-15	9.052657E-17
5.452051E+03	6.058148E-15	9.044486E-17
5.462036E+03	6.040000E-15	9.043064E-17
5.472022E+03	6.026608E-15	9.050245E-17
5.482007E+03	6.018802E-15	9.067202E-17
5.491993E+03	6.017357E-15	9.095053E-17
5.501978E+03	6.022493E-15	9.134100E-17
5.511964E+03	6.034272E-15	9.184417E-17
5.521949E+03	6.052091E-15	9.245076E-17
5.531934E+03	6.075041E-15	9.314673E-17
5.541920E+03	6.101729E-15	9.391043E-17
5.551905E+03	6.130645E-15	9.471815E-17
5.561891E+03	6.159790E-15	9.553827E-17
5.571876E+03	6.187049E-15	9.633686E-17
5.581862E+03	6.210340E-15	9.708007E-17
5.591847E+03	6.228369E-15	9.774588E-17
5.601833E+03	6.239860E-15	9.831227E-17
5.611818E+03	6.243898E-15	9.876266E-17
5.621803E+03	6.240349E-15	9.909262E-17
5.631789E+03	6.229272E-15	9.930087E-17
5.641774E+03	6.210930E-15	9.938944E-17
5.651760E+03	6.185937E-15	9.936613E-17
5.661745E+03	6.155140E-15	9.924272E-17
5.671731E+03	6.119402E-15	9.903156E-17
5.681716E+03	6.079756E-15	9.874797E-17
5.691701E+03	6.037200E-15	9.840712E-17
5.701687E+03	5.992658E-15	9.802320E-17
5.711672E+03	5.947286E-15	9.761451E-17
5.721658E+03	5.901847E-15	9.719322E-17
5.731643E+03	5.857053E-15	9.677085E-17
5.741629E+03	5.813135E-15	9.635116E-17
5.751614E+03	5.769915E-15	9.593123E-17
5.761600E+03	5.726871E-15	9.550237E-17
5.771585E+03	5.682820E-15	9.504480E-17
5.781570E+03	5.636038E-15	9.452947E-17
5.791556E+03	5.584588E-15	9.392349E-17
5.801541E+03	5.526368E-15	9.319091E-17
5.811527E+03	5.458972E-15	9.229034E-17
5.821512E+03	5.380694E-15	9.119194E-17
5.831498E+03	5.290876E-15	8.988355E-17
5.841483E+03	5.189495E-15	8.836381E-17
5.851469E+03	5.077365E-15	8.664577E-17
5.861454E+03	4.956519E-15	8.476357E-17
5.871439E+03	4.829708E-15	8.276403E-17
5.881425E+03	4.699441E-15	8.069030E-17
5.891410E+03	4.568237E-15	7.858604E-17
5.901396E+03	4.438390E-15	7.649141E-17
5.911381E+03	4.311865E-15	7.444116E-17
5.921367E+03	4.190354E-15	7.246556E-17
5.931352E+03	4.075127E-15	7.058768E-17
5.941338E+03	3.967231E-15	6.882690E-17
5.951323E+03	3.867417E-15	6.719742E-17
5.961308E+03	3.776229E-15	6.570997E-17
5.971294E+03	3.694110E-15	6.437346E-17
5.981279E+03	3.621709E-15	6.320044E-17
5.991265E+03	3.559559E-15	6.220137E-17
6.001250E+03	3.508395E-15	6.139039E-17
6.011236E+03	3.468449E-15	6.077276E-17
6.021221E+03	3.440141E-15	6.035708E-17
6.031207E+03	3.423996E-15	6.015384E-17
6.041192E+03	3.420236E-15	6.016826E-17
6.051177E+03	3.429251E-15	6.040850E-17
6.061163E+03	3.451428E-15	6.088283E-17
6.071148E+03	3.486989E-15	6.159666E-17
6.081134E+03	3.535977E-15	6.255234E-17
6.091119E+03	3.598572E-15	6.375473E-17
6.101105E+03	3.674165E-15	6.519485E-17
6.111090E+03	3.761884E-15	6.685913E-17
6.121075E+03	3.860666E-15	6.873062E-17
6.131061E+03	3.968779E-15	7.078048E-17
6.141046E+03	4.083957E-15	7.297032E-17
6.151032E+03	4.203737E-15	7.525802E-17
6.161017E+03	4.325452E-15	7.759766E-17
6.171003E+03	4.445979E-15	7.993485E-17
6.180988E+03	4.562376E-15	8.221799E-17
6.190974E+03	4.672067E-15	8.440169E-17
6.200959E+03	4.772708E-15	8.644431E-17
6.210944E+03	4.862262E-15	8.830924E-17
6.220930E+03	4.939676E-15	8.997726E-17
6.230915E+03	5.004526E-15	9.144028E-17
6.240901E+03	5.056737E-15	9.269631E-17
6.250886E+03	5.097148E-15	9.375988E-17
6.260872E+03	5.126900E-15	9.465110E-17
6.270857E+03	5.147314E-15	9.539347E-17
6.280843E+03	5.159808E-15	9.601241E-17
6.290828E+03	5.165734E-15	9.653214E-17
6.300813E+03	5.166318E-15	9.697384E-17
6.310799E+03	5.162606E-15	9.735515E-17
6.320784E+03	5.155268E-15	9.768681E-17
6.330770E+03	5.145016E-15	9.798055E-17
6.340755E+03	5.132709E-15	9.825104E-17
6.350741E+03	5.119041E-15	9.851010E-17
6.360726E+03	5.105161E-15	9.877862E-17
6.370712E+03	5.092832E-15	9.908985E-17
6.380697E+03	5.083974E-15	9.948090E-17
6.390682E+03	5.080346E-15	9.998670E-17
6.400668E+03	5.083022E-15	1.006294E-16
6.410653E+03	5.090604E-15	1.013825E-16
6.420639E+03	5.100912E-15	1.022034E-16
6.430624E+03	5.112093E-15	1.030549E-16
6.440610E+03	5.122557E-15	1.039043E-16
6.450595E+03	5.130988E-15	1.047237E-16
6.460580E+03	5.136513E-15	1.054937E-16
6.470566E+03	5.138564E-15	1.062007E-16
6.480551E+03	5.136463E-15	1.068284E-16
6.490537E+03	5.130127E-15	1.073727E-16
6.500522E+03	5.119423E-15	1.078284E-16
6.510508E+03	5.104229E-15	1.081903E-16
6.520493E+03	5.084818E-15	1.084617E-16
6.530479E+03	5.061462E-15	1.086460E-16
6.540464E+03	5.034471E-15	1.087477E-16
6.550449E+03	5.004310E-15	1.087745E-16
6.560435E+03	4.971544E-15	1.087370E-16
6.570420E+03	4.936534E-15	1.086413E-16
6.580406E+03	4.899700E-15	1.084953E-16
6.590391E+03	4.861489E-15	1.083076E-16
6.600377E+03	4.822205E-15	1.080839E-16
6.610362E+03	4.782016E-15	1.078271E-16
6.620348E+03	4.741201E-15	1.075426E-16
6.630333E+03	4.699843E-15	1.072317E-16
6.640318E+03	4.658248E-15	1.069007E-16
6.650304E+03	4.616386E-15	1.065486E-16
6.660289E+03	4.574370E-15	1.061775E-16
6.670275E+03	4.532379E-15	1.057911E-16
6.680260E+03	4.490511E-15	1.053916E-16
6.690246E+03	4.448778E-15	1.049790E-16
6.700231E+03	4.407256E-15	1.045550E-16
6.710217E+03	4.366100E-15	1.041230E-16
6.720202E+03	4.325302E-15	1.036830E-16
6.730187E+03	4.284970E-15	1.032375E-16
6.740173E+03	4.244980E-15	1.027835E-16
6.750158E+03	4.205514E-15	1.023255E-16
6.760144E+03	4.166423E-15	1.018600E-16
6.770129E+03	4.127863E-15	1.013907E-16
6.780115E+03	4.089701E-15	1.009147E-16
6.790100E+03	4.052025E-15	1.004342E-16
6.800085E+03	4.014859E-15	9.994985E-17
6.810071E+03	3.978184E-15	9.946148E-17
6.820056E+03	3.942168E-15	9.897341E-17
6.830042E+03	3.906860E-15	9.848716E-17
6.840027E+03	3.872487E-15	9.800868E-17
6.850013E+03	3.839092E-15	9.753946E-17
6.859998E+03	3.807039E-15	9.708906E-17
6.869984E+03	3.776485E-15	9.666201E-17
6.879969E+03	3.747668E-15	9.626489E-17
6.889954E+03	3.720764E-15	9.590280E-17
6.899940E+03	3.696145E-15	9.558590E-17
6.909925E+03	3.673759E-15	9.531351E-17
6.919911E+03	3.653956E-15	9.509535E-17
6.929896E+03	3.636685E-15	9.493077E-17
6.939882E+03	3.621915E-15	9.481957E-17
6.949867E+03	3.609636E-15	9.476213E-17
6.959853E+03	3.599673E-15	9.475437E-17
6.969838E+03	3.591836E-15	9.479178E-17
6.979823E+03	3.585914E-15	9.486922E-17
6.989809E+03	3.581684E-15	9.498111E-17
6.999794E+03	3.578883E-15	9.512079E-17
7.009780E+03	3.577169E-15	9.527942E-17
7.019765E+03	3.576409E-15	9.545354E-17
7.029751E+03	3.576076E-15	9.562922E-17
7.039736E+03	3.576064E-15	9.580368E-17
7.049722E+03	3.575835E-15	9.596252E-17
7.059707E+03	3.575166E-15	9.609972E-17
7.069692E+03	3.573620E-15	9.620344E-17
7.079678E+03	3.570854E-15	9.626435E-17
7.089663E+03	3.566609E-15	9.627539E-17
7.099649E+03	3.560449E-15	9.622462E-17
7.109634E+03	3.552221E-15	9.610787E-17
7.119620E+03	3.541737E-15	9.591992E-17
7.129605E+03	3.529027E-15	9.566153E-17
7.139590E+03	3.514115E-15	9.533339E-17
7.149576E+03	3.497048E-15	9.493675E-17
7.159561E+03	3.478066E-15	9.447827E-17
7.169547E+03	3.457223E-15	9.395951E-17
7.179532E+03	3.434871E-15	9.339023E-17
7.189518E+03	3.411160E-15	9.277472E-17
7.199503E+03	3.386231E-15	9.211707E-17
7.209489E+03	3.360339E-15	9.142447E-17
7.219474E+03	3.333653E-15	9.070185E-17
7.229459E+03	3.306283E-15	8.995246E-17
7.239445E+03	3.278415E-15	8.918176E-17
7.249430E+03	3.250242E-15	8.839530E-17
7.259416E+03	3.221951E-15	8.759849E-17
7.269401E+03	3.193735E-15	8.679695E-17
7.279387E+03	3.165644E-15	8.599239E-17
7.289372E+03	3.137957E-15	8.519273E-17
7.299358E+03	3.110692E-15	8.439878E-17
7.309343E+03	3.083832E-15	8.361041E-17
7.319328E+03	3.057458E-15	8.283013E-17
7.329314E+03	3.031407E-15	8.205384E-17
7.339299E+03	3.005626E-15	8.128048E-17
7.349285E+03	2.980069E-15	8.050910E-17
7.359270E+03	2.954638E-15	7.973741E-17
7.369256E+03	2.929383E-15	7.896709E-17
7.379241E+03	2.904155E-15	7.819446E-17
7.389227E+03	2.879190E-15	7.742621E-17
7.399212E+03	2.854531E-15	7.666387E-17
7.409197E+03	2.830456E-15	7.591519E-17
7.419183E+03	2.807172E-15	7.518599E-17
7.429168E+03	2.784987E-15	7.448481E-17
7.439154E+03	2.764276E-15	7.382187E-17
7.449139E+03	2.745260E-15	7.320322E-17
7.459125E+03	2.728391E-15	7.264107E-17
7.469110E+03	2.713783E-15	7.213850E-17
7.479095E+03	2.701658E-15	7.170150E-17
7.489081E+03	2.692019E-15	7.133010E-17
7.499066E+03	2.685055E-15	7.102940E-17
7.509052E+03	2.680609E-15	7.079522E-17
7.519037E+03	2.678544E-15	7.062395E-17
7.529023E+03	2.678754E-15	7.051289E-17
7.539008E+03	2.681010E-15	7.045608E-17
7.548994E+03	2.685175E-15	7.045005E-17
7.558979E+03	2.690851E-15	7.048450E-17
7.568964E+03	2.697748E-15	7.055212E-17
7.578950E+03	2.705544E-15	7.064472E-17
7.588935E+03	2.713767E-15	7.075039E-17
7.598921E+03	2.722029E-15	7.085940E-17
7.608906E+03	2.729779E-15	7.095793E-17
7.618892E+03	2.736621E-15	7.103625E-17
7.628877E+03	2.741882E-15	7.107751E-17
7.638863E+03	2.745099E-15	7.107042E-17
7.648848E+03	2.745530E-15	7.099651E-17
7.658833E+03	2.742673E-15	7.084356E-17
7.668819E+03	2.735761E-15	7.059254E-17
7.678804E+03	2.724297E-15	7.023147E-17
7.688790E+03	2.707681E-15	6.974564E-17
7.698775E+03	2.685439E-15	6.912358E-17
7.708761E+03	2.657224E-15	6.835697E-17
7.718746E+03	2.622934E-15	6.744374E-17
7.728732E+03	2.582631E-15	6.638589E-17
7.738717E+03	2.536507E-15	6.518858E-17
7.748702E+03	2.485248E-15	6.386950E-17
