#wls	flux	fluxerr
1.597671E+03	8.221587E-15	4.031489E-16
1.637612E+03	7.273477E-15	3.487165E-16
1.677554E+03	6.340185E-15	2.970145E-16
1.717496E+03	5.441189E-15	2.489082E-16
1.757438E+03	4.592982E-15	2.050385E-16
1.797379E+03	3.806568E-15	1.657292E-16
1.837321E+03	3.089364E-15	1.310974E-16
1.877263E+03	2.448571E-15	1.012143E-16
1.917205E+03	1.888724E-15	7.600797E-17
1.957146E+03	1.412943E-15	5.532873E-17
1.997088E+03	1.022583E-15	3.894539E-17
2.037030E+03	7.167663E-16	2.653941E-17
2.076972E+03	4.907981E-16	1.766167E-17
2.116914E+03	3.366618E-16	1.177172E-17
2.156855E+03	2.435397E-16	8.273450E-18
2.196797E+03	1.953125E-16	6.446612E-18
2.236739E+03	1.793235E-16	5.751864E-18
2.276681E+03	1.910394E-16	5.957046E-18
2.316622E+03	2.349768E-16	7.127360E-18
2.356564E+03	3.273942E-16	9.667894E-18
2.396506E+03	5.038776E-16	1.450158E-17
2.436448E+03	8.327245E-16	2.338889E-17
2.476389E+03	1.433560E-15	3.935694E-17
2.516331E+03	2.488896E-15	6.689628E-17
2.556273E+03	4.212589E-15	1.110227E-16
2.596215E+03	6.714914E-15	1.737898E-16
2.636156E+03	9.799175E-15	2.494109E-16
2.676098E+03	1.308039E-14	3.278474E-16
2.716040E+03	1.630807E-14	4.030142E-16
2.755982E+03	1.944302E-14	4.742941E-16
2.795924E+03	2.262917E-14	5.454768E-16
2.835865E+03	2.608056E-14	6.218230E-16
2.875807E+03	2.995942E-14	7.071457E-16
2.915749E+03	3.432768E-14	8.027838E-16
2.955691E+03	3.911371E-14	9.069648E-16
2.995632E+03	4.401739E-14	1.012751E-15
3.005618E+03	4.519965E-14	1.038041E-15
3.015603E+03	4.634087E-14	1.062339E-15
3.025589E+03	4.742855E-14	1.085367E-15
3.035574E+03	4.845330E-14	1.106919E-15
3.045560E+03	4.940528E-14	1.126781E-15
3.055545E+03	5.027807E-14	1.144818E-15
3.065530E+03	5.106237E-14	1.160825E-15
3.075516E+03	5.174899E-14	1.174601E-15
3.085501E+03	5.233261E-14	1.186034E-15
3.095487E+03	5.281342E-14	1.195135E-15
3.105472E+03	5.319090E-14	1.201899E-15
3.115458E+03	5.347140E-14	1.206478E-15
3.125443E+03	5.366278E-14	1.209053E-15
3.135429E+03	5.378033E-14	1.209973E-15
3.145414E+03	5.383561E-14	1.209502E-15
3.155399E+03	5.384650E-14	1.208043E-15
3.165385E+03	5.383208E-14	1.206022E-15
3.175370E+03	5.381089E-14	1.203855E-15
3.185356E+03	5.379929E-14	1.201902E-15
3.195341E+03	5.381802E-14	1.200623E-15
3.205327E+03	5.388156E-14	1.200334E-15
3.215312E+03	5.400609E-14	1.201386E-15
3.225298E+03	5.420406E-14	1.204047E-15
3.235283E+03	5.448813E-14	1.208588E-15
3.245268E+03	5.486840E-14	1.215219E-15
3.255254E+03	5.535322E-14	1.224114E-15
3.265239E+03	5.594848E-14	1.235386E-15
3.275225E+03	5.666045E-14	1.249161E-15
3.285210E+03	5.749313E-14	1.265509E-15
3.295196E+03	5.844825E-14	1.284452E-15
3.305181E+03	5.952822E-14	1.306025E-15
3.315166E+03	6.073261E-14	1.330200E-15
3.325152E+03	6.206184E-14	1.356965E-15
3.335137E+03	6.351366E-14	1.386254E-15
3.345123E+03	6.508573E-14	1.417993E-15
3.355108E+03	6.677501E-14	1.452096E-15
3.365094E+03	6.857728E-14	1.488450E-15
3.375079E+03	7.048728E-14	1.526920E-15
3.385065E+03	7.249712E-14	1.567312E-15
3.395050E+03	7.459948E-14	1.609447E-15
3.405035E+03	7.678206E-14	1.653040E-15
3.415021E+03	7.903526E-14	1.697864E-15
3.425006E+03	8.134355E-14	1.743566E-15
3.434992E+03	8.369193E-14	1.789807E-15
3.444977E+03	8.606366E-14	1.836215E-15
3.454963E+03	8.843809E-14	1.882335E-15
3.464948E+03	9.079184E-14	1.927661E-15
3.474934E+03	9.309018E-14	1.971449E-15
3.484919E+03	9.528212E-14	2.012622E-15
3.494904E+03	9.730640E-14	2.049895E-15
3.504890E+03	9.909458E-14	2.081849E-15
3.514875E+03	1.005774E-13	2.107062E-15
3.524861E+03	1.016801E-13	2.124016E-15
3.534846E+03	1.023383E-13	2.131430E-15
3.544832E+03	1.024955E-13	2.128207E-15
3.554817E+03	1.021103E-13	2.113581E-15
3.564803E+03	1.011595E-13	2.087178E-15
3.574788E+03	9.964844E-14	2.049219E-15
3.584773E+03	9.761398E-14	2.000580E-15
3.594759E+03	9.511692E-14	1.942620E-15
3.604744E+03	9.224887E-14	1.877310E-15
3.614730E+03	8.912067E-14	1.806991E-15
3.624715E+03	8.585332E-14	1.734181E-15
3.634701E+03	8.257030E-14	1.661410E-15
3.644686E+03	7.939003E-14	1.591071E-15
3.654671E+03	7.641556E-14	1.525211E-15
3.664657E+03	7.373152E-14	1.465478E-15
3.674642E+03	7.139521E-14	1.412945E-15
3.684628E+03	6.944632E-14	1.368317E-15
3.694613E+03	6.790535E-14	1.331906E-15
3.704599E+03	6.677563E-14	1.303675E-15
3.714584E+03	6.604813E-14	1.283342E-15
3.724570E+03	6.570847E-14	1.270521E-15
3.734555E+03	6.573631E-14	1.264712E-15
3.744540E+03	6.610992E-14	1.265394E-15
3.754526E+03	6.680760E-14	1.272047E-15
3.764511E+03	6.780994E-14	1.284205E-15
3.774497E+03	6.909916E-14	1.301434E-15
3.784482E+03	7.065977E-14	1.323346E-15
3.794468E+03	7.247991E-14	1.349629E-15
3.804453E+03	7.454446E-14	1.379909E-15
3.814439E+03	7.683677E-14	1.413789E-15
3.824424E+03	7.933046E-14	1.450700E-15
3.834409E+03	8.198830E-14	1.489887E-15
3.844395E+03	8.476613E-14	1.530483E-15
3.854380E+03	8.761091E-14	1.571484E-15
3.864366E+03	9.046123E-14	1.611759E-15
3.874351E+03	9.325096E-14	1.650127E-15
3.884337E+03	9.591108E-14	1.685385E-15
3.894322E+03	9.837644E-14	1.716438E-15
3.904308E+03	1.005892E-13	1.742349E-15
3.914293E+03	1.025054E-13	1.762453E-15
3.924278E+03	1.040967E-13	1.776378E-15
3.934264E+03	1.053528E-13	1.784073E-15
3.944249E+03	1.062840E-13	1.785846E-15
3.954235E+03	1.069160E-13	1.782257E-15
3.964220E+03	1.072840E-13	1.774013E-15
3.974206E+03	1.074326E-13	1.761957E-15
3.984191E+03	1.074057E-13	1.746900E-15
3.994176E+03	1.072452E-13	1.729598E-15
4.004162E+03	1.069823E-13	1.710619E-15
4.014147E+03	1.066355E-13	1.690304E-15
4.024133E+03	1.062063E-13	1.668725E-15
4.034118E+03	1.056683E-13	1.645517E-15
4.044104E+03	1.049817E-13	1.620124E-15
4.054089E+03	1.041044E-13	1.591979E-15
4.064075E+03	1.029997E-13	1.560616E-15
4.074060E+03	1.016405E-13	1.525741E-15
4.084045E+03	1.000150E-13	1.487296E-15
4.094031E+03	9.812704E-14	1.445466E-15
4.104016E+03	9.599532E-14	1.400646E-15
4.114002E+03	9.365016E-14	1.353387E-15
4.123987E+03	9.112619E-14	1.304286E-15
4.133973E+03	8.846584E-14	1.254028E-15
4.143958E+03	8.571382E-14	1.203304E-15
4.153944E+03	8.291678E-14	1.152807E-15
4.163929E+03	8.012238E-14	1.103215E-15
4.173914E+03	7.737882E-14	1.055190E-15
4.183900E+03	7.473492E-14	1.009370E-15
4.193885E+03	7.223836E-14	9.663556E-16
4.203871E+03	6.993455E-14	9.266914E-16
4.213856E+03	6.786619E-14	8.908640E-16
4.223842E+03	6.607036E-14	8.592673E-16
4.233827E+03	6.457582E-14	8.321733E-16
4.243813E+03	6.340051E-14	8.097055E-16
4.253798E+03	6.255237E-14	7.918573E-16
4.263783E+03	6.202716E-14	7.784716E-16
4.273769E+03	6.180828E-14	7.692456E-16
4.283754E+03	6.186714E-14	7.637422E-16
4.293740E+03	6.216251E-14	7.613877E-16
4.303725E+03	6.263762E-14	7.614412E-16
4.313711E+03	6.322565E-14	7.630664E-16
4.323696E+03	6.386076E-14	7.654659E-16
4.333681E+03	6.447927E-14	7.678918E-16
4.343667E+03	6.502959E-14	7.697596E-16
4.353652E+03	6.547541E-14	7.706776E-16
4.363638E+03	6.580419E-14	7.705386E-16
4.373623E+03	6.602957E-14	7.695395E-16
4.383609E+03	6.618562E-14	7.681069E-16
4.393594E+03	6.631968E-14	7.668017E-16
4.403580E+03	6.648635E-14	7.662435E-16
4.413565E+03	6.673407E-14	7.669703E-16
4.423550E+03	6.709760E-14	7.693586E-16
4.433536E+03	6.760068E-14	7.736572E-16
4.443521E+03	6.825584E-14	7.799875E-16
4.453507E+03	6.906589E-14	7.883621E-16
4.463492E+03	7.002351E-14	7.986808E-16
4.473478E+03	7.110426E-14	8.106505E-16
4.483463E+03	7.224278E-14	8.235142E-16
4.493449E+03	7.335083E-14	8.362542E-16
4.503434E+03	7.434624E-14	8.479207E-16
4.513419E+03	7.516944E-14	8.578175E-16
4.523405E+03	7.578158E-14	8.654807E-16
4.533390E+03	7.615754E-14	8.705985E-16
4.543376E+03	7.628059E-14	8.729516E-16
4.553361E+03	7.614214E-14	8.724111E-16
4.563347E+03	7.574093E-14	8.689296E-16
4.573332E+03	7.508360E-14	8.625504E-16
4.583318E+03	7.418446E-14	8.534049E-16
4.593303E+03	7.307384E-14	8.418111E-16
4.603288E+03	7.179937E-14	8.282895E-16
4.613274E+03	7.042009E-14	8.134977E-16
4.623259E+03	6.899987E-14	7.981547E-16
4.633245E+03	6.760767E-14	7.830445E-16
4.643230E+03	6.630149E-14	7.688299E-16
4.653216E+03	6.512736E-14	7.560395E-16
4.663201E+03	6.410635E-14	7.449146E-16
4.673186E+03	6.324267E-14	7.355020E-16
4.683172E+03	6.252955E-14	7.277206E-16
4.693157E+03	6.195022E-14	7.213722E-16
4.703143E+03	6.148299E-14	7.162004E-16
4.713128E+03	6.109968E-14	7.118723E-16
4.723114E+03	6.076763E-14	7.080019E-16
4.733099E+03	6.045187E-14	7.041764E-16
4.743085E+03	6.011330E-14	6.999355E-16
4.753070E+03	5.971379E-14	6.948319E-16
4.763055E+03	5.921458E-14	6.884131E-16
4.773041E+03	5.858896E-14	6.803707E-16
4.783026E+03	5.782205E-14	6.705373E-16
4.793012E+03	5.691231E-14	6.589042E-16
4.802997E+03	5.587580E-14	6.456690E-16
4.812983E+03	5.474364E-14	6.312051E-16
4.822968E+03	5.355535E-14	6.159820E-16
4.832954E+03	5.235530E-14	6.005220E-16
4.842939E+03	5.118530E-14	5.853138E-16
4.852924E+03	5.008225E-14	5.707846E-16
4.862910E+03	4.907599E-14	5.572752E-16
4.872895E+03	4.818698E-14	5.450140E-16
4.882881E+03	4.742731E-14	5.341296E-16
4.892866E+03	4.680449E-14	5.246949E-16
4.902852E+03	4.631961E-14	5.167071E-16
4.912837E+03	4.597288E-14	5.101511E-16
4.922823E+03	4.576398E-14	5.050033E-16
4.932808E+03	4.569269E-14	5.012388E-16
4.942793E+03	4.576062E-14	4.988504E-16
4.952779E+03	4.596863E-14	4.978198E-16
4.962764E+03	4.631754E-14	4.981259E-16
4.972750E+03	4.680602E-14	4.997219E-16
4.982735E+03	4.743060E-14	5.025366E-16
4.992721E+03	4.818271E-14	5.064442E-16
5.002706E+03	4.905093E-14	5.112907E-16
5.012691E+03	5.001700E-14	5.168537E-16
5.022677E+03	5.105741E-14	5.228626E-16
5.032662E+03	5.214469E-14	5.290150E-16
5.042648E+03	5.324835E-14	5.349890E-16
5.052633E+03	5.433820E-14	5.404779E-16
5.062619E+03	5.538483E-14	5.451964E-16
5.072604E+03	5.636141E-14	5.488982E-16
5.082590E+03	5.724423E-14	5.513801E-16
5.092575E+03	5.801377E-14	5.524916E-16
5.102560E+03	5.865419E-14	5.521277E-16
5.112546E+03	5.914997E-14	5.501962E-16
5.122531E+03	5.948789E-14	5.466352E-16
5.132517E+03	5.964714E-14	5.413225E-16
5.142502E+03	5.960215E-14	5.341048E-16
5.152488E+03	5.932474E-14	5.248192E-16
5.162473E+03	5.879667E-14	5.134041E-16
5.172459E+03	5.801581E-14	4.999458E-16
5.182444E+03	5.699739E-14	4.846790E-16
5.192429E+03	5.577775E-14	4.680079E-16
5.202415E+03	5.441270E-14	4.504799E-16
5.212400E+03	5.297248E-14	4.327333E-16
5.222386E+03	5.152892E-14	4.153861E-16
5.232371E+03	5.015458E-14	3.990296E-16
5.242357E+03	4.891407E-14	3.841615E-16
5.252342E+03	4.785863E-14	3.711500E-16
5.262328E+03	4.702183E-14	3.602099E-16
5.272313E+03	4.642274E-14	3.514374E-16
5.282298E+03	4.606262E-14	3.447941E-16
5.292284E+03	4.592489E-14	3.401156E-16
5.302269E+03	4.597809E-14	3.371412E-16
5.312255E+03	4.618155E-14	3.355597E-16
5.322240E+03	4.648529E-14	3.350102E-16
5.332226E+03	4.683541E-14	3.351207E-16
5.342211E+03	4.717877E-14	3.355386E-16
5.352196E+03	4.747040E-14	3.359780E-16
5.362182E+03	4.767215E-14	3.362045E-16
5.372167E+03	4.775958E-14	3.360774E-16
5.382153E+03	4.772255E-14	3.355351E-16
5.392138E+03	4.756177E-14	3.345689E-16
5.402124E+03	4.728055E-14	3.331787E-16
5.412109E+03	4.688697E-14	3.313889E-16
5.422095E+03	4.641832E-14	3.294227E-16
5.432080E+03	4.593318E-14	3.276550E-16
5.442065E+03	4.548795E-14	3.264523E-16
5.452051E+03	4.512420E-14	3.260848E-16
5.462036E+03	4.486565E-14	3.267046E-16
5.472022E+03	4.471692E-14	3.283327E-16
5.482007E+03	4.466557E-14	3.308694E-16
5.491993E+03	4.469579E-14	3.341897E-16
5.501978E+03	4.479269E-14	3.381745E-16
5.511964E+03	4.494549E-14	3.427335E-16
5.521949E+03	4.514375E-14	3.477777E-16
5.531934E+03	4.538170E-14	3.532525E-16
5.541920E+03	4.565478E-14	3.591124E-16
5.551905E+03	4.595924E-14	3.653175E-16
5.561891E+03	4.628668E-14	3.717904E-16
5.571876E+03	4.662684E-14	3.784362E-16
5.581862E+03	4.696598E-14	3.851291E-16
5.591847E+03	4.728774E-14	3.917174E-16
5.601833E+03	4.757237E-14	3.980162E-16
5.611818E+03	4.780177E-14	4.038489E-16
5.621803E+03	4.796055E-14	4.090571E-16
5.631789E+03	4.803608E-14	4.135024E-16
5.641774E+03	4.802081E-14	4.170882E-16
5.651760E+03	4.791224E-14	4.197613E-16
5.661745E+03	4.771390E-14	4.215234E-16
5.671731E+03	4.743391E-14	4.224200E-16
5.681716E+03	4.708469E-14	4.225395E-16
5.691701E+03	4.668189E-14	4.220051E-16
5.701687E+03	4.624414E-14	4.209729E-16
5.711672E+03	4.579405E-14	4.196421E-16
5.721658E+03	4.535239E-14	4.182010E-16
5.731643E+03	4.493943E-14	4.168392E-16
5.741629E+03	4.457124E-14	4.157118E-16
5.751614E+03	4.425920E-14	4.149332E-16
5.761600E+03	4.401124E-14	4.145870E-16
5.771585E+03	4.383117E-14	4.147185E-16
5.781570E+03	4.371742E-14	4.153223E-16
5.791556E+03	4.366439E-14	4.163530E-16
5.801541E+03	4.366361E-14	4.177366E-16
5.811527E+03	4.370218E-14	4.193545E-16
5.821512E+03	4.376847E-14	4.210989E-16
5.831498E+03	4.385263E-14	4.228776E-16
5.841483E+03	4.394654E-14	4.246148E-16
5.851469E+03	4.404354E-14	4.262476E-16
5.861454E+03	4.413632E-14	4.277078E-16
5.871439E+03	4.422031E-14	4.289532E-16
5.881425E+03	4.428993E-14	4.299329E-16
5.891410E+03	4.434020E-14	4.306020E-16
5.901396E+03	4.436613E-14	4.309164E-16
5.911381E+03	4.436227E-14	4.308286E-16
5.921367E+03	4.432255E-14	4.302858E-16
5.931352E+03	4.423754E-14	4.292040E-16
5.941338E+03	4.409495E-14	4.274726E-16
5.951323E+03	4.387768E-14	4.249361E-16
5.961308E+03	4.356495E-14	4.214053E-16
5.971294E+03	4.313454E-14	4.166793E-16
5.981279E+03	4.256744E-14	4.105907E-16
5.991265E+03	4.184510E-14	4.029786E-16
6.001250E+03	4.095628E-14	3.937546E-16
6.011236E+03	3.989296E-14	3.828624E-16
6.021221E+03	3.865857E-14	3.703561E-16
6.031207E+03	3.727243E-14	3.564411E-16
6.041192E+03	3.577080E-14	3.414822E-16
6.051177E+03	3.420318E-14	3.259663E-16
6.061163E+03	3.262675E-14	3.104486E-16
6.071148E+03	3.110550E-14	2.955434E-16
6.081134E+03	2.969913E-14	2.818198E-16
6.091119E+03	2.846088E-14	2.697813E-16
6.101105E+03	2.743244E-14	2.598207E-16
6.111090E+03	2.664443E-14	2.522258E-16
6.121075E+03	2.611518E-14	2.471700E-16
6.131061E+03	2.585018E-14	2.447094E-16
6.141046E+03	2.584501E-14	2.448110E-16
6.151032E+03	2.608852E-14	2.473839E-16
6.161017E+03	2.656280E-14	2.522796E-16
6.171003E+03	2.724188E-14	2.592790E-16
6.180988E+03	2.809471E-14	2.681196E-16
6.190974E+03	2.908410E-14	2.784842E-16
6.200959E+03	3.016718E-14	2.900024E-16
6.210944E+03	3.129685E-14	3.022616E-16
6.220930E+03	3.242568E-14	3.148412E-16
6.230915E+03	3.350792E-14	3.273281E-16
6.240901E+03	3.450064E-14	3.393191E-16
6.250886E+03	3.536864E-14	3.504621E-16
6.260872E+03	3.608453E-14	3.604657E-16
6.270857E+03	3.663108E-14	3.691246E-16
6.280843E+03	3.700139E-14	3.763247E-16
6.290828E+03	3.719795E-14	3.820384E-16
6.300813E+03	3.723093E-14	3.863111E-16
6.310799E+03	3.711609E-14	3.892456E-16
6.320784E+03	3.687235E-14	3.909794E-16
6.330770E+03	3.652247E-14	3.916966E-16
6.340755E+03	3.609120E-14	3.916103E-16
6.350741E+03	3.560416E-14	3.909541E-16
6.360726E+03	3.509127E-14	3.900217E-16
6.370712E+03	3.458420E-14	3.891423E-16
6.380697E+03	3.411438E-14	3.886609E-16
6.390682E+03	3.371004E-14	3.889038E-16
6.400668E+03	3.338525E-14	3.900507E-16
6.410653E+03	3.312310E-14	3.919244E-16
6.420639E+03	3.290182E-14	3.942813E-16
6.430624E+03	3.270284E-14	3.969043E-16
6.440610E+03	3.251257E-14	3.996271E-16
6.450595E+03	3.232231E-14	4.023367E-16
6.460580E+03	3.212783E-14	4.049712E-16
6.470566E+03	3.192869E-14	4.075153E-16
6.480551E+03	3.172460E-14	4.099551E-16
6.490537E+03	3.151808E-14	4.123142E-16
6.500522E+03	3.131075E-14	4.146063E-16
6.510508E+03	3.110312E-14	4.168317E-16
6.520493E+03	3.089569E-14	4.189910E-16
6.530479E+03	3.068778E-14	4.210694E-16
6.540464E+03	3.047855E-14	4.230501E-16
6.550449E+03	3.026730E-14	4.249180E-16
6.560435E+03	3.005409E-14	4.266684E-16
6.570420E+03	2.983839E-14	4.282888E-16
6.580406E+03	2.962067E-14	4.297812E-16
6.590391E+03	2.940219E-14	4.311596E-16
6.600377E+03	2.918382E-14	4.324334E-16
6.610362E+03	2.896582E-14	4.336040E-16
6.620348E+03	2.874933E-14	4.346859E-16
6.630333E+03	2.853413E-14	4.356743E-16
6.640318E+03	2.832108E-14	4.365809E-16
6.650304E+03	2.810885E-14	4.373840E-16
6.660289E+03	2.789699E-14	4.380752E-16
6.670275E+03	2.768550E-14	4.386532E-16
6.680260E+03	2.747403E-14	4.391114E-16
6.690246E+03	2.726206E-14	4.394404E-16
6.700231E+03	2.704985E-14	4.396432E-16
6.710217E+03	2.683843E-14	4.397356E-16
6.720202E+03	2.662788E-14	4.397192E-16
6.730187E+03	2.641919E-14	4.396101E-16
6.740173E+03	2.621187E-14	4.394003E-16
6.750158E+03	2.600720E-14	4.391120E-16
6.760144E+03	2.580448E-14	4.387342E-16
6.770129E+03	2.560486E-14	4.382870E-16
6.780115E+03	2.540771E-14	4.377613E-16
6.790100E+03	2.521402E-14	4.371751E-16
6.800085E+03	2.502449E-14	4.365419E-16
6.810071E+03	2.483950E-14	4.358702E-16
6.820056E+03	2.466055E-14	4.351883E-16
6.830042E+03	2.448826E-14	4.345094E-16
6.840027E+03	2.432400E-14	4.338604E-16
6.850013E+03	2.416749E-14	4.332392E-16
6.859998E+03	2.401998E-14	4.326708E-16
6.869984E+03	2.388102E-14	4.321495E-16
6.879969E+03	2.375010E-14	4.316693E-16
6.889954E+03	2.362605E-14	4.312107E-16
6.899940E+03	2.350894E-14	4.307771E-16
6.909925E+03	2.339660E-14	4.303305E-16
6.919911E+03	2.328963E-14	4.298834E-16
6.929896E+03	2.318666E-14	4.294120E-16
6.939882E+03	2.308752E-14	4.289142E-16
6.949867E+03	2.299274E-14	4.284010E-16
6.959853E+03	2.290212E-14	4.278697E-16
6.969838E+03	2.281601E-14	4.273282E-16
6.979823E+03	2.273482E-14	4.267848E-16
6.989809E+03	2.265885E-14	4.262467E-16
6.999794E+03	2.258836E-14	4.257195E-16
7.009780E+03	2.252292E-14	4.251959E-16
7.019765E+03	2.246324E-14	4.246905E-16
7.029751E+03	2.240763E-14	4.241717E-16
7.039736E+03	2.235673E-14	4.236526E-16
7.049722E+03	2.230828E-14	4.230907E-16
7.059707E+03	2.226201E-14	4.224815E-16
7.069692E+03	2.221605E-14	4.217896E-16
7.079678E+03	2.216876E-14	4.209843E-16
7.089663E+03	2.211885E-14	4.200416E-16
7.099649E+03	2.206357E-14	4.189096E-16
7.109634E+03	2.200150E-14	4.175619E-16
7.119620E+03	2.193052E-14	4.159592E-16
7.129605E+03	2.184959E-14	4.140830E-16
7.139590E+03	2.175762E-14	4.119139E-16
7.149576E+03	2.165378E-14	4.094380E-16
7.159561E+03	2.153872E-14	4.066699E-16
7.169547E+03	2.141242E-14	4.036114E-16
7.179532E+03	2.127745E-14	4.003136E-16
7.189518E+03	2.113560E-14	3.968129E-16
7.199503E+03	2.098891E-14	3.931503E-16
7.209489E+03	2.084043E-14	3.893850E-16
7.219474E+03	2.069262E-14	3.855655E-16
7.229459E+03	2.054712E-14	3.817241E-16
7.239445E+03	2.040540E-14	3.778897E-16
7.249430E+03	2.026831E-14	3.740794E-16
7.259416E+03	2.013609E-14	3.702987E-16
7.269401E+03	2.000843E-14	3.665431E-16
7.279387E+03	1.988376E-14	3.627850E-16
7.289372E+03	1.976212E-14	3.590261E-16
7.299358E+03	1.964244E-14	3.552490E-16
7.309343E+03	1.952372E-14	3.514366E-16
7.319328E+03	1.940567E-14	3.475858E-16
7.329314E+03	1.928682E-14	3.436724E-16
7.339299E+03	1.916615E-14	3.396805E-16
7.349285E+03	1.904221E-14	3.355873E-16
7.359270E+03	1.891284E-14	3.313584E-16
7.369256E+03	1.877633E-14	3.269680E-16
7.379241E+03	1.862941E-14	3.223640E-16
7.389227E+03	1.847134E-14	3.175402E-16
7.399212E+03	1.830038E-14	3.124734E-16
7.409197E+03	1.811704E-14	3.071795E-16
7.419183E+03	1.792291E-14	3.016928E-16
7.429168E+03	1.772106E-14	2.960720E-16
7.439154E+03	1.751592E-14	2.903969E-16
7.449139E+03	1.731249E-14	2.847542E-16
7.459125E+03	1.711750E-14	2.792567E-16
7.469110E+03	1.693532E-14	2.739750E-16
7.479095E+03	1.677126E-14	2.689922E-16
7.489081E+03	1.662836E-14	2.643525E-16
7.499066E+03	1.650963E-14	2.600977E-16
7.509052E+03	1.641522E-14	2.562228E-16
7.519037E+03	1.634422E-14	2.527060E-16
7.529023E+03	1.629501E-14	2.495152E-16
7.539008E+03	1.626519E-14	2.466074E-16
7.548994E+03	1.625249E-14	2.439429E-16
7.558979E+03	1.625304E-14	2.414594E-16
7.568964E+03	1.626464E-14	2.391222E-16
7.578950E+03	1.628527E-14	2.369001E-16
7.588935E+03	1.631250E-14	2.347578E-16
7.598921E+03	1.634552E-14	2.326845E-16
7.608906E+03	1.638312E-14	2.306653E-16
7.618892E+03	1.642544E-14	2.287043E-16
7.628877E+03	1.647173E-14	2.267942E-16
7.638863E+03	1.652281E-14	2.249495E-16
7.648848E+03	1.657805E-14	2.231654E-16
7.658833E+03	1.663878E-14	2.214637E-16
7.668819E+03	1.670439E-14	2.198409E-16
7.678804E+03	1.677512E-14	2.183049E-16
7.688790E+03	1.684965E-14	2.168441E-16
7.698775E+03	1.692601E-14	2.154401E-16
7.708761E+03	1.700115E-14	2.140624E-16
7.718746E+03	1.707158E-14	2.126773E-16
7.728732E+03	1.713313E-14	2.112451E-16
7.738717E+03	1.718094E-14	2.097199E-16
7.748702E+03	1.721184E-14	2.080790E-16
