#wls	flux	fluxerr
1.597671E+03	6.550925E-15	3.449520E-16
1.637612E+03	5.805443E-15	2.984900E-16
1.677554E+03	5.071688E-15	2.544288E-16
1.717496E+03	4.364669E-15	2.134819E-16
1.757438E+03	3.697070E-15	1.761722E-16
1.797379E+03	3.077223E-15	1.427517E-16
1.837321E+03	2.510642E-15	1.132983E-16
1.877263E+03	2.002752E-15	8.785357E-17
1.917205E+03	1.556944E-15	6.634116E-17
1.957146E+03	1.175637E-15	4.862468E-17
1.997088E+03	8.600767E-16	3.450687E-17
2.037030E+03	6.099788E-16	2.372474E-17
2.076972E+03	4.222983E-16	1.591428E-17
2.116914E+03	2.919701E-16	1.065582E-17
2.156855E+03	2.125766E-16	7.510885E-18
2.196797E+03	1.715229E-16	5.865833E-18
2.236739E+03	1.584538E-16	5.244657E-18
2.276681E+03	1.699047E-16	5.443583E-18
2.316622E+03	2.103666E-16	6.526460E-18
2.356564E+03	2.949368E-16	8.865840E-18
2.396506E+03	4.564891E-16	1.330780E-17
2.436448E+03	7.582655E-16	2.146421E-17
2.476389E+03	1.311438E-15	3.610230E-17
2.516331E+03	2.285929E-15	6.130458E-17
2.556273E+03	3.878861E-15	1.015146E-16
2.596215E+03	6.179062E-15	1.580807E-16
2.636156E+03	8.957414E-15	2.243808E-16
2.676098E+03	1.181892E-14	2.903430E-16
2.716040E+03	1.454316E-14	3.508899E-16
2.755982E+03	1.713192E-14	4.065443E-16
2.795924E+03	1.977557E-14	4.621626E-16
2.835865E+03	2.272164E-14	5.236137E-16
2.875807E+03	2.613208E-14	5.945180E-16
2.915749E+03	3.007293E-14	6.762072E-16
2.955691E+03	3.451495E-14	7.679001E-16
2.995632E+03	3.921759E-14	8.642650E-16
3.005618E+03	4.037548E-14	8.878208E-16
3.015603E+03	4.150210E-14	9.106450E-16
3.025589E+03	4.258358E-14	9.324436E-16
3.035574E+03	4.360851E-14	9.529790E-16
3.045560E+03	4.456458E-14	9.719945E-16
3.055545E+03	4.544216E-14	9.892941E-16
3.065530E+03	4.622923E-14	1.004628E-15
3.075516E+03	4.691399E-14	1.017748E-15
3.085501E+03	4.748869E-14	1.028497E-15
3.095487E+03	4.795146E-14	1.036843E-15
3.105472E+03	4.830085E-14	1.042764E-15
3.115458E+03	4.854297E-14	1.046398E-15
3.125443E+03	4.868656E-14	1.047940E-15
3.135429E+03	4.874842E-14	1.047757E-15
3.145414E+03	4.874289E-14	1.046159E-15
3.155399E+03	4.869053E-14	1.043588E-15
3.165385E+03	4.861329E-14	1.040514E-15
3.175370E+03	4.853241E-14	1.037388E-15
3.185356E+03	4.846688E-14	1.034611E-15
3.195341E+03	4.843887E-14	1.032651E-15
3.205327E+03	4.846439E-14	1.031841E-15
3.215312E+03	4.856015E-14	1.032528E-15
3.225298E+03	4.873898E-14	1.034974E-15
3.235283E+03	4.901339E-14	1.039435E-15
3.245268E+03	4.939312E-14	1.046104E-15
3.255254E+03	4.988610E-14	1.055138E-15
3.265239E+03	5.049790E-14	1.066639E-15
3.275225E+03	5.123420E-14	1.080714E-15
3.285210E+03	5.209841E-14	1.097420E-15
3.295196E+03	5.309184E-14	1.116768E-15
3.305181E+03	5.421617E-14	1.138777E-15
3.315166E+03	5.547029E-14	1.163408E-15
3.325152E+03	5.685403E-14	1.190640E-15
3.335137E+03	5.836496E-14	1.220402E-15
3.345123E+03	6.000117E-14	1.252638E-15
3.355108E+03	6.176047E-14	1.287282E-15
3.365094E+03	6.364025E-14	1.324260E-15
3.375079E+03	6.563672E-14	1.363474E-15
3.385065E+03	6.774365E-14	1.404773E-15
3.395050E+03	6.995412E-14	1.447993E-15
3.405035E+03	7.225535E-14	1.492850E-15
3.415021E+03	7.463564E-14	1.539082E-15
3.425006E+03	7.707660E-14	1.586292E-15
3.434992E+03	7.956037E-14	1.634094E-15
3.444977E+03	8.206804E-14	1.682084E-15
3.454963E+03	8.457916E-14	1.729832E-15
3.464948E+03	8.707281E-14	1.776897E-15
3.474934E+03	8.951509E-14	1.822582E-15
3.484919E+03	9.184672E-14	1.865677E-15
3.494904E+03	9.399410E-14	1.904698E-15
3.504890E+03	9.587778E-14	1.938052E-15
3.514875E+03	9.741868E-14	1.964170E-15
3.524861E+03	9.853141E-14	1.981376E-15
3.534846E+03	9.914286E-14	1.988262E-15
3.544832E+03	9.919015E-14	1.983642E-15
3.554817E+03	9.862656E-14	1.966675E-15
3.564803E+03	9.742750E-14	1.936973E-15
3.574788E+03	9.560342E-14	1.894860E-15
3.584773E+03	9.320296E-14	1.841414E-15
3.594759E+03	9.030276E-14	1.778263E-15
3.604744E+03	8.701359E-14	1.707688E-15
3.614730E+03	8.346988E-14	1.632413E-15
3.624715E+03	7.981417E-14	1.555283E-15
3.634701E+03	7.618671E-14	1.479065E-15
3.644686E+03	7.271930E-14	1.406319E-15
3.654671E+03	6.952386E-14	1.339184E-15
3.664657E+03	6.668683E-14	1.279275E-15
3.674642E+03	6.426040E-14	1.227519E-15
3.684628E+03	6.227774E-14	1.184460E-15
3.694613E+03	6.075212E-14	1.150252E-15
3.704599E+03	5.967490E-14	1.124622E-15
3.714584E+03	5.902616E-14	1.107085E-15
3.724570E+03	5.878346E-14	1.097110E-15
3.734555E+03	5.891764E-14	1.094043E-15
3.744540E+03	5.939907E-14	1.097230E-15
3.754526E+03	6.019993E-14	1.106053E-15
3.764511E+03	6.129581E-14	1.119966E-15
3.774497E+03	6.266446E-14	1.138467E-15
3.784482E+03	6.428726E-14	1.161125E-15
3.794468E+03	6.615045E-14	1.187601E-15
3.804453E+03	6.823924E-14	1.217541E-15
3.814439E+03	7.053778E-14	1.250574E-15
3.824424E+03	7.302000E-14	1.286156E-15
3.834409E+03	7.564954E-14	1.323571E-15
3.844395E+03	7.838341E-14	1.362003E-15
3.854380E+03	8.116744E-14	1.400465E-15
3.864366E+03	8.393821E-14	1.437835E-15
3.874351E+03	8.662744E-14	1.472942E-15
3.884337E+03	8.916368E-14	1.504598E-15
3.894322E+03	9.147832E-14	1.531699E-15
3.904308E+03	9.351149E-14	1.553330E-15
3.914293E+03	9.522184E-14	1.568912E-15
3.924278E+03	9.658543E-14	1.578181E-15
3.934264E+03	9.759709E-14	1.581193E-15
3.944249E+03	9.827457E-14	1.578381E-15
3.954235E+03	9.865220E-14	1.570435E-15
3.964220E+03	9.877392E-14	1.558183E-15
3.974206E+03	9.869292E-14	1.542573E-15
3.984191E+03	9.846265E-14	1.524532E-15
3.994176E+03	9.813308E-14	1.504901E-15
4.004162E+03	9.773942E-14	1.484272E-15
4.014147E+03	9.730408E-14	1.463022E-15
4.024133E+03	9.683076E-14	1.441238E-15
4.034118E+03	9.628515E-14	1.418446E-15
4.044104E+03	9.561752E-14	1.393968E-15
4.054089E+03	9.477838E-14	1.367163E-15
4.064075E+03	9.372673E-14	1.337538E-15
4.074060E+03	9.243176E-14	1.304775E-15
4.084045E+03	9.087874E-14	1.268798E-15
4.094031E+03	8.907223E-14	1.229805E-15
4.104016E+03	8.703193E-14	1.188199E-15
4.114002E+03	8.478770E-14	1.144507E-15
4.123987E+03	8.237325E-14	1.099289E-15
4.133973E+03	7.982897E-14	1.053166E-15
4.143958E+03	7.719690E-14	1.006760E-15
4.153944E+03	7.452025E-14	9.606756E-16
4.163929E+03	7.184286E-14	9.154991E-16
4.173914E+03	6.920964E-14	8.718023E-16
4.183900E+03	6.666694E-14	8.301465E-16
4.193885E+03	6.426064E-14	7.910594E-16
4.203871E+03	6.203461E-14	7.550178E-16
4.213856E+03	6.003047E-14	7.224474E-16
4.223842E+03	5.828590E-14	6.937064E-16
4.233827E+03	5.682976E-14	6.690318E-16
4.243813E+03	5.567589E-14	6.484758E-16
4.253798E+03	5.483067E-14	6.320028E-16
4.263783E+03	5.429028E-14	6.194653E-16
4.273769E+03	5.403495E-14	6.105447E-16
4.283754E+03	5.403576E-14	6.048374E-16
4.293740E+03	5.425415E-14	6.018527E-16
4.303725E+03	5.463161E-14	6.009032E-16
4.313711E+03	5.510061E-14	6.012318E-16
4.323696E+03	5.559777E-14	6.021540E-16
4.333681E+03	5.606475E-14	6.030625E-16
4.343667E+03	5.645578E-14	6.035005E-16
4.353652E+03	5.674093E-14	6.031893E-16
4.363638E+03	5.691452E-14	6.021082E-16
4.373623E+03	5.699500E-14	6.004862E-16
4.383609E+03	5.701860E-14	5.987248E-16
4.393594E+03	5.703340E-14	5.973197E-16
4.403580E+03	5.709511E-14	5.968336E-16
4.413565E+03	5.725013E-14	5.977270E-16
4.423550E+03	5.752160E-14	6.002179E-16
4.433536E+03	5.792058E-14	6.044006E-16
4.443521E+03	5.844910E-14	6.102785E-16
4.453507E+03	5.909669E-14	6.177278E-16
4.463492E+03	5.984232E-14	6.265162E-16
4.473478E+03	6.065496E-14	6.363067E-16
4.483463E+03	6.148290E-14	6.465434E-16
4.493449E+03	6.226099E-14	6.565228E-16
4.503434E+03	6.293097E-14	6.656049E-16
4.513419E+03	6.345901E-14	6.733995E-16
4.523405E+03	6.383092E-14	6.797177E-16
4.533390E+03	6.403852E-14	6.844310E-16
4.543376E+03	6.407094E-14	6.873787E-16
4.553361E+03	6.392126E-14	6.884403E-16
4.563347E+03	6.358756E-14	6.875479E-16
4.573332E+03	6.306823E-14	6.846371E-16
4.583318E+03	6.236692E-14	6.797012E-16
4.593303E+03	6.150284E-14	6.729068E-16
4.603288E+03	6.051209E-14	6.646108E-16
4.613274E+03	5.944283E-14	6.553121E-16
4.623259E+03	5.834921E-14	6.455860E-16
4.633245E+03	5.729178E-14	6.360904E-16
4.643230E+03	5.632640E-14	6.274416E-16
4.653216E+03	5.549616E-14	6.201226E-16
4.663201E+03	5.481136E-14	6.142553E-16
4.673186E+03	5.426730E-14	6.097936E-16
4.683172E+03	5.385390E-14	6.066295E-16
4.693157E+03	5.355185E-14	6.045488E-16
4.703143E+03	5.333978E-14	6.033109E-16
4.713128E+03	5.319256E-14	6.026299E-16
4.723114E+03	5.307874E-14	6.021455E-16
4.733099E+03	5.296577E-14	6.014828E-16
4.743085E+03	5.281798E-14	6.002306E-16
4.753070E+03	5.259690E-14	5.979455E-16
4.763055E+03	5.226331E-14	5.941772E-16
4.773041E+03	5.179075E-14	5.886229E-16
4.783026E+03	5.116578E-14	5.811321E-16
4.793012E+03	5.038791E-14	5.717059E-16
4.802997E+03	4.947391E-14	5.605453E-16
4.812983E+03	4.845747E-14	5.480460E-16
4.822968E+03	4.738127E-14	5.347059E-16
4.832954E+03	4.629126E-14	5.210584E-16
4.842939E+03	4.522871E-14	5.075800E-16
4.852924E+03	4.423089E-14	4.946974E-16
4.862910E+03	4.332802E-14	4.827518E-16
4.872895E+03	4.253732E-14	4.719337E-16
4.882881E+03	4.186841E-14	4.623432E-16
4.892866E+03	4.132761E-14	4.540398E-16
4.902852E+03	4.091356E-14	4.469943E-16
4.912837E+03	4.062429E-14	4.411680E-16
4.922823E+03	4.045838E-14	4.365255E-16
4.932808E+03	4.041432E-14	4.330278E-16
4.942793E+03	4.049305E-14	4.306592E-16
4.952779E+03	4.069494E-14	4.293949E-16
4.962764E+03	4.101880E-14	4.291903E-16
4.972750E+03	4.146220E-14	4.299860E-16
4.982735E+03	4.202129E-14	4.317058E-16
4.992721E+03	4.268590E-14	4.342083E-16
5.002706E+03	4.344422E-14	4.373374E-16
5.012691E+03	4.427932E-14	4.408895E-16
5.022677E+03	4.516762E-14	4.446014E-16
5.032662E+03	4.608256E-14	4.481910E-16
5.042648E+03	4.699717E-14	4.513852E-16
5.052633E+03	4.788623E-14	4.539411E-16
5.062619E+03	4.872692E-14	4.556526E-16
5.072604E+03	4.950019E-14	4.563622E-16
5.082590E+03	5.019120E-14	4.559629E-16
5.092575E+03	5.078976E-14	4.544004E-16
5.102560E+03	5.128903E-14	4.516587E-16
5.112546E+03	5.168215E-14	4.477283E-16
5.122531E+03	5.196438E-14	4.426249E-16
5.132517E+03	5.212123E-14	4.362883E-16
5.142502E+03	5.212651E-14	4.285738E-16
5.152488E+03	5.194723E-14	4.193003E-16
5.162473E+03	5.155933E-14	4.083800E-16
5.172459E+03	5.095551E-14	3.958722E-16
5.182444E+03	5.014249E-14	3.819493E-16
5.192429E+03	4.914608E-14	3.669228E-16
5.202415E+03	4.801646E-14	3.512668E-16
5.212400E+03	4.681735E-14	3.355215E-16
5.222386E+03	4.561203E-14	3.201846E-16
5.232371E+03	4.446497E-14	3.057243E-16
5.242357E+03	4.343465E-14	2.925307E-16
5.252342E+03	4.256650E-14	2.808765E-16
5.262328E+03	4.188697E-14	2.708899E-16
5.272313E+03	4.141133E-14	2.626193E-16
5.282298E+03	4.113963E-14	2.560180E-16
5.292284E+03	4.105085E-14	2.509191E-16
5.302269E+03	4.111153E-14	2.471000E-16
5.312255E+03	4.128398E-14	2.443357E-16
5.322240E+03	4.152416E-14	2.423861E-16
5.332226E+03	4.178670E-14	2.410232E-16
5.342211E+03	4.202954E-14	2.400528E-16
5.352196E+03	4.222078E-14	2.393450E-16
5.362182E+03	4.233476E-14	2.388046E-16
5.372167E+03	4.235717E-14	2.383910E-16
5.382153E+03	4.228669E-14	2.381019E-16
5.392138E+03	4.213096E-14	2.379537E-16
5.402124E+03	4.189486E-14	2.379347E-16
5.412109E+03	4.157700E-14	2.379842E-16
5.422095E+03	4.120269E-14	2.381847E-16
5.432080E+03	4.081789E-14	2.387390E-16
5.442065E+03	4.046257E-14	2.398256E-16
5.452051E+03	4.016573E-14	2.415721E-16
5.462036E+03	3.994393E-14	2.440443E-16
5.472022E+03	3.979540E-14	2.472064E-16
5.482007E+03	3.970510E-14	2.509431E-16
5.491993E+03	3.965979E-14	2.551493E-16
5.501978E+03	3.965227E-14	2.597570E-16
5.511964E+03	3.968040E-14	2.647321E-16
5.521949E+03	3.974185E-14	2.700413E-16
5.531934E+03	3.983811E-14	2.756790E-16
5.541920E+03	3.997087E-14	2.816444E-16
5.551905E+03	4.014088E-14	2.879327E-16
5.561891E+03	4.034282E-14	2.944970E-16
5.571876E+03	4.056889E-14	3.012710E-16
5.581862E+03	4.080733E-14	3.081557E-16
5.591847E+03	4.104179E-14	3.150120E-16
5.601833E+03	4.125182E-14	3.216622E-16
5.611818E+03	4.141891E-14	3.279352E-16
5.621803E+03	4.152828E-14	3.336823E-16
5.631789E+03	4.156778E-14	3.387717E-16
5.641774E+03	4.152979E-14	3.431049E-16
5.651760E+03	4.141198E-14	3.466272E-16
5.661745E+03	4.121745E-14	3.493313E-16
5.671731E+03	4.095346E-14	3.512494E-16
5.681716E+03	4.063204E-14	3.524609E-16
5.691701E+03	4.026857E-14	3.530812E-16
5.701687E+03	3.988064E-14	3.532536E-16
5.711672E+03	3.948879E-14	3.531552E-16
5.721658E+03	3.911252E-14	3.529620E-16
5.731643E+03	3.877053E-14	3.528495E-16
5.741629E+03	3.847536E-14	3.529423E-16
5.751614E+03	3.823609E-14	3.533364E-16
5.761600E+03	3.805957E-14	3.541080E-16
5.771585E+03	3.794707E-14	3.552825E-16
5.781570E+03	3.789604E-14	3.568477E-16
5.791556E+03	3.790076E-14	3.587597E-16
5.801541E+03	3.794980E-14	3.609182E-16
5.811527E+03	3.802725E-14	3.631769E-16
5.821512E+03	3.811969E-14	3.654107E-16
5.831498E+03	3.821626E-14	3.675168E-16
5.841483E+03	3.830815E-14	3.694113E-16
5.851469E+03	3.838848E-14	3.710284E-16
5.861454E+03	3.845121E-14	3.723105E-16
5.871439E+03	3.849318E-14	3.732288E-16
5.881425E+03	3.851102E-14	3.737526E-16
5.891410E+03	3.850328E-14	3.738715E-16
5.901396E+03	3.846917E-14	3.735821E-16
5.911381E+03	3.840776E-14	3.728811E-16
5.921367E+03	3.831815E-14	3.717665E-16
5.931352E+03	3.819719E-14	3.702155E-16
5.941338E+03	3.803923E-14	3.681826E-16
5.951323E+03	3.783350E-14	3.655740E-16
5.961308E+03	3.756629E-14	3.622699E-16
5.971294E+03	3.722238E-14	3.581383E-16
5.981279E+03	3.678737E-14	3.530576E-16
5.991265E+03	3.624641E-14	3.469052E-16
6.001250E+03	3.558949E-14	3.396076E-16
6.011236E+03	3.480566E-14	3.310848E-16
6.021221E+03	3.389149E-14	3.213300E-16
6.031207E+03	3.285682E-14	3.104632E-16
6.041192E+03	3.172684E-14	2.987475E-16
6.051177E+03	3.053785E-14	2.865463E-16
6.061163E+03	2.933347E-14	2.742857E-16
6.071148E+03	2.816647E-14	2.624701E-16
6.081134E+03	2.708793E-14	2.515799E-16
6.091119E+03	2.614383E-14	2.420410E-16
6.101105E+03	2.537014E-14	2.341814E-16
6.111090E+03	2.479547E-14	2.282580E-16
6.121075E+03	2.443735E-14	2.244248E-16
6.131061E+03	2.429684E-14	2.226869E-16
6.141046E+03	2.436625E-14	2.229735E-16
6.151032E+03	2.463388E-14	2.251824E-16
6.161017E+03	2.508126E-14	2.291568E-16
6.171003E+03	2.568369E-14	2.346893E-16
6.180988E+03	2.641369E-14	2.415538E-16
6.190974E+03	2.723900E-14	2.494859E-16
6.200959E+03	2.812339E-14	2.581887E-16
6.210944E+03	2.902849E-14	2.673464E-16
6.220930E+03	2.991739E-14	2.766554E-16
6.230915E+03	3.075517E-14	2.858254E-16
6.240901E+03	3.150946E-14	2.945821E-16
6.250886E+03	3.215521E-14	3.027044E-16
6.260872E+03	3.267319E-14	3.100001E-16
6.270857E+03	3.305227E-14	3.163381E-16
6.280843E+03	3.329142E-14	3.216728E-16
6.290828E+03	3.339687E-14	3.260202E-16
6.300813E+03	3.337952E-14	3.294379E-16
6.310799E+03	3.325404E-14	3.320188E-16
6.320784E+03	3.303602E-14	3.338669E-16
6.330770E+03	3.274307E-14	3.351104E-16
6.340755E+03	3.239398E-14	3.358957E-16
6.350741E+03	3.200704E-14	3.363727E-16
6.360726E+03	3.160434E-14	3.367408E-16
6.370712E+03	3.121163E-14	3.372523E-16
6.380697E+03	3.085360E-14	3.381639E-16
6.390682E+03	3.055172E-14	3.397137E-16
6.400668E+03	3.031779E-14	3.420462E-16
6.410653E+03	3.013447E-14	3.449821E-16
6.420639E+03	2.997951E-14	3.482758E-16
6.430624E+03	2.983662E-14	3.517375E-16
6.440610E+03	2.969393E-14	3.552207E-16
6.450595E+03	2.954365E-14	3.586201E-16
6.460580E+03	2.938393E-14	3.618991E-16
6.470566E+03	2.921688E-14	3.650697E-16
6.480551E+03	2.904405E-14	3.681385E-16
6.490537E+03	2.886892E-14	3.711389E-16
6.500522E+03	2.869395E-14	3.740940E-16
6.510508E+03	2.852021E-14	3.770103E-16
6.520493E+03	2.834785E-14	3.798841E-16
6.530479E+03	2.817571E-14	3.826938E-16
6.540464E+03	2.800257E-14	3.854167E-16
6.550449E+03	2.782745E-14	3.880335E-16
6.560435E+03	2.765013E-14	3.905344E-16
6.570420E+03	2.746994E-14	3.929043E-16
6.580406E+03	2.728754E-14	3.951468E-16
6.590391E+03	2.710441E-14	3.972786E-16
6.600377E+03	2.692163E-14	3.993113E-16
6.610362E+03	2.673955E-14	4.012474E-16
6.620348E+03	2.655929E-14	4.031011E-16
6.630333E+03	2.638066E-14	4.048677E-16
6.640318E+03	2.620407E-14	4.065519E-16
6.650304E+03	2.602783E-14	4.081260E-16
6.660289E+03	2.585116E-14	4.095757E-16
6.670275E+03	2.567371E-14	4.108933E-16
6.680260E+03	2.549488E-14	4.120674E-16
6.690246E+03	2.531403E-14	4.130854E-16
6.700231E+03	2.513148E-14	4.139505E-16
6.710217E+03	2.494840E-14	4.146804E-16
6.720202E+03	2.476515E-14	4.152802E-16
6.730187E+03	2.458270E-14	4.157653E-16
6.740173E+03	2.440072E-14	4.161304E-16
6.750158E+03	2.422062E-14	4.163994E-16
6.760144E+03	2.404161E-14	4.165590E-16
6.770129E+03	2.386469E-14	4.166274E-16
6.780115E+03	2.368942E-14	4.165978E-16
6.790100E+03	2.351664E-14	4.164853E-16
6.800085E+03	2.334708E-14	4.163045E-16
6.810071E+03	2.318133E-14	4.160674E-16
6.820056E+03	2.302074E-14	4.157998E-16
6.830042E+03	2.286598E-14	4.155166E-16
6.840027E+03	2.271859E-14	4.152479E-16
6.850013E+03	2.257812E-14	4.149883E-16
6.859998E+03	2.244570E-14	4.147613E-16
6.869984E+03	2.232099E-14	4.145633E-16
6.879969E+03	2.220309E-14	4.143802E-16
6.889954E+03	2.209056E-14	4.141872E-16
6.899940E+03	2.198341E-14	4.139863E-16
6.909925E+03	2.187941E-14	4.137369E-16
6.919911E+03	2.177917E-14	4.134519E-16
6.929896E+03	2.168165E-14	4.131126E-16
6.939882E+03	2.158678E-14	4.127187E-16
6.949867E+03	2.149530E-14	4.122855E-16
6.959853E+03	2.140743E-14	4.118180E-16
6.969838E+03	2.132357E-14	4.113254E-16
6.979823E+03	2.124436E-14	4.108207E-16
6.989809E+03	2.117045E-14	4.103180E-16
6.999794E+03	2.110201E-14	4.098216E-16
7.009780E+03	2.103880E-14	4.093276E-16
7.019765E+03	2.098179E-14	4.088562E-16
7.029751E+03	2.092924E-14	4.083739E-16
7.039736E+03	2.088186E-14	4.078954E-16
7.049722E+03	2.083779E-14	4.073850E-16
7.059707E+03	2.079649E-14	4.068321E-16
7.069692E+03	2.075609E-14	4.062008E-16
7.079678E+03	2.071525E-14	4.054652E-16
7.089663E+03	2.067256E-14	4.045975E-16
7.099649E+03	2.062549E-14	4.035490E-16
7.109634E+03	2.057292E-14	4.022982E-16
7.119620E+03	2.051247E-14	4.007991E-16
7.129605E+03	2.044282E-14	3.990272E-16
7.139590E+03	2.036283E-14	3.969615E-16
7.149576E+03	2.027123E-14	3.945793E-16
7.159561E+03	2.016821E-14	3.918864E-16
7.169547E+03	2.005363E-14	3.888826E-16
7.179532E+03	1.992977E-14	3.856149E-16
7.189518E+03	1.979840E-14	3.821207E-16
7.199503E+03	1.966169E-14	3.784446E-16
7.209489E+03	1.952269E-14	3.746477E-16
7.219474E+03	1.938410E-14	3.707846E-16
7.229459E+03	1.924792E-14	3.668953E-16
7.239445E+03	1.911554E-14	3.630077E-16
7.249430E+03	1.898792E-14	3.591412E-16
7.259416E+03	1.886547E-14	3.553047E-16
7.269401E+03	1.874735E-14	3.514830E-16
7.279387E+03	1.863163E-14	3.476410E-16
7.289372E+03	1.851823E-14	3.437787E-16
7.299358E+03	1.840617E-14	3.398792E-16
7.309343E+03	1.829491E-14	3.359342E-16
7.319328E+03	1.818477E-14	3.319514E-16
7.329314E+03	1.807451E-14	3.279101E-16
7.339299E+03	1.796367E-14	3.238038E-16
7.349285E+03	1.785131E-14	3.196184E-16
7.359270E+03	1.773462E-14	3.153066E-16
7.369256E+03	1.761126E-14	3.108311E-16
7.379241E+03	1.747781E-14	3.061368E-16
7.389227E+03	1.733276E-14	3.012046E-16
7.399212E+03	1.717401E-14	2.960053E-16
7.409197E+03	1.700202E-14	2.905563E-16
7.419183E+03	1.681820E-14	2.848901E-16
7.429168E+03	1.662580E-14	2.790702E-16
7.439154E+03	1.642962E-14	2.731840E-16
7.449139E+03	1.623440E-14	2.673147E-16
7.459125E+03	1.604692E-14	2.615764E-16
7.469110E+03	1.587201E-14	2.560466E-16
7.479095E+03	1.571460E-14	2.508012E-16
7.489081E+03	1.557800E-14	2.458871E-16
7.499066E+03	1.546572E-14	2.413512E-16
7.509052E+03	1.537732E-14	2.371767E-16
7.519037E+03	1.531162E-14	2.333360E-16
7.529023E+03	1.526732E-14	2.297998E-16
7.539008E+03	1.524131E-14	2.265131E-16
7.548994E+03	1.523099E-14	2.234299E-16
7.558979E+03	1.523271E-14	2.204917E-16
7.568964E+03	1.524374E-14	2.176560E-16
7.578950E+03	1.526185E-14	2.148891E-16
7.588935E+03	1.528477E-14	2.121593E-16
7.598921E+03	1.531133E-14	2.094517E-16
7.608906E+03	1.534027E-14	2.067517E-16
7.618892E+03	1.537189E-14	2.040665E-16
7.628877E+03	1.540523E-14	2.013875E-16
7.638863E+03	1.544120E-14	1.987311E-16
7.648848E+03	1.547972E-14	1.961010E-16
7.658833E+03	1.552213E-14	1.935192E-16
7.668819E+03	1.556864E-14	1.909937E-16
7.678804E+03	1.562025E-14	1.885421E-16
7.688790E+03	1.567467E-14	1.861433E-16
7.698775E+03	1.572929E-14	1.837749E-16
7.708761E+03	1.578101E-14	1.814118E-16
7.718746E+03	1.582520E-14	1.790148E-16
7.728732E+03	1.585720E-14	1.765484E-16
7.738717E+03	1.587272E-14	1.739848E-16
7.748702E+03	1.586887E-14	1.713150E-16
