#wls	flux	fluxerr
1.597671E+03	1.083323E-14	3.454910E-16
1.637612E+03	9.518992E-15	2.978246E-16
1.677554E+03	8.227697E-15	2.524235E-16
1.717496E+03	6.987900E-15	2.101224E-16
1.757438E+03	5.823944E-15	1.715582E-16
1.797379E+03	4.752672E-15	1.370880E-16
1.837321E+03	3.785898E-15	1.068813E-16
1.877263E+03	2.934491E-15	8.104917E-17
1.917205E+03	2.205025E-15	5.955715E-17
1.957146E+03	1.600964E-15	4.227087E-17
1.997088E+03	1.121837E-15	2.894536E-17
2.037030E+03	7.626831E-16	1.922439E-17
2.076972E+03	5.111588E-16	1.258395E-17
2.116914E+03	3.483658E-16	8.374729E-18
2.156855E+03	2.527383E-16	5.932457E-18
2.196797E+03	2.038080E-16	4.670950E-18
2.236739E+03	1.880683E-16	4.208781E-18
2.276681E+03	2.011759E-16	4.397025E-18
2.316622E+03	2.478613E-16	5.292676E-18
2.356564E+03	3.445047E-16	7.190314E-18
2.396506E+03	5.264776E-16	1.074701E-17
2.436448E+03	8.602305E-16	1.718747E-17
2.476389E+03	1.459542E-15	2.856781E-17
2.516331E+03	2.495740E-15	4.789676E-17
2.556273E+03	4.177271E-15	7.867272E-17
2.596215E+03	6.665041E-15	1.232906E-16
2.636156E+03	9.945961E-15	1.808552E-16
2.676098E+03	1.382841E-14	2.473798E-16
2.716040E+03	1.807975E-14	3.184429E-16
2.755982E+03	2.253999E-14	3.911736E-16
2.795924E+03	2.716913E-14	4.649303E-16
2.835865E+03	3.200989E-14	5.405122E-16
2.875807E+03	3.710916E-14	6.187565E-16
2.915749E+03	4.243700E-14	6.992094E-16
2.955691E+03	4.781910E-14	7.791054E-16
2.995632E+03	5.288881E-14	8.527152E-16
3.005618E+03	5.405002E-14	8.692551E-16
3.015603E+03	5.515007E-14	8.847669E-16
3.025589E+03	5.618042E-14	8.991239E-16
3.035574E+03	5.713689E-14	9.122703E-16
3.045560E+03	5.801514E-14	9.241475E-16
3.055545E+03	5.881473E-14	9.347581E-16
3.065530E+03	5.953138E-14	9.440424E-16
3.075516E+03	6.016006E-14	9.519292E-16
3.085501E+03	6.069887E-14	9.583969E-16
3.095487E+03	6.115073E-14	9.634993E-16
3.105472E+03	6.151554E-14	9.672426E-16
3.115458E+03	6.179921E-14	9.697263E-16
3.125443E+03	6.200722E-14	9.710429E-16
3.135429E+03	6.215170E-14	9.713871E-16
3.145414E+03	6.223899E-14	9.708617E-16
3.155399E+03	6.228154E-14	9.696643E-16
3.165385E+03	6.229260E-14	9.680027E-16
3.175370E+03	6.228472E-14	9.660725E-16
3.185356E+03	6.226815E-14	9.640325E-16
3.195341E+03	6.225890E-14	9.621286E-16
3.205327E+03	6.226662E-14	9.605075E-16
3.215312E+03	6.230364E-14	9.593558E-16
3.225298E+03	6.237923E-14	9.588124E-16
3.235283E+03	6.250383E-14	9.590324E-16
3.245268E+03	6.268568E-14	9.601367E-16
3.255254E+03	6.293189E-14	9.622281E-16
3.265239E+03	6.324736E-14	9.653748E-16
3.275225E+03	6.363797E-14	9.696597E-16
3.285210E+03	6.410756E-14	9.751342E-16
3.295196E+03	6.465777E-14	9.818158E-16
3.305181E+03	6.529151E-14	9.897414E-16
3.315166E+03	6.600858E-14	9.989001E-16
3.325152E+03	6.681004E-14	1.009301E-15
3.335137E+03	6.769411E-14	1.020909E-15
3.345123E+03	6.865917E-14	1.033693E-15
3.355108E+03	6.970294E-14	1.047611E-15
3.365094E+03	7.082232E-14	1.062610E-15
3.375079E+03	7.201347E-14	1.078625E-15
3.385065E+03	7.327071E-14	1.095565E-15
3.395050E+03	7.458955E-14	1.113357E-15
3.405035E+03	7.596149E-14	1.131868E-15
3.415021E+03	7.738109E-14	1.151013E-15
3.425006E+03	7.883751E-14	1.170626E-15
3.434992E+03	8.032052E-14	1.190551E-15
3.444977E+03	8.181802E-14	1.210607E-15
3.454963E+03	8.331461E-14	1.230563E-15
3.464948E+03	8.479407E-14	1.250181E-15
3.474934E+03	8.623303E-14	1.269115E-15
3.484919E+03	8.759997E-14	1.286906E-15
3.494904E+03	8.885916E-14	1.303034E-15
3.504890E+03	8.997177E-14	1.316935E-15
3.514875E+03	9.090110E-14	1.328082E-15
3.524861E+03	9.160787E-14	1.335914E-15
3.534846E+03	9.206174E-14	1.340003E-15
3.544832E+03	9.223667E-14	1.339991E-15
3.554817E+03	9.211664E-14	1.335665E-15
3.564803E+03	9.169392E-14	1.326936E-15
3.574788E+03	9.097415E-14	1.313908E-15
3.584773E+03	8.997742E-14	1.296897E-15
3.594759E+03	8.873168E-14	1.276327E-15
3.604744E+03	8.727989E-14	1.252836E-15
3.614730E+03	8.567126E-14	1.227147E-15
3.624715E+03	8.395993E-14	1.200050E-15
3.634701E+03	8.220360E-14	1.172377E-15
3.644686E+03	8.046034E-14	1.144959E-15
3.654671E+03	7.878329E-14	1.118552E-15
3.664657E+03	7.722269E-14	1.093862E-15
3.674642E+03	7.581869E-14	1.071446E-15
3.684628E+03	7.460635E-14	1.051783E-15
3.694613E+03	7.361227E-14	1.035230E-15
3.704599E+03	7.285666E-14	1.022049E-15
3.714584E+03	7.235184E-14	1.012386E-15
3.724570E+03	7.210614E-14	1.006332E-15
3.734555E+03	7.212266E-14	1.003901E-15
3.744540E+03	7.240166E-14	1.005068E-15
3.754526E+03	7.293986E-14	1.009756E-15
3.764511E+03	7.373217E-14	1.017864E-15
3.774497E+03	7.477068E-14	1.029252E-15
3.784482E+03	7.604523E-14	1.043749E-15
3.794468E+03	7.754524E-14	1.061179E-15
3.804453E+03	7.925359E-14	1.081278E-15
3.814439E+03	8.115245E-14	1.103775E-15
3.824424E+03	8.322004E-14	1.128346E-15
3.834409E+03	8.542779E-14	1.154580E-15
3.844395E+03	8.774428E-14	1.182032E-15
3.854380E+03	9.013469E-14	1.210216E-15
3.864366E+03	9.256012E-14	1.238598E-15
3.874351E+03	9.497928E-14	1.266618E-15
3.884337E+03	9.734936E-14	1.293706E-15
3.894322E+03	9.963028E-14	1.319333E-15
3.904308E+03	1.017840E-13	1.343008E-15
3.914293E+03	1.037773E-13	1.364310E-15
3.924278E+03	1.055830E-13	1.382904E-15
3.934264E+03	1.071809E-13	1.398553E-15
3.944249E+03	1.085592E-13	1.411134E-15
3.954235E+03	1.097119E-13	1.420601E-15
3.964220E+03	1.106381E-13	1.426979E-15
3.974206E+03	1.113441E-13	1.430382E-15
3.984191E+03	1.118356E-13	1.430920E-15
3.994176E+03	1.121209E-13	1.428734E-15
4.004162E+03	1.122063E-13	1.423939E-15
4.014147E+03	1.120947E-13	1.416607E-15
4.024133E+03	1.117892E-13	1.406809E-15
4.034118E+03	1.112870E-13	1.394548E-15
4.044104E+03	1.105857E-13	1.379826E-15
4.054089E+03	1.096815E-13	1.362635E-15
4.064075E+03	1.085722E-13	1.342984E-15
4.074060E+03	1.072586E-13	1.320920E-15
4.084045E+03	1.057472E-13	1.296563E-15
4.094031E+03	1.040480E-13	1.270070E-15
4.104016E+03	1.021781E-13	1.241683E-15
4.114002E+03	1.001618E-13	1.211731E-15
4.123987E+03	9.802503E-14	1.180553E-15
4.133973E+03	9.580074E-14	1.148568E-15
4.143958E+03	9.352412E-14	1.116214E-15
4.153944E+03	9.123231E-14	1.083944E-15
4.163929E+03	8.896348E-14	1.052215E-15
4.173914E+03	8.675548E-14	1.021472E-15
4.183900E+03	8.464497E-14	9.921367E-16
4.193885E+03	8.266664E-14	9.646009E-16
4.203871E+03	8.085283E-14	9.392215E-16
4.213856E+03	7.923313E-14	9.163167E-16
4.223842E+03	7.783233E-14	8.961439E-16
4.233827E+03	7.667102E-14	8.789074E-16
4.243813E+03	7.576506E-14	8.647542E-16
4.253798E+03	7.512266E-14	8.537421E-16
4.263783E+03	7.474253E-14	8.458206E-16
4.273769E+03	7.461644E-14	8.408627E-16
4.283754E+03	7.472567E-14	8.386261E-16
4.293740E+03	7.504134E-14	8.387603E-16
4.303725E+03	7.552453E-14	8.408089E-16
4.313711E+03	7.612689E-14	8.442193E-16
4.323696E+03	7.679619E-14	8.484033E-16
4.333681E+03	7.747561E-14	8.527319E-16
4.343667E+03	7.811279E-14	8.566341E-16
4.353652E+03	7.866217E-14	8.596218E-16
4.363638E+03	7.909788E-14	8.614275E-16
4.373623E+03	7.942304E-14	8.621016E-16
4.383609E+03	7.966124E-14	8.619147E-16
4.393594E+03	7.985095E-14	8.612936E-16
4.403580E+03	8.004184E-14	8.607793E-16
4.413565E+03	8.028578E-14	8.609250E-16
4.423550E+03	8.063474E-14	8.622765E-16
4.433536E+03	8.113812E-14	8.653466E-16
4.443521E+03	8.183577E-14	8.705418E-16
4.453507E+03	8.275691E-14	8.781520E-16
4.463492E+03	8.391579E-14	8.883068E-16
4.473478E+03	8.530142E-14	9.008688E-16
4.483463E+03	8.685080E-14	9.151541E-16
4.493449E+03	8.846445E-14	9.301018E-16
4.503434E+03	9.003561E-14	9.445842E-16
4.513419E+03	9.146745E-14	9.575864E-16
4.523405E+03	9.267588E-14	9.682343E-16
4.533390E+03	9.359155E-14	9.758144E-16
4.543376E+03	9.416513E-14	9.798261E-16
4.553361E+03	9.436518E-14	9.799583E-16
4.563347E+03	9.417860E-14	9.760918E-16
4.573332E+03	9.361476E-14	9.683406E-16
4.583318E+03	9.269677E-14	9.569601E-16
4.593303E+03	9.146501E-14	9.423817E-16
4.603288E+03	8.997774E-14	9.252179E-16
4.613274E+03	8.830152E-14	9.061623E-16
4.623259E+03	8.650266E-14	8.859010E-16
4.633245E+03	8.465141E-14	8.651561E-16
4.643230E+03	8.280535E-14	8.445148E-16
4.653216E+03	8.101569E-14	8.244952E-16
4.663201E+03	7.931860E-14	8.054587E-16
4.673186E+03	7.773696E-14	7.876294E-16
4.683172E+03	7.628125E-14	7.711039E-16
4.693157E+03	7.495090E-14	7.558664E-16
4.703143E+03	7.373748E-14	7.418221E-16
4.713128E+03	7.262358E-14	7.287872E-16
4.723114E+03	7.158815E-14	7.165427E-16
4.733099E+03	7.060758E-14	7.048463E-16
4.743085E+03	6.965444E-14	6.934205E-16
4.753070E+03	6.870541E-14	6.820313E-16
4.763055E+03	6.773519E-14	6.704285E-16
4.773041E+03	6.672652E-14	6.584440E-16
4.783026E+03	6.566799E-14	6.459701E-16
4.793012E+03	6.455453E-14	6.329632E-16
4.802997E+03	6.339273E-14	6.194946E-16
4.812983E+03	6.219925E-14	6.057336E-16
4.822968E+03	6.099575E-14	5.918962E-16
4.832954E+03	5.980888E-14	5.782437E-16
4.842939E+03	5.866578E-14	5.650389E-16
4.852924E+03	5.759132E-14	5.525185E-16
4.862910E+03	5.660689E-14	5.408822E-16
4.872895E+03	5.572968E-14	5.302860E-16
4.882881E+03	5.497105E-14	5.208275E-16
4.892866E+03	5.433971E-14	5.125769E-16
4.902852E+03	5.383988E-14	5.055602E-16
4.912837E+03	5.347544E-14	4.997989E-16
4.922823E+03	5.324924E-14	4.953036E-16
4.932808E+03	5.316402E-14	4.920825E-16
4.942793E+03	5.322381E-14	4.901547E-16
4.952779E+03	5.343124E-14	4.895252E-16
4.962764E+03	5.378962E-14	4.902038E-16
4.972750E+03	5.429974E-14	4.921765E-16
4.982735E+03	5.496028E-14	4.954094E-16
4.992721E+03	5.576622E-14	4.998353E-16
5.002706E+03	5.670983E-14	5.053634E-16
5.012691E+03	5.777613E-14	5.118399E-16
5.022677E+03	5.894578E-14	5.190760E-16
5.032662E+03	6.019466E-14	5.268447E-16
5.042648E+03	6.149180E-14	5.348648E-16
5.052633E+03	6.280270E-14	5.428321E-16
5.062619E+03	6.408907E-14	5.504172E-16
5.072604E+03	6.531055E-14	5.572825E-16
5.082590E+03	6.642579E-14	5.630915E-16
5.092575E+03	6.739499E-14	5.675311E-16
5.102560E+03	6.818122E-14	5.703213E-16
5.112546E+03	6.874958E-14	5.712085E-16
5.122531E+03	6.907257E-14	5.700083E-16
5.132517E+03	6.912515E-14	5.665632E-16
5.142502E+03	6.889313E-14	5.608099E-16
5.152488E+03	6.836916E-14	5.527433E-16
5.162473E+03	6.755797E-14	5.424565E-16
5.172459E+03	6.647698E-14	5.301423E-16
5.182444E+03	6.515622E-14	5.160883E-16
5.192429E+03	6.364052E-14	5.006910E-16
5.202415E+03	6.198688E-14	4.844311E-16
5.212400E+03	6.026240E-14	4.678545E-16
5.222386E+03	5.853431E-14	4.514927E-16
5.232371E+03	5.687193E-14	4.358794E-16
5.242357E+03	5.533827E-14	4.214860E-16
5.252342E+03	5.398581E-14	4.086923E-16
5.262328E+03	5.285346E-14	3.977671E-16
5.272313E+03	5.196847E-14	3.888868E-16
5.282298E+03	5.134290E-14	3.821119E-16
5.292284E+03	5.097431E-14	3.773962E-16
5.302269E+03	5.084671E-14	3.745970E-16
5.312255E+03	5.093313E-14	3.734967E-16
5.322240E+03	5.119300E-14	3.737850E-16
5.332226E+03	5.157709E-14	3.750967E-16
5.342211E+03	5.202943E-14	3.770255E-16
5.352196E+03	5.249188E-14	3.791570E-16
5.362182E+03	5.290467E-14	3.810710E-16
5.372167E+03	5.321679E-14	3.824141E-16
5.382153E+03	5.338892E-14	3.829148E-16
5.392138E+03	5.339563E-14	3.823956E-16
5.402124E+03	5.322305E-14	3.807588E-16
5.412109E+03	5.287393E-14	3.780221E-16
5.422095E+03	5.239184E-14	3.744897E-16
5.432080E+03	5.185095E-14	3.706811E-16
5.442065E+03	5.133084E-14	3.671539E-16
5.452051E+03	5.090000E-14	3.643873E-16
5.462036E+03	5.060756E-14	3.627248E-16
5.472022E+03	5.047818E-14	3.623375E-16
5.482007E+03	5.051312E-14	3.632318E-16
5.491993E+03	5.070220E-14	3.653332E-16
5.501978E+03	5.102433E-14	3.684902E-16
5.511964E+03	5.145395E-14	3.725186E-16
5.521949E+03	5.196162E-14	3.772054E-16
5.531934E+03	5.252147E-14	3.823618E-16
5.541920E+03	5.310861E-14	3.878045E-16
5.551905E+03	5.370136E-14	3.933717E-16
5.561891E+03	5.427784E-14	3.988979E-16
5.571876E+03	5.481927E-14	4.042385E-16
5.581862E+03	5.530818E-14	4.092564E-16
5.591847E+03	5.573022E-14	4.138359E-16
5.601833E+03	5.607182E-14	4.178653E-16
5.611818E+03	5.632327E-14	4.212601E-16
5.621803E+03	5.647762E-14	4.239558E-16
5.631789E+03	5.653072E-14	4.259078E-16
5.641774E+03	5.648262E-14	4.271036E-16
5.651760E+03	5.633588E-14	4.275493E-16
5.661745E+03	5.609780E-14	4.272883E-16
5.671731E+03	5.577918E-14	4.263915E-16
5.681716E+03	5.539317E-14	4.249497E-16
5.691701E+03	5.495537E-14	4.230743E-16
5.701687E+03	5.448311E-14	4.208925E-16
5.711672E+03	5.399586E-14	4.185500E-16
5.721658E+03	5.351076E-14	4.161773E-16
5.731643E+03	5.304606E-14	4.139153E-16
5.741629E+03	5.261683E-14	4.118825E-16
5.751614E+03	5.223498E-14	4.101742E-16
5.761600E+03	5.191043E-14	4.088712E-16
5.771585E+03	5.164960E-14	4.080281E-16
5.781570E+03	5.145461E-14	4.076659E-16
5.791556E+03	5.132522E-14	4.077870E-16
5.801541E+03	5.125977E-14	4.083828E-16
5.811527E+03	5.125248E-14	4.094113E-16
5.821512E+03	5.129809E-14	4.108347E-16
5.831498E+03	5.139017E-14	4.126048E-16
5.841483E+03	5.152185E-14	4.146700E-16
5.851469E+03	5.168647E-14	4.169798E-16
5.861454E+03	5.187513E-14	4.194651E-16
5.871439E+03	5.208041E-14	4.220684E-16
5.881425E+03	5.229195E-14	4.247081E-16
5.891410E+03	5.249810E-14	4.272913E-16
5.901396E+03	5.268490E-14	4.297061E-16
5.911381E+03	5.283557E-14	4.318166E-16
5.921367E+03	5.293042E-14	4.334624E-16
5.931352E+03	5.294432E-14	4.344375E-16
5.941338E+03	5.284952E-14	4.345130E-16
5.951323E+03	5.261549E-14	4.334356E-16
5.961308E+03	5.220960E-14	4.309327E-16
5.971294E+03	5.159922E-14	4.267300E-16
5.981279E+03	5.075843E-14	4.206063E-16
5.991265E+03	4.966625E-14	4.123799E-16
6.001250E+03	4.831684E-14	4.019929E-16
6.011236E+03	4.671571E-14	3.894807E-16
6.021221E+03	4.488698E-14	3.750339E-16
6.031207E+03	4.287312E-14	3.589972E-16
6.041192E+03	4.073180E-14	3.418446E-16
6.051177E+03	3.853241E-14	3.241519E-16
6.061163E+03	3.634937E-14	3.065416E-16
6.071148E+03	3.425934E-14	2.896607E-16
6.081134E+03	3.233039E-14	2.740894E-16
6.091119E+03	3.062181E-14	2.603398E-16
6.101105E+03	2.917947E-14	2.488158E-16
6.111090E+03	2.803658E-14	2.398191E-16
6.121075E+03	2.721389E-14	2.335497E-16
6.131061E+03	2.672113E-14	2.301179E-16
6.141046E+03	2.655897E-14	2.295592E-16
6.151032E+03	2.672048E-14	2.318468E-16
6.161017E+03	2.719034E-14	2.368834E-16
6.171003E+03	2.794352E-14	2.444881E-16
6.180988E+03	2.894781E-14	2.544172E-16
6.190974E+03	3.016160E-14	2.663422E-16
6.200959E+03	3.153368E-14	2.798461E-16
6.210944E+03	3.300468E-14	2.944327E-16
6.220930E+03	3.451181E-14	3.095641E-16
6.230915E+03	3.599165E-14	3.246818E-16
6.240901E+03	3.738283E-14	3.392318E-16
6.250886E+03	3.863297E-14	3.527275E-16
6.260872E+03	3.970002E-14	3.647633E-16
6.270857E+03	4.055437E-14	3.750365E-16
6.280843E+03	4.117868E-14	3.833484E-16
6.290828E+03	4.156826E-14	3.896119E-16
6.300813E+03	4.173036E-14	3.938487E-16
6.310799E+03	4.168186E-14	3.961714E-16
6.320784E+03	4.144653E-14	3.967609E-16
6.330770E+03	4.105565E-14	3.958754E-16
6.340755E+03	4.054499E-14	3.938242E-16
6.350741E+03	3.995167E-14	3.909392E-16
6.360726E+03	3.931545E-14	3.875884E-16
6.370712E+03	3.867382E-14	3.841291E-16
6.380697E+03	3.806018E-14	3.808884E-16
6.390682E+03	3.750092E-14	3.781338E-16
6.400668E+03	3.701204E-14	3.760354E-16
6.410653E+03	3.659271E-14	3.745963E-16
6.420639E+03	3.623595E-14	3.737568E-16
6.430624E+03	3.593055E-14	3.734111E-16
6.440610E+03	3.566447E-14	3.734415E-16
6.450595E+03	3.542689E-14	3.737401E-16
6.460580E+03	3.520815E-14	3.742078E-16
6.470566E+03	3.500103E-14	3.747686E-16
6.480551E+03	3.479849E-14	3.753468E-16
6.490537E+03	3.459721E-14	3.759046E-16
6.500522E+03	3.439410E-14	3.764061E-16
6.510508E+03	3.418654E-14	3.768194E-16
6.520493E+03	3.397368E-14	3.771318E-16
6.530479E+03	3.375470E-14	3.773309E-16
6.540464E+03	3.352926E-14	3.774092E-16
6.550449E+03	3.329730E-14	3.773628E-16
6.560435E+03	3.305965E-14	3.771979E-16
6.570420E+03	3.281626E-14	3.769110E-16
6.580406E+03	3.256776E-14	3.765066E-16
6.590391E+03	3.231542E-14	3.759970E-16
6.600377E+03	3.206005E-14	3.753896E-16
6.610362E+03	3.180187E-14	3.746850E-16
6.620348E+03	3.154208E-14	3.738962E-16
6.630333E+03	3.128081E-14	3.730231E-16
6.640318E+03	3.101958E-14	3.720831E-16
6.650304E+03	3.075773E-14	3.710676E-16
6.660289E+03	3.049562E-14	3.699801E-16
6.670275E+03	3.023408E-14	3.688303E-16
6.680260E+03	2.997341E-14	3.676215E-16
6.690246E+03	2.971343E-14	3.663515E-16
6.700231E+03	2.945451E-14	3.650246E-16
6.710217E+03	2.919756E-14	3.636523E-16
6.720202E+03	2.894250E-14	3.622338E-16
6.730187E+03	2.869025E-14	3.607811E-16
6.740173E+03	2.844022E-14	3.592873E-16
6.750158E+03	2.819385E-14	3.577710E-16
6.760144E+03	2.795049E-14	3.562250E-16
6.770129E+03	2.771155E-14	3.546679E-16
6.780115E+03	2.747641E-14	3.530926E-16
6.790100E+03	2.724599E-14	3.515120E-16
6.800085E+03	2.702072E-14	3.499326E-16
6.810071E+03	2.680054E-14	3.483549E-16
6.820056E+03	2.658643E-14	3.467926E-16
6.830042E+03	2.637831E-14	3.452462E-16
6.840027E+03	2.617709E-14	3.437286E-16
6.850013E+03	2.598213E-14	3.422329E-16
6.859998E+03	2.579468E-14	3.407766E-16
6.869984E+03	2.561442E-14	3.393570E-16
6.879969E+03	2.544142E-14	3.379763E-16
6.889954E+03	2.527523E-14	3.366296E-16
6.899940E+03	2.511675E-14	3.353302E-16
6.909925E+03	2.496446E-14	3.340589E-16
6.919911E+03	2.481967E-14	3.328344E-16
6.929896E+03	2.468131E-14	3.316432E-16
6.939882E+03	2.454929E-14	3.304852E-16
6.949867E+03	2.442396E-14	3.293661E-16
6.959853E+03	2.430474E-14	3.282789E-16
6.969838E+03	2.419154E-14	3.272231E-16
6.979823E+03	2.408418E-14	3.261971E-16
6.989809E+03	2.398246E-14	3.251989E-16
6.999794E+03	2.388606E-14	3.242249E-16
7.009780E+03	2.379408E-14	3.232635E-16
7.019765E+03	2.370688E-14	3.223200E-16
7.029751E+03	2.362234E-14	3.213662E-16
7.039736E+03	2.354096E-14	3.204094E-16
7.049722E+03	2.346030E-14	3.194167E-16
7.059707E+03	2.338011E-14	3.183854E-16
7.069692E+03	2.329865E-14	3.172921E-16
7.079678E+03	2.321458E-14	3.161190E-16
7.089663E+03	2.312703E-14	3.148548E-16
7.099649E+03	2.303381E-14	3.134702E-16
7.109634E+03	2.293424E-14	3.119569E-16
7.119620E+03	2.282698E-14	3.102972E-16
7.129605E+03	2.271185E-14	3.084899E-16
7.139590E+03	2.258850E-14	3.065311E-16
7.149576E+03	2.245645E-14	3.044155E-16
7.159561E+03	2.231646E-14	3.021547E-16
7.169547E+03	2.216817E-14	2.997452E-16
7.179532E+03	2.201330E-14	2.972118E-16
7.189518E+03	2.185240E-14	2.945634E-16
7.199503E+03	2.168611E-14	2.918102E-16
7.209489E+03	2.151598E-14	2.889748E-16
7.219474E+03	2.134310E-14	2.860731E-16
7.229459E+03	2.116799E-14	2.831135E-16
7.239445E+03	2.099145E-14	2.801086E-16
7.249430E+03	2.081414E-14	2.770684E-16
7.259416E+03	2.063652E-14	2.740004E-16
7.269401E+03	2.045882E-14	2.709092E-16
7.279387E+03	2.028031E-14	2.677866E-16
7.289372E+03	2.010176E-14	2.646441E-16
7.299358E+03	1.992254E-14	2.614751E-16
7.309343E+03	1.974194E-14	2.582715E-16
7.319328E+03	1.955997E-14	2.550354E-16
7.329314E+03	1.937540E-14	2.517523E-16
7.339299E+03	1.918776E-14	2.484181E-16
7.349285E+03	1.899664E-14	2.450295E-16
7.359270E+03	1.880128E-14	2.415787E-16
7.369256E+03	1.860188E-14	2.380706E-16
7.379241E+03	1.839733E-14	2.344932E-16
7.389227E+03	1.818880E-14	2.308638E-16
7.399212E+03	1.797634E-14	2.271854E-16
7.409197E+03	1.776163E-14	2.234814E-16
7.419183E+03	1.754609E-14	2.197718E-16
7.429168E+03	1.733196E-14	2.160862E-16
7.439154E+03	1.712222E-14	2.124632E-16
7.449139E+03	1.691931E-14	2.089338E-16
7.459125E+03	1.672720E-14	2.055470E-16
7.469110E+03	1.654783E-14	2.023264E-16
7.479095E+03	1.638425E-14	1.993084E-16
7.489081E+03	1.623796E-14	1.965097E-16
7.499066E+03	1.611130E-14	1.939567E-16
7.509052E+03	1.600451E-14	1.916503E-16
7.519037E+03	1.591761E-14	1.895883E-16
7.529023E+03	1.585047E-14	1.877669E-16
7.539008E+03	1.580215E-14	1.861729E-16
7.548994E+03	1.577216E-14	1.847983E-16
7.558979E+03	1.575842E-14	1.836170E-16
7.568964E+03	1.575986E-14	1.826152E-16
7.578950E+03	1.577549E-14	1.817802E-16
7.588935E+03	1.580377E-14	1.810937E-16
7.598921E+03	1.584409E-14	1.805480E-16
7.608906E+03	1.589537E-14	1.801308E-16
7.618892E+03	1.595792E-14	1.798457E-16
7.628877E+03	1.603082E-14	1.796825E-16
7.638863E+03	1.611481E-14	1.796499E-16
7.648848E+03	1.620927E-14	1.797418E-16
7.658833E+03	1.631501E-14	1.799681E-16
7.668819E+03	1.643127E-14	1.803212E-16
7.678804E+03	1.655849E-14	1.808074E-16
7.688790E+03	1.669552E-14	1.814156E-16
7.698775E+03	1.684108E-14	1.821342E-16
7.708761E+03	1.699329E-14	1.829453E-16
7.718746E+03	1.714956E-14	1.838240E-16
7.728732E+03	1.730669E-14	1.847398E-16
7.738717E+03	1.746053E-14	1.856529E-16
7.748702E+03	1.760772E-14	1.865325E-16
