#wls	flux	fluxerr
1.597671E+03	1.116482E-14	2.781980E-16
1.637612E+03	9.806835E-15	2.412513E-16
1.677554E+03	8.454183E-15	2.052833E-16
1.717496E+03	7.143281E-15	1.711697E-16
1.757438E+03	5.903592E-15	1.395735E-16
1.797379E+03	4.761244E-15	1.110400E-16
1.837321E+03	3.735212E-15	8.591462E-17
1.877263E+03	2.842346E-15	6.446869E-17
1.917205E+03	2.092733E-15	4.679941E-17
1.957146E+03	1.489400E-15	3.283491E-17
1.997088E+03	1.028265E-15	2.234500E-17
2.037030E+03	6.963783E-16	1.491542E-17
2.076972E+03	4.731931E-16	9.988943E-18
2.116914E+03	3.335164E-16	6.938714E-18
2.156855E+03	2.525287E-16	5.177947E-18
2.196797E+03	2.114444E-16	4.273156E-18
2.236739E+03	1.993777E-16	3.971670E-18
2.276681E+03	2.132424E-16	4.187657E-18
2.316622E+03	2.562961E-16	4.962693E-18
2.356564E+03	3.393027E-16	6.479429E-18
2.396506E+03	4.840578E-16	9.118529E-18
2.436448E+03	7.279946E-16	1.353138E-17
2.476389E+03	1.129321E-15	2.071674E-17
2.516331E+03	1.770778E-15	3.206652E-17
2.556273E+03	2.758247E-15	4.931610E-17
2.596215E+03	4.215526E-15	7.443006E-17
2.636156E+03	6.273485E-15	1.093980E-16
2.676098E+03	9.020073E-15	1.553699E-16
2.716040E+03	1.244582E-14	2.117769E-16
2.755982E+03	1.644672E-14	2.764811E-16
2.795924E+03	2.085098E-14	3.463119E-16
2.835865E+03	2.544703E-14	4.175879E-16
2.875807E+03	3.000397E-14	4.864833E-16
2.915749E+03	3.428142E-14	5.491975E-16
2.955691E+03	3.803672E-14	6.020751E-16
2.995632E+03	4.104728E-14	6.419541E-16
3.005618E+03	4.166214E-14	6.496104E-16
3.015603E+03	4.221695E-14	6.562805E-16
3.025589E+03	4.271197E-14	6.619771E-16
3.035574E+03	4.314512E-14	6.666768E-16
3.045560E+03	4.352061E-14	6.704528E-16
3.055545E+03	4.384220E-14	6.733714E-16
3.065530E+03	4.411016E-14	6.754439E-16
3.075516E+03	4.432257E-14	6.766485E-16
3.085501E+03	4.448273E-14	6.770428E-16
3.095487E+03	4.458991E-14	6.766227E-16
3.105472E+03	4.464757E-14	6.754479E-16
3.115458E+03	4.465792E-14	6.735581E-16
3.125443E+03	4.462270E-14	6.709861E-16
3.135429E+03	4.454678E-14	6.678106E-16
3.145414E+03	4.443273E-14	6.640756E-16
3.155399E+03	4.428512E-14	6.598545E-16
3.165385E+03	4.410794E-14	6.552104E-16
3.175370E+03	4.390534E-14	6.502089E-16
3.185356E+03	4.368226E-14	6.449263E-16
3.195341E+03	4.344293E-14	6.394275E-16
3.205327E+03	4.319084E-14	6.337655E-16
3.215312E+03	4.293161E-14	6.280246E-16
3.225298E+03	4.266844E-14	6.222518E-16
3.235283E+03	4.240598E-14	6.165154E-16
3.245268E+03	4.214784E-14	6.108676E-16
3.255254E+03	4.189686E-14	6.053485E-16
3.265239E+03	4.165766E-14	6.000239E-16
3.275225E+03	4.143204E-14	5.949178E-16
3.285210E+03	4.122420E-14	5.900885E-16
3.295196E+03	4.103691E-14	5.855732E-16
3.305181E+03	4.087146E-14	5.813874E-16
3.315166E+03	4.073161E-14	5.775816E-16
3.325152E+03	4.061966E-14	5.741846E-16
3.335137E+03	4.053730E-14	5.712170E-16
3.345123E+03	4.048674E-14	5.687055E-16
3.355108E+03	4.047014E-14	5.666764E-16
3.365094E+03	4.048963E-14	5.651549E-16
3.375079E+03	4.054727E-14	5.641651E-16
3.385065E+03	4.064515E-14	5.637308E-16
3.395050E+03	4.078476E-14	5.638675E-16
3.405035E+03	4.096754E-14	5.645898E-16
3.415021E+03	4.119642E-14	5.659321E-16
3.425006E+03	4.147162E-14	5.678918E-16
3.434992E+03	4.179516E-14	5.704905E-16
3.444977E+03	4.216792E-14	5.737341E-16
3.454963E+03	4.259073E-14	5.776276E-16
3.464948E+03	4.306283E-14	5.821544E-16
3.474934E+03	4.358213E-14	5.872804E-16
3.484919E+03	4.414142E-14	5.929027E-16
3.494904E+03	4.473007E-14	5.988740E-16
3.504890E+03	4.533747E-14	6.050483E-16
3.514875E+03	4.595059E-14	6.112498E-16
3.524861E+03	4.655838E-14	6.173307E-16
3.534846E+03	4.714861E-14	6.231295E-16
3.544832E+03	4.771029E-14	6.285035E-16
3.554817E+03	4.823352E-14	6.333259E-16
3.564803E+03	4.870891E-14	6.374785E-16
3.574788E+03	4.913085E-14	6.408935E-16
3.584773E+03	4.949451E-14	6.435147E-16
3.594759E+03	4.979725E-14	6.453150E-16
3.604744E+03	5.004048E-14	6.463199E-16
3.614730E+03	5.022615E-14	6.465618E-16
3.624715E+03	5.035956E-14	6.461156E-16
3.634701E+03	5.044836E-14	6.450856E-16
3.644686E+03	5.050226E-14	6.436007E-16
3.654671E+03	5.053268E-14	6.418102E-16
3.664657E+03	5.055249E-14	6.398797E-16
3.674642E+03	5.057599E-14	6.379907E-16
3.684628E+03	5.061825E-14	6.363317E-16
3.694613E+03	5.069405E-14	6.350852E-16
3.704599E+03	5.082005E-14	6.344547E-16
3.714584E+03	5.101024E-14	6.346072E-16
3.724570E+03	5.127985E-14	6.357229E-16
3.734555E+03	5.164219E-14	6.379557E-16
3.744540E+03	5.211000E-14	6.414498E-16
3.754526E+03	5.269537E-14	6.463393E-16
3.764511E+03	5.340670E-14	6.527112E-16
3.774497E+03	5.425254E-14	6.606524E-16
3.784482E+03	5.523886E-14	6.702172E-16
3.794468E+03	5.636770E-14	6.814114E-16
3.804453E+03	5.764007E-14	6.942275E-16
3.814439E+03	5.905343E-14	7.086156E-16
3.824424E+03	6.060071E-14	7.244717E-16
3.834409E+03	6.227178E-14	7.416567E-16
3.844395E+03	6.405420E-14	7.600060E-16
3.854380E+03	6.592940E-14	7.792845E-16
3.864366E+03	6.787747E-14	7.992447E-16
3.874351E+03	6.987465E-14	8.195978E-16
3.884337E+03	7.189534E-14	8.400375E-16
3.894322E+03	7.391270E-14	8.602477E-16
3.904308E+03	7.589825E-14	8.798985E-16
3.914293E+03	7.782541E-14	8.986873E-16
3.924278E+03	7.966984E-14	9.163419E-16
3.934264E+03	8.140872E-14	9.326123E-16
3.944249E+03	8.302252E-14	9.472903E-16
3.954235E+03	8.449635E-14	9.602240E-16
3.964220E+03	8.581877E-14	9.713037E-16
3.974206E+03	8.698324E-14	9.804770E-16
3.984191E+03	8.798708E-14	9.877362E-16
3.994176E+03	8.883096E-14	9.931118E-16
4.004162E+03	8.951721E-14	9.966525E-16
4.014147E+03	9.005160E-14	9.984450E-16
4.024133E+03	9.044131E-14	9.985908E-16
4.034118E+03	9.069456E-14	9.972010E-16
4.044104E+03	9.081924E-14	9.943820E-16
4.054089E+03	9.082313E-14	9.902377E-16
4.064075E+03	9.071441E-14	9.848747E-16
4.074060E+03	9.050002E-14	9.783848E-16
4.084045E+03	9.018716E-14	9.708613E-16
4.094031E+03	8.978169E-14	9.623818E-16
4.104016E+03	8.928967E-14	9.530250E-16
4.114002E+03	8.871616E-14	9.428577E-16
4.123987E+03	8.806605E-14	9.319440E-16
4.133973E+03	8.734501E-14	9.203553E-16
4.143958E+03	8.655830E-14	9.081574E-16
4.153944E+03	8.571246E-14	8.954289E-16
4.163929E+03	8.481347E-14	8.822408E-16
4.173914E+03	8.387003E-14	8.686915E-16
4.183900E+03	8.289110E-14	8.548800E-16
4.193885E+03	8.188944E-14	8.409433E-16
4.203871E+03	8.087815E-14	8.270188E-16
4.213856E+03	7.987383E-14	8.132778E-16
4.223842E+03	7.889329E-14	7.998901E-16
4.233827E+03	7.795712E-14	7.870617E-16
4.243813E+03	7.708416E-14	7.749766E-16
4.253798E+03	7.629452E-14	7.638288E-16
4.263783E+03	7.560359E-14	7.537620E-16
4.273769E+03	7.502305E-14	7.448805E-16
4.283754E+03	7.456053E-14	7.372470E-16
4.293740E+03	7.421344E-14	7.308225E-16
4.303725E+03	7.397368E-14	7.255149E-16
4.313711E+03	7.382152E-14	7.211197E-16
4.323696E+03	7.373160E-14	7.173812E-16
4.333681E+03	7.367033E-14	7.139677E-16
4.343667E+03	7.360120E-14	7.105233E-16
4.353652E+03	7.349151E-14	7.067338E-16
4.363638E+03	7.332521E-14	7.024496E-16
4.373623E+03	7.312451E-14	6.978883E-16
4.383609E+03	7.292486E-14	6.933901E-16
4.393594E+03	7.276953E-14	6.893641E-16
4.403580E+03	7.270188E-14	6.862144E-16
4.413565E+03	7.276429E-14	6.843300E-16
4.423550E+03	7.299716E-14	6.840759E-16
4.433536E+03	7.343904E-14	6.857943E-16
4.443521E+03	7.412457E-14	6.897851E-16
4.453507E+03	7.508562E-14	6.963188E-16
4.463492E+03	7.634566E-14	7.055845E-16
4.473478E+03	7.790799E-14	7.175832E-16
4.483463E+03	7.972010E-14	7.318038E-16
4.493449E+03	8.169283E-14	7.474065E-16
4.503434E+03	8.372456E-14	7.634491E-16
4.513419E+03	8.571429E-14	7.790072E-16
4.523405E+03	8.756555E-14	7.932097E-16
4.533390E+03	8.919534E-14	8.053179E-16
4.543376E+03	9.053576E-14	8.147390E-16
4.553361E+03	9.153366E-14	8.210196E-16
4.563347E+03	9.215433E-14	8.238775E-16
4.573332E+03	9.237644E-14	8.231534E-16
4.583318E+03	9.219511E-14	8.188366E-16
4.593303E+03	9.161893E-14	8.110359E-16
4.603288E+03	9.067269E-14	8.000022E-16
4.613274E+03	8.939242E-14	7.860829E-16
4.623259E+03	8.782387E-14	7.697061E-16
4.633245E+03	8.602190E-14	7.513746E-16
4.643230E+03	8.404521E-14	7.316186E-16
4.653216E+03	8.195159E-14	7.109538E-16
4.663201E+03	7.979467E-14	6.898533E-16
4.673186E+03	7.762504E-14	6.687581E-16
4.683172E+03	7.548419E-14	6.480251E-16
4.693157E+03	7.340420E-14	6.279261E-16
4.703143E+03	7.141053E-14	6.086724E-16
4.713128E+03	6.952145E-14	5.904115E-16
4.723114E+03	6.774706E-14	5.732195E-16
4.733099E+03	6.609419E-14	5.571435E-16
4.743085E+03	6.456407E-14	5.421828E-16
4.753070E+03	6.315593E-14	5.283198E-16
4.763055E+03	6.186609E-14	5.155125E-16
4.773041E+03	6.068869E-14	5.037015E-16
4.783026E+03	5.961852E-14	4.928328E-16
4.793012E+03	5.864936E-14	4.828455E-16
4.802997E+03	5.777686E-14	4.736939E-16
4.812983E+03	5.699667E-14	4.653334E-16
4.822968E+03	5.630581E-14	4.577307E-16
4.832954E+03	5.570126E-14	4.508526E-16
4.842939E+03	5.518001E-14	4.446661E-16
4.852924E+03	5.473623E-14	4.391160E-16
4.862910E+03	5.436250E-14	4.341352E-16
4.872895E+03	5.404848E-14	4.296342E-16
4.882881E+03	5.378415E-14	4.255275E-16
4.892866E+03	5.355808E-14	4.217201E-16
4.902852E+03	5.336157E-14	4.181399E-16
4.912837E+03	5.318949E-14	4.147438E-16
4.922823E+03	5.304330E-14	4.115411E-16
4.932808E+03	5.293025E-14	4.085852E-16
4.942793E+03	5.286446E-14	4.059811E-16
4.952779E+03	5.286608E-14	4.038778E-16
4.962764E+03	5.295810E-14	4.024425E-16
4.972750E+03	5.316520E-14	4.018514E-16
4.982735E+03	5.351060E-14	4.022655E-16
4.992721E+03	5.401494E-14	4.038226E-16
5.002706E+03	5.469281E-14	4.066118E-16
5.012691E+03	5.555149E-14	4.106658E-16
5.022677E+03	5.659044E-14	4.159582E-16
5.032662E+03	5.780018E-14	4.223974E-16
5.042648E+03	5.916122E-14	4.298204E-16
5.052633E+03	6.064545E-14	4.380056E-16
5.062619E+03	6.221481E-14	4.466646E-16
5.072604E+03	6.382183E-14	4.554487E-16
5.082590E+03	6.541423E-14	4.639834E-16
5.092575E+03	6.693512E-14	4.718712E-16
5.102560E+03	6.832601E-14	4.787134E-16
5.112546E+03	6.953168E-14	4.841446E-16
5.122531E+03	7.050211E-14	4.878452E-16
5.132517E+03	7.119517E-14	4.895590E-16
5.142502E+03	7.157787E-14	4.890993E-16
5.152488E+03	7.162998E-14	4.863721E-16
5.162473E+03	7.134161E-14	4.813564E-16
5.172459E+03	7.071815E-14	4.741349E-16
5.182444E+03	6.977767E-14	4.648736E-16
5.192429E+03	6.855256E-14	4.538297E-16
5.202415E+03	6.708863E-14	4.413425E-16
5.212400E+03	6.544288E-14	4.278159E-16
5.222386E+03	6.367985E-14	4.136931E-16
5.232371E+03	6.187116E-14	3.994515E-16
5.242357E+03	6.008654E-14	3.855443E-16
5.252342E+03	5.839128E-14	3.723852E-16
5.262328E+03	5.684169E-14	3.603207E-16
5.272313E+03	5.548369E-14	3.496232E-16
5.282298E+03	5.435105E-14	3.404828E-16
5.292284E+03	5.346471E-14	3.330053E-16
5.302269E+03	5.283277E-14	3.272151E-16
5.312255E+03	5.245003E-14	3.230547E-16
5.322240E+03	5.230040E-14	3.204019E-16
5.332226E+03	5.235417E-14	3.190552E-16
5.342211E+03	5.257246E-14	3.187625E-16
5.352196E+03	5.290879E-14	3.192320E-16
5.362182E+03	5.330831E-14	3.201278E-16
5.372167E+03	5.371494E-14	3.211140E-16
5.382153E+03	5.407124E-14	3.218525E-16
5.392138E+03	5.432593E-14	3.220453E-16
5.402124E+03	5.443790E-14	3.214573E-16
5.412109E+03	5.438902E-14	3.199911E-16
5.422095E+03	5.420287E-14	3.177925E-16
5.432080E+03	5.394229E-14	3.152332E-16
5.442065E+03	5.368286E-14	3.127533E-16
5.452051E+03	5.349564E-14	3.107612E-16
5.462036E+03	5.343395E-14	3.095582E-16
5.472022E+03	5.353177E-14	3.093308E-16
5.482007E+03	5.380552E-14	3.101635E-16
5.491993E+03	5.425371E-14	3.120376E-16
5.501978E+03	5.486122E-14	3.148571E-16
5.511964E+03	5.560151E-14	3.184621E-16
5.521949E+03	5.643700E-14	3.226309E-16
5.531934E+03	5.732448E-14	3.271122E-16
5.541920E+03	5.821463E-14	3.316214E-16
5.551905E+03	5.906155E-14	3.358954E-16
5.561891E+03	5.982187E-14	3.396868E-16
5.571876E+03	6.045978E-14	3.427925E-16
5.581862E+03	6.094906E-14	3.450647E-16
5.591847E+03	6.127390E-14	3.464150E-16
5.601833E+03	6.142773E-14	3.468074E-16
5.611818E+03	6.141498E-14	3.462681E-16
5.621803E+03	6.124543E-14	3.448533E-16
5.631789E+03	6.093744E-14	3.426671E-16
5.641774E+03	6.051113E-14	3.398231E-16
5.651760E+03	5.999204E-14	3.364651E-16
5.661745E+03	5.940591E-14	3.327372E-16
5.671731E+03	5.877825E-14	3.287818E-16
5.681716E+03	5.813508E-14	3.247437E-16
5.691701E+03	5.750068E-14	3.207577E-16
5.701687E+03	5.689808E-14	3.169506E-16
5.711672E+03	5.634713E-14	3.134313E-16
5.721658E+03	5.586428E-14	3.102895E-16
5.731643E+03	5.546413E-14	3.076039E-16
5.741629E+03	5.515614E-14	3.054247E-16
5.751614E+03	5.494486E-14	3.037746E-16
5.761600E+03	5.483140E-14	3.026571E-16
5.771585E+03	5.481237E-14	3.020512E-16
5.781570E+03	5.487963E-14	3.019095E-16
5.791556E+03	5.502093E-14	3.021632E-16
5.801541E+03	5.522271E-14	3.027361E-16
5.811527E+03	5.547012E-14	3.035460E-16
5.821512E+03	5.574772E-14	3.045084E-16
5.831498E+03	5.604060E-14	3.055420E-16
5.841483E+03	5.633680E-14	3.065829E-16
5.851469E+03	5.662575E-14	3.075751E-16
5.861454E+03	5.689934E-14	3.084769E-16
5.871439E+03	5.715018E-14	3.092508E-16
5.881425E+03	5.737085E-14	3.098599E-16
5.891410E+03	5.755483E-14	3.102728E-16
5.901396E+03	5.769299E-14	3.104442E-16
5.911381E+03	5.777626E-14	3.103299E-16
5.921367E+03	5.778794E-14	3.098455E-16
5.931352E+03	5.770902E-14	3.088947E-16
5.941338E+03	5.751462E-14	3.073506E-16
5.951323E+03	5.717252E-14	3.050482E-16
5.961308E+03	5.664610E-14	3.017996E-16
5.971294E+03	5.589663E-14	2.974062E-16
5.981279E+03	5.488498E-14	2.916680E-16
5.991265E+03	5.357939E-14	2.844238E-16
6.001250E+03	5.195841E-14	2.755662E-16
6.011236E+03	5.002136E-14	2.650965E-16
6.021221E+03	4.778869E-14	2.531255E-16
6.031207E+03	4.530913E-14	2.399112E-16
6.041192E+03	4.265308E-14	2.258234E-16
6.051177E+03	3.991192E-14	2.113402E-16
6.061163E+03	3.718476E-14	1.969795E-16
6.071148E+03	3.457033E-14	1.832565E-16
6.081134E+03	3.215640E-14	1.706296E-16
6.091119E+03	3.001586E-14	1.594806E-16
6.101105E+03	2.820104E-14	1.500856E-16
6.111090E+03	2.674863E-14	1.426415E-16
6.121075E+03	2.567914E-14	1.372639E-16
6.131061E+03	2.500312E-14	1.340199E-16
6.141046E+03	2.472234E-14	1.329343E-16
6.151032E+03	2.483130E-14	1.339984E-16
6.161017E+03	2.531568E-14	1.371597E-16
6.171003E+03	2.615320E-14	1.423272E-16
6.180988E+03	2.731067E-14	1.493533E-16
6.190974E+03	2.874266E-14	1.580246E-16
6.200959E+03	3.039004E-14	1.680493E-16
6.210944E+03	3.218210E-14	1.790650E-16
6.220930E+03	3.403985E-14	1.906550E-16
6.230915E+03	3.587997E-14	2.023675E-16
6.240901E+03	3.762240E-14	2.137552E-16
6.250886E+03	3.919639E-14	2.244095E-16
6.260872E+03	4.054495E-14	2.339860E-16
6.270857E+03	4.162858E-14	2.422288E-16
6.280843E+03	4.242518E-14	2.489727E-16
6.290828E+03	4.292985E-14	2.541466E-16
6.300813E+03	4.315374E-14	2.577706E-16
6.310799E+03	4.311978E-14	2.599354E-16
6.320784E+03	4.286226E-14	2.608029E-16
6.330770E+03	4.242112E-14	2.605755E-16
6.340755E+03	4.184231E-14	2.595007E-16
6.350741E+03	4.117364E-14	2.578474E-16
6.360726E+03	4.046389E-14	2.559016E-16
6.370712E+03	3.975898E-14	2.539431E-16
6.380697E+03	3.910153E-14	2.522421E-16
6.390682E+03	3.852689E-14	2.510329E-16
6.400668E+03	3.805350E-14	2.504483E-16
6.410653E+03	3.767456E-14	2.504589E-16
6.420639E+03	3.737567E-14	2.509832E-16
6.430624E+03	3.714034E-14	2.519221E-16
6.440610E+03	3.695215E-14	2.531730E-16
6.450595E+03	3.679643E-14	2.546410E-16
6.460580E+03	3.666027E-14	2.562402E-16
6.470566E+03	3.653216E-14	2.578908E-16
6.480551E+03	3.640207E-14	2.595204E-16
6.490537E+03	3.626348E-14	2.610796E-16
6.500522E+03	3.611057E-14	2.625220E-16
6.510508E+03	3.593853E-14	2.638071E-16
6.520493E+03	3.574510E-14	2.649123E-16
6.530479E+03	3.552870E-14	2.658193E-16
6.540464E+03	3.528839E-14	2.665143E-16
6.550449E+03	3.502469E-14	2.669946E-16
6.560435E+03	3.474010E-14	2.672729E-16
6.570420E+03	3.443500E-14	2.673463E-16
6.580406E+03	3.411304E-14	2.672378E-16
6.590391E+03	3.377707E-14	2.669652E-16
6.600377E+03	3.342899E-14	2.665398E-16
6.610362E+03	3.307295E-14	2.659912E-16
6.620348E+03	3.271074E-14	2.653317E-16
6.630333E+03	3.234614E-14	2.645900E-16
6.640318E+03	3.198048E-14	2.637760E-16
6.650304E+03	3.161638E-14	2.629109E-16
6.660289E+03	3.125564E-14	2.620095E-16
6.670275E+03	3.089918E-14	2.610799E-16
6.680260E+03	3.054822E-14	2.601330E-16
6.690246E+03	3.020416E-14	2.591819E-16
6.700231E+03	2.986717E-14	2.582290E-16
6.710217E+03	2.953771E-14	2.572796E-16
6.720202E+03	2.921600E-14	2.563372E-16
6.730187E+03	2.890209E-14	2.554035E-16
6.740173E+03	2.859580E-14	2.544784E-16
6.750158E+03	2.829680E-14	2.535606E-16
6.760144E+03	2.800411E-14	2.526425E-16
6.770129E+03	2.771761E-14	2.517245E-16
6.780115E+03	2.743666E-14	2.508019E-16
6.790100E+03	2.716009E-14	2.498651E-16
6.800085E+03	2.688776E-14	2.489139E-16
6.810071E+03	2.661863E-14	2.479396E-16
6.820056E+03	2.635231E-14	2.469394E-16
6.830042E+03	2.608854E-14	2.459114E-16
6.840027E+03	2.582723E-14	2.448558E-16
6.850013E+03	2.556895E-14	2.437787E-16
6.859998E+03	2.531303E-14	2.426745E-16
6.869984E+03	2.506037E-14	2.415527E-16
6.879969E+03	2.481150E-14	2.404195E-16
6.889954E+03	2.456659E-14	2.392776E-16
6.899940E+03	2.432682E-14	2.381393E-16
6.909925E+03	2.409283E-14	2.370125E-16
6.919911E+03	2.386484E-14	2.359004E-16
6.929896E+03	2.364342E-14	2.348102E-16
6.939882E+03	2.342950E-14	2.337526E-16
6.949867E+03	2.322302E-14	2.327284E-16
6.959853E+03	2.302422E-14	2.317415E-16
6.969838E+03	2.283323E-14	2.307948E-16
6.979823E+03	2.265007E-14	2.298899E-16
6.989809E+03	2.247419E-14	2.290228E-16
6.999794E+03	2.230626E-14	2.282014E-16
7.009780E+03	2.214507E-14	2.274151E-16
7.019765E+03	2.199062E-14	2.266648E-16
7.029751E+03	2.184193E-14	2.259417E-16
7.039736E+03	2.169834E-14	2.252401E-16
7.049722E+03	2.155953E-14	2.245576E-16
7.059707E+03	2.142420E-14	2.238816E-16
7.069692E+03	2.129101E-14	2.231987E-16
7.079678E+03	2.115981E-14	2.225082E-16
7.089663E+03	2.102917E-14	2.217955E-16
7.099649E+03	2.089767E-14	2.210462E-16
7.109634E+03	2.076475E-14	2.202547E-16
7.119620E+03	2.062909E-14	2.194074E-16
7.129605E+03	2.049026E-14	2.184998E-16
7.139590E+03	2.034702E-14	2.175191E-16
7.149576E+03	2.019903E-14	2.164618E-16
7.159561E+03	2.004470E-14	2.153109E-16
7.169547E+03	1.988373E-14	2.140633E-16
7.179532E+03	1.971578E-14	2.127157E-16
7.189518E+03	1.953936E-14	2.112518E-16
7.199503E+03	1.935381E-14	2.096647E-16
7.209489E+03	1.915894E-14	2.079525E-16
7.219474E+03	1.895429E-14	2.061102E-16
7.229459E+03	1.873912E-14	2.041300E-16
7.239445E+03	1.851367E-14	2.020147E-16
7.249430E+03	1.827761E-14	1.997607E-16
7.259416E+03	1.803118E-14	1.973712E-16
7.269401E+03	1.777526E-14	1.948559E-16
7.279387E+03	1.751014E-14	1.922185E-16
7.289372E+03	1.723703E-14	1.894728E-16
7.299358E+03	1.695659E-14	1.866264E-16
7.309343E+03	1.666993E-14	1.836924E-16
7.319328E+03	1.637904E-14	1.806932E-16
7.329314E+03	1.608449E-14	1.776358E-16
7.339299E+03	1.578835E-14	1.745441E-16
7.349285E+03	1.549165E-14	1.714300E-16
7.359270E+03	1.519611E-14	1.683136E-16
7.369256E+03	1.490342E-14	1.652145E-16
7.379241E+03	1.461462E-14	1.621451E-16
7.389227E+03	1.433177E-14	1.591291E-16
7.399212E+03	1.405627E-14	1.561832E-16
7.409197E+03	1.378992E-14	1.533283E-16
7.419183E+03	1.353425E-14	1.505823E-16
7.429168E+03	1.329085E-14	1.479638E-16
7.439154E+03	1.306162E-14	1.454948E-16
7.449139E+03	1.284751E-14	1.431870E-16
7.459125E+03	1.265001E-14	1.410577E-16
7.469110E+03	1.247013E-14	1.391191E-16
7.479095E+03	1.230925E-14	1.373874E-16
7.489081E+03	1.216786E-14	1.358691E-16
7.499066E+03	1.204617E-14	1.345669E-16
7.509052E+03	1.194431E-14	1.334834E-16
7.519037E+03	1.186216E-14	1.326177E-16
7.529023E+03	1.179900E-14	1.319626E-16
7.539008E+03	1.175450E-14	1.315151E-16
7.548994E+03	1.172736E-14	1.312612E-16
7.558979E+03	1.171731E-14	1.311988E-16
7.568964E+03	1.172326E-14	1.313161E-16
7.578950E+03	1.174445E-14	1.316054E-16
7.588935E+03	1.177994E-14	1.320567E-16
7.598921E+03	1.182953E-14	1.326686E-16
7.608906E+03	1.189292E-14	1.334383E-16
7.618892E+03	1.197003E-14	1.343659E-16
7.628877E+03	1.206071E-14	1.354502E-16
7.638863E+03	1.216561E-14	1.366996E-16
7.648848E+03	1.228495E-14	1.381173E-16
7.658833E+03	1.241994E-14	1.397179E-16
7.668819E+03	1.257028E-14	1.414992E-16
7.678804E+03	1.273742E-14	1.434786E-16
7.688790E+03	1.292132E-14	1.456569E-16
7.698775E+03	1.312154E-14	1.480306E-16
7.708761E+03	1.333782E-14	1.505980E-16
7.718746E+03	1.356898E-14	1.533473E-16
7.728732E+03	1.381317E-14	1.562594E-16
7.738717E+03	1.406785E-14	1.593072E-16
7.748702E+03	1.433016E-14	1.624598E-16
