#wls	flux	fluxerr
1.597671E+03	8.690562E-15	4.277161E-16
1.637612E+03	7.538155E-15	3.666983E-16
1.677554E+03	6.407699E-15	3.080391E-16
1.717496E+03	5.332478E-15	2.532913E-16
1.757438E+03	4.339009E-15	2.036112E-16
1.797379E+03	3.446331E-15	1.597442E-16
1.837321E+03	2.667922E-15	1.221353E-16
1.877263E+03	2.010248E-15	9.087993E-17
1.917205E+03	1.473888E-15	6.579451E-17
1.957146E+03	1.052932E-15	4.640857E-17
1.997088E+03	7.366327E-16	3.205497E-17
2.037030E+03	5.101501E-16	2.191661E-17
2.076972E+03	3.566174E-16	1.512529E-17
2.116914E+03	2.589158E-16	1.084157E-17
2.156855E+03	2.018817E-16	8.346076E-18
2.196797E+03	1.733780E-16	7.077231E-18
2.236739E+03	1.658766E-16	6.686280E-18
2.276681E+03	1.765929E-16	7.030125E-18
2.316622E+03	2.071384E-16	8.145297E-18
2.356564E+03	2.637593E-16	1.024653E-17
2.396506E+03	3.586384E-16	1.376620E-17
2.436448E+03	5.120221E-16	1.942189E-17
2.476389E+03	7.548850E-16	2.829906E-17
2.516331E+03	1.131352E-15	4.191845E-17
2.556273E+03	1.699108E-15	6.222391E-17
2.596215E+03	2.525444E-15	9.141120E-17
2.636156E+03	3.677834E-15	1.315707E-16
2.676098E+03	5.206277E-15	1.840617E-16
2.716040E+03	7.123598E-15	2.488582E-16
2.755982E+03	9.389318E-15	3.240658E-16
2.795924E+03	1.190419E-14	4.058444E-16
2.835865E+03	1.451946E-14	4.888412E-16
2.875807E+03	1.705533E-14	5.669124E-16
2.915749E+03	1.933225E-14	6.342220E-16
2.955691E+03	2.119790E-14	6.861247E-16
2.995632E+03	2.254982E-14	7.198422E-16
3.005618E+03	2.280069E-14	7.252874E-16
3.015603E+03	2.301621E-14	7.295454E-16
3.025589E+03	2.319693E-14	7.326445E-16
3.035574E+03	2.334352E-14	7.346178E-16
3.045560E+03	2.345798E-14	7.355387E-16
3.055545E+03	2.354420E-14	7.355394E-16
3.065530E+03	2.360117E-14	7.345977E-16
3.075516E+03	2.363049E-14	7.327728E-16
3.085501E+03	2.363279E-14	7.300936E-16
3.095487E+03	2.360943E-14	7.266106E-16
3.105472E+03	2.356143E-14	7.223638E-16
3.115458E+03	2.349052E-14	7.174146E-16
3.125443E+03	2.339799E-14	7.118096E-16
3.135429E+03	2.328529E-14	7.056008E-16
3.145414E+03	2.315449E-14	6.988578E-16
3.155399E+03	2.300775E-14	6.916512E-16
3.165385E+03	2.284674E-14	6.840375E-16
3.175370E+03	2.267323E-14	6.760742E-16
3.185356E+03	2.248948E-14	6.678332E-16
3.195341E+03	2.229773E-14	6.593848E-16
3.205327E+03	2.209978E-14	6.507847E-16
3.215312E+03	2.189742E-14	6.420878E-16
3.225298E+03	2.169243E-14	6.333484E-16
3.235283E+03	2.148739E-14	6.246423E-16
3.245268E+03	2.128399E-14	6.160187E-16
3.255254E+03	2.108389E-14	6.075253E-16
3.265239E+03	2.088875E-14	5.992083E-16
3.275225E+03	2.070054E-14	5.911225E-16
3.285210E+03	2.052049E-14	5.833003E-16
3.295196E+03	2.035118E-14	5.758119E-16
3.305181E+03	2.019345E-14	5.686769E-16
3.315166E+03	2.004882E-14	5.619336E-16
3.325152E+03	1.991947E-14	5.556375E-16
3.335137E+03	1.980659E-14	5.498159E-16
3.345123E+03	1.971173E-14	5.445051E-16
3.355108E+03	1.963647E-14	5.397413E-16
3.365094E+03	1.958245E-14	5.355613E-16
3.375079E+03	1.955137E-14	5.320023E-16
3.385065E+03	1.954470E-14	5.290952E-16
3.395050E+03	1.956487E-14	5.268946E-16
3.405035E+03	1.961302E-14	5.254197E-16
3.415021E+03	1.969125E-14	5.247145E-16
3.425006E+03	1.980206E-14	5.248321E-16
3.434992E+03	1.994733E-14	5.258078E-16
3.444977E+03	2.012916E-14	5.276807E-16
3.454963E+03	2.034962E-14	5.304891E-16
3.464948E+03	2.060755E-14	5.341848E-16
3.474934E+03	2.090110E-14	5.387030E-16
3.484919E+03	2.122844E-14	5.439800E-16
3.494904E+03	2.158570E-14	5.499015E-16
3.504890E+03	2.196774E-14	5.563223E-16
3.514875E+03	2.236961E-14	5.631058E-16
3.524861E+03	2.278449E-14	5.700709E-16
3.534846E+03	2.320507E-14	5.770287E-16
3.544832E+03	2.362315E-14	5.837728E-16
3.554817E+03	2.403181E-14	5.901329E-16
3.564803E+03	2.442365E-14	5.959318E-16
3.574788E+03	2.479140E-14	6.010000E-16
3.584773E+03	2.513005E-14	6.052271E-16
3.594759E+03	2.543475E-14	6.085099E-16
3.604744E+03	2.570131E-14	6.107646E-16
3.614730E+03	2.592797E-14	6.119670E-16
3.624715E+03	2.611380E-14	6.121141E-16
3.634701E+03	2.625955E-14	6.112427E-16
3.644686E+03	2.636779E-14	6.094318E-16
3.654671E+03	2.644305E-14	6.068035E-16
3.664657E+03	2.649073E-14	6.034974E-16
3.674642E+03	2.651951E-14	5.997231E-16
3.684628E+03	2.653784E-14	5.956803E-16
3.694613E+03	2.655635E-14	5.916113E-16
3.704599E+03	2.658634E-14	5.877657E-16
3.714584E+03	2.664048E-14	5.844160E-16
3.724570E+03	2.673147E-14	5.818265E-16
3.734555E+03	2.687170E-14	5.802456E-16
3.744540E+03	2.707382E-14	5.799193E-16
3.754526E+03	2.735096E-14	5.810938E-16
3.764511E+03	2.771455E-14	5.839708E-16
3.774497E+03	2.817738E-14	5.887717E-16
3.784482E+03	2.875067E-14	5.956760E-16
3.794468E+03	2.944326E-14	6.048060E-16
3.804453E+03	3.026244E-14	6.162459E-16
3.814439E+03	3.121419E-14	6.300476E-16
3.824424E+03	3.229554E-14	6.460791E-16
3.834409E+03	3.349892E-14	6.641192E-16
3.844395E+03	3.481470E-14	6.839114E-16
3.854380E+03	3.622567E-14	7.050582E-16
3.864366E+03	3.770951E-14	7.270757E-16
3.874351E+03	3.924113E-14	7.494436E-16
3.884337E+03	4.079279E-14	7.716099E-16
3.894322E+03	4.233497E-14	7.930093E-16
3.904308E+03	4.383607E-14	8.130604E-16
3.914293E+03	4.527167E-14	8.313369E-16
3.924278E+03	4.661846E-14	8.474515E-16
3.934264E+03	4.785677E-14	8.610997E-16
3.944249E+03	4.897940E-14	8.722145E-16
3.954235E+03	4.998404E-14	8.808209E-16
3.964220E+03	5.087318E-14	8.870294E-16
3.974206E+03	5.165544E-14	8.910552E-16
3.984191E+03	5.234320E-14	8.931716E-16
3.994176E+03	5.295086E-14	8.936771E-16
4.004162E+03	5.349399E-14	8.928791E-16
4.014147E+03	5.398819E-14	8.910746E-16
4.024133E+03	5.444878E-14	8.885442E-16
4.034118E+03	5.488554E-14	8.854682E-16
4.044104E+03	5.530604E-14	8.819844E-16
4.054089E+03	5.571582E-14	8.781937E-16
4.064075E+03	5.611663E-14	8.741337E-16
4.074060E+03	5.650748E-14	8.697989E-16
4.084045E+03	5.688696E-14	8.651785E-16
4.094031E+03	5.725185E-14	8.602358E-16
4.104016E+03	5.759840E-14	8.549290E-16
4.114002E+03	5.792156E-14	8.491998E-16
4.123987E+03	5.821352E-14	8.429544E-16
4.133973E+03	5.846367E-14	8.360645E-16
4.143958E+03	5.866004E-14	8.283902E-16
4.153944E+03	5.878576E-14	8.197321E-16
4.163929E+03	5.882329E-14	8.098933E-16
4.173914E+03	5.875420E-14	7.986768E-16
4.183900E+03	5.856247E-14	7.859301E-16
4.193885E+03	5.823394E-14	7.715356E-16
4.203871E+03	5.775938E-14	7.554488E-16
4.213856E+03	5.713617E-14	7.377151E-16
4.223842E+03	5.636856E-14	7.184676E-16
4.233827E+03	5.546542E-14	6.978925E-16
4.243813E+03	5.444175E-14	6.762449E-16
4.253798E+03	5.331737E-14	6.538265E-16
4.263783E+03	5.211686E-14	6.309825E-16
4.273769E+03	5.086547E-14	6.080488E-16
4.283754E+03	4.959152E-14	5.853803E-16
4.293740E+03	4.832485E-14	5.633318E-16
4.303725E+03	4.709161E-14	5.421969E-16
4.313711E+03	4.591900E-14	5.222663E-16
4.323696E+03	4.483486E-14	5.038229E-16
4.333681E+03	4.386005E-14	4.870579E-16
4.343667E+03	4.301753E-14	4.721761E-16
4.353652E+03	4.233476E-14	4.594220E-16
4.363638E+03	4.183628E-14	4.489981E-16
4.373623E+03	4.155934E-14	4.412336E-16
4.383609E+03	4.154663E-14	4.365037E-16
4.393594E+03	4.183094E-14	4.350681E-16
4.403580E+03	4.244370E-14	4.371671E-16
4.413565E+03	4.341049E-14	4.429782E-16
4.423550E+03	4.472830E-14	4.523911E-16
4.433536E+03	4.638233E-14	4.651896E-16
4.443521E+03	4.835173E-14	4.811140E-16
4.453507E+03	5.060295E-14	4.997969E-16
4.463492E+03	5.309001E-14	5.207663E-16
4.473478E+03	5.575696E-14	5.434628E-16
4.483463E+03	5.854472E-14	5.673123E-16
4.493449E+03	6.138863E-14	5.917015E-16
4.503434E+03	6.421916E-14	6.159833E-16
4.513419E+03	6.696544E-14	6.395077E-16
4.523405E+03	6.955788E-14	6.616440E-16
4.533390E+03	7.192735E-14	6.817697E-16
4.543376E+03	7.400528E-14	6.992694E-16
4.553361E+03	7.573081E-14	7.135992E-16
4.563347E+03	7.705128E-14	7.242898E-16
4.573332E+03	7.791938E-14	7.309175E-16
4.583318E+03	7.830320E-14	7.331970E-16
4.593303E+03	7.819021E-14	7.310184E-16
4.603288E+03	7.758084E-14	7.243859E-16
4.613274E+03	7.649713E-14	7.134991E-16
4.623259E+03	7.498269E-14	6.987531E-16
4.633245E+03	7.308938E-14	6.806154E-16
4.643230E+03	7.088317E-14	6.596822E-16
4.653216E+03	6.843991E-14	6.366396E-16
4.663201E+03	6.583777E-14	6.121951E-16
4.673186E+03	6.315298E-14	5.870389E-16
4.683172E+03	6.045967E-14	5.618428E-16
4.693157E+03	5.782288E-14	5.371965E-16
4.703143E+03	5.529771E-14	5.135992E-16
4.713128E+03	5.293015E-14	4.914672E-16
4.723114E+03	5.075246E-14	4.710911E-16
4.733099E+03	4.878753E-14	4.526758E-16
4.743085E+03	4.704775E-14	4.363297E-16
4.753070E+03	4.553042E-14	4.220215E-16
4.763055E+03	4.422639E-14	4.096605E-16
4.773041E+03	4.312610E-14	3.991527E-16
4.783026E+03	4.221867E-14	3.903912E-16
4.793012E+03	4.149402E-14	3.832764E-16
4.802997E+03	4.094457E-14	3.777315E-16
4.812983E+03	4.056532E-14	3.737030E-16
4.822968E+03	4.035236E-14	3.711460E-16
4.832954E+03	4.030094E-14	3.700073E-16
4.842939E+03	4.039880E-14	3.701637E-16
4.852924E+03	4.062741E-14	3.714343E-16
4.862910E+03	4.095862E-14	3.735502E-16
4.872895E+03	4.134545E-14	3.760733E-16
4.882881E+03	4.173110E-14	3.784800E-16
4.892866E+03	4.205809E-14	3.802467E-16
4.902852E+03	4.227483E-14	3.809100E-16
4.912837E+03	4.234186E-14	3.801232E-16
4.922823E+03	4.223799E-14	3.777106E-16
4.932808E+03	4.197344E-14	3.737813E-16
4.942793E+03	4.157921E-14	3.686297E-16
4.952779E+03	4.110084E-14	3.626757E-16
4.962764E+03	4.059815E-14	3.564588E-16
4.972750E+03	4.013574E-14	3.505504E-16
4.982735E+03	3.977559E-14	3.454873E-16
4.992721E+03	3.957047E-14	3.417140E-16
5.002706E+03	3.956820E-14	3.396206E-16
5.012691E+03	3.980267E-14	3.394660E-16
5.022677E+03	4.028730E-14	3.413262E-16
5.032662E+03	4.102341E-14	3.451696E-16
5.042648E+03	4.200423E-14	3.508945E-16
5.052633E+03	4.321256E-14	3.583122E-16
5.062619E+03	4.462413E-14	3.671783E-16
5.072604E+03	4.620933E-14	3.772098E-16
5.082590E+03	4.793643E-14	3.881135E-16
5.092575E+03	4.976940E-14	3.995699E-16
5.102560E+03	5.166896E-14	4.112441E-16
5.112546E+03	5.359420E-14	4.227997E-16
5.122531E+03	5.550163E-14	4.338931E-16
5.132517E+03	5.734456E-14	4.441703E-16
5.142502E+03	5.907295E-14	4.532668E-16
5.152488E+03	6.063495E-14	4.608211E-16
5.162473E+03	6.197709E-14	4.664771E-16
5.172459E+03	6.304571E-14	4.698949E-16
5.182444E+03	6.379303E-14	4.707956E-16
5.192429E+03	6.418665E-14	4.690278E-16
5.202415E+03	6.421436E-14	4.645962E-16
5.212400E+03	6.388514E-14	4.576601E-16
5.222386E+03	6.323154E-14	4.485427E-16
5.232371E+03	6.230882E-14	4.377147E-16
5.242357E+03	6.118552E-14	4.257219E-16
5.252342E+03	5.993530E-14	4.131244E-16
5.262328E+03	5.863075E-14	4.004525E-16
5.272313E+03	5.733820E-14	3.881747E-16
5.282298E+03	5.611085E-14	3.766532E-16
5.292284E+03	5.497816E-14	3.660799E-16
5.302269E+03	5.395745E-14	3.565605E-16
5.312255E+03	5.305707E-14	3.481389E-16
5.322240E+03	5.227365E-14	3.407826E-16
5.332226E+03	5.159939E-14	3.344328E-16
5.342211E+03	5.102446E-14	3.290202E-16
5.352196E+03	5.053685E-14	3.244644E-16
5.362182E+03	5.012708E-14	3.207042E-16
5.372167E+03	4.978309E-14	3.176638E-16
5.382153E+03	4.946999E-14	3.151201E-16
5.392138E+03	4.915473E-14	3.128481E-16
5.402124E+03	4.881599E-14	3.106935E-16
5.412109E+03	4.844745E-14	3.085959E-16
5.422095E+03	4.806129E-14	3.066114E-16
5.432080E+03	4.768358E-14	3.048846E-16
5.442065E+03	4.734251E-14	3.035756E-16
5.452051E+03	4.706416E-14	3.028335E-16
5.462036E+03	4.686669E-14	3.027601E-16
5.472022E+03	4.675994E-14	3.034071E-16
5.482007E+03	4.674532E-14	3.047743E-16
5.491993E+03	4.681699E-14	3.068157E-16
5.501978E+03	4.695736E-14	3.094089E-16
5.511964E+03	4.714000E-14	3.123714E-16
5.521949E+03	4.733356E-14	3.154851E-16
5.531934E+03	4.749973E-14	3.184803E-16
5.541920E+03	4.759792E-14	3.210667E-16
5.551905E+03	4.759382E-14	3.229899E-16
5.561891E+03	4.746967E-14	3.241033E-16
5.571876E+03	4.721597E-14	3.243147E-16
5.581862E+03	4.683120E-14	3.235864E-16
5.591847E+03	4.632563E-14	3.219634E-16
5.601833E+03	4.571435E-14	3.195276E-16
5.611818E+03	4.501474E-14	3.163807E-16
5.621803E+03	4.424854E-14	3.126600E-16
5.631789E+03	4.343761E-14	3.085080E-16
5.641774E+03	4.260575E-14	3.040861E-16
5.651760E+03	4.178092E-14	2.995900E-16
5.661745E+03	4.099186E-14	2.952258E-16
5.671731E+03	4.026615E-14	2.911953E-16
5.681716E+03	3.963540E-14	2.877335E-16
5.691701E+03	3.912979E-14	2.850677E-16
5.701687E+03	3.877441E-14	2.833907E-16
5.711672E+03	3.859165E-14	2.828766E-16
5.721658E+03	3.859815E-14	2.836572E-16
5.731643E+03	3.880365E-14	2.858129E-16
5.741629E+03	3.920783E-14	2.893482E-16
5.751614E+03	3.980312E-14	2.942111E-16
5.761600E+03	4.057092E-14	3.002655E-16
5.771585E+03	4.148250E-14	3.072974E-16
5.781570E+03	4.249671E-14	3.149975E-16
5.791556E+03	4.356751E-14	3.230189E-16
5.801541E+03	4.464044E-14	3.309509E-16
5.811527E+03	4.565788E-14	3.383602E-16
5.821512E+03	4.656768E-14	3.448553E-16
5.831498E+03	4.732924E-14	3.501338E-16
5.841483E+03	4.791465E-14	3.539903E-16
5.851469E+03	4.830715E-14	3.563062E-16
5.861454E+03	4.851012E-14	3.571150E-16
5.871439E+03	4.853555E-14	3.565161E-16
5.881425E+03	4.840372E-14	3.546722E-16
5.891410E+03	4.813614E-14	3.517556E-16
5.901396E+03	4.775767E-14	3.479633E-16
5.911381E+03	4.729105E-14	3.434767E-16
5.921367E+03	4.675597E-14	3.384542E-16
5.931352E+03	4.616779E-14	3.330218E-16
5.941338E+03	4.553632E-14	3.272650E-16
5.951323E+03	4.485796E-14	3.211723E-16
5.961308E+03	4.412161E-14	3.146801E-16
5.971294E+03	4.331172E-14	3.076939E-16
5.981279E+03	4.240205E-14	3.000457E-16
5.991265E+03	4.136541E-14	2.915636E-16
6.001250E+03	4.017624E-14	2.820893E-16
6.011236E+03	3.881078E-14	2.714789E-16
6.021221E+03	3.725774E-14	2.596761E-16
6.031207E+03	3.552934E-14	2.467862E-16
6.041192E+03	3.367060E-14	2.331376E-16
6.051177E+03	3.174139E-14	2.191533E-16
6.061163E+03	2.980830E-14	2.052943E-16
6.071148E+03	2.794169E-14	1.920404E-16
6.081134E+03	2.620333E-14	1.798063E-16
6.091119E+03	2.464364E-14	1.689257E-16
6.101105E+03	2.330003E-14	1.596429E-16
6.111090E+03	2.220015E-14	1.521378E-16
6.121075E+03	2.136058E-14	1.465186E-16
6.131061E+03	2.078944E-14	1.428418E-16
6.141046E+03	2.049130E-14	1.411469E-16
6.151032E+03	2.046587E-14	1.414485E-16
6.161017E+03	2.070466E-14	1.437136E-16
6.171003E+03	2.119610E-14	1.478966E-16
6.180988E+03	2.192358E-14	1.539252E-16
6.190974E+03	2.285991E-14	1.616583E-16
6.200959E+03	2.396815E-14	1.708821E-16
6.210944E+03	2.519913E-14	1.812906E-16
6.220930E+03	2.649192E-14	1.924837E-16
6.230915E+03	2.777519E-14	2.039693E-16
6.240901E+03	2.897823E-14	2.152359E-16
6.250886E+03	3.004943E-14	2.258886E-16
6.260872E+03	3.095140E-14	2.356164E-16
6.270857E+03	3.166054E-14	2.441939E-16
6.280843E+03	3.216997E-14	2.515101E-16
6.290828E+03	3.248461E-14	2.575382E-16
6.300813E+03	3.261622E-14	2.623027E-16
6.310799E+03	3.258531E-14	2.659001E-16
6.320784E+03	3.241416E-14	2.684471E-16
6.330770E+03	3.212992E-14	2.701096E-16
6.340755E+03	3.176144E-14	2.710792E-16
6.350741E+03	3.133958E-14	2.715792E-16
6.360726E+03	3.089761E-14	2.718695E-16
6.370712E+03	3.047230E-14	2.722592E-16
6.380697E+03	3.009917E-14	2.730671E-16
6.390682E+03	2.981158E-14	2.746127E-16
6.400668E+03	2.962613E-14	2.770786E-16
6.410653E+03	2.952638E-14	2.803445E-16
6.420639E+03	2.948591E-14	2.841860E-16
6.430624E+03	2.948291E-14	2.884090E-16
6.440610E+03	2.949714E-14	2.928231E-16
6.450595E+03	2.951185E-14	2.972618E-16
6.460580E+03	2.951416E-14	3.015886E-16
6.470566E+03	2.949362E-14	3.056846E-16
6.480551E+03	2.944237E-14	3.094529E-16
6.490537E+03	2.935451E-14	3.128125E-16
6.500522E+03	2.922525E-14	3.156916E-16
6.510508E+03	2.905297E-14	3.180503E-16
6.520493E+03	2.883692E-14	3.198582E-16
6.530479E+03	2.857808E-14	3.211040E-16
6.540464E+03	2.827815E-14	3.217856E-16
6.550449E+03	2.794119E-14	3.219298E-16
6.560435E+03	2.757206E-14	3.215753E-16
6.570420E+03	2.717602E-14	3.207689E-16
6.580406E+03	2.675866E-14	3.195646E-16
6.590391E+03	2.632637E-14	3.180299E-16
6.600377E+03	2.588474E-14	3.162261E-16
6.610362E+03	2.543892E-14	3.142127E-16
6.620348E+03	2.499389E-14	3.120500E-16
6.630333E+03	2.455440E-14	3.097986E-16
6.640318E+03	2.412411E-14	3.075075E-16
6.650304E+03	2.370602E-14	3.052193E-16
6.660289E+03	2.330356E-14	3.029843E-16
6.670275E+03	2.291874E-14	3.008350E-16
6.680260E+03	2.255321E-14	2.988010E-16
6.690246E+03	2.220787E-14	2.969022E-16
6.700231E+03	2.188368E-14	2.951595E-16
6.710217E+03	2.157973E-14	2.935690E-16
6.720202E+03	2.129557E-14	2.921325E-16
6.730187E+03	2.103049E-14	2.908475E-16
6.740173E+03	2.078210E-14	2.896881E-16
6.750158E+03	2.054902E-14	2.886409E-16
6.760144E+03	2.032856E-14	2.876736E-16
6.770129E+03	2.011914E-14	2.867684E-16
6.780115E+03	1.991804E-14	2.858903E-16
6.790100E+03	1.972344E-14	2.850160E-16
6.800085E+03	1.953353E-14	2.841221E-16
6.810071E+03	1.934695E-14	2.831906E-16
6.820056E+03	1.916240E-14	2.822041E-16
6.830042E+03	1.897906E-14	2.811517E-16
6.840027E+03	1.879618E-14	2.800235E-16
6.850013E+03	1.861410E-14	2.788254E-16
6.859998E+03	1.843219E-14	2.775493E-16
6.869984E+03	1.825152E-14	2.762124E-16
6.879969E+03	1.807209E-14	2.748158E-16
6.889954E+03	1.789416E-14	2.733649E-16
6.899940E+03	1.771922E-14	2.718838E-16
6.909925E+03	1.754750E-14	2.703779E-16
6.919911E+03	1.737966E-14	2.688592E-16
6.929896E+03	1.721649E-14	2.673416E-16
6.939882E+03	1.705865E-14	2.658372E-16
6.949867E+03	1.690588E-14	2.643441E-16
6.959853E+03	1.675920E-14	2.628800E-16
6.969838E+03	1.661827E-14	2.614415E-16
6.979823E+03	1.648310E-14	2.600307E-16
6.989809E+03	1.635376E-14	2.586501E-16
6.999794E+03	1.623028E-14	2.573022E-16
7.009780E+03	1.611219E-14	2.559808E-16
7.019765E+03	1.599939E-14	2.546858E-16
7.029751E+03	1.589186E-14	2.534183E-16
7.039736E+03	1.578905E-14	2.521707E-16
7.049722E+03	1.569109E-14	2.509463E-16
7.059707E+03	1.559724E-14	2.497342E-16
7.069692E+03	1.550709E-14	2.485290E-16
7.079678E+03	1.542064E-14	2.473314E-16
7.089663E+03	1.533730E-14	2.461328E-16
7.099649E+03	1.525623E-14	2.449208E-16
7.109634E+03	1.517762E-14	2.436987E-16
7.119620E+03	1.509985E-14	2.424415E-16
7.129605E+03	1.502317E-14	2.411539E-16
7.139590E+03	1.494636E-14	2.398169E-16
7.149576E+03	1.486883E-14	2.384217E-16
7.159561E+03	1.478989E-14	2.369584E-16
7.169547E+03	1.470797E-14	2.354021E-16
7.179532E+03	1.462217E-14	2.337397E-16
7.189518E+03	1.453154E-14	2.319572E-16
7.199503E+03	1.443423E-14	2.300261E-16
7.209489E+03	1.432960E-14	2.279381E-16
7.219474E+03	1.421647E-14	2.256758E-16
7.229459E+03	1.409347E-14	2.232197E-16
7.239445E+03	1.395978E-14	2.205593E-16
7.249430E+03	1.381479E-14	2.176875E-16
7.259416E+03	1.365873E-14	2.146108E-16
7.269401E+03	1.349070E-14	2.113184E-16
7.279387E+03	1.331184E-14	2.078314E-16
7.289372E+03	1.312175E-14	2.041474E-16
7.299358E+03	1.292213E-14	2.002964E-16
7.309343E+03	1.271317E-14	1.962850E-16
7.319328E+03	1.249667E-14	1.921448E-16
7.329314E+03	1.227380E-14	1.878976E-16
7.339299E+03	1.204618E-14	1.835713E-16
7.349285E+03	1.181543E-14	1.791942E-16
7.359270E+03	1.158270E-14	1.747865E-16
7.369256E+03	1.135013E-14	1.703832E-16
7.379241E+03	1.111856E-14	1.659991E-16
7.389227E+03	1.088998E-14	1.616660E-16
7.399212E+03	1.066534E-14	1.573997E-16
7.409197E+03	1.044586E-14	1.532190E-16
7.419183E+03	1.023300E-14	1.491462E-16
7.429168E+03	1.002870E-14	1.452098E-16
7.439154E+03	9.834150E-15	1.414266E-16
7.449139E+03	9.651410E-15	1.378251E-16
7.459125E+03	9.481294E-15	1.344152E-16
7.469110E+03	9.325381E-15	1.312171E-16
7.479095E+03	9.184673E-15	1.282420E-16
7.489081E+03	9.059767E-15	1.254948E-16
7.499066E+03	8.950996E-15	1.229764E-16
7.509052E+03	8.858333E-15	1.206824E-16
7.519037E+03	8.781738E-15	1.186079E-16
7.529023E+03	8.720655E-15	1.167411E-16
7.539008E+03	8.674692E-15	1.150724E-16
7.548994E+03	8.643191E-15	1.135887E-16
7.558979E+03	8.625231E-15	1.122738E-16
7.568964E+03	8.620025E-15	1.111134E-16
7.578950E+03	8.626966E-15	1.100961E-16
7.588935E+03	8.645288E-15	1.092085E-16
7.598921E+03	8.673793E-15	1.084323E-16
7.608906E+03	8.712270E-15	1.077620E-16
7.618892E+03	8.759964E-15	1.071856E-16
7.628877E+03	8.816509E-15	1.066963E-16
7.638863E+03	8.881532E-15	1.062874E-16
7.648848E+03	8.955563E-15	1.059634E-16
7.658833E+03	9.038679E-15	1.057230E-16
7.668819E+03	9.131076E-15	1.055668E-16
7.678804E+03	9.233800E-15	1.055049E-16
7.688790E+03	9.346894E-15	1.055359E-16
7.698775E+03	9.471003E-15	1.056654E-16
7.708761E+03	9.606339E-15	1.058939E-16
7.718746E+03	9.752730E-15	1.062183E-16
7.728732E+03	9.909707E-15	1.066327E-16
7.738717E+03	1.007671E-14	1.071308E-16
7.748702E+03	1.025190E-14	1.076939E-16
