#wls	flux	fluxerr
1.597671E+03	2.555244E-15	3.140300E-16
1.637612E+03	2.060050E-15	2.504573E-16
1.677554E+03	1.637736E-15	1.969796E-16
1.717496E+03	1.284774E-15	1.528771E-16
1.757438E+03	9.956642E-16	1.172187E-16
1.797379E+03	7.626530E-16	8.884323E-17
1.837321E+03	5.777975E-16	6.661115E-17
1.877263E+03	4.333347E-16	4.944768E-17
1.917205E+03	3.220547E-16	3.638300E-17
1.957146E+03	2.377684E-16	2.660008E-17
1.997088E+03	1.751720E-16	1.941274E-17
2.037030E+03	1.299992E-16	1.427609E-17
2.076972E+03	9.879639E-17	1.075548E-17
2.116914E+03	7.862495E-17	8.489068E-18
2.156855E+03	6.702454E-17	7.180270E-18
2.196797E+03	6.195777E-17	6.588825E-18
2.236739E+03	6.208509E-17	6.556978E-18
2.276681E+03	6.680192E-17	7.009850E-18
2.316622E+03	7.621358E-17	7.949714E-18
2.356564E+03	9.107514E-17	9.447119E-18
2.396506E+03	1.128474E-16	1.164483E-17
2.436448E+03	1.436155E-16	1.474782E-17
2.476389E+03	1.860924E-16	1.902226E-17
2.516331E+03	2.432945E-16	2.476137E-17
2.556273E+03	3.180788E-16	3.223800E-17
2.596215E+03	4.123774E-16	4.162761E-17
2.636156E+03	5.262086E-16	5.291031E-17
2.676098E+03	6.578470E-16	6.589108E-17
2.716040E+03	8.036235E-16	8.018238E-17
2.755982E+03	9.585077E-16	9.526513E-17
2.795924E+03	1.115987E-15	1.104790E-16
2.835865E+03	1.269176E-15	1.251351E-16
2.875807E+03	1.410689E-15	1.385044E-16
2.915749E+03	1.534637E-15	1.500157E-16
2.955691E+03	1.636326E-15	1.592243E-16
2.995632E+03	1.714215E-15	1.660007E-16
3.005618E+03	1.729937E-15	1.673144E-16
3.015603E+03	1.744093E-15	1.684706E-16
3.025589E+03	1.757011E-15	1.695011E-16
3.035574E+03	1.768476E-15	1.703856E-16
3.045560E+03	1.778801E-15	1.711547E-16
3.055545E+03	1.788196E-15	1.718288E-16
3.065530E+03	1.796672E-15	1.724093E-16
3.075516E+03	1.804102E-15	1.728843E-16
3.085501E+03	1.810802E-15	1.732844E-16
3.095487E+03	1.816659E-15	1.735988E-16
3.105472E+03	1.821712E-15	1.738316E-16
3.115458E+03	1.826005E-15	1.739871E-16
3.125443E+03	1.829728E-15	1.740837E-16
3.135429E+03	1.832650E-15	1.740995E-16
3.145414E+03	1.835249E-15	1.740801E-16
3.155399E+03	1.837165E-15	1.739915E-16
3.165385E+03	1.838873E-15	1.738788E-16
3.175370E+03	1.840160E-15	1.737219E-16
3.185356E+03	1.841090E-15	1.735270E-16
3.195341E+03	1.841999E-15	1.733256E-16
3.205327E+03	1.842814E-15	1.731110E-16
3.215312E+03	1.843597E-15	1.728889E-16
3.225298E+03	1.844412E-15	1.726653E-16
3.235283E+03	1.845322E-15	1.724458E-16
3.245268E+03	1.846514E-15	1.722480E-16
3.255254E+03	1.847920E-15	1.720651E-16
3.265239E+03	1.849849E-15	1.719258E-16
3.275225E+03	1.852100E-15	1.718112E-16
3.285210E+03	1.854977E-15	1.717489E-16
3.295196E+03	1.858401E-15	1.717315E-16
3.305181E+03	1.862543E-15	1.717741E-16
3.315166E+03	1.867321E-15	1.718689E-16
3.325152E+03	1.873019E-15	1.720415E-16
3.335137E+03	1.879550E-15	1.722833E-16
3.345123E+03	1.886951E-15	1.725970E-16
3.355108E+03	1.895487E-15	1.730063E-16
3.365094E+03	1.905068E-15	1.735022E-16
3.375079E+03	1.915717E-15	1.740860E-16
3.385065E+03	1.927573E-15	1.747696E-16
3.395050E+03	1.940770E-15	1.755642E-16
3.405035E+03	1.955324E-15	1.764702E-16
3.415021E+03	1.971247E-15	1.774877E-16
3.425006E+03	1.988665E-15	1.786270E-16
3.434992E+03	2.007586E-15	1.798876E-16
3.444977E+03	2.028130E-15	1.812792E-16
3.454963E+03	2.050418E-15	1.828110E-16
3.464948E+03	2.074338E-15	1.844720E-16
3.474934E+03	2.100235E-15	1.862912E-16
3.484919E+03	2.128110E-15	1.882671E-16
3.494904E+03	2.157966E-15	1.903984E-16
3.504890E+03	2.189920E-15	1.926936E-16
3.514875E+03	2.223977E-15	1.951514E-16
3.524861E+03	2.260482E-15	1.977999E-16
3.534846E+03	2.299218E-15	2.006184E-16
3.544832E+03	2.340311E-15	2.036155E-16
3.554817E+03	2.383776E-15	2.067905E-16
3.564803E+03	2.429635E-15	2.101431E-16
3.574788E+03	2.477913E-15	2.136730E-16
3.584773E+03	2.528528E-15	2.173709E-16
3.594759E+03	2.581517E-15	2.212377E-16
3.604744E+03	2.636809E-15	2.252650E-16
3.614730E+03	2.694571E-15	2.294644E-16
3.624715E+03	2.754746E-15	2.338288E-16
3.634701E+03	2.817403E-15	2.383612E-16
3.644686E+03	2.882387E-15	2.430462E-16
3.654671E+03	2.950012E-15	2.479074E-16
3.664657E+03	3.020141E-15	2.529305E-16
3.674642E+03	3.092873E-15	2.581209E-16
3.684628E+03	3.168201E-15	2.634754E-16
3.694613E+03	3.246351E-15	2.690094E-16
3.704599E+03	3.327332E-15	2.747206E-16
3.714584E+03	3.411142E-15	2.806056E-16
3.724570E+03	3.497909E-15	2.866716E-16
3.734555E+03	3.587747E-15	2.929244E-16
3.744540E+03	3.680654E-15	2.993602E-16
3.754526E+03	3.776739E-15	3.059843E-16
3.764511E+03	3.876096E-15	3.128003E-16
3.774497E+03	3.978683E-15	3.198010E-16
3.784482E+03	4.084555E-15	3.269869E-16
3.794468E+03	4.193627E-15	3.343470E-16
3.804453E+03	4.305904E-15	3.418779E-16
3.814439E+03	4.421363E-15	3.495735E-16
3.824424E+03	4.539809E-15	3.574146E-16
3.834409E+03	4.661148E-15	3.653898E-16
3.844395E+03	4.785114E-15	3.734745E-16
3.854380E+03	4.911521E-15	3.816507E-16
3.864366E+03	5.040147E-15	3.898977E-16
3.874351E+03	5.170598E-15	3.981820E-16
3.884337E+03	5.302569E-15	4.064774E-16
3.894322E+03	5.435589E-15	4.147454E-16
3.904308E+03	5.569289E-15	4.229561E-16
3.914293E+03	5.703264E-15	4.310772E-16
3.924278E+03	5.836965E-15	4.390663E-16
3.934264E+03	5.969819E-15	4.468800E-16
3.944249E+03	6.101521E-15	4.544957E-16
3.954235E+03	6.231496E-15	4.618715E-16
3.964220E+03	6.359173E-15	4.689663E-16
3.974206E+03	6.484137E-15	4.757517E-16
3.984191E+03	6.605850E-15	4.821907E-16
3.994176E+03	6.724091E-15	4.882706E-16
4.004162E+03	6.838389E-15	4.939608E-16
4.014147E+03	6.948303E-15	4.992337E-16
4.024133E+03	7.053448E-15	5.040665E-16
4.034118E+03	7.153896E-15	5.084695E-16
4.044104E+03	7.249053E-15	5.124059E-16
4.054089E+03	7.338947E-15	5.158838E-16
4.064075E+03	7.423358E-15	5.188938E-16
4.074060E+03	7.502251E-15	5.214400E-16
4.084045E+03	7.575636E-15	5.235295E-16
4.094031E+03	7.643408E-15	5.251619E-16
4.104016E+03	7.705649E-15	5.263498E-16
4.114002E+03	7.762329E-15	5.270976E-16
4.123987E+03	7.813593E-15	5.274224E-16
4.133973E+03	7.859610E-15	5.273423E-16
4.143958E+03	7.900584E-15	5.268777E-16
4.153944E+03	7.936605E-15	5.260411E-16
4.163929E+03	7.967927E-15	5.248557E-16
4.173914E+03	7.994976E-15	5.233557E-16
4.183900E+03	8.017788E-15	5.215493E-16
4.193885E+03	8.036850E-15	5.194737E-16
4.203871E+03	8.052403E-15	5.171497E-16
4.213856E+03	8.064995E-15	5.146172E-16
4.223842E+03	8.075068E-15	5.119086E-16
4.233827E+03	8.082976E-15	5.090500E-16
4.243813E+03	8.089502E-15	5.060939E-16
4.253798E+03	8.094941E-15	5.030609E-16
4.263783E+03	8.100138E-15	5.000055E-16
4.273769E+03	8.105721E-15	4.969672E-16
4.283754E+03	8.112349E-15	4.939864E-16
4.293740E+03	8.120827E-15	4.911113E-16
4.303725E+03	8.131871E-15	4.883835E-16
4.313711E+03	8.146331E-15	4.858512E-16
4.323696E+03	8.164955E-15	4.835555E-16
4.333681E+03	8.188867E-15	4.815580E-16
4.343667E+03	8.218575E-15	4.798826E-16
4.353652E+03	8.255199E-15	4.785883E-16
4.363638E+03	8.299482E-15	4.777099E-16
4.373623E+03	8.352399E-15	4.772949E-16
4.383609E+03	8.414642E-15	4.773727E-16
4.393594E+03	8.487108E-15	4.779837E-16
4.403580E+03	8.570528E-15	4.791571E-16
4.413565E+03	8.665553E-15	4.809171E-16
4.423550E+03	8.772642E-15	4.832760E-16
4.433536E+03	8.892540E-15	4.862614E-16
4.443521E+03	9.025394E-15	4.898672E-16
4.453507E+03	9.171204E-15	4.940795E-16
4.463492E+03	9.329925E-15	4.988822E-16
4.473478E+03	9.501229E-15	5.042444E-16
4.483463E+03	9.683892E-15	5.100889E-16
4.493449E+03	9.877102E-15	5.163620E-16
4.503434E+03	1.007899E-14	5.229570E-16
4.513419E+03	1.028826E-14	5.297994E-16
4.523405E+03	1.050275E-14	5.367735E-16
4.533390E+03	1.072044E-14	5.437739E-16
4.543376E+03	1.093935E-14	5.506996E-16
4.553361E+03	1.115726E-14	5.574424E-16
4.563347E+03	1.137182E-14	5.638901E-16
4.573332E+03	1.158114E-14	5.699563E-16
4.583318E+03	1.178298E-14	5.755385E-16
4.593303E+03	1.197557E-14	5.805592E-16
4.603288E+03	1.215720E-14	5.849461E-16
4.613274E+03	1.232639E-14	5.886412E-16
4.623259E+03	1.248215E-14	5.916099E-16
4.633245E+03	1.262381E-14	5.938347E-16
4.643230E+03	1.275089E-14	5.953075E-16
4.653216E+03	1.286355E-14	5.960510E-16
4.663201E+03	1.296184E-14	5.960810E-16
4.673186E+03	1.304659E-14	5.954492E-16
4.683172E+03	1.311872E-14	5.942101E-16
4.693157E+03	1.317955E-14	5.924351E-16
4.703143E+03	1.323026E-14	5.901868E-16
4.713128E+03	1.327261E-14	5.875520E-16
4.723114E+03	1.330796E-14	5.845976E-16
4.733099E+03	1.333815E-14	5.814092E-16
4.743085E+03	1.336466E-14	5.780549E-16
4.753070E+03	1.338906E-14	5.746038E-16
4.763055E+03	1.341280E-14	5.711185E-16
4.773041E+03	1.343717E-14	5.676527E-16
4.783026E+03	1.346315E-14	5.642453E-16
4.793012E+03	1.349154E-14	5.609273E-16
4.802997E+03	1.352298E-14	5.577202E-16
4.812983E+03	1.355775E-14	5.546319E-16
4.822968E+03	1.359597E-14	5.516626E-16
4.832954E+03	1.363760E-14	5.488060E-16
4.842939E+03	1.368294E-14	5.460692E-16
4.852924E+03	1.373136E-14	5.434235E-16
4.862910E+03	1.378296E-14	5.408682E-16
4.872895E+03	1.383714E-14	5.383755E-16
4.882881E+03	1.389372E-14	5.359356E-16
4.892866E+03	1.395222E-14	5.335272E-16
4.902852E+03	1.401251E-14	5.311422E-16
4.912837E+03	1.407434E-14	5.287693E-16
4.922823E+03	1.413741E-14	5.263947E-16
4.932808E+03	1.420182E-14	5.240212E-16
4.942793E+03	1.426764E-14	5.216493E-16
4.952779E+03	1.433493E-14	5.192795E-16
4.962764E+03	1.440433E-14	5.169337E-16
4.972750E+03	1.447603E-14	5.146160E-16
4.982735E+03	1.455094E-14	5.123572E-16
4.992721E+03	1.462966E-14	5.101744E-16
5.002706E+03	1.471318E-14	5.080988E-16
5.012691E+03	1.480227E-14	5.061527E-16
5.022677E+03	1.489808E-14	5.043698E-16
5.032662E+03	1.500147E-14	5.027734E-16
5.042648E+03	1.511379E-14	5.014018E-16
5.052633E+03	1.523590E-14	5.002752E-16
5.062619E+03	1.536877E-14	4.994169E-16
5.072604E+03	1.551328E-14	4.988464E-16
5.082590E+03	1.567043E-14	4.985852E-16
5.092575E+03	1.584071E-14	4.986389E-16
5.102560E+03	1.602486E-14	4.990195E-16
5.112546E+03	1.622328E-14	4.997286E-16
5.122531E+03	1.643604E-14	5.007575E-16
5.132517E+03	1.666355E-14	5.021079E-16
5.142502E+03	1.690535E-14	5.037558E-16
5.152488E+03	1.716150E-14	5.056935E-16
5.162473E+03	1.743135E-14	5.078935E-16
5.172459E+03	1.771426E-14	5.103295E-16
5.182444E+03	1.800941E-14	5.129724E-16
5.192429E+03	1.831603E-14	5.157961E-16
5.202415E+03	1.863283E-14	5.187617E-16
5.212400E+03	1.895863E-14	5.218360E-16
5.222386E+03	1.929231E-14	5.249899E-16
5.232371E+03	1.963254E-14	5.281910E-16
5.242357E+03	1.997774E-14	5.314028E-16
5.252342E+03	2.032653E-14	5.345970E-16
5.262328E+03	2.067774E-14	5.377533E-16
5.272313E+03	2.103007E-14	5.408507E-16
5.282298E+03	2.138205E-14	5.438661E-16
5.292284E+03	2.173271E-14	5.467916E-16
5.302269E+03	2.208073E-14	5.496127E-16
5.312255E+03	2.242511E-14	5.523248E-16
5.322240E+03	2.276514E-14	5.549320E-16
5.332226E+03	2.309973E-14	5.574315E-16
5.342211E+03	2.342837E-14	5.598346E-16
5.352196E+03	2.375010E-14	5.621439E-16
5.362182E+03	2.406427E-14	5.643705E-16
5.372167E+03	2.437057E-14	5.665331E-16
5.382153E+03	2.466803E-14	5.686364E-16
5.392138E+03	2.495670E-14	5.707090E-16
5.402124E+03	2.523588E-14	5.727613E-16
5.412109E+03	2.550457E-14	5.747978E-16
5.422095E+03	2.576200E-14	5.768273E-16
5.432080E+03	2.600609E-14	5.788290E-16
5.442065E+03	2.623444E-14	5.807750E-16
5.452051E+03	2.644520E-14	5.826372E-16
5.462036E+03	2.663638E-14	5.843701E-16
5.472022E+03	2.680590E-14	5.859239E-16
5.482007E+03	2.695243E-14	5.872626E-16
5.491993E+03	2.707465E-14	5.883483E-16
5.501978E+03	2.717127E-14	5.891417E-16
5.511964E+03	2.724192E-14	5.896215E-16
5.521949E+03	2.728606E-14	5.897612E-16
5.531934E+03	2.730443E-14	5.895598E-16
5.541920E+03	2.729741E-14	5.890074E-16
5.551905E+03	2.726607E-14	5.881081E-16
5.561891E+03	2.721219E-14	5.868808E-16
5.571876E+03	2.713743E-14	5.853406E-16
5.581862E+03	2.704427E-14	5.835213E-16
5.591847E+03	2.693526E-14	5.814573E-16
5.601833E+03	2.681333E-14	5.791931E-16
5.611818E+03	2.668104E-14	5.767649E-16
5.621803E+03	2.654120E-14	5.742156E-16
5.631789E+03	2.639684E-14	5.715940E-16
5.641774E+03	2.625029E-14	5.689348E-16
5.651760E+03	2.610418E-14	5.662805E-16
5.661745E+03	2.596059E-14	5.636630E-16
5.671731E+03	2.582124E-14	5.611072E-16
5.681716E+03	2.568749E-14	5.586315E-16
5.691701E+03	2.556026E-14	5.562454E-16
5.701687E+03	2.544003E-14	5.539505E-16
5.711672E+03	2.532689E-14	5.517399E-16
5.721658E+03	2.522047E-14	5.495979E-16
5.731643E+03	2.512025E-14	5.475063E-16
5.741629E+03	2.502464E-14	5.454241E-16
5.751614E+03	2.493270E-14	5.433252E-16
5.761600E+03	2.484274E-14	5.411679E-16
5.771585E+03	2.475236E-14	5.388959E-16
5.781570E+03	2.466006E-14	5.364731E-16
5.791556E+03	2.456350E-14	5.338464E-16
5.801541E+03	2.446086E-14	5.309748E-16
5.811527E+03	2.434993E-14	5.278099E-16
5.821512E+03	2.422864E-14	5.243074E-16
5.831498E+03	2.409589E-14	5.204457E-16
5.841483E+03	2.395011E-14	5.161937E-16
5.851469E+03	2.379029E-14	5.115343E-16
5.861454E+03	2.361577E-14	5.064589E-16
5.871439E+03	2.342628E-14	5.009683E-16
5.881425E+03	2.322167E-14	4.950672E-16
5.891410E+03	2.300265E-14	4.887796E-16
5.901396E+03	2.276978E-14	4.821274E-16
5.911381E+03	2.252445E-14	4.751502E-16
5.921367E+03	2.226760E-14	4.678795E-16
5.931352E+03	2.200136E-14	4.603708E-16
5.941338E+03	2.172712E-14	4.526656E-16
5.951323E+03	2.144709E-14	4.448215E-16
5.961308E+03	2.116289E-14	4.368841E-16
5.971294E+03	2.087707E-14	4.289178E-16
5.981279E+03	2.059151E-14	4.209723E-16
5.991265E+03	2.030822E-14	4.131003E-16
6.001250E+03	2.002897E-14	4.053481E-16
6.011236E+03	1.975557E-14	3.977630E-16
6.021221E+03	1.948994E-14	3.903934E-16
6.031207E+03	1.923319E-14	3.832713E-16
6.041192E+03	1.898691E-14	3.764377E-16
6.051177E+03	1.875228E-14	3.699251E-16
6.061163E+03	1.853016E-14	3.637592E-16
6.071148E+03	1.832158E-14	3.579694E-16
6.081134E+03	1.812725E-14	3.525787E-16
6.091119E+03	1.794755E-14	3.476034E-16
6.101105E+03	1.778308E-14	3.430647E-16
6.111090E+03	1.763414E-14	3.389785E-16
6.121075E+03	1.750075E-14	3.353553E-16
6.131061E+03	1.738340E-14	3.322155E-16
6.141046E+03	1.728193E-14	3.295677E-16
6.151032E+03	1.719667E-14	3.274307E-16
6.161017E+03	1.712704E-14	3.258060E-16
6.171003E+03	1.707364E-14	3.247195E-16
6.180988E+03	1.703582E-14	3.241729E-16
6.190974E+03	1.701381E-14	3.241864E-16
6.200959E+03	1.700726E-14	3.247695E-16
6.210944E+03	1.701622E-14	3.259401E-16
6.220930E+03	1.704015E-14	3.277055E-16
6.230915E+03	1.707888E-14	3.300808E-16
6.240901E+03	1.713236E-14	3.330836E-16
6.250886E+03	1.720018E-14	3.367140E-16
6.260872E+03	1.728204E-14	3.409652E-16
6.270857E+03	1.737756E-14	3.458294E-16
6.280843E+03	1.748609E-14	3.512926E-16
6.290828E+03	1.760726E-14	3.573467E-16
6.300813E+03	1.774000E-14	3.639694E-16
6.310799E+03	1.788387E-14	3.711508E-16
6.320784E+03	1.803772E-14	3.788658E-16
6.330770E+03	1.820025E-14	3.870848E-16
6.340755E+03	1.837058E-14	3.957871E-16
6.350741E+03	1.854676E-14	4.049265E-16
6.360726E+03	1.872789E-14	4.144787E-16
6.370712E+03	1.891179E-14	4.243894E-16
6.380697E+03	1.909721E-14	4.346226E-16
6.390682E+03	1.928202E-14	4.451205E-16
6.400668E+03	1.946411E-14	4.558225E-16
6.410653E+03	1.964042E-14	4.666427E-16
6.420639E+03	1.980800E-14	4.774935E-16
6.430624E+03	1.996385E-14	4.882816E-16
6.440610E+03	2.010507E-14	4.989116E-16
6.450595E+03	2.022915E-14	5.092941E-16
6.460580E+03	2.033337E-14	5.193299E-16
6.470566E+03	2.041594E-14	5.289400E-16
6.480551E+03	2.047420E-14	5.380198E-16
6.490537E+03	2.050626E-14	5.464818E-16
6.500522E+03	2.051039E-14	5.542391E-16
6.510508E+03	2.048543E-14	5.612192E-16
6.520493E+03	2.043068E-14	5.673603E-16
6.530479E+03	2.034610E-14	5.726189E-16
6.540464E+03	2.023163E-14	5.769510E-16
6.550449E+03	2.008785E-14	5.803326E-16
6.560435E+03	1.991650E-14	5.827738E-16
6.570420E+03	1.971824E-14	5.842578E-16
6.580406E+03	1.949553E-14	5.848218E-16
6.590391E+03	1.925013E-14	5.844880E-16
6.600377E+03	1.898430E-14	5.832965E-16
6.610362E+03	1.870093E-14	5.813112E-16
6.620348E+03	1.840211E-14	5.785763E-16
6.630333E+03	1.809111E-14	5.751770E-16
6.640318E+03	1.777008E-14	5.711686E-16
6.650304E+03	1.744202E-14	5.666367E-16
6.660289E+03	1.710917E-14	5.616479E-16
6.670275E+03	1.677407E-14	5.562819E-16
6.680260E+03	1.643888E-14	5.506098E-16
6.690246E+03	1.610559E-14	5.447000E-16
6.700231E+03	1.577599E-14	5.386174E-16
6.710217E+03	1.545167E-14	5.324222E-16
6.720202E+03	1.513437E-14	5.261825E-16
6.730187E+03	1.482468E-14	5.199284E-16
6.740173E+03	1.452414E-14	5.137239E-16
6.750158E+03	1.423332E-14	5.076005E-16
6.760144E+03	1.395265E-14	5.015853E-16
6.770129E+03	1.368293E-14	4.957193E-16
6.780115E+03	1.342427E-14	4.900188E-16
6.790100E+03	1.317684E-14	4.845023E-16
6.800085E+03	1.294087E-14	4.791906E-16
6.810071E+03	1.271615E-14	4.740882E-16
6.820056E+03	1.250258E-14	4.692026E-16
6.830042E+03	1.230015E-14	4.645450E-16
6.840027E+03	1.210863E-14	4.601174E-16
6.850013E+03	1.192760E-14	4.559144E-16
6.859998E+03	1.175693E-14	4.519410E-16
6.869984E+03	1.159617E-14	4.481887E-16
6.879969E+03	1.144516E-14	4.446604E-16
6.889954E+03	1.130343E-14	4.413462E-16
6.899940E+03	1.117099E-14	4.382536E-16
6.909925E+03	1.104707E-14	4.353605E-16
6.919911E+03	1.093185E-14	4.326801E-16
6.929896E+03	1.082474E-14	4.301951E-16
6.939882E+03	1.072564E-14	4.279078E-16
6.949867E+03	1.063414E-14	4.258070E-16
6.959853E+03	1.055017E-14	4.238947E-16
6.969838E+03	1.047336E-14	4.221602E-16
6.979823E+03	1.040365E-14	4.206056E-16
6.989809E+03	1.034069E-14	4.192199E-16
6.999794E+03	1.028444E-14	4.180052E-16
7.009780E+03	1.023455E-14	4.169504E-16
7.019765E+03	1.019098E-14	4.160559E-16
7.029751E+03	1.015340E-14	4.153106E-16
7.039736E+03	1.012160E-14	4.147083E-16
7.049722E+03	1.009538E-14	4.142419E-16
7.059707E+03	1.007452E-14	4.139038E-16
7.069692E+03	1.005879E-14	4.136855E-16
7.079678E+03	1.004794E-14	4.135775E-16
7.089663E+03	1.004172E-14	4.135699E-16
7.099649E+03	1.003984E-14	4.136511E-16
7.109634E+03	1.004203E-14	4.138097E-16
7.119620E+03	1.004782E-14	4.140265E-16
7.129605E+03	1.005690E-14	4.142880E-16
7.139590E+03	1.006909E-14	4.145865E-16
7.149576E+03	1.008391E-14	4.149014E-16
7.159561E+03	1.010101E-14	4.152176E-16
7.169547E+03	1.012006E-14	4.155206E-16
7.179532E+03	1.014071E-14	4.157953E-16
7.189518E+03	1.016248E-14	4.160211E-16
7.199503E+03	1.018520E-14	4.161901E-16
7.209489E+03	1.020841E-14	4.162831E-16
7.219474E+03	1.023182E-14	4.162871E-16
7.229459E+03	1.025516E-14	4.161911E-16
7.239445E+03	1.027819E-14	4.159843E-16
7.249430E+03	1.030071E-14	4.156585E-16
7.259416E+03	1.032224E-14	4.151938E-16
7.269401E+03	1.034293E-14	4.145969E-16
7.279387E+03	1.036238E-14	4.138512E-16
7.289372E+03	1.038067E-14	4.129607E-16
7.299358E+03	1.039778E-14	4.119249E-16
7.309343E+03	1.041344E-14	4.107332E-16
7.319328E+03	1.042785E-14	4.093944E-16
7.329314E+03	1.044097E-14	4.079079E-16
7.339299E+03	1.045294E-14	4.062799E-16
7.349285E+03	1.046395E-14	4.045189E-16
7.359270E+03	1.047409E-14	4.026288E-16
7.369256E+03	1.048377E-14	4.006268E-16
7.379241E+03	1.049299E-14	3.985135E-16
7.389227E+03	1.050225E-14	3.963086E-16
7.399212E+03	1.051160E-14	3.940144E-16
7.409197E+03	1.052176E-14	3.916585E-16
7.419183E+03	1.053298E-14	3.892500E-16
7.429168E+03	1.054569E-14	3.868052E-16
7.439154E+03	1.056032E-14	3.843391E-16
7.449139E+03	1.057749E-14	3.818733E-16
7.459125E+03	1.059729E-14	3.794099E-16
7.469110E+03	1.062048E-14	3.769742E-16
7.479095E+03	1.064728E-14	3.745725E-16
7.489081E+03	1.067823E-14	3.722208E-16
7.499066E+03	1.071383E-14	3.699335E-16
7.509052E+03	1.075419E-14	3.677113E-16
7.519037E+03	1.079972E-14	3.655644E-16
7.529023E+03	1.085057E-14	3.634940E-16
7.539008E+03	1.090703E-14	3.615058E-16
7.548994E+03	1.096895E-14	3.595904E-16
7.558979E+03	1.103646E-14	3.577478E-16
7.568964E+03	1.110942E-14	3.559698E-16
7.578950E+03	1.118763E-14	3.542456E-16
7.588935E+03	1.127078E-14	3.525624E-16
7.598921E+03	1.135866E-14	3.509108E-16
7.608906E+03	1.145080E-14	3.492742E-16
7.618892E+03	1.154664E-14	3.476345E-16
7.628877E+03	1.164536E-14	3.459671E-16
7.638863E+03	1.174662E-14	3.442630E-16
7.648848E+03	1.184927E-14	3.424912E-16
7.658833E+03	1.195285E-14	3.406432E-16
7.668819E+03	1.205630E-14	3.386944E-16
7.678804E+03	1.215888E-14	3.366320E-16
7.688790E+03	1.225925E-14	3.344292E-16
7.698775E+03	1.235705E-14	3.320881E-16
7.708761E+03	1.245072E-14	3.295808E-16
7.718746E+03	1.253969E-14	3.269088E-16
7.728732E+03	1.262262E-14	3.240561E-16
7.738717E+03	1.269901E-14	3.210305E-16
7.748702E+03	1.276799E-14	3.178328E-16
