#wls	flux	fluxerr
1.597671E+03	1.252190E-15	2.643349E-16
1.637612E+03	1.026219E-15	2.152306E-16
1.677554E+03	8.337896E-16	1.737156E-16
1.717496E+03	6.722610E-16	1.391159E-16
1.757438E+03	5.386012E-16	1.106880E-16
1.797379E+03	4.291213E-16	8.756805E-17
1.837321E+03	3.401444E-16	6.891272E-17
1.877263E+03	2.682761E-16	5.395438E-17
1.917205E+03	2.107144E-16	4.206163E-17
1.957146E+03	1.650047E-16	3.268690E-17
1.997088E+03	1.292304E-16	2.540192E-17
2.037030E+03	1.019768E-16	1.988691E-17
2.076972E+03	8.222357E-17	1.590617E-17
2.116914E+03	6.903162E-17	1.324521E-17
2.156855E+03	6.146008E-17	1.169450E-17
2.196797E+03	5.849451E-17	1.103610E-17
2.236739E+03	5.925882E-17	1.108402E-17
2.276681E+03	6.310925E-17	1.170067E-17
2.316622E+03	6.972728E-17	1.281204E-17
2.356564E+03	7.909012E-17	1.439969E-17
2.396506E+03	9.141774E-17	1.648876E-17
2.436448E+03	1.070886E-16	1.913075E-17
2.476389E+03	1.265667E-16	2.238908E-17
2.516331E+03	1.502157E-16	2.630571E-17
2.556273E+03	1.783036E-16	3.090257E-17
2.596215E+03	2.108202E-16	3.615105E-17
2.636156E+03	2.473954E-16	4.196049E-17
2.676098E+03	2.874753E-16	4.821117E-17
2.716040E+03	3.301156E-16	5.472179E-17
2.755982E+03	3.743128E-16	6.130792E-17
2.795924E+03	4.188657E-16	6.776034E-17
2.835865E+03	4.626864E-16	7.389723E-17
2.875807E+03	5.048161E-16	7.956594E-17
2.915749E+03	5.443650E-16	8.463282E-17
2.955691E+03	5.810131E-16	8.905958E-17
2.995632E+03	6.146268E-16	9.283954E-17
3.005618E+03	6.225160E-16	9.367919E-17
3.015603E+03	6.303367E-16	9.449781E-17
3.025589E+03	6.379326E-16	9.527210E-17
3.035574E+03	6.454068E-16	9.601771E-17
3.045560E+03	6.528115E-16	9.674249E-17
3.055545E+03	6.602157E-16	9.745669E-17
3.065530E+03	6.676145E-16	9.815953E-17
3.075516E+03	6.750892E-16	9.886282E-17
3.085501E+03	6.824708E-16	9.954173E-17
3.095487E+03	6.898438E-16	1.002086E-16
3.105472E+03	6.972946E-16	1.008759E-16
3.115458E+03	7.047431E-16	1.015318E-16
3.125443E+03	7.121940E-16	1.021770E-16
3.135429E+03	7.197394E-16	1.028245E-16
3.145414E+03	7.273019E-16	1.034631E-16
3.155399E+03	7.349770E-16	1.041062E-16
3.165385E+03	7.426881E-16	1.047427E-16
3.175370E+03	7.506215E-16	1.053986E-16
3.185356E+03	7.586153E-16	1.060509E-16
3.195341E+03	7.666828E-16	1.067011E-16
3.205327E+03	7.750136E-16	1.073752E-16
3.215312E+03	7.835364E-16	1.080630E-16
3.225298E+03	7.922666E-16	1.087661E-16
3.235283E+03	8.012216E-16	1.094863E-16
3.245268E+03	8.105080E-16	1.102377E-16
3.255254E+03	8.200555E-16	1.110100E-16
3.265239E+03	8.299727E-16	1.118172E-16
3.275225E+03	8.401896E-16	1.126491E-16
3.285210E+03	8.509060E-16	1.135318E-16
3.295196E+03	8.619637E-16	1.144432E-16
3.305181E+03	8.734740E-16	1.153971E-16
3.315166E+03	8.854588E-16	1.163954E-16
3.325152E+03	8.980313E-16	1.174520E-16
3.335137E+03	9.111240E-16	1.185567E-16
3.345123E+03	9.248512E-16	1.197231E-16
3.355108E+03	9.391448E-16	1.209412E-16
3.365094E+03	9.541203E-16	1.222243E-16
3.375079E+03	9.698017E-16	1.235742E-16
3.385065E+03	9.863062E-16	1.250039E-16
3.395050E+03	1.003564E-15	1.265030E-16
3.405035E+03	1.021599E-15	1.280726E-16
3.415021E+03	1.040527E-15	1.297256E-16
3.425006E+03	1.060275E-15	1.314507E-16
3.434992E+03	1.081055E-15	1.332722E-16
3.444977E+03	1.102790E-15	1.351784E-16
3.454963E+03	1.125497E-15	1.371692E-16
3.464948E+03	1.149190E-15	1.392439E-16
3.474934E+03	1.174076E-15	1.414253E-16
3.484919E+03	1.199964E-15	1.436876E-16
3.494904E+03	1.226944E-15	1.460395E-16
3.504890E+03	1.255003E-15	1.484765E-16
3.514875E+03	1.284113E-15	1.509930E-16
3.524861E+03	1.314335E-15	1.535935E-16
3.534846E+03	1.345616E-15	1.562692E-16
3.544832E+03	1.377790E-15	1.589984E-16
3.554817E+03	1.410993E-15	1.617945E-16
3.564803E+03	1.444935E-15	1.646219E-16
3.574788E+03	1.479737E-15	1.674925E-16
3.584773E+03	1.515312E-15	1.703944E-16
3.594759E+03	1.551459E-15	1.733030E-16
3.604744E+03	1.588182E-15	1.762172E-16
3.614730E+03	1.625374E-15	1.791239E-16
3.624715E+03	1.662813E-15	1.819972E-16
3.634701E+03	1.700702E-15	1.848586E-16
3.644686E+03	1.738588E-15	1.876578E-16
3.654671E+03	1.776561E-15	1.904041E-16
3.664657E+03	1.814495E-15	1.930840E-16
3.674642E+03	1.852186E-15	1.956757E-16
3.684628E+03	1.889781E-15	1.981948E-16
3.694613E+03	1.927023E-15	2.006147E-16
3.704599E+03	1.964080E-15	2.029535E-16
3.714584E+03	2.001181E-15	2.052346E-16
3.724570E+03	2.038389E-15	2.074646E-16
3.734555E+03	2.075998E-15	2.096725E-16
3.744540E+03	2.114475E-15	2.119040E-16
3.754526E+03	2.154108E-15	2.141856E-16
3.764511E+03	2.195461E-15	2.165703E-16
3.774497E+03	2.238905E-15	2.190899E-16
3.784482E+03	2.285016E-15	2.217956E-16
3.794468E+03	2.334183E-15	2.247180E-16
3.804453E+03	2.386745E-15	2.278823E-16
3.814439E+03	2.442856E-15	2.312948E-16
3.824424E+03	2.502792E-15	2.349730E-16
3.834409E+03	2.566272E-15	2.388812E-16
3.844395E+03	2.633212E-15	2.430032E-16
3.854380E+03	2.703177E-15	2.472907E-16
3.864366E+03	2.775456E-15	2.516720E-16
3.874351E+03	2.849559E-15	2.560975E-16
3.884337E+03	2.924420E-15	2.604675E-16
3.894322E+03	2.999207E-15	2.647069E-16
3.904308E+03	3.072921E-15	2.687287E-16
3.914293E+03	3.144476E-15	2.724413E-16
3.924278E+03	3.213013E-15	2.757765E-16
3.934264E+03	3.277475E-15	2.786519E-16
3.944249E+03	3.337177E-15	2.810197E-16
3.954235E+03	3.391289E-15	2.828230E-16
3.964220E+03	3.439222E-15	2.840268E-16
3.974206E+03	3.480632E-15	2.846184E-16
3.984191E+03	3.515337E-15	2.845996E-16
3.994176E+03	3.543324E-15	2.839859E-16
4.004162E+03	3.564741E-15	2.828061E-16
4.014147E+03	3.580123E-15	2.811188E-16
4.024133E+03	3.589806E-15	2.789651E-16
4.034118E+03	3.594716E-15	2.764307E-16
4.044104E+03	3.595537E-15	2.735800E-16
4.054089E+03	3.592994E-15	2.704781E-16
4.064075E+03	3.588026E-15	2.672037E-16
4.074060E+03	3.581361E-15	2.638167E-16
4.084045E+03	3.573791E-15	2.603797E-16
4.094031E+03	3.566035E-15	2.569475E-16
4.104016E+03	3.558660E-15	2.535614E-16
4.114002E+03	3.552247E-15	2.502622E-16
4.123987E+03	3.547220E-15	2.470778E-16
4.133973E+03	3.543826E-15	2.440226E-16
4.143958E+03	3.542379E-15	2.411149E-16
4.153944E+03	3.542831E-15	2.383478E-16
4.163929E+03	3.545035E-15	2.357078E-16
4.173914E+03	3.548935E-15	2.331879E-16
4.183900E+03	3.554190E-15	2.307632E-16
4.193885E+03	3.560400E-15	2.284057E-16
4.203871E+03	3.567281E-15	2.260965E-16
4.213856E+03	3.574280E-15	2.238003E-16
4.223842E+03	3.581049E-15	2.214967E-16
4.233827E+03	3.587089E-15	2.191569E-16
4.243813E+03	3.591926E-15	2.167552E-16
4.253798E+03	3.595250E-15	2.142773E-16
4.263783E+03	3.596647E-15	2.117033E-16
4.273769E+03	3.595857E-15	2.090239E-16
4.283754E+03	3.592561E-15	2.062269E-16
4.293740E+03	3.586802E-15	2.033214E-16
4.303725E+03	3.578792E-15	2.003261E-16
4.313711E+03	3.569003E-15	1.972729E-16
4.323696E+03	3.558082E-15	1.942024E-16
4.333681E+03	3.547278E-15	1.911854E-16
4.343667E+03	3.537815E-15	1.882882E-16
4.353652E+03	3.531414E-15	1.855998E-16
4.363638E+03	3.529936E-15	1.832123E-16
4.373623E+03	3.535326E-15	1.812175E-16
4.383609E+03	3.549804E-15	1.797162E-16
4.393594E+03	3.575417E-15	1.787962E-16
4.403580E+03	3.614235E-15	1.785416E-16
4.413565E+03	3.668291E-15	1.790310E-16
4.423550E+03	3.739244E-15	1.803216E-16
4.433536E+03	3.828678E-15	1.824640E-16
4.443521E+03	3.937998E-15	1.854992E-16
4.453507E+03	4.068239E-15	1.894494E-16
4.463492E+03	4.219964E-15	1.943150E-16
4.473478E+03	4.393803E-15	2.001007E-16
4.483463E+03	4.589533E-15	2.067739E-16
4.493449E+03	4.806676E-15	2.142938E-16
4.503434E+03	5.043984E-15	2.225891E-16
4.513419E+03	5.299144E-15	2.315468E-16
4.523405E+03	5.568859E-15	2.410179E-16
4.533390E+03	5.848521E-15	2.508048E-16
4.543376E+03	6.132483E-15	2.606750E-16
4.553361E+03	6.413644E-15	2.703440E-16
4.563347E+03	6.684044E-15	2.795020E-16
4.573332E+03	6.935494E-15	2.878393E-16
4.583318E+03	7.159754E-15	2.950498E-16
4.593303E+03	7.348861E-15	3.008413E-16
4.603288E+03	7.496563E-15	3.049948E-16
4.613274E+03	7.598136E-15	3.073541E-16
4.623259E+03	7.650932E-15	3.078454E-16
4.633245E+03	7.655601E-15	3.065235E-16
4.643230E+03	7.615108E-15	3.035294E-16
4.653216E+03	7.534214E-15	2.990687E-16
4.663201E+03	7.420435E-15	2.934486E-16
4.673186E+03	7.282080E-15	2.870003E-16
4.683172E+03	7.127766E-15	2.800605E-16
4.693157E+03	6.966388E-15	2.729712E-16
4.703143E+03	6.806161E-15	2.660443E-16
4.713128E+03	6.654358E-15	2.595517E-16
4.723114E+03	6.516757E-15	2.537058E-16
4.733099E+03	6.398025E-15	2.486756E-16
4.743085E+03	6.301858E-15	2.445923E-16
4.753070E+03	6.230207E-15	2.415205E-16
4.763055E+03	6.184354E-15	2.394999E-16
4.773041E+03	6.164787E-15	2.385408E-16
4.783026E+03	6.170713E-15	2.386050E-16
4.793012E+03	6.200904E-15	2.396388E-16
4.802997E+03	6.253820E-15	2.415772E-16
4.812983E+03	6.327699E-15	2.443476E-16
4.822968E+03	6.420567E-15	2.478697E-16
4.832954E+03	6.530061E-15	2.520485E-16
4.842939E+03	6.653586E-15	2.567804E-16
4.852924E+03	6.788238E-15	2.619502E-16
4.862910E+03	6.930262E-15	2.674095E-16
4.872895E+03	7.075007E-15	2.729756E-16
4.882881E+03	7.217011E-15	2.784344E-16
4.892866E+03	7.350426E-15	2.835568E-16
4.902852E+03	7.468494E-15	2.880788E-16
4.912837E+03	7.564646E-15	2.917438E-16
4.922823E+03	7.632836E-15	2.943157E-16
4.932808E+03	7.668592E-15	2.956196E-16
4.942793E+03	7.668884E-15	2.955368E-16
4.952779E+03	7.632747E-15	2.940293E-16
4.962764E+03	7.562152E-15	2.911728E-16
4.972750E+03	7.461023E-15	2.871187E-16
4.982735E+03	7.334380E-15	2.820615E-16
4.992721E+03	7.188690E-15	2.762515E-16
5.002706E+03	7.030830E-15	2.699546E-16
5.012691E+03	6.867569E-15	2.634326E-16
5.022677E+03	6.705243E-15	2.569299E-16
5.032662E+03	6.549630E-15	2.506689E-16
5.042648E+03	6.405695E-15	2.448398E-16
5.052633E+03	6.277298E-15	2.395898E-16
5.062619E+03	6.167690E-15	2.350416E-16
5.072604E+03	6.079544E-15	2.312950E-16
5.082590E+03	6.014799E-15	2.284207E-16
5.092575E+03	5.975242E-15	2.264826E-16
5.102560E+03	5.962350E-15	2.255319E-16
5.112546E+03	5.977161E-15	2.256021E-16
5.122531E+03	6.020606E-15	2.267217E-16
5.132517E+03	6.093487E-15	2.289135E-16
5.142502E+03	6.196269E-15	2.321867E-16
5.152488E+03	6.329047E-15	2.365360E-16
5.162473E+03	6.492057E-15	2.419607E-16
5.172459E+03	6.684473E-15	2.484202E-16
5.182444E+03	6.905409E-15	2.558714E-16
5.192429E+03	7.153466E-15	2.642526E-16
5.202415E+03	7.426537E-15	2.734764E-16
5.212400E+03	7.722030E-15	2.834385E-16
5.222386E+03	8.036951E-15	2.940211E-16
5.232371E+03	8.367769E-15	3.050887E-16
5.242357E+03	8.710669E-15	3.164973E-16
5.252342E+03	9.061517E-15	3.280939E-16
5.262328E+03	9.416280E-15	3.397319E-16
5.272313E+03	9.771526E-15	3.512886E-16
5.282298E+03	1.012377E-14	3.626423E-16
5.292284E+03	1.047114E-14	3.737313E-16
5.302269E+03	1.081276E-14	3.845309E-16
5.312255E+03	1.114903E-14	3.950628E-16
5.322240E+03	1.148234E-14	4.054199E-16
5.332226E+03	1.181630E-14	4.157370E-16
5.342211E+03	1.215605E-14	4.262018E-16
5.352196E+03	1.250760E-14	4.370306E-16
5.362182E+03	1.287782E-14	4.484684E-16
5.372167E+03	1.327394E-14	4.607700E-16
5.382153E+03	1.370238E-14	4.741601E-16
5.392138E+03	1.416893E-14	4.888413E-16
5.402124E+03	1.467849E-14	5.049855E-16
5.412109E+03	1.523268E-14	5.226511E-16
5.422095E+03	1.582987E-14	5.417891E-16
5.432080E+03	1.646449E-14	5.622182E-16
5.442065E+03	1.712617E-14	5.835987E-16
5.452051E+03	1.780045E-14	6.054574E-16
5.462036E+03	1.846947E-14	6.272107E-16
5.472022E+03	1.911267E-14	6.481880E-16
5.482007E+03	1.970692E-14	6.676270E-16
5.491993E+03	2.022960E-14	6.847745E-16
5.501978E+03	2.066010E-14	6.989430E-16
5.511964E+03	2.098005E-14	7.095169E-16
5.521949E+03	2.117552E-14	7.160264E-16
5.531934E+03	2.123959E-14	7.182319E-16
5.541920E+03	2.117071E-14	7.160717E-16
5.551905E+03	2.097312E-14	7.096733E-16
5.561891E+03	2.065696E-14	6.993617E-16
5.571876E+03	2.023713E-14	6.856195E-16
5.581862E+03	1.973148E-14	6.690294E-16
5.591847E+03	1.916062E-14	6.502680E-16
5.601833E+03	1.854617E-14	6.300485E-16
5.611818E+03	1.790965E-14	6.090840E-16
5.621803E+03	1.727184E-14	5.880668E-16
5.631789E+03	1.665188E-14	5.676371E-16
5.641774E+03	1.606636E-14	5.483540E-16
5.651760E+03	1.552864E-14	5.306685E-16
5.661745E+03	1.505002E-14	5.149672E-16
5.671731E+03	1.463833E-14	5.015187E-16
5.681716E+03	1.429822E-14	4.904863E-16
5.691701E+03	1.403174E-14	4.819449E-16
5.701687E+03	1.383923E-14	4.759122E-16
5.711672E+03	1.371716E-14	4.722719E-16
5.721658E+03	1.366067E-14	4.708618E-16
5.731643E+03	1.366329E-14	4.714629E-16
5.741629E+03	1.371523E-14	4.737402E-16
5.751614E+03	1.380531E-14	4.773095E-16
5.761600E+03	1.392168E-14	4.817609E-16
5.771585E+03	1.405102E-14	4.866323E-16
5.781570E+03	1.418004E-14	4.914613E-16
5.791556E+03	1.429519E-14	4.957747E-16
5.801541E+03	1.438455E-14	4.991558E-16
5.811527E+03	1.443772E-14	5.012398E-16
5.821512E+03	1.444560E-14	5.017080E-16
5.831498E+03	1.440361E-14	5.003982E-16
5.841483E+03	1.430931E-14	4.972253E-16
5.851469E+03	1.416262E-14	4.921861E-16
5.861454E+03	1.396638E-14	4.853803E-16
5.871439E+03	1.372515E-14	4.769697E-16
5.881425E+03	1.344465E-14	4.671560E-16
5.891410E+03	1.313155E-14	4.561763E-16
5.901396E+03	1.279312E-14	4.442876E-16
5.911381E+03	1.243671E-14	4.317507E-16
5.921367E+03	1.206984E-14	4.188328E-16
5.931352E+03	1.169956E-14	4.057838E-16
5.941338E+03	1.133279E-14	3.928485E-16
5.951323E+03	1.097552E-14	3.802391E-16
5.961308E+03	1.063346E-14	3.681582E-16
5.971294E+03	1.031133E-14	3.567726E-16
5.981279E+03	1.001300E-14	3.462187E-16
5.991265E+03	9.741358E-15	3.365990E-16
6.001250E+03	9.498516E-15	3.279888E-16
6.011236E+03	9.285154E-15	3.204131E-16
6.021221E+03	9.101390E-15	3.138779E-16
6.031207E+03	8.946626E-15	3.083642E-16
6.041192E+03	8.819668E-15	3.038329E-16
6.051177E+03	8.718949E-15	3.002323E-16
6.061163E+03	8.642674E-15	2.975034E-16
6.071148E+03	8.588516E-15	2.955695E-16
6.081134E+03	8.554160E-15	2.943547E-16
6.091119E+03	8.536906E-15	2.937705E-16
6.101105E+03	8.534163E-15	2.937331E-16
6.111090E+03	8.543153E-15	2.941523E-16
6.121075E+03	8.561142E-15	2.949402E-16
6.131061E+03	8.585113E-15	2.959994E-16
6.141046E+03	8.612212E-15	2.972382E-16
6.151032E+03	8.639620E-15	2.985659E-16
6.161017E+03	8.664214E-15	2.998812E-16
6.171003E+03	8.683379E-15	3.010995E-16
6.180988E+03	8.694627E-15	3.021398E-16
6.190974E+03	8.696505E-15	3.029560E-16
6.200959E+03	8.688283E-15	3.035258E-16
6.210944E+03	8.670016E-15	3.038536E-16
6.220930E+03	8.643798E-15	3.040145E-16
6.230915E+03	8.612745E-15	3.041198E-16
6.240901E+03	8.580801E-15	3.043109E-16
6.250886E+03	8.553034E-15	3.047717E-16
6.260872E+03	8.535309E-15	3.057168E-16
6.270857E+03	8.533017E-15	3.073435E-16
6.280843E+03	8.551273E-15	3.098415E-16
6.290828E+03	8.594910E-15	3.133962E-16
6.300813E+03	8.668015E-15	3.181717E-16
6.310799E+03	8.773499E-15	3.242947E-16
6.320784E+03	8.913637E-15	3.318734E-16
6.330770E+03	9.090224E-15	3.410025E-16
6.340755E+03	9.303891E-15	3.517368E-16
6.350741E+03	9.554710E-15	3.641123E-16
6.360726E+03	9.842009E-15	3.781386E-16
6.370712E+03	1.016427E-14	3.937929E-16
6.380697E+03	1.051892E-14	4.110103E-16
6.390682E+03	1.090224E-14	4.296783E-16
6.400668E+03	1.130897E-14	4.496191E-16
6.410653E+03	1.173195E-14	4.705713E-16
6.420639E+03	1.216256E-14	4.922037E-16
6.430624E+03	1.259129E-14	5.141361E-16
6.440610E+03	1.300789E-14	5.359437E-16
6.450595E+03	1.340124E-14	5.571487E-16
6.460580E+03	1.376156E-14	5.773114E-16
6.470566E+03	1.407899E-14	5.959742E-16
6.480551E+03	1.434425E-14	6.126860E-16
6.490537E+03	1.455039E-14	6.270822E-16
6.500522E+03	1.469107E-14	6.388124E-16
6.510508E+03	1.476230E-14	6.476191E-16
6.520493E+03	1.476178E-14	6.533126E-16
6.530479E+03	1.468970E-14	6.558116E-16
6.540464E+03	1.454765E-14	6.550976E-16
6.550449E+03	1.433976E-14	6.512713E-16
6.560435E+03	1.407109E-14	6.444818E-16
6.570420E+03	1.374869E-14	6.349804E-16
6.580406E+03	1.338033E-14	6.230637E-16
6.590391E+03	1.297450E-14	6.090752E-16
6.600377E+03	1.254025E-14	5.933983E-16
6.610362E+03	1.208645E-14	5.764237E-16
6.620348E+03	1.162185E-14	5.585507E-16
6.630333E+03	1.115441E-14	5.401536E-16
6.640318E+03	1.069148E-14	5.215905E-16
6.650304E+03	1.023937E-14	5.031787E-16
6.660289E+03	9.803283E-15	4.851904E-16
6.670275E+03	9.387397E-15	4.678545E-16
6.680260E+03	8.994712E-15	4.513463E-16
6.690246E+03	8.627382E-15	4.358026E-16
6.700231E+03	8.286687E-15	4.213177E-16
6.710217E+03	7.972941E-15	4.079383E-16
6.720202E+03	7.686007E-15	3.956874E-16
6.730187E+03	7.425048E-15	3.845508E-16
6.740173E+03	7.188991E-15	3.745004E-16
6.750158E+03	6.976489E-15	3.654916E-16
6.760144E+03	6.785841E-15	3.574589E-16
6.770129E+03	6.615436E-15	3.503385E-16
6.780115E+03	6.463527E-15	3.440573E-16
6.790100E+03	6.328598E-15	3.385516E-16
6.800085E+03	6.208946E-15	3.337453E-16
6.810071E+03	6.102971E-15	3.295658E-16
6.820056E+03	6.009416E-15	3.259568E-16
6.830042E+03	5.926914E-15	3.228540E-16
6.840027E+03	5.854232E-15	3.201990E-16
6.850013E+03	5.790313E-15	3.179414E-16
6.859998E+03	5.734169E-15	3.160331E-16
6.869984E+03	5.684875E-15	3.144287E-16
6.879969E+03	5.641709E-15	3.130926E-16
6.889954E+03	5.603869E-15	3.119841E-16
6.899940E+03	5.570684E-15	3.110690E-16
6.909925E+03	5.541630E-15	3.103206E-16
6.919911E+03	5.516246E-15	3.097152E-16
6.929896E+03	5.494157E-15	3.092335E-16
6.939882E+03	5.475182E-15	3.088668E-16
6.949867E+03	5.459227E-15	3.086110E-16
6.959853E+03	5.446292E-15	3.084670E-16
6.969838E+03	5.436651E-15	3.084516E-16
6.979823E+03	5.430406E-15	3.085711E-16
6.989809E+03	5.428109E-15	3.088577E-16
6.999794E+03	5.430105E-15	3.093316E-16
7.009780E+03	5.436984E-15	3.100269E-16
7.019765E+03	5.449274E-15	3.109740E-16
7.029751E+03	5.467428E-15	3.121987E-16
7.039736E+03	5.491960E-15	3.137301E-16
7.049722E+03	5.523331E-15	3.155940E-16
7.059707E+03	5.561875E-15	3.178085E-16
7.069692E+03	5.607863E-15	3.203875E-16
7.079678E+03	5.661482E-15	3.233398E-16
7.089663E+03	5.722712E-15	3.266619E-16
7.099649E+03	5.791288E-15	3.303358E-16
7.109634E+03	5.867190E-15	3.343570E-16
7.119620E+03	5.949760E-15	3.386843E-16
7.129605E+03	6.038501E-15	3.432853E-16
7.139590E+03	6.132672E-15	3.481135E-16
7.149576E+03	6.231607E-15	3.531267E-16
7.159561E+03	6.334172E-15	3.582560E-16
7.169547E+03	6.439477E-15	3.634466E-16
7.179532E+03	6.546663E-15	3.686457E-16
7.189518E+03	6.654511E-15	3.737806E-16
7.199503E+03	6.762316E-15	3.788081E-16
7.209489E+03	6.869035E-15	3.836665E-16
7.219474E+03	6.974002E-15	3.883159E-16
7.229459E+03	7.076455E-15	3.927117E-16
7.239445E+03	7.176045E-15	3.968328E-16
7.249430E+03	7.272234E-15	4.006485E-16
7.259416E+03	7.364947E-15	4.041539E-16
7.269401E+03	7.453804E-15	4.073279E-16
7.279387E+03	7.538936E-15	4.101778E-16
7.289372E+03	7.620251E-15	4.126992E-16
7.299358E+03	7.697689E-15	4.148897E-16
7.309343E+03	7.771007E-15	4.167373E-16
7.319328E+03	7.840280E-15	4.182481E-16
7.329314E+03	7.905126E-15	4.194035E-16
7.339299E+03	7.965179E-15	4.201871E-16
7.349285E+03	8.019930E-15	4.205757E-16
7.359270E+03	8.068851E-15	4.205460E-16
7.369256E+03	8.111495E-15	4.200801E-16
7.379241E+03	8.147239E-15	4.191522E-16
7.389227E+03	8.175706E-15	4.177503E-16
7.399212E+03	8.196594E-15	4.158673E-16
7.409197E+03	8.209829E-15	4.135086E-16
7.419183E+03	8.215768E-15	4.107018E-16
7.429168E+03	8.215035E-15	4.074876E-16
7.439154E+03	8.208507E-15	4.039188E-16
7.449139E+03	8.197643E-15	4.000755E-16
7.459125E+03	8.184136E-15	3.960474E-16
7.469110E+03	8.169858E-15	3.919300E-16
7.479095E+03	8.157043E-15	3.878333E-16
7.489081E+03	8.148023E-15	3.838680E-16
7.499066E+03	8.144981E-15	3.801341E-16
7.509052E+03	8.150336E-15	3.767384E-16
7.519037E+03	8.165960E-15	3.737584E-16
7.529023E+03	8.193907E-15	3.712762E-16
7.539008E+03	8.235340E-15	3.693300E-16
7.548994E+03	8.291212E-15	3.679467E-16
7.558979E+03	8.362214E-15	3.671396E-16
7.568964E+03	8.447982E-15	3.668749E-16
7.578950E+03	8.547931E-15	3.671103E-16
7.588935E+03	8.661031E-15	3.677860E-16
7.598921E+03	8.785624E-15	3.688180E-16
7.608906E+03	8.919665E-15	3.701103E-16
7.618892E+03	9.060763E-15	3.715571E-16
7.628877E+03	9.206201E-15	3.730451E-16
7.638863E+03	9.352671E-15	3.744434E-16
7.648848E+03	9.496885E-15	3.756295E-16
7.658833E+03	9.635180E-15	3.764735E-16
7.668819E+03	9.764130E-15	3.768626E-16
7.678804E+03	9.879819E-15	3.766732E-16
7.688790E+03	9.979049E-15	3.758165E-16
7.698775E+03	1.005882E-14	3.742177E-16
7.708761E+03	1.011604E-14	3.718046E-16
7.718746E+03	1.014884E-14	3.685550E-16
7.728732E+03	1.015547E-14	3.644532E-16
7.738717E+03	1.013486E-14	3.595100E-16
7.748702E+03	1.008687E-14	3.537696E-16
