#wls	flux	fluxerr
1.597671E+03	1.208695E-15	2.487232E-16
1.637612E+03	9.981672E-16	2.041324E-16
1.677554E+03	8.178498E-16	1.661967E-16
1.717496E+03	6.656168E-16	1.343826E-16
1.757438E+03	5.386944E-16	1.080338E-16
1.797379E+03	4.336833E-16	8.638054E-17
1.837321E+03	3.476286E-16	6.875602E-17
1.877263E+03	2.773941E-16	5.447153E-17
1.917205E+03	2.204989E-16	4.298129E-17
1.957146E+03	1.747287E-16	3.380340E-17
1.997088E+03	1.384576E-16	2.658015E-17
2.037030E+03	1.105141E-16	2.104857E-17
2.076972E+03	9.002464E-17	1.700784E-17
2.116914E+03	7.626661E-17	1.428965E-17
2.156855E+03	6.838690E-17	1.270496E-17
2.196797E+03	6.540535E-17	1.204587E-17
2.236739E+03	6.639130E-17	1.211907E-17
2.276681E+03	7.061560E-17	1.277313E-17
2.316622E+03	7.768471E-17	1.392103E-17
2.356564E+03	8.749694E-17	1.552971E-17
2.396506E+03	1.001761E-16	1.760594E-17
2.436448E+03	1.160301E-16	2.018710E-17
2.476389E+03	1.354100E-16	2.331523E-17
2.516331E+03	1.586260E-16	2.702220E-17
2.556273E+03	1.858193E-16	3.130829E-17
2.596215E+03	2.169613E-16	3.614354E-17
2.636156E+03	2.517345E-16	4.144975E-17
2.676098E+03	2.895330E-16	4.710333E-17
2.716040E+03	3.296889E-16	5.297463E-17
2.755982E+03	3.712643E-16	5.889586E-17
2.795924E+03	4.132855E-16	6.470073E-17
2.835865E+03	4.548519E-16	7.024212E-17
2.875807E+03	4.951012E-16	7.538624E-17
2.915749E+03	5.334892E-16	8.005472E-17
2.955691E+03	5.696451E-16	8.419993E-17
2.995632E+03	6.034636E-16	8.781673E-17
3.005618E+03	6.115800E-16	8.864361E-17
3.015603E+03	6.195836E-16	8.944313E-17
3.025589E+03	6.274800E-16	9.021623E-17
3.035574E+03	6.352896E-16	9.096595E-17
3.045560E+03	6.430625E-16	9.169951E-17
3.055545E+03	6.508659E-16	9.242648E-17
3.065530E+03	6.586935E-16	9.314581E-17
3.075516E+03	6.665416E-16	9.385689E-17
3.085501E+03	6.744926E-16	9.457118E-17
3.095487E+03	6.823757E-16	9.526454E-17
3.105472E+03	6.904486E-16	9.597288E-17
3.115458E+03	6.984556E-16	9.666040E-17
3.125443E+03	7.065732E-16	9.735144E-17
3.135429E+03	7.148065E-16	9.804647E-17
3.145414E+03	7.230752E-16	9.873420E-17
3.155399E+03	7.313862E-16	9.941546E-17
3.165385E+03	7.399243E-16	1.001151E-16
3.175370E+03	7.485234E-16	1.008102E-16
3.185356E+03	7.572827E-16	1.015140E-16
3.195341E+03	7.662143E-16	1.022276E-16
3.205327E+03	7.754212E-16	1.029644E-16
3.215312E+03	7.847378E-16	1.037018E-16
3.225298E+03	7.942686E-16	1.044533E-16
3.235283E+03	8.041191E-16	1.052323E-16
3.245268E+03	8.142160E-16	1.060284E-16
3.255254E+03	8.246674E-16	1.068552E-16
3.265239E+03	8.354000E-16	1.077024E-16
3.275225E+03	8.466154E-16	1.085952E-16
3.285210E+03	8.580590E-16	1.095002E-16
3.295196E+03	8.700253E-16	1.104541E-16
3.305181E+03	8.824446E-16	1.114470E-16
3.315166E+03	8.953377E-16	1.124806E-16
3.325152E+03	9.087266E-16	1.135565E-16
3.335137E+03	9.227280E-16	1.146882E-16
3.345123E+03	9.372712E-16	1.158656E-16
3.355108E+03	9.523802E-16	1.170904E-16
3.365094E+03	9.682677E-16	1.183874E-16
3.375079E+03	9.847691E-16	1.197349E-16
3.385065E+03	1.002100E-15	1.211576E-16
3.395050E+03	1.020190E-15	1.226450E-16
3.405035E+03	1.039063E-15	1.241986E-16
3.415021E+03	1.058742E-15	1.258191E-16
3.425006E+03	1.079348E-15	1.275192E-16
3.434992E+03	1.100904E-15	1.292993E-16
3.444977E+03	1.123427E-15	1.311595E-16
3.454963E+03	1.146936E-15	1.330995E-16
3.464948E+03	1.171440E-15	1.351185E-16
3.474934E+03	1.196948E-15	1.372150E-16
3.484919E+03	1.223560E-15	1.393980E-16
3.494904E+03	1.251268E-15	1.416643E-16
3.504890E+03	1.279950E-15	1.439976E-16
3.514875E+03	1.309785E-15	1.464156E-16
3.524861E+03	1.340523E-15	1.488879E-16
3.534846E+03	1.372428E-15	1.514414E-16
3.544832E+03	1.405119E-15	1.540316E-16
3.554817E+03	1.438732E-15	1.566716E-16
3.564803E+03	1.473186E-15	1.593502E-16
3.574788E+03	1.508495E-15	1.620671E-16
3.584773E+03	1.544341E-15	1.647861E-16
3.594759E+03	1.580723E-15	1.675058E-16
3.604744E+03	1.617637E-15	1.702243E-16
3.614730E+03	1.654964E-15	1.729278E-16
3.624715E+03	1.692468E-15	1.755909E-16
3.634701E+03	1.730251E-15	1.782234E-16
3.644686E+03	1.767970E-15	1.807893E-16
3.654671E+03	1.805739E-15	1.833004E-16
3.664657E+03	1.843356E-15	1.857359E-16
3.674642E+03	1.880756E-15	1.880896E-16
3.684628E+03	1.918138E-15	1.903815E-16
3.694613E+03	1.955295E-15	1.925911E-16
3.704599E+03	1.992415E-15	1.947373E-16
3.714584E+03	2.029633E-15	1.968330E-16
3.724570E+03	2.067147E-15	1.988970E-16
3.734555E+03	2.105217E-15	2.009533E-16
3.744540E+03	2.144267E-15	2.030408E-16
3.754526E+03	2.184653E-15	2.051906E-16
3.764511E+03	2.226641E-15	2.074242E-16
3.774497E+03	2.270616E-15	2.097736E-16
3.784482E+03	2.317168E-15	2.122880E-16
3.794468E+03	2.366394E-15	2.149703E-16
3.804453E+03	2.418772E-15	2.178573E-16
3.814439E+03	2.474236E-15	2.209359E-16
3.824424E+03	2.533058E-15	2.242228E-16
3.834409E+03	2.595041E-15	2.276928E-16
3.844395E+03	2.659957E-15	2.313189E-16
3.854380E+03	2.727429E-15	2.350616E-16
3.864366E+03	2.797051E-15	2.388803E-16
3.874351E+03	2.868054E-15	2.427051E-16
3.884337E+03	2.939668E-15	2.464681E-16
3.894322E+03	3.011149E-15	2.501063E-16
3.904308E+03	3.081462E-15	2.535349E-16
3.914293E+03	3.149778E-15	2.566893E-16
3.924278E+03	3.214928E-15	2.594802E-16
3.934264E+03	3.276376E-15	2.618722E-16
3.944249E+03	3.332964E-15	2.637829E-16
3.954235E+03	3.384124E-15	2.651794E-16
3.964220E+03	3.429431E-15	2.660419E-16
3.974206E+03	3.468397E-15	2.663471E-16
3.984191E+03	3.500727E-15	2.660880E-16
3.994176E+03	3.526657E-15	2.652984E-16
4.004162E+03	3.546160E-15	2.639916E-16
4.014147E+03	3.559717E-15	2.622189E-16
4.024133E+03	3.567741E-15	2.600248E-16
4.034118E+03	3.570984E-15	2.574769E-16
4.044104E+03	3.570071E-15	2.546315E-16
4.054089E+03	3.565788E-15	2.515544E-16
4.064075E+03	3.558844E-15	2.483034E-16
4.074060E+03	3.550137E-15	2.449473E-16
4.084045E+03	3.540427E-15	2.415424E-16
4.094031E+03	3.530227E-15	2.381265E-16
4.104016E+03	3.520348E-15	2.347551E-16
4.114002E+03	3.511046E-15	2.314452E-16
4.123987E+03	3.502925E-15	2.282352E-16
4.133973E+03	3.496284E-15	2.251426E-16
4.143958E+03	3.491058E-15	2.221603E-16
4.153944E+03	3.487485E-15	2.193009E-16
4.163929E+03	3.485442E-15	2.165537E-16
4.173914E+03	3.484705E-15	2.139024E-16
4.183900E+03	3.485127E-15	2.113359E-16
4.193885E+03	3.486250E-15	2.088251E-16
4.203871E+03	3.487798E-15	2.063532E-16
4.213856E+03	3.489233E-15	2.038886E-16
4.223842E+03	3.490231E-15	2.014138E-16
4.233827E+03	3.490323E-15	1.989042E-16
4.243813E+03	3.489149E-15	1.963426E-16
4.253798E+03	3.486267E-15	1.937081E-16
4.263783E+03	3.481533E-15	1.909976E-16
4.273769E+03	3.474783E-15	1.882070E-16
4.283754E+03	3.466004E-15	1.853411E-16
4.293740E+03	3.455439E-15	1.824180E-16
4.303725E+03	3.443478E-15	1.794625E-16
4.313711E+03	3.430809E-15	1.765139E-16
4.323696E+03	3.418300E-15	1.736189E-16
4.333681E+03	3.407060E-15	1.708336E-16
4.343667E+03	3.398535E-15	1.682284E-16
4.353652E+03	3.394125E-15	1.658676E-16
4.363638E+03	3.395676E-15	1.638339E-16
4.373623E+03	3.404905E-15	1.621995E-16
4.383609E+03	3.423647E-15	1.610384E-16
4.393594E+03	3.453855E-15	1.604264E-16
4.403580E+03	3.497217E-15	1.604235E-16
4.413565E+03	3.555608E-15	1.610950E-16
4.423550E+03	3.630545E-15	1.624873E-16
4.433536E+03	3.723472E-15	1.646416E-16
4.443521E+03	3.835481E-15	1.675819E-16
4.453507E+03	3.967545E-15	1.713271E-16
4.463492E+03	4.120265E-15	1.758796E-16
4.473478E+03	4.293844E-15	1.812261E-16
4.483463E+03	4.488184E-15	1.873427E-16
4.493449E+03	4.702768E-15	1.941904E-16
4.503434E+03	4.936242E-15	2.016995E-16
4.513419E+03	5.186412E-15	2.097708E-16
4.523405E+03	5.450013E-15	2.182681E-16
4.533390E+03	5.722629E-15	2.270166E-16
4.543376E+03	5.998691E-15	2.358043E-16
4.553361E+03	6.271576E-15	2.443872E-16
4.563347E+03	6.533885E-15	2.525002E-16
4.573332E+03	6.777759E-15	2.598688E-16
4.583318E+03	6.995434E-15	2.662253E-16
4.593303E+03	7.179741E-15	2.713292E-16
4.603288E+03	7.324721E-15	2.749889E-16
4.613274E+03	7.426165E-15	2.770794E-16
4.623259E+03	7.482070E-15	2.775567E-16
4.633245E+03	7.492499E-15	2.764499E-16
4.643230E+03	7.460227E-15	2.738833E-16
4.653216E+03	7.389706E-15	2.700362E-16
4.663201E+03	7.287440E-15	2.651565E-16
4.673186E+03	7.160669E-15	2.595118E-16
4.683172E+03	7.017353E-15	2.533902E-16
4.693157E+03	6.865548E-15	2.470777E-16
4.703143E+03	6.712670E-15	2.408333E-16
4.713128E+03	6.565417E-15	2.348873E-16
4.723114E+03	6.429412E-15	2.294295E-16
4.733099E+03	6.309245E-15	2.246119E-16
4.743085E+03	6.208395E-15	2.205468E-16
4.753070E+03	6.129151E-15	2.173041E-16
4.763055E+03	6.072994E-15	2.149259E-16
4.773041E+03	6.040581E-15	2.134258E-16
4.783026E+03	6.031769E-15	2.127901E-16
4.793012E+03	6.046104E-15	2.129950E-16
4.802997E+03	6.082322E-15	2.139889E-16
4.812983E+03	6.138870E-15	2.157108E-16
4.822968E+03	6.213902E-15	2.180901E-16
4.832954E+03	6.304771E-15	2.210287E-16
4.842939E+03	6.408666E-15	2.244233E-16
4.852924E+03	6.522154E-15	2.281493E-16
4.862910E+03	6.641263E-15	2.320637E-16
4.872895E+03	6.761323E-15	2.359998E-16
4.882881E+03	6.877475E-15	2.397849E-16
4.892866E+03	6.984173E-15	2.432233E-16
4.902852E+03	7.076047E-15	2.461260E-16
4.912837E+03	7.148078E-15	2.483176E-16
4.922823E+03	7.195711E-15	2.496397E-16
4.932808E+03	7.215624E-15	2.499782E-16
4.942793E+03	7.205741E-15	2.492629E-16
4.952779E+03	7.165956E-15	2.474930E-16
4.962764E+03	7.097350E-15	2.447093E-16
4.972750E+03	7.003031E-15	2.410232E-16
4.982735E+03	6.887078E-15	2.365790E-16
4.992721E+03	6.754557E-15	2.315551E-16
5.002706E+03	6.611127E-15	2.261489E-16
5.012691E+03	6.462422E-15	2.205563E-16
5.022677E+03	6.314118E-15	2.149729E-16
5.032662E+03	6.171162E-15	2.095681E-16
5.042648E+03	6.038217E-15	2.045000E-16
5.052633E+03	5.919027E-15	1.998940E-16
5.062619E+03	5.816964E-15	1.958610E-16
5.072604E+03	5.734702E-15	1.924871E-16
5.082590E+03	5.674341E-15	1.898377E-16
5.092575E+03	5.637691E-15	1.879669E-16
5.102560E+03	5.626163E-15	1.869145E-16
5.112546E+03	5.640816E-15	1.867073E-16
5.122531E+03	5.682596E-15	1.873671E-16
5.132517E+03	5.752160E-15	1.889057E-16
5.142502E+03	5.849940E-15	1.913262E-16
5.152488E+03	5.976051E-15	1.946209E-16
5.162473E+03	6.130509E-15	1.987784E-16
5.172459E+03	6.312711E-15	2.037670E-16
5.182444E+03	6.521932E-15	2.095511E-16
5.192429E+03	6.756774E-15	2.160738E-16
5.202415E+03	7.015337E-15	2.232633E-16
5.212400E+03	7.295357E-15	2.310374E-16
5.222386E+03	7.594076E-15	2.392997E-16
5.232371E+03	7.908056E-15	2.479351E-16
5.242357E+03	8.233853E-15	2.568305E-16
5.252342E+03	8.567508E-15	2.658600E-16
5.262328E+03	8.905354E-15	2.749096E-16
5.272313E+03	9.243922E-15	2.838748E-16
5.282298E+03	9.580203E-15	2.926679E-16
5.292284E+03	9.912322E-15	3.012387E-16
5.302269E+03	1.023905E-14	3.095584E-16
5.312255E+03	1.056059E-14	3.176428E-16
5.322240E+03	1.087871E-14	3.255554E-16
5.332226E+03	1.119606E-14	3.333854E-16
5.342211E+03	1.151671E-14	3.412635E-16
5.352196E+03	1.184585E-14	3.493526E-16
5.362182E+03	1.218936E-14	3.578327E-16
5.372167E+03	1.255319E-14	3.668850E-16
5.382153E+03	1.294377E-14	3.767031E-16
5.392138E+03	1.336657E-14	3.874511E-16
5.402124E+03	1.382578E-14	3.992563E-16
5.412109E+03	1.432325E-14	4.121794E-16
5.422095E+03	1.485741E-14	4.261845E-16
5.432080E+03	1.542258E-14	4.411233E-16
5.442065E+03	1.600909E-14	4.567372E-16
5.452051E+03	1.660356E-14	4.726681E-16
5.462036E+03	1.718933E-14	4.884693E-16
5.472022E+03	1.774756E-14	5.036335E-16
5.482007E+03	1.825846E-14	5.176163E-16
5.491993E+03	1.870153E-14	5.298475E-16
5.501978E+03	1.905820E-14	5.398083E-16
5.511964E+03	1.931256E-14	5.470491E-16
5.521949E+03	1.945325E-14	5.512428E-16
5.531934E+03	1.947345E-14	5.521843E-16
5.541920E+03	1.937219E-14	5.498277E-16
5.551905E+03	1.915405E-14	5.442793E-16
5.561891E+03	1.882906E-14	5.357966E-16
5.571876E+03	1.841191E-14	5.247680E-16
5.581862E+03	1.792006E-14	5.116608E-16
5.591847E+03	1.737354E-14	4.970193E-16
5.601833E+03	1.679315E-14	4.814128E-16
5.611818E+03	1.619879E-14	4.653911E-16
5.621803E+03	1.560966E-14	4.494897E-16
5.631789E+03	1.504225E-14	4.341720E-16
5.641774E+03	1.451096E-14	4.198480E-16
5.651760E+03	1.402724E-14	4.068476E-16
5.661745E+03	1.359976E-14	3.954241E-16
5.671731E+03	1.323447E-14	3.857563E-16
5.681716E+03	1.293468E-14	3.779486E-16
5.691701E+03	1.270172E-14	3.720482E-16
5.701687E+03	1.253469E-14	3.680390E-16
5.711672E+03	1.243069E-14	3.658457E-16
5.721658E+03	1.238521E-14	3.653441E-16
5.731643E+03	1.239221E-14	3.663639E-16
5.741629E+03	1.244387E-14	3.686802E-16
5.751614E+03	1.253108E-14	3.720275E-16
5.761600E+03	1.264344E-14	3.760995E-16
5.771585E+03	1.277004E-14	3.805712E-16
5.781570E+03	1.289895E-14	3.850857E-16
5.791556E+03	1.301862E-14	3.892946E-16
5.801541E+03	1.311780E-14	3.928567E-16
5.811527E+03	1.318648E-14	3.954670E-16
5.821512E+03	1.321654E-14	3.968754E-16
5.831498E+03	1.320158E-14	3.968847E-16
5.841483E+03	1.313803E-14	3.953819E-16
5.851469E+03	1.302452E-14	3.923228E-16
5.861454E+03	1.286233E-14	3.877425E-16
5.871439E+03	1.265468E-14	3.817380E-16
5.881425E+03	1.240630E-14	3.744518E-16
5.891410E+03	1.212355E-14	3.660786E-16
5.901396E+03	1.181346E-14	3.568334E-16
5.911381E+03	1.148383E-14	3.469558E-16
5.921367E+03	1.114195E-14	3.366712E-16
5.931352E+03	1.079547E-14	3.262158E-16
5.941338E+03	1.045111E-14	3.157980E-16
5.951323E+03	1.011533E-14	3.056184E-16
5.961308E+03	9.793387E-15	2.958404E-16
5.971294E+03	9.489835E-15	2.866067E-16
5.981279E+03	9.208401E-15	2.780340E-16
5.991265E+03	8.951789E-15	2.702078E-16
6.001250E+03	8.721644E-15	2.631812E-16
6.011236E+03	8.519134E-15	2.569927E-16
6.021221E+03	8.344376E-15	2.516490E-16
6.031207E+03	8.197167E-15	2.471470E-16
6.041192E+03	8.076465E-15	2.434582E-16
6.051177E+03	7.980994E-15	2.405476E-16
6.061163E+03	7.909017E-15	2.383664E-16
6.071148E+03	7.858545E-15	2.368583E-16
6.081134E+03	7.827060E-15	2.359520E-16
6.091119E+03	7.812019E-15	2.355755E-16
6.101105E+03	7.810611E-15	2.356494E-16
6.111090E+03	7.819902E-15	2.360908E-16
6.121075E+03	7.836767E-15	2.368113E-16
6.131061E+03	7.858016E-15	2.377206E-16
6.141046E+03	7.880619E-15	2.387335E-16
6.151032E+03	7.901523E-15	2.397634E-16
6.161017E+03	7.918072E-15	2.407354E-16
6.171003E+03	7.927969E-15	2.415847E-16
6.180988E+03	7.929587E-15	2.422661E-16
6.190974E+03	7.921581E-15	2.427419E-16
6.200959E+03	7.903864E-15	2.430118E-16
6.210944E+03	7.877197E-15	2.431010E-16
6.220930E+03	7.843470E-15	2.430690E-16
6.230915E+03	7.805603E-15	2.430074E-16
6.240901E+03	7.767330E-15	2.430346E-16
6.250886E+03	7.732963E-15	2.432885E-16
6.260872E+03	7.707049E-15	2.439153E-16
6.270857E+03	7.694254E-15	2.450634E-16
6.280843E+03	7.699220E-15	2.468851E-16
6.290828E+03	7.725913E-15	2.495156E-16
6.300813E+03	7.778040E-15	2.530870E-16
6.310799E+03	7.858676E-15	2.577159E-16
6.320784E+03	7.970290E-15	2.635037E-16
6.330770E+03	8.114842E-15	2.705395E-16
6.340755E+03	8.293534E-15	2.788907E-16
6.350741E+03	8.507136E-15	2.886129E-16
6.360726E+03	8.755787E-15	2.997432E-16
6.370712E+03	9.038643E-15	3.122855E-16
6.380697E+03	9.354312E-15	3.262252E-16
6.390682E+03	9.699921E-15	3.414946E-16
6.400668E+03	1.007106E-14	3.579680E-16
6.410653E+03	1.046169E-14	3.754554E-16
6.420639E+03	1.086350E-14	3.936766E-16
6.430624E+03	1.126748E-14	4.123131E-16
6.440610E+03	1.166310E-14	4.309782E-16
6.450595E+03	1.203973E-14	4.492639E-16
6.460580E+03	1.238645E-14	4.667357E-16
6.470566E+03	1.269306E-14	4.829692E-16
6.480551E+03	1.295003E-14	4.975497E-16
6.490537E+03	1.314944E-14	5.101094E-16
6.500522E+03	1.328481E-14	5.203252E-16
6.510508E+03	1.335206E-14	5.279580E-16
6.520493E+03	1.334887E-14	5.328324E-16
6.530479E+03	1.327565E-14	5.348802E-16
6.540464E+03	1.313438E-14	5.340977E-16
6.550449E+03	1.292927E-14	5.305762E-16
6.560435E+03	1.266607E-14	5.244778E-16
6.570420E+03	1.235214E-14	5.160422E-16
6.580406E+03	1.199555E-14	5.055500E-16
6.590391E+03	1.160481E-14	4.933141E-16
6.600377E+03	1.118901E-14	4.796864E-16
6.610362E+03	1.075682E-14	4.650147E-16
6.620348E+03	1.031648E-14	4.496408E-16
6.630333E+03	9.875604E-15	4.338925E-16
6.640318E+03	9.440811E-15	4.180647E-16
6.650304E+03	9.017653E-15	4.024143E-16
6.660289E+03	8.610919E-15	3.871718E-16
6.670275E+03	8.224093E-15	3.725153E-16
6.680260E+03	7.859854E-15	3.585906E-16
6.690246E+03	7.519820E-15	3.454982E-16
6.700231E+03	7.204997E-15	3.333120E-16
6.710217E+03	6.915643E-15	3.220715E-16
6.720202E+03	6.651473E-15	3.117910E-16
6.730187E+03	6.411761E-15	3.024627E-16
6.740173E+03	6.195475E-15	2.940628E-16
6.750158E+03	6.001346E-15	2.865542E-16
6.760144E+03	5.828030E-15	2.798942E-16
6.770129E+03	5.673960E-15	2.740270E-16
6.780115E+03	5.537614E-15	2.688966E-16
6.790100E+03	5.417542E-15	2.644483E-16
6.800085E+03	5.312211E-15	2.606213E-16
6.810071E+03	5.220274E-15	2.573615E-16
6.820056E+03	5.140340E-15	2.546113E-16
6.830042E+03	5.071225E-15	2.523211E-16
6.840027E+03	5.011716E-15	2.504386E-16
6.850013E+03	4.960809E-15	2.489206E-16
6.859998E+03	4.917532E-15	2.477239E-16
6.869984E+03	4.880890E-15	2.468033E-16
6.879969E+03	4.850263E-15	2.461315E-16
6.889954E+03	4.824836E-15	2.456707E-16
6.899940E+03	4.804002E-15	2.453925E-16
6.909925E+03	4.787304E-15	2.452759E-16
6.919911E+03	4.774328E-15	2.453014E-16
6.929896E+03	4.764650E-15	2.454490E-16
6.939882E+03	4.758236E-15	2.457178E-16
6.949867E+03	4.754818E-15	2.460952E-16
6.959853E+03	4.754514E-15	2.465879E-16
6.969838E+03	4.757373E-15	2.471991E-16
6.979823E+03	4.763585E-15	2.479394E-16
6.989809E+03	4.773420E-15	2.488229E-16
6.999794E+03	4.787201E-15	2.498670E-16
7.009780E+03	4.805293E-15	2.510908E-16
7.019765E+03	4.828081E-15	2.525144E-16
7.029751E+03	4.855890E-15	2.541546E-16
7.039736E+03	4.889199E-15	2.560358E-16
7.049722E+03	4.928152E-15	2.581651E-16
7.059707E+03	4.973130E-15	2.605611E-16
7.069692E+03	5.024318E-15	2.632323E-16
7.079678E+03	5.081695E-15	2.661756E-16
7.089663E+03	5.145376E-15	2.693953E-16
7.099649E+03	5.215126E-15	2.728762E-16
7.109634E+03	5.290779E-15	2.766070E-16
7.119620E+03	5.371927E-15	2.805632E-16
7.129605E+03	5.458182E-15	2.847211E-16
7.139590E+03	5.548988E-15	2.890480E-16
7.149576E+03	5.643560E-15	2.934993E-16
7.159561E+03	5.741242E-15	2.980371E-16
7.169547E+03	5.841257E-15	3.026174E-16
7.179532E+03	5.942730E-15	3.071910E-16
7.189518E+03	6.044926E-15	3.117167E-16
7.199503E+03	6.146986E-15	3.161468E-16
7.209489E+03	6.248092E-15	3.204366E-16
7.219474E+03	6.347722E-15	3.245568E-16
7.229459E+03	6.445124E-15	3.284670E-16
7.239445E+03	6.539875E-15	3.321443E-16
7.249430E+03	6.631483E-15	3.355625E-16
7.259416E+03	6.719616E-15	3.387041E-16
7.269401E+03	6.803932E-15	3.415520E-16
7.279387E+03	6.884404E-15	3.441051E-16
7.289372E+03	6.960696E-15	3.463471E-16
7.299358E+03	7.032728E-15	3.482753E-16
7.309343E+03	7.100241E-15	3.498785E-16
7.319328E+03	7.163021E-15	3.511483E-16
7.329314E+03	7.220826E-15	3.520753E-16
7.339299E+03	7.273362E-15	3.526486E-16
7.349285E+03	7.320309E-15	3.528562E-16
7.359270E+03	7.361343E-15	3.526872E-16
7.369256E+03	7.396158E-15	3.521321E-16
7.379241E+03	7.424510E-15	3.511851E-16
7.389227E+03	7.446186E-15	3.498426E-16
7.399212E+03	7.461292E-15	3.481167E-16
7.409197E+03	7.469966E-15	3.460212E-16
7.419183E+03	7.472751E-15	3.435888E-16
7.429168E+03	7.470375E-15	3.408603E-16
7.439154E+03	7.463818E-15	3.378872E-16
7.449139E+03	7.454127E-15	3.347229E-16
7.459125E+03	7.443050E-15	3.314510E-16
7.469110E+03	7.432062E-15	3.281403E-16
7.479095E+03	7.422931E-15	3.248706E-16
7.489081E+03	7.417500E-15	3.217221E-16
7.499066E+03	7.417693E-15	3.187758E-16
7.509052E+03	7.425239E-15	3.161012E-16
7.519037E+03	7.441535E-15	3.137510E-16
7.529023E+03	7.468107E-15	3.117810E-16
7.539008E+03	7.506018E-15	3.102253E-16
7.548994E+03	7.555779E-15	3.090935E-16
7.558979E+03	7.617920E-15	3.083953E-16
7.568964E+03	7.692355E-15	3.081150E-16
7.578950E+03	7.778480E-15	3.082165E-16
7.588935E+03	7.875389E-15	3.086533E-16
7.598921E+03	7.981830E-15	3.093677E-16
7.608906E+03	8.096073E-15	3.102860E-16
7.618892E+03	8.215916E-15	3.113206E-16
7.628877E+03	8.339012E-15	3.123827E-16
7.638863E+03	8.462509E-15	3.133700E-16
7.648848E+03	8.583662E-15	3.141898E-16
7.658833E+03	8.699136E-15	3.147332E-16
7.668819E+03	8.805992E-15	3.149126E-16
7.678804E+03	8.900889E-15	3.146312E-16
7.688790E+03	8.981106E-15	3.138203E-16
7.698775E+03	9.043840E-15	3.124132E-16
7.708761E+03	9.086788E-15	3.103645E-16
7.718746E+03	9.108124E-15	3.076486E-16
7.728732E+03	9.106688E-15	3.042639E-16
7.738717E+03	9.081685E-15	3.002221E-16
7.748702E+03	9.033198E-15	2.955629E-16
