#wls	flux	fluxerr
1.597671E+03	4.951526E-16	1.050793E-16
1.637612E+03	4.466305E-16	9.477281E-17
1.677554E+03	4.016286E-16	8.521503E-17
1.717496E+03	3.603151E-16	7.644150E-17
1.757438E+03	3.226643E-16	6.844661E-17
1.797379E+03	2.881917E-16	6.112736E-17
1.837321E+03	2.566622E-16	5.443374E-17
1.877263E+03	2.275402E-16	4.825202E-17
1.917205E+03	2.006570E-16	4.254629E-17
1.957146E+03	1.758387E-16	3.727955E-17
1.997088E+03	1.532992E-16	3.249703E-17
2.037030E+03	1.335756E-16	2.831247E-17
2.076972E+03	1.176777E-16	2.493962E-17
2.116914E+03	1.065091E-16	2.256976E-17
2.156855E+03	1.005321E-16	2.130041E-17
2.196797E+03	9.950703E-17	2.108040E-17
2.236739E+03	1.025163E-16	2.171495E-17
2.276681E+03	1.084553E-16	2.296972E-17
2.316622E+03	1.163524E-16	2.463874E-17
2.356564E+03	1.254785E-16	2.656742E-17
2.396506E+03	1.354522E-16	2.867488E-17
2.436448E+03	1.461051E-16	3.092538E-17
2.476389E+03	1.574331E-16	3.331798E-17
2.516331E+03	1.695049E-16	3.586713E-17
2.556273E+03	1.823888E-16	3.858717E-17
2.596215E+03	1.961786E-16	4.149782E-17
2.636156E+03	2.109890E-16	4.462322E-17
2.676098E+03	2.268293E-16	4.796523E-17
2.716040E+03	2.437845E-16	5.154164E-17
2.755982E+03	2.619338E-16	5.536903E-17
2.795924E+03	2.812793E-16	5.944772E-17
2.835865E+03	3.018904E-16	6.379215E-17
2.875807E+03	3.238422E-16	6.841802E-17
2.915749E+03	3.471780E-16	7.333426E-17
2.955691E+03	3.719925E-16	7.856067E-17
2.995632E+03	3.984435E-16	8.413032E-17
3.005618E+03	4.053672E-16	8.558798E-17
3.015603E+03	4.123250E-16	8.705271E-17
3.025589E+03	4.194563E-16	8.855388E-17
3.035574E+03	4.267255E-16	9.008401E-17
3.045560E+03	4.341170E-16	9.163976E-17
3.055545E+03	4.417189E-16	9.323978E-17
3.065530E+03	4.495246E-16	9.488261E-17
3.075516E+03	4.575276E-16	9.656691E-17
3.085501E+03	4.657712E-16	9.830177E-17
3.095487E+03	4.741527E-16	1.000656E-16
3.105472E+03	4.827158E-16	1.018675E-16
3.115458E+03	4.915058E-16	1.037170E-16
3.125443E+03	5.004701E-16	1.056032E-16
3.135429E+03	5.096044E-16	1.075250E-16
3.145414E+03	5.189575E-16	1.094927E-16
3.155399E+03	5.284755E-16	1.114950E-16
3.165385E+03	5.381564E-16	1.135314E-16
3.175370E+03	5.480504E-16	1.156126E-16
3.185356E+03	5.581561E-16	1.177381E-16
3.195341E+03	5.684210E-16	1.198970E-16
3.205327E+03	5.788962E-16	1.221000E-16
3.215312E+03	5.895824E-16	1.243472E-16
3.225298E+03	6.004257E-16	1.266272E-16
3.235283E+03	6.115345E-16	1.289630E-16
3.245268E+03	6.228006E-16	1.313317E-16
3.255254E+03	6.343346E-16	1.337566E-16
3.265239E+03	6.460821E-16	1.362262E-16
3.275225E+03	6.580451E-16	1.387410E-16
3.285210E+03	6.702240E-16	1.413009E-16
3.295196E+03	6.826770E-16	1.439183E-16
3.305181E+03	6.953487E-16	1.465816E-16
3.315166E+03	7.082989E-16	1.493031E-16
3.325152E+03	7.214710E-16	1.520712E-16
3.335137E+03	7.349244E-16	1.548981E-16
3.345123E+03	7.486615E-16	1.577845E-16
3.355108E+03	7.626250E-16	1.607183E-16
3.365094E+03	7.769344E-16	1.637246E-16
3.375079E+03	7.915320E-16	1.667912E-16
3.385065E+03	8.064196E-16	1.699186E-16
3.395050E+03	8.215986E-16	1.731070E-16
3.405035E+03	8.371293E-16	1.763690E-16
3.415021E+03	8.529529E-16	1.796924E-16
3.425006E+03	8.691309E-16	1.830900E-16
3.434992E+03	8.856018E-16	1.865488E-16
3.444977E+03	9.024270E-16	1.900819E-16
3.454963E+03	9.196061E-16	1.936890E-16
3.464948E+03	9.371386E-16	1.973701E-16
3.474934E+03	9.550846E-16	2.011378E-16
3.484919E+03	9.733188E-16	2.049657E-16
3.494904E+03	9.919634E-16	2.088796E-16
3.504890E+03	1.010953E-15	2.128656E-16
3.514875E+03	1.030347E-15	2.169362E-16
3.524861E+03	1.050143E-15	2.210908E-16
3.534846E+03	1.070271E-15	2.253149E-16
3.544832E+03	1.090854E-15	2.296342E-16
3.554817E+03	1.111760E-15	2.340209E-16
3.564803E+03	1.133109E-15	2.385002E-16
3.574788E+03	1.154830E-15	2.430573E-16
3.584773E+03	1.176980E-15	2.477041E-16
3.594759E+03	1.199486E-15	2.524252E-16
3.604744E+03	1.222403E-15	2.572322E-16
3.614730E+03	1.245722E-15	2.621230E-16
3.624715E+03	1.269431E-15	2.670953E-16
3.634701E+03	1.293519E-15	2.721466E-16
3.644686E+03	1.317973E-15	2.772745E-16
3.654671E+03	1.342846E-15	2.824895E-16
3.664657E+03	1.368058E-15	2.877752E-16
3.674642E+03	1.393659E-15	2.931420E-16
3.684628E+03	1.419633E-15	2.985866E-16
3.694613E+03	1.445963E-15	3.041055E-16
3.704599E+03	1.472632E-15	3.096948E-16
3.714584E+03	1.499621E-15	3.153504E-16
3.724570E+03	1.526974E-15	3.210821E-16
3.734555E+03	1.554606E-15	3.268715E-16
3.744540E+03	1.582561E-15	3.327280E-16
3.754526E+03	1.610748E-15	3.386326E-16
3.764511E+03	1.639277E-15	3.446081E-16
3.774497E+03	1.667989E-15	3.506214E-16
3.784482E+03	1.696991E-15	3.566949E-16
3.794468E+03	1.726190E-15	3.628088E-16
3.804453E+03	1.755558E-15	3.689574E-16
3.814439E+03	1.785132E-15	3.751485E-16
3.824424E+03	1.814817E-15	3.813619E-16
3.834409E+03	1.844715E-15	3.876192E-16
3.844395E+03	1.874663E-15	3.938863E-16
3.854380E+03	1.904632E-15	4.001570E-16
3.864366E+03	1.934723E-15	4.064522E-16
3.874351E+03	1.964839E-15	4.127520E-16
3.884337E+03	1.994952E-15	4.190501E-16
3.894322E+03	2.025097E-15	4.253540E-16
3.904308E+03	2.055117E-15	4.316308E-16
3.914293E+03	2.085114E-15	4.379019E-16
3.924278E+03	2.114998E-15	4.441485E-16
3.934264E+03	2.144812E-15	4.503794E-16
3.944249E+03	2.174470E-15	4.565766E-16
3.954235E+03	2.203952E-15	4.627361E-16
3.964220E+03	2.233309E-15	4.688683E-16
3.974206E+03	2.262462E-15	4.749569E-16
3.984191E+03	2.291465E-15	4.810131E-16
3.994176E+03	2.320249E-15	4.870226E-16
4.004162E+03	2.348812E-15	4.929847E-16
4.014147E+03	2.377155E-15	4.988999E-16
4.024133E+03	2.405285E-15	5.047694E-16
4.034118E+03	2.433270E-15	5.106076E-16
4.044104E+03	2.461002E-15	5.163920E-16
4.054089E+03	2.488560E-15	5.221390E-16
4.064075E+03	2.515905E-15	5.278406E-16
4.074060E+03	2.543125E-15	5.335148E-16
4.084045E+03	2.570188E-15	5.391555E-16
4.094031E+03	2.597129E-15	5.447697E-16
4.104016E+03	2.623986E-15	5.503657E-16
4.114002E+03	2.650802E-15	5.559521E-16
4.123987E+03	2.677508E-15	5.615145E-16
4.133973E+03	2.704267E-15	5.670873E-16
4.143958E+03	2.731019E-15	5.726578E-16
4.153944E+03	2.757820E-15	5.782379E-16
4.163929E+03	2.784731E-15	5.838401E-16
4.173914E+03	2.811813E-15	5.894774E-16
4.183900E+03	2.839075E-15	5.951518E-16
4.193885E+03	2.866587E-15	6.008776E-16
4.203871E+03	2.894363E-15	6.066578E-16
4.213856E+03	2.922473E-15	6.125074E-16
4.223842E+03	2.950938E-15	6.184303E-16
4.233827E+03	2.979778E-15	6.244311E-16
4.243813E+03	3.009122E-15	6.305366E-16
4.253798E+03	3.038939E-15	6.367404E-16
4.263783E+03	3.069305E-15	6.430582E-16
4.273769E+03	3.100294E-15	6.495058E-16
4.283754E+03	3.131875E-15	6.560765E-16
4.293740E+03	3.164121E-15	6.627854E-16
4.303725E+03	3.197050E-15	6.696365E-16
4.313711E+03	3.230676E-15	6.766325E-16
4.323696E+03	3.265062E-15	6.837869E-16
4.333681E+03	3.300165E-15	6.910902E-16
4.343667E+03	3.336036E-15	6.985535E-16
4.353652E+03	3.372674E-15	7.061761E-16
4.363638E+03	3.410066E-15	7.139558E-16
4.373623E+03	3.448195E-15	7.218885E-16
4.383609E+03	3.487034E-15	7.299689E-16
4.393594E+03	3.526600E-15	7.382001E-16
4.403580E+03	3.566744E-15	7.465515E-16
4.413565E+03	3.607516E-15	7.550328E-16
4.423550E+03	3.648847E-15	7.636302E-16
4.433536E+03	3.690663E-15	7.723278E-16
4.443521E+03	3.732875E-15	7.811072E-16
4.453507E+03	3.775436E-15	7.899585E-16
4.463492E+03	3.818289E-15	7.988694E-16
4.473478E+03	3.861313E-15	8.078151E-16
4.483463E+03	3.904379E-15	8.167683E-16
4.493449E+03	3.947400E-15	8.257109E-16
4.503434E+03	3.990330E-15	8.346334E-16
4.513419E+03	4.033018E-15	8.435039E-16
4.523405E+03	4.075353E-15	8.522996E-16
4.533390E+03	4.117172E-15	8.609860E-16
4.543376E+03	4.158462E-15	8.695610E-16
4.553361E+03	4.199003E-15	8.779780E-16
4.563347E+03	4.238728E-15	8.862234E-16
4.573332E+03	4.277523E-15	8.942734E-16
4.583318E+03	4.315276E-15	9.021044E-16
4.593303E+03	4.351827E-15	9.096832E-16
4.603288E+03	4.387127E-15	9.169996E-16
4.613274E+03	4.421083E-15	9.240341E-16
4.623259E+03	4.453557E-15	9.307580E-16
4.633245E+03	4.484526E-15	9.371666E-16
4.643230E+03	4.513978E-15	9.432575E-16
4.653216E+03	4.541753E-15	9.489973E-16
4.663201E+03	4.567915E-15	9.543993E-16
4.673186E+03	4.592379E-15	9.594459E-16
4.683172E+03	4.615230E-15	9.641550E-16
4.693157E+03	4.636511E-15	9.685356E-16
4.703143E+03	4.656169E-15	9.725769E-16
4.713128E+03	4.674375E-15	9.763142E-16
4.723114E+03	4.691198E-15	9.797626E-16
4.733099E+03	4.706825E-15	9.829607E-16
4.743085E+03	4.721341E-15	9.859265E-16
4.753070E+03	4.735101E-15	9.887343E-16
4.763055E+03	4.748201E-15	9.914039E-16
4.773041E+03	4.760949E-15	9.939999E-16
4.783026E+03	4.773236E-15	9.964995E-16
4.793012E+03	4.785008E-15	9.988914E-16
4.802997E+03	4.796160E-15	1.001154E-15
4.812983E+03	4.806486E-15	1.003243E-15
4.822968E+03	4.816097E-15	1.005184E-15
4.832954E+03	4.824843E-15	1.006944E-15
4.842939E+03	4.832735E-15	1.008525E-15
4.852924E+03	4.839836E-15	1.009942E-15
4.862910E+03	4.846211E-15	1.011207E-15
4.872895E+03	4.851821E-15	1.012312E-15
4.882881E+03	4.856838E-15	1.013294E-15
4.892866E+03	4.861226E-15	1.014144E-15
4.902852E+03	4.865109E-15	1.014890E-15
4.912837E+03	4.868556E-15	1.015544E-15
4.922823E+03	4.871692E-15	1.016134E-15
4.932808E+03	4.874540E-15	1.016664E-15
4.942793E+03	4.877277E-15	1.017171E-15
4.952779E+03	4.879928E-15	1.017660E-15
4.962764E+03	4.882673E-15	1.018168E-15
4.972750E+03	4.885485E-15	1.018692E-15
4.982735E+03	4.888595E-15	1.019277E-15
4.992721E+03	4.891977E-15	1.019919E-15
5.002706E+03	4.895808E-15	1.020655E-15
5.012691E+03	4.900160E-15	1.021500E-15
5.022677E+03	4.905104E-15	1.022468E-15
5.032662E+03	4.910758E-15	1.023585E-15
5.042648E+03	4.917134E-15	1.024852E-15
5.052633E+03	4.924390E-15	1.026302E-15
5.062619E+03	4.932529E-15	1.027937E-15
5.072604E+03	4.941597E-15	1.029765E-15
5.082590E+03	4.951734E-15	1.031817E-15
5.092575E+03	4.962870E-15	1.034076E-15
5.102560E+03	4.975128E-15	1.036570E-15
5.112546E+03	4.988525E-15	1.039300E-15
5.122531E+03	5.003014E-15	1.042258E-15
5.132517E+03	5.018641E-15	1.045454E-15
5.142502E+03	5.035394E-15	1.048883E-15
5.152488E+03	5.053249E-15	1.052542E-15
5.162473E+03	5.072173E-15	1.056424E-15
5.172459E+03	5.092175E-15	1.060530E-15
5.182444E+03	5.113151E-15	1.064840E-15
5.192429E+03	5.135042E-15	1.069339E-15
5.202415E+03	5.157830E-15	1.074025E-15
5.212400E+03	5.181438E-15	1.078882E-15
5.222386E+03	5.205729E-15	1.083881E-15
5.232371E+03	5.230664E-15	1.089013E-15
5.242357E+03	5.256092E-15	1.094249E-15
5.252342E+03	5.281963E-15	1.099576E-15
5.262328E+03	5.308170E-15	1.104973E-15
5.272313E+03	5.334599E-15	1.110417E-15
5.282298E+03	5.361138E-15	1.115883E-15
5.292284E+03	5.387614E-15	1.121336E-15
5.302269E+03	5.414016E-15	1.126773E-15
5.312255E+03	5.440114E-15	1.132148E-15
5.322240E+03	5.465898E-15	1.137456E-15
5.332226E+03	5.491192E-15	1.142663E-15
5.342211E+03	5.515877E-15	1.147743E-15
5.352196E+03	5.539893E-15	1.152684E-15
5.362182E+03	5.563126E-15	1.157462E-15
5.372167E+03	5.585463E-15	1.162054E-15
5.382153E+03	5.606799E-15	1.166438E-15
5.392138E+03	5.627088E-15	1.170604E-15
5.402124E+03	5.646291E-15	1.174544E-15
5.412109E+03	5.664263E-15	1.178229E-15
5.422095E+03	5.681035E-15	1.181664E-15
5.432080E+03	5.696535E-15	1.184835E-15
5.442065E+03	5.710755E-15	1.187740E-15
5.452051E+03	5.723583E-15	1.190356E-15
5.462036E+03	5.735146E-15	1.192709E-15
5.472022E+03	5.745295E-15	1.194768E-15
5.482007E+03	5.754124E-15	1.196554E-15
5.491993E+03	5.761618E-15	1.198062E-15
5.501978E+03	5.767664E-15	1.199270E-15
5.511964E+03	5.772388E-15	1.200203E-15
5.521949E+03	5.775756E-15	1.200855E-15
5.531934E+03	5.777799E-15	1.201232E-15
5.541920E+03	5.778507E-15	1.201332E-15
5.551905E+03	5.777874E-15	1.201154E-15
5.561891E+03	5.776020E-15	1.200723E-15
5.571876E+03	5.772900E-15	1.200029E-15
5.581862E+03	5.768649E-15	1.199101E-15
5.591847E+03	5.763291E-15	1.197943E-15
5.601833E+03	5.756851E-15	1.196561E-15
5.611818E+03	5.749473E-15	1.194985E-15
5.621803E+03	5.741187E-15	1.193221E-15
5.631789E+03	5.732075E-15	1.191285E-15
5.641774E+03	5.722162E-15	1.189185E-15
5.651760E+03	5.711582E-15	1.186946E-15
5.661745E+03	5.700347E-15	1.184572E-15
5.671731E+03	5.688578E-15	1.182087E-15
5.681716E+03	5.676273E-15	1.179492E-15
5.691701E+03	5.663480E-15	1.176796E-15
5.701687E+03	5.650236E-15	1.174008E-15
5.711672E+03	5.636627E-15	1.171144E-15
5.721658E+03	5.622616E-15	1.168197E-15
5.731643E+03	5.608216E-15	1.165171E-15
5.741629E+03	5.593432E-15	1.162065E-15
5.751614E+03	5.578260E-15	1.158880E-15
5.761600E+03	5.562692E-15	1.155613E-15
5.771585E+03	5.546716E-15	1.152262E-15
5.781570E+03	5.530313E-15	1.148823E-15
5.791556E+03	5.513522E-15	1.145304E-15
5.801541E+03	5.496211E-15	1.141678E-15
5.811527E+03	5.478419E-15	1.137953E-15
5.821512E+03	5.460181E-15	1.134136E-15
5.831498E+03	5.441375E-15	1.130201E-15
5.841483E+03	5.422099E-15	1.126170E-15
5.851469E+03	5.402242E-15	1.122019E-15
5.861454E+03	5.381856E-15	1.117759E-15
5.871439E+03	5.360949E-15	1.113391E-15
5.881425E+03	5.339534E-15	1.108919E-15
5.891410E+03	5.317629E-15	1.104346E-15
5.901396E+03	5.295262E-15	1.099677E-15
5.911381E+03	5.272412E-15	1.094909E-15
5.921367E+03	5.249169E-15	1.090060E-15
5.931352E+03	5.225525E-15	1.085129E-15
5.941338E+03	5.201577E-15	1.080135E-15
5.951323E+03	5.177326E-15	1.075079E-15
5.961308E+03	5.152876E-15	1.069982E-15
5.971294E+03	5.128231E-15	1.064846E-15
5.981279E+03	5.103446E-15	1.059681E-15
5.991265E+03	5.078578E-15	1.054500E-15
6.001250E+03	5.053679E-15	1.049313E-15
6.011236E+03	5.028804E-15	1.044132E-15
6.021221E+03	5.003952E-15	1.038957E-15
6.031207E+03	4.979219E-15	1.033806E-15
6.041192E+03	4.954599E-15	1.028680E-15
6.051177E+03	4.930177E-15	1.023596E-15
6.061163E+03	4.905893E-15	1.018541E-15
6.071148E+03	4.881774E-15	1.013521E-15
6.081134E+03	4.857893E-15	1.008551E-15
6.091119E+03	4.834221E-15	1.003625E-15
6.101105E+03	4.810772E-15	9.987464E-16
6.111090E+03	4.787557E-15	9.939167E-16
6.121075E+03	4.764531E-15	9.891270E-16
6.131061E+03	4.741743E-15	9.843871E-16
6.141046E+03	4.719186E-15	9.796960E-16
6.151032E+03	4.696805E-15	9.750422E-16
6.161017E+03	4.674587E-15	9.704227E-16
6.171003E+03	4.652421E-15	9.658147E-16
6.180988E+03	4.630334E-15	9.612237E-16
6.190974E+03	4.608346E-15	9.566538E-16
6.200959E+03	4.586474E-15	9.521086E-16
6.210944E+03	4.564638E-15	9.475714E-16
6.220930E+03	4.542844E-15	9.430438E-16
6.230915E+03	4.521052E-15	9.385169E-16
6.240901E+03	4.499259E-15	9.339906E-16
6.250886E+03	4.477324E-15	9.294352E-16
6.260872E+03	4.455237E-15	9.248490E-16
6.270857E+03	4.432984E-15	9.202287E-16
6.280843E+03	4.410456E-15	9.155518E-16
6.290828E+03	4.387674E-15	9.108226E-16
6.300813E+03	4.364476E-15	9.060078E-16
6.310799E+03	4.340833E-15	9.011010E-16
6.320784E+03	4.316666E-15	8.960860E-16
6.330770E+03	4.291897E-15	8.909461E-16
6.340755E+03	4.266441E-15	8.856644E-16
6.350741E+03	4.240262E-15	8.802328E-16
6.360726E+03	4.213191E-15	8.746166E-16
6.370712E+03	4.185235E-15	8.688170E-16
6.380697E+03	4.156275E-15	8.628092E-16
6.390682E+03	4.126280E-15	8.565872E-16
6.400668E+03	4.095100E-15	8.501194E-16
6.410653E+03	4.062719E-15	8.434026E-16
6.420639E+03	4.029129E-15	8.364349E-16
6.430624E+03	3.994163E-15	8.291821E-16
6.440610E+03	3.957916E-15	8.216637E-16
6.450595E+03	3.920289E-15	8.138589E-16
6.460580E+03	3.881277E-15	8.057668E-16
6.470566E+03	3.840889E-15	7.973892E-16
6.480551E+03	3.799148E-15	7.887309E-16
6.490537E+03	3.756090E-15	7.797994E-16
6.500522E+03	3.711766E-15	7.706052E-16
6.510508E+03	3.666202E-15	7.611539E-16
6.520493E+03	3.619554E-15	7.514774E-16
6.530479E+03	3.571912E-15	7.415945E-16
6.540464E+03	3.523336E-15	7.315180E-16
6.550449E+03	3.474051E-15	7.212943E-16
6.560435E+03	3.424102E-15	7.109326E-16
6.570420E+03	3.373686E-15	7.004741E-16
6.580406E+03	3.322936E-15	6.899461E-16
6.590391E+03	3.271984E-15	6.793763E-16
6.600377E+03	3.221004E-15	6.688005E-16
6.610362E+03	3.170098E-15	6.582400E-16
6.620348E+03	3.119505E-15	6.477445E-16
6.630333E+03	3.069258E-15	6.373207E-16
6.640318E+03	3.019587E-15	6.270165E-16
6.650304E+03	2.970586E-15	6.168511E-16
6.660289E+03	2.922405E-15	6.068561E-16
6.670275E+03	2.875125E-15	5.970480E-16
6.680260E+03	2.828916E-15	5.874623E-16
6.690246E+03	2.783813E-15	5.781059E-16
6.700231E+03	2.739996E-15	5.690166E-16
6.710217E+03	2.697455E-15	5.601920E-16
6.720202E+03	2.656351E-15	5.516658E-16
6.730187E+03	2.616717E-15	5.434448E-16
6.740173E+03	2.578577E-15	5.355339E-16
6.750158E+03	2.542065E-15	5.279610E-16
6.760144E+03	2.507131E-15	5.207157E-16
6.770129E+03	2.473892E-15	5.138221E-16
6.780115E+03	2.442311E-15	5.072730E-16
6.790100E+03	2.412432E-15	5.010773E-16
6.800085E+03	2.384265E-15	4.952370E-16
6.810071E+03	2.357840E-15	4.897585E-16
6.820056E+03	2.333100E-15	4.846298E-16
6.830042E+03	2.310093E-15	4.798613E-16
6.840027E+03	2.288807E-15	4.754500E-16
6.850013E+03	2.269201E-15	4.713875E-16
6.859998E+03	2.251255E-15	4.676700E-16
6.869984E+03	2.235001E-15	4.643039E-16
6.879969E+03	2.220361E-15	4.612731E-16
6.889954E+03	2.207311E-15	4.585725E-16
6.899940E+03	2.195872E-15	4.562068E-16
6.909925E+03	2.185990E-15	4.541644E-16
6.919911E+03	2.177606E-15	4.524334E-16
6.929896E+03	2.170740E-15	4.510178E-16
6.939882E+03	2.165306E-15	4.498997E-16
6.949867E+03	2.161295E-15	4.490774E-16
6.959853E+03	2.158698E-15	4.485491E-16
6.969838E+03	2.157427E-15	4.482963E-16
6.979823E+03	2.157497E-15	4.483223E-16
6.989809E+03	2.158819E-15	4.486084E-16
6.999794E+03	2.161381E-15	4.491524E-16
7.009780E+03	2.165171E-15	4.499519E-16
7.019765E+03	2.170099E-15	4.509879E-16
7.029751E+03	2.176150E-15	4.522575E-16
7.039736E+03	2.183286E-15	4.537527E-16
7.049722E+03	2.191439E-15	4.554596E-16
7.059707E+03	2.200596E-15	4.573752E-16
7.069692E+03	2.210716E-15	4.594912E-16
7.079678E+03	2.221756E-15	4.617988E-16
7.089663E+03	2.233647E-15	4.642836E-16
7.099649E+03	2.246376E-15	4.669425E-16
7.109634E+03	2.259839E-15	4.697546E-16
7.119620E+03	2.274082E-15	4.727288E-16
7.129605E+03	2.288971E-15	4.758379E-16
7.139590E+03	2.304492E-15	4.790785E-16
7.149576E+03	2.320629E-15	4.824475E-16
7.159561E+03	2.337279E-15	4.859234E-16
7.169547E+03	2.354424E-15	4.895025E-16
7.179532E+03	2.372019E-15	4.931756E-16
7.189518E+03	2.389988E-15	4.969270E-16
7.199503E+03	2.408286E-15	5.007469E-16
7.209489E+03	2.426898E-15	5.046325E-16
7.219474E+03	2.445746E-15	5.085676E-16
7.229459E+03	2.464788E-15	5.125433E-16
7.239445E+03	2.483978E-15	5.165504E-16
7.249430E+03	2.503274E-15	5.205796E-16
7.259416E+03	2.522631E-15	5.246221E-16
7.269401E+03	2.541977E-15	5.286627E-16
7.279387E+03	2.561303E-15	5.326996E-16
7.289372E+03	2.580570E-15	5.367244E-16
7.299358E+03	2.599672E-15	5.407154E-16
7.309343E+03	2.618673E-15	5.446859E-16
7.319328E+03	2.637436E-15	5.486071E-16
7.329314E+03	2.656028E-15	5.524932E-16
7.339299E+03	2.674348E-15	5.563233E-16
7.349285E+03	2.692364E-15	5.600903E-16
7.359270E+03	2.710115E-15	5.638028E-16
7.369256E+03	2.727503E-15	5.674400E-16
7.379241E+03	2.744534E-15	5.710035E-16
7.389227E+03	2.761254E-15	5.745027E-16
7.399212E+03	2.777528E-15	5.779096E-16
7.409197E+03	2.793442E-15	5.812418E-16
7.419183E+03	2.808935E-15	5.844868E-16
7.429168E+03	2.823944E-15	5.876317E-16
7.439154E+03	2.838484E-15	5.906791E-16
7.449139E+03	2.852453E-15	5.936083E-16
7.459125E+03	2.865829E-15	5.964143E-16
7.469110E+03	2.878582E-15	5.990913E-16
7.479095E+03	2.890650E-15	6.016259E-16
7.489081E+03	2.902003E-15	6.040120E-16
7.499066E+03	2.912611E-15	6.062436E-16
7.509052E+03	2.922445E-15	6.083142E-16
7.519037E+03	2.931432E-15	6.102091E-16
7.529023E+03	2.939580E-15	6.119296E-16
7.539008E+03	2.946854E-15	6.134684E-16
7.548994E+03	2.953180E-15	6.148101E-16
7.558979E+03	2.958559E-15	6.159551E-16
7.568964E+03	2.962915E-15	6.168874E-16
7.578950E+03	2.966249E-15	6.176071E-16
7.588935E+03	2.968521E-15	6.181061E-16
7.598921E+03	2.969694E-15	6.183764E-16
7.608906E+03	2.969688E-15	6.184012E-16
7.618892E+03	2.968543E-15	6.181893E-16
7.628877E+03	2.966142E-15	6.177158E-16
7.638863E+03	2.962527E-15	6.169899E-16
7.648848E+03	2.957625E-15	6.159960E-16
7.658833E+03	2.951401E-15	6.147269E-16
7.668819E+03	2.943864E-15	6.131843E-16
7.678804E+03	2.934948E-15	6.113547E-16
7.688790E+03	2.924667E-15	6.092406E-16
7.698775E+03	2.912962E-15	6.068300E-16
7.708761E+03	2.899856E-15	6.041276E-16
7.718746E+03	2.885337E-15	6.011307E-16
7.728732E+03	2.869359E-15	5.978298E-16
7.738717E+03	2.851960E-15	5.942329E-16
7.748702E+03	2.833145E-15	5.903406E-16
