#wls	flux	fluxerr
1.597671E+03	4.254557E-16	1.117592E-16
1.637612E+03	3.881400E-16	1.019498E-16
1.677554E+03	3.531265E-16	9.274640E-17
1.717496E+03	3.205319E-16	8.417940E-17
1.757438E+03	2.903458E-16	7.624602E-17
1.797379E+03	2.623161E-16	6.887996E-17
1.837321E+03	2.361967E-16	6.201653E-17
1.877263E+03	2.116960E-16	5.557904E-17
1.917205E+03	1.885609E-16	4.950103E-17
1.957146E+03	1.668144E-16	4.378843E-17
1.997088E+03	1.466720E-16	3.849778E-17
2.037030E+03	1.288158E-16	3.380799E-17
2.076972E+03	1.142438E-16	2.998084E-17
2.116914E+03	1.039728E-16	2.728293E-17
2.156855E+03	9.857579E-17	2.586430E-17
2.196797E+03	9.786215E-17	2.567460E-17
2.236739E+03	1.010077E-16	2.649726E-17
2.276681E+03	1.069173E-16	2.804473E-17
2.316622E+03	1.146207E-16	3.006228E-17
2.356564E+03	1.233792E-16	3.235607E-17
2.396506E+03	1.327972E-16	3.482224E-17
2.436448E+03	1.426953E-16	3.741371E-17
2.476389E+03	1.530854E-16	4.013348E-17
2.516331E+03	1.640117E-16	4.299315E-17
2.556273E+03	1.755456E-16	4.601133E-17
2.596215E+03	1.878145E-16	4.922132E-17
2.636156E+03	2.008880E-16	5.264129E-17
2.676098E+03	2.148502E-16	5.629318E-17
2.716040E+03	2.297741E-16	6.019601E-17
2.755982E+03	2.457560E-16	6.437485E-17
2.795924E+03	2.628560E-16	6.884536E-17
2.835865E+03	2.810946E-16	7.361273E-17
2.875807E+03	3.006321E-16	7.871877E-17
2.915749E+03	3.214937E-16	8.416995E-17
2.955691E+03	3.437817E-16	8.999287E-17
2.995632E+03	3.676508E-16	9.622779E-17
3.005618E+03	3.738743E-16	9.785327E-17
3.015603E+03	3.802183E-16	9.951018E-17
3.025589E+03	3.866425E-16	1.011879E-16
3.035574E+03	3.932400E-16	1.029109E-16
3.045560E+03	3.999555E-16	1.046646E-16
3.055545E+03	4.068694E-16	1.064701E-16
3.065530E+03	4.139752E-16	1.083257E-16
3.075516E+03	4.212667E-16	1.102297E-16
3.085501E+03	4.287387E-16	1.121808E-16
3.095487E+03	4.363859E-16	1.141775E-16
3.105472E+03	4.442037E-16	1.162188E-16
3.115458E+03	4.521878E-16	1.183033E-16
3.125443E+03	4.603790E-16	1.204419E-16
3.135429E+03	4.686845E-16	1.226102E-16
3.145414E+03	4.771910E-16	1.248309E-16
3.155399E+03	4.858969E-16	1.271036E-16
3.165385E+03	4.947539E-16	1.294157E-16
3.175370E+03	5.037598E-16	1.317665E-16
3.185356E+03	5.129590E-16	1.341676E-16
3.195341E+03	5.223037E-16	1.366066E-16
3.205327E+03	5.318395E-16	1.390954E-16
3.215312E+03	5.415659E-16	1.416338E-16
3.225298E+03	5.514825E-16	1.442218E-16
3.235283E+03	5.615406E-16	1.468465E-16
3.245268E+03	5.717881E-16	1.495206E-16
3.255254E+03	5.822740E-16	1.522567E-16
3.265239E+03	5.929003E-16	1.550294E-16
3.275225E+03	6.037660E-16	1.578643E-16
3.285210E+03	6.147722E-16	1.607358E-16
3.295196E+03	6.260191E-16	1.636700E-16
3.305181E+03	6.374569E-16	1.666538E-16
3.315166E+03	6.491371E-16	1.697007E-16
3.325152E+03	6.610100E-16	1.727978E-16
3.335137E+03	6.731269E-16	1.759583E-16
3.345123E+03	6.854370E-16	1.791691E-16
3.355108E+03	6.980451E-16	1.824575E-16
3.365094E+03	7.107955E-16	1.857828E-16
3.375079E+03	7.238450E-16	1.891860E-16
3.385065E+03	7.371430E-16	1.926538E-16
3.395050E+03	7.506888E-16	1.961861E-16
3.405035E+03	7.644833E-16	1.997831E-16
3.415021E+03	7.785802E-16	2.034588E-16
3.425006E+03	7.929258E-16	2.071991E-16
3.434992E+03	8.075196E-16	2.110039E-16
3.444977E+03	8.224154E-16	2.148873E-16
3.454963E+03	8.375580E-16	2.188349E-16
3.464948E+03	8.530565E-16	2.228751E-16
3.474934E+03	8.687987E-16	2.269786E-16
3.484919E+03	8.848396E-16	2.311597E-16
3.494904E+03	9.011763E-16	2.354178E-16
3.504890E+03	9.178631E-16	2.397669E-16
3.514875E+03	9.348411E-16	2.441917E-16
3.524861E+03	9.521077E-16	2.486914E-16
3.534846E+03	9.697156E-16	2.532800E-16
3.544832E+03	9.876046E-16	2.579415E-16
3.554817E+03	1.005884E-15	2.627046E-16
3.564803E+03	1.024436E-15	2.675383E-16
3.574788E+03	1.043312E-15	2.724561E-16
3.584773E+03	1.062505E-15	2.774565E-16
3.594759E+03	1.082068E-15	2.825531E-16
3.604744E+03	1.101937E-15	2.877289E-16
3.614730E+03	1.122104E-15	2.929821E-16
3.624715E+03	1.142678E-15	2.983409E-16
3.634701E+03	1.163533E-15	3.037728E-16
3.644686E+03	1.184662E-15	3.092756E-16
3.654671E+03	1.206170E-15	3.148770E-16
3.664657E+03	1.228049E-15	3.205745E-16
3.674642E+03	1.250171E-15	3.263349E-16
3.684628E+03	1.272641E-15	3.321858E-16
3.694613E+03	1.295390E-15	3.381087E-16
3.704599E+03	1.318522E-15	3.441312E-16
3.714584E+03	1.341906E-15	3.502190E-16
3.724570E+03	1.365589E-15	3.563839E-16
3.734555E+03	1.389555E-15	3.626224E-16
3.744540E+03	1.413791E-15	3.689306E-16
3.754526E+03	1.438339E-15	3.753198E-16
3.764511E+03	1.463127E-15	3.817707E-16
3.774497E+03	1.488195E-15	3.882943E-16
3.784482E+03	1.513529E-15	3.948864E-16
3.794468E+03	1.539051E-15	4.015272E-16
3.804453E+03	1.564863E-15	4.082428E-16
3.814439E+03	1.590829E-15	4.149981E-16
3.824424E+03	1.617049E-15	4.218191E-16
3.834409E+03	1.643507E-15	4.287013E-16
3.844395E+03	1.670125E-15	4.356246E-16
3.854380E+03	1.696886E-15	4.425845E-16
3.864366E+03	1.723830E-15	4.495916E-16
3.874351E+03	1.751001E-15	4.566571E-16
3.884337E+03	1.778263E-15	4.637458E-16
3.894322E+03	1.805660E-15	4.708687E-16
3.904308E+03	1.833176E-15	4.780222E-16
3.914293E+03	1.860797E-15	4.852023E-16
3.924278E+03	1.888567E-15	4.924205E-16
3.934264E+03	1.916416E-15	4.996586E-16
3.944249E+03	1.944332E-15	5.069135E-16
3.954235E+03	1.972364E-15	5.141979E-16
3.964220E+03	2.000502E-15	5.215093E-16
3.974206E+03	2.028683E-15	5.288312E-16
3.984191E+03	2.056903E-15	5.361624E-16
3.994176E+03	2.085215E-15	5.435168E-16
4.004162E+03	2.113616E-15	5.508940E-16
4.014147E+03	2.142109E-15	5.582943E-16
4.024133E+03	2.170641E-15	5.657038E-16
4.034118E+03	2.199215E-15	5.731239E-16
4.044104E+03	2.227897E-15	5.805712E-16
4.054089E+03	2.256696E-15	5.880481E-16
4.064075E+03	2.285567E-15	5.955432E-16
4.074060E+03	2.314526E-15	6.030606E-16
4.084045E+03	2.343644E-15	6.106186E-16
4.094031E+03	2.372832E-15	6.181941E-16
4.104016E+03	2.402220E-15	6.258209E-16
4.114002E+03	2.431724E-15	6.334770E-16
4.123987E+03	2.461422E-15	6.411833E-16
4.133973E+03	2.491291E-15	6.489330E-16
4.143958E+03	2.521413E-15	6.567479E-16
4.153944E+03	2.551715E-15	6.646091E-16
4.163929E+03	2.582284E-15	6.725389E-16
4.173914E+03	2.613102E-15	6.805330E-16
4.183900E+03	2.644209E-15	6.886014E-16
4.193885E+03	2.675642E-15	6.967540E-16
4.203871E+03	2.707390E-15	7.049877E-16
4.213856E+03	2.739442E-15	7.132998E-16
4.223842E+03	2.771893E-15	7.217148E-16
4.233827E+03	2.804681E-15	7.302169E-16
4.243813E+03	2.837900E-15	7.388307E-16
4.253798E+03	2.871493E-15	7.475407E-16
4.263783E+03	2.905502E-15	7.563581E-16
4.273769E+03	2.939919E-15	7.652809E-16
4.283754E+03	2.974735E-15	7.743067E-16
4.293740E+03	3.009939E-15	7.834327E-16
4.303725E+03	3.045621E-15	7.926822E-16
4.313711E+03	3.081667E-15	8.020255E-16
4.323696E+03	3.118062E-15	8.114590E-16
4.333681E+03	3.154888E-15	8.210035E-16
4.343667E+03	3.191976E-15	8.306152E-16
4.353652E+03	3.229399E-15	8.403133E-16
4.363638E+03	3.267080E-15	8.500778E-16
4.373623E+03	3.304940E-15	8.598877E-16
4.383609E+03	3.342941E-15	8.697333E-16
4.393594E+03	3.381042E-15	8.796042E-16
4.403580E+03	3.419148E-15	8.894755E-16
4.413565E+03	3.457210E-15	8.993342E-16
4.423550E+03	3.495070E-15	9.091397E-16
4.433536E+03	3.532767E-15	9.189017E-16
4.443521E+03	3.570133E-15	9.285769E-16
4.453507E+03	3.607194E-15	9.381719E-16
4.463492E+03	3.643872E-15	9.476663E-16
4.473478E+03	3.680180E-15	9.570638E-16
4.483463E+03	3.716032E-15	9.663416E-16
4.493449E+03	3.751431E-15	9.755011E-16
4.503434E+03	3.786382E-15	9.845430E-16
4.513419E+03	3.820783E-15	9.934414E-16
4.523405E+03	3.854683E-15	1.002208E-15
4.533390E+03	3.888024E-15	1.010830E-15
4.543376E+03	3.920702E-15	1.019278E-15
4.553361E+03	3.952760E-15	1.027564E-15
4.563347E+03	3.984140E-15	1.035673E-15
4.573332E+03	4.014786E-15	1.043591E-15
4.583318E+03	4.044742E-15	1.051328E-15
4.593303E+03	4.073854E-15	1.058846E-15
4.603288E+03	4.102172E-15	1.066157E-15
4.613274E+03	4.129647E-15	1.073248E-15
4.623259E+03	4.156283E-15	1.080120E-15
4.633245E+03	4.181989E-15	1.086751E-15
4.643230E+03	4.206828E-15	1.093155E-15
4.653216E+03	4.230716E-15	1.099312E-15
4.663201E+03	4.253626E-15	1.105214E-15
4.673186E+03	4.275632E-15	1.110881E-15
4.683172E+03	4.296617E-15	1.116283E-15
4.693157E+03	4.316617E-15	1.121428E-15
4.703143E+03	4.335623E-15	1.126314E-15
4.713128E+03	4.353531E-15	1.130915E-15
4.723114E+03	4.370392E-15	1.135243E-15
4.733099E+03	4.386111E-15	1.139275E-15
4.743085E+03	4.400699E-15	1.143013E-15
4.753070E+03	4.414071E-15	1.146435E-15
4.763055E+03	4.426246E-15	1.149545E-15
4.773041E+03	4.437293E-15	1.152363E-15
4.783026E+03	4.447140E-15	1.154869E-15
4.793012E+03	4.455914E-15	1.157096E-15
4.802997E+03	4.463694E-15	1.159065E-15
4.812983E+03	4.470562E-15	1.160797E-15
4.822968E+03	4.476602E-15	1.162314E-15
4.832954E+03	4.481950E-15	1.163651E-15
4.842939E+03	4.486644E-15	1.164819E-15
4.852924E+03	4.490820E-15	1.165852E-15
4.862910E+03	4.494522E-15	1.166763E-15
4.872895E+03	4.497837E-15	1.167573E-15
4.882881E+03	4.500762E-15	1.168282E-15
4.892866E+03	4.503437E-15	1.168926E-15
4.902852E+03	4.505857E-15	1.169504E-15
4.912837E+03	4.508115E-15	1.170040E-15
4.922823E+03	4.510256E-15	1.170546E-15
4.932808E+03	4.512324E-15	1.171033E-15
4.942793E+03	4.514411E-15	1.171525E-15
4.952779E+03	4.516513E-15	1.172021E-15
4.962764E+03	4.518722E-15	1.172545E-15
4.972750E+03	4.521032E-15	1.173096E-15
4.982735E+03	4.523579E-15	1.173708E-15
4.992721E+03	4.526357E-15	1.174380E-15
5.002706E+03	4.529403E-15	1.175122E-15
5.012691E+03	4.532800E-15	1.175955E-15
5.022677E+03	4.536536E-15	1.176876E-15
5.032662E+03	4.540691E-15	1.177906E-15
5.042648E+03	4.545339E-15	1.179065E-15
5.052633E+03	4.550413E-15	1.180333E-15
5.062619E+03	4.556030E-15	1.181743E-15
5.072604E+03	4.562162E-15	1.183287E-15
5.082590E+03	4.568871E-15	1.184980E-15
5.092575E+03	4.576124E-15	1.186814E-15
5.102560E+03	4.583973E-15	1.188804E-15
5.112546E+03	4.592471E-15	1.190961E-15
5.122531E+03	4.601521E-15	1.193262E-15
5.132517E+03	4.611214E-15	1.195730E-15
5.142502E+03	4.621492E-15	1.198349E-15
5.152488E+03	4.632342E-15	1.201117E-15
5.162473E+03	4.643791E-15	1.204040E-15
5.172459E+03	4.655770E-15	1.207101E-15
5.182444E+03	4.668300E-15	1.210305E-15
5.192429E+03	4.681301E-15	1.213631E-15
5.202415E+03	4.694785E-15	1.217082E-15
5.212400E+03	4.708715E-15	1.220649E-15
5.222386E+03	4.722999E-15	1.224307E-15
5.232371E+03	4.737639E-15	1.228059E-15
5.242357E+03	4.752587E-15	1.231889E-15
5.252342E+03	4.767743E-15	1.235774E-15
5.262328E+03	4.783051E-15	1.239699E-15
5.272313E+03	4.798505E-15	1.243661E-15
5.282298E+03	4.814047E-15	1.247646E-15
5.292284E+03	4.829569E-15	1.251627E-15
5.302269E+03	4.845009E-15	1.255586E-15
5.312255E+03	4.860308E-15	1.259509E-15
5.322240E+03	4.875404E-15	1.263379E-15
5.332226E+03	4.890235E-15	1.267180E-15
5.342211E+03	4.904743E-15	1.270898E-15
5.352196E+03	4.918816E-15	1.274504E-15
5.362182E+03	4.932447E-15	1.277995E-15
5.372167E+03	4.945529E-15	1.281345E-15
5.382153E+03	4.958008E-15	1.284538E-15
5.392138E+03	4.969833E-15	1.287562E-15
5.402124E+03	4.980904E-15	1.290391E-15
5.412109E+03	4.991226E-15	1.293026E-15
5.422095E+03	5.000706E-15	1.295444E-15
5.432080E+03	5.009307E-15	1.297634E-15
5.442065E+03	5.016945E-15	1.299575E-15
5.452051E+03	5.023590E-15	1.301259E-15
5.462036E+03	5.029117E-15	1.302654E-15
5.472022E+03	5.033455E-15	1.303741E-15
5.482007E+03	5.036438E-15	1.304478E-15
5.491993E+03	5.038006E-15	1.304848E-15
5.501978E+03	5.038404E-15	1.304917E-15
5.511964E+03	5.037734E-15	1.304709E-15
5.521949E+03	5.036052E-15	1.304239E-15
5.531934E+03	5.033466E-15	1.303536E-15
5.541920E+03	5.029990E-15	1.302602E-15
5.551905E+03	5.025639E-15	1.301443E-15
5.561891E+03	5.020485E-15	1.300076E-15
5.571876E+03	5.014550E-15	1.298507E-15
5.581862E+03	5.007809E-15	1.296731E-15
5.591847E+03	5.000390E-15	1.294779E-15
5.601833E+03	4.992270E-15	1.292646E-15
5.611818E+03	4.983480E-15	1.290340E-15
5.621803E+03	4.974148E-15	1.287895E-15
5.631789E+03	4.964206E-15	1.285292E-15
5.641774E+03	4.953683E-15	1.282539E-15
5.651760E+03	4.942756E-15	1.279682E-15
5.661745E+03	4.931304E-15	1.276690E-15
5.671731E+03	4.919402E-15	1.273582E-15
5.681716E+03	4.907124E-15	1.270377E-15
5.691701E+03	4.894491E-15	1.267080E-15
5.701687E+03	4.881474E-15	1.263685E-15
5.711672E+03	4.868141E-15	1.260209E-15
5.721658E+03	4.854506E-15	1.256655E-15
5.731643E+03	4.840583E-15	1.253027E-15
5.741629E+03	4.826335E-15	1.249316E-15
5.751614E+03	4.811868E-15	1.245548E-15
5.761600E+03	4.797142E-15	1.241714E-15
5.771585E+03	4.782115E-15	1.237802E-15
5.781570E+03	4.766891E-15	1.233840E-15
5.791556E+03	4.751423E-15	1.229816E-15
5.801541E+03	4.735719E-15	1.225731E-15
5.811527E+03	4.719781E-15	1.221586E-15
5.821512E+03	4.703660E-15	1.217394E-15
5.831498E+03	4.687269E-15	1.213133E-15
5.841483E+03	4.670706E-15	1.208828E-15
5.851469E+03	4.653885E-15	1.204456E-15
5.861454E+03	4.636905E-15	1.200044E-15
5.871439E+03	4.619683E-15	1.195570E-15
5.881425E+03	4.602276E-15	1.191048E-15
5.891410E+03	4.584695E-15	1.186482E-15
5.901396E+03	4.566953E-15	1.181875E-15
5.911381E+03	4.549019E-15	1.177219E-15
5.921367E+03	4.530909E-15	1.172518E-15
5.931352E+03	4.512686E-15	1.167788E-15
5.941338E+03	4.494322E-15	1.163022E-15
5.951323E+03	4.475835E-15	1.158225E-15
5.961308E+03	4.457202E-15	1.153390E-15
5.971294E+03	4.438487E-15	1.148535E-15
5.981279E+03	4.419666E-15	1.143653E-15
5.991265E+03	4.400758E-15	1.138749E-15
6.001250E+03	4.381785E-15	1.133828E-15
6.011236E+03	4.362722E-15	1.128885E-15
6.021221E+03	4.343630E-15	1.123935E-15
6.031207E+03	4.324440E-15	1.118960E-15
6.041192E+03	4.305212E-15	1.113975E-15
6.051177E+03	4.285875E-15	1.108963E-15
6.061163E+03	4.266487E-15	1.103938E-15
6.071148E+03	4.247057E-15	1.098903E-15
6.081134E+03	4.227468E-15	1.093827E-15
6.091119E+03	4.207815E-15	1.088735E-15
6.101105E+03	4.188017E-15	1.083606E-15
6.111090E+03	4.168037E-15	1.078430E-15
6.121075E+03	4.147879E-15	1.073209E-15
6.131061E+03	4.127500E-15	1.067931E-15
6.141046E+03	4.106858E-15	1.062585E-15
6.151032E+03	4.085908E-15	1.057161E-15
6.161017E+03	4.064643E-15	1.051655E-15
6.171003E+03	4.043098E-15	1.046077E-15
6.180988E+03	4.021181E-15	1.040403E-15
6.190974E+03	3.998919E-15	1.034641E-15
6.200959E+03	3.976340E-15	1.028797E-15
6.210944E+03	3.953466E-15	1.022877E-15
6.220930E+03	3.930278E-15	1.016876E-15
6.230915E+03	3.906795E-15	1.010799E-15
6.240901E+03	3.883033E-15	1.004651E-15
6.250886E+03	3.858967E-15	9.984242E-16
6.260872E+03	3.834571E-15	9.921124E-16
6.270857E+03	3.809894E-15	9.857284E-16
6.280843E+03	3.784908E-15	9.792647E-16
6.290828E+03	3.759544E-15	9.727037E-16
6.300813E+03	3.733810E-15	9.660471E-16
6.310799E+03	3.707677E-15	9.592877E-16
6.320784E+03	3.681114E-15	9.524173E-16
6.330770E+03	3.654092E-15	9.454286E-16
6.340755E+03	3.626583E-15	9.383140E-16
6.350741E+03	3.598599E-15	9.310769E-16
6.360726E+03	3.570076E-15	9.237007E-16
6.370712E+03	3.541030E-15	9.161892E-16
6.380697E+03	3.511368E-15	9.085188E-16
6.390682E+03	3.481148E-15	9.007039E-16
6.400668E+03	3.450284E-15	8.927228E-16
6.410653E+03	3.418840E-15	8.845919E-16
6.420639E+03	3.386743E-15	8.762921E-16
6.430624E+03	3.353992E-15	8.678233E-16
6.440610E+03	3.320597E-15	8.591879E-16
6.450595E+03	3.286602E-15	8.503976E-16
6.460580E+03	3.251956E-15	8.414390E-16
6.470566E+03	3.216684E-15	8.323183E-16
6.480551E+03	3.180846E-15	8.230515E-16
6.490537E+03	3.144410E-15	8.136299E-16
6.500522E+03	3.107484E-15	8.040815E-16
6.510508E+03	3.070043E-15	7.944002E-16
6.520493E+03	3.032238E-15	7.846246E-16
6.530479E+03	2.994055E-15	7.747511E-16
6.540464E+03	2.955614E-15	7.648112E-16
6.550449E+03	2.917008E-15	7.548283E-16
6.560435E+03	2.878266E-15	7.448102E-16
6.570420E+03	2.839513E-15	7.347895E-16
6.580406E+03	2.800815E-15	7.247829E-16
6.590391E+03	2.762266E-15	7.148149E-16
6.600377E+03	2.723932E-15	7.049023E-16
6.610362E+03	2.685877E-15	6.950621E-16
6.620348E+03	2.648227E-15	6.853264E-16
6.630333E+03	2.611012E-15	6.757033E-16
6.640318E+03	2.574321E-15	6.662160E-16
6.650304E+03	2.538216E-15	6.568799E-16
6.660289E+03	2.502779E-15	6.477169E-16
6.670275E+03	2.468035E-15	6.387330E-16
6.680260E+03	2.434090E-15	6.299560E-16
6.690246E+03	2.400991E-15	6.213977E-16
6.700231E+03	2.368780E-15	6.130691E-16
6.710217E+03	2.337468E-15	6.049731E-16
6.720202E+03	2.307145E-15	5.971332E-16
6.730187E+03	2.277844E-15	5.895576E-16
6.740173E+03	2.249564E-15	5.822461E-16
6.750158E+03	2.222384E-15	5.752192E-16
6.760144E+03	2.196270E-15	5.684682E-16
6.770129E+03	2.171291E-15	5.620110E-16
6.780115E+03	2.147436E-15	5.558446E-16
6.790100E+03	2.124741E-15	5.499783E-16
6.800085E+03	2.103212E-15	5.444138E-16
6.810071E+03	2.082852E-15	5.391519E-16
6.820056E+03	2.063640E-15	5.341871E-16
6.830042E+03	2.045623E-15	5.295315E-16
6.840027E+03	2.028773E-15	5.251780E-16
6.850013E+03	2.013085E-15	5.211252E-16
6.859998E+03	1.998551E-15	5.173711E-16
6.869984E+03	1.985185E-15	5.139194E-16
6.879969E+03	1.972951E-15	5.107609E-16
6.889954E+03	1.961863E-15	5.078988E-16
6.899940E+03	1.951880E-15	5.053230E-16
6.909925E+03	1.943012E-15	5.030356E-16
6.919911E+03	1.935217E-15	5.010264E-16
6.929896E+03	1.928504E-15	4.992970E-16
6.939882E+03	1.922829E-15	4.978365E-16
6.949867E+03	1.918197E-15	4.966460E-16
6.959853E+03	1.914588E-15	4.957204E-16
6.969838E+03	1.911956E-15	4.950479E-16
6.979823E+03	1.910305E-15	4.946297E-16
6.989809E+03	1.909614E-15	4.944597E-16
6.999794E+03	1.909834E-15	4.945260E-16
7.009780E+03	1.910944E-15	4.948227E-16
7.019765E+03	1.912945E-15	4.953501E-16
7.029751E+03	1.915812E-15	4.961020E-16
7.039736E+03	1.919472E-15	4.970596E-16
7.049722E+03	1.923975E-15	4.982353E-16
7.059707E+03	1.929222E-15	4.996038E-16
7.069692E+03	1.935236E-15	5.011712E-16
7.079678E+03	1.941967E-15	5.029244E-16
7.089663E+03	1.949389E-15	5.048565E-16
7.099649E+03	1.957475E-15	5.069610E-16
7.109634E+03	1.966199E-15	5.092307E-16
7.119620E+03	1.975507E-15	5.116521E-16
7.129605E+03	1.985424E-15	5.142311E-16
7.139590E+03	1.995870E-15	5.169475E-16
7.149576E+03	2.006843E-15	5.198006E-16
7.159561E+03	2.018262E-15	5.227695E-16
7.169547E+03	2.030178E-15	5.258672E-16
7.179532E+03	2.042483E-15	5.290660E-16
7.189518E+03	2.055174E-15	5.323648E-16
7.199503E+03	2.068222E-15	5.357564E-16
7.209489E+03	2.081570E-15	5.392260E-16
7.219474E+03	2.095216E-15	5.427730E-16
7.229459E+03	2.109103E-15	5.463827E-16
7.239445E+03	2.123202E-15	5.500476E-16
7.249430E+03	2.137483E-15	5.537598E-16
7.259416E+03	2.151888E-15	5.575046E-16
7.269401E+03	2.166387E-15	5.612741E-16
7.279387E+03	2.180952E-15	5.650605E-16
7.289372E+03	2.195524E-15	5.688493E-16
7.299358E+03	2.210072E-15	5.726322E-16
7.309343E+03	2.224568E-15	5.764018E-16
7.319328E+03	2.238925E-15	5.801356E-16
7.329314E+03	2.253169E-15	5.838406E-16
7.339299E+03	2.267185E-15	5.874867E-16
7.349285E+03	2.280944E-15	5.910664E-16
7.359270E+03	2.294414E-15	5.945716E-16
7.369256E+03	2.307508E-15	5.979796E-16
7.379241E+03	2.320225E-15	6.012900E-16
7.389227E+03	2.332475E-15	6.044799E-16
7.399212E+03	2.344229E-15	6.075415E-16
7.409197E+03	2.355397E-15	6.104515E-16
7.419183E+03	2.365949E-15	6.132018E-16
7.429168E+03	2.375854E-15	6.157849E-16
7.439154E+03	2.385115E-15	6.182014E-16
7.449139E+03	2.393703E-15	6.204437E-16
7.459125E+03	2.401653E-15	6.225207E-16
7.469110E+03	2.408906E-15	6.244175E-16
7.479095E+03	2.415467E-15	6.261351E-16
7.489081E+03	2.421374E-15	6.276832E-16
7.499066E+03	2.426569E-15	6.290469E-16
7.509052E+03	2.431058E-15	6.302280E-16
7.519037E+03	2.434817E-15	6.312200E-16
7.529023E+03	2.437885E-15	6.320328E-16
7.539008E+03	2.440206E-15	6.326523E-16
7.548994E+03	2.441789E-15	6.330806E-16
7.558979E+03	2.442610E-15	6.333116E-16
7.568964E+03	2.442680E-15	6.333479E-16
7.578950E+03	2.441944E-15	6.331753E-16
7.588935E+03	2.440414E-15	6.327970E-16
7.598921E+03	2.438068E-15	6.322073E-16
7.608906E+03	2.434889E-15	6.314015E-16
7.618892E+03	2.430858E-15	6.303749E-16
7.628877E+03	2.426020E-15	6.291393E-16
7.638863E+03	2.420266E-15	6.276661E-16
7.648848E+03	2.413677E-15	6.259765E-16
7.658833E+03	2.406209E-15	6.240589E-16
7.668819E+03	2.397819E-15	6.219021E-16
7.678804E+03	2.388563E-15	6.195208E-16
7.688790E+03	2.378372E-15	6.168969E-16
7.698775E+03	2.367305E-15	6.140458E-16
7.708761E+03	2.355330E-15	6.109590E-16
7.718746E+03	2.342446E-15	6.076367E-16
7.728732E+03	2.328693E-15	6.040885E-16
7.738717E+03	2.314012E-15	6.002997E-16
7.748702E+03	2.298477E-15	5.962894E-16
