#wls	flux	fluxerr
1.597671E+03	2.484573E-16	1.193692E-16
1.637612E+03	2.447746E-16	1.175997E-16
1.677554E+03	2.403176E-16	1.154582E-16
1.717496E+03	2.350415E-16	1.129232E-16
1.757438E+03	2.289868E-16	1.100141E-16
1.797379E+03	2.219890E-16	1.066519E-16
1.837321E+03	2.138766E-16	1.027542E-16
1.877263E+03	2.043615E-16	9.818266E-17
1.917205E+03	1.933633E-16	9.289854E-17
1.957146E+03	1.808891E-16	8.690533E-17
1.997088E+03	1.674100E-16	8.042935E-17
2.037030E+03	1.539160E-16	7.394627E-17
2.076972E+03	1.421261E-16	6.828190E-17
2.116914E+03	1.339179E-16	6.433827E-17
2.156855E+03	1.306504E-16	6.276835E-17
2.196797E+03	1.326482E-16	6.372799E-17
2.236739E+03	1.392105E-16	6.688057E-17
2.276681E+03	1.489362E-16	7.155292E-17
2.316622E+03	1.604037E-16	7.706202E-17
2.356564E+03	1.725488E-16	8.289664E-17
2.396506E+03	1.846157E-16	8.869366E-17
2.436448E+03	1.963092E-16	9.431130E-17
2.476389E+03	2.074544E-16	9.966544E-17
2.516331E+03	2.181351E-16	1.047964E-16
2.556273E+03	2.283707E-16	1.097135E-16
2.596215E+03	2.383392E-16	1.145022E-16
2.636156E+03	2.481171E-16	1.191994E-16
2.676098E+03	2.578452E-16	1.238726E-16
2.716040E+03	2.675761E-16	1.285471E-16
2.755982E+03	2.774267E-16	1.332791E-16
2.795924E+03	2.874217E-16	1.380804E-16
2.835865E+03	2.976138E-16	1.429764E-16
2.875807E+03	3.081333E-16	1.480296E-16
2.915749E+03	3.189308E-16	1.532163E-16
2.955691E+03	3.300329E-16	1.585493E-16
2.995632E+03	3.415545E-16	1.640838E-16
3.005618E+03	3.444851E-16	1.654916E-16
3.015603E+03	3.474794E-16	1.669299E-16
3.025589E+03	3.504417E-16	1.683529E-16
3.035574E+03	3.534760E-16	1.698105E-16
3.045560E+03	3.565590E-16	1.712914E-16
3.055545E+03	3.597224E-16	1.728109E-16
3.065530E+03	3.629582E-16	1.743653E-16
3.075516E+03	3.662584E-16	1.759505E-16
3.085501E+03	3.696656E-16	1.775872E-16
3.095487E+03	3.731239E-16	1.792484E-16
3.105472E+03	3.766276E-16	1.809315E-16
3.115458E+03	3.801704E-16	1.826333E-16
3.125443E+03	3.837477E-16	1.843517E-16
3.135429E+03	3.874059E-16	1.861089E-16
3.145414E+03	3.910380E-16	1.878536E-16
3.155399E+03	3.947432E-16	1.896334E-16
3.165385E+03	3.984664E-16	1.914219E-16
3.175370E+03	4.022573E-16	1.932428E-16
3.185356E+03	4.060074E-16	1.950442E-16
3.195341E+03	4.098196E-16	1.968754E-16
3.205327E+03	4.136388E-16	1.987099E-16
3.215312E+03	4.174626E-16	2.005467E-16
3.225298E+03	4.212892E-16	2.023848E-16
3.235283E+03	4.251166E-16	2.042233E-16
3.245268E+03	4.289984E-16	2.060879E-16
3.255254E+03	4.328784E-16	2.079516E-16
3.265239E+03	4.367555E-16	2.098140E-16
3.275225E+03	4.406286E-16	2.116744E-16
3.285210E+03	4.444967E-16	2.135324E-16
3.295196E+03	4.484157E-16	2.154149E-16
3.305181E+03	4.523289E-16	2.172946E-16
3.315166E+03	4.562353E-16	2.191710E-16
3.325152E+03	4.601350E-16	2.210441E-16
3.335137E+03	4.640270E-16	2.229136E-16
3.345123E+03	4.679697E-16	2.248075E-16
3.355108E+03	4.718465E-16	2.266696E-16
3.365094E+03	4.757741E-16	2.285562E-16
3.375079E+03	4.796940E-16	2.304391E-16
3.385065E+03	4.836658E-16	2.323469E-16
3.395050E+03	4.875708E-16	2.342226E-16
3.405035E+03	4.915283E-16	2.361235E-16
3.415021E+03	4.954185E-16	2.379921E-16
3.425006E+03	4.994225E-16	2.399153E-16
3.434992E+03	5.033598E-16	2.418065E-16
3.444977E+03	5.072906E-16	2.436946E-16
3.454963E+03	5.112764E-16	2.456091E-16
3.464948E+03	5.151953E-16	2.474915E-16
3.474934E+03	5.191701E-16	2.494006E-16
3.484919E+03	5.231399E-16	2.513074E-16
3.494904E+03	5.271672E-16	2.532419E-16
3.504890E+03	5.311280E-16	2.551443E-16
3.514875E+03	5.351471E-16	2.570748E-16
3.524861E+03	5.391626E-16	2.590035E-16
3.534846E+03	5.431744E-16	2.609305E-16
3.544832E+03	5.471831E-16	2.628559E-16
3.554817E+03	5.511887E-16	2.647799E-16
3.564803E+03	5.552553E-16	2.667331E-16
3.574788E+03	5.592553E-16	2.686544E-16
3.584773E+03	5.633172E-16	2.706054E-16
3.594759E+03	5.673767E-16	2.725553E-16
3.604744E+03	5.714344E-16	2.745042E-16
3.614730E+03	5.755550E-16	2.764834E-16
3.624715E+03	5.796088E-16	2.784305E-16
3.634701E+03	5.837262E-16	2.804081E-16
3.644686E+03	5.877760E-16	2.823533E-16
3.654671E+03	5.918899E-16	2.843292E-16
3.664657E+03	5.960019E-16	2.863043E-16
3.674642E+03	6.001785E-16	2.883103E-16
3.684628E+03	6.042869E-16	2.902836E-16
3.694613E+03	6.084599E-16	2.922879E-16
3.704599E+03	6.125638E-16	2.942591E-16
3.714584E+03	6.167323E-16	2.962612E-16
3.724570E+03	6.208983E-16	2.982622E-16
3.734555E+03	6.250615E-16	3.002617E-16
3.744540E+03	6.292215E-16	3.022598E-16
3.754526E+03	6.334461E-16	3.042889E-16
3.764511E+03	6.375989E-16	3.062835E-16
3.774497E+03	6.418159E-16	3.083089E-16
3.784482E+03	6.460284E-16	3.103322E-16
3.794468E+03	6.501671E-16	3.123200E-16
3.804453E+03	6.543692E-16	3.143382E-16
3.814439E+03	6.586348E-16	3.163870E-16
3.824424E+03	6.628249E-16	3.183995E-16
3.834409E+03	6.670076E-16	3.204084E-16
3.844395E+03	6.711826E-16	3.224136E-16
3.854380E+03	6.754195E-16	3.244486E-16
3.864366E+03	6.796479E-16	3.264794E-16
3.874351E+03	6.837964E-16	3.284719E-16
3.884337E+03	6.880050E-16	3.304932E-16
3.894322E+03	6.922029E-16	3.325095E-16
3.904308E+03	6.963894E-16	3.345202E-16
3.914293E+03	7.005635E-16	3.365249E-16
3.924278E+03	7.047243E-16	3.385233E-16
3.934264E+03	7.088714E-16	3.405151E-16
3.944249E+03	7.130035E-16	3.424997E-16
3.954235E+03	7.171921E-16	3.445114E-16
3.964220E+03	7.212925E-16	3.464807E-16
3.974206E+03	7.254475E-16	3.484763E-16
3.984191E+03	7.295123E-16	3.504285E-16
3.994176E+03	7.336305E-16	3.524064E-16
4.004162E+03	7.376562E-16	3.543398E-16
4.014147E+03	7.417335E-16	3.562981E-16
4.024133E+03	7.457892E-16	3.582459E-16
4.034118E+03	7.497490E-16	3.601477E-16
4.044104E+03	7.537583E-16	3.620733E-16
4.054089E+03	7.577431E-16	3.639870E-16
4.064075E+03	7.616287E-16	3.658532E-16
4.074060E+03	7.655611E-16	3.677418E-16
4.084045E+03	7.694659E-16	3.696171E-16
4.094031E+03	7.733420E-16	3.714787E-16
4.104016E+03	7.771889E-16	3.733262E-16
4.114002E+03	7.810051E-16	3.751589E-16
4.123987E+03	7.847153E-16	3.769408E-16
4.133973E+03	7.884673E-16	3.787427E-16
4.143958E+03	7.921857E-16	3.805285E-16
4.153944E+03	7.958697E-16	3.822978E-16
4.163929E+03	7.995180E-16	3.840499E-16
4.173914E+03	8.030552E-16	3.857486E-16
4.183900E+03	8.066293E-16	3.874651E-16
4.193885E+03	8.101652E-16	3.891632E-16
4.203871E+03	8.135867E-16	3.908064E-16
4.213856E+03	8.170425E-16	3.924660E-16
4.223842E+03	8.203822E-16	3.940698E-16
4.233827E+03	8.237544E-16	3.956893E-16
4.243813E+03	8.270083E-16	3.972519E-16
4.253798E+03	8.302932E-16	3.988295E-16
4.263783E+03	8.334578E-16	4.003492E-16
4.273769E+03	8.365764E-16	4.018469E-16
4.283754E+03	8.396484E-16	4.033221E-16
4.293740E+03	8.426724E-16	4.047743E-16
4.303725E+03	8.456480E-16	4.062033E-16
4.313711E+03	8.485744E-16	4.076086E-16
4.323696E+03	8.514504E-16	4.089897E-16
4.333681E+03	8.542002E-16	4.103102E-16
4.343667E+03	8.569739E-16	4.116421E-16
4.353652E+03	8.596196E-16	4.129126E-16
4.363638E+03	8.622876E-16	4.141938E-16
4.373623E+03	8.648264E-16	4.154130E-16
4.383609E+03	8.673106E-16	4.166059E-16
4.393594E+03	8.697397E-16	4.177723E-16
4.403580E+03	8.721133E-16	4.189121E-16
4.413565E+03	8.744302E-16	4.200246E-16
4.423550E+03	8.766150E-16	4.210737E-16
4.433536E+03	8.788179E-16	4.221315E-16
4.443521E+03	8.808874E-16	4.231252E-16
4.453507E+03	8.828985E-16	4.240908E-16
4.463492E+03	8.848507E-16	4.250282E-16
4.473478E+03	8.867438E-16	4.259372E-16
4.483463E+03	8.885020E-16	4.267813E-16
4.493449E+03	8.902753E-16	4.276328E-16
4.503434E+03	8.919132E-16	4.284192E-16
4.513419E+03	8.934905E-16	4.291765E-16
4.523405E+03	8.950069E-16	4.299045E-16
4.533390E+03	8.964621E-16	4.306031E-16
4.543376E+03	8.978563E-16	4.312724E-16
4.553361E+03	8.991140E-16	4.318762E-16
4.563347E+03	9.003101E-16	4.324504E-16
4.573332E+03	9.014446E-16	4.329950E-16
4.583318E+03	9.025172E-16	4.335098E-16
4.593303E+03	9.034536E-16	4.339593E-16
4.603288E+03	9.044025E-16	4.344147E-16
4.613274E+03	9.052155E-16	4.348049E-16
4.623259E+03	9.059667E-16	4.351654E-16
4.633245E+03	9.066560E-16	4.354962E-16
4.643230E+03	9.072103E-16	4.357621E-16
4.653216E+03	9.077033E-16	4.359985E-16
4.663201E+03	9.082083E-16	4.362408E-16
4.673186E+03	9.085055E-16	4.363832E-16
4.683172E+03	9.088153E-16	4.365317E-16
4.693157E+03	9.089915E-16	4.366160E-16
4.703143E+03	9.091077E-16	4.366715E-16
4.713128E+03	9.091640E-16	4.366982E-16
4.723114E+03	9.091606E-16	4.366963E-16
4.733099E+03	9.090255E-16	4.366311E-16
4.743085E+03	9.088322E-16	4.365379E-16
4.753070E+03	9.085803E-16	4.364166E-16
4.763055E+03	9.082705E-16	4.362675E-16
4.773041E+03	9.078317E-16	4.360564E-16
4.783026E+03	9.074076E-16	4.358524E-16
4.793012E+03	9.067844E-16	4.355528E-16
4.802997E+03	9.061769E-16	4.352607E-16
4.812983E+03	9.054431E-16	4.349079E-16
4.822968E+03	9.046550E-16	4.345290E-16
4.832954E+03	9.038130E-16	4.341243E-16
4.842939E+03	9.029174E-16	4.336939E-16
4.852924E+03	9.018991E-16	4.332045E-16
4.862910E+03	9.008291E-16	4.326902E-16
4.872895E+03	8.997077E-16	4.321513E-16
4.882881E+03	8.984663E-16	4.315548E-16
4.892866E+03	8.972443E-16	4.309675E-16
4.902852E+03	8.959041E-16	4.303235E-16
4.912837E+03	8.944471E-16	4.296234E-16
4.922823E+03	8.930111E-16	4.289334E-16
4.932808E+03	8.914598E-16	4.281880E-16
4.942793E+03	8.897948E-16	4.273880E-16
4.952779E+03	8.881527E-16	4.265990E-16
4.962764E+03	8.863986E-16	4.257562E-16
4.972750E+03	8.846012E-16	4.248926E-16
4.982735E+03	8.827613E-16	4.240086E-16
4.992721E+03	8.808125E-16	4.230724E-16
5.002706E+03	8.788231E-16	4.221165E-16
5.012691E+03	8.767935E-16	4.211414E-16
5.022677E+03	8.747248E-16	4.201475E-16
5.032662E+03	8.725519E-16	4.191036E-16
5.042648E+03	8.703414E-16	4.180417E-16
5.052633E+03	8.680946E-16	4.169622E-16
5.062619E+03	8.657469E-16	4.158344E-16
5.072604E+03	8.633647E-16	4.146899E-16
5.082590E+03	8.609486E-16	4.135292E-16
5.092575E+03	8.584993E-16	4.123526E-16
5.102560E+03	8.559537E-16	4.111296E-16
5.112546E+03	8.533771E-16	4.098918E-16
5.122531E+03	8.507701E-16	4.086395E-16
5.132517E+03	8.480705E-16	4.073426E-16
5.142502E+03	8.454049E-16	4.060621E-16
5.152488E+03	8.425864E-16	4.047081E-16
5.162473E+03	8.398036E-16	4.033713E-16
5.172459E+03	8.369327E-16	4.019922E-16
5.182444E+03	8.340368E-16	4.006010E-16
5.192429E+03	8.311165E-16	3.991982E-16
5.202415E+03	8.281726E-16	3.977840E-16
5.212400E+03	8.251451E-16	3.963297E-16
5.222386E+03	8.220961E-16	3.948650E-16
5.232371E+03	8.189656E-16	3.933612E-16
5.242357E+03	8.158752E-16	3.918767E-16
5.252342E+03	8.127058E-16	3.903542E-16
5.262328E+03	8.095180E-16	3.888229E-16
5.272313E+03	8.062532E-16	3.872546E-16
5.282298E+03	8.030305E-16	3.857066E-16
5.292284E+03	7.997330E-16	3.841225E-16
5.302269E+03	7.963619E-16	3.825032E-16
5.312255E+03	7.930348E-16	3.809050E-16
5.322240E+03	7.896357E-16	3.792723E-16
5.332226E+03	7.862240E-16	3.776334E-16
5.342211E+03	7.828000E-16	3.759887E-16
5.352196E+03	7.793073E-16	3.743110E-16
5.362182E+03	7.758044E-16	3.726284E-16
5.372167E+03	7.722912E-16	3.709408E-16
5.382153E+03	7.687689E-16	3.692489E-16
5.392138E+03	7.651818E-16	3.675259E-16
5.402124E+03	7.615875E-16	3.657994E-16
5.412109E+03	7.579855E-16	3.640692E-16
5.422095E+03	7.543771E-16	3.623360E-16
5.432080E+03	7.507083E-16	3.605737E-16
5.442065E+03	7.470345E-16	3.588090E-16
5.452051E+03	7.433559E-16	3.570421E-16
5.462036E+03	7.396735E-16	3.552732E-16
5.472022E+03	7.359345E-16	3.534773E-16
5.482007E+03	7.321930E-16	3.516801E-16
5.491993E+03	7.284492E-16	3.498819E-16
5.501978E+03	7.247043E-16	3.480831E-16
5.511964E+03	7.209063E-16	3.462588E-16
5.521949E+03	7.171599E-16	3.444593E-16
5.531934E+03	7.133620E-16	3.426350E-16
5.541920E+03	7.095138E-16	3.407866E-16
5.551905E+03	7.057184E-16	3.389636E-16
5.561891E+03	7.018742E-16	3.371171E-16
5.571876E+03	6.980330E-16	3.352721E-16
5.581862E+03	6.941946E-16	3.334284E-16
5.591847E+03	6.903598E-16	3.315865E-16
5.601833E+03	6.864797E-16	3.297228E-16
5.611818E+03	6.826044E-16	3.278614E-16
5.621803E+03	6.787345E-16	3.260026E-16
5.631789E+03	6.748702E-16	3.241465E-16
5.641774E+03	6.710119E-16	3.222933E-16
5.651760E+03	6.671120E-16	3.204201E-16
5.661745E+03	6.632195E-16	3.185504E-16
5.671731E+03	6.593344E-16	3.166844E-16
5.681716E+03	6.554574E-16	3.148222E-16
5.691701E+03	6.515421E-16	3.129416E-16
5.701687E+03	6.476822E-16	3.110876E-16
5.711672E+03	6.437851E-16	3.092158E-16
5.721658E+03	6.398980E-16	3.073487E-16
5.731643E+03	6.360208E-16	3.054865E-16
5.741629E+03	6.321089E-16	3.036076E-16
5.751614E+03	6.282080E-16	3.017339E-16
5.761600E+03	6.243636E-16	2.998874E-16
5.771585E+03	6.204856E-16	2.980247E-16
5.781570E+03	6.166202E-16	2.961681E-16
5.791556E+03	6.127228E-16	2.942962E-16
5.801541E+03	6.088826E-16	2.924517E-16
5.811527E+03	6.050117E-16	2.905924E-16
5.821512E+03	6.011544E-16	2.887397E-16
5.831498E+03	5.973114E-16	2.868939E-16
5.841483E+03	5.934823E-16	2.850548E-16
5.851469E+03	5.896253E-16	2.832022E-16
5.861454E+03	5.858256E-16	2.813772E-16
5.871439E+03	5.819989E-16	2.795392E-16
5.881425E+03	5.781879E-16	2.777088E-16
5.891410E+03	5.743930E-16	2.758861E-16
5.901396E+03	5.706140E-16	2.740710E-16
5.911381E+03	5.668512E-16	2.722637E-16
5.921367E+03	5.630645E-16	2.704449E-16
5.931352E+03	5.593352E-16	2.686537E-16
5.941338E+03	5.555831E-16	2.668516E-16
5.951323E+03	5.518484E-16	2.650578E-16
5.961308E+03	5.481317E-16	2.632726E-16
5.971294E+03	5.444328E-16	2.614961E-16
5.981279E+03	5.407135E-16	2.597097E-16
5.991265E+03	5.370515E-16	2.579508E-16
6.001250E+03	5.333695E-16	2.561823E-16
6.011236E+03	5.297450E-16	2.544415E-16
6.021221E+03	5.261017E-16	2.526916E-16
6.031207E+03	5.224779E-16	2.509511E-16
6.041192E+03	5.188736E-16	2.492199E-16
6.051177E+03	5.152524E-16	2.474807E-16
6.061163E+03	5.116884E-16	2.457689E-16
6.071148E+03	5.081079E-16	2.440492E-16
6.081134E+03	5.045846E-16	2.423570E-16
6.091119E+03	5.010460E-16	2.406573E-16
6.101105E+03	4.975281E-16	2.389677E-16
6.111090E+03	4.940317E-16	2.372884E-16
6.121075E+03	4.905565E-16	2.356193E-16
6.131061E+03	4.871028E-16	2.339605E-16
6.141046E+03	4.836709E-16	2.323121E-16
6.151032E+03	4.802260E-16	2.306576E-16
6.161017E+03	4.768378E-16	2.290302E-16
6.171003E+03	4.734376E-16	2.273971E-16
6.180988E+03	4.700937E-16	2.257911E-16
6.190974E+03	4.667386E-16	2.241796E-16
6.200959E+03	4.634060E-16	2.225790E-16
6.210944E+03	4.600964E-16	2.209894E-16
6.220930E+03	4.568098E-16	2.194109E-16
6.230915E+03	4.535465E-16	2.178435E-16
6.240901E+03	4.503061E-16	2.162872E-16
6.250886E+03	4.470568E-16	2.147266E-16
6.260872E+03	4.438632E-16	2.131927E-16
6.270857E+03	4.406615E-16	2.116549E-16
6.280843E+03	4.375150E-16	2.101437E-16
6.290828E+03	4.343609E-16	2.086288E-16
6.300813E+03	4.312309E-16	2.071255E-16
6.310799E+03	4.281560E-16	2.056486E-16
6.320784E+03	4.250740E-16	2.041684E-16
6.330770E+03	4.220163E-16	2.026998E-16
6.340755E+03	4.189831E-16	2.012430E-16
6.350741E+03	4.159740E-16	1.997978E-16
6.360726E+03	4.129596E-16	1.983500E-16
6.370712E+03	4.099996E-16	1.969283E-16
6.380697E+03	4.070643E-16	1.955185E-16
6.390682E+03	4.041534E-16	1.941204E-16
6.400668E+03	4.012379E-16	1.927201E-16
6.410653E+03	3.983764E-16	1.913458E-16
6.420639E+03	3.955107E-16	1.899694E-16
6.430624E+03	3.926700E-16	1.886051E-16
6.440610E+03	3.898828E-16	1.872664E-16
6.450595E+03	3.870919E-16	1.859260E-16
6.460580E+03	3.843260E-16	1.845975E-16
6.470566E+03	3.815850E-16	1.832810E-16
6.480551E+03	3.788691E-16	1.819766E-16
6.490537E+03	3.762058E-16	1.806975E-16
6.500522E+03	3.735398E-16	1.794170E-16
6.510508E+03	3.708985E-16	1.781485E-16
6.520493E+03	3.682551E-16	1.768789E-16
6.530479E+03	3.656639E-16	1.756343E-16
6.540464E+03	3.630974E-16	1.744017E-16
6.550449E+03	3.605557E-16	1.731809E-16
6.560435E+03	3.580386E-16	1.719720E-16
6.570420E+03	3.555199E-16	1.707623E-16
6.580406E+03	3.530523E-16	1.695771E-16
6.590391E+03	3.505832E-16	1.683912E-16
6.600377E+03	3.481644E-16	1.672295E-16
6.610362E+03	3.457700E-16	1.660795E-16
6.620348E+03	3.433744E-16	1.649289E-16
6.630333E+03	3.410033E-16	1.637901E-16
6.640318E+03	3.386815E-16	1.626750E-16
6.650304E+03	3.363585E-16	1.615593E-16
6.660289E+03	3.340845E-16	1.604671E-16
6.670275E+03	3.318094E-16	1.593744E-16
6.680260E+03	3.295581E-16	1.582932E-16
6.690246E+03	3.273303E-16	1.572232E-16
6.700231E+03	3.251262E-16	1.561646E-16
6.710217E+03	3.229691E-16	1.551285E-16
6.720202E+03	3.208112E-16	1.540921E-16
6.730187E+03	3.186759E-16	1.530666E-16
6.740173E+03	3.165637E-16	1.520521E-16
6.750158E+03	3.144743E-16	1.510486E-16
6.760144E+03	3.124068E-16	1.500556E-16
6.770129E+03	3.103620E-16	1.490735E-16
6.780115E+03	3.083387E-16	1.481018E-16
6.790100E+03	3.063149E-16	1.471298E-16
6.800085E+03	3.043352E-16	1.461789E-16
6.810071E+03	3.023771E-16	1.452385E-16
6.820056E+03	3.004400E-16	1.443081E-16
6.830042E+03	2.985238E-16	1.433878E-16
6.840027E+03	2.966061E-16	1.424668E-16
6.850013E+03	2.947312E-16	1.415663E-16
6.859998E+03	2.928764E-16	1.406755E-16
6.869984E+03	2.910198E-16	1.397837E-16
6.879969E+03	2.892046E-16	1.389119E-16
6.889954E+03	2.874089E-16	1.380495E-16
6.899940E+03	2.856110E-16	1.371860E-16
6.909925E+03	2.838534E-16	1.363418E-16
6.919911E+03	2.820932E-16	1.354965E-16
6.929896E+03	2.803516E-16	1.346600E-16
6.939882E+03	2.786492E-16	1.338423E-16
6.949867E+03	2.769438E-16	1.330232E-16
6.959853E+03	2.752560E-16	1.322126E-16
6.969838E+03	2.736062E-16	1.314203E-16
6.979823E+03	2.719529E-16	1.306262E-16
6.989809E+03	2.703163E-16	1.298402E-16
6.999794E+03	2.686963E-16	1.290621E-16
7.009780E+03	2.671126E-16	1.283015E-16
7.019765E+03	2.655246E-16	1.275388E-16
7.029751E+03	2.639523E-16	1.267836E-16
7.039736E+03	2.623952E-16	1.260358E-16
7.049722E+03	2.608531E-16	1.252952E-16
7.059707E+03	2.593258E-16	1.245616E-16
7.069692E+03	2.578128E-16	1.238349E-16
7.079678E+03	2.562945E-16	1.231057E-16
7.089663E+03	2.548095E-16	1.223925E-16
7.099649E+03	2.533380E-16	1.216857E-16
7.109634E+03	2.518796E-16	1.209853E-16
7.119620E+03	2.504151E-16	1.202819E-16
7.129605E+03	2.489822E-16	1.195937E-16
7.139590E+03	2.475617E-16	1.189115E-16
7.149576E+03	2.461343E-16	1.182259E-16
7.159561E+03	2.447375E-16	1.175550E-16
7.169547E+03	2.433334E-16	1.168807E-16
7.179532E+03	2.419591E-16	1.162206E-16
7.189518E+03	2.405772E-16	1.155569E-16
7.199503E+03	2.392060E-16	1.148983E-16
7.209489E+03	2.378452E-16	1.142448E-16
7.219474E+03	2.365125E-16	1.136047E-16
7.229459E+03	2.351715E-16	1.129607E-16
7.239445E+03	2.338401E-16	1.123212E-16
7.249430E+03	2.325180E-16	1.116862E-16
7.259416E+03	2.312048E-16	1.110555E-16
7.269401E+03	2.299005E-16	1.104290E-16
7.279387E+03	2.286046E-16	1.098067E-16
7.289372E+03	2.272996E-16	1.091799E-16
7.299358E+03	2.260200E-16	1.085653E-16
7.309343E+03	2.247483E-16	1.079545E-16
7.319328E+03	2.234669E-16	1.073391E-16
7.329314E+03	2.222100E-16	1.067354E-16
7.339299E+03	2.209432E-16	1.061270E-16
7.349285E+03	2.197004E-16	1.055301E-16
7.359270E+03	2.184474E-16	1.049283E-16
7.369256E+03	2.172010E-16	1.043296E-16
7.379241E+03	2.159610E-16	1.037341E-16
7.389227E+03	2.147272E-16	1.031415E-16
7.399212E+03	2.134995E-16	1.025518E-16
7.409197E+03	2.122776E-16	1.019650E-16
7.419183E+03	2.110614E-16	1.013809E-16
7.429168E+03	2.098508E-16	1.007994E-16
7.439154E+03	2.086456E-16	1.002206E-16
7.449139E+03	2.074294E-16	9.963646E-17
7.459125E+03	2.062346E-16	9.906261E-17
7.469110E+03	2.050288E-16	9.848346E-17
7.479095E+03	2.038280E-16	9.790671E-17
7.489081E+03	2.026479E-16	9.733993E-17
7.499066E+03	2.014567E-16	9.676780E-17
7.509052E+03	2.002702E-16	9.619792E-17
7.519037E+03	1.990883E-16	9.563026E-17
7.529023E+03	1.979108E-16	9.506475E-17
7.539008E+03	1.967379E-16	9.450138E-17
7.548994E+03	1.955539E-16	9.393273E-17
7.558979E+03	1.943897E-16	9.337358E-17
7.568964E+03	1.932298E-16	9.281646E-17
7.578950E+03	1.920589E-16	9.225410E-17
7.588935E+03	1.908924E-16	9.169382E-17
7.598921E+03	1.897452E-16	9.114282E-17
7.608906E+03	1.885872E-16	9.058665E-17
7.618892E+03	1.874335E-16	9.003252E-17
7.628877E+03	1.862840E-16	8.948043E-17
7.638863E+03	1.851388E-16	8.893040E-17
7.648848E+03	1.839833E-16	8.837542E-17
7.658833E+03	1.828468E-16	8.782955E-17
7.668819E+03	1.817001E-16	8.727880E-17
7.678804E+03	1.805723E-16	8.673711E-17
7.688790E+03	1.794346E-16	8.619067E-17
7.698775E+03	1.783014E-16	8.564642E-17
7.708761E+03	1.771729E-16	8.510438E-17
7.718746E+03	1.760490E-16	8.456457E-17
7.728732E+03	1.749299E-16	8.402705E-17
7.738717E+03	1.738155E-16	8.349182E-17
7.748702E+03	1.727060E-16	8.295893E-17
