#wls	flux	fluxerr
1.597671E+03	2.233766E-16	1.032548E-16
1.637612E+03	2.208325E-16	1.020787E-16
1.677554E+03	2.174798E-16	1.005289E-16
1.717496E+03	2.134206E-16	9.865243E-17
1.757438E+03	2.085705E-16	9.641038E-17
1.797379E+03	2.028090E-16	9.374704E-17
1.837321E+03	1.959706E-16	9.058597E-17
1.877263E+03	1.877821E-16	8.680077E-17
1.917205E+03	1.781290E-16	8.233863E-17
1.957146E+03	1.670429E-16	7.721407E-17
1.997088E+03	1.549527E-16	7.162541E-17
2.037030E+03	1.427737E-16	6.599568E-17
2.076972E+03	1.321078E-16	6.106541E-17
2.116914E+03	1.246964E-16	5.763949E-17
2.156855E+03	1.218510E-16	5.632415E-17
2.196797E+03	1.238980E-16	5.727026E-17
2.236739E+03	1.301824E-16	6.017507E-17
2.276681E+03	1.394481E-16	6.445793E-17
2.316622E+03	1.503256E-16	6.948581E-17
2.356564E+03	1.618400E-16	7.480802E-17
2.396506E+03	1.732793E-16	8.009556E-17
2.436448E+03	1.843056E-16	8.519216E-17
2.476389E+03	1.948344E-16	9.005875E-17
2.516331E+03	2.048829E-16	9.470332E-17
2.556273E+03	2.144968E-16	9.914702E-17
2.596215E+03	2.238437E-16	1.034673E-16
2.636156E+03	2.329594E-16	1.076806E-16
2.676098E+03	2.419732E-16	1.118469E-16
2.716040E+03	2.509701E-16	1.160052E-16
2.755982E+03	2.600221E-16	1.201891E-16
2.795924E+03	2.691902E-16	1.244266E-16
2.835865E+03	2.784838E-16	1.287221E-16
2.875807E+03	2.880675E-16	1.331516E-16
2.915749E+03	2.978516E-16	1.376738E-16
2.955691E+03	3.079038E-16	1.423199E-16
2.995632E+03	3.182904E-16	1.471205E-16
3.005618E+03	3.208973E-16	1.483254E-16
3.015603E+03	3.235634E-16	1.495576E-16
3.025589E+03	3.262432E-16	1.507962E-16
3.035574E+03	3.289443E-16	1.520446E-16
3.045560E+03	3.316891E-16	1.533132E-16
3.055545E+03	3.345546E-16	1.546377E-16
3.065530E+03	3.374393E-16	1.559709E-16
3.075516E+03	3.404301E-16	1.573533E-16
3.085501E+03	3.434734E-16	1.587599E-16
3.095487E+03	3.465631E-16	1.601879E-16
3.105472E+03	3.496932E-16	1.616346E-16
3.115458E+03	3.528587E-16	1.630976E-16
3.125443E+03	3.561041E-16	1.645976E-16
3.135429E+03	3.593267E-16	1.660871E-16
3.145414E+03	3.626212E-16	1.676098E-16
3.155399E+03	3.659347E-16	1.691412E-16
3.165385E+03	3.692639E-16	1.706799E-16
3.175370E+03	3.726057E-16	1.722245E-16
3.185356E+03	3.759573E-16	1.737735E-16
3.195341E+03	3.793159E-16	1.753258E-16
3.205327E+03	3.827315E-16	1.769045E-16
3.215312E+03	3.860983E-16	1.784606E-16
3.225298E+03	3.895187E-16	1.800414E-16
3.235283E+03	3.929392E-16	1.816223E-16
3.245268E+03	3.963581E-16	1.832025E-16
3.255254E+03	3.997743E-16	1.847814E-16
3.265239E+03	4.032404E-16	1.863834E-16
3.275225E+03	4.066483E-16	1.879584E-16
3.285210E+03	4.101047E-16	1.895559E-16
3.295196E+03	4.135556E-16	1.911509E-16
3.305181E+03	4.169998E-16	1.927427E-16
3.315166E+03	4.204374E-16	1.943315E-16
3.325152E+03	4.238676E-16	1.959169E-16
3.335137E+03	4.272903E-16	1.974988E-16
3.345123E+03	4.307614E-16	1.991030E-16
3.355108E+03	4.341687E-16	2.006778E-16
3.365094E+03	4.376247E-16	2.022751E-16
3.375079E+03	4.410732E-16	2.038689E-16
3.385065E+03	4.445142E-16	2.054592E-16
3.395050E+03	4.479478E-16	2.070462E-16
3.405035E+03	4.513743E-16	2.086298E-16
3.415021E+03	4.547935E-16	2.102101E-16
3.425006E+03	4.582643E-16	2.118142E-16
3.434992E+03	4.617286E-16	2.134153E-16
3.444977E+03	4.651284E-16	2.149866E-16
3.454963E+03	4.685808E-16	2.165822E-16
3.464948E+03	4.720275E-16	2.181751E-16
3.474934E+03	4.754692E-16	2.197658E-16
3.484919E+03	4.789656E-16	2.213817E-16
3.494904E+03	4.823976E-16	2.229679E-16
3.504890E+03	4.858854E-16	2.245798E-16
3.514875E+03	4.893088E-16	2.261620E-16
3.524861E+03	4.927888E-16	2.277704E-16
3.534846E+03	4.962655E-16	2.293772E-16
3.544832E+03	4.997392E-16	2.309826E-16
3.554817E+03	5.032097E-16	2.325866E-16
3.564803E+03	5.066775E-16	2.341892E-16
3.574788E+03	5.102045E-16	2.358193E-16
3.584773E+03	5.136672E-16	2.374196E-16
3.594759E+03	5.171901E-16	2.390478E-16
3.604744E+03	5.206483E-16	2.406460E-16
3.614730E+03	5.241673E-16	2.422724E-16
3.624715E+03	5.276844E-16	2.438978E-16
3.634701E+03	5.311996E-16	2.455224E-16
3.644686E+03	5.347132E-16	2.471462E-16
3.654671E+03	5.382247E-16	2.487691E-16
3.664657E+03	5.417986E-16	2.504208E-16
3.674642E+03	5.453064E-16	2.520420E-16
3.684628E+03	5.488766E-16	2.536920E-16
3.694613E+03	5.523803E-16	2.553113E-16
3.704599E+03	5.559462E-16	2.569593E-16
3.714584E+03	5.595101E-16	2.586063E-16
3.724570E+03	5.630714E-16	2.602522E-16
3.734555E+03	5.666296E-16	2.618967E-16
3.744540E+03	5.701847E-16	2.635397E-16
3.754526E+03	5.737365E-16	2.651811E-16
3.764511E+03	5.772842E-16	2.668207E-16
3.774497E+03	5.808943E-16	2.684892E-16
3.784482E+03	5.844333E-16	2.701247E-16
3.794468E+03	5.879673E-16	2.717579E-16
3.804453E+03	5.915628E-16	2.734196E-16
3.814439E+03	5.950852E-16	2.750474E-16
3.824424E+03	5.986683E-16	2.767034E-16
3.834409E+03	6.022450E-16	2.783564E-16
3.844395E+03	6.058141E-16	2.800058E-16
3.854380E+03	6.093752E-16	2.816515E-16
3.864366E+03	6.129276E-16	2.832933E-16
3.874351E+03	6.164707E-16	2.849307E-16
3.884337E+03	6.200039E-16	2.865636E-16
3.894322E+03	6.235265E-16	2.881915E-16
3.904308E+03	6.270374E-16	2.898141E-16
3.914293E+03	6.305364E-16	2.914311E-16
3.924278E+03	6.340226E-16	2.930422E-16
3.934264E+03	6.374950E-16	2.946470E-16
3.944249E+03	6.410228E-16	2.962773E-16
3.954235E+03	6.444657E-16	2.978684E-16
3.964220E+03	6.478924E-16	2.994520E-16
3.974206E+03	6.513726E-16	3.010604E-16
3.984191E+03	6.547649E-16	3.026281E-16
3.994176E+03	6.582091E-16	3.042198E-16
4.004162E+03	6.615632E-16	3.057698E-16
4.014147E+03	6.649679E-16	3.073433E-16
4.024133E+03	6.682807E-16	3.088742E-16
4.034118E+03	6.716423E-16	3.104277E-16
4.044104E+03	6.749096E-16	3.119377E-16
4.054089E+03	6.782246E-16	3.134696E-16
4.064075E+03	6.814432E-16	3.149570E-16
4.074060E+03	6.847077E-16	3.164657E-16
4.084045E+03	6.878736E-16	3.179287E-16
4.094031E+03	6.910839E-16	3.194123E-16
4.104016E+03	6.941934E-16	3.208493E-16
4.114002E+03	6.973458E-16	3.223061E-16
4.123987E+03	7.003952E-16	3.237153E-16
4.133973E+03	7.034858E-16	3.251435E-16
4.143958E+03	7.064714E-16	3.265232E-16
4.153944E+03	7.094966E-16	3.279212E-16
4.163929E+03	7.124147E-16	3.292698E-16
4.173914E+03	7.153705E-16	3.306357E-16
4.183900E+03	7.182175E-16	3.319513E-16
4.193885E+03	7.210272E-16	3.332498E-16
4.203871E+03	7.237992E-16	3.345307E-16
4.213856E+03	7.266056E-16	3.358276E-16
4.223842E+03	7.292994E-16	3.370724E-16
4.233827E+03	7.319524E-16	3.382984E-16
4.243813E+03	7.345641E-16	3.395053E-16
4.253798E+03	7.371336E-16	3.406927E-16
4.263783E+03	7.396601E-16	3.418602E-16
4.273769E+03	7.421427E-16	3.430074E-16
4.283754E+03	7.445808E-16	3.441341E-16
4.293740E+03	7.468996E-16	3.452056E-16
4.303725E+03	7.492462E-16	3.462900E-16
4.313711E+03	7.515458E-16	3.473526E-16
4.323696E+03	7.537238E-16	3.483590E-16
4.333681E+03	7.559275E-16	3.493773E-16
4.343667E+03	7.580084E-16	3.503389E-16
4.353652E+03	7.600394E-16	3.512774E-16
4.363638E+03	7.620204E-16	3.521928E-16
4.373623E+03	7.639503E-16	3.530845E-16
4.383609E+03	7.658289E-16	3.539526E-16
4.393594E+03	7.676555E-16	3.547966E-16
4.403580E+03	7.694293E-16	3.556162E-16
4.413565E+03	7.711504E-16	3.564115E-16
4.423550E+03	7.727439E-16	3.571478E-16
4.433536E+03	7.743574E-16	3.578933E-16
4.443521E+03	7.758426E-16	3.585796E-16
4.453507E+03	7.772731E-16	3.592405E-16
4.463492E+03	7.786485E-16	3.598760E-16
4.473478E+03	7.799683E-16	3.604858E-16
4.483463E+03	7.812324E-16	3.610699E-16
4.493449E+03	7.824406E-16	3.616280E-16
4.503434E+03	7.835923E-16	3.621602E-16
4.513419E+03	7.846140E-16	3.626322E-16
4.523405E+03	7.855792E-16	3.630781E-16
4.533390E+03	7.865609E-16	3.635316E-16
4.543376E+03	7.874121E-16	3.639249E-16
4.553361E+03	7.881335E-16	3.642580E-16
4.563347E+03	7.888709E-16	3.645987E-16
4.573332E+03	7.895510E-16	3.649128E-16
4.583318E+03	7.901010E-16	3.651668E-16
4.593303E+03	7.906668E-16	3.654282E-16
4.603288E+03	7.911029E-16	3.656296E-16
4.613274E+03	7.914820E-16	3.658046E-16
4.623259E+03	7.918042E-16	3.659533E-16
4.633245E+03	7.919976E-16	3.660425E-16
4.643230E+03	7.922066E-16	3.661389E-16
4.653216E+03	7.922871E-16	3.661760E-16
4.663201E+03	7.923118E-16	3.661872E-16
4.673186E+03	7.922808E-16	3.661727E-16
4.683172E+03	7.921943E-16	3.661325E-16
4.693157E+03	7.920523E-16	3.660668E-16
4.703143E+03	7.917844E-16	3.659428E-16
4.713128E+03	7.914620E-16	3.657936E-16
4.723114E+03	7.911563E-16	3.656522E-16
4.733099E+03	7.907263E-16	3.654532E-16
4.743085E+03	7.901725E-16	3.651971E-16
4.753070E+03	7.896363E-16	3.649492E-16
4.763055E+03	7.889776E-16	3.646445E-16
4.773041E+03	7.882672E-16	3.643160E-16
4.783026E+03	7.875057E-16	3.639639E-16
4.793012E+03	7.866936E-16	3.635884E-16
4.802997E+03	7.858311E-16	3.631897E-16
4.812983E+03	7.848500E-16	3.627361E-16
4.822968E+03	7.838890E-16	3.622918E-16
4.832954E+03	7.828106E-16	3.617932E-16
4.842939E+03	7.816161E-16	3.612410E-16
4.852924E+03	7.804433E-16	3.606988E-16
4.862910E+03	7.792241E-16	3.601352E-16
4.872895E+03	7.778912E-16	3.595190E-16
4.882881E+03	7.765133E-16	3.588821E-16
4.892866E+03	7.750915E-16	3.582248E-16
4.902852E+03	7.735589E-16	3.575163E-16
4.912837E+03	7.720510E-16	3.568193E-16
4.922823E+03	7.704342E-16	3.560719E-16
4.932808E+03	7.687762E-16	3.553055E-16
4.942793E+03	7.670778E-16	3.545204E-16
4.952779E+03	7.652738E-16	3.536865E-16
4.962764E+03	7.634969E-16	3.528652E-16
4.972750E+03	7.616162E-16	3.519958E-16
4.982735E+03	7.596987E-16	3.511095E-16
4.992721E+03	7.577445E-16	3.502062E-16
5.002706E+03	7.556900E-16	3.492565E-16
5.012691E+03	7.536655E-16	3.483207E-16
5.022677E+03	7.515425E-16	3.473394E-16
5.032662E+03	7.493867E-16	3.463430E-16
5.042648E+03	7.471983E-16	3.453314E-16
5.052633E+03	7.449153E-16	3.442762E-16
5.062619E+03	7.426648E-16	3.432360E-16
5.072604E+03	7.403215E-16	3.421529E-16
5.082590E+03	7.379493E-16	3.410564E-16
5.092575E+03	7.354867E-16	3.399182E-16
5.102560E+03	7.330592E-16	3.387962E-16
5.112546E+03	7.305433E-16	3.376333E-16
5.122531E+03	7.280018E-16	3.364585E-16
5.132517E+03	7.254356E-16	3.352724E-16
5.142502E+03	7.228455E-16	3.340753E-16
5.152488E+03	7.201716E-16	3.328394E-16
5.162473E+03	7.174753E-16	3.315932E-16
5.172459E+03	7.147578E-16	3.303371E-16
5.182444E+03	7.120197E-16	3.290716E-16
5.192429E+03	7.092615E-16	3.277968E-16
5.202415E+03	7.064250E-16	3.264857E-16
5.212400E+03	7.036291E-16	3.251935E-16
5.222386E+03	7.007567E-16	3.238659E-16
5.232371E+03	6.978093E-16	3.225036E-16
5.242357E+03	6.949042E-16	3.211609E-16
5.252342E+03	6.919262E-16	3.197844E-16
5.262328E+03	6.889338E-16	3.184014E-16
5.272313E+03	6.859278E-16	3.170120E-16
5.282298E+03	6.829089E-16	3.156168E-16
5.292284E+03	6.798774E-16	3.142156E-16
5.302269E+03	6.767781E-16	3.127832E-16
5.312255E+03	6.736682E-16	3.113458E-16
5.322240E+03	6.705485E-16	3.099039E-16
5.332226E+03	6.674192E-16	3.084576E-16
5.342211E+03	6.642810E-16	3.070072E-16
5.352196E+03	6.610798E-16	3.055276E-16
5.362182E+03	6.578716E-16	3.040449E-16
5.372167E+03	6.546567E-16	3.025590E-16
5.382153E+03	6.514358E-16	3.010704E-16
5.392138E+03	6.482094E-16	2.995792E-16
5.402124E+03	6.449246E-16	2.980610E-16
5.412109E+03	6.416890E-16	2.965656E-16
5.422095E+03	6.383968E-16	2.950440E-16
5.432080E+03	6.350494E-16	2.934969E-16
5.442065E+03	6.317524E-16	2.919731E-16
5.452051E+03	6.284532E-16	2.904483E-16
5.462036E+03	6.251011E-16	2.888991E-16
5.472022E+03	6.217488E-16	2.873497E-16
5.482007E+03	6.183966E-16	2.858004E-16
5.491993E+03	6.150447E-16	2.842512E-16
5.501978E+03	6.116438E-16	2.826794E-16
5.511964E+03	6.082945E-16	2.811315E-16
5.521949E+03	6.048979E-16	2.795617E-16
5.531934E+03	6.015037E-16	2.779930E-16
5.541920E+03	5.981127E-16	2.764257E-16
5.551905E+03	5.947254E-16	2.748602E-16
5.561891E+03	5.912937E-16	2.732742E-16
5.571876E+03	5.879149E-16	2.717126E-16
5.581862E+03	5.844930E-16	2.701311E-16
5.591847E+03	5.810770E-16	2.685524E-16
5.601833E+03	5.776668E-16	2.669762E-16
5.611818E+03	5.742164E-16	2.653816E-16
5.621803E+03	5.708194E-16	2.638116E-16
5.631789E+03	5.673837E-16	2.622238E-16
5.641774E+03	5.640015E-16	2.606606E-16
5.651760E+03	5.605814E-16	2.590799E-16
5.661745E+03	5.571701E-16	2.575033E-16
5.671731E+03	5.537223E-16	2.559099E-16
5.681716E+03	5.503291E-16	2.543417E-16
5.691701E+03	5.469007E-16	2.527572E-16
5.701687E+03	5.435271E-16	2.511980E-16
5.711672E+03	5.401194E-16	2.496231E-16
5.721658E+03	5.367224E-16	2.480532E-16
5.731643E+03	5.333365E-16	2.464883E-16
5.741629E+03	5.299190E-16	2.449088E-16
5.751614E+03	5.265562E-16	2.433547E-16
5.761600E+03	5.231629E-16	2.417864E-16
5.771585E+03	5.198244E-16	2.402435E-16
5.781570E+03	5.164562E-16	2.386869E-16
5.791556E+03	5.131009E-16	2.371362E-16
5.801541E+03	5.097592E-16	2.355918E-16
5.811527E+03	5.063895E-16	2.340344E-16
5.821512E+03	5.030751E-16	2.325026E-16
5.831498E+03	4.997745E-16	2.309772E-16
5.841483E+03	4.964475E-16	2.294396E-16
5.851469E+03	4.931357E-16	2.279090E-16
5.861454E+03	4.898384E-16	2.263852E-16
5.871439E+03	4.865566E-16	2.248684E-16
5.881425E+03	4.832900E-16	2.233587E-16
5.891410E+03	4.800388E-16	2.218561E-16
5.901396E+03	4.767648E-16	2.203430E-16
5.911381E+03	4.735452E-16	2.188551E-16
5.921367E+03	4.703036E-16	2.173570E-16
5.931352E+03	4.670787E-16	2.158665E-16
5.941338E+03	4.638706E-16	2.143839E-16
5.951323E+03	4.606792E-16	2.129089E-16
5.961308E+03	4.575051E-16	2.114420E-16
5.971294E+03	4.543481E-16	2.099830E-16
5.981279E+03	4.512082E-16	2.085319E-16
5.991265E+03	4.480497E-16	2.070722E-16
6.001250E+03	4.449451E-16	2.056373E-16
6.011236E+03	4.418226E-16	2.041942E-16
6.021221E+03	4.387536E-16	2.027759E-16
6.031207E+03	4.356672E-16	2.013495E-16
6.041192E+03	4.325994E-16	1.999317E-16
6.051177E+03	4.295503E-16	1.985225E-16
6.061163E+03	4.265199E-16	1.971220E-16
6.071148E+03	4.234735E-16	1.957141E-16
6.081134E+03	4.204810E-16	1.943311E-16
6.091119E+03	4.175072E-16	1.929567E-16
6.101105E+03	4.145185E-16	1.915755E-16
6.111090E+03	4.115832E-16	1.902189E-16
6.121075E+03	4.086338E-16	1.888559E-16
6.131061E+03	4.057041E-16	1.875019E-16
6.141046E+03	4.027940E-16	1.861570E-16
6.151032E+03	3.999039E-16	1.848213E-16
6.161017E+03	3.970338E-16	1.834948E-16
6.171003E+03	3.941835E-16	1.821776E-16
6.180988E+03	3.913532E-16	1.808696E-16
6.190974E+03	3.885430E-16	1.795708E-16
6.200959E+03	3.857215E-16	1.782669E-16
6.210944E+03	3.829517E-16	1.769868E-16
6.220930E+03	3.801713E-16	1.757018E-16
6.230915E+03	3.774423E-16	1.744406E-16
6.240901E+03	3.747028E-16	1.731745E-16
6.250886E+03	3.719842E-16	1.719181E-16
6.260872E+03	3.693164E-16	1.706852E-16
6.270857E+03	3.666392E-16	1.694479E-16
6.280843E+03	3.639826E-16	1.682202E-16
6.290828E+03	3.613469E-16	1.670021E-16
6.300813E+03	3.587320E-16	1.657936E-16
6.310799E+03	3.561378E-16	1.645947E-16
6.320784E+03	3.535646E-16	1.634055E-16
6.330770E+03	3.509835E-16	1.622126E-16
6.340755E+03	3.484520E-16	1.610427E-16
6.350741E+03	3.459416E-16	1.598825E-16
6.360726E+03	3.434239E-16	1.587189E-16
6.370712E+03	3.409551E-16	1.575780E-16
6.380697E+03	3.384795E-16	1.564339E-16
6.390682E+03	3.360526E-16	1.553123E-16
6.400668E+03	3.336193E-16	1.541877E-16
6.410653E+03	3.312069E-16	1.530729E-16
6.420639E+03	3.288156E-16	1.519677E-16
6.430624E+03	3.264724E-16	1.508848E-16
6.440610E+03	3.241229E-16	1.497990E-16
6.450595E+03	3.217946E-16	1.487230E-16
6.460580E+03	3.194874E-16	1.476567E-16
6.470566E+03	3.172008E-16	1.465999E-16
6.480551E+03	3.149353E-16	1.455529E-16
6.490537E+03	3.126906E-16	1.445155E-16
6.500522E+03	3.104409E-16	1.434758E-16
6.510508E+03	3.082377E-16	1.424576E-16
6.520493E+03	3.060550E-16	1.414489E-16
6.530479E+03	3.038930E-16	1.404497E-16
6.540464E+03	3.017265E-16	1.394485E-16
6.550449E+03	2.996056E-16	1.384683E-16
6.560435E+03	2.975049E-16	1.374975E-16
6.570420E+03	2.954000E-16	1.365247E-16
6.580406E+03	2.933399E-16	1.355726E-16
6.590391E+03	2.912756E-16	1.346186E-16
6.600377E+03	2.892317E-16	1.336740E-16
6.610362E+03	2.872317E-16	1.327497E-16
6.620348E+03	2.852278E-16	1.318236E-16
6.630333E+03	2.832437E-16	1.309067E-16
6.640318E+03	2.813029E-16	1.300097E-16
6.650304E+03	2.793583E-16	1.291110E-16
6.660289E+03	2.774332E-16	1.282213E-16
6.670275E+03	2.755276E-16	1.273407E-16
6.680260E+03	2.736412E-16	1.264689E-16
6.690246E+03	2.717740E-16	1.256060E-16
6.700231E+03	2.699259E-16	1.247518E-16
6.710217E+03	2.680966E-16	1.239064E-16
6.720202E+03	2.662860E-16	1.230697E-16
6.730187E+03	2.644940E-16	1.222415E-16
6.740173E+03	2.627204E-16	1.214218E-16
6.750158E+03	2.609651E-16	1.206106E-16
6.760144E+03	2.592278E-16	1.198077E-16
6.770129E+03	2.575085E-16	1.190131E-16
6.780115E+03	2.558069E-16	1.182268E-16
6.790100E+03	2.541016E-16	1.174387E-16
6.800085E+03	2.524351E-16	1.166685E-16
6.810071E+03	2.507858E-16	1.159063E-16
6.820056E+03	2.491327E-16	1.151423E-16
6.830042E+03	2.475174E-16	1.143958E-16
6.840027E+03	2.458981E-16	1.136474E-16
6.850013E+03	2.443160E-16	1.129163E-16
6.859998E+03	2.427298E-16	1.121832E-16
6.869984E+03	2.411802E-16	1.114670E-16
6.879969E+03	2.396263E-16	1.107489E-16
6.889954E+03	2.381083E-16	1.100474E-16
6.899940E+03	2.365858E-16	1.093438E-16
6.909925E+03	2.350789E-16	1.086473E-16
6.919911E+03	2.336068E-16	1.079670E-16
6.929896E+03	2.321301E-16	1.072845E-16
6.939882E+03	2.306681E-16	1.066089E-16
6.949867E+03	2.292208E-16	1.059400E-16
6.959853E+03	2.278072E-16	1.052867E-16
6.969838E+03	2.263884E-16	1.046310E-16
6.979823E+03	2.249835E-16	1.039817E-16
6.989809E+03	2.235923E-16	1.033388E-16
6.999794E+03	2.222147E-16	1.027022E-16
7.009780E+03	2.208504E-16	1.020717E-16
7.019765E+03	2.194992E-16	1.014472E-16
7.029751E+03	2.181608E-16	1.008287E-16
7.039736E+03	2.168351E-16	1.002160E-16
7.049722E+03	2.155034E-16	9.960057E-17
7.059707E+03	2.142024E-16	9.899928E-17
7.069692E+03	2.129133E-16	9.840352E-17
7.079678E+03	2.116359E-16	9.781319E-17
7.089663E+03	2.103521E-16	9.721990E-17
7.099649E+03	2.090977E-16	9.664015E-17
7.109634E+03	2.078543E-16	9.606553E-17
7.119620E+03	2.066041E-16	9.548777E-17
7.129605E+03	2.053824E-16	9.492312E-17
7.139590E+03	2.041535E-16	9.435522E-17
7.149576E+03	2.029525E-16	9.380015E-17
7.159561E+03	2.017441E-16	9.324171E-17
7.169547E+03	2.005457E-16	9.268788E-17
7.179532E+03	1.993742E-16	9.214645E-17
7.189518E+03	1.981950E-16	9.160150E-17
7.199503E+03	1.970252E-16	9.106087E-17
7.209489E+03	1.958645E-16	9.052445E-17
7.219474E+03	1.947128E-16	8.999217E-17
7.229459E+03	1.935697E-16	8.946393E-17
7.239445E+03	1.924353E-16	8.893964E-17
7.249430E+03	1.913092E-16	8.841920E-17
7.259416E+03	1.901912E-16	8.790254E-17
7.269401E+03	1.890812E-16	8.738956E-17
7.279387E+03	1.879790E-16	8.688018E-17
7.289372E+03	1.868845E-16	8.637434E-17
7.299358E+03	1.857813E-16	8.586451E-17
7.309343E+03	1.847016E-16	8.536551E-17
7.319328E+03	1.836290E-16	8.486979E-17
7.329314E+03	1.825475E-16	8.436997E-17
7.339299E+03	1.814886E-16	8.388063E-17
7.349285E+03	1.804208E-16	8.338714E-17
7.359270E+03	1.793596E-16	8.289671E-17
7.369256E+03	1.783205E-16	8.241646E-17
7.379241E+03	1.772721E-16	8.193194E-17
7.389227E+03	1.762299E-16	8.145030E-17
7.399212E+03	1.751938E-16	8.097148E-17
7.409197E+03	1.741638E-16	8.049543E-17
7.419183E+03	1.731395E-16	8.002207E-17
7.429168E+03	1.721210E-16	7.955136E-17
7.439154E+03	1.711081E-16	7.908325E-17
7.449139E+03	1.701007E-16	7.861768E-17
7.459125E+03	1.690988E-16	7.815463E-17
7.469110E+03	1.680874E-16	7.768722E-17
7.479095E+03	1.670961E-16	7.722908E-17
7.489081E+03	1.660953E-16	7.676656E-17
7.499066E+03	1.651142E-16	7.631315E-17
7.509052E+03	1.641237E-16	7.585540E-17
7.519037E+03	1.631526E-16	7.540660E-17
7.529023E+03	1.621721E-16	7.495345E-17
7.539008E+03	1.611966E-16	7.450258E-17
7.548994E+03	1.602259E-16	7.405398E-17
7.558979E+03	1.592600E-16	7.360758E-17
7.568964E+03	1.582989E-16	7.316342E-17
7.578950E+03	1.573426E-16	7.272144E-17
7.588935E+03	1.563909E-16	7.228164E-17
7.598921E+03	1.554440E-16	7.184400E-17
7.608906E+03	1.544880E-16	7.140218E-17
7.618892E+03	1.535504E-16	7.096888E-17
7.628877E+03	1.526039E-16	7.053143E-17
7.638863E+03	1.516756E-16	7.010241E-17
7.648848E+03	1.507385E-16	6.966932E-17
7.658833E+03	1.498061E-16	6.923841E-17
7.668819E+03	1.488917E-16	6.881582E-17
7.678804E+03	1.479687E-16	6.838926E-17
7.688790E+03	1.470505E-16	6.796489E-17
7.698775E+03	1.461370E-16	6.754273E-17
7.708761E+03	1.452284E-16	6.712278E-17
7.718746E+03	1.443116E-16	6.669908E-17
7.728732E+03	1.434126E-16	6.628361E-17
7.738717E+03	1.425185E-16	6.587038E-17
7.748702E+03	1.416165E-16	6.545353E-17
