#wls	flux	fluxerr
1.597671E+03	1.563615E-16	5.088845E-17
1.637612E+03	1.559484E-16	5.075397E-17
1.677554E+03	1.549187E-16	5.041885E-17
1.717496E+03	1.532743E-16	4.988366E-17
1.757438E+03	1.510188E-16	4.914960E-17
1.797379E+03	1.480210E-16	4.817395E-17
1.837321E+03	1.440920E-16	4.689524E-17
1.877263E+03	1.390871E-16	4.526634E-17
1.917205E+03	1.328512E-16	4.323683E-17
1.957146E+03	1.254121E-16	4.081577E-17
1.997088E+03	1.170567E-16	3.809646E-17
2.037030E+03	1.085120E-16	3.531555E-17
2.076972E+03	1.009517E-16	3.285503E-17
2.116914E+03	9.576110E-17	3.116571E-17
2.156855E+03	9.402743E-17	3.060147E-17
2.196797E+03	9.602268E-17	3.125082E-17
2.236739E+03	1.012843E-16	3.296321E-17
2.276681E+03	1.088632E-16	3.542979E-17
2.316622E+03	1.177399E-16	3.831871E-17
2.356564E+03	1.270757E-16	4.135704E-17
2.396506E+03	1.363615E-16	4.437910E-17
2.436448E+03	1.453245E-16	4.729612E-17
2.476389E+03	1.538669E-16	5.007626E-17
2.516331E+03	1.619934E-16	5.272100E-17
2.556273E+03	1.697589E-16	5.524827E-17
2.596215E+03	1.772096E-16	5.767310E-17
2.636156E+03	1.844799E-16	6.003921E-17
2.676098E+03	1.915844E-16	6.235135E-17
2.716040E+03	1.986487E-16	6.465041E-17
2.755982E+03	2.056658E-16	6.693410E-17
2.795924E+03	2.127478E-16	6.923891E-17
2.835865E+03	2.198677E-16	7.155607E-17
2.875807E+03	2.270911E-16	7.390688E-17
2.915749E+03	2.344810E-16	7.631189E-17
2.955691E+03	2.419867E-16	7.875458E-17
2.995632E+03	2.496610E-16	8.125214E-17
3.005618E+03	2.515917E-16	8.188049E-17
3.015603E+03	2.535703E-16	8.252440E-17
3.025589E+03	2.555583E-16	8.317140E-17
3.035574E+03	2.575223E-16	8.381059E-17
3.045560E+03	2.595586E-16	8.447329E-17
3.055545E+03	2.616514E-16	8.515436E-17
3.065530E+03	2.637541E-16	8.583869E-17
3.075516E+03	2.659413E-16	8.655049E-17
3.085501E+03	2.681681E-16	8.727519E-17
3.095487E+03	2.704295E-16	8.801115E-17
3.105472E+03	2.727208E-16	8.875685E-17
3.115458E+03	2.750383E-16	8.951109E-17
3.125443E+03	2.774201E-16	9.028622E-17
3.135429E+03	2.797792E-16	9.105398E-17
3.145414E+03	2.821543E-16	9.182693E-17
3.155399E+03	2.845422E-16	9.260408E-17
3.165385E+03	2.869839E-16	9.339870E-17
3.175370E+03	2.893908E-16	9.418200E-17
3.185356E+03	2.918474E-16	9.498149E-17
3.195341E+03	2.942647E-16	9.576821E-17
3.205327E+03	2.967287E-16	9.657010E-17
3.215312E+03	2.991940E-16	9.737243E-17
3.225298E+03	3.016148E-16	9.816025E-17
3.235283E+03	3.040789E-16	9.896216E-17
3.245268E+03	3.065410E-16	9.976344E-17
3.255254E+03	3.089998E-16	1.005637E-16
3.265239E+03	3.114550E-16	1.013627E-16
3.275225E+03	3.139055E-16	1.021602E-16
3.285210E+03	3.163512E-16	1.029561E-16
3.295196E+03	3.187911E-16	1.037502E-16
3.305181E+03	3.212252E-16	1.045423E-16
3.315166E+03	3.237006E-16	1.053479E-16
3.325152E+03	3.261222E-16	1.061360E-16
3.335137E+03	3.285374E-16	1.069220E-16
3.345123E+03	3.309942E-16	1.077216E-16
3.355108E+03	3.333963E-16	1.085033E-16
3.365094E+03	3.357916E-16	1.092829E-16
3.375079E+03	3.382295E-16	1.100763E-16
3.385065E+03	3.406614E-16	1.108677E-16
3.395050E+03	3.430378E-16	1.116411E-16
3.405035E+03	3.454579E-16	1.124287E-16
3.415021E+03	3.478725E-16	1.132145E-16
3.425006E+03	3.502312E-16	1.139821E-16
3.434992E+03	3.526351E-16	1.147645E-16
3.444977E+03	3.550341E-16	1.155452E-16
3.454963E+03	3.574283E-16	1.163244E-16
3.464948E+03	3.598184E-16	1.171022E-16
3.474934E+03	3.622040E-16	1.178786E-16
3.484919E+03	3.645859E-16	1.186538E-16
3.494904E+03	3.669640E-16	1.194277E-16
3.504890E+03	3.693388E-16	1.202005E-16
3.514875E+03	3.717102E-16	1.209723E-16
3.524861E+03	3.741314E-16	1.217603E-16
3.534846E+03	3.764972E-16	1.225302E-16
3.544832E+03	3.788603E-16	1.232992E-16
3.554817E+03	3.812211E-16	1.240675E-16
3.564803E+03	3.836333E-16	1.248526E-16
3.574788E+03	3.859895E-16	1.256193E-16
3.584773E+03	3.883981E-16	1.264032E-16
3.594759E+03	3.907507E-16	1.271689E-16
3.604744E+03	3.931563E-16	1.279517E-16
3.614730E+03	3.955053E-16	1.287162E-16
3.624715E+03	3.979078E-16	1.294981E-16
3.634701E+03	4.002532E-16	1.302614E-16
3.644686E+03	4.026528E-16	1.310423E-16
3.654671E+03	4.050510E-16	1.318227E-16
3.664657E+03	4.073912E-16	1.325843E-16
3.674642E+03	4.097860E-16	1.333637E-16
3.684628E+03	4.121788E-16	1.341424E-16
3.694613E+03	4.145700E-16	1.349206E-16
3.704599E+03	4.169591E-16	1.356981E-16
3.714584E+03	4.192885E-16	1.364562E-16
3.724570E+03	4.216725E-16	1.372321E-16
3.734555E+03	4.240540E-16	1.380071E-16
3.744540E+03	4.264323E-16	1.387811E-16
3.754526E+03	4.288072E-16	1.395540E-16
3.764511E+03	4.311786E-16	1.403257E-16
3.774497E+03	4.335458E-16	1.410961E-16
3.784482E+03	4.359086E-16	1.418650E-16
3.794468E+03	4.382668E-16	1.426325E-16
3.804453E+03	4.406197E-16	1.433982E-16
3.814439E+03	4.429667E-16	1.441620E-16
3.824424E+03	4.453076E-16	1.449238E-16
3.834409E+03	4.476420E-16	1.456835E-16
3.844395E+03	4.499692E-16	1.464409E-16
3.854380E+03	4.522885E-16	1.471957E-16
3.864366E+03	4.545996E-16	1.479478E-16
3.874351E+03	4.569627E-16	1.487169E-16
3.884337E+03	4.592554E-16	1.494630E-16
3.894322E+03	4.615383E-16	1.502059E-16
3.904308E+03	4.638103E-16	1.509453E-16
3.914293E+03	4.660710E-16	1.516811E-16
3.924278E+03	4.683194E-16	1.524128E-16
3.934264E+03	4.705552E-16	1.531404E-16
3.944249E+03	4.728396E-16	1.538838E-16
3.954235E+03	4.750479E-16	1.546024E-16
3.964220E+03	4.772411E-16	1.553162E-16
3.974206E+03	4.794187E-16	1.560249E-16
3.984191E+03	4.815798E-16	1.567282E-16
3.994176E+03	4.837237E-16	1.574259E-16
4.004162E+03	4.859129E-16	1.581383E-16
4.014147E+03	4.880201E-16	1.588241E-16
4.024133E+03	4.901079E-16	1.595035E-16
4.034118E+03	4.921753E-16	1.601763E-16
4.044104E+03	4.942215E-16	1.608423E-16
4.054089E+03	4.962456E-16	1.615010E-16
4.064075E+03	4.982470E-16	1.621523E-16
4.074060E+03	5.002247E-16	1.627959E-16
4.084045E+03	5.021780E-16	1.634316E-16
4.094031E+03	5.041060E-16	1.640590E-16
4.104016E+03	5.060079E-16	1.646780E-16
4.114002E+03	5.078830E-16	1.652882E-16
4.123987E+03	5.097304E-16	1.658894E-16
4.133973E+03	5.115492E-16	1.664813E-16
4.143958E+03	5.133389E-16	1.670637E-16
4.153944E+03	5.150982E-16	1.676363E-16
4.163929E+03	5.168269E-16	1.681989E-16
4.173914E+03	5.185237E-16	1.687510E-16
4.183900E+03	5.201880E-16	1.692927E-16
4.193885E+03	5.218194E-16	1.698236E-16
4.203871E+03	5.234167E-16	1.703434E-16
4.213856E+03	5.249132E-16	1.708304E-16
4.223842E+03	5.264403E-16	1.713274E-16
4.233827E+03	5.279313E-16	1.718126E-16
4.243813E+03	5.293853E-16	1.722858E-16
4.253798E+03	5.307358E-16	1.727253E-16
4.263783E+03	5.321141E-16	1.731738E-16
4.273769E+03	5.333875E-16	1.735882E-16
4.283754E+03	5.346875E-16	1.740113E-16
4.293740E+03	5.358813E-16	1.743998E-16
4.303725E+03	5.371009E-16	1.747967E-16
4.313711E+03	5.382124E-16	1.751584E-16
4.323696E+03	5.393493E-16	1.755283E-16
4.333681E+03	5.403769E-16	1.758628E-16
4.343667E+03	5.413619E-16	1.761833E-16
4.353652E+03	5.423037E-16	1.764898E-16
4.363638E+03	5.432686E-16	1.768038E-16
4.373623E+03	5.441225E-16	1.770817E-16
4.383609E+03	5.449324E-16	1.773452E-16
4.393594E+03	5.456972E-16	1.775941E-16
4.403580E+03	5.464169E-16	1.778283E-16
4.413565E+03	5.470913E-16	1.780478E-16
4.423550E+03	5.477199E-16	1.782524E-16
4.433536E+03	5.483026E-16	1.784420E-16
4.443521E+03	5.487726E-16	1.785949E-16
4.453507E+03	5.492625E-16	1.787543E-16
4.463492E+03	5.497061E-16	1.788987E-16
4.473478E+03	5.500366E-16	1.790062E-16
4.483463E+03	5.503869E-16	1.791202E-16
4.493449E+03	5.506902E-16	1.792189E-16
4.503434E+03	5.508803E-16	1.792808E-16
4.513419E+03	5.510234E-16	1.793273E-16
4.523405E+03	5.511858E-16	1.793802E-16
4.533390E+03	5.512354E-16	1.793963E-16
4.543376E+03	5.512381E-16	1.793972E-16
4.553361E+03	5.511941E-16	1.793828E-16
4.563347E+03	5.511037E-16	1.793534E-16
4.573332E+03	5.509668E-16	1.793088E-16
4.583318E+03	5.507836E-16	1.792492E-16
4.593303E+03	5.505545E-16	1.791746E-16
4.603288E+03	5.502795E-16	1.790851E-16
4.613274E+03	5.499587E-16	1.789807E-16
4.623259E+03	5.495275E-16	1.788403E-16
4.633245E+03	5.491166E-16	1.787066E-16
4.643230E+03	5.485959E-16	1.785371E-16
4.653216E+03	5.480957E-16	1.783743E-16
4.663201E+03	5.474868E-16	1.781761E-16
4.673186E+03	5.468346E-16	1.779639E-16
4.683172E+03	5.462036E-16	1.777585E-16
4.693157E+03	5.454655E-16	1.775183E-16
4.703143E+03	5.446851E-16	1.772643E-16
4.713128E+03	5.438628E-16	1.769967E-16
4.723114E+03	5.429994E-16	1.767157E-16
4.733099E+03	5.420951E-16	1.764213E-16
4.743085E+03	5.410873E-16	1.760934E-16
4.753070E+03	5.401031E-16	1.757731E-16
4.763055E+03	5.390795E-16	1.754399E-16
4.773041E+03	5.379546E-16	1.750738E-16
4.783026E+03	5.368541E-16	1.747157E-16
4.793012E+03	5.356540E-16	1.743251E-16
4.802997E+03	5.344172E-16	1.739225E-16
4.812983E+03	5.331442E-16	1.735083E-16
4.822968E+03	5.318356E-16	1.730824E-16
4.832954E+03	5.304925E-16	1.726453E-16
4.842939E+03	5.291150E-16	1.721969E-16
4.852924E+03	5.277039E-16	1.717377E-16
4.862910E+03	5.262597E-16	1.712677E-16
4.872895E+03	5.247833E-16	1.707872E-16
4.882881E+03	5.232150E-16	1.702768E-16
4.892866E+03	5.216760E-16	1.697759E-16
4.902852E+03	5.200472E-16	1.692458E-16
4.912837E+03	5.184484E-16	1.687255E-16
4.922823E+03	5.167613E-16	1.681765E-16
4.932808E+03	5.150464E-16	1.676183E-16
4.942793E+03	5.133045E-16	1.670515E-16
4.952779E+03	5.115356E-16	1.664758E-16
4.962764E+03	5.097411E-16	1.658917E-16
4.972750E+03	5.079215E-16	1.652996E-16
4.982735E+03	5.060196E-16	1.646806E-16
4.992721E+03	5.041518E-16	1.640727E-16
5.002706E+03	5.022609E-16	1.634573E-16
5.012691E+03	5.002904E-16	1.628160E-16
5.022677E+03	4.982990E-16	1.621679E-16
5.032662E+03	4.963431E-16	1.615314E-16
5.042648E+03	4.943106E-16	1.608700E-16
5.052633E+03	4.922588E-16	1.602022E-16
5.062619E+03	4.901886E-16	1.595284E-16
5.072604E+03	4.881002E-16	1.588488E-16
5.082590E+03	4.859947E-16	1.581636E-16
5.092575E+03	4.838723E-16	1.574728E-16
5.102560E+03	4.816797E-16	1.567593E-16
5.112546E+03	4.795264E-16	1.560585E-16
5.122531E+03	4.773043E-16	1.553353E-16
5.132517E+03	4.751225E-16	1.546253E-16
5.142502E+03	4.728736E-16	1.538934E-16
5.152488E+03	4.706126E-16	1.531575E-16
5.162473E+03	4.683398E-16	1.524179E-16
5.172459E+03	4.660560E-16	1.516746E-16
5.182444E+03	4.637618E-16	1.509280E-16
5.192429E+03	4.614573E-16	1.501780E-16
5.202415E+03	4.591435E-16	1.494250E-16
5.212400E+03	4.568211E-16	1.486692E-16
5.222386E+03	4.544395E-16	1.478941E-16
5.232371E+03	4.521014E-16	1.471332E-16
5.242357E+03	4.497059E-16	1.463536E-16
5.252342E+03	4.473042E-16	1.455720E-16
5.262328E+03	4.449469E-16	1.448048E-16
5.272313E+03	4.425344E-16	1.440197E-16
5.282298E+03	4.401177E-16	1.432331E-16
5.292284E+03	4.376970E-16	1.424453E-16
5.302269E+03	4.352728E-16	1.416564E-16
5.312255E+03	4.328456E-16	1.408665E-16
5.322240E+03	4.303680E-16	1.400602E-16
5.332226E+03	4.279365E-16	1.392689E-16
5.342211E+03	4.254560E-16	1.384616E-16
5.352196E+03	4.230219E-16	1.376694E-16
5.362182E+03	4.205408E-16	1.368620E-16
5.372167E+03	4.181059E-16	1.360696E-16
5.382153E+03	4.156254E-16	1.352623E-16
5.392138E+03	4.131460E-16	1.344554E-16
5.402124E+03	4.106681E-16	1.336490E-16
5.412109E+03	4.081922E-16	1.328432E-16
5.422095E+03	4.057185E-16	1.320382E-16
5.432080E+03	4.032475E-16	1.312340E-16
5.442065E+03	4.007353E-16	1.304164E-16
5.452051E+03	3.982709E-16	1.296144E-16
5.462036E+03	3.957666E-16	1.287994E-16
5.472022E+03	3.933106E-16	1.280001E-16
5.482007E+03	3.908159E-16	1.271882E-16
5.491993E+03	3.883694E-16	1.263920E-16
5.501978E+03	3.858853E-16	1.255836E-16
5.511964E+03	3.834074E-16	1.247772E-16
5.521949E+03	3.809353E-16	1.239727E-16
5.531934E+03	3.784703E-16	1.231704E-16
5.541920E+03	3.760118E-16	1.223703E-16
5.551905E+03	3.735606E-16	1.215726E-16
5.561891E+03	3.710756E-16	1.207639E-16
5.571876E+03	3.686396E-16	1.199711E-16
5.581862E+03	3.662116E-16	1.191809E-16
5.591847E+03	3.637514E-16	1.183803E-16
5.601833E+03	3.613399E-16	1.175955E-16
5.611818E+03	3.588977E-16	1.168007E-16
5.621803E+03	3.564649E-16	1.160090E-16
5.631789E+03	3.540805E-16	1.152330E-16
5.641774E+03	3.516664E-16	1.144473E-16
5.651760E+03	3.492628E-16	1.136651E-16
5.661745E+03	3.468689E-16	1.128860E-16
5.671731E+03	3.444854E-16	1.121103E-16
5.681716E+03	3.421126E-16	1.113381E-16
5.691701E+03	3.397131E-16	1.105572E-16
5.701687E+03	3.373621E-16	1.097921E-16
5.711672E+03	3.350222E-16	1.090306E-16
5.721658E+03	3.326568E-16	1.082608E-16
5.731643E+03	3.303397E-16	1.075067E-16
5.741629E+03	3.279979E-16	1.067446E-16
5.751614E+03	3.257037E-16	1.059980E-16
5.761600E+03	3.233861E-16	1.052437E-16
5.771585E+03	3.210807E-16	1.044935E-16
5.781570E+03	3.187878E-16	1.037473E-16
5.791556E+03	3.165075E-16	1.030052E-16
5.801541E+03	3.142398E-16	1.022672E-16
5.811527E+03	3.119850E-16	1.015333E-16
5.821512E+03	3.097430E-16	1.008037E-16
5.831498E+03	3.075140E-16	1.000783E-16
5.841483E+03	3.052980E-16	9.935712E-17
5.851469E+03	3.030952E-16	9.864022E-17
5.861454E+03	3.008726E-16	9.791689E-17
5.871439E+03	2.986965E-16	9.720870E-17
5.881425E+03	2.965337E-16	9.650484E-17
5.891410E+03	2.943520E-16	9.579484E-17
5.901396E+03	2.921844E-16	9.508940E-17
5.911381E+03	2.900624E-16	9.439883E-17
5.921367E+03	2.879226E-16	9.370243E-17
5.931352E+03	2.857967E-16	9.301060E-17
5.941338E+03	2.837161E-16	9.233348E-17
5.951323E+03	2.816184E-16	9.165078E-17
5.961308E+03	2.795348E-16	9.097269E-17
5.971294E+03	2.774654E-16	9.029925E-17
5.981279E+03	2.754103E-16	8.963042E-17
5.991265E+03	2.733695E-16	8.896625E-17
6.001250E+03	2.713429E-16	8.830672E-17
6.011236E+03	2.693011E-16	8.764224E-17
6.021221E+03	2.673034E-16	8.699209E-17
6.031207E+03	2.653199E-16	8.634660E-17
6.041192E+03	2.633509E-16	8.570578E-17
6.051177E+03	2.613674E-16	8.506030E-17
6.061163E+03	2.594272E-16	8.442888E-17
6.071148E+03	2.574731E-16	8.379293E-17
6.081134E+03	2.555618E-16	8.317090E-17
6.091119E+03	2.536370E-16	8.254448E-17
6.101105E+03	2.517268E-16	8.192285E-17
6.111090E+03	2.498588E-16	8.131492E-17
6.121075E+03	2.479779E-16	8.070279E-17
6.131061E+03	2.461117E-16	8.009544E-17
6.141046E+03	2.442600E-16	7.949284E-17
6.151032E+03	2.424231E-16	7.889501E-17
6.161017E+03	2.406270E-16	7.831052E-17
6.171003E+03	2.388190E-16	7.772211E-17
6.180988E+03	2.370256E-16	7.713844E-17
6.190974E+03	2.352466E-16	7.655949E-17
6.200959E+03	2.334564E-16	7.597689E-17
6.210944E+03	2.317065E-16	7.540741E-17
6.220930E+03	2.299710E-16	7.484260E-17
6.230915E+03	2.282498E-16	7.428246E-17
6.240901E+03	2.265430E-16	7.372698E-17
6.250886E+03	2.248257E-16	7.316810E-17
6.260872E+03	2.231474E-16	7.262193E-17
6.270857E+03	2.214834E-16	7.208039E-17
6.280843E+03	2.198093E-16	7.153557E-17
6.290828E+03	2.181736E-16	7.100325E-17
6.300813E+03	2.165281E-16	7.046774E-17
6.310799E+03	2.149206E-16	6.994458E-17
6.320784E+03	2.133035E-16	6.941832E-17
6.330770E+03	2.117006E-16	6.889665E-17
6.340755E+03	2.101349E-16	6.838712E-17
6.350741E+03	2.085600E-16	6.787459E-17
6.360726E+03	2.069991E-16	6.736660E-17
6.370712E+03	2.054747E-16	6.687050E-17
6.380697E+03	2.039414E-16	6.637151E-17
6.390682E+03	2.024219E-16	6.587701E-17
6.400668E+03	2.009162E-16	6.538697E-17
6.410653E+03	1.994240E-16	6.490137E-17
6.420639E+03	1.979455E-16	6.442020E-17
6.430624E+03	1.964805E-16	6.394341E-17
6.440610E+03	1.950288E-16	6.347099E-17
6.450595E+03	1.935906E-16	6.300292E-17
6.460580E+03	1.921656E-16	6.253917E-17
6.470566E+03	1.907538E-16	6.207971E-17
6.480551E+03	1.893551E-16	6.162452E-17
6.490537E+03	1.879694E-16	6.117358E-17
6.500522E+03	1.865968E-16	6.072686E-17
6.510508E+03	1.852165E-16	6.027766E-17
6.520493E+03	1.838696E-16	5.983933E-17
6.530479E+03	1.825354E-16	5.940513E-17
6.540464E+03	1.811939E-16	5.896852E-17
6.550449E+03	1.798850E-16	5.854255E-17
6.560435E+03	1.785885E-16	5.812063E-17
6.570420E+03	1.772847E-16	5.769634E-17
6.580406E+03	1.760131E-16	5.728248E-17
6.590391E+03	1.747342E-16	5.686627E-17
6.600377E+03	1.734868E-16	5.646034E-17
6.610362E+03	1.722324E-16	5.605210E-17
6.620348E+03	1.710091E-16	5.565397E-17
6.630333E+03	1.697787E-16	5.525357E-17
6.640318E+03	1.685790E-16	5.486313E-17
6.650304E+03	1.673724E-16	5.447044E-17
6.660289E+03	1.661774E-16	5.408157E-17
6.670275E+03	1.650125E-16	5.370244E-17
6.680260E+03	1.638407E-16	5.332109E-17
6.690246E+03	1.626803E-16	5.294345E-17
6.700231E+03	1.615313E-16	5.256952E-17
6.710217E+03	1.604113E-16	5.220504E-17
6.720202E+03	1.592846E-16	5.183835E-17
6.730187E+03	1.581689E-16	5.147526E-17
6.740173E+03	1.570642E-16	5.111573E-17
6.750158E+03	1.559702E-16	5.075972E-17
6.760144E+03	1.548870E-16	5.040720E-17
6.770129E+03	1.538144E-16	5.005813E-17
6.780115E+03	1.527524E-16	4.971250E-17
6.790100E+03	1.517007E-16	4.937024E-17
6.800085E+03	1.506593E-16	4.903134E-17
6.810071E+03	1.496282E-16	4.869575E-17
6.820056E+03	1.486071E-16	4.836344E-17
6.830042E+03	1.475959E-16	4.803438E-17
6.840027E+03	1.465947E-16	4.770853E-17
6.850013E+03	1.456032E-16	4.738586E-17
6.859998E+03	1.446052E-16	4.706106E-17
6.869984E+03	1.436330E-16	4.674466E-17
6.879969E+03	1.426702E-16	4.643135E-17
6.889954E+03	1.417168E-16	4.612105E-17
6.899940E+03	1.407568E-16	4.580863E-17
6.909925E+03	1.398218E-16	4.550434E-17
6.919911E+03	1.388957E-16	4.520297E-17
6.929896E+03	1.379631E-16	4.489947E-17
6.939882E+03	1.370549E-16	4.460389E-17
6.949867E+03	1.361553E-16	4.431112E-17
6.959853E+03	1.352491E-16	4.401622E-17
6.969838E+03	1.343667E-16	4.372903E-17
6.979823E+03	1.334776E-16	4.343968E-17
6.989809E+03	1.326118E-16	4.315792E-17
6.999794E+03	1.317394E-16	4.287400E-17
7.009780E+03	1.308752E-16	4.259275E-17
7.019765E+03	1.300337E-16	4.231889E-17
7.029751E+03	1.291855E-16	4.204286E-17
7.039736E+03	1.283596E-16	4.177409E-17
7.049722E+03	1.275271E-16	4.150314E-17
7.059707E+03	1.267022E-16	4.123468E-17
7.069692E+03	1.258849E-16	4.096870E-17
7.079678E+03	1.250891E-16	4.070973E-17
7.089663E+03	1.242866E-16	4.044855E-17
7.099649E+03	1.234914E-16	4.018975E-17
7.109634E+03	1.227033E-16	3.993328E-17
7.119620E+03	1.219223E-16	3.967913E-17
7.129605E+03	1.211483E-16	3.942723E-17
7.139590E+03	1.203812E-16	3.917758E-17
7.149576E+03	1.196209E-16	3.893014E-17
7.159561E+03	1.188673E-16	3.868488E-17
7.169547E+03	1.181202E-16	3.844177E-17
7.179532E+03	1.173797E-16	3.820077E-17
7.189518E+03	1.166456E-16	3.796187E-17
7.199503E+03	1.159178E-16	3.772501E-17
7.209489E+03	1.151963E-16	3.749020E-17
7.219474E+03	1.144809E-16	3.725738E-17
7.229459E+03	1.137716E-16	3.702654E-17
7.239445E+03	1.130555E-16	3.679347E-17
7.249430E+03	1.123581E-16	3.656651E-17
7.259416E+03	1.116665E-16	3.634145E-17
7.269401E+03	1.109807E-16	3.611826E-17
7.279387E+03	1.102880E-16	3.589283E-17
7.289372E+03	1.096135E-16	3.567331E-17
7.299358E+03	1.089444E-16	3.545557E-17
7.309343E+03	1.082685E-16	3.523560E-17
7.319328E+03	1.076104E-16	3.502141E-17
7.329314E+03	1.069453E-16	3.480496E-17
7.339299E+03	1.062976E-16	3.459419E-17
7.349285E+03	1.056431E-16	3.438119E-17
7.359270E+03	1.049938E-16	3.416988E-17
7.369256E+03	1.043615E-16	3.396410E-17
7.379241E+03	1.037223E-16	3.375609E-17
7.389227E+03	1.030882E-16	3.354971E-17
7.399212E+03	1.024707E-16	3.334875E-17
7.409197E+03	1.018463E-16	3.314555E-17
7.419183E+03	1.012268E-16	3.294392E-17
7.429168E+03	1.006120E-16	3.274386E-17
7.439154E+03	1.000134E-16	3.254905E-17
7.449139E+03	9.940800E-17	3.235202E-17
7.459125E+03	9.880718E-17	3.215648E-17
7.469110E+03	9.821092E-17	3.196244E-17
7.479095E+03	9.761919E-17	3.176986E-17
7.489081E+03	9.703193E-17	3.157874E-17
7.499066E+03	9.644911E-17	3.138907E-17
7.509052E+03	9.587068E-17	3.120082E-17
7.519037E+03	9.528560E-17	3.101041E-17
7.529023E+03	9.471588E-17	3.082500E-17
7.539008E+03	9.415041E-17	3.064097E-17
7.548994E+03	9.358918E-17	3.045832E-17
7.558979E+03	9.303216E-17	3.027705E-17
7.568964E+03	9.246859E-17	3.009364E-17
7.578950E+03	9.191989E-17	2.991507E-17
7.588935E+03	9.137532E-17	2.973784E-17
7.598921E+03	9.082429E-17	2.955851E-17
7.608906E+03	9.028788E-17	2.938394E-17
7.618892E+03	8.974510E-17	2.920730E-17
7.628877E+03	8.921679E-17	2.903536E-17
7.638863E+03	8.868214E-17	2.886136E-17
7.648848E+03	8.815154E-17	2.868869E-17
7.658833E+03	8.763518E-17	2.852064E-17
7.668819E+03	8.711260E-17	2.835057E-17
7.678804E+03	8.659400E-17	2.818180E-17
7.688790E+03	8.608946E-17	2.801760E-17
7.698775E+03	8.557878E-17	2.785140E-17
7.708761E+03	8.507207E-17	2.768649E-17
7.718746E+03	8.456931E-17	2.752287E-17
7.728732E+03	8.407051E-17	2.736054E-17
7.738717E+03	8.357559E-17	2.719947E-17
7.748702E+03	8.308461E-17	2.703969E-17
