#wls	flux	fluxerr
1.581028E+03	1.860318E-03	2.306762E-04
1.620553E+03	1.903927E-03	2.351736E-04
1.660079E+03	1.950378E-03	2.399543E-04
1.699605E+03	1.999441E-03	2.449839E-04
1.739130E+03	2.051571E-03	2.503114E-04
1.778656E+03	2.106992E-03	2.559568E-04
1.818182E+03	2.165928E-03	2.619391E-04
1.857708E+03	2.228601E-03	2.682762E-04
1.897233E+03	2.294994E-03	2.749570E-04
1.936759E+03	2.365554E-03	2.820244E-04
1.976285E+03	2.440720E-03	2.895200E-04
2.015810E+03	2.520696E-03	2.974552E-04
2.055336E+03	2.605678E-03	3.058403E-04
2.094862E+03	2.696557E-03	3.147648E-04
2.134387E+03	2.794215E-03	3.243151E-04
2.173913E+03	2.899528E-03	3.345732E-04
2.213439E+03	3.014527E-03	3.457508E-04
2.252964E+03	3.140771E-03	3.579991E-04
2.292490E+03	3.279320E-03	3.714069E-04
2.332016E+03	3.430747E-03	3.860044E-04
2.371542E+03	3.594646E-03	4.017088E-04
2.411067E+03	3.771992E-03	4.185904E-04
2.450593E+03	3.962544E-03	4.365811E-04
2.490119E+03	4.167188E-03	4.557352E-04
2.529644E+03	4.386060E-03	4.760214E-04
2.569170E+03	4.620171E-03	4.974999E-04
2.608696E+03	4.869769E-03	5.201447E-04
2.648221E+03	5.135262E-03	5.439439E-04
2.687747E+03	5.416745E-03	5.688494E-04
2.727273E+03	5.714464E-03	5.948264E-04
2.766798E+03	6.027638E-03	6.217315E-04
2.806324E+03	6.356551E-03	6.495312E-04
2.845850E+03	6.700905E-03	6.781303E-04
2.885375E+03	7.062112E-03	7.076038E-04
2.924901E+03	7.442299E-03	7.380907E-04
2.964427E+03	7.844956E-03	7.698525E-04
2.974308E+03	7.949685E-03	7.780354E-04
2.984190E+03	8.055891E-03	7.862975E-04
2.994071E+03	8.163768E-03	7.946560E-04
3.003953E+03	8.273506E-03	8.031277E-04
3.013834E+03	8.385069E-03	8.117071E-04
3.023715E+03	8.498426E-03	8.203895E-04
3.033597E+03	8.613980E-03	8.292117E-04
3.043478E+03	8.731473E-03	8.381469E-04
3.053360E+03	8.850865E-03	8.471891E-04
3.063241E+03	8.972557E-03	8.563746E-04
3.073123E+03	9.096503E-03	8.656968E-04
3.083004E+03	9.222880E-03	8.751701E-04
3.092885E+03	9.351199E-03	8.847458E-04
3.102767E+03	9.482292E-03	8.945002E-04
3.112648E+03	9.615665E-03	9.043843E-04
3.122530E+03	9.751488E-03	9.144114E-04
3.132411E+03	9.889922E-03	9.245942E-04
3.142292E+03	1.003091E-02	9.349246E-04
3.152174E+03	1.017461E-02	9.454148E-04
3.162055E+03	1.032096E-02	9.560560E-04
3.171937E+03	1.047012E-02	9.668595E-04
3.181818E+03	1.062201E-02	9.778165E-04
3.191700E+03	1.077678E-02	9.889376E-04
3.201581E+03	1.093437E-02	1.000213E-03
3.211462E+03	1.109470E-02	1.011633E-03
3.221344E+03	1.125790E-02	1.023208E-03
3.231225E+03	1.142391E-02	1.034927E-03
3.241107E+03	1.159285E-02	1.046800E-03
3.250988E+03	1.176464E-02	1.058815E-03
3.260870E+03	1.193921E-02	1.070963E-03
3.270751E+03	1.211645E-02	1.083232E-03
3.280632E+03	1.229649E-02	1.095630E-03
3.290514E+03	1.247925E-02	1.108147E-03
3.300395E+03	1.266463E-02	1.120770E-03
3.310277E+03	1.285253E-02	1.133490E-03
3.320158E+03	1.304267E-02	1.146275E-03
3.330040E+03	1.323513E-02	1.159135E-03
3.339921E+03	1.342964E-02	1.172038E-03
3.349802E+03	1.362628E-02	1.184993E-03
3.359684E+03	1.382475E-02	1.197970E-03
3.369565E+03	1.402457E-02	1.210924E-03
3.379447E+03	1.422602E-02	1.223879E-03
3.389328E+03	1.442840E-02	1.236772E-03
3.399209E+03	1.463163E-02	1.249595E-03
3.409091E+03	1.483541E-02	1.262320E-03
3.418972E+03	1.503944E-02	1.274923E-03
3.428854E+03	1.524323E-02	1.287360E-03
3.438735E+03	1.544652E-02	1.299609E-03
3.448617E+03	1.564862E-02	1.311612E-03
3.458498E+03	1.584945E-02	1.323364E-03
3.468379E+03	1.604836E-02	1.334811E-03
3.478261E+03	1.624472E-02	1.345901E-03
3.488142E+03	1.643806E-02	1.356600E-03
3.498024E+03	1.662741E-02	1.366828E-03
3.507905E+03	1.681214E-02	1.376539E-03
3.517787E+03	1.699168E-02	1.385689E-03
3.527668E+03	1.716524E-02	1.394221E-03
3.537549E+03	1.733210E-02	1.402079E-03
3.547431E+03	1.749132E-02	1.409196E-03
3.557312E+03	1.764276E-02	1.415567E-03
3.567194E+03	1.778554E-02	1.421130E-03
3.577075E+03	1.791933E-02	1.425866E-03
3.586957E+03	1.804383E-02	1.429761E-03
3.596838E+03	1.815875E-02	1.432802E-03
3.606719E+03	1.826380E-02	1.434974E-03
3.616601E+03	1.835889E-02	1.436281E-03
3.626482E+03	1.844409E-02	1.436739E-03
3.636364E+03	1.851935E-02	1.436351E-03
3.646245E+03	1.858439E-02	1.435110E-03
3.656126E+03	1.863967E-02	1.433060E-03
3.666008E+03	1.868496E-02	1.430193E-03
3.675889E+03	1.872053E-02	1.426540E-03
3.685771E+03	1.874650E-02	1.422121E-03
3.695652E+03	1.876316E-02	1.416966E-03
3.705534E+03	1.877045E-02	1.411084E-03
3.715415E+03	1.876867E-02	1.404504E-03
3.725296E+03	1.875825E-02	1.397270E-03
3.735178E+03	1.873917E-02	1.389388E-03
3.745059E+03	1.871171E-02	1.380890E-03
3.754941E+03	1.867615E-02	1.371804E-03
3.764822E+03	1.863279E-02	1.362160E-03
3.774704E+03	1.858173E-02	1.351977E-03
3.784585E+03	1.852328E-02	1.341284E-03
3.794466E+03	1.845786E-02	1.330120E-03
3.804348E+03	1.838546E-02	1.318490E-03
3.814229E+03	1.830649E-02	1.306435E-03
3.824111E+03	1.822124E-02	1.293980E-03
3.833992E+03	1.812984E-02	1.281142E-03
3.843874E+03	1.803256E-02	1.267948E-03
3.853755E+03	1.792969E-02	1.254424E-03
3.863636E+03	1.782135E-02	1.240585E-03
3.873518E+03	1.770796E-02	1.226467E-03
3.883399E+03	1.758951E-02	1.212075E-03
3.893281E+03	1.746644E-02	1.197444E-03
3.903162E+03	1.733902E-02	1.182599E-03
3.913043E+03	1.720726E-02	1.167547E-03
3.922925E+03	1.707146E-02	1.152311E-03
3.932806E+03	1.693193E-02	1.136918E-03
3.942688E+03	1.678898E-02	1.121394E-03
3.952569E+03	1.664268E-02	1.105746E-03
3.962451E+03	1.649337E-02	1.090002E-03
3.972332E+03	1.634143E-02	1.074190E-03
3.982213E+03	1.618711E-02	1.058330E-03
3.992095E+03	1.603068E-02	1.042443E-03
4.001976E+03	1.587258E-02	1.026559E-03
4.011858E+03	1.571311E-02	1.010702E-03
4.021739E+03	1.555250E-02	9.948860E-04
4.031621E+03	1.539132E-02	9.791505E-04
4.041502E+03	1.522980E-02	9.635111E-04
4.051383E+03	1.506842E-02	9.479980E-04
4.061265E+03	1.490752E-02	9.326337E-04
4.071146E+03	1.474733E-02	9.174321E-04
4.081028E+03	1.458843E-02	9.024283E-04
4.090909E+03	1.443101E-02	8.876340E-04
4.100791E+03	1.427540E-02	8.730672E-04
4.110672E+03	1.412199E-02	8.587517E-04
4.120553E+03	1.397109E-02	8.447025E-04
4.130435E+03	1.382296E-02	8.309335E-04
4.140316E+03	1.367794E-02	8.174637E-04
4.150198E+03	1.353619E-02	8.042979E-04
4.160079E+03	1.339811E-02	7.914585E-04
4.169960E+03	1.326383E-02	7.789479E-04
4.179842E+03	1.313372E-02	7.667856E-04
4.189723E+03	1.300787E-02	7.549715E-04
4.199605E+03	1.288673E-02	7.435288E-04
4.209486E+03	1.277045E-02	7.324606E-04
4.219368E+03	1.265925E-02	7.217756E-04
4.229249E+03	1.255336E-02	7.114810E-04
4.239130E+03	1.245317E-02	7.015948E-04
4.249012E+03	1.235898E-02	6.921274E-04
4.258893E+03	1.227096E-02	6.830832E-04
4.268775E+03	1.218948E-02	6.744764E-04
4.278656E+03	1.211480E-02	6.663151E-04
4.288538E+03	1.204725E-02	6.586118E-04
4.298419E+03	1.198719E-02	6.513785E-04
4.308300E+03	1.193475E-02	6.446156E-04
4.318182E+03	1.188997E-02	6.383181E-04
4.328063E+03	1.185251E-02	6.324607E-04
4.337945E+03	1.182238E-02	6.270383E-04
4.347826E+03	1.179925E-02	6.220256E-04
4.357708E+03	1.178311E-02	6.174174E-04
4.367589E+03	1.177369E-02	6.131924E-04
4.377470E+03	1.177087E-02	6.093381E-04
4.387352E+03	1.177448E-02	6.058409E-04
4.397233E+03	1.178439E-02	6.026867E-04
4.407115E+03	1.180039E-02	5.998606E-04
4.416996E+03	1.182240E-02	5.973523E-04
4.426877E+03	1.185039E-02	5.951557E-04
4.436759E+03	1.188395E-02	5.932449E-04
4.446640E+03	1.192313E-02	5.916178E-04
4.456522E+03	1.196779E-02	5.902628E-04
4.466403E+03	1.201766E-02	5.891626E-04
4.476285E+03	1.207268E-02	5.883100E-04
4.486166E+03	1.213267E-02	5.876925E-04
4.496047E+03	1.219755E-02	5.873026E-04
4.505929E+03	1.226703E-02	5.871229E-04
4.515810E+03	1.234113E-02	5.871510E-04
4.525692E+03	1.241953E-02	5.873690E-04
4.535573E+03	1.250226E-02	5.877747E-04
4.545455E+03	1.258888E-02	5.883457E-04
4.555336E+03	1.267949E-02	5.890842E-04
4.565217E+03	1.277367E-02	5.899679E-04
4.575099E+03	1.287127E-02	5.909891E-04
4.584980E+03	1.297218E-02	5.921404E-04
4.594862E+03	1.307615E-02	5.934089E-04
4.604743E+03	1.318281E-02	5.947769E-04
4.614625E+03	1.329210E-02	5.962411E-04
4.624506E+03	1.340352E-02	5.977783E-04
4.634387E+03	1.351712E-02	5.993903E-04
4.644269E+03	1.363223E-02	6.010475E-04
4.654150E+03	1.374876E-02	6.027462E-04
4.664032E+03	1.386637E-02	6.044718E-04
4.673913E+03	1.398468E-02	6.062089E-04
4.683794E+03	1.410331E-02	6.079420E-04
4.693676E+03	1.422198E-02	6.096607E-04
4.703557E+03	1.434027E-02	6.113485E-04
4.713439E+03	1.445773E-02	6.129887E-04
4.723320E+03	1.457404E-02	6.145696E-04
4.733202E+03	1.468874E-02	6.160745E-04
4.743083E+03	1.480134E-02	6.174864E-04
4.752964E+03	1.491138E-02	6.187887E-04
4.762846E+03	1.501839E-02	6.199658E-04
4.772727E+03	1.512206E-02	6.210086E-04
4.782609E+03	1.522182E-02	6.218983E-04
4.792490E+03	1.531744E-02	6.226288E-04
4.802372E+03	1.540843E-02	6.231857E-04
4.812253E+03	1.549473E-02	6.235706E-04
4.822134E+03	1.557625E-02	6.237844E-04
4.832016E+03	1.565280E-02	6.238242E-04
4.841897E+03	1.572455E-02	6.237010E-04
4.851779E+03	1.579141E-02	6.234160E-04
4.861660E+03	1.585381E-02	6.229882E-04
4.871542E+03	1.591161E-02	6.224146E-04
4.881423E+03	1.596515E-02	6.217107E-04
4.891304E+03	1.601464E-02	6.208867E-04
4.901186E+03	1.606034E-02	6.199535E-04
4.911067E+03	1.610248E-02	6.189225E-04
4.920949E+03	1.614121E-02	6.177999E-04
4.930830E+03	1.617710E-02	6.166089E-04
4.940711E+03	1.621015E-02	6.153505E-04
4.950593E+03	1.624082E-02	6.140426E-04
4.960474E+03	1.626943E-02	6.126977E-04
4.970356E+03	1.629629E-02	6.113281E-04
4.980237E+03	1.632174E-02	6.099463E-04
4.990119E+03	1.634594E-02	6.085586E-04
5.000000E+03	1.636936E-02	6.071826E-04
5.009881E+03	1.639233E-02	6.058300E-04
5.019763E+03	1.641501E-02	6.045062E-04
5.029644E+03	1.643785E-02	6.032277E-04
5.039526E+03	1.646099E-02	6.019990E-04
5.049407E+03	1.648487E-02	6.008353E-04
5.059289E+03	1.650959E-02	5.997398E-04
5.069170E+03	1.653555E-02	5.987262E-04
5.079051E+03	1.656266E-02	5.977904E-04
5.088933E+03	1.659142E-02	5.969501E-04
5.098814E+03	1.662171E-02	5.961994E-04
5.108696E+03	1.665397E-02	5.955542E-04
5.118577E+03	1.668802E-02	5.950068E-04
5.128458E+03	1.672411E-02	5.945654E-04
5.138340E+03	1.676216E-02	5.942263E-04
5.148221E+03	1.680236E-02	5.939962E-04
5.158103E+03	1.684476E-02	5.938754E-04
5.167984E+03	1.688902E-02	5.938519E-04
5.177866E+03	1.693544E-02	5.939360E-04
5.187747E+03	1.698384E-02	5.941202E-04
5.197628E+03	1.703396E-02	5.943959E-04
5.207510E+03	1.708590E-02	5.947661E-04
5.217391E+03	1.713955E-02	5.952266E-04
5.227273E+03	1.719478E-02	5.957729E-04
5.237154E+03	1.725110E-02	5.963882E-04
5.247036E+03	1.730867E-02	5.970784E-04
5.256917E+03	1.736714E-02	5.978311E-04
5.266798E+03	1.742627E-02	5.986391E-04
5.276680E+03	1.748567E-02	5.994887E-04
5.286561E+03	1.754525E-02	6.003777E-04
5.296443E+03	1.760455E-02	6.012909E-04
5.306324E+03	1.766344E-02	6.022250E-04
5.316206E+03	1.772127E-02	6.031579E-04
5.326087E+03	1.777787E-02	6.040850E-04
5.335968E+03	1.783290E-02	6.049956E-04
5.345850E+03	1.788580E-02	6.058721E-04
5.355731E+03	1.793621E-02	6.067014E-04
5.365613E+03	1.798389E-02	6.074754E-04
5.375494E+03	1.802794E-02	6.081620E-04
5.385375E+03	1.806817E-02	6.087541E-04
5.395257E+03	1.810405E-02	6.092331E-04
5.405138E+03	1.813509E-02	6.095816E-04
5.415020E+03	1.816101E-02	6.097894E-04
5.424901E+03	1.818195E-02	6.098603E-04
5.434783E+03	1.819736E-02	6.097752E-04
5.444664E+03	1.820714E-02	6.095293E-04
5.454545E+03	1.821140E-02	6.091261E-04
5.464427E+03	1.820979E-02	6.085528E-04
5.474308E+03	1.820258E-02	6.078176E-04
5.484190E+03	1.818994E-02	6.069249E-04
5.494071E+03	1.817209E-02	6.058819E-04
5.503953E+03	1.814916E-02	6.046917E-04
5.513834E+03	1.812153E-02	6.033663E-04
5.523715E+03	1.808966E-02	6.019197E-04
5.533597E+03	1.805423E-02	6.003742E-04
5.543478E+03	1.801543E-02	5.987352E-04
5.553360E+03	1.797426E-02	5.970347E-04
5.563241E+03	1.793097E-02	5.952805E-04
5.573123E+03	1.788623E-02	5.934943E-04
5.583004E+03	1.784110E-02	5.917103E-04
5.592885E+03	1.779589E-02	5.899379E-04
5.602767E+03	1.775147E-02	5.882055E-04
5.612648E+03	1.770831E-02	5.865278E-04
5.622530E+03	1.766702E-02	5.849249E-04
5.632411E+03	1.762839E-02	5.834219E-04
5.642292E+03	1.759293E-02	5.820352E-04
5.652174E+03	1.756089E-02	5.807730E-04
5.662055E+03	1.753263E-02	5.796467E-04
5.671937E+03	1.750860E-02	5.786709E-04
5.681818E+03	1.748877E-02	5.778441E-04
5.691700E+03	1.747334E-02	5.771733E-04
5.701581E+03	1.746224E-02	5.766556E-04
5.711462E+03	1.745507E-02	5.762779E-04
5.721344E+03	1.745169E-02	5.760357E-04
5.731225E+03	1.745165E-02	5.759147E-04
5.741107E+03	1.745442E-02	5.758972E-04
5.750988E+03	1.745937E-02	5.759628E-04
5.760870E+03	1.746577E-02	5.760879E-04
5.770751E+03	1.747283E-02	5.762474E-04
5.780632E+03	1.747992E-02	5.764204E-04
5.790514E+03	1.748595E-02	5.765720E-04
5.800395E+03	1.749020E-02	5.766791E-04
5.810277E+03	1.749175E-02	5.767121E-04
5.820158E+03	1.748966E-02	5.766410E-04
5.830040E+03	1.748322E-02	5.764431E-04
5.839921E+03	1.747114E-02	5.760767E-04
5.849802E+03	1.745318E-02	5.755349E-04
5.859684E+03	1.742835E-02	5.747858E-04
5.869565E+03	1.739572E-02	5.737999E-04
5.879447E+03	1.735528E-02	5.725778E-04
5.889328E+03	1.730609E-02	5.710887E-04
5.899209E+03	1.724790E-02	5.693259E-04
5.909091E+03	1.718059E-02	5.672862E-04
5.918972E+03	1.710396E-02	5.649629E-04
5.928854E+03	1.701787E-02	5.623527E-04
5.938735E+03	1.692231E-02	5.594558E-04
5.948617E+03	1.681780E-02	5.562894E-04
5.958498E+03	1.670430E-02	5.528528E-04
5.968379E+03	1.658228E-02	5.491618E-04
5.978261E+03	1.645229E-02	5.452349E-04
5.988142E+03	1.631474E-02	5.410855E-04
5.998024E+03	1.617031E-02	5.367363E-04
6.007905E+03	1.601972E-02	5.322114E-04
6.017787E+03	1.586335E-02	5.275230E-04
6.027668E+03	1.570243E-02	5.227117E-04
6.037549E+03	1.553739E-02	5.177920E-04
6.047431E+03	1.536953E-02	5.128066E-04
6.057312E+03	1.519954E-02	5.077784E-04
6.067194E+03	1.502834E-02	5.027378E-04
6.077075E+03	1.485685E-02	4.977155E-04
6.086957E+03	1.468641E-02	4.927562E-04
6.096838E+03	1.451757E-02	4.878780E-04
6.106719E+03	1.435108E-02	4.831062E-04
6.116601E+03	1.418711E-02	4.784443E-04
6.126482E+03	1.402642E-02	4.739160E-04
6.136364E+03	1.386989E-02	4.695482E-04
6.146245E+03	1.371835E-02	4.653674E-04
6.156126E+03	1.357246E-02	4.613946E-04
6.166008E+03	1.343359E-02	4.576750E-04
6.175889E+03	1.330233E-02	4.542274E-04
6.185771E+03	1.317956E-02	4.510822E-04
6.195652E+03	1.306631E-02	4.482741E-04
6.205534E+03	1.296298E-02	4.458169E-04
6.215415E+03	1.287063E-02	4.437478E-04
6.225296E+03	1.278951E-02	4.420764E-04
6.235178E+03	1.272032E-02	4.408285E-04
6.245059E+03	1.266332E-02	4.400142E-04
6.254941E+03	1.261884E-02	4.396474E-04
6.264822E+03	1.258713E-02	4.397385E-04
6.274704E+03	1.256831E-02	4.402942E-04
6.284585E+03	1.256242E-02	4.413184E-04
6.294466E+03	1.256920E-02	4.428044E-04
6.304348E+03	1.258849E-02	4.447493E-04
6.314229E+03	1.261984E-02	4.471400E-04
6.324111E+03	1.266309E-02	4.499737E-04
6.333992E+03	1.271784E-02	4.532387E-04
6.343874E+03	1.278363E-02	4.569211E-04
6.353755E+03	1.285973E-02	4.609979E-04
6.363636E+03	1.294578E-02	4.654584E-04
6.373518E+03	1.304138E-02	4.702905E-04
6.383399E+03	1.314551E-02	4.754600E-04
6.393281E+03	1.325793E-02	4.809599E-04
6.403162E+03	1.337777E-02	4.867607E-04
6.413043E+03	1.350414E-02	4.928317E-04
6.422925E+03	1.363656E-02	4.991565E-04
6.432806E+03	1.377430E-02	5.057102E-04
6.442688E+03	1.391620E-02	5.124513E-04
6.452569E+03	1.406174E-02	5.193604E-04
6.462451E+03	1.421013E-02	5.264099E-04
6.472332E+03	1.436059E-02	5.335707E-04
6.482213E+03	1.451185E-02	5.407957E-04
6.492095E+03	1.466352E-02	5.480702E-04
6.501976E+03	1.481430E-02	5.553446E-04
6.511858E+03	1.496354E-02	5.625939E-04
6.521739E+03	1.511012E-02	5.697750E-04
6.531621E+03	1.525315E-02	5.768527E-04
6.541502E+03	1.539201E-02	5.838017E-04
6.551383E+03	1.552557E-02	5.905776E-04
6.561265E+03	1.565274E-02	5.971368E-04
6.571146E+03	1.577324E-02	6.034655E-04
6.581028E+03	1.588579E-02	6.095125E-04
6.590909E+03	1.598970E-02	6.152479E-04
6.600791E+03	1.608484E-02	6.206645E-04
6.610672E+03	1.617015E-02	6.257173E-04
6.620553E+03	1.624542E-02	6.303949E-04
6.630435E+03	1.630997E-02	6.346679E-04
6.640316E+03	1.636380E-02	6.385316E-04
6.650198E+03	1.640642E-02	6.419631E-04
6.660079E+03	1.643798E-02	6.449644E-04
6.669960E+03	1.645817E-02	6.475193E-04
6.679842E+03	1.646731E-02	6.496369E-04
6.689723E+03	1.646526E-02	6.513074E-04
6.699605E+03	1.645250E-02	6.525464E-04
6.709486E+03	1.642931E-02	6.533618E-04
6.719368E+03	1.639577E-02	6.537527E-04
6.729249E+03	1.635257E-02	6.537438E-04
6.739130E+03	1.629989E-02	6.533396E-04
6.749012E+03	1.623854E-02	6.525696E-04
6.758893E+03	1.616909E-02	6.514542E-04
6.768775E+03	1.609186E-02	6.500039E-04
6.778656E+03	1.600777E-02	6.482539E-04
6.788538E+03	1.591747E-02	6.462289E-04
6.798419E+03	1.582168E-02	6.439561E-04
6.808300E+03	1.572084E-02	6.414530E-04
6.818182E+03	1.561629E-02	6.387723E-04
6.828063E+03	1.550817E-02	6.359199E-04
6.837945E+03	1.539747E-02	6.329353E-04
6.847826E+03	1.528484E-02	6.298457E-04
6.857708E+03	1.517091E-02	6.266762E-04
6.867589E+03	1.505625E-02	6.234508E-04
6.877470E+03	1.494136E-02	6.201909E-04
6.887352E+03	1.482670E-02	6.169163E-04
6.897233E+03	1.471297E-02	6.136563E-04
6.907115E+03	1.459996E-02	6.104031E-04
6.916996E+03	1.448851E-02	6.071934E-04
6.926877E+03	1.437861E-02	6.040273E-04
6.936759E+03	1.427047E-02	6.009144E-04
6.946640E+03	1.416423E-02	5.978630E-04
6.956522E+03	1.406032E-02	5.948913E-04
6.966403E+03	1.395855E-02	5.919932E-04
6.976285E+03	1.385926E-02	5.891845E-04
6.986166E+03	1.376221E-02	5.864568E-04
6.996047E+03	1.366772E-02	5.838242E-04
7.005929E+03	1.357550E-02	5.812769E-04
7.015810E+03	1.348583E-02	5.788273E-04
7.025692E+03	1.339867E-02	5.764759E-04
7.035573E+03	1.331399E-02	5.742227E-04
7.045455E+03	1.323174E-02	5.720669E-04
7.055336E+03	1.315159E-02	5.699961E-04
7.065217E+03	1.307401E-02	5.680318E-04
7.075099E+03	1.299865E-02	5.661607E-04
7.084980E+03	1.292543E-02	5.643804E-04
7.094862E+03	1.285426E-02	5.626884E-04
7.104743E+03	1.278529E-02	5.610933E-04
7.114625E+03	1.271843E-02	5.595921E-04
7.124506E+03	1.265329E-02	5.581694E-04
7.134387E+03	1.259003E-02	5.568333E-04
7.144269E+03	1.252825E-02	5.555682E-04
7.154150E+03	1.246836E-02	5.543929E-04
7.164032E+03	1.240969E-02	5.532795E-04
7.173913E+03	1.235264E-02	5.522467E-04
7.183794E+03	1.229652E-02	5.512655E-04
7.193676E+03	1.224172E-02	5.503538E-04
7.203557E+03	1.218780E-02	5.494939E-04
7.213439E+03	1.213461E-02	5.486796E-04
7.223320E+03	1.208197E-02	5.479042E-04
7.233202E+03	1.202972E-02	5.471608E-04
7.243083E+03	1.197767E-02	5.464424E-04
7.252964E+03	1.192538E-02	5.457296E-04
7.262846E+03	1.187269E-02	5.450150E-04
7.272727E+03	1.181941E-02	5.442909E-04
7.282609E+03	1.176538E-02	5.435504E-04
7.292490E+03	1.170964E-02	5.427491E-04
7.302372E+03	1.165256E-02	5.419044E-04
7.312253E+03	1.159321E-02	5.409720E-04
7.322134E+03	1.153143E-02	5.399451E-04
7.332016E+03	1.146684E-02	5.388045E-04
7.341897E+03	1.139932E-02	5.375438E-04
7.351779E+03	1.132851E-02	5.361445E-04
7.361660E+03	1.125536E-02	5.346507E-04
7.371542E+03	1.117953E-02	5.330451E-04
7.381423E+03	1.110122E-02	5.313359E-04
7.391304E+03	1.102090E-02	5.295443E-04
7.401186E+03	1.093852E-02	5.276674E-04
7.411067E+03	1.085432E-02	5.257155E-04
7.420949E+03	1.076830E-02	5.236868E-04
7.430830E+03	1.068046E-02	5.215804E-04
7.440711E+03	1.059133E-02	5.194199E-04
7.450593E+03	1.050044E-02	5.171788E-04
7.460474E+03	1.040835E-02	5.148823E-04
7.470356E+03	1.031487E-02	5.125181E-04
7.480237E+03	1.021983E-02	5.100749E-04
7.490119E+03	1.012383E-02	5.075797E-04
7.500000E+03	1.002671E-02	5.050228E-04
7.509881E+03	9.928600E-03	5.024074E-04
7.519763E+03	9.829375E-03	4.997249E-04
7.529644E+03	9.729669E-03	4.970048E-04
7.539526E+03	9.629133E-03	4.942273E-04
7.549407E+03	9.527911E-03	4.913974E-04
7.559289E+03	9.426418E-03	4.885343E-04
7.569170E+03	9.324835E-03	4.856455E-04
7.579051E+03	9.223095E-03	4.827257E-04
7.588933E+03	9.121620E-03	4.797954E-04
7.598814E+03	9.020334E-03	4.768491E-04
7.608696E+03	8.919402E-03	4.738941E-04
7.618577E+03	8.819196E-03	4.709491E-04
7.628458E+03	8.719625E-03	4.680082E-04
7.638340E+03	8.621042E-03	4.650895E-04
7.648221E+03	8.523332E-03	4.621862E-04
7.658103E+03	8.426824E-03	4.593154E-04
7.667984E+03	8.331613E-03	4.564822E-04
