#wls	flux	fluxerr
1.581028E+03	1.874225E-03	2.319455E-04
1.620553E+03	1.918191E-03	2.364751E-04
1.660079E+03	1.965021E-03	2.412898E-04
1.699605E+03	2.014483E-03	2.463552E-04
1.739130E+03	2.067036E-03	2.517205E-04
1.778656E+03	2.122906E-03	2.574059E-04
1.818182E+03	2.182318E-03	2.634306E-04
1.857708E+03	2.245495E-03	2.698126E-04
1.897233E+03	2.312422E-03	2.765405E-04
1.936759E+03	2.383547E-03	2.836580E-04
1.976285E+03	2.459313E-03	2.912065E-04
2.015810E+03	2.539928E-03	2.991980E-04
2.055336E+03	2.625586E-03	3.076423E-04
2.094862E+03	2.717187E-03	3.166301E-04
2.134387E+03	2.815620E-03	3.262481E-04
2.173913E+03	2.921765E-03	3.365788E-04
2.213439E+03	3.037669E-03	3.478352E-04
2.252964E+03	3.164905E-03	3.601697E-04
2.292490E+03	3.304541E-03	3.736720E-04
2.332016E+03	3.457151E-03	3.883720E-04
2.371542E+03	3.622331E-03	4.041871E-04
2.411067E+03	3.801059E-03	4.211881E-04
2.450593E+03	3.993092E-03	4.393062E-04
2.490119E+03	4.199323E-03	4.585967E-04
2.529644E+03	4.419888E-03	4.790277E-04
2.569170E+03	4.655807E-03	5.006606E-04
2.608696E+03	4.907328E-03	5.234691E-04
2.648221E+03	5.174861E-03	5.474414E-04
2.687747E+03	5.458500E-03	5.725292E-04
2.727273E+03	5.758490E-03	5.986976E-04
2.766798E+03	6.074051E-03	6.258032E-04
2.806324E+03	6.405457E-03	6.538114E-04
2.845850E+03	6.752418E-03	6.826277E-04
2.885375E+03	7.116342E-03	7.123267E-04
2.924901E+03	7.499381E-03	7.430493E-04
2.964427E+03	7.905044E-03	7.750589E-04
2.974308E+03	8.010553E-03	7.833059E-04
2.984190E+03	8.117550E-03	7.916329E-04
2.994071E+03	8.226227E-03	8.000571E-04
3.003953E+03	8.336779E-03	8.085956E-04
3.013834E+03	8.449171E-03	8.172430E-04
3.023715E+03	8.563366E-03	8.259941E-04
3.033597E+03	8.679777E-03	8.348864E-04
3.043478E+03	8.798138E-03	8.438926E-04
3.053360E+03	8.918412E-03	8.530070E-04
3.063241E+03	9.041001E-03	8.622658E-04
3.073123E+03	9.165859E-03	8.716624E-04
3.083004E+03	9.293164E-03	8.812114E-04
3.092885E+03	9.422429E-03	8.908642E-04
3.102767E+03	9.554481E-03	9.006969E-04
3.112648E+03	9.688831E-03	9.106605E-04
3.122530E+03	9.825650E-03	9.207688E-04
3.132411E+03	9.965097E-03	9.310339E-04
3.142292E+03	1.010711E-02	9.414480E-04
3.152174E+03	1.025186E-02	9.520234E-04
3.162055E+03	1.039928E-02	9.627513E-04
3.171937E+03	1.054952E-02	9.736429E-04
3.181818E+03	1.070252E-02	9.846896E-04
3.191700E+03	1.085841E-02	9.959015E-04
3.201581E+03	1.101715E-02	1.007270E-03
3.211462E+03	1.117863E-02	1.018784E-03
3.221344E+03	1.134302E-02	1.030454E-03
3.231225E+03	1.151023E-02	1.042270E-03
3.241107E+03	1.168038E-02	1.054241E-03
3.250988E+03	1.185341E-02	1.066356E-03
3.260870E+03	1.202923E-02	1.078605E-03
3.270751E+03	1.220774E-02	1.090977E-03
3.280632E+03	1.238908E-02	1.103479E-03
3.290514E+03	1.257314E-02	1.116101E-03
3.300395E+03	1.275985E-02	1.128831E-03
3.310277E+03	1.294909E-02	1.141658E-03
3.320158E+03	1.314057E-02	1.154553E-03
3.330040E+03	1.333441E-02	1.167522E-03
3.339921E+03	1.353029E-02	1.180536E-03
3.349802E+03	1.372832E-02	1.193602E-03
3.359684E+03	1.392820E-02	1.206691E-03
3.369565E+03	1.412942E-02	1.219757E-03
3.379447E+03	1.433228E-02	1.232825E-03
3.389328E+03	1.453609E-02	1.245832E-03
3.399209E+03	1.474073E-02	1.258768E-03
3.409091E+03	1.494593E-02	1.271606E-03
3.418972E+03	1.515137E-02	1.284321E-03
3.428854E+03	1.535658E-02	1.296870E-03
3.438735E+03	1.556126E-02	1.309230E-03
3.448617E+03	1.576475E-02	1.321343E-03
3.458498E+03	1.596695E-02	1.333203E-03
3.468379E+03	1.616722E-02	1.344757E-03
3.478261E+03	1.636491E-02	1.355952E-03
3.488142E+03	1.655956E-02	1.366754E-03
3.498024E+03	1.675017E-02	1.377081E-03
3.507905E+03	1.693613E-02	1.386888E-03
3.517787E+03	1.711685E-02	1.396130E-03
3.527668E+03	1.729155E-02	1.404749E-03
3.537549E+03	1.745949E-02	1.412690E-03
3.547431E+03	1.761974E-02	1.419886E-03
3.557312E+03	1.777214E-02	1.426330E-03
3.567194E+03	1.791580E-02	1.431960E-03
3.577075E+03	1.805041E-02	1.436757E-03
3.586957E+03	1.817565E-02	1.440708E-03
3.596838E+03	1.829124E-02	1.443797E-03
3.606719E+03	1.839688E-02	1.446012E-03
3.616601E+03	1.849249E-02	1.447355E-03
3.626482E+03	1.857814E-02	1.447843E-03
3.636364E+03	1.865376E-02	1.447479E-03
3.646245E+03	1.871908E-02	1.446255E-03
3.656126E+03	1.877458E-02	1.444216E-03
3.666008E+03	1.882000E-02	1.441353E-03
3.675889E+03	1.885563E-02	1.437699E-03
3.685771E+03	1.888159E-02	1.433273E-03
3.695652E+03	1.889817E-02	1.428106E-03
3.705534E+03	1.890531E-02	1.422205E-03
3.715415E+03	1.890330E-02	1.415601E-03
3.725296E+03	1.889261E-02	1.408338E-03
3.735178E+03	1.887318E-02	1.400422E-03
3.745059E+03	1.884531E-02	1.391885E-03
3.754941E+03	1.880928E-02	1.382755E-03
3.764822E+03	1.876539E-02	1.373063E-03
3.774704E+03	1.871376E-02	1.362828E-03
3.784585E+03	1.865468E-02	1.352077E-03
3.794466E+03	1.858858E-02	1.340852E-03
3.804348E+03	1.851545E-02	1.329159E-03
3.814229E+03	1.843571E-02	1.317035E-03
3.824111E+03	1.834965E-02	1.304509E-03
3.833992E+03	1.825740E-02	1.291597E-03
3.843874E+03	1.815923E-02	1.278326E-03
3.853755E+03	1.805544E-02	1.264722E-03
3.863636E+03	1.794614E-02	1.250800E-03
3.873518E+03	1.783178E-02	1.236598E-03
3.883399E+03	1.771233E-02	1.222119E-03
3.893281E+03	1.758823E-02	1.207401E-03
3.903162E+03	1.745977E-02	1.192466E-03
3.913043E+03	1.732696E-02	1.177323E-03
3.922925E+03	1.719010E-02	1.161996E-03
3.932806E+03	1.704950E-02	1.146511E-03
3.942688E+03	1.690548E-02	1.130894E-03
3.952569E+03	1.675811E-02	1.115153E-03
3.962451E+03	1.660774E-02	1.099317E-03
3.972332E+03	1.645475E-02	1.083413E-03
3.982213E+03	1.629939E-02	1.067462E-03
3.992095E+03	1.614194E-02	1.051484E-03
4.001976E+03	1.598282E-02	1.035511E-03
4.011858E+03	1.582236E-02	1.019564E-03
4.021739E+03	1.566077E-02	1.003660E-03
4.031621E+03	1.549863E-02	9.878370E-04
4.041502E+03	1.533616E-02	9.721112E-04
4.051383E+03	1.517385E-02	9.565128E-04
4.061265E+03	1.501204E-02	9.410640E-04
4.071146E+03	1.485095E-02	9.257787E-04
4.081028E+03	1.469116E-02	9.106923E-04
4.090909E+03	1.453287E-02	8.958165E-04
4.100791E+03	1.437640E-02	8.811695E-04
4.110672E+03	1.422216E-02	8.667748E-04
4.120553E+03	1.407044E-02	8.526479E-04
4.130435E+03	1.392151E-02	8.388026E-04
4.140316E+03	1.377572E-02	8.252582E-04
4.150198E+03	1.363320E-02	8.120192E-04
4.160079E+03	1.349440E-02	7.991086E-04
4.169960E+03	1.335940E-02	7.865285E-04
4.179842E+03	1.322861E-02	7.742988E-04
4.189723E+03	1.310210E-02	7.624195E-04
4.199605E+03	1.298033E-02	7.509135E-04
4.209486E+03	1.286346E-02	7.397848E-04
4.219368E+03	1.275170E-02	7.290416E-04
4.229249E+03	1.264527E-02	7.186916E-04
4.239130E+03	1.254459E-02	7.087526E-04
4.249012E+03	1.244994E-02	6.992354E-04
4.258893E+03	1.236150E-02	6.901446E-04
4.268775E+03	1.227964E-02	6.814943E-04
4.278656E+03	1.220462E-02	6.732930E-04
4.288538E+03	1.213679E-02	6.655532E-04
4.298419E+03	1.207649E-02	6.582870E-04
4.308300E+03	1.202386E-02	6.514951E-04
4.318182E+03	1.197894E-02	6.451724E-04
4.328063E+03	1.194137E-02	6.392930E-04
4.337945E+03	1.191118E-02	6.338519E-04
4.347826E+03	1.188802E-02	6.288237E-04
4.357708E+03	1.187191E-02	6.242031E-04
4.367589E+03	1.186253E-02	6.199684E-04
4.377470E+03	1.185979E-02	6.161071E-04
4.387352E+03	1.186352E-02	6.126054E-04
4.397233E+03	1.187356E-02	6.094492E-04
4.407115E+03	1.188973E-02	6.066235E-04
4.416996E+03	1.191193E-02	6.041179E-04
4.426877E+03	1.194015E-02	6.019263E-04
4.436759E+03	1.197395E-02	6.000225E-04
4.446640E+03	1.201341E-02	5.984048E-04
4.456522E+03	1.205836E-02	5.970610E-04
4.466403E+03	1.210855E-02	5.959742E-04
4.476285E+03	1.216391E-02	5.951370E-04
4.486166E+03	1.222426E-02	5.945365E-04
4.496047E+03	1.228953E-02	5.941656E-04
4.505929E+03	1.235942E-02	5.940066E-04
4.515810E+03	1.243394E-02	5.940568E-04
4.525692E+03	1.251279E-02	5.942986E-04
4.535573E+03	1.259597E-02	5.947296E-04
4.545455E+03	1.268305E-02	5.953268E-04
4.555336E+03	1.277415E-02	5.960929E-04
4.565217E+03	1.286882E-02	5.970051E-04
4.575099E+03	1.296692E-02	5.980556E-04
4.584980E+03	1.306833E-02	5.992369E-04
4.594862E+03	1.317281E-02	6.005361E-04
4.604743E+03	1.327996E-02	6.019347E-04
4.614625E+03	1.338975E-02	6.034300E-04
4.624506E+03	1.350166E-02	6.049981E-04
4.634387E+03	1.361574E-02	6.066407E-04
4.644269E+03	1.373132E-02	6.083281E-04
4.654150E+03	1.384830E-02	6.100563E-04
4.664032E+03	1.396632E-02	6.118103E-04
4.673913E+03	1.408503E-02	6.135749E-04
4.683794E+03	1.420403E-02	6.153342E-04
4.693676E+03	1.432305E-02	6.170775E-04
4.703557E+03	1.444164E-02	6.187883E-04
4.713439E+03	1.455937E-02	6.204495E-04
4.723320E+03	1.467592E-02	6.220497E-04
4.733202E+03	1.479081E-02	6.235717E-04
4.743083E+03	1.490358E-02	6.249984E-04
4.752964E+03	1.501374E-02	6.263136E-04
4.762846E+03	1.512085E-02	6.275012E-04
4.772727E+03	1.522457E-02	6.285523E-04
4.782609E+03	1.532435E-02	6.294477E-04
4.792490E+03	1.541997E-02	6.301821E-04
4.802372E+03	1.551092E-02	6.307401E-04
4.812253E+03	1.559716E-02	6.311240E-04
4.822134E+03	1.567859E-02	6.313344E-04
4.832016E+03	1.575502E-02	6.313685E-04
4.841897E+03	1.582662E-02	6.312374E-04
4.851779E+03	1.589332E-02	6.309423E-04
4.861660E+03	1.595552E-02	6.305019E-04
4.871542E+03	1.601310E-02	6.299137E-04
4.881423E+03	1.606639E-02	6.291930E-04
4.891304E+03	1.611562E-02	6.283501E-04
4.901186E+03	1.616102E-02	6.273962E-04
4.911067E+03	1.620285E-02	6.263427E-04
4.920949E+03	1.624124E-02	6.251959E-04
4.930830E+03	1.627678E-02	6.239794E-04
4.940711E+03	1.630947E-02	6.226940E-04
4.950593E+03	1.633976E-02	6.213581E-04
4.960474E+03	1.636798E-02	6.199842E-04
4.970356E+03	1.639444E-02	6.185848E-04
4.980237E+03	1.641948E-02	6.171723E-04
4.990119E+03	1.644325E-02	6.157532E-04
5.000000E+03	1.646625E-02	6.143454E-04
5.009881E+03	1.648879E-02	6.129605E-04
5.019763E+03	1.651102E-02	6.116041E-04
5.029644E+03	1.653342E-02	6.102927E-04
5.039526E+03	1.655610E-02	6.090307E-04
5.049407E+03	1.657952E-02	6.078336E-04
5.059289E+03	1.660376E-02	6.067045E-04
5.069170E+03	1.662924E-02	6.056573E-04
5.079051E+03	1.665585E-02	6.046877E-04
5.088933E+03	1.668411E-02	6.038136E-04
5.098814E+03	1.671387E-02	6.030289E-04
5.108696E+03	1.674561E-02	6.023498E-04
5.118577E+03	1.677912E-02	6.017684E-04
5.128458E+03	1.681466E-02	6.012932E-04
5.138340E+03	1.685215E-02	6.009202E-04
5.148221E+03	1.689179E-02	6.006563E-04
5.158103E+03	1.693361E-02	6.005019E-04
5.167984E+03	1.697727E-02	6.004447E-04
5.177866E+03	1.702311E-02	6.004953E-04
5.187747E+03	1.707089E-02	6.006460E-04
5.197628E+03	1.712040E-02	6.008884E-04
5.207510E+03	1.717172E-02	6.012250E-04
5.217391E+03	1.722474E-02	6.016521E-04
5.227273E+03	1.727932E-02	6.021650E-04
5.237154E+03	1.733500E-02	6.027469E-04
5.247036E+03	1.739191E-02	6.034035E-04
5.256917E+03	1.744972E-02	6.041224E-04
5.266798E+03	1.750818E-02	6.048965E-04
5.276680E+03	1.756691E-02	6.057120E-04
5.286561E+03	1.762581E-02	6.065666E-04
5.296443E+03	1.768443E-02	6.074454E-04
5.306324E+03	1.774265E-02	6.083447E-04
5.316206E+03	1.779981E-02	6.092426E-04
5.326087E+03	1.785574E-02	6.101347E-04
5.335968E+03	1.791010E-02	6.110100E-04
5.345850E+03	1.796237E-02	6.118512E-04
5.355731E+03	1.801214E-02	6.126452E-04
5.365613E+03	1.805923E-02	6.133839E-04
5.375494E+03	1.810270E-02	6.140354E-04
5.385375E+03	1.814239E-02	6.145926E-04
5.395257E+03	1.817776E-02	6.150369E-04
5.405138E+03	1.820833E-02	6.153511E-04
5.415020E+03	1.823383E-02	6.155250E-04
5.424901E+03	1.825439E-02	6.155629E-04
5.434783E+03	1.826949E-02	6.154454E-04
5.444664E+03	1.827899E-02	6.151680E-04
5.454545E+03	1.828305E-02	6.147344E-04
5.464427E+03	1.828129E-02	6.141317E-04
5.474308E+03	1.827400E-02	6.133681E-04
5.484190E+03	1.826133E-02	6.124485E-04
5.494071E+03	1.824352E-02	6.113797E-04
5.503953E+03	1.822069E-02	6.101651E-04
5.513834E+03	1.819322E-02	6.088165E-04
5.523715E+03	1.816155E-02	6.073480E-04
5.533597E+03	1.812638E-02	6.057818E-04
5.543478E+03	1.808789E-02	6.041234E-04
5.553360E+03	1.804706E-02	6.024045E-04
5.563241E+03	1.800414E-02	6.006328E-04
5.573123E+03	1.795980E-02	5.988299E-04
5.583004E+03	1.791508E-02	5.970300E-04
5.592885E+03	1.787029E-02	5.952422E-04
5.602767E+03	1.782628E-02	5.934947E-04
5.612648E+03	1.778353E-02	5.918021E-04
5.622530E+03	1.774263E-02	5.901841E-04
5.632411E+03	1.770436E-02	5.886657E-04
5.642292E+03	1.766921E-02	5.872632E-04
5.652174E+03	1.763744E-02	5.859843E-04
5.662055E+03	1.760940E-02	5.848402E-04
5.671937E+03	1.758552E-02	5.838455E-04
5.681818E+03	1.756576E-02	5.829981E-04
5.691700E+03	1.755035E-02	5.823054E-04
5.701581E+03	1.753919E-02	5.817642E-04
5.711462E+03	1.753188E-02	5.813614E-04
5.721344E+03	1.752829E-02	5.810925E-04
5.731225E+03	1.752798E-02	5.809433E-04
5.741107E+03	1.753042E-02	5.808963E-04
5.750988E+03	1.753499E-02	5.809309E-04
5.760870E+03	1.754096E-02	5.810241E-04
5.770751E+03	1.754755E-02	5.811504E-04
5.780632E+03	1.755415E-02	5.812895E-04
5.790514E+03	1.755966E-02	5.814063E-04
5.800395E+03	1.756338E-02	5.814782E-04
5.810277E+03	1.756439E-02	5.814754E-04
5.820158E+03	1.756177E-02	5.813680E-04
5.830040E+03	1.755480E-02	5.811339E-04
5.839921E+03	1.754222E-02	5.807310E-04
5.849802E+03	1.752377E-02	5.801527E-04
5.859684E+03	1.749849E-02	5.793675E-04
5.869565E+03	1.746544E-02	5.783457E-04
5.879447E+03	1.742463E-02	5.770880E-04
5.889328E+03	1.737510E-02	5.755637E-04
5.899209E+03	1.731662E-02	5.737661E-04
5.909091E+03	1.724908E-02	5.716920E-04
5.918972E+03	1.717224E-02	5.693346E-04
5.928854E+03	1.708599E-02	5.666905E-04
5.938735E+03	1.699032E-02	5.637601E-04
5.948617E+03	1.688572E-02	5.605601E-04
5.958498E+03	1.677217E-02	5.570900E-04
5.968379E+03	1.665012E-02	5.533656E-04
5.978261E+03	1.652013E-02	5.494050E-04
5.988142E+03	1.638259E-02	5.452219E-04
5.998024E+03	1.623819E-02	5.408389E-04
6.007905E+03	1.608765E-02	5.362801E-04
6.017787E+03	1.593135E-02	5.315577E-04
6.027668E+03	1.577050E-02	5.267125E-04
6.037549E+03	1.560555E-02	5.217591E-04
6.047431E+03	1.543778E-02	5.167401E-04
6.057312E+03	1.526790E-02	5.116786E-04
6.067194E+03	1.509682E-02	5.066051E-04
6.077075E+03	1.492547E-02	5.015507E-04
6.086957E+03	1.475518E-02	4.965599E-04
6.096838E+03	1.458650E-02	4.916511E-04
6.106719E+03	1.442019E-02	4.868496E-04
6.116601E+03	1.425641E-02	4.821590E-04
6.126482E+03	1.409592E-02	4.776027E-04
6.136364E+03	1.393959E-02	4.732078E-04
6.146245E+03	1.378826E-02	4.690011E-04
6.156126E+03	1.364259E-02	4.650031E-04
6.166008E+03	1.350394E-02	4.612595E-04
6.175889E+03	1.337289E-02	4.577887E-04
6.185771E+03	1.325033E-02	4.546211E-04
6.195652E+03	1.313729E-02	4.517916E-04
6.205534E+03	1.303416E-02	4.493137E-04
6.215415E+03	1.294199E-02	4.472247E-04
6.225296E+03	1.286103E-02	4.455338E-04
6.235178E+03	1.279198E-02	4.442668E-04
6.245059E+03	1.273510E-02	4.434338E-04
6.254941E+03	1.269073E-02	4.430484E-04
6.264822E+03	1.265908E-02	4.431208E-04
6.274704E+03	1.264032E-02	4.436581E-04
6.284585E+03	1.263445E-02	4.446638E-04
6.294466E+03	1.264124E-02	4.461315E-04
6.304348E+03	1.266052E-02	4.480581E-04
6.314229E+03	1.269184E-02	4.504307E-04
6.324111E+03	1.273507E-02	4.532466E-04
6.333992E+03	1.278980E-02	4.564945E-04
6.343874E+03	1.285558E-02	4.601604E-04
6.353755E+03	1.293168E-02	4.642214E-04
6.363636E+03	1.301776E-02	4.686670E-04
6.373518E+03	1.311341E-02	4.734853E-04
6.383399E+03	1.321762E-02	4.786418E-04
6.393281E+03	1.333014E-02	4.841297E-04
6.403162E+03	1.345012E-02	4.899195E-04
6.413043E+03	1.357665E-02	4.959803E-04
6.422925E+03	1.370925E-02	5.022954E-04
6.432806E+03	1.384720E-02	5.088401E-04
6.442688E+03	1.398934E-02	5.155724E-04
6.452569E+03	1.413511E-02	5.224729E-04
6.462451E+03	1.428375E-02	5.295135E-04
6.472332E+03	1.443446E-02	5.366651E-04
6.482213E+03	1.458596E-02	5.438803E-04
6.492095E+03	1.473788E-02	5.511444E-04
6.501976E+03	1.488889E-02	5.584074E-04
6.511858E+03	1.503834E-02	5.656443E-04
6.521739E+03	1.518512E-02	5.728118E-04
6.531621E+03	1.532833E-02	5.798750E-04
6.541502E+03	1.546734E-02	5.868080E-04
6.551383E+03	1.560105E-02	5.935669E-04
6.561265E+03	1.572834E-02	6.001079E-04
6.571146E+03	1.584894E-02	6.064173E-04
6.581028E+03	1.596157E-02	6.124440E-04
6.590909E+03	1.606553E-02	6.181579E-04
6.600791E+03	1.616072E-02	6.235522E-04
6.610672E+03	1.624604E-02	6.285817E-04
6.620553E+03	1.632130E-02	6.332349E-04
6.630435E+03	1.638583E-02	6.374828E-04
6.640316E+03	1.643960E-02	6.413204E-04
6.650198E+03	1.648214E-02	6.447248E-04
6.660079E+03	1.651359E-02	6.476984E-04
6.669960E+03	1.653364E-02	6.502245E-04
6.679842E+03	1.654262E-02	6.523126E-04
6.689723E+03	1.654037E-02	6.539526E-04
6.699605E+03	1.652737E-02	6.551602E-04
6.709486E+03	1.650393E-02	6.559434E-04
6.719368E+03	1.647009E-02	6.563013E-04
6.729249E+03	1.642655E-02	6.562585E-04
6.739130E+03	1.637350E-02	6.558193E-04
6.749012E+03	1.631174E-02	6.550136E-04
6.758893E+03	1.624184E-02	6.538615E-04
6.768775E+03	1.616413E-02	6.523735E-04
6.778656E+03	1.607951E-02	6.505847E-04
6.788538E+03	1.598864E-02	6.485200E-04
6.798419E+03	1.589223E-02	6.462061E-04
6.808300E+03	1.579073E-02	6.436608E-04
6.818182E+03	1.568547E-02	6.409368E-04
6.828063E+03	1.557661E-02	6.380397E-04
6.837945E+03	1.546512E-02	6.350094E-04
6.847826E+03	1.535166E-02	6.318728E-04
6.857708E+03	1.523686E-02	6.286552E-04
6.867589E+03	1.512128E-02	6.253804E-04
6.877470E+03	1.500545E-02	6.220702E-04
6.887352E+03	1.488982E-02	6.187444E-04
6.897233E+03	1.477509E-02	6.154324E-04
6.907115E+03	1.466105E-02	6.121264E-04
6.916996E+03	1.454856E-02	6.088634E-04
6.926877E+03	1.443760E-02	6.056435E-04
6.936759E+03	1.432838E-02	6.024767E-04
6.946640E+03	1.422107E-02	5.993714E-04
6.956522E+03	1.411607E-02	5.963458E-04
6.966403E+03	1.401322E-02	5.933940E-04
6.976285E+03	1.391285E-02	5.905319E-04
6.986166E+03	1.381474E-02	5.877513E-04
6.996047E+03	1.371919E-02	5.850665E-04
7.005929E+03	1.362594E-02	5.824675E-04
7.015810E+03	1.353523E-02	5.799669E-04
7.025692E+03	1.344706E-02	5.775653E-04
7.035573E+03	1.336139E-02	5.752627E-04
7.045455E+03	1.327817E-02	5.730585E-04
7.055336E+03	1.319706E-02	5.709401E-04
7.065217E+03	1.311855E-02	5.689292E-04
7.075099E+03	1.304228E-02	5.670123E-04
7.084980E+03	1.296817E-02	5.651873E-04
7.094862E+03	1.289612E-02	5.634515E-04
7.104743E+03	1.282631E-02	5.618137E-04
7.114625E+03	1.275862E-02	5.602707E-04
7.124506E+03	1.269269E-02	5.588074E-04
7.134387E+03	1.262865E-02	5.574317E-04
7.144269E+03	1.256611E-02	5.561279E-04
7.154150E+03	1.250549E-02	5.549150E-04
7.164032E+03	1.244611E-02	5.537652E-04
7.173913E+03	1.238837E-02	5.526968E-04
7.183794E+03	1.233159E-02	5.516811E-04
7.193676E+03	1.227614E-02	5.507361E-04
7.203557E+03	1.222160E-02	5.498440E-04
7.213439E+03	1.216781E-02	5.489985E-04
7.223320E+03	1.211460E-02	5.481932E-04
7.233202E+03	1.206179E-02	5.474211E-04
7.243083E+03	1.200922E-02	5.466751E-04
7.252964E+03	1.195643E-02	5.459362E-04
7.262846E+03	1.190326E-02	5.451967E-04
7.272727E+03	1.184954E-02	5.444495E-04
7.282609E+03	1.179508E-02	5.436871E-04
7.292490E+03	1.173895E-02	5.428656E-04
7.302372E+03	1.168150E-02	5.420022E-04
7.312253E+03	1.162179E-02	5.410526E-04
7.322134E+03	1.155970E-02	5.400102E-04
7.332016E+03	1.149481E-02	5.388559E-04
7.341897E+03	1.142702E-02	5.375830E-04
7.351779E+03	1.135596E-02	5.361731E-04
7.361660E+03	1.128259E-02	5.346705E-04
7.371542E+03	1.120655E-02	5.330576E-04
7.381423E+03	1.112806E-02	5.313429E-04
7.391304E+03	1.104758E-02	5.295473E-04
7.401186E+03	1.096506E-02	5.276682E-04
7.411067E+03	1.088075E-02	5.257153E-04
7.420949E+03	1.079464E-02	5.236874E-04
7.430830E+03	1.070672E-02	5.215831E-04
7.440711E+03	1.061754E-02	5.194260E-04
7.450593E+03	1.052660E-02	5.171896E-04
7.460474E+03	1.043449E-02	5.148989E-04
7.470356E+03	1.034099E-02	5.125415E-04
7.480237E+03	1.024594E-02	5.101060E-04
7.490119E+03	1.014993E-02	5.076193E-04
7.500000E+03	1.005281E-02	5.050716E-04
7.509881E+03	9.954702E-03	5.024659E-04
7.519763E+03	9.855476E-03	4.997933E-04
7.529644E+03	9.755769E-03	4.970837E-04
7.539526E+03	9.655221E-03	4.943164E-04
7.549407E+03	9.553982E-03	4.914969E-04
7.559289E+03	9.452461E-03	4.886440E-04
7.569170E+03	9.350836E-03	4.857649E-04
7.579051E+03	9.249044E-03	4.828547E-04
7.588933E+03	9.147504E-03	4.799334E-04
7.598814E+03	9.046140E-03	4.769957E-04
7.608696E+03	8.945110E-03	4.740485E-04
7.618577E+03	8.844801E-03	4.711111E-04
7.628458E+03	8.745110E-03	4.681771E-04
7.638340E+03	8.646396E-03	4.652647E-04
7.648221E+03	8.548545E-03	4.623672E-04
7.658103E+03	8.451888E-03	4.595019E-04
7.667984E+03	8.356517E-03	4.566736E-04
