#wls	flux	fluxerr
1.581028E+03	2.200753E-04	1.988646E-05
1.620553E+03	2.214276E-04	1.999151E-05
1.660079E+03	2.228235E-04	2.009989E-05
1.699605E+03	2.242622E-04	2.021147E-05
1.739130E+03	2.258309E-04	2.033409E-05
1.778656E+03	2.274862E-04	2.046379E-05
1.818182E+03	2.292730E-04	2.060456E-05
1.857708E+03	2.311468E-04	2.075235E-05
1.897233E+03	2.331524E-04	2.091114E-05
1.936759E+03	2.352907E-04	2.108095E-05
1.976285E+03	2.376073E-04	2.126578E-05
2.015810E+03	2.401037E-04	2.146572E-05
2.055336E+03	2.427804E-04	2.168070E-05
2.094862E+03	2.456379E-04	2.191071E-05
2.134387E+03	2.486771E-04	2.215572E-05
2.173913E+03	2.519920E-04	2.242401E-05
2.213439E+03	2.554893E-04	2.270716E-05
2.252964E+03	2.592162E-04	2.300927E-05
2.292490E+03	2.632207E-04	2.333446E-05
2.332016E+03	2.674547E-04	2.367835E-05
2.371542E+03	2.719173E-04	2.404072E-05
2.411067E+03	2.766561E-04	2.442564E-05
2.450593E+03	2.816209E-04	2.482852E-05
2.490119E+03	2.868588E-04	2.525337E-05
2.529644E+03	2.923674E-04	2.569983E-05
2.569170E+03	2.980946E-04	2.616313E-05
2.608696E+03	3.041366E-04	2.665155E-05
2.648221E+03	3.104899E-04	2.716460E-05
2.687747E+03	3.171007E-04	2.769734E-05
2.727273E+03	3.240144E-04	2.825357E-05
2.766798E+03	3.312767E-04	2.883703E-05
2.806324E+03	3.388827E-04	2.944705E-05
2.845850E+03	3.469279E-04	3.009166E-05
2.885375E+03	3.554067E-04	3.077006E-05
2.924901E+03	3.644658E-04	3.149463E-05
2.964427E+03	3.740986E-04	3.226438E-05
2.974308E+03	3.766451E-04	3.246802E-05
2.984190E+03	3.791854E-04	3.267083E-05
2.994071E+03	3.818213E-04	3.288157E-05
3.003953E+03	3.845022E-04	3.309587E-05
3.013834E+03	3.872273E-04	3.331365E-05
3.023715E+03	3.899969E-04	3.353494E-05
3.033597E+03	3.928619E-04	3.376408E-05
3.043478E+03	3.957710E-04	3.399668E-05
3.053360E+03	3.987239E-04	3.423268E-05
3.063241E+03	4.017208E-04	3.447211E-05
3.073123E+03	4.048636E-04	3.472369E-05
3.083004E+03	4.079988E-04	3.497424E-05
3.092885E+03	4.112794E-04	3.523687E-05
3.102767E+03	4.145523E-04	3.549845E-05
3.112648E+03	4.179705E-04	3.577206E-05
3.122530E+03	4.214315E-04	3.604892E-05
3.132411E+03	4.250374E-04	3.633775E-05
3.142292E+03	4.286859E-04	3.662979E-05
3.152174E+03	4.324279E-04	3.692937E-05
3.162055E+03	4.362628E-04	3.723642E-05
3.171937E+03	4.402422E-04	3.755533E-05
3.181818E+03	4.442631E-04	3.787731E-05
3.191700E+03	4.484275E-04	3.821101E-05
3.201581E+03	4.527355E-04	3.855644E-05
3.211462E+03	4.571356E-04	3.890918E-05
3.221344E+03	4.616275E-04	3.926919E-05
3.231225E+03	4.662620E-04	3.964078E-05
3.241107E+03	4.710390E-04	4.002391E-05
3.250988E+03	4.759068E-04	4.041416E-05
3.260870E+03	4.809675E-04	4.082019E-05
3.270751E+03	4.861694E-04	4.123757E-05
3.280632E+03	4.914618E-04	4.166198E-05
3.290514E+03	4.969966E-04	4.210628E-05
3.300395E+03	5.026208E-04	4.255747E-05
3.310277E+03	5.084363E-04	4.302415E-05
3.320158E+03	5.143914E-04	4.350191E-05
3.330040E+03	5.205874E-04	4.399930E-05
3.339921E+03	5.269223E-04	4.450764E-05
3.349802E+03	5.334466E-04	4.503119E-05
3.359684E+03	5.401598E-04	4.556986E-05
3.369565E+03	5.470615E-04	4.612358E-05
3.379447E+03	5.542020E-04	4.669656E-05
3.389328E+03	5.615297E-04	4.728442E-05
3.399209E+03	5.690953E-04	4.789136E-05
3.409091E+03	5.768981E-04	4.851731E-05
3.418972E+03	5.848867E-04	4.915789E-05
3.428854E+03	5.931622E-04	4.982155E-05
3.438735E+03	6.016728E-04	5.050390E-05
3.448617E+03	6.104186E-04	5.120489E-05
3.458498E+03	6.193986E-04	5.192441E-05
3.468379E+03	6.286629E-04	5.266660E-05
3.478261E+03	6.382106E-04	5.343133E-05
3.488142E+03	6.480412E-04	5.421850E-05
3.498024E+03	6.581543E-04	5.502802E-05
3.507905E+03	6.685988E-04	5.586393E-05
3.517787E+03	6.792740E-04	5.671775E-05
3.527668E+03	6.902796E-04	5.759775E-05
3.537549E+03	7.016150E-04	5.850382E-05
3.547431E+03	7.132792E-04	5.943581E-05
3.557312E+03	7.252716E-04	6.039360E-05
3.567194E+03	7.375912E-04	6.137705E-05
3.577075E+03	7.502878E-04	6.239022E-05
3.586957E+03	7.633101E-04	6.342877E-05
3.596838E+03	7.767075E-04	6.449675E-05
3.606719E+03	7.904791E-04	6.559399E-05
3.616601E+03	8.045741E-04	6.671621E-05
3.626482E+03	8.190918E-04	6.787157E-05
3.636364E+03	8.340312E-04	6.905990E-05
3.646245E+03	8.492915E-04	7.027276E-05
3.656126E+03	8.650220E-04	7.152244E-05
3.666008E+03	8.811215E-04	7.280047E-05
3.675889E+03	8.976892E-04	7.411496E-05
3.685771E+03	9.146246E-04	7.545752E-05
3.695652E+03	9.320262E-04	7.683619E-05
3.705534E+03	9.498436E-04	7.824671E-05
3.715415E+03	9.681256E-04	7.969301E-05
3.725296E+03	9.868714E-04	8.117493E-05
3.735178E+03	1.006031E-03	8.268821E-05
3.745059E+03	1.025701E-03	8.424083E-05
3.754941E+03	1.045784E-03	8.582449E-05
3.764822E+03	1.066376E-03	8.744713E-05
3.774704E+03	1.087429E-03	8.910454E-05
3.784585E+03	1.108990E-03	9.080059E-05
3.794466E+03	1.131058E-03	9.253511E-05
3.804348E+03	1.153585E-03	9.430388E-05
3.814229E+03	1.176617E-03	9.611074E-05
3.824111E+03	1.200155E-03	9.795556E-05
3.833992E+03	1.224148E-03	9.983414E-05
3.843874E+03	1.248696E-03	1.017543E-04
3.853755E+03	1.273746E-03	1.037119E-04
3.863636E+03	1.299349E-03	1.057108E-04
3.873518E+03	1.325406E-03	1.077428E-04
3.883399E+03	1.352013E-03	1.098156E-04
3.893281E+03	1.379122E-03	1.119252E-04
3.903162E+03	1.406732E-03	1.140714E-04
3.913043E+03	1.434892E-03	1.162580E-04
3.922925E+03	1.463552E-03	1.184809E-04
3.932806E+03	1.492711E-03	1.207399E-04
3.942688E+03	1.522419E-03	1.230387E-04
3.952569E+03	1.552577E-03	1.253694E-04
3.962451E+03	1.583283E-03	1.277396E-04
3.972332E+03	1.614487E-03	1.301454E-04
3.982213E+03	1.646140E-03	1.325825E-04
3.992095E+03	1.678340E-03	1.350587E-04
4.001976E+03	1.710989E-03	1.375659E-04
4.011858E+03	1.744135E-03	1.401080E-04
4.021739E+03	1.777729E-03	1.426809E-04
4.031621E+03	1.811772E-03	1.452845E-04
4.041502E+03	1.846262E-03	1.479185E-04
4.051383E+03	1.881200E-03	1.505829E-04
4.061265E+03	1.916537E-03	1.532736E-04
4.071146E+03	1.952272E-03	1.559905E-04
4.081028E+03	1.988406E-03	1.587335E-04
4.090909E+03	2.024937E-03	1.615023E-04
4.100791E+03	2.061817E-03	1.642930E-04
4.110672E+03	2.098998E-03	1.671016E-04
4.120553E+03	2.136527E-03	1.699318E-04
4.130435E+03	2.174307E-03	1.727757E-04
4.140316E+03	2.212386E-03	1.756372E-04
4.150198E+03	2.250714E-03	1.785121E-04
4.160079E+03	2.289244E-03	1.813965E-04
4.169960E+03	2.327973E-03	1.842904E-04
4.179842E+03	2.366854E-03	1.871896E-04
4.189723E+03	2.405837E-03	1.900904E-04
4.199605E+03	2.444969E-03	1.929963E-04
4.209486E+03	2.484153E-03	1.958996E-04
4.219368E+03	2.523387E-03	1.988001E-04
4.229249E+03	2.562574E-03	2.016901E-04
4.239130E+03	2.601761E-03	2.045734E-04
4.249012E+03	2.640849E-03	2.074420E-04
4.258893E+03	2.679837E-03	2.102960E-04
4.268775E+03	2.718675E-03	2.131312E-04
4.278656E+03	2.757267E-03	2.159404E-04
4.288538E+03	2.795608E-03	2.187230E-04
4.298419E+03	2.833694E-03	2.214789E-04
4.308300E+03	2.871433E-03	2.242009E-04
4.318182E+03	2.908772E-03	2.268847E-04
4.328063E+03	2.945659E-03	2.295265E-04
4.337945E+03	2.982042E-03	2.321225E-04
4.347826E+03	3.017922E-03	2.346725E-04
4.357708E+03	3.053200E-03	2.371691E-04
4.367589E+03	3.087823E-03	2.396083E-04
4.377470E+03	3.121791E-03	2.419903E-04
4.387352E+03	3.155002E-03	2.443071E-04
4.397233E+03	3.187501E-03	2.465626E-04
4.407115E+03	3.219190E-03	2.487493E-04
4.416996E+03	3.250112E-03	2.508706E-04
4.426877E+03	3.280216E-03	2.529228E-04
4.436759E+03	3.309497E-03	2.549057E-04
4.446640E+03	3.337953E-03	2.568193E-04
4.456522E+03	3.365626E-03	2.586671E-04
4.466403E+03	3.392416E-03	2.604415E-04
4.476285E+03	3.418414E-03	2.621497E-04
4.486166E+03	3.443569E-03	2.637880E-04
4.496047E+03	3.467923E-03	2.653598E-04
4.505929E+03	3.491473E-03	2.668652E-04
4.515810E+03	3.514211E-03	2.683035E-04
4.525692E+03	3.536136E-03	2.696750E-04
4.535573E+03	3.557292E-03	2.709831E-04
4.545455E+03	3.577670E-03	2.722275E-04
4.555336E+03	3.597272E-03	2.734084E-04
4.565217E+03	3.616087E-03	2.745253E-04
4.575099E+03	3.634208E-03	2.755853E-04
4.584980E+03	3.651540E-03	2.765814E-04
4.594862E+03	3.668168E-03	2.775202E-04
4.604743E+03	3.684092E-03	2.784020E-04
4.614625E+03	3.699306E-03	2.792265E-04
4.624506E+03	3.713809E-03	2.799937E-04
4.634387E+03	3.727597E-03	2.807036E-04
4.644269E+03	3.740760E-03	2.813630E-04
4.654150E+03	3.753201E-03	2.819649E-04
4.664032E+03	3.765017E-03	2.825168E-04
4.673913E+03	3.776104E-03	2.830110E-04
4.683794E+03	3.786605E-03	2.834584E-04
4.693676E+03	3.796425E-03	2.838520E-04
4.703557E+03	3.805565E-03	2.841922E-04
4.713439E+03	3.814065E-03	2.844821E-04
4.723320E+03	3.821975E-03	2.847256E-04
4.733202E+03	3.829245E-03	2.849191E-04
4.743083E+03	3.835878E-03	2.850631E-04
4.752964E+03	3.841964E-03	2.851643E-04
4.762846E+03	3.847503E-03	2.852230E-04
4.772727E+03	3.852449E-03	2.852359E-04
4.782609E+03	3.856898E-03	2.852104E-04
4.792490E+03	3.860845E-03	2.851460E-04
4.802372E+03	3.864295E-03	2.850434E-04
4.812253E+03	3.867293E-03	2.849060E-04
4.822134E+03	3.869840E-03	2.847340E-04
4.832016E+03	3.871983E-03	2.845311E-04
4.841897E+03	3.873675E-03	2.842938E-04
4.851779E+03	3.875015E-03	2.840296E-04
4.861660E+03	3.875952E-03	2.837350E-04
4.871542E+03	3.876495E-03	2.834105E-04
4.881423E+03	3.876733E-03	2.830628E-04
4.891304E+03	3.876579E-03	2.826858E-04
4.901186E+03	3.876124E-03	2.822862E-04
4.911067E+03	3.875372E-03	2.818642E-04
4.920949E+03	3.874285E-03	2.814174E-04
4.930830E+03	3.872905E-03	2.809487E-04
4.940711E+03	3.871242E-03	2.804591E-04
4.950593E+03	3.869298E-03	2.799488E-04
4.960474E+03	3.867118E-03	2.794211E-04
4.970356E+03	3.864668E-03	2.788737E-04
4.980237E+03	3.861949E-03	2.783067E-04
4.990119E+03	3.859056E-03	2.777270E-04
5.000000E+03	3.855863E-03	2.771256E-04
5.009881E+03	3.852503E-03	2.765123E-04
5.019763E+03	3.848942E-03	2.758845E-04
5.029644E+03	3.845142E-03	2.752398E-04
5.039526E+03	3.841153E-03	2.745816E-04
5.049407E+03	3.837023E-03	2.739136E-04
5.059289E+03	3.832674E-03	2.732302E-04
5.069170E+03	3.828154E-03	2.725349E-04
5.079051E+03	3.823513E-03	2.718314E-04
5.088933E+03	3.818676E-03	2.711143E-04
5.098814E+03	3.813732E-03	2.703901E-04
5.108696E+03	3.808649E-03	2.696565E-04
5.118577E+03	3.803430E-03	2.689138E-04
5.128458E+03	3.798088E-03	2.681630E-04
5.138340E+03	3.792625E-03	2.674042E-04
5.148221E+03	3.787096E-03	2.666415E-04
5.158103E+03	3.781424E-03	2.658694E-04
5.167984E+03	3.775702E-03	2.650944E-04
5.177866E+03	3.769891E-03	2.643140E-04
5.187747E+03	3.764004E-03	2.635291E-04
5.197628E+03	3.758008E-03	2.627374E-04
5.207510E+03	3.751992E-03	2.619451E-04
5.217391E+03	3.745923E-03	2.611500E-04
5.227273E+03	3.739812E-03	2.603529E-04
5.237154E+03	3.733623E-03	2.595514E-04
5.247036E+03	3.727411E-03	2.587492E-04
5.256917E+03	3.721214E-03	2.579491E-04
5.266798E+03	3.714969E-03	2.571467E-04
5.276680E+03	3.708681E-03	2.563424E-04
5.286561E+03	3.702399E-03	2.555396E-04
5.296443E+03	3.696131E-03	2.547389E-04
5.306324E+03	3.689881E-03	2.539405E-04
5.316206E+03	3.683587E-03	2.531403E-04
5.326087E+03	3.677329E-03	2.523437E-04
5.335968E+03	3.671111E-03	2.515511E-04
5.345850E+03	3.664909E-03	2.507608E-04
5.355731E+03	3.658693E-03	2.499707E-04
5.365613E+03	3.652540E-03	2.491862E-04
5.375494E+03	3.646423E-03	2.484054E-04
5.385375E+03	3.640346E-03	2.476286E-04
5.395257E+03	3.634279E-03	2.468538E-04
5.405138E+03	3.628270E-03	2.460843E-04
5.415020E+03	3.622286E-03	2.453177E-04
5.424901E+03	3.616370E-03	2.445570E-04
5.434783E+03	3.610525E-03	2.438026E-04
5.444664E+03	3.604724E-03	2.430525E-04
5.454545E+03	3.598976E-03	2.423073E-04
5.464427E+03	3.593318E-03	2.415696E-04
5.474308E+03	3.587758E-03	2.408397E-04
5.484190E+03	3.582264E-03	2.401158E-04
5.494071E+03	3.576841E-03	2.393981E-04
5.503953E+03	3.571570E-03	2.386918E-04
5.513834E+03	3.566378E-03	2.379924E-04
5.523715E+03	3.561313E-03	2.373027E-04
5.533597E+03	3.556375E-03	2.366231E-04
5.543478E+03	3.551533E-03	2.359512E-04
5.553360E+03	3.546865E-03	2.352923E-04
5.563241E+03	3.542337E-03	2.346441E-04
5.573123E+03	3.537958E-03	2.340072E-04
5.583004E+03	3.533725E-03	2.333814E-04
5.592885E+03	3.529647E-03	2.327673E-04
5.602767E+03	3.525730E-03	2.321652E-04
5.612648E+03	3.521972E-03	2.315750E-04
5.622530E+03	3.518349E-03	2.309952E-04
5.632411E+03	3.514927E-03	2.304299E-04
5.642292E+03	3.511644E-03	2.298752E-04
5.652174E+03	3.508537E-03	2.293335E-04
5.662055E+03	3.505579E-03	2.288029E-04
5.671937E+03	3.502805E-03	2.282858E-04
5.681818E+03	3.500182E-03	2.277800E-04
5.691700E+03	3.497716E-03	2.272858E-04
5.701581E+03	3.495448E-03	2.268059E-04
5.711462E+03	3.493339E-03	2.263378E-04
5.721344E+03	3.491365E-03	2.258799E-04
5.731225E+03	3.489560E-03	2.254345E-04
5.741107E+03	3.487928E-03	2.250016E-04
5.750988E+03	3.486439E-03	2.245795E-04
5.760870E+03	3.485131E-03	2.241705E-04
5.770751E+03	3.483970E-03	2.237725E-04
5.780632E+03	3.482930E-03	2.233838E-04
5.790514E+03	3.482078E-03	2.230086E-04
5.800395E+03	3.481381E-03	2.226449E-04
5.810277E+03	3.480814E-03	2.222912E-04
5.820158E+03	3.480378E-03	2.219473E-04
5.830040E+03	3.480109E-03	2.216158E-04
5.839921E+03	3.479980E-03	2.212947E-04
5.849802E+03	3.479986E-03	2.209839E-04
5.859684E+03	3.480135E-03	2.206838E-04
5.869565E+03	3.480397E-03	2.203925E-04
5.879447E+03	3.480806E-03	2.201124E-04
5.889328E+03	3.481367E-03	2.198435E-04
5.899209E+03	3.482044E-03	2.195837E-04
5.909091E+03	3.482814E-03	2.193317E-04
5.918972E+03	3.483773E-03	2.190933E-04
5.928854E+03	3.484822E-03	2.188624E-04
5.938735E+03	3.485970E-03	2.186397E-04
5.948617E+03	3.487280E-03	2.184291E-04
5.958498E+03	3.488721E-03	2.182286E-04
5.968379E+03	3.490264E-03	2.180366E-04
5.978261E+03	3.491906E-03	2.178527E-04
5.988142E+03	3.493719E-03	2.176816E-04
5.998024E+03	3.495602E-03	2.175169E-04
6.007905E+03	3.497621E-03	2.173629E-04
6.017787E+03	3.499776E-03	2.172196E-04
6.027668E+03	3.502004E-03	2.170831E-04
6.037549E+03	3.504365E-03	2.169571E-04
6.047431E+03	3.506795E-03	2.168377E-04
6.057312E+03	3.509327E-03	2.167270E-04
6.067194E+03	3.511922E-03	2.166227E-04
6.077075E+03	3.514545E-03	2.165226E-04
6.086957E+03	3.517192E-03	2.164266E-04
6.096838E+03	3.519862E-03	2.163347E-04
6.106719E+03	3.522478E-03	2.162421E-04
6.116601E+03	3.525071E-03	2.161510E-04
6.126482E+03	3.527601E-03	2.160589E-04
6.136364E+03	3.530163E-03	2.159717E-04
6.146245E+03	3.532717E-03	2.158870E-04
6.156126E+03	3.535316E-03	2.158082E-04
6.166008E+03	3.537958E-03	2.157351E-04
6.175889E+03	3.540631E-03	2.156672E-04
6.185771E+03	3.543358E-03	2.156058E-04
6.195652E+03	3.546127E-03	2.155503E-04
6.205534E+03	3.548928E-03	2.155003E-04
6.215415E+03	3.551750E-03	2.154550E-04
6.225296E+03	3.554648E-03	2.154178E-04
6.235178E+03	3.557539E-03	2.153838E-04
6.245059E+03	3.560479E-03	2.153566E-04
6.254941E+03	3.563420E-03	2.153331E-04
6.264822E+03	3.566385E-03	2.153151E-04
6.274704E+03	3.569389E-03	2.153032E-04
6.284585E+03	3.572349E-03	2.152928E-04
6.294466E+03	3.575321E-03	2.152871E-04
6.304348E+03	3.578251E-03	2.152831E-04
6.314229E+03	3.581193E-03	2.152842E-04
6.324111E+03	3.584096E-03	2.152871E-04
6.333992E+03	3.586982E-03	2.152935E-04
6.343874E+03	3.589792E-03	2.152999E-04
6.353755E+03	3.592545E-03	2.153075E-04
6.363636E+03	3.595263E-03	2.153176E-04
6.373518E+03	3.597884E-03	2.153267E-04
6.383399E+03	3.600398E-03	2.153343E-04
6.393281E+03	3.602857E-03	2.153436E-04
6.403162E+03	3.605162E-03	2.153487E-04
6.413043E+03	3.607340E-03	2.153514E-04
6.422925E+03	3.609402E-03	2.153524E-04
6.432806E+03	3.611333E-03	2.153510E-04
6.442688E+03	3.613112E-03	2.153458E-04
6.452569E+03	3.614684E-03	2.153340E-04
6.462451E+03	3.616138E-03	2.153206E-04
6.472332E+03	3.617346E-03	2.152984E-04
6.482213E+03	3.618402E-03	2.152729E-04
6.492095E+03	3.619209E-03	2.152384E-04
6.501976E+03	3.619824E-03	2.151986E-04
6.511858E+03	3.620191E-03	2.151500E-04
6.521739E+03	3.620330E-03	2.150941E-04
6.531621E+03	3.620182E-03	2.150273E-04
6.541502E+03	3.619772E-03	2.149513E-04
6.551383E+03	3.619080E-03	2.148649E-04
6.561265E+03	3.618045E-03	2.147647E-04
6.571146E+03	3.616735E-03	2.146547E-04
6.581028E+03	3.615088E-03	2.145313E-04
6.590909E+03	3.613094E-03	2.143940E-04
6.600791E+03	3.610732E-03	2.142417E-04
6.610672E+03	3.608032E-03	2.140760E-04
6.620553E+03	3.604933E-03	2.138936E-04
6.630435E+03	3.601468E-03	2.136964E-04
6.640316E+03	3.597581E-03	2.134810E-04
6.650198E+03	3.593299E-03	2.132490E-04
6.660079E+03	3.588618E-03	2.129998E-04
6.669960E+03	3.583526E-03	2.127328E-04
6.679842E+03	3.577976E-03	2.124450E-04
6.689723E+03	3.571997E-03	2.121381E-04
6.699605E+03	3.565626E-03	2.118140E-04
6.709486E+03	3.558780E-03	2.114679E-04
6.719368E+03	3.551492E-03	2.111013E-04
6.729249E+03	3.543801E-03	2.107166E-04
6.739130E+03	3.535627E-03	2.103090E-04
6.749012E+03	3.527047E-03	2.098826E-04
6.758893E+03	3.518027E-03	2.094356E-04
6.768775E+03	3.508564E-03	2.089674E-04
6.778656E+03	3.498708E-03	2.084809E-04
6.788538E+03	3.488422E-03	2.079738E-04
6.798419E+03	3.477706E-03	2.074459E-04
6.808300E+03	3.466554E-03	2.068967E-04
6.818182E+03	3.455004E-03	2.063282E-04
6.828063E+03	3.443010E-03	2.057377E-04
6.837945E+03	3.430571E-03	2.051247E-04
6.847826E+03	3.417728E-03	2.044916E-04
6.857708E+03	3.404442E-03	2.038360E-04
6.867589E+03	3.390710E-03	2.031574E-04
6.877470E+03	3.376543E-03	2.024562E-04
6.887352E+03	3.361980E-03	2.017348E-04
6.897233E+03	3.346990E-03	2.009909E-04
6.907115E+03	3.331579E-03	2.002249E-04
6.916996E+03	3.315752E-03	1.994367E-04
6.926877E+03	3.299522E-03	1.986271E-04
6.936759E+03	3.282895E-03	1.977961E-04
6.946640E+03	3.265886E-03	1.969445E-04
6.956522E+03	3.248464E-03	1.960702E-04
6.966403E+03	3.230721E-03	1.951786E-04
6.976285E+03	3.212591E-03	1.942655E-04
6.986166E+03	3.194124E-03	1.933337E-04
6.996047E+03	3.175334E-03	1.923840E-04
7.005929E+03	3.156201E-03	1.914148E-04
7.015810E+03	3.136736E-03	1.904267E-04
7.025692E+03	3.116997E-03	1.894231E-04
7.035573E+03	3.096954E-03	1.884019E-04
7.045455E+03	3.076631E-03	1.873643E-04
7.055336E+03	3.056039E-03	1.863110E-04
7.065217E+03	3.035194E-03	1.852427E-04
7.075099E+03	3.014118E-03	1.841606E-04
7.084980E+03	2.992823E-03	1.830652E-04
7.094862E+03	2.971293E-03	1.819554E-04
7.104743E+03	2.949578E-03	1.808341E-04
7.114625E+03	2.927698E-03	1.797024E-04
7.124506E+03	2.905595E-03	1.785566E-04
7.134387E+03	2.883362E-03	1.774022E-04
7.144269E+03	2.860979E-03	1.762378E-04
7.154150E+03	2.838498E-03	1.750666E-04
7.164032E+03	2.815867E-03	1.738851E-04
7.173913E+03	2.793137E-03	1.726964E-04
7.183794E+03	2.770326E-03	1.715016E-04
7.193676E+03	2.747451E-03	1.703014E-04
7.203557E+03	2.724494E-03	1.690948E-04
7.213439E+03	2.701506E-03	1.678847E-04
7.223320E+03	2.678470E-03	1.666699E-04
7.233202E+03	2.655436E-03	1.654535E-04
7.243083E+03	2.632385E-03	1.642343E-04
7.252964E+03	2.609368E-03	1.630152E-04
7.262846E+03	2.586365E-03	1.617951E-04
7.272727E+03	2.563394E-03	1.605748E-04
7.282609E+03	2.540500E-03	1.593572E-04
7.292490E+03	2.517666E-03	1.581411E-04
7.302372E+03	2.494905E-03	1.569274E-04
7.312253E+03	2.472295E-03	1.557207E-04
7.322134E+03	2.449753E-03	1.545160E-04
7.332016E+03	2.427387E-03	1.533198E-04
7.341897E+03	2.405145E-03	1.521290E-04
7.351779E+03	2.383071E-03	1.509462E-04
7.361660E+03	2.361205E-03	1.497740E-04
7.371542E+03	2.339527E-03	1.486110E-04
7.381423E+03	2.318017E-03	1.474561E-04
7.391304E+03	2.296686E-03	1.463099E-04
7.401186E+03	2.275572E-03	1.451747E-04
7.411067E+03	2.254654E-03	1.440494E-04
7.420949E+03	2.233942E-03	1.429344E-04
7.430830E+03	2.213443E-03	1.418303E-04
7.440711E+03	2.193165E-03	1.407375E-04
7.450593E+03	2.173088E-03	1.396548E-04
7.460474E+03	2.153273E-03	1.385861E-04
7.470356E+03	2.133672E-03	1.375283E-04
7.480237E+03	2.114289E-03	1.364817E-04
7.490119E+03	2.095187E-03	1.354504E-04
7.500000E+03	2.076313E-03	1.344310E-04
7.509881E+03	2.057701E-03	1.334256E-04
7.519763E+03	2.039326E-03	1.324329E-04
7.529644E+03	2.021220E-03	1.314546E-04
7.539526E+03	2.003384E-03	1.304912E-04
7.549407E+03	1.985795E-03	1.295409E-04
7.559289E+03	1.968482E-03	1.286058E-04
7.569170E+03	1.951444E-03	1.276859E-04
7.579051E+03	1.934684E-03	1.267814E-04
7.588933E+03	1.918176E-03	1.258906E-04
7.598814E+03	1.901972E-03	1.250169E-04
7.608696E+03	1.886020E-03	1.241572E-04
7.618577E+03	1.870346E-03	1.233130E-04
7.628458E+03	1.854947E-03	1.224843E-04
7.638340E+03	1.839801E-03	1.216695E-04
7.648221E+03	1.824952E-03	1.208718E-04
7.658103E+03	1.810376E-03	1.200895E-04
7.667984E+03	1.796070E-03	1.193225E-04
