#wls	flux	fluxerr
1.592848E+03	6.335172E-04	7.300889E-06
1.632669E+03	6.619770E-04	7.595315E-06
1.672491E+03	6.898502E-04	7.879286E-06
1.712312E+03	7.167779E-04	8.148689E-06
1.752133E+03	7.425160E-04	8.400790E-06
1.791954E+03	7.659922E-04	8.623592E-06
1.831775E+03	7.859299E-04	8.803061E-06
1.871597E+03	8.008925E-04	8.923697E-06
1.911418E+03	8.090706E-04	8.966238E-06
1.951239E+03	8.092849E-04	8.918854E-06
1.991060E+03	8.017092E-04	8.784898E-06
2.030881E+03	7.896016E-04	8.601345E-06
2.070703E+03	7.800364E-04	8.445701E-06
2.110524E+03	7.833746E-04	8.428970E-06
2.150345E+03	8.097499E-04	8.656837E-06
2.190166E+03	8.647712E-04	9.183954E-06
2.229987E+03	9.478394E-04	9.997639E-06
2.269809E+03	1.053687E-03	1.103621E-05
2.309630E+03	1.175343E-03	1.222158E-05
2.349451E+03	1.307161E-03	1.349124E-05
2.389272E+03	1.445265E-03	1.480244E-05
2.429093E+03	1.587615E-03	1.613219E-05
2.468915E+03	1.733738E-03	1.747394E-05
2.508736E+03	1.883619E-03	1.882577E-05
2.548557E+03	2.037864E-03	2.019187E-05
2.588378E+03	2.197134E-03	2.157675E-05
2.628199E+03	2.362229E-03	2.298592E-05
2.668021E+03	2.533653E-03	2.442170E-05
2.707842E+03	2.711810E-03	2.588520E-05
2.747663E+03	2.896876E-03	2.737512E-05
2.787484E+03	3.088785E-03	2.888775E-05
2.827305E+03	3.287282E-03	3.041757E-05
2.867127E+03	3.492097E-03	3.195895E-05
2.906948E+03	3.702928E-03	3.350596E-05
2.946769E+03	3.919586E-03	3.505379E-05
2.986590E+03	4.141860E-03	3.659738E-05
2.996546E+03	4.198381E-03	3.698291E-05
3.006501E+03	4.255126E-03	3.736681E-05
3.016456E+03	4.312253E-03	3.775042E-05
3.026411E+03	4.369714E-03	3.813326E-05
3.036367E+03	4.427860E-03	3.851836E-05
3.046322E+03	4.487058E-03	3.890881E-05
3.056277E+03	4.546998E-03	3.930180E-05
3.066233E+03	4.607838E-03	3.969865E-05
3.076188E+03	4.669275E-03	4.009662E-05
3.086143E+03	4.731378E-03	4.049624E-05
3.096099E+03	4.793937E-03	4.089564E-05
3.106054E+03	4.856839E-03	4.129380E-05
3.116009E+03	4.920157E-03	4.169129E-05
3.125964E+03	4.983591E-03	4.208550E-05
3.135920E+03	5.047308E-03	4.247783E-05
3.145875E+03	5.110914E-03	4.286490E-05
3.155830E+03	5.174577E-03	4.324810E-05
3.165786E+03	5.237992E-03	4.362488E-05
3.175741E+03	5.301235E-03	4.399587E-05
3.185696E+03	5.364094E-03	4.435929E-05
3.195652E+03	5.426546E-03	4.471498E-05
3.205607E+03	5.488473E-03	4.506197E-05
3.215562E+03	5.549753E-03	4.539930E-05
3.225517E+03	5.610177E-03	4.572529E-05
3.235473E+03	5.669809E-03	4.604053E-05
3.245428E+03	5.728436E-03	4.634334E-05
3.255383E+03	5.786027E-03	4.663354E-05
3.265339E+03	5.842376E-03	4.690954E-05
3.275294E+03	5.897363E-03	4.717050E-05
3.285249E+03	5.950967E-03	4.741634E-05
3.295205E+03	6.002985E-03	4.764557E-05
3.305160E+03	6.053407E-03	4.785822E-05
3.315115E+03	6.102134E-03	4.805367E-05
3.325070E+03	6.148904E-03	4.823000E-05
3.335026E+03	6.193821E-03	4.838817E-05
3.344981E+03	6.236742E-03	4.852725E-05
3.354936E+03	6.277599E-03	4.864689E-05
3.364892E+03	6.316250E-03	4.874616E-05
3.374847E+03	6.352374E-03	4.882280E-05
3.384802E+03	6.385997E-03	4.887725E-05
3.394758E+03	6.416808E-03	4.890737E-05
3.404713E+03	6.444510E-03	4.891116E-05
3.414668E+03	6.468871E-03	4.888715E-05
3.424623E+03	6.489484E-03	4.883262E-05
3.434579E+03	6.505780E-03	4.874366E-05
3.444534E+03	6.517477E-03	4.861857E-05
3.454489E+03	6.524019E-03	4.845369E-05
3.464445E+03	6.525081E-03	4.824713E-05
3.474400E+03	6.520337E-03	4.799702E-05
3.484355E+03	6.509495E-03	4.770181E-05
3.494311E+03	6.492367E-03	4.736073E-05
3.504266E+03	6.468884E-03	4.697394E-05
3.514221E+03	6.438986E-03	4.654162E-05
3.524176E+03	6.402744E-03	4.606498E-05
3.534132E+03	6.360442E-03	4.554668E-05
3.544087E+03	6.312352E-03	4.498930E-05
3.554042E+03	6.258951E-03	4.439684E-05
3.563998E+03	6.200742E-03	4.377339E-05
3.573953E+03	6.138461E-03	4.312465E-05
3.583908E+03	6.072939E-03	4.245687E-05
3.593864E+03	6.005300E-03	4.177824E-05
3.603819E+03	5.936602E-03	4.109631E-05
3.613774E+03	5.868148E-03	4.042019E-05
3.623729E+03	5.801158E-03	3.975827E-05
3.633685E+03	5.737095E-03	3.912038E-05
3.643640E+03	5.677431E-03	3.851623E-05
3.653595E+03	5.623704E-03	3.795577E-05
3.663551E+03	5.577526E-03	3.744923E-05
3.673506E+03	5.540569E-03	3.700699E-05
3.683461E+03	5.514519E-03	3.663932E-05
3.693417E+03	5.501202E-03	3.635714E-05
3.703372E+03	5.502433E-03	3.617106E-05
3.713327E+03	5.520250E-03	3.609287E-05
3.723282E+03	5.556573E-03	3.613330E-05
3.733238E+03	5.613447E-03	3.630360E-05
3.743193E+03	5.693054E-03	3.661561E-05
3.753148E+03	5.797429E-03	3.707992E-05
3.763104E+03	5.928626E-03	3.770691E-05
3.773059E+03	6.088930E-03	3.850815E-05
3.783014E+03	6.280328E-03	3.949297E-05
3.792970E+03	6.504943E-03	4.067127E-05
3.802925E+03	6.764910E-03	4.205269E-05
3.812880E+03	7.061728E-03	4.364265E-05
3.822835E+03	7.396461E-03	4.544364E-05
3.832791E+03	7.769911E-03	4.745639E-05
3.842746E+03	8.181447E-03	4.967283E-05
3.852701E+03	8.629779E-03	5.208095E-05
3.862657E+03	9.112013E-03	5.465934E-05
3.872612E+03	9.623468E-03	5.737633E-05
3.882567E+03	1.015724E-02	6.018775E-05
3.892523E+03	1.070454E-02	6.303938E-05
3.902478E+03	1.125407E-02	6.586354E-05
3.912433E+03	1.179262E-02	6.858316E-05
3.922388E+03	1.230564E-02	7.111526E-05
3.932344E+03	1.277852E-02	7.337883E-05
3.942299E+03	1.319659E-02	7.529452E-05
3.952254E+03	1.354659E-02	7.679330E-05
3.962210E+03	1.381818E-02	7.782435E-05
3.972165E+03	1.400413E-02	7.835595E-05
3.982120E+03	1.410047E-02	7.837561E-05
3.992076E+03	1.410801E-02	7.789766E-05
4.002031E+03	1.403123E-02	7.695654E-05
4.011986E+03	1.387805E-02	7.560482E-05
4.021941E+03	1.365955E-02	7.391096E-05
4.031897E+03	1.338893E-02	7.195317E-05
4.041852E+03	1.307980E-02	6.980991E-05
4.051807E+03	1.274629E-02	6.756036E-05
4.061763E+03	1.240179E-02	6.527776E-05
4.071718E+03	1.205808E-02	6.302496E-05
4.081673E+03	1.172489E-02	6.085232E-05
4.091629E+03	1.141019E-02	5.879988E-05
4.101584E+03	1.112041E-02	5.689848E-05
4.111539E+03	1.085953E-02	5.516559E-05
4.121494E+03	1.063046E-02	5.361279E-05
4.131450E+03	1.043493E-02	5.224522E-05
4.141405E+03	1.027330E-02	5.106110E-05
4.151360E+03	1.014536E-02	5.005563E-05
4.161316E+03	1.005028E-02	4.922113E-05
4.171271E+03	9.986383E-03	4.854594E-05
4.181226E+03	9.951590E-03	4.801664E-05
4.191182E+03	9.943856E-03	4.762035E-05
4.201137E+03	9.960575E-03	4.734182E-05
4.211092E+03	9.999169E-03	4.716632E-05
4.221047E+03	1.005679E-02	4.707827E-05
4.231003E+03	1.013030E-02	4.706109E-05
4.240958E+03	1.021624E-02	4.709730E-05
4.250913E+03	1.031096E-02	4.716895E-05
4.260869E+03	1.040984E-02	4.725429E-05
4.270824E+03	1.050796E-02	4.733079E-05
4.280779E+03	1.059984E-02	4.737424E-05
4.290735E+03	1.067892E-02	4.735631E-05
4.300690E+03	1.073856E-02	4.724927E-05
4.310645E+03	1.077248E-02	4.702782E-05
4.320601E+03	1.077483E-02	4.666941E-05
4.330556E+03	1.074107E-02	4.615790E-05
4.340511E+03	1.066848E-02	4.548544E-05
4.350466E+03	1.055708E-02	4.465612E-05
4.360422E+03	1.041003E-02	4.368709E-05
4.370377E+03	1.023453E-02	4.261199E-05
4.380332E+03	1.004236E-02	4.148221E-05
4.390288E+03	9.849474E-03	4.036472E-05
4.400243E+03	9.672699E-03	3.932798E-05
4.410198E+03	9.527426E-03	3.843245E-05
4.420154E+03	9.427537E-03	3.773067E-05
4.430109E+03	9.384915E-03	3.726550E-05
4.440064E+03	9.407340E-03	3.706228E-05
4.450019E+03	9.501063E-03	3.713950E-05
4.459975E+03	9.671135E-03	3.751041E-05
4.469930E+03	9.918569E-03	3.817222E-05
4.479885E+03	1.024347E-02	3.911874E-05
4.489841E+03	1.064496E-02	4.034032E-05
4.499796E+03	1.111914E-02	4.181608E-05
4.509751E+03	1.166027E-02	4.351904E-05
4.519707E+03	1.226037E-02	4.541476E-05
4.529662E+03	1.290762E-02	4.745574E-05
4.539617E+03	1.358694E-02	4.958406E-05
4.549572E+03	1.428069E-02	5.173429E-05
4.559528E+03	1.496794E-02	5.383121E-05
4.569483E+03	1.562628E-02	5.579647E-05
4.579438E+03	1.623262E-02	5.755165E-05
4.589394E+03	1.676619E-02	5.902870E-05
4.599349E+03	1.720796E-02	6.016757E-05
4.609304E+03	1.754222E-02	6.092133E-05
4.619260E+03	1.775777E-02	6.125970E-05
4.629215E+03	1.784809E-02	6.116923E-05
4.639170E+03	1.781062E-02	6.065004E-05
4.649125E+03	1.764805E-02	5.971983E-05
4.659081E+03	1.736701E-02	5.840885E-05
4.669036E+03	1.697797E-02	5.675920E-05
4.678991E+03	1.649518E-02	5.482423E-05
4.688947E+03	1.593492E-02	5.266249E-05
4.698902E+03	1.531576E-02	5.033846E-05
4.708857E+03	1.465781E-02	4.792005E-05
4.718813E+03	1.398134E-02	4.547407E-05
4.728768E+03	1.330494E-02	4.306036E-05
4.738723E+03	1.264574E-02	4.073278E-05
4.748678E+03	1.201848E-02	3.853650E-05
4.758634E+03	1.143526E-02	3.650734E-05
4.768589E+03	1.090451E-02	3.466880E-05
4.778544E+03	1.043354E-02	3.304066E-05
4.788500E+03	1.002743E-02	3.163562E-05
4.798455E+03	9.687762E-03	3.045535E-05
4.808410E+03	9.414753E-03	2.949747E-05
4.818366E+03	9.207750E-03	2.875715E-05
4.828321E+03	9.065019E-03	2.822647E-05
4.838276E+03	8.984102E-03	2.789558E-05
4.848231E+03	8.961785E-03	2.775259E-05
4.858187E+03	8.993651E-03	2.778221E-05
4.868142E+03	9.074516E-03	2.796709E-05
4.878097E+03	9.197776E-03	2.828584E-05
4.888053E+03	9.354862E-03	2.871131E-05
4.898008E+03	9.535521E-03	2.921154E-05
4.907963E+03	9.728210E-03	2.975088E-05
4.917919E+03	9.919704E-03	3.028883E-05
4.927874E+03	1.009608E-02	3.078303E-05
4.937829E+03	1.024429E-02	3.119397E-05
4.947784E+03	1.035443E-02	3.149183E-05
4.957740E+03	1.041886E-02	3.165377E-05
4.967695E+03	1.043408E-02	3.166949E-05
4.977650E+03	1.040293E-02	3.154787E-05
4.987606E+03	1.033180E-02	3.130842E-05
4.997561E+03	1.022914E-02	3.097674E-05
5.007516E+03	1.010456E-02	3.058184E-05
5.017472E+03	9.968177E-03	3.015420E-05
5.027427E+03	9.829572E-03	2.972256E-05
5.037382E+03	9.696777E-03	2.931096E-05
5.047337E+03	9.576685E-03	2.893996E-05
5.057293E+03	9.474954E-03	2.862641E-05
5.067248E+03	9.394220E-03	2.837803E-05
5.077203E+03	9.336196E-03	2.819979E-05
5.087159E+03	9.302205E-03	2.809551E-05
5.097114E+03	9.293311E-03	2.806823E-05
5.107069E+03	9.310346E-03	2.812033E-05
5.117025E+03	9.354859E-03	2.825639E-05
5.126980E+03	9.428663E-03	2.848178E-05
5.136935E+03	9.534259E-03	2.880399E-05
5.146890E+03	9.674183E-03	2.923062E-05
5.156846E+03	9.850887E-03	2.976904E-05
5.166801E+03	1.006702E-02	3.042722E-05
5.176756E+03	1.032457E-02	3.121113E-05
5.186712E+03	1.062407E-02	3.212242E-05
5.196667E+03	1.096511E-02	3.315975E-05
5.206622E+03	1.134576E-02	3.431732E-05
5.216578E+03	1.176121E-02	3.558052E-05
5.226533E+03	1.220442E-02	3.692798E-05
5.236488E+03	1.266675E-02	3.833352E-05
5.246443E+03	1.313709E-02	3.976341E-05
5.256399E+03	1.360253E-02	4.117839E-05
5.266354E+03	1.404898E-02	4.253567E-05
5.276309E+03	1.446273E-02	4.379358E-05
5.286265E+03	1.483021E-02	4.491079E-05
5.296220E+03	1.513859E-02	4.584831E-05
5.306175E+03	1.537815E-02	4.657651E-05
5.316131E+03	1.554123E-02	4.707200E-05
5.326086E+03	1.562311E-02	4.732037E-05
5.336041E+03	1.562326E-02	4.731995E-05
5.345996E+03	1.554424E-02	4.707842E-05
5.355952E+03	1.539138E-02	4.661196E-05
5.365907E+03	1.517455E-02	4.595047E-05
5.375862E+03	1.490537E-02	4.512923E-05
5.385818E+03	1.459752E-02	4.418977E-05
5.395773E+03	1.426622E-02	4.317827E-05
5.405728E+03	1.392758E-02	4.214358E-05
5.415684E+03	1.359812E-02	4.113579E-05
5.425639E+03	1.329640E-02	4.021107E-05
5.435594E+03	1.303969E-02	3.942167E-05
5.445549E+03	1.284437E-02	3.881701E-05
5.455505E+03	1.272764E-02	3.844894E-05
5.465460E+03	1.270054E-02	3.835053E-05
5.475415E+03	1.275980E-02	3.851152E-05
5.485371E+03	1.288594E-02	3.887273E-05
5.495326E+03	1.304772E-02	3.933956E-05
5.505281E+03	1.320979E-02	3.980522E-05
5.515237E+03	1.334523E-02	4.018854E-05
5.525192E+03	1.343092E-02	4.042002E-05
5.535147E+03	1.344788E-02	4.044280E-05
5.545102E+03	1.338724E-02	4.023062E-05
5.555058E+03	1.324652E-02	3.977653E-05
5.565013E+03	1.302941E-02	3.909225E-05
5.574968E+03	1.274535E-02	3.820666E-05
5.584924E+03	1.240781E-02	3.716077E-05
5.594879E+03	1.203220E-02	3.600123E-05
5.604834E+03	1.163451E-02	3.477630E-05
5.614790E+03	1.123091E-02	3.353465E-05
5.624745E+03	1.083581E-02	3.231945E-05
5.634700E+03	1.046182E-02	3.116839E-05
5.644655E+03	1.012004E-02	3.011440E-05
5.654611E+03	9.819087E-03	2.918290E-05
5.664566E+03	9.566261E-03	2.839526E-05
5.674521E+03	9.367322E-03	2.776812E-05
5.684477E+03	9.226585E-03	2.731371E-05
5.694432E+03	9.147218E-03	2.704078E-05
5.704387E+03	9.131515E-03	2.695538E-05
5.714343E+03	9.180951E-03	2.706110E-05
5.724298E+03	9.295721E-03	2.735766E-05
5.734253E+03	9.474831E-03	2.784126E-05
5.744209E+03	9.716655E-03	2.850625E-05
5.754164E+03	1.001693E-02	2.933922E-05
5.764119E+03	1.037016E-02	3.032323E-05
5.774074E+03	1.076862E-02	3.143494E-05
5.784030E+03	1.120166E-02	3.264261E-05
5.793985E+03	1.165618E-02	3.390755E-05
5.803940E+03	1.211752E-02	3.518686E-05
5.813896E+03	1.256985E-02	3.643458E-05
5.823851E+03	1.299702E-02	3.760411E-05
5.833806E+03	1.338401E-02	3.865252E-05
5.843762E+03	1.371957E-02	3.954812E-05
5.853717E+03	1.399501E-02	4.026678E-05
5.863672E+03	1.420505E-02	4.079442E-05
5.873627E+03	1.434715E-02	4.112496E-05
5.883583E+03	1.442201E-02	4.126162E-05
5.893538E+03	1.443260E-02	4.121416E-05
5.903493E+03	1.438353E-02	4.099686E-05
5.913449E+03	1.428125E-02	4.062920E-05
5.923404E+03	1.413308E-02	4.013295E-05
5.933359E+03	1.394648E-02	3.953014E-05
5.943315E+03	1.372966E-02	3.884473E-05
5.953270E+03	1.349028E-02	3.809895E-05
5.963225E+03	1.323619E-02	3.731535E-05
5.973180E+03	1.297473E-02	3.651491E-05
5.983136E+03	1.271254E-02	3.571647E-05
5.993091E+03	1.245545E-02	3.493649E-05
6.003046E+03	1.220819E-02	3.418820E-05
6.013002E+03	1.197526E-02	3.348407E-05
6.022957E+03	1.175924E-02	3.283123E-05
6.032912E+03	1.156254E-02	3.223619E-05
6.042868E+03	1.138678E-02	3.170329E-05
6.052823E+03	1.123288E-02	3.123495E-05
6.062778E+03	1.110141E-02	3.083252E-05
6.072733E+03	1.099270E-02	3.049680E-05
6.082689E+03	1.090665E-02	3.022740E-05
6.092644E+03	1.084251E-02	3.002211E-05
6.102599E+03	1.079968E-02	2.987924E-05
6.112555E+03	1.077573E-02	2.979200E-05
6.122510E+03	1.076780E-02	2.975258E-05
6.132465E+03	1.077174E-02	2.974956E-05
6.142421E+03	1.078216E-02	2.976816E-05
6.152376E+03	1.079163E-02	2.978806E-05
6.162331E+03	1.079103E-02	2.978421E-05
6.172286E+03	1.076773E-02	2.972193E-05
6.182242E+03	1.070850E-02	2.956463E-05
6.192197E+03	1.060027E-02	2.927603E-05
6.202152E+03	1.043068E-02	2.882163E-05
6.212108E+03	1.019524E-02	2.818857E-05
6.222063E+03	9.909164E-03	2.741824E-05
6.232018E+03	9.603961E-03	2.659723E-05
6.241974E+03	9.312698E-03	2.581667E-05
6.251929E+03	9.063818E-03	2.515524E-05
6.261884E+03	8.869771E-03	2.464764E-05
6.271839E+03	8.736872E-03	2.431174E-05
6.281795E+03	8.668558E-03	2.415764E-05
6.291750E+03	8.661160E-03	2.417576E-05
6.301705E+03	8.708872E-03	2.435064E-05
6.311661E+03	8.804869E-03	2.466392E-05
6.321616E+03	8.940426E-03	2.509189E-05
6.331571E+03	9.105828E-03	2.560792E-05
6.341527E+03	9.291006E-03	2.618423E-05
6.351482E+03	9.485450E-03	2.679158E-05
6.361437E+03	9.678517E-03	2.740010E-05
6.371392E+03	9.859956E-03	2.798078E-05
6.381348E+03	1.002097E-02	2.850842E-05
6.391303E+03	1.015375E-02	2.896032E-05
6.401258E+03	1.025194E-02	2.931766E-05
6.411214E+03	1.031345E-02	2.957356E-05
6.421169E+03	1.033788E-02	2.972594E-05
6.431124E+03	1.032696E-02	2.977870E-05
6.441080E+03	1.028543E-02	2.974461E-05
6.451035E+03	1.021912E-02	2.963959E-05
6.460990E+03	1.013528E-02	2.948396E-05
6.470945E+03	1.004216E-02	2.930116E-05
6.480901E+03	9.948477E-03	2.911628E-05
6.490856E+03	9.862248E-03	2.895268E-05
6.500811E+03	9.791587E-03	2.883431E-05
6.510767E+03	9.741735E-03	2.877692E-05
6.520722E+03	9.715868E-03	2.879037E-05
6.530677E+03	9.715247E-03	2.887894E-05
6.540633E+03	9.740144E-03	2.904404E-05
6.550588E+03	9.790321E-03	2.928557E-05
6.560543E+03	9.863780E-03	2.959814E-05
6.570498E+03	9.957535E-03	2.997330E-05
6.580454E+03	1.006795E-02	3.040054E-05
6.590409E+03	1.018987E-02	3.086464E-05
6.600364E+03	1.031757E-02	3.134843E-05
6.610320E+03	1.044449E-02	3.183192E-05
6.620275E+03	1.056444E-02	3.229611E-05
6.630230E+03	1.067122E-02	3.272162E-05
6.640186E+03	1.075899E-02	3.309009E-05
6.650141E+03	1.082360E-02	3.338804E-05
6.660096E+03	1.086162E-02	3.360413E-05
6.670051E+03	1.087111E-02	3.373153E-05
6.680007E+03	1.085104E-02	3.376618E-05
6.689962E+03	1.080217E-02	3.370958E-05
6.699917E+03	1.072632E-02	3.356661E-05
6.709873E+03	1.062563E-02	3.334323E-05
6.719828E+03	1.050360E-02	3.304977E-05
6.729783E+03	1.036386E-02	3.269713E-05
6.739739E+03	1.021037E-02	3.229739E-05
6.749694E+03	1.004690E-02	3.186216E-05
6.759649E+03	9.877394E-03	3.140376E-05
6.769604E+03	9.705494E-03	3.093367E-05
6.779560E+03	9.534121E-03	3.046119E-05
6.789515E+03	9.366739E-03	2.999748E-05
6.799470E+03	9.205755E-03	2.955039E-05
6.809426E+03	9.054009E-03	2.912923E-05
6.819381E+03	8.913430E-03	2.874049E-05
6.829336E+03	8.786077E-03	2.839109E-05
6.839292E+03	8.673855E-03	2.808753E-05
6.849247E+03	8.578254E-03	2.783496E-05
6.859202E+03	8.500319E-03	2.763718E-05
6.869157E+03	8.441422E-03	2.749900E-05
6.879113E+03	8.402100E-03	2.742256E-05
6.889068E+03	8.382949E-03	2.741019E-05
6.899023E+03	8.383730E-03	2.746148E-05
6.908979E+03	8.404228E-03	2.757605E-05
6.918934E+03	8.443547E-03	2.775129E-05
6.928889E+03	8.500190E-03	2.798257E-05
6.938845E+03	8.572441E-03	2.826447E-05
6.948800E+03	8.657620E-03	2.858837E-05
6.958755E+03	8.752343E-03	2.894323E-05
6.968710E+03	8.852937E-03	2.931699E-05
6.978666E+03	8.955171E-03	2.969568E-05
6.988621E+03	9.054730E-03	3.006494E-05
6.998576E+03	9.146791E-03	3.040871E-05
7.008532E+03	9.227545E-03	3.071416E-05
7.018487E+03	9.292868E-03	3.096743E-05
7.028442E+03	9.339837E-03	3.115858E-05
7.038398E+03	9.366163E-03	3.127978E-05
7.048353E+03	9.370886E-03	3.132762E-05
7.058308E+03	9.353889E-03	3.130151E-05
7.068263E+03	9.316095E-03	3.120440E-05
7.078219E+03	9.259390E-03	3.104245E-05
7.088174E+03	9.187031E-03	3.082651E-05
7.098129E+03	9.102410E-03	3.056788E-05
7.108085E+03	9.009468E-03	3.027981E-05
7.118040E+03	8.912143E-03	2.997554E-05
7.127995E+03	8.813779E-03	2.966640E-05
7.137951E+03	8.717774E-03	2.936388E-05
7.147906E+03	8.626669E-03	2.907667E-05
7.157861E+03	8.542253E-03	2.881092E-05
7.167817E+03	8.465988E-03	2.857169E-05
7.177772E+03	8.398487E-03	2.836116E-05
7.187727E+03	8.339831E-03	2.817975E-05
7.197682E+03	8.289162E-03	2.802470E-05
7.207638E+03	8.245923E-03	2.789422E-05
7.217593E+03	8.209158E-03	2.778523E-05
7.227548E+03	8.177759E-03	2.769405E-05
7.237504E+03	8.150632E-03	2.761710E-05
7.247459E+03	8.127007E-03	2.755187E-05
7.257414E+03	8.106020E-03	2.749551E-05
7.267370E+03	8.087224E-03	2.744662E-05
7.277325E+03	8.070357E-03	2.740439E-05
7.287280E+03	8.055283E-03	2.736844E-05
7.297235E+03	8.041767E-03	2.733807E-05
7.307191E+03	8.030157E-03	2.731456E-05
7.317146E+03	8.020863E-03	2.729941E-05
7.327101E+03	8.013720E-03	2.729214E-05
7.337057E+03	8.009018E-03	2.729385E-05
7.347012E+03	8.006722E-03	2.730453E-05
7.356967E+03	8.006720E-03	2.732390E-05
7.366923E+03	8.008086E-03	2.734891E-05
7.376878E+03	8.009895E-03	2.737651E-05
7.386833E+03	8.010846E-03	2.740234E-05
7.396788E+03	8.008833E-03	2.741929E-05
7.406744E+03	8.001934E-03	2.742084E-05
7.416699E+03	7.987421E-03	2.739768E-05
7.426654E+03	7.963630E-03	2.734411E-05
7.436610E+03	7.928581E-03	2.725333E-05
7.446565E+03	7.880968E-03	2.712077E-05
7.456520E+03	7.820294E-03	2.694460E-05
7.466476E+03	7.746978E-03	2.672608E-05
7.476431E+03	7.661637E-03	2.646714E-05
7.486386E+03	7.566141E-03	2.617405E-05
7.496341E+03	7.463188E-03	2.585594E-05
7.506297E+03	7.354852E-03	2.551986E-05
7.516252E+03	7.244335E-03	2.517677E-05
7.526207E+03	7.134476E-03	2.483648E-05
7.536163E+03	7.028380E-03	2.450975E-05
7.546118E+03	6.929158E-03	2.420746E-05
7.556073E+03	6.840052E-03	2.394104E-05
7.566029E+03	6.763518E-03	2.371924E-05
7.575984E+03	6.701465E-03	2.354901E-05
7.585939E+03	6.654831E-03	2.343391E-05
7.595894E+03	6.623408E-03	2.337354E-05
7.605850E+03	6.606147E-03	2.336454E-05
7.615805E+03	6.601562E-03	2.340197E-05
7.625760E+03	6.607625E-03	2.347895E-05
7.635716E+03	6.622700E-03	2.358996E-05
7.645671E+03	6.644630E-03	2.372756E-05
7.655626E+03	6.672025E-03	2.388701E-05
7.665582E+03	6.703829E-03	2.406471E-05
7.675537E+03	6.738942E-03	2.425688E-05
7.685492E+03	6.776646E-03	2.446109E-05
7.695447E+03	6.816302E-03	2.467515E-05
7.705403E+03	6.857474E-03	2.489761E-05
7.715358E+03	6.899859E-03	2.512749E-05
7.725313E+03	6.943135E-03	2.536370E-05
