#wls	flux	fluxerr
1.592848E+03	5.722341E-04	2.163731E-05
1.632669E+03	5.956884E-04	2.238151E-05
1.672491E+03	6.183936E-04	2.308306E-05
1.712312E+03	6.400914E-04	2.373248E-05
1.752133E+03	6.604462E-04	2.431776E-05
1.791954E+03	6.786940E-04	2.481157E-05
1.831775E+03	6.935585E-04	2.516887E-05
1.871597E+03	7.038121E-04	2.534784E-05
1.911418E+03	7.079965E-04	2.529990E-05
1.951239E+03	7.050646E-04	2.499291E-05
1.991060E+03	6.952423E-04	2.444092E-05
2.030881E+03	6.813816E-04	2.374952E-05
2.070703E+03	6.696805E-04	2.313668E-05
2.110524E+03	6.688921E-04	2.290026E-05
2.150345E+03	6.875528E-04	2.331951E-05
2.190166E+03	7.302294E-04	2.452874E-05
2.229987E+03	7.962818E-04	2.648224E-05
2.269809E+03	8.811662E-04	2.900563E-05
2.309630E+03	9.789981E-04	3.188620E-05
2.349451E+03	1.084715E-03	3.494521E-05
2.389272E+03	1.194920E-03	3.806378E-05
2.429093E+03	1.307838E-03	4.117863E-05
2.468915E+03	1.423097E-03	4.427266E-05
2.508736E+03	1.540969E-03	4.734899E-05
2.548557E+03	1.662334E-03	5.042859E-05
2.588378E+03	1.788179E-03	5.353411E-05
2.628199E+03	1.919725E-03	5.669333E-05
2.668021E+03	2.058189E-03	5.993177E-05
2.707842E+03	2.204897E-03	6.327563E-05
2.747663E+03	2.361306E-03	6.675235E-05
2.787484E+03	2.528959E-03	7.038876E-05
2.827305E+03	2.709589E-03	7.421380E-05
2.867127E+03	2.905338E-03	7.826374E-05
2.906948E+03	3.118509E-03	8.257473E-05
2.946769E+03	3.352193E-03	8.719840E-05
2.986590E+03	3.609738E-03	9.218642E-05
2.996546E+03	3.678423E-03	9.350023E-05
3.006501E+03	3.748871E-03	9.484047E-05
3.016456E+03	3.821149E-03	9.620807E-05
3.026411E+03	3.895568E-03	9.761011E-05
3.036367E+03	3.972380E-03	9.905192E-05
3.046322E+03	4.051948E-03	1.005416E-04
3.056277E+03	4.134376E-03	1.020806E-04
3.066233E+03	4.219601E-03	1.036662E-04
3.076188E+03	4.307654E-03	1.052980E-04
3.086143E+03	4.398748E-03	1.069801E-04
3.096099E+03	4.492751E-03	1.087079E-04
3.106054E+03	4.589801E-03	1.104837E-04
3.116009E+03	4.689861E-03	1.123052E-04
3.125964E+03	4.793274E-03	1.141794E-04
3.135920E+03	4.899823E-03	1.160998E-04
3.145875E+03	5.009672E-03	1.180688E-04
3.155830E+03	5.122992E-03	1.200892E-04
3.165786E+03	5.239867E-03	1.221614E-04
3.175741E+03	5.360175E-03	1.242811E-04
3.185696E+03	5.484299E-03	1.264557E-04
3.195652E+03	5.612124E-03	1.286809E-04
3.205607E+03	5.743832E-03	1.309592E-04
3.215562E+03	5.879398E-03	1.332886E-04
3.225517E+03	6.018999E-03	1.356712E-04
3.235473E+03	6.162706E-03	1.381070E-04
3.245428E+03	6.310577E-03	1.405955E-04
3.255383E+03	6.462544E-03	1.431334E-04
3.265339E+03	6.618744E-03	1.457219E-04
3.275294E+03	6.779175E-03	1.483592E-04
3.285249E+03	6.943703E-03	1.510404E-04
3.295205E+03	7.112372E-03	1.537648E-04
3.305160E+03	7.284963E-03	1.565258E-04
3.315115E+03	7.461430E-03	1.593208E-04
3.325070E+03	7.641428E-03	1.621405E-04
3.335026E+03	7.824656E-03	1.649772E-04
3.344981E+03	8.010716E-03	1.678210E-04
3.354936E+03	8.199112E-03	1.706603E-04
3.364892E+03	8.389219E-03	1.734809E-04
3.374847E+03	8.580149E-03	1.762639E-04
3.384802E+03	8.771098E-03	1.789924E-04
3.394758E+03	8.960713E-03	1.816387E-04
3.404713E+03	9.147965E-03	1.841824E-04
3.414668E+03	9.331136E-03	1.865902E-04
3.424623E+03	9.508594E-03	1.888312E-04
3.434579E+03	9.678551E-03	1.908722E-04
3.444534E+03	9.838959E-03	1.926762E-04
3.454489E+03	9.987947E-03	1.942108E-04
3.464445E+03	1.012332E-02	1.954381E-04
3.474400E+03	1.024288E-02	1.963217E-04
3.484355E+03	1.034463E-02	1.968302E-04
3.494311E+03	1.042654E-02	1.969326E-04
3.504266E+03	1.048701E-02	1.966074E-04
3.514221E+03	1.052416E-02	1.958284E-04
3.524176E+03	1.053690E-02	1.945855E-04
3.534132E+03	1.052424E-02	1.928708E-04
3.544087E+03	1.048575E-02	1.906873E-04
3.554042E+03	1.042121E-02	1.880425E-04
3.563998E+03	1.033114E-02	1.849563E-04
3.573953E+03	1.021691E-02	1.814643E-04
3.583908E+03	1.008007E-02	1.776041E-04
3.593864E+03	9.923326E-03	1.734330E-04
3.603819E+03	9.749758E-03	1.690130E-04
3.613774E+03	9.562764E-03	1.644099E-04
3.623729E+03	9.366188E-03	1.596951E-04
3.633685E+03	9.164188E-03	1.549432E-04
3.643640E+03	8.960811E-03	1.502246E-04
3.653595E+03	8.760525E-03	1.456143E-04
3.663551E+03	8.567646E-03	1.411824E-04
3.673506E+03	8.386731E-03	1.370001E-04
3.683461E+03	8.222071E-03	1.331321E-04
3.693417E+03	8.077950E-03	1.296403E-04
3.703372E+03	7.958264E-03	1.265778E-04
3.713327E+03	7.866794E-03	1.239940E-04
3.723282E+03	7.807004E-03	1.219309E-04
3.733238E+03	7.782252E-03	1.204269E-04
3.743193E+03	7.795663E-03	1.195150E-04
3.753148E+03	7.850326E-03	1.192258E-04
3.763104E+03	7.949212E-03	1.195863E-04
3.773059E+03	8.095246E-03	1.206212E-04
3.783014E+03	8.291432E-03	1.223546E-04
3.792970E+03	8.540281E-03	1.248020E-04
3.802925E+03	8.844327E-03	1.279774E-04
3.812880E+03	9.205409E-03	1.318838E-04
3.822835E+03	9.624372E-03	1.365089E-04
3.832791E+03	1.010118E-02	1.418278E-04
3.842746E+03	1.063408E-02	1.477917E-04
3.852701E+03	1.121932E-02	1.543254E-04
3.862657E+03	1.185079E-02	1.613241E-04
3.872612E+03	1.251928E-02	1.686445E-04
3.882567E+03	1.321270E-02	1.761106E-04
3.892523E+03	1.391609E-02	1.835154E-04
3.902478E+03	1.461216E-02	1.906298E-04
3.912433E+03	1.528165E-02	1.972099E-04
3.922388E+03	1.590457E-02	2.030123E-04
3.932344E+03	1.646204E-02	2.078200E-04
3.942299E+03	1.693683E-02	2.114461E-04
3.952254E+03	1.731453E-02	2.137489E-04
3.962210E+03	1.758605E-02	2.146588E-04
3.972165E+03	1.774669E-02	2.141645E-04
3.982120E+03	1.779717E-02	2.123213E-04
3.992076E+03	1.774360E-02	2.092475E-04
4.002031E+03	1.759629E-02	2.051067E-04
4.011986E+03	1.736936E-02	2.001003E-04
4.021941E+03	1.707890E-02	1.944442E-04
4.031897E+03	1.674242E-02	1.883614E-04
4.041852E+03	1.637709E-02	1.820609E-04
4.051807E+03	1.599883E-02	1.757292E-04
4.061763E+03	1.562197E-02	1.695268E-04
4.071718E+03	1.525881E-02	1.635845E-04
4.081673E+03	1.491866E-02	1.579952E-04
4.091629E+03	1.460872E-02	1.528251E-04
4.101584E+03	1.433422E-02	1.481164E-04
4.111539E+03	1.409733E-02	1.438773E-04
4.121494E+03	1.389888E-02	1.401017E-04
4.131450E+03	1.373821E-02	1.367687E-04
4.141405E+03	1.361320E-02	1.338435E-04
4.151360E+03	1.352081E-02	1.312835E-04
4.161316E+03	1.345735E-02	1.290419E-04
4.171271E+03	1.341853E-02	1.270682E-04
4.181226E+03	1.339974E-02	1.253110E-04
4.191182E+03	1.339627E-02	1.237205E-04
4.201137E+03	1.340347E-02	1.222497E-04
4.211092E+03	1.341669E-02	1.208540E-04
4.221047E+03	1.343154E-02	1.194934E-04
4.231003E+03	1.344391E-02	1.181320E-04
4.240958E+03	1.344993E-02	1.167380E-04
4.250913E+03	1.344592E-02	1.152830E-04
4.260869E+03	1.342912E-02	1.137476E-04
4.270824E+03	1.339733E-02	1.121183E-04
4.280779E+03	1.334912E-02	1.103885E-04
4.290735E+03	1.328380E-02	1.085580E-04
4.300690E+03	1.320136E-02	1.066324E-04
4.310645E+03	1.310274E-02	1.046243E-04
4.320601E+03	1.298854E-02	1.025431E-04
4.330556E+03	1.286005E-02	1.004029E-04
4.340511E+03	1.271744E-02	9.820748E-05
4.350466E+03	1.255881E-02	9.594447E-05
4.360422E+03	1.238215E-02	9.360121E-05
4.370377E+03	1.218838E-02	9.118728E-05
4.380332E+03	1.198803E-02	8.878271E-05
4.390288E+03	1.180137E-02	8.653602E-05
4.400243E+03	1.164861E-02	8.458914E-05
4.410198E+03	1.154587E-02	8.304946E-05
4.420154E+03	1.150583E-02	8.199585E-05
4.430109E+03	1.153753E-02	8.147904E-05
4.440064E+03	1.164621E-02	8.152170E-05
4.450019E+03	1.183440E-02	8.212722E-05
4.459975E+03	1.210174E-02	8.327952E-05
4.469930E+03	1.244496E-02	8.494380E-05
4.479885E+03	1.285799E-02	8.706788E-05
4.489841E+03	1.333176E-02	8.958142E-05
4.499796E+03	1.385341E-02	9.239163E-05
4.509751E+03	1.440707E-02	9.538870E-05
4.519707E+03	1.497474E-02	9.845235E-05
4.529662E+03	1.553694E-02	1.014563E-04
4.539617E+03	1.607354E-02	1.042732E-04
4.549572E+03	1.656482E-02	1.067816E-04
4.559528E+03	1.699286E-02	1.088747E-04
4.569483E+03	1.734166E-02	1.104597E-04
4.579438E+03	1.759855E-02	1.114666E-04
4.589394E+03	1.775457E-02	1.118499E-04
4.599349E+03	1.780467E-02	1.115885E-04
4.609304E+03	1.774692E-02	1.106806E-04
4.619260E+03	1.758295E-02	1.091457E-04
4.629215E+03	1.731670E-02	1.070162E-04
4.639170E+03	1.695701E-02	1.043535E-04
4.649125E+03	1.651547E-02	1.012339E-04
4.659081E+03	1.600649E-02	9.774893E-05
4.669036E+03	1.544664E-02	9.400160E-05
4.678991E+03	1.485357E-02	9.009924E-05
4.688947E+03	1.424492E-02	8.614768E-05
4.698902E+03	1.363607E-02	8.223755E-05
4.708857E+03	1.303937E-02	7.844001E-05
4.718813E+03	1.246378E-02	7.480443E-05
4.728768E+03	1.191309E-02	7.134895E-05
4.738723E+03	1.138583E-02	6.806045E-05
4.748678E+03	1.087702E-02	6.490539E-05
4.758634E+03	1.038164E-02	6.185053E-05
4.768589E+03	9.900782E-03	5.889957E-05
4.778544E+03	9.451736E-03	5.615264E-05
4.788500E+03	9.052311E-03	5.371275E-05
4.798455E+03	8.714407E-03	5.164773E-05
4.808410E+03	8.444567E-03	4.999370E-05
4.818366E+03	8.245277E-03	4.876291E-05
4.828321E+03	8.114744E-03	4.794253E-05
4.838276E+03	8.048379E-03	4.750345E-05
4.848231E+03	8.039829E-03	4.740636E-05
4.858187E+03	8.080953E-03	4.760163E-05
4.868142E+03	8.161990E-03	4.803031E-05
4.878097E+03	8.272226E-03	4.862806E-05
4.888053E+03	8.399879E-03	4.932449E-05
4.898008E+03	8.533131E-03	5.004929E-05
4.907963E+03	8.661127E-03	5.073806E-05
4.917919E+03	8.775679E-03	5.134235E-05
4.927874E+03	8.871410E-03	5.183041E-05
4.937829E+03	8.945436E-03	5.218527E-05
4.947784E+03	8.998170E-03	5.240936E-05
4.957740E+03	9.032441E-03	5.251925E-05
4.967695E+03	9.052991E-03	5.254257E-05
4.977650E+03	9.065540E-03	5.251256E-05
4.987606E+03	9.076837E-03	5.246818E-05
4.997561E+03	9.093100E-03	5.244508E-05
5.007516E+03	9.119390E-03	5.247194E-05
5.017472E+03	9.159908E-03	5.257222E-05
5.027427E+03	9.217602E-03	5.276193E-05
5.037382E+03	9.293702E-03	5.304708E-05
5.047337E+03	9.388268E-03	5.342683E-05
5.057293E+03	9.500662E-03	5.389635E-05
5.067248E+03	9.629508E-03	5.444663E-05
5.077203E+03	9.773195E-03	5.506735E-05
5.087159E+03	9.930284E-03	5.574930E-05
5.097114E+03	1.009946E-02	5.648402E-05
5.107069E+03	1.028024E-02	5.726778E-05
5.117025E+03	1.047206E-02	5.809644E-05
5.126980E+03	1.067539E-02	5.897165E-05
5.136935E+03	1.089077E-02	5.989539E-05
5.146890E+03	1.111896E-02	6.087084E-05
5.156846E+03	1.136060E-02	6.190033E-05
5.166801E+03	1.161592E-02	6.298406E-05
5.176756E+03	1.188467E-02	6.411966E-05
5.186712E+03	1.216548E-02	6.529880E-05
5.196667E+03	1.245643E-02	6.651029E-05
5.206622E+03	1.275390E-02	6.773436E-05
5.216578E+03	1.305342E-02	6.894719E-05
5.226533E+03	1.334947E-02	7.012010E-05
5.236488E+03	1.363589E-02	7.122184E-05
5.246443E+03	1.390564E-02	7.221737E-05
5.256399E+03	1.415211E-02	7.307505E-05
5.266354E+03	1.436904E-02	7.376570E-05
5.276309E+03	1.455107E-02	7.426581E-05
5.286265E+03	1.469398E-02	7.455832E-05
5.296220E+03	1.479524E-02	7.463526E-05
5.306175E+03	1.485307E-02	7.449287E-05
5.316131E+03	1.486754E-02	7.413660E-05
5.326086E+03	1.483969E-02	7.357681E-05
5.336041E+03	1.477115E-02	7.282656E-05
5.345996E+03	1.466387E-02	7.190007E-05
5.355952E+03	1.452112E-02	7.081767E-05
5.365907E+03	1.434580E-02	6.959738E-05
5.375862E+03	1.414144E-02	6.825963E-05
5.385818E+03	1.391201E-02	6.682652E-05
5.395773E+03	1.366212E-02	6.532235E-05
5.405728E+03	1.339753E-02	6.377651E-05
5.415684E+03	1.312529E-02	6.222347E-05
5.425639E+03	1.285466E-02	6.070762E-05
5.435594E+03	1.259656E-02	5.928017E-05
5.445549E+03	1.236458E-02	5.800375E-05
5.455505E+03	1.217508E-02	5.695178E-05
5.465460E+03	1.204270E-02	5.618855E-05
5.475415E+03	1.197186E-02	5.573063E-05
5.485371E+03	1.194552E-02	5.549522E-05
5.495326E+03	1.194138E-02	5.537610E-05
5.505281E+03	1.193767E-02	5.527047E-05
5.515237E+03	1.191722E-02	5.509741E-05
5.525192E+03	1.186693E-02	5.479531E-05
5.535147E+03	1.177836E-02	5.432423E-05
5.545102E+03	1.164707E-02	5.366277E-05
5.555058E+03	1.147284E-02	5.280900E-05
5.565013E+03	1.125876E-02	5.177613E-05
5.574968E+03	1.101094E-02	5.059149E-05
5.584924E+03	1.073726E-02	4.929026E-05
5.594879E+03	1.044716E-02	4.791501E-05
5.604834E+03	1.015088E-02	4.651185E-05
5.614790E+03	9.858579E-03	4.512662E-05
5.624745E+03	9.580004E-03	4.380313E-05
5.634700E+03	9.323789E-03	4.258010E-05
5.644655E+03	9.097695E-03	4.149214E-05
5.654611E+03	8.908173E-03	4.056774E-05
5.664566E+03	8.760110E-03	3.982806E-05
5.674521E+03	8.657221E-03	3.928876E-05
5.684477E+03	8.602082E-03	3.896003E-05
5.694432E+03	8.596166E-03	3.884684E-05
5.704387E+03	8.639604E-03	3.894782E-05
5.714343E+03	8.731898E-03	3.925853E-05
5.724298E+03	8.871015E-03	3.976738E-05
5.734253E+03	9.053649E-03	4.045693E-05
5.744209E+03	9.275499E-03	4.130523E-05
5.754164E+03	9.530832E-03	4.228396E-05
5.764119E+03	9.812268E-03	4.335771E-05
5.774074E+03	1.011115E-02	4.448577E-05
5.784030E+03	1.041775E-02	4.562332E-05
5.793985E+03	1.072092E-02	4.672012E-05
5.803940E+03	1.100965E-02	4.772744E-05
5.813896E+03	1.127367E-02	4.860105E-05
5.823851E+03	1.150386E-02	4.930274E-05
5.833806E+03	1.169297E-02	4.980358E-05
5.843762E+03	1.183611E-02	5.008582E-05
5.853717E+03	1.193146E-02	5.014537E-05
5.863672E+03	1.197905E-02	4.998678E-05
5.873627E+03	1.198143E-02	4.962517E-05
5.883583E+03	1.194280E-02	4.908276E-05
5.893538E+03	1.186846E-02	4.838593E-05
5.903493E+03	1.176438E-02	4.756342E-05
5.913449E+03	1.163633E-02	4.664257E-05
5.923404E+03	1.149011E-02	4.565026E-05
5.933359E+03	1.133098E-02	4.461060E-05
5.943315E+03	1.116344E-02	4.354403E-05
5.953270E+03	1.099105E-02	4.246680E-05
5.963225E+03	1.081701E-02	4.139329E-05
5.973180E+03	1.064316E-02	4.033232E-05
5.983136E+03	1.047136E-02	3.929248E-05
5.993091E+03	1.030188E-02	3.827629E-05
6.003046E+03	1.013472E-02	3.728512E-05
6.013002E+03	9.969258E-03	3.631819E-05
6.022957E+03	9.803800E-03	3.537088E-05
6.032912E+03	9.636364E-03	3.443778E-05
6.042868E+03	9.464806E-03	3.351312E-05
6.052823E+03	9.287845E-03	3.259439E-05
6.062778E+03	9.104313E-03	3.167949E-05
6.072733E+03	8.914979E-03	3.077299E-05
6.082689E+03	8.722481E-03	2.988560E-05
6.092644E+03	8.531081E-03	2.903304E-05
6.102599E+03	8.346836E-03	2.823658E-05
6.112555E+03	8.178046E-03	2.752438E-05
6.122510E+03	8.033613E-03	2.692610E-05
6.132465E+03	7.922173E-03	2.647024E-05
6.142421E+03	7.851422E-03	2.618221E-05
6.152376E+03	7.826436E-03	2.607922E-05
6.162331E+03	7.848555E-03	2.616653E-05
6.172286E+03	7.912954E-03	2.642834E-05
6.182242E+03	8.007574E-03	2.682492E-05
6.192197E+03	8.110527E-03	2.728369E-05
6.202152E+03	8.188943E-03	2.769390E-05
6.212108E+03	8.206961E-03	2.793185E-05
6.222063E+03	8.155294E-03	2.796065E-05
6.232018E+03	8.062978E-03	2.787354E-05
6.241974E+03	7.961513E-03	2.777465E-05
6.251929E+03	7.875907E-03	2.774887E-05
6.261884E+03	7.821107E-03	2.784896E-05
6.271839E+03	7.804310E-03	2.810247E-05
6.281795E+03	7.827167E-03	2.851853E-05
6.291750E+03	7.886471E-03	2.908926E-05
6.301705E+03	7.975714E-03	2.979441E-05
6.311661E+03	8.086971E-03	3.060754E-05
6.321616E+03	8.211475E-03	3.149773E-05
6.331571E+03	8.339928E-03	3.243039E-05
6.341527E+03	8.463641E-03	3.337140E-05
6.351482E+03	8.574709E-03	3.428791E-05
6.361437E+03	8.666480E-03	3.515024E-05
6.371392E+03	8.733930E-03	3.593346E-05
6.381348E+03	8.774420E-03	3.662091E-05
6.391303E+03	8.786946E-03	3.720214E-05
6.401258E+03	8.772752E-03	3.767597E-05
6.411214E+03	8.734584E-03	3.804806E-05
6.421169E+03	8.676572E-03	3.833084E-05
6.431124E+03	8.603916E-03	3.854260E-05
6.441080E+03	8.522171E-03	3.870463E-05
6.451035E+03	8.437212E-03	3.884114E-05
6.460990E+03	8.354220E-03	3.897468E-05
6.470945E+03	8.278003E-03	3.912740E-05
6.480901E+03	8.212418E-03	3.931815E-05
6.490856E+03	8.160512E-03	3.956288E-05
6.500811E+03	8.124668E-03	3.987501E-05
6.510767E+03	8.106338E-03	4.026393E-05
6.520722E+03	8.106188E-03	4.073542E-05
6.530677E+03	8.124011E-03	4.129088E-05
6.540633E+03	8.158966E-03	4.192841E-05
6.550588E+03	8.209264E-03	4.264086E-05
6.560543E+03	8.272518E-03	4.341750E-05
6.570498E+03	8.345871E-03	4.424453E-05
6.580454E+03	8.425852E-03	4.510414E-05
6.590409E+03	8.508526E-03	4.597530E-05
6.600364E+03	8.590013E-03	4.683645E-05
6.610320E+03	8.666145E-03	4.766368E-05
6.620275E+03	8.733504E-03	4.843651E-05
6.630230E+03	8.788404E-03	4.913240E-05
6.640186E+03	8.827949E-03	4.973274E-05
6.650141E+03	8.850202E-03	5.022400E-05
6.660096E+03	8.853751E-03	5.059551E-05
6.670051E+03	8.837715E-03	5.083963E-05
6.680007E+03	8.802247E-03	5.095482E-05
6.689962E+03	8.748294E-03	5.094437E-05
6.699917E+03	8.677006E-03	5.081313E-05
6.709873E+03	8.590413E-03	5.057152E-05
6.719828E+03	8.490408E-03	5.022956E-05
6.729783E+03	8.379678E-03	4.980241E-05
6.739739E+03	8.260477E-03	4.930310E-05
6.749694E+03	8.135662E-03	4.874862E-05
6.759649E+03	8.007409E-03	4.815224E-05
6.769604E+03	7.878297E-03	4.752992E-05
6.779560E+03	7.750609E-03	4.689607E-05
6.789515E+03	7.626380E-03	4.626376E-05
6.799470E+03	7.507941E-03	4.564797E-05
6.809426E+03	7.397204E-03	4.506124E-05
6.819381E+03	7.296101E-03	4.451624E-05
6.829336E+03	7.205846E-03	4.402122E-05
6.839292E+03	7.127940E-03	4.358614E-05
6.849247E+03	7.063261E-03	4.321704E-05
6.859202E+03	7.012571E-03	4.291912E-05
6.869157E+03	6.976278E-03	4.269526E-05
6.879113E+03	6.954872E-03	4.254869E-05
6.889068E+03	6.947689E-03	4.247543E-05
6.899023E+03	6.954538E-03	4.247422E-05
6.908979E+03	6.974301E-03	4.253800E-05
6.918934E+03	7.005796E-03	4.265922E-05
6.928889E+03	7.047707E-03	4.282942E-05
6.938845E+03	7.098203E-03	4.303700E-05
6.948800E+03	7.155339E-03	4.326965E-05
6.958755E+03	7.216951E-03	4.351382E-05
6.968710E+03	7.280720E-03	4.375513E-05
6.978666E+03	7.344225E-03	4.397877E-05
6.988621E+03	7.404861E-03	4.416905E-05
6.998576E+03	7.460488E-03	4.431332E-05
7.008532E+03	7.508428E-03	4.439607E-05
7.018487E+03	7.547073E-03	4.440842E-05
7.028442E+03	7.574212E-03	4.433830E-05
7.038398E+03	7.588797E-03	4.418080E-05
7.048353E+03	7.589748E-03	4.393111E-05
7.058308E+03	7.576630E-03	4.358842E-05
7.068263E+03	7.549775E-03	4.315652E-05
7.078219E+03	7.509603E-03	4.263980E-05
7.088174E+03	7.457521E-03	4.204831E-05
7.098129E+03	7.395260E-03	4.139378E-05
7.108085E+03	7.325230E-03	4.069155E-05
7.118040E+03	7.249839E-03	3.995661E-05
7.127995E+03	7.171325E-03	3.920268E-05
7.137951E+03	7.092138E-03	3.844424E-05
7.147906E+03	7.014026E-03	3.769159E-05
7.157861E+03	6.938919E-03	3.695566E-05
7.167817E+03	6.867951E-03	3.624282E-05
7.177772E+03	6.801880E-03	3.555721E-05
7.187727E+03	6.741334E-03	3.490220E-05
7.197682E+03	6.686475E-03	3.427859E-05
7.207638E+03	6.637071E-03	3.368515E-05
7.217593E+03	6.592783E-03	3.312017E-05
7.227548E+03	6.553147E-03	3.258141E-05
7.237504E+03	6.517612E-03	3.206630E-05
7.247459E+03	6.485546E-03	3.157202E-05
7.257414E+03	6.456048E-03	3.109462E-05
7.267370E+03	6.428797E-03	3.063312E-05
7.277325E+03	6.403062E-03	3.018473E-05
7.287280E+03	6.378157E-03	2.974704E-05
7.297235E+03	6.353741E-03	2.931940E-05
7.307191E+03	6.329165E-03	2.889988E-05
7.317146E+03	6.304079E-03	2.848803E-05
7.327101E+03	6.278168E-03	2.808367E-05
7.337057E+03	6.251120E-03	2.768667E-05
7.347012E+03	6.222858E-03	2.729804E-05
7.356967E+03	6.192759E-03	2.691639E-05
7.366923E+03	6.160963E-03	2.654371E-05
7.376878E+03	6.127028E-03	2.617946E-05
7.386833E+03	6.090864E-03	2.582459E-05
7.396788E+03	6.052205E-03	2.547927E-05
7.406744E+03	6.010883E-03	2.514401E-05
7.416699E+03	5.966901E-03	2.481996E-05
7.426654E+03	5.920287E-03	2.450824E-05
7.436610E+03	5.871664E-03	2.421226E-05
7.446565E+03	5.821046E-03	2.393274E-05
7.456520E+03	5.769104E-03	2.367212E-05
7.466476E+03	5.716214E-03	2.343086E-05
7.476431E+03	5.663308E-03	2.321159E-05
7.486386E+03	5.610951E-03	2.301537E-05
7.496341E+03	5.559868E-03	2.284393E-05
7.506297E+03	5.510915E-03	2.269954E-05
7.516252E+03	5.464866E-03	2.258422E-05
7.526207E+03	5.422631E-03	2.250065E-05
7.536163E+03	5.384406E-03	2.244864E-05
7.546118E+03	5.350462E-03	2.242846E-05
7.556073E+03	5.320774E-03	2.243923E-05
7.566029E+03	5.294768E-03	2.247782E-05
7.575984E+03	5.271759E-03	2.254068E-05
7.585939E+03	5.250767E-03	2.262297E-05
7.595894E+03	5.231919E-03	2.272460E-05
7.605850E+03	5.214959E-03	2.284389E-05
7.615805E+03	5.199943E-03	2.298056E-05
7.625760E+03	5.186387E-03	2.313199E-05
7.635716E+03	5.174269E-03	2.329764E-05
7.645671E+03	5.163146E-03	2.347509E-05
7.655626E+03	5.153140E-03	2.366451E-05
7.665582E+03	5.144143E-03	2.386506E-05
7.675537E+03	5.136280E-03	2.407703E-05
7.685492E+03	5.129774E-03	2.430126E-05
7.695447E+03	5.124891E-03	2.453887E-05
7.705403E+03	5.121956E-03	2.479138E-05
7.715358E+03	5.121133E-03	2.505966E-05
7.725313E+03	5.122765E-03	2.534550E-05
