#wls	flux	fluxerr
1.592848E+03	6.255142E-04	7.788816E-06
1.632669E+03	6.533508E-04	8.097027E-06
1.672491E+03	6.804288E-04	8.391629E-06
1.712312E+03	7.067161E-04	8.672231E-06
1.752133E+03	7.317040E-04	8.932632E-06
1.791954E+03	7.544668E-04	9.161705E-06
1.831775E+03	7.738096E-04	9.345329E-06
1.871597E+03	7.881219E-04	9.464728E-06
1.911418E+03	7.957623E-04	9.501241E-06
1.951239E+03	7.955183E-04	9.441806E-06
1.991060E+03	7.875268E-04	9.289701E-06
2.030881E+03	7.750170E-04	9.084486E-06
2.070703E+03	7.649133E-04	8.907848E-06
2.110524E+03	7.672944E-04	8.875859E-06
2.150345E+03	7.920683E-04	9.099398E-06
2.190166E+03	8.447624E-04	9.636011E-06
2.229987E+03	9.247256E-04	1.047121E-05
2.269809E+03	1.026986E-03	1.154183E-05
2.309630E+03	1.144668E-03	1.276495E-05
2.349451E+03	1.272001E-03	1.407201E-05
2.389272E+03	1.405106E-03	1.541711E-05
2.429093E+03	1.541962E-03	1.677592E-05
2.468915E+03	1.682028E-03	1.814072E-05
2.508736E+03	1.825397E-03	1.951072E-05
2.548557E+03	1.972964E-03	2.089358E-05
2.588378E+03	2.125526E-03	2.229549E-05
2.628199E+03	2.284062E-03	2.372415E-05
2.668021E+03	2.449430E-03	2.518553E-05
2.707842E+03	2.622556E-03	2.668588E-05
2.747663E+03	2.804178E-03	2.822902E-05
2.787484E+03	2.994911E-03	2.981715E-05
2.827305E+03	3.195502E-03	3.145338E-05
2.867127E+03	3.406581E-03	3.313922E-05
2.906948E+03	3.629002E-03	3.487793E-05
2.946769E+03	3.863767E-03	3.667361E-05
2.986590E+03	4.111991E-03	3.853084E-05
2.996546E+03	4.176261E-03	3.900504E-05
3.006501E+03	4.241467E-03	3.948347E-05
3.016456E+03	4.307610E-03	3.996602E-05
3.026411E+03	4.374866E-03	4.045421E-05
3.036367E+03	4.443436E-03	4.094973E-05
3.046322E+03	4.513631E-03	4.145533E-05
3.056277E+03	4.585566E-03	4.197187E-05
3.066233E+03	4.658968E-03	4.249666E-05
3.076188E+03	4.733959E-03	4.303065E-05
3.086143E+03	4.810369E-03	4.357212E-05
3.096099E+03	4.888129E-03	4.412028E-05
3.106054E+03	4.967362E-03	4.467608E-05
3.116009E+03	5.047811E-03	4.523705E-05
3.125964E+03	5.129503E-03	4.580328E-05
3.135920E+03	5.212373E-03	4.637405E-05
3.145875E+03	5.296453E-03	4.694948E-05
3.155830E+03	5.381575E-03	4.752796E-05
3.165786E+03	5.467771E-03	4.810962E-05
3.175741E+03	5.554969E-03	4.869371E-05
3.185696E+03	5.642993E-03	4.927856E-05
3.195652E+03	5.731868E-03	4.986426E-05
3.205607E+03	5.821614E-03	5.045088E-05
3.215562E+03	5.911944E-03	5.103583E-05
3.225517E+03	6.002968E-03	5.161995E-05
3.235473E+03	6.094390E-03	5.220063E-05
3.245428E+03	6.186412E-03	5.277950E-05
3.255383E+03	6.278618E-03	5.335294E-05
3.265339E+03	6.370997E-03	5.392081E-05
3.275294E+03	6.463525E-03	5.448287E-05
3.285249E+03	6.555965E-03	5.503707E-05
3.295205E+03	6.648277E-03	5.558306E-05
3.305160E+03	6.740102E-03	5.611785E-05
3.315115E+03	6.831375E-03	5.664091E-05
3.325070E+03	6.921910E-03	5.715074E-05
3.335026E+03	7.011500E-03	5.764569E-05
3.344981E+03	7.099907E-03	5.812388E-05
3.354936E+03	7.186751E-03	5.858232E-05
3.364892E+03	7.271698E-03	5.901844E-05
3.374847E+03	7.354363E-03	5.942930E-05
3.384802E+03	7.434293E-03	5.981148E-05
3.394758E+03	7.510866E-03	6.016028E-05
3.404713E+03	7.583492E-03	6.047132E-05
3.414668E+03	7.651506E-03	6.073975E-05
3.424623E+03	7.714077E-03	6.095947E-05
3.434579E+03	7.770422E-03	6.112489E-05
3.444534E+03	7.819733E-03	6.123036E-05
3.454489E+03	7.861006E-03	6.126881E-05
3.464445E+03	7.893560E-03	6.123582E-05
3.474400E+03	7.916581E-03	6.112606E-05
3.484355E+03	7.929344E-03	6.093500E-05
3.494311E+03	7.931331E-03	6.065983E-05
3.504266E+03	7.921983E-03	6.029746E-05
3.514221E+03	7.901098E-03	5.984764E-05
3.524176E+03	7.868558E-03	5.931077E-05
3.534132E+03	7.824458E-03	5.868888E-05
3.544087E+03	7.769104E-03	5.798555E-05
3.554042E+03	7.703040E-03	5.720610E-05
3.563998E+03	7.626957E-03	5.635688E-05
3.573953E+03	7.541971E-03	5.544722E-05
3.583908E+03	7.449272E-03	5.448689E-05
3.593864E+03	7.350462E-03	5.348842E-05
3.603819E+03	7.247120E-03	5.246399E-05
3.613774E+03	7.141317E-03	5.142904E-05
3.623729E+03	7.034880E-03	5.039700E-05
3.633685E+03	6.930058E-03	4.938400E-05
3.643640E+03	6.829040E-03	4.840540E-05
3.653595E+03	6.734224E-03	4.747772E-05
3.663551E+03	6.647862E-03	4.661608E-05
3.673506E+03	6.572455E-03	4.583698E-05
3.683461E+03	6.510404E-03	4.515587E-05
3.693417E+03	6.464277E-03	4.458895E-05
3.703372E+03	6.436534E-03	4.415129E-05
3.713327E+03	6.429857E-03	4.385911E-05
3.723282E+03	6.446703E-03	4.372666E-05
3.733238E+03	6.489811E-03	4.376972E-05
3.743193E+03	6.561828E-03	4.400303E-05
3.753148E+03	6.665498E-03	4.444157E-05
3.763104E+03	6.803550E-03	4.509976E-05
3.773059E+03	6.978866E-03	4.599263E-05
3.783014E+03	7.194144E-03	4.713356E-05
3.792970E+03	7.452205E-03	4.853627E-05
3.802925E+03	7.755635E-03	5.021257E-05
3.812880E+03	8.106686E-03	5.217168E-05
3.822835E+03	8.507068E-03	5.441902E-05
3.832791E+03	8.957613E-03	5.695414E-05
3.842746E+03	9.458236E-03	5.977072E-05
3.852701E+03	1.000720E-02	6.285200E-05
3.862657E+03	1.060070E-02	6.616873E-05
3.872612E+03	1.123274E-02	6.967846E-05
3.882567E+03	1.189448E-02	7.332229E-05
3.892523E+03	1.257424E-02	7.702534E-05
3.902478E+03	1.325721E-02	8.069540E-05
3.912433E+03	1.392636E-02	8.422917E-05
3.922388E+03	1.456263E-02	8.751383E-05
3.932344E+03	1.514679E-02	9.043849E-05
3.942299E+03	1.565991E-02	9.289699E-05
3.952254E+03	1.608519E-02	9.479874E-05
3.962210E+03	1.640956E-02	9.607750E-05
3.972165E+03	1.662400E-02	9.669252E-05
3.982120E+03	1.672490E-02	9.663592E-05
3.992076E+03	1.671416E-02	9.593170E-05
4.002031E+03	1.659905E-02	9.463424E-05
4.011986E+03	1.639122E-02	9.282172E-05
4.021941E+03	1.610594E-02	9.059067E-05
4.031897E+03	1.576082E-02	8.804834E-05
4.041852E+03	1.537425E-02	8.530364E-05
4.051807E+03	1.496387E-02	8.245860E-05
4.061763E+03	1.454659E-02	7.960830E-05
4.071718E+03	1.413643E-02	7.682979E-05
4.081673E+03	1.374528E-02	7.418642E-05
4.091629E+03	1.338206E-02	7.172372E-05
4.101584E+03	1.305342E-02	6.947398E-05
4.111539E+03	1.276367E-02	6.745606E-05
4.121494E+03	1.251526E-02	6.567840E-05
4.131450E+03	1.230910E-02	6.414113E-05
4.141405E+03	1.214485E-02	6.283785E-05
4.151360E+03	1.202132E-02	6.175778E-05
4.161316E+03	1.193646E-02	6.088604E-05
4.171271E+03	1.188754E-02	6.020463E-05
4.181226E+03	1.187152E-02	5.969442E-05
4.191182E+03	1.188510E-02	5.933543E-05
4.201137E+03	1.192486E-02	5.910764E-05
4.211092E+03	1.198703E-02	5.898980E-05
4.221047E+03	1.206772E-02	5.896075E-05
4.231003E+03	1.216272E-02	5.899815E-05
4.240958E+03	1.226764E-02	5.907962E-05
4.250913E+03	1.237744E-02	5.918018E-05
4.260869E+03	1.248660E-02	5.927328E-05
4.270824E+03	1.258903E-02	5.933059E-05
4.280779E+03	1.267800E-02	5.932142E-05
4.290735E+03	1.274683E-02	5.921638E-05
4.300690E+03	1.278843E-02	5.898490E-05
4.310645E+03	1.279626E-02	5.859995E-05
4.320601E+03	1.276445E-02	5.803834E-05
4.330556E+03	1.268865E-02	5.728443E-05
4.340511E+03	1.256562E-02	5.632790E-05
4.350466E+03	1.239464E-02	5.517018E-05
4.360422E+03	1.217743E-02	5.382324E-05
4.370377E+03	1.192027E-02	5.231881E-05
4.380332E+03	1.164093E-02	5.073779E-05
4.390288E+03	1.136585E-02	4.919644E-05
4.400243E+03	1.112074E-02	4.780461E-05
4.410198E+03	1.092704E-02	4.665093E-05
4.420154E+03	1.080207E-02	4.580417E-05
4.430109E+03	1.075837E-02	4.531102E-05
4.440064E+03	1.080435E-02	4.519976E-05
4.450019E+03	1.094528E-02	4.548474E-05
4.459975E+03	1.118329E-02	4.616702E-05
4.469930E+03	1.151862E-02	4.724004E-05
4.479885E+03	1.194856E-02	4.868527E-05
4.489841E+03	1.246828E-02	5.047618E-05
4.499796E+03	1.306964E-02	5.257371E-05
4.509751E+03	1.374126E-02	5.492688E-05
4.519707E+03	1.446816E-02	5.747177E-05
4.529662E+03	1.523144E-02	6.013065E-05
4.539617E+03	1.600951E-02	6.281722E-05
4.549572E+03	1.677790E-02	6.543612E-05
4.559528E+03	1.751132E-02	6.789108E-05
4.569483E+03	1.818485E-02	7.008962E-05
4.579438E+03	1.877567E-02	7.194937E-05
4.589394E+03	1.926429E-02	7.340256E-05
4.599349E+03	1.963556E-02	7.439918E-05
4.609304E+03	1.987904E-02	7.490809E-05
4.619260E+03	1.998883E-02	7.491560E-05
4.629215E+03	1.996349E-02	7.442479E-05
4.639170E+03	1.980526E-02	7.345208E-05
4.649125E+03	1.952074E-02	7.202934E-05
4.659081E+03	1.911970E-02	7.019932E-05
4.669036E+03	1.861529E-02	6.801595E-05
4.678991E+03	1.802364E-02	6.554265E-05
4.688947E+03	1.736269E-02	6.284817E-05
4.698902E+03	1.665158E-02	6.000389E-05
4.708857E+03	1.590943E-02	5.707985E-05
4.718813E+03	1.515409E-02	5.414019E-05
4.728768E+03	1.440105E-02	5.123942E-05
4.738723E+03	1.366293E-02	4.842080E-05
4.748678E+03	1.294960E-02	4.571725E-05
4.758634E+03	1.226899E-02	4.315429E-05
4.768589E+03	1.163082E-02	4.076354E-05
4.778544E+03	1.104883E-02	3.859025E-05
4.788500E+03	1.053552E-02	3.667493E-05
4.798455E+03	1.009887E-02	3.504198E-05
4.808410E+03	9.743324E-03	3.370352E-05
4.818366E+03	9.470111E-03	3.266050E-05
4.828321E+03	9.277754E-03	3.190485E-05
4.838276E+03	9.163154E-03	3.142313E-05
4.848231E+03	9.121211E-03	3.119541E-05
4.858187E+03	9.145276E-03	3.119681E-05
4.868142E+03	9.226473E-03	3.139526E-05
4.878097E+03	9.354393E-03	3.175391E-05
4.888053E+03	9.516090E-03	3.222775E-05
4.898008E+03	9.697326E-03	3.276786E-05
4.907963E+03	9.883023E-03	3.332296E-05
4.917919E+03	1.005867E-02	3.384414E-05
4.927874E+03	1.021098E-02	3.428702E-05
4.937829E+03	1.032971E-02	3.461767E-05
4.947784E+03	1.040826E-02	3.481465E-05
4.957740E+03	1.044378E-02	3.486909E-05
4.967695E+03	1.043780E-02	3.478680E-05
4.977650E+03	1.039584E-02	3.458671E-05
4.987606E+03	1.032611E-02	3.429662E-05
4.997561E+03	1.023812E-02	3.394832E-05
5.007516E+03	1.014199E-02	3.357544E-05
5.017472E+03	1.004706E-02	3.320890E-05
5.027427E+03	9.961328E-03	3.287485E-05
5.037382E+03	9.890838E-03	3.259297E-05
5.047337E+03	9.839932E-03	3.237718E-05
5.057293E+03	9.811348E-03	3.223608E-05
5.067248E+03	9.806064E-03	3.217245E-05
5.077203E+03	9.824419E-03	3.218698E-05
5.087159E+03	9.866230E-03	3.227865E-05
5.097114E+03	9.931529E-03	3.244718E-05
5.107069E+03	1.002078E-02	3.269366E-05
5.117025E+03	1.013504E-02	3.302120E-05
5.126980E+03	1.027596E-02	3.343473E-05
5.136935E+03	1.044593E-02	3.394159E-05
5.146890E+03	1.064731E-02	3.454900E-05
5.156846E+03	1.088273E-02	3.526504E-05
5.166801E+03	1.115423E-02	3.609579E-05
5.176756E+03	1.146307E-02	3.704478E-05
5.186712E+03	1.180910E-02	3.811095E-05
5.196667E+03	1.219048E-02	3.928786E-05
5.206622E+03	1.260323E-02	4.056214E-05
5.216578E+03	1.304165E-02	4.191496E-05
5.226533E+03	1.349728E-02	4.331879E-05
5.236488E+03	1.396047E-02	4.474239E-05
5.246443E+03	1.441950E-02	4.614808E-05
5.256399E+03	1.486211E-02	4.749664E-05
5.266354E+03	1.527546E-02	4.874727E-05
5.276309E+03	1.564713E-02	4.986072E-05
5.286265E+03	1.596615E-02	5.080263E-05
5.296220E+03	1.622295E-02	5.154325E-05
5.306175E+03	1.641077E-02	5.206203E-05
5.316131E+03	1.652527E-02	5.234614E-05
5.326086E+03	1.656490E-02	5.239177E-05
5.336041E+03	1.653108E-02	5.220445E-05
5.345996E+03	1.642770E-02	5.179755E-05
5.355952E+03	1.626070E-02	5.119084E-05
5.365907E+03	1.603732E-02	5.040804E-05
5.375862E+03	1.576652E-02	4.947821E-05
5.385818E+03	1.545798E-02	4.843237E-05
5.395773E+03	1.512250E-02	4.730500E-05
5.405728E+03	1.477152E-02	4.613225E-05
5.415684E+03	1.441866E-02	4.495692E-05
5.425639E+03	1.407914E-02	4.382649E-05
5.435594E+03	1.377114E-02	4.279729E-05
5.445549E+03	1.351441E-02	4.193020E-05
5.455505E+03	1.333030E-02	4.129061E-05
5.465460E+03	1.323944E-02	4.094120E-05
5.475415E+03	1.324739E-02	4.089754E-05
5.485371E+03	1.332698E-02	4.107437E-05
5.495326E+03	1.344138E-02	4.135710E-05
5.505281E+03	1.355632E-02	4.163983E-05
5.515237E+03	1.364229E-02	4.183201E-05
5.525192E+03	1.367712E-02	4.186608E-05
5.535147E+03	1.364626E-02	4.169838E-05
5.545102E+03	1.354312E-02	4.130976E-05
5.555058E+03	1.336788E-02	4.070191E-05
5.565013E+03	1.312662E-02	3.989446E-05
5.574968E+03	1.282954E-02	3.891946E-05
5.584924E+03	1.248943E-02	3.781655E-05
5.594879E+03	1.212035E-02	3.662904E-05
5.604834E+03	1.173685E-02	3.540133E-05
5.614790E+03	1.135246E-02	3.417444E-05
5.624745E+03	1.097977E-02	3.298635E-05
5.634700E+03	1.062977E-02	3.186981E-05
5.644655E+03	1.031195E-02	3.085289E-05
5.654611E+03	1.003418E-02	2.995859E-05
5.664566E+03	9.802971E-03	2.920556E-05
5.674521E+03	9.623699E-03	2.860898E-05
5.684477E+03	9.500669E-03	2.818066E-05
5.694432E+03	9.437024E-03	2.792880E-05
5.704387E+03	9.435205E-03	2.785947E-05
5.714343E+03	9.496521E-03	2.797525E-05
5.724298E+03	9.621050E-03	2.827508E-05
5.734253E+03	9.807747E-03	2.875455E-05
5.744209E+03	1.005359E-02	2.940349E-05
5.754164E+03	1.035404E-02	3.020733E-05
5.764119E+03	1.070209E-02	3.114444E-05
5.774074E+03	1.108868E-02	3.218748E-05
5.784030E+03	1.150236E-02	3.330236E-05
5.793985E+03	1.192964E-02	3.444947E-05
5.803940E+03	1.235574E-02	3.558591E-05
5.813896E+03	1.276509E-02	3.666698E-05
5.823851E+03	1.314295E-02	3.765086E-05
5.833806E+03	1.347631E-02	3.850107E-05
5.843762E+03	1.375494E-02	3.918958E-05
5.853717E+03	1.397251E-02	3.969978E-05
5.863672E+03	1.412558E-02	4.002342E-05
5.873627E+03	1.421457E-02	4.016330E-05
5.883583E+03	1.424218E-02	4.012872E-05
5.893538E+03	1.421337E-02	3.993515E-05
5.903493E+03	1.413462E-02	3.960222E-05
5.913449E+03	1.401276E-02	3.915038E-05
5.923404E+03	1.385541E-02	3.860196E-05
5.933359E+03	1.367003E-02	3.797873E-05
5.943315E+03	1.346331E-02	3.729997E-05
5.953270E+03	1.324199E-02	3.658491E-05
5.963225E+03	1.301212E-02	3.585071E-05
5.973180E+03	1.277899E-02	3.511222E-05
5.983136E+03	1.254735E-02	3.438257E-05
5.993091E+03	1.232112E-02	3.367261E-05
6.003046E+03	1.210326E-02	3.299036E-05
6.013002E+03	1.189600E-02	3.234177E-05
6.022957E+03	1.170079E-02	3.173063E-05
6.032912E+03	1.151774E-02	3.115711E-05
6.042868E+03	1.134703E-02	3.062150E-05
6.052823E+03	1.118767E-02	3.012098E-05
6.062778E+03	1.103911E-02	2.965394E-05
6.072733E+03	1.090016E-02	2.921708E-05
6.082689E+03	1.077048E-02	2.880936E-05
6.092644E+03	1.064988E-02	2.843026E-05
6.102599E+03	1.053942E-02	2.808247E-05
6.112555E+03	1.044056E-02	2.776987E-05
6.122510E+03	1.035564E-02	2.749856E-05
6.132465E+03	1.028761E-02	2.727625E-05
6.142421E+03	1.023856E-02	2.710843E-05
6.152376E+03	1.020924E-02	2.699693E-05
6.162331E+03	1.019685E-02	2.693435E-05
6.172286E+03	1.019379E-02	2.690055E-05
6.182242E+03	1.018645E-02	2.685958E-05
6.192197E+03	1.015492E-02	2.675895E-05
6.202152E+03	1.007407E-02	2.653252E-05
6.212108E+03	9.921114E-03	2.612040E-05
6.222063E+03	9.701128E-03	2.553591E-05
6.232018E+03	9.454979E-03	2.488643E-05
6.241974E+03	9.222879E-03	2.427751E-05
6.251929E+03	9.034223E-03	2.378624E-05
6.261884E+03	8.906183E-03	2.345770E-05
6.271839E+03	8.845867E-03	2.331059E-05
6.281795E+03	8.853275E-03	2.334508E-05
6.291750E+03	8.923466E-03	2.354846E-05
6.301705E+03	9.048426E-03	2.389995E-05
6.311661E+03	9.217650E-03	2.437229E-05
6.321616E+03	9.419504E-03	2.493516E-05
6.331571E+03	9.641379E-03	2.555562E-05
6.341527E+03	9.870316E-03	2.619964E-05
6.351482E+03	1.009354E-02	2.683353E-05
6.361437E+03	1.029899E-02	2.742528E-05
6.371392E+03	1.047599E-02	2.794630E-05
6.381348E+03	1.061573E-02	2.837270E-05
6.391303E+03	1.071222E-02	2.868775E-05
6.401258E+03	1.076216E-02	2.888182E-05
6.411214E+03	1.076549E-02	2.895374E-05
6.421169E+03	1.072503E-02	2.891016E-05
6.431124E+03	1.064587E-02	2.876371E-05
6.441080E+03	1.053560E-02	2.853402E-05
6.451035E+03	1.040299E-02	2.824402E-05
6.460990E+03	1.025789E-02	2.791979E-05
6.470945E+03	1.011022E-02	2.758794E-05
6.480901E+03	9.970400E-03	2.727664E-05
6.490856E+03	9.847966E-03	2.701200E-05
6.500811E+03	9.751747E-03	2.681847E-05
6.510767E+03	9.686543E-03	2.670966E-05
6.520722E+03	9.652804E-03	2.668731E-05
6.530677E+03	9.649589E-03	2.674934E-05
6.540633E+03	9.674759E-03	2.689033E-05
6.550588E+03	9.725960E-03	2.710419E-05
6.560543E+03	9.800080E-03	2.738265E-05
6.570498E+03	9.892761E-03	2.771385E-05
6.580454E+03	9.999524E-03	2.808547E-05
6.590409E+03	1.011457E-02	2.848133E-05
6.600364E+03	1.023229E-02	2.888560E-05
6.610320E+03	1.034623E-02	2.927995E-05
6.620275E+03	1.045063E-02	2.964776E-05
6.630230E+03	1.054002E-02	2.997315E-05
6.640186E+03	1.060955E-02	3.024179E-05
6.650141E+03	1.065575E-02	3.044325E-05
6.660096E+03	1.067594E-02	3.056928E-05
6.670051E+03	1.066880E-02	3.061547E-05
6.680007E+03	1.063436E-02	3.058127E-05
6.689962E+03	1.057335E-02	3.046823E-05
6.699917E+03	1.048742E-02	3.028060E-05
6.709873E+03	1.037958E-02	3.002658E-05
6.719828E+03	1.025265E-02	2.971397E-05
6.729783E+03	1.011033E-02	2.935324E-05
6.739739E+03	9.956301E-03	2.895487E-05
6.749694E+03	9.794037E-03	2.852883E-05
6.759649E+03	9.627011E-03	2.808520E-05
6.769604E+03	9.458439E-03	2.763336E-05
6.779560E+03	9.291455E-03	2.718255E-05
6.789515E+03	9.128633E-03	2.674039E-05
6.799470E+03	8.972372E-03	2.631405E-05
6.809426E+03	8.825210E-03	2.591114E-05
6.819381E+03	8.689300E-03	2.553815E-05
6.829336E+03	8.566563E-03	2.520092E-05
6.839292E+03	8.458534E-03	2.490416E-05
6.849247E+03	8.366664E-03	2.465230E-05
6.859202E+03	8.292307E-03	2.444952E-05
6.869157E+03	8.236217E-03	2.429820E-05
6.879113E+03	8.198986E-03	2.420021E-05
6.889068E+03	8.180826E-03	2.415630E-05
6.899023E+03	8.181568E-03	2.416605E-05
6.908979E+03	8.200646E-03	2.422785E-05
6.918934E+03	8.237071E-03	2.433881E-05
6.928889E+03	8.289236E-03	2.449419E-05
6.938845E+03	8.355191E-03	2.468822E-05
6.948800E+03	8.432609E-03	2.491400E-05
6.958755E+03	8.518511E-03	2.516267E-05
6.968710E+03	8.609122E-03	2.542305E-05
6.978666E+03	8.700951E-03	2.568480E-05
6.988621E+03	8.789797E-03	2.593549E-05
6.998576E+03	8.871635E-03	2.616324E-05
7.008532E+03	8.942480E-03	2.635634E-05
7.018487E+03	8.999117E-03	2.650539E-05
7.028442E+03	9.038768E-03	2.660231E-05
7.038398E+03	9.059449E-03	2.664144E-05
7.048353E+03	9.059893E-03	2.661924E-05
7.058308E+03	9.040002E-03	2.653565E-05
7.068263E+03	9.000909E-03	2.639426E-05
7.078219E+03	8.944317E-03	2.620033E-05
7.088174E+03	8.872704E-03	2.596139E-05
7.098129E+03	8.789707E-03	2.568835E-05
7.108085E+03	8.698734E-03	2.539140E-05
7.118040E+03	8.603340E-03	2.508113E-05
7.127995E+03	8.506629E-03	2.476676E-05
7.137951E+03	8.411643E-03	2.445728E-05
7.147906E+03	8.320731E-03	2.415964E-05
7.157861E+03	8.235509E-03	2.387861E-05
7.167817E+03	8.157211E-03	2.361783E-05
7.177772E+03	8.086723E-03	2.337990E-05
7.187727E+03	8.024125E-03	2.316509E-05
7.197682E+03	7.969285E-03	2.297305E-05
7.207638E+03	7.921792E-03	2.280263E-05
7.217593E+03	7.881030E-03	2.265209E-05
7.227548E+03	7.846109E-03	2.251894E-05
7.237504E+03	7.816571E-03	2.240191E-05
7.247459E+03	7.791455E-03	2.229834E-05
7.257414E+03	7.769678E-03	2.220521E-05
7.267370E+03	7.751016E-03	2.212199E-05
7.277325E+03	7.734337E-03	2.204555E-05
7.287280E+03	7.719425E-03	2.197542E-05
7.297235E+03	7.705690E-03	2.191004E-05
7.307191E+03	7.692832E-03	2.184871E-05
7.317146E+03	7.680493E-03	2.179056E-05
7.327101E+03	7.668549E-03	2.173538E-05
7.337057E+03	7.656896E-03	2.168305E-05
7.347012E+03	7.645369E-03	2.163326E-05
7.356967E+03	7.633333E-03	2.158436E-05
7.366923E+03	7.620452E-03	2.153557E-05
7.376878E+03	7.605655E-03	2.148404E-05
7.386833E+03	7.587812E-03	2.142674E-05
7.396788E+03	7.565584E-03	2.136005E-05
7.406744E+03	7.537861E-03	2.128100E-05
7.416699E+03	7.503400E-03	2.118620E-05
7.426654E+03	7.461439E-03	2.107364E-05
7.436610E+03	7.411475E-03	2.094197E-05
7.446565E+03	7.352864E-03	2.078944E-05
7.456520E+03	7.285725E-03	2.061630E-05
7.466476E+03	7.210768E-03	2.042440E-05
7.476431E+03	7.128471E-03	2.021487E-05
7.486386E+03	7.040333E-03	1.999178E-05
7.496341E+03	6.947883E-03	1.975923E-05
7.506297E+03	6.852937E-03	1.952220E-05
7.516252E+03	6.757553E-03	1.928635E-05
7.526207E+03	6.663976E-03	1.905793E-05
7.536163E+03	6.574753E-03	1.884413E-05
7.546118E+03	6.492221E-03	1.865157E-05
7.556073E+03	6.419079E-03	1.848803E-05
7.566029E+03	6.357704E-03	1.836045E-05
7.575984E+03	6.310491E-03	1.827593E-05
7.585939E+03	6.278560E-03	1.823799E-05
7.595894E+03	6.260682E-03	1.824337E-05
7.605850E+03	6.254795E-03	1.828639E-05
7.615805E+03	6.258558E-03	1.836050E-05
7.625760E+03	6.269676E-03	1.845923E-05
7.635716E+03	6.286452E-03	1.857778E-05
7.645671E+03	6.307199E-03	1.871135E-05
7.655626E+03	6.331022E-03	1.885742E-05
7.665582E+03	6.356750E-03	1.901261E-05
7.675537E+03	6.383958E-03	1.917574E-05
7.685492E+03	6.412164E-03	1.934544E-05
7.695447E+03	6.441379E-03	1.952180E-05
7.705403E+03	6.471592E-03	1.970486E-05
7.715358E+03	6.502842E-03	1.989482E-05
7.725313E+03	6.534988E-03	2.009131E-05
