#wls	flux	fluxerr
1.592848E+03	2.022598E-04	1.490523E-05
1.632669E+03	2.100140E-04	1.538739E-05
1.672491E+03	2.174052E-04	1.583432E-05
1.712312E+03	2.243067E-04	1.623705E-05
1.752133E+03	2.306231E-04	1.658911E-05
1.791954E+03	2.360685E-04	1.687065E-05
1.831775E+03	2.402646E-04	1.705580E-05
1.871597E+03	2.427594E-04	1.711433E-05
1.911418E+03	2.430652E-04	1.701446E-05
1.951239E+03	2.408942E-04	1.673941E-05
1.991060E+03	2.364091E-04	1.630427E-05
2.030881E+03	2.306109E-04	1.578125E-05
2.070703E+03	2.256331E-04	1.531747E-05
2.110524E+03	2.245035E-04	1.511560E-05
2.150345E+03	2.300791E-04	1.535994E-05
2.190166E+03	2.439292E-04	1.614264E-05
2.229987E+03	2.660082E-04	1.744572E-05
2.269809E+03	2.949784E-04	1.916675E-05
2.309630E+03	3.290342E-04	2.117588E-05
2.349451E+03	3.665410E-04	2.335815E-05
2.389272E+03	4.062354E-04	2.562587E-05
2.429093E+03	4.474629E-04	2.793239E-05
2.468915E+03	4.897657E-04	3.024478E-05
2.508736E+03	5.330147E-04	3.255132E-05
2.548557E+03	5.770793E-04	3.484045E-05
2.588378E+03	6.219617E-04	3.710885E-05
2.628199E+03	6.675397E-04	3.934578E-05
2.668021E+03	7.136578E-04	4.153885E-05
2.707842E+03	7.600463E-04	4.366956E-05
2.747663E+03	8.063742E-04	4.571670E-05
2.787484E+03	8.520803E-04	4.764722E-05
2.827305E+03	8.966684E-04	4.943343E-05
2.867127E+03	9.394772E-04	5.104038E-05
2.906948E+03	9.800112E-04	5.244423E-05
2.946769E+03	1.017808E-03	5.362474E-05
2.986590E+03	1.052527E-03	5.456965E-05
2.996546E+03	1.060699E-03	5.476850E-05
3.006501E+03	1.068621E-03	5.495014E-05
3.016456E+03	1.076305E-03	5.511542E-05
3.026411E+03	1.083783E-03	5.526603E-05
3.036367E+03	1.091108E-03	5.540486E-05
3.046322E+03	1.098337E-03	5.553482E-05
3.056277E+03	1.105486E-03	5.565677E-05
3.066233E+03	1.112486E-03	5.576734E-05
3.076188E+03	1.119299E-03	5.586466E-05
3.086143E+03	1.125945E-03	5.594985E-05
3.096099E+03	1.132389E-03	5.602129E-05
3.106054E+03	1.138624E-03	5.607877E-05
3.116009E+03	1.144565E-03	5.611825E-05
3.125964E+03	1.150290E-03	5.614369E-05
3.135920E+03	1.155718E-03	5.615130E-05
3.145875E+03	1.160849E-03	5.614129E-05
3.155830E+03	1.165683E-03	5.611387E-05
3.165786E+03	1.170199E-03	5.606819E-05
3.175741E+03	1.174402E-03	5.600472E-05
3.185696E+03	1.178273E-03	5.592273E-05
3.195652E+03	1.181819E-03	5.582281E-05
3.205607E+03	1.185025E-03	5.570451E-05
3.215562E+03	1.187903E-03	5.556856E-05
3.225517E+03	1.190444E-03	5.541476E-05
3.235473E+03	1.192639E-03	5.524298E-05
3.245428E+03	1.194503E-03	5.505414E-05
3.255383E+03	1.196036E-03	5.484845E-05
3.265339E+03	1.197257E-03	5.462706E-05
3.275294E+03	1.198168E-03	5.439017E-05
3.285249E+03	1.198771E-03	5.413825E-05
3.295205E+03	1.199075E-03	5.387178E-05
3.305160E+03	1.199105E-03	5.359223E-05
3.315115E+03	1.198875E-03	5.330030E-05
3.325070E+03	1.198395E-03	5.299668E-05
3.335026E+03	1.197682E-03	5.268231E-05
3.344981E+03	1.196733E-03	5.235723E-05
3.354936E+03	1.195588E-03	5.202337E-05
3.364892E+03	1.194250E-03	5.168103E-05
3.374847E+03	1.192762E-03	5.133214E-05
3.384802E+03	1.191135E-03	5.097731E-05
3.394758E+03	1.189362E-03	5.061641E-05
3.404713E+03	1.187513E-03	5.025250E-05
3.414668E+03	1.185573E-03	4.988499E-05
3.424623E+03	1.183584E-03	4.951570E-05
3.434579E+03	1.181573E-03	4.914589E-05
3.444534E+03	1.179575E-03	4.877697E-05
3.454489E+03	1.177613E-03	4.840989E-05
3.464445E+03	1.175733E-03	4.804653E-05
3.474400E+03	1.173955E-03	4.768770E-05
3.484355E+03	1.172354E-03	4.733629E-05
3.494311E+03	1.170965E-03	4.699366E-05
3.504266E+03	1.169835E-03	4.666152E-05
3.514221E+03	1.169032E-03	4.634238E-05
3.524176E+03	1.168595E-03	4.603754E-05
3.534132E+03	1.168598E-03	4.574967E-05
3.544087E+03	1.169126E-03	4.548177E-05
3.554042E+03	1.170262E-03	4.523665E-05
3.563998E+03	1.172098E-03	4.501742E-05
3.573953E+03	1.174725E-03	4.482703E-05
3.583908E+03	1.178283E-03	4.467021E-05
3.593864E+03	1.182823E-03	4.454822E-05
3.603819E+03	1.188422E-03	4.446323E-05
3.613774E+03	1.195160E-03	4.441744E-05
3.623729E+03	1.203129E-03	4.441334E-05
3.633685E+03	1.212425E-03	4.445357E-05
3.643640E+03	1.223160E-03	4.454126E-05
3.653595E+03	1.235470E-03	4.468020E-05
3.663551E+03	1.249481E-03	4.487376E-05
3.673506E+03	1.265314E-03	4.512493E-05
3.683461E+03	1.283140E-03	4.543842E-05
3.693417E+03	1.303086E-03	4.581721E-05
3.703372E+03	1.325314E-03	4.626535E-05
3.713327E+03	1.349977E-03	4.678642E-05
3.723282E+03	1.377236E-03	4.738410E-05
3.733238E+03	1.407225E-03	4.806098E-05
3.743193E+03	1.440089E-03	4.881998E-05
3.753148E+03	1.475982E-03	4.966404E-05
3.763104E+03	1.514999E-03	5.059405E-05
3.773059E+03	1.557244E-03	5.161114E-05
3.783014E+03	1.602794E-03	5.271530E-05
3.792970E+03	1.651694E-03	5.390557E-05
3.802925E+03	1.703935E-03	5.517909E-05
3.812880E+03	1.759476E-03	5.653201E-05
3.822835E+03	1.818235E-03	5.795920E-05
3.832791E+03	1.880020E-03	5.945221E-05
3.842746E+03	1.944615E-03	6.100193E-05
3.852701E+03	2.011706E-03	6.259646E-05
3.862657E+03	2.080883E-03	6.422132E-05
3.872612E+03	2.151659E-03	6.586002E-05
3.882567E+03	2.223466E-03	6.749414E-05
3.892523E+03	2.295634E-03	6.910277E-05
3.902478E+03	2.367462E-03	7.066473E-05
3.912433E+03	2.438135E-03	7.215626E-05
3.922388E+03	2.506858E-03	7.355495E-05
3.932344E+03	2.572812E-03	7.483854E-05
3.942299E+03	2.635154E-03	7.598489E-05
3.952254E+03	2.693132E-03	7.697531E-05
3.962210E+03	2.746071E-03	7.779408E-05
3.972165E+03	2.793410E-03	7.842938E-05
3.982120E+03	2.834676E-03	7.887237E-05
3.992076E+03	2.869599E-03	7.912031E-05
4.002031E+03	2.898074E-03	7.917520E-05
4.011986E+03	2.920144E-03	7.904320E-05
4.021941E+03	2.936023E-03	7.873497E-05
4.031897E+03	2.946104E-03	7.826570E-05
4.041852E+03	2.950894E-03	7.765322E-05
4.051807E+03	2.950990E-03	7.691715E-05
4.061763E+03	2.947146E-03	7.608054E-05
4.071718E+03	2.940105E-03	7.516543E-05
4.081673E+03	2.930679E-03	7.419488E-05
4.091629E+03	2.919666E-03	7.319073E-05
4.101584E+03	2.907820E-03	7.217296E-05
4.111539E+03	2.895927E-03	7.116160E-05
4.121494E+03	2.884659E-03	7.017310E-05
4.131450E+03	2.874650E-03	6.922233E-05
4.141405E+03	2.866490E-03	6.832254E-05
4.151360E+03	2.860683E-03	6.748435E-05
4.161316E+03	2.857660E-03	6.671617E-05
4.171271E+03	2.857804E-03	6.602496E-05
4.181226E+03	2.861378E-03	6.541450E-05
4.191182E+03	2.868641E-03	6.488831E-05
4.201137E+03	2.879706E-03	6.444640E-05
4.211092E+03	2.894673E-03	6.408841E-05
4.221047E+03	2.913500E-03	6.381078E-05
4.231003E+03	2.936150E-03	6.361016E-05
4.240958E+03	2.962441E-03	6.348015E-05
4.250913E+03	2.992136E-03	6.341337E-05
4.260869E+03	3.024920E-03	6.340112E-05
4.270824E+03	3.060460E-03	6.343456E-05
4.280779E+03	3.098342E-03	6.350363E-05
4.290735E+03	3.138074E-03	6.359708E-05
4.300690E+03	3.179190E-03	6.370459E-05
4.310645E+03	3.221184E-03	6.381557E-05
4.320601E+03	3.263593E-03	6.392078E-05
4.330556E+03	3.306002E-03	6.401227E-05
4.340511E+03	3.348028E-03	6.408315E-05
4.350466E+03	3.389384E-03	6.412866E-05
4.360422E+03	3.429843E-03	6.414545E-05
4.370377E+03	3.469515E-03	6.413658E-05
4.380332E+03	3.508925E-03	6.411263E-05
4.390288E+03	3.549218E-03	6.409493E-05
4.400243E+03	3.591680E-03	6.410635E-05
4.410198E+03	3.637792E-03	6.417216E-05
4.420154E+03	3.689112E-03	6.431784E-05
4.430109E+03	3.747212E-03	6.456788E-05
4.440064E+03	3.813608E-03	6.494460E-05
4.450019E+03	3.889736E-03	6.546797E-05
4.459975E+03	3.976904E-03	6.615477E-05
4.469930E+03	4.076058E-03	6.701496E-05
4.479885E+03	4.188031E-03	6.805583E-05
4.489841E+03	4.313262E-03	6.927789E-05
4.499796E+03	4.451764E-03	7.067473E-05
4.509751E+03	4.603183E-03	7.223444E-05
4.519707E+03	4.766633E-03	7.393718E-05
4.529662E+03	4.940714E-03	7.575618E-05
4.539617E+03	5.123368E-03	7.765580E-05
4.549572E+03	5.312058E-03	7.959478E-05
4.559528E+03	5.503537E-03	8.152326E-05
4.569483E+03	5.694167E-03	8.338790E-05
4.579438E+03	5.879712E-03	8.512916E-05
4.589394E+03	6.055913E-03	8.668993E-05
4.599349E+03	6.218197E-03	8.801133E-05
4.609304E+03	6.362314E-03	8.904177E-05
4.619260E+03	6.484410E-03	8.973763E-05
4.629215E+03	6.581210E-03	9.006528E-05
4.639170E+03	6.650200E-03	9.000308E-05
4.649125E+03	6.690003E-03	8.954576E-05
4.659081E+03	6.700074E-03	8.869947E-05
4.669036E+03	6.681243E-03	8.748825E-05
4.678991E+03	6.635030E-03	8.594419E-05
4.688947E+03	6.564186E-03	8.411389E-05
4.698902E+03	6.472126E-03	8.205047E-05
4.708857E+03	6.362848E-03	7.981217E-05
4.718813E+03	6.240722E-03	7.745943E-05
4.728768E+03	6.110326E-03	7.505274E-05
4.738723E+03	5.976143E-03	7.264889E-05
4.748678E+03	5.842428E-03	7.029963E-05
4.758634E+03	5.713146E-03	6.805108E-05
4.768589E+03	5.591865E-03	6.594284E-05
4.778544E+03	5.481859E-03	6.400943E-05
4.788500E+03	5.385876E-03	6.227799E-05
4.798455E+03	5.306056E-03	6.076760E-05
4.808410E+03	5.243997E-03	5.949050E-05
4.818366E+03	5.200648E-03	5.845121E-05
4.828321E+03	5.176569E-03	5.764983E-05
4.838276E+03	5.171797E-03	5.708072E-05
4.848231E+03	5.186096E-03	5.673501E-05
4.858187E+03	5.218853E-03	5.659973E-05
4.868142E+03	5.269047E-03	5.665798E-05
4.878097E+03	5.335375E-03	5.689047E-05
4.888053E+03	5.415978E-03	5.727269E-05
4.898008E+03	5.508605E-03	5.777676E-05
4.907963E+03	5.610176E-03	5.836710E-05
4.917919E+03	5.717068E-03	5.900357E-05
4.927874E+03	5.824930E-03	5.963983E-05
4.937829E+03	5.928855E-03	6.022523E-05
4.947784E+03	6.023623E-03	6.070758E-05
4.957740E+03	6.104050E-03	6.103657E-05
4.967695E+03	6.165718E-03	6.117104E-05
4.977650E+03	6.205077E-03	6.107971E-05
4.987606E+03	6.220229E-03	6.074847E-05
4.997561E+03	6.210919E-03	6.017965E-05
5.007516E+03	6.178579E-03	5.939192E-05
5.017472E+03	6.126073E-03	5.841717E-05
5.027427E+03	6.057243E-03	5.729571E-05
5.037382E+03	5.976624E-03	5.607325E-05
5.047337E+03	5.888854E-03	5.479518E-05
5.057293E+03	5.798324E-03	5.350323E-05
5.067248E+03	5.709063E-03	5.223459E-05
5.077203E+03	5.624348E-03	5.101841E-05
5.087159E+03	5.546812E-03	4.987710E-05
5.097114E+03	5.478263E-03	4.882494E-05
5.107069E+03	5.420015E-03	4.787130E-05
5.117025E+03	5.372832E-03	4.702036E-05
5.126980E+03	5.337483E-03	4.627609E-05
5.136935E+03	5.314501E-03	4.564022E-05
5.146890E+03	5.304696E-03	4.511667E-05
5.156846E+03	5.308808E-03	4.470850E-05
5.166801E+03	5.327820E-03	4.442057E-05
5.176756E+03	5.362620E-03	4.425663E-05
5.186712E+03	5.414072E-03	4.421996E-05
5.196667E+03	5.482724E-03	4.431103E-05
5.206622E+03	5.568609E-03	4.452602E-05
5.216578E+03	5.671433E-03	4.485862E-05
5.226533E+03	5.790116E-03	4.529653E-05
5.236488E+03	5.922912E-03	4.582281E-05
5.246443E+03	6.067489E-03	4.641679E-05
5.256399E+03	6.220786E-03	4.705328E-05
5.266354E+03	6.379131E-03	4.770377E-05
5.276309E+03	6.538191E-03	4.833637E-05
5.286265E+03	6.693507E-03	4.891999E-05
5.296220E+03	6.840231E-03	4.942246E-05
5.306175E+03	6.973604E-03	4.981406E-05
5.316131E+03	7.089063E-03	5.006821E-05
5.326086E+03	7.182694E-03	5.016441E-05
5.336041E+03	7.251233E-03	5.008789E-05
5.345996E+03	7.292583E-03	4.983275E-05
5.355952E+03	7.305695E-03	4.940063E-05
5.365907E+03	7.291192E-03	4.880428E-05
5.375862E+03	7.251180E-03	4.806574E-05
5.385818E+03	7.189291E-03	4.721599E-05
5.395773E+03	7.110715E-03	4.629473E-05
5.405728E+03	7.022005E-03	4.534876E-05
5.415684E+03	6.930413E-03	4.442753E-05
5.425639E+03	6.844072E-03	4.358442E-05
5.435594E+03	6.771149E-03	4.287157E-05
5.445549E+03	6.719528E-03	4.233830E-05
5.455505E+03	6.696377E-03	4.202895E-05
5.465460E+03	6.707630E-03	4.198023E-05
5.475415E+03	6.753685E-03	4.219495E-05
5.485371E+03	6.824348E-03	4.261020E-05
5.495326E+03	6.905834E-03	4.313909E-05
5.505281E+03	6.983441E-03	4.368868E-05
5.515237E+03	7.043213E-03	4.416992E-05
5.525192E+03	7.072935E-03	4.450313E-05
5.535147E+03	7.063349E-03	4.462529E-05
5.545102E+03	7.008885E-03	4.449467E-05
5.555058E+03	6.908120E-03	4.409414E-05
5.565013E+03	6.763490E-03	4.343021E-05
5.574968E+03	6.580769E-03	4.253056E-05
5.584924E+03	6.367938E-03	4.143774E-05
5.594879E+03	6.134718E-03	4.020699E-05
5.604834E+03	5.891132E-03	3.889751E-05
5.614790E+03	5.647141E-03	3.757032E-05
5.624745E+03	5.412035E-03	3.628441E-05
5.634700E+03	5.193738E-03	3.509191E-05
5.644655E+03	4.999022E-03	3.403929E-05
5.654611E+03	4.833203E-03	3.316487E-05
5.664566E+03	4.700373E-03	3.249996E-05
5.674521E+03	4.603522E-03	3.206930E-05
5.684477E+03	4.544596E-03	3.189100E-05
5.694432E+03	4.524714E-03	3.197773E-05
5.704387E+03	4.544471E-03	3.233851E-05
5.714343E+03	4.604166E-03	3.298013E-05
5.724298E+03	4.703735E-03	3.390646E-05
5.734253E+03	4.842969E-03	3.511991E-05
5.744209E+03	5.021242E-03	3.661931E-05
5.754164E+03	5.237316E-03	3.839834E-05
5.764119E+03	5.489257E-03	4.044478E-05
5.774074E+03	5.774030E-03	4.273734E-05
5.784030E+03	6.087339E-03	4.524436E-05
5.793985E+03	6.423533E-03	4.792296E-05
5.803940E+03	6.775676E-03	5.071951E-05
5.813896E+03	7.135746E-03	5.357113E-05
5.823851E+03	7.495051E-03	5.640895E-05
5.833806E+03	7.844417E-03	5.915977E-05
5.843762E+03	8.175019E-03	6.175253E-05
5.853717E+03	8.478590E-03	6.412031E-05
5.863672E+03	8.747936E-03	6.620453E-05
5.873627E+03	8.977354E-03	6.795840E-05
5.883583E+03	9.162435E-03	6.934576E-05
5.893538E+03	9.300975E-03	7.034810E-05
5.903493E+03	9.392023E-03	7.095745E-05
5.913449E+03	9.436175E-03	7.117860E-05
5.923404E+03	9.435861E-03	7.103122E-05
5.933359E+03	9.394134E-03	7.054051E-05
5.943315E+03	9.315326E-03	6.974198E-05
5.953270E+03	9.204486E-03	6.867699E-05
5.963225E+03	9.067026E-03	6.738980E-05
5.973180E+03	8.908605E-03	6.592654E-05
5.983136E+03	8.734930E-03	6.433341E-05
5.993091E+03	8.551754E-03	6.265655E-05
6.003046E+03	8.364156E-03	6.093655E-05
6.013002E+03	8.176924E-03	5.921115E-05
6.022957E+03	7.994222E-03	5.751282E-05
6.032912E+03	7.819400E-03	5.586738E-05
6.042868E+03	7.655181E-03	5.429542E-05
6.052823E+03	7.503556E-03	5.281168E-05
6.062778E+03	7.365664E-03	5.142436E-05
6.072733E+03	7.242427E-03	5.013970E-05
6.082689E+03	7.133887E-03	4.895755E-05
6.092644E+03	7.039997E-03	4.787700E-05
6.102599E+03	6.960046E-03	4.689254E-05
6.112555E+03	6.893035E-03	4.599685E-05
6.122510E+03	6.837590E-03	4.518033E-05
6.132465E+03	6.792136E-03	4.443242E-05
6.142421E+03	6.754336E-03	4.373807E-05
6.152376E+03	6.721553E-03	4.308097E-05
6.162331E+03	6.690527E-03	4.244164E-05
6.172286E+03	6.658048E-03	4.180184E-05
6.182242E+03	6.620877E-03	4.114405E-05
6.192197E+03	6.575942E-03	4.045266E-05
6.202152E+03	6.520649E-03	3.971545E-05
6.212108E+03	6.453650E-03	3.892742E-05
6.222063E+03	6.375150E-03	3.809284E-05
6.232018E+03	6.287818E-03	3.723044E-05
6.241974E+03	6.195244E-03	3.636364E-05
6.251929E+03	6.101040E-03	3.551519E-05
6.261884E+03	6.009104E-03	3.470870E-05
6.271839E+03	5.922650E-03	3.396322E-05
6.281795E+03	5.844648E-03	3.329593E-05
6.291750E+03	5.777300E-03	3.271937E-05
6.301705E+03	5.722272E-03	3.224301E-05
6.311661E+03	5.680617E-03	3.187297E-05
6.321616E+03	5.652822E-03	3.161249E-05
6.331571E+03	5.638857E-03	3.146227E-05
6.341527E+03	5.638158E-03	3.142050E-05
6.351482E+03	5.649856E-03	3.148412E-05
6.361437E+03	5.672693E-03	3.164836E-05
6.371392E+03	5.705357E-03	3.190851E-05
6.381348E+03	5.746323E-03	3.225897E-05
6.391303E+03	5.794019E-03	3.269403E-05
6.401258E+03	5.846813E-03	3.320769E-05
6.411214E+03	5.903350E-03	3.379539E-05
6.421169E+03	5.962412E-03	3.445267E-05
6.431124E+03	6.022702E-03	3.517195E-05
6.441080E+03	6.083423E-03	3.594750E-05
6.451035E+03	6.143612E-03	3.677216E-05
6.460990E+03	6.202323E-03	3.763834E-05
6.470945E+03	6.258747E-03	3.853879E-05
6.480901E+03	6.311892E-03	3.946461E-05
6.490856E+03	6.360465E-03	4.040444E-05
6.500811E+03	6.403556E-03	4.134868E-05
6.510767E+03	6.442178E-03	4.229985E-05
6.520722E+03	6.480020E-03	4.327865E-05
6.530677E+03	6.520604E-03	4.430632E-05
6.540633E+03	6.567213E-03	4.540416E-05
6.550588E+03	6.621829E-03	4.658600E-05
6.560543E+03	6.685728E-03	4.786178E-05
6.570498E+03	6.758908E-03	4.923288E-05
6.580454E+03	6.840397E-03	5.069363E-05
6.590409E+03	6.928338E-03	5.223134E-05
6.600364E+03	7.019801E-03	5.382415E-05
6.610320E+03	7.111182E-03	5.544353E-05
6.620275E+03	7.198832E-03	5.705875E-05
6.630230E+03	7.278508E-03	5.863241E-05
6.640186E+03	7.346381E-03	6.012835E-05
6.650141E+03	7.399295E-03	6.151408E-05
6.660096E+03	7.434255E-03	6.275692E-05
6.670051E+03	7.449413E-03	6.383265E-05
6.680007E+03	7.443516E-03	6.472141E-05
6.689962E+03	7.416421E-03	6.541276E-05
6.699917E+03	7.368544E-03	6.590137E-05
6.709873E+03	7.301266E-03	6.619119E-05
6.719828E+03	7.216323E-03	6.629037E-05
6.729783E+03	7.116173E-03	6.621487E-05
6.739739E+03	7.003373E-03	6.598308E-05
6.749694E+03	6.880927E-03	6.561906E-05
6.759649E+03	6.751827E-03	6.514841E-05
6.769604E+03	6.618950E-03	6.459710E-05
6.779560E+03	6.485346E-03	6.399428E-05
6.789515E+03	6.353704E-03	6.336692E-05
6.799470E+03	6.226770E-03	6.274372E-05
6.809426E+03	6.106959E-03	6.215125E-05
6.819381E+03	5.996353E-03	6.161354E-05
6.829336E+03	5.896979E-03	6.115481E-05
6.839292E+03	5.810495E-03	6.079606E-05
6.849247E+03	5.738268E-03	6.055572E-05
6.859202E+03	5.681286E-03	6.044845E-05
6.869157E+03	5.640545E-03	6.048912E-05
6.879113E+03	5.616340E-03	6.068516E-05
6.889068E+03	5.608952E-03	6.104362E-05
6.899023E+03	5.618221E-03	6.156658E-05
6.908979E+03	5.643620E-03	6.225172E-05
6.918934E+03	5.684212E-03	6.309171E-05
6.928889E+03	5.738624E-03	6.407387E-05
6.938845E+03	5.805024E-03	6.517974E-05
6.948800E+03	5.881237E-03	6.638628E-05
6.958755E+03	5.964343E-03	6.766132E-05
6.968710E+03	6.051521E-03	6.897302E-05
6.978666E+03	6.139397E-03	7.028253E-05
6.988621E+03	6.224630E-03	7.155065E-05
6.998576E+03	6.303980E-03	7.273882E-05
7.008532E+03	6.374604E-03	7.381257E-05
7.018487E+03	6.433863E-03	7.473952E-05
7.028442E+03	6.479932E-03	7.549660E-05
7.038398E+03	6.511404E-03	7.606564E-05
7.048353E+03	6.527839E-03	7.643989E-05
7.058308E+03	6.529236E-03	7.661801E-05
7.068263E+03	6.516508E-03	7.660971E-05
7.078219E+03	6.490995E-03	7.643008E-05
7.088174E+03	6.454487E-03	7.609991E-05
7.098129E+03	6.409080E-03	7.564392E-05
7.108085E+03	6.356920E-03	7.508772E-05
7.118040E+03	6.300577E-03	7.446214E-05
7.127995E+03	6.242152E-03	7.379267E-05
7.137951E+03	6.183678E-03	7.310405E-05
7.147906E+03	6.126908E-03	7.241776E-05
7.157861E+03	6.073370E-03	7.175256E-05
7.167817E+03	6.024078E-03	7.112112E-05
7.177772E+03	5.979499E-03	7.052954E-05
7.187727E+03	5.939948E-03	6.998202E-05
7.197682E+03	5.905111E-03	6.947531E-05
7.207638E+03	5.874710E-03	6.900652E-05
7.217593E+03	5.847720E-03	6.856397E-05
7.227548E+03	5.823432E-03	6.813969E-05
7.237504E+03	5.800570E-03	6.771915E-05
7.247459E+03	5.778385E-03	6.729410E-05
7.257414E+03	5.755886E-03	6.685350E-05
7.267370E+03	5.732419E-03	6.639041E-05
7.277325E+03	5.707603E-03	6.590112E-05
7.287280E+03	5.681355E-03	6.538545E-05
7.297235E+03	5.653886E-03	6.484658E-05
7.307191E+03	5.625536E-03	6.428921E-05
7.317146E+03	5.596949E-03	6.372147E-05
7.327101E+03	5.568873E-03	6.315251E-05
7.337057E+03	5.542055E-03	6.259140E-05
7.347012E+03	5.516784E-03	6.204190E-05
7.356967E+03	5.493811E-03	6.151286E-05
7.366923E+03	5.473020E-03	6.100334E-05
7.376878E+03	5.454397E-03	6.051354E-05
7.386833E+03	5.437503E-03	6.003893E-05
7.396788E+03	5.421731E-03	5.957327E-05
7.406744E+03	5.406069E-03	5.910599E-05
7.416699E+03	5.389935E-03	5.863143E-05
7.426654E+03	5.371963E-03	5.813558E-05
7.436610E+03	5.350999E-03	5.760705E-05
7.446565E+03	5.326058E-03	5.703648E-05
7.456520E+03	5.296061E-03	5.641379E-05
7.466476E+03	5.260322E-03	5.573295E-05
7.476431E+03	5.218364E-03	5.498993E-05
7.486386E+03	5.170137E-03	5.418524E-05
7.496341E+03	5.116275E-03	5.332653E-05
7.506297E+03	5.057341E-03	5.242064E-05
7.516252E+03	4.994760E-03	5.148315E-05
7.526207E+03	4.929868E-03	5.052844E-05
7.536163E+03	4.864163E-03	4.957224E-05
7.546118E+03	4.799551E-03	4.863408E-05
7.556073E+03	4.737525E-03	4.772895E-05
7.566029E+03	4.679555E-03	4.687121E-05
7.575984E+03	4.626785E-03	4.607172E-05
7.585939E+03	4.580496E-03	4.534239E-05
7.595894E+03	4.541287E-03	4.468818E-05
7.605850E+03	4.509758E-03	4.411393E-05
7.615805E+03	4.486365E-03	4.362295E-05
7.625760E+03	4.471225E-03	4.321522E-05
7.635716E+03	4.464122E-03	4.288754E-05
7.645671E+03	4.464879E-03	4.263715E-05
7.655626E+03	4.472897E-03	4.245742E-05
7.665582E+03	4.487506E-03	4.234118E-05
7.675537E+03	4.507980E-03	4.228101E-05
7.685492E+03	4.533189E-03	4.226594E-05
7.695447E+03	4.562109E-03	4.228631E-05
7.705403E+03	4.593396E-03	4.232980E-05
7.715358E+03	4.625941E-03	4.238660E-05
7.725313E+03	4.658588E-03	4.244682E-05
