#wls	flux	fluxerr
1.592848E+03	4.947100E-04	1.497396E-05
1.632669E+03	5.163181E-04	1.554233E-05
1.672491E+03	5.372619E-04	1.608150E-05
1.712312E+03	5.573822E-04	1.658680E-05
1.752133E+03	5.762870E-04	1.704678E-05
1.791954E+03	5.933895E-04	1.744454E-05
1.831775E+03	6.075584E-04	1.774778E-05
1.871597E+03	6.176788E-04	1.792556E-05
1.911418E+03	6.224560E-04	1.794269E-05
1.951239E+03	6.209988E-04	1.777668E-05
1.991060E+03	6.135088E-04	1.743699E-05
2.030881E+03	6.025023E-04	1.699834E-05
2.070703E+03	5.934924E-04	1.661743E-05
2.110524E+03	5.944063E-04	1.651328E-05
2.150345E+03	6.128517E-04	1.688899E-05
2.190166E+03	6.532326E-04	1.785289E-05
2.229987E+03	7.152987E-04	1.938254E-05
2.269809E+03	7.953888E-04	2.136348E-05
2.309630E+03	8.885687E-04	2.365026E-05
2.349451E+03	9.903585E-04	2.611371E-05
2.389272E+03	1.097756E-03	2.866739E-05
2.429093E+03	1.209035E-03	3.126065E-05
2.468915E+03	1.323443E-03	3.386939E-05
2.508736E+03	1.440823E-03	3.648525E-05
2.548557E+03	1.561241E-03	3.910548E-05
2.588378E+03	1.684989E-03	4.173280E-05
2.628199E+03	1.812181E-03	4.436509E-05
2.668021E+03	1.942737E-03	4.699526E-05
2.707842E+03	2.076470E-03	4.961362E-05
2.747663E+03	2.212751E-03	5.220022E-05
2.787484E+03	2.350632E-03	5.472832E-05
2.827305E+03	2.488750E-03	5.716266E-05
2.867127E+03	2.625380E-03	5.946163E-05
2.906948E+03	2.759215E-03	6.159506E-05
2.946769E+03	2.889244E-03	6.354120E-05
2.986590E+03	3.014723E-03	6.528542E-05
2.996546E+03	3.045249E-03	6.568738E-05
3.006501E+03	3.075484E-03	6.607677E-05
3.016456E+03	3.105230E-03	6.644944E-05
3.026411E+03	3.134716E-03	6.681034E-05
3.036367E+03	3.164023E-03	6.716125E-05
3.046322E+03	3.193319E-03	6.750571E-05
3.056277E+03	3.222556E-03	6.784271E-05
3.066233E+03	3.251690E-03	6.817130E-05
3.076188E+03	3.280535E-03	6.848758E-05
3.086143E+03	3.309122E-03	6.879228E-05
3.096099E+03	3.337274E-03	6.908174E-05
3.106054E+03	3.364955E-03	6.935533E-05
3.116009E+03	3.392133E-03	6.961249E-05
3.125964E+03	3.418707E-03	6.985124E-05
3.135920E+03	3.444512E-03	7.006839E-05
3.145875E+03	3.469659E-03	7.026637E-05
3.155830E+03	3.493922E-03	7.044074E-05
3.165786E+03	3.517346E-03	7.059268E-05
3.175741E+03	3.539848E-03	7.072070E-05
3.185696E+03	3.561348E-03	7.082346E-05
3.195652E+03	3.581770E-03	7.089971E-05
3.205607E+03	3.601172E-03	7.095086E-05
3.215562E+03	3.619421E-03	7.097459E-05
3.225517E+03	3.636459E-03	7.097007E-05
3.235473E+03	3.652293E-03	7.093774E-05
3.245428E+03	3.666933E-03	7.087815E-05
3.255383E+03	3.680277E-03	7.078966E-05
3.265339E+03	3.692352E-03	7.067313E-05
3.275294E+03	3.703129E-03	7.052836E-05
3.285249E+03	3.712646E-03	7.035643E-05
3.295205E+03	3.720830E-03	7.015637E-05
3.305160E+03	3.727681E-03	6.992850E-05
3.315115E+03	3.733312E-03	6.967534E-05
3.325070E+03	3.737621E-03	6.939535E-05
3.335026E+03	3.740676E-03	6.909015E-05
3.344981E+03	3.742547E-03	6.876141E-05
3.354936E+03	3.743145E-03	6.840787E-05
3.364892E+03	3.742598E-03	6.803221E-05
3.374847E+03	3.740819E-03	6.763323E-05
3.384802E+03	3.737830E-03	6.721167E-05
3.394758E+03	3.733696E-03	6.676907E-05
3.404713E+03	3.728381E-03	6.630515E-05
3.414668E+03	3.721904E-03	6.582060E-05
3.424623E+03	3.714187E-03	6.531442E-05
3.434579E+03	3.705299E-03	6.478820E-05
3.444534E+03	3.695226E-03	6.424207E-05
3.454489E+03	3.683925E-03	6.367565E-05
3.464445E+03	3.671458E-03	6.309042E-05
3.474400E+03	3.657828E-03	6.248678E-05
3.484355E+03	3.643100E-03	6.186621E-05
3.494311E+03	3.627371E-03	6.123073E-05
3.504266E+03	3.610693E-03	6.058153E-05
3.514221E+03	3.593155E-03	5.992040E-05
3.524176E+03	3.574846E-03	5.924912E-05
3.534132E+03	3.555863E-03	5.856956E-05
3.544087E+03	3.536344E-03	5.788420E-05
3.554042E+03	3.516476E-03	5.719627E-05
3.563998E+03	3.496444E-03	5.650891E-05
3.573953E+03	3.476483E-03	5.582597E-05
3.583908E+03	3.456927E-03	5.515279E-05
3.593864E+03	3.438043E-03	5.449351E-05
3.603819E+03	3.420229E-03	5.385421E-05
3.613774E+03	3.404039E-03	5.324326E-05
3.623729E+03	3.389980E-03	5.266802E-05
3.633685E+03	3.378644E-03	5.213703E-05
3.643640E+03	3.370642E-03	5.165879E-05
3.653595E+03	3.366636E-03	5.124235E-05
3.663551E+03	3.367269E-03	5.089618E-05
3.673506E+03	3.373184E-03	5.062848E-05
3.683461E+03	3.385148E-03	5.044904E-05
3.693417E+03	3.403811E-03	5.036554E-05
3.703372E+03	3.429945E-03	5.038721E-05
3.713327E+03	3.464286E-03	5.052240E-05
3.723282E+03	3.507605E-03	5.077964E-05
3.733238E+03	3.560645E-03	5.116675E-05
3.743193E+03	3.624150E-03	5.169121E-05
3.753148E+03	3.698907E-03	5.236081E-05
3.763104E+03	3.785622E-03	5.318183E-05
3.773059E+03	3.884985E-03	5.416003E-05
3.783014E+03	3.997561E-03	5.529914E-05
3.792970E+03	4.123945E-03	5.660303E-05
3.802925E+03	4.264485E-03	5.807198E-05
3.812880E+03	4.419458E-03	5.970516E-05
3.822835E+03	4.588830E-03	6.149738E-05
3.832791E+03	4.772408E-03	6.344145E-05
3.842746E+03	4.969419E-03	6.552253E-05
3.852701E+03	5.178850E-03	6.772303E-05
3.862657E+03	5.399084E-03	7.001795E-05
3.872612E+03	5.627899E-03	7.237521E-05
3.882567E+03	5.862545E-03	7.475700E-05
3.892523E+03	6.099689E-03	7.711930E-05
3.902478E+03	6.335386E-03	7.941191E-05
3.912433E+03	6.565174E-03	8.157989E-05
3.922388E+03	6.784321E-03	8.356697E-05
3.932344E+03	6.988105E-03	8.531904E-05
3.942299E+03	7.171888E-03	8.678507E-05
3.952254E+03	7.331278E-03	8.791900E-05
3.962210E+03	7.462808E-03	8.868769E-05
3.972165E+03	7.563692E-03	8.906748E-05
3.982120E+03	7.632239E-03	8.904875E-05
3.992076E+03	7.667836E-03	8.863502E-05
4.002031E+03	7.671141E-03	8.784463E-05
4.011986E+03	7.643996E-03	8.670906E-05
4.021941E+03	7.589159E-03	8.526925E-05
4.031897E+03	7.510313E-03	8.357523E-05
4.041852E+03	7.411641E-03	8.168093E-05
4.051807E+03	7.297752E-03	7.964312E-05
4.061763E+03	7.173299E-03	7.751702E-05
4.071718E+03	7.042822E-03	7.535466E-05
4.081673E+03	6.910459E-03	7.320182E-05
4.091629E+03	6.779919E-03	7.109806E-05
4.101584E+03	6.654442E-03	6.907644E-05
4.111539E+03	6.536589E-03	6.716167E-05
4.121494E+03	6.428300E-03	6.537112E-05
4.131450E+03	6.331252E-03	6.371864E-05
4.141405E+03	6.246574E-03	6.221196E-05
4.151360E+03	6.175171E-03	6.085619E-05
4.161316E+03	6.117679E-03	5.965339E-05
4.171271E+03	6.074422E-03	5.860245E-05
4.181226E+03	6.045536E-03	5.770031E-05
4.191182E+03	6.030994E-03	5.694238E-05
4.201137E+03	6.030435E-03	5.632100E-05
4.211092E+03	6.043374E-03	5.582757E-05
4.221047E+03	6.069111E-03	5.545174E-05
4.231003E+03	6.106519E-03	5.517966E-05
4.240958E+03	6.154195E-03	5.499551E-05
4.250913E+03	6.210693E-03	5.488368E-05
4.260869E+03	6.273967E-03	5.482397E-05
4.270824E+03	6.341830E-03	5.479578E-05
4.280779E+03	6.411859E-03	5.477739E-05
4.290735E+03	6.481614E-03	5.474794E-05
4.300690E+03	6.548511E-03	5.468626E-05
4.310645E+03	6.609935E-03	5.457197E-05
4.320601E+03	6.663226E-03	5.438530E-05
4.330556E+03	6.705853E-03	5.410846E-05
4.340511E+03	6.735845E-03	5.372906E-05
4.350466E+03	6.751517E-03	5.323765E-05
4.360422E+03	6.752033E-03	5.263190E-05
4.370377E+03	6.737561E-03	5.191747E-05
4.380332E+03	6.711637E-03	5.112550E-05
4.390288E+03	6.681106E-03	5.031076E-05
4.400243E+03	6.653136E-03	4.952794E-05
4.410198E+03	6.634637E-03	4.882735E-05
4.420154E+03	6.632333E-03	4.825549E-05
4.430109E+03	6.652297E-03	4.785200E-05
4.440064E+03	6.700030E-03	4.765061E-05
4.450019E+03	6.780385E-03	4.767888E-05
4.459975E+03	6.897449E-03	4.795771E-05
4.469930E+03	7.053693E-03	4.849588E-05
4.479885E+03	7.250426E-03	4.929378E-05
4.489841E+03	7.488440E-03	5.034820E-05
4.499796E+03	7.767486E-03	5.164913E-05
4.509751E+03	8.086349E-03	5.318056E-05
4.519707E+03	8.442622E-03	5.491940E-05
4.529662E+03	8.832243E-03	5.683294E-05
4.539617E+03	9.249323E-03	5.887822E-05
4.549572E+03	9.686012E-03	6.100184E-05
4.559528E+03	1.013219E-02	6.313860E-05
4.569483E+03	1.057557E-02	6.521269E-05
4.579438E+03	1.100244E-02	6.714293E-05
4.589394E+03	1.139938E-02	6.885326E-05
4.599349E+03	1.175291E-02	7.027056E-05
4.609304E+03	1.205017E-02	7.132827E-05
4.619260E+03	1.228065E-02	7.197639E-05
4.629215E+03	1.243611E-02	7.217987E-05
4.639170E+03	1.251101E-02	7.192068E-05
4.649125E+03	1.250385E-02	7.120416E-05
4.659081E+03	1.241613E-02	7.005240E-05
4.669036E+03	1.225273E-02	6.850516E-05
4.678991E+03	1.202148E-02	6.661701E-05
4.688947E+03	1.173261E-02	6.445334E-05
4.698902E+03	1.139769E-02	6.208448E-05
4.708857E+03	1.102972E-02	5.958568E-05
4.718813E+03	1.064154E-02	5.702866E-05
4.728768E+03	1.024589E-02	5.448219E-05
4.738723E+03	9.854224E-03	5.200587E-05
4.748678E+03	9.476654E-03	4.965048E-05
4.758634E+03	9.120895E-03	4.745284E-05
4.768589E+03	8.792772E-03	4.543900E-05
4.778544E+03	8.499668E-03	4.364246E-05
4.788500E+03	8.246769E-03	4.208482E-05
4.798455E+03	8.037158E-03	4.077657E-05
4.808410E+03	7.872171E-03	3.971903E-05
4.818366E+03	7.751991E-03	3.890795E-05
4.828321E+03	7.676006E-03	3.833557E-05
4.838276E+03	7.642993E-03	3.799158E-05
4.848231E+03	7.651051E-03	3.786283E-05
4.858187E+03	7.697990E-03	3.793524E-05
4.868142E+03	7.781139E-03	3.819287E-05
4.878097E+03	7.897010E-03	3.861623E-05
4.888053E+03	8.041523E-03	3.918343E-05
4.898008E+03	8.209533E-03	3.986782E-05
4.907963E+03	8.394454E-03	4.063627E-05
4.917919E+03	8.587729E-03	4.144656E-05
4.927874E+03	8.779116E-03	4.224892E-05
4.937829E+03	8.957691E-03	4.299081E-05
4.947784E+03	9.112400E-03	4.361957E-05
4.957740E+03	9.232898E-03	4.408641E-05
4.967695E+03	9.310790E-03	4.435217E-05
4.977650E+03	9.341248E-03	4.439490E-05
4.987606E+03	9.322932E-03	4.420931E-05
4.997561E+03	9.258170E-03	4.380742E-05
5.007516E+03	9.153227E-03	4.321969E-05
5.017472E+03	9.016966E-03	4.248853E-05
5.027427E+03	8.859245E-03	4.166070E-05
5.037382E+03	8.689985E-03	4.078289E-05
5.047337E+03	8.518464E-03	3.989846E-05
5.057293E+03	8.352776E-03	3.904493E-05
5.067248E+03	8.199290E-03	3.825153E-05
5.077203E+03	8.063152E-03	3.754161E-05
5.087159E+03	7.947934E-03	3.693103E-05
5.097114E+03	7.855787E-03	3.642899E-05
5.107069E+03	7.788088E-03	3.604104E-05
5.117025E+03	7.745744E-03	3.577053E-05
5.126980E+03	7.729372E-03	3.561944E-05
5.136935E+03	7.739501E-03	3.558932E-05
5.146890E+03	7.777191E-03	3.568414E-05
5.156846E+03	7.843939E-03	3.590984E-05
5.166801E+03	7.941309E-03	3.627256E-05
5.176756E+03	8.070987E-03	3.677895E-05
5.186712E+03	8.234298E-03	3.743391E-05
5.196667E+03	8.432077E-03	3.824006E-05
5.206622E+03	8.664164E-03	3.919545E-05
5.216578E+03	8.929336E-03	4.029337E-05
5.226533E+03	9.224887E-03	4.152045E-05
5.236488E+03	9.546679E-03	4.285702E-05
5.246443E+03	9.888735E-03	4.427542E-05
5.256399E+03	1.024321E-02	4.573996E-05
5.266354E+03	1.060097E-02	4.720955E-05
5.276309E+03	1.095170E-02	4.863844E-05
5.286265E+03	1.128439E-02	4.997834E-05
5.296220E+03	1.158799E-02	5.118136E-05
5.306175E+03	1.185208E-02	5.220301E-05
5.316131E+03	1.206751E-02	5.300495E-05
5.326086E+03	1.222672E-02	5.355630E-05
5.336041E+03	1.232445E-02	5.383655E-05
5.345996E+03	1.235810E-02	5.383712E-05
5.355952E+03	1.232816E-02	5.356293E-05
5.365907E+03	1.223859E-02	5.303384E-05
5.375862E+03	1.209656E-02	5.228333E-05
5.385818E+03	1.191269E-02	5.135936E-05
5.395773E+03	1.170097E-02	5.032379E-05
5.405728E+03	1.147728E-02	4.924599E-05
5.415684E+03	1.125880E-02	4.820004E-05
5.425639E+03	1.106296E-02	4.726054E-05
5.435594E+03	1.090678E-02	4.649958E-05
5.445549E+03	1.080530E-02	4.598042E-05
5.455505E+03	1.077156E-02	4.575747E-05
5.465460E+03	1.081446E-02	4.586738E-05
5.475415E+03	1.093385E-02	4.630834E-05
5.485371E+03	1.110968E-02	4.699401E-05
5.495326E+03	1.131437E-02	4.780662E-05
5.505281E+03	1.151759E-02	4.861736E-05
5.515237E+03	1.168965E-02	4.930070E-05
5.525192E+03	1.180369E-02	4.974329E-05
5.535147E+03	1.183849E-02	4.985573E-05
5.545102E+03	1.178194E-02	4.958710E-05
5.555058E+03	1.163076E-02	4.892356E-05
5.565013E+03	1.138964E-02	4.788467E-05
5.574968E+03	1.106988E-02	4.651777E-05
5.584924E+03	1.068768E-02	4.489058E-05
5.594879E+03	1.026198E-02	4.308242E-05
5.604834E+03	9.812830E-03	4.117708E-05
5.614790E+03	9.359734E-03	3.925610E-05
5.624745E+03	8.920255E-03	3.739280E-05
5.634700E+03	8.509557E-03	3.565039E-05
5.644655E+03	8.140262E-03	3.408138E-05
5.654611E+03	7.821931E-03	3.272534E-05
5.664566E+03	7.561237E-03	3.160968E-05
5.674521E+03	7.362836E-03	3.075323E-05
5.684477E+03	7.229506E-03	3.016685E-05
5.694432E+03	7.162395E-03	2.985444E-05
5.704387E+03	7.161761E-03	2.981603E-05
5.714343E+03	7.227360E-03	3.004939E-05
5.724298E+03	7.358365E-03	3.054970E-05
5.734253E+03	7.553771E-03	3.131123E-05
5.744209E+03	7.811603E-03	3.232402E-05
5.754164E+03	8.128987E-03	3.357426E-05
5.764119E+03	8.501472E-03	3.504152E-05
5.774074E+03	8.922752E-03	3.669767E-05
5.784030E+03	9.383914E-03	3.850395E-05
5.793985E+03	9.873792E-03	4.041254E-05
5.803940E+03	1.037902E-02	4.236701E-05
5.813896E+03	1.088465E-02	4.430500E-05
5.823851E+03	1.137529E-02	4.616313E-05
5.833806E+03	1.183541E-02	4.787820E-05
5.843762E+03	1.225114E-02	4.939466E-05
5.853717E+03	1.261045E-02	5.066537E-05
5.863672E+03	1.290436E-02	5.165632E-05
5.873627E+03	1.312707E-02	5.234693E-05
5.883583E+03	1.327607E-02	5.273040E-05
5.893538E+03	1.335199E-02	5.281287E-05
5.903493E+03	1.335758E-02	5.260900E-05
5.913449E+03	1.329837E-02	5.214453E-05
5.923404E+03	1.318121E-02	5.145006E-05
5.933359E+03	1.301378E-02	5.055928E-05
5.943315E+03	1.280431E-02	4.950754E-05
5.953270E+03	1.256176E-02	4.833244E-05
5.963225E+03	1.229502E-02	4.707078E-05
5.973180E+03	1.201241E-02	4.575649E-05
5.983136E+03	1.172243E-02	4.442365E-05
5.993091E+03	1.143252E-02	4.310158E-05
6.003046E+03	1.114970E-02	4.181741E-05
6.013002E+03	1.087970E-02	4.059286E-05
6.022957E+03	1.062761E-02	3.944694E-05
6.032912E+03	1.039732E-02	3.839364E-05
6.042868E+03	1.019157E-02	3.744248E-05
6.052823E+03	1.001194E-02	3.659861E-05
6.062778E+03	9.859352E-03	3.586457E-05
6.072733E+03	9.733791E-03	3.523960E-05
6.082689E+03	9.634727E-03	3.472113E-05
6.092644E+03	9.560851E-03	3.430390E-05
6.102599E+03	9.510488E-03	3.398158E-05
6.112555E+03	9.481013E-03	3.374464E-05
6.122510E+03	9.468834E-03	3.358042E-05
6.132465E+03	9.469823E-03	3.347467E-05
6.142421E+03	9.478847E-03	3.340991E-05
6.152376E+03	9.489608E-03	3.336484E-05
6.162331E+03	9.494759E-03	3.331473E-05
6.172286E+03	9.485144E-03	3.322868E-05
6.182242E+03	9.451322E-03	3.307447E-05
6.192197E+03	9.384107E-03	3.282007E-05
6.202152E+03	9.275230E-03	3.243635E-05
6.212108E+03	9.119246E-03	3.190364E-05
6.222063E+03	8.920371E-03	3.123558E-05
6.232018E+03	8.695343E-03	3.048934E-05
6.241974E+03	8.462095E-03	2.972626E-05
6.251929E+03	8.236266E-03	2.899994E-05
6.261884E+03	8.028757E-03	2.834779E-05
6.271839E+03	7.847110E-03	2.779589E-05
6.281795E+03	7.696732E-03	2.736333E-05
6.291750E+03	7.579999E-03	2.705893E-05
6.301705E+03	7.498158E-03	2.688793E-05
6.311661E+03	7.450511E-03	2.684899E-05
6.321616E+03	7.435230E-03	2.693692E-05
6.331571E+03	7.449821E-03	2.714428E-05
6.341527E+03	7.490734E-03	2.745983E-05
6.351482E+03	7.553645E-03	2.786940E-05
6.361437E+03	7.633794E-03	2.835699E-05
6.371392E+03	7.726453E-03	2.890640E-05
6.381348E+03	7.826607E-03	2.949996E-05
6.391303E+03	7.929390E-03	3.012007E-05
6.401258E+03	8.030542E-03	3.075060E-05
6.411214E+03	8.126514E-03	3.137729E-05
6.421169E+03	8.214520E-03	3.198832E-05
6.431124E+03	8.292537E-03	3.257438E-05
6.441080E+03	8.359695E-03	3.313042E-05
6.451035E+03	8.415828E-03	3.365399E-05
6.460990E+03	8.461349E-03	3.414489E-05
6.470945E+03	8.496871E-03	3.460374E-05
6.480901E+03	8.522876E-03	3.503071E-05
6.490856E+03	8.539452E-03	3.542435E-05
6.500811E+03	8.545302E-03	3.577743E-05
6.510767E+03	8.544068E-03	3.610340E-05
6.520722E+03	8.545678E-03	3.644308E-05
6.530677E+03	8.558662E-03	3.683283E-05
6.540633E+03	8.589275E-03	3.730051E-05
6.550588E+03	8.641723E-03	3.786601E-05
6.560543E+03	8.717379E-03	3.853733E-05
6.570498E+03	8.815685E-03	3.931408E-05
6.580454E+03	8.933957E-03	4.018623E-05
6.590409E+03	9.068219E-03	4.113740E-05
6.600364E+03	9.212680E-03	4.214228E-05
6.610320E+03	9.360806E-03	4.317123E-05
6.620275E+03	9.505693E-03	4.419188E-05
6.630230E+03	9.639860E-03	4.516813E-05
6.640186E+03	9.756904E-03	4.606790E-05
6.650141E+03	9.850975E-03	4.686086E-05
6.660096E+03	9.917592E-03	4.752250E-05
6.670051E+03	9.953792E-03	4.803512E-05
6.680007E+03	9.957845E-03	4.838674E-05
6.689962E+03	9.929625E-03	4.857315E-05
6.699917E+03	9.870283E-03	4.859660E-05
6.709873E+03	9.782260E-03	4.846602E-05
6.719828E+03	9.668547E-03	4.819359E-05
6.729783E+03	9.532910E-03	4.779588E-05
6.739739E+03	9.379633E-03	4.729268E-05
6.749694E+03	9.212859E-03	4.670369E-05
6.759649E+03	9.036933E-03	4.605021E-05
6.769604E+03	8.856219E-03	4.535416E-05
6.779560E+03	8.674422E-03	4.463461E-05
6.789515E+03	8.495656E-03	4.391314E-05
6.799470E+03	8.323407E-03	4.320846E-05
6.809426E+03	8.160559E-03	4.253646E-05
6.819381E+03	8.010291E-03	4.191477E-05
6.829336E+03	7.874963E-03	4.135694E-05
6.839292E+03	7.756754E-03	4.087564E-05
6.849247E+03	7.657504E-03	4.048187E-05
6.859202E+03	7.578703E-03	4.018473E-05
6.869157E+03	7.521633E-03	3.999222E-05
6.879113E+03	7.486796E-03	3.990813E-05
6.889068E+03	7.474838E-03	3.993689E-05
6.899023E+03	7.485426E-03	4.007757E-05
6.908979E+03	7.518289E-03	4.032946E-05
6.918934E+03	7.572020E-03	4.068554E-05
6.928889E+03	7.645180E-03	4.113845E-05
6.938845E+03	7.735078E-03	4.167393E-05
6.948800E+03	7.838676E-03	4.227564E-05
6.958755E+03	7.952143E-03	4.292283E-05
6.968710E+03	8.070958E-03	4.359087E-05
6.978666E+03	8.190582E-03	4.425495E-05
6.988621E+03	8.305681E-03	4.488594E-05
6.998576E+03	8.411379E-03	4.545716E-05
7.008532E+03	8.503356E-03	4.594504E-05
7.018487E+03	8.577816E-03	4.632892E-05
7.028442E+03	8.631708E-03	4.659234E-05
7.038398E+03	8.663228E-03	4.672574E-05
7.048353E+03	8.671906E-03	4.672691E-05
7.058308E+03	8.658060E-03	4.659807E-05
7.068263E+03	8.623236E-03	4.634817E-05
7.078219E+03	8.569892E-03	4.599114E-05
7.088174E+03	8.501338E-03	4.554552E-05
7.098129E+03	8.420797E-03	4.502937E-05
7.108085E+03	8.332408E-03	4.446558E-05
7.118040E+03	8.239627E-03	4.387327E-05
7.127995E+03	8.146134E-03	4.327263E-05
7.137951E+03	8.055082E-03	4.268088E-05
7.147906E+03	7.969105E-03	4.211233E-05
7.157861E+03	7.889971E-03	4.157653E-05
7.167817E+03	7.819127E-03	4.108126E-05
7.177772E+03	7.757231E-03	4.063002E-05
7.187727E+03	7.704076E-03	4.022171E-05
7.197682E+03	7.659065E-03	3.985323E-05
7.207638E+03	7.621313E-03	3.951996E-05
7.217593E+03	7.589211E-03	3.921361E-05
7.227548E+03	7.561100E-03	3.892573E-05
7.237504E+03	7.535450E-03	3.864868E-05
7.247459E+03	7.510531E-03	3.837389E-05
7.257414E+03	7.485025E-03	3.809503E-05
7.267370E+03	7.458331E-03	3.780953E-05
7.277325E+03	7.429505E-03	3.751316E-05
7.287280E+03	7.399088E-03	3.720922E-05
7.297235E+03	7.367257E-03	3.689915E-05
7.307191E+03	7.335225E-03	3.658958E-05
7.317146E+03	7.303997E-03	3.628598E-05
7.327101E+03	7.274964E-03	3.599568E-05
7.337057E+03	7.249284E-03	3.572474E-05
7.347012E+03	7.227582E-03	3.547652E-05
7.356967E+03	7.210849E-03	3.525616E-05
7.366923E+03	7.198860E-03	3.506277E-05
7.376878E+03	7.191137E-03	3.489431E-05
7.386833E+03	7.187505E-03	3.475024E-05
7.396788E+03	7.186162E-03	3.462221E-05
7.406744E+03	7.186036E-03	3.450553E-05
7.416699E+03	7.185265E-03	3.439181E-05
7.426654E+03	7.181303E-03	3.426949E-05
7.436610E+03	7.171766E-03	3.412793E-05
7.446565E+03	7.154637E-03	3.395832E-05
7.456520E+03	7.127902E-03	3.375179E-05
7.466476E+03	7.090272E-03	3.350249E-05
7.476431E+03	7.041056E-03	3.320730E-05
7.486386E+03	6.980402E-03	3.286698E-05
7.496341E+03	6.909492E-03	3.248707E-05
7.506297E+03	6.830293E-03	3.207671E-05
7.516252E+03	6.745196E-03	3.164693E-05
7.526207E+03	6.657336E-03	3.121216E-05
7.536163E+03	6.569318E-03	3.078430E-05
7.546118E+03	6.483903E-03	3.037593E-05
7.556073E+03	6.402876E-03	2.999509E-05
7.566029E+03	6.327537E-03	2.964757E-05
7.575984E+03	6.258815E-03	2.933746E-05
7.585939E+03	6.197077E-03	2.906628E-05
7.595894E+03	6.144646E-03	2.884478E-05
7.605850E+03	6.103495E-03	2.868218E-05
7.615805E+03	6.074666E-03	2.858341E-05
7.625760E+03	6.058781E-03	2.855155E-05
7.635716E+03	6.055393E-03	2.858472E-05
7.645671E+03	6.063891E-03	2.868038E-05
7.655626E+03	6.083219E-03	2.883389E-05
7.665582E+03	6.111883E-03	2.903861E-05
7.675537E+03	6.148508E-03	2.928844E-05
7.685492E+03	6.191390E-03	2.957573E-05
7.695447E+03	6.238697E-03	2.989219E-05
7.705403E+03	6.288543E-03	3.022917E-05
7.715358E+03	6.339095E-03	3.057824E-05
7.725313E+03	6.388688E-03	3.093164E-05
