#wls	flux	fluxerr
1.592848E+03	2.143580E-04	1.388661E-05
1.632669E+03	2.207887E-04	1.426812E-05
1.672491E+03	2.265183E-04	1.460143E-05
1.712312E+03	2.315160E-04	1.488482E-05
1.752133E+03	2.356105E-04	1.510757E-05
1.791954E+03	2.385746E-04	1.525557E-05
1.831775E+03	2.400371E-04	1.530566E-05
1.871597E+03	2.396449E-04	1.523617E-05
1.911418E+03	2.369567E-04	1.502016E-05
1.951239E+03	2.318376E-04	1.465041E-05
1.991060E+03	2.245297E-04	1.414366E-05
2.030881E+03	2.161058E-04	1.356867E-05
2.070703E+03	2.086262E-04	1.305516E-05
2.110524E+03	2.047458E-04	1.276820E-05
2.150345E+03	2.069280E-04	1.285856E-05
2.190166E+03	2.162681E-04	1.339001E-05
2.229987E+03	2.322737E-04	1.432712E-05
2.269809E+03	2.534050E-04	1.557037E-05
2.309630E+03	2.777239E-04	1.699710E-05
2.349451E+03	3.036173E-04	1.850622E-05
2.389272E+03	3.298938E-04	2.002376E-05
2.429093E+03	3.558728E-04	2.150780E-05
2.468915E+03	3.811510E-04	2.293380E-05
2.508736E+03	4.054248E-04	2.428365E-05
2.548557E+03	4.285448E-04	2.554878E-05
2.588378E+03	4.503873E-04	2.672234E-05
2.628199E+03	4.708627E-04	2.779968E-05
2.668021E+03	4.897439E-04	2.876824E-05
2.707842E+03	5.068995E-04	2.962134E-05
2.747663E+03	5.221405E-04	3.034922E-05
2.787484E+03	5.352667E-04	3.094174E-05
2.827305E+03	5.460061E-04	3.138499E-05
2.867127E+03	5.541440E-04	3.166878E-05
2.906948E+03	5.595694E-04	3.178919E-05
2.946769E+03	5.622109E-04	3.174481E-05
2.986590E+03	5.621765E-04	3.154450E-05
2.996546E+03	5.617790E-04	3.147203E-05
3.006501E+03	5.612193E-04	3.139030E-05
3.016456E+03	5.604974E-04	3.129937E-05
3.026411E+03	5.596546E-04	3.120158E-05
3.036367E+03	5.586978E-04	3.109735E-05
3.046322E+03	5.577235E-04	3.099208E-05
3.056277E+03	5.566601E-04	3.088179E-05
3.066233E+03	5.555254E-04	3.076752E-05
3.076188E+03	5.543376E-04	3.065026E-05
3.086143E+03	5.530594E-04	3.052799E-05
3.096099E+03	5.517111E-04	3.040185E-05
3.106054E+03	5.502860E-04	3.027149E-05
3.116009E+03	5.487783E-04	3.013662E-05
3.125964E+03	5.471582E-04	2.999563E-05
3.135920E+03	5.455002E-04	2.985263E-05
3.145875E+03	5.437500E-04	2.970467E-05
3.155830E+03	5.419315E-04	2.955308E-05
3.165786E+03	5.400437E-04	2.939782E-05
3.175741E+03	5.381102E-04	2.924021E-05
3.185696E+03	5.361079E-04	2.907900E-05
3.195652E+03	5.340613E-04	2.891555E-05
3.205607E+03	5.319722E-04	2.874996E-05
3.215562E+03	5.298432E-04	2.858240E-05
3.225517E+03	5.276993E-04	2.841422E-05
3.235473E+03	5.255430E-04	2.824557E-05
3.245428E+03	5.233995E-04	2.807780E-05
3.255383E+03	5.212509E-04	2.790996E-05
3.265339E+03	5.191227E-04	2.774341E-05
3.275294E+03	5.170200E-04	2.757842E-05
3.285249E+03	5.149671E-04	2.741629E-05
3.295205E+03	5.129502E-04	2.725625E-05
3.305160E+03	5.110135E-04	2.710066E-05
3.315115E+03	5.091623E-04	2.694976E-05
3.325070E+03	5.073848E-04	2.680292E-05
3.335026E+03	5.057237E-04	2.666236E-05
3.344981E+03	5.041688E-04	2.652751E-05
3.354936E+03	5.027620E-04	2.640054E-05
3.364892E+03	5.014935E-04	2.628090E-05
3.374847E+03	5.003727E-04	2.616903E-05
3.384802E+03	4.994411E-04	2.606705E-05
3.394758E+03	4.986918E-04	2.597456E-05
3.404713E+03	4.981505E-04	2.589281E-05
3.414668E+03	4.978281E-04	2.582232E-05
3.424623E+03	4.977360E-04	2.576359E-05
3.434579E+03	4.978865E-04	2.571721E-05
3.444534E+03	4.983075E-04	2.568451E-05
3.454489E+03	4.989988E-04	2.566542E-05
3.464445E+03	4.999895E-04	2.566132E-05
3.474400E+03	5.012817E-04	2.567224E-05
3.484355E+03	5.028931E-04	2.569896E-05
3.494311E+03	5.048287E-04	2.574164E-05
3.504266E+03	5.071216E-04	2.580185E-05
3.514221E+03	5.097662E-04	2.587919E-05
3.524176E+03	5.127852E-04	2.597469E-05
3.534132E+03	5.161889E-04	2.608873E-05
3.544087E+03	5.199893E-04	2.622179E-05
3.554042E+03	5.242252E-04	2.637568E-05
3.563998E+03	5.288725E-04	2.654903E-05
3.573953E+03	5.339726E-04	2.674379E-05
3.583908E+03	5.395422E-04	2.696061E-05
3.593864E+03	5.455872E-04	2.719962E-05
3.603819E+03	5.521281E-04	2.746168E-05
3.613774E+03	5.591851E-04	2.774761E-05
3.623729E+03	5.668041E-04	2.805949E-05
3.633685E+03	5.749942E-04	2.839756E-05
3.643640E+03	5.837888E-04	2.876327E-05
3.653595E+03	5.932215E-04	2.915804E-05
3.663551E+03	6.033131E-04	2.958266E-05
3.673506E+03	6.141082E-04	3.003906E-05
3.683461E+03	6.256145E-04	3.052736E-05
3.693417E+03	6.378749E-04	3.104938E-05
3.703372E+03	6.509065E-04	3.160566E-05
3.713327E+03	6.647369E-04	3.219726E-05
3.723282E+03	6.793916E-04	3.282511E-05
3.733238E+03	6.948808E-04	3.348938E-05
3.743193E+03	7.112370E-04	3.419132E-05
3.753148E+03	7.284632E-04	3.493074E-05
3.763104E+03	7.465581E-04	3.570724E-05
3.773059E+03	7.655411E-04	3.652142E-05
3.783014E+03	7.854126E-04	3.737295E-05
3.792970E+03	8.061402E-04	3.825995E-05
3.802925E+03	8.277238E-04	3.918207E-05
3.812880E+03	8.501423E-04	4.013799E-05
3.822835E+03	8.733518E-04	4.112530E-05
3.832791E+03	8.973127E-04	4.214183E-05
3.842746E+03	9.219753E-04	4.318496E-05
3.852701E+03	9.472648E-04	4.425091E-05
3.862657E+03	9.731103E-04	4.533612E-05
3.872612E+03	9.994448E-04	4.643723E-05
3.882567E+03	1.026160E-03	4.754906E-05
3.892523E+03	1.053137E-03	4.866589E-05
3.902478E+03	1.080277E-03	4.978307E-05
3.912433E+03	1.107439E-03	5.089407E-05
3.922388E+03	1.134490E-03	5.199276E-05
3.932344E+03	1.161292E-03	5.307283E-05
3.942299E+03	1.187699E-03	5.412772E-05
3.952254E+03	1.213545E-03	5.515001E-05
3.962210E+03	1.238676E-03	5.613299E-05
3.972165E+03	1.262958E-03	5.707075E-05
3.982120E+03	1.286219E-03	5.795595E-05
3.992076E+03	1.308293E-03	5.878145E-05
4.002031E+03	1.329051E-03	5.954200E-05
4.011986E+03	1.348360E-03	6.023208E-05
4.021941E+03	1.366083E-03	6.084619E-05
4.031897E+03	1.382100E-03	6.137961E-05
4.041852E+03	1.396373E-03	6.183134E-05
4.051807E+03	1.408852E-03	6.219986E-05
4.061763E+03	1.419523E-03	6.248519E-05
4.071718E+03	1.428424E-03	6.268975E-05
4.081673E+03	1.435635E-03	6.281778E-05
4.091629E+03	1.441289E-03	6.287574E-05
4.101584E+03	1.445490E-03	6.286873E-05
4.111539E+03	1.448396E-03	6.280421E-05
4.121494E+03	1.450180E-03	6.269021E-05
4.131450E+03	1.451038E-03	6.253557E-05
4.141405E+03	1.451112E-03	6.234680E-05
4.151360E+03	1.450575E-03	6.213166E-05
4.161316E+03	1.449614E-03	6.189836E-05
4.171271E+03	1.448357E-03	6.165252E-05
4.181226E+03	1.446958E-03	6.140082E-05
4.191182E+03	1.445576E-03	6.115007E-05
4.201137E+03	1.444309E-03	6.090439E-05
4.211092E+03	1.443277E-03	6.066880E-05
4.221047E+03	1.442590E-03	6.044784E-05
4.231003E+03	1.442347E-03	6.024546E-05
4.240958E+03	1.442619E-03	6.006455E-05
4.250913E+03	1.443473E-03	5.990763E-05
4.260869E+03	1.445000E-03	5.977827E-05
4.270824E+03	1.447255E-03	5.967845E-05
4.280779E+03	1.450308E-03	5.961080E-05
4.290735E+03	1.454215E-03	5.957735E-05
4.300690E+03	1.459071E-03	5.958156E-05
4.310645E+03	1.464937E-03	5.962561E-05
4.320601E+03	1.471883E-03	5.971198E-05
4.330556E+03	1.480001E-03	5.984390E-05
4.340511E+03	1.489366E-03	6.002398E-05
4.350466E+03	1.500052E-03	6.025467E-05
4.360422E+03	1.512153E-03	6.053933E-05
4.370377E+03	1.525781E-03	6.088176E-05
4.380332E+03	1.541065E-03	6.128656E-05
4.390288E+03	1.558202E-03	6.176093E-05
4.400243E+03	1.577374E-03	6.231125E-05
4.410198E+03	1.598748E-03	6.294343E-05
4.420154E+03	1.622507E-03	6.366371E-05
4.430109E+03	1.648799E-03	6.447697E-05
4.440064E+03	1.677704E-03	6.538539E-05
4.450019E+03	1.709326E-03	6.639202E-05
4.459975E+03	1.743673E-03	6.749606E-05
4.469930E+03	1.780755E-03	6.869689E-05
4.479885E+03	1.820488E-03	6.999020E-05
4.489841E+03	1.862795E-03	7.137207E-05
4.499796E+03	1.907452E-03	7.283294E-05
4.509751E+03	1.954245E-03	7.436379E-05
4.519707E+03	2.002854E-03	7.595165E-05
4.529662E+03	2.052820E-03	7.757857E-05
4.539617E+03	2.103692E-03	7.922701E-05
4.549572E+03	2.154860E-03	8.087382E-05
4.559528E+03	2.205711E-03	8.249602E-05
4.569483E+03	2.255517E-03	8.406660E-05
4.579438E+03	2.303590E-03	8.556052E-05
4.589394E+03	2.349183E-03	8.695081E-05
4.599349E+03	2.391589E-03	8.821239E-05
4.609304E+03	2.430132E-03	8.932180E-05
4.619260E+03	2.464231E-03	9.025916E-05
4.629215E+03	2.493288E-03	9.100449E-05
4.639170E+03	2.516859E-03	9.154363E-05
4.649125E+03	2.534517E-03	9.186318E-05
4.659081E+03	2.545983E-03	9.195540E-05
4.669036E+03	2.551084E-03	9.181646E-05
4.678991E+03	2.549824E-03	9.144890E-05
4.688947E+03	2.542306E-03	9.085891E-05
4.698902E+03	2.528883E-03	9.006138E-05
4.708857E+03	2.510086E-03	8.907744E-05
4.718813E+03	2.486542E-03	8.793123E-05
4.728768E+03	2.459172E-03	8.665701E-05
4.738723E+03	2.428837E-03	8.528644E-05
4.748678E+03	2.396587E-03	8.385733E-05
4.758634E+03	2.363386E-03	8.240403E-05
4.768589E+03	2.330271E-03	8.096286E-05
4.778544E+03	2.298210E-03	7.956731E-05
4.788500E+03	2.268078E-03	7.824712E-05
4.798455E+03	2.240711E-03	7.703038E-05
4.808410E+03	2.216851E-03	7.594142E-05
4.818366E+03	2.197154E-03	7.500140E-05
4.828321E+03	2.182115E-03	7.422560E-05
4.838276E+03	2.172156E-03	7.362667E-05
4.848231E+03	2.167577E-03	7.321289E-05
4.858187E+03	2.168558E-03	7.298838E-05
4.868142E+03	2.175176E-03	7.295368E-05
4.878097E+03	2.187337E-03	7.310368E-05
4.888053E+03	2.204888E-03	7.343132E-05
4.898008E+03	2.227518E-03	7.392438E-05
4.907963E+03	2.254757E-03	7.456553E-05
4.917919E+03	2.285968E-03	7.533222E-05
4.927874E+03	2.320307E-03	7.619529E-05
4.937829E+03	2.356794E-03	7.712170E-05
4.947784E+03	2.394174E-03	7.806975E-05
4.957740E+03	2.431013E-03	7.899259E-05
4.967695E+03	2.465887E-03	7.984430E-05
4.977650E+03	2.497421E-03	8.058124E-05
4.987606E+03	2.524391E-03	8.116519E-05
4.997561E+03	2.545819E-03	8.156639E-05
5.007516E+03	2.561225E-03	8.177140E-05
5.017472E+03	2.570598E-03	8.178193E-05
5.027427E+03	2.574174E-03	8.160743E-05
5.037382E+03	2.572645E-03	8.127177E-05
5.047337E+03	2.566878E-03	8.080385E-05
5.057293E+03	2.557928E-03	8.023826E-05
5.067248E+03	2.546809E-03	7.960768E-05
5.077203E+03	2.534524E-03	7.894403E-05
5.087159E+03	2.522080E-03	7.827895E-05
5.097114E+03	2.510223E-03	7.763557E-05
5.107069E+03	2.499678E-03	7.703600E-05
5.117025E+03	2.491040E-03	7.649804E-05
5.126980E+03	2.484737E-03	7.603421E-05
5.136935E+03	2.481167E-03	7.565580E-05
5.146890E+03	2.480633E-03	7.537116E-05
5.156846E+03	2.483436E-03	7.518843E-05
5.166801E+03	2.489805E-03	7.511338E-05
5.176756E+03	2.499960E-03	7.515153E-05
5.186712E+03	2.514066E-03	7.530659E-05
5.196667E+03	2.532257E-03	7.558131E-05
5.206622E+03	2.554587E-03	7.597601E-05
5.216578E+03	2.581055E-03	7.648933E-05
5.226533E+03	2.611485E-03	7.711483E-05
5.236488E+03	2.645678E-03	7.784541E-05
5.246443E+03	2.683325E-03	7.867084E-05
5.256399E+03	2.723968E-03	7.957670E-05
5.266354E+03	2.767108E-03	8.054761E-05
5.276309E+03	2.812126E-03	8.156481E-05
5.286265E+03	2.858303E-03	8.260706E-05
5.296220E+03	2.904947E-03	8.365406E-05
5.306175E+03	2.951305E-03	8.468415E-05
5.316131E+03	2.996565E-03	8.567429E-05
5.326086E+03	3.040047E-03	8.660547E-05
5.336041E+03	3.081171E-03	8.746185E-05
5.345996E+03	3.119443E-03	8.823028E-05
5.355952E+03	3.154388E-03	8.889823E-05
5.365907E+03	3.185752E-03	8.945971E-05
5.375862E+03	3.213278E-03	8.990866E-05
5.385818E+03	3.236773E-03	9.024092E-05
5.395773E+03	3.256136E-03	9.045494E-05
5.405728E+03	3.271343E-03	9.055140E-05
5.415684E+03	3.282341E-03	9.053006E-05
5.425639E+03	3.289104E-03	9.039155E-05
5.435594E+03	3.291691E-03	9.013879E-05
5.445549E+03	3.289992E-03	8.977003E-05
5.455505E+03	3.283968E-03	8.928553E-05
5.465460E+03	3.273325E-03	8.867861E-05
5.475415E+03	3.257663E-03	8.793986E-05
5.485371E+03	3.236293E-03	8.705219E-05
5.495326E+03	3.208344E-03	8.599391E-05
5.505281E+03	3.173124E-03	8.474842E-05
5.515237E+03	3.130086E-03	8.330309E-05
5.525192E+03	3.078870E-03	8.165058E-05
5.535147E+03	3.019508E-03	7.979388E-05
5.545102E+03	2.952448E-03	7.774704E-05
5.555058E+03	2.878553E-03	7.553472E-05
5.565013E+03	2.799003E-03	7.318954E-05
5.574968E+03	2.715341E-03	7.075316E-05
5.584924E+03	2.629319E-03	6.827207E-05
5.594879E+03	2.542770E-03	6.579425E-05
5.604834E+03	2.457684E-03	6.337099E-05
5.614790E+03	2.375956E-03	6.105047E-05
5.624745E+03	2.299326E-03	5.887624E-05
5.634700E+03	2.229411E-03	5.688810E-05
5.644655E+03	2.167655E-03	5.512087E-05
5.654611E+03	2.115320E-03	5.360429E-05
5.664566E+03	2.073417E-03	5.236134E-05
5.674521E+03	2.042949E-03	5.141448E-05
5.684477E+03	2.024702E-03	5.078040E-05
5.694432E+03	2.019371E-03	5.047329E-05
5.704387E+03	2.027626E-03	5.050650E-05
5.714343E+03	2.050107E-03	5.089252E-05
5.724298E+03	2.087218E-03	5.163771E-05
5.734253E+03	2.139344E-03	5.274797E-05
5.744209E+03	2.206796E-03	5.422727E-05
5.754164E+03	2.289736E-03	5.607585E-05
5.764119E+03	2.388091E-03	5.828828E-05
5.774074E+03	2.501567E-03	6.085377E-05
5.784030E+03	2.629362E-03	6.374941E-05
5.793985E+03	2.770184E-03	6.694075E-05
5.803940E+03	2.922279E-03	7.038269E-05
5.813896E+03	3.083449E-03	7.402009E-05
5.823851E+03	3.251005E-03	7.778680E-05
5.833806E+03	3.421695E-03	8.160415E-05
5.843762E+03	3.592065E-03	8.538966E-05
5.853717E+03	3.758242E-03	8.905207E-05
5.863672E+03	3.916254E-03	9.249892E-05
5.873627E+03	4.062146E-03	9.563940E-05
5.883583E+03	4.192265E-03	9.839090E-05
5.893538E+03	4.303384E-03	1.006818E-04
5.903493E+03	4.393099E-03	1.024607E-04
5.913449E+03	4.459844E-03	1.036960E-04
5.923404E+03	4.502981E-03	1.043783E-04
5.933359E+03	4.522942E-03	1.045227E-04
5.943315E+03	4.521115E-03	1.041665E-04
5.953270E+03	4.499475E-03	1.033594E-04
5.963225E+03	4.460572E-03	1.021642E-04
5.973180E+03	4.407304E-03	1.006505E-04
5.983136E+03	4.342676E-03	9.888946E-05
5.993091E+03	4.269606E-03	9.694969E-05
6.003046E+03	4.190907E-03	9.489635E-05
6.013002E+03	4.109128E-03	9.278794E-05
6.022957E+03	4.026330E-03	9.067132E-05
6.032912E+03	3.944271E-03	8.858599E-05
6.042868E+03	3.864411E-03	8.656440E-05
6.052823E+03	3.787700E-03	8.462721E-05
6.062778E+03	3.714879E-03	8.279025E-05
6.072733E+03	3.646448E-03	8.106380E-05
6.082689E+03	3.582685E-03	7.945315E-05
6.092644E+03	3.523686E-03	7.795959E-05
6.102599E+03	3.469456E-03	7.658233E-05
6.112555E+03	3.419936E-03	7.531922E-05
6.122510E+03	3.374959E-03	7.416585E-05
6.132465E+03	3.334454E-03	7.311989E-05
6.142421E+03	3.298217E-03	7.217619E-05
6.152376E+03	3.266095E-03	7.133079E-05
6.162331E+03	3.237981E-03	7.058079E-05
6.172286E+03	3.213666E-03	6.992111E-05
6.182242E+03	3.192920E-03	6.934633E-05
6.192197E+03	3.175490E-03	6.885051E-05
6.202152E+03	3.161156E-03	6.842860E-05
6.212108E+03	3.149623E-03	6.807387E-05
6.222063E+03	3.140446E-03	6.777646E-05
6.232018E+03	3.133214E-03	6.752716E-05
6.241974E+03	3.127434E-03	6.731515E-05
6.251929E+03	3.122680E-03	6.713106E-05
6.261884E+03	3.118555E-03	6.696623E-05
6.271839E+03	3.114796E-03	6.681493E-05
6.281795E+03	3.111171E-03	6.667207E-05
6.291750E+03	3.107531E-03	6.653443E-05
6.301705E+03	3.103760E-03	6.639946E-05
6.311661E+03	3.099895E-03	6.626790E-05
6.321616E+03	3.095904E-03	6.613903E-05
6.331571E+03	3.091860E-03	6.601434E-05
6.341527E+03	3.087925E-03	6.589724E-05
6.351482E+03	3.084131E-03	6.578834E-05
6.361437E+03	3.080586E-03	6.568989E-05
6.371392E+03	3.077401E-03	6.560420E-05
6.381348E+03	3.074614E-03	6.553199E-05
6.391303E+03	3.072230E-03	6.547336E-05
6.401258E+03	3.070199E-03	6.542716E-05
6.411214E+03	3.068469E-03	6.539222E-05
6.421169E+03	3.067069E-03	6.536914E-05
6.431124E+03	3.065944E-03	6.535669E-05
6.441080E+03	3.065142E-03	6.535585E-05
6.451035E+03	3.064761E-03	6.536868E-05
6.460990E+03	3.065002E-03	6.539934E-05
6.470945E+03	3.065955E-03	6.544960E-05
6.480901E+03	3.067872E-03	6.552468E-05
6.490856E+03	3.071013E-03	6.563001E-05
6.500811E+03	3.075671E-03	6.577170E-05
6.510767E+03	3.082335E-03	6.596015E-05
6.520722E+03	3.091877E-03	6.621394E-05
6.530677E+03	3.104952E-03	6.654714E-05
6.540633E+03	3.122241E-03	6.697437E-05
6.550588E+03	3.144016E-03	6.750159E-05
6.560543E+03	3.170231E-03	6.812796E-05
6.570498E+03	3.200533E-03	6.884604E-05
6.580454E+03	3.234136E-03	6.963904E-05
6.590409E+03	3.270077E-03	7.048638E-05
6.600364E+03	3.307188E-03	7.136286E-05
6.610320E+03	3.344084E-03	7.223858E-05
6.620275E+03	3.379421E-03	7.308432E-05
6.630230E+03	3.411778E-03	7.386914E-05
6.640186E+03	3.439865E-03	7.456467E-05
6.650141E+03	3.462443E-03	7.514364E-05
6.660096E+03	3.478689E-03	7.558754E-05
6.670051E+03	3.487747E-03	7.587712E-05
6.680007E+03	3.489179E-03	7.600212E-05
6.689962E+03	3.482888E-03	7.595966E-05
6.699917E+03	3.468803E-03	7.574737E-05
6.709873E+03	3.447332E-03	7.537339E-05
6.719828E+03	3.418927E-03	7.484687E-05
6.729783E+03	3.384255E-03	7.418166E-05
6.739739E+03	3.344164E-03	7.339573E-05
6.749694E+03	3.299644E-03	7.251027E-05
6.759649E+03	3.251680E-03	7.154643E-05
6.769604E+03	3.201474E-03	7.053029E-05
6.779560E+03	3.150158E-03	6.948654E-05
6.789515E+03	3.098918E-03	6.844118E-05
6.799470E+03	3.049075E-03	6.742335E-05
6.809426E+03	3.001692E-03	6.645663E-05
6.819381E+03	2.957998E-03	6.556839E-05
6.829336E+03	2.918897E-03	6.477894E-05
6.839292E+03	2.885291E-03	6.410863E-05
6.849247E+03	2.858019E-03	6.357651E-05
6.859202E+03	2.837758E-03	6.319809E-05
6.869157E+03	2.825053E-03	6.298599E-05
6.879113E+03	2.820393E-03	6.295165E-05
6.889068E+03	2.823987E-03	6.310028E-05
6.899023E+03	2.835866E-03	6.343308E-05
6.908979E+03	2.855963E-03	6.394907E-05
6.918934E+03	2.884082E-03	6.464435E-05
6.928889E+03	2.919641E-03	6.550631E-05
6.938845E+03	2.962102E-03	6.652323E-05
6.948800E+03	3.010326E-03	6.766985E-05
6.958755E+03	3.063009E-03	6.891707E-05
6.968710E+03	3.118635E-03	7.023086E-05
6.978666E+03	3.175583E-03	7.157471E-05
6.988621E+03	3.231835E-03	7.290306E-05
6.998576E+03	3.285635E-03	7.417605E-05
7.008532E+03	3.335302E-03	7.535545E-05
7.018487E+03	3.379412E-03	7.640868E-05
7.028442E+03	3.416640E-03	7.730540E-05
7.038398E+03	3.446171E-03	7.802671E-05
7.048353E+03	3.467545E-03	7.856174E-05
7.058308E+03	3.480538E-03	7.890501E-05
7.068263E+03	3.485544E-03	7.906500E-05
7.078219E+03	3.483349E-03	7.905927E-05
7.088174E+03	3.474836E-03	7.890757E-05
7.098129E+03	3.461195E-03	7.863670E-05
7.108085E+03	3.443732E-03	7.827623E-05
7.118040E+03	3.423789E-03	7.785658E-05
7.127995E+03	3.402475E-03	7.740296E-05
7.137951E+03	3.380935E-03	7.694142E-05
7.147906E+03	3.359995E-03	7.649085E-05
7.157861E+03	3.340504E-03	7.607062E-05
7.167817E+03	3.322881E-03	7.569037E-05
7.177772E+03	3.307494E-03	7.535862E-05
7.187727E+03	3.294510E-03	7.507921E-05
7.197682E+03	3.283712E-03	7.484733E-05
7.207638E+03	3.274966E-03	7.465998E-05
7.217593E+03	3.267858E-03	7.450782E-05
7.227548E+03	3.262128E-03	7.438496E-05
7.237504E+03	3.257125E-03	7.427666E-05
7.247459E+03	3.252367E-03	7.417192E-05
7.257414E+03	3.247406E-03	7.406064E-05
7.267370E+03	3.241571E-03	7.392758E-05
7.277325E+03	3.234395E-03	7.376209E-05
7.287280E+03	3.225322E-03	7.355165E-05
7.297235E+03	3.214130E-03	7.329121E-05
7.307191E+03	3.200371E-03	7.297070E-05
7.317146E+03	3.184003E-03	7.258924E-05
7.327101E+03	3.164961E-03	7.214545E-05
7.337057E+03	3.143251E-03	7.163964E-05
7.347012E+03	3.119148E-03	7.107816E-05
7.356967E+03	3.092825E-03	7.046511E-05
7.366923E+03	3.064525E-03	6.980617E-05
7.376878E+03	3.034716E-03	6.911215E-05
7.386833E+03	3.003689E-03	6.838979E-05
7.396788E+03	2.971692E-03	6.764486E-05
7.406744E+03	2.938893E-03	6.688136E-05
7.416699E+03	2.905577E-03	6.610587E-05
7.426654E+03	2.871928E-03	6.532273E-05
7.436610E+03	2.838134E-03	6.453630E-05
7.446565E+03	2.804311E-03	6.374936E-05
7.456520E+03	2.770677E-03	6.296696E-05
7.466476E+03	2.737276E-03	6.219023E-05
7.476431E+03	2.704360E-03	6.142495E-05
7.486386E+03	2.671940E-03	6.067150E-05
7.496341E+03	2.640177E-03	5.993356E-05
7.506297E+03	2.609172E-03	5.921352E-05
7.516252E+03	2.579089E-03	5.851513E-05
7.526207E+03	2.550273E-03	5.784629E-05
7.536163E+03	2.522870E-03	5.721036E-05
7.546118E+03	2.497117E-03	5.661276E-05
7.556073E+03	2.473292E-03	5.605984E-05
7.566029E+03	2.451561E-03	5.555540E-05
7.575984E+03	2.432071E-03	5.510279E-05
7.585939E+03	2.415104E-03	5.470849E-05
7.595894E+03	2.400745E-03	5.437442E-05
7.605850E+03	2.389147E-03	5.410414E-05
7.615805E+03	2.380543E-03	5.390295E-05
7.625760E+03	2.374879E-03	5.376974E-05
7.635716E+03	2.372252E-03	5.370672E-05
7.645671E+03	2.372611E-03	5.371287E-05
7.655626E+03	2.375764E-03	5.378392E-05
7.665582E+03	2.381622E-03	5.391800E-05
7.675537E+03	2.389896E-03	5.410869E-05
7.685492E+03	2.400296E-03	5.434953E-05
7.695447E+03	2.412503E-03	5.463352E-05
7.705403E+03	2.426000E-03	5.494909E-05
7.715358E+03	2.440433E-03	5.528838E-05
7.725313E+03	2.455252E-03	5.563913E-05
