#wls	flux	fluxerr
1.592848E+03	1.591023E-04	8.390059E-06
1.632669E+03	1.627347E-04	8.536389E-06
1.672491E+03	1.658014E-04	8.650113E-06
1.712312E+03	1.681806E-04	8.725316E-06
1.752133E+03	1.698151E-04	8.759584E-06
1.791954E+03	1.705408E-04	8.745106E-06
1.831775E+03	1.700859E-04	8.668834E-06
1.871597E+03	1.682795E-04	8.523197E-06
1.911418E+03	1.648198E-04	8.294321E-06
1.951239E+03	1.596594E-04	7.981507E-06
1.991060E+03	1.530064E-04	7.596879E-06
2.030881E+03	1.456618E-04	7.181580E-06
2.070703E+03	1.389781E-04	6.802692E-06
2.110524E+03	1.347292E-04	6.545820E-06
2.150345E+03	1.344242E-04	6.481166E-06
2.190166E+03	1.385648E-04	6.628333E-06
2.229987E+03	1.467186E-04	6.961639E-06
2.269809E+03	1.576564E-04	7.418376E-06
2.309630E+03	1.700551E-04	7.933235E-06
2.349451E+03	1.828571E-04	8.455221E-06
2.389272E+03	1.952772E-04	8.947521E-06
2.429093E+03	2.069651E-04	9.394374E-06
2.468915E+03	2.176308E-04	9.783371E-06
2.508736E+03	2.272729E-04	1.011549E-05
2.548557E+03	2.358238E-04	1.038885E-05
2.588378E+03	2.433468E-04	1.060745E-05
2.628199E+03	2.499186E-04	1.077581E-05
2.668021E+03	2.555114E-04	1.089390E-05
2.707842E+03	2.602034E-04	1.096624E-05
2.747663E+03	2.640021E-04	1.099435E-05
2.787484E+03	2.669882E-04	1.098276E-05
2.827305E+03	2.691769E-04	1.093324E-05
2.867127E+03	2.705924E-04	1.084791E-05
2.906948E+03	2.712703E-04	1.072938E-05
2.946769E+03	2.713236E-04	1.058321E-05
2.986590E+03	2.709355E-04	1.041745E-05
2.996546E+03	2.707725E-04	1.037316E-05
3.006501E+03	2.705739E-04	1.032739E-05
3.016456E+03	2.703721E-04	1.028140E-05
3.026411E+03	2.701737E-04	1.023544E-05
3.036367E+03	2.699976E-04	1.019021E-05
3.046322E+03	2.698330E-04	1.014532E-05
3.056277E+03	2.697053E-04	1.010169E-05
3.066233E+03	2.695806E-04	1.005806E-05
3.076188E+03	2.695142E-04	1.001647E-05
3.086143E+03	2.694441E-04	9.974605E-06
3.096099E+03	2.694261E-04	9.934527E-06
3.106054E+03	2.693997E-04	9.893987E-06
3.116009E+03	2.694210E-04	9.855043E-06
3.125964E+03	2.694310E-04	9.815527E-06
3.135920E+03	2.694860E-04	9.777484E-06
3.145875E+03	2.695846E-04	9.740843E-06
3.155830E+03	2.696700E-04	9.703544E-06
3.165786E+03	2.697983E-04	9.667600E-06
3.175741E+03	2.699688E-04	9.632970E-06
3.185696E+03	2.701544E-04	9.598668E-06
3.195652E+03	2.703825E-04	9.565661E-06
3.205607E+03	2.706535E-04	9.533939E-06
3.215562E+03	2.709678E-04	9.503500E-06
3.225517E+03	2.713258E-04	9.474339E-06
3.235473E+03	2.717548E-04	9.447380E-06
3.245428E+03	2.722025E-04	9.420782E-06
3.255383E+03	2.727224E-04	9.396378E-06
3.265339E+03	2.733148E-04	9.374148E-06
3.275294E+03	2.739803E-04	9.354077E-06
3.285249E+03	2.747195E-04	9.336150E-06
3.295205E+03	2.755075E-04	9.319487E-06
3.305160E+03	2.763960E-04	9.305808E-06
3.315115E+03	2.773850E-04	9.295062E-06
3.325070E+03	2.784498E-04	9.286377E-06
3.335026E+03	2.796154E-04	9.280549E-06
3.344981E+03	2.809070E-04	9.278355E-06
3.354936E+03	2.822747E-04	9.278098E-06
3.364892E+03	2.837678E-04	9.281351E-06
3.374847E+03	2.853858E-04	9.288033E-06
3.384802E+03	2.871280E-04	9.298060E-06
3.394758E+03	2.889931E-04	9.311332E-06
3.404713E+03	2.910047E-04	9.328537E-06
3.414668E+03	2.931370E-04	9.348780E-06
3.424623E+03	3.458839E-04	1.097405E-05
3.426615E+03	3.529354E-04	1.118613E-05
3.428606E+03	3.571555E-04	1.130810E-05
3.430597E+03	3.641510E-04	1.151756E-05
3.432588E+03	3.748919E-04	1.184489E-05
3.434579E+03	3.822992E-04	1.206628E-05
3.436570E+03	3.942981E-04	1.243195E-05
3.438561E+03	4.139179E-04	1.303684E-05
3.440552E+03	4.210025E-04	1.324603E-05
3.442543E+03	4.298329E-04	1.350962E-05
3.444534E+03	4.406284E-04	1.383430E-05
3.446525E+03	4.521362E-04	1.418060E-05
3.448516E+03	4.634672E-04	1.452059E-05
3.450507E+03	4.706206E-04	1.472907E-05
3.452498E+03	4.751068E-04	1.485367E-05
3.454489E+03	4.800399E-04	1.499193E-05
3.456480E+03	4.922340E-04	1.535637E-05
3.458471E+03	4.994894E-04	1.556608E-05
3.460463E+03	5.055450E-04	1.573795E-05
3.462454E+03	5.069234E-04	1.576395E-05
3.464445E+03	5.099514E-04	1.584110E-05
3.466436E+03	5.129358E-04	1.591667E-05
3.468427E+03	5.167685E-04	1.601834E-05
3.470418E+03	5.195768E-04	1.608802E-05
3.472409E+03	5.209576E-04	1.611335E-05
3.474400E+03	5.237225E-04	1.618134E-05
3.476391E+03	5.210859E-04	1.608242E-05
3.478382E+03	5.246997E-04	1.617638E-05
3.480373E+03	5.314863E-04	1.636778E-05
3.482364E+03	5.280438E-04	1.624405E-05
3.484355E+03	5.304091E-04	1.629901E-05
3.486346E+03	5.286624E-04	1.622758E-05
3.488337E+03	5.279875E-04	1.618912E-05
3.490328E+03	5.252096E-04	1.608628E-05
3.492319E+03	5.164800E-04	1.580153E-05
3.494311E+03	5.139655E-04	1.570730E-05
3.496302E+03	5.137322E-04	1.568286E-05
3.498293E+03	5.089766E-04	1.552053E-05
3.500284E+03	5.059646E-04	1.541162E-05
3.502275E+03	5.049665E-04	1.536418E-05
3.504266E+03	4.996665E-04	1.518605E-05
3.506257E+03	4.904202E-04	1.488847E-05
3.508248E+03	4.829170E-04	1.464436E-05
3.510239E+03	4.751412E-04	1.439249E-05
3.512230E+03	4.642221E-04	1.404603E-05
3.514221E+03	4.552712E-04	1.375979E-05
3.516212E+03	4.485051E-04	1.354010E-05
3.518203E+03	4.418297E-04	1.332360E-05
3.520194E+03	4.369150E-04	1.316058E-05
3.522185E+03	4.270501E-04	1.284894E-05
3.524176E+03	4.246078E-04	1.276104E-05
3.526168E+03	4.179240E-04	1.254597E-05
3.528159E+03	4.153524E-04	1.245466E-05
3.530150E+03	4.087797E-04	1.224367E-05
3.532141E+03	4.100022E-04	1.226633E-05
3.534132E+03	4.090357E-04	1.222349E-05
3.536123E+03	4.119268E-04	1.229586E-05
3.538114E+03	4.118504E-04	1.227954E-05
3.540105E+03	4.134924E-04	1.231440E-05
3.542096E+03	4.113503E-04	1.223657E-05
3.544087E+03	4.074068E-04	1.210535E-05
3.546078E+03	4.059958E-04	1.204956E-05
3.548069E+03	4.005583E-04	1.187450E-05
3.550060E+03	3.967441E-04	1.174786E-05
3.552051E+03	3.982799E-04	1.177971E-05
3.554042E+03	4.021371E-04	1.188003E-05
3.556033E+03	4.056985E-04	1.197135E-05
3.558024E+03	4.052399E-04	1.194393E-05
3.560016E+03	4.047944E-04	1.191693E-05
3.562007E+03	4.074653E-04	1.198158E-05
3.563998E+03	4.056035E-04	1.191291E-05
3.565989E+03	4.072420E-04	1.194706E-05
3.567980E+03	4.077754E-04	1.194870E-05
3.569971E+03	4.104082E-04	1.201174E-05
3.571962E+03	4.148072E-04	1.212622E-05
3.573953E+03	4.182509E-04	1.221250E-05
3.575944E+03	4.184300E-04	1.220333E-05
3.577935E+03	4.202761E-04	1.224270E-05
3.579926E+03	4.224664E-04	1.229194E-05
3.581917E+03	4.219681E-04	1.226290E-05
3.583908E+03	4.241371E-04	1.231130E-05
3.585899E+03	4.265013E-04	1.236521E-05
3.587890E+03	4.286766E-04	1.241348E-05
3.589881E+03	4.332234E-04	1.253018E-05
3.591872E+03	4.390166E-04	1.268256E-05
3.593864E+03	4.425040E-04	1.276801E-05
3.595855E+03	4.499133E-04	1.296623E-05
3.597846E+03	4.563162E-04	1.313496E-05
3.599837E+03	4.601763E-04	1.323014E-05
3.601828E+03	4.665748E-04	1.339793E-05
3.603819E+03	4.731124E-04	1.356926E-05
3.605810E+03	4.782928E-04	1.370125E-05
3.607801E+03	4.800303E-04	1.373437E-05
3.609792E+03	4.846250E-04	1.384901E-05
3.611783E+03	4.855482E-04	1.385853E-05
3.613774E+03	4.894204E-04	1.395204E-05
3.615765E+03	4.920692E-04	1.401045E-05
3.617756E+03	4.935844E-04	1.403642E-05
3.619747E+03	4.937386E-04	1.402363E-05
3.621738E+03	4.920312E-04	1.395801E-05
3.623729E+03	4.958635E-04	1.404945E-05
3.625721E+03	4.969268E-04	1.406226E-05
3.627712E+03	4.979449E-04	1.407372E-05
3.629703E+03	5.000088E-04	1.411461E-05
3.631694E+03	5.042553E-04	1.421689E-05
3.633685E+03	5.077763E-04	1.429843E-05
3.635676E+03	5.103893E-04	1.435419E-05
3.637667E+03	5.120939E-04	1.438423E-05
3.639658E+03	5.111151E-04	1.433888E-05
3.641649E+03	5.142768E-04	1.440959E-05
3.643640E+03	5.144359E-04	1.439605E-05
3.645631E+03	5.112265E-04	1.428834E-05
3.647622E+03	5.116584E-04	1.428249E-05
3.649613E+03	5.091301E-04	1.419408E-05
3.651604E+03	5.100628E-04	1.420221E-05
3.653595E+03	5.126819E-04	1.425716E-05
3.655586E+03	5.132970E-04	1.425626E-05
3.657577E+03	5.138668E-04	1.425405E-05
3.659569E+03	5.117468E-04	1.417727E-05
3.661560E+03	5.099908E-04	1.411071E-05
3.663551E+03	5.081885E-04	1.404299E-05
3.665542E+03	5.067505E-04	1.398543E-05
3.667533E+03	5.060877E-04	1.394934E-05
3.669524E+03	5.046943E-04	1.389318E-05
3.671515E+03	5.037570E-04	1.384964E-05
3.673506E+03	5.018603E-04	1.377982E-05
3.675497E+03	4.957607E-04	1.359488E-05
3.677488E+03	4.949581E-04	1.355542E-05
3.679479E+03	4.909564E-04	1.342852E-05
3.681470E+03	4.820625E-04	1.316825E-05
3.683461E+03	4.774620E-04	1.302573E-05
3.685452E+03	4.704819E-04	1.281870E-05
3.687443E+03	4.614862E-04	1.255730E-05
3.689434E+03	4.536622E-04	1.232838E-05
3.691425E+03	4.431169E-04	1.202615E-05
3.693417E+03	4.339261E-04	1.176137E-05
3.695408E+03	4.228910E-04	1.144731E-05
3.697399E+03	4.132523E-04	1.117177E-05
3.699390E+03	4.027711E-04	1.087417E-05
3.701381E+03	3.910483E-04	1.054382E-05
3.703372E+03	3.781977E-04	1.018393E-05
3.705363E+03	3.656164E-04	9.832189E-06
3.707354E+03	3.555370E-04	9.548528E-06
3.709345E+03	3.468515E-04	9.302962E-06
3.711336E+03	3.373503E-04	9.036158E-06
3.713327E+03	3.289046E-04	8.798259E-06
3.715318E+03	3.213452E-04	8.584632E-06
3.717309E+03	3.103404E-04	8.279619E-06
3.719300E+03	3.023190E-04	8.054872E-06
3.721291E+03	2.916907E-04	7.761326E-06
3.723282E+03	2.866741E-04	7.617651E-06
3.725274E+03	2.798224E-04	7.425629E-06
3.727265E+03	2.753110E-04	7.296113E-06
3.729256E+03	2.710228E-04	7.172820E-06
3.731247E+03	2.691000E-04	7.112349E-06
3.733238E+03	2.638108E-04	6.963155E-06
3.735229E+03	2.627503E-04	6.925800E-06
3.737220E+03	2.564912E-04	6.751672E-06
3.739211E+03	2.510254E-04	6.598844E-06
3.741202E+03	2.454097E-04	6.442466E-06
3.743193E+03	2.399712E-04	6.291131E-06
3.745184E+03	2.355614E-04	6.167113E-06
3.747175E+03	2.282944E-04	5.968706E-06
3.749166E+03	2.282377E-04	5.959072E-06
3.751157E+03	2.268312E-04	5.914242E-06
3.753148E+03	2.234790E-04	5.818852E-06
3.755139E+03	2.189961E-04	5.694296E-06
3.757130E+03	2.152995E-04	5.590477E-06
3.759122E+03	2.132063E-04	5.528496E-06
3.761113E+03	2.101940E-04	5.442862E-06
3.763104E+03	2.087217E-04	5.397263E-06
3.765095E+03	2.073409E-04	5.354132E-06
3.767086E+03	2.046764E-04	5.277993E-06
3.769077E+03	2.019781E-04	5.201175E-06
3.771068E+03	2.012831E-04	5.176062E-06
3.773059E+03	2.017336E-04	5.180413E-06
3.775050E+03	1.976283E-04	5.067901E-06
3.777041E+03	1.968767E-04	5.041562E-06
3.779032E+03	1.961894E-04	5.016921E-06
3.781023E+03	1.966116E-04	5.020657E-06
3.783014E+03	1.967429E-04	5.016944E-06
3.785005E+03	1.917758E-04	4.883394E-06
3.786996E+03	1.911841E-04	4.861458E-06
3.788987E+03	1.922492E-04	4.881631E-06
3.790979E+03	1.968985E-04	4.992606E-06
3.792970E+03	1.983040E-04	5.021111E-06
3.794961E+03	2.020863E-04	5.109612E-06
3.796952E+03	2.030906E-04	5.127696E-06
3.798943E+03	2.066352E-04	5.209754E-06
3.800934E+03	2.104924E-04	5.299424E-06
3.802925E+03	2.119774E-04	5.329175E-06
3.804916E+03	2.136395E-04	5.363266E-06
3.806907E+03	2.147413E-04	5.383188E-06
3.808898E+03	2.181638E-04	5.461120E-06
3.810889E+03	2.206691E-04	5.515879E-06
3.812880E+03	2.222472E-04	5.547310E-06
3.814871E+03	2.230925E-04	5.560362E-06
3.816862E+03	2.259774E-04	5.624112E-06
3.818853E+03	2.274562E-04	5.652708E-06
3.820844E+03	2.270956E-04	5.635548E-06
3.822835E+03	2.272182E-04	5.630388E-06
3.824827E+03	2.257601E-04	5.586103E-06
3.826818E+03	2.242549E-04	5.540758E-06
3.828809E+03	2.242609E-04	5.532804E-06
3.830800E+03	2.244021E-04	5.528177E-06
3.832791E+03	2.226209E-04	5.476252E-06
3.834782E+03	2.181157E-04	5.357541E-06
3.836773E+03	2.149215E-04	5.271311E-06
3.838764E+03	2.149161E-04	5.263406E-06
3.840755E+03	2.149623E-04	5.256760E-06
3.842746E+03	2.172364E-04	5.304510E-06
3.844737E+03	2.195021E-04	5.351890E-06
3.846728E+03	2.259004E-04	5.499717E-06
3.848719E+03	2.299048E-04	5.588883E-06
3.850710E+03	2.394865E-04	5.813136E-06
3.852701E+03	2.479578E-04	6.009781E-06
3.854692E+03	2.574186E-04	6.229757E-06
3.856683E+03	2.701293E-04	6.527578E-06
3.858675E+03	2.839443E-04	6.851124E-06
3.860666E+03	2.992147E-04	7.208728E-06
3.862657E+03	3.142691E-04	7.560026E-06
3.864648E+03	3.332669E-04	8.004951E-06
3.866639E+03	3.521345E-04	8.445371E-06
3.868630E+03	3.733739E-04	8.941219E-06
3.870621E+03	3.933244E-04	9.404707E-06
3.872612E+03	4.168367E-04	9.951780E-06
3.874603E+03	4.393885E-04	1.047425E-05
3.876594E+03	4.611191E-04	1.097553E-05
3.878585E+03	4.821547E-04	1.145871E-05
3.880576E+03	5.076699E-04	1.204666E-05
3.882567E+03	5.345579E-04	1.266529E-05
3.884558E+03	5.593983E-04	1.323351E-05
3.886549E+03	5.859402E-04	1.384012E-05
3.888540E+03	6.101053E-04	1.438875E-05
3.890532E+03	6.330173E-04	1.490611E-05
3.892523E+03	6.601176E-04	1.552027E-05
3.894514E+03	6.842764E-04	1.606340E-05
3.896505E+03	7.102322E-04	1.664690E-05
3.898496E+03	7.345124E-04	1.718930E-05
3.900487E+03	7.584304E-04	1.772146E-05
3.902478E+03	7.812815E-04	1.822699E-05
3.904469E+03	8.051320E-04	1.875413E-05
3.906460E+03	8.314873E-04	1.933779E-05
3.908451E+03	8.557417E-04	1.987075E-05
3.910442E+03	8.747897E-04	2.028123E-05
3.912433E+03	8.947894E-04	2.071235E-05
3.914424E+03	9.142830E-04	2.113032E-05
3.916415E+03	9.327522E-04	2.152323E-05
3.918406E+03	9.508084E-04	2.190528E-05
3.920397E+03	9.681686E-04	2.227000E-05
3.922388E+03	9.859629E-04	2.264342E-05
3.924380E+03	1.000799E-03	2.294772E-05
3.926371E+03	1.015879E-03	2.325652E-05
3.928362E+03	1.027433E-03	2.348361E-05
3.930353E+03	1.038380E-03	2.369602E-05
3.932344E+03	1.048437E-03	2.388736E-05
3.934335E+03	1.056047E-03	2.402229E-05
3.936326E+03	1.064558E-03	2.417714E-05
3.938317E+03	1.073499E-03	2.434112E-05
3.940308E+03	1.080605E-03	2.446287E-05
3.942299E+03	1.084218E-03	2.450520E-05
3.944290E+03	1.086275E-03	2.451213E-05
3.946281E+03	1.087436E-03	2.449871E-05
3.948272E+03	1.089354E-03	2.450225E-05
3.950263E+03	1.089996E-03	2.447700E-05
3.952254E+03	1.089930E-03	2.443582E-05
3.954245E+03	1.088255E-03	2.435863E-05
3.956236E+03	1.086438E-03	2.427838E-05
3.958228E+03	1.084809E-03	2.420248E-05
3.960219E+03	1.083322E-03	2.412985E-05
3.962210E+03	1.082877E-03	2.408049E-05
3.964201E+03	1.081579E-03	2.401223E-05
3.966192E+03	1.080802E-03	2.395562E-05
3.968183E+03	1.081021E-03	2.392109E-05
3.970174E+03	1.078489E-03	2.382579E-05
3.972165E+03	1.076905E-03	2.375158E-05
3.974156E+03	1.073660E-03	2.364090E-05
3.976147E+03	1.074163E-03	2.361286E-05
3.978138E+03	1.074762E-03	2.358689E-05
3.980129E+03	1.076265E-03	2.358067E-05
3.982120E+03	1.077816E-03	2.357541E-05
3.984111E+03	1.081460E-03	2.361573E-05
3.986102E+03	1.087768E-03	2.371388E-05
3.988093E+03	1.094984E-03	2.383133E-05
3.990085E+03	1.105392E-03	2.401761E-05
3.992076E+03	1.114046E-03	2.416508E-05
3.994067E+03	1.121802E-03	2.429246E-05
3.996058E+03	1.128943E-03	2.440601E-05
3.998049E+03	1.138708E-03	2.457568E-05
4.000040E+03	1.146717E-03	2.470679E-05
4.002031E+03	1.156065E-03	2.486613E-05
4.004022E+03	1.168851E-03	2.509863E-05
4.006013E+03	1.181980E-03	2.533752E-05
4.008004E+03	1.196309E-03	2.560116E-05
4.009995E+03	1.210026E-03	2.585070E-05
4.011986E+03	1.223561E-03	2.609536E-05
4.013977E+03	1.235721E-03	2.630975E-05
4.015968E+03	1.250753E-03	2.658432E-05
4.017959E+03	1.260492E-03	2.674549E-05
4.019950E+03	1.271910E-03	2.694152E-05
4.021941E+03	1.280420E-03	2.707523E-05
4.023933E+03	1.289748E-03	2.722560E-05
4.025924E+03	1.297265E-03	2.733713E-05
4.027915E+03	1.304978E-03	2.745224E-05
4.029906E+03	1.311308E-03	2.753777E-05
4.031897E+03	1.316350E-03	2.759583E-05
4.033888E+03	1.320389E-03	2.763257E-05
4.035879E+03	1.327210E-03	2.772712E-05
4.037870E+03	1.333029E-03	2.780029E-05
4.039861E+03	1.336168E-03	2.781725E-05
4.041852E+03	1.338399E-03	2.781511E-05
4.043843E+03	1.337417E-03	2.774619E-05
4.045834E+03	1.336724E-03	2.768331E-05
4.047825E+03	1.335599E-03	2.761156E-05
4.049816E+03	1.337881E-03	2.761022E-05
4.051807E+03	1.337716E-03	2.755832E-05
4.053798E+03	1.335678E-03	2.746793E-05
4.055790E+03	1.333544E-03	2.737569E-05
4.057781E+03	1.334147E-03	2.733975E-05
4.059772E+03	1.329896E-03	2.720446E-05
4.061763E+03	1.326893E-03	2.709497E-05
4.063754E+03	1.323215E-03	2.697195E-05
4.065745E+03	1.317418E-03	2.680609E-05
4.067736E+03	1.312050E-03	2.664939E-05
4.069727E+03	1.304031E-03	2.643934E-05
4.071718E+03	1.300632E-03	2.632337E-05
4.073709E+03	1.294436E-03	2.615116E-05
4.075700E+03	1.287706E-03	2.596865E-05
4.077691E+03	1.283914E-03	2.584577E-05
4.079682E+03	1.281807E-03	2.575704E-05
4.081673E+03	1.276708E-03	2.560847E-05
4.083664E+03	1.270207E-03	2.543220E-05
4.085655E+03	1.263991E-03	2.526213E-05
4.087646E+03	1.255406E-03	2.504524E-05
4.089638E+03	1.249618E-03	2.488468E-05
4.091629E+03	1.243198E-03	2.471200E-05
4.093620E+03	1.236870E-03	2.454163E-05
4.095611E+03	1.232038E-03	2.440135E-05
4.097602E+03	1.225704E-03	2.423173E-05
4.099593E+03	1.219850E-03	2.407206E-05
4.101584E+03	1.215540E-03	2.394326E-05
4.103575E+03	1.214036E-03	2.386994E-05
4.105566E+03	1.210062E-03	2.374827E-05
4.107557E+03	1.203034E-03	2.356707E-05
4.109548E+03	1.196195E-03	2.339009E-05
4.111539E+03	1.193375E-03	2.329207E-05
4.113530E+03	1.190990E-03	2.320273E-05
4.115521E+03	1.188556E-03	2.311262E-05
4.117512E+03	1.187769E-03	2.305468E-05
4.119503E+03	1.186351E-03	2.298459E-05
4.121494E+03	1.184204E-03	2.290053E-05
4.123486E+03	1.180696E-03	2.279037E-05
4.125477E+03	1.175875E-03	2.265516E-05
4.127468E+03	1.173480E-03	2.256699E-05
4.129459E+03	1.175508E-03	2.256389E-05
4.131450E+03	1.175008E-03	2.251225E-05
4.133441E+03	1.174849E-03	2.246717E-05
4.135432E+03	1.173084E-03	2.239148E-05
4.137423E+03	1.170782E-03	2.230571E-05
4.139414E+03	1.169015E-03	2.223029E-05
4.141405E+03	1.168562E-03	2.217995E-05
4.143396E+03	1.167232E-03	2.211305E-05
4.145387E+03	1.167314E-03	2.207297E-05
4.147378E+03	1.166568E-03	2.201727E-05
4.149369E+03	1.166066E-03	2.196624E-05
4.151360E+03	1.162977E-03	2.186664E-05
4.153351E+03	1.160473E-03	2.177824E-05
4.155343E+03	1.160309E-03	2.173390E-05
4.157334E+03	1.159902E-03	2.168503E-05
4.159325E+03	1.160520E-03	2.165534E-05
4.161316E+03	1.157914E-03	2.156559E-05
4.163307E+03	1.156773E-03	2.150327E-05
4.165298E+03	1.157147E-03	2.146917E-05
4.167289E+03	1.155809E-03	2.140337E-05
4.169280E+03	1.150704E-03	2.126804E-05
4.171271E+03	1.150391E-03	2.122152E-05
4.173262E+03	1.147581E-03	2.112907E-05
4.175253E+03	1.147659E-03	2.108991E-05
4.177244E+03	1.148031E-03	2.105616E-05
4.179235E+03	1.147717E-03	2.100986E-05
4.181226E+03	1.146423E-03	2.094569E-05
4.183217E+03	1.146550E-03	2.090756E-05
4.185208E+03	1.143587E-03	2.081320E-05
4.187199E+03	1.142486E-03	2.075291E-05
4.189191E+03	1.141827E-03	2.070072E-05
4.191182E+03	1.138319E-03	2.059708E-05
4.193173E+03	1.134318E-03	2.048479E-05
4.195164E+03	1.132378E-03	2.040997E-05
4.197155E+03	1.131469E-03	2.035385E-05
4.199146E+03	1.131838E-03	2.032075E-05
4.201137E+03	1.132698E-03	2.029648E-05
4.203128E+03	1.133608E-03	2.027306E-05
4.205119E+03	1.132354E-03	2.021098E-05
4.207110E+03	1.130508E-03	2.013848E-05
4.209101E+03	1.129301E-03	2.007749E-05
4.211092E+03	1.127896E-03	2.001311E-05
4.213083E+03	1.127279E-03	1.996280E-05
4.215074E+03	1.128238E-03	1.994044E-05
4.217065E+03	1.126585E-03	1.987195E-05
4.219056E+03	1.126559E-03	1.983225E-05
4.221047E+03	1.125151E-03	1.976831E-05
4.223039E+03	1.124383E-03	1.971573E-05
4.225030E+03	1.124603E-03	1.968050E-05
4.227021E+03	1.126897E-03	1.968152E-05
4.229012E+03	1.128896E-03	1.967728E-05
4.231003E+03	1.131439E-03	1.968241E-05
4.232994E+03	1.133144E-03	1.967283E-05
4.234985E+03	1.133763E-03	1.964434E-05
4.236976E+03	1.134035E-03	1.960986E-05
4.238967E+03	1.133515E-03	1.956173E-05
4.240958E+03	1.132599E-03	1.950685E-05
4.242949E+03	1.131287E-03	1.944524E-05
4.244940E+03	1.130815E-03	1.939819E-05
4.246931E+03	1.133019E-03	1.939701E-05
4.248922E+03	1.133242E-03	1.936187E-05
4.250913E+03	1.132621E-03	1.931237E-05
4.252904E+03	1.130612E-03	1.923932E-05
4.254896E+03	1.129693E-03	1.918495E-05
4.256887E+03	1.130807E-03	1.916516E-05
4.258878E+03	1.128348E-03	1.908488E-05
4.260869E+03	1.126831E-03	1.902071E-05
4.262860E+03	1.123276E-03	1.892235E-05
4.264851E+03	1.121358E-03	1.885181E-05
4.266842E+03	1.120980E-03	1.880726E-05
4.268833E+03	1.120154E-03	1.875528E-05
4.270824E+03	1.118730E-03	1.869341E-05
4.272815E+03	1.118699E-03	1.865490E-05
4.274806E+03	1.117274E-03	1.859323E-05
4.276797E+03	1.118786E-03	1.858047E-05
4.278788E+03	1.118405E-03	1.853630E-05
4.280779E+03	1.118025E-03	1.849218E-05
4.282770E+03	1.119189E-03	1.847364E-05
4.284761E+03	1.118259E-03	1.842057E-05
