#wls	flux	fluxerr
1.592848E+03	1.117256E-04	6.455862E-06
1.632669E+03	1.144183E-04	6.579126E-06
1.672491E+03	1.166767E-04	6.675225E-06
1.712312E+03	1.184558E-04	6.741905E-06
1.752133E+03	1.197397E-04	6.778651E-06
1.791954E+03	1.203674E-04	6.776793E-06
1.831775E+03	1.201917E-04	6.728682E-06
1.871597E+03	1.190018E-04	6.623335E-06
1.911418E+03	1.166513E-04	6.453658E-06
1.951239E+03	1.130643E-04	6.216675E-06
1.991060E+03	1.084125E-04	5.923096E-06
2.030881E+03	1.032282E-04	5.603036E-06
2.070703E+03	9.849686E-05	5.310290E-06
2.110524E+03	9.546435E-05	5.111179E-06
2.150345E+03	9.517243E-05	5.059241E-06
2.190166E+03	9.804687E-05	5.173802E-06
2.229987E+03	1.036921E-04	5.430354E-06
2.269809E+03	1.112879E-04	5.782802E-06
2.309630E+03	1.199252E-04	6.181684E-06
2.349451E+03	1.288276E-04	6.585767E-06
2.389272E+03	1.374975E-04	6.969230E-06
2.429093E+03	1.456909E-04	7.319866E-06
2.468915E+03	1.532707E-04	7.631230E-06
2.508736E+03	1.602423E-04	7.904198E-06
2.548557E+03	1.666331E-04	8.140734E-06
2.588378E+03	1.724613E-04	8.342338E-06
2.628199E+03	1.778369E-04	8.514905E-06
2.668021E+03	1.828134E-04	8.661455E-06
2.707842E+03	1.874107E-04	8.783362E-06
2.747663E+03	1.917041E-04	8.884546E-06
2.787484E+03	1.957664E-04	8.968667E-06
2.827305E+03	1.996383E-04	9.037796E-06
2.867127E+03	2.034185E-04	9.096535E-06
2.906948E+03	2.071449E-04	9.146568E-06
2.946769E+03	2.109431E-04	9.193341E-06
2.986590E+03	2.148488E-04	9.238139E-06
2.996546E+03	2.158745E-04	9.250384E-06
3.006501E+03	2.168856E-04	9.261562E-06
3.016456E+03	2.179415E-04	9.274206E-06
3.026411E+03	2.190172E-04	9.287227E-06
3.036367E+03	2.201280E-04	9.301268E-06
3.046322E+03	2.212891E-04	9.316948E-06
3.056277E+03	2.225255E-04	9.335289E-06
3.066233E+03	2.238042E-04	9.354876E-06
3.076188E+03	2.251216E-04	9.375542E-06
3.086143E+03	2.264747E-04	9.397136E-06
3.096099E+03	2.279183E-04	9.421905E-06
3.106054E+03	2.293634E-04	9.446142E-06
3.116009E+03	2.308939E-04	9.473284E-06
3.125964E+03	2.324219E-04	9.499694E-06
3.135920E+03	2.340313E-04	9.528791E-06
3.145875E+03	2.356635E-04	9.558154E-06
3.155830E+03	2.373740E-04	9.590011E-06
3.165786E+03	2.391044E-04	9.621972E-06
3.175741E+03	2.408823E-04	9.655131E-06
3.185696E+03	2.427065E-04	9.689415E-06
3.195652E+03	2.446047E-04	9.725897E-06
3.205607E+03	2.465193E-04	9.762259E-06
3.215562E+03	2.485065E-04	9.800703E-06
3.225517E+03	2.505653E-04	9.841155E-06
3.235473E+03	2.526671E-04	9.882458E-06
3.245428E+03	2.548115E-04	9.924566E-06
3.255383E+03	2.570261E-04	9.968532E-06
3.265339E+03	2.593109E-04	1.001431E-05
3.275294E+03	2.616372E-04	1.006076E-05
3.285249E+03	2.640608E-04	1.011000E-05
3.295205E+03	2.665535E-04	1.016090E-05
3.305160E+03	2.690873E-04	1.021235E-05
3.315115E+03	2.717455E-04	1.026747E-05
3.325070E+03	2.744445E-04	1.032307E-05
3.335026E+03	2.772399E-04	1.038118E-05
3.344981E+03	2.801039E-04	1.044073E-05
3.354936E+03	2.830918E-04	1.050373E-05
3.364892E+03	2.861485E-04	1.056806E-05
3.374847E+03	2.893018E-04	1.063472E-05
3.384802E+03	2.925518E-04	1.070365E-05
3.394758E+03	2.958991E-04	1.077481E-05
3.404713E+03	2.993715E-04	1.084917E-05
3.414668E+03	3.029424E-04	1.092568E-05
3.424623E+03	3.066400E-04	1.100531E-05
3.434579E+03	3.104652E-04	1.108801E-05
3.444534E+03	3.143923E-04	1.117279E-05
3.454489E+03	3.184771E-04	1.126158E-05
3.464445E+03	3.226943E-04	1.135338E-05
3.474400E+03	3.270460E-04	1.144821E-05
3.484355E+03	3.315350E-04	1.154606E-05
3.494311E+03	3.361909E-04	1.164790E-05
3.504266E+03	3.410174E-04	1.175375E-05
3.514221E+03	3.460180E-04	1.186363E-05
3.524176E+03	3.511970E-04	1.197759E-05
3.534132E+03	3.565859E-04	1.209659E-05
3.544087E+03	3.621363E-04	1.221888E-05
3.554042E+03	3.679076E-04	1.234635E-05
3.563998E+03	3.739062E-04	1.247909E-05
3.573953E+03	3.801388E-04	1.261719E-05
3.583908E+03	3.866128E-04	1.276075E-05
3.593864E+03	3.933356E-04	1.290988E-05
3.603819E+03	4.003414E-04	1.306554E-05
3.613774E+03	4.076113E-04	1.322696E-05
3.623729E+03	4.151809E-04	1.339512E-05
3.633685E+03	4.230586E-04	1.357012E-05
3.643640E+03	4.312271E-04	1.375123E-05
3.653595E+03	4.397491E-04	1.394025E-05
3.663551E+03	4.486342E-04	1.413729E-05
3.673506E+03	4.578381E-04	1.434074E-05
3.683461E+03	4.674510E-04	1.455321E-05
3.693417E+03	4.774281E-04	1.477307E-05
3.703372E+03	4.878321E-04	1.500204E-05
3.713327E+03	4.986173E-04	1.523846E-05
3.723282E+03	5.098450E-04	1.548396E-05
3.733238E+03	5.214947E-04	1.573766E-05
3.743193E+03	5.335984E-04	1.600025E-05
3.753148E+03	5.461604E-04	1.627161E-05
3.763104E+03	5.591546E-04	1.655066E-05
3.773059E+03	5.726358E-04	1.683877E-05
3.783014E+03	5.865460E-04	1.713394E-05
3.792970E+03	6.009353E-04	1.743736E-05
3.802925E+03	6.157674E-04	1.774770E-05
3.812880E+03	6.310580E-04	1.806513E-05
3.822835E+03	6.467922E-04	1.838895E-05
3.832791E+03	6.629218E-04	1.871752E-05
3.842746E+03	6.794515E-04	1.905074E-05
3.852701E+03	6.963530E-04	1.938756E-05
3.862657E+03	7.135649E-04	1.972606E-05
3.872612E+03	7.311068E-04	2.006659E-05
3.882567E+03	7.489081E-04	2.040700E-05
3.892523E+03	7.669506E-04	2.074666E-05
3.902478E+03	7.851255E-04	2.108249E-05
3.912433E+03	8.034351E-04	2.141445E-05
3.922388E+03	8.217914E-04	2.174014E-05
3.932344E+03	8.401317E-04	2.205789E-05
3.942299E+03	8.584202E-04	2.236676E-05
3.952254E+03	8.765610E-04	2.266430E-05
3.962210E+03	8.944864E-04	2.294886E-05
3.972165E+03	9.121575E-04	2.321959E-05
3.982120E+03	9.294492E-04	2.347348E-05
3.992076E+03	9.463547E-04	2.371059E-05
4.002031E+03	9.627836E-04	2.392893E-05
4.011986E+03	9.786495E-04	2.412664E-05
4.021941E+03	9.939582E-04	2.430423E-05
4.031897E+03	1.008606E-03	2.445953E-05
4.041852E+03	1.022584E-03	2.459272E-05
4.051807E+03	1.035832E-03	2.470282E-05
4.061763E+03	1.048330E-03	2.478977E-05
4.071718E+03	1.060063E-03	2.485376E-05
4.081673E+03	1.071030E-03	2.489517E-05
4.091629E+03	1.081208E-03	2.491402E-05
4.101584E+03	1.090614E-03	2.491115E-05
4.111539E+03	1.099271E-03	2.488762E-05
4.121494E+03	1.107214E-03	2.484466E-05
4.131450E+03	1.114456E-03	2.478306E-05
4.141405E+03	1.121022E-03	2.470378E-05
4.151360E+03	1.126993E-03	2.460905E-05
4.161316E+03	1.132379E-03	2.449949E-05
4.171271E+03	1.137274E-03	2.437747E-05
4.181226E+03	1.141721E-03	2.424427E-05
4.191182E+03	1.145770E-03	2.410124E-05
4.201137E+03	1.149499E-03	2.395026E-05
4.211092E+03	1.152959E-03	2.379266E-05
4.221047E+03	1.156208E-03	2.362978E-05
4.231003E+03	1.159346E-03	2.346383E-05
4.240958E+03	1.162404E-03	2.329556E-05
4.250913E+03	1.165460E-03	2.312660E-05
4.260869E+03	1.168543E-03	2.295759E-05
4.270824E+03	1.171751E-03	2.279042E-05
4.280779E+03	1.175110E-03	2.262561E-05
4.290735E+03	1.178688E-03	2.246442E-05
4.300690E+03	1.182530E-03	2.230763E-05
4.310645E+03	1.186657E-03	2.215555E-05
4.320601E+03	1.191132E-03	2.200920E-05
4.330556E+03	1.196010E-03	2.186949E-05
4.340511E+03	1.201306E-03	2.173652E-05
4.350466E+03	1.207052E-03	2.161069E-05
4.360422E+03	1.213275E-03	2.149232E-05
4.370377E+03	1.220001E-03	2.138168E-05
4.380332E+03	1.227266E-03	2.127917E-05
4.390288E+03	1.235055E-03	2.118435E-05
4.400243E+03	1.243369E-03	2.109704E-05
4.410198E+03	1.252222E-03	2.101729E-05
4.420154E+03	1.261583E-03	2.094441E-05
4.430109E+03	1.271472E-03	2.087857E-05
4.440064E+03	1.281844E-03	2.081884E-05
4.450019E+03	1.292701E-03	2.076514E-05
4.459975E+03	1.303999E-03	2.071662E-05
4.469930E+03	1.315705E-03	2.067266E-05
4.479885E+03	1.327773E-03	2.063249E-05
4.489841E+03	1.340170E-03	2.059555E-05
4.499796E+03	1.352796E-03	2.056030E-05
4.509751E+03	1.365616E-03	2.052628E-05
4.519707E+03	1.378533E-03	2.049211E-05
4.529662E+03	1.391479E-03	2.045693E-05
4.539617E+03	1.404363E-03	2.041956E-05
4.549572E+03	1.417088E-03	2.037885E-05
4.559528E+03	1.429553E-03	2.033365E-05
4.569483E+03	1.441678E-03	2.028313E-05
4.579438E+03	1.453362E-03	2.022629E-05
4.589394E+03	1.464509E-03	2.016218E-05
4.599349E+03	1.475026E-03	2.009001E-05
4.609304E+03	1.484865E-03	2.000963E-05
4.619260E+03	1.493910E-03	1.992001E-05
4.629215E+03	1.502133E-03	1.982131E-05
4.639170E+03	1.509477E-03	1.971337E-05
4.649125E+03	1.515899E-03	1.959620E-05
4.659081E+03	1.521370E-03	1.946999E-05
4.669036E+03	1.525874E-03	1.933513E-05
4.678991E+03	1.529448E-03	1.919264E-05
4.688947E+03	1.532067E-03	1.904272E-05
4.698902E+03	1.533794E-03	1.888670E-05
4.708857E+03	1.534630E-03	1.872507E-05
4.718813E+03	1.534682E-03	1.855956E-05
4.728768E+03	1.533972E-03	1.839087E-05
4.738723E+03	1.532576E-03	1.822026E-05
4.748678E+03	1.530603E-03	1.804936E-05
4.758634E+03	1.528185E-03	1.787999E-05
4.768589E+03	1.525441E-03	1.771377E-05
4.778544E+03	1.522527E-03	1.755269E-05
4.788500E+03	1.519654E-03	1.739927E-05
4.798455E+03	1.516999E-03	1.725562E-05
4.808410E+03	1.514721E-03	1.712354E-05
4.818366E+03	1.513015E-03	1.700509E-05
4.828321E+03	1.512023E-03	1.690155E-05
4.838276E+03	1.511862E-03	1.681392E-05
4.848231E+03	1.512645E-03	1.674307E-05
4.858187E+03	1.514435E-03	1.668940E-05
4.868142E+03	1.517291E-03	1.665318E-05
4.878097E+03	1.521206E-03	1.663404E-05
4.888053E+03	1.526196E-03	1.663185E-05
4.898008E+03	1.532202E-03	1.664566E-05
4.907963E+03	1.539152E-03	1.667445E-05
4.917919E+03	1.546989E-03	1.671734E-05
4.927874E+03	1.555564E-03	1.677248E-05
4.937829E+03	1.564778E-03	1.683863E-05
4.947784E+03	1.574488E-03	1.691404E-05
4.957740E+03	1.584524E-03	1.699669E-05
4.967695E+03	1.594748E-03	1.708495E-05
4.977650E+03	1.605010E-03	1.717703E-05
4.987606E+03	1.615169E-03	1.727126E-05
4.997561E+03	1.625115E-03	1.736631E-05
5.007516E+03	1.634726E-03	1.746070E-05
5.017472E+03	1.643919E-03	1.755338E-05
5.027427E+03	1.652674E-03	1.764396E-05
5.037382E+03	1.660908E-03	1.773138E-05
5.047337E+03	1.668671E-03	1.781602E-05
5.057293E+03	1.675966E-03	1.789770E-05
5.067248E+03	1.682817E-03	1.797651E-05
5.077203E+03	1.689298E-03	1.805308E-05
5.087159E+03	1.695498E-03	1.812816E-05
5.097114E+03	1.701456E-03	1.820200E-05
5.107069E+03	1.707267E-03	1.827547E-05
5.117025E+03	1.713027E-03	1.834941E-05
5.126980E+03	1.718769E-03	1.842403E-05
5.136935E+03	1.724591E-03	1.850023E-05
5.146890E+03	1.730527E-03	1.857823E-05
5.156846E+03	1.736615E-03	1.865831E-05
5.166801E+03	1.742881E-03	1.874063E-05
5.176756E+03	1.749339E-03	1.882521E-05
5.186712E+03	1.756007E-03	1.891212E-05
5.196667E+03	1.762834E-03	1.900073E-05
5.206622E+03	1.769832E-03	1.909104E-05
5.216578E+03	1.776945E-03	1.918235E-05
5.226533E+03	1.784124E-03	1.927405E-05
5.236488E+03	1.791294E-03	1.936522E-05
5.246443E+03	1.798423E-03	1.945545E-05
5.256399E+03	1.805418E-03	1.954364E-05
5.266354E+03	1.812198E-03	1.962884E-05
5.276309E+03	1.818660E-03	1.970986E-05
5.286265E+03	1.824734E-03	1.978588E-05
5.296220E+03	1.830353E-03	1.985611E-05
5.306175E+03	1.835393E-03	1.991913E-05
5.316131E+03	1.839772E-03	1.997402E-05
5.326086E+03	1.843433E-03	2.002012E-05
5.336041E+03	1.846311E-03	2.005668E-05
5.345996E+03	1.848347E-03	2.008303E-05
5.355952E+03	1.849458E-03	2.009824E-05
5.365907E+03	1.849646E-03	2.010232E-05
5.375862E+03	1.848887E-03	2.009503E-05
5.385818E+03	1.847151E-03	2.007601E-05
5.395773E+03	1.844415E-03	2.004506E-05
5.405728E+03	1.840724E-03	2.000265E-05
5.415684E+03	1.836069E-03	1.994874E-05
5.425639E+03	1.830466E-03	1.988350E-05
5.435594E+03	1.823909E-03	1.980695E-05
5.445549E+03	1.816427E-03	1.971942E-05
5.455505E+03	1.808006E-03	1.962083E-05
5.465460E+03	1.798662E-03	1.951139E-05
5.475415E+03	1.788385E-03	1.939101E-05
5.485371E+03	1.777152E-03	1.925939E-05
5.495326E+03	1.764962E-03	1.911646E-05
5.505281E+03	1.751843E-03	1.896250E-05
5.515237E+03	1.737826E-03	1.879779E-05
5.525192E+03	1.722952E-03	1.862279E-05
5.535147E+03	1.707319E-03	1.843849E-05
5.545102E+03	1.691093E-03	1.824672E-05
5.555058E+03	1.674416E-03	1.804898E-05
5.565013E+03	1.657518E-03	1.784776E-05
5.574968E+03	1.640647E-03	1.764572E-05
5.584924E+03	1.624065E-03	1.744569E-05
5.594879E+03	1.608106E-03	1.725121E-05
5.604834E+03	1.593067E-03	1.706548E-05
5.614790E+03	1.579270E-03	1.689188E-05
5.624745E+03	1.567035E-03	1.673380E-05
5.634700E+03	1.556673E-03	1.659448E-05
5.644655E+03	1.548479E-03	1.647695E-05
5.654611E+03	1.542725E-03	1.638399E-05
5.664566E+03	1.539643E-03	1.631792E-05
5.674521E+03	1.539477E-03	1.628114E-05
5.684477E+03	1.542377E-03	1.627502E-05
5.694432E+03	1.548498E-03	1.630097E-05
5.704387E+03	1.557923E-03	1.635962E-05
5.714343E+03	1.570720E-03	1.645138E-05
5.724298E+03	1.586878E-03	1.657583E-05
5.734253E+03	1.606344E-03	1.673213E-05
5.744209E+03	1.629028E-03	1.691897E-05
5.754164E+03	1.654744E-03	1.713413E-05
5.764119E+03	1.683242E-03	1.737467E-05
5.774074E+03	1.714236E-03	1.763735E-05
5.784030E+03	1.747355E-03	1.791807E-05
5.793985E+03	1.782144E-03	1.821192E-05
5.803940E+03	1.818119E-03	1.851376E-05
5.813896E+03	1.854705E-03	1.881760E-05
5.823851E+03	1.891280E-03	1.911709E-05
5.833806E+03	1.927246E-03	1.940619E-05
5.843762E+03	1.961939E-03	1.967834E-05
5.853717E+03	1.994700E-03	1.992714E-05
5.863672E+03	2.024917E-03	2.014679E-05
5.873627E+03	2.052051E-03	2.033232E-05
5.883583E+03	2.075594E-03	2.047921E-05
5.893538E+03	2.095148E-03	2.058410E-05
5.903493E+03	2.110420E-03	2.064477E-05
5.913449E+03	2.121207E-03	2.065995E-05
5.923404E+03	2.127470E-03	2.062999E-05
5.933359E+03	2.129261E-03	2.055618E-05
5.943315E+03	2.126722E-03	2.044064E-05
5.953270E+03	2.120097E-03	2.028647E-05
5.963225E+03	2.109790E-03	2.009826E-05
5.973180E+03	2.096152E-03	1.988003E-05
5.983136E+03	2.079645E-03	1.963675E-05
5.993091E+03	2.060796E-03	1.937400E-05
6.003046E+03	2.040090E-03	1.909678E-05
6.013002E+03	2.018004E-03	1.880999E-05
6.022957E+03	1.995023E-03	1.851849E-05
6.032912E+03	1.971639E-03	1.822713E-05
6.042868E+03	1.948216E-03	1.793949E-05
6.052823E+03	1.925171E-03	1.765958E-05
6.062778E+03	1.902836E-03	1.739059E-05
6.072733E+03	1.881463E-03	1.713489E-05
6.082689E+03	1.861329E-03	1.689509E-05
6.092644E+03	1.842594E-03	1.667268E-05
6.102599E+03	1.825428E-03	1.646924E-05
6.112555E+03	1.809923E-03	1.628564E-05
6.122510E+03	1.796132E-03	1.612241E-05
6.132465E+03	1.784089E-03	1.597991E-05
6.142421E+03	1.773793E-03	1.585820E-05
6.152376E+03	1.765175E-03	1.575676E-05
6.162331E+03	1.758188E-03	1.567528E-05
6.172286E+03	1.752719E-03	1.561290E-05
6.182242E+03	1.748699E-03	1.556915E-05
6.192197E+03	1.745966E-03	1.554274E-05
6.202152E+03	1.744389E-03	1.553251E-05
6.212108E+03	1.743785E-03	1.553672E-05
6.222063E+03	1.743997E-03	1.555387E-05
6.232018E+03	1.744930E-03	1.558300E-05
6.241974E+03	1.746471E-03	1.562302E-05
6.251929E+03	1.748504E-03	1.567279E-05
6.261884E+03	1.750912E-03	1.573116E-05
6.271839E+03	1.753611E-03	1.579730E-05
6.281795E+03	1.756451E-03	1.586974E-05
6.291750E+03	1.759358E-03	1.594768E-05
6.301705E+03	1.762211E-03	1.602993E-05
6.311661E+03	1.764936E-03	1.611566E-05
6.321616E+03	1.767470E-03	1.620414E-05
6.331571E+03	1.769708E-03	1.629427E-05
6.341527E+03	1.771630E-03	1.638568E-05
6.351482E+03	1.773174E-03	1.647763E-05
6.361437E+03	1.774346E-03	1.656997E-05
6.371392E+03	1.775108E-03	1.666215E-05
6.381348E+03	1.775470E-03	1.675408E-05
6.391303E+03	1.775416E-03	1.684539E-05
6.401258E+03	1.774974E-03	1.693617E-05
6.411214E+03	1.774185E-03	1.702658E-05
6.421169E+03	1.773059E-03	1.711653E-05
6.431124E+03	1.771633E-03	1.720620E-05
6.441080E+03	1.769989E-03	1.729617E-05
6.451035E+03	1.768143E-03	1.738635E-05
6.460990E+03	1.766173E-03	1.747722E-05
6.470945E+03	1.764162E-03	1.756937E-05
6.480901E+03	1.762176E-03	1.766320E-05
6.490856E+03	1.760283E-03	1.775917E-05
6.500811E+03	1.758523E-03	1.785750E-05
6.510767E+03	1.756978E-03	1.795882E-05
6.520722E+03	1.755566E-03	1.806213E-05
6.530677E+03	1.754301E-03	1.816740E-05
6.540633E+03	1.753087E-03	1.827347E-05
6.550588E+03	1.751889E-03	1.837977E-05
6.560543E+03	1.750600E-03	1.848501E-05
6.570498E+03	1.749134E-03	1.858808E-05
6.580454E+03	1.747359E-03	1.868735E-05
6.590409E+03	1.745168E-03	1.878145E-05
6.600364E+03	1.742432E-03	1.886874E-05
6.610320E+03	1.739004E-03	1.894736E-05
6.620275E+03	1.734799E-03	1.901609E-05
6.630230E+03	1.729691E-03	1.907326E-05
6.640186E+03	1.723587E-03	1.911753E-05
6.650141E+03	1.716423E-03	1.914787E-05
6.660096E+03	1.708178E-03	1.916374E-05
6.670051E+03	1.698829E-03	1.916457E-05
6.680007E+03	1.688420E-03	1.915058E-05
6.689962E+03	1.676995E-03	1.912199E-05
6.699917E+03	1.664665E-03	1.907982E-05
6.709873E+03	1.651555E-03	1.902528E-05
6.719828E+03	1.637815E-03	1.895995E-05
6.729783E+03	1.623601E-03	1.888549E-05
6.739739E+03	1.609124E-03	1.880424E-05
6.749694E+03	1.594606E-03	1.871875E-05
6.759649E+03	1.580223E-03	1.863110E-05
6.769604E+03	1.566211E-03	1.854406E-05
6.779560E+03	1.552801E-03	1.846044E-05
6.789515E+03	1.540166E-03	1.838240E-05
6.799470E+03	1.528542E-03	1.831286E-05
6.809426E+03	1.518094E-03	1.825396E-05
6.819381E+03	1.508993E-03	1.820789E-05
6.829336E+03	1.501406E-03	1.817686E-05
6.839292E+03	1.495444E-03	1.816238E-05
6.849247E+03	1.491212E-03	1.816591E-05
6.859202E+03	1.488790E-03	1.818860E-05
6.869157E+03	1.488247E-03	1.823147E-05
6.879113E+03	1.489591E-03	1.829474E-05
6.889068E+03	1.492814E-03	1.837850E-05
6.899023E+03	1.497899E-03	1.848261E-05
6.908979E+03	1.504761E-03	1.860614E-05
6.918934E+03	1.513299E-03	1.874792E-05
6.928889E+03	1.523388E-03	1.890642E-05
6.938845E+03	1.534890E-03	1.907997E-05
6.948800E+03	1.547607E-03	1.926609E-05
6.958755E+03	1.561340E-03	1.946227E-05
6.968710E+03	1.575874E-03	1.966579E-05
6.978666E+03	1.590987E-03	1.987381E-05
6.988621E+03	1.606455E-03	2.008344E-05
6.998576E+03	1.622059E-03	2.029186E-05
7.008532E+03	1.637574E-03	2.049614E-05
7.018487E+03	1.652852E-03	2.069435E-05
7.028442E+03	1.667692E-03	2.088387E-05
7.038398E+03	1.681983E-03	2.106319E-05
7.048353E+03	1.695624E-03	2.123098E-05
7.058308E+03	1.708527E-03	2.138608E-05
7.068263E+03	1.720658E-03	2.152797E-05
7.078219E+03	1.732031E-03	2.165681E-05
7.088174E+03	1.742648E-03	2.177254E-05
7.098129E+03	1.752546E-03	2.187563E-05
7.108085E+03	1.761779E-03	2.196671E-05
7.118040E+03	1.770405E-03	2.204649E-05
7.127995E+03	1.778478E-03	2.211568E-05
7.137951E+03	1.786048E-03	2.217484E-05
7.147906E+03	1.793121E-03	2.222412E-05
7.157861E+03	1.799731E-03	2.226391E-05
7.167817E+03	1.805862E-03	2.229406E-05
7.177772E+03	1.811426E-03	2.231351E-05
7.187727E+03	1.816395E-03	2.232196E-05
7.197682E+03	1.820648E-03	2.231801E-05
7.207638E+03	1.824084E-03	2.230047E-05
7.217593E+03	1.826513E-03	2.226716E-05
7.227548E+03	1.827799E-03	2.221654E-05
7.237504E+03	1.827777E-03	2.214678E-05
7.247459E+03	1.826281E-03	2.205609E-05
7.257414E+03	1.823135E-03	2.194256E-05
7.267370E+03	1.818222E-03	2.180508E-05
7.277325E+03	1.811408E-03	2.164235E-05
7.287280E+03	1.802636E-03	2.145403E-05
7.297235E+03	1.791841E-03	2.123974E-05
7.307191E+03	1.779045E-03	2.100015E-05
7.317146E+03	1.764271E-03	2.073592E-05
7.327101E+03	1.747607E-03	2.044853E-05
7.337057E+03	1.729205E-03	2.014019E-05
7.347012E+03	1.709211E-03	1.981303E-05
7.356967E+03	1.687828E-03	1.946979E-05
7.366923E+03	1.665324E-03	1.911396E-05
7.376878E+03	1.641884E-03	1.874799E-05
7.386833E+03	1.617828E-03	1.837585E-05
7.396788E+03	1.593374E-03	1.800028E-05
7.406744E+03	1.568800E-03	1.762465E-05
7.416699E+03	1.544374E-03	1.725212E-05
7.426654E+03	1.520307E-03	1.688517E-05
7.436610E+03	1.496791E-03	1.652601E-05
7.446565E+03	1.474016E-03	1.617675E-05
7.456520E+03	1.452164E-03	1.583939E-05
7.466476E+03	1.431356E-03	1.551518E-05
7.476431E+03	1.411701E-03	1.520522E-05
7.486386E+03	1.393283E-03	1.491032E-05
7.496341E+03	1.376164E-03	1.463097E-05
7.506297E+03	1.360361E-03	1.436721E-05
7.516252E+03	1.345924E-03	1.411936E-05
7.526207E+03	1.332816E-03	1.388674E-05
7.536163E+03	1.321017E-03	1.366890E-05
7.546118E+03	1.310534E-03	1.346560E-05
7.556073E+03	1.301297E-03	1.327587E-05
7.566029E+03	1.293286E-03	1.309925E-05
7.575984E+03	1.286455E-03	1.293502E-05
7.585939E+03	1.280799E-03	1.278287E-05
7.595894E+03	1.276276E-03	1.264214E-05
7.605850E+03	1.272832E-03	1.251207E-05
7.615805E+03	1.270457E-03	1.239234E-05
7.625760E+03	1.269129E-03	1.228251E-05
7.635716E+03	1.268824E-03	1.218214E-05
7.645671E+03	1.269497E-03	1.209061E-05
7.655626E+03	1.271149E-03	1.200772E-05
7.665582E+03	1.273703E-03	1.193257E-05
7.675537E+03	1.277126E-03	1.186470E-05
7.685492E+03	1.281360E-03	1.180340E-05
7.695447E+03	1.286319E-03	1.174778E-05
7.705403E+03	1.291965E-03	1.169737E-05
7.715358E+03	1.298198E-03	1.165121E-05
7.725313E+03	1.304934E-03	1.160848E-05
