#wls	flux	fluxerr
1.592848E+03	1.141967E-04	4.829262E-06
1.632669E+03	1.168659E-04	4.926257E-06
1.672491E+03	1.191328E-04	5.005202E-06
1.712312E+03	1.209079E-04	5.062479E-06
1.752133E+03	1.221281E-04	5.095639E-06
1.791954E+03	1.227009E-04	5.101059E-06
1.831775E+03	1.224547E-04	5.071901E-06
1.871597E+03	1.211760E-04	4.999738E-06
1.911418E+03	1.186953E-04	4.878092E-06
1.951239E+03	1.149846E-04	4.706428E-06
1.991060E+03	1.101760E-04	4.490777E-06
2.030881E+03	1.048359E-04	4.254749E-06
2.070703E+03	9.994626E-05	4.038353E-06
2.110524E+03	9.680933E-05	3.893785E-06
2.150345E+03	9.643961E-05	3.860722E-06
2.190166E+03	9.926317E-05	3.954568E-06
2.229987E+03	1.049105E-04	4.158776E-06
2.269809E+03	1.125307E-04	4.438019E-06
2.309630E+03	1.211599E-04	4.753159E-06
2.349451E+03	1.300541E-04	5.074400E-06
2.389272E+03	1.387398E-04	5.383056E-06
2.429093E+03	1.469529E-04	5.668924E-06
2.468915E+03	1.545323E-04	5.926006E-06
2.508736E+03	1.615417E-04	6.157022E-06
2.548557E+03	1.679862E-04	6.362441E-06
2.588378E+03	1.739459E-04	6.545560E-06
2.628199E+03	1.794482E-04	6.707642E-06
2.668021E+03	1.846071E-04	6.853151E-06
2.707842E+03	1.894438E-04	6.983028E-06
2.747663E+03	1.940645E-04	7.101311E-06
2.787484E+03	1.985106E-04	7.209577E-06
2.827305E+03	2.028502E-04	7.310320E-06
2.867127E+03	2.071475E-04	7.405832E-06
2.906948E+03	2.114939E-04	7.499292E-06
2.946769E+03	2.159472E-04	7.592586E-06
2.986590E+03	2.205921E-04	7.688469E-06
2.996546E+03	2.218158E-04	7.713941E-06
3.006501E+03	2.230529E-04	7.739599E-06
3.016456E+03	2.242739E-04	7.764413E-06
3.026411E+03	2.255430E-04	7.790606E-06
3.036367E+03	2.268756E-04	7.818692E-06
3.046322E+03	2.282573E-04	7.848163E-06
3.056277E+03	2.296836E-04	7.878846E-06
3.066233E+03	2.311800E-04	7.911604E-06
3.076188E+03	2.327128E-04	7.945265E-06
3.086143E+03	2.343083E-04	7.980717E-06
3.096099E+03	2.359334E-04	8.016818E-06
3.106054E+03	2.376151E-04	8.054472E-06
3.116009E+03	2.393504E-04	8.093559E-06
3.125964E+03	2.411074E-04	8.132992E-06
3.135920E+03	2.429428E-04	8.174667E-06
3.145875E+03	2.447960E-04	8.216527E-06
3.155830E+03	2.466941E-04	8.259476E-06
3.165786E+03	2.486649E-04	8.304429E-06
3.175741E+03	2.506484E-04	8.349362E-06
3.185696E+03	2.527016E-04	8.396163E-06
3.195652E+03	2.547938E-04	8.443797E-06
3.205607E+03	2.569241E-04	8.492220E-06
3.215562E+03	2.591204E-04	8.542339E-06
3.225517E+03	2.613526E-04	8.593141E-06
3.235473E+03	2.636489E-04	8.645543E-06
3.245428E+03	2.659796E-04	8.698550E-06
3.255383E+03	2.683727E-04	8.753065E-06
3.265339E+03	2.708274E-04	8.809042E-06
3.275294E+03	2.733433E-04	8.866447E-06
3.285249E+03	2.759198E-04	8.925238E-06
3.295205E+03	2.785562E-04	8.985380E-06
3.305160E+03	2.812523E-04	9.046839E-06
3.315115E+03	2.840360E-04	9.110493E-06
3.325070E+03	2.868788E-04	9.175403E-06
3.335026E+03	2.897802E-04	9.241533E-06
3.344981E+03	2.927687E-04	9.309767E-06
3.354936E+03	2.958441E-04	9.380072E-06
3.364892E+03	2.990064E-04	9.452418E-06
3.374847E+03	3.022274E-04	9.525891E-06
3.384802E+03	3.055642E-04	9.602257E-06
3.394758E+03	3.089886E-04	9.680603E-06
3.404713E+03	3.125291E-04	9.761786E-06
3.414668E+03	3.161311E-04	9.844066E-06
3.424623E+03	3.198786E-04	9.930031E-06
3.434579E+03	3.237173E-04	1.001795E-05
3.444534E+03	3.276763E-04	1.010869E-05
3.454489E+03	3.317572E-04	1.020227E-05
3.464445E+03	3.359618E-04	1.029869E-05
3.474400E+03	3.402921E-04	1.039797E-05
3.484355E+03	3.447781E-04	1.050098E-05
3.494311E+03	3.494223E-04	1.060776E-05
3.504266E+03	3.542004E-04	1.071750E-05
3.514221E+03	3.591430E-04	1.083109E-05
3.524176E+03	3.642540E-04	1.094858E-05
3.534132E+03	3.695370E-04	1.107003E-05
3.544087E+03	3.750233E-04	1.119631E-05
3.554042E+03	3.806908E-04	1.132669E-05
3.563998E+03	3.865443E-04	1.146126E-05
3.573953E+03	3.926427E-04	1.160168E-05
3.583908E+03	3.989375E-04	1.174645E-05
3.593864E+03	4.054879E-04	1.189724E-05
3.603819E+03	4.122726E-04	1.205332E-05
3.613774E+03	4.192977E-04	1.221481E-05
3.623729E+03	4.265954E-04	1.238253E-05
3.633685E+03	4.341715E-04	1.255658E-05
3.643640E+03	4.420319E-04	1.273702E-05
3.653595E+03	4.501822E-04	1.292391E-05
3.663551E+03	4.586277E-04	1.311730E-05
3.673506E+03	4.674004E-04	1.331798E-05
3.683461E+03	4.765050E-04	1.352599E-05
3.693417E+03	4.859187E-04	1.374055E-05
3.703372E+03	4.956987E-04	1.396317E-05
3.713327E+03	5.057941E-04	1.419228E-05
3.723282E+03	5.162602E-04	1.442931E-05
3.733238E+03	5.270975E-04	1.467413E-05
3.743193E+03	5.382782E-04	1.492585E-05
3.753148E+03	5.498270E-04	1.518501E-05
3.763104E+03	5.617396E-04	1.545136E-05
3.773059E+03	5.740372E-04	1.572534E-05
3.783014E+03	5.866575E-04	1.600511E-05
3.792970E+03	5.996444E-04	1.629172E-05
3.802925E+03	6.129847E-04	1.658470E-05
3.812880E+03	6.266631E-04	1.688348E-05
3.822835E+03	6.406340E-04	1.718671E-05
3.832791E+03	6.549305E-04	1.749515E-05
3.842746E+03	6.695010E-04	1.780730E-05
3.852701E+03	6.843181E-04	1.812233E-05
3.862657E+03	6.993513E-04	1.843933E-05
3.872612E+03	7.145944E-04	1.875803E-05
3.882567E+03	7.300110E-04	1.907739E-05
3.892523E+03	7.455341E-04	1.939560E-05
3.902478E+03	7.611767E-04	1.971293E-05
3.912433E+03	7.768400E-04	2.002677E-05
3.922388E+03	7.925048E-04	2.033661E-05
3.932344E+03	8.081233E-04	2.064120E-05
3.942299E+03	8.236744E-04	2.094000E-05
3.952254E+03	8.390536E-04	2.123038E-05
3.962210E+03	8.542391E-04	2.151183E-05
3.972165E+03	8.692092E-04	2.178386E-05
3.982120E+03	8.838624E-04	2.204399E-05
3.992076E+03	8.982072E-04	2.229255E-05
4.002031E+03	9.121740E-04	2.252791E-05
4.011986E+03	9.256966E-04	2.274855E-05
4.021941E+03	9.387665E-04	2.295444E-05
4.031897E+03	9.513527E-04	2.314495E-05
4.041852E+03	9.634292E-04	2.331963E-05
4.051807E+03	9.749497E-04	2.347754E-05
4.061763E+03	9.859000E-04	2.361854E-05
4.071718E+03	9.962721E-04	2.374265E-05
4.081673E+03	1.006040E-03	2.384942E-05
4.091629E+03	1.015232E-03	2.393980E-05
4.101584E+03	1.023861E-03	2.401426E-05
4.111539E+03	1.031871E-03	2.407169E-05
4.121494E+03	1.039358E-03	2.411459E-05
4.131450E+03	1.046281E-03	2.414217E-05
4.141405E+03	1.052699E-03	2.415600E-05
4.151360E+03	1.058630E-03	2.415669E-05
4.161316E+03	1.064096E-03	2.414492E-05
4.171271E+03	1.069146E-03	2.412199E-05
4.181226E+03	1.073812E-03	2.408876E-05
4.191182E+03	1.078152E-03	2.404665E-05
4.201137E+03	1.082200E-03	2.399659E-05
4.211092E+03	1.085998E-03	2.393959E-05
4.221047E+03	1.089608E-03	2.387711E-05
4.231003E+03	1.093052E-03	2.380969E-05
4.240958E+03	1.096373E-03	2.373837E-05
4.250913E+03	1.099656E-03	2.366501E-05
4.260869E+03	1.102906E-03	2.358971E-05
4.270824E+03	1.106185E-03	2.351383E-05
4.280779E+03	1.109536E-03	2.343827E-05
4.290735E+03	1.112982E-03	2.336347E-05
4.300690E+03	1.116601E-03	2.329105E-05
4.310645E+03	1.120393E-03	2.322091E-05
4.320601E+03	1.124394E-03	2.315375E-05
4.330556E+03	1.128674E-03	2.309093E-05
4.340511E+03	1.133208E-03	2.303181E-05
4.350466E+03	1.138058E-03	2.297756E-05
4.360422E+03	1.143245E-03	2.292846E-05
4.370377E+03	1.148766E-03	2.288434E-05
4.380332E+03	1.154646E-03	2.284556E-05
4.390288E+03	1.160868E-03	2.281164E-05
4.400243E+03	1.167427E-03	2.278234E-05
4.410198E+03	1.174309E-03	2.275727E-05
4.420154E+03	1.181496E-03	2.273595E-05
4.430109E+03	1.188980E-03	2.271812E-05
4.440064E+03	1.196732E-03	2.270310E-05
4.450019E+03	1.204714E-03	2.269008E-05
4.459975E+03	1.212919E-03	2.267884E-05
4.469930E+03	1.221300E-03	2.266841E-05
4.479885E+03	1.229838E-03	2.265839E-05
4.489841E+03	1.238457E-03	2.264733E-05
4.499796E+03	1.247147E-03	2.263502E-05
4.509751E+03	1.255824E-03	2.261991E-05
4.519707E+03	1.264450E-03	2.260138E-05
4.529662E+03	1.272969E-03	2.257844E-05
4.539617E+03	1.281323E-03	2.255012E-05
4.549572E+03	1.289467E-03	2.251574E-05
4.559528E+03	1.297341E-03	2.247433E-05
4.569483E+03	1.304902E-03	2.242529E-05
4.579438E+03	1.312073E-03	2.236745E-05
4.589394E+03	1.318832E-03	2.230063E-05
4.599349E+03	1.325127E-03	2.222412E-05
4.609304E+03	1.330927E-03	2.213763E-05
4.619260E+03	1.336190E-03	2.204068E-05
4.629215E+03	1.340915E-03	2.193350E-05
4.639170E+03	1.345057E-03	2.181561E-05
4.649125E+03	1.348649E-03	2.168779E-05
4.659081E+03	1.351682E-03	2.155014E-05
4.669036E+03	1.354174E-03	2.140322E-05
4.678991E+03	1.356155E-03	2.124773E-05
4.688947E+03	1.357666E-03	2.108454E-05
4.698902E+03	1.358761E-03	2.091471E-05
4.708857E+03	1.359507E-03	2.073945E-05
4.718813E+03	1.360000E-03	2.056038E-05
4.728768E+03	1.360336E-03	2.037905E-05
4.738723E+03	1.360618E-03	2.019711E-05
4.748678E+03	1.360962E-03	2.001629E-05
4.758634E+03	1.361480E-03	1.983825E-05
4.768589E+03	1.362221E-03	1.966362E-05
4.778544E+03	1.363269E-03	1.949355E-05
4.788500E+03	1.364626E-03	1.932800E-05
4.798455E+03	1.366325E-03	1.916729E-05
4.808410E+03	1.368414E-03	1.901202E-05
4.818366E+03	1.370896E-03	1.886208E-05
4.828321E+03	1.373837E-03	1.871823E-05
4.838276E+03	1.377222E-03	1.858008E-05
4.848231E+03	1.381126E-03	1.844848E-05
4.858187E+03	1.385539E-03	1.832313E-05
4.868142E+03	1.390493E-03	1.820422E-05
4.878097E+03	1.395976E-03	1.809144E-05
4.888053E+03	1.402002E-03	1.798475E-05
4.898008E+03	1.408540E-03	1.788359E-05
4.907963E+03	1.415601E-03	1.778790E-05
4.917919E+03	1.423118E-03	1.769671E-05
4.927874E+03	1.431068E-03	1.760955E-05
4.937829E+03	1.439388E-03	1.752552E-05
4.947784E+03	1.448055E-03	1.744426E-05
4.957740E+03	1.456997E-03	1.736480E-05
4.967695E+03	1.466137E-03	1.728618E-05
4.977650E+03	1.475448E-03	1.720803E-05
4.987606E+03	1.484854E-03	1.712949E-05
4.997561E+03	1.494318E-03	1.705011E-05
5.007516E+03	1.503754E-03	1.696898E-05
5.017472E+03	1.513151E-03	1.688604E-05
5.027427E+03	1.522455E-03	1.680075E-05
5.037382E+03	1.531650E-03	1.671306E-05
5.047337E+03	1.540699E-03	1.662265E-05
5.057293E+03	1.549602E-03	1.652965E-05
5.067248E+03	1.558352E-03	1.643411E-05
5.077203E+03	1.566929E-03	1.633597E-05
5.087159E+03	1.575337E-03	1.623539E-05
5.097114E+03	1.583601E-03	1.613277E-05
5.107069E+03	1.591730E-03	1.602835E-05
5.117025E+03	1.599737E-03	1.592238E-05
5.126980E+03	1.607617E-03	1.581496E-05
5.136935E+03	1.615396E-03	1.570649E-05
5.146890E+03	1.623085E-03	1.559720E-05
5.156846E+03	1.630670E-03	1.548710E-05
5.166801E+03	1.638189E-03	1.537669E-05
5.176756E+03	1.645603E-03	1.526576E-05
5.186712E+03	1.652906E-03	1.515440E-05
5.196667E+03	1.660119E-03	1.504296E-05
5.206622E+03	1.667189E-03	1.493114E-05
5.216578E+03	1.674111E-03	1.481907E-05
5.226533E+03	1.680840E-03	1.470655E-05
5.236488E+03	1.687362E-03	1.459366E-05
5.246443E+03	1.693642E-03	1.448030E-05
5.256399E+03	1.699640E-03	1.436638E-05
5.266354E+03	1.705298E-03	1.425166E-05
5.276309E+03	1.710574E-03	1.413603E-05
5.286265E+03	1.715441E-03	1.401956E-05
5.296220E+03	1.719839E-03	1.390204E-05
5.306175E+03	1.723744E-03	1.378356E-05
5.316131E+03	1.727097E-03	1.366397E-05
5.326086E+03	1.729860E-03	1.354327E-05
5.336041E+03	1.732016E-03	1.342164E-05
5.345996E+03	1.733497E-03	1.329888E-05
5.355952E+03	1.734311E-03	1.317535E-05
5.365907E+03	1.734415E-03	1.305105E-05
5.375862E+03	1.733770E-03	1.292598E-05
5.385818E+03	1.732393E-03	1.280057E-05
5.395773E+03	1.730231E-03	1.267472E-05
5.405728E+03	1.727288E-03	1.254872E-05
5.415684E+03	1.723549E-03	1.242271E-05
5.425639E+03	1.718998E-03	1.229683E-05
5.435594E+03	1.713604E-03	1.217106E-05
5.445549E+03	1.707384E-03	1.204572E-05
5.455505E+03	1.700292E-03	1.192066E-05
5.465460E+03	1.692347E-03	1.179615E-05
5.475415E+03	1.683567E-03	1.167239E-05
5.485371E+03	1.674047E-03	1.154990E-05
5.495326E+03	1.663878E-03	1.142911E-05
5.505281E+03	1.653195E-03	1.131072E-05
5.515237E+03	1.642108E-03	1.119522E-05
5.525192E+03	1.630762E-03	1.108335E-05
5.535147E+03	1.619308E-03	1.097584E-05
5.545102E+03	1.607852E-03	1.087312E-05
5.555058E+03	1.596554E-03	1.077597E-05
5.565013E+03	1.585566E-03	1.068512E-05
5.574968E+03	1.575058E-03	1.060143E-05
5.584924E+03	1.565158E-03	1.052546E-05
5.594879E+03	1.556057E-03	1.045821E-05
5.604834E+03	1.547885E-03	1.040032E-05
5.614790E+03	1.540831E-03	1.035278E-05
5.624745E+03	1.535017E-03	1.031619E-05
5.634700E+03	1.530620E-03	1.029151E-05
5.644655E+03	1.527758E-03	1.027937E-05
5.654611E+03	1.526539E-03	1.028030E-05
5.664566E+03	1.527083E-03	1.029497E-05
5.674521E+03	1.529496E-03	1.032394E-05
5.684477E+03	1.533814E-03	1.036737E-05
5.694432E+03	1.540098E-03	1.042555E-05
5.704387E+03	1.548355E-03	1.049845E-05
5.714343E+03	1.558608E-03	1.058616E-05
5.724298E+03	1.570794E-03	1.068820E-05
5.734253E+03	1.584848E-03	1.080406E-05
5.744209E+03	1.600691E-03	1.093316E-05
5.754164E+03	1.618196E-03	1.107458E-05
5.764119E+03	1.637171E-03	1.122698E-05
5.774074E+03	1.657457E-03	1.138920E-05
5.784030E+03	1.678815E-03	1.155954E-05
5.793985E+03	1.700995E-03	1.173623E-05
5.803940E+03	1.723719E-03	1.191727E-05
5.813896E+03	1.746675E-03	1.210041E-05
5.823851E+03	1.769564E-03	1.228350E-05
5.833806E+03	1.792047E-03	1.246408E-05
5.843762E+03	1.813817E-03	1.263988E-05
5.853717E+03	1.834538E-03	1.280846E-05
5.863672E+03	1.853888E-03	1.296742E-05
5.873627E+03	1.871603E-03	1.311478E-05
5.883583E+03	1.887432E-03	1.324865E-05
5.893538E+03	1.901143E-03	1.336726E-05
5.903493E+03	1.912567E-03	1.346928E-05
5.913449E+03	1.921601E-03	1.355386E-05
5.923404E+03	1.928118E-03	1.361998E-05
5.933359E+03	1.932155E-03	1.366779E-05
5.943315E+03	1.933688E-03	1.369703E-05
5.953270E+03	1.932835E-03	1.370845E-05
5.963225E+03	1.929683E-03	1.370261E-05
5.973180E+03	1.924415E-03	1.368074E-05
5.983136E+03	1.917209E-03	1.364409E-05
5.993091E+03	1.908288E-03	1.359421E-05
6.003046E+03	1.897892E-03	1.353284E-05
6.013002E+03	1.886257E-03	1.346164E-05
6.022957E+03	1.873657E-03	1.338263E-05
6.032912E+03	1.860332E-03	1.329753E-05
6.042868E+03	1.846514E-03	1.320805E-05
6.052823E+03	1.832458E-03	1.311610E-05
6.062778E+03	1.818390E-03	1.302333E-05
6.072733E+03	1.804497E-03	1.293116E-05
6.082689E+03	1.790965E-03	1.284100E-05
6.092644E+03	1.777958E-03	1.275413E-05
6.102599E+03	1.765622E-03	1.267164E-05
6.112555E+03	1.754077E-03	1.259451E-05
6.122510E+03	1.743408E-03	1.252343E-05
6.132465E+03	1.733715E-03	1.245920E-05
6.142421E+03	1.725044E-03	1.240227E-05
6.152376E+03	1.717429E-03	1.235296E-05
6.162331E+03	1.710906E-03	1.231165E-05
6.172286E+03	1.705519E-03	1.227873E-05
6.182242E+03	1.701286E-03	1.225447E-05
6.192197E+03	1.698240E-03	1.223919E-05
6.202152E+03	1.696384E-03	1.223304E-05
6.212108E+03	1.695700E-03	1.223596E-05
6.222063E+03	1.696139E-03	1.224770E-05
6.232018E+03	1.697582E-03	1.226748E-05
6.241974E+03	1.699866E-03	1.229424E-05
6.251929E+03	1.702894E-03	1.232735E-05
6.261884E+03	1.706473E-03	1.236552E-05
6.271839E+03	1.710517E-03	1.240824E-05
6.281795E+03	1.714883E-03	1.245457E-05
6.291750E+03	1.719470E-03	1.250389E-05
6.301705E+03	1.724154E-03	1.255538E-05
6.311661E+03	1.728885E-03	1.260879E-05
6.321616E+03	1.733538E-03	1.266332E-05
6.331571E+03	1.738065E-03	1.271873E-05
6.341527E+03	1.742394E-03	1.277456E-05
6.351482E+03	1.746460E-03	1.283046E-05
6.361437E+03	1.750243E-03	1.288637E-05
6.371392E+03	1.753678E-03	1.294190E-05
6.381348E+03	1.756762E-03	1.299711E-05
6.391303E+03	1.759482E-03	1.305199E-05
6.401258E+03	1.761812E-03	1.310643E-05
6.411214E+03	1.763732E-03	1.316035E-05
6.421169E+03	1.765283E-03	1.321413E-05
6.431124E+03	1.766435E-03	1.326760E-05
6.441080E+03	1.767216E-03	1.332103E-05
6.451035E+03	1.767601E-03	1.337419E-05
6.460990E+03	1.767620E-03	1.342718E-05
6.470945E+03	1.767249E-03	1.347966E-05
6.480901E+03	1.766501E-03	1.353156E-05
6.490856E+03	1.765329E-03	1.358236E-05
6.500811E+03	1.763764E-03	1.363213E-05
6.510767E+03	1.761785E-03	1.368053E-05
6.520722E+03	1.759378E-03	1.372727E-05
6.530677E+03	1.756526E-03	1.377204E-05
6.540633E+03	1.753250E-03	1.381481E-05
6.550588E+03	1.749522E-03	1.385518E-05
6.560543E+03	1.745332E-03	1.389289E-05
6.570498E+03	1.740644E-03	1.392744E-05
6.580454E+03	1.735436E-03	1.395849E-05
6.590409E+03	1.729687E-03	1.398564E-05
6.600364E+03	1.723374E-03	1.400853E-05
6.610320E+03	1.716477E-03	1.402679E-05
6.620275E+03	1.708980E-03	1.404009E-05
6.630230E+03	1.700876E-03	1.404817E-05
6.640186E+03	1.692165E-03	1.405084E-05
6.650141E+03	1.682840E-03	1.404785E-05
6.660096E+03	1.672943E-03	1.403936E-05
6.670051E+03	1.662531E-03	1.402568E-05
6.680007E+03	1.651635E-03	1.400689E-05
6.689962E+03	1.640302E-03	1.398323E-05
6.699917E+03	1.628646E-03	1.395554E-05
6.709873E+03	1.616755E-03	1.392446E-05
6.719828E+03	1.604713E-03	1.389058E-05
6.729783E+03	1.592627E-03	1.385476E-05
6.739739E+03	1.580632E-03	1.381810E-05
6.749694E+03	1.568832E-03	1.378145E-05
6.759649E+03	1.557384E-03	1.374616E-05
6.769604E+03	1.546376E-03	1.371302E-05
6.779560E+03	1.535949E-03	1.368325E-05
6.789515E+03	1.526236E-03	1.365809E-05
6.799470E+03	1.517313E-03	1.363825E-05
6.809426E+03	1.509300E-03	1.362487E-05
6.819381E+03	1.502309E-03	1.361902E-05
6.829336E+03	1.496404E-03	1.362134E-05
6.839292E+03	1.491653E-03	1.363255E-05
6.849247E+03	1.488113E-03	1.365325E-05
6.859202E+03	1.485844E-03	1.368408E-05
6.869157E+03	1.484854E-03	1.372519E-05
6.879113E+03	1.485154E-03	1.377677E-05
6.889068E+03	1.486758E-03	1.383903E-05
6.899023E+03	1.489627E-03	1.391168E-05
6.908979E+03	1.493745E-03	1.399462E-05
6.918934E+03	1.499042E-03	1.408727E-05
6.928889E+03	1.505456E-03	1.418907E-05
6.938845E+03	1.512927E-03	1.429948E-05
6.948800E+03	1.521367E-03	1.441769E-05
6.958755E+03	1.530642E-03	1.454242E-05
6.968710E+03	1.540700E-03	1.467319E-05
6.978666E+03	1.551376E-03	1.480838E-05
6.988621E+03	1.562590E-03	1.494720E-05
6.998576E+03	1.574227E-03	1.508851E-05
7.008532E+03	1.586135E-03	1.523077E-05
7.018487E+03	1.598237E-03	1.537322E-05
7.028442E+03	1.610409E-03	1.551455E-05
7.038398E+03	1.622568E-03	1.565391E-05
7.048353E+03	1.634602E-03	1.579013E-05
7.058308E+03	1.646423E-03	1.592228E-05
7.068263E+03	1.657955E-03	1.604953E-05
7.078219E+03	1.669126E-03	1.617112E-05
7.088174E+03	1.679874E-03	1.628635E-05
7.098129E+03	1.690160E-03	1.639478E-05
7.108085E+03	1.699889E-03	1.649540E-05
7.118040E+03	1.709051E-03	1.658805E-05
7.127995E+03	1.717552E-03	1.667176E-05
7.137951E+03	1.725361E-03	1.674616E-05
7.147906E+03	1.732445E-03	1.681089E-05
7.157861E+03	1.738700E-03	1.686489E-05
7.167817E+03	1.744085E-03	1.690773E-05
7.177772E+03	1.748531E-03	1.693873E-05
7.187727E+03	1.751964E-03	1.695715E-05
7.197682E+03	1.754286E-03	1.696204E-05
7.207638E+03	1.755461E-03	1.695308E-05
7.217593E+03	1.755367E-03	1.692910E-05
7.227548E+03	1.753949E-03	1.688963E-05
7.237504E+03	1.751114E-03	1.683383E-05
7.247459E+03	1.746843E-03	1.676160E-05
7.257414E+03	1.741040E-03	1.667212E-05
7.267370E+03	1.733691E-03	1.656537E-05
7.277325E+03	1.724776E-03	1.644129E-05
7.287280E+03	1.714273E-03	1.629981E-05
7.297235E+03	1.702246E-03	1.614173E-05
7.307191E+03	1.688674E-03	1.596701E-05
7.317146E+03	1.673687E-03	1.577709E-05
7.327101E+03	1.657350E-03	1.557276E-05
7.337057E+03	1.639750E-03	1.535506E-05
7.347012E+03	1.621036E-03	1.512558E-05
7.356967E+03	1.601327E-03	1.488565E-05
7.366923E+03	1.580803E-03	1.463714E-05
7.376878E+03	1.559627E-03	1.438176E-05
7.386833E+03	1.537932E-03	1.412091E-05
7.396788E+03	1.515934E-03	1.385674E-05
7.406744E+03	1.493768E-03	1.359063E-05
7.416699E+03	1.471625E-03	1.332446E-05
7.426654E+03	1.449670E-03	1.305984E-05
7.436610E+03	1.428080E-03	1.279843E-05
7.446565E+03	1.406982E-03	1.254144E-05
7.456520E+03	1.386510E-03	1.229012E-05
7.466476E+03	1.366808E-03	1.204572E-05
7.476431E+03	1.347966E-03	1.180906E-05
7.486386E+03	1.330085E-03	1.158096E-05
7.496341E+03	1.313267E-03	1.136228E-05
7.506297E+03	1.297573E-03	1.115344E-05
7.516252E+03	1.283085E-03	1.095507E-05
7.526207E+03	1.269827E-03	1.076725E-05
7.536163E+03	1.257882E-03	1.059052E-05
7.546118E+03	1.247277E-03	1.042495E-05
7.556073E+03	1.238047E-03	1.027067E-05
7.566029E+03	1.230220E-03	1.012770E-05
7.575984E+03	1.223809E-03	9.995974E-06
7.585939E+03	1.218810E-03	9.875232E-06
7.595894E+03	1.215177E-03	9.764885E-06
7.605850E+03	1.212890E-03	9.664573E-06
7.615805E+03	1.211873E-03	9.573478E-06
7.625760E+03	1.212044E-03	9.490763E-06
7.635716E+03	1.213353E-03	9.415843E-06
7.645671E+03	1.215731E-03	9.348011E-06
7.655626E+03	1.219107E-03	9.286577E-06
7.665582E+03	1.223411E-03	9.230855E-06
7.675537E+03	1.228553E-03	9.180052E-06
7.685492E+03	1.234476E-03	9.133632E-06
7.695447E+03	1.241101E-03	9.090938E-06
7.705403E+03	1.248349E-03	9.051330E-06
7.715358E+03	1.256137E-03	9.014174E-06
7.725313E+03	1.264362E-03	8.978725E-06
