#wls	flux	fluxerr
1.592848E+03	1.120161E-04	2.385804E-06
1.632669E+03	1.148750E-04	2.439059E-06
1.672491E+03	1.173274E-04	2.483135E-06
1.712312E+03	1.193057E-04	2.516667E-06
1.752133E+03	1.207919E-04	2.539368E-06
1.791954E+03	1.216222E-04	2.547896E-06
1.831775E+03	1.216223E-04	2.538748E-06
1.871597E+03	1.206226E-04	2.508584E-06
1.911418E+03	1.184244E-04	2.453514E-06
1.951239E+03	1.149694E-04	2.372635E-06
1.991060E+03	1.104269E-04	2.269740E-06
2.030881E+03	1.052954E-04	2.155332E-06
2.070703E+03	1.006418E-04	2.051331E-06
2.110524E+03	9.770489E-05	1.982779E-06
2.150345E+03	9.758207E-05	1.971401E-06
2.190166E+03	1.007082E-04	2.025173E-06
2.229987E+03	1.067166E-04	2.135819E-06
2.269809E+03	1.147831E-04	2.286061E-06
2.309630E+03	1.239657E-04	2.456571E-06
2.349451E+03	1.335191E-04	2.632256E-06
2.389272E+03	1.429422E-04	2.803103E-06
2.429093E+03	1.519645E-04	2.963808E-06
2.468915E+03	1.605017E-04	3.112797E-06
2.508736E+03	1.685372E-04	3.249841E-06
2.548557E+03	1.761298E-04	3.376171E-06
2.588378E+03	1.833295E-04	3.492831E-06
2.628199E+03	1.902497E-04	3.602046E-06
2.668021E+03	1.969118E-04	3.704260E-06
2.707842E+03	2.034518E-04	3.802051E-06
2.747663E+03	2.098760E-04	3.895531E-06
2.787484E+03	2.163071E-04	3.986945E-06
2.827305E+03	2.227350E-04	4.076051E-06
2.867127E+03	2.292998E-04	4.165343E-06
2.906948E+03	2.360080E-04	4.254822E-06
2.946769E+03	2.429533E-04	4.346049E-06
2.986590E+03	2.501894E-04	4.439819E-06
2.996546E+03	2.520520E-04	4.463780E-06
3.006501E+03	2.539191E-04	4.487644E-06
3.016456E+03	2.558225E-04	4.511970E-06
3.026411E+03	2.577660E-04	4.536818E-06
3.036367E+03	2.597353E-04	4.561933E-06
3.046322E+03	2.617789E-04	4.588161E-06
3.056277E+03	2.638597E-04	4.614843E-06
3.066233E+03	2.660347E-04	4.642971E-06
3.076188E+03	2.682362E-04	4.671352E-06
3.086143E+03	2.705221E-04	4.700987E-06
3.096099E+03	2.728252E-04	4.730703E-06
3.106054E+03	2.751725E-04	4.760962E-06
3.116009E+03	2.775913E-04	4.792230E-06
3.125964E+03	2.800155E-04	4.823360E-06
3.135920E+03	2.825041E-04	4.855361E-06
3.145875E+03	2.850223E-04	4.887631E-06
3.155830E+03	2.875983E-04	4.920645E-06
3.165786E+03	2.901670E-04	4.953285E-06
3.175741E+03	2.927874E-04	4.986556E-06
3.185696E+03	2.954571E-04	5.020409E-06
3.195652E+03	2.981426E-04	5.054268E-06
3.205607E+03	3.008720E-04	5.088607E-06
3.215562E+03	3.036433E-04	5.123385E-06
3.225517E+03	3.064233E-04	5.158036E-06
3.235473E+03	3.092713E-04	5.193553E-06
3.245428E+03	3.121238E-04	5.228865E-06
3.255383E+03	3.150095E-04	5.264448E-06
3.265339E+03	3.179568E-04	5.300770E-06
3.275294E+03	3.209335E-04	5.337285E-06
3.285249E+03	3.239376E-04	5.373959E-06
3.295205E+03	3.269675E-04	5.410758E-06
3.305160E+03	3.300517E-04	5.448148E-06
3.315115E+03	3.331584E-04	5.485596E-06
3.325070E+03	3.363160E-04	5.523567E-06
3.335026E+03	3.395228E-04	5.562023E-06
3.344981E+03	3.427773E-04	5.600934E-06
3.354936E+03	3.460783E-04	5.640269E-06
3.364892E+03	3.493949E-04	5.679524E-06
3.374847E+03	3.527848E-04	5.719625E-06
3.384802E+03	3.562466E-04	5.760543E-06
3.394758E+03	3.597215E-04	5.801317E-06
3.404713E+03	3.632663E-04	5.842858E-06
3.414668E+03	3.668807E-04	5.885149E-06
3.424623E+03	3.705352E-04	5.927710E-06
3.434579E+03	3.742866E-04	5.971440E-06
3.444534E+03	3.780783E-04	6.015422E-06
3.454489E+03	3.819668E-04	6.060548E-06
3.464445E+03	3.858964E-04	6.105920E-06
3.474400E+03	3.899242E-04	6.152434E-06
3.484355E+03	3.940507E-04	6.200083E-06
3.494311E+03	3.982502E-04	6.248448E-06
3.504266E+03	4.025517E-04	6.297971E-06
3.514221E+03	4.069577E-04	6.348677E-06
3.524176E+03	4.114708E-04	6.400590E-06
3.534132E+03	4.160942E-04	6.453744E-06
3.544087E+03	4.208312E-04	6.508173E-06
3.554042E+03	4.257131E-04	6.564341E-06
3.563998E+03	4.307439E-04	6.622290E-06
3.573953E+03	4.359020E-04	6.681665E-06
3.583908E+03	4.412456E-04	6.743337E-06
3.593864E+03	4.467276E-04	6.806563E-06
3.603819E+03	4.524065E-04	6.872206E-06
3.613774E+03	4.582628E-04	6.939945E-06
3.623729E+03	4.643032E-04	7.009852E-06
3.633685E+03	4.705604E-04	7.082394E-06
3.643640E+03	4.770670E-04	7.158026E-06
3.653595E+03	4.837787E-04	7.236049E-06
3.663551E+03	4.907283E-04	7.316921E-06
3.673506E+03	4.979481E-04	7.401085E-06
3.683461E+03	5.054192E-04	7.488223E-06
3.693417E+03	5.131733E-04	7.578761E-06
3.703372E+03	5.211903E-04	7.672365E-06
3.713327E+03	5.295255E-04	7.769804E-06
3.723282E+03	5.381324E-04	7.870350E-06
3.733238E+03	5.470639E-04	7.974733E-06
3.743193E+03	5.563206E-04	8.082914E-06
3.753148E+03	5.658777E-04	8.194481E-06
3.763104E+03	5.757331E-04	8.309360E-06
3.773059E+03	5.859316E-04	8.428149E-06
3.783014E+03	5.964175E-04	8.549997E-06
3.792970E+03	6.072311E-04	8.675434E-06
3.802925E+03	6.183356E-04	8.803888E-06
3.812880E+03	6.297164E-04	8.935104E-06
3.822835E+03	6.413555E-04	9.068786E-06
3.832791E+03	6.532812E-04	9.205291E-06
3.842746E+03	6.654194E-04	9.343535E-06
3.852701E+03	6.777427E-04	9.483099E-06
3.862657E+03	6.902689E-04	9.624204E-06
3.872612E+03	7.029147E-04	9.765657E-06
3.882567E+03	7.156912E-04	9.907595E-06
3.892523E+03	7.285341E-04	1.004911E-05
3.902478E+03	7.413761E-04	1.018926E-05
3.912433E+03	7.542213E-04	1.032810E-05
3.922388E+03	7.669986E-04	1.046467E-05
3.932344E+03	7.796611E-04	1.059832E-05
3.942299E+03	7.921848E-04	1.072876E-05
3.952254E+03	8.044742E-04	1.085471E-05
3.962210E+03	8.165308E-04	1.097624E-05
3.972165E+03	8.282859E-04	1.109244E-05
3.982120E+03	8.396733E-04	1.120250E-05
3.992076E+03	8.507014E-04	1.130657E-05
4.002031E+03	8.612877E-04	1.140361E-05
4.011986E+03	8.714247E-04	1.149360E-05
4.021941E+03	8.810864E-04	1.157627E-05
4.031897E+03	8.902061E-04	1.165081E-05
4.041852E+03	8.988151E-04	1.171771E-05
4.051807E+03	9.068818E-04	1.177666E-05
4.061763E+03	9.144036E-04	1.182769E-05
4.071718E+03	9.213619E-04	1.187065E-05
4.081673E+03	9.277673E-04	1.190577E-05
4.091629E+03	9.336356E-04	1.193334E-05
4.101584E+03	9.389673E-04	1.195346E-05
4.111539E+03	9.438109E-04	1.196681E-05
4.121494E+03	9.481569E-04	1.197336E-05
4.131450E+03	9.520425E-04	1.197366E-05
4.141405E+03	9.555296E-04	1.196856E-05
4.151360E+03	9.586023E-04	1.195792E-05
4.161316E+03	9.613488E-04	1.194291E-05
4.171271E+03	9.637611E-04	1.192348E-05
4.181226E+03	9.659307E-04	1.190082E-05
4.191182E+03	9.678737E-04	1.187517E-05
4.201137E+03	9.696275E-04	1.184701E-05
4.211092E+03	9.712482E-04	1.181708E-05
4.221047E+03	9.727750E-04	1.178587E-05
4.231003E+03	9.742643E-04	1.175407E-05
4.240958E+03	9.757372E-04	1.172196E-05
4.250913E+03	9.772668E-04	1.169042E-05
4.260869E+03	9.788730E-04	1.165967E-05
4.270824E+03	9.805924E-04	1.163015E-05
4.280779E+03	9.824768E-04	1.160246E-05
4.290735E+03	9.845430E-04	1.157678E-05
4.300690E+03	9.868390E-04	1.155364E-05
4.310645E+03	9.893934E-04	1.153336E-05
4.320601E+03	9.922322E-04	1.151619E-05
4.330556E+03	9.953784E-04	1.150237E-05
4.340511E+03	9.988501E-04	1.149208E-05
4.350466E+03	1.002677E-03	1.148559E-05
4.360422E+03	1.006835E-03	1.148260E-05
4.370377E+03	1.011354E-03	1.148341E-05
4.380332E+03	1.016242E-03	1.148805E-05
4.390288E+03	1.021497E-03	1.149646E-05
4.400243E+03	1.027154E-03	1.150898E-05
4.410198E+03	1.033209E-03	1.152551E-05
4.420154E+03	1.039636E-03	1.154573E-05
4.430109E+03	1.046446E-03	1.156971E-05
4.440064E+03	1.053629E-03	1.159727E-05
4.450019E+03	1.061137E-03	1.162786E-05
4.459975E+03	1.068944E-03	1.166115E-05
4.469930E+03	1.077002E-03	1.169660E-05
4.479885E+03	1.085272E-03	1.173374E-05
4.489841E+03	1.093708E-03	1.177206E-05
4.499796E+03	1.102257E-03	1.181099E-05
4.509751E+03	1.110846E-03	1.184974E-05
4.519707E+03	1.119414E-03	1.188767E-05
4.529662E+03	1.127924E-03	1.192441E-05
4.539617E+03	1.136279E-03	1.195894E-05
4.549572E+03	1.144440E-03	1.199090E-05
4.559528E+03	1.152323E-03	1.201947E-05
4.569483E+03	1.159893E-03	1.204430E-05
4.579438E+03	1.167057E-03	1.206453E-05
4.589394E+03	1.173788E-03	1.207992E-05
4.599349E+03	1.180034E-03	1.209003E-05
4.609304E+03	1.185770E-03	1.209466E-05
4.619260E+03	1.190959E-03	1.209355E-05
4.629215E+03	1.195579E-03	1.208655E-05
4.639170E+03	1.199629E-03	1.207374E-05
4.649125E+03	1.203122E-03	1.205533E-05
4.659081E+03	1.206063E-03	1.203147E-05
4.669036E+03	1.208486E-03	1.200257E-05
4.678991E+03	1.210429E-03	1.196910E-05
4.688947E+03	1.211941E-03	1.193162E-05
4.698902E+03	1.213078E-03	1.189072E-05
4.708857E+03	1.213884E-03	1.184692E-05
4.718813E+03	1.214424E-03	1.180087E-05
4.728768E+03	1.214787E-03	1.175352E-05
4.738723E+03	1.215037E-03	1.170548E-05
4.748678E+03	1.215218E-03	1.165720E-05
4.758634E+03	1.215398E-03	1.160937E-05
4.768589E+03	1.215643E-03	1.156261E-05
4.778544E+03	1.216049E-03	1.151784E-05
4.788500E+03	1.216699E-03	1.147584E-05
4.798455E+03	1.217667E-03	1.143727E-05
4.808410E+03	1.219031E-03	1.140284E-05
4.818366E+03	1.220842E-03	1.137299E-05
4.828321E+03	1.223155E-03	1.134816E-05
4.838276E+03	1.226015E-03	1.132870E-05
4.848231E+03	1.229441E-03	1.131474E-05
4.858187E+03	1.233455E-03	1.130639E-05
4.868142E+03	1.238068E-03	1.130371E-05
4.878097E+03	1.243281E-03	1.130664E-05
4.888053E+03	1.249086E-03	1.131501E-05
4.898008E+03	1.255447E-03	1.132847E-05
4.907963E+03	1.262351E-03	1.134683E-05
4.917919E+03	1.269759E-03	1.136968E-05
4.927874E+03	1.277625E-03	1.139657E-05
4.937829E+03	1.285882E-03	1.142685E-05
4.947784E+03	1.294499E-03	1.146021E-05
4.957740E+03	1.303387E-03	1.149583E-05
4.967695E+03	1.312506E-03	1.153335E-05
4.977650E+03	1.321778E-03	1.157205E-05
4.987606E+03	1.331137E-03	1.161135E-05
4.997561E+03	1.340534E-03	1.165081E-05
5.007516E+03	1.349910E-03	1.168993E-05
5.017472E+03	1.359181E-03	1.172799E-05
5.027427E+03	1.368344E-03	1.176497E-05
5.037382E+03	1.377343E-03	1.180041E-05
5.047337E+03	1.386127E-03	1.183389E-05
5.057293E+03	1.394685E-03	1.186532E-05
5.067248E+03	1.403009E-03	1.189470E-05
5.077203E+03	1.411056E-03	1.192164E-05
5.087159E+03	1.418844E-03	1.194635E-05
5.097114E+03	1.426353E-03	1.196868E-05
5.107069E+03	1.433596E-03	1.198876E-05
5.117025E+03	1.440554E-03	1.200646E-05
5.126980E+03	1.447229E-03	1.202182E-05
5.136935E+03	1.453634E-03	1.203498E-05
5.146890E+03	1.459769E-03	1.204596E-05
5.156846E+03	1.465629E-03	1.205475E-05
5.166801E+03	1.471195E-03	1.206119E-05
5.176756E+03	1.476473E-03	1.206539E-05
5.186712E+03	1.481467E-03	1.206740E-05
5.196667E+03	1.486133E-03	1.206687E-05
5.206622E+03	1.490469E-03	1.206383E-05
5.216578E+03	1.494471E-03	1.205826E-05
5.226533E+03	1.498102E-03	1.204990E-05
5.236488E+03	1.501338E-03	1.203858E-05
5.246443E+03	1.504152E-03	1.202413E-05
5.256399E+03	1.506534E-03	1.200649E-05
5.266354E+03	1.508441E-03	1.198536E-05
5.276309E+03	1.509845E-03	1.196055E-05
5.286265E+03	1.510735E-03	1.193201E-05
5.296220E+03	1.511071E-03	1.189946E-05
5.306175E+03	1.510843E-03	1.186288E-05
5.316131E+03	1.510017E-03	1.182202E-05
5.326086E+03	1.508588E-03	1.177690E-05
5.336041E+03	1.506528E-03	1.172734E-05
5.345996E+03	1.503843E-03	1.167342E-05
5.355952E+03	1.500526E-03	1.161514E-05
5.365907E+03	1.496562E-03	1.155242E-05
5.375862E+03	1.491954E-03	1.148533E-05
5.385818E+03	1.486729E-03	1.141411E-05
5.395773E+03	1.480899E-03	1.133889E-05
5.405728E+03	1.474453E-03	1.125964E-05
5.415684E+03	1.467459E-03	1.117689E-05
5.425639E+03	1.459900E-03	1.109056E-05
5.435594E+03	1.451835E-03	1.100111E-05
5.445549E+03	1.443282E-03	1.090873E-05
5.455505E+03	1.434292E-03	1.081381E-05
5.465460E+03	1.424887E-03	1.071653E-05
5.475415E+03	1.415110E-03	1.061722E-05
5.485371E+03	1.405026E-03	1.051638E-05
5.495326E+03	1.394676E-03	1.041429E-05
5.505281E+03	1.384119E-03	1.031141E-05
5.515237E+03	1.373434E-03	1.020830E-05
5.525192E+03	1.362688E-03	1.010546E-05
5.535147E+03	1.351932E-03	1.000324E-05
5.545102E+03	1.341273E-03	9.902424E-06
5.555058E+03	1.330801E-03	9.803647E-06
5.565013E+03	1.320582E-03	9.707379E-06
5.574968E+03	1.310743E-03	9.614517E-06
5.584924E+03	1.301386E-03	9.525785E-06
5.594879E+03	1.292591E-03	9.441725E-06
5.604834E+03	1.284503E-03	9.363360E-06
5.614790E+03	1.277190E-03	9.291137E-06
5.624745E+03	1.270767E-03	9.225849E-06
5.634700E+03	1.265344E-03	9.168251E-06
5.644655E+03	1.261001E-03	9.118860E-06
5.654611E+03	1.257832E-03	9.078315E-06
5.664566E+03	1.255887E-03	9.046906E-06
5.674521E+03	1.255250E-03	9.025191E-06
5.684477E+03	1.255944E-03	9.013277E-06
5.694432E+03	1.258014E-03	9.011429E-06
5.704387E+03	1.261488E-03	9.019792E-06
5.714343E+03	1.266340E-03	9.038125E-06
5.724298E+03	1.272550E-03	9.066231E-06
5.734253E+03	1.280102E-03	9.103957E-06
5.744209E+03	1.288913E-03	9.150650E-06
5.754164E+03	1.298902E-03	9.205699E-06
5.764119E+03	1.309966E-03	9.268349E-06
5.774074E+03	1.321998E-03	9.337800E-06
5.784030E+03	1.334844E-03	9.412938E-06
5.793985E+03	1.348342E-03	9.492615E-06
5.803940E+03	1.362317E-03	9.575577E-06
5.813896E+03	1.376565E-03	9.660389E-06
5.823851E+03	1.390910E-03	9.745818E-06
5.833806E+03	1.405116E-03	9.830222E-06
5.843762E+03	1.418969E-03	9.912127E-06
5.853717E+03	1.432272E-03	9.990175E-06
5.863672E+03	1.444804E-03	1.006287E-05
5.873627E+03	1.456373E-03	1.012890E-05
5.883583E+03	1.466801E-03	1.018708E-05
5.893538E+03	1.475932E-03	1.023636E-05
5.903493E+03	1.483638E-03	1.027593E-05
5.913449E+03	1.489819E-03	1.030512E-05
5.923404E+03	1.494408E-03	1.032354E-05
5.933359E+03	1.497345E-03	1.033083E-05
5.943315E+03	1.498676E-03	1.032736E-05
5.953270E+03	1.498410E-03	1.031325E-05
5.963225E+03	1.496622E-03	1.028905E-05
5.973180E+03	1.493413E-03	1.025551E-05
5.983136E+03	1.488914E-03	1.021356E-05
5.993091E+03	1.483281E-03	1.016432E-05
6.003046E+03	1.476671E-03	1.010888E-05
6.013002E+03	1.469287E-03	1.004867E-05
6.022957E+03	1.461324E-03	9.985034E-06
6.032912E+03	1.452956E-03	9.919175E-06
6.042868E+03	1.444410E-03	9.852662E-06
6.052823E+03	1.435854E-03	9.786643E-06
6.062778E+03	1.427489E-03	9.722494E-06
6.072733E+03	1.419478E-03	9.661327E-06
6.082689E+03	1.411997E-03	9.604333E-06
6.092644E+03	1.405164E-03	9.552320E-06
6.102599E+03	1.399134E-03	9.506344E-06
6.112555E+03	1.394004E-03	9.467049E-06
6.122510E+03	1.389875E-03	9.435133E-06
6.132465E+03	1.386816E-03	9.411059E-06
6.142421E+03	1.384888E-03	9.395245E-06
6.152376E+03	1.384130E-03	9.387962E-06
6.162331E+03	1.384547E-03	9.389250E-06
6.172286E+03	1.386096E-03	9.398826E-06
6.182242E+03	1.388739E-03	9.416451E-06
6.192197E+03	1.392419E-03	9.441763E-06
6.202152E+03	1.397063E-03	9.474263E-06
6.212108E+03	1.402578E-03	9.513335E-06
6.222063E+03	1.408856E-03	9.558236E-06
6.232018E+03	1.415768E-03	9.608094E-06
6.241974E+03	1.423175E-03	9.661974E-06
6.251929E+03	1.430961E-03	9.719078E-06
6.261884E+03	1.438946E-03	9.778190E-06
6.271839E+03	1.447022E-03	9.838569E-06
6.281795E+03	1.455008E-03	9.898991E-06
6.291750E+03	1.462773E-03	9.958557E-06
6.301705E+03	1.470179E-03	1.001633E-05
6.311661E+03	1.477131E-03	1.007163E-05
6.321616E+03	1.483485E-03	1.012348E-05
6.331571E+03	1.489160E-03	1.017132E-05
6.341527E+03	1.494076E-03	1.021457E-05
6.351482E+03	1.498173E-03	1.025280E-05
6.361437E+03	1.501421E-03	1.028578E-05
6.371392E+03	1.503780E-03	1.031321E-05
6.381348E+03	1.505255E-03	1.033510E-05
6.391303E+03	1.505837E-03	1.035135E-05
6.401258E+03	1.505543E-03	1.036206E-05
6.411214E+03	1.504404E-03	1.036739E-05
6.421169E+03	1.502459E-03	1.036758E-05
6.431124E+03	1.499738E-03	1.036282E-05
6.441080E+03	1.496294E-03	1.035343E-05
6.451035E+03	1.492181E-03	1.033975E-05
6.460990E+03	1.487443E-03	1.032205E-05
6.470945E+03	1.482139E-03	1.030070E-05
6.480901E+03	1.476314E-03	1.027597E-05
6.490856E+03	1.470075E-03	1.024857E-05
6.500811E+03	1.463466E-03	1.021874E-05
6.510767E+03	1.456547E-03	1.018689E-05
6.520722E+03	1.449308E-03	1.015290E-05
6.530677E+03	1.441737E-03	1.011665E-05
6.540633E+03	1.433834E-03	1.007811E-05
6.550588E+03	1.425588E-03	1.003716E-05
6.560543E+03	1.417002E-03	9.993784E-06
6.570498E+03	1.408065E-03	9.947870E-06
6.580454E+03	1.398768E-03	9.899329E-06
6.590409E+03	1.389123E-03	9.848196E-06
6.600364E+03	1.379112E-03	9.794319E-06
6.610320E+03	1.368754E-03	9.737802E-06
6.620275E+03	1.358060E-03	9.678683E-06
6.630230E+03	1.347045E-03	9.617048E-06
6.640186E+03	1.335735E-03	9.553048E-06
6.650141E+03	1.324163E-03	9.486891E-06
6.660096E+03	1.312370E-03	9.418851E-06
6.670051E+03	1.300408E-03	9.349275E-06
6.680007E+03	1.288336E-03	9.278570E-06
6.689962E+03	1.276237E-03	9.207315E-06
6.699917E+03	1.264171E-03	9.135935E-06
6.709873E+03	1.252234E-03	9.065118E-06
6.719828E+03	1.240500E-03	8.995389E-06
6.729783E+03	1.229059E-03	8.927408E-06
6.739739E+03	1.218006E-03	8.861858E-06
6.749694E+03	1.207463E-03	8.799645E-06
6.759649E+03	1.197483E-03	8.741163E-06
6.769604E+03	1.188187E-03	8.687304E-06
6.779560E+03	1.179663E-03	8.638746E-06
6.789515E+03	1.171984E-03	8.596031E-06
6.799470E+03	1.165229E-03	8.559768E-06
6.809426E+03	1.159497E-03	8.530719E-06
6.819381E+03	1.154814E-03	8.509095E-06
6.829336E+03	1.151277E-03	8.495643E-06
6.839292E+03	1.148905E-03	8.490548E-06
6.849247E+03	1.147752E-03	8.494224E-06
6.859202E+03	1.147830E-03	8.506808E-06
6.869157E+03	1.149170E-03	8.528562E-06
6.879113E+03	1.151779E-03	8.559564E-06
6.889068E+03	1.155639E-03	8.599715E-06
6.899023E+03	1.160762E-03	8.649133E-06
6.908979E+03	1.167094E-03	8.707450E-06
6.918934E+03	1.174613E-03	8.774529E-06
6.928889E+03	1.183260E-03	8.849949E-06
6.938845E+03	1.193008E-03	8.933538E-06
6.948800E+03	1.203767E-03	9.024637E-06
6.958755E+03	1.215483E-03	9.122858E-06
6.968710E+03	1.228097E-03	9.227774E-06
6.978666E+03	1.241501E-03	9.338588E-06
6.988621E+03	1.255630E-03	9.454822E-06
6.998576E+03	1.270404E-03	9.575873E-06
7.008532E+03	1.285726E-03	9.701025E-06
7.018487E+03	1.301550E-03	9.829926E-06
7.028442E+03	1.317784E-03	9.961883E-06
7.038398E+03	1.334356E-03	1.009635E-05
7.048353E+03	1.351214E-03	1.023294E-05
7.058308E+03	1.368258E-03	1.037089E-05
7.068263E+03	1.385443E-03	1.050984E-05
7.078219E+03	1.402723E-03	1.064945E-05
7.088174E+03	1.420003E-03	1.078899E-05
7.098129E+03	1.437253E-03	1.092822E-05
7.108085E+03	1.454405E-03	1.106663E-05
7.118040E+03	1.471347E-03	1.120335E-05
7.127995E+03	1.488033E-03	1.133801E-05
7.137951E+03	1.504348E-03	1.146976E-05
7.147906E+03	1.520206E-03	1.159790E-05
7.157861E+03	1.535465E-03	1.172136E-05
7.167817E+03	1.549990E-03	1.183909E-05
7.177772E+03	1.563652E-03	1.195010E-05
7.187727E+03	1.576289E-03	1.205316E-05
7.197682E+03	1.587711E-03	1.214677E-05
7.207638E+03	1.597758E-03	1.222972E-05
7.217593E+03	1.606228E-03	1.230045E-05
7.227548E+03	1.612963E-03	1.235774E-05
7.237504E+03	1.617792E-03	1.240027E-05
7.247459E+03	1.620537E-03	1.242666E-05
7.257414E+03	1.621083E-03	1.243603E-05
7.267370E+03	1.619320E-03	1.242752E-05
7.277325E+03	1.615174E-03	1.240055E-05
7.287280E+03	1.608603E-03	1.235481E-05
7.297235E+03	1.599588E-03	1.229013E-05
7.307191E+03	1.588196E-03	1.220702E-05
7.317146E+03	1.574534E-03	1.210632E-05
7.327101E+03	1.558711E-03	1.198885E-05
7.337057E+03	1.540876E-03	1.185576E-05
7.347012E+03	1.521293E-03	1.170909E-05
7.356967E+03	1.500152E-03	1.155031E-05
7.366923E+03	1.477710E-03	1.138139E-05
7.376878E+03	1.454273E-03	1.120471E-05
7.386833E+03	1.430119E-03	1.102241E-05
7.396788E+03	1.405505E-03	1.083648E-05
7.406744E+03	1.380739E-03	1.064932E-05
7.416699E+03	1.356026E-03	1.046251E-05
7.426654E+03	1.331647E-03	1.027824E-05
7.436610E+03	1.307788E-03	1.009796E-05
7.446565E+03	1.284672E-03	9.923399E-06
7.456520E+03	1.262439E-03	9.755671E-06
7.466476E+03	1.241259E-03	9.596108E-06
7.476431E+03	1.221245E-03	9.445592E-06
7.486386E+03	1.202517E-03	9.305072E-06
7.496341E+03	1.185136E-03	9.175061E-06
7.506297E+03	1.169164E-03	9.056045E-06
7.516252E+03	1.154624E-03	8.948231E-06
7.526207E+03	1.141571E-03	8.852057E-06
7.536163E+03	1.129980E-03	8.767365E-06
7.546118E+03	1.119863E-03	8.694262E-06
7.556073E+03	1.111190E-03	8.632543E-06
7.566029E+03	1.103954E-03	8.582178E-06
7.575984E+03	1.098126E-03	8.542964E-06
7.585939E+03	1.093656E-03	8.514554E-06
7.595894E+03	1.090513E-03	8.496730E-06
7.605850E+03	1.088679E-03	8.489384E-06
7.615805E+03	1.088085E-03	8.492020E-06
7.625760E+03	1.088721E-03	8.504588E-06
7.635716E+03	1.090542E-03	8.526780E-06
7.645671E+03	1.093469E-03	8.558017E-06
7.655626E+03	1.097480E-03	8.598163E-06
7.665582E+03	1.102486E-03	8.646568E-06
7.675537E+03	1.108455E-03	8.703023E-06
7.685492E+03	1.115305E-03	8.766921E-06
7.695447E+03	1.122976E-03	8.837850E-06
7.705403E+03	1.131361E-03	8.915001E-06
7.715358E+03	1.140407E-03	8.998007E-06
7.725313E+03	1.150011E-03	9.086099E-06
