#wls	flux	fluxerr
1.592848E+03	2.456034E-05	2.324166E-05
1.632669E+03	2.563667E-05	2.406680E-05
1.672491E+03	2.665506E-05	2.481871E-05
1.712312E+03	2.760138E-05	2.548527E-05
1.752133E+03	2.845620E-05	2.605005E-05
1.791954E+03	2.918538E-05	2.648390E-05
1.831775E+03	2.973338E-05	2.673959E-05
1.871597E+03	3.004701E-05	2.677395E-05
1.911418E+03	3.006778E-05	2.654098E-05
1.951239E+03	2.975726E-05	2.601443E-05
1.991060E+03	2.913521E-05	2.521990E-05
2.030881E+03	2.833406E-05	2.427914E-05
2.070703E+03	2.761921E-05	2.342217E-05
2.110524E+03	2.735409E-05	2.295189E-05
2.150345E+03	2.787921E-05	2.313888E-05
2.190166E+03	2.935989E-05	2.409705E-05
2.229987E+03	3.176140E-05	2.577124E-05
2.269809E+03	3.487911E-05	2.797058E-05
2.309630E+03	3.846958E-05	3.048067E-05
2.349451E+03	4.232368E-05	3.312284E-05
2.389272E+03	4.629239E-05	3.577280E-05
2.429093E+03	5.028934E-05	3.835973E-05
2.468915E+03	5.428177E-05	4.085661E-05
2.508736E+03	5.826663E-05	4.325979E-05
2.548557E+03	6.224779E-05	4.557081E-05
2.588378E+03	6.625496E-05	4.780971E-05
2.628199E+03	7.030201E-05	4.998400E-05
2.668021E+03	7.441197E-05	5.210702E-05
2.707842E+03	7.860680E-05	5.419033E-05
2.747663E+03	8.291746E-05	5.625062E-05
2.787484E+03	8.736238E-05	5.829474E-05
2.827305E+03	9.194545E-05	6.031917E-05
2.867127E+03	9.670231E-05	6.234054E-05
2.906948E+03	1.016554E-04	6.436545E-05
2.946769E+03	1.068242E-04	6.639744E-05
2.986590E+03	1.122125E-04	6.842956E-05
2.996546E+03	1.135923E-04	6.893559E-05
3.006501E+03	1.149912E-04	6.944405E-05
3.016456E+03	1.164088E-04	6.995466E-05
3.026411E+03	1.178471E-04	7.046831E-05
3.036367E+03	1.193011E-04	7.098180E-05
3.046322E+03	1.208043E-04	7.151491E-05
3.056277E+03	1.223286E-04	7.205053E-05
3.066233E+03	1.238844E-04	7.259451E-05
3.076188E+03	1.254823E-04	7.315281E-05
3.086143E+03	1.270944E-04	7.370873E-05
3.096099E+03	1.287444E-04	7.427585E-05
3.106054E+03	1.304175E-04	7.484529E-05
3.116009E+03	1.321118E-04	7.541573E-05
3.125964E+03	1.338255E-04	7.598585E-05
3.135920E+03	1.355701E-04	7.656200E-05
3.145875E+03	1.373307E-04	7.713550E-05
3.155830E+03	1.391058E-04	7.770532E-05
3.165786E+03	1.409071E-04	7.827776E-05
3.175741E+03	1.427334E-04	7.885185E-05
3.185696E+03	1.445697E-04	7.941920E-05
3.195652E+03	1.464282E-04	7.998625E-05
3.205607E+03	1.483075E-04	8.055206E-05
3.215562E+03	1.502064E-04	8.111570E-05
3.225517E+03	1.521104E-04	8.166919E-05
3.235473E+03	1.540315E-04	8.221885E-05
3.245428E+03	1.559822E-04	8.277111E-05
3.255383E+03	1.579343E-04	8.331079E-05
3.265339E+03	1.599137E-04	8.385141E-05
3.275294E+03	1.619059E-04	8.438514E-05
3.285249E+03	1.639231E-04	8.491813E-05
3.295205E+03	1.659374E-04	8.543578E-05
3.305160E+03	1.679882E-04	8.595818E-05
3.315115E+03	1.700341E-04	8.646393E-05
3.325070E+03	1.721144E-04	8.697287E-05
3.335026E+03	1.742010E-04	8.747061E-05
3.344981E+03	1.763065E-04	8.796324E-05
3.354936E+03	1.784298E-04	8.845009E-05
3.364892E+03	1.805699E-04	8.893040E-05
3.374847E+03	1.827259E-04	8.940351E-05
3.384802E+03	1.849098E-04	8.987515E-05
3.394758E+03	1.870943E-04	9.033178E-05
3.404713E+03	1.893048E-04	9.078556E-05
3.414668E+03	1.915404E-04	9.123577E-05
3.424623E+03	1.937867E-04	9.167534E-05
3.434579E+03	1.960564E-04	9.211002E-05
3.444534E+03	1.983352E-04	9.253300E-05
3.454489E+03	2.006487E-04	9.295591E-05
3.464445E+03	2.029701E-04	9.336613E-05
3.474400E+03	2.053249E-04	9.377519E-05
3.484355E+03	2.077001E-04	9.417676E-05
3.494311E+03	2.100958E-04	9.457071E-05
3.504266E+03	2.125254E-04	9.496280E-05
3.514221E+03	2.149896E-04	9.535295E-05
3.524176E+03	2.174770E-04	9.573582E-05
3.534132E+03	2.200024E-04	9.611753E-05
3.544087E+03	2.225680E-04	9.649871E-05
3.554042E+03	2.251766E-04	9.688007E-05
3.563998E+03	2.278317E-04	9.726266E-05
3.573953E+03	2.305493E-04	9.765283E-05
3.583908E+03	2.333216E-04	9.804654E-05
3.593864E+03	2.361532E-04	9.844524E-05
3.603819E+03	2.390746E-04	9.886083E-05
3.613774E+03	2.420671E-04	9.928474E-05
3.623729E+03	2.451499E-04	9.972403E-05
3.633685E+03	2.483427E-04	1.001857E-04
3.643640E+03	2.516289E-04	1.006620E-04
3.653595E+03	2.550420E-04	1.011652E-04
3.663551E+03	2.585908E-04	1.016975E-04
3.673506E+03	2.622733E-04	1.022567E-04
3.683461E+03	2.661235E-04	1.028544E-04
3.693417E+03	2.701277E-04	1.034839E-04
3.703372E+03	2.743085E-04	1.041519E-04
3.713327E+03	2.786765E-04	1.048607E-04
3.723282E+03	2.832541E-04	1.056167E-04
3.733238E+03	2.880397E-04	1.064171E-04
3.743193E+03	2.930552E-04	1.072677E-04
3.753148E+03	2.983100E-04	1.081696E-04
3.763104E+03	3.038008E-04	1.091191E-04
3.773059E+03	3.095593E-04	1.101250E-04
3.783014E+03	3.155799E-04	1.111826E-04
3.792970E+03	3.218678E-04	1.122908E-04
3.802925E+03	3.284259E-04	1.134480E-04
3.812880E+03	3.352674E-04	1.146558E-04
3.822835E+03	3.423786E-04	1.159065E-04
3.832791E+03	3.497673E-04	1.172001E-04
3.842746E+03	3.574382E-04	1.185351E-04
3.852701E+03	3.653560E-04	1.198970E-04
3.862657E+03	3.735178E-04	1.212823E-04
3.872612E+03	3.819042E-04	1.226821E-04
3.882567E+03	3.904913E-04	1.240865E-04
3.892523E+03	3.992618E-04	1.254880E-04
3.902478E+03	4.081680E-04	1.268698E-04
3.912433E+03	4.171693E-04	1.282180E-04
3.922388E+03	4.262330E-04	1.295217E-04
3.932344E+03	4.352976E-04	1.307616E-04
3.942299E+03	4.443239E-04	1.319263E-04
3.952254E+03	4.532589E-04	1.330004E-04
3.962210E+03	4.620366E-04	1.339660E-04
3.972165E+03	4.706179E-04	1.348133E-04
3.982120E+03	4.789406E-04	1.355269E-04
3.992076E+03	4.869716E-04	1.361003E-04
4.002031E+03	4.946699E-04	1.365253E-04
4.011986E+03	5.019877E-04	1.367923E-04
4.021941E+03	5.089091E-04	1.369011E-04
4.031897E+03	5.153876E-04	1.368437E-04
4.041852E+03	5.214478E-04	1.366310E-04
4.051807E+03	5.270459E-04	1.362563E-04
4.061763E+03	5.322098E-04	1.357317E-04
4.071718E+03	5.369245E-04	1.350578E-04
4.081673E+03	5.412331E-04	1.342504E-04
4.091629E+03	5.451358E-04	1.333137E-04
4.101584E+03	5.486648E-04	1.322598E-04
4.111539E+03	5.518690E-04	1.311044E-04
4.121494E+03	5.547666E-04	1.298553E-04
4.131450E+03	5.574253E-04	1.285314E-04
4.141405E+03	5.598685E-04	1.271406E-04
4.151360E+03	5.621322E-04	1.256934E-04
4.161316E+03	5.642860E-04	1.242070E-04
4.171271E+03	5.663539E-04	1.226880E-04
4.181226E+03	5.683807E-04	1.211468E-04
4.191182E+03	5.704099E-04	1.195932E-04
4.201137E+03	5.724719E-04	1.180336E-04
4.211092E+03	5.746067E-04	1.164758E-04
4.221047E+03	5.768416E-04	1.149247E-04
4.231003E+03	5.792028E-04	1.133846E-04
4.240958E+03	5.817257E-04	1.118609E-04
4.250913E+03	5.844448E-04	1.103589E-04
4.260869E+03	5.873740E-04	1.088790E-04
4.270824E+03	5.905477E-04	1.074257E-04
4.280779E+03	5.940008E-04	1.060028E-04
4.290735E+03	5.977398E-04	1.046087E-04
4.300690E+03	6.018120E-04	1.032488E-04
4.310645E+03	6.062381E-04	1.019233E-04
4.320601E+03	6.110599E-04	1.006357E-04
4.330556E+03	6.163034E-04	9.938640E-05
4.340511E+03	6.220069E-04	9.817734E-05
4.350466E+03	6.282026E-04	9.700904E-05
4.360422E+03	6.349529E-04	9.588620E-05
4.370377E+03	6.422758E-04	9.480615E-05
4.380332E+03	6.502287E-04	9.377163E-05
4.390288E+03	6.588499E-04	9.278202E-05
4.400243E+03	6.681871E-04	9.183749E-05
4.410198E+03	6.782661E-04	9.093467E-05
4.420154E+03	6.891364E-04	9.007302E-05
4.430109E+03	7.008218E-04	8.924811E-05
4.440064E+03	7.133545E-04	8.845628E-05
4.450019E+03	7.267535E-04	8.769194E-05
4.459975E+03	7.410208E-04	8.694732E-05
4.469930E+03	7.561475E-04	8.621347E-05
4.479885E+03	7.720816E-04	8.547688E-05
4.489841E+03	7.887742E-04	8.472513E-05
4.499796E+03	8.061182E-04	8.394048E-05
4.509751E+03	8.239971E-04	8.310577E-05
4.519707E+03	8.422539E-04	8.220147E-05
4.529662E+03	8.607032E-04	8.120750E-05
4.539617E+03	8.791446E-04	8.010492E-05
4.549572E+03	8.973471E-04	7.887473E-05
4.559528E+03	9.150663E-04	7.749984E-05
4.569483E+03	9.320648E-04	7.596688E-05
4.579438E+03	9.480991E-04	7.426504E-05
4.589394E+03	9.629314E-04	7.238703E-05
4.599349E+03	9.763842E-04	7.033288E-05
4.609304E+03	9.882937E-04	6.810575E-05
4.619260E+03	9.985395E-04	6.571359E-05
4.629215E+03	1.007046E-03	6.316859E-05
4.639170E+03	1.013793E-03	6.048722E-05
4.649125E+03	1.018807E-03	5.768848E-05
4.659081E+03	1.022126E-03	5.479177E-05
4.669036E+03	1.023859E-03	5.181955E-05
4.678991E+03	1.024132E-03	4.879370E-05
4.688947E+03	1.023063E-03	4.573428E-05
4.698902E+03	1.020862E-03	4.266383E-05
4.708857E+03	1.017689E-03	3.960068E-05
4.718813E+03	1.013752E-03	3.656347E-05
4.728768E+03	1.009277E-03	3.356941E-05
4.738723E+03	1.004477E-03	3.063372E-05
4.748678E+03	9.995883E-04	2.777107E-05
4.758634E+03	9.948331E-04	2.499517E-05
4.768589E+03	9.904461E-04	2.232066E-05
4.778544E+03	9.865860E-04	1.976296E-05
4.788500E+03	9.834028E-04	1.734337E-05
4.798455E+03	9.810393E-04	1.509395E-05
4.808410E+03	9.796490E-04	1.306556E-05
4.818366E+03	9.793600E-04	1.133816E-05
4.828321E+03	9.803034E-04	1.003063E-05
4.838276E+03	9.825990E-04	9.289490E-06
4.848231E+03	9.863400E-04	9.227682E-06
4.858187E+03	9.916214E-04	9.822062E-06
4.868142E+03	9.984937E-04	1.092762E-05
4.878097E+03	1.007003E-03	1.238232E-05
4.888053E+03	1.017144E-03	1.406144E-05
4.898008E+03	1.028887E-03	1.588343E-05
4.907963E+03	1.042176E-03	1.779777E-05
4.917919E+03	1.056890E-03	1.977228E-05
4.927874E+03	1.072885E-03	2.178533E-05
4.937829E+03	1.089956E-03	2.382011E-05
4.947784E+03	1.107846E-03	2.586161E-05
4.957740E+03	1.126255E-03	2.789483E-05
4.967695E+03	1.144863E-03	2.990418E-05
4.977650E+03	1.163319E-03	3.187275E-05
4.987606E+03	1.181273E-03	3.378284E-05
4.997561E+03	1.198409E-03	3.561696E-05
5.007516E+03	1.214419E-03	3.735731E-05
5.017472E+03	1.229120E-03	3.898972E-05
5.027427E+03	1.242359E-03	4.050120E-05
5.037382E+03	1.254079E-03	4.188247E-05
5.047337E+03	1.264317E-03	4.312813E-05
5.057293E+03	1.273145E-03	4.423524E-05
5.067248E+03	1.280711E-03	4.520442E-05
5.077203E+03	1.287176E-03	4.603801E-05
5.087159E+03	1.292728E-03	4.674032E-05
5.097114E+03	1.297527E-03	4.731558E-05
5.107069E+03	1.301751E-03	4.776928E-05
5.117025E+03	1.305526E-03	4.810579E-05
5.126980E+03	1.308983E-03	4.832995E-05
5.136935E+03	1.312209E-03	4.844541E-05
5.146890E+03	1.315263E-03	4.845498E-05
5.156846E+03	1.318188E-03	4.836114E-05
5.166801E+03	1.320961E-03	4.816418E-05
5.176756E+03	1.323594E-03	4.786588E-05
5.186712E+03	1.326025E-03	4.746571E-05
5.196667E+03	1.328241E-03	4.696510E-05
5.206622E+03	1.330192E-03	4.636470E-05
5.216578E+03	1.331802E-03	4.566469E-05
5.226533E+03	1.333050E-03	4.486774E-05
5.236488E+03	1.333877E-03	4.397582E-05
5.246443E+03	1.334238E-03	4.299215E-05
5.256399E+03	1.334101E-03	4.192118E-05
5.266354E+03	1.333393E-03	4.076696E-05
5.276309E+03	1.332076E-03	3.953578E-05
5.286265E+03	1.330107E-03	3.823502E-05
5.296220E+03	1.327385E-03	3.687187E-05
5.306175E+03	1.323890E-03	3.545754E-05
5.316131E+03	1.319532E-03	3.400336E-05
5.326086E+03	1.314271E-03	3.252422E-05
5.336041E+03	1.308061E-03	3.103751E-05
5.345996E+03	1.300841E-03	2.956325E-05
5.355952E+03	1.292620E-03	2.812629E-05
5.365907E+03	1.283396E-03	2.675458E-05
5.375862E+03	1.273154E-03	2.547912E-05
5.385818E+03	1.261958E-03	2.433528E-05
5.395773E+03	1.249813E-03	2.335867E-05
5.405728E+03	1.236770E-03	2.258498E-05
5.415684E+03	1.222882E-03	2.204579E-05
5.425639E+03	1.208203E-03	2.176460E-05
5.435594E+03	1.192787E-03	2.174606E-05
5.445549E+03	1.176691E-03	2.196439E-05
5.455505E+03	1.159996E-03	2.238330E-05
5.465460E+03	1.142743E-03	2.296215E-05
5.475415E+03	1.124973E-03	2.366046E-05
5.485371E+03	1.106617E-03	2.443832E-05
5.495326E+03	1.087658E-03	2.526087E-05
5.505281E+03	1.068022E-03	2.609644E-05
5.515237E+03	1.047703E-03	2.691924E-05
5.525192E+03	1.026719E-03	2.770828E-05
5.535147E+03	1.005094E-03	2.844640E-05
5.545102E+03	9.829355E-04	2.912200E-05
5.555058E+03	9.603797E-04	2.972763E-05
5.565013E+03	9.376024E-04	3.025993E-05
5.574968E+03	9.147965E-04	3.071882E-05
5.584924E+03	8.922201E-04	3.110897E-05
5.594879E+03	8.701215E-04	3.143719E-05
5.604834E+03	8.487770E-04	3.171352E-05
5.614790E+03	8.284459E-04	3.194940E-05
5.624745E+03	8.093966E-04	3.215837E-05
5.634700E+03	7.918687E-04	3.235436E-05
5.644655E+03	7.761010E-04	3.255244E-05
5.654611E+03	7.622979E-04	3.276723E-05
5.664566E+03	7.506665E-04	3.301410E-05
5.674521E+03	7.413616E-04	3.330659E-05
5.684477E+03	7.345440E-04	3.365864E-05
5.694432E+03	7.303189E-04	3.408162E-05
5.704387E+03	7.287945E-04	3.458673E-05
5.714343E+03	7.300280E-04	3.518232E-05
5.724298E+03	7.340619E-04	3.587534E-05
5.734253E+03	7.408935E-04	3.666976E-05
5.744209E+03	7.504953E-04	3.756737E-05
5.754164E+03	7.628108E-04	3.856751E-05
5.764119E+03	7.777259E-04	3.966548E-05
5.774074E+03	7.950896E-04	4.085356E-05
5.784030E+03	8.146802E-04	4.211920E-05
5.793985E+03	8.361937E-04	4.344449E-05
5.803940E+03	8.592595E-04	4.480694E-05
5.813896E+03	8.834132E-04	4.617827E-05
5.823851E+03	9.080984E-04	4.752470E-05
5.833806E+03	9.326987E-04	4.880892E-05
5.843762E+03	9.565699E-04	4.999216E-05
5.853717E+03	9.790101E-04	5.103310E-05
5.863672E+03	9.993491E-04	5.189298E-05
5.873627E+03	1.016971E-03	5.253720E-05
5.883583E+03	1.031315E-03	5.293572E-05
5.893538E+03	1.041937E-03	5.306656E-05
5.903493E+03	1.048483E-03	5.291441E-05
5.913449E+03	1.050775E-03	5.247523E-05
5.923404E+03	1.048755E-03	5.175292E-05
5.933359E+03	1.042533E-03	5.076141E-05
5.943315E+03	1.032358E-03	4.952284E-05
5.953270E+03	1.018636E-03	4.806775E-05
5.963225E+03	1.001872E-03	4.643125E-05
5.973180E+03	9.826733E-04	4.465284E-05
5.983136E+03	9.616724E-04	4.277181E-05
5.993091E+03	9.395478E-04	4.082785E-05
6.003046E+03	9.169456E-04	3.885697E-05
6.013002E+03	8.944811E-04	3.689137E-05
6.022957E+03	8.727031E-04	3.495779E-05
6.032912E+03	8.521082E-04	3.307820E-05
6.042868E+03	8.331032E-04	3.126840E-05
6.052823E+03	8.160230E-04	2.953909E-05
6.062778E+03	8.011451E-04	2.789664E-05
6.072733E+03	7.886790E-04	2.634311E-05
6.082689E+03	7.787929E-04	2.487754E-05
6.092644E+03	7.716168E-04	2.349632E-05
6.102599E+03	7.672385E-04	2.219346E-05
6.112555E+03	7.657541E-04	2.096236E-05
6.122510E+03	7.672455E-04	1.979536E-05
6.132465E+03	7.717811E-04	1.868404E-05
6.142421E+03	7.794594E-04	1.762057E-05
6.152376E+03	7.903802E-04	1.659732E-05
6.162331E+03	8.046449E-04	1.560734E-05
6.172286E+03	8.223848E-04	1.464561E-05
6.182242E+03	8.437152E-04	1.370925E-05
6.192197E+03	8.687422E-04	1.279929E-05
6.202152E+03	8.975466E-04	1.192303E-05
6.212108E+03	9.301711E-04	1.109750E-05
6.222063E+03	9.664880E-04	1.035291E-05
6.232018E+03	1.006110E-03	9.737615E-06
6.241974E+03	1.048513E-03	9.322171E-06
6.251929E+03	1.093064E-03	9.192037E-06
6.261884E+03	1.139029E-03	9.418359E-06
6.271839E+03	1.185571E-03	9.993789E-06
6.281795E+03	1.231841E-03	1.085288E-05
6.291750E+03	1.276978E-03	1.191018E-05
6.301705E+03	1.320217E-03	1.308108E-05
6.311661E+03	1.360852E-03	1.429083E-05
6.321616E+03	1.398324E-03	1.547754E-05
6.331571E+03	1.432226E-03	1.659150E-05
6.341527E+03	1.462325E-03	1.759418E-05
6.351482E+03	1.488496E-03	1.845643E-05
6.361437E+03	1.510814E-03	1.915878E-05
6.371392E+03	1.529433E-03	1.968933E-05
6.381348E+03	1.544613E-03	2.004372E-05
6.391303E+03	1.556686E-03	2.022419E-05
6.401258E+03	1.566002E-03	2.023863E-05
6.411214E+03	1.572937E-03	2.010056E-05
6.421169E+03	1.577858E-03	1.982876E-05
6.431124E+03	1.581102E-03	1.944745E-05
6.441080E+03	1.582975E-03	1.898695E-05
6.451035E+03	1.583735E-03	1.848442E-05
6.460990E+03	1.583627E-03	1.798543E-05
6.470945E+03	1.582863E-03	1.754429E-05
6.480901E+03	1.581715E-03	1.722448E-05
6.490856E+03	1.580441E-03	1.709493E-05
6.500811E+03	1.579283E-03	1.722395E-05
6.510767E+03	1.578429E-03	1.766962E-05
6.520722E+03	1.577791E-03	1.844597E-05
6.530677E+03	1.577321E-03	1.952016E-05
6.540633E+03	1.576909E-03	2.084738E-05
6.550588E+03	1.576452E-03	2.238109E-05
6.560543E+03	1.575810E-03	2.407714E-05
6.570498E+03	1.574786E-03	2.589527E-05
6.580454E+03	1.573150E-03	2.779963E-05
6.590409E+03	1.570613E-03	2.975744E-05
6.600364E+03	1.566871E-03	3.173856E-05
6.610320E+03	1.561583E-03	3.371410E-05
6.620275E+03	1.554427E-03	3.565675E-05
6.630230E+03	1.545084E-03	3.753976E-05
6.640186E+03	1.533344E-03	3.933950E-05
6.650141E+03	1.519037E-03	4.103378E-05
6.660096E+03	1.502127E-03	4.260475E-05
6.670051E+03	1.482686E-03	4.403879E-05
6.680007E+03	1.460837E-03	4.532537E-05
6.689962E+03	1.436874E-03	4.646117E-05
6.699917E+03	1.411076E-03	4.744489E-05
6.709873E+03	1.383822E-03	4.828088E-05
6.719828E+03	1.355519E-03	4.897726E-05
6.729783E+03	1.326555E-03	4.954413E-05
6.739739E+03	1.297339E-03	4.999473E-05
6.749694E+03	1.268287E-03	5.034501E-05
6.759649E+03	1.239802E-03	5.061271E-05
6.769604E+03	1.212229E-03	5.081503E-05
6.779560E+03	1.185936E-03	5.097192E-05
6.789515E+03	1.161268E-03	5.110379E-05
6.799470E+03	1.138516E-03	5.122996E-05
6.809426E+03	1.117955E-03	5.136999E-05
6.819381E+03	1.099846E-03	5.154339E-05
6.829336E+03	1.084389E-03	5.176741E-05
6.839292E+03	1.071792E-03	5.205991E-05
6.849247E+03	1.062170E-03	5.243423E-05
6.859202E+03	1.055685E-03	5.290575E-05
6.869157E+03	1.052410E-03	5.348512E-05
6.879113E+03	1.052371E-03	5.418001E-05
6.889068E+03	1.055567E-03	5.499593E-05
6.899023E+03	1.061922E-03	5.593364E-05
6.908979E+03	1.071312E-03	5.699015E-05
6.918934E+03	1.083501E-03	5.815554E-05
6.928889E+03	1.098227E-03	5.941712E-05
6.938845E+03	1.115147E-03	6.075657E-05
6.948800E+03	1.133859E-03	6.215109E-05
6.958755E+03	1.153905E-03	6.357384E-05
6.968710E+03	1.174776E-03	6.499398E-05
6.978666E+03	1.195984E-03	6.638116E-05
6.988621E+03	1.217000E-03	6.770225E-05
6.998576E+03	1.237326E-03	6.892553E-05
7.008532E+03	1.256554E-03	7.002436E-05
7.018487E+03	1.274353E-03	7.097665E-05
7.028442E+03	1.290509E-03	7.176719E-05
7.038398E+03	1.304938E-03	7.238874E-05
7.048353E+03	1.317678E-03	7.284134E-05
7.058308E+03	1.328913E-03	7.313368E-05
7.068263E+03	1.338962E-03	7.328212E-05
7.078219E+03	1.348219E-03	7.330734E-05
7.088174E+03	1.357113E-03	7.323161E-05
7.098129E+03	1.366180E-03	7.308242E-05
7.108085E+03	1.375915E-03	7.288425E-05
7.118040E+03	1.386812E-03	7.266036E-05
7.127995E+03	1.399320E-03	7.243042E-05
7.137951E+03	1.413822E-03	7.220903E-05
7.147906E+03	1.430605E-03	7.200460E-05
7.157861E+03	1.449826E-03	7.181753E-05
7.167817E+03	1.471525E-03	7.164156E-05
7.177772E+03	1.495613E-03	7.146343E-05
7.187727E+03	1.521817E-03	7.126108E-05
7.197682E+03	1.549648E-03	7.100322E-05
7.207638E+03	1.578492E-03	7.065467E-05
7.217593E+03	1.607533E-03	7.017401E-05
7.227548E+03	1.635781E-03	6.951645E-05
7.237504E+03	1.662075E-03	6.863530E-05
7.247459E+03	1.685162E-03	6.748686E-05
7.257414E+03	1.703753E-03	6.603370E-05
7.267370E+03	1.716503E-03	6.424488E-05
7.277325E+03	1.722231E-03	6.210464E-05
7.287280E+03	1.719923E-03	5.961198E-05
7.297235E+03	1.708805E-03	5.678221E-05
7.307191E+03	1.688552E-03	5.365218E-05
7.317146E+03	1.659171E-03	5.027326E-05
7.327101E+03	1.621147E-03	4.671300E-05
7.337057E+03	1.575351E-03	4.304878E-05
7.347012E+03	1.523027E-03	3.936413E-05
7.356967E+03	1.465590E-03	3.574061E-05
7.366923E+03	1.404594E-03	3.225560E-05
7.376878E+03	1.341631E-03	2.897903E-05
7.386833E+03	1.278152E-03	2.596940E-05
7.396788E+03	1.215468E-03	2.327484E-05
7.406744E+03	1.154699E-03	2.093287E-05
7.416699E+03	1.096750E-03	1.897017E-05
7.426654E+03	1.042296E-03	1.740155E-05
7.436610E+03	9.917851E-04	1.622815E-05
7.446565E+03	9.454933E-04	1.543558E-05
7.456520E+03	9.035272E-04	1.498143E-05
7.466476E+03	8.658754E-04	1.480475E-05
7.476431E+03	8.324013E-04	1.484575E-05
7.486386E+03	8.029266E-04	1.505257E-05
7.496341E+03	7.771853E-04	1.538251E-05
7.506297E+03	7.548936E-04	1.580283E-05
7.516252E+03	7.357275E-04	1.628856E-05
7.526207E+03	7.193525E-04	1.682083E-05
7.536163E+03	7.053934E-04	1.738407E-05
7.546118E+03	6.935086E-04	1.796608E-05
7.556073E+03	6.833315E-04	1.855535E-05
7.566029E+03	6.745290E-04	1.914168E-05
7.575984E+03	6.667857E-04	1.971533E-05
7.585939E+03	6.598826E-04	2.026915E-05
7.595894E+03	6.539185E-04	2.080592E-05
7.605850E+03	6.491093E-04	2.133322E-05
7.615805E+03	6.456230E-04	2.185824E-05
7.625760E+03	6.435991E-04	2.238787E-05
7.635716E+03	6.430918E-04	2.292636E-05
7.645671E+03	6.441272E-04	2.347684E-05
7.655626E+03	6.466581E-04	2.403941E-05
7.665582E+03	6.505821E-04	2.461148E-05
7.675537E+03	6.557735E-04	2.518886E-05
7.685492E+03	6.620579E-04	2.576468E-05
7.695447E+03	6.692529E-04	2.633100E-05
7.705403E+03	6.771403E-04	2.687773E-05
7.715358E+03	6.855101E-04	2.739457E-05
7.725313E+03	6.941436E-04	2.787041E-05
