#wls	flux	fluxerr
1.592848E+03	1.916737E-05	9.356071E-06
1.632669E+03	1.999508E-05	9.689861E-06
1.672491E+03	2.077244E-05	9.992412E-06
1.712312E+03	2.149584E-05	1.026239E-05
1.752133E+03	2.214334E-05	1.048986E-05
1.791954E+03	2.268841E-05	1.066305E-05
1.831775E+03	2.309256E-05	1.076506E-05
1.871597E+03	2.331515E-05	1.077863E-05
1.911418E+03	2.330385E-05	1.068183E-05
1.951239E+03	2.303813E-05	1.046806E-05
1.991060E+03	2.253060E-05	1.014610E-05
2.030881E+03	2.188118E-05	9.763550E-06
2.070703E+03	2.129601E-05	9.413394E-06
2.110524E+03	2.105896E-05	9.219202E-06
2.150345E+03	2.142349E-05	9.286446E-06
2.190166E+03	2.252099E-05	9.663636E-06
2.229987E+03	2.430967E-05	1.032318E-05
2.269809E+03	2.663213E-05	1.118937E-05
2.309630E+03	2.929872E-05	1.217571E-05
2.349451E+03	3.214281E-05	1.320844E-05
2.389272E+03	3.504946E-05	1.423782E-05
2.429093E+03	3.794685E-05	1.523354E-05
2.468915E+03	4.080998E-05	1.618519E-05
2.508736E+03	4.363074E-05	1.708951E-05
2.548557E+03	4.641304E-05	1.794802E-05
2.588378E+03	4.916644E-05	1.876437E-05
2.628199E+03	5.190262E-05	1.954281E-05
2.668021E+03	5.463355E-05	2.028747E-05
2.707842E+03	5.737923E-05	2.100515E-05
2.747663E+03	6.013322E-05	2.169272E-05
2.787484E+03	6.292268E-05	2.235912E-05
2.827305E+03	6.574774E-05	2.300322E-05
2.867127E+03	6.862646E-05	2.363006E-05
2.906948E+03	7.155721E-05	2.423759E-05
2.946769E+03	7.454739E-05	2.482678E-05
2.986590E+03	7.761512E-05	2.540193E-05
2.996546E+03	7.839001E-05	2.554193E-05
3.006501E+03	7.917928E-05	2.568402E-05
3.016456E+03	7.996102E-05	2.582102E-05
3.026411E+03	8.075899E-05	2.596061E-05
3.036367E+03	8.156767E-05	2.610095E-05
3.046322E+03	8.239281E-05	2.624379E-05
3.056277E+03	8.324439E-05	2.639222E-05
3.066233E+03	8.409813E-05	2.653846E-05
3.076188E+03	8.497580E-05	2.668932E-05
3.086143E+03	8.585301E-05	2.683706E-05
3.096099E+03	8.675209E-05	2.698862E-05
3.106054E+03	8.767234E-05	2.714367E-05
3.116009E+03	8.858910E-05	2.729451E-05
3.125964E+03	8.951342E-05	2.744452E-05
3.135920E+03	9.045680E-05	2.759718E-05
3.145875E+03	9.140653E-05	2.774853E-05
3.155830E+03	9.234966E-05	2.789461E-05
3.165786E+03	9.332288E-05	2.804647E-05
3.175741E+03	9.428855E-05	2.819271E-05
3.185696E+03	9.525866E-05	2.833691E-05
3.195652E+03	9.624568E-05	2.848273E-05
3.205607E+03	9.723674E-05	2.862630E-05
3.215562E+03	9.821867E-05	2.876373E-05
3.225517E+03	9.923013E-05	2.890632E-05
3.235473E+03	1.002322E-04	2.904261E-05
3.245428E+03	1.012376E-04	2.917635E-05
3.255383E+03	1.022597E-04	2.931131E-05
3.265339E+03	1.032720E-04	2.943984E-05
3.275294E+03	1.043011E-04	2.956956E-05
3.285249E+03	1.053339E-04	2.969662E-05
3.295205E+03	1.063841E-04	2.982488E-05
3.305160E+03	1.074245E-04	2.994665E-05
3.315115E+03	1.084688E-04	3.006578E-05
3.325070E+03	1.095313E-04	3.018615E-05
3.335026E+03	1.105983E-04	3.030392E-05
3.344981E+03	1.116700E-04	3.041913E-05
3.354936E+03	1.127467E-04	3.053180E-05
3.364892E+03	1.138287E-04	3.064196E-05
3.374847E+03	1.149306E-04	3.075353E-05
3.384802E+03	1.160384E-04	3.086266E-05
3.394758E+03	1.171379E-04	3.096555E-05
3.404713E+03	1.182585E-04	3.106996E-05
3.414668E+03	1.193861E-04	3.117207E-05
3.424623E+03	1.205359E-04	3.127580E-05
3.434579E+03	1.216785E-04	3.137346E-05
3.444534E+03	1.228442E-04	3.147282E-05
3.454489E+03	1.240033E-04	3.156618E-05
3.464445E+03	1.251864E-04	3.166135E-05
3.474400E+03	1.263789E-04	3.175449E-05
3.484355E+03	1.275811E-04	3.184563E-05
3.494311E+03	1.288091E-04	3.193870E-05
3.504266E+03	1.300322E-04	3.202599E-05
3.514221E+03	1.312820E-04	3.211528E-05
3.524176E+03	1.325434E-04	3.220273E-05
3.534132E+03	1.338169E-04	3.228838E-05
3.544087E+03	1.351028E-04	3.237226E-05
3.554042E+03	1.364017E-04	3.245440E-05
3.563998E+03	1.377139E-04	3.253483E-05
3.573953E+03	1.390562E-04	3.261742E-05
3.583908E+03	1.403965E-04	3.269450E-05
3.593864E+03	1.417681E-04	3.277378E-05
3.603819E+03	1.431550E-04	3.285143E-05
3.613774E+03	1.445577E-04	3.292746E-05
3.623729E+03	1.459766E-04	3.300188E-05
3.633685E+03	1.474122E-04	3.307470E-05
3.643640E+03	1.488649E-04	3.314593E-05
3.653595E+03	1.503525E-04	3.321939E-05
3.663551E+03	1.518583E-04	3.329124E-05
3.673506E+03	1.533653E-04	3.335768E-05
3.683461E+03	1.549089E-04	3.342632E-05
3.693417E+03	1.564722E-04	3.349334E-05
3.703372E+03	1.580555E-04	3.355871E-05
3.713327E+03	1.596593E-04	3.362242E-05
3.723282E+03	1.613022E-04	3.368824E-05
3.733238E+03	1.629486E-04	3.374857E-05
3.743193E+03	1.646352E-04	3.381093E-05
3.753148E+03	1.663259E-04	3.386775E-05
3.763104E+03	1.680580E-04	3.392653E-05
3.773059E+03	1.698135E-04	3.398347E-05
3.783014E+03	1.715930E-04	3.403851E-05
3.792970E+03	1.733968E-04	3.409161E-05
3.802925E+03	1.752254E-04	3.414271E-05
3.812880E+03	1.770791E-04	3.419176E-05
3.822835E+03	1.789585E-04	3.423871E-05
3.832791E+03	1.808836E-04	3.428722E-05
3.842746E+03	1.828158E-04	3.432980E-05
3.852701E+03	1.847946E-04	3.437376E-05
3.862657E+03	1.867812E-04	3.441168E-05
3.872612E+03	1.888155E-04	3.445080E-05
3.882567E+03	1.908783E-04	3.448740E-05
3.892523E+03	1.929495E-04	3.451772E-05
3.902478E+03	1.950702E-04	3.454901E-05
3.912433E+03	1.972204E-04	3.457749E-05
3.922388E+03	1.994005E-04	3.460308E-05
3.932344E+03	2.016111E-04	3.462570E-05
3.942299E+03	2.038523E-04	3.464523E-05
3.952254E+03	2.061245E-04	3.466154E-05
3.962210E+03	2.084280E-04	3.467457E-05
3.972165E+03	2.107632E-04	3.468417E-05
3.982120E+03	2.131523E-04	3.469382E-05
3.992076E+03	2.155519E-04	3.469623E-05
4.002031E+03	2.179840E-04	3.469488E-05
4.011986E+03	2.204489E-04	3.468961E-05
4.021941E+03	2.229696E-04	3.468387E-05
4.031897E+03	2.255009E-04	3.467040E-05
4.041852E+03	2.280659E-04	3.465265E-05
4.051807E+03	2.306877E-04	3.463396E-05
4.061763E+03	2.333202E-04	3.460716E-05
4.071718E+03	2.360105E-04	3.457914E-05
4.081673E+03	2.387115E-04	3.454277E-05
4.091629E+03	2.414466E-04	3.450137E-05
4.101584E+03	2.442403E-04	3.445824E-05
4.111539E+03	2.470441E-04	3.440632E-05
4.121494E+03	2.498824E-04	3.434893E-05
4.131450E+03	2.527800E-04	3.428929E-05
4.141405E+03	2.556870E-04	3.422045E-05
4.151360E+03	2.586284E-04	3.414566E-05
4.161316E+03	2.616036E-04	3.406472E-05
4.171271E+03	2.646386E-04	3.398082E-05
4.181226E+03	2.676818E-04	3.388714E-05
4.191182E+03	2.707587E-04	3.378687E-05
4.201137E+03	2.738686E-04	3.367980E-05
4.211092E+03	2.770113E-04	3.356578E-05
4.221047E+03	2.801868E-04	3.344468E-05
4.231003E+03	2.833942E-04	3.331630E-05
4.240958E+03	2.866332E-04	3.318049E-05
4.250913E+03	2.899035E-04	3.303713E-05
4.260869E+03	2.931765E-04	3.288290E-05
4.270824E+03	2.965070E-04	3.272395E-05
4.280779E+03	2.998668E-04	3.255697E-05
4.290735E+03	3.032267E-04	3.237880E-05
4.300690E+03	3.066138E-04	3.219238E-05
4.310645E+03	3.100562E-04	3.200058E-05
4.320601E+03	3.134953E-04	3.179727E-05
4.330556E+03	3.169591E-04	3.158540E-05
4.340511E+03	3.204462E-04	3.136481E-05
4.350466E+03	3.239556E-04	3.113545E-05
4.360422E+03	3.274861E-04	3.089722E-05
4.370377E+03	3.310365E-04	3.065008E-05
4.380332E+03	3.345747E-04	3.039118E-05
4.390288E+03	3.381605E-04	3.012609E-05
4.400243E+03	3.417310E-04	2.984927E-05
4.410198E+03	3.453150E-04	2.956349E-05
4.420154E+03	3.489427E-04	2.927144E-05
4.430109E+03	3.525493E-04	2.896780E-05
4.440064E+03	3.561325E-04	2.865276E-05
4.450019E+03	3.597542E-04	2.833162E-05
4.459975E+03	3.633809E-04	2.800187E-05
4.469930E+03	3.669776E-04	2.766119E-05
4.479885E+03	3.706077E-04	2.731475E-05
4.489841E+03	3.742033E-04	2.695785E-05
4.499796E+03	3.777952E-04	2.659323E-05
4.509751E+03	3.813809E-04	2.622118E-05
4.519707E+03	3.849240E-04	2.583973E-05
4.529662E+03	3.884903E-04	2.545391E-05
4.539617E+03	3.920090E-04	2.505959E-05
4.549572E+03	3.955113E-04	2.465955E-05
4.559528E+03	3.989954E-04	2.425435E-05
4.569483E+03	4.024580E-04	2.384455E-05
4.579438E+03	4.058972E-04	2.343086E-05
4.589394E+03	4.092742E-04	2.301198E-05
4.599349E+03	4.126576E-04	2.259278E-05
4.609304E+03	4.159735E-04	2.217019E-05
4.619260E+03	4.192542E-04	2.174716E-05
4.629215E+03	4.224613E-04	2.132292E-05
4.639170E+03	4.256643E-04	2.090233E-05
4.649125E+03	4.287874E-04	2.048298E-05
4.659081E+03	4.318643E-04	2.006807E-05
4.669036E+03	4.348927E-04	1.965904E-05
4.678991E+03	4.378694E-04	1.925742E-05
4.688947E+03	4.407922E-04	1.886487E-05
4.698902E+03	4.436206E-04	1.848156E-05
4.708857E+03	4.463893E-04	1.811097E-05
4.718813E+03	4.490960E-04	1.775504E-05
4.728768E+03	4.517380E-04	1.741576E-05
4.738723E+03	4.542750E-04	1.709375E-05
4.748678E+03	4.567810E-04	1.679402E-05
4.758634E+03	4.591774E-04	1.651581E-05
4.768589E+03	4.614613E-04	1.626124E-05
4.778544E+03	4.637084E-04	1.603508E-05
4.788500E+03	4.658397E-04	1.583651E-05
4.798455E+03	4.679309E-04	1.566989E-05
4.808410E+03	4.699034E-04	1.553413E-05
4.818366E+03	4.717553E-04	1.542992E-05
4.828321E+03	4.735638E-04	1.535907E-05
4.838276E+03	4.752495E-04	1.531781E-05
4.848231E+03	4.768512E-04	1.530597E-05
4.858187E+03	4.783683E-04	1.532183E-05
4.868142E+03	4.797608E-04	1.536222E-05
4.878097E+03	4.811070E-04	1.542760E-05
4.888053E+03	4.823283E-04	1.551329E-05
4.898008E+03	4.834636E-04	1.561831E-05
4.907963E+03	4.844735E-04	1.573913E-05
4.917919E+03	4.854367E-04	1.587604E-05
4.927874E+03	4.862749E-04	1.602429E-05
4.937829E+03	4.870278E-04	1.618301E-05
4.947784E+03	4.876557E-04	1.634884E-05
4.957740E+03	4.882387E-04	1.652248E-05
4.967695E+03	4.886980E-04	1.669944E-05
4.977650E+03	4.890736E-04	1.687934E-05
4.987606E+03	4.893661E-04	1.706059E-05
4.997561E+03	4.895373E-04	1.724037E-05
5.007516E+03	4.896269E-04	1.741871E-05
5.017472E+03	4.896360E-04	1.759440E-05
5.027427E+03	4.895656E-04	1.776637E-05
5.037382E+03	4.894166E-04	1.793366E-05
5.047337E+03	4.891508E-04	1.809394E-05
5.057293E+03	4.888085E-04	1.824790E-05
5.067248E+03	4.883520E-04	1.839341E-05
5.077203E+03	4.878606E-04	1.853286E-05
5.087159E+03	4.872575E-04	1.866282E-05
5.097114E+03	4.865826E-04	1.878437E-05
5.107069E+03	4.858377E-04	1.889721E-05
5.117025E+03	4.850237E-04	1.900112E-05
5.126980E+03	4.841040E-04	1.909442E-05
5.136935E+03	4.831182E-04	1.917851E-05
5.146890E+03	4.820678E-04	1.925336E-05
5.156846E+03	4.809161E-04	1.931748E-05
5.166801E+03	4.797410E-04	1.937398E-05
5.176756E+03	4.784678E-04	1.941996E-05
5.186712E+03	4.771361E-04	1.945711E-05
5.196667E+03	4.757097E-04	1.948411E-05
5.206622E+03	4.742657E-04	1.950433E-05
5.216578E+03	4.727302E-04	1.951497E-05
5.226533E+03	4.711427E-04	1.951794E-05
5.236488E+03	4.694676E-04	1.951206E-05
5.246443E+03	4.677804E-04	1.950081E-05
5.256399E+03	4.660092E-04	1.948157E-05
5.266354E+03	4.641922E-04	1.945632E-05
5.276309E+03	4.623312E-04	1.942557E-05
5.286265E+03	4.603918E-04	1.938830E-05
5.296220E+03	4.584117E-04	1.934655E-05
5.306175E+03	4.563925E-04	1.930086E-05
5.316131E+03	4.543359E-04	1.925179E-05
5.326086E+03	4.522432E-04	1.919989E-05
5.336041E+03	4.500814E-04	1.914424E-05
5.345996E+03	4.478872E-04	1.908693E-05
5.355952E+03	4.456621E-04	1.902851E-05
5.365907E+03	4.434078E-04	1.896955E-05
5.375862E+03	4.410916E-04	1.890915E-05
5.385818E+03	4.387836E-04	1.885080E-05
5.395773E+03	4.364172E-04	1.879210E-05
5.405728E+03	4.339947E-04	1.873362E-05
5.415684E+03	4.315848E-04	1.867873E-05
5.425639E+03	4.291224E-04	1.862503E-05
5.435594E+03	4.266424E-04	1.857393E-05
5.445549E+03	4.241482E-04	1.852511E-05
5.455505E+03	4.216426E-04	1.847814E-05
5.465460E+03	4.191293E-04	1.843269E-05
5.475415E+03	4.165792E-04	1.838695E-05
5.485371E+03	4.140281E-04	1.834199E-05
5.495326E+03	4.114796E-04	1.829746E-05
5.505281E+03	4.089362E-04	1.825302E-05
5.515237E+03	4.063705E-04	1.820694E-05
5.525192E+03	4.038476E-04	1.816171E-05
5.535147E+03	4.013084E-04	1.811422E-05
5.545102E+03	3.987870E-04	1.806561E-05
5.555058E+03	3.962561E-04	1.801423E-05
5.565013E+03	3.937792E-04	1.796260E-05
5.574968E+03	3.912985E-04	1.790772E-05
5.584924E+03	3.888468E-04	1.785076E-05
5.594879E+03	3.864270E-04	1.779156E-05
5.604834E+03	3.840414E-04	1.772991E-05
5.614790E+03	3.816925E-04	1.766567E-05
5.624745E+03	3.793538E-04	1.759736E-05
5.634700E+03	3.770566E-04	1.752619E-05
5.644655E+03	3.748036E-04	1.745207E-05
5.654611E+03	3.725966E-04	1.737489E-05
5.664566E+03	3.704380E-04	1.729459E-05
5.674521E+03	3.683015E-04	1.720976E-05
5.684477E+03	3.662456E-04	1.712299E-05
5.694432E+03	3.642163E-04	1.703163E-05
5.704387E+03	3.622433E-04	1.693692E-05
5.714343E+03	3.603289E-04	1.683888E-05
5.724298E+03	3.584472E-04	1.673619E-05
5.734253E+03	3.566548E-04	1.663140E-05
5.744209E+03	3.548990E-04	1.652198E-05
5.754164E+03	3.532088E-04	1.640920E-05
5.764119E+03	3.515857E-04	1.629306E-05
5.774074E+03	3.500315E-04	1.617359E-05
5.784030E+03	3.485477E-04	1.605080E-05
5.793985E+03	3.471092E-04	1.592351E-05
5.803940E+03	3.457710E-04	1.579417E-05
5.813896E+03	3.444813E-04	1.566039E-05
5.823851E+03	3.432683E-04	1.552342E-05
5.833806E+03	3.421334E-04	1.538329E-05
5.843762E+03	3.410780E-04	1.524003E-05
5.853717E+03	3.401038E-04	1.509368E-05
5.863672E+03	3.391862E-04	1.494314E-05
5.873627E+03	3.383786E-04	1.479074E-05
5.883583E+03	3.376308E-04	1.463424E-05
5.893538E+03	3.369698E-04	1.447482E-05
5.903493E+03	3.363977E-04	1.431253E-05
5.913449E+03	3.359154E-04	1.414741E-05
5.923404E+03	3.355247E-04	1.397950E-05
5.933359E+03	3.352018E-04	1.380780E-05
5.943315E+03	3.349990E-04	1.363448E-05
5.953270E+03	3.348673E-04	1.345751E-05
5.963225E+03	3.348334E-04	1.327798E-05
5.973180E+03	3.348995E-04	1.309599E-05
5.983136E+03	3.350668E-04	1.291158E-05
5.993091E+03	3.353375E-04	1.272486E-05
6.003046E+03	3.357134E-04	1.253591E-05
6.013002E+03	3.361960E-04	1.234483E-05
6.022957E+03	3.367620E-04	1.215082E-05
6.032912E+03	3.374647E-04	1.195590E-05
6.042868E+03	3.382547E-04	1.175838E-05
6.052823E+03	3.391596E-04	1.155938E-05
6.062778E+03	3.401820E-04	1.135911E-05
6.072733E+03	3.413240E-04	1.115782E-05
6.082689E+03	3.425881E-04	1.095580E-05
6.092644E+03	3.439766E-04	1.075339E-05
6.102599E+03	3.454920E-04	1.055096E-05
6.112555E+03	3.471107E-04	1.034819E-05
6.122510E+03	3.488884E-04	1.014718E-05
6.132465E+03	3.507743E-04	9.946964E-06
6.142421E+03	3.527982E-04	9.749019E-06
6.152376E+03	3.549905E-04	9.554871E-06
6.162331E+03	3.572995E-04	9.363923E-06
6.172286E+03	3.597559E-04	9.177958E-06
6.182242E+03	3.623630E-04	8.998137E-06
6.192197E+03	3.651238E-04	8.825759E-06
6.202152E+03	3.680140E-04	8.661636E-06
6.212108E+03	3.710934E-04	8.508736E-06
6.222063E+03	3.743377E-04	8.368172E-06
6.232018E+03	3.777207E-04	8.241238E-06
6.241974E+03	3.813025E-04	8.131273E-06
6.251929E+03	3.850255E-04	8.039157E-06
6.261884E+03	3.889488E-04	7.968349E-06
6.271839E+03	3.930106E-04	7.919808E-06
6.281795E+03	3.972372E-04	7.896040E-06
6.291750E+03	4.016231E-04	7.897225E-06
6.301705E+03	4.061621E-04	7.922752E-06
6.311661E+03	4.108483E-04	7.971827E-06
6.321616E+03	4.156748E-04	8.043500E-06
6.331571E+03	4.206351E-04	8.136703E-06
6.341527E+03	4.257215E-04	8.250276E-06
6.351482E+03	4.308935E-04	8.382387E-06
6.361437E+03	4.362091E-04	8.533121E-06
6.371392E+03	4.416272E-04	8.700676E-06
6.381348E+03	4.471041E-04	8.883263E-06
6.391303E+03	4.526997E-04	9.081235E-06
6.401258E+03	4.583347E-04	9.292297E-06
6.411214E+03	4.640334E-04	9.516356E-06
6.421169E+03	4.698222E-04	9.753529E-06
6.431124E+03	4.756179E-04	1.000183E-05
6.441080E+03	4.814447E-04	1.026163E-05
6.451035E+03	4.872912E-04	1.053273E-05
6.460990E+03	4.931456E-04	1.081508E-05
6.470945E+03	4.989951E-04	1.110874E-05
6.480901E+03	5.048272E-04	1.141393E-05
6.490856E+03	5.106289E-04	1.173098E-05
6.500811E+03	5.163866E-04	1.206032E-05
6.510767E+03	5.220880E-04	1.240252E-05
6.520722E+03	5.277221E-04	1.275826E-05
6.530677E+03	5.332777E-04	1.312829E-05
6.540633E+03	5.387037E-04	1.351242E-05
6.550588E+03	5.440746E-04	1.391360E-05
6.560543E+03	5.493415E-04	1.433176E-05
6.570498E+03	5.544549E-04	1.476671E-05
6.580454E+03	5.594970E-04	1.522156E-05
6.590409E+03	5.643773E-04	1.569348E-05
6.600364E+03	5.691813E-04	1.618376E-05
6.610320E+03	5.738181E-04	1.668873E-05
6.620275E+03	5.783755E-04	1.720973E-05
6.630230E+03	5.827609E-04	1.774281E-05
6.640186E+03	5.870181E-04	1.828800E-05
6.650141E+03	5.911921E-04	1.884546E-05
6.660096E+03	5.951889E-04	1.941098E-05
6.670051E+03	5.990537E-04	1.998469E-05
6.680007E+03	6.027859E-04	2.056532E-05
6.689962E+03	6.064323E-04	2.115326E-05
6.699917E+03	6.098974E-04	2.174399E-05
6.709873E+03	6.132284E-04	2.233794E-05
6.719828E+03	6.164250E-04	2.293390E-05
6.729783E+03	6.194877E-04	2.353074E-05
6.739739E+03	6.224161E-04	2.412734E-05
6.749694E+03	6.252106E-04	2.472259E-05
6.759649E+03	6.278722E-04	2.531549E-05
6.769604E+03	6.303512E-04	2.590295E-05
6.779560E+03	6.327477E-04	2.648804E-05
6.789515E+03	6.350134E-04	2.706784E-05
6.799470E+03	6.371491E-04	2.764143E-05
6.809426E+03	6.391553E-04	2.820792E-05
6.819381E+03	6.409833E-04	2.876424E-05
6.829336E+03	6.427353E-04	2.931408E-05
6.839292E+03	6.443618E-04	2.985442E-05
6.849247E+03	6.458137E-04	3.038217E-05
6.859202E+03	6.471941E-04	3.090136E-05
6.869157E+03	6.484026E-04	3.140650E-05
6.879113E+03	6.495433E-04	3.190189E-05
6.889068E+03	6.505151E-04	3.238191E-05
6.899023E+03	6.514229E-04	3.285109E-05
6.908979E+03	6.521650E-04	3.330371E-05
6.918934E+03	6.528471E-04	3.374454E-05
6.928889E+03	6.533673E-04	3.416777E-05
6.938845E+03	6.537794E-04	3.457559E-05
6.948800E+03	6.540854E-04	3.496760E-05
6.958755E+03	6.543391E-04	3.534621E-05
6.968710E+03	6.544388E-04	3.570548E-05
6.978666E+03	6.544384E-04	3.604785E-05
6.988621E+03	6.543402E-04	3.637302E-05
6.998576E+03	6.541460E-04	3.668070E-05
7.008532E+03	6.538579E-04	3.697062E-05
7.018487E+03	6.534781E-04	3.724257E-05
7.028442E+03	6.530091E-04	3.749636E-05
7.038398E+03	6.524524E-04	3.773176E-05
7.048353E+03	6.518103E-04	3.794863E-05
7.058308E+03	6.510851E-04	3.814682E-05
7.068263E+03	6.502790E-04	3.832624E-05
7.078219E+03	6.493412E-04	3.848363E-05
7.088174E+03	6.483793E-04	3.862517E-05
7.098129E+03	6.473423E-04	3.874765E-05
7.108085E+03	6.461808E-04	3.884794E-05
7.118040E+03	6.450007E-04	3.893225E-05
7.127995E+03	6.437522E-04	3.899747E-05
7.137951E+03	6.423850E-04	3.904042E-05
7.147906E+03	6.410054E-04	3.906747E-05
7.157861E+03	6.395120E-04	3.907236E-05
7.167817E+03	6.379580E-04	3.905827E-05
7.177772E+03	6.363976E-04	3.902847E-05
7.187727E+03	6.347291E-04	3.897672E-05
7.197682E+03	6.330060E-04	3.890626E-05
7.207638E+03	6.312311E-04	3.881726E-05
7.217593E+03	6.294058E-04	3.870984E-05
7.227548E+03	6.275316E-04	3.858410E-05
7.237504E+03	6.256109E-04	3.844025E-05
7.247459E+03	6.236455E-04	3.827843E-05
7.257414E+03	6.216374E-04	3.809884E-05
7.267370E+03	6.195880E-04	3.790164E-05
7.277325E+03	6.174992E-04	3.768705E-05
7.287280E+03	6.153223E-04	3.745220E-05
7.297235E+03	6.131600E-04	3.720345E-05
7.307191E+03	6.109636E-04	3.693796E-05
7.317146E+03	6.086848E-04	3.665297E-05
7.327101E+03	6.064249E-04	3.635471E-05
7.337057E+03	6.040864E-04	3.603751E-05
7.347012E+03	6.017201E-04	3.570457E-05
7.356967E+03	5.993772E-04	3.535910E-05
7.366923E+03	5.969603E-04	3.499553E-05
7.376878E+03	5.945205E-04	3.461709E-05
7.386833E+03	5.920586E-04	3.422403E-05
7.396788E+03	5.895770E-04	3.381671E-05
7.406744E+03	5.870761E-04	3.339538E-05
7.416699E+03	5.845576E-04	3.296038E-05
7.426654E+03	5.819743E-04	3.250932E-05
7.436610E+03	5.794246E-04	3.204799E-05
7.446565E+03	5.768603E-04	3.157394E-05
7.456520E+03	5.742358E-04	3.108500E-05
7.466476E+03	5.716468E-04	3.058666E-05
7.476431E+03	5.689997E-04	3.007422E-05
7.486386E+03	5.663430E-04	2.955062E-05
7.496341E+03	5.637248E-04	2.901869E-05
7.506297E+03	5.610514E-04	2.847393E-05
7.516252E+03	5.583712E-04	2.791926E-05
7.526207E+03	5.556850E-04	2.735512E-05
7.536163E+03	5.529931E-04	2.678196E-05
7.546118E+03	5.502965E-04	2.620028E-05
7.556073E+03	5.475499E-04	2.560845E-05
7.566029E+03	5.448460E-04	2.501136E-05
7.575984E+03	5.420937E-04	2.440536E-05
7.585939E+03	5.393843E-04	2.379520E-05
7.595894E+03	5.366284E-04	2.317754E-05
7.605850E+03	5.339157E-04	2.255702E-05
7.615805E+03	5.311576E-04	2.193061E-05
7.625760E+03	5.283987E-04	2.130110E-05
7.635716E+03	5.256399E-04	2.066945E-05
7.645671E+03	5.228815E-04	2.003671E-05
7.655626E+03	5.201234E-04	1.940403E-05
7.665582E+03	5.173221E-04	1.877110E-05
7.675537E+03	5.145654E-04	1.814258E-05
7.685492E+03	5.118099E-04	1.751847E-05
7.695447E+03	5.090124E-04	1.689916E-05
7.705403E+03	5.062162E-04	1.628821E-05
7.715358E+03	5.034648E-04	1.568932E-05
7.725313E+03	5.006721E-04	1.510239E-05
