#wls	flux	fluxerr
1.592848E+03	1.051209E-16	4.281181E-18
1.632669E+03	1.096805E-16	4.439887E-18
1.672491E+03	1.139807E-16	4.585277E-18
1.712312E+03	1.179546E-16	4.714780E-18
1.752133E+03	1.215187E-16	4.825260E-18
1.791954E+03	1.244883E-16	4.909682E-18
1.831775E+03	1.265742E-16	4.957139E-18
1.871597E+03	1.274949E-16	4.957359E-18
1.911418E+03	1.269388E-16	4.899273E-18
1.951239E+03	1.247082E-16	4.776580E-18
1.991060E+03	1.209110E-16	4.594887E-18
2.030881E+03	1.162298E-16	4.381400E-18
2.070703E+03	1.120313E-16	4.188097E-18
2.110524E+03	1.101489E-16	4.082556E-18
2.150345E+03	1.123148E-16	4.126223E-18
2.190166E+03	1.194886E-16	4.350017E-18
2.229987E+03	1.316455E-16	4.747896E-18
2.269809E+03	1.479797E-16	5.285741E-18
2.309630E+03	1.673388E-16	5.918108E-18
2.349451E+03	1.886434E-16	6.603583E-18
2.389272E+03	2.111016E-16	7.312176E-18
2.429093E+03	2.342469E-16	8.026141E-18
2.468915E+03	2.579156E-16	8.738648E-18
2.508736E+03	2.821073E-16	9.448566E-18
2.548557E+03	3.069681E-16	1.015957E-17
2.588378E+03	3.326865E-16	1.087649E-17
2.628199E+03	3.595133E-16	1.160580E-17
2.668021E+03	3.877090E-16	1.235384E-17
2.707842E+03	4.175656E-16	1.312744E-17
2.747663E+03	4.494080E-16	1.393389E-17
2.787484E+03	4.835872E-16	1.478065E-17
2.827305E+03	5.205018E-16	1.567588E-17
2.867127E+03	5.606416E-16	1.662964E-17
2.906948E+03	6.045433E-16	1.765235E-17
2.946769E+03	6.529169E-16	1.875826E-17
2.986590E+03	7.065456E-16	1.996222E-17
2.996546E+03	7.209031E-16	2.028115E-17
3.006501E+03	7.356550E-16	2.060736E-17
3.016456E+03	7.508164E-16	2.094111E-17
3.026411E+03	7.664521E-16	2.128401E-17
3.036367E+03	7.826205E-16	2.163750E-17
3.046322E+03	7.993952E-16	2.200339E-17
3.056277E+03	8.168363E-16	2.238307E-17
3.066233E+03	8.349313E-16	2.277595E-17
3.076188E+03	8.536866E-16	2.318194E-17
3.086143E+03	8.731469E-16	2.360197E-17
3.096099E+03	8.932862E-16	2.403506E-17
3.106054E+03	9.141341E-16	2.448172E-17
3.116009E+03	9.356847E-16	2.494152E-17
3.125964E+03	9.580091E-16	2.541604E-17
3.135920E+03	9.810659E-16	2.590387E-17
3.145875E+03	1.004891E-15	2.640565E-17
3.155830E+03	1.029520E-15	2.692202E-17
3.165786E+03	1.054973E-15	2.745314E-17
3.175741E+03	1.081230E-15	2.799813E-17
3.185696E+03	1.108368E-15	2.855869E-17
3.195652E+03	1.136367E-15	2.913392E-17
3.205607E+03	1.165267E-15	2.972446E-17
3.215562E+03	1.195065E-15	3.032988E-17
3.225517E+03	1.225800E-15	3.095075E-17
3.235473E+03	1.257486E-15	3.158706E-17
3.245428E+03	1.290136E-15	3.223873E-17
3.255383E+03	1.323739E-15	3.290505E-17
3.265339E+03	1.358320E-15	3.358628E-17
3.275294E+03	1.393880E-15	3.428197E-17
3.285249E+03	1.430389E-15	3.499100E-17
3.295205E+03	1.467855E-15	3.571313E-17
3.305160E+03	1.506228E-15	3.644678E-17
3.315115E+03	1.545496E-15	3.719124E-17
3.325070E+03	1.585584E-15	3.794430E-17
3.335026E+03	1.626423E-15	3.870401E-17
3.344981E+03	1.667928E-15	3.946799E-17
3.354936E+03	1.709990E-15	4.023335E-17
3.364892E+03	1.752472E-15	4.099670E-17
3.374847E+03	1.795186E-15	4.175341E-17
3.384802E+03	1.837959E-15	4.249936E-17
3.394758E+03	1.880501E-15	4.322787E-17
3.404713E+03	1.922590E-15	4.393388E-17
3.414668E+03	1.963859E-15	4.460926E-17
3.424623E+03	2.003959E-15	4.524638E-17
3.434579E+03	2.042504E-15	4.583711E-17
3.444534E+03	2.079054E-15	4.637220E-17
3.454489E+03	2.113204E-15	4.684351E-17
3.464445E+03	2.144478E-15	4.724152E-17
3.474400E+03	2.172397E-15	4.755692E-17
3.484355E+03	2.196522E-15	4.778154E-17
3.494311E+03	2.216403E-15	4.790723E-17
3.504266E+03	2.231672E-15	4.792786E-17
3.514221E+03	2.241895E-15	4.783607E-17
3.524176E+03	2.246794E-15	4.762813E-17
3.534132E+03	2.246098E-15	4.730050E-17
3.544087E+03	2.239637E-15	4.685204E-17
3.554042E+03	2.227273E-15	4.628231E-17
3.563998E+03	2.209004E-15	4.559374E-17
3.573953E+03	2.185025E-15	4.479285E-17
3.583908E+03	2.155617E-15	4.388780E-17
3.593864E+03	2.121435E-15	4.289415E-17
3.603819E+03	2.083284E-15	4.183011E-17
3.613774E+03	2.042038E-15	4.071481E-17
3.623729E+03	1.998644E-15	3.956833E-17
3.633685E+03	1.954105E-15	3.841132E-17
3.643640E+03	1.909380E-15	3.726301E-17
3.653595E+03	1.865481E-15	3.614313E-17
3.663551E+03	1.823332E-15	3.506910E-17
3.673506E+03	1.783886E-15	3.405842E-17
3.683461E+03	1.748031E-15	3.312677E-17
3.693417E+03	1.716629E-15	3.228889E-17
3.703372E+03	1.690455E-15	3.155737E-17
3.713327E+03	1.670254E-15	3.094382E-17
3.723282E+03	1.656699E-15	3.045807E-17
3.733238E+03	1.650432E-15	3.010904E-17
3.743193E+03	1.652039E-15	2.990427E-17
3.753148E+03	1.662086E-15	2.985058E-17
3.763104E+03	1.681101E-15	2.995380E-17
3.773059E+03	1.709583E-15	3.021896E-17
3.783014E+03	1.748027E-15	3.065075E-17
3.792970E+03	1.796795E-15	3.125122E-17
3.802925E+03	1.856232E-15	3.202198E-17
3.812880E+03	1.926538E-15	3.296193E-17
3.822835E+03	2.007682E-15	3.406597E-17
3.832791E+03	2.099434E-15	3.532566E-17
3.842746E+03	2.201256E-15	3.672758E-17
3.852701E+03	2.312211E-15	3.825201E-17
3.862657E+03	2.430920E-15	3.987253E-17
3.872612E+03	2.555478E-15	4.155494E-17
3.882567E+03	2.683517E-15	4.325870E-17
3.892523E+03	2.812192E-15	4.493697E-17
3.902478E+03	2.938285E-15	4.653862E-17
3.912433E+03	3.058351E-15	4.801078E-17
3.922388E+03	3.168927E-15	4.930227E-17
3.932344E+03	3.266805E-15	5.036773E-17
3.942299E+03	3.349177E-15	5.116972E-17
3.952254E+03	3.413841E-15	5.168154E-17
3.962210E+03	3.459495E-15	5.189122E-17
3.972165E+03	3.485625E-15	5.179915E-17
3.982120E+03	3.492654E-15	5.141982E-17
3.992076E+03	3.481811E-15	5.077915E-17
4.002031E+03	3.454987E-15	4.991196E-17
4.011986E+03	3.414676E-15	4.886060E-17
4.021941E+03	3.363603E-15	4.766927E-17
4.031897E+03	3.304689E-15	4.638341E-17
4.041852E+03	3.240781E-15	4.504581E-17
4.051807E+03	3.174527E-15	4.369496E-17
4.061763E+03	3.108293E-15	4.236404E-17
4.071718E+03	3.044113E-15	4.108047E-17
4.081673E+03	2.983552E-15	3.986434E-17
4.091629E+03	2.927812E-15	3.873004E-17
4.101584E+03	2.877766E-15	3.768709E-17
4.111539E+03	2.833814E-15	3.673841E-17
4.121494E+03	2.796121E-15	3.588372E-17
4.131450E+03	2.764566E-15	3.511902E-17
4.141405E+03	2.738786E-15	3.443739E-17
4.151360E+03	2.718237E-15	3.382986E-17
4.161316E+03	2.702244E-15	3.328614E-17
4.171271E+03	2.690025E-15	3.279504E-17
4.181226E+03	2.680734E-15	3.234496E-17
4.191182E+03	2.673520E-15	3.192475E-17
4.201137E+03	2.667610E-15	3.152458E-17
4.211092E+03	2.662238E-15	3.113511E-17
4.221047E+03	2.656713E-15	3.074822E-17
4.231003E+03	2.650485E-15	3.035780E-17
4.240958E+03	2.643052E-15	2.995849E-17
4.250913E+03	2.633963E-15	2.954578E-17
4.260869E+03	2.623039E-15	2.911833E-17
4.270824E+03	2.610188E-15	2.867587E-17
4.280779E+03	2.595426E-15	2.821931E-17
4.290735E+03	2.578953E-15	2.775151E-17
4.300690E+03	2.561025E-15	2.727583E-17
4.310645E+03	2.541978E-15	2.679635E-17
4.320601E+03	2.522077E-15	2.631620E-17
4.330556E+03	2.501626E-15	2.583874E-17
4.340511E+03	2.480739E-15	2.536518E-17
4.350466E+03	2.459394E-15	2.489533E-17
4.360422E+03	2.437665E-15	2.442994E-17
4.370377E+03	2.415970E-15	2.397320E-17
4.380332E+03	2.395486E-15	2.353652E-17
4.390288E+03	2.378293E-15	2.313969E-17
4.400243E+03	2.366633E-15	2.280328E-17
4.410198E+03	2.362483E-15	2.254453E-17
4.420154E+03	2.367526E-15	2.237724E-17
4.430109E+03	2.383022E-15	2.231073E-17
4.440064E+03	2.409751E-15	2.234950E-17
4.450019E+03	2.448037E-15	2.249371E-17
4.459975E+03	2.497674E-15	2.273870E-17
4.469930E+03	2.558042E-15	2.307623E-17
4.479885E+03	2.627967E-15	2.349344E-17
4.489841E+03	2.705771E-15	2.397351E-17
4.499796E+03	2.789477E-15	2.449757E-17
4.509751E+03	2.876677E-15	2.504372E-17
4.519707E+03	2.964622E-15	2.558787E-17
4.529662E+03	3.050482E-15	2.610611E-17
4.539617E+03	3.131279E-15	2.657408E-17
4.549572E+03	3.204016E-15	2.696805E-17
4.559528E+03	3.266047E-15	2.726805E-17
4.569483E+03	3.314821E-15	2.745545E-17
4.579438E+03	3.348134E-15	2.751508E-17
4.589394E+03	3.364473E-15	2.743782E-17
4.599349E+03	3.362744E-15	2.721811E-17
4.609304E+03	3.342293E-15	2.685407E-17
4.619260E+03	3.303571E-15	2.635256E-17
4.629215E+03	3.247366E-15	2.572281E-17
4.639170E+03	3.175240E-15	2.497978E-17
4.649125E+03	3.089525E-15	2.414394E-17
4.659081E+03	2.992940E-15	2.323809E-17
4.669036E+03	2.888430E-15	2.228613E-17
4.678991E+03	2.779301E-15	2.131400E-17
4.688947E+03	2.668750E-15	2.034617E-17
4.698902E+03	2.559420E-15	1.940225E-17
4.708857E+03	2.453455E-15	1.849749E-17
4.718813E+03	2.352393E-15	1.764222E-17
4.728768E+03	2.256847E-15	1.683970E-17
4.738723E+03	2.166610E-15	1.608709E-17
4.748678E+03	2.081002E-15	1.537819E-17
4.758634E+03	1.999307E-15	1.470669E-17
4.768589E+03	1.921319E-15	1.407018E-17
4.778544E+03	1.849305E-15	1.348438E-17
4.788500E+03	1.785827E-15	1.296689E-17
4.798455E+03	1.732469E-15	1.252807E-17
4.808410E+03	1.690120E-15	1.217308E-17
4.818366E+03	1.659138E-15	1.190332E-17
4.828321E+03	1.639063E-15	1.171430E-17
4.838276E+03	1.628934E-15	1.159812E-17
4.848231E+03	1.627595E-15	1.154562E-17
4.858187E+03	1.633758E-15	1.154688E-17
4.868142E+03	1.645934E-15	1.159069E-17
4.878097E+03	1.662552E-15	1.166547E-17
4.888053E+03	1.681999E-15	1.175948E-17
4.898008E+03	1.702709E-15	1.186151E-17
4.907963E+03	1.723242E-15	1.196135E-17
4.917919E+03	1.742533E-15	1.205156E-17
4.927874E+03	1.759855E-15	1.212710E-17
4.937829E+03	1.774779E-15	1.218510E-17
4.947784E+03	1.787415E-15	1.222638E-17
4.957740E+03	1.798141E-15	1.225360E-17
4.967695E+03	1.807555E-15	1.227089E-17
4.977650E+03	1.816463E-15	1.228372E-17
4.987606E+03	1.825778E-15	1.229820E-17
4.997561E+03	1.836275E-15	1.231945E-17
5.007516E+03	1.848677E-15	1.235212E-17
5.017472E+03	1.863561E-15	1.239985E-17
5.027427E+03	1.881271E-15	1.246464E-17
5.037382E+03	1.901987E-15	1.254741E-17
5.047337E+03	1.925707E-15	1.264782E-17
5.057293E+03	1.952284E-15	1.276460E-17
5.067248E+03	1.981469E-15	1.289584E-17
5.077203E+03	2.012961E-15	1.303930E-17
5.087159E+03	2.046456E-15	1.319279E-17
5.097114E+03	2.081651E-15	1.335413E-17
5.107069E+03	2.118364E-15	1.352200E-17
5.117025E+03	2.156365E-15	1.369476E-17
5.126980E+03	2.195651E-15	1.387228E-17
5.136935E+03	2.236218E-15	1.405441E-17
5.146890E+03	2.278114E-15	1.424135E-17
5.156846E+03	2.321438E-15	1.443361E-17
5.166801E+03	2.366246E-15	1.463143E-17
5.176756E+03	2.412533E-15	1.483471E-17
5.186712E+03	2.460136E-15	1.504237E-17
5.196667E+03	2.508824E-15	1.525298E-17
5.206622E+03	2.558066E-15	1.546332E-17
5.216578E+03	2.607209E-15	1.566956E-17
5.226533E+03	2.655417E-15	1.586688E-17
5.236488E+03	2.701754E-15	1.605001E-17
5.246443E+03	2.745163E-15	1.621309E-17
5.256399E+03	2.784670E-15	1.635096E-17
5.266354E+03	2.819333E-15	1.645876E-17
5.276309E+03	2.848372E-15	1.653273E-17
5.286265E+03	2.871144E-15	1.657001E-17
5.296220E+03	2.887236E-15	1.656913E-17
5.306175E+03	2.896330E-15	1.652925E-17
5.316131E+03	2.898337E-15	1.645079E-17
5.326086E+03	2.893300E-15	1.633497E-17
5.336041E+03	2.881470E-15	1.618410E-17
5.345996E+03	2.863117E-15	1.600053E-17
5.355952E+03	2.838763E-15	1.578797E-17
5.365907E+03	2.809020E-15	1.555048E-17
5.375862E+03	2.774612E-15	1.529264E-17
5.385818E+03	2.736324E-15	1.501924E-17
5.395773E+03	2.695132E-15	1.473601E-17
5.405728E+03	2.652122E-15	1.444910E-17
5.415684E+03	2.608439E-15	1.416489E-17
5.425639E+03	2.565571E-15	1.389148E-17
5.435594E+03	2.525006E-15	1.363686E-17
5.445549E+03	2.488451E-15	1.341005E-17
5.455505E+03	2.458126E-15	1.322242E-17
5.465460E+03	2.435625E-15	1.308188E-17
5.475415E+03	2.421054E-15	1.298840E-17
5.485371E+03	2.412109E-15	1.292911E-17
5.495326E+03	2.405704E-15	1.288705E-17
5.505281E+03	2.398545E-15	1.284422E-17
5.515237E+03	2.388270E-15	1.278763E-17
5.525192E+03	2.373062E-15	1.270724E-17
5.535147E+03	2.351705E-15	1.259617E-17
5.545102E+03	2.323651E-15	1.245110E-17
5.555058E+03	2.288977E-15	1.227204E-17
5.565013E+03	2.248226E-15	1.206150E-17
5.574968E+03	2.202483E-15	1.182492E-17
5.584924E+03	2.153098E-15	1.156915E-17
5.594879E+03	2.101677E-15	1.130251E-17
5.604834E+03	2.049973E-15	1.103414E-17
5.614790E+03	1.999740E-15	1.077324E-17
5.624745E+03	1.952669E-15	1.052876E-17
5.634700E+03	1.910262E-15	1.030868E-17
5.644655E+03	1.873894E-15	1.012031E-17
5.654611E+03	1.844700E-15	9.969757E-18
5.664566E+03	1.823515E-15	9.861475E-18
5.674521E+03	1.810956E-15	9.798777E-18
5.684477E+03	1.807416E-15	9.783744E-18
5.694432E+03	1.813042E-15	9.817113E-18
5.704387E+03	1.827692E-15	9.898036E-18
5.714343E+03	1.851106E-15	1.002498E-17
5.724298E+03	1.882722E-15	1.019473E-17
5.734253E+03	1.921733E-15	1.040273E-17
5.744209E+03	1.967168E-15	1.064350E-17
5.754164E+03	2.017835E-15	1.091032E-17
5.764119E+03	2.072284E-15	1.119509E-17
5.774074E+03	2.128897E-15	1.148877E-17
5.784030E+03	2.185947E-15	1.178179E-17
5.793985E+03	2.241521E-15	1.206363E-17
5.803940E+03	2.293793E-15	1.232426E-17
5.813896E+03	2.341055E-15	1.255443E-17
5.823851E+03	2.381828E-15	1.274621E-17
5.833806E+03	2.414991E-15	1.289368E-17
5.843762E+03	2.439773E-15	1.299293E-17
5.853717E+03	2.455942E-15	1.304299E-17
5.863672E+03	2.463572E-15	1.304464E-17
5.873627E+03	2.463113E-15	1.300067E-17
5.883583E+03	2.455293E-15	1.291539E-17
5.893538E+03	2.441019E-15	1.279405E-17
5.903493E+03	2.421284E-15	1.264235E-17
5.913449E+03	2.397037E-15	1.246570E-17
5.923404E+03	2.369250E-15	1.226961E-17
5.933359E+03	2.338807E-15	1.205907E-17
5.943315E+03	2.306472E-15	1.183841E-17
5.953270E+03	2.272851E-15	1.161107E-17
5.963225E+03	2.238505E-15	1.138025E-17
5.973180E+03	2.203748E-15	1.114782E-17
5.983136E+03	2.168929E-15	1.091583E-17
5.993091E+03	2.134096E-15	1.068476E-17
6.003046E+03	2.099249E-15	1.045487E-17
6.013002E+03	2.064292E-15	1.022593E-17
6.022957E+03	2.028954E-15	9.996873E-18
6.032912E+03	1.992933E-15	9.766473E-18
6.042868E+03	1.955905E-15	9.533457E-18
6.052823E+03	1.917761E-15	9.297607E-18
6.062778E+03	1.878422E-15	9.058858E-18
6.072733E+03	1.838179E-15	8.818903E-18
6.082689E+03	1.797624E-15	8.580834E-18
6.092644E+03	1.757600E-15	8.348865E-18
6.102599E+03	1.719203E-15	8.128301E-18
6.112555E+03	1.683824E-15	7.925733E-18
6.122510E+03	1.652852E-15	7.747632E-18
6.132465E+03	1.627543E-15	7.599752E-18
6.142421E+03	1.608928E-15	7.486739E-18
6.152376E+03	1.597601E-15	7.411201E-18
6.162331E+03	1.593586E-15	7.373108E-18
6.172286E+03	1.596027E-15	7.368298E-18
6.182242E+03	1.603344E-15	7.389368E-18
6.192197E+03	1.613051E-15	7.424856E-18
6.202152E+03	1.621722E-15	7.459083E-18
6.212108E+03	1.626091E-15	7.477157E-18
6.222063E+03	1.625296E-15	7.475201E-18
6.232018E+03	1.621384E-15	7.462666E-18
6.241974E+03	1.616961E-15	7.451549E-18
6.251929E+03	1.614608E-15	7.453766E-18
6.261884E+03	1.615675E-15	7.475648E-18
6.271839E+03	1.620834E-15	7.520458E-18
6.281795E+03	1.630370E-15	7.589765E-18
6.291750E+03	1.643985E-15	7.682475E-18
6.301705E+03	1.660911E-15	7.795344E-18
6.311661E+03	1.680167E-15	7.924100E-18
6.321616E+03	1.700627E-15	8.063730E-18
6.331571E+03	1.720986E-15	8.208286E-18
6.341527E+03	1.740000E-15	8.351947E-18
6.351482E+03	1.756561E-15	8.489402E-18
6.361437E+03	1.769696E-15	8.615750E-18
6.371392E+03	1.778666E-15	8.726870E-18
6.381348E+03	1.783277E-15	8.821093E-18
6.391303E+03	1.783541E-15	8.897686E-18
6.401258E+03	1.779788E-15	8.957454E-18
6.411214E+03	1.772664E-15	9.002829E-18
6.421169E+03	1.762989E-15	9.037221E-18
6.431124E+03	1.751664E-15	9.064602E-18
6.441080E+03	1.739582E-15	9.089062E-18
6.451035E+03	1.727645E-15	9.114938E-18
6.460990E+03	1.716593E-15	9.145882E-18
6.470945E+03	1.707085E-15	9.185303E-18
6.480901E+03	1.699632E-15	9.235952E-18
6.490856E+03	1.694655E-15	9.300214E-18
6.500811E+03	1.692488E-15	9.380107E-18
6.510767E+03	1.693269E-15	9.476642E-18
6.520722E+03	1.696941E-15	9.589769E-18
6.530677E+03	1.703324E-15	9.718723E-18
6.540633E+03	1.712198E-15	9.862495E-18
6.550588E+03	1.723217E-15	1.001928E-17
6.560543E+03	1.735946E-15	1.018668E-17
6.570498E+03	1.749912E-15	1.036200E-17
6.580454E+03	1.764560E-15	1.054192E-17
6.590409E+03	1.779234E-15	1.072241E-17
6.600364E+03	1.793320E-15	1.089958E-17
6.610320E+03	1.806168E-15	1.106916E-17
6.620275E+03	1.817239E-15	1.122746E-17
6.630230E+03	1.825941E-15	1.137037E-17
6.640186E+03	1.831831E-15	1.149461E-17
6.650141E+03	1.834595E-15	1.159766E-17
6.660096E+03	1.834002E-15	1.167748E-17
6.670051E+03	1.829921E-15	1.173267E-17
6.680007E+03	1.822359E-15	1.176272E-17
6.689962E+03	1.811479E-15	1.176818E-17
6.699917E+03	1.797493E-15	1.174998E-17
6.709873E+03	1.780745E-15	1.170997E-17
6.719828E+03	1.761563E-15	1.165000E-17
6.729783E+03	1.740456E-15	1.157319E-17
6.739739E+03	1.717821E-15	1.148202E-17
6.749694E+03	1.694199E-15	1.138000E-17
6.759649E+03	1.670008E-15	1.126992E-17
6.769604E+03	1.645725E-15	1.115504E-17
6.779560E+03	1.621783E-15	1.103834E-17
6.789515E+03	1.598573E-15	1.092263E-17
6.799470E+03	1.576506E-15	1.081086E-17
6.809426E+03	1.555911E-15	1.070545E-17
6.819381E+03	1.537137E-15	1.060900E-17
6.829336E+03	1.520388E-15	1.052310E-17
6.839292E+03	1.505938E-15	1.044985E-17
6.849247E+03	1.493928E-15	1.039042E-17
6.859202E+03	1.484477E-15	1.034578E-17
6.869157E+03	1.477622E-15	1.031635E-17
6.879113E+03	1.473429E-15	1.030273E-17
6.889068E+03	1.471759E-15	1.030403E-17
6.899023E+03	1.472578E-15	1.032011E-17
6.908979E+03	1.475665E-15	1.034944E-17
6.918934E+03	1.480796E-15	1.039049E-17
6.928889E+03	1.487734E-15	1.044159E-17
6.938845E+03	1.496148E-15	1.050039E-17
6.948800E+03	1.505692E-15	1.056445E-17
6.958755E+03	1.515996E-15	1.063112E-17
6.968710E+03	1.526669E-15	1.069761E-17
6.978666E+03	1.537304E-15	1.076104E-17
6.988621E+03	1.547461E-15	1.081830E-17
6.998576E+03	1.556805E-15	1.086705E-17
7.008532E+03	1.564862E-15	1.090399E-17
7.018487E+03	1.571377E-15	1.092739E-17
7.028442E+03	1.575954E-15	1.093458E-17
7.038398E+03	1.578399E-15	1.092431E-17
7.048353E+03	1.578489E-15	1.089520E-17
7.058308E+03	1.576119E-15	1.084671E-17
7.068263E+03	1.571303E-15	1.077914E-17
7.078219E+03	1.564056E-15	1.069285E-17
7.088174E+03	1.554601E-15	1.058960E-17
7.098129E+03	1.543193E-15	1.047141E-17
7.108085E+03	1.530230E-15	1.034123E-17
7.118040E+03	1.516127E-15	1.020210E-17
7.127995E+03	1.501289E-15	1.005695E-17
7.137951E+03	1.486174E-15	9.909060E-18
7.147906E+03	1.471113E-15	9.760767E-18
7.157861E+03	1.456487E-15	9.614724E-18
7.167817E+03	1.442522E-15	9.472503E-18
7.177772E+03	1.429375E-15	9.335203E-18
7.187727E+03	1.417177E-15	9.203706E-18
7.197682E+03	1.405962E-15	9.078275E-18
7.207638E+03	1.395694E-15	8.958684E-18
7.217593E+03	1.386317E-15	8.844602E-18
7.227548E+03	1.377743E-15	8.735503E-18
7.237504E+03	1.369879E-15	8.630821E-18
7.247459E+03	1.362625E-15	8.529989E-18
7.257414E+03	1.355828E-15	8.432109E-18
7.267370E+03	1.349454E-15	8.337044E-18
7.277325E+03	1.343394E-15	8.244206E-18
7.287280E+03	1.337548E-15	8.153098E-18
7.297235E+03	1.331886E-15	8.063636E-18
7.307191E+03	1.326289E-15	7.975234E-18
7.317146E+03	1.320707E-15	7.887724E-18
7.327101E+03	1.315093E-15	7.800974E-18
7.337057E+03	1.309351E-15	7.714568E-18
7.347012E+03	1.303450E-15	7.628486E-18
7.356967E+03	1.297256E-15	7.542126E-18
7.366923E+03	1.290760E-15	7.455607E-18
7.376878E+03	1.283856E-15	7.368510E-18
7.386833E+03	1.276537E-15	7.280982E-18
7.396788E+03	1.268726E-15	7.192773E-18
7.406744E+03	1.260394E-15	7.103904E-18
7.416699E+03	1.251566E-15	7.014701E-18
7.426654E+03	1.242217E-15	6.925196E-18
7.436610E+03	1.232454E-15	6.836140E-18
7.446565E+03	1.222278E-15	6.747671E-18
7.456520E+03	1.211824E-15	6.660544E-18
7.466476E+03	1.201166E-15	6.575073E-18
7.476431E+03	1.190513E-15	6.492285E-18
7.486386E+03	1.179995E-15	6.412774E-18
7.496341E+03	1.169791E-15	6.337387E-18
7.506297E+03	1.160098E-15	6.267066E-18
7.516252E+03	1.151055E-15	6.202418E-18
7.526207E+03	1.142826E-15	6.144210E-18
7.536163E+03	1.135427E-15	6.092403E-18
7.546118E+03	1.128859E-15	6.046877E-18
7.556073E+03	1.123063E-15	6.007230E-18
7.566029E+03	1.117916E-15	5.972705E-18
7.575984E+03	1.113328E-15	5.942743E-18
7.585939E+03	1.109153E-15	5.916508E-18
7.595894E+03	1.105320E-15	5.893553E-18
7.605850E+03	1.101672E-15	5.872999E-18
7.615805E+03	1.098172E-15	5.854599E-18
7.625760E+03	1.094704E-15	5.837709E-18
7.635716E+03	1.091294E-15	5.822434E-18
7.645671E+03	1.087892E-15	5.808482E-18
7.655626E+03	1.084567E-15	5.796201E-18
7.665582E+03	1.081340E-15	5.785688E-18
7.675537E+03	1.078274E-15	5.777275E-18
7.685492E+03	1.075442E-15	5.771360E-18
7.695447E+03	1.072929E-15	5.768404E-18
7.705403E+03	1.070812E-15	5.768842E-18
7.715358E+03	1.069129E-15	5.772911E-18
7.725313E+03	1.067971E-15	5.781136E-18
