#wls	flux	fluxerr
1.592848E+03	6.497277E-17	5.614082E-18
1.632669E+03	6.720561E-17	5.772140E-18
1.672491E+03	6.922506E-17	5.908842E-18
1.712312E+03	7.099434E-17	6.021323E-18
1.752133E+03	7.246862E-17	6.106138E-18
1.791954E+03	7.354526E-17	6.155119E-18
1.831775E+03	7.406486E-17	6.155643E-18
1.871597E+03	7.387910E-17	6.096408E-18
1.911418E+03	7.282930E-17	5.965667E-18
1.951239E+03	7.082902E-17	5.757990E-18
1.991060E+03	6.796863E-17	5.482500E-18
2.030881E+03	6.465604E-17	5.173571E-18
2.070703E+03	6.165979E-17	4.893193E-18
2.110524E+03	5.997037E-17	4.718792E-18
2.150345E+03	6.047982E-17	4.717370E-18
2.190166E+03	6.362668E-17	4.918272E-18
2.229987E+03	6.930758E-17	5.307900E-18
2.269809E+03	7.701239E-17	5.841885E-18
2.309630E+03	8.607155E-17	6.465177E-18
2.349451E+03	9.587978E-17	7.129364E-18
2.389272E+03	1.060022E-16	7.800314E-18
2.429093E+03	1.161838E-16	8.458309E-18
2.468915E+03	1.263289E-16	9.095864E-18
2.508736E+03	1.364233E-16	9.711634E-18
2.548557E+03	1.465212E-16	1.030912E-17
2.588378E+03	1.566914E-16	1.089267E-17
2.628199E+03	1.670232E-16	1.146780E-17
2.668021E+03	1.775998E-16	1.203934E-17
2.707842E+03	1.885062E-16	1.261188E-17
2.747663E+03	1.998261E-16	1.318966E-17
2.787484E+03	2.116349E-16	1.377605E-17
2.827305E+03	2.240042E-16	1.437387E-17
2.867127E+03	2.370127E-16	1.498612E-17
2.906948E+03	2.507175E-16	1.561411E-17
2.946769E+03	2.651930E-16	1.626000E-17
2.986590E+03	2.804723E-16	1.692315E-17
2.996546E+03	2.844280E-16	1.709192E-17
3.006501E+03	2.884307E-16	1.726136E-17
3.016456E+03	2.924792E-16	1.743135E-17
3.026411E+03	2.965908E-16	1.760288E-17
3.036367E+03	3.007796E-16	1.777673E-17
3.046322E+03	3.050645E-16	1.795394E-17
3.056277E+03	3.094575E-16	1.813515E-17
3.066233E+03	3.139427E-16	1.831934E-17
3.076188E+03	3.185108E-16	1.850590E-17
3.086143E+03	3.231658E-16	1.869497E-17
3.096099E+03	3.278849E-16	1.888519E-17
3.106054E+03	3.326651E-16	1.907634E-17
3.116009E+03	3.374900E-16	1.926741E-17
3.125964E+03	3.423695E-16	1.945893E-17
3.135920E+03	3.472731E-16	1.964914E-17
3.145875E+03	3.521964E-16	1.983776E-17
3.155830E+03	3.571349E-16	2.002451E-17
3.165786E+03	3.620766E-16	2.020873E-17
3.175741E+03	3.669953E-16	2.038894E-17
3.185696E+03	3.718983E-16	2.056556E-17
3.195652E+03	3.767577E-16	2.073706E-17
3.205607E+03	3.815660E-16	2.090308E-17
3.215562E+03	3.863005E-16	2.106241E-17
3.225517E+03	3.909523E-16	2.121462E-17
3.235473E+03	3.955029E-16	2.135878E-17
3.245428E+03	3.999353E-16	2.149405E-17
3.255383E+03	4.042234E-16	2.161913E-17
3.265339E+03	4.083540E-16	2.173344E-17
3.275294E+03	4.123067E-16	2.183601E-17
3.285249E+03	4.160535E-16	2.192552E-17
3.295205E+03	4.195795E-16	2.200135E-17
3.305160E+03	4.228548E-16	2.206212E-17
3.315115E+03	4.258642E-16	2.210724E-17
3.325070E+03	4.285783E-16	2.213540E-17
3.335026E+03	4.309745E-16	2.214569E-17
3.344981E+03	4.330305E-16	2.213723E-17
3.354936E+03	4.347253E-16	2.210922E-17
3.364892E+03	4.360386E-16	2.206092E-17
3.374847E+03	4.369460E-16	2.199144E-17
3.384802E+03	4.374371E-16	2.190056E-17
3.394758E+03	4.374864E-16	2.178737E-17
3.404713E+03	4.370954E-16	2.165229E-17
3.414242E+03	3.067809E-16	1.511925E-17
3.416994E+03	3.157235E-16	1.553688E-17
3.419744E+03	3.151681E-16	1.548651E-17
3.422496E+03	3.212362E-16	1.576118E-17
3.425248E+03	3.195814E-16	1.565662E-17
3.427998E+03	3.166147E-16	1.548813E-17
3.430750E+03	3.167493E-16	1.547154E-17
3.433502E+03	3.191323E-16	1.556459E-17
3.436253E+03	3.195075E-16	1.555952E-17
3.439004E+03	3.176825E-16	1.544742E-17
3.441756E+03	3.164999E-16	1.536676E-17
3.444506E+03	3.133478E-16	1.519081E-17
3.447258E+03	3.054100E-16	1.478366E-17
3.450009E+03	3.012761E-16	1.456151E-17
3.452761E+03	3.012986E-16	1.454057E-17
3.455512E+03	2.989160E-16	1.440373E-17
3.458263E+03	2.987337E-16	1.437310E-17
3.461015E+03	2.942485E-16	1.413578E-17
3.463766E+03	2.934476E-16	1.407586E-17
3.466517E+03	2.941394E-16	1.408754E-17
3.469269E+03	2.923705E-16	1.398144E-17
3.472020E+03	2.940568E-16	1.404059E-17
3.474771E+03	2.891760E-16	1.378641E-17
3.477523E+03	2.847479E-16	1.355449E-17
3.480274E+03	2.835641E-16	1.347743E-17
3.483025E+03	2.796927E-16	1.327299E-17
3.485777E+03	2.769439E-16	1.312231E-17
3.488528E+03	2.718773E-16	1.286239E-17
3.491279E+03	2.739888E-16	1.294227E-17
3.494031E+03	2.764401E-16	1.303788E-17
3.496781E+03	2.785831E-16	1.311862E-17
3.499533E+03	2.725407E-16	1.281418E-17
3.502285E+03	2.717258E-16	1.275604E-17
3.505035E+03	2.658049E-16	1.245870E-17
3.507787E+03	2.634227E-16	1.232782E-17
3.510539E+03	2.605917E-16	1.217633E-17
3.513289E+03	2.604720E-16	1.215175E-17
3.516041E+03	2.570201E-16	1.197197E-17
3.518793E+03	2.510431E-16	1.167527E-17
3.521543E+03	2.479058E-16	1.151130E-17
3.524295E+03	2.453202E-16	1.137337E-17
3.527047E+03	2.402086E-16	1.111890E-17
3.529797E+03	2.401969E-16	1.110088E-17
3.532549E+03	2.416442E-16	1.115018E-17
3.535301E+03	2.412689E-16	1.111531E-17
3.538051E+03	2.367254E-16	1.088877E-17
3.540803E+03	2.363050E-16	1.085225E-17
3.543554E+03	2.338474E-16	1.072239E-17
3.546305E+03	2.292662E-16	1.049568E-17
3.549057E+03	2.310605E-16	1.056103E-17
3.551808E+03	2.279588E-16	1.040271E-17
3.554559E+03	2.235327E-16	1.018451E-17
3.557311E+03	2.241619E-16	1.019691E-17
3.560062E+03	2.237022E-16	1.015977E-17
3.562814E+03	2.230389E-16	1.011348E-17
3.565565E+03	2.195569E-16	9.939687E-18
3.568316E+03	2.171410E-16	9.814582E-18
3.571068E+03	2.150013E-16	9.702304E-18
3.573819E+03	2.129033E-16	9.592220E-18
3.576570E+03	2.099605E-16	9.444444E-18
3.579321E+03	2.083300E-16	9.356043E-18
3.582072E+03	2.058121E-16	9.228086E-18
3.584824E+03	2.041797E-16	9.140143E-18
3.587576E+03	2.028242E-16	9.064817E-18
3.590326E+03	1.995659E-16	8.904793E-18
3.593078E+03	1.976102E-16	8.803268E-18
3.595829E+03	1.953114E-16	8.686784E-18
3.598580E+03	1.965924E-16	8.729586E-18
3.601332E+03	1.910853E-16	8.471280E-18
3.604084E+03	1.895963E-16	8.391617E-18
3.606834E+03	1.908329E-16	8.432619E-18
3.609586E+03	1.886477E-16	8.322485E-18
3.612338E+03	1.876806E-16	8.266328E-18
3.615088E+03	1.870124E-16	8.223463E-18
3.617840E+03	1.851565E-16	8.128553E-18
3.620592E+03	1.823799E-16	7.993567E-18
3.623342E+03	1.827154E-16	7.995164E-18
3.626094E+03	1.831467E-16	8.000904E-18
3.628845E+03	1.816305E-16	7.921650E-18
3.631596E+03	1.801993E-16	7.846326E-18
3.634348E+03	1.789280E-16	7.778159E-18
3.637099E+03	1.790151E-16	7.769139E-18
3.639850E+03	1.789841E-16	7.754999E-18
3.642602E+03	1.792738E-16	7.754738E-18
3.645353E+03	1.807619E-16	7.806196E-18
3.648104E+03	1.814899E-16	7.824681E-18
3.650856E+03	1.821105E-16	7.838443E-18
3.653607E+03	1.829984E-16	7.863614E-18
3.656358E+03	1.844212E-16	7.911618E-18
3.659110E+03	1.837241E-16	7.868629E-18
3.661861E+03	1.834762E-16	7.844954E-18
3.664612E+03	1.804549E-16	7.702937E-18
3.667364E+03	1.785678E-16	7.609692E-18
3.670115E+03	1.760806E-16	7.491192E-18
3.672866E+03	1.748028E-16	7.424426E-18
3.675617E+03	1.744777E-16	7.398240E-18
3.678369E+03	1.741844E-16	7.373454E-18
3.681120E+03	1.709884E-16	7.226052E-18
3.683871E+03	1.712619E-16	7.225485E-18
3.686623E+03	1.683112E-16	7.089089E-18
3.689374E+03	1.679627E-16	7.062541E-18
3.692125E+03	1.660608E-16	6.970837E-18
3.694877E+03	1.651761E-16	6.922036E-18
3.697628E+03	1.631663E-16	6.826303E-18
3.700379E+03	1.611668E-16	6.731289E-18
3.703131E+03	1.609665E-16	6.711584E-18
3.705882E+03	1.617942E-16	6.734712E-18
3.708633E+03	1.608006E-16	6.682043E-18
3.711385E+03	1.592818E-16	6.607733E-18
3.714136E+03	1.595623E-16	6.608166E-18
3.716887E+03	1.589963E-16	6.573566E-18
3.719639E+03	1.610545E-16	6.647369E-18
3.722390E+03	1.616556E-16	6.660849E-18
3.725141E+03	1.616350E-16	6.648689E-18
3.727893E+03	1.638745E-16	6.729347E-18
3.730643E+03	1.644211E-16	6.740303E-18
3.733395E+03	1.689526E-16	6.914270E-18
3.736147E+03	1.704842E-16	6.965054E-18
3.738898E+03	1.729796E-16	7.054943E-18
3.741649E+03	1.761496E-16	7.171965E-18
3.744401E+03	1.781195E-16	7.239770E-18
3.747152E+03	1.813316E-16	7.357720E-18
3.749903E+03	1.852075E-16	7.502126E-18
3.752655E+03	1.894044E-16	7.658981E-18
3.755406E+03	1.930009E-16	7.791031E-18
3.758157E+03	1.963935E-16	7.914379E-18
3.760909E+03	2.008246E-16	8.079049E-18
3.763660E+03	2.066585E-16	8.299451E-18
3.766411E+03	2.127809E-16	8.530633E-18
3.769162E+03	2.196311E-16	8.790107E-18
3.771914E+03	2.260735E-16	9.032359E-18
3.774665E+03	2.335756E-16	9.316007E-18
3.777416E+03	2.402093E-16	9.564057E-18
3.780168E+03	2.485879E-16	9.880570E-18
3.782919E+03	2.575118E-16	1.021759E-17
3.785670E+03	2.646568E-16	1.048293E-17
3.788422E+03	2.726684E-16	1.078158E-17
3.791173E+03	2.807110E-16	1.108039E-17
3.793924E+03	2.892130E-16	1.139621E-17
3.796676E+03	2.977245E-16	1.171126E-17
3.799427E+03	3.067487E-16	1.204531E-17
3.802178E+03	3.154825E-16	1.236677E-17
3.804930E+03	3.236797E-16	1.266606E-17
3.807681E+03	3.322930E-16	1.298052E-17
3.810432E+03	3.409156E-16	1.329420E-17
3.813184E+03	3.494405E-16	1.360293E-17
3.815934E+03	3.584241E-16	1.392836E-17
3.818686E+03	3.661966E-16	1.420562E-17
3.821438E+03	3.751342E-16	1.452697E-17
3.824188E+03	3.839203E-16	1.484130E-17
3.826940E+03	3.939675E-16	1.520313E-17
3.829692E+03	4.048581E-16	1.559613E-17
3.832442E+03	4.145591E-16	1.594197E-17
3.835194E+03	4.252527E-16	1.632463E-17
3.837946E+03	4.359766E-16	1.670705E-17
3.840696E+03	4.459277E-16	1.705852E-17
3.843448E+03	4.561550E-16	1.741924E-17
3.846200E+03	4.671182E-16	1.780668E-17
3.848951E+03	4.785599E-16	1.821091E-17
3.851702E+03	4.871220E-16	1.850428E-17
3.854454E+03	4.959814E-16	1.880782E-17
3.857204E+03	5.052558E-16	1.912595E-17
3.859956E+03	5.141958E-16	1.943025E-17
3.862707E+03	5.225032E-16	1.970955E-17
3.865458E+03	5.308292E-16	1.998851E-17
3.868210E+03	5.394415E-16	2.027718E-17
3.870961E+03	5.475807E-16	2.054701E-17
3.873713E+03	5.540823E-16	2.075448E-17
3.876464E+03	5.618319E-16	2.100783E-17
3.879215E+03	5.690558E-16	2.124058E-17
3.881967E+03	5.772492E-16	2.150857E-17
3.884718E+03	5.835593E-16	2.170551E-17
3.887469E+03	5.911063E-16	2.194760E-17
3.890221E+03	5.975612E-16	2.214828E-17
3.892972E+03	6.049428E-16	2.238250E-17
3.895723E+03	6.118839E-16	2.259953E-17
3.898475E+03	6.191531E-16	2.282782E-17
3.901225E+03	6.255759E-16	2.302411E-17
3.903977E+03	6.303735E-16	2.315991E-17
3.906729E+03	6.355100E-16	2.330759E-17
3.909479E+03	6.393529E-16	2.340733E-17
3.912231E+03	6.429582E-16	2.349796E-17
3.914983E+03	6.459856E-16	2.356711E-17
3.917733E+03	6.491922E-16	2.364250E-17
3.920485E+03	6.508710E-16	2.366199E-17
3.923237E+03	6.527401E-16	2.368825E-17
3.925987E+03	6.556311E-16	2.375139E-17
3.928739E+03	6.540729E-16	2.365333E-17
3.931491E+03	6.541772E-16	2.361556E-17
3.934241E+03	6.541311E-16	2.357246E-17
3.936993E+03	6.528251E-16	2.348410E-17
3.939745E+03	6.513907E-16	2.339139E-17
3.942495E+03	6.505088E-16	2.331876E-17
3.945247E+03	6.475379E-16	2.317156E-17
3.947998E+03	6.442146E-16	2.301223E-17
3.950749E+03	6.408376E-16	2.285150E-17
3.953501E+03	6.370872E-16	2.267797E-17
3.956252E+03	6.328041E-16	2.248607E-17
3.959003E+03	6.284569E-16	2.229253E-17
3.961755E+03	6.236838E-16	2.208452E-17
3.964506E+03	6.188043E-16	2.187343E-17
3.967257E+03	6.131484E-16	2.163565E-17
3.970009E+03	6.071627E-16	2.138702E-17
3.972760E+03	6.022308E-16	2.117627E-17
3.975511E+03	5.960863E-16	2.092366E-17
3.978263E+03	5.893259E-16	2.065030E-17
3.981014E+03	5.839062E-16	2.042474E-17
3.983766E+03	5.772851E-16	2.015799E-17
3.986517E+03	5.713883E-16	1.991739E-17
3.989268E+03	5.652580E-16	1.966945E-17
3.992019E+03	5.600847E-16	1.945559E-17
3.994770E+03	5.537437E-16	1.920195E-17
3.997522E+03	5.475523E-16	1.895433E-17
4.000274E+03	5.430395E-16	1.876555E-17
4.003024E+03	5.370406E-16	1.852614E-17
4.005776E+03	5.321039E-16	1.832410E-17
4.008528E+03	5.274866E-16	1.813372E-17
4.011278E+03	5.229329E-16	1.794616E-17
4.014030E+03	5.185070E-16	1.776360E-17
4.016782E+03	5.139439E-16	1.757696E-17
4.019532E+03	5.100703E-16	1.741449E-17
4.022284E+03	5.070768E-16	1.728255E-17
4.025036E+03	5.029177E-16	1.711139E-17
4.027786E+03	4.987901E-16	1.694188E-17
4.030538E+03	4.953308E-16	1.679559E-17
4.033290E+03	4.935131E-16	1.670536E-17
4.036040E+03	4.912501E-16	1.660039E-17
4.038792E+03	4.894211E-16	1.651040E-17
4.041543E+03	4.862998E-16	1.637718E-17
4.044294E+03	4.817923E-16	1.619782E-17
4.047046E+03	4.795496E-16	1.609507E-17
4.049797E+03	4.770633E-16	1.598449E-17
4.052548E+03	4.745552E-16	1.587358E-17
4.055300E+03	4.718995E-16	1.575809E-17
4.058051E+03	4.700255E-16	1.566906E-17
4.060802E+03	4.686049E-16	1.559543E-17
4.063554E+03	4.664234E-16	1.549675E-17
4.066305E+03	4.633019E-16	1.536723E-17
4.069056E+03	4.618164E-16	1.529234E-17
4.071808E+03	4.604468E-16	1.522152E-17
4.074559E+03	4.583058E-16	1.512549E-17
4.077310E+03	4.565441E-16	1.504230E-17
4.080062E+03	4.554149E-16	1.498019E-17
4.082813E+03	4.534627E-16	1.489127E-17
4.085564E+03	4.533119E-16	1.486172E-17
4.088315E+03	4.520853E-16	1.479706E-17
4.091067E+03	4.515740E-16	1.475601E-17
4.093818E+03	4.495446E-16	1.466559E-17
4.096569E+03	4.483366E-16	1.460223E-17
4.099321E+03	4.471484E-16	1.453975E-17
4.102072E+03	4.457911E-16	1.447200E-17
4.104823E+03	4.456006E-16	1.444231E-17
4.107575E+03	4.446204E-16	1.438718E-17
4.110326E+03	4.442588E-16	1.435225E-17
4.113077E+03	4.430344E-16	1.428962E-17
4.115829E+03	4.434582E-16	1.428029E-17
4.118581E+03	4.437016E-16	1.426522E-17
4.121331E+03	4.433449E-16	1.423098E-17
4.124083E+03	4.440049E-16	1.422945E-17
4.126835E+03	4.442007E-16	1.421311E-17
4.129585E+03	4.450873E-16	1.421893E-17
4.132337E+03	4.458771E-16	1.422167E-17
4.135087E+03	4.462975E-16	1.421269E-17
4.137839E+03	4.462761E-16	1.418971E-17
4.140591E+03	4.472688E-16	1.419904E-17
4.143341E+03	4.467306E-16	1.415988E-17
4.146093E+03	4.469549E-16	1.414499E-17
4.148845E+03	4.481081E-16	1.415955E-17
4.151595E+03	4.492590E-16	1.417405E-17
4.154347E+03	4.493201E-16	1.415421E-17
4.157099E+03	4.489294E-16	1.412027E-17
4.159850E+03	4.487569E-16	1.409334E-17
4.162601E+03	4.496371E-16	1.409956E-17
4.165353E+03	4.492105E-16	1.406489E-17
4.168104E+03	4.488446E-16	1.403228E-17
4.170855E+03	4.484040E-16	1.399750E-17
4.173607E+03	4.485975E-16	1.398264E-17
4.176358E+03	4.476119E-16	1.393119E-17
4.179109E+03	4.459479E-16	1.385887E-17
4.181860E+03	4.438770E-16	1.377420E-17
4.184612E+03	4.420457E-16	1.369726E-17
4.187363E+03	4.401719E-16	1.361931E-17
4.190114E+03	4.391614E-16	1.356832E-17
4.192866E+03	4.376921E-16	1.350338E-17
4.195617E+03	4.357128E-16	1.342300E-17
4.198368E+03	4.346788E-16	1.337199E-17
4.201120E+03	4.322939E-16	1.327970E-17
4.203871E+03	4.300025E-16	1.319062E-17
4.206622E+03	4.278980E-16	1.310758E-17
4.209374E+03	4.257622E-16	1.302390E-17
4.212125E+03	4.232327E-16	1.292850E-17
4.214876E+03	4.208590E-16	1.283819E-17
4.217628E+03	4.182784E-16	1.274191E-17
4.220379E+03	4.154395E-16	1.263812E-17
4.223130E+03	4.135217E-16	1.256267E-17
4.225882E+03	4.116348E-16	1.248845E-17
4.228632E+03	4.089005E-16	1.238883E-17
4.231384E+03	4.064664E-16	1.229865E-17
4.234136E+03	4.039605E-16	1.220662E-17
4.236886E+03	4.021461E-16	1.213579E-17
4.239638E+03	4.003831E-16	1.206678E-17
4.242390E+03	3.993721E-16	1.202067E-17
4.245140E+03	3.977730E-16	1.195709E-17
4.247892E+03	3.968221E-16	1.191323E-17
4.250644E+03	3.964257E-16	1.188619E-17
4.253395E+03	3.948142E-16	1.182292E-17
4.256146E+03	3.936340E-16	1.177282E-17
4.258898E+03	3.916723E-16	1.169958E-17
4.261648E+03	3.912301E-16	1.167196E-17
4.264400E+03	3.908068E-16	1.164506E-17
4.267151E+03	3.898691E-16	1.160302E-17
4.269902E+03	3.884691E-16	1.154744E-17
4.272654E+03	3.869354E-16	1.148811E-17
4.275405E+03	3.855037E-16	1.143206E-17
4.278156E+03	3.841021E-16	1.137714E-17
4.280908E+03	3.823832E-16	1.131305E-17
4.283659E+03	3.804699E-16	1.124348E-17
4.286411E+03	3.781278E-16	1.116151E-17
4.289162E+03	3.768274E-16	1.111055E-17
4.291913E+03	3.744350E-16	1.102765E-17
4.294665E+03	3.726447E-16	1.096275E-17
4.297416E+03	3.709054E-16	1.089961E-17
4.300167E+03	3.682702E-16	1.081041E-17
4.302919E+03	3.659108E-16	1.072960E-17
4.305670E+03	3.630031E-16	1.063302E-17
4.308421E+03	3.614079E-16	1.057515E-17
4.311173E+03	3.583806E-16	1.047565E-17
4.313923E+03	3.553044E-16	1.037505E-17
4.316675E+03	3.529704E-16	1.029641E-17
4.319427E+03	3.503130E-16	1.020862E-17
4.322177E+03	3.485887E-16	1.014828E-17
4.324929E+03	3.464092E-16	1.007493E-17
4.327681E+03	3.443519E-16	1.000538E-17
4.330431E+03	3.432857E-16	9.964848E-18
4.333183E+03	3.416634E-16	9.908371E-18
4.335935E+03	3.398092E-16	9.845387E-18
4.338685E+03	3.390750E-16	9.815052E-18
4.341437E+03	3.384405E-16	9.787761E-18
4.344189E+03	3.378351E-16	9.761465E-18
4.346939E+03	3.370675E-16	9.730642E-18
4.349691E+03	3.366508E-16	9.710101E-18
4.352443E+03	3.369162E-16	9.709355E-18
4.355193E+03	3.372594E-16	9.710960E-18
4.357945E+03	3.373693E-16	9.705952E-18
4.360696E+03	3.384998E-16	9.730395E-18
4.363447E+03	3.397066E-16	9.757100E-18
4.366199E+03	3.412700E-16	9.794097E-18
4.368950E+03	3.422688E-16	9.814950E-18
4.371701E+03	3.439037E-16	9.854107E-18
4.374453E+03	3.458738E-16	9.902903E-18
4.377204E+03	3.484877E-16	9.970148E-18
4.379955E+03	3.511453E-16	1.003865E-17
4.382707E+03	3.540857E-16	1.011524E-17
4.385458E+03	3.569897E-16	1.019079E-17
4.388209E+03	3.603746E-16	1.028005E-17
4.390961E+03	3.635036E-16	1.036200E-17
4.393712E+03	3.668442E-16	1.044998E-17
4.396463E+03	3.702271E-16	1.053915E-17
4.399215E+03	3.743563E-16	1.064954E-17
4.401966E+03	3.788236E-16	1.076951E-17
4.404717E+03	3.826777E-16	1.087202E-17
4.407468E+03	3.871172E-16	1.099113E-17
4.410220E+03	3.910927E-16	1.109704E-17
4.412971E+03	3.947140E-16	1.119289E-17
4.415722E+03	3.992846E-16	1.131564E-17
4.418474E+03	4.039541E-16	1.144117E-17
4.421226E+03	4.084267E-16	1.156109E-17
4.423976E+03	4.130178E-16	1.168435E-17
4.426728E+03	4.183565E-16	1.182872E-17
4.429480E+03	4.238022E-16	1.197608E-17
4.432230E+03	4.287656E-16	1.210978E-17
4.434982E+03	4.343169E-16	1.226006E-17
4.437734E+03	4.392784E-16	1.239366E-17
4.440484E+03	4.452092E-16	1.255459E-17
4.443236E+03	4.511568E-16	1.271595E-17
4.445988E+03	4.566919E-16	1.286567E-17
4.448738E+03	4.636508E-16	1.305546E-17
4.451490E+03	4.698055E-16	1.322256E-17
4.454241E+03	4.773711E-16	1.342934E-17
4.456992E+03	4.843373E-16	1.361921E-17
4.459744E+03	4.913281E-16	1.380973E-17
4.462495E+03	4.980235E-16	1.399192E-17
4.465246E+03	5.052099E-16	1.418790E-17
4.467998E+03	5.119065E-16	1.437009E-17
4.470749E+03	5.185995E-16	1.455218E-17
4.473500E+03	5.254434E-16	1.473850E-17
4.476252E+03	5.320119E-16	1.491709E-17
4.479003E+03	5.383453E-16	1.508911E-17
4.481754E+03	5.454964E-16	1.528406E-17
4.484506E+03	5.524207E-16	1.547266E-17
4.487257E+03	5.594468E-16	1.566412E-17
4.490008E+03	5.653703E-16	1.582475E-17
4.492760E+03	5.712435E-16	1.598401E-17
4.495511E+03	5.775659E-16	1.615588E-17
4.498262E+03	5.837029E-16	1.632262E-17
4.501013E+03	5.895495E-16	1.648129E-17
4.503765E+03	5.949430E-16	1.662735E-17
4.506516E+03	6.003733E-16	1.677451E-17
4.509267E+03	6.062330E-16	1.693374E-17
4.512019E+03	6.116606E-16	1.708097E-17
4.514770E+03	6.170294E-16	1.722664E-17
4.517521E+03	6.215856E-16	1.734971E-17
4.520273E+03	6.253412E-16	1.745053E-17
4.523024E+03	6.292798E-16	1.755657E-17
4.525775E+03	6.325251E-16	1.764338E-17
4.528527E+03	6.351649E-16	1.771342E-17
4.531278E+03	6.379704E-16	1.778821E-17
4.534029E+03	6.407129E-16	1.786136E-17
4.536781E+03	6.431187E-16	1.792525E-17
4.539532E+03	6.445248E-16	1.796142E-17
4.542283E+03	6.455299E-16	1.798655E-17
4.545035E+03	6.463823E-16	1.800757E-17
4.547786E+03	6.469214E-16	1.802000E-17
4.550537E+03	6.476855E-16	1.803885E-17
4.553289E+03	6.475057E-16	1.803155E-17
4.556040E+03	6.466005E-16	1.800421E-17
4.558791E+03	6.461866E-16	1.799069E-17
4.561543E+03	6.456986E-16	1.797526E-17
4.564294E+03	6.441967E-16	1.793176E-17
4.567045E+03	6.422945E-16	1.787726E-17
4.569797E+03	6.398618E-16	1.780814E-17
4.572548E+03	6.364684E-16	1.771244E-17
4.575299E+03	6.336533E-16	1.763299E-17
4.578051E+03	6.299457E-16	1.752884E-17
4.580802E+03	6.262269E-16	1.742452E-17
4.583553E+03	6.219835E-16	1.730575E-17
4.586304E+03	6.176460E-16	1.718450E-17
4.589056E+03	6.128889E-16	1.705172E-17
4.591807E+03	6.082709E-16	1.692293E-17
4.594558E+03	6.030208E-16	1.677668E-17
4.597310E+03	5.963496E-16	1.659103E-17
4.600061E+03	5.902856E-16	1.642238E-17
4.602812E+03	5.837788E-16	1.624154E-17
4.605564E+03	5.771369E-16	1.605704E-17
