#wls	flux	fluxerr
1.592848E+03	9.279155E-17	2.581515E-18
1.632669E+03	9.655120E-17	2.670670E-18
1.672491E+03	1.000579E-16	2.751299E-18
1.712312E+03	1.032547E-16	2.821925E-18
1.752133E+03	1.060710E-16	2.880746E-18
1.791954E+03	1.083493E-16	2.923666E-18
1.831775E+03	1.098432E-16	2.944331E-18
1.871597E+03	1.103159E-16	2.936834E-18
1.911418E+03	1.095078E-16	2.894862E-18
1.951239E+03	1.072608E-16	2.814985E-18
1.991060E+03	1.036808E-16	2.700811E-18
2.030881E+03	9.936436E-17	2.568573E-18
2.070703E+03	9.548342E-17	2.448823E-18
2.110524E+03	9.359264E-17	2.380886E-18
2.150345E+03	9.514181E-17	2.400115E-18
2.190166E+03	1.009104E-16	2.523791E-18
2.229987E+03	1.108399E-16	2.747640E-18
2.269809E+03	1.242170E-16	3.051248E-18
2.309630E+03	1.400479E-16	3.407910E-18
2.349451E+03	1.574119E-16	3.793525E-18
2.389272E+03	1.756396E-16	4.190801E-18
2.429093E+03	1.943405E-16	4.589631E-18
2.468915E+03	2.133794E-16	4.986250E-18
2.508736E+03	2.327589E-16	5.380188E-18
2.548557E+03	2.526025E-16	5.773728E-18
2.588378E+03	2.730690E-16	6.169820E-18
2.628199E+03	2.943666E-16	6.572321E-18
2.668021E+03	3.167110E-16	6.985017E-18
2.707842E+03	3.403426E-16	7.411969E-18
2.747663E+03	3.655256E-16	7.857449E-18
2.787484E+03	3.925448E-16	8.325836E-18
2.827305E+03	4.217192E-16	8.821846E-18
2.867127E+03	4.534368E-16	9.351195E-18
2.906948E+03	4.881165E-16	9.919711E-18
2.946769E+03	5.263042E-16	1.053519E-17
2.986590E+03	5.685858E-16	1.120547E-17
2.996546E+03	5.798919E-16	1.138298E-17
3.006501E+03	5.915010E-16	1.156449E-17
3.016456E+03	6.034241E-16	1.175012E-17
3.026411E+03	6.157106E-16	1.194075E-17
3.036367E+03	6.284055E-16	1.213715E-17
3.046322E+03	6.415657E-16	1.234032E-17
3.056277E+03	6.552359E-16	1.255098E-17
3.066233E+03	6.694035E-16	1.276877E-17
3.076188E+03	6.840703E-16	1.299359E-17
3.086143E+03	6.992672E-16	1.322589E-17
3.096099E+03	7.149701E-16	1.346508E-17
3.106054E+03	7.311969E-16	1.371136E-17
3.116009E+03	7.479384E-16	1.396442E-17
3.125964E+03	7.652446E-16	1.422506E-17
3.135920E+03	7.830767E-16	1.449239E-17
3.145875E+03	8.014547E-16	1.476666E-17
3.155830E+03	8.204009E-16	1.504812E-17
3.165786E+03	8.399205E-16	1.533672E-17
3.175741E+03	8.599870E-16	1.563181E-17
3.185696E+03	8.806532E-16	1.593421E-17
3.195652E+03	9.018903E-16	1.624323E-17
3.205607E+03	9.237162E-16	1.655904E-17
3.215562E+03	9.461150E-16	1.688119E-17
3.225517E+03	9.691007E-16	1.720977E-17
3.235473E+03	9.926696E-16	1.754456E-17
3.245428E+03	1.016813E-15	1.788523E-17
3.255383E+03	1.041502E-15	1.823113E-17
3.265339E+03	1.066737E-15	1.858211E-17
3.275294E+03	1.092496E-15	1.893764E-17
3.285249E+03	1.118733E-15	1.929678E-17
3.295205E+03	1.145430E-15	1.965907E-17
3.305160E+03	1.172526E-15	2.002333E-17
3.315115E+03	1.199985E-15	2.038887E-17
3.325070E+03	1.227726E-15	2.075417E-17
3.335026E+03	1.255672E-15	2.111788E-17
3.344981E+03	1.283735E-15	2.147845E-17
3.354936E+03	1.311813E-15	2.183414E-17
3.364892E+03	1.339788E-15	2.218298E-17
3.374847E+03	1.367507E-15	2.252246E-17
3.384802E+03	1.394838E-15	2.285049E-17
3.394758E+03	1.421573E-15	2.316377E-17
3.404713E+03	1.447568E-15	2.346011E-17
3.414668E+03	1.472582E-15	2.373581E-17
3.424623E+03	1.496400E-15	2.398768E-17
3.434579E+03	1.518795E-15	2.421242E-17
3.444534E+03	1.539511E-15	2.440634E-17
3.454489E+03	1.558330E-15	2.456645E-17
3.464445E+03	1.574991E-15	2.468915E-17
3.474400E+03	1.589238E-15	2.477104E-17
3.484355E+03	1.600852E-15	2.480936E-17
3.494311E+03	1.609606E-15	2.480133E-17
3.504266E+03	1.615339E-15	2.474526E-17
3.514221E+03	1.617842E-15	2.463878E-17
3.524176E+03	1.617022E-15	2.448136E-17
3.534132E+03	1.612782E-15	2.427243E-17
3.544087E+03	1.605097E-15	2.401255E-17
3.554042E+03	1.593951E-15	2.370246E-17
3.563998E+03	1.579417E-15	2.334414E-17
3.573953E+03	1.561689E-15	2.294137E-17
3.583908E+03	1.541009E-15	2.249860E-17
3.593864E+03	1.517860E-15	2.202362E-17
3.603819E+03	1.492808E-15	2.152529E-17
3.613774E+03	1.466450E-15	2.101270E-17
3.623729E+03	1.439421E-15	2.049523E-17
3.633685E+03	1.412373E-15	1.998233E-17
3.643640E+03	1.385910E-15	1.948247E-17
3.653595E+03	1.360656E-15	1.900425E-17
3.663551E+03	1.337154E-15	1.855489E-17
3.673506E+03	1.315960E-15	1.814156E-17
3.683461E+03	1.297579E-15	1.777057E-17
3.693417E+03	1.282491E-15	1.744770E-17
3.703372E+03	1.271119E-15	1.717778E-17
3.713327E+03	1.263881E-15	1.696540E-17
3.723282E+03	1.261151E-15	1.681447E-17
3.733238E+03	1.263292E-15	1.672854E-17
3.743193E+03	1.270629E-15	1.671058E-17
3.753148E+03	1.283469E-15	1.676320E-17
3.763104E+03	1.302079E-15	1.688840E-17
3.773059E+03	1.326693E-15	1.708760E-17
3.783014E+03	1.357534E-15	1.736207E-17
3.792970E+03	1.394702E-15	1.771140E-17
3.802925E+03	1.438269E-15	1.813479E-17
3.812880E+03	1.488195E-15	1.863006E-17
3.822835E+03	1.544267E-15	1.919283E-17
3.832791E+03	1.606136E-15	1.981718E-17
3.842746E+03	1.673276E-15	2.049515E-17
3.852701E+03	1.744930E-15	2.121613E-17
3.862657E+03	1.820102E-15	2.196695E-17
3.872612E+03	1.897542E-15	2.273174E-17
3.882567E+03	1.975802E-15	2.349271E-17
3.892523E+03	2.053228E-15	2.423021E-17
3.902478E+03	2.128042E-15	2.492368E-17
3.912433E+03	2.198417E-15	2.555267E-17
3.922388E+03	2.262583E-15	2.609801E-17
3.932344E+03	2.318976E-15	2.654352E-17
3.942299E+03	2.366275E-15	2.687631E-17
3.952254E+03	2.403470E-15	2.708750E-17
3.962210E+03	2.430022E-15	2.717378E-17
3.972165E+03	2.445748E-15	2.713596E-17
3.982120E+03	2.450921E-15	2.697995E-17
3.992076E+03	2.446179E-15	2.671553E-17
4.002031E+03	2.432457E-15	2.635541E-17
4.011986E+03	2.410995E-15	2.591531E-17
4.021941E+03	2.383139E-15	2.541158E-17
4.031897E+03	2.350349E-15	2.486134E-17
4.041852E+03	2.314056E-15	2.428085E-17
4.051807E+03	2.275626E-15	2.368524E-17
4.061763E+03	2.236305E-15	2.308789E-17
4.071718E+03	2.197196E-15	2.250033E-17
4.081673E+03	2.159184E-15	2.193149E-17
4.091629E+03	2.122986E-15	2.138829E-17
4.101584E+03	2.089172E-15	2.087597E-17
4.111539E+03	2.058063E-15	2.039713E-17
4.121494E+03	2.029878E-15	1.995325E-17
4.131450E+03	2.004677E-15	1.954420E-17
4.141405E+03	1.982401E-15	1.916868E-17
4.151360E+03	1.962893E-15	1.882451E-17
4.161316E+03	1.945928E-15	1.850889E-17
4.171271E+03	1.931236E-15	1.821868E-17
4.181226E+03	1.918521E-15	1.795062E-17
4.191182E+03	1.907491E-15	1.770153E-17
4.201137E+03	1.897873E-15	1.746857E-17
4.211092E+03	1.889410E-15	1.724907E-17
4.221047E+03	1.881908E-15	1.704108E-17
4.231003E+03	1.875267E-15	1.684349E-17
4.240958E+03	1.869426E-15	1.665560E-17
4.250913E+03	1.864342E-15	1.647690E-17
4.260869E+03	1.860077E-15	1.630782E-17
4.270824E+03	1.856714E-15	1.614894E-17
4.280779E+03	1.854356E-15	1.600100E-17
4.290735E+03	1.853105E-15	1.586471E-17
4.300690E+03	1.853019E-15	1.574040E-17
4.310645E+03	1.854138E-15	1.562821E-17
4.320601E+03	1.856332E-15	1.552688E-17
4.330556E+03	1.859401E-15	1.543457E-17
4.340511E+03	1.862949E-15	1.534786E-17
4.350466E+03	1.866419E-15	1.526210E-17
4.360422E+03	1.869135E-15	1.517181E-17
4.370377E+03	1.870614E-15	1.507324E-17
4.380332E+03	1.871323E-15	1.497033E-17
4.390288E+03	1.872685E-15	1.487449E-17
4.400243E+03	1.876189E-15	1.479735E-17
4.410198E+03	1.883111E-15	1.474855E-17
4.420154E+03	1.894470E-15	1.473544E-17
4.430109E+03	1.910946E-15	1.476259E-17
4.440064E+03	1.932919E-15	1.483212E-17
4.450019E+03	1.960484E-15	1.494399E-17
4.459975E+03	1.993404E-15	1.509558E-17
4.469930E+03	2.031217E-15	1.528272E-17
4.479885E+03	2.073189E-15	1.549930E-17
4.489841E+03	2.118335E-15	1.573752E-17
4.499796E+03	2.165483E-15	1.598837E-17
4.509751E+03	2.213282E-15	1.624182E-17
4.519707E+03	2.260255E-15	1.648711E-17
4.529662E+03	2.304856E-15	1.671327E-17
4.539617E+03	2.345497E-15	1.690926E-17
4.549572E+03	2.380633E-15	1.706462E-17
4.559528E+03	2.408909E-15	1.717045E-17
4.569483E+03	2.429070E-15	1.721876E-17
4.579438E+03	2.440145E-15	1.720368E-17
4.589394E+03	2.441538E-15	1.712213E-17
4.599349E+03	2.432998E-15	1.697341E-17
4.609304E+03	2.414594E-15	1.675907E-17
4.619260E+03	2.386925E-15	1.648424E-17
4.629215E+03	2.350777E-15	1.615519E-17
4.639170E+03	2.307359E-15	1.578095E-17
4.649125E+03	2.258020E-15	1.537129E-17
4.659081E+03	2.204219E-15	1.493654E-17
4.669036E+03	2.147416E-15	1.448680E-17
4.678991E+03	2.088974E-15	1.403134E-17
4.688947E+03	2.030111E-15	1.357829E-17
4.698902E+03	1.971724E-15	1.313349E-17
4.708857E+03	1.914411E-15	1.270066E-17
4.718813E+03	1.858440E-15	1.228127E-17
4.728768E+03	1.803662E-15	1.187403E-17
4.738723E+03	1.749705E-15	1.147619E-17
4.748678E+03	1.695960E-15	1.108355E-17
4.758634E+03	1.642046E-15	1.069342E-17
4.768589E+03	1.588247E-15	1.030748E-17
4.778544E+03	1.535882E-15	9.934115E-18
4.788500E+03	1.486570E-15	9.583515E-18
4.798455E+03	1.441666E-15	9.264056E-18
4.808410E+03	1.402099E-15	8.981295E-18
4.818366E+03	1.368436E-15	8.738426E-18
4.828321E+03	1.340854E-15	8.536129E-18
4.838276E+03	1.319218E-15	8.373118E-18
4.848231E+03	1.303192E-15	8.246856E-18
4.858187E+03	1.292296E-15	8.153938E-18
4.868142E+03	1.285919E-15	8.090193E-18
4.878097E+03	1.283417E-15	8.051289E-18
4.888053E+03	1.284080E-15	8.032534E-18
4.898008E+03	1.287250E-15	8.029613E-18
4.907963E+03	1.292310E-15	8.038534E-18
4.917919E+03	1.298726E-15	8.055845E-18
4.927874E+03	1.306094E-15	8.078960E-18
4.937829E+03	1.314108E-15	8.105903E-18
4.947784E+03	1.322616E-15	8.135689E-18
4.957740E+03	1.331552E-15	8.167867E-18
4.967695E+03	1.340961E-15	8.202657E-18
4.977650E+03	1.350950E-15	8.240670E-18
4.987606E+03	1.361714E-15	8.283042E-18
4.997561E+03	1.373413E-15	8.330685E-18
5.007516E+03	1.386233E-15	8.384664E-18
5.017472E+03	1.400354E-15	8.445986E-18
5.027427E+03	1.415884E-15	8.515224E-18
5.037382E+03	1.432902E-15	8.592760E-18
5.047337E+03	1.451434E-15	8.678662E-18
5.057293E+03	1.471455E-15	8.772698E-18
5.067248E+03	1.492883E-15	8.874285E-18
5.077203E+03	1.515613E-15	8.982724E-18
5.087159E+03	1.539533E-15	9.097291E-18
5.097114E+03	1.564476E-15	9.216922E-18
5.107069E+03	1.590340E-15	9.340971E-18
5.117025E+03	1.616955E-15	9.468398E-18
5.126980E+03	1.644260E-15	9.598806E-18
5.136935E+03	1.672166E-15	9.731657E-18
5.146890E+03	1.700615E-15	9.866591E-18
5.156846E+03	1.729545E-15	1.000324E-17
5.166801E+03	1.758863E-15	1.014105E-17
5.176756E+03	1.788463E-15	1.027943E-17
5.186712E+03	1.818164E-15	1.041735E-17
5.196667E+03	1.847778E-15	1.055377E-17
5.206622E+03	1.876953E-15	1.068672E-17
5.216578E+03	1.905338E-15	1.081428E-17
5.226533E+03	1.932502E-15	1.093410E-17
5.236488E+03	1.957987E-15	1.104371E-17
5.246443E+03	1.981295E-15	1.114047E-17
5.256399E+03	2.002010E-15	1.122220E-17
5.266354E+03	2.019713E-15	1.128679E-17
5.276309E+03	2.034075E-15	1.133260E-17
5.286265E+03	2.044816E-15	1.135833E-17
5.296220E+03	2.051772E-15	1.136331E-17
5.306175E+03	2.054789E-15	1.134695E-17
5.316131E+03	2.053836E-15	1.130935E-17
5.326086E+03	2.048943E-15	1.125091E-17
5.336041E+03	2.040256E-15	1.117270E-17
5.345996E+03	2.027926E-15	1.107574E-17
5.355952E+03	2.012277E-15	1.096204E-17
5.365907E+03	1.993690E-15	1.083384E-17
5.375862E+03	1.972626E-15	1.069380E-17
5.385818E+03	1.949565E-15	1.054466E-17
5.395773E+03	1.925065E-15	1.038952E-17
5.405728E+03	1.899726E-15	1.023170E-17
5.415684E+03	1.874088E-15	1.007413E-17
5.425639E+03	1.848775E-15	9.920203E-18
5.435594E+03	1.824386E-15	9.773115E-18
5.445549E+03	1.801600E-15	9.636478E-18
5.455505E+03	1.781171E-15	9.514224E-18
5.465460E+03	1.763594E-15	9.408825E-18
5.475415E+03	1.748869E-15	9.320111E-18
5.485371E+03	1.736162E-15	9.243495E-18
5.495326E+03	1.724333E-15	9.172774E-18
5.505281E+03	1.712181E-15	9.101460E-18
5.515237E+03	1.698776E-15	9.024531E-18
5.525192E+03	1.683438E-15	8.938289E-18
5.535147E+03	1.665839E-15	8.840916E-18
5.545102E+03	1.645892E-15	8.731877E-18
5.555058E+03	1.623810E-15	8.612227E-18
5.565013E+03	1.599997E-15	8.484029E-18
5.574968E+03	1.575062E-15	8.350426E-18
5.584924E+03	1.549669E-15	8.214860E-18
5.594879E+03	1.524580E-15	8.081300E-18
5.604834E+03	1.500590E-15	7.953880E-18
5.614790E+03	1.478461E-15	7.836579E-18
5.624745E+03	1.458921E-15	7.733192E-18
5.634700E+03	1.442594E-15	7.646970E-18
5.644655E+03	1.430043E-15	7.580858E-18
5.654611E+03	1.421731E-15	7.537266E-18
5.664566E+03	1.417993E-15	7.517930E-18
5.674521E+03	1.419052E-15	7.524003E-18
5.684477E+03	1.425012E-15	7.556006E-18
5.694432E+03	1.435892E-15	7.614003E-18
5.704387E+03	1.451521E-15	7.697064E-18
5.714343E+03	1.471668E-15	7.803925E-18
5.724298E+03	1.495944E-15	7.932491E-18
5.734253E+03	1.523825E-15	8.079950E-18
5.744209E+03	1.554711E-15	8.243077E-18
5.754164E+03	1.587920E-15	8.418223E-18
5.764119E+03	1.622659E-15	8.601138E-18
5.774074E+03	1.658081E-15	8.787297E-18
5.784030E+03	1.693335E-15	8.972153E-18
5.793985E+03	1.727482E-15	9.150703E-18
5.803940E+03	1.759653E-15	9.318315E-18
5.813896E+03	1.789019E-15	9.470593E-18
5.823851E+03	1.814849E-15	9.603656E-18
5.833806E+03	1.836563E-15	9.714440E-18
5.843762E+03	1.853682E-15	9.800445E-18
5.853717E+03	1.865982E-15	9.860507E-18
5.863672E+03	1.873341E-15	9.894024E-18
5.873627E+03	1.875811E-15	9.901337E-18
5.883583E+03	1.873580E-15	9.883493E-18
5.893538E+03	1.866933E-15	9.842069E-18
5.903493E+03	1.856253E-15	9.779148E-18
5.913449E+03	1.841901E-15	9.696722E-18
5.923404E+03	1.824309E-15	9.597134E-18
5.933359E+03	1.803942E-15	9.482915E-18
5.943315E+03	1.781232E-15	9.356412E-18
5.953270E+03	1.756554E-15	9.219661E-18
5.963225E+03	1.730352E-15	9.075070E-18
5.973180E+03	1.702938E-15	8.924342E-18
5.983136E+03	1.674704E-15	8.769594E-18
5.993091E+03	1.645893E-15	8.612153E-18
6.003046E+03	1.616769E-15	8.453459E-18
6.013002E+03	1.587575E-15	8.294834E-18
6.022957E+03	1.558486E-15	8.137227E-18
6.032912E+03	1.529681E-15	7.981633E-18
6.042868E+03	1.501320E-15	7.828906E-18
6.052823E+03	1.473661E-15	7.680444E-18
6.062778E+03	1.446927E-15	7.537427E-18
6.072733E+03	1.421492E-15	7.401844E-18
6.082689E+03	1.397748E-15	7.275749E-18
6.092644E+03	1.376138E-15	7.161486E-18
6.102599E+03	1.357155E-15	7.061639E-18
6.112555E+03	1.341299E-15	6.978847E-18
6.122510E+03	1.328981E-15	6.915274E-18
6.132465E+03	1.320502E-15	6.872544E-18
6.142421E+03	1.316009E-15	6.851483E-18
6.152376E+03	1.315338E-15	6.851317E-18
6.162331E+03	1.318074E-15	6.869968E-18
6.172286E+03	1.323446E-15	6.903494E-18
6.182242E+03	1.330338E-15	6.946148E-18
6.192197E+03	1.337285E-15	6.990336E-18
6.202152E+03	1.342643E-15	7.027505E-18
6.212108E+03	1.344956E-15	7.050036E-18
6.222063E+03	1.343718E-15	7.055240E-18
6.232018E+03	1.339725E-15	7.047232E-18
6.241974E+03	1.334207E-15	7.032430E-18
6.251929E+03	1.328403E-15	7.017350E-18
6.261884E+03	1.323314E-15	7.007295E-18
6.271839E+03	1.319647E-15	7.006050E-18
6.281795E+03	1.317809E-15	7.015862E-18
6.291750E+03	1.317909E-15	7.037413E-18
6.301705E+03	1.319775E-15	7.069900E-18
6.311661E+03	1.323090E-15	7.111744E-18
6.321616E+03	1.327417E-15	7.160704E-18
6.331571E+03	1.332222E-15	7.213973E-18
6.341527E+03	1.337021E-15	7.269000E-18
6.351482E+03	1.341351E-15	7.323288E-18
6.361437E+03	1.344837E-15	7.374731E-18
6.371392E+03	1.347215E-15	7.421753E-18
6.381348E+03	1.348392E-15	7.463686E-18
6.391303E+03	1.348340E-15	7.500212E-18
6.401258E+03	1.347200E-15	7.531953E-18
6.411214E+03	1.345168E-15	7.559829E-18
6.421169E+03	1.342498E-15	7.585121E-18
6.431124E+03	1.339489E-15	7.609391E-18
6.441080E+03	1.336415E-15	7.634090E-18
6.451035E+03	1.333541E-15	7.660657E-18
6.460990E+03	1.331032E-15	7.689986E-18
6.470945E+03	1.329085E-15	7.723182E-18
6.480901E+03	1.327808E-15	7.760857E-18
6.490856E+03	1.327239E-15	7.803231E-18
6.500811E+03	1.327425E-15	7.850590E-18
6.510767E+03	1.328391E-15	7.903092E-18
6.520722E+03	1.330170E-15	7.960956E-18
6.530677E+03	1.332750E-15	8.024131E-18
6.540633E+03	1.336093E-15	8.092409E-18
6.550588E+03	1.340067E-15	8.165015E-18
6.560543E+03	1.344522E-15	8.241041E-18
6.570498E+03	1.349290E-15	8.319432E-18
6.580454E+03	1.354140E-15	8.398748E-18
6.590409E+03	1.358790E-15	8.477185E-18
6.600364E+03	1.362987E-15	8.553062E-18
6.610320E+03	1.366424E-15	8.624350E-18
6.620275E+03	1.368876E-15	8.689485E-18
6.630230E+03	1.370050E-15	8.746434E-18
6.640186E+03	1.369729E-15	8.793618E-18
6.650141E+03	1.367764E-15	8.829866E-18
6.660096E+03	1.364034E-15	8.854181E-18
6.670051E+03	1.358454E-15	8.865766E-18
6.680007E+03	1.351027E-15	8.864414E-18
6.689962E+03	1.341843E-15	8.850500E-18
6.699917E+03	1.331007E-15	8.824498E-18
6.709873E+03	1.318719E-15	8.787558E-18
6.719828E+03	1.305157E-15	8.740699E-18
6.729783E+03	1.290619E-15	8.685785E-18
6.739739E+03	1.275333E-15	8.624250E-18
6.749694E+03	1.259624E-15	8.558218E-18
6.759649E+03	1.243720E-15	8.489206E-18
6.769604E+03	1.227907E-15	8.419158E-18
6.779560E+03	1.212430E-15	8.349768E-18
6.789515E+03	1.197493E-15	8.282478E-18
6.799470E+03	1.183319E-15	8.218897E-18
6.809426E+03	1.170066E-15	8.160191E-18
6.819381E+03	1.157905E-15	8.107640E-18
6.829336E+03	1.146909E-15	8.061862E-18
6.839292E+03	1.137208E-15	8.023872E-18
6.849247E+03	1.128843E-15	7.994061E-18
6.859202E+03	1.121849E-15	7.972793E-18
6.869157E+03	1.116214E-15	7.960084E-18
6.879113E+03	1.111968E-15	7.956242E-18
6.889068E+03	1.109006E-15	7.960617E-18
6.899023E+03	1.107327E-15	7.973286E-18
6.908979E+03	1.106798E-15	7.993369E-18
6.918934E+03	1.107305E-15	8.020097E-18
6.928889E+03	1.108729E-15	8.052683E-18
6.938845E+03	1.110895E-15	8.089877E-18
6.948800E+03	1.113629E-15	8.130448E-18
6.958755E+03	1.116748E-15	8.173076E-18
6.968710E+03	1.120060E-15	8.216366E-18
6.978666E+03	1.123375E-15	8.258916E-18
6.988621E+03	1.126481E-15	8.299156E-18
6.998576E+03	1.129240E-15	8.336047E-18
7.008532E+03	1.131416E-15	8.367819E-18
7.018487E+03	1.132921E-15	8.393798E-18
7.028442E+03	1.133558E-15	8.412478E-18
7.038398E+03	1.133266E-15	8.423389E-18
7.048353E+03	1.131955E-15	8.425817E-18
7.058308E+03	1.129586E-15	8.419461E-18
7.068263E+03	1.126184E-15	8.404471E-18
7.078219E+03	1.121743E-15	8.380797E-18
7.088174E+03	1.116361E-15	8.349163E-18
7.098129E+03	1.110126E-15	8.310207E-18
7.108085E+03	1.103191E-15	8.265098E-18
7.118040E+03	1.095706E-15	8.214965E-18
7.127995E+03	1.087804E-15	8.160820E-18
7.137951E+03	1.079659E-15	8.103991E-18
7.147906E+03	1.071369E-15	8.045240E-18
7.157861E+03	1.063102E-15	7.985853E-18
7.167817E+03	1.054942E-15	7.926498E-18
7.177772E+03	1.046954E-15	7.867691E-18
7.187727E+03	1.039226E-15	7.810118E-18
7.197682E+03	1.031807E-15	7.754179E-18
7.207638E+03	1.024710E-15	7.699998E-18
7.217593E+03	1.017957E-15	7.647782E-18
7.227548E+03	1.011559E-15	7.597629E-18
7.237504E+03	1.005519E-15	7.549588E-18
7.247459E+03	9.998305E-16	7.503637E-18
7.257414E+03	9.944377E-16	7.459385E-18
7.267370E+03	9.893601E-16	7.417000E-18
7.277325E+03	9.845514E-16	7.376160E-18
7.287280E+03	9.799609E-16	7.336509E-18
7.297235E+03	9.755737E-16	7.297960E-18
7.307191E+03	9.713154E-16	7.259981E-18
7.317146E+03	9.671479E-16	7.222314E-18
7.327101E+03	9.630289E-16	7.184670E-18
7.337057E+03	9.588914E-16	7.146577E-18
7.347012E+03	9.547077E-16	7.107860E-18
7.356967E+03	9.503698E-16	7.067746E-18
7.366923E+03	9.458745E-16	7.026246E-18
7.376878E+03	9.411457E-16	6.982831E-18
7.386833E+03	9.361810E-16	6.937519E-18
7.396788E+03	9.309538E-16	6.890152E-18
7.406744E+03	9.254731E-16	6.840837E-18
7.416699E+03	9.197857E-16	6.789958E-18
7.426654E+03	9.139115E-16	6.737701E-18
7.436610E+03	9.079623E-16	6.684927E-18
7.446565E+03	9.019570E-16	6.631810E-18
7.456520E+03	8.959976E-16	6.579131E-18
7.466476E+03	8.901269E-16	6.527228E-18
7.476431E+03	8.844642E-16	6.476990E-18
7.486386E+03	8.790428E-16	6.428671E-18
7.496341E+03	8.739093E-16	6.382625E-18
7.506297E+03	8.691227E-16	6.339292E-18
7.516252E+03	8.647138E-16	6.298907E-18
7.526207E+03	8.607360E-16	6.261867E-18
7.536163E+03	8.571438E-16	6.227851E-18
7.546118E+03	8.539275E-16	6.196797E-18
7.556073E+03	8.510544E-16	6.168482E-18
7.566029E+03	8.484394E-16	6.142302E-18
7.575984E+03	8.460258E-16	6.117864E-18
7.585939E+03	8.437200E-16	6.094512E-18
7.595894E+03	8.414989E-16	6.072099E-18
7.605850E+03	8.392775E-16	6.050037E-18
7.615805E+03	8.370583E-16	6.028370E-18
7.625760E+03	8.347824E-16	6.006699E-18
7.635716E+03	8.324819E-16	5.985282E-18
7.645671E+03	8.301269E-16	5.963933E-18
7.655626E+03	8.277763E-16	5.943101E-18
7.665582E+03	8.254453E-16	5.922922E-18
7.675537E+03	8.231757E-16	5.903726E-18
7.685492E+03	8.210142E-16	5.885873E-18
7.695447E+03	8.190099E-16	5.869742E-18
7.705403E+03	8.172026E-16	5.855647E-18
7.715358E+03	8.156064E-16	5.843719E-18
7.725313E+03	8.142762E-16	5.834379E-18
