#wls	flux	fluxerr
1.592848E+03	1.116727E-16	1.667608E-18
1.632669E+03	1.171634E-16	1.741201E-18
1.672491E+03	1.224304E-16	1.810485E-18
1.712312E+03	1.274234E-16	1.874742E-18
1.752133E+03	1.320120E-16	1.932095E-18
1.791954E+03	1.360153E-16	1.979971E-18
1.831775E+03	1.391034E-16	2.013708E-18
1.871597E+03	1.409503E-16	2.028817E-18
1.911418E+03	1.411966E-16	2.020444E-18
1.951239E+03	1.395754E-16	1.985193E-18
1.991060E+03	1.362093E-16	1.925286E-18
2.030881E+03	1.318251E-16	1.851409E-18
2.070703E+03	1.279655E-16	1.785385E-18
2.110524E+03	1.267663E-16	1.756685E-18
2.150345E+03	1.302688E-16	1.792650E-18
2.190166E+03	1.396777E-16	1.908353E-18
2.229987E+03	1.550378E-16	2.102587E-18
2.269809E+03	1.754542E-16	2.361408E-18
2.309630E+03	1.996227E-16	2.665699E-18
2.349451E+03	2.263721E-16	2.998596E-18
2.389272E+03	2.548147E-16	3.347422E-18
2.429093E+03	2.844345E-16	3.704700E-18
2.468915E+03	3.149551E-16	4.066256E-18
2.508736E+03	3.463276E-16	4.430940E-18
2.548557E+03	3.785788E-16	4.798564E-18
2.588378E+03	4.118224E-16	5.170012E-18
2.628199E+03	4.461424E-16	5.545721E-18
2.668021E+03	4.816129E-16	5.925952E-18
2.707842E+03	5.182833E-16	6.310609E-18
2.747663E+03	5.561157E-16	6.698504E-18
2.787484E+03	5.950261E-16	7.087897E-18
2.827305E+03	6.348612E-16	7.476267E-18
2.867127E+03	6.754471E-16	7.860920E-18
2.906948E+03	7.166211E-16	8.239374E-18
2.946769E+03	7.582261E-16	8.609297E-18
2.986590E+03	8.001373E-16	8.968808E-18
2.996546E+03	8.106460E-16	9.056818E-18
3.006501E+03	8.211456E-16	9.143830E-18
3.016456E+03	8.316640E-16	9.230151E-18
3.026411E+03	8.421698E-16	9.315426E-18
3.036367E+03	8.527526E-16	9.400640E-18
3.046322E+03	8.634599E-16	9.486301E-18
3.056277E+03	8.743198E-16	9.572699E-18
3.066233E+03	8.852639E-16	9.659065E-18
3.076188E+03	8.963161E-16	9.745646E-18
3.086143E+03	9.074092E-16	9.831695E-18
3.096099E+03	9.185501E-16	9.917277E-18
3.106054E+03	9.297094E-16	1.000207E-17
3.116009E+03	9.408400E-16	1.008556E-17
3.125964E+03	9.519503E-16	1.016783E-17
3.135920E+03	9.629939E-16	1.024839E-17
3.145875E+03	9.739611E-16	1.032713E-17
3.155830E+03	9.848249E-16	1.040379E-17
3.165786E+03	9.955587E-16	1.047808E-17
3.175741E+03	1.006153E-15	1.054993E-17
3.185696E+03	1.016583E-15	1.061907E-17
3.195652E+03	1.026805E-15	1.068507E-17
3.205607E+03	1.036829E-15	1.074805E-17
3.215562E+03	1.046612E-15	1.080761E-17
3.225517E+03	1.056149E-15	1.086369E-17
3.235473E+03	1.065416E-15	1.091610E-17
3.245428E+03	1.074374E-15	1.096445E-17
3.255383E+03	1.083036E-15	1.100892E-17
3.265339E+03	1.091348E-15	1.104899E-17
3.275294E+03	1.099327E-15	1.108486E-17
3.285249E+03	1.106954E-15	1.111640E-17
3.295205E+03	1.114183E-15	1.114318E-17
3.305160E+03	1.121035E-15	1.116546E-17
3.315115E+03	1.127500E-15	1.118317E-17
3.325070E+03	1.133554E-15	1.119614E-17
3.335026E+03	1.139192E-15	1.120437E-17
3.344981E+03	1.144412E-15	1.120787E-17
3.354936E+03	1.149207E-15	1.120665E-17
3.364892E+03	1.153571E-15	1.120068E-17
3.374847E+03	1.157492E-15	1.118991E-17
3.384802E+03	1.160941E-15	1.117412E-17
3.394758E+03	1.163886E-15	1.115306E-17
3.404713E+03	1.166335E-15	1.112686E-17
3.414668E+03	1.168214E-15	1.109490E-17
3.424623E+03	1.169505E-15	1.105708E-17
3.434579E+03	1.170155E-15	1.101295E-17
3.444534E+03	1.170126E-15	1.096228E-17
3.454489E+03	1.169356E-15	1.090456E-17
3.464445E+03	1.167807E-15	1.083952E-17
3.474400E+03	1.165458E-15	1.076710E-17
3.484355E+03	1.162278E-15	1.068710E-17
3.494311E+03	1.158274E-15	1.059970E-17
3.504266E+03	1.153415E-15	1.050473E-17
3.514221E+03	1.147739E-15	1.040265E-17
3.524176E+03	1.141261E-15	1.029372E-17
3.534132E+03	1.134028E-15	1.017846E-17
3.544087E+03	1.126102E-15	1.005751E-17
3.554042E+03	1.117537E-15	9.931471E-18
3.563998E+03	1.108454E-15	9.801494E-18
3.573953E+03	1.098954E-15	9.668547E-18
3.583908E+03	1.089161E-15	9.533767E-18
3.593864E+03	1.079258E-15	9.398803E-18
3.603819E+03	1.069408E-15	9.265073E-18
3.613774E+03	1.059808E-15	9.134284E-18
3.623729E+03	1.050669E-15	9.008209E-18
3.633685E+03	1.042213E-15	8.888690E-18
3.643640E+03	1.034674E-15	8.777605E-18
3.653595E+03	1.028293E-15	8.676888E-18
3.663551E+03	1.023332E-15	8.588570E-18
3.673506E+03	1.020060E-15	8.514720E-18
3.683461E+03	1.018751E-15	8.457361E-18
3.693417E+03	1.019723E-15	8.418865E-18
3.703372E+03	1.023259E-15	8.401250E-18
3.713327E+03	1.029691E-15	8.406867E-18
3.723282E+03	1.039342E-15	8.437935E-18
3.733238E+03	1.052550E-15	8.496748E-18
3.743193E+03	1.069678E-15	8.585727E-18
3.753148E+03	1.091047E-15	8.706880E-18
3.763104E+03	1.117023E-15	8.862527E-18
3.773059E+03	1.147963E-15	9.054848E-18
3.783014E+03	1.184190E-15	9.285664E-18
3.792970E+03	1.226046E-15	9.556904E-18
3.802925E+03	1.273827E-15	9.870084E-18
3.812880E+03	1.327753E-15	1.022605E-17
3.822835E+03	1.387970E-15	1.062506E-17
3.832791E+03	1.454543E-15	1.106671E-17
3.842746E+03	1.527329E-15	1.154903E-17
3.852701E+03	1.606040E-15	1.206896E-17
3.862657E+03	1.690124E-15	1.262154E-17
3.872612E+03	1.778759E-15	1.319992E-17
3.882567E+03	1.870811E-15	1.379507E-17
3.892523E+03	1.964785E-15	1.439554E-17
3.902478E+03	2.058892E-15	1.498805E-17
3.912433E+03	2.151086E-15	1.555776E-17
3.922388E+03	2.239098E-15	1.608864E-17
3.932344E+03	2.320581E-15	1.656451E-17
3.942299E+03	2.393261E-15	1.697019E-17
3.952254E+03	2.455057E-15	1.729226E-17
3.962210E+03	2.504260E-15	1.752032E-17
3.972165E+03	2.539642E-15	1.764763E-17
3.982120E+03	2.560545E-15	1.767161E-17
3.992076E+03	2.566893E-15	1.759381E-17
4.002031E+03	2.559265E-15	1.742024E-17
4.011986E+03	2.538803E-15	1.716064E-17
4.021941E+03	2.507121E-15	1.682766E-17
4.031897E+03	2.466157E-15	1.643584E-17
4.041852E+03	2.418047E-15	1.600063E-17
4.051807E+03	2.365006E-15	1.553760E-17
4.061763E+03	2.309161E-15	1.506137E-17
4.071718E+03	2.252487E-15	1.458509E-17
4.081673E+03	2.196697E-15	1.411994E-17
4.091629E+03	2.143246E-15	1.367505E-17
4.101584E+03	2.093284E-15	1.325741E-17
4.111539E+03	2.047688E-15	1.287201E-17
4.121494E+03	2.007100E-15	1.252228E-17
4.131450E+03	1.971935E-15	1.221006E-17
4.141405E+03	1.942439E-15	1.193611E-17
4.151360E+03	1.918678E-15	1.170005E-17
4.161316E+03	1.900628E-15	1.150092E-17
4.171271E+03	1.888132E-15	1.133700E-17
4.181226E+03	1.881000E-15	1.120639E-17
4.191182E+03	1.878935E-15	1.110657E-17
4.201137E+03	1.881611E-15	1.103496E-17
4.211092E+03	1.888608E-15	1.098847E-17
4.221047E+03	1.899509E-15	1.096410E-17
4.231003E+03	1.913771E-15	1.095823E-17
4.240958E+03	1.930836E-15	1.096724E-17
4.250913E+03	1.949996E-15	1.098679E-17
4.260869E+03	1.970455E-15	1.101217E-17
4.270824E+03	1.991356E-15	1.103848E-17
4.280779E+03	2.011655E-15	1.105994E-17
4.290735E+03	2.030296E-15	1.107092E-17
4.300690E+03	2.046094E-15	1.106526E-17
4.310645E+03	2.057957E-15	1.103753E-17
4.320601E+03	2.064836E-15	1.098270E-17
4.330556E+03	2.065867E-15	1.089690E-17
4.340511E+03	2.060499E-15	1.077805E-17
4.350466E+03	2.048558E-15	1.062613E-17
4.360422E+03	2.030395E-15	1.044381E-17
4.370377E+03	2.006946E-15	1.023667E-17
4.380332E+03	1.980123E-15	1.001510E-17
4.390288E+03	1.952547E-15	9.792651E-18
4.400243E+03	1.927029E-15	9.583411E-18
4.410198E+03	1.906289E-15	9.400531E-18
4.420154E+03	1.892807E-15	9.255539E-18
4.430109E+03	1.888679E-15	9.157703E-18
4.440064E+03	1.895645E-15	9.114261E-18
4.450019E+03	1.915055E-15	9.130326E-18
4.459975E+03	1.947903E-15	9.209146E-18
4.469930E+03	1.994816E-15	9.352119E-18
4.479885E+03	2.056111E-15	9.559137E-18
4.489841E+03	2.131762E-15	9.828512E-18
4.499796E+03	2.221417E-15	1.015711E-17
4.509751E+03	2.324257E-15	1.053978E-17
4.519707E+03	2.439006E-15	1.096947E-17
4.529662E+03	2.563820E-15	1.143684E-17
4.539617E+03	2.696190E-15	1.192994E-17
4.549572E+03	2.833045E-15	1.243472E-17
4.559528E+03	2.970674E-15	1.293481E-17
4.569483E+03	3.104956E-15	1.341264E-17
4.579438E+03	3.231481E-15	1.384994E-17
4.589394E+03	3.345924E-15	1.422938E-17
4.599349E+03	3.444173E-15	1.453510E-17
4.609304E+03	3.522587E-15	1.475368E-17
4.619260E+03	3.578308E-15	1.487535E-17
4.629215E+03	3.609360E-15	1.489427E-17
4.639170E+03	3.614719E-15	1.480863E-17
4.649125E+03	3.594351E-15	1.462067E-17
4.659081E+03	3.549353E-15	1.433708E-17
4.669036E+03	3.481678E-15	1.396775E-17
4.678991E+03	3.394018E-15	1.352520E-17
4.688947E+03	3.289773E-15	1.302434E-17
4.698902E+03	3.172797E-15	1.248142E-17
4.708857E+03	3.047114E-15	1.191290E-17
4.718813E+03	2.916869E-15	1.133526E-17
4.728768E+03	2.785987E-15	1.076370E-17
4.738723E+03	2.658139E-15	1.021206E-17
4.748678E+03	2.536577E-15	9.692268E-18
4.758634E+03	2.424121E-15	9.214359E-18
4.768589E+03	2.322910E-15	8.785574E-18
4.778544E+03	2.233803E-15	8.408191E-18
4.788500E+03	2.157361E-15	8.083364E-18
4.798455E+03	2.093884E-15	7.811307E-18
4.808410E+03	2.043474E-15	7.591554E-18
4.818366E+03	2.006038E-15	7.422977E-18
4.828321E+03	1.981333E-15	7.303971E-18
4.838276E+03	1.968925E-15	7.232301E-18
4.848231E+03	1.968237E-15	7.205290E-18
4.858187E+03	1.978493E-15	7.219615E-18
4.868142E+03	1.998749E-15	7.271426E-18
4.878097E+03	2.027734E-15	7.355768E-18
4.888053E+03	2.063868E-15	7.466655E-18
4.898008E+03	2.105197E-15	7.596838E-18
4.907963E+03	2.149454E-15	7.738025E-18
4.917919E+03	2.194031E-15	7.880798E-18
4.927874E+03	2.236183E-15	8.015318E-18
4.937829E+03	2.273241E-15	8.132096E-18
4.947784E+03	2.302796E-15	8.222638E-18
4.957740E+03	2.323017E-15	8.280541E-18
4.967695E+03	2.332818E-15	8.302084E-18
4.977650E+03	2.332049E-15	8.286860E-18
4.987606E+03	2.321380E-15	8.237366E-18
4.997561E+03	2.302144E-15	8.158401E-18
5.007516E+03	2.276171E-15	8.056487E-18
5.017472E+03	2.245549E-15	7.939018E-18
5.027427E+03	2.212394E-15	7.813444E-18
5.037382E+03	2.178744E-15	7.686911E-18
5.047337E+03	2.146378E-15	7.565616E-18
5.057293E+03	2.116714E-15	7.454480E-18
5.067248E+03	2.090899E-15	7.357444E-18
5.077203E+03	2.069766E-15	7.277355E-18
5.087159E+03	2.053917E-15	7.216235E-18
5.097114E+03	2.043835E-15	7.175693E-18
5.107069E+03	2.039932E-15	7.157089E-18
5.117025E+03	2.042604E-15	7.161731E-18
5.126980E+03	2.052253E-15	7.190943E-18
5.136935E+03	2.069356E-15	7.246319E-18
5.146890E+03	2.094355E-15	7.329329E-18
5.156846E+03	2.127760E-15	7.441669E-18
5.166801E+03	2.170001E-15	7.584761E-18
5.176756E+03	2.221431E-15	7.759754E-18
5.186712E+03	2.282240E-15	7.967216E-18
5.196667E+03	2.352378E-15	8.206880E-18
5.206622E+03	2.431427E-15	8.477192E-18
5.216578E+03	2.518662E-15	8.775527E-18
5.226533E+03	2.612840E-15	9.097453E-18
5.236488E+03	2.712269E-15	9.436991E-18
5.246443E+03	2.814766E-15	9.786463E-18
5.256399E+03	2.917750E-15	1.013683E-17
5.266354E+03	3.018323E-15	1.047796E-17
5.276309E+03	3.113404E-15	1.079915E-17
5.286265E+03	3.199879E-15	1.108959E-17
5.296220E+03	3.274762E-15	1.133896E-17
5.306175E+03	3.335500E-15	1.153851E-17
5.316131E+03	3.379928E-15	1.168084E-17
5.326086E+03	3.406602E-15	1.176110E-17
5.336041E+03	3.414927E-15	1.177739E-17
5.345996E+03	3.405015E-15	1.173030E-17
5.355952E+03	3.377975E-15	1.162384E-17
5.365907E+03	3.335642E-15	1.146451E-17
5.375862E+03	3.280645E-15	1.126156E-17
5.385818E+03	3.216149E-15	1.102601E-17
5.395773E+03	3.145867E-15	1.077072E-17
5.405728E+03	3.073717E-15	1.050922E-17
5.415684E+03	3.003852E-15	1.025573E-17
5.425639E+03	2.940376E-15	1.002424E-17
5.435594E+03	2.887398E-15	9.828690E-18
5.445549E+03	2.848749E-15	9.681953E-18
5.455505E+03	2.827825E-15	9.595354E-18
5.465460E+03	2.827194E-15	9.577315E-18
5.475415E+03	2.846724E-15	9.627038E-18
5.485371E+03	2.881534E-15	9.727669E-18
5.495326E+03	2.924856E-15	9.856095E-18
5.505281E+03	2.969440E-15	9.987730E-18
5.515237E+03	3.008483E-15	1.009967E-17
5.525192E+03	3.035984E-15	1.017188E-17
5.535147E+03	3.047446E-15	1.018953E-17
5.545102E+03	3.039952E-15	1.014318E-17
5.555058E+03	3.012377E-15	1.002948E-17
5.565013E+03	2.965329E-15	9.850892E-18
5.574968E+03	2.900882E-15	9.614737E-18
5.584924E+03	2.822185E-15	9.331857E-18
5.594879E+03	2.733162E-15	9.015571E-18
5.604834E+03	2.637911E-15	8.679666E-18
5.614790E+03	2.540597E-15	8.338019E-18
5.624745E+03	2.444972E-15	8.003027E-18
5.634700E+03	2.354429E-15	7.685784E-18
5.644655E+03	2.271772E-15	7.395337E-18
5.654611E+03	2.199238E-15	7.138788E-18
5.664566E+03	2.138603E-15	6.921659E-18
5.674521E+03	2.091185E-15	6.747902E-18
5.684477E+03	2.057953E-15	6.620284E-18
5.694432E+03	2.039555E-15	6.540496E-18
5.704387E+03	2.036382E-15	6.509350E-18
5.714343E+03	2.048674E-15	6.527158E-18
5.724298E+03	2.076429E-15	6.593432E-18
5.734253E+03	2.119401E-15	6.706897E-18
5.744209E+03	2.177121E-15	6.865570E-18
5.754164E+03	2.248781E-15	7.066415E-18
5.764119E+03	2.333139E-15	7.305062E-18
5.774074E+03	2.428436E-15	7.575573E-18
5.784030E+03	2.532420E-15	7.870562E-18
5.793985E+03	2.642308E-15	8.181097E-18
5.803940E+03	2.754841E-15	8.496909E-18
5.813896E+03	2.866423E-15	8.806853E-18
5.823851E+03	2.973421E-15	9.099860E-18
5.833806E+03	3.072340E-15	9.365450E-18
5.843762E+03	3.160136E-15	9.594706E-18
5.853717E+03	3.234332E-15	9.780582E-18
5.863672E+03	3.293118E-15	9.918163E-18
5.873627E+03	3.335492E-15	1.000507E-17
5.883583E+03	3.361116E-15	1.004096E-17
5.893538E+03	3.370459E-15	1.002790E-17
5.903493E+03	3.364334E-15	9.968960E-18
5.913449E+03	3.344148E-15	9.868933E-18
5.923404E+03	3.311639E-15	9.733496E-18
5.933359E+03	3.268676E-15	9.568633E-18
5.943315E+03	3.217289E-15	9.380687E-18
5.953270E+03	3.159570E-15	9.176090E-18
5.963225E+03	3.097506E-15	8.960853E-18
5.973180E+03	3.033055E-15	8.740815E-18
5.983136E+03	2.967926E-15	8.520995E-18
5.993091E+03	2.903779E-15	8.306194E-18
6.003046E+03	2.841926E-15	8.100155E-18
6.013002E+03	2.783598E-15	7.906322E-18
6.022957E+03	2.729636E-15	7.726997E-18
6.032912E+03	2.680841E-15	7.564334E-18
6.042868E+03	2.637727E-15	7.419668E-18
6.052823E+03	2.600675E-15	7.293938E-18
6.062778E+03	2.569852E-15	7.187495E-18
6.072733E+03	2.545403E-15	7.100632E-18
6.082689E+03	2.527172E-15	7.032819E-18
6.092644E+03	2.514988E-15	6.983512E-18
6.102599E+03	2.508335E-15	6.951222E-18
6.112555E+03	2.506546E-15	6.934086E-18
6.122510E+03	2.508654E-15	6.929439E-18
6.132465E+03	2.513405E-15	6.933852E-18
6.142421E+03	2.519085E-15	6.942665E-18
6.152376E+03	2.523671E-15	6.950386E-18
6.162331E+03	2.524701E-15	6.950335E-18
6.172286E+03	2.519420E-15	6.935004E-18
6.182242E+03	2.504967E-15	6.896512E-18
6.192197E+03	2.478835E-15	6.827873E-18
6.202152E+03	2.439460E-15	6.724638E-18
6.212108E+03	2.387026E-15	6.587098E-18
6.222063E+03	2.324423E-15	6.422967E-18
6.232018E+03	2.256841E-15	6.246319E-18
6.241974E+03	2.190081E-15	6.072982E-18
6.251929E+03	2.129169E-15	5.916753E-18
6.261884E+03	2.077664E-15	5.787487E-18
6.271839E+03	2.037692E-15	5.691157E-18
6.281795E+03	2.010219E-15	5.630612E-18
6.291750E+03	1.995240E-15	5.606048E-18
6.301705E+03	1.992149E-15	5.616015E-18
6.311661E+03	1.999808E-15	5.657590E-18
6.321616E+03	2.016813E-15	5.727084E-18
6.331571E+03	2.041502E-15	5.820056E-18
6.341527E+03	2.072083E-15	5.931637E-18
6.351482E+03	2.106607E-15	6.056448E-18
6.361437E+03	2.143110E-15	6.188983E-18
6.371392E+03	2.179634E-15	6.323659E-18
6.381348E+03	2.214307E-15	6.455038E-18
6.391303E+03	2.245499E-15	6.578271E-18
6.401258E+03	2.271923E-15	6.689395E-18
6.411214E+03	2.292687E-15	6.785516E-18
6.421169E+03	2.307317E-15	6.864926E-18
6.431124E+03	2.315806E-15	6.927260E-18
6.441080E+03	2.318548E-15	6.973346E-18
6.451035E+03	2.316245E-15	7.004961E-18
6.460990E+03	2.309835E-15	7.024638E-18
6.470945E+03	2.300563E-15	7.035906E-18
6.480901E+03	2.289752E-15	7.042615E-18
6.490856E+03	2.278796E-15	7.048927E-18
6.500811E+03	2.269270E-15	7.059672E-18
6.510767E+03	2.262485E-15	7.078958E-18
6.520722E+03	2.259266E-15	7.109476E-18
6.530677E+03	2.260395E-15	7.153833E-18
6.540633E+03	2.266541E-15	7.214340E-18
6.550588E+03	2.277912E-15	7.291887E-18
6.560543E+03	2.294563E-15	7.386885E-18
6.570498E+03	2.316129E-15	7.498393E-18
6.580454E+03	2.341830E-15	7.624086E-18
6.590409E+03	2.370724E-15	7.761060E-18
6.600364E+03	2.401467E-15	7.905011E-18
6.610320E+03	2.432695E-15	8.051479E-18
6.620275E+03	2.462806E-15	8.195100E-18
6.630230E+03	2.490329E-15	8.330847E-18
6.640186E+03	2.513864E-15	8.453820E-18
6.650141E+03	2.532170E-15	8.559562E-18
6.660096E+03	2.544307E-15	8.644565E-18
6.670051E+03	2.549686E-15	8.706452E-18
6.680007E+03	2.547955E-15	8.743626E-18
6.689962E+03	2.539119E-15	8.755719E-18
6.699917E+03	2.523475E-15	8.743369E-18
6.709873E+03	2.501563E-15	8.708106E-18
6.719828E+03	2.474118E-15	8.652176E-18
6.729783E+03	2.442007E-15	8.578359E-18
6.739739E+03	2.406133E-15	8.489615E-18
6.749694E+03	2.367514E-15	8.389383E-18
6.759649E+03	2.327115E-15	8.280984E-18
6.769604E+03	2.285824E-15	8.167523E-18
6.779560E+03	2.244554E-15	8.052258E-18
6.789515E+03	2.204074E-15	7.937979E-18
6.799470E+03	2.165125E-15	7.827416E-18
6.809426E+03	2.128374E-15	7.723079E-18
6.819381E+03	2.094420E-15	7.627261E-18
6.829336E+03	2.063830E-15	7.542163E-18
6.839292E+03	2.036986E-15	7.469339E-18
6.849247E+03	2.014322E-15	7.410538E-18
6.859202E+03	1.996163E-15	7.367126E-18
6.869157E+03	1.982725E-15	7.340079E-18
6.879113E+03	1.974223E-15	7.330356E-18
6.889068E+03	1.970747E-15	7.338466E-18
6.899023E+03	1.972258E-15	7.364418E-18
6.908979E+03	1.978643E-15	7.407940E-18
6.918934E+03	1.989705E-15	7.468430E-18
6.928889E+03	2.005040E-15	7.544486E-18
6.938845E+03	2.024136E-15	7.634281E-18
6.948800E+03	2.046333E-15	7.735392E-18
6.958755E+03	2.070827E-15	7.844836E-18
6.968710E+03	2.096649E-15	7.958963E-18
6.978666E+03	2.122855E-15	8.074190E-18
6.988621E+03	2.148288E-15	8.186090E-18
6.998576E+03	2.171915E-15	8.290679E-18
7.008532E+03	2.192680E-15	8.383863E-18
7.018487E+03	2.209688E-15	8.462151E-18
7.028442E+03	2.222268E-15	8.522881E-18
7.038398E+03	2.229878E-15	8.563900E-18
7.048353E+03	2.232229E-15	8.584013E-18
7.058308E+03	2.229424E-15	8.583549E-18
7.068263E+03	2.221691E-15	8.563332E-18
7.078219E+03	2.209489E-15	8.525081E-18
7.088174E+03	2.193553E-15	8.471610E-18
7.098129E+03	2.174663E-15	8.405921E-18
7.108085E+03	2.153759E-15	8.331653E-18
7.118040E+03	2.131699E-15	8.252143E-18
7.127995E+03	2.109378E-15	8.170885E-18
7.137951E+03	2.087465E-15	8.090506E-18
7.147906E+03	2.066631E-15	8.013642E-18
7.157861E+03	2.047393E-15	7.942342E-18
7.167817E+03	2.029981E-15	7.877542E-18
7.177772E+03	2.014559E-15	7.819918E-18
7.187727E+03	2.001187E-15	7.769740E-18
7.197682E+03	1.989764E-15	7.726652E-18
7.207638E+03	1.980057E-15	7.689783E-18
7.217593E+03	1.971861E-15	7.658362E-18
7.227548E+03	1.964858E-15	7.631187E-18
7.237504E+03	1.958774E-15	7.607224E-18
7.247459E+03	1.953411E-15	7.585725E-18
7.257414E+03	1.948531E-15	7.565799E-18
7.267370E+03	1.944039E-15	7.547101E-18
7.277325E+03	1.939817E-15	7.529203E-18
7.287280E+03	1.935854E-15	7.512087E-18
7.297235E+03	1.932274E-15	7.496267E-18
7.307191E+03	1.929073E-15	7.481754E-18
7.317146E+03	1.926437E-15	7.469299E-18
7.327101E+03	1.924421E-15	7.459146E-18
7.337057E+03	1.923140E-15	7.451765E-18
7.347012E+03	1.922653E-15	7.447419E-18
7.356967E+03	1.922862E-15	7.445752E-18
7.366923E+03	1.923702E-15	7.446550E-18
7.376878E+03	1.924926E-15	7.448883E-18
7.386833E+03	1.926226E-15	7.451597E-18
7.396788E+03	1.927162E-15	7.453021E-18
7.406744E+03	1.927228E-15	7.451239E-18
7.416699E+03	1.925934E-15	7.444397E-18
7.426654E+03	1.922675E-15	7.430198E-18
7.436610E+03	1.916994E-15	7.406915E-18
7.446565E+03	1.908496E-15	7.373061E-18
7.456520E+03	1.897021E-15	7.328047E-18
7.466476E+03	1.882487E-15	7.271572E-18
7.476431E+03	1.864997E-15	7.204037E-18
7.486386E+03	1.844878E-15	7.126711E-18
7.496341E+03	1.822613E-15	7.041461E-18
7.506297E+03	1.798756E-15	6.950423E-18
7.516252E+03	1.774026E-15	6.856374E-18
7.526207E+03	1.749054E-15	6.761755E-18
7.536163E+03	1.724649E-15	6.669684E-18
7.546118E+03	1.701466E-15	6.582699E-18
7.556073E+03	1.680155E-15	6.503319E-18
7.566029E+03	1.661253E-15	6.433639E-18
7.575984E+03	1.645322E-15	6.375846E-18
7.585939E+03	1.632766E-15	6.331537E-18
7.595894E+03	1.623569E-15	6.300682E-18
7.605850E+03	1.617546E-15	6.282598E-18
7.615805E+03	1.614558E-15	6.276793E-18
7.625760E+03	1.614335E-15	6.282260E-18
7.635716E+03	1.616681E-15	6.298292E-18
7.645671E+03	1.621168E-15	6.323271E-18
7.655626E+03	1.627602E-15	6.356493E-18
7.665582E+03	1.635633E-15	6.396648E-18
7.675537E+03	1.644928E-15	6.442490E-18
7.685492E+03	1.655256E-15	6.493158E-18
7.695447E+03	1.666362E-15	6.547712E-18
7.705403E+03	1.678013E-15	6.605283E-18
7.715358E+03	1.689992E-15	6.665067E-18
7.725313E+03	1.702142E-15	6.726484E-18
