#wls	flux	fluxerr
1.592848E+03	1.190552E-16	1.051717E-18
1.632669E+03	1.249098E-16	1.099070E-18
1.672491E+03	1.305328E-16	1.143868E-18
1.712312E+03	1.358689E-16	1.185639E-18
1.752133E+03	1.407916E-16	1.223298E-18
1.791954E+03	1.450791E-16	1.254958E-18
1.831775E+03	1.484046E-16	1.277862E-18
1.871597E+03	1.504047E-16	1.288999E-18
1.911418E+03	1.506937E-16	1.285231E-18
1.951239E+03	1.490086E-16	1.264537E-18
1.991060E+03	1.454323E-16	1.227869E-18
2.030881E+03	1.407550E-16	1.182118E-18
2.070703E+03	1.366273E-16	1.141232E-18
2.110524E+03	1.353069E-16	1.123900E-18
2.150345E+03	1.389688E-16	1.147691E-18
2.190166E+03	1.488964E-16	1.222417E-18
2.229987E+03	1.651489E-16	1.347608E-18
2.269809E+03	1.867986E-16	1.514737E-18
2.309630E+03	2.124312E-16	1.711505E-18
2.349451E+03	2.407529E-16	1.926842E-18
2.389272E+03	2.707901E-16	2.152474E-18
2.429093E+03	3.019510E-16	2.383340E-18
2.468915E+03	3.340018E-16	2.617299E-18
2.508736E+03	3.668982E-16	2.853735E-18
2.548557E+03	4.007022E-16	3.092849E-18
2.588378E+03	4.355958E-16	3.335743E-18
2.628199E+03	4.717144E-16	3.583107E-18
2.668021E+03	5.092316E-16	3.835876E-18
2.707842E+03	5.482438E-16	4.094356E-18
2.747663E+03	5.888827E-16	4.359071E-18
2.787484E+03	6.311842E-16	4.629798E-18
2.827305E+03	6.751925E-16	4.906350E-18
2.867127E+03	7.209407E-16	5.188431E-18
2.906948E+03	7.684644E-16	5.475745E-18
2.946769E+03	8.178177E-16	5.768096E-18
2.986590E+03	8.690643E-16	6.065329E-18
2.996546E+03	8.821697E-16	6.140311E-18
3.006501E+03	8.954046E-16	6.215627E-18
3.016456E+03	9.087445E-16	6.291097E-18
3.026411E+03	9.222420E-16	6.367074E-18
3.036367E+03	9.359404E-16	6.443843E-18
3.046322E+03	9.498999E-16	6.521803E-18
3.056277E+03	9.641379E-16	6.601055E-18
3.066233E+03	9.786680E-16	6.681672E-18
3.076188E+03	9.934230E-16	6.763176E-18
3.086143E+03	1.008418E-15	6.845652E-18
3.096099E+03	1.023606E-15	6.928767E-18
3.106054E+03	1.038984E-15	7.012480E-18
3.116009E+03	1.054526E-15	7.096606E-18
3.125964E+03	1.070208E-15	7.180972E-18
3.135920E+03	1.086006E-15	7.265398E-18
3.145875E+03	1.101916E-15	7.349852E-18
3.155830E+03	1.117893E-15	7.434024E-18
3.165786E+03	1.133933E-15	7.517881E-18
3.175741E+03	1.150013E-15	7.601253E-18
3.185696E+03	1.166106E-15	7.683971E-18
3.195652E+03	1.182209E-15	7.765998E-18
3.205607E+03	1.198254E-15	7.846893E-18
3.215562E+03	1.214278E-15	7.926893E-18
3.225517E+03	1.230192E-15	8.005419E-18
3.235473E+03	1.246032E-15	8.082704E-18
3.245428E+03	1.261729E-15	8.158304E-18
3.255383E+03	1.277276E-15	8.232180E-18
3.265339E+03	1.292645E-15	8.304157E-18
3.275294E+03	1.307788E-15	8.373936E-18
3.285249E+03	1.322716E-15	8.441602E-18
3.295205E+03	1.337362E-15	8.506730E-18
3.305160E+03	1.351697E-15	8.569161E-18
3.315115E+03	1.365735E-15	8.628994E-18
3.325070E+03	1.379409E-15	8.685824E-18
3.335026E+03	1.392695E-15	8.739522E-18
3.344981E+03	1.405568E-15	8.789949E-18
3.354936E+03	1.418017E-15	8.837071E-18
3.364892E+03	1.429961E-15	8.880408E-18
3.374847E+03	1.441354E-15	8.919698E-18
3.384802E+03	1.452161E-15	8.954765E-18
3.394758E+03	1.462298E-15	8.985128E-18
3.404713E+03	1.471694E-15	9.010392E-18
3.414668E+03	1.480226E-15	9.029862E-18
3.424623E+03	1.487810E-15	9.043074E-18
3.434579E+03	1.494330E-15	9.049395E-18
3.444534E+03	1.499636E-15	9.047989E-18
3.454489E+03	1.503617E-15	9.038272E-18
3.464445E+03	1.506154E-15	9.019613E-18
3.474400E+03	1.507178E-15	8.991705E-18
3.484355E+03	1.506564E-15	8.953899E-18
3.494311E+03	1.504278E-15	8.906120E-18
3.504266E+03	1.500262E-15	8.848136E-18
3.514221E+03	1.494502E-15	8.779977E-18
3.524176E+03	1.487013E-15	8.701860E-18
3.534132E+03	1.477826E-15	8.614089E-18
3.544087E+03	1.467032E-15	8.517310E-18
3.554042E+03	1.454708E-15	8.412084E-18
3.563998E+03	1.441000E-15	8.299362E-18
3.573953E+03	1.426105E-15	8.180370E-18
3.583908E+03	1.410225E-15	8.056352E-18
3.593864E+03	1.393620E-15	7.928860E-18
3.603819E+03	1.376568E-15	7.799528E-18
3.613774E+03	1.359379E-15	7.670133E-18
3.623729E+03	1.342398E-15	7.542637E-18
3.633685E+03	1.325963E-15	7.418918E-18
3.643640E+03	1.310468E-15	7.301133E-18
3.653595E+03	1.296280E-15	7.191258E-18
3.663551E+03	1.283806E-15	7.091451E-18
3.673506E+03	1.273475E-15	7.003953E-18
3.683461E+03	1.265692E-15	6.930831E-18
3.693417E+03	1.260899E-15	6.874311E-18
3.703372E+03	1.259574E-15	6.836783E-18
3.713327E+03	1.262175E-15	6.820464E-18
3.723282E+03	1.269178E-15	6.827641E-18
3.733238E+03	1.281102E-15	6.860769E-18
3.743193E+03	1.298441E-15	6.922123E-18
3.753148E+03	1.321701E-15	7.013994E-18
3.763104E+03	1.351414E-15	7.138764E-18
3.773059E+03	1.388107E-15	7.298727E-18
3.783014E+03	1.432308E-15	7.496133E-18
3.792970E+03	1.484549E-15	7.733194E-18
3.802925E+03	1.545332E-15	8.011930E-18
3.812880E+03	1.615082E-15	8.333889E-18
3.822835E+03	1.694099E-15	8.699953E-18
3.832791E+03	1.782581E-15	9.110443E-18
3.842746E+03	1.880498E-15	9.564498E-18
3.852701E+03	1.987526E-15	1.005978E-17
3.862657E+03	2.103021E-15	1.059236E-17
3.872612E+03	2.225893E-15	1.115614E-17
3.882567E+03	2.354517E-15	1.174247E-17
3.892523E+03	2.486716E-15	1.234010E-17
3.902478E+03	2.619777E-15	1.293538E-17
3.912433E+03	2.750436E-15	1.351220E-17
3.922388E+03	2.875028E-15	1.405282E-17
3.932344E+03	2.989945E-15	1.454015E-17
3.942299E+03	3.091598E-15	1.495756E-17
3.952254E+03	3.176687E-15	1.529014E-17
3.962210E+03	3.242622E-15	1.552675E-17
3.972165E+03	3.287660E-15	1.566051E-17
3.982120E+03	3.310833E-15	1.568841E-17
3.992076E+03	3.312386E-15	1.561324E-17
4.002031E+03	3.293545E-15	1.544238E-17
4.011986E+03	3.256259E-15	1.518645E-17
4.021941E+03	3.203400E-15	1.486017E-17
4.031897E+03	3.138177E-15	1.447950E-17
4.041852E+03	3.064074E-15	1.406136E-17
4.051807E+03	2.984530E-15	1.362212E-17
4.061763E+03	2.902814E-15	1.317704E-17
4.071718E+03	2.821825E-15	1.273935E-17
4.081673E+03	2.743827E-15	1.231919E-17
4.091629E+03	2.670747E-15	1.192493E-17
4.101584E+03	2.603956E-15	1.156230E-17
4.111539E+03	2.544405E-15	1.123502E-17
4.121494E+03	2.492713E-15	1.094530E-17
4.131450E+03	2.449192E-15	1.069391E-17
4.141405E+03	2.413895E-15	1.048047E-17
4.151360E+03	2.386684E-15	1.030379E-17
4.161316E+03	2.367269E-15	1.016204E-17
4.171271E+03	2.355242E-15	1.005291E-17
4.181226E+03	2.350038E-15	9.973463E-18
4.191182E+03	2.351124E-15	9.920965E-18
4.201137E+03	2.357828E-15	9.892146E-18
4.211092E+03	2.369500E-15	9.883900E-18
4.221047E+03	2.385440E-15	9.892973E-18
4.231003E+03	2.404841E-15	9.915748E-18
4.240958E+03	2.426923E-15	9.948793E-18
4.250913E+03	2.450754E-15	9.988133E-18
4.260869E+03	2.475219E-15	1.002914E-17
4.270824E+03	2.499094E-15	1.006686E-17
4.280779E+03	2.521073E-15	1.009614E-17
4.290735E+03	2.539639E-15	1.011106E-17
4.300690E+03	2.553159E-15	1.010544E-17
4.310645E+03	2.560177E-15	1.007392E-17
4.320601E+03	2.559267E-15	1.001138E-17
4.330556E+03	2.549386E-15	9.914334E-18
4.340511E+03	2.529842E-15	9.780724E-18
4.350466E+03	2.500602E-15	9.611096E-18
4.360422E+03	2.462445E-15	9.409078E-18
4.370377E+03	2.417138E-15	9.181990E-18
4.380332E+03	2.367751E-15	8.941890E-18
4.390288E+03	2.318467E-15	8.704742E-18
4.400243E+03	2.273669E-15	8.486890E-18
4.410198E+03	2.237316E-15	8.302724E-18
4.420154E+03	2.212921E-15	8.164646E-18
4.430109E+03	2.203281E-15	8.082148E-18
4.440064E+03	2.210261E-15	8.061092E-18
4.450019E+03	2.235145E-15	8.105100E-18
4.459975E+03	2.278838E-15	8.216342E-18
4.469930E+03	2.341604E-15	8.394637E-18
4.479885E+03	2.423316E-15	8.638408E-18
4.489841E+03	2.523498E-15	8.944888E-18
4.499796E+03	2.641077E-15	9.309263E-18
4.509751E+03	2.774391E-15	9.724767E-18
4.519707E+03	2.921256E-15	1.018298E-17
4.529662E+03	3.078508E-15	1.067226E-17
4.539617E+03	3.242260E-15	1.117876E-17
4.549572E+03	3.407965E-15	1.168666E-17
4.559528E+03	3.570538E-15	1.217865E-17
4.569483E+03	3.724503E-15	1.263649E-17
4.579438E+03	3.864450E-15	1.304253E-17
4.589394E+03	3.985668E-15	1.338184E-17
4.599349E+03	4.084026E-15	1.364175E-17
4.609304E+03	4.156265E-15	1.381272E-17
4.619260E+03	4.200186E-15	1.388889E-17
4.629215E+03	4.214636E-15	1.386795E-17
4.639170E+03	4.199392E-15	1.375065E-17
4.649125E+03	4.155334E-15	1.354130E-17
4.659081E+03	4.084174E-15	1.324678E-17
4.669036E+03	3.988494E-15	1.287664E-17
4.678991E+03	3.871597E-15	1.244251E-17
4.688947E+03	3.737277E-15	1.195738E-17
4.698902E+03	3.589804E-15	1.143548E-17
4.708857E+03	3.433690E-15	1.089153E-17
4.718813E+03	3.273481E-15	1.034009E-17
4.728768E+03	3.113342E-15	9.794268E-18
4.738723E+03	2.956821E-15	9.265017E-18
4.748678E+03	2.807143E-15	8.762085E-18
4.758634E+03	2.666895E-15	8.293074E-18
4.768589E+03	2.538128E-15	7.863842E-18
4.778544E+03	2.422915E-15	7.480233E-18
4.788500E+03	2.322791E-15	7.146383E-18
4.798455E+03	2.238635E-15	6.864384E-18
4.808410E+03	2.170694E-15	6.634397E-18
4.818366E+03	2.118995E-15	6.455933E-18
4.828321E+03	2.083112E-15	6.327159E-18
4.838276E+03	2.062459E-15	6.245810E-18
4.848231E+03	2.056154E-15	6.208771E-18
4.858187E+03	2.063078E-15	6.212274E-18
4.868142E+03	2.081842E-15	6.251809E-18
4.878097E+03	2.110708E-15	6.321871E-18
4.888053E+03	2.147451E-15	6.415585E-18
4.898008E+03	2.189495E-15	6.525108E-18
4.907963E+03	2.234004E-15	6.641900E-18
4.917919E+03	2.277733E-15	6.756304E-18
4.927874E+03	2.317458E-15	6.858803E-18
4.937829E+03	2.350221E-15	6.940749E-18
4.947784E+03	2.373889E-15	6.995998E-18
4.957740E+03	2.387022E-15	7.020477E-18
4.967695E+03	2.389169E-15	7.013039E-18
4.977650E+03	2.381211E-15	6.976437E-18
4.987606E+03	2.364898E-15	6.915936E-18
4.997561E+03	2.342299E-15	6.837682E-18
5.007516E+03	2.315758E-15	6.748577E-18
5.017472E+03	2.287599E-15	6.655406E-18
5.027427E+03	2.259977E-15	6.564424E-18
5.037382E+03	2.234584E-15	6.480504E-18
5.047337E+03	2.212815E-15	6.407623E-18
5.057293E+03	2.195738E-15	6.348801E-18
5.067248E+03	2.183837E-15	6.305349E-18
5.077203E+03	2.177308E-15	6.277751E-18
5.087159E+03	2.176288E-15	6.266322E-18
5.097114E+03	2.180950E-15	6.271475E-18
5.107069E+03	2.191417E-15	6.293491E-18
5.117025E+03	2.207975E-15	6.333116E-18
5.126980E+03	2.231066E-15	6.391541E-18
5.136935E+03	2.261268E-15	6.470342E-18
5.146890E+03	2.299198E-15	6.571208E-18
5.156846E+03	2.345503E-15	6.695904E-18
5.166801E+03	2.400774E-15	6.846032E-18
5.176756E+03	2.465537E-15	7.022999E-18
5.186712E+03	2.539827E-15	7.226822E-18
5.196667E+03	2.623510E-15	7.457027E-18
5.206622E+03	2.715994E-15	7.711853E-18
5.216578E+03	2.816088E-15	7.987846E-18
5.226533E+03	2.922012E-15	8.279895E-18
5.236488E+03	3.031651E-15	8.581960E-18
5.246443E+03	3.142340E-15	8.886481E-18
5.256399E+03	3.250991E-15	9.184717E-18
5.266354E+03	3.354418E-15	9.467693E-18
5.276309E+03	3.449475E-15	9.726581E-18
5.286265E+03	3.533088E-15	9.952781E-18
5.296220E+03	3.602519E-15	1.013867E-17
5.306175E+03	3.655637E-15	1.027838E-17
5.316131E+03	3.690927E-15	1.036777E-17
5.326086E+03	3.707567E-15	1.040467E-17
5.336041E+03	3.705526E-15	1.038913E-17
5.345996E+03	3.685583E-15	1.032347E-17
5.355952E+03	3.649113E-15	1.021169E-17
5.365907E+03	3.598206E-15	1.005973E-17
5.375862E+03	3.535380E-15	9.874763E-18
5.385818E+03	3.463634E-15	9.665225E-18
5.395773E+03	3.386213E-15	9.440238E-18
5.405728E+03	3.306496E-15	9.209256E-18
5.415684E+03	3.228268E-15	8.982825E-18
5.425639E+03	3.155578E-15	8.772187E-18
5.435594E+03	3.092370E-15	8.588256E-18
5.445549E+03	3.042914E-15	8.442800E-18
5.455505E+03	3.011570E-15	8.347794E-18
5.465460E+03	3.001480E-15	8.311796E-18
5.475415E+03	3.012532E-15	8.334318E-18
5.485371E+03	3.039522E-15	8.400792E-18
5.495326E+03	3.074790E-15	8.489938E-18
5.505281E+03	3.110214E-15	8.579273E-18
5.515237E+03	3.139091E-15	8.650314E-18
5.525192E+03	3.156054E-15	8.688330E-18
5.535147E+03	3.157046E-15	8.682260E-18
5.545102E+03	3.140145E-15	8.626947E-18
5.555058E+03	3.105186E-15	8.522090E-18
5.565013E+03	3.053259E-15	8.370827E-18
5.574968E+03	2.986654E-15	8.179573E-18
5.584924E+03	2.908487E-15	7.956990E-18
5.594879E+03	2.822236E-15	7.712683E-18
5.604834E+03	2.731482E-15	7.456506E-18
5.614790E+03	2.639734E-15	7.198077E-18
5.624745E+03	2.550189E-15	6.946120E-18
5.634700E+03	2.465651E-15	6.708249E-18
5.644655E+03	2.388479E-15	6.490843E-18
5.654611E+03	2.320650E-15	6.299201E-18
5.664566E+03	2.263802E-15	6.137687E-18
5.674521E+03	2.219242E-15	6.009742E-18
5.684477E+03	2.188000E-15	5.918038E-18
5.694432E+03	2.170875E-15	5.864607E-18
5.704387E+03	2.168472E-15	5.850952E-18
5.714343E+03	2.181203E-15	5.878036E-18
5.724298E+03	2.209067E-15	5.945709E-18
5.734253E+03	2.251906E-15	6.053396E-18
5.744209E+03	2.309217E-15	6.199592E-18
5.754164E+03	2.380007E-15	6.381493E-18
5.764119E+03	2.462893E-15	6.595257E-18
5.774074E+03	2.555907E-15	6.835493E-18
5.784030E+03	2.656539E-15	7.095401E-18
5.793985E+03	2.761658E-15	7.366552E-18
5.803940E+03	2.867745E-15	7.639529E-18
5.813896E+03	2.971070E-15	7.904404E-18
5.823851E+03	3.067946E-15	8.151423E-18
5.833806E+03	3.154926E-15	8.371514E-18
5.843762E+03	3.229482E-15	8.558097E-18
5.853717E+03	3.289833E-15	8.706603E-18
5.863672E+03	3.334863E-15	8.814243E-18
5.873627E+03	3.364290E-15	8.880452E-18
5.883583E+03	3.378516E-15	8.906467E-18
5.893538E+03	3.378354E-15	8.894597E-18
5.903493E+03	3.365074E-15	8.848349E-18
5.913449E+03	3.340222E-15	8.771925E-18
5.923404E+03	3.305562E-15	8.670087E-18
5.933359E+03	3.262743E-15	8.547260E-18
5.943315E+03	3.213576E-15	8.408271E-18
5.953270E+03	3.159724E-15	8.257543E-18
5.963225E+03	3.102897E-15	8.099583E-18
5.973180E+03	3.044669E-15	7.938536E-18
5.983136E+03	2.986431E-15	7.778040E-18
5.993091E+03	2.929426E-15	7.621333E-18
6.003046E+03	2.874617E-15	7.470911E-18
6.013002E+03	2.822895E-15	7.329073E-18
6.022957E+03	2.774714E-15	7.196977E-18
6.032912E+03	2.730532E-15	7.075786E-18
6.042868E+03	2.690557E-15	6.966012E-18
6.052823E+03	2.654946E-15	6.868038E-18
6.062778E+03	2.623711E-15	6.781870E-18
6.072733E+03	2.596905E-15	6.707621E-18
6.082689E+03	2.574481E-15	6.645158E-18
6.092644E+03	2.556439E-15	6.594460E-18
6.102599E+03	2.542683E-15	6.555272E-18
6.112555E+03	2.532985E-15	6.527001E-18
6.122510E+03	2.527030E-15	6.508825E-18
6.132465E+03	2.524323E-15	6.499482E-18
6.142421E+03	2.524045E-15	6.496864E-18
6.152376E+03	2.525032E-15	6.497989E-18
6.162331E+03	2.525417E-15	6.498074E-18
6.172286E+03	2.522509E-15	6.490206E-18
6.182242E+03	2.512999E-15	6.465871E-18
6.192197E+03	2.493016E-15	6.415096E-18
6.202152E+03	2.458492E-15	6.327380E-18
6.212108E+03	2.407430E-15	6.197539E-18
6.222063E+03	2.343091E-15	6.033898E-18
6.232018E+03	2.273549E-15	5.857179E-18
6.241974E+03	2.207564E-15	5.689901E-18
6.251929E+03	2.152141E-15	5.550096E-18
6.261884E+03	2.110808E-15	5.446877E-18
6.271839E+03	2.085230E-15	5.384580E-18
6.281795E+03	2.075737E-15	5.364124E-18
6.291750E+03	2.081445E-15	5.383306E-18
6.301705E+03	2.100650E-15	5.437806E-18
6.311661E+03	2.131382E-15	5.522619E-18
6.321616E+03	2.171265E-15	5.631672E-18
6.331571E+03	2.217671E-15	5.758234E-18
6.341527E+03	2.267871E-15	5.895278E-18
6.351482E+03	2.319066E-15	6.035567E-18
6.361437E+03	2.368464E-15	6.171857E-18
6.371392E+03	2.413511E-15	6.297481E-18
6.381348E+03	2.451944E-15	6.406492E-18
6.391303E+03	2.482005E-15	6.494221E-18
6.401258E+03	2.502412E-15	6.557210E-18
6.411214E+03	2.512699E-15	6.594116E-18
6.421169E+03	2.513083E-15	6.605374E-18
6.431124E+03	2.504385E-15	6.593004E-18
6.441080E+03	2.487945E-15	6.560404E-18
6.451035E+03	2.465550E-15	6.512175E-18
6.460990E+03	2.439260E-15	6.453663E-18
6.470945E+03	2.411261E-15	6.390585E-18
6.480901E+03	2.383911E-15	6.329155E-18
6.490856E+03	2.359421E-15	6.275243E-18
6.500811E+03	2.339780E-15	6.234163E-18
6.510767E+03	2.326382E-15	6.209692E-18
6.520722E+03	2.319609E-15	6.202919E-18
6.530677E+03	2.319488E-15	6.214003E-18
6.540633E+03	2.325959E-15	6.242866E-18
6.550588E+03	2.338654E-15	6.288602E-18
6.560543E+03	2.356956E-15	6.349630E-18
6.570498E+03	2.380090E-15	6.423930E-18
6.580454E+03	2.406971E-15	6.508628E-18
6.590409E+03	2.436328E-15	6.600331E-18
6.600364E+03	2.466805E-15	6.695377E-18
6.610320E+03	2.496821E-15	6.789478E-18
6.620275E+03	2.524879E-15	6.878532E-18
6.630230E+03	2.549580E-15	6.958682E-18
6.640186E+03	2.569608E-15	7.026267E-18
6.650141E+03	2.583988E-15	7.078528E-18
6.660096E+03	2.592059E-15	7.113560E-18
6.670051E+03	2.593308E-15	7.129845E-18
6.680007E+03	2.587634E-15	7.126996E-18
6.689962E+03	2.575305E-15	7.105637E-18
6.699917E+03	2.556645E-15	7.066564E-18
6.709873E+03	2.532288E-15	7.011428E-18
6.719828E+03	2.503068E-15	6.942461E-18
6.729783E+03	2.469823E-15	6.861917E-18
6.739739E+03	2.433468E-15	6.772281E-18
6.749694E+03	2.394927E-15	6.676087E-18
6.759649E+03	2.355095E-15	6.575804E-18
6.769604E+03	2.314735E-15	6.473548E-18
6.779560E+03	2.274632E-15	6.371516E-18
6.789515E+03	2.235483E-15	6.271668E-18
6.799470E+03	2.197883E-15	6.175695E-18
6.809426E+03	2.162457E-15	6.085375E-18
6.819381E+03	2.129692E-15	6.002115E-18
6.829336E+03	2.100056E-15	5.927274E-18
6.839292E+03	2.073961E-15	5.862061E-18
6.849247E+03	2.051729E-15	5.807432E-18
6.859202E+03	2.033747E-15	5.764532E-18
6.869157E+03	2.020228E-15	5.734024E-18
6.879113E+03	2.011318E-15	5.716374E-18
6.889068E+03	2.007138E-15	5.711979E-18
6.899023E+03	2.007656E-15	5.720806E-18
6.908979E+03	2.012787E-15	5.742665E-18
6.918934E+03	2.022359E-15	5.777108E-18
6.928889E+03	2.036020E-15	5.823186E-18
6.938845E+03	2.053338E-15	5.879694E-18
6.948800E+03	2.073689E-15	5.944884E-18
6.958755E+03	2.096327E-15	6.016643E-18
6.968710E+03	2.120358E-15	6.092422E-18
6.978666E+03	2.144864E-15	6.169599E-18
6.988621E+03	2.168699E-15	6.244870E-18
6.998576E+03	2.190804E-15	6.315185E-18
7.008532E+03	2.210239E-15	6.377812E-18
7.018487E+03	2.226063E-15	6.430011E-18
7.028442E+03	2.237532E-15	6.469604E-18
7.038398E+03	2.244139E-15	6.495091E-18
7.048353E+03	2.245582E-15	6.505559E-18
7.058308E+03	2.241847E-15	6.500933E-18
7.068263E+03	2.233115E-15	6.481700E-18
7.078219E+03	2.219874E-15	6.449251E-18
7.088174E+03	2.202837E-15	6.405627E-18
7.098129E+03	2.182882E-15	6.353365E-18
7.108085E+03	2.160933E-15	6.295143E-18
7.118040E+03	2.137972E-15	6.233820E-18
7.127995E+03	2.114757E-15	6.171609E-18
7.137951E+03	2.092125E-15	6.110965E-18
7.147906E+03	2.070658E-15	6.053603E-18
7.157861E+03	2.050796E-15	6.000827E-18
7.167817E+03	2.032799E-15	5.953424E-18
7.177772E+03	2.016924E-15	5.912173E-18
7.187727E+03	2.003096E-15	5.876876E-18
7.197682E+03	1.991257E-15	5.847391E-18
7.207638E+03	1.981207E-15	5.823157E-18
7.217593E+03	1.972778E-15	5.803703E-18
7.227548E+03	1.965690E-15	5.788231E-18
7.237504E+03	1.959716E-15	5.776090E-18
7.247459E+03	1.954699E-15	5.766839E-18
7.257414E+03	1.950430E-15	5.759879E-18
7.267370E+03	1.946809E-15	5.754935E-18
7.277325E+03	1.943655E-15	5.751484E-18
7.287280E+03	1.940939E-15	5.749465E-18
7.297235E+03	1.938669E-15	5.748911E-18
7.307191E+03	1.936764E-15	5.749598E-18
7.317146E+03	1.935283E-15	5.751723E-18
7.327101E+03	1.934205E-15	5.755239E-18
7.337057E+03	1.933582E-15	5.760315E-18
7.347012E+03	1.933348E-15	5.766777E-18
7.356967E+03	1.933422E-15	5.774400E-18
7.366923E+03	1.933638E-15	5.782702E-18
7.376878E+03	1.933699E-15	5.790816E-18
7.386833E+03	1.933266E-15	5.797733E-18
7.396788E+03	1.931906E-15	5.802160E-18
7.406744E+03	1.929111E-15	5.802572E-18
7.416699E+03	1.924415E-15	5.797562E-18
7.426654E+03	1.917354E-15	5.785711E-18
7.436610E+03	1.907640E-15	5.766123E-18
7.446565E+03	1.895003E-15	5.737953E-18
7.456520E+03	1.879406E-15	5.701039E-18
7.466476E+03	1.860947E-15	5.655618E-18
7.476431E+03	1.839848E-15	5.602315E-18
7.486386E+03	1.816619E-15	5.542617E-18
7.496341E+03	1.791708E-15	5.477851E-18
7.506297E+03	1.765748E-15	5.409904E-18
7.516252E+03	1.739407E-15	5.340795E-18
7.526207E+03	1.713427E-15	5.272786E-18
7.536163E+03	1.688448E-15	5.207837E-18
7.546118E+03	1.665259E-15	5.148400E-18
7.556073E+03	1.644584E-15	5.096743E-18
7.566029E+03	1.627105E-15	5.055032E-18
7.575984E+03	1.613276E-15	5.024737E-18
7.585939E+03	1.603490E-15	5.007170E-18
7.595894E+03	1.597501E-15	5.001651E-18
7.605850E+03	1.594862E-15	5.006870E-18
7.615805E+03	1.595169E-15	5.021636E-18
7.625760E+03	1.597873E-15	5.044293E-18
7.635716E+03	1.602490E-15	5.073380E-18
7.645671E+03	1.608567E-15	5.107512E-18
7.655626E+03	1.615716E-15	5.145494E-18
7.665582E+03	1.623668E-15	5.186507E-18
7.675537E+03	1.632262E-15	5.230067E-18
7.685492E+03	1.641270E-15	5.275460E-18
7.695447E+03	1.650684E-15	5.322684E-18
7.705403E+03	1.660411E-15	5.371458E-18
7.715358E+03	1.670406E-15	5.421648E-18
7.725313E+03	1.680619E-15	5.473113E-18
