#wls	flux	fluxerr
1.592848E+03	1.082767E-16	3.455899E-18
1.632669E+03	1.132556E-16	3.589944E-18
1.672491E+03	1.179955E-16	3.713680E-18
1.712312E+03	1.224252E-16	3.824957E-18
1.752133E+03	1.264557E-16	3.921148E-18
1.791954E+03	1.298910E-16	3.996434E-18
1.831775E+03	1.324239E-16	4.041794E-18
1.871597E+03	1.337510E-16	4.048663E-18
1.911418E+03	1.335343E-16	4.007769E-18
1.951239E+03	1.315517E-16	3.913689E-18
1.991060E+03	1.279019E-16	3.770746E-18
2.030881E+03	1.232940E-16	3.601053E-18
2.070703E+03	1.191729E-16	3.447261E-18
2.110524E+03	1.174976E-16	3.365133E-18
2.150345E+03	1.201405E-16	3.405665E-18
2.190166E+03	1.281653E-16	3.594841E-18
2.229987E+03	1.415875E-16	3.928107E-18
2.269809E+03	1.595784E-16	4.377517E-18
2.309630E+03	1.809226E-16	4.905499E-18
2.349451E+03	2.044686E-16	5.477570E-18
2.389272E+03	2.293621E-16	6.068515E-18
2.429093E+03	2.550922E-16	6.663140E-18
2.468915E+03	2.814702E-16	7.255201E-18
2.508736E+03	3.084809E-16	7.843098E-18
2.548557E+03	3.362651E-16	8.429123E-18
2.588378E+03	3.650074E-16	9.016423E-18
2.628199E+03	3.949546E-16	9.609342E-18
2.668021E+03	4.263603E-16	1.021197E-17
2.707842E+03	4.595041E-16	1.082858E-17
2.747663E+03	4.946927E-16	1.146356E-17
2.787484E+03	5.322493E-16	1.212110E-17
2.827305E+03	5.725348E-16	1.280566E-17
2.867127E+03	6.159896E-16	1.352270E-17
2.906948E+03	6.630832E-16	1.427752E-17
2.946769E+03	7.144434E-16	1.507777E-17
2.986590E+03	7.707415E-16	1.593082E-17
2.996546E+03	7.857025E-16	1.615381E-17
3.006501E+03	8.010259E-16	1.638058E-17
3.016456E+03	8.167242E-16	1.661125E-17
3.026411E+03	8.328626E-16	1.684699E-17
3.036367E+03	8.494998E-16	1.708882E-17
3.046322E+03	8.667111E-16	1.733805E-17
3.056277E+03	8.845551E-16	1.759564E-17
3.066233E+03	9.030122E-16	1.786096E-17
3.076188E+03	9.220836E-16	1.813381E-17
3.086143E+03	9.418098E-16	1.841476E-17
3.096099E+03	9.621572E-16	1.870289E-17
3.106054E+03	9.831496E-16	1.899843E-17
3.116009E+03	1.004774E-15	1.930089E-17
3.125964E+03	1.027099E-15	1.961133E-17
3.135920E+03	1.050072E-15	1.992850E-17
3.145875E+03	1.073723E-15	2.025270E-17
3.155830E+03	1.098085E-15	2.058427E-17
3.165786E+03	1.123169E-15	2.092316E-17
3.175741E+03	1.148944E-15	2.126852E-17
3.185696E+03	1.175486E-15	2.162147E-17
3.195652E+03	1.202766E-15	2.198117E-17
3.205607E+03	1.230818E-15	2.234795E-17
3.215562E+03	1.259630E-15	2.272130E-17
3.225517E+03	1.289236E-15	2.310150E-17
3.235473E+03	1.319645E-15	2.348843E-17
3.245428E+03	1.350864E-15	2.388189E-17
3.255383E+03	1.382876E-15	2.428122E-17
3.265339E+03	1.415703E-15	2.468651E-17
3.275294E+03	1.449341E-15	2.509738E-17
3.285249E+03	1.483758E-15	2.551292E-17
3.295205E+03	1.518959E-15	2.593291E-17
3.305160E+03	1.554894E-15	2.635619E-17
3.315115E+03	1.591550E-15	2.678222E-17
3.325070E+03	1.628851E-15	2.720946E-17
3.335026E+03	1.666732E-15	2.763652E-17
3.344981E+03	1.705104E-15	2.806174E-17
3.354936E+03	1.743863E-15	2.848315E-17
3.364892E+03	1.782874E-15	2.889842E-17
3.374847E+03	1.821950E-15	2.930439E-17
3.384802E+03	1.860922E-15	2.969836E-17
3.394758E+03	1.899511E-15	3.007586E-17
3.404713E+03	1.937505E-15	3.043371E-17
3.414668E+03	1.974552E-15	3.076663E-17
3.424623E+03	2.010322E-15	3.106982E-17
3.434579E+03	2.044452E-15	3.133822E-17
3.444534E+03	2.076531E-15	3.156615E-17
3.454489E+03	2.106184E-15	3.174874E-17
3.464445E+03	2.132974E-15	3.188036E-17
3.474400E+03	2.156464E-15	3.195564E-17
3.484355E+03	2.176259E-15	3.197004E-17
3.494311E+03	2.191963E-15	3.191919E-17
3.504266E+03	2.203270E-15	3.180027E-17
3.514221E+03	2.209817E-15	3.160979E-17
3.524176E+03	2.211411E-15	3.134686E-17
3.534132E+03	2.207882E-15	3.101105E-17
3.544087E+03	2.199177E-15	3.060360E-17
3.554042E+03	2.185290E-15	3.012650E-17
3.563998E+03	2.166357E-15	2.958363E-17
3.573953E+03	2.142684E-15	2.898114E-17
3.583908E+03	2.114602E-15	2.832536E-17
3.593864E+03	2.082669E-15	2.762542E-17
3.603819E+03	2.047497E-15	2.689096E-17
3.613774E+03	2.009768E-15	2.613210E-17
3.623729E+03	1.970249E-15	2.535981E-17
3.633685E+03	1.929777E-15	2.458547E-17
3.643640E+03	1.889179E-15	2.381993E-17
3.653595E+03	1.849375E-15	2.307473E-17
3.663551E+03	1.811220E-15	2.236019E-17
3.673506E+03	1.775635E-15	2.168691E-17
3.683461E+03	1.743505E-15	2.106462E-17
3.693417E+03	1.715708E-15	2.050245E-17
3.703372E+03	1.693050E-15	2.000828E-17
3.713327E+03	1.676333E-15	1.958945E-17
3.723282E+03	1.666305E-15	1.925227E-17
3.733238E+03	1.663696E-15	1.900247E-17
3.743193E+03	1.669198E-15	1.884494E-17
3.753148E+03	1.683503E-15	1.878423E-17
3.763104E+03	1.707278E-15	1.882425E-17
3.773059E+03	1.741185E-15	1.896847E-17
3.783014E+03	1.785919E-15	1.922042E-17
3.792970E+03	1.842060E-15	1.958203E-17
3.802925E+03	1.910194E-15	2.005501E-17
3.812880E+03	1.990796E-15	2.063961E-17
3.822835E+03	2.084117E-15	2.133358E-17
3.832791E+03	2.190202E-15	2.213244E-17
3.842746E+03	2.308772E-15	2.302854E-17
3.852701E+03	2.439093E-15	2.400988E-17
3.862657E+03	2.579900E-15	2.505973E-17
3.872612E+03	2.729274E-15	2.615581E-17
3.882567E+03	2.884675E-15	2.727096E-17
3.892523E+03	3.042882E-15	2.837307E-17
3.902478E+03	3.200095E-15	2.942637E-17
3.912433E+03	3.352074E-15	3.039310E-17
3.922388E+03	3.494365E-15	3.123579E-17
3.932344E+03	3.622628E-15	3.192024E-17
3.942299E+03	3.732865E-15	3.241744E-17
3.952254E+03	3.821715E-15	3.270582E-17
3.962210E+03	3.886865E-15	3.277431E-17
3.972165E+03	3.927028E-15	3.262146E-17
3.982120E+03	3.942195E-15	3.225684E-17
3.992076E+03	3.933509E-15	3.169920E-17
4.002031E+03	3.903161E-15	3.097497E-17
4.011986E+03	3.854280E-15	3.011671E-17
4.021941E+03	3.790476E-15	2.915905E-17
4.031897E+03	3.715723E-15	2.813755E-17
4.041852E+03	3.633964E-15	2.708555E-17
4.051807E+03	3.548922E-15	2.603283E-17
4.061763E+03	3.463929E-15	2.500455E-17
4.071718E+03	3.381842E-15	2.402092E-17
4.081673E+03	3.304894E-15	2.309647E-17
4.091629E+03	3.234790E-15	2.224111E-17
4.101584E+03	3.172749E-15	2.146072E-17
4.111539E+03	3.119375E-15	2.075660E-17
4.121494E+03	3.074933E-15	2.012764E-17
4.131450E+03	3.039315E-15	1.957030E-17
4.141405E+03	3.012125E-15	1.907934E-17
4.151360E+03	2.992742E-15	1.864836E-17
4.161316E+03	2.980381E-15	1.827032E-17
4.171271E+03	2.974131E-15	1.793784E-17
4.181226E+03	2.973005E-15	1.764352E-17
4.191182E+03	2.975979E-15	1.738020E-17
4.201137E+03	2.982021E-15	1.714112E-17
4.211092E+03	2.990080E-15	1.691990E-17
4.221047E+03	2.999150E-15	1.671077E-17
4.231003E+03	3.008273E-15	1.650864E-17
4.240958E+03	3.016508E-15	1.630885E-17
4.250913E+03	3.022922E-15	1.610707E-17
4.260869E+03	3.026746E-15	1.590010E-17
4.270824E+03	3.027294E-15	1.568537E-17
4.280779E+03	3.024013E-15	1.546111E-17
4.290735E+03	3.016495E-15	1.522636E-17
4.300690E+03	3.004451E-15	1.498077E-17
4.310645E+03	2.987788E-15	1.472489E-17
4.320601E+03	2.966368E-15	1.445897E-17
4.330556E+03	2.940139E-15	1.418352E-17
4.340511E+03	2.908848E-15	1.389765E-17
4.350466E+03	2.872051E-15	1.359936E-17
4.360422E+03	2.829140E-15	1.328584E-17
4.370377E+03	2.779793E-15	1.295555E-17
4.380332E+03	2.727156E-15	1.262293E-17
4.390288E+03	2.677306E-15	1.231541E-17
4.400243E+03	2.635625E-15	1.205656E-17
4.410198E+03	2.606419E-15	1.186465E-17
4.420154E+03	2.592959E-15	1.175306E-17
4.430109E+03	2.597490E-15	1.173058E-17
4.440064E+03	2.621400E-15	1.180224E-17
4.450019E+03	2.665350E-15	1.197008E-17
4.459975E+03	2.729255E-15	1.223299E-17
4.469930E+03	2.812430E-15	1.258750E-17
4.479885E+03	2.913470E-15	1.302714E-17
4.489841E+03	3.030185E-15	1.354217E-17
4.499796E+03	3.159598E-15	1.411949E-17
4.509751E+03	3.297953E-15	1.474266E-17
4.519707E+03	3.440857E-15	1.539239E-17
4.529662E+03	3.583477E-15	1.604738E-17
4.539617E+03	3.720740E-15	1.668516E-17
4.549572E+03	3.847647E-15	1.728334E-17
4.559528E+03	3.959683E-15	1.782147E-17
4.569483E+03	4.052820E-15	1.828103E-17
4.579438E+03	4.123886E-15	1.864703E-17
4.589394E+03	4.170725E-15	1.890884E-17
4.599349E+03	4.192093E-15	1.905970E-17
4.609304E+03	4.187492E-15	1.909612E-17
4.619260E+03	4.157442E-15	1.901907E-17
4.629215E+03	4.102939E-15	1.883169E-17
4.639170E+03	4.025974E-15	1.854168E-17
4.649125E+03	3.929121E-15	1.815950E-17
4.659081E+03	3.815574E-15	1.769865E-17
4.669036E+03	3.689016E-15	1.717507E-17
4.678991E+03	3.553404E-15	1.660626E-17
4.688947E+03	3.412743E-15	1.601022E-17
4.698902E+03	3.270575E-15	1.540309E-17
4.708857E+03	3.129828E-15	1.479838E-17
4.718813E+03	2.992545E-15	1.420550E-17
4.728768E+03	2.859571E-15	1.362835E-17
4.738723E+03	2.730785E-15	1.306629E-17
4.748678E+03	2.605101E-15	1.251412E-17
4.758634E+03	2.481435E-15	1.196660E-17
4.768589E+03	2.360562E-15	1.142747E-17
4.778544E+03	2.247010E-15	1.091880E-17
4.788500E+03	2.145349E-15	1.046323E-17
4.798455E+03	2.058788E-15	1.007707E-17
4.808410E+03	1.989081E-15	9.769711E-18
4.818366E+03	1.936897E-15	9.545295E-18
4.828321E+03	1.901975E-15	9.403385E-18
4.838276E+03	1.883364E-15	9.340041E-18
4.848231E+03	1.879607E-15	9.348707E-18
4.858187E+03	1.888804E-15	9.420478E-18
4.868142E+03	1.908589E-15	9.543955E-18
4.878097E+03	1.936246E-15	9.705811E-18
4.888053E+03	1.968703E-15	9.890765E-18
4.898008E+03	2.002866E-15	1.008325E-17
4.907963E+03	2.035874E-15	1.026872E-17
4.917919E+03	2.065413E-15	1.043533E-17
4.927874E+03	2.089942E-15	1.057505E-17
4.937829E+03	2.108654E-15	1.068354E-17
4.947784E+03	2.121540E-15	1.076057E-17
4.957740E+03	2.129218E-15	1.080910E-17
4.967695E+03	2.132840E-15	1.083486E-17
4.977650E+03	2.133874E-15	1.084522E-17
4.987606E+03	2.134019E-15	1.084880E-17
4.997561E+03	2.134851E-15	1.085359E-17
5.007516E+03	2.137793E-15	1.086681E-17
5.017472E+03	2.144012E-15	1.089439E-17
5.027427E+03	2.154295E-15	1.094027E-17
5.037382E+03	2.169091E-15	1.100669E-17
5.047337E+03	2.188529E-15	1.109421E-17
5.057293E+03	2.212504E-15	1.120219E-17
5.067248E+03	2.240720E-15	1.132900E-17
5.077203E+03	2.272831E-15	1.147275E-17
5.087159E+03	2.308523E-15	1.163171E-17
5.097114E+03	2.347498E-15	1.180421E-17
5.107069E+03	2.389675E-15	1.198969E-17
5.117025E+03	2.434982E-15	1.218762E-17
5.126980E+03	2.483600E-15	1.239871E-17
5.136935E+03	2.535718E-15	1.262375E-17
5.146890E+03	2.591585E-15	1.286375E-17
5.156846E+03	2.651408E-15	1.311953E-17
5.166801E+03	2.715266E-15	1.339123E-17
5.176756E+03	2.783087E-15	1.367828E-17
5.186712E+03	2.854534E-15	1.397879E-17
5.196667E+03	2.929081E-15	1.428997E-17
5.206622E+03	3.005751E-15	1.460690E-17
5.216578E+03	3.083381E-15	1.492385E-17
5.226533E+03	3.160517E-15	1.523377E-17
5.236488E+03	3.235512E-15	1.552884E-17
5.246443E+03	3.306541E-15	1.580058E-17
5.256399E+03	3.371889E-15	1.604115E-17
5.266354E+03	3.429890E-15	1.624320E-17
5.276309E+03	3.479144E-15	1.640074E-17
5.286265E+03	3.518517E-15	1.650923E-17
5.296220E+03	3.547302E-15	1.656624E-17
5.306175E+03	3.565054E-15	1.657062E-17
5.316131E+03	3.571746E-15	1.652324E-17
5.326086E+03	3.567611E-15	1.642614E-17
5.336041E+03	3.553167E-15	1.628266E-17
5.345996E+03	3.528963E-15	1.609623E-17
5.355952E+03	3.495814E-15	1.587142E-17
5.365907E+03	3.454540E-15	1.561272E-17
5.375862E+03	3.406029E-15	1.532485E-17
5.385818E+03	3.351205E-15	1.501254E-17
5.395773E+03	3.291195E-15	1.468137E-17
5.405728E+03	3.227365E-15	1.433782E-17
5.415684E+03	3.161327E-15	1.398934E-17
5.425639E+03	3.095321E-15	1.364596E-17
5.435594E+03	3.032123E-15	1.331994E-17
5.445549E+03	2.975299E-15	1.302675E-17
5.455505E+03	2.929139E-15	1.278454E-17
5.465460E+03	2.897727E-15	1.261030E-17
5.475415E+03	2.882520E-15	1.250947E-17
5.485371E+03	2.878914E-15	1.246128E-17
5.495326E+03	2.880969E-15	1.243942E-17
5.505281E+03	2.883061E-15	1.241927E-17
5.515237E+03	2.880669E-15	1.238115E-17
5.525192E+03	2.870405E-15	1.231042E-17
5.535147E+03	2.850178E-15	1.219811E-17
5.545102E+03	2.818936E-15	1.203974E-17
5.555058E+03	2.776724E-15	1.183555E-17
5.565013E+03	2.724422E-15	1.158934E-17
5.574968E+03	2.663641E-15	1.130798E-17
5.584924E+03	2.596394E-15	1.100003E-17
5.594879E+03	2.525052E-15	1.067551E-17
5.604834E+03	2.452120E-15	1.034498E-17
5.614790E+03	2.380060E-15	1.001871E-17
5.624745E+03	2.311225E-15	9.706489E-18
5.634700E+03	2.247696E-15	9.416873E-18
5.644655E+03	2.191333E-15	9.157423E-18
5.654611E+03	2.143690E-15	8.934357E-18
5.664566E+03	2.105997E-15	8.752452E-18
5.674521E+03	2.079197E-15	8.615233E-18
5.684477E+03	2.063966E-15	8.525043E-18
5.694432E+03	2.060768E-15	8.483284E-18
5.704387E+03	2.069741E-15	8.489948E-18
5.714343E+03	2.090858E-15	8.544299E-18
5.724298E+03	2.123774E-15	8.644251E-18
5.734253E+03	2.167819E-15	8.786377E-18
5.744209E+03	2.222037E-15	8.966082E-18
5.754164E+03	2.285104E-15	9.177312E-18
5.764119E+03	2.355254E-15	9.412304E-18
5.774074E+03	2.430357E-15	9.661954E-18
5.784030E+03	2.507992E-15	9.916160E-18
5.793985E+03	2.585381E-15	1.016362E-17
5.803940E+03	2.659739E-15	1.039326E-17
5.813896E+03	2.728365E-15	1.059463E-17
5.823851E+03	2.788846E-15	1.075869E-17
5.833806E+03	2.839278E-15	1.087868E-17
5.843762E+03	2.878282E-15	1.095006E-17
5.853717E+03	2.905267E-15	1.097153E-17
5.863672E+03	2.920188E-15	1.094398E-17
5.873627E+03	2.923601E-15	1.087061E-17
5.883583E+03	2.916510E-15	1.075627E-17
5.893538E+03	2.900219E-15	1.060687E-17
5.903493E+03	2.876234E-15	1.042894E-17
5.913449E+03	2.846009E-15	1.022866E-17
5.923404E+03	2.811008E-15	1.001212E-17
5.933359E+03	2.772600E-15	9.784894E-18
5.943315E+03	2.731954E-15	9.551707E-18
5.953270E+03	2.689994E-15	9.316285E-18
5.963225E+03	2.647575E-15	9.082005E-18
5.973180E+03	2.605203E-15	8.850953E-18
5.983136E+03	2.563385E-15	8.625148E-18
5.993091E+03	2.522254E-15	8.405310E-18
6.003046E+03	2.481854E-15	8.191841E-18
6.013002E+03	2.442076E-15	7.984636E-18
6.022957E+03	2.402583E-15	7.782873E-18
6.032912E+03	2.362958E-15	7.585502E-18
6.042868E+03	2.322691E-15	7.391227E-18
6.052823E+03	2.281442E-15	7.199317E-18
6.062778E+03	2.238892E-15	7.009132E-18
6.072733E+03	2.195156E-15	6.821377E-18
6.082689E+03	2.150672E-15	6.637698E-18
6.092644E+03	2.106337E-15	6.461081E-18
6.102599E+03	2.063561E-15	6.295963E-18
6.112555E+03	2.024234E-15	6.148131E-18
6.122510E+03	1.990489E-15	6.024000E-18
6.132465E+03	1.964550E-15	5.930220E-18
6.142421E+03	1.948488E-15	5.872996E-18
6.152376E+03	1.943715E-15	5.856651E-18
6.162331E+03	1.950687E-15	5.882766E-18
6.172286E+03	1.968295E-15	5.948099E-18
6.182242E+03	1.993286E-15	6.042971E-18
6.192197E+03	2.019625E-15	6.149251E-18
6.202152E+03	2.038535E-15	6.240132E-18
6.212108E+03	2.040209E-15	6.284939E-18
6.222063E+03	2.022147E-15	6.274638E-18
6.232018E+03	1.993215E-15	6.235176E-18
6.241974E+03	1.962758E-15	6.194679E-18
6.251929E+03	1.937660E-15	6.174416E-18
6.261884E+03	1.921959E-15	6.187391E-18
6.271839E+03	1.917389E-15	6.239769E-18
6.281795E+03	1.924058E-15	6.332751E-18
6.291750E+03	1.940924E-15	6.463874E-18
6.301705E+03	1.966140E-15	6.627918E-18
6.311661E+03	1.997478E-15	6.818158E-18
6.321616E+03	2.032509E-15	7.026858E-18
6.331571E+03	2.068706E-15	7.245548E-18
6.341527E+03	2.103728E-15	7.465981E-18
6.351482E+03	2.135419E-15	7.680117E-18
6.361437E+03	2.161964E-15	7.880738E-18
6.371392E+03	2.181986E-15	8.061805E-18
6.381348E+03	2.194688E-15	8.219083E-18
6.391303E+03	2.199706E-15	8.349805E-18
6.401258E+03	2.197291E-15	8.453467E-18
6.411214E+03	2.188100E-15	8.531188E-18
6.421169E+03	2.173173E-15	8.585751E-18
6.431124E+03	2.153865E-15	8.621416E-18
6.441080E+03	2.131666E-15	8.643292E-18
6.451035E+03	2.108146E-15	8.657156E-18
6.460990E+03	2.084716E-15	8.668460E-18
6.470945E+03	2.062763E-15	8.682872E-18
6.480901E+03	2.043417E-15	8.705265E-18
6.490856E+03	2.027560E-15	8.739694E-18
6.500811E+03	2.015919E-15	8.789706E-18
6.510767E+03	2.008958E-15	8.857838E-18
6.520722E+03	2.006902E-15	8.945654E-18
6.530677E+03	2.009753E-15	9.053731E-18
6.540633E+03	2.017322E-15	9.181769E-18
6.550588E+03	2.029149E-15	9.328163E-18
6.560543E+03	2.044613E-15	9.490461E-18
6.570498E+03	2.062960E-15	9.665458E-18
6.580454E+03	2.083268E-15	9.849000E-18
6.590409E+03	2.104481E-15	1.003613E-17
6.600364E+03	2.125561E-15	1.022179E-17
6.610320E+03	2.145403E-15	1.040044E-17
6.620275E+03	2.163073E-15	1.056721E-17
6.630230E+03	2.177601E-15	1.071693E-17
6.640186E+03	2.188235E-15	1.084538E-17
6.650141E+03	2.194443E-15	1.094940E-17
6.660096E+03	2.195853E-15	1.102656E-17
6.670051E+03	2.192250E-15	1.107527E-17
6.680007E+03	2.183654E-15	1.109510E-17
6.689962E+03	2.170300E-15	1.108680E-17
6.699917E+03	2.152495E-15	1.105159E-17
6.709873E+03	2.130752E-15	1.099178E-17
6.719828E+03	2.105561E-15	1.090969E-17
6.729783E+03	2.077622E-15	1.080879E-17
6.739739E+03	2.047510E-15	1.069204E-17
6.749694E+03	2.015955E-15	1.056323E-17
6.759649E+03	1.983522E-15	1.042539E-17
6.769604E+03	1.950856E-15	1.028200E-17
6.779560E+03	1.918542E-15	1.013630E-17
6.789515E+03	1.887103E-15	9.991205E-18
6.799470E+03	1.857113E-15	9.849936E-18
6.809426E+03	1.829043E-15	9.715177E-18
6.819381E+03	1.803381E-15	9.589698E-18
6.829336E+03	1.780452E-15	9.475403E-18
6.839292E+03	1.760653E-15	9.374556E-18
6.849247E+03	1.744222E-15	9.288538E-18
6.859202E+03	1.731361E-15	9.218529E-18
6.869157E+03	1.722175E-15	9.165145E-18
6.879113E+03	1.716782E-15	9.129035E-18
6.889068E+03	1.715044E-15	9.109452E-18
6.899023E+03	1.716931E-15	9.106196E-18
6.908979E+03	1.722170E-15	9.117737E-18
6.918934E+03	1.730473E-15	9.142450E-18
6.928889E+03	1.741511E-15	9.178475E-18
6.938845E+03	1.754816E-15	9.223215E-18
6.948800E+03	1.769886E-15	9.273895E-18
6.958755E+03	1.786156E-15	9.327440E-18
6.968710E+03	1.803016E-15	9.380561E-18
6.978666E+03	1.819822E-15	9.429844E-18
6.988621E+03	1.835885E-15	9.471691E-18
6.998576E+03	1.850633E-15	9.503186E-18
7.008532E+03	1.863355E-15	9.520771E-18
7.018487E+03	1.873619E-15	9.522402E-18
7.028442E+03	1.880861E-15	9.505441E-18
7.038398E+03	1.884814E-15	9.468825E-18
7.048353E+03	1.885224E-15	9.411645E-18
7.058308E+03	1.882020E-15	9.333943E-18
7.068263E+03	1.875316E-15	9.236732E-18
7.078219E+03	1.865265E-15	9.121222E-18
7.088174E+03	1.852273E-15	8.989866E-18
7.098129E+03	1.836796E-15	8.845317E-18
7.108085E+03	1.819444E-15	8.690930E-18
7.118040E+03	1.800827E-15	8.529974E-18
7.127995E+03	1.781512E-15	8.365425E-18
7.137951E+03	1.762095E-15	8.200321E-18
7.147906E+03	1.742997E-15	8.036790E-18
7.157861E+03	1.724691E-15	7.877132E-18
7.167817E+03	1.707451E-15	7.722659E-18
7.177772E+03	1.691456E-15	7.574205E-18
7.187727E+03	1.676863E-15	7.432486E-18
7.197682E+03	1.663719E-15	7.297690E-18
7.207638E+03	1.651970E-15	7.169569E-18
7.217593E+03	1.641542E-15	7.047807E-18
7.227548E+03	1.632329E-15	6.931949E-18
7.237504E+03	1.624191E-15	6.821447E-18
7.247459E+03	1.616975E-15	6.715711E-18
7.257414E+03	1.610446E-15	6.613868E-18
7.267370E+03	1.604506E-15	6.515643E-18
7.277325E+03	1.598954E-15	6.420383E-18
7.287280E+03	1.593602E-15	6.327525E-18
7.297235E+03	1.588345E-15	6.236882E-18
7.307191E+03	1.582999E-15	6.147993E-18
7.317146E+03	1.577472E-15	6.060776E-18
7.327101E+03	1.571691E-15	5.975252E-18
7.337057E+03	1.565572E-15	5.891414E-18
7.347012E+03	1.559108E-15	5.809563E-18
7.356967E+03	1.552164E-15	5.729521E-18
7.366923E+03	1.544774E-15	5.651741E-18
7.376878E+03	1.536835E-15	5.576173E-18
7.386833E+03	1.528338E-15	5.503107E-18
7.396788E+03	1.519209E-15	5.432583E-18
7.406744E+03	1.509419E-15	5.364784E-18
7.416699E+03	1.498986E-15	5.300037E-18
7.426654E+03	1.487897E-15	5.238534E-18
7.436610E+03	1.476294E-15	5.180969E-18
7.446565E+03	1.464179E-15	5.127505E-18
7.456520E+03	1.451709E-15	5.078661E-18
7.466476E+03	1.438960E-15	5.034469E-18
7.476431E+03	1.426158E-15	4.995445E-18
7.486386E+03	1.413425E-15	4.961718E-18
7.496341E+03	1.400931E-15	4.933595E-18
7.506297E+03	1.388889E-15	4.911536E-18
7.516252E+03	1.377489E-15	4.895930E-18
7.526207E+03	1.366966E-15	4.887355E-18
7.536163E+03	1.357396E-15	4.885854E-18
7.546118E+03	1.348895E-15	4.891641E-18
7.556073E+03	1.341513E-15	4.904715E-18
7.566029E+03	1.335163E-15	4.924609E-18
7.575984E+03	1.329752E-15	4.950841E-18
7.585939E+03	1.325115E-15	4.982670E-18
7.595894E+03	1.321245E-15	5.019952E-18
7.605850E+03	1.318037E-15	5.062169E-18
7.615805E+03	1.315475E-15	5.109172E-18
7.625760E+03	1.313412E-15	5.160295E-18
7.635716E+03	1.311817E-15	5.215327E-18
7.645671E+03	1.310555E-15	5.273642E-18
7.655626E+03	1.309633E-15	5.335194E-18
7.665582E+03	1.309001E-15	5.399703E-18
7.675537E+03	1.308671E-15	5.467150E-18
7.685492E+03	1.308676E-15	5.537626E-18
7.695447E+03	1.309073E-15	5.611338E-18
7.705403E+03	1.309923E-15	5.688535E-18
7.715358E+03	1.311250E-15	5.769334E-18
7.725313E+03	1.313152E-15	5.854185E-18
