#wls	flux	fluxerr
1.592848E+03	1.124335E-16	3.367544E-18
1.632669E+03	1.177786E-16	3.504023E-18
1.672491E+03	1.228922E-16	3.631029E-18
1.712312E+03	1.276987E-16	3.746423E-18
1.752133E+03	1.321034E-16	3.847575E-18
1.791954E+03	1.358993E-16	3.928693E-18
1.831775E+03	1.387609E-16	3.980785E-18
1.871597E+03	1.403652E-16	3.995233E-18
1.911418E+03	1.403504E-16	3.962641E-18
1.951239E+03	1.384748E-16	3.877348E-18
1.991060E+03	1.348331E-16	3.743308E-18
2.030881E+03	1.301658E-16	3.582199E-18
2.070703E+03	1.259953E-16	3.436342E-18
2.110524E+03	1.243972E-16	3.361512E-18
2.150345E+03	1.273666E-16	3.409183E-18
2.190166E+03	1.360492E-16	3.606181E-18
2.229987E+03	1.504806E-16	3.948847E-18
2.269809E+03	1.697947E-16	4.409920E-18
2.309630E+03	1.927068E-16	4.952159E-18
2.349451E+03	2.179902E-16	5.541094E-18
2.389272E+03	2.447277E-16	6.151327E-18
2.429093E+03	2.723619E-16	6.767380E-18
2.468915E+03	3.006745E-16	7.382719E-18
2.508736E+03	3.296283E-16	7.995427E-18
2.548557E+03	3.593479E-16	8.607496E-18
2.588378E+03	3.899994E-16	9.221725E-18
2.628199E+03	4.218092E-16	9.842082E-18
2.668021E+03	4.550014E-16	1.047218E-17
2.707842E+03	4.898185E-16	1.111573E-17
2.747663E+03	5.265175E-16	1.177640E-17
2.787484E+03	5.653563E-16	1.245749E-17
2.827305E+03	6.066114E-16	1.316235E-17
2.867127E+03	6.506182E-16	1.389509E-17
2.906948E+03	6.977087E-16	1.465929E-17
2.946769E+03	7.483404E-16	1.546054E-17
2.986590E+03	8.029615E-16	1.630354E-17
2.996546E+03	8.173249E-16	1.652195E-17
3.006501E+03	8.319682E-16	1.674318E-17
3.016456E+03	8.468987E-16	1.696729E-17
3.026411E+03	8.621778E-16	1.719542E-17
3.036367E+03	8.778595E-16	1.742852E-17
3.046322E+03	8.940137E-16	1.766787E-17
3.056277E+03	9.106922E-16	1.791433E-17
3.066233E+03	9.278661E-16	1.816719E-17
3.076188E+03	9.455268E-16	1.842613E-17
3.086143E+03	9.637073E-16	1.869164E-17
3.096099E+03	9.823613E-16	1.896267E-17
3.106054E+03	1.001503E-15	1.923935E-17
3.116009E+03	1.021109E-15	1.952107E-17
3.125964E+03	1.041236E-15	1.980878E-17
3.135920E+03	1.061819E-15	2.010109E-17
3.145875E+03	1.082876E-15	2.039819E-17
3.155830E+03	1.104426E-15	2.070029E-17
3.165786E+03	1.126467E-15	2.100718E-17
3.175741E+03	1.148953E-15	2.131790E-17
3.185696E+03	1.171948E-15	2.163344E-17
3.195652E+03	1.195405E-15	2.195279E-17
3.205607E+03	1.219343E-15	2.227617E-17
3.215562E+03	1.243736E-15	2.260293E-17
3.225517E+03	1.268601E-15	2.293324E-17
3.235473E+03	1.293931E-15	2.326684E-17
3.245428E+03	1.319718E-15	2.360341E-17
3.255383E+03	1.345929E-15	2.394222E-17
3.265339E+03	1.372573E-15	2.428329E-17
3.275294E+03	1.399631E-15	2.462617E-17
3.285249E+03	1.427061E-15	2.496994E-17
3.295205E+03	1.454856E-15	2.531441E-17
3.305160E+03	1.482962E-15	2.565847E-17
3.315115E+03	1.511358E-15	2.600170E-17
3.325070E+03	1.539970E-15	2.634271E-17
3.335026E+03	1.568735E-15	2.668035E-17
3.344981E+03	1.597575E-15	2.701324E-17
3.354936E+03	1.626398E-15	2.733980E-17
3.364892E+03	1.655091E-15	2.765814E-17
3.374847E+03	1.683499E-15	2.796570E-17
3.384802E+03	1.711491E-15	2.826038E-17
3.394758E+03	1.738840E-15	2.853860E-17
3.404713E+03	1.765393E-15	2.879803E-17
3.414668E+03	1.790878E-15	2.903448E-17
3.424623E+03	1.815049E-15	2.924431E-17
3.434579E+03	1.837643E-15	2.942369E-17
3.444534E+03	1.858360E-15	2.956834E-17
3.454489E+03	1.876945E-15	2.967474E-17
3.464445E+03	1.893089E-15	2.973873E-17
3.474400E+03	1.906496E-15	2.975642E-17
3.484355E+03	1.916912E-15	2.972467E-17
3.494311E+03	1.924083E-15	2.964052E-17
3.504266E+03	1.927841E-15	2.950238E-17
3.514221E+03	1.927967E-15	2.930796E-17
3.524176E+03	1.924392E-15	2.905735E-17
3.534132E+03	1.917061E-15	2.875087E-17
3.544087E+03	1.906014E-15	2.839027E-17
3.554042E+03	1.891318E-15	2.797768E-17
3.563998E+03	1.873142E-15	2.751677E-17
3.573953E+03	1.851784E-15	2.701292E-17
3.583908E+03	1.827533E-15	2.647134E-17
3.593864E+03	1.800849E-15	2.589956E-17
3.603819E+03	1.772221E-15	2.530533E-17
3.613774E+03	1.742174E-15	2.469672E-17
3.623729E+03	1.711301E-15	2.408251E-17
3.633685E+03	1.680244E-15	2.347196E-17
3.643640E+03	1.649631E-15	2.287386E-17
3.653595E+03	1.620161E-15	2.229769E-17
3.663551E+03	1.592478E-15	2.175193E-17
3.673506E+03	1.567276E-15	2.124544E-17
3.683461E+03	1.545230E-15	2.078653E-17
3.693417E+03	1.527037E-15	2.038358E-17
3.703372E+03	1.513356E-15	2.004409E-17
3.713327E+03	1.504854E-15	1.977546E-17
3.723282E+03	1.502181E-15	1.958456E-17
3.733238E+03	1.505997E-15	1.947812E-17
3.743193E+03	1.516938E-15	1.946231E-17
3.753148E+03	1.535654E-15	1.954318E-17
3.763104E+03	1.562785E-15	1.972642E-17
3.773059E+03	1.598980E-15	2.001754E-17
3.783014E+03	1.644911E-15	2.042209E-17
3.792970E+03	1.701161E-15	2.094424E-17
3.802925E+03	1.768339E-15	2.158825E-17
3.812880E+03	1.846956E-15	2.235694E-17
3.822835E+03	1.937347E-15	2.325082E-17
3.832791E+03	2.039691E-15	2.426839E-17
3.842746E+03	2.153855E-15	2.540445E-17
3.852701E+03	2.279322E-15	2.664936E-17
3.862657E+03	2.415116E-15	2.798836E-17
3.872612E+03	2.559633E-15	2.939995E-17
3.882567E+03	2.710686E-15	3.085661E-17
3.892523E+03	2.865422E-15	3.232426E-17
3.902478E+03	3.020362E-15	3.376299E-17
3.912433E+03	3.171481E-15	3.512828E-17
3.922388E+03	3.314419E-15	3.637358E-17
3.932344E+03	3.444886E-15	3.745489E-17
3.942299E+03	3.558741E-15	3.833154E-17
3.952254E+03	3.652283E-15	3.896926E-17
3.962210E+03	3.722875E-15	3.934646E-17
3.972165E+03	3.768743E-15	3.945164E-17
3.982120E+03	3.789290E-15	3.928620E-17
3.992076E+03	3.785329E-15	3.886617E-17
4.002031E+03	3.758691E-15	3.821761E-17
4.011986E+03	3.712185E-15	3.737563E-17
4.021941E+03	3.649431E-15	3.638226E-17
4.031897E+03	3.574486E-15	3.528236E-17
4.041852E+03	3.491406E-15	3.411918E-17
4.051807E+03	3.404093E-15	3.293283E-17
4.061763E+03	3.316119E-15	3.175871E-17
4.071718E+03	3.230588E-15	3.062639E-17
4.081673E+03	3.149874E-15	2.955740E-17
4.091629E+03	3.075868E-15	2.856784E-17
4.101584E+03	3.010015E-15	2.766903E-17
4.111539E+03	2.953014E-15	2.686495E-17
4.121494E+03	2.905272E-15	2.615673E-17
4.131450E+03	2.866877E-15	2.554252E-17
4.141405E+03	2.837572E-15	2.501742E-17
4.151360E+03	2.816893E-15	2.457487E-17
4.153351E+03	2.944848E-15	2.563699E-17
4.157334E+03	2.956489E-15	2.562980E-17
4.161316E+03	2.969097E-15	2.563043E-17
4.165298E+03	2.982182E-15	2.563459E-17
4.169280E+03	2.995500E-15	2.564013E-17
4.173262E+03	3.008563E-15	2.564288E-17
4.177244E+03	3.021248E-15	2.564182E-17
4.181226E+03	3.033798E-15	2.563908E-17
4.185208E+03	3.045357E-15	2.562747E-17
4.189191E+03	3.056047E-15	2.560813E-17
4.193173E+03	3.066112E-15	2.558319E-17
4.197155E+03	3.075307E-15	2.555070E-17
4.201137E+03	3.083752E-15	2.551176E-17
4.205119E+03	3.092550E-15	2.547552E-17
4.209101E+03	3.100720E-15	2.543393E-17
4.213083E+03	3.107529E-15	2.538107E-17
4.217065E+03	3.113832E-15	2.532404E-17
4.221047E+03	3.120240E-15	2.526787E-17
4.225030E+03	3.125529E-15	2.520267E-17
4.229012E+03	3.131046E-15	2.513937E-17
4.232994E+03	3.138256E-15	2.508970E-17
4.236976E+03	3.146795E-15	2.505056E-17
4.240958E+03	3.156660E-15	2.502183E-17
4.244940E+03	3.169809E-15	2.501882E-17
4.248922E+03	3.186120E-15	2.504026E-17
4.252904E+03	3.206326E-15	2.509159E-17
4.256887E+03	3.229693E-15	2.516669E-17
4.260869E+03	3.253895E-15	2.524723E-17
4.264851E+03	3.279054E-15	2.533409E-17
4.268833E+03	3.305536E-15	2.543001E-17
4.272815E+03	3.329792E-15	2.550768E-17
4.276797E+03	3.356594E-15	2.560375E-17
4.280779E+03	3.377988E-15	2.565757E-17
4.284761E+03	3.392751E-15	2.566044E-17
4.288744E+03	3.403452E-15	2.563236E-17
4.292726E+03	3.410091E-15	2.557373E-17
4.296708E+03	3.408878E-15	2.545666E-17
4.300690E+03	3.399080E-15	2.527643E-17
4.304672E+03	3.384000E-15	2.505833E-17
4.308654E+03	3.360828E-15	2.478213E-17
4.312636E+03	3.331522E-15	2.446295E-17
4.316618E+03	3.294984E-15	2.409333E-17
4.320601E+03	3.249628E-15	2.366238E-17
4.324583E+03	3.196681E-15	2.317977E-17
4.328565E+03	3.137366E-15	2.265501E-17
4.332547E+03	3.073767E-15	2.210363E-17
4.336529E+03	3.004907E-15	2.151900E-17
4.340511E+03	2.928471E-15	2.088502E-17
4.344493E+03	2.852157E-15	2.025700E-17
4.348475E+03	2.772670E-15	1.961158E-17
4.352457E+03	2.689647E-15	1.894642E-17
4.356440E+03	2.607608E-15	1.829351E-17
4.360422E+03	2.528142E-15	1.766379E-17
4.364404E+03	2.451858E-15	1.706125E-17
4.368386E+03	2.378878E-15	1.648642E-17
4.372368E+03	2.309690E-15	1.594233E-17
4.376350E+03	2.245879E-15	1.543952E-17
4.380332E+03	2.187685E-15	1.497915E-17
4.384314E+03	2.136934E-15	1.457318E-17
4.388297E+03	2.094353E-15	1.422590E-17
4.392279E+03	2.061398E-15	1.394647E-17
4.396261E+03	2.036968E-15	1.372666E-17
4.400243E+03	2.021175E-15	1.356655E-17
4.404225E+03	2.014380E-15	1.346784E-17
4.408207E+03	2.015236E-15	1.342083E-17
4.412189E+03	2.023491E-15	1.342328E-17
4.416171E+03	2.038897E-15	1.347295E-17
4.420154E+03	2.060716E-15	1.356446E-17
4.424136E+03	2.087483E-15	1.368771E-17
4.428118E+03	2.120043E-15	1.384787E-17
4.432100E+03	2.157902E-15	1.404130E-17
4.436082E+03	2.199961E-15	1.426051E-17
4.440064E+03	2.247427E-15	1.451301E-17
4.444046E+03	2.300900E-15	1.480227E-17
4.448028E+03	2.357703E-15	1.511075E-17
4.452010E+03	2.416982E-15	1.543279E-17
4.455993E+03	2.479580E-15	1.577359E-17
4.459975E+03	2.546338E-15	1.613830E-17
4.463957E+03	2.617128E-15	1.652585E-17
4.467939E+03	2.690854E-15	1.692911E-17
4.471921E+03	2.766662E-15	1.734257E-17
4.475903E+03	2.844668E-15	1.776684E-17
4.479885E+03	2.923778E-15	1.819504E-17
4.483867E+03	3.003988E-15	1.862710E-17
4.487850E+03	3.086622E-15	1.907117E-17
4.491832E+03	3.170587E-15	1.952042E-17
4.495814E+03	3.253105E-15	1.995777E-17
4.499796E+03	3.335862E-15	2.039368E-17
4.503778E+03	3.418614E-15	2.082669E-17
4.507760E+03	3.499553E-15	2.124587E-17
4.511742E+03	3.579158E-15	2.165430E-17
4.515724E+03	3.656228E-15	2.204485E-17
4.519707E+03	3.731964E-15	2.242496E-17
4.523689E+03	3.807208E-15	2.279980E-17
4.527671E+03	3.879197E-15	2.315294E-17
4.531653E+03	3.948052E-15	2.348537E-17
4.535635E+03	4.014737E-15	2.380301E-17
4.539617E+03	4.078415E-15	2.410109E-17
4.543599E+03	4.138369E-15	2.437561E-17
4.547581E+03	4.193049E-15	2.461772E-17
4.551563E+03	4.242705E-15	2.482922E-17
4.555546E+03	4.289138E-15	2.502092E-17
4.559528E+03	4.332595E-15	2.519449E-17
4.563510E+03	4.371046E-15	2.533835E-17
4.567492E+03	4.404153E-15	2.545083E-17
4.571474E+03	4.433355E-15	2.554054E-17
4.575456E+03	4.459254E-15	2.561117E-17
4.579438E+03	4.480787E-15	2.565682E-17
4.583420E+03	4.499154E-15	2.568458E-17
4.587403E+03	4.513413E-15	2.568928E-17
4.591385E+03	4.525353E-15	2.568128E-17
4.595367E+03	4.531544E-15	2.564130E-17
4.599349E+03	4.536027E-15	2.559243E-17
4.603331E+03	4.538923E-15	2.553544E-17
4.607313E+03	4.539297E-15	2.546516E-17
4.611295E+03	4.536919E-15	2.538043E-17
4.615277E+03	4.531084E-15	2.527745E-17
4.619260E+03	4.522983E-15	2.516300E-17
4.623242E+03	4.511801E-15	2.503266E-17
4.627224E+03	4.496952E-15	2.488333E-17
4.631206E+03	4.480103E-15	2.472435E-17
4.635188E+03	4.461725E-15	2.455839E-17
4.639170E+03	4.441121E-15	2.438170E-17
4.643152E+03	4.417477E-15	2.418989E-17
4.647134E+03	4.390567E-15	2.398184E-17
4.651116E+03	4.361455E-15	2.376347E-17
4.655099E+03	4.330736E-15	2.353808E-17
4.659081E+03	4.297946E-15	2.330322E-17
4.663063E+03	4.260054E-15	2.304253E-17
4.667045E+03	4.216490E-15	2.275312E-17
4.671027E+03	4.166920E-15	2.243340E-17
4.675009E+03	4.111947E-15	2.208677E-17
4.678991E+03	4.052166E-15	2.171662E-17
4.682973E+03	3.986547E-15	2.131755E-17
4.686956E+03	3.914408E-15	2.088609E-17
4.690938E+03	3.835187E-15	2.041945E-17
4.694920E+03	3.748092E-15	1.991360E-17
4.698902E+03	3.655348E-15	1.938055E-17
4.702884E+03	3.556974E-15	1.882052E-17
4.706866E+03	3.453214E-15	1.823493E-17
4.710848E+03	3.345822E-15	1.763312E-17
4.714830E+03	3.237235E-15	1.702796E-17
4.718813E+03	3.129189E-15	1.642851E-17
4.722795E+03	3.021568E-15	1.583407E-17
4.726777E+03	2.914024E-15	1.524273E-17
4.730759E+03	2.809669E-15	1.467067E-17
4.734741E+03	2.709645E-15	1.412366E-17
4.738723E+03	2.613022E-15	1.359668E-17
4.742705E+03	2.521053E-15	1.309609E-17
4.746687E+03	2.435220E-15	1.262939E-17
4.750669E+03	2.355277E-15	1.219508E-17
4.754652E+03	2.281209E-15	1.179290E-17
4.758634E+03	2.214489E-15	1.143024E-17
4.762616E+03	2.153269E-15	1.109737E-17
4.766598E+03	2.100279E-15	1.080815E-17
4.770580E+03	2.054811E-15	1.055875E-17
4.774562E+03	2.015593E-15	1.034242E-17
4.778544E+03	1.981355E-15	1.015249E-17
4.782526E+03	1.952313E-15	9.989935E-18
4.786509E+03	1.928340E-15	9.853986E-18
4.790491E+03	1.908629E-15	9.740390E-18
4.794473E+03	1.891691E-15	9.641467E-18
4.798455E+03	1.878998E-15	9.564632E-18
4.802437E+03	1.867703E-15	9.495317E-18
4.806419E+03	1.857463E-15	9.431740E-18
4.810401E+03	1.847934E-15	9.372139E-18
4.814383E+03	1.838778E-15	9.314765E-18
4.818366E+03	1.830333E-15	9.261315E-18
4.822348E+03	1.822372E-15	9.210618E-18
4.826330E+03	1.814780E-15	9.162083E-18
4.830312E+03	1.809254E-15	9.124241E-18
4.834294E+03	1.805109E-15	9.093615E-18
4.838276E+03	1.802346E-15	9.070164E-18
4.842258E+03	1.801864E-15	9.058385E-18
4.846240E+03	1.804897E-15	9.064438E-18
4.850223E+03	1.811441E-15	9.088234E-18
4.854205E+03	1.821601E-15	9.130247E-18
4.858187E+03	1.837394E-15	9.200522E-18
4.862169E+03	1.858473E-15	9.297242E-18
4.866151E+03	1.886966E-15	9.430955E-18
4.870133E+03	1.922074E-15	9.597573E-18
4.874115E+03	1.964572E-15	9.800878E-18
4.878097E+03	2.013778E-15	1.003737E-17
4.882079E+03	2.068338E-15	1.030021E-17
4.886062E+03	2.126678E-15	1.058151E-17
4.890044E+03	2.187449E-15	1.087451E-17
4.894026E+03	2.248525E-15	1.116863E-17
4.898008E+03	2.308676E-15	1.145777E-17
4.901990E+03	2.367794E-15	1.174140E-17
4.905972E+03	2.422866E-15	1.200459E-17
4.909954E+03	2.474455E-15	1.225021E-17
4.913936E+03	2.520559E-15	1.246838E-17
4.917919E+03	2.560180E-15	1.265423E-17
4.921901E+03	2.592437E-15	1.280349E-17
4.925883E+03	2.616332E-15	1.291132E-17
4.929865E+03	2.631767E-15	1.297731E-17
4.933847E+03	2.638192E-15	1.299887E-17
4.937829E+03	2.635172E-15	1.297394E-17
4.941811E+03	2.624164E-15	1.290979E-17
4.945793E+03	2.605398E-15	1.280763E-17
4.949776E+03	2.579548E-15	1.267087E-17
4.953758E+03	2.547732E-15	1.250505E-17
4.957740E+03	2.510623E-15	1.231354E-17
4.961722E+03	2.468557E-15	1.209804E-17
4.965704E+03	2.423982E-15	1.187059E-17
4.969686E+03	2.377233E-15	1.163284E-17
4.973668E+03	2.328865E-15	1.138752E-17
4.977650E+03	2.280766E-15	1.114388E-17
4.981632E+03	2.233712E-15	1.090570E-17
4.985615E+03	2.188366E-15	1.067620E-17
4.989597E+03	2.146060E-15	1.046184E-17
4.993579E+03	2.108231E-15	1.026959E-17
4.997561E+03	2.073878E-15	1.009452E-17
5.001543E+03	2.045662E-15	9.949532E-18
5.005525E+03	2.024463E-15	9.838842E-18
5.009507E+03	2.010169E-15	9.761812E-18
5.013489E+03	2.002775E-15	9.718341E-18
5.017472E+03	2.002943E-15	9.711558E-18
5.021454E+03	2.010337E-15	9.739748E-18
5.025436E+03	2.023955E-15	9.797976E-18
5.029418E+03	2.043354E-15	9.884016E-18
5.033400E+03	2.066978E-15	9.990285E-18
5.037382E+03	2.094052E-15	1.011298E-17
5.041364E+03	2.123798E-15	1.024831E-17
5.045346E+03	2.154666E-15	1.038876E-17
5.049329E+03	2.184549E-15	1.052416E-17
5.053311E+03	2.213228E-15	1.065347E-17
5.057293E+03	2.241588E-15	1.078094E-17
5.061275E+03	2.269409E-15	1.090554E-17
5.065257E+03	2.296691E-15	1.102724E-17
5.069239E+03	2.321995E-15	1.113916E-17
5.073221E+03	2.346207E-15	1.124556E-17
5.077203E+03	2.368219E-15	1.134115E-17
5.081185E+03	2.388032E-15	1.142595E-17
5.085168E+03	2.405425E-15	1.149893E-17
5.089150E+03	2.420396E-15	1.156011E-17
5.093132E+03	2.432948E-15	1.160953E-17
5.097114E+03	2.444187E-15	1.165249E-17
5.101096E+03	2.455221E-15	1.169429E-17
5.105078E+03	2.464498E-15	1.172754E-17
5.109060E+03	2.473681E-15	1.176017E-17
5.113042E+03	2.481994E-15	1.178849E-17
5.117025E+03	2.490433E-15	1.181724E-17
5.121007E+03	2.498445E-15	1.184379E-17
5.124989E+03	2.506140E-15	1.186867E-17
5.128971E+03	2.514294E-15	1.189555E-17
5.132953E+03	2.523460E-15	1.192705E-17
5.136935E+03	2.533306E-15	1.196158E-17
5.140917E+03	2.545053E-15	1.200487E-17
5.144899E+03	2.558810E-15	1.205743E-17
5.148882E+03	2.575354E-15	1.212288E-17
5.152864E+03	2.594465E-15	1.220014E-17
5.156846E+03	2.616698E-15	1.229178E-17
5.160828E+03	2.641831E-15	1.239671E-17
5.164810E+03	2.669645E-15	1.251385E-17
5.168792E+03	2.700694E-15	1.264577E-17
5.172774E+03	2.734091E-15	1.278826E-17
5.176756E+03	2.770505E-15	1.294441E-17
5.180738E+03	2.809048E-15	1.311002E-17
5.184721E+03	2.849387E-15	1.328351E-17
5.188703E+03	2.891858E-15	1.346640E-17
5.192685E+03	2.934573E-15	1.364990E-17
5.196667E+03	2.977643E-15	1.383449E-17
5.200649E+03	3.023845E-15	1.403307E-17
5.204631E+03	3.070738E-15	1.423426E-17
5.208613E+03	3.117210E-15	1.443291E-17
5.212595E+03	3.162927E-15	1.462748E-17
5.216578E+03	3.208557E-15	1.482105E-17
5.220560E+03	3.253543E-15	1.501107E-17
5.224542E+03	3.297329E-15	1.519498E-17
5.228524E+03	3.339580E-15	1.537126E-17
5.232506E+03	3.380518E-15	1.554096E-17
5.236488E+03	3.419920E-15	1.570307E-17
5.240470E+03	3.457674E-15	1.585710E-17
5.244452E+03	3.493444E-15	1.600155E-17
5.248435E+03	3.527341E-15	1.613697E-17
5.252417E+03	3.559140E-15	1.626235E-17
5.256399E+03	3.589285E-15	1.637976E-17
5.260381E+03	3.618221E-15	1.649127E-17
5.264363E+03	3.644387E-15	1.658979E-17
5.268345E+03	3.667336E-15	1.667333E-17
5.272327E+03	3.688068E-15	1.674650E-17
5.276309E+03	3.705578E-15	1.680480E-17
5.280291E+03	3.720422E-15	1.685078E-17
5.284274E+03	3.732709E-15	1.688500E-17
5.288256E+03	3.742660E-15	1.690852E-17
5.292238E+03	3.749828E-15	1.691934E-17
5.296220E+03	3.754321E-15	1.691802E-17
5.300202E+03	3.756918E-15	1.690812E-17
5.304184E+03	3.757284E-15	1.688817E-17
5.308166E+03	3.754634E-15	1.685469E-17
5.312148E+03	3.750642E-15	1.681525E-17
5.316131E+03	3.745528E-15	1.677085E-17
5.320113E+03	3.738847E-15	1.671954E-17
5.324095E+03	3.731377E-15	1.666482E-17
5.328077E+03	3.723453E-15	1.660822E-17
5.332059E+03	3.714292E-15	1.654625E-17
5.336041E+03	3.703670E-15	1.647794E-17
5.340023E+03	3.692032E-15	1.640531E-17
5.344005E+03	3.679377E-15	1.632838E-17
5.347988E+03	3.666152E-15	1.624914E-17
5.351970E+03	3.652579E-15	1.616861E-17
5.355952E+03	3.638769E-15	1.608728E-17
5.359934E+03	3.624499E-15	1.600417E-17
5.363916E+03	3.609431E-15	1.591782E-17
5.367898E+03	3.594238E-15	1.583120E-17
5.371880E+03	3.579029E-15	1.574481E-17
5.375862E+03	3.564141E-15	1.566013E-17
5.379844E+03	3.549684E-15	1.557764E-17
5.383827E+03	3.534652E-15	1.549293E-17
5.387809E+03	3.519827E-15	1.540945E-17
5.391791E+03	3.504538E-15	1.532425E-17
5.395773E+03	3.490464E-15	1.524469E-17
5.399755E+03	3.477156E-15	1.516879E-17
5.403737E+03	3.463158E-15	1.509021E-17
5.407719E+03	3.449927E-15	1.501530E-17
5.411701E+03	3.437126E-15	1.494259E-17
5.415684E+03	3.425428E-15	1.487499E-17
5.419666E+03	3.414159E-15	1.480959E-17
5.423648E+03	3.403096E-15	1.474540E-17
5.427630E+03	3.393023E-15	1.468583E-17
5.431612E+03	3.383715E-15	1.462989E-17
5.435594E+03	3.374388E-15	1.457420E-17
5.439576E+03	3.365714E-15	1.452165E-17
5.443558E+03	3.358478E-15	1.447563E-17
5.447541E+03	3.352232E-15	1.443418E-17
5.451523E+03	3.345404E-15	1.439053E-17
5.455505E+03	3.338781E-15	1.434804E-17
5.459487E+03	3.332922E-15	1.430912E-17
5.463469E+03	3.326706E-15	1.426892E-17
5.467451E+03	3.320359E-15	1.422840E-17
5.471433E+03	3.314328E-15	1.418949E-17
5.475415E+03	3.308166E-15	1.415024E-17
5.479398E+03	3.302209E-15	1.411209E-17
5.483380E+03	3.295785E-15	1.407215E-17
5.487362E+03	3.288670E-15	1.402946E-17
5.491344E+03	3.280639E-15	1.398307E-17
5.495326E+03	3.271468E-15	1.393201E-17
5.499308E+03	3.260597E-15	1.387391E-17
5.503290E+03	3.247913E-15	1.380830E-17
5.507272E+03	3.234427E-15	1.373947E-17
5.511254E+03	3.220139E-15	1.366743E-17
5.515237E+03	3.204041E-15	1.358790E-17
5.519219E+03	3.187366E-15	1.350611E-17
5.523201E+03	3.169107E-15	1.341779E-17
5.527183E+03	3.148813E-15	1.332105E-17
5.531165E+03	3.126822E-15	1.321733E-17
5.535147E+03	3.103473E-15	1.310806E-17
5.539129E+03	3.078653E-15	1.299277E-17
5.543111E+03	3.051915E-15	1.286959E-17
5.547094E+03	3.024268E-15	1.274277E-17
5.551076E+03	2.995602E-15	1.261185E-17
5.555058E+03	2.965692E-15	1.247590E-17
5.559040E+03	2.934989E-15	1.233680E-17
5.563022E+03	2.903156E-15	1.219315E-17
5.567004E+03	2.871204E-15	1.204919E-17
5.570986E+03	2.839582E-15	1.190680E-17
5.574968E+03	2.808178E-15	1.176550E-17
5.578951E+03	2.776768E-15	1.162435E-17
