#wls	flux	fluxerr
1.592848E+03	8.945453E-17	2.795345E-18
1.632669E+03	9.373864E-17	2.913225E-18
1.672491E+03	9.781696E-17	3.022883E-18
1.712312E+03	1.016420E-16	3.122910E-18
1.752133E+03	1.051214E-16	3.210567E-18
1.791954E+03	1.081069E-16	3.281493E-18
1.831775E+03	1.103404E-16	3.328127E-18
1.871597E+03	1.115627E-16	3.343103E-18
1.911418E+03	1.114903E-16	3.318553E-18
1.951239E+03	1.099447E-16	3.249972E-18
1.991060E+03	1.070104E-16	3.140761E-18
2.030881E+03	1.032817E-16	3.009141E-18
2.070703E+03	9.997401E-17	2.890818E-18
2.110524E+03	9.875714E-17	2.833463E-18
2.150345E+03	1.012053E-16	2.880484E-18
2.190166E+03	1.082676E-16	3.056107E-18
2.229987E+03	1.200119E-16	3.358869E-18
2.269809E+03	1.358121E-16	3.767845E-18
2.309630E+03	1.547092E-16	4.253440E-18
2.349451E+03	1.757503E-16	4.787066E-18
2.389272E+03	1.982302E-16	5.347710E-18
2.429093E+03	2.216983E-16	5.921843E-18
2.468915E+03	2.459215E-16	6.502108E-18
2.508736E+03	2.708115E-16	7.085175E-18
2.548557E+03	2.963478E-16	7.669529E-18
2.588378E+03	3.225695E-16	8.255176E-18
2.628199E+03	3.494920E-16	8.841459E-18
2.668021E+03	3.770964E-16	9.426811E-18
2.707842E+03	4.053441E-16	1.000918E-17
2.747663E+03	4.341102E-16	1.058443E-17
2.787484E+03	4.632021E-16	1.114693E-17
2.827305E+03	4.923415E-16	1.168924E-17
2.867127E+03	5.211756E-16	1.220254E-17
2.906948E+03	5.494278E-16	1.268023E-17
2.946769E+03	5.768802E-16	1.311746E-17
2.986590E+03	6.033658E-16	1.351082E-17
2.996546E+03	6.098079E-16	1.360173E-17
3.006501E+03	6.161866E-16	1.368989E-17
3.016456E+03	6.224625E-16	1.377442E-17
3.026411E+03	6.286809E-16	1.385636E-17
3.036367E+03	6.348625E-16	1.393615E-17
3.046322E+03	6.410403E-16	1.401452E-17
3.056277E+03	6.472313E-16	1.409185E-17
3.066233E+03	6.534229E-16	1.416785E-17
3.076188E+03	6.595739E-16	1.424161E-17
3.086143E+03	6.656875E-16	1.431322E-17
3.096099E+03	6.717244E-16	1.438183E-17
3.106054E+03	6.776747E-16	1.444726E-17
3.116009E+03	6.835282E-16	1.450930E-17
3.125964E+03	6.892629E-16	1.456750E-17
3.135920E+03	6.948428E-16	1.462114E-17
3.145875E+03	7.002879E-16	1.467068E-17
3.155830E+03	7.055508E-16	1.471516E-17
3.165786E+03	7.106387E-16	1.475477E-17
3.175741E+03	7.155336E-16	1.478919E-17
3.185696E+03	7.202172E-16	1.481808E-17
3.195652E+03	7.246732E-16	1.484118E-17
3.205607E+03	7.289125E-16	1.485876E-17
3.215562E+03	7.329070E-16	1.487032E-17
3.225517E+03	7.366446E-16	1.487567E-17
3.235473E+03	7.401256E-16	1.487489E-17
3.245428E+03	7.433525E-16	1.486811E-17
3.255383E+03	7.463042E-16	1.485498E-17
3.265339E+03	7.489851E-16	1.483565E-17
3.275294E+03	7.513902E-16	1.481011E-17
3.285249E+03	7.535269E-16	1.477859E-17
3.295205E+03	7.553816E-16	1.474089E-17
3.305160E+03	7.569533E-16	1.469708E-17
3.315115E+03	7.582658E-16	1.464770E-17
3.325070E+03	7.592990E-16	1.459245E-17
3.335026E+03	7.600668E-16	1.453167E-17
3.344981E+03	7.605843E-16	1.446573E-17
3.354936E+03	7.608345E-16	1.439439E-17
3.364892E+03	7.608435E-16	1.431821E-17
3.374847E+03	7.605954E-16	1.423697E-17
3.384802E+03	7.600954E-16	1.415086E-17
3.394758E+03	7.593585E-16	1.406022E-17
3.404713E+03	7.583793E-16	1.396504E-17
3.414668E+03	7.571626E-16	1.386547E-17
3.424623E+03	7.556956E-16	1.376136E-17
3.434579E+03	7.539942E-16	1.365309E-17
3.444534E+03	7.520578E-16	1.354070E-17
3.454489E+03	7.498802E-16	1.342418E-17
3.464445E+03	7.474767E-16	1.330386E-17
3.474400E+03	7.448492E-16	1.317986E-17
3.484355E+03	7.420138E-16	1.305254E-17
3.494311E+03	7.389926E-16	1.292235E-17
3.504266E+03	7.357978E-16	1.278957E-17
3.514221E+03	7.324488E-16	1.265459E-17
3.524176E+03	7.289662E-16	1.251783E-17
3.534132E+03	7.253702E-16	1.237966E-17
3.544087E+03	7.216913E-16	1.224066E-17
3.554042E+03	7.179669E-16	1.210149E-17
3.563998E+03	7.142366E-16	1.196282E-17
3.573953E+03	7.105472E-16	1.182545E-17
3.583908E+03	7.069671E-16	1.169050E-17
3.593864E+03	7.035493E-16	1.155881E-17
3.603819E+03	7.003728E-16	1.143163E-17
3.613774E+03	6.975482E-16	1.131067E-17
3.623729E+03	6.951770E-16	1.119747E-17
3.633685E+03	6.933776E-16	1.109377E-17
3.643640E+03	6.922724E-16	1.100135E-17
3.653595E+03	6.919932E-16	1.092205E-17
3.663551E+03	6.926708E-16	1.085768E-17
3.673506E+03	6.944326E-16	1.080990E-17
3.683461E+03	6.974353E-16	1.078078E-17
3.693417E+03	7.018078E-16	1.077191E-17
3.703372E+03	7.077072E-16	1.078523E-17
3.713327E+03	7.152813E-16	1.082247E-17
3.723282E+03	7.246852E-16	1.088543E-17
3.733238E+03	7.360694E-16	1.097574E-17
3.743193E+03	7.495832E-16	1.109496E-17
3.753148E+03	7.653858E-16	1.124473E-17
3.763104E+03	7.836182E-16	1.142635E-17
3.773059E+03	8.044187E-16	1.164102E-17
3.783014E+03	8.278992E-16	1.188949E-17
3.792970E+03	8.541793E-16	1.217258E-17
3.802925E+03	8.833260E-16	1.249031E-17
3.812880E+03	9.153938E-16	1.284249E-17
3.822835E+03	9.503738E-16	1.322803E-17
3.832791E+03	9.882275E-16	1.364542E-17
3.842746E+03	1.028796E-15	1.409154E-17
3.852701E+03	1.071873E-15	1.456270E-17
3.862657E+03	1.117138E-15	1.505372E-17
3.872612E+03	1.164141E-15	1.555788E-17
3.882567E+03	1.212332E-15	1.606731E-17
3.892523E+03	1.261049E-15	1.657294E-17
3.902478E+03	1.309501E-15	1.706429E-17
3.912433E+03	1.356794E-15	1.752992E-17
3.922388E+03	1.401987E-15	1.795816E-17
3.932344E+03	1.444133E-15	1.833772E-17
3.942299E+03	1.482306E-15	1.865797E-17
3.952254E+03	1.515621E-15	1.890924E-17
3.962210E+03	1.543379E-15	1.908451E-17
3.972165E+03	1.565013E-15	1.917870E-17
3.982120E+03	1.580166E-15	1.918955E-17
3.992076E+03	1.588700E-15	1.911757E-17
4.002031E+03	1.590725E-15	1.896631E-17
4.011986E+03	1.586587E-15	1.874202E-17
4.021941E+03	1.576821E-15	1.845302E-17
4.031897E+03	1.562150E-15	1.810958E-17
4.041852E+03	1.543395E-15	1.772277E-17
4.051807E+03	1.521476E-15	1.730440E-17
4.061763E+03	1.497324E-15	1.686602E-17
4.071718E+03	1.471857E-15	1.641860E-17
4.081673E+03	1.445909E-15	1.597181E-17
4.091629E+03	1.420240E-15	1.553411E-17
4.101584E+03	1.395522E-15	1.511269E-17
4.111539E+03	1.372277E-15	1.471287E-17
4.121494E+03	1.350913E-15	1.433848E-17
4.131450E+03	1.331786E-15	1.399267E-17
4.141405E+03	1.315140E-15	1.367727E-17
4.151360E+03	1.301179E-15	1.339359E-17
4.161316E+03	1.290050E-15	1.314228E-17
4.171271E+03	1.281835E-15	1.292329E-17
4.181226E+03	1.276580E-15	1.273617E-17
4.191182E+03	1.274300E-15	1.258017E-17
4.201137E+03	1.274929E-15	1.245373E-17
4.211092E+03	1.278384E-15	1.235517E-17
4.221047E+03	1.284538E-15	1.228245E-17
4.231003E+03	1.293160E-15	1.223260E-17
4.240958E+03	1.303970E-15	1.220228E-17
4.250913E+03	1.316684E-15	1.218826E-17
4.260869E+03	1.330876E-15	1.218612E-17
4.270824E+03	1.346094E-15	1.219141E-17
4.280779E+03	1.361845E-15	1.219947E-17
4.290735E+03	1.377623E-15	1.220574E-17
4.300690E+03	1.392897E-15	1.220564E-17
4.310645E+03	1.407130E-15	1.219475E-17
4.320601E+03	1.419760E-15	1.216863E-17
4.330556E+03	1.430250E-15	1.212327E-17
4.340511E+03	1.438182E-15	1.205587E-17
4.350466E+03	1.443187E-15	1.196415E-17
4.360422E+03	1.445071E-15	1.184739E-17
4.370377E+03	1.443875E-15	1.170686E-17
4.380332E+03	1.440305E-15	1.154909E-17
4.390288E+03	1.435744E-15	1.138573E-17
4.400243E+03	1.431682E-15	1.122877E-17
4.410198E+03	1.429553E-15	1.108924E-17
4.420154E+03	1.430770E-15	1.097749E-17
4.430109E+03	1.436624E-15	1.090247E-17
4.440064E+03	1.448292E-15	1.087188E-17
4.450019E+03	1.466836E-15	1.089221E-17
4.459975E+03	1.493174E-15	1.096863E-17
4.469930E+03	1.527833E-15	1.110319E-17
4.479885E+03	1.571106E-15	1.129617E-17
4.489841E+03	1.623187E-15	1.154712E-17
4.499796E+03	1.684051E-15	1.185406E-17
4.509751E+03	1.753471E-15	1.221368E-17
4.519707E+03	1.830967E-15	1.262104E-17
4.529662E+03	1.915703E-15	1.306900E-17
4.539617E+03	2.006452E-15	1.354808E-17
4.549572E+03	2.101578E-15	1.404643E-17
4.559528E+03	2.198927E-15	1.454929E-17
4.569483E+03	2.295866E-15	1.503937E-17
4.579438E+03	2.389432E-15	1.549794E-17
4.589394E+03	2.476769E-15	1.590769E-17
4.599349E+03	2.554971E-15	1.625170E-17
4.609304E+03	2.621225E-15	1.651430E-17
4.619260E+03	2.673259E-15	1.668378E-17
4.629215E+03	2.709252E-15	1.675164E-17
4.639170E+03	2.727933E-15	1.671308E-17
4.649125E+03	2.728939E-15	1.656895E-17
4.659081E+03	2.712538E-15	1.632382E-17
4.669036E+03	2.679702E-15	1.598627E-17
4.678991E+03	2.632083E-15	1.556853E-17
4.688947E+03	2.571837E-15	1.508536E-17
4.698902E+03	2.501416E-15	1.455264E-17
4.708857E+03	2.423609E-15	1.398768E-17
4.718813E+03	2.341174E-15	1.340697E-17
4.728768E+03	2.256850E-15	1.282637E-17
4.738723E+03	2.173135E-15	1.225988E-17
4.748678E+03	2.092257E-15	1.171952E-17
4.758634E+03	2.015952E-15	1.121428E-17
4.768589E+03	1.945532E-15	1.075054E-17
4.778544E+03	1.882598E-15	1.033613E-17
4.788500E+03	1.828344E-15	9.976490E-18
4.798455E+03	1.783480E-15	9.674332E-18
4.808410E+03	1.748337E-15	9.430237E-18
4.818366E+03	1.722995E-15	9.243460E-18
4.828321E+03	1.707342E-15	9.112304E-18
4.838276E+03	1.701128E-15	9.034457E-18
4.848231E+03	1.703962E-15	9.006951E-18
4.858187E+03	1.715384E-15	9.026575E-18
4.868142E+03	1.734832E-15	9.089697E-18
4.878097E+03	1.761578E-15	9.191905E-18
4.888053E+03	1.794760E-15	9.328214E-18
4.898008E+03	1.833293E-15	9.492579E-18
4.907963E+03	1.875779E-15	9.677450E-18
4.917919E+03	1.920327E-15	9.872869E-18
4.927874E+03	1.964655E-15	1.006700E-17
4.937829E+03	2.006292E-15	1.024720E-17
4.947784E+03	2.042726E-15	1.040078E-17
4.957740E+03	2.071552E-15	1.051571E-17
4.967695E+03	2.090753E-15	1.058206E-17
4.977650E+03	2.099184E-15	1.059439E-17
4.987606E+03	2.096462E-15	1.055113E-17
4.997561E+03	2.083023E-15	1.045483E-17
5.007516E+03	2.060295E-15	1.031298E-17
5.017472E+03	2.030304E-15	1.013593E-17
5.027427E+03	1.995296E-15	9.935069E-18
5.037382E+03	1.957541E-15	9.721748E-18
5.047337E+03	1.919168E-15	9.506541E-18
5.057293E+03	1.882046E-15	9.298619E-18
5.067248E+03	1.847635E-15	9.105067E-18
5.077203E+03	1.817120E-15	8.931540E-18
5.087159E+03	1.791316E-15	8.781833E-18
5.097114E+03	1.770695E-15	8.658040E-18
5.107069E+03	1.755543E-15	8.561317E-18
5.117025E+03	1.746036E-15	8.492278E-18
5.126980E+03	1.742286E-15	8.451218E-18
5.136935E+03	1.744390E-15	8.438365E-18
5.146890E+03	1.752577E-15	8.454563E-18
5.156846E+03	1.767197E-15	8.501246E-18
5.166801E+03	1.788631E-15	8.579959E-18
5.176756E+03	1.817298E-15	8.692419E-18
5.186712E+03	1.853532E-15	8.839907E-18
5.196667E+03	1.897564E-15	9.023193E-18
5.206622E+03	1.949403E-15	9.241989E-18
5.216578E+03	2.008814E-15	9.494848E-18
5.226533E+03	2.075226E-15	9.778755E-18
5.236488E+03	2.147745E-15	1.008922E-17
5.246443E+03	2.225058E-15	1.041983E-17
5.256399E+03	2.305424E-15	1.076230E-17
5.266354E+03	2.386798E-15	1.110699E-17
5.276309E+03	2.466886E-15	1.144329E-17
5.286265E+03	2.543215E-15	1.175988E-17
5.296220E+03	2.613274E-15	1.204542E-17
5.306175E+03	2.674719E-15	1.228953E-17
5.316131E+03	2.725464E-15	1.248313E-17
5.326086E+03	2.763754E-15	1.261880E-17
5.336041E+03	2.788345E-15	1.269152E-17
5.345996E+03	2.798573E-15	1.269901E-17
5.355952E+03	2.794455E-15	1.264206E-17
5.365907E+03	2.776809E-15	1.252506E-17
5.375862E+03	2.747170E-15	1.235557E-17
5.385818E+03	2.707869E-15	1.214461E-17
5.395773E+03	2.662065E-15	1.190674E-17
5.405728E+03	2.613370E-15	1.165839E-17
5.415684E+03	2.565703E-15	1.141714E-17
5.425639E+03	2.523091E-15	1.120089E-17
5.435594E+03	2.489465E-15	1.102692E-17
5.445549E+03	2.468300E-15	1.091040E-17
5.455505E+03	2.462617E-15	1.086437E-17
5.465460E+03	2.474405E-15	1.089730E-17
5.475415E+03	2.503422E-15	1.100783E-17
5.485371E+03	2.545305E-15	1.117643E-17
5.495326E+03	2.593704E-15	1.137493E-17
5.505281E+03	2.641532E-15	1.157213E-17
5.515237E+03	2.681947E-15	1.173801E-17
5.525192E+03	2.708699E-15	1.184521E-17
5.535147E+03	2.716802E-15	1.187197E-17
5.545102E+03	2.703544E-15	1.180647E-17
5.555058E+03	2.668252E-15	1.164574E-17
5.565013E+03	2.612077E-15	1.139479E-17
5.574968E+03	2.537698E-15	1.106523E-17
5.584924E+03	2.448910E-15	1.067351E-17
5.594879E+03	2.350135E-15	1.023881E-17
5.604834E+03	2.246028E-15	9.781289E-18
5.614790E+03	2.141112E-15	9.320547E-18
5.624745E+03	2.039454E-15	8.874178E-18
5.634700E+03	1.944565E-15	8.457365E-18
5.644655E+03	1.859374E-15	8.082741E-18
5.654611E+03	1.786101E-15	7.759851E-18
5.664566E+03	1.726292E-15	7.495296E-18
5.674521E+03	1.681029E-15	7.293633E-18
5.684477E+03	1.650950E-15	7.157473E-18
5.694432E+03	1.636298E-15	7.087689E-18
5.704387E+03	1.637112E-15	7.084226E-18
5.714343E+03	1.653322E-15	7.146534E-18
5.724298E+03	1.684740E-15	7.273501E-18
5.734253E+03	1.731149E-15	7.463865E-18
5.744209E+03	1.792127E-15	7.715424E-18
5.754164E+03	1.867034E-15	8.025019E-18
5.764119E+03	1.954876E-15	8.387920E-18
5.774074E+03	2.054219E-15	8.797513E-18
5.784030E+03	2.163003E-15	9.244502E-18
5.793985E+03	2.278623E-15	9.717306E-18
5.803940E+03	2.397950E-15	1.020218E-17
5.813896E+03	2.517488E-15	1.068396E-17
5.823851E+03	2.633628E-15	1.114711E-17
5.833806E+03	2.742720E-15	1.157613E-17
5.843762E+03	2.841511E-15	1.195741E-17
5.853717E+03	2.927186E-15	1.227935E-17
5.863672E+03	2.997623E-15	1.253348E-17
5.873627E+03	3.051452E-15	1.271466E-17
5.883583E+03	3.088075E-15	1.282108E-17
5.893538E+03	3.107621E-15	1.285406E-17
5.903493E+03	3.110698E-15	1.281695E-17
5.913449E+03	3.098574E-15	1.271583E-17
5.923404E+03	3.072825E-15	1.255804E-17
5.933359E+03	3.035207E-15	1.235155E-17
5.943315E+03	2.987615E-15	1.210485E-17
5.953270E+03	2.932125E-15	1.182702E-17
5.963225E+03	2.870797E-15	1.152697E-17
5.973180E+03	2.805573E-15	1.121297E-17
5.983136E+03	2.738454E-15	1.089342E-17
5.993091E+03	2.671189E-15	1.057554E-17
6.003046E+03	2.605442E-15	1.026609E-17
6.013002E+03	2.542587E-15	9.970554E-18
6.022957E+03	2.483830E-15	9.693658E-18
6.032912E+03	2.430103E-15	9.438961E-18
6.042868E+03	2.382073E-15	9.208931E-18
6.052823E+03	2.340106E-15	9.004824E-18
6.062778E+03	2.304410E-15	8.827272E-18
6.072733E+03	2.274996E-15	8.676155E-18
6.082689E+03	2.251727E-15	8.550804E-18
6.092644E+03	2.234304E-15	8.449962E-18
6.102599E+03	2.222359E-15	8.372164E-18
6.112555E+03	2.215275E-15	8.315052E-18
6.122510E+03	2.212232E-15	8.275573E-18
6.132465E+03	2.212305E-15	8.250354E-18
6.142421E+03	2.214315E-15	8.235136E-18
6.152376E+03	2.216830E-15	8.224804E-18
6.162331E+03	2.218201E-15	8.213490E-18
6.172286E+03	2.216279E-15	8.193511E-18
6.182242E+03	2.208876E-15	8.156988E-18
6.192197E+03	2.193895E-15	8.096221E-18
6.202152E+03	2.169363E-15	8.003905E-18
6.212108E+03	2.134040E-15	7.875353E-18
6.222063E+03	2.088913E-15	7.713992E-18
6.232018E+03	2.037600E-15	7.532885E-18
6.241974E+03	1.984199E-15	7.346855E-18
6.251929E+03	1.932354E-15	7.169108E-18
6.261884E+03	1.884490E-15	7.008426E-18
6.271839E+03	1.842343E-15	6.871129E-18
6.281795E+03	1.807215E-15	6.762053E-18
6.291750E+03	1.779689E-15	6.683451E-18
6.301705E+03	1.760109E-15	6.636779E-18
6.311661E+03	1.748385E-15	6.621941E-18
6.321616E+03	1.744133E-15	6.637800E-18
6.331571E+03	1.746827E-15	6.682706E-18
6.341527E+03	1.755702E-15	6.754116E-18
6.351482E+03	1.769777E-15	6.848641E-18
6.361437E+03	1.787968E-15	6.962456E-18
6.371392E+03	1.809202E-15	7.091707E-18
6.381348E+03	1.832332E-15	7.232159E-18
6.391303E+03	1.856232E-15	7.379564E-18
6.401258E+03	1.879913E-15	7.530027E-18
6.411214E+03	1.902549E-15	7.680095E-18
6.421169E+03	1.923479E-15	7.826872E-18
6.431124E+03	1.942207E-15	7.968028E-18
6.441080E+03	1.958516E-15	8.102314E-18
6.451035E+03	1.972343E-15	8.229060E-18
6.460990E+03	1.983743E-15	8.348083E-18
6.470945E+03	1.992829E-15	8.459433E-18
6.480901E+03	1.999683E-15	8.563035E-18
6.490856E+03	2.004306E-15	8.658474E-18
6.500811E+03	2.006428E-15	8.744152E-18
6.510767E+03	2.006947E-15	8.823557E-18
6.520722E+03	2.008115E-15	8.906332E-18
6.530677E+03	2.011924E-15	9.001302E-18
6.540633E+03	2.019876E-15	9.115390E-18
6.550588E+03	2.033022E-15	9.253727E-18
6.560543E+03	2.051672E-15	9.418183E-18
6.570498E+03	2.075701E-15	9.608681E-18
6.580454E+03	2.104504E-15	9.822862E-18
6.590409E+03	2.137123E-15	1.005662E-17
6.600364E+03	2.172172E-15	1.030366E-17
6.610320E+03	2.208088E-15	1.055661E-17
6.620275E+03	2.243216E-15	1.080745E-17
6.630230E+03	2.275760E-15	1.104719E-17
6.640186E+03	2.304174E-15	1.126782E-17
6.650141E+03	2.327071E-15	1.146193E-17
6.660096E+03	2.343386E-15	1.162347E-17
6.670051E+03	2.352413E-15	1.174812E-17
6.680007E+03	2.353749E-15	1.183300E-17
6.689962E+03	2.347375E-15	1.187714E-17
6.699917E+03	2.333569E-15	1.188115E-17
6.709873E+03	2.312917E-15	1.184727E-17
6.719828E+03	2.286134E-15	1.177853E-17
6.729783E+03	2.254123E-15	1.167905E-17
6.739739E+03	2.217899E-15	1.155371E-17
6.749694E+03	2.178447E-15	1.140734E-17
6.759649E+03	2.136805E-15	1.124519E-17
6.769604E+03	2.094005E-15	1.107264E-17
6.779560E+03	2.050933E-15	1.089438E-17
6.789515E+03	2.008569E-15	1.071573E-17
6.799470E+03	1.967745E-15	1.054127E-17
6.809426E+03	1.929156E-15	1.037494E-17
6.819381E+03	1.893563E-15	1.022111E-17
6.829336E+03	1.861534E-15	1.008310E-17
6.839292E+03	1.833595E-15	9.964063E-18
6.849247E+03	1.810191E-15	9.866718E-18
6.859202E+03	1.791682E-15	9.793319E-18
6.869157E+03	1.778381E-15	9.745854E-18
6.879113E+03	1.770413E-15	9.725272E-18
6.889068E+03	1.767939E-15	9.732679E-18
6.899023E+03	1.770887E-15	9.767881E-18
6.908979E+03	1.779199E-15	9.830719E-18
6.918934E+03	1.792544E-15	9.919479E-18
6.928889E+03	1.810579E-15	1.003235E-17
6.938845E+03	1.832669E-15	1.016585E-17
6.948800E+03	1.858077E-15	1.031588E-17
6.958755E+03	1.885876E-15	1.047728E-17
6.968710E+03	1.914980E-15	1.064394E-17
6.978666E+03	1.944282E-15	1.080963E-17
6.988621E+03	1.972489E-15	1.096709E-17
6.998576E+03	1.998424E-15	1.110969E-17
7.008532E+03	2.021042E-15	1.123158E-17
7.018487E+03	2.039425E-15	1.132762E-17
7.028442E+03	2.052845E-15	1.139377E-17
7.038398E+03	2.060872E-15	1.142772E-17
7.048353E+03	2.063397E-15	1.142895E-17
7.058308E+03	2.060503E-15	1.139805E-17
7.068263E+03	2.052569E-15	1.133728E-17
7.078219E+03	2.040186E-15	1.125010E-17
7.088174E+03	2.024157E-15	1.114114E-17
7.098129E+03	2.005253E-15	1.101484E-17
7.108085E+03	1.984472E-15	1.087687E-17
7.118040E+03	1.962648E-15	1.073198E-17
7.127995E+03	1.940662E-15	1.058513E-17
7.137951E+03	1.919275E-15	1.044058E-17
7.147906E+03	1.899129E-15	1.030191E-17
7.157861E+03	1.880643E-15	1.017144E-17
7.167817E+03	1.864167E-15	1.005110E-17
7.177772E+03	1.849866E-15	9.941778E-18
7.187727E+03	1.837683E-15	9.843161E-18
7.197682E+03	1.827472E-15	9.754453E-18
7.207638E+03	1.819014E-15	9.674490E-18
7.217593E+03	1.811910E-15	9.601157E-18
7.227548E+03	1.805746E-15	9.532287E-18
7.237504E+03	1.800140E-15	9.465919E-18
7.247459E+03	1.794660E-15	9.399859E-18
7.257414E+03	1.788975E-15	9.332475E-18
7.267370E+03	1.782928E-15	9.263083E-18
7.277325E+03	1.776289E-15	9.190624E-18
7.287280E+03	1.769189E-15	9.115924E-18
7.297235E+03	1.761678E-15	9.039389E-18
7.307191E+03	1.754059E-15	8.962711E-18
7.317146E+03	1.746595E-15	8.887350E-18
7.327101E+03	1.739648E-15	8.815262E-18
7.337057E+03	1.733509E-15	8.747992E-18
7.347012E+03	1.728349E-15	8.686486E-18
7.356967E+03	1.724434E-15	8.632135E-18
7.366923E+03	1.721719E-15	8.584775E-18
7.376878E+03	1.720102E-15	8.543956E-18
7.386833E+03	1.719556E-15	8.509620E-18
7.396788E+03	1.719649E-15	8.479716E-18
7.406744E+03	1.720126E-15	8.453106E-18
7.416699E+03	1.720549E-15	8.427765E-18
7.426654E+03	1.720284E-15	8.400744E-18
7.436610E+03	1.718743E-15	8.369357E-18
7.446565E+03	1.715429E-15	8.331386E-18
7.456520E+03	1.709826E-15	8.284494E-18
7.466476E+03	1.701590E-15	8.227098E-18
7.476431E+03	1.690535E-15	8.158319E-18
7.486386E+03	1.676668E-15	8.078222E-18
7.496341E+03	1.660259E-15	7.988087E-18
7.506297E+03	1.641772E-15	7.890130E-18
7.516252E+03	1.621785E-15	7.787059E-18
7.526207E+03	1.601058E-15	7.682469E-18
7.536163E+03	1.580248E-15	7.579416E-18
7.546118E+03	1.560015E-15	7.480980E-18
7.556073E+03	1.540797E-15	7.389175E-18
7.566029E+03	1.522921E-15	7.305497E-18
7.575984E+03	1.506629E-15	7.231034E-18
7.585939E+03	1.492054E-15	7.166373E-18
7.595894E+03	1.479732E-15	7.114058E-18
7.605850E+03	1.470139E-15	7.076363E-18
7.615805E+03	1.463537E-15	7.054560E-18
7.625760E+03	1.460090E-15	7.049484E-18
7.635716E+03	1.459691E-15	7.060677E-18
7.645671E+03	1.462197E-15	7.087534E-18
7.655626E+03	1.467361E-15	7.128955E-18
7.665582E+03	1.474824E-15	7.183308E-18
7.675537E+03	1.484252E-15	7.249081E-18
7.685492E+03	1.495231E-15	7.324366E-18
7.695447E+03	1.507302E-15	7.407039E-18
7.705403E+03	1.519992E-15	7.494873E-18
7.715358E+03	1.532837E-15	7.585671E-18
7.725313E+03	1.545416E-15	7.677423E-18
