#wls	flux	fluxerr
1.592848E+03	4.317286E-17	6.693997E-18
1.632669E+03	4.512578E-17	6.956557E-18
1.672491E+03	4.695296E-17	7.195399E-18
1.712312E+03	4.862814E-17	7.406736E-18
1.752133E+03	5.010869E-17	7.584420E-18
1.791954E+03	5.131231E-17	7.716517E-18
1.831775E+03	5.213194E-17	7.787747E-18
1.871597E+03	5.244915E-17	7.781618E-18
1.911418E+03	5.213016E-17	7.679918E-18
1.951239E+03	5.111246E-17	7.475497E-18
1.991060E+03	4.944560E-17	7.177837E-18
2.030881E+03	4.742421E-17	6.831603E-18
2.070703E+03	4.561683E-17	6.519359E-18
2.110524E+03	4.478304E-17	6.348164E-18
2.150345E+03	4.563429E-17	6.414676E-18
2.190166E+03	4.857240E-17	6.768811E-18
2.229987E+03	5.362954E-17	7.407184E-18
2.269809E+03	6.051340E-17	8.281518E-18
2.309630E+03	6.880726E-17	9.327839E-18
2.349451E+03	7.808949E-17	1.048341E-17
2.389272E+03	8.801386E-17	1.169755E-17
2.429093E+03	9.835169E-17	1.293676E-17
2.468915E+03	1.089600E-16	1.417984E-17
2.508736E+03	1.197572E-16	1.541428E-17
2.548557E+03	1.306819E-16	1.663050E-17
2.588378E+03	1.416789E-16	1.782005E-17
2.628199E+03	1.527110E-16	1.897701E-17
2.668021E+03	1.636951E-16	2.009004E-17
2.707842E+03	1.745535E-16	2.114895E-17
2.747663E+03	1.851790E-16	2.214053E-17
2.787484E+03	1.954179E-16	2.304679E-17
2.827305E+03	2.051538E-16	2.385516E-17
2.867127E+03	2.142273E-16	2.454896E-17
2.906948E+03	2.225123E-16	2.511648E-17
2.946769E+03	2.299244E-16	2.555162E-17
2.986590E+03	2.363508E-16	2.584593E-17
2.996546E+03	2.377991E-16	2.589757E-17
3.006501E+03	2.391737E-16	2.593948E-17
3.016456E+03	2.404859E-16	2.597296E-17
3.026411E+03	2.417292E-16	2.599737E-17
3.036367E+03	2.429251E-16	2.601512E-17
3.046322E+03	2.440862E-16	2.602761E-17
3.056277E+03	2.452212E-16	2.603580E-17
3.066233E+03	2.463269E-16	2.603938E-17
3.076188E+03	2.473869E-16	2.603667E-17
3.086143E+03	2.483993E-16	2.602753E-17
3.096099E+03	2.493627E-16	2.601184E-17
3.106054E+03	2.502691E-16	2.598887E-17
3.116009E+03	2.511115E-16	2.595796E-17
3.125964E+03	2.518961E-16	2.591984E-17
3.135920E+03	2.526104E-16	2.587330E-17
3.145875E+03	2.532490E-16	2.581787E-17
3.155830E+03	2.538254E-16	2.575506E-17
3.165786E+03	2.543227E-16	2.568323E-17
3.175741E+03	2.547491E-16	2.560332E-17
3.185696E+03	2.550952E-16	2.551448E-17
3.195652E+03	2.553698E-16	2.541771E-17
3.205607E+03	2.555703E-16	2.531286E-17
3.215562E+03	2.556948E-16	2.519986E-17
3.225517E+03	2.557476E-16	2.507922E-17
3.235473E+03	2.557332E-16	2.495149E-17
3.245428E+03	2.556456E-16	2.481620E-17
3.255383E+03	2.554905E-16	2.467400E-17
3.265339E+03	2.552685E-16	2.452506E-17
3.275294E+03	2.549860E-16	2.437009E-17
3.285249E+03	2.546446E-16	2.420933E-17
3.295205E+03	2.542466E-16	2.404309E-17
3.305160E+03	2.537995E-16	2.387217E-17
3.315115E+03	2.532970E-16	2.369607E-17
3.325070E+03	2.527572E-16	2.351653E-17
3.335026E+03	2.521749E-16	2.333317E-17
3.344981E+03	2.515553E-16	2.314650E-17
3.354936E+03	2.509082E-16	2.295751E-17
3.364892E+03	2.502352E-16	2.276637E-17
3.374847E+03	2.495388E-16	2.257337E-17
3.384802E+03	2.488266E-16	2.237922E-17
3.394758E+03	2.481024E-16	2.218431E-17
3.404713E+03	2.473790E-16	2.198978E-17
3.414668E+03	2.466541E-16	2.179544E-17
3.424623E+03	2.459380E-16	2.160221E-17
3.434579E+03	2.452383E-16	2.141072E-17
3.444534E+03	2.445596E-16	2.122138E-17
3.454489E+03	2.439114E-16	2.103497E-17
3.464445E+03	2.433042E-16	2.085234E-17
3.474400E+03	2.427460E-16	2.067412E-17
3.484355E+03	2.422430E-16	2.050075E-17
3.494311E+03	2.418091E-16	2.033333E-17
3.504266E+03	2.414562E-16	2.017273E-17
3.514221E+03	2.411943E-16	2.001966E-17
3.524176E+03	2.410378E-16	1.987517E-17
3.534132E+03	2.410021E-16	1.974033E-17
3.544087E+03	2.411036E-16	1.961630E-17
3.554042E+03	2.413563E-16	1.950399E-17
3.563998E+03	2.417778E-16	1.940454E-17
3.573953E+03	2.423824E-16	1.931883E-17
3.583908E+03	2.431922E-16	1.924831E-17
3.593864E+03	2.442198E-16	1.919361E-17
3.603819E+03	2.454797E-16	1.915551E-17
3.613774E+03	2.469833E-16	1.913449E-17
3.623729E+03	2.487442E-16	1.913119E-17
3.633685E+03	2.507764E-16	1.914624E-17
3.643640E+03	2.530941E-16	1.918025E-17
3.653595E+03	2.557144E-16	1.923402E-17
3.663551E+03	2.586522E-16	1.930813E-17
3.673506E+03	2.619276E-16	1.940353E-17
3.683461E+03	2.655554E-16	1.952071E-17
3.693417E+03	2.695582E-16	1.966070E-17
3.703372E+03	2.739526E-16	1.982406E-17
3.713327E+03	2.787544E-16	2.001123E-17
3.723282E+03	2.839836E-16	2.022292E-17
3.733238E+03	2.896559E-16	2.045946E-17
3.743193E+03	2.957848E-16	2.072104E-17
3.753148E+03	3.023811E-16	2.100758E-17
3.763104E+03	3.094582E-16	2.131916E-17
3.773059E+03	3.170167E-16	2.165498E-17
3.783014E+03	3.250585E-16	2.201429E-17
3.792970E+03	3.335830E-16	2.239617E-17
3.802925E+03	3.425711E-16	2.279850E-17
3.812880E+03	3.520120E-16	2.321970E-17
3.822835E+03	3.618777E-16	2.365712E-17
3.832791E+03	3.721311E-16	2.410759E-17
3.842746E+03	3.827327E-16	2.456785E-17
3.852701E+03	3.936264E-16	2.503368E-17
3.862657E+03	4.047504E-16	2.550065E-17
3.872612E+03	4.160283E-16	2.596354E-17
3.882567E+03	4.273831E-16	2.641731E-17
3.892523E+03	4.387177E-16	2.685584E-17
3.902478E+03	4.499400E-16	2.727356E-17
3.912433E+03	4.609455E-16	2.766438E-17
3.922388E+03	4.716308E-16	2.802254E-17
3.932344E+03	4.818930E-16	2.834253E-17
3.942299E+03	4.916253E-16	2.861889E-17
3.952254E+03	5.007336E-16	2.884715E-17
3.962210E+03	5.091397E-16	2.902396E-17
3.972165E+03	5.167597E-16	2.914588E-17
3.982120E+03	5.235474E-16	2.921173E-17
3.992076E+03	5.294516E-16	2.922023E-17
4.002031E+03	5.344572E-16	2.917214E-17
4.011986E+03	5.385615E-16	2.906898E-17
4.021941E+03	5.417797E-16	2.891320E-17
4.031897E+03	5.441469E-16	2.870830E-17
4.041852E+03	5.457197E-16	2.845880E-17
4.051807E+03	5.465620E-16	2.816945E-17
4.061763E+03	5.467636E-16	2.784621E-17
4.071718E+03	5.464108E-16	2.749460E-17
4.081673E+03	5.456013E-16	2.712052E-17
4.091629E+03	5.444385E-16	2.672992E-17
4.101584E+03	5.430304E-16	2.632871E-17
4.111539E+03	5.414803E-16	2.592230E-17
4.121494E+03	5.398828E-16	2.551547E-17
4.131450E+03	5.383377E-16	2.511298E-17
4.141405E+03	5.369318E-16	2.471876E-17
4.151360E+03	5.357412E-16	2.433605E-17
4.161316E+03	5.348452E-16	2.396804E-17
4.171271E+03	5.342963E-16	2.361654E-17
4.181226E+03	5.341506E-16	2.328339E-17
4.191182E+03	5.344534E-16	2.296984E-17
4.201137E+03	5.352306E-16	2.267619E-17
4.211092E+03	5.365026E-16	2.240247E-17
4.221047E+03	5.382838E-16	2.214841E-17
4.231003E+03	5.405701E-16	2.191295E-17
4.240958E+03	5.433605E-16	2.169517E-17
4.250913E+03	5.466376E-16	2.149353E-17
4.260869E+03	5.503701E-16	2.130597E-17
4.270824E+03	5.545387E-16	2.113098E-17
4.280779E+03	5.591010E-16	2.096625E-17
4.290735E+03	5.640179E-16	2.080969E-17
4.300690E+03	5.692559E-16	2.065951E-17
4.310645E+03	5.747743E-16	2.051376E-17
4.320601E+03	5.805377E-16	2.037077E-17
4.330556E+03	5.865210E-16	2.022932E-17
4.340511E+03	5.926945E-16	2.008811E-17
4.350466E+03	5.990515E-16	1.994668E-17
4.360422E+03	6.055960E-16	1.980495E-17
4.370377E+03	6.123603E-16	1.966372E-17
4.380332E+03	6.194036E-16	1.952462E-17
4.390288E+03	6.268450E-16	1.939097E-17
4.400243E+03	6.348160E-16	1.926620E-17
4.410198E+03	6.434666E-16	1.915402E-17
4.420154E+03	6.529484E-16	1.905783E-17
4.430109E+03	6.634163E-16	1.898082E-17
4.440064E+03	6.750159E-16	1.892560E-17
4.450019E+03	6.878836E-16	1.889418E-17
4.459975E+03	7.021217E-16	1.888739E-17
4.469930E+03	7.178154E-16	1.890539E-17
4.479885E+03	7.350151E-16	1.894731E-17
4.489841E+03	7.537175E-16	1.901088E-17
4.499796E+03	7.738900E-16	1.909314E-17
4.509751E+03	7.954288E-16	1.918960E-17
4.519707E+03	8.181910E-16	1.929508E-17
4.529662E+03	8.419531E-16	1.940298E-17
4.539617E+03	8.664498E-16	1.950627E-17
4.549572E+03	8.913420E-16	1.959696E-17
4.559528E+03	9.162342E-16	1.966661E-17
4.569483E+03	9.407004E-16	1.970703E-17
4.579438E+03	9.642644E-16	1.970995E-17
4.589394E+03	9.864420E-16	1.966791E-17
4.599349E+03	1.006751E-15	1.957451E-17
4.609304E+03	1.024717E-15	1.942443E-17
4.619260E+03	1.039949E-15	1.921481E-17
4.629215E+03	1.052099E-15	1.894425E-17
4.639170E+03	1.060917E-15	1.861364E-17
4.649125E+03	1.066248E-15	1.822587E-17
4.659081E+03	1.068051E-15	1.778583E-17
4.669036E+03	1.066402E-15	1.730025E-17
4.678991E+03	1.061500E-15	1.677750E-17
4.688947E+03	1.053629E-15	1.622671E-17
4.698902E+03	1.043181E-15	1.565799E-17
4.708857E+03	1.030593E-15	1.508126E-17
4.718813E+03	1.016368E-15	1.450656E-17
4.728768E+03	1.001040E-15	1.394343E-17
4.738723E+03	9.851361E-16	1.340047E-17
4.748678E+03	9.691837E-16	1.288543E-17
4.758634E+03	9.536807E-16	1.240496E-17
4.768589E+03	9.391020E-16	1.196482E-17
4.778544E+03	9.258295E-16	1.156910E-17
4.788500E+03	9.142241E-16	1.122132E-17
4.798455E+03	9.045644E-16	1.092378E-17
4.808410E+03	8.970990E-16	1.067834E-17
4.818366E+03	8.919904E-16	1.048587E-17
4.828321E+03	8.893488E-16	1.034668E-17
4.838276E+03	8.892254E-16	1.025993E-17
4.848231E+03	8.916125E-16	1.022374E-17
4.858187E+03	8.964440E-16	1.023580E-17
4.868142E+03	9.035935E-16	1.029331E-17
4.878097E+03	9.128793E-16	1.039303E-17
4.888053E+03	9.240383E-16	1.053097E-17
4.898008E+03	9.367572E-16	1.070265E-17
4.907963E+03	9.506380E-16	1.090266E-17
4.917919E+03	9.652473E-16	1.112516E-17
4.927874E+03	9.800747E-16	1.136331E-17
4.937829E+03	9.945761E-16	1.160974E-17
4.947784E+03	1.008234E-15	1.185717E-17
4.957740E+03	1.020499E-15	1.209772E-17
4.967695E+03	1.030932E-15	1.232458E-17
4.977650E+03	1.039134E-15	1.253123E-17
4.987606E+03	1.044853E-15	1.271276E-17
4.997561E+03	1.047950E-15	1.286557E-17
5.007516E+03	1.048459E-15	1.298813E-17
5.017472E+03	1.046507E-15	1.308022E-17
5.027427E+03	1.042382E-15	1.314375E-17
5.037382E+03	1.036420E-15	1.318151E-17
5.047337E+03	1.029062E-15	1.319786E-17
5.057293E+03	1.020752E-15	1.319752E-17
5.067248E+03	1.011937E-15	1.318551E-17
5.077203E+03	1.003074E-15	1.316731E-17
5.087159E+03	9.945586E-16	1.314779E-17
5.097114E+03	9.867531E-16	1.313163E-17
5.107069E+03	9.799652E-16	1.312294E-17
5.117025E+03	9.744878E-16	1.312576E-17
5.126980E+03	9.705365E-16	1.314320E-17
5.136935E+03	9.683226E-16	1.317836E-17
5.146890E+03	9.680188E-16	1.323388E-17
5.156846E+03	9.697608E-16	1.331190E-17
5.166801E+03	9.736752E-16	1.341442E-17
5.176756E+03	9.798405E-16	1.354278E-17
5.186712E+03	9.883065E-16	1.369788E-17
5.196667E+03	9.990788E-16	1.387999E-17
5.206622E+03	1.012121E-15	1.408875E-17
5.216578E+03	1.027308E-15	1.432247E-17
5.226533E+03	1.044475E-15	1.457895E-17
5.236488E+03	1.063365E-15	1.485459E-17
5.246443E+03	1.083668E-15	1.514508E-17
5.256399E+03	1.104991E-15	1.544490E-17
5.266354E+03	1.126851E-15	1.574733E-17
5.276309E+03	1.148753E-15	1.604553E-17
5.286265E+03	1.170119E-15	1.633152E-17
5.296220E+03	1.190386E-15	1.659766E-17
5.306175E+03	1.208974E-15	1.683618E-17
5.316131E+03	1.225351E-15	1.704012E-17
5.326086E+03	1.239070E-15	1.720379E-17
5.336041E+03	1.249741E-15	1.732246E-17
5.345996E+03	1.257143E-15	1.739384E-17
5.355952E+03	1.261179E-15	1.741744E-17
5.365907E+03	1.261931E-15	1.739531E-17
5.375862E+03	1.259655E-15	1.733192E-17
5.385818E+03	1.254757E-15	1.723378E-17
5.395773E+03	1.247809E-15	1.710963E-17
5.405728E+03	1.239501E-15	1.696974E-17
5.415684E+03	1.230587E-15	1.682522E-17
5.425639E+03	1.221869E-15	1.668771E-17
5.435594E+03	1.214116E-15	1.656834E-17
5.445549E+03	1.207980E-15	1.647661E-17
5.455505E+03	1.203928E-15	1.641949E-17
5.465460E+03	1.202151E-15	1.640021E-17
5.475415E+03	1.202420E-15	1.641631E-17
5.485371E+03	1.204032E-15	1.645889E-17
5.495326E+03	1.205994E-15	1.651448E-17
5.505281E+03	1.207131E-15	1.656642E-17
5.515237E+03	1.206235E-15	1.659743E-17
5.525192E+03	1.202243E-15	1.659194E-17
5.535147E+03	1.194302E-15	1.653704E-17
5.545102E+03	1.181886E-15	1.642409E-17
5.555058E+03	1.164839E-15	1.624945E-17
5.565013E+03	1.143347E-15	1.601413E-17
5.574968E+03	1.117924E-15	1.572378E-17
5.584924E+03	1.089391E-15	1.538852E-17
5.594879E+03	1.058727E-15	1.502093E-17
5.604834E+03	1.027018E-15	1.463539E-17
5.614790E+03	9.954111E-16	1.424755E-17
5.624745E+03	9.649688E-16	1.387218E-17
5.634700E+03	9.366978E-16	1.352360E-17
5.644655E+03	9.114743E-16	1.321453E-17
5.654611E+03	8.900398E-16	1.295602E-17
5.664566E+03	8.729929E-16	1.275720E-17
5.674521E+03	8.608369E-16	1.262594E-17
5.684477E+03	8.539310E-16	1.256808E-17
5.694432E+03	8.525710E-16	1.258851E-17
5.704387E+03	8.569595E-16	1.269073E-17
5.714343E+03	8.672641E-16	1.287764E-17
5.724298E+03	8.835654E-16	1.315071E-17
5.734253E+03	9.058831E-16	1.351040E-17
5.744209E+03	9.341947E-16	1.395633E-17
5.754164E+03	9.683620E-16	1.448620E-17
5.764119E+03	1.008147E-15	1.509603E-17
5.774074E+03	1.053183E-15	1.577965E-17
5.784030E+03	1.102960E-15	1.652859E-17
5.793985E+03	1.156781E-15	1.733133E-17
5.803940E+03	1.213800E-15	1.817396E-17
5.813896E+03	1.272989E-15	1.903977E-17
5.823851E+03	1.333179E-15	1.990988E-17
5.833806E+03	1.393075E-15	2.076356E-17
5.843762E+03	1.451364E-15	2.158003E-17
5.853717E+03	1.506707E-15	2.233828E-17
5.863672E+03	1.557805E-15	2.301831E-17
5.873627E+03	1.603520E-15	2.360287E-17
5.883583E+03	1.642871E-15	2.407756E-17
5.893538E+03	1.675126E-15	2.443209E-17
5.903493E+03	1.699765E-15	2.465982E-17
5.913449E+03	1.716580E-15	2.475905E-17
5.923404E+03	1.725625E-15	2.473234E-17
5.933359E+03	1.727163E-15	2.458551E-17
5.943315E+03	1.721716E-15	2.432833E-17
5.953270E+03	1.709985E-15	2.397311E-17
5.963225E+03	1.692762E-15	2.353348E-17
5.973180E+03	1.670988E-15	2.302494E-17
5.983136E+03	1.645602E-15	2.246274E-17
5.993091E+03	1.617542E-15	2.186180E-17
6.003046E+03	1.587729E-15	2.123639E-17
6.013002E+03	1.557014E-15	2.059947E-17
6.022957E+03	1.526124E-15	1.996189E-17
6.032912E+03	1.495758E-15	1.933373E-17
6.042868E+03	1.466429E-15	1.872231E-17
6.052823E+03	1.438579E-15	1.813364E-17
6.062778E+03	1.412559E-15	1.757234E-17
6.072733E+03	1.388544E-15	1.704059E-17
6.082689E+03	1.366708E-15	1.654044E-17
6.092644E+03	1.347087E-15	1.607211E-17
6.102599E+03	1.329654E-15	1.563511E-17
6.112555E+03	1.314298E-15	1.522795E-17
6.122510E+03	1.300865E-15	1.484876E-17
6.132465E+03	1.289127E-15	1.449496E-17
6.142421E+03	1.278828E-15	1.416387E-17
6.152376E+03	1.269642E-15	1.385226E-17
6.162331E+03	1.261218E-15	1.355688E-17
6.172286E+03	1.253248E-15	1.327522E-17
6.182242E+03	1.245352E-15	1.300424E-17
6.192197E+03	1.237268E-15	1.274237E-17
6.202152E+03	1.228725E-15	1.248808E-17
6.212108E+03	1.219603E-15	1.224145E-17
6.222063E+03	1.209884E-15	1.200310E-17
6.232018E+03	1.199713E-15	1.177455E-17
6.241974E+03	1.189304E-15	1.155788E-17
6.251929E+03	1.178995E-15	1.135625E-17
6.261884E+03	1.169077E-15	1.117227E-17
6.271839E+03	1.159871E-15	1.100879E-17
6.281795E+03	1.151663E-15	1.086828E-17
6.291750E+03	1.144718E-15	1.075302E-17
6.301705E+03	1.139254E-15	1.066495E-17
6.311661E+03	1.135411E-15	1.060530E-17
6.321616E+03	1.133319E-15	1.057538E-17
6.331571E+03	1.132998E-15	1.057557E-17
6.341527E+03	1.134481E-15	1.060652E-17
6.351482E+03	1.137724E-15	1.066834E-17
6.361437E+03	1.142626E-15	1.076071E-17
6.371392E+03	1.149108E-15	1.088363E-17
6.381348E+03	1.157007E-15	1.103644E-17
6.391303E+03	1.166246E-15	1.121938E-17
6.401258E+03	1.176626E-15	1.143156E-17
6.411214E+03	1.188027E-15	1.167289E-17
6.421169E+03	1.200229E-15	1.194231E-17
6.431124E+03	1.213077E-15	1.223930E-17
6.441080E+03	1.226375E-15	1.256273E-17
6.451035E+03	1.239924E-15	1.291030E-17
6.460990E+03	1.253521E-15	1.327914E-17
6.470945E+03	1.266960E-15	1.366617E-17
6.480901E+03	1.280030E-15	1.406804E-17
6.490856E+03	1.292614E-15	1.448220E-17
6.500811E+03	1.304596E-15	1.490598E-17
6.510767E+03	1.316074E-15	1.533909E-17
6.520722E+03	1.327257E-15	1.578261E-17
6.530677E+03	1.338449E-15	1.623898E-17
6.540633E+03	1.349965E-15	1.671112E-17
6.550588E+03	1.362001E-15	1.720074E-17
6.560543E+03	1.374699E-15	1.770912E-17
6.570498E+03	1.388109E-15	1.823650E-17
6.580454E+03	1.402138E-15	1.878133E-17
6.590409E+03	1.416530E-15	1.933971E-17
6.600364E+03	1.431007E-15	1.990724E-17
6.610320E+03	1.445116E-15	2.047678E-17
6.620275E+03	1.458433E-15	2.104112E-17
6.630230E+03	1.470385E-15	2.159050E-17
6.640186E+03	1.480538E-15	2.211666E-17
6.650141E+03	1.488375E-15	2.260969E-17
6.660096E+03	1.493509E-15	2.306121E-17
6.670051E+03	1.495567E-15	2.346275E-17
6.680007E+03	1.494403E-15	2.380915E-17
6.689962E+03	1.489840E-15	2.409473E-17
6.699917E+03	1.481941E-15	2.431769E-17
6.709873E+03	1.470839E-15	2.447754E-17
6.719828E+03	1.456725E-15	2.457502E-17
6.729783E+03	1.439980E-15	2.461443E-17
6.739739E+03	1.420990E-15	2.460058E-17
6.749694E+03	1.400242E-15	2.454054E-17
6.759649E+03	1.378194E-15	2.444132E-17
6.769604E+03	1.355414E-15	2.431242E-17
6.779560E+03	1.332426E-15	2.416303E-17
6.789515E+03	1.309716E-15	2.400212E-17
6.799470E+03	1.287770E-15	2.383904E-17
6.809426E+03	1.267036E-15	2.368285E-17
6.819381E+03	1.247966E-15	2.354289E-17
6.829336E+03	1.230850E-15	2.342580E-17
6.839292E+03	1.216037E-15	2.333946E-17
6.849247E+03	1.203778E-15	2.328999E-17
6.859202E+03	1.194246E-15	2.328206E-17
6.869157E+03	1.187596E-15	2.332006E-17
6.879113E+03	1.183907E-15	2.340680E-17
6.889068E+03	1.183171E-15	2.354333E-17
6.899023E+03	1.185362E-15	2.373021E-17
6.908979E+03	1.190368E-15	2.396613E-17
6.918934E+03	1.197986E-15	2.424782E-17
6.928889E+03	1.208013E-15	2.457179E-17
6.938845E+03	1.220091E-15	2.493119E-17
6.948800E+03	1.233886E-15	2.531950E-17
6.958755E+03	1.248921E-15	2.572699E-17
6.968710E+03	1.264761E-15	2.614470E-17
6.978666E+03	1.280850E-15	2.656092E-17
6.988621E+03	1.296715E-15	2.696552E-17
6.998576E+03	1.311818E-15	2.734698E-17
7.008532E+03	1.325681E-15	2.769486E-17
7.018487E+03	1.337901E-15	2.800037E-17
7.028442E+03	1.348103E-15	2.825521E-17
7.038398E+03	1.356024E-15	2.845358E-17
7.048353E+03	1.361531E-15	2.859236E-17
7.058308E+03	1.364564E-15	2.867020E-17
7.068263E+03	1.365144E-15	2.868743E-17
7.078219E+03	1.363431E-15	2.864754E-17
7.088174E+03	1.359644E-15	2.855522E-17
7.098129E+03	1.354058E-15	2.841652E-17
7.108085E+03	1.346964E-15	2.823787E-17
7.118040E+03	1.338753E-15	2.802780E-17
7.127995E+03	1.329738E-15	2.779324E-17
7.137951E+03	1.320241E-15	2.754132E-17
7.147906E+03	1.310578E-15	2.727902E-17
7.157861E+03	1.300973E-15	2.701131E-17
7.167817E+03	1.291621E-15	2.674260E-17
7.177772E+03	1.282719E-15	2.647724E-17
7.187727E+03	1.274276E-15	2.621569E-17
7.197682E+03	1.266408E-15	2.596054E-17
7.207638E+03	1.259080E-15	2.571131E-17
7.217593E+03	1.252216E-15	2.546666E-17
7.227548E+03	1.245770E-15	2.522585E-17
7.237504E+03	1.239671E-15	2.498770E-17
7.247459E+03	1.233795E-15	2.474994E-17
7.257414E+03	1.228017E-15	2.451037E-17
7.267370E+03	1.222307E-15	2.426867E-17
7.277325E+03	1.216569E-15	2.402332E-17
7.287280E+03	1.210762E-15	2.377382E-17
7.297235E+03	1.204890E-15	2.352069E-17
7.307191E+03	1.198879E-15	2.326283E-17
7.317146E+03	1.192825E-15	2.300254E-17
7.327101E+03	1.186709E-15	2.273983E-17
7.337057E+03	1.180566E-15	2.247577E-17
7.347012E+03	1.174427E-15	2.221136E-17
7.356967E+03	1.168289E-15	2.194689E-17
7.366923E+03	1.162156E-15	2.168285E-17
7.376878E+03	1.156012E-15	2.141933E-17
7.386833E+03	1.149794E-15	2.115552E-17
7.396788E+03	1.143440E-15	2.089073E-17
7.406744E+03	1.136843E-15	2.062345E-17
7.416699E+03	1.129987E-15	2.035386E-17
7.426654E+03	1.122720E-15	2.007972E-17
7.436610E+03	1.114995E-15	1.980069E-17
7.446565E+03	1.106723E-15	1.951575E-17
7.456520E+03	1.097864E-15	1.922468E-17
7.466476E+03	1.088352E-15	1.892652E-17
7.476431E+03	1.078210E-15	1.862160E-17
7.486386E+03	1.067500E-15	1.831097E-17
7.496341E+03	1.056244E-15	1.799494E-17
7.506297E+03	1.044629E-15	1.767665E-17
7.516252E+03	1.032744E-15	1.735747E-17
7.526207E+03	1.020753E-15	1.704002E-17
7.536163E+03	1.008880E-15	1.672784E-17
7.546118E+03	9.972501E-16	1.642279E-17
7.556073E+03	9.860312E-16	1.612736E-17
7.566029E+03	9.754208E-16	1.584447E-17
7.575984E+03	9.654975E-16	1.557508E-17
7.585939E+03	9.563832E-16	1.532080E-17
7.595894E+03	9.482557E-16	1.508412E-17
7.605850E+03	9.412595E-16	1.486692E-17
7.615805E+03	9.354760E-16	1.467006E-17
7.625760E+03	9.309899E-16	1.449444E-17
7.635716E+03	9.278217E-16	1.433995E-17
7.645671E+03	9.259062E-16	1.420515E-17
7.655626E+03	9.252589E-16	1.408992E-17
7.665582E+03	9.257234E-16	1.399154E-17
7.675537E+03	9.272555E-16	1.390907E-17
7.685492E+03	9.296471E-16	1.383919E-17
7.695447E+03	9.328160E-16	1.378055E-17
7.705403E+03	9.365485E-16	1.372997E-17
7.715358E+03	9.406745E-16	1.368501E-17
7.725313E+03	9.450754E-16	1.364412E-17
