#wls	flux	fluxerr
1.592848E+03	4.152684E-17	4.449146E-18
1.632669E+03	4.333786E-17	4.615161E-18
1.672491E+03	4.502739E-17	4.765284E-18
1.712312E+03	4.656570E-17	4.896539E-18
1.752133E+03	4.792948E-17	5.006716E-18
1.791954E+03	4.902465E-17	5.086337E-18
1.831775E+03	4.976105E-17	5.126619E-18
1.871597E+03	5.001581E-17	5.115728E-18
1.911418E+03	4.967910E-17	5.043562E-18
1.951239E+03	4.867621E-17	4.903944E-18
1.991060E+03	4.706564E-17	4.704315E-18
2.030881E+03	4.512279E-17	4.473497E-18
2.070703E+03	4.338430E-17	4.265152E-18
2.110524E+03	4.257618E-17	4.149611E-18
2.150345E+03	4.337306E-17	4.189713E-18
2.190166E+03	4.615955E-17	4.418040E-18
2.229987E+03	5.095722E-17	4.831195E-18
2.269809E+03	5.751030E-17	5.399425E-18
2.309630E+03	6.540870E-17	6.079370E-18
2.349451E+03	7.425987E-17	6.830650E-18
2.389272E+03	8.374634E-17	7.621092E-18
2.429093E+03	9.365815E-17	8.429356E-18
2.468915E+03	1.038677E-16	9.242200E-18
2.508736E+03	1.142995E-16	1.005146E-17
2.548557E+03	1.249185E-16	1.085272E-17
2.588378E+03	1.356984E-16	1.164249E-17
2.628199E+03	1.465865E-16	1.241510E-17
2.668021E+03	1.575532E-16	1.316703E-17
2.707842E+03	1.685219E-16	1.389100E-17
2.747663E+03	1.794014E-16	1.457893E-17
2.787484E+03	1.900628E-16	1.522011E-17
2.827305E+03	2.003849E-16	1.580508E-17
2.867127E+03	2.102244E-16	1.632333E-17
2.906948E+03	2.194631E-16	1.676697E-17
2.946769E+03	2.279999E-16	1.713011E-17
2.986590E+03	2.357355E-16	1.740758E-17
2.996546E+03	2.375322E-16	1.746299E-17
3.006501E+03	2.392679E-16	1.751246E-17
3.016456E+03	2.409459E-16	1.755628E-17
3.026411E+03	2.425664E-16	1.759454E-17
3.036367E+03	2.441503E-16	1.762877E-17
3.046322E+03	2.457097E-16	1.765988E-17
3.056277E+03	2.472460E-16	1.768799E-17
3.066233E+03	2.487550E-16	1.771284E-17
3.076188E+03	2.502271E-16	1.773373E-17
3.086143E+03	2.516657E-16	1.775098E-17
3.096099E+03	2.530490E-16	1.776304E-17
3.106054E+03	2.543878E-16	1.777076E-17
3.116009E+03	2.556613E-16	1.777271E-17
3.125964E+03	2.568808E-16	1.776974E-17
3.135920E+03	2.580269E-16	1.776058E-17
3.145875E+03	2.591058E-16	1.774571E-17
3.155830E+03	2.601170E-16	1.772516E-17
3.165786E+03	2.610492E-16	1.769825E-17
3.175741E+03	2.619091E-16	1.766550E-17
3.185696E+03	2.626863E-16	1.762629E-17
3.195652E+03	2.633832E-16	1.758086E-17
3.205607E+03	2.640015E-16	1.752941E-17
3.215562E+03	2.645382E-16	1.747183E-17
3.225517E+03	2.649970E-16	1.740844E-17
3.235473E+03	2.653754E-16	1.733916E-17
3.245428E+03	2.656727E-16	1.726404E-17
3.255383E+03	2.658932E-16	1.718344E-17
3.265339E+03	2.660367E-16	1.709742E-17
3.275294E+03	2.661039E-16	1.700613E-17
3.285249E+03	2.661009E-16	1.691002E-17
3.295205E+03	2.660287E-16	1.680925E-17
3.305160E+03	2.658946E-16	1.670434E-17
3.315115E+03	2.656916E-16	1.659493E-17
3.325070E+03	2.654323E-16	1.648189E-17
3.335026E+03	2.651113E-16	1.636494E-17
3.344981E+03	2.647466E-16	1.624525E-17
3.354936E+03	2.643295E-16	1.612237E-17
3.364892E+03	2.638660E-16	1.599669E-17
3.374847E+03	2.633703E-16	1.586914E-17
3.384802E+03	2.628369E-16	1.573942E-17
3.394758E+03	2.622731E-16	1.560803E-17
3.404713E+03	2.616873E-16	1.547549E-17
3.414668E+03	2.610843E-16	1.534212E-17
3.424623E+03	2.604702E-16	1.520829E-17
3.434579E+03	2.598483E-16	1.507421E-17
3.444534E+03	2.592304E-16	1.494059E-17
3.454489E+03	2.586186E-16	1.480753E-17
3.464445E+03	2.580303E-16	1.467603E-17
3.474400E+03	2.574638E-16	1.454598E-17
3.484355E+03	2.569392E-16	1.441846E-17
3.494311E+03	2.564612E-16	1.429372E-17
3.504266E+03	2.560433E-16	1.417245E-17
3.514221E+03	2.556973E-16	1.405522E-17
3.524176E+03	2.554431E-16	1.394305E-17
3.534132E+03	2.552903E-16	1.383636E-17
3.544087E+03	2.552594E-16	1.373614E-17
3.554042E+03	2.553699E-16	1.364329E-17
3.563998E+03	2.556459E-16	1.355894E-17
3.573953E+03	2.561069E-16	1.348391E-17
3.583908E+03	2.567765E-16	1.341923E-17
3.593864E+03	2.576707E-16	1.336550E-17
3.603819E+03	2.588053E-16	1.332326E-17
3.613774E+03	2.601966E-16	1.329307E-17
3.623729E+03	2.618589E-16	1.327535E-17
3.633685E+03	2.638110E-16	1.327073E-17
3.643640E+03	2.660755E-16	1.328000E-17
3.653595E+03	2.686734E-16	1.330383E-17
3.663551E+03	2.716347E-16	1.334330E-17
3.673506E+03	2.749770E-16	1.339884E-17
3.683461E+03	2.787344E-16	1.347165E-17
3.693417E+03	2.829306E-16	1.356236E-17
3.703372E+03	2.875974E-16	1.367196E-17
3.713327E+03	2.927635E-16	1.380125E-17
3.723282E+03	2.984541E-16	1.395081E-17
3.733238E+03	3.046985E-16	1.412136E-17
3.743193E+03	3.115214E-16	1.431339E-17
3.753148E+03	3.189475E-16	1.452732E-17
3.763104E+03	3.269959E-16	1.476328E-17
3.773059E+03	3.356830E-16	1.502127E-17
3.783014E+03	3.450175E-16	1.530091E-17
3.792970E+03	3.550076E-16	1.560177E-17
3.802925E+03	3.656470E-16	1.592280E-17
3.812880E+03	3.769230E-16	1.626267E-17
3.822835E+03	3.888124E-16	1.661962E-17
3.832791E+03	4.012723E-16	1.699110E-17
3.842746E+03	4.142631E-16	1.737477E-17
3.852701E+03	4.277097E-16	1.776686E-17
3.862657E+03	4.415320E-16	1.816356E-17
3.872612E+03	4.556410E-16	1.856078E-17
3.882567E+03	4.699137E-16	1.895323E-17
3.892523E+03	4.842317E-16	1.933600E-17
3.902478E+03	4.984487E-16	1.970327E-17
3.912433E+03	5.124171E-16	2.004941E-17
3.922388E+03	5.259878E-16	2.036895E-17
3.932344E+03	5.389984E-16	2.065619E-17
3.942299E+03	5.512988E-16	2.090613E-17
3.952254E+03	5.627491E-16	2.111441E-17
3.962210E+03	5.732155E-16	2.127711E-17
3.972165E+03	5.826025E-16	2.139195E-17
3.982120E+03	5.908175E-16	2.145689E-17
3.992076E+03	5.978142E-16	2.147172E-17
4.002031E+03	6.035682E-16	2.143707E-17
4.011986E+03	6.080861E-16	2.135470E-17
4.021941E+03	6.114116E-16	2.122763E-17
4.031897E+03	6.136066E-16	2.105947E-17
4.041852E+03	6.147688E-16	2.085491E-17
4.051807E+03	6.150134E-16	2.061908E-17
4.061763E+03	6.144766E-16	2.035762E-17
4.071718E+03	6.132967E-16	2.007602E-17
4.081673E+03	6.116289E-16	1.978011E-17
4.091629E+03	6.096252E-16	1.947533E-17
4.101584E+03	6.074353E-16	1.916684E-17
4.111539E+03	6.052038E-16	1.885942E-17
4.121494E+03	6.030664E-16	1.855731E-17
4.131450E+03	6.011487E-16	1.826425E-17
4.141405E+03	5.995696E-16	1.798359E-17
4.151360E+03	5.984260E-16	1.771784E-17
4.161316E+03	5.978097E-16	1.746922E-17
4.171271E+03	5.977908E-16	1.723919E-17
4.181226E+03	5.984382E-16	1.702906E-17
4.191182E+03	5.997868E-16	1.683912E-17
4.201137E+03	6.018827E-16	1.666988E-17
4.211092E+03	6.047307E-16	1.652069E-17
4.221047E+03	6.083354E-16	1.639092E-17
4.231003E+03	6.126922E-16	1.627964E-17
4.240958E+03	6.177659E-16	1.618519E-17
4.250913E+03	6.235169E-16	1.610584E-17
4.260869E+03	6.298963E-16	1.603971E-17
4.270824E+03	6.368389E-16	1.598456E-17
4.280779E+03	6.442680E-16	1.593801E-17
4.290735E+03	6.521040E-16	1.589773E-17
4.300690E+03	6.602683E-16	1.586152E-17
4.310645E+03	6.686692E-16	1.582701E-17
4.320601E+03	6.772407E-16	1.579256E-17
4.330556E+03	6.859039E-16	1.575635E-17
4.340511E+03	6.946179E-16	1.571752E-17
4.350466E+03	7.033121E-16	1.567463E-17
4.360422E+03	7.119584E-16	1.562727E-17
4.370377E+03	7.205792E-16	1.557615E-17
4.380332E+03	7.292690E-16	1.552352E-17
4.390288E+03	7.382381E-16	1.547391E-17
4.400243E+03	7.477143E-16	1.543198E-17
4.410198E+03	7.579770E-16	1.540315E-17
4.420154E+03	7.693125E-16	1.539263E-17
4.430109E+03	7.820136E-16	1.540546E-17
4.440064E+03	7.963570E-16	1.544604E-17
4.450019E+03	8.126055E-16	1.551823E-17
4.459975E+03	8.309959E-16	1.562513E-17
4.469930E+03	8.517081E-16	1.576851E-17
4.479885E+03	8.748769E-16	1.594908E-17
4.489841E+03	9.005730E-16	1.616636E-17
4.499796E+03	9.288092E-16	1.641881E-17
4.509751E+03	9.594902E-16	1.670308E-17
4.519707E+03	9.924422E-16	1.701466E-17
4.529662E+03	1.027380E-15	1.734739E-17
4.539617E+03	1.063916E-15	1.769377E-17
4.549572E+03	1.101545E-15	1.804483E-17
4.559528E+03	1.139661E-15	1.839052E-17
4.569483E+03	1.177556E-15	1.871974E-17
4.579438E+03	1.214454E-15	1.902109E-17
4.589394E+03	1.249525E-15	1.928297E-17
4.599349E+03	1.281946E-15	1.949466E-17
4.609304E+03	1.310885E-15	1.964595E-17
4.619260E+03	1.335635E-15	1.972917E-17
4.629215E+03	1.355561E-15	1.973816E-17
4.639170E+03	1.370214E-15	1.966985E-17
4.649125E+03	1.379288E-15	1.952344E-17
4.659081E+03	1.382723E-15	1.930164E-17
4.669036E+03	1.380603E-15	1.900903E-17
4.678991E+03	1.373244E-15	1.865312E-17
4.688947E+03	1.361116E-15	1.824309E-17
4.698902E+03	1.344854E-15	1.778982E-17
4.708857E+03	1.325206E-15	1.730507E-17
4.718813E+03	1.302986E-15	1.680086E-17
4.728768E+03	1.279055E-15	1.628916E-17
4.738723E+03	1.254280E-15	1.578139E-17
4.748678E+03	1.229470E-15	1.528770E-17
4.758634E+03	1.205406E-15	1.481739E-17
4.768589E+03	1.182791E-15	1.437838E-17
4.778544E+03	1.162267E-15	1.397751E-17
4.788500E+03	1.144390E-15	1.362029E-17
4.798455E+03	1.129606E-15	1.331080E-17
4.808410E+03	1.118261E-15	1.305175E-17
4.818366E+03	1.110568E-15	1.284434E-17
4.828321E+03	1.106655E-15	1.268882E-17
4.838276E+03	1.106566E-15	1.258447E-17
4.848231E+03	1.110272E-15	1.252958E-17
4.858187E+03	1.117653E-15	1.252133E-17
4.868142E+03	1.128525E-15	1.255639E-17
4.878097E+03	1.142601E-15	1.263039E-17
4.888053E+03	1.159507E-15	1.273815E-17
4.898008E+03	1.178767E-15	1.287356E-17
4.907963E+03	1.199775E-15	1.302922E-17
4.917919E+03	1.221798E-15	1.319652E-17
4.927874E+03	1.243985E-15	1.336574E-17
4.937829E+03	1.265393E-15	1.352636E-17
4.947784E+03	1.285026E-15	1.366746E-17
4.957740E+03	1.301949E-15	1.377897E-17
4.967695E+03	1.315317E-15	1.385192E-17
4.977650E+03	1.324453E-15	1.387928E-17
4.987606E+03	1.328977E-15	1.385725E-17
4.997561E+03	1.328812E-15	1.378529E-17
5.007516E+03	1.324167E-15	1.366582E-17
5.017472E+03	1.315489E-15	1.350380E-17
5.027427E+03	1.303484E-15	1.330671E-17
5.037382E+03	1.288946E-15	1.308287E-17
5.047337E+03	1.272748E-15	1.284129E-17
5.057293E+03	1.255723E-15	1.259043E-17
5.067248E+03	1.238652E-15	1.233809E-17
5.077203E+03	1.222222E-15	1.209094E-17
5.087159E+03	1.206965E-15	1.185399E-17
5.097114E+03	1.193334E-15	1.163139E-17
5.107069E+03	1.181644E-15	1.142575E-17
5.117025E+03	1.172144E-15	1.123901E-17
5.126980E+03	1.165033E-15	1.107251E-17
5.136935E+03	1.160477E-15	1.092722E-17
5.146890E+03	1.158674E-15	1.080427E-17
5.156846E+03	1.159780E-15	1.070437E-17
5.166801E+03	1.163986E-15	1.062840E-17
5.176756E+03	1.171447E-15	1.057684E-17
5.186712E+03	1.182298E-15	1.054987E-17
5.196667E+03	1.196630E-15	1.054720E-17
5.206622E+03	1.214428E-15	1.056755E-17
5.216578E+03	1.235591E-15	1.060886E-17
5.226533E+03	1.259897E-15	1.066809E-17
5.236488E+03	1.286995E-15	1.074124E-17
5.246443E+03	1.316391E-15	1.082330E-17
5.256399E+03	1.347482E-15	1.090869E-17
5.266354E+03	1.379522E-15	1.099101E-17
5.276309E+03	1.411672E-15	1.106365E-17
5.286265E+03	1.443036E-15	1.112006E-17
5.296220E+03	1.472635E-15	1.115371E-17
5.306175E+03	1.499538E-15	1.115904E-17
5.316131E+03	1.522839E-15	1.113131E-17
5.326086E+03	1.541767E-15	1.106740E-17
5.336041E+03	1.555693E-15	1.096571E-17
5.345996E+03	1.564169E-15	1.082629E-17
5.355952E+03	1.567045E-15	1.065156E-17
5.365907E+03	1.564446E-15	1.044581E-17
5.375862E+03	1.556783E-15	1.021517E-17
5.385818E+03	1.544779E-15	9.967494E-18
5.395773E+03	1.529483E-15	9.712279E-18
5.405728E+03	1.512111E-15	9.459497E-18
5.415684E+03	1.494117E-15	9.220005E-18
5.425639E+03	1.477018E-15	9.004425E-18
5.435594E+03	1.462381E-15	8.823175E-18
5.445549E+03	1.451709E-15	8.685917E-18
5.455505E+03	1.446343E-15	8.601187E-18
5.465460E+03	1.447298E-15	8.575630E-18
5.475415E+03	1.454555E-15	8.610039E-18
5.485371E+03	1.466315E-15	8.694614E-18
5.495326E+03	1.480016E-15	8.813835E-18
5.505281E+03	1.492927E-15	8.950671E-18
5.515237E+03	1.502468E-15	9.088354E-18
5.525192E+03	1.506347E-15	9.210957E-18
5.535147E+03	1.502803E-15	9.304781E-18
5.545102E+03	1.490770E-15	9.359488E-18
5.555058E+03	1.469947E-15	9.368784E-18
5.565013E+03	1.440725E-15	9.330448E-18
5.574968E+03	1.404144E-15	9.246450E-18
5.584924E+03	1.361721E-15	9.122372E-18
5.594879E+03	1.315283E-15	8.966641E-18
5.604834E+03	1.266791E-15	8.789636E-18
5.614790E+03	1.218193E-15	8.602802E-18
5.624745E+03	1.171307E-15	8.417843E-18
5.634700E+03	1.127730E-15	8.246011E-18
5.644655E+03	1.088835E-15	8.097911E-18
5.654611E+03	1.055713E-15	7.982860E-18
5.664566E+03	1.029228E-15	7.909115E-18
5.674521E+03	1.010011E-15	7.883605E-18
5.684477E+03	9.984941E-16	7.912004E-18
5.694432E+03	9.949817E-16	7.999116E-18
5.704387E+03	9.996541E-16	8.148801E-18
5.714343E+03	1.012602E-15	8.364127E-18
5.724298E+03	1.033870E-15	8.647664E-18
5.734253E+03	1.063427E-15	9.001157E-18
5.744209E+03	1.101147E-15	9.425298E-18
5.754164E+03	1.146802E-15	9.919652E-18
5.764119E+03	1.200011E-15	1.048206E-17
5.774074E+03	1.260143E-15	1.110782E-17
5.784030E+03	1.326363E-15	1.178997E-17
5.793985E+03	1.397579E-15	1.251872E-17
5.803940E+03	1.472406E-15	1.328120E-17
5.813896E+03	1.549249E-15	1.406209E-17
5.823851E+03	1.626359E-15	1.484422E-17
5.833806E+03	1.701880E-15	1.560905E-17
5.843762E+03	1.773952E-15	1.633770E-17
5.853717E+03	1.840816E-15	1.701205E-17
5.863672E+03	1.900890E-15	1.761559E-17
5.873627E+03	1.952876E-15	1.813456E-17
5.883583E+03	1.995768E-15	1.855810E-17
5.893538E+03	2.028879E-15	1.887864E-17
5.903493E+03	2.051944E-15	1.909292E-17
5.913449E+03	2.064970E-15	1.920061E-17
5.923404E+03	2.068347E-15	1.920535E-17
5.933359E+03	2.062640E-15	1.911280E-17
5.943315E+03	2.048741E-15	1.893194E-17
5.953270E+03	2.027660E-15	1.867313E-17
5.963225E+03	2.000532E-15	1.834802E-17
5.973180E+03	1.968582E-15	1.796916E-17
5.983136E+03	1.933027E-15	1.754903E-17
5.993091E+03	1.895080E-15	1.710000E-17
6.003046E+03	1.855861E-15	1.663343E-17
6.013002E+03	1.816389E-15	1.615955E-17
6.022957E+03	1.777599E-15	1.568762E-17
6.032912E+03	1.740234E-15	1.522497E-17
6.042868E+03	1.704891E-15	1.477736E-17
6.052823E+03	1.672036E-15	1.434921E-17
6.062778E+03	1.641996E-15	1.394351E-17
6.072733E+03	1.614970E-15	1.356202E-17
6.082689E+03	1.591042E-15	1.320538E-17
6.092644E+03	1.570176E-15	1.287317E-17
6.102599E+03	1.552285E-15	1.256449E-17
6.112555E+03	1.537194E-15	1.227777E-17
6.122510E+03	1.524610E-15	1.201052E-17
6.132465E+03	1.514214E-15	1.176019E-17
6.142421E+03	1.505553E-15	1.152332E-17
6.152376E+03	1.498055E-15	1.129580E-17
6.162331E+03	1.491089E-15	1.107334E-17
6.172286E+03	1.484048E-15	1.085215E-17
6.182242E+03	1.476240E-15	1.062816E-17
6.192197E+03	1.467103E-15	1.039853E-17
6.202152E+03	1.456142E-15	1.016117E-17
6.212108E+03	1.443067E-15	9.915311E-18
6.222063E+03	1.427967E-15	9.662513E-18
6.232018E+03	1.411228E-15	9.406257E-18
6.241974E+03	1.393509E-15	9.151665E-18
6.251929E+03	1.375506E-15	8.903865E-18
6.261884E+03	1.357949E-15	8.667973E-18
6.271839E+03	1.341482E-15	8.448332E-18
6.281795E+03	1.326659E-15	8.248596E-18
6.291750E+03	1.313950E-15	8.071796E-18
6.301705E+03	1.303729E-15	7.920365E-18
6.311661E+03	1.296198E-15	7.795718E-18
6.321616E+03	1.291489E-15	7.698959E-18
6.331571E+03	1.289610E-15	7.630609E-18
6.341527E+03	1.290481E-15	7.590835E-18
6.351482E+03	1.293960E-15	7.579645E-18
6.361437E+03	1.299787E-15	7.596543E-18
6.371392E+03	1.307726E-15	7.641350E-18
6.381348E+03	1.317473E-15	7.713637E-18
6.391303E+03	1.328785E-15	7.813409E-18
6.401258E+03	1.341340E-15	7.940266E-18
6.411214E+03	1.354905E-15	8.094306E-18
6.421169E+03	1.369165E-15	8.275061E-18
6.431124E+03	1.383932E-15	8.482108E-18
6.441080E+03	1.398912E-15	8.713218E-18
6.451035E+03	1.413944E-15	8.966655E-18
6.460990E+03	1.428756E-15	9.239764E-18
6.470945E+03	1.443124E-15	9.529959E-18
6.480901E+03	1.456756E-15	9.833997E-18
6.490856E+03	1.469393E-15	1.014862E-17
6.500811E+03	1.480919E-15	1.047134E-17
6.510767E+03	1.491553E-15	1.080202E-17
6.520722E+03	1.501857E-15	1.114318E-17
6.530677E+03	1.512517E-15	1.149872E-17
6.540633E+03	1.524169E-15	1.187270E-17
6.550588E+03	1.537280E-15	1.226837E-17
6.560543E+03	1.552084E-15	1.268753E-17
6.570498E+03	1.568670E-15	1.313098E-17
6.580454E+03	1.586779E-15	1.359672E-17
6.590409E+03	1.606078E-15	1.408191E-17
6.600364E+03	1.625976E-15	1.458120E-17
6.610320E+03	1.645772E-15	1.508775E-17
6.620275E+03	1.664651E-15	1.559316E-17
6.630230E+03	1.681845E-15	1.608883E-17
6.640186E+03	1.696505E-15	1.656479E-17
6.650141E+03	1.707912E-15	1.701174E-17
6.660096E+03	1.715499E-15	1.742141E-17
6.670051E+03	1.718826E-15	1.778648E-17
6.680007E+03	1.717598E-15	1.810089E-17
6.689962E+03	1.711757E-15	1.836099E-17
6.699917E+03	1.701363E-15	1.856448E-17
6.709873E+03	1.686661E-15	1.871129E-17
6.719828E+03	1.668066E-15	1.880353E-17
6.729783E+03	1.646043E-15	1.884432E-17
6.739739E+03	1.621170E-15	1.883851E-17
6.749694E+03	1.594109E-15	1.879246E-17
6.759649E+03	1.565523E-15	1.871304E-17
6.769604E+03	1.536030E-15	1.860711E-17
6.779560E+03	1.506344E-15	1.848317E-17
6.789515E+03	1.477099E-15	1.834920E-17
6.799470E+03	1.448866E-15	1.821279E-17
6.809426E+03	1.422222E-15	1.808194E-17
6.819381E+03	1.397636E-15	1.796362E-17
6.829336E+03	1.375569E-15	1.786486E-17
6.839292E+03	1.356371E-15	1.779148E-17
6.849247E+03	1.340375E-15	1.774919E-17
6.859202E+03	1.327823E-15	1.774257E-17
6.869157E+03	1.318868E-15	1.777501E-17
6.879113E+03	1.313638E-15	1.784958E-17
6.889068E+03	1.312165E-15	1.796796E-17
6.899023E+03	1.314405E-15	1.813071E-17
6.908979E+03	1.320205E-15	1.833673E-17
6.918934E+03	1.329396E-15	1.858458E-17
6.928889E+03	1.341618E-15	1.886991E-17
6.938845E+03	1.356512E-15	1.918824E-17
6.948800E+03	1.373526E-15	1.953208E-17
6.958755E+03	1.392121E-15	1.989397E-17
6.968710E+03	1.411616E-15	2.026416E-17
6.978666E+03	1.431280E-15	2.063198E-17
6.988621E+03	1.450447E-15	2.098754E-17
6.998576E+03	1.468419E-15	2.132033E-17
7.008532E+03	1.484496E-15	2.161974E-17
7.018487E+03	1.498179E-15	2.187801E-17
7.028442E+03	1.509032E-15	2.208830E-17
7.038398E+03	1.516730E-15	2.224542E-17
7.048353E+03	1.521124E-15	2.234685E-17
7.058308E+03	1.522274E-15	2.239324E-17
7.068263E+03	1.520266E-15	2.238567E-17
7.078219E+03	1.515366E-15	2.232806E-17
7.088174E+03	1.508001E-15	2.222675E-17
7.098129E+03	1.498578E-15	2.208791E-17
7.108085E+03	1.487548E-15	2.191840E-17
7.118040E+03	1.475466E-15	2.172666E-17
7.127995E+03	1.462780E-15	2.151960E-17
7.137951E+03	1.449962E-15	2.130446E-17
7.147906E+03	1.437368E-15	2.108674E-17
7.157861E+03	1.425308E-15	2.087127E-17
7.167817E+03	1.414044E-15	2.066211E-17
7.177772E+03	1.403718E-15	2.046157E-17
7.187727E+03	1.394391E-15	2.027066E-17
7.197682E+03	1.386042E-15	2.008924E-17
7.207638E+03	1.378552E-15	1.991572E-17
7.217593E+03	1.371838E-15	1.974902E-17
7.227548E+03	1.365687E-15	1.958624E-17
7.237504E+03	1.359932E-15	1.942513E-17
7.247459E+03	1.354320E-15	1.926227E-17
7.257414E+03	1.348740E-15	1.909629E-17
7.267370E+03	1.343057E-15	1.892557E-17
7.277325E+03	1.337131E-15	1.874842E-17
7.287280E+03	1.330996E-15	1.856562E-17
7.297235E+03	1.324652E-15	1.837747E-17
7.307191E+03	1.318147E-15	1.818499E-17
7.317146E+03	1.311623E-15	1.799043E-17
7.327101E+03	1.305185E-15	1.779552E-17
7.337057E+03	1.298940E-15	1.760195E-17
7.347012E+03	1.293006E-15	1.741160E-17
7.356967E+03	1.287444E-15	1.722544E-17
7.366923E+03	1.282297E-15	1.704428E-17
7.376878E+03	1.277498E-15	1.686739E-17
7.386833E+03	1.272949E-15	1.669372E-17
7.396788E+03	1.268559E-15	1.652226E-17
7.406744E+03	1.264120E-15	1.635061E-17
7.416699E+03	1.259448E-15	1.617669E-17
7.426654E+03	1.254389E-15	1.599892E-17
7.436610E+03	1.248666E-15	1.581416E-17
7.446565E+03	1.242073E-15	1.562029E-17
7.456520E+03	1.234466E-15	1.541602E-17
7.466476E+03	1.225698E-15	1.519985E-17
7.476431E+03	1.215659E-15	1.497058E-17
7.486386E+03	1.204439E-15	1.472947E-17
7.496341E+03	1.192067E-15	1.447703E-17
7.506297E+03	1.178742E-15	1.421580E-17
7.516252E+03	1.164704E-15	1.394876E-17
7.526207E+03	1.150244E-15	1.367943E-17
7.536163E+03	1.135688E-15	1.341162E-17
7.546118E+03	1.121396E-15	1.314951E-17
7.556073E+03	1.107633E-15	1.289600E-17
7.566029E+03	1.094747E-15	1.265492E-17
7.575984E+03	1.082943E-15	1.242834E-17
7.585939E+03	1.072502E-15	1.221914E-17
7.595894E+03	1.063556E-15	1.202845E-17
7.605850E+03	1.056275E-15	1.185780E-17
7.615805E+03	1.050758E-15	1.170787E-17
7.625760E+03	1.047022E-15	1.157841E-17
7.635716E+03	1.045086E-15	1.146922E-17
7.645671E+03	1.044894E-15	1.137931E-17
7.655626E+03	1.046348E-15	1.130722E-17
7.665582E+03	1.049277E-15	1.125081E-17
7.675537E+03	1.053501E-15	1.120791E-17
7.685492E+03	1.058833E-15	1.117636E-17
7.695447E+03	1.065034E-15	1.115354E-17
7.705403E+03	1.071847E-15	1.113678E-17
7.715358E+03	1.079017E-15	1.112350E-17
7.725313E+03	1.086268E-15	1.111108E-17
