#wls	flux	fluxerr
1.592848E+03	5.780795E-17	3.443651E-18
1.632669E+03	6.039092E-17	3.577213E-18
1.672491E+03	6.281409E-17	3.699119E-18
1.712312E+03	6.504974E-17	3.807846E-18
1.752133E+03	6.704139E-17	3.900242E-18
1.791954E+03	6.867846E-17	3.970119E-18
1.831775E+03	6.982362E-17	4.009932E-18
1.871597E+03	7.030098E-17	4.010165E-18
1.911418E+03	6.995068E-17	3.962515E-18
1.951239E+03	6.866202E-17	3.861739E-18
1.991060E+03	6.651698E-17	3.713577E-18
2.030881E+03	6.388662E-17	3.539701E-18
2.070703E+03	6.153535E-17	3.382816E-18
2.110524E+03	6.048445E-17	3.298310E-18
2.150345E+03	6.169950E-17	3.336698E-18
2.190166E+03	6.573112E-17	3.524390E-18
2.229987E+03	7.263627E-17	3.860385E-18
2.269809E+03	8.204206E-17	4.320766E-18
2.309630E+03	9.337709E-17	4.871811E-18
2.349451E+03	1.060684E-16	5.480708E-18
2.389272E+03	1.196617E-16	6.121773E-18
2.429093E+03	1.338568E-16	6.777978E-18
2.468915E+03	1.484813E-16	7.439280E-18
2.508736E+03	1.634593E-16	8.100747E-18
2.548557E+03	1.787587E-16	8.759735E-18
2.588378E+03	1.943442E-16	9.413488E-18
2.628199E+03	2.102034E-16	1.006041E-17
2.668021E+03	2.262804E-16	1.069683E-17
2.707842E+03	2.425023E-16	1.131845E-17
2.747663E+03	2.587577E-16	1.191930E-17
2.787484E+03	2.748907E-16	1.249171E-17
2.827305E+03	2.907213E-16	1.302729E-17
2.867127E+03	3.060144E-16	1.351570E-17
2.906948E+03	3.205823E-16	1.394930E-17
2.946769E+03	3.342719E-16	1.432249E-17
2.986590E+03	3.469730E-16	1.463192E-17
2.996546E+03	3.499732E-16	1.469864E-17
3.006501E+03	3.528986E-16	1.476096E-17
3.016456E+03	3.557526E-16	1.481906E-17
3.026411E+03	3.585354E-16	1.487298E-17
3.036367E+03	3.612668E-16	1.492357E-17
3.046322E+03	3.639832E-16	1.497235E-17
3.056277E+03	3.666677E-16	1.501862E-17
3.066233E+03	3.693224E-16	1.506249E-17
3.076188E+03	3.719323E-16	1.510336E-17
3.086143E+03	3.744911E-16	1.514099E-17
3.096099E+03	3.769855E-16	1.517487E-17
3.106054E+03	3.794101E-16	1.520481E-17
3.116009E+03	3.817523E-16	1.523035E-17
3.125964E+03	3.840003E-16	1.525105E-17
3.135920E+03	3.861510E-16	1.526684E-17
3.145875E+03	3.882020E-16	1.527768E-17
3.155830E+03	3.901430E-16	1.528321E-17
3.165786E+03	3.919646E-16	1.528312E-17
3.175741E+03	3.936665E-16	1.527747E-17
3.185696E+03	3.952481E-16	1.526629E-17
3.195652E+03	3.967022E-16	1.524937E-17
3.205607E+03	3.980226E-16	1.522655E-17
3.215562E+03	3.992035E-16	1.519768E-17
3.225517E+03	4.002555E-16	1.516323E-17
3.235473E+03	4.011739E-16	1.512310E-17
3.245428E+03	4.019557E-16	1.507725E-17
3.255383E+03	4.025987E-16	1.502568E-17
3.265339E+03	4.031085E-16	1.496867E-17
3.275294E+03	4.034774E-16	1.490601E-17
3.285249E+03	4.037268E-16	1.483858E-17
3.295205E+03	4.038438E-16	1.476597E-17
3.305160E+03	4.038306E-16	1.468833E-17
3.315115E+03	4.037027E-16	1.460631E-17
3.325070E+03	4.034573E-16	1.451986E-17
3.335026E+03	4.030988E-16	1.442923E-17
3.344981E+03	4.026318E-16	1.433464E-17
3.354936E+03	4.020621E-16	1.423636E-17
3.364892E+03	4.013959E-16	1.413468E-17
3.374847E+03	4.006344E-16	1.402969E-17
3.384802E+03	3.997965E-16	1.392212E-17
3.394758E+03	3.988736E-16	1.381171E-17
3.404713E+03	3.978749E-16	1.369884E-17
3.414668E+03	3.968162E-16	1.358408E-17
3.424623E+03	3.956976E-16	1.346750E-17
3.434579E+03	3.945215E-16	1.334921E-17
3.444534E+03	3.933066E-16	1.322988E-17
3.454489E+03	3.920586E-16	1.310972E-17
3.464445E+03	3.907851E-16	1.298901E-17
3.474400E+03	3.895006E-16	1.286826E-17
3.484355E+03	3.882175E-16	1.274787E-17
3.494311E+03	3.869424E-16	1.262808E-17
3.504266E+03	3.856984E-16	1.250963E-17
3.514221E+03	3.844977E-16	1.239290E-17
3.524176E+03	3.833616E-16	1.227855E-17
3.534132E+03	3.823017E-16	1.216691E-17
3.544087E+03	3.813468E-16	1.205886E-17
3.554042E+03	3.805203E-16	1.195507E-17
3.563998E+03	3.798446E-16	1.185616E-17
3.573953E+03	3.793560E-16	1.176318E-17
3.583908E+03	3.790815E-16	1.167685E-17
3.593864E+03	3.790455E-16	1.159777E-17
3.603819E+03	3.792806E-16	1.152682E-17
3.613774E+03	3.798197E-16	1.146480E-17
3.623729E+03	3.807042E-16	1.141278E-17
3.633685E+03	3.819673E-16	1.137153E-17
3.643640E+03	3.836537E-16	1.134215E-17
3.653595E+03	3.858089E-16	1.132571E-17
3.663551E+03	3.884886E-16	1.132354E-17
3.673506E+03	3.917341E-16	1.133651E-17
3.683461E+03	3.956086E-16	1.136609E-17
3.693417E+03	4.001588E-16	1.141322E-17
3.703372E+03	4.054424E-16	1.147910E-17
3.713327E+03	4.115182E-16	1.156494E-17
3.723282E+03	4.184394E-16	1.167172E-17
3.733238E+03	4.262596E-16	1.180039E-17
3.743193E+03	4.350361E-16	1.195197E-17
3.753148E+03	4.448127E-16	1.212703E-17
3.763104E+03	4.556435E-16	1.232643E-17
3.773059E+03	4.675573E-16	1.255027E-17
3.783014E+03	4.805936E-16	1.279891E-17
3.792970E+03	4.947661E-16	1.307202E-17
3.802925E+03	5.100872E-16	1.336921E-17
3.812880E+03	5.265502E-16	1.368957E-17
3.822835E+03	5.441180E-16	1.403143E-17
3.832791E+03	5.627498E-16	1.439307E-17
3.842746E+03	5.823628E-16	1.477170E-17
3.852701E+03	6.028442E-16	1.516388E-17
3.862657E+03	6.240576E-16	1.556568E-17
3.872612E+03	6.458164E-16	1.597202E-17
3.882567E+03	6.679191E-16	1.637764E-17
3.892523E+03	6.901095E-16	1.677612E-17
3.902478E+03	7.121180E-16	1.716091E-17
3.912433E+03	7.336409E-16	1.752490E-17
3.922388E+03	7.543589E-16	1.786087E-17
3.932344E+03	7.739620E-16	1.816208E-17
3.942299E+03	7.921310E-16	1.842184E-17
3.952254E+03	8.085881E-16	1.863468E-17
3.962210E+03	8.230791E-16	1.879592E-17
3.972165E+03	8.353974E-16	1.890215E-17
3.982120E+03	8.454022E-16	1.895160E-17
3.992076E+03	8.530191E-16	1.894413E-17
4.002031E+03	8.582301E-16	1.888086E-17
4.011986E+03	8.611024E-16	1.876479E-17
4.021941E+03	8.617692E-16	1.860029E-17
4.031897E+03	8.604174E-16	1.839276E-17
4.041852E+03	8.572769E-16	1.814834E-17
4.051807E+03	8.526335E-16	1.787418E-17
4.061763E+03	8.467852E-16	1.757739E-17
4.071718E+03	8.400383E-16	1.726505E-17
4.081673E+03	8.326993E-16	1.694396E-17
4.091629E+03	8.250618E-16	1.662042E-17
4.101584E+03	8.174001E-16	1.630009E-17
4.111539E+03	8.099758E-16	1.598818E-17
4.121494E+03	8.030052E-16	1.568877E-17
4.131450E+03	7.966828E-16	1.540537E-17
4.141405E+03	7.911758E-16	1.514082E-17
4.151360E+03	7.866394E-16	1.489758E-17
4.161316E+03	7.831834E-16	1.467716E-17
4.171271E+03	7.809083E-16	1.448080E-17
4.181226E+03	7.798827E-16	1.430909E-17
4.191182E+03	7.801586E-16	1.416229E-17
4.201137E+03	7.817564E-16	1.404003E-17
4.211092E+03	7.846844E-16	1.394175E-17
4.221047E+03	7.889113E-16	1.386618E-17
4.231003E+03	7.943910E-16	1.381184E-17
4.240958E+03	8.010376E-16	1.377659E-17
4.250913E+03	8.087498E-16	1.375814E-17
4.260869E+03	8.174010E-16	1.375383E-17
4.270824E+03	8.268335E-16	1.376061E-17
4.280779E+03	8.368750E-16	1.377530E-17
4.290735E+03	8.473427E-16	1.379469E-17
4.300690E+03	8.580277E-16	1.381531E-17
4.310645E+03	8.687209E-16	1.383380E-17
4.320601E+03	8.792159E-16	1.384704E-17
4.330556E+03	8.892997E-16	1.385193E-17
4.340511E+03	8.988117E-16	1.384631E-17
4.350466E+03	9.076241E-16	1.382867E-17
4.360422E+03	9.156971E-16	1.379886E-17
4.370377E+03	9.231083E-16	1.375853E-17
4.380332E+03	9.300835E-16	1.371145E-17
4.390288E+03	9.369908E-16	1.366332E-17
4.400243E+03	9.443175E-16	1.362129E-17
4.410198E+03	9.525909E-16	1.359283E-17
4.420154E+03	9.623800E-16	1.358565E-17
4.430109E+03	9.742631E-16	1.360728E-17
4.440064E+03	9.887920E-16	1.366456E-17
4.450019E+03	1.006478E-15	1.376347E-17
4.459975E+03	1.027775E-15	1.390892E-17
4.469930E+03	1.053041E-15	1.410431E-17
4.479885E+03	1.082549E-15	1.435174E-17
4.489841E+03	1.116491E-15	1.465221E-17
4.499796E+03	1.154907E-15	1.500467E-17
4.509751E+03	1.197716E-15	1.540656E-17
4.519707E+03	1.244685E-15	1.585351E-17
4.529662E+03	1.295398E-15	1.633900E-17
4.539617E+03	1.349256E-15	1.685446E-17
4.549572E+03	1.405443E-15	1.738900E-17
4.559528E+03	1.462925E-15	1.792947E-17
4.569483E+03	1.520475E-15	1.846085E-17
4.579438E+03	1.576724E-15	1.896699E-17
4.589394E+03	1.630189E-15	1.943099E-17
4.599349E+03	1.679340E-15	1.983598E-17
4.609304E+03	1.722736E-15	2.016676E-17
4.619260E+03	1.759081E-15	2.041033E-17
4.629215E+03	1.787294E-15	2.055663E-17
4.639170E+03	1.806549E-15	2.059883E-17
4.649125E+03	1.816405E-15	2.053466E-17
4.659081E+03	1.816726E-15	2.036537E-17
4.669036E+03	1.807788E-15	2.009668E-17
4.678991E+03	1.790223E-15	1.973807E-17
4.688947E+03	1.764934E-15	1.930161E-17
4.698902E+03	1.733104E-15	1.880201E-17
4.708857E+03	1.696092E-15	1.825542E-17
4.718813E+03	1.655355E-15	1.767846E-17
4.728768E+03	1.612376E-15	1.708754E-17
4.738723E+03	1.568620E-15	1.649835E-17
4.748678E+03	1.525448E-15	1.592501E-17
4.758634E+03	1.484126E-15	1.538026E-17
4.768589E+03	1.445771E-15	1.487492E-17
4.778544E+03	1.411320E-15	1.441767E-17
4.788500E+03	1.381535E-15	1.401520E-17
4.798455E+03	1.356993E-15	1.367214E-17
4.808410E+03	1.338084E-15	1.339118E-17
4.818366E+03	1.325055E-15	1.317352E-17
4.828321E+03	1.317958E-15	1.301842E-17
4.838276E+03	1.316714E-15	1.292386E-17
4.848231E+03	1.321198E-15	1.288737E-17
4.858187E+03	1.331205E-15	1.290577E-17
4.868142E+03	1.346471E-15	1.297542E-17
4.878097E+03	1.366653E-15	1.309201E-17
4.888053E+03	1.391283E-15	1.325017E-17
4.898008E+03	1.419798E-15	1.344375E-17
4.907963E+03	1.451377E-15	1.366430E-17
4.917919E+03	1.484954E-15	1.390126E-17
4.927874E+03	1.519187E-15	1.414175E-17
4.937829E+03	1.552460E-15	1.437063E-17
4.947784E+03	1.582920E-15	1.457089E-17
4.957740E+03	1.608609E-15	1.472495E-17
4.967695E+03	1.627804E-15	1.481773E-17
4.977650E+03	1.639257E-15	1.483881E-17
4.987606E+03	1.642348E-15	1.478369E-17
4.997561E+03	1.637038E-15	1.465315E-17
5.007516E+03	1.624162E-15	1.445579E-17
5.017472E+03	1.605055E-15	1.420447E-17
5.027427E+03	1.581264E-15	1.391367E-17
5.037382E+03	1.554467E-15	1.359870E-17
5.047337E+03	1.526303E-15	1.327422E-17
5.057293E+03	1.498226E-15	1.295296E-17
5.067248E+03	1.471523E-15	1.264594E-17
5.077203E+03	1.447233E-15	1.236182E-17
5.087159E+03	1.426069E-15	1.210624E-17
5.097114E+03	1.408325E-15	1.188120E-17
5.107069E+03	1.394064E-15	1.168669E-17
5.117025E+03	1.383288E-15	1.152217E-17
5.126980E+03	1.375964E-15	1.138683E-17
5.136935E+03	1.372102E-15	1.128020E-17
5.146890E+03	1.371819E-15	1.120271E-17
5.156846E+03	1.375406E-15	1.115614E-17
5.166801E+03	1.383244E-15	1.114297E-17
5.176756E+03	1.395760E-15	1.116594E-17
5.186712E+03	1.413351E-15	1.122747E-17
5.196667E+03	1.436352E-15	1.132940E-17
5.206622E+03	1.464960E-15	1.147243E-17
5.216578E+03	1.499118E-15	1.165525E-17
5.226533E+03	1.538524E-15	1.187470E-17
5.236488E+03	1.582666E-15	1.212607E-17
5.246443E+03	1.630791E-15	1.240299E-17
5.256399E+03	1.681904E-15	1.269744E-17
5.266354E+03	1.734814E-15	1.300021E-17
5.276309E+03	1.788114E-15	1.330079E-17
5.286265E+03	1.840277E-15	1.358811E-17
5.296220E+03	1.889723E-15	1.385110E-17
5.306175E+03	1.934908E-15	1.407932E-17
5.316131E+03	1.974372E-15	1.426326E-17
5.326086E+03	2.006794E-15	1.439478E-17
5.336041E+03	2.031145E-15	1.446801E-17
5.345996E+03	2.046651E-15	1.447909E-17
5.355952E+03	2.052953E-15	1.442720E-17
5.365907E+03	2.050167E-15	1.431480E-17
5.375862E+03	2.038927E-15	1.414786E-17
5.385818E+03	2.020376E-15	1.393564E-17
5.395773E+03	1.996318E-15	1.369165E-17
5.405728E+03	1.968977E-15	1.343190E-17
5.415684E+03	1.940949E-15	1.317452E-17
5.425639E+03	1.915176E-15	1.293955E-17
5.435594E+03	1.894669E-15	1.274718E-17
5.445549E+03	1.882177E-15	1.261550E-17
5.455505E+03	1.880214E-15	1.256089E-17
5.465460E+03	1.890557E-15	1.259477E-17
5.475415E+03	1.913071E-15	1.271595E-17
5.485371E+03	1.944565E-15	1.290305E-17
5.495326E+03	1.980080E-15	1.312295E-17
5.505281E+03	2.014205E-15	1.333965E-17
5.515237E+03	2.041725E-15	1.351855E-17
5.525192E+03	2.057939E-15	1.362835E-17
5.535147E+03	2.059283E-15	1.364506E-17
5.545102E+03	2.044072E-15	1.355688E-17
5.555058E+03	2.012168E-15	1.336204E-17
5.565013E+03	1.964718E-15	1.306708E-17
5.574968E+03	1.904050E-15	1.268632E-17
5.584924E+03	1.833210E-15	1.223892E-17
5.594879E+03	1.755584E-15	1.174640E-17
5.604834E+03	1.674702E-15	1.123151E-17
5.614790E+03	1.593910E-15	1.071598E-17
5.624745E+03	1.516227E-15	1.021966E-17
5.634700E+03	1.444234E-15	9.759728E-18
5.644655E+03	1.380097E-15	9.350793E-18
5.654611E+03	1.325481E-15	9.004295E-18
5.664566E+03	1.281656E-15	8.729163E-18
5.674521E+03	1.249587E-15	8.532357E-18
5.684477E+03	1.229806E-15	8.417970E-18
5.694432E+03	1.222388E-15	8.386961E-18
5.704387E+03	1.227190E-15	8.438789E-18
5.714343E+03	1.244090E-15	8.572994E-18
5.724298E+03	1.272960E-15	8.789003E-18
5.734253E+03	1.313711E-15	9.086429E-18
5.744209E+03	1.366142E-15	9.464021E-18
5.754164E+03	1.429952E-15	9.919714E-18
5.764119E+03	1.504496E-15	1.044895E-17
5.774074E+03	1.588866E-15	1.104519E-17
5.784030E+03	1.681568E-15	1.169770E-17
5.793985E+03	1.780549E-15	1.239173E-17
5.803940E+03	1.883397E-15	1.310989E-17
5.813896E+03	1.987402E-15	1.383267E-17
5.823851E+03	2.089685E-15	1.453935E-17
5.833806E+03	2.187275E-15	1.520861E-17
5.843762E+03	2.277604E-15	1.582202E-17
5.853717E+03	2.358322E-15	1.636281E-17
5.863672E+03	2.427581E-15	1.681789E-17
5.873627E+03	2.484006E-15	1.717765E-17
5.883583E+03	2.526880E-15	1.743727E-17
5.893538E+03	2.555912E-15	1.759508E-17
5.903493E+03	2.571298E-15	1.765297E-17
5.913449E+03	2.573603E-15	1.761553E-17
5.923404E+03	2.563798E-15	1.749023E-17
5.933359E+03	2.543059E-15	1.728604E-17
5.943315E+03	2.512714E-15	1.701300E-17
5.953270E+03	2.474315E-15	1.668261E-17
5.963225E+03	2.429421E-15	1.630640E-17
5.973180E+03	2.379678E-15	1.589634E-17
5.983136E+03	2.326717E-15	1.546418E-17
5.993091E+03	2.272084E-15	1.502093E-17
6.003046E+03	2.217277E-15	1.457706E-17
6.013002E+03	2.163626E-15	1.414176E-17
6.022957E+03	2.112271E-15	1.372277E-17
6.032912E+03	2.064092E-15	1.332592E-17
6.042868E+03	2.019777E-15	1.295570E-17
6.052823E+03	1.979782E-15	1.261492E-17
6.062778E+03	1.944284E-15	1.230458E-17
6.072733E+03	1.913385E-15	1.202509E-17
6.082689E+03	1.886981E-15	1.177561E-17
6.092644E+03	1.864959E-15	1.155519E-17
6.102599E+03	1.847020E-15	1.136179E-17
6.112555E+03	1.832803E-15	1.119304E-17
6.122510E+03	1.821911E-15	1.104641E-17
6.132465E+03	1.813750E-15	1.091830E-17
6.142421E+03	1.807583E-15	1.080435E-17
6.152376E+03	1.802602E-15	1.069994E-17
6.162331E+03	1.797777E-15	1.059929E-17
6.172286E+03	1.791855E-15	1.049549E-17
6.182242E+03	1.783574E-15	1.038179E-17
6.192197E+03	1.771730E-15	1.025184E-17
6.202152E+03	1.755489E-15	1.010138E-17
6.212108E+03	1.734455E-15	9.928668E-18
6.222063E+03	1.708893E-15	9.735730E-18
6.232018E+03	1.679816E-15	9.528726E-18
6.241974E+03	1.648647E-15	9.315963E-18
6.251929E+03	1.616959E-15	9.106415E-18
6.261884E+03	1.586208E-15	8.908257E-18
6.271839E+03	1.557659E-15	8.728481E-18
6.281795E+03	1.532267E-15	8.572328E-18
6.291750E+03	1.510816E-15	8.444066E-18
6.301705E+03	1.493730E-15	8.346028E-18
6.311661E+03	1.481308E-15	8.279903E-18
6.321616E+03	1.473565E-15	8.245902E-18
6.331571E+03	1.470369E-15	8.243522E-18
6.341527E+03	1.471466E-15	8.271653E-18
6.351482E+03	1.476443E-15	8.328405E-18
6.361437E+03	1.484740E-15	8.411111E-18
6.371392E+03	1.495787E-15	8.517077E-18
6.381348E+03	1.508958E-15	8.643300E-18
6.391303E+03	1.523601E-15	8.786604E-18
6.401258E+03	1.539095E-15	8.943929E-18
6.411214E+03	1.554937E-15	9.112649E-18
6.421169E+03	1.570632E-15	9.289756E-18
6.431124E+03	1.585826E-15	9.472913E-18
6.441080E+03	1.600287E-15	9.660378E-18
6.451035E+03	1.613853E-15	9.850752E-18
6.460990E+03	1.626419E-15	1.004290E-17
6.470945E+03	1.637869E-15	1.023555E-17
6.480901E+03	1.648068E-15	1.042725E-17
6.490856E+03	1.657003E-15	1.061724E-17
6.500811E+03	1.664746E-15	1.080530E-17
6.510767E+03	1.671894E-15	1.099467E-17
6.520722E+03	1.679525E-15	1.119200E-17
6.530677E+03	1.688783E-15	1.140475E-17
6.540633E+03	1.700632E-15	1.163958E-17
6.550588E+03	1.715775E-15	1.190174E-17
6.560543E+03	1.734560E-15	1.219426E-17
6.570498E+03	1.757032E-15	1.251816E-17
6.580454E+03	1.782849E-15	1.287169E-17
6.590409E+03	1.811278E-15	1.325017E-17
6.600364E+03	1.841272E-15	1.364627E-17
6.610320E+03	1.871591E-15	1.405084E-17
6.620275E+03	1.900871E-15	1.445327E-17
6.630230E+03	1.927660E-15	1.484179E-17
6.640186E+03	1.950672E-15	1.520534E-17
6.650141E+03	1.968842E-15	1.553414E-17
6.660096E+03	1.981346E-15	1.581990E-17
6.670051E+03	1.987580E-15	1.605589E-17
6.680007E+03	1.987363E-15	1.623860E-17
6.689962E+03	1.980648E-15	1.636560E-17
6.699917E+03	1.967678E-15	1.643697E-17
6.709873E+03	1.948988E-15	1.645533E-17
6.719828E+03	1.925137E-15	1.642383E-17
6.729783E+03	1.896893E-15	1.634761E-17
6.739739E+03	1.865041E-15	1.623234E-17
6.749694E+03	1.830501E-15	1.608515E-17
6.759649E+03	1.794064E-15	1.591242E-17
6.769604E+03	1.756607E-15	1.572159E-17
6.779560E+03	1.718943E-15	1.551980E-17
6.789515E+03	1.681840E-15	1.531413E-17
6.799470E+03	1.646032E-15	1.511152E-17
6.809426E+03	1.612197E-15	1.491866E-17
6.819381E+03	1.580918E-15	1.474153E-17
6.829336E+03	1.552793E-15	1.458643E-17
6.839292E+03	1.528244E-15	1.445808E-17
6.849247E+03	1.507726E-15	1.436162E-17
6.859202E+03	1.491522E-15	1.430066E-17
6.869157E+03	1.479855E-15	1.427818E-17
6.879113E+03	1.472953E-15	1.429724E-17
6.889068E+03	1.470868E-15	1.435921E-17
6.899023E+03	1.473605E-15	1.446490E-17
6.908979E+03	1.481068E-15	1.461410E-17
6.918934E+03	1.493048E-15	1.480537E-17
6.928889E+03	1.509126E-15	1.503508E-17
6.938845E+03	1.528856E-15	1.529921E-17
6.948800E+03	1.551520E-15	1.559086E-17
6.958755E+03	1.576274E-15	1.590171E-17
6.968710E+03	1.602167E-15	1.622217E-17
6.978666E+03	1.628198E-15	1.654201E-17
6.988621E+03	1.653252E-15	1.684968E-17
6.998576E+03	1.676289E-15	1.713427E-17
7.008532E+03	1.696438E-15	1.738649E-17
7.018487E+03	1.712900E-15	1.759778E-17
7.028442E+03	1.725130E-15	1.776211E-17
7.038398E+03	1.732774E-15	1.787549E-17
7.048353E+03	1.735737E-15	1.793660E-17
7.058308E+03	1.734159E-15	1.794666E-17
7.068263E+03	1.728373E-15	1.790893E-17
7.078219E+03	1.718838E-15	1.782807E-17
7.088174E+03	1.706229E-15	1.771109E-17
7.098129E+03	1.691146E-15	1.756423E-17
7.108085E+03	1.674438E-15	1.739644E-17
7.118040E+03	1.656771E-15	1.721479E-17
7.127995E+03	1.638882E-15	1.702705E-17
7.137951E+03	1.621442E-15	1.684039E-17
7.147906E+03	1.604924E-15	1.665988E-17
7.157861E+03	1.589772E-15	1.649025E-17
7.167817E+03	1.576308E-15	1.633499E-17
7.177772E+03	1.564627E-15	1.619515E-17
7.187727E+03	1.554795E-15	1.607148E-17
7.197682E+03	1.546689E-15	1.596277E-17
7.207638E+03	1.540058E-15	1.586647E-17
7.217593E+03	1.534575E-15	1.577924E-17
7.227548E+03	1.529852E-15	1.569713E-17
7.237504E+03	1.525555E-15	1.561680E-17
7.247459E+03	1.521208E-15	1.553343E-17
7.257414E+03	1.516568E-15	1.544468E-17
7.267370E+03	1.511287E-15	1.534714E-17
7.277325E+03	1.505354E-15	1.524088E-17
7.287280E+03	1.498669E-15	1.512507E-17
7.297235E+03	1.491401E-15	1.500162E-17
7.307191E+03	1.483745E-15	1.487266E-17
7.317146E+03	1.475998E-15	1.474135E-17
7.327101E+03	1.468472E-15	1.461095E-17
7.337057E+03	1.461416E-15	1.448402E-17
7.347012E+03	1.455181E-15	1.436413E-17
7.356967E+03	1.449880E-15	1.425242E-17
7.366923E+03	1.445687E-15	1.415061E-17
7.376878E+03	1.442551E-15	1.405823E-17
7.386833E+03	1.440349E-15	1.397407E-17
7.396788E+03	1.438859E-15	1.389599E-17
7.406744E+03	1.437827E-15	1.382161E-17
7.416699E+03	1.436828E-15	1.374694E-17
7.426654E+03	1.435506E-15	1.366872E-17
7.436610E+03	1.433296E-15	1.358180E-17
7.446565E+03	1.429786E-15	1.348256E-17
7.456520E+03	1.424583E-15	1.336764E-17
7.466476E+03	1.417325E-15	1.323400E-17
7.476431E+03	1.407781E-15	1.307978E-17
7.486386E+03	1.395902E-15	1.290488E-17
7.496341E+03	1.381830E-15	1.271092E-17
7.506297E+03	1.365794E-15	1.250031E-17
7.516252E+03	1.348280E-15	1.227777E-17
7.526207E+03	1.329840E-15	1.204854E-17
7.536163E+03	1.311025E-15	1.181773E-17
7.546118E+03	1.292430E-15	1.159075E-17
7.556073E+03	1.274665E-15	1.137305E-17
7.566029E+03	1.258253E-15	1.116919E-17
7.575984E+03	1.243580E-15	1.098243E-17
7.585939E+03	1.231076E-15	1.081636E-17
7.595894E+03	1.220931E-15	1.067238E-17
7.605850E+03	1.213240E-15	1.055107E-17
7.615805E+03	1.208019E-15	1.045229E-17
7.625760E+03	1.205339E-15	1.037639E-17
7.635716E+03	1.205112E-15	1.032238E-17
7.645671E+03	1.207208E-15	1.028892E-17
7.655626E+03	1.211545E-15	1.027511E-17
7.665582E+03	1.217856E-15	1.027853E-17
7.675537E+03	1.225920E-15	1.029721E-17
7.685492E+03	1.235419E-15	1.032844E-17
7.695447E+03	1.245955E-15	1.036889E-17
7.705403E+03	1.257076E-15	1.041487E-17
7.715358E+03	1.268376E-15	1.046315E-17
7.725313E+03	1.279389E-15	1.051010E-17
