#wls	flux	fluxerr
1.592848E+03	3.890999E-17	3.297264E-18
1.632669E+03	4.018294E-17	3.393151E-18
1.672491E+03	4.127900E-17	3.473073E-18
1.712312E+03	4.218058E-17	3.535683E-18
1.752133E+03	4.286996E-17	3.579659E-18
1.791954E+03	4.327386E-17	3.599085E-18
1.831775E+03	4.332276E-17	3.588467E-18
1.871597E+03	4.292580E-17	3.540667E-18
1.911418E+03	4.200725E-17	3.449931E-18
1.951239E+03	4.053597E-17	3.314288E-18
1.991060E+03	3.859091E-17	3.140802E-18
2.030881E+03	3.641712E-17	2.949904E-18
2.070703E+03	3.446153E-17	2.777937E-18
2.110524E+03	3.328059E-17	2.669327E-18
2.150345E+03	3.334829E-17	2.660987E-18
2.190166E+03	3.488826E-17	2.769111E-18
2.229987E+03	3.782617E-17	2.985910E-18
2.269809E+03	4.187436E-17	3.286890E-18
2.309630E+03	4.665148E-17	3.640682E-18
2.349451E+03	5.181061E-17	4.019216E-18
2.389272E+03	5.708419E-17	4.401158E-18
2.429093E+03	6.229390E-17	4.772499E-18
2.468915E+03	6.733776E-17	5.125385E-18
2.508736E+03	7.215886E-17	5.455580E-18
2.548557E+03	7.670182E-17	5.759089E-18
2.588378E+03	8.095181E-17	6.035070E-18
2.628199E+03	8.488243E-17	6.281876E-18
2.668021E+03	8.846658E-17	6.497883E-18
2.707842E+03	9.169915E-17	6.683156E-18
2.747663E+03	9.453373E-17	6.834807E-18
2.787484E+03	9.696283E-17	6.952877E-18
2.827305E+03	9.894870E-17	7.035297E-18
2.867127E+03	1.004580E-16	7.080439E-18
2.906948E+03	1.014716E-16	7.087786E-18
2.946769E+03	1.019865E-16	7.058009E-18
2.986590E+03	1.020160E-16	6.992964E-18
2.996546E+03	1.019494E-16	6.971430E-18
3.006501E+03	1.018550E-16	6.947937E-18
3.016456E+03	1.017395E-16	6.922958E-18
3.026411E+03	1.015986E-16	6.896215E-18
3.036367E+03	1.014402E-16	6.868246E-18
3.046322E+03	1.012712E-16	6.839534E-18
3.056277E+03	1.011001E-16	6.810649E-18
3.066233E+03	1.009241E-16	6.781414E-18
3.076188E+03	1.007350E-16	6.751278E-18
3.086143E+03	1.005369E-16	6.720523E-18
3.096099E+03	1.003281E-16	6.689040E-18
3.106054E+03	1.001072E-16	6.656744E-18
3.116009E+03	9.987310E-17	6.623565E-18
3.125964E+03	9.963046E-17	6.589822E-18
3.135920E+03	9.937301E-17	6.555106E-18
3.145875E+03	9.910030E-17	6.519395E-18
3.155830E+03	9.881750E-17	6.483038E-18
3.165786E+03	9.852440E-17	6.446027E-18
3.175741E+03	9.822623E-17	6.408709E-18
3.185696E+03	9.791266E-17	6.370417E-18
3.195652E+03	9.759434E-17	6.331848E-18
3.205607E+03	9.726656E-17	6.292704E-18
3.215562E+03	9.693486E-17	6.253347E-18
3.225517E+03	9.659981E-17	6.213817E-18
3.235473E+03	9.626208E-17	6.174159E-18
3.245428E+03	9.592715E-17	6.134726E-18
3.255383E+03	9.559116E-17	6.095272E-18
3.265339E+03	9.525968E-17	6.056152E-18
3.275294E+03	9.493360E-17	6.017421E-18
3.285249E+03	9.461839E-17	5.979423E-18
3.295205E+03	9.431068E-17	5.941938E-18
3.305160E+03	9.401596E-17	5.905310E-18
3.315115E+03	9.373532E-17	5.869600E-18
3.325070E+03	9.347418E-17	5.835139E-18
3.335026E+03	9.322959E-17	5.801731E-18
3.344981E+03	9.301097E-17	5.769954E-18
3.354936E+03	9.281557E-17	5.739622E-18
3.364892E+03	9.264868E-17	5.711048E-18
3.374847E+03	9.251175E-17	5.684306E-18
3.384802E+03	9.240997E-17	5.659695E-18
3.394758E+03	9.234485E-17	5.637287E-18
3.404713E+03	9.231798E-17	5.617158E-18
3.414668E+03	9.233470E-17	5.599609E-18
3.424623E+03	9.240026E-17	5.584931E-18
3.434579E+03	9.251290E-17	5.572988E-18
3.444534E+03	9.268165E-17	5.564293E-18
3.454489E+03	9.290501E-17	5.558723E-18
3.464445E+03	9.319197E-17	5.556780E-18
3.474400E+03	9.354814E-17	5.558758E-18
3.484355E+03	9.396930E-17	5.564363E-18
3.494311E+03	9.446793E-17	5.574291E-18
3.504266E+03	9.504359E-17	5.588467E-18
3.514221E+03	9.570251E-17	5.607207E-18
3.524176E+03	9.644486E-17	5.630467E-18
3.534132E+03	9.728039E-17	5.658761E-18
3.544087E+03	9.820371E-17	5.691715E-18
3.554042E+03	9.921910E-17	5.729520E-18
3.563998E+03	1.003341E-16	5.772549E-18
3.573953E+03	1.015445E-16	5.820495E-18
3.583908E+03	1.028586E-16	5.873767E-18
3.593864E+03	1.042759E-16	5.932269E-18
3.603819E+03	1.058053E-16	5.996438E-18
3.613774E+03	1.074471E-16	6.066209E-18
3.623729E+03	1.092046E-16	6.141698E-18
3.633685E+03	1.110845E-16	6.223202E-18
3.643640E+03	1.130936E-16	6.311014E-18
3.653595E+03	1.152331E-16	6.405106E-18
3.663551E+03	1.175097E-16	6.505776E-18
3.673506E+03	1.199278E-16	6.613156E-18
3.683461E+03	1.224944E-16	6.727535E-18
3.693417E+03	1.252133E-16	6.849027E-18
3.703372E+03	1.280916E-16	6.977901E-18
3.713327E+03	1.311358E-16	7.114402E-18
3.723282E+03	1.343460E-16	7.258426E-18
3.733238E+03	1.377283E-16	7.410171E-18
3.743193E+03	1.412878E-16	7.569800E-18
3.753148E+03	1.450324E-16	7.737607E-18
3.763104E+03	1.489567E-16	7.913165E-18
3.773059E+03	1.530667E-16	8.096671E-18
3.783014E+03	1.573612E-16	8.287921E-18
3.792970E+03	1.618439E-16	8.486986E-18
3.802925E+03	1.665077E-16	8.693351E-18
3.812880E+03	1.713533E-16	8.906929E-18
3.822835E+03	1.763735E-16	9.127207E-18
3.832791E+03	1.815586E-16	9.353563E-18
3.842746E+03	1.869041E-16	9.585640E-18
3.852701E+03	1.923962E-16	9.822615E-18
3.862657E+03	1.980184E-16	1.006355E-17
3.872612E+03	2.037595E-16	1.030777E-17
3.882567E+03	2.095982E-16	1.055412E-17
3.892523E+03	2.155108E-16	1.080132E-17
3.902478E+03	2.214786E-16	1.104840E-17
3.912433E+03	2.274730E-16	1.129389E-17
3.922388E+03	2.334632E-16	1.153624E-17
3.932344E+03	2.394244E-16	1.177423E-17
3.942299E+03	2.453223E-16	1.200619E-17
3.952254E+03	2.511250E-16	1.223062E-17
3.962210E+03	2.567959E-16	1.244580E-17
3.972165E+03	2.623018E-16	1.265022E-17
3.982120E+03	2.676099E-16	1.284243E-17
3.992076E+03	2.726878E-16	1.302101E-17
4.002031E+03	2.774966E-16	1.318428E-17
4.011986E+03	2.820165E-16	1.333150E-17
4.021941E+03	2.862142E-16	1.346131E-17
4.031897E+03	2.900692E-16	1.357298E-17
4.041852E+03	2.935669E-16	1.366608E-17
4.051807E+03	2.966984E-16	1.374047E-17
4.061763E+03	2.994575E-16	1.379611E-17
4.071718E+03	3.018493E-16	1.383352E-17
4.081673E+03	3.038852E-16	1.385349E-17
4.091629E+03	3.055741E-16	1.385668E-17
4.101584E+03	3.069480E-16	1.384479E-17
4.111539E+03	3.080296E-16	1.381908E-17
4.121494E+03	3.088454E-16	1.378094E-17
4.131450E+03	3.094286E-16	1.373205E-17
4.141405E+03	3.098095E-16	1.367392E-17
4.151360E+03	3.100275E-16	1.360844E-17
4.161316E+03	3.101179E-16	1.353727E-17
4.171271E+03	3.101068E-16	1.346164E-17
4.181226E+03	3.100320E-16	1.338327E-17
4.191182E+03	3.099215E-16	1.330342E-17
4.201137E+03	3.098095E-16	1.322357E-17
4.211092E+03	3.097162E-16	1.314459E-17
4.221047E+03	3.096760E-16	1.306793E-17
4.231003E+03	3.097047E-16	1.299423E-17
4.240958E+03	3.098325E-16	1.292469E-17
4.250913E+03	3.100717E-16	1.285977E-17
4.260869E+03	3.104448E-16	1.280033E-17
4.270824E+03	3.109730E-16	1.274714E-17
4.280779E+03	3.116687E-16	1.270062E-17
4.290735E+03	3.125551E-16	1.266157E-17
4.300690E+03	3.136388E-16	1.263015E-17
4.310645E+03	3.149492E-16	1.260741E-17
4.320601E+03	3.164917E-16	1.259340E-17
4.330556E+03	3.182867E-16	1.258878E-17
4.340511E+03	3.203547E-16	1.259419E-17
4.350466E+03	3.227127E-16	1.261010E-17
4.360422E+03	3.253792E-16	1.263706E-17
4.370377E+03	3.283792E-16	1.267581E-17
4.380332E+03	3.317480E-16	1.272749E-17
4.390288E+03	3.355149E-16	1.279298E-17
4.400243E+03	3.397194E-16	1.287352E-17
4.410198E+03	3.443926E-16	1.296998E-17
4.420154E+03	3.495638E-16	1.308316E-17
4.430109E+03	3.552584E-16	1.321369E-17
4.440064E+03	3.614969E-16	1.336198E-17
4.450019E+03	3.682931E-16	1.352820E-17
4.459975E+03	3.756490E-16	1.371205E-17
4.469930E+03	3.835620E-16	1.391310E-17
4.479885E+03	3.920152E-16	1.413039E-17
4.489841E+03	4.009895E-16	1.436291E-17
4.499796E+03	4.104444E-16	1.460890E-17
4.509751E+03	4.203208E-16	1.486599E-17
4.519707E+03	4.305594E-16	1.513186E-17
4.529662E+03	4.410766E-16	1.540341E-17
4.539617E+03	4.517743E-16	1.567709E-17
4.549572E+03	4.625407E-16	1.594899E-17
4.559528E+03	4.732575E-16	1.621508E-17
4.569483E+03	4.837866E-16	1.647074E-17
4.579438E+03	4.939996E-16	1.671181E-17
4.589394E+03	5.037436E-16	1.693342E-17
4.599349E+03	5.128887E-16	1.713160E-17
4.609304E+03	5.212922E-16	1.730206E-17
4.619260E+03	5.288260E-16	1.744111E-17
4.629215E+03	5.353736E-16	1.754553E-17
4.639170E+03	5.408397E-16	1.761290E-17
4.649125E+03	5.451411E-16	1.764123E-17
4.659081E+03	5.482178E-16	1.762937E-17
4.669036E+03	5.500285E-16	1.757679E-17
4.678991E+03	5.505833E-16	1.748461E-17
4.688947E+03	5.498968E-16	1.735406E-17
4.698902E+03	5.480324E-16	1.718790E-17
4.708857E+03	5.450699E-16	1.698932E-17
4.718813E+03	5.411268E-16	1.676261E-17
4.728768E+03	5.363505E-16	1.651287E-17
4.738723E+03	5.308962E-16	1.624532E-17
4.748678E+03	5.249447E-16	1.596584E-17
4.758634E+03	5.186863E-16	1.568044E-17
4.768589E+03	5.123085E-16	1.539490E-17
4.778544E+03	5.060156E-16	1.511539E-17
4.788500E+03	4.999956E-16	1.484741E-17
4.798455E+03	4.944349E-16	1.459630E-17
4.808410E+03	4.894821E-16	1.436617E-17
4.818366E+03	4.852915E-16	1.416120E-17
4.828321E+03	4.819732E-16	1.398419E-17
4.838276E+03	4.796187E-16	1.383732E-17
4.848231E+03	4.782995E-16	1.372214E-17
4.858187E+03	4.780521E-16	1.363915E-17
4.868142E+03	4.788975E-16	1.358841E-17
4.878097E+03	4.808252E-16	1.356909E-17
4.888053E+03	4.837978E-16	1.357964E-17
4.898008E+03	4.877437E-16	1.361756E-17
4.907963E+03	4.925712E-16	1.367989E-17
4.917919E+03	4.981515E-16	1.376267E-17
4.927874E+03	5.043244E-16	1.386119E-17
4.937829E+03	5.108996E-16	1.397001E-17
4.947784E+03	5.176571E-16	1.408296E-17
4.957740E+03	5.243764E-16	1.419404E-17
4.967695E+03	5.308182E-16	1.429682E-17
4.977650E+03	5.367540E-16	1.438529E-17
4.987606E+03	5.419999E-16	1.445476E-17
4.997561E+03	5.463979E-16	1.450131E-17
5.007516E+03	5.498423E-16	1.452246E-17
5.017472E+03	5.523051E-16	1.451785E-17
5.027427E+03	5.537974E-16	1.448811E-17
5.037382E+03	5.543957E-16	1.443558E-17
5.047337E+03	5.542012E-16	1.436318E-17
5.057293E+03	5.533626E-16	1.427503E-17
5.067248E+03	5.520467E-16	1.417559E-17
5.077203E+03	5.504155E-16	1.406916E-17
5.087159E+03	5.486360E-16	1.396006E-17
5.097114E+03	5.468707E-16	1.385243E-17
5.107069E+03	5.452517E-16	1.374956E-17
5.117025E+03	5.439185E-16	1.365489E-17
5.126980E+03	5.429780E-16	1.357095E-17
5.136935E+03	5.425275E-16	1.350002E-17
5.146890E+03	5.426499E-16	1.344397E-17
5.156846E+03	5.434164E-16	1.340434E-17
5.166801E+03	5.448849E-16	1.338234E-17
5.176756E+03	5.471092E-16	1.337904E-17
5.186712E+03	5.501120E-16	1.339474E-17
5.196667E+03	5.539201E-16	1.342985E-17
5.206622E+03	5.585406E-16	1.348427E-17
5.216578E+03	5.639620E-16	1.355748E-17
5.226533E+03	5.701518E-16	1.364845E-17
5.236488E+03	5.770698E-16	1.375600E-17
5.246443E+03	5.846512E-16	1.387836E-17
5.256399E+03	5.928084E-16	1.401328E-17
5.266354E+03	6.014421E-16	1.415827E-17
5.276309E+03	6.104433E-16	1.431061E-17
5.286265E+03	6.196729E-16	1.446699E-17
5.296220E+03	6.290072E-16	1.462446E-17
5.306175E+03	6.382916E-16	1.477944E-17
5.316131E+03	6.473923E-16	1.492885E-17
5.326086E+03	6.561743E-16	1.506968E-17
5.336041E+03	6.645045E-16	1.519897E-17
5.345996E+03	6.722705E-16	1.531431E-17
5.355952E+03	6.793720E-16	1.541359E-17
5.365907E+03	6.857329E-16	1.549530E-17
5.375862E+03	6.912709E-16	1.555779E-17
5.385818E+03	6.959375E-16	1.560022E-17
5.395773E+03	6.996858E-16	1.562178E-17
5.405728E+03	7.024965E-16	1.562230E-17
5.415684E+03	7.043460E-16	1.560153E-17
5.425639E+03	7.052278E-16	1.555957E-17
5.435594E+03	7.051422E-16	1.549671E-17
5.445549E+03	7.040909E-16	1.541323E-17
5.455505E+03	7.020728E-16	1.530936E-17
5.465460E+03	6.990671E-16	1.518491E-17
5.475415E+03	6.950272E-16	1.503912E-17
5.485371E+03	6.898036E-16	1.486902E-17
5.495326E+03	6.832445E-16	1.467165E-17
5.505281E+03	6.752343E-16	1.444478E-17
5.515237E+03	6.656815E-16	1.418678E-17
5.525192E+03	6.545521E-16	1.389723E-17
5.535147E+03	6.419008E-16	1.357761E-17
5.545102E+03	6.278406E-16	1.323060E-17
5.555058E+03	6.125451E-16	1.286014E-17
5.565013E+03	5.962817E-16	1.247204E-17
5.574968E+03	5.793423E-16	1.207257E-17
5.584924E+03	5.620732E-16	1.166903E-17
5.594879E+03	5.448383E-16	1.126899E-17
5.604834E+03	5.280061E-16	1.088000E-17
5.614790E+03	5.119371E-16	1.050932E-17
5.624745E+03	4.969764E-16	1.016383E-17
5.634700E+03	4.834356E-16	9.849572E-18
5.644655E+03	4.715897E-16	9.571796E-18
5.654611E+03	4.616905E-16	9.335180E-18
5.664566E+03	4.539587E-16	9.143707E-18
5.674521E+03	4.485740E-16	9.000462E-18
5.684477E+03	4.457068E-16	8.908298E-18
5.694432E+03	4.455082E-16	8.869624E-18
5.704387E+03	4.481029E-16	8.886278E-18
5.714343E+03	4.536079E-16	8.959909E-18
5.724298E+03	4.621177E-16	9.091677E-18
5.734253E+03	4.737020E-16	9.282227E-18
5.744209E+03	4.884164E-16	9.531902E-18
5.754164E+03	5.062807E-16	9.840329E-18
5.764119E+03	5.272717E-16	1.020629E-17
5.774074E+03	5.513092E-16	1.062747E-17
5.784030E+03	5.782399E-16	1.110018E-17
5.793985E+03	6.078238E-16	1.161911E-17
5.803940E+03	6.397241E-16	1.217719E-17
5.813896E+03	6.735067E-16	1.276562E-17
5.823851E+03	7.086197E-16	1.337351E-17
5.833806E+03	7.444220E-16	1.398847E-17
5.843762E+03	7.801974E-16	1.459694E-17
5.853717E+03	8.151550E-16	1.518419E-17
5.863672E+03	8.484945E-16	1.573559E-17
5.873627E+03	8.794110E-16	1.623669E-17
5.883583E+03	9.071605E-16	1.667446E-17
5.893538E+03	9.311084E-16	1.703808E-17
5.903493E+03	9.507367E-16	1.731912E-17
5.913449E+03	9.657043E-16	1.751251E-17
5.923404E+03	9.758646E-16	1.761680E-17
5.933359E+03	9.812377E-16	1.763360E-17
5.943315E+03	9.820281E-16	1.756782E-17
5.953270E+03	9.786021E-16	1.742718E-17
5.963225E+03	9.714096E-16	1.722073E-17
5.973180E+03	9.610113E-16	1.695935E-17
5.983136E+03	9.479995E-16	1.665429E-17
5.993091E+03	9.329742E-16	1.631673E-17
6.003046E+03	9.165027E-16	1.595706E-17
6.013002E+03	8.991171E-16	1.558490E-17
6.022957E+03	8.812992E-16	1.520882E-17
6.032912E+03	8.634319E-16	1.483554E-17
6.042868E+03	8.458678E-16	1.447113E-17
6.052823E+03	8.288503E-16	1.411972E-17
6.062778E+03	8.125826E-16	1.378464E-17
6.072733E+03	7.972202E-16	1.346841E-17
6.082689E+03	7.828546E-16	1.317238E-17
6.092644E+03	7.695581E-16	1.289761E-17
6.102599E+03	7.573563E-16	1.264433E-17
6.112555E+03	7.462608E-16	1.241255E-17
6.122510E+03	7.362818E-16	1.220228E-17
6.132465E+03	7.274011E-16	1.201303E-17
6.142421E+03	7.195988E-16	1.184433E-17
6.152376E+03	7.128402E-16	1.169549E-17
6.162331E+03	7.070839E-16	1.156570E-17
6.172286E+03	7.022934E-16	1.145427E-17
6.182242E+03	6.984116E-16	1.136020E-17
6.192197E+03	6.953985E-16	1.128279E-17
6.202152E+03	6.931860E-16	1.122090E-17
6.212108E+03	6.917330E-16	1.117385E-17
6.222063E+03	6.909385E-16	1.113997E-17
6.232018E+03	6.906961E-16	1.111749E-17
6.241974E+03	6.908799E-16	1.110434E-17
6.251929E+03	6.913557E-16	1.109836E-17
6.261884E+03	6.920428E-16	1.109823E-17
6.271839E+03	6.928274E-16	1.110215E-17
6.281795E+03	6.936613E-16	1.110935E-17
6.291750E+03	6.944715E-16	1.111866E-17
6.301705E+03	6.952261E-16	1.112960E-17
6.311661E+03	6.959010E-16	1.114179E-17
6.321616E+03	6.964755E-16	1.115490E-17
6.331571E+03	6.969573E-16	1.116906E-17
6.341527E+03	6.973384E-16	1.118415E-17
6.351482E+03	6.976435E-16	1.120056E-17
6.361437E+03	6.978822E-16	1.121845E-17
6.371392E+03	6.980676E-16	1.123802E-17
6.381348E+03	6.982207E-16	1.125960E-17
6.391303E+03	6.983453E-16	1.128326E-17
6.401258E+03	6.984525E-16	1.130916E-17
6.411214E+03	6.985640E-16	1.133766E-17
6.421169E+03	6.986756E-16	1.136867E-17
6.431124E+03	6.988273E-16	1.140285E-17
6.441080E+03	6.990275E-16	1.144033E-17
6.451035E+03	6.993106E-16	1.148166E-17
6.460990E+03	6.997124E-16	1.152734E-17
6.470945E+03	7.002666E-16	1.157782E-17
6.480901E+03	7.010048E-16	1.163355E-17
6.490856E+03	7.019586E-16	1.169496E-17
6.500811E+03	7.031645E-16	1.176260E-17
6.510767E+03	7.046926E-16	1.183757E-17
6.520722E+03	7.066743E-16	1.192207E-17
6.530677E+03	7.092211E-16	1.201796E-17
6.540633E+03	7.124321E-16	1.212696E-17
6.550588E+03	7.163336E-16	1.224957E-17
6.560543E+03	7.209220E-16	1.238579E-17
6.570498E+03	7.261397E-16	1.253470E-17
6.580454E+03	7.318613E-16	1.269419E-17
6.590409E+03	7.379330E-16	1.286161E-17
6.600364E+03	7.441540E-16	1.303344E-17
6.610320E+03	7.503077E-16	1.320582E-17
6.620275E+03	7.561385E-16	1.337411E-17
6.630230E+03	7.614002E-16	1.353375E-17
6.640186E+03	7.658749E-16	1.368062E-17
6.650141E+03	7.693249E-16	1.381014E-17
6.660096E+03	7.715764E-16	1.391880E-17
6.670051E+03	7.724940E-16	1.400375E-17
6.680007E+03	7.719715E-16	1.406258E-17
6.689962E+03	7.699605E-16	1.409395E-17
6.699917E+03	7.664626E-16	1.409740E-17
6.709873E+03	7.615403E-16	1.407362E-17
6.719828E+03	7.552889E-16	1.402391E-17
6.729783E+03	7.478331E-16	1.395020E-17
6.739739E+03	7.393414E-16	1.385526E-17
6.749694E+03	7.300330E-16	1.374290E-17
6.759649E+03	7.201051E-16	1.361660E-17
6.769604E+03	7.097934E-16	1.348064E-17
6.779560E+03	6.993618E-16	1.333993E-17
6.789515E+03	6.890379E-16	1.319878E-17
6.799470E+03	6.790756E-16	1.306207E-17
6.809426E+03	6.696985E-16	1.293419E-17
6.819381E+03	6.611469E-16	1.281994E-17
6.829336E+03	6.536006E-16	1.272300E-17
6.839292E+03	6.472481E-16	1.264725E-17
6.849247E+03	6.422424E-16	1.259596E-17
6.859202E+03	6.387024E-16	1.257175E-17
6.869157E+03	6.367366E-16	1.257704E-17
6.879113E+03	6.364123E-16	1.261347E-17
6.889068E+03	6.377564E-16	1.268189E-17
6.899023E+03	6.407781E-16	1.278275E-17
6.908979E+03	6.454429E-16	1.291564E-17
6.918934E+03	6.516663E-16	1.307912E-17
6.928889E+03	6.593412E-16	1.327124E-17
6.938845E+03	6.683066E-16	1.348893E-17
6.948800E+03	6.783463E-16	1.372795E-17
6.958755E+03	6.892087E-16	1.398328E-17
6.968710E+03	7.006159E-16	1.424931E-17
6.978666E+03	7.122494E-16	1.451953E-17
6.988621E+03	7.237550E-16	1.478664E-17
6.998576E+03	7.348193E-16	1.504410E-17
7.008532E+03	7.451285E-16	1.528534E-17
7.018487E+03	7.543767E-16	1.550389E-17
7.028442E+03	7.623535E-16	1.569522E-17
7.038398E+03	7.688750E-16	1.585532E-17
7.048353E+03	7.738378E-16	1.598187E-17
7.058308E+03	7.772255E-16	1.607434E-17
7.068263E+03	7.790575E-16	1.613294E-17
7.078219E+03	7.794691E-16	1.616035E-17
7.088174E+03	7.786002E-16	1.615937E-17
7.098129E+03	7.766791E-16	1.613464E-17
7.108085E+03	7.739070E-16	1.609030E-17
7.118040E+03	7.705308E-16	1.603148E-17
7.127995E+03	7.667887E-16	1.596312E-17
7.137951E+03	7.628651E-16	1.588908E-17
7.147906E+03	7.589520E-16	1.581339E-17
7.157861E+03	7.551947E-16	1.573911E-17
7.167817E+03	7.517017E-16	1.566854E-17
7.177772E+03	7.485401E-16	1.560311E-17
7.187727E+03	7.457254E-16	1.554318E-17
7.197682E+03	7.432738E-16	1.548913E-17
7.207638E+03	7.411220E-16	1.543965E-17
7.217593E+03	7.392158E-16	1.539364E-17
7.227548E+03	7.374709E-16	1.534937E-17
7.237504E+03	7.357854E-16	1.530475E-17
7.247459E+03	7.340499E-16	1.525752E-17
7.257414E+03	7.321511E-16	1.520538E-17
7.267370E+03	7.299641E-16	1.514578E-17
7.277325E+03	7.274100E-16	1.507712E-17
7.287280E+03	7.243851E-16	1.499734E-17
7.297235E+03	7.208038E-16	1.490475E-17
7.307191E+03	7.166406E-16	1.479890E-17
7.317146E+03	7.118542E-16	1.467905E-17
7.327101E+03	7.064413E-16	1.454525E-17
7.337057E+03	7.004210E-16	1.439801E-17
7.347012E+03	6.938338E-16	1.423829E-17
7.356967E+03	6.867487E-16	1.406763E-17
7.366923E+03	6.792217E-16	1.388732E-17
7.376878E+03	6.713538E-16	1.369953E-17
7.386833E+03	6.631985E-16	1.350548E-17
7.396788E+03	6.548540E-16	1.330728E-17
7.406744E+03	6.463907E-16	1.310645E-17
7.416699E+03	6.378732E-16	1.290440E-17
7.426654E+03	6.293379E-16	1.270194E-17
7.436610E+03	6.208407E-16	1.250030E-17
7.446565E+03	6.124397E-16	1.230070E-17
7.456520E+03	6.041589E-16	1.210368E-17
7.466476E+03	5.960581E-16	1.191050E-17
7.476431E+03	5.881512E-16	1.172148E-17
7.486386E+03	5.804703E-16	1.153727E-17
7.496341E+03	5.730469E-16	1.135850E-17
7.506297E+03	5.659226E-16	1.118600E-17
7.516252E+03	5.591200E-16	1.102021E-17
7.526207E+03	5.526739E-16	1.086180E-17
7.536163E+03	5.466204E-16	1.071147E-17
7.546118E+03	5.409958E-16	1.056990E-17
7.556073E+03	5.358361E-16	1.043775E-17
7.566029E+03	5.311668E-16	1.031549E-17
7.575984E+03	5.270307E-16	1.020390E-17
7.585939E+03	5.234570E-16	1.010350E-17
7.595894E+03	5.204671E-16	1.001462E-17
7.605850E+03	5.180759E-16	9.937508E-18
7.615805E+03	5.162831E-16	9.872084E-18
7.625760E+03	5.150904E-16	9.818323E-18
7.635716E+03	5.145102E-16	9.776398E-18
7.645671E+03	5.145064E-16	9.745563E-18
7.655626E+03	5.150516E-16	9.725250E-18
7.665582E+03	5.161172E-16	9.714877E-18
7.675537E+03	5.176542E-16	9.713491E-18
7.685492E+03	5.195931E-16	9.719769E-18
7.695447E+03	5.218645E-16	9.732414E-18
7.705403E+03	5.244005E-16	9.750174E-18
7.715358E+03	5.271164E-16	9.771508E-18
7.725313E+03	5.299129E-16	9.794627E-18
