#wls	flux	fluxerr
1.592848E+03	3.664023E-17	2.812278E-18
1.632669E+03	3.779039E-17	2.888994E-18
1.672491E+03	3.877141E-17	2.951820E-18
1.712312E+03	3.957418E-17	3.000192E-18
1.752133E+03	4.016406E-17	3.031643E-18
1.791954E+03	4.047932E-17	3.041723E-18
1.831775E+03	4.046332E-17	3.026462E-18
1.871597E+03	4.002662E-17	2.979538E-18
1.911418E+03	3.909536E-17	2.895936E-18
1.951239E+03	3.766231E-17	2.775683E-18
1.991060E+03	3.578102E-17	2.623301E-18
2.030881E+03	3.369412E-17	2.457049E-18
2.070703E+03	3.181676E-17	2.307327E-18
2.110524E+03	3.065224E-17	2.210222E-18
2.150345E+03	3.063731E-17	2.196190E-18
2.190166E+03	3.197372E-17	2.278141E-18
2.229987E+03	3.457988E-17	2.448495E-18
2.269809E+03	3.818003E-17	2.686074E-18
2.309630E+03	4.241379E-17	2.964217E-18
2.349451E+03	4.696062E-17	3.259644E-18
2.389272E+03	5.157554E-17	3.554866E-18
2.429093E+03	5.609095E-17	3.838151E-18
2.468915E+03	6.041725E-17	4.103400E-18
2.508736E+03	6.449313E-17	4.346610E-18
2.548557E+03	6.828735E-17	4.565930E-18
2.588378E+03	7.178781E-17	4.760862E-18
2.628199E+03	7.497947E-17	4.930760E-18
2.668021E+03	7.784026E-17	5.074573E-18
2.707842E+03	8.037920E-17	5.193332E-18
2.747663E+03	8.257380E-17	5.286051E-18
2.787484E+03	8.443308E-17	5.353823E-18
2.827305E+03	8.592900E-17	5.395414E-18
2.867127E+03	8.706015E-17	5.411345E-18
2.906948E+03	8.780100E-17	5.400683E-18
2.946769E+03	8.815610E-17	5.364422E-18
2.986590E+03	8.813824E-17	5.304073E-18
2.996546E+03	8.808504E-17	5.285881E-18
3.006501E+03	8.800323E-17	5.265921E-18
3.016456E+03	8.790640E-17	5.245020E-18
3.026411E+03	8.779009E-17	5.222919E-18
3.036367E+03	8.766126E-17	5.200042E-18
3.046322E+03	8.753240E-17	5.177134E-18
3.056277E+03	8.739927E-17	5.153945E-18
3.066233E+03	8.726606E-17	5.130725E-18
3.076188E+03	8.712487E-17	5.107010E-18
3.086143E+03	8.698031E-17	5.083075E-18
3.096099E+03	8.683098E-17	5.058840E-18
3.106054E+03	8.667584E-17	5.034247E-18
3.116009E+03	8.651400E-17	5.009249E-18
3.125964E+03	8.633907E-17	4.983480E-18
3.135920E+03	8.616203E-17	4.957580E-18
3.145875E+03	8.597686E-17	4.931205E-18
3.155830E+03	8.578339E-17	4.904350E-18
3.165786E+03	8.558707E-17	4.877332E-18
3.175741E+03	8.538252E-17	4.849846E-18
3.185696E+03	8.517529E-17	4.822211E-18
3.195652E+03	8.496563E-17	4.794444E-18
3.205607E+03	8.475386E-17	4.766565E-18
3.215562E+03	8.453533E-17	4.738314E-18
3.225517E+03	8.432082E-17	4.710300E-18
3.235473E+03	8.411078E-17	4.682543E-18
3.245428E+03	8.390083E-17	4.654800E-18
3.255383E+03	8.369652E-17	4.627379E-18
3.265339E+03	8.349386E-17	4.600056E-18
3.275294E+03	8.330307E-17	4.573392E-18
3.285249E+03	8.312024E-17	4.547168E-18
3.295205E+03	8.295070E-17	4.521668E-18
3.305160E+03	8.279070E-17	4.496683E-18
3.315115E+03	8.265019E-17	4.472746E-18
3.325070E+03	8.252538E-17	4.449641E-18
3.335026E+03	8.241718E-17	4.427408E-18
3.344981E+03	8.233519E-17	4.406552E-18
3.354936E+03	8.227581E-17	4.386864E-18
3.364892E+03	8.223998E-17	4.368383E-18
3.374847E+03	8.223696E-17	4.351584E-18
3.384802E+03	8.226347E-17	4.336273E-18
3.394758E+03	8.232049E-17	4.322485E-18
3.404713E+03	8.242106E-17	4.310883E-18
3.414668E+03	8.255812E-17	4.301073E-18
3.424623E+03	8.274058E-17	4.293493E-18
3.434579E+03	8.296562E-17	4.287970E-18
3.444534E+03	8.324601E-17	4.285134E-18
3.454489E+03	8.357908E-17	4.284814E-18
3.464445E+03	8.397369E-17	4.287428E-18
3.474400E+03	8.442751E-17	4.292819E-18
3.484355E+03	8.495322E-17	4.301589E-18
3.494311E+03	8.554877E-17	4.313589E-18
3.504266E+03	8.622340E-17	4.329238E-18
3.514221E+03	8.697908E-17	4.348582E-18
3.524176E+03	8.782170E-17	4.371860E-18
3.534132E+03	8.875037E-17	4.398971E-18
3.544087E+03	8.977151E-17	4.430175E-18
3.554042E+03	9.088484E-17	4.465395E-18
3.563998E+03	9.209060E-17	4.504581E-18
3.573953E+03	9.339618E-17	4.548030E-18
3.583908E+03	9.479907E-17	4.595552E-18
3.593864E+03	9.630409E-17	4.647314E-18
3.603819E+03	9.791286E-17	4.703321E-18
3.613774E+03	9.963093E-17	4.763769E-18
3.623729E+03	1.014607E-16	4.828693E-18
3.633685E+03	1.034082E-16	4.898304E-18
3.643640E+03	1.054731E-16	4.972503E-18
3.653595E+03	1.076688E-16	5.051837E-18
3.663551E+03	1.099921E-16	5.136062E-18
3.673506E+03	1.124535E-16	5.225573E-18
3.683461E+03	1.150533E-16	5.320292E-18
3.693417E+03	1.178024E-16	5.420613E-18
3.703372E+03	1.207045E-16	5.526609E-18
3.713327E+03	1.237601E-16	5.638184E-18
3.723282E+03	1.269832E-16	5.755868E-18
3.733238E+03	1.303773E-16	5.879693E-18
3.743193E+03	1.339418E-16	6.009513E-18
3.753148E+03	1.376827E-16	6.145467E-18
3.763104E+03	1.416091E-16	6.287833E-18
3.773059E+03	1.457183E-16	6.436354E-18
3.783014E+03	1.500177E-16	6.591224E-18
3.792970E+03	1.545024E-16	6.752087E-18
3.802925E+03	1.591774E-16	6.919021E-18
3.812880E+03	1.640385E-16	7.091708E-18
3.822835E+03	1.690798E-16	7.269751E-18
3.832791E+03	1.742971E-16	7.452841E-18
3.842746E+03	1.796843E-16	7.640583E-18
3.852701E+03	1.852330E-16	7.832491E-18
3.862657E+03	1.909237E-16	8.027632E-18
3.872612E+03	1.967471E-16	8.225500E-18
3.882567E+03	2.026825E-16	8.425135E-18
3.892523E+03	2.087107E-16	8.625657E-18
3.902478E+03	2.148099E-16	8.826101E-18
3.912433E+03	2.209468E-16	9.025042E-18
3.922388E+03	2.270988E-16	9.221532E-18
3.932344E+03	2.332322E-16	9.414194E-18
3.942299E+03	2.393111E-16	9.601600E-18
3.952254E+03	2.453124E-16	9.782863E-18
3.962210E+03	2.511888E-16	9.956158E-18
3.972165E+03	2.569065E-16	1.012024E-17
3.982120E+03	2.624369E-16	1.027411E-17
3.992076E+03	2.677434E-16	1.041647E-17
4.002031E+03	2.727860E-16	1.054595E-17
4.011986E+03	2.775473E-16	1.066206E-17
4.021941E+03	2.819987E-16	1.076393E-17
4.031897E+03	2.861110E-16	1.085067E-17
4.041852E+03	2.898797E-16	1.092237E-17
4.051807E+03	2.932860E-16	1.097857E-17
4.061763E+03	2.963267E-16	1.101944E-17
4.071718E+03	2.989994E-16	1.104516E-17
4.081673E+03	3.013177E-16	1.105650E-17
4.091629E+03	3.032907E-16	1.105406E-17
4.101584E+03	3.049324E-16	1.103861E-17
4.111539E+03	3.062715E-16	1.101144E-17
4.121494E+03	3.073254E-16	1.097339E-17
4.131450E+03	3.081344E-16	1.092613E-17
4.141405E+03	3.087167E-16	1.087047E-17
4.151360E+03	3.091162E-16	1.080812E-17
4.161316E+03	3.093585E-16	1.074013E-17
4.171271E+03	3.094883E-16	1.066816E-17
4.181226E+03	3.095262E-16	1.059299E-17
4.191182E+03	3.095153E-16	1.051619E-17
4.201137E+03	3.094879E-16	1.043887E-17
4.211092E+03	3.094700E-16	1.036194E-17
4.221047E+03	3.094901E-16	1.028634E-17
4.231003E+03	3.095744E-16	1.021293E-17
4.240958E+03	3.097559E-16	1.014273E-17
4.250913E+03	3.100466E-16	1.007609E-17
4.260869E+03	3.104700E-16	1.001369E-17
4.270824E+03	3.110465E-16	9.956102E-18
4.280779E+03	3.117941E-16	9.903794E-18
4.290735E+03	3.127196E-16	9.856868E-18
4.300690E+03	3.138405E-16	9.815755E-18
4.310645E+03	3.151678E-16	9.780668E-18
4.320601E+03	3.167107E-16	9.751758E-18
4.330556E+03	3.184731E-16	9.729000E-18
4.340511E+03	3.204714E-16	9.712751E-18
4.350466E+03	3.227141E-16	9.703116E-18
4.360422E+03	3.252120E-16	9.700253E-18
4.370377E+03	3.279834E-16	9.704551E-18
4.380332E+03	3.310514E-16	9.716507E-18
4.390288E+03	3.344517E-16	9.736978E-18
4.400243E+03	3.382191E-16	9.766755E-18
4.410198E+03	3.423893E-16	9.806631E-18
4.420154E+03	3.469883E-16	9.857091E-18
4.430109E+03	3.520530E-16	9.918907E-18
4.440064E+03	3.575932E-16	9.992060E-18
4.450019E+03	3.636354E-16	1.007700E-17
4.459975E+03	3.701759E-16	1.017331E-17
4.469930E+03	3.772115E-16	1.028061E-17
4.479885E+03	3.847389E-16	1.039852E-17
4.489841E+03	3.927251E-16	1.052587E-17
4.499796E+03	4.011403E-16	1.066161E-17
4.509751E+03	4.099374E-16	1.080428E-17
4.519707E+03	4.190522E-16	1.095201E-17
4.529662E+03	4.284181E-16	1.110293E-17
4.539617E+03	4.379463E-16	1.125466E-17
4.549572E+03	4.475473E-16	1.140490E-17
4.559528E+03	4.571108E-16	1.155090E-17
4.569483E+03	4.665294E-16	1.169006E-17
4.579438E+03	4.756845E-16	1.181961E-17
4.589394E+03	4.844540E-16	1.193681E-17
4.599349E+03	4.927214E-16	1.203914E-17
4.609304E+03	5.003620E-16	1.212395E-17
4.619260E+03	5.072682E-16	1.218915E-17
4.629215E+03	5.133370E-16	1.223280E-17
4.639170E+03	5.184830E-16	1.225346E-17
4.649125E+03	5.226380E-16	1.225015E-17
4.659081E+03	5.257454E-16	1.222221E-17
4.669036E+03	5.277799E-16	1.216971E-17
4.678991E+03	5.287318E-16	1.209310E-17
4.688947E+03	5.286136E-16	1.199332E-17
4.698902E+03	5.274649E-16	1.187188E-17
4.708857E+03	5.253394E-16	1.173058E-17
4.718813E+03	5.223273E-16	1.157195E-17
4.728768E+03	5.185190E-16	1.139846E-17
4.738723E+03	5.140358E-16	1.121318E-17
4.748678E+03	5.089953E-16	1.101898E-17
4.758634E+03	5.035437E-16	1.081928E-17
4.768589E+03	4.978319E-16	1.061747E-17
4.778544E+03	4.920352E-16	1.041738E-17
4.788500E+03	4.863445E-16	1.022303E-17
4.798455E+03	4.809449E-16	1.003821E-17
4.808410E+03	4.759946E-16	9.866047E-18
4.818366E+03	4.716264E-16	9.709057E-18
4.828321E+03	4.679654E-16	9.569527E-18
4.838276E+03	4.651018E-16	9.448932E-18
4.848231E+03	4.631056E-16	9.348296E-18
4.858187E+03	4.620259E-16	9.268208E-18
4.868142E+03	4.618717E-16	9.208448E-18
4.878097E+03	4.626411E-16	9.168598E-18
4.888053E+03	4.642974E-16	9.147572E-18
4.898008E+03	4.667938E-16	9.144119E-18
4.907963E+03	4.700397E-16	9.156173E-18
4.917919E+03	4.739315E-16	9.181469E-18
4.927874E+03	4.783551E-16	9.217596E-18
4.937829E+03	4.831640E-16	9.261573E-18
4.947784E+03	4.882038E-16	9.310338E-18
4.957740E+03	4.933130E-16	9.360753E-18
4.967695E+03	4.983348E-16	9.409838E-18
4.977650E+03	5.031097E-16	9.454612E-18
4.987606E+03	5.074986E-16	9.492533E-18
4.997561E+03	5.113904E-16	9.521615E-18
5.007516E+03	5.147024E-16	9.540441E-18
5.017472E+03	5.173691E-16	9.547920E-18
5.027427E+03	5.193753E-16	9.543908E-18
5.037382E+03	5.207353E-16	9.528787E-18
5.047337E+03	5.214947E-16	9.503505E-18
5.057293E+03	5.217318E-16	9.469582E-18
5.067248E+03	5.215410E-16	9.428799E-18
5.077203E+03	5.210268E-16	9.383087E-18
5.087159E+03	5.203074E-16	9.334598E-18
5.097114E+03	5.195103E-16	9.285606E-18
5.107069E+03	5.187552E-16	9.238222E-18
5.117025E+03	5.181562E-16	9.194424E-18
5.126980E+03	5.178134E-16	9.155914E-18
5.136935E+03	5.178319E-16	9.124465E-18
5.146890E+03	5.182836E-16	9.101239E-18
5.156846E+03	5.192432E-16	9.087440E-18
5.166801E+03	5.207671E-16	9.083934E-18
5.176756E+03	5.229035E-16	9.091441E-18
5.186712E+03	5.256710E-16	9.110159E-18
5.196667E+03	5.290905E-16	9.140325E-18
5.206622E+03	5.331634E-16	9.181846E-18
5.216578E+03	5.378828E-16	9.234485E-18
5.226533E+03	5.432111E-16	9.297489E-18
5.236488E+03	5.491129E-16	9.370150E-18
5.246443E+03	5.555336E-16	9.451448E-18
5.256399E+03	5.624046E-16	9.540140E-18
5.266354E+03	5.696400E-16	9.634704E-18
5.276309E+03	5.771592E-16	9.733731E-18
5.286265E+03	5.848498E-16	9.835293E-18
5.296220E+03	5.926041E-16	9.937564E-18
5.306175E+03	6.003147E-16	1.003875E-17
5.316131E+03	6.078678E-16	1.013696E-17
5.326086E+03	6.151446E-16	1.023026E-17
5.336041E+03	6.220372E-16	1.031690E-17
5.345996E+03	6.284447E-16	1.039527E-17
5.355952E+03	6.342817E-16	1.046405E-17
5.365907E+03	6.394550E-16	1.052179E-17
5.375862E+03	6.439042E-16	1.056760E-17
5.385818E+03	6.475752E-16	1.060070E-17
5.395773E+03	6.504286E-16	1.062055E-17
5.405728E+03	6.524302E-16	1.062672E-17
5.415684E+03	6.535701E-16	1.061915E-17
5.425639E+03	6.538366E-16	1.059778E-17
5.435594E+03	6.532285E-16	1.056271E-17
5.445549E+03	6.517494E-16	1.051411E-17
5.455505E+03	6.494056E-16	1.045218E-17
5.465460E+03	6.461851E-16	1.037684E-17
5.475415E+03	6.420441E-16	1.028749E-17
5.485371E+03	6.368731E-16	1.018249E-17
5.495326E+03	6.305369E-16	1.005976E-17
5.505281E+03	6.229505E-16	9.917990E-18
5.515237E+03	6.140562E-16	9.756330E-18
5.525192E+03	6.038411E-16	9.574633E-18
5.535147E+03	5.923603E-16	9.373838E-18
5.545102E+03	5.797414E-16	9.156014E-18
5.555058E+03	5.661459E-16	8.923760E-18
5.565013E+03	5.518131E-16	8.680875E-18
5.574968E+03	5.370045E-16	8.431485E-18
5.584924E+03	5.220174E-16	8.180249E-18
5.594879E+03	5.071695E-16	7.932114E-18
5.604834E+03	4.927758E-16	7.691950E-18
5.614790E+03	4.791421E-16	7.464454E-18
5.624745E+03	4.665571E-16	7.254019E-18
5.634700E+03	4.552858E-16	7.064642E-18
5.644655E+03	4.455664E-16	6.899873E-18
5.654611E+03	4.376097E-16	6.762809E-18
5.664566E+03	4.316046E-16	6.656184E-18
5.674521E+03	4.277119E-16	6.582273E-18
5.684477E+03	4.260677E-16	6.542948E-18
5.694432E+03	4.267993E-16	6.539925E-18
5.704387E+03	4.300144E-16	6.574597E-18
5.714343E+03	4.358065E-16	6.648117E-18
5.724298E+03	4.442537E-16	6.761388E-18
5.734253E+03	4.554116E-16	6.914949E-18
5.744209E+03	4.693261E-16	7.109177E-18
5.754164E+03	4.859990E-16	7.343764E-18
5.764119E+03	5.053962E-16	7.617853E-18
5.774074E+03	5.274326E-16	7.929816E-18
5.784030E+03	5.519661E-16	8.277174E-18
5.793985E+03	5.787641E-16	8.656109E-18
5.803940E+03	6.075339E-16	9.061937E-18
5.813896E+03	6.378700E-16	9.488339E-18
5.823851E+03	6.693035E-16	9.928116E-18
5.833806E+03	7.012647E-16	1.037266E-17
5.843762E+03	7.331137E-16	1.081243E-17
5.853717E+03	7.641849E-16	1.123762E-17
5.863672E+03	7.937635E-16	1.163782E-17
5.873627E+03	8.211715E-16	1.200330E-17
5.883583E+03	8.457726E-16	1.232507E-17
5.893538E+03	8.670043E-16	1.259535E-17
5.903493E+03	8.844367E-16	1.280838E-17
5.913449E+03	8.977567E-16	1.296021E-17
5.923404E+03	9.068028E-16	1.304910E-17
5.933359E+03	9.115936E-16	1.307598E-17
5.943315E+03	9.122659E-16	1.304346E-17
5.953270E+03	9.090743E-16	1.295579E-17
5.963225E+03	9.024260E-16	1.281938E-17
5.973180E+03	8.927462E-16	1.264079E-17
5.983136E+03	8.805563E-16	1.242788E-17
5.993091E+03	8.663580E-16	1.218813E-17
6.003046E+03	8.506748E-16	1.192922E-17
6.013002E+03	8.339858E-16	1.165812E-17
6.022957E+03	8.167466E-16	1.138137E-17
6.032912E+03	7.993443E-16	1.110447E-17
6.042868E+03	7.821265E-16	1.083232E-17
6.052823E+03	7.653580E-16	1.056860E-17
6.062778E+03	7.492899E-16	1.031674E-17
6.072733E+03	7.340804E-16	1.007888E-17
6.082689E+03	7.198577E-16	9.856720E-18
6.092644E+03	7.067324E-16	9.651687E-18
6.102599E+03	6.947416E-16	9.464208E-18
6.112555E+03	6.839242E-16	9.294733E-18
6.122510E+03	6.742801E-16	9.143185E-18
6.132465E+03	6.657979E-16	9.009344E-18
6.142421E+03	6.584498E-16	8.892781E-18
6.152376E+03	6.521968E-16	8.792928E-18
6.162331E+03	6.469770E-16	8.708927E-18
6.172286E+03	6.427426E-16	8.640127E-18
6.182242E+03	6.394147E-16	8.585476E-18
6.192197E+03	6.369199E-16	8.544012E-18
6.202152E+03	6.351960E-16	8.514943E-18
6.212108E+03	6.341662E-16	8.497260E-18
6.222063E+03	6.337354E-16	8.489665E-18
6.232018E+03	6.337818E-16	8.490509E-18
6.241974E+03	6.342060E-16	8.498451E-18
6.251929E+03	6.348820E-16	8.511800E-18
6.261884E+03	6.357278E-16	8.529452E-18
6.271839E+03	6.366529E-16	8.550193E-18
6.281795E+03	6.375877E-16	8.573087E-18
6.291750E+03	6.384751E-16	8.597358E-18
6.301705E+03	6.392655E-16	8.622327E-18
6.311661E+03	6.399382E-16	8.647699E-18
6.321616E+03	6.404679E-16	8.673113E-18
6.331571E+03	6.408581E-16	8.698593E-18
6.341527E+03	6.410986E-16	8.723971E-18
6.351482E+03	6.412100E-16	8.749501E-18
6.361437E+03	6.411984E-16	8.775233E-18
6.371392E+03	6.410944E-16	8.801555E-18
6.381348E+03	6.409192E-16	8.828728E-18
6.391303E+03	6.406950E-16	8.857029E-18
6.401258E+03	6.404459E-16	8.886767E-18
6.411214E+03	6.401939E-16	8.918222E-18
6.421169E+03	6.399613E-16	8.951687E-18
6.431124E+03	6.397750E-16	8.987520E-18
6.441080E+03	6.396446E-16	9.025845E-18
6.451035E+03	6.396209E-16	9.067324E-18
6.460990E+03	6.397200E-16	9.112109E-18
6.470945E+03	6.399614E-16	9.160403E-18
6.480901E+03	6.403836E-16	9.212691E-18
6.490856E+03	6.409738E-16	9.268729E-18
6.500811E+03	6.417576E-16	9.328831E-18
6.510767E+03	6.427706E-16	9.393469E-18
6.520722E+03	6.440755E-16	9.463522E-18
6.530677E+03	6.457271E-16	9.539783E-18
6.540633E+03	6.477683E-16	9.622884E-18
6.550588E+03	6.502168E-16	9.713098E-18
6.560543E+03	6.530438E-16	9.810012E-18
6.570498E+03	6.562136E-16	9.913098E-18
6.580454E+03	6.596354E-16	1.002098E-17
6.590409E+03	6.631985E-16	1.013196E-17
6.600364E+03	6.667837E-16	1.024416E-17
6.610320E+03	6.702239E-16	1.035491E-17
6.620275E+03	6.733713E-16	1.046183E-17
6.630230E+03	6.760527E-16	1.056203E-17
6.640186E+03	6.781159E-16	1.065294E-17
6.650141E+03	6.794153E-16	1.073201E-17
6.660096E+03	6.798162E-16	1.079684E-17
6.670051E+03	6.792403E-16	1.084588E-17
6.680007E+03	6.776047E-16	1.087748E-17
6.689962E+03	6.748999E-16	1.089115E-17
6.699917E+03	6.711268E-16	1.088657E-17
6.709873E+03	6.663417E-16	1.086435E-17
6.719828E+03	6.606107E-16	1.082526E-17
6.729783E+03	6.540746E-16	1.077137E-17
6.739739E+03	6.468579E-16	1.070448E-17
6.749694E+03	6.391255E-16	1.062717E-17
6.759649E+03	6.310742E-16	1.054257E-17
6.769604E+03	6.228685E-16	1.045335E-17
6.779560E+03	6.147288E-16	1.036318E-17
6.789515E+03	6.068306E-16	1.027505E-17
6.799470E+03	5.993784E-16	1.019247E-17
6.809426E+03	5.925235E-16	1.011814E-17
6.819381E+03	5.864544E-16	1.005539E-17
6.829336E+03	5.813091E-16	1.000678E-17
6.839292E+03	5.772072E-16	9.974550E-18
6.849247E+03	5.742635E-16	9.960898E-18
6.859202E+03	5.725626E-16	9.967509E-18
6.869157E+03	5.721571E-16	9.995523E-18
6.879113E+03	5.730988E-16	1.004606E-17
6.889068E+03	5.753809E-16	1.011923E-17
6.899023E+03	5.789930E-16	1.021503E-17
6.908979E+03	5.838794E-16	1.033266E-17
6.918934E+03	5.899707E-16	1.047106E-17
6.928889E+03	5.971585E-16	1.062842E-17
6.938845E+03	6.053045E-16	1.080240E-17
6.948800E+03	6.142325E-16	1.098990E-17
6.958755E+03	6.237469E-16	1.118746E-17
6.968710E+03	6.336413E-16	1.139137E-17
6.978666E+03	6.436846E-16	1.159746E-17
6.988621E+03	6.536297E-16	1.180119E-17
6.998576E+03	6.632400E-16	1.199821E-17
7.008532E+03	6.723034E-16	1.218457E-17
7.018487E+03	6.806119E-16	1.235638E-17
7.028442E+03	6.879989E-16	1.251048E-17
7.038398E+03	6.943405E-16	1.264447E-17
7.048353E+03	6.995585E-16	1.275682E-17
7.058308E+03	7.036360E-16	1.284708E-17
7.068263E+03	7.065709E-16	1.291513E-17
7.078219E+03	7.084380E-16	1.296224E-17
7.088174E+03	7.093383E-16	1.299020E-17
7.098129E+03	7.094030E-16	1.300135E-17
7.108085E+03	7.087815E-16	1.299842E-17
7.118040E+03	7.076205E-16	1.298408E-17
7.127995E+03	7.060889E-16	1.296143E-17
7.137951E+03	7.043215E-16	1.293297E-17
7.147906E+03	7.024602E-16	1.290130E-17
7.157861E+03	7.005997E-16	1.286820E-17
7.167817E+03	6.988191E-16	1.283516E-17
7.177772E+03	6.971695E-16	1.280312E-17
7.187727E+03	6.956814E-16	1.277268E-17
7.197682E+03	6.943252E-16	1.274332E-17
7.207638E+03	6.930882E-16	1.271483E-17
7.217593E+03	6.918915E-16	1.268579E-17
7.227548E+03	6.906699E-16	1.265504E-17
7.237504E+03	6.893224E-16	1.262075E-17
7.247459E+03	6.877624E-16	1.258139E-17
7.257414E+03	6.858908E-16	1.253518E-17
7.267370E+03	6.835884E-16	1.248000E-17
7.277325E+03	6.807888E-16	1.241471E-17
7.287280E+03	6.774190E-16	1.233806E-17
7.297235E+03	6.734003E-16	1.224870E-17
7.307191E+03	6.687093E-16	1.214630E-17
7.317146E+03	6.633341E-16	1.203075E-17
7.327101E+03	6.572850E-16	1.190236E-17
7.337057E+03	6.505856E-16	1.176167E-17
7.347012E+03	6.433001E-16	1.160997E-17
7.356967E+03	6.354998E-16	1.144865E-17
7.366923E+03	6.272580E-16	1.127916E-17
7.376878E+03	6.186675E-16	1.110327E-17
7.386833E+03	6.098275E-16	1.092287E-17
7.396788E+03	6.008261E-16	1.073963E-17
7.406744E+03	5.917689E-16	1.055552E-17
7.416699E+03	5.827368E-16	1.037205E-17
7.426654E+03	5.738307E-16	1.019107E-17
7.436610E+03	5.651047E-16	1.001359E-17
7.446565E+03	5.566395E-16	9.841094E-18
7.456520E+03	5.484683E-16	9.674177E-18
7.466476E+03	5.406502E-16	9.513909E-18
7.476431E+03	5.332163E-16	9.360842E-18
7.486386E+03	5.261799E-16	9.215191E-18
7.496341E+03	5.195556E-16	9.077179E-18
7.506297E+03	5.133602E-16	8.947069E-18
7.516252E+03	5.075883E-16	8.824731E-18
7.526207E+03	5.022486E-16	8.710281E-18
7.536163E+03	4.973309E-16	8.603511E-18
7.546118E+03	4.928423E-16	8.504507E-18
7.556073E+03	4.887748E-16	8.413099E-18
7.566029E+03	4.851484E-16	8.329597E-18
7.575984E+03	4.819542E-16	8.253811E-18
7.585939E+03	4.792089E-16	8.185997E-18
7.595894E+03	4.769068E-16	8.126025E-18
7.605850E+03	4.750658E-16	8.074164E-18
7.615805E+03	4.736715E-16	8.030139E-18
7.625760E+03	4.727409E-16	7.994210E-18
7.635716E+03	4.722548E-16	7.966021E-18
7.645671E+03	4.722122E-16	7.945532E-18
7.655626E+03	4.725962E-16	7.932441E-18
7.665582E+03	4.733897E-16	7.926441E-18
7.675537E+03	4.745411E-16	7.926663E-18
7.685492E+03	4.760144E-16	7.932504E-18
7.695447E+03	4.777566E-16	7.943093E-18
7.705403E+03	4.797078E-16	7.957449E-18
7.715358E+03	4.818107E-16	7.974653E-18
7.725313E+03	4.839793E-16	7.993323E-18
