#wls	flux	fluxerr
1.592848E+03	2.758535E-17	7.534342E-19
1.632669E+03	2.834145E-17	7.712662E-19
1.672491E+03	2.895925E-17	7.851241E-19
1.712312E+03	2.942918E-17	7.947856E-19
1.752133E+03	2.973208E-17	7.997767E-19
1.791954E+03	2.983028E-17	7.991375E-19
1.831775E+03	2.966560E-17	7.913818E-19
1.871597E+03	2.919294E-17	7.753999E-19
1.911418E+03	2.835890E-17	7.498889E-19
1.951239E+03	2.715841E-17	7.148499E-19
1.991060E+03	2.564672E-17	6.718722E-19
2.030881E+03	2.399279E-17	6.254893E-19
2.070703E+03	2.249401E-17	5.834833E-19
2.110524E+03	2.150427E-17	5.549387E-19
2.150345E+03	2.131648E-17	5.471785E-19
2.190166E+03	2.204982E-17	5.629168E-19
2.229987E+03	2.361685E-17	5.995391E-19
2.269809E+03	2.581565E-17	6.515735E-19
2.309630E+03	2.837616E-17	7.119434E-19
2.349451E+03	3.108015E-17	7.750162E-19
2.389272E+03	3.375903E-17	8.365183E-19
2.429093E+03	3.630617E-17	8.938071E-19
2.468915E+03	3.868053E-17	9.459125E-19
2.508736E+03	4.084178E-17	9.919131E-19
2.548557E+03	4.279770E-17	1.032078E-18
2.588378E+03	4.455287E-17	1.066598E-18
2.628199E+03	4.610196E-17	1.095430E-18
2.668021E+03	4.746811E-17	1.119212E-18
2.707842E+03	4.865454E-17	1.138101E-18
2.747663E+03	4.967137E-17	1.152416E-18
2.787484E+03	5.052215E-17	1.162323E-18
2.827305E+03	5.121820E-17	1.168165E-18
2.867127E+03	5.177873E-17	1.170458E-18
2.906948E+03	5.220391E-17	1.169281E-18
2.946769E+03	5.252267E-17	1.165352E-18
2.986590E+03	5.276486E-17	1.159389E-18
2.996546E+03	5.281548E-17	1.157630E-18
3.006501E+03	5.285952E-17	1.155709E-18
3.016456E+03	5.291004E-17	1.153910E-18
3.026411E+03	5.295554E-17	1.151983E-18
3.036367E+03	5.300657E-17	1.150158E-18
3.046322E+03	5.306677E-17	1.148511E-18
3.056277E+03	5.313127E-17	1.146937E-18
3.066233E+03	5.321131E-17	1.145676E-18
3.076188E+03	5.329337E-17	1.144437E-18
3.086143E+03	5.338893E-17	1.143463E-18
3.096099E+03	5.348482E-17	1.142471E-18
3.106054E+03	5.359263E-17	1.141709E-18
3.116009E+03	5.370568E-17	1.141032E-18
3.125964E+03	5.382342E-17	1.140427E-18
3.135920E+03	5.394548E-17	1.139886E-18
3.145875E+03	5.407755E-17	1.139527E-18
3.155830E+03	5.421934E-17	1.139344E-18
3.165786E+03	5.436460E-17	1.139203E-18
3.175741E+03	5.451329E-17	1.139102E-18
3.185696E+03	5.467710E-17	1.139284E-18
3.195652E+03	5.484414E-17	1.139501E-18
3.205607E+03	5.502035E-17	1.139873E-18
3.215562E+03	5.520568E-17	1.140398E-18
3.225517E+03	5.540600E-17	1.141195E-18
3.235473E+03	5.561557E-17	1.142144E-18
3.245428E+03	5.583443E-17	1.143244E-18
3.255383E+03	5.606275E-17	1.144495E-18
3.265339E+03	5.631204E-17	1.146131E-18
3.275294E+03	5.657100E-17	1.147918E-18
3.285249E+03	5.684541E-17	1.149972E-18
3.295205E+03	5.713537E-17	1.152290E-18
3.305160E+03	5.744662E-17	1.154987E-18
3.315115E+03	5.777357E-17	1.157944E-18
3.325070E+03	5.811635E-17	1.161162E-18
3.335026E+03	5.848058E-17	1.164749E-18
3.344981E+03	5.886621E-17	1.168701E-18
3.354936E+03	5.927882E-17	1.173122E-18
3.364892E+03	5.970730E-17	1.177789E-18
3.374847E+03	6.016260E-17	1.182914E-18
3.384802E+03	6.064453E-17	1.188487E-18
3.394758E+03	6.114754E-17	1.194395E-18
3.404713E+03	6.168225E-17	1.200840E-18
3.414668E+03	6.224297E-17	1.207705E-18
3.424623E+03	6.282944E-17	1.214980E-18
3.434579E+03	6.345199E-17	1.222857E-18
3.444534E+03	6.409961E-17	1.231119E-18
3.454489E+03	6.477733E-17	1.239857E-18
3.464445E+03	6.548497E-17	1.249059E-18
3.474400E+03	6.622766E-17	1.258818E-18
3.484355E+03	6.700554E-17	1.269129E-18
3.494311E+03	6.781887E-17	1.279989E-18
3.504266E+03	6.866830E-17	1.291403E-18
3.514221E+03	6.955473E-17	1.303380E-18
3.524176E+03	7.048442E-17	1.316028E-18
3.534132E+03	7.145350E-17	1.329267E-18
3.544087E+03	7.247379E-17	1.343306E-18
3.554042E+03	7.353648E-17	1.357973E-18
3.563998E+03	7.465367E-17	1.373480E-18
3.573953E+03	7.582199E-17	1.389754E-18
3.583908E+03	7.704872E-17	1.406916E-18
3.593864E+03	7.833112E-17	1.424905E-18
3.603819E+03	7.967695E-17	1.443847E-18
3.613774E+03	8.108926E-17	1.463786E-18
3.623729E+03	8.257135E-17	1.484764E-18
3.633685E+03	8.413192E-17	1.506922E-18
3.643640E+03	8.576482E-17	1.530134E-18
3.653595E+03	8.748467E-17	1.554644E-18
3.663551E+03	8.929108E-17	1.580424E-18
3.673506E+03	9.119447E-17	1.607639E-18
3.683461E+03	9.319532E-17	1.636277E-18
3.693417E+03	9.529977E-17	1.666423E-18
3.703372E+03	9.751951E-17	1.698256E-18
3.713327E+03	9.986143E-17	1.731872E-18
3.723282E+03	1.023326E-16	1.767365E-18
3.733238E+03	1.049352E-16	1.804742E-18
3.743193E+03	1.076764E-16	1.844098E-18
3.753148E+03	1.105688E-16	1.885614E-18
3.763104E+03	1.136195E-16	1.929380E-18
3.773059E+03	1.168356E-16	1.975480E-18
3.783014E+03	1.202132E-16	2.023807E-18
3.792970E+03	1.237745E-16	2.074700E-18
3.802925E+03	1.275089E-16	2.127939E-18
3.812880E+03	1.314319E-16	2.183743E-18
3.822835E+03	1.355470E-16	2.242126E-18
3.832791E+03	1.398451E-16	2.302894E-18
3.842746E+03	1.443317E-16	2.366097E-18
3.852701E+03	1.490106E-16	2.431750E-18
3.862657E+03	1.538653E-16	2.499545E-18
3.872612E+03	1.588878E-16	2.569310E-18
3.882567E+03	1.640787E-16	2.641015E-18
3.892523E+03	1.694050E-16	2.714095E-18
3.902478E+03	1.748604E-16	2.788415E-18
3.912433E+03	1.804163E-16	2.863494E-18
3.922388E+03	1.860476E-16	2.938907E-18
3.932344E+03	1.917191E-16	3.014088E-18
3.942299E+03	1.974061E-16	3.088637E-18
3.952254E+03	2.030687E-16	3.161930E-18
3.962210E+03	2.086779E-16	3.233524E-18
3.972165E+03	2.141841E-16	3.302661E-18
3.982120E+03	2.195490E-16	3.368782E-18
3.992076E+03	2.247409E-16	3.431431E-18
4.002031E+03	2.297149E-16	3.489967E-18
4.011986E+03	2.344340E-16	3.543879E-18
4.021941E+03	2.388639E-16	3.592714E-18
4.031897E+03	2.429678E-16	3.635983E-18
4.041852E+03	2.467281E-16	3.673500E-18
4.051807E+03	2.501162E-16	3.704922E-18
4.061763E+03	2.531251E-16	3.730232E-18
4.071718E+03	2.557613E-16	3.749613E-18
4.081673E+03	2.580317E-16	3.763253E-18
4.091629E+03	2.599366E-16	3.771241E-18
4.101584E+03	2.614948E-16	3.773933E-18
4.111539E+03	2.627369E-16	3.771850E-18
4.121494E+03	2.636847E-16	3.765378E-18
4.131450E+03	2.643630E-16	3.754939E-18
4.141405E+03	2.648125E-16	3.741171E-18
4.151360E+03	2.650690E-16	3.724629E-18
4.161316E+03	2.651563E-16	3.705697E-18
4.171271E+03	2.651169E-16	3.685003E-18
4.181226E+03	2.649858E-16	3.663063E-18
4.191182E+03	2.647850E-16	3.640202E-18
4.201137E+03	2.645565E-16	3.617014E-18
4.211092E+03	2.643233E-16	3.593820E-18
4.221047E+03	2.641057E-16	3.570897E-18
4.231003E+03	2.639324E-16	3.548630E-18
4.240958E+03	2.638135E-16	3.527147E-18
4.250913E+03	2.637780E-16	3.506825E-18
4.260869E+03	2.638317E-16	3.487723E-18
4.270824E+03	2.639887E-16	3.470010E-18
4.280779E+03	2.642658E-16	3.453883E-18
4.290735E+03	2.646671E-16	3.439374E-18
4.300690E+03	2.652000E-16	3.426554E-18
4.310645E+03	2.658704E-16	3.415471E-18
4.320601E+03	2.666780E-16	3.406095E-18
4.330556E+03	2.676266E-16	3.398448E-18
4.340511E+03	2.687203E-16	3.392553E-18
4.350466E+03	2.699679E-16	3.388494E-18
4.360422E+03	2.713621E-16	3.386148E-18
4.370377E+03	2.729276E-16	3.385795E-18
4.380332E+03	2.746762E-16	3.387550E-18
4.390288E+03	2.766350E-16	3.391708E-18
4.400243E+03	2.788482E-16	3.398769E-18
4.410198E+03	2.813429E-16	3.409011E-18
4.420154E+03	2.841588E-16	3.422857E-18
4.430109E+03	2.873289E-16	3.440644E-18
4.440064E+03	2.908787E-16	3.462603E-18
4.450019E+03	2.948292E-16	3.488913E-18
4.459975E+03	2.992094E-16	3.519838E-18
4.469930E+03	3.040219E-16	3.555325E-18
4.479885E+03	3.092688E-16	3.595321E-18
4.489841E+03	3.149448E-16	3.639684E-18
4.499796E+03	3.210143E-16	3.687927E-18
4.509751E+03	3.274445E-16	3.739609E-18
4.519707E+03	3.341632E-16	3.793850E-18
4.529662E+03	3.411104E-16	3.849927E-18
4.539617E+03	3.481825E-16	3.906649E-18
4.549572E+03	3.552845E-16	3.962947E-18
4.559528E+03	3.623056E-16	4.017601E-18
4.569483E+03	3.691421E-16	4.069500E-18
4.579438E+03	3.756872E-16	4.117526E-18
4.589394E+03	3.818318E-16	4.160564E-18
4.599349E+03	3.874914E-16	4.197791E-18
4.609304E+03	3.925808E-16	4.228396E-18
4.619260E+03	3.970348E-16	4.251804E-18
4.629215E+03	4.007826E-16	4.267392E-18
4.639170E+03	4.037815E-16	4.274853E-18
4.649125E+03	4.059735E-16	4.273724E-18
4.659081E+03	4.073188E-16	4.263744E-18
4.669036E+03	4.077947E-16	4.244836E-18
4.678991E+03	4.073832E-16	4.216974E-18
4.688947E+03	4.060897E-16	4.180374E-18
4.698902E+03	4.039420E-16	4.135476E-18
4.708857E+03	4.009941E-16	4.082975E-18
4.718813E+03	3.973198E-16	4.023751E-18
4.728768E+03	3.930292E-16	3.959033E-18
4.738723E+03	3.882412E-16	3.890106E-18
4.748678E+03	3.830826E-16	3.818307E-18
4.758634E+03	3.776945E-16	3.745090E-18
4.768589E+03	3.722201E-16	3.671893E-18
4.778544E+03	3.668187E-16	3.600286E-18
4.788500E+03	3.616436E-16	3.531745E-18
4.798455E+03	3.568372E-16	3.467614E-18
4.808410E+03	3.525365E-16	3.409155E-18
4.818366E+03	3.488557E-16	3.357389E-18
4.828321E+03	3.459053E-16	3.313281E-18
4.838276E+03	3.437912E-16	3.277725E-18
4.848231E+03	3.425880E-16	3.251306E-18
4.858187E+03	3.423612E-16	3.234510E-18
4.868142E+03	3.431664E-16	3.227728E-18
4.878097E+03	3.450273E-16	3.231044E-18
4.888053E+03	3.479468E-16	3.244353E-18
4.898008E+03	3.519044E-16	3.267336E-18
4.907963E+03	3.568397E-16	3.299308E-18
4.917919E+03	3.626602E-16	3.339309E-18
4.927874E+03	3.692324E-16	3.386015E-18
4.937829E+03	3.763714E-16	3.437659E-18
4.947784E+03	3.838592E-16	3.492199E-18
4.957740E+03	3.914333E-16	3.547224E-18
4.967695E+03	3.988239E-16	3.600292E-18
4.977650E+03	4.057540E-16	3.648937E-18
4.987606E+03	4.119627E-16	3.690868E-18
4.997561E+03	4.172452E-16	3.724333E-18
5.007516E+03	4.214723E-16	3.748271E-18
5.017472E+03	4.245804E-16	3.762218E-18
5.027427E+03	4.266054E-16	3.766595E-18
5.037382E+03	4.276302E-16	3.762227E-18
5.047337E+03	4.278081E-16	3.750543E-18
5.057293E+03	4.273242E-16	3.733228E-18
5.067248E+03	4.263792E-16	3.712082E-18
5.077203E+03	4.251800E-16	3.688929E-18
5.087159E+03	4.239093E-16	3.665362E-18
5.097114E+03	4.227317E-16	3.642796E-18
5.107069E+03	4.217772E-16	3.622328E-18
5.117025E+03	4.211422E-16	3.604754E-18
5.126980E+03	4.209082E-16	3.590733E-18
5.136935E+03	4.211193E-16	3.580596E-18
5.146890E+03	4.218054E-16	3.574550E-18
5.156846E+03	4.229829E-16	3.572688E-18
5.166801E+03	4.246642E-16	3.575063E-18
5.176756E+03	4.268445E-16	3.581586E-18
5.186712E+03	4.295405E-16	3.592347E-18
5.196667E+03	4.327453E-16	3.607242E-18
5.206622E+03	4.364587E-16	3.626218E-18
5.216578E+03	4.406810E-16	3.649231E-18
5.226533E+03	4.454002E-16	3.676132E-18
5.236488E+03	4.505892E-16	3.706652E-18
5.246443E+03	4.562175E-16	3.740495E-18
5.256399E+03	4.622313E-16	3.777179E-18
5.266354E+03	4.685778E-16	3.816237E-18
5.276309E+03	4.751720E-16	3.856944E-18
5.286265E+03	4.819272E-16	3.898573E-18
5.296220E+03	4.887589E-16	3.940420E-18
5.306175E+03	4.955580E-16	3.981596E-18
5.316131E+03	5.022284E-16	4.021330E-18
5.326086E+03	5.086667E-16	4.058798E-18
5.336041E+03	5.147882E-16	4.093340E-18
5.345996E+03	5.205183E-16	4.124384E-18
5.355952E+03	5.257745E-16	4.151307E-18
5.365907E+03	5.305259E-16	4.173897E-18
5.375862E+03	5.347375E-16	4.191918E-18
5.385818E+03	5.384222E-16	4.205513E-18
5.395773E+03	5.415954E-16	4.214838E-18
5.405728E+03	5.443299E-16	4.220501E-18
5.415684E+03	5.466971E-16	4.223086E-18
5.425639E+03	5.487760E-16	4.223229E-18
5.435594E+03	5.506555E-16	4.221635E-18
5.445549E+03	5.523998E-16	4.218808E-18
5.455505E+03	5.540279E-16	4.214904E-18
5.465460E+03	5.554971E-16	4.209606E-18
5.475415E+03	5.566317E-16	4.201605E-18
5.485371E+03	5.570802E-16	4.188283E-18
5.495326E+03	5.564119E-16	4.166478E-18
5.505281E+03	5.541786E-16	4.132945E-18
5.515237E+03	5.500171E-16	4.085127E-18
5.525192E+03	5.436602E-16	4.021227E-18
5.535147E+03	5.349742E-16	3.940463E-18
5.545102E+03	5.240124E-16	3.843446E-18
5.555058E+03	5.109684E-16	3.731809E-18
5.565013E+03	4.961729E-16	3.608158E-18
5.574968E+03	4.800559E-16	3.475781E-18
5.584924E+03	4.631118E-16	3.338377E-18
5.594879E+03	4.458463E-16	3.199663E-18
5.604834E+03	4.287633E-16	3.063283E-18
5.614790E+03	4.123240E-16	2.932509E-18
5.624745E+03	3.969477E-16	2.810259E-18
5.634700E+03	3.829870E-16	2.698923E-18
5.644655E+03	3.707406E-16	2.600468E-18
5.654611E+03	3.604567E-16	2.516465E-18
5.664566E+03	3.523314E-16	2.448091E-18
5.674521E+03	3.465170E-16	2.396194E-18
5.684477E+03	3.431525E-16	2.361505E-18
5.694432E+03	3.423469E-16	2.344530E-18
5.704387E+03	3.442042E-16	2.345728E-18
5.714343E+03	3.488109E-16	2.365423E-18
5.724298E+03	3.562593E-16	2.403965E-18
5.734253E+03	3.666198E-16	2.461546E-18
5.744209E+03	3.799469E-16	2.538242E-18
5.754164E+03	3.962559E-16	2.633862E-18
5.764119E+03	4.155202E-16	2.747938E-18
5.774074E+03	4.376233E-16	2.879415E-18
5.784030E+03	4.623595E-16	3.026676E-18
5.793985E+03	4.893911E-16	3.187272E-18
5.803940E+03	5.182575E-16	3.358011E-18
5.813896E+03	5.483657E-16	3.534909E-18
5.823851E+03	5.790126E-16	3.713366E-18
5.833806E+03	6.093912E-16	3.888211E-18
5.843762E+03	6.386832E-16	4.054315E-18
5.853717E+03	6.660508E-16	4.206534E-18
5.863672E+03	6.907152E-16	4.340206E-18
5.873627E+03	7.119823E-16	4.451298E-18
5.883583E+03	7.292755E-16	4.536592E-18
5.893538E+03	7.421853E-16	4.593975E-18
5.903493E+03	7.504612E-16	4.622354E-18
5.913449E+03	7.540717E-16	4.622000E-18
5.923404E+03	7.531440E-16	4.594145E-18
5.933359E+03	7.479983E-16	4.541163E-18
5.943315E+03	7.390880E-16	4.466185E-18
5.953270E+03	7.269815E-16	4.372962E-18
5.963225E+03	7.123092E-16	4.265545E-18
5.973180E+03	6.957240E-16	4.148034E-18
5.983136E+03	6.778603E-16	4.024342E-18
5.993091E+03	6.593090E-16	3.898048E-18
6.003046E+03	6.405945E-16	3.772275E-18
6.013002E+03	6.221628E-16	3.649633E-18
6.022957E+03	6.043618E-16	3.532114E-18
6.032912E+03	5.874655E-16	3.421250E-18
6.042868E+03	5.716783E-16	3.318149E-18
6.052823E+03	5.571334E-16	3.223491E-18
6.062778E+03	5.439181E-16	3.137692E-18
6.072733E+03	5.320731E-16	3.060896E-18
6.082689E+03	5.216159E-16	2.993122E-18
6.092644E+03	5.125245E-16	2.934168E-18
6.102599E+03	5.047794E-16	2.883857E-18
6.112555E+03	4.983280E-16	2.841835E-18
6.122510E+03	4.931237E-16	2.807792E-18
6.132465E+03	4.891085E-16	2.781365E-18
6.142421E+03	4.862174E-16	2.762164E-18
6.152376E+03	4.843891E-16	2.749830E-18
6.162331E+03	4.835460E-16	2.743923E-18
6.172286E+03	4.835927E-16	2.743911E-18
6.182242E+03	4.844264E-16	2.749228E-18
6.192197E+03	4.859326E-16	2.759233E-18
6.202152E+03	4.879675E-16	2.773103E-18
6.212108E+03	4.903554E-16	2.789835E-18
6.222063E+03	4.929360E-16	2.808515E-18
6.232018E+03	4.955932E-16	2.828473E-18
6.241974E+03	4.982032E-16	2.848995E-18
6.251929E+03	5.006212E-16	2.869236E-18
6.261884E+03	5.027218E-16	2.888454E-18
6.271839E+03	5.043983E-16	2.906006E-18
6.281795E+03	5.055658E-16	2.921361E-18
6.291750E+03	5.061769E-16	2.934198E-18
6.301705E+03	5.062073E-16	2.944322E-18
6.311661E+03	5.056842E-16	2.951830E-18
6.321616E+03	5.046365E-16	2.956829E-18
6.331571E+03	5.031383E-16	2.959690E-18
6.341527E+03	5.012480E-16	2.960698E-18
6.351482E+03	4.990421E-16	2.960243E-18
6.361437E+03	4.965974E-16	2.958730E-18
6.371392E+03	4.939679E-16	2.956430E-18
6.381348E+03	4.912096E-16	2.953635E-18
6.391303E+03	4.883622E-16	2.950541E-18
6.401258E+03	4.854580E-16	2.947308E-18
6.411214E+03	4.825163E-16	2.944018E-18
6.421169E+03	4.795565E-16	2.940759E-18
6.431124E+03	4.765884E-16	2.937563E-18
6.441080E+03	4.736401E-16	2.934575E-18
6.451035E+03	4.707460E-16	2.931986E-18
6.460990E+03	4.679500E-16	2.930051E-18
6.470945E+03	4.653265E-16	2.929222E-18
6.480901E+03	4.629478E-16	2.929952E-18
6.490856E+03	4.609084E-16	2.932845E-18
6.500811E+03	4.592925E-16	2.938455E-18
6.510767E+03	4.582183E-16	2.947565E-18
6.520722E+03	4.578205E-16	2.961087E-18
6.530677E+03	4.582097E-16	2.979793E-18
6.540633E+03	4.594591E-16	3.004230E-18
6.550588E+03	4.615826E-16	3.034565E-18
6.560543E+03	4.645257E-16	3.070519E-18
6.570498E+03	4.681846E-16	3.111474E-18
6.580454E+03	4.724057E-16	3.156469E-18
6.590409E+03	4.769801E-16	3.204148E-18
6.600364E+03	4.816855E-16	3.253032E-18
6.610320E+03	4.862685E-16	3.301404E-18
6.620275E+03	4.904742E-16	3.347499E-18
6.630230E+03	4.940570E-16	3.389576E-18
6.640186E+03	4.967952E-16	3.426028E-18
6.650141E+03	4.985102E-16	3.455517E-18
6.660096E+03	4.990784E-16	3.477060E-18
6.670051E+03	4.984240E-16	3.489994E-18
6.680007E+03	4.965217E-16	3.494005E-18
6.689962E+03	4.934147E-16	3.489259E-18
6.699917E+03	4.891736E-16	3.476127E-18
6.709873E+03	4.839124E-16	3.455301E-18
6.719828E+03	4.777801E-16	3.427742E-18
6.729783E+03	4.709416E-16	3.394547E-18
6.739739E+03	4.635696E-16	3.356897E-18
6.749694E+03	4.558565E-16	3.316136E-18
6.759649E+03	4.479928E-16	3.273627E-18
6.769604E+03	4.401680E-16	3.230747E-18
6.779560E+03	4.325723E-16	3.188906E-18
6.789515E+03	4.253778E-16	3.149405E-18
6.799470E+03	4.187515E-16	3.113526E-18
6.809426E+03	4.128489E-16	3.082491E-18
6.819381E+03	4.078178E-16	3.057477E-18
6.829336E+03	4.037860E-16	3.039530E-18
6.839292E+03	4.008640E-16	3.029579E-18
6.849247E+03	3.991596E-16	3.028544E-18
6.859202E+03	3.987618E-16	3.037213E-18
6.869157E+03	3.997394E-16	3.056225E-18
6.879113E+03	4.021525E-16	3.086160E-18
6.889068E+03	4.060322E-16	3.127377E-18
6.899023E+03	4.113783E-16	3.179995E-18
6.908979E+03	4.181676E-16	3.243950E-18
6.918934E+03	4.263310E-16	3.318815E-18
6.928889E+03	4.357534E-16	3.403797E-18
6.938845E+03	4.462675E-16	3.497675E-18
6.948800E+03	4.576415E-16	3.598702E-18
6.958755E+03	4.695914E-16	3.704695E-18
6.968710E+03	4.818002E-16	3.813178E-18
6.978666E+03	4.939008E-16	3.921247E-18
6.988621E+03	5.055235E-16	4.025939E-18
6.998576E+03	5.163138E-16	4.124380E-18
7.008532E+03	5.259773E-16	4.214143E-18
7.018487E+03	5.342709E-16	4.293188E-18
7.028442E+03	5.410306E-16	4.360096E-18
7.038398E+03	5.461786E-16	4.414127E-18
7.048353E+03	5.497258E-16	4.455260E-18
7.058308E+03	5.517670E-16	4.484159E-18
7.068263E+03	5.524630E-16	4.502039E-18
7.078219E+03	5.520439E-16	4.510695E-18
7.088174E+03	5.507914E-16	4.512371E-18
7.098129E+03	5.489910E-16	4.509364E-18
7.108085E+03	5.469644E-16	4.504296E-18
7.118040E+03	5.449973E-16	4.499523E-18
7.127995E+03	5.433623E-16	4.497313E-18
7.137951E+03	5.422955E-16	4.499653E-18
7.147906E+03	5.419842E-16	4.508148E-18
7.157861E+03	5.425198E-16	4.523613E-18
7.167817E+03	5.439432E-16	4.546452E-18
7.177772E+03	5.462414E-16	4.576616E-18
7.187727E+03	5.493445E-16	4.613582E-18
7.197682E+03	5.531270E-16	4.656350E-18
7.207638E+03	5.574266E-16	4.703600E-18
7.217593E+03	5.620405E-16	4.753657E-18
7.227548E+03	5.667360E-16	4.804580E-18
7.237504E+03	5.712434E-16	4.854090E-18
7.247459E+03	5.752879E-16	4.899849E-18
7.257414E+03	5.786007E-16	4.939545E-18
7.267370E+03	5.809061E-16	4.970790E-18
7.277325E+03	5.819686E-16	4.991516E-18
7.287280E+03	5.815957E-16	5.000005E-18
7.297235E+03	5.796518E-16	4.995017E-18
7.307191E+03	5.760519E-16	4.975733E-18
7.317146E+03	5.708001E-16	4.942099E-18
7.327101E+03	5.639737E-16	4.894694E-18
7.337057E+03	5.557118E-16	4.834640E-18
7.347012E+03	5.462052E-16	4.763516E-18
7.356967E+03	5.356887E-16	4.683303E-18
7.366923E+03	5.244252E-16	4.596243E-18
7.376878E+03	5.126875E-16	4.504688E-18
7.386833E+03	5.007440E-16	4.410970E-18
7.396788E+03	4.888358E-16	4.317206E-18
7.406744E+03	4.771786E-16	4.225306E-18
7.416699E+03	4.659752E-16	4.137086E-18
7.426654E+03	4.553736E-16	4.053893E-18
7.436610E+03	4.454996E-16	3.976890E-18
7.446565E+03	4.364403E-16	3.906907E-18
7.456520E+03	4.282512E-16	3.844501E-18
7.466476E+03	4.209647E-16	3.790027E-18
7.476431E+03	4.145827E-16	3.743573E-18
7.486386E+03	4.090843E-16	3.705018E-18
7.496341E+03	4.044338E-16	3.674105E-18
7.506297E+03	4.005723E-16	3.650357E-18
7.516252E+03	3.974297E-16	3.633190E-18
7.526207E+03	3.949097E-16	3.621774E-18
7.536163E+03	3.929165E-16	3.615277E-18
7.546118E+03	3.913260E-16	3.612592E-18
7.556073E+03	3.900171E-16	3.612630E-18
7.566029E+03	3.888651E-16	3.614252E-18
7.575984E+03	3.877621E-16	3.616462E-18
7.585939E+03	3.866396E-16	3.618617E-18
7.595894E+03	3.855599E-16	3.621298E-18
7.605850E+03	3.846456E-16	3.625658E-18
7.615805E+03	3.840077E-16	3.632760E-18
7.625760E+03	3.837560E-16	3.643670E-18
7.635716E+03	3.839628E-16	3.659116E-18
7.645671E+03	3.847006E-16	3.679833E-18
7.655626E+03	3.859896E-16	3.706074E-18
7.665582E+03	3.878376E-16	3.737970E-18
7.675537E+03	3.902189E-16	3.775333E-18
7.685492E+03	3.930736E-16	3.817642E-18
7.695447E+03	3.963290E-16	3.864241E-18
7.705403E+03	3.998659E-16	3.914010E-18
7.715358E+03	4.035664E-16	3.965824E-18
7.725313E+03	4.072780E-16	4.018200E-18
