#wls	flux	fluxerr
1.592848E+03	2.521578E-17	1.150664E-18
1.632669E+03	2.591239E-17	1.178341E-18
1.672491E+03	2.648762E-17	1.200190E-18
1.712312E+03	2.692283E-17	1.215418E-18
1.752133E+03	2.720537E-17	1.223520E-18
1.791954E+03	2.730090E-17	1.223029E-18
1.831775E+03	2.716121E-17	1.211890E-18
1.871597E+03	2.672972E-17	1.187714E-18
1.911418E+03	2.597284E-17	1.149180E-18
1.951239E+03	2.487616E-17	1.095845E-18
1.991060E+03	2.349087E-17	1.030166E-18
2.030881E+03	2.197255E-17	9.591221E-19
2.070703E+03	2.059843E-17	8.948584E-19
2.110524E+03	1.968878E-17	8.511487E-19
2.150345E+03	1.951219E-17	8.392616E-19
2.190166E+03	2.017044E-17	8.630730E-19
2.229987E+03	2.159728E-17	9.191921E-19
2.269809E+03	2.359268E-17	9.986014E-19
2.309630E+03	2.592128E-17	1.090962E-18
2.349451E+03	2.837593E-17	1.187326E-18
2.389272E+03	3.080818E-17	1.281382E-18
2.429093E+03	3.312814E-17	1.369389E-18
2.468915E+03	3.529609E-17	1.449757E-18
2.508736E+03	3.728317E-17	1.521389E-18
2.548557E+03	3.909380E-17	1.584569E-18
2.588378E+03	4.073474E-17	1.639680E-18
2.628199E+03	4.220965E-17	1.686975E-18
2.668021E+03	4.354307E-17	1.727542E-18
2.707842E+03	4.473319E-17	1.761403E-18
2.747663E+03	4.579802E-17	1.789366E-18
2.787484E+03	4.674199E-17	1.811692E-18
2.827305E+03	4.758321E-17	1.829170E-18
2.867127E+03	4.834014E-17	1.842580E-18
2.906948E+03	4.901823E-17	1.852193E-18
2.946769E+03	4.965042E-17	1.859305E-18
2.986590E+03	5.025645E-17	1.864678E-18
2.996546E+03	5.040176E-17	1.865672E-18
3.006501E+03	5.055552E-17	1.866932E-18
3.016456E+03	5.070486E-17	1.867981E-18
3.026411E+03	5.085746E-17	1.869101E-18
3.036367E+03	5.101724E-17	1.870435E-18
3.046322E+03	5.118779E-17	1.872113E-18
3.056277E+03	5.137037E-17	1.874177E-18
3.066233E+03	5.157017E-17	1.876813E-18
3.076188E+03	5.177331E-17	1.879511E-18
3.086143E+03	5.198534E-17	1.882473E-18
3.096099E+03	5.221174E-17	1.885892E-18
3.106054E+03	5.244546E-17	1.889510E-18
3.116009E+03	5.268583E-17	1.893302E-18
3.125964E+03	5.293867E-17	1.897473E-18
3.135920E+03	5.319719E-17	1.901777E-18
3.145875E+03	5.346725E-17	1.906421E-18
3.155830E+03	5.374223E-17	1.911166E-18
3.165786E+03	5.403441E-17	1.916445E-18
3.175741E+03	5.433098E-17	1.921801E-18
3.185696E+03	5.463176E-17	1.927226E-18
3.195652E+03	5.494913E-17	1.933152E-18
3.205607E+03	5.527665E-17	1.939349E-18
3.215562E+03	5.561431E-17	1.945814E-18
3.225517E+03	5.596199E-17	1.952539E-18
3.235473E+03	5.632582E-17	1.959733E-18
3.245428E+03	5.669965E-17	1.967178E-18
3.255383E+03	5.708955E-17	1.975081E-18
3.265339E+03	5.748942E-17	1.983226E-18
3.275294E+03	5.791153E-17	1.992031E-18
3.285249E+03	5.834357E-17	2.001067E-18
3.295205E+03	5.879169E-17	2.010541E-18
3.305160E+03	5.925592E-17	2.020448E-18
3.315115E+03	5.974229E-17	2.030989E-18
3.325070E+03	6.024469E-17	2.041948E-18
3.335026E+03	6.076920E-17	2.053526E-18
3.344981E+03	6.130969E-17	2.065508E-18
3.354936E+03	6.187219E-17	2.078091E-18
3.364892E+03	6.245659E-17	2.091265E-18
3.374847E+03	6.306884E-17	2.105220E-18
3.384802E+03	6.370287E-17	2.119745E-18
3.394758E+03	6.435855E-17	2.134828E-18
3.404713E+03	6.504185E-17	2.150659E-18
3.414668E+03	6.574672E-17	2.167028E-18
3.424623E+03	6.648496E-17	2.184317E-18
3.434579E+03	6.725069E-17	2.202320E-18
3.444534E+03	6.804390E-17	2.221027E-18
3.454489E+03	6.886468E-17	2.240432E-18
3.464445E+03	6.972504E-17	2.260915E-18
3.474400E+03	7.061340E-17	2.282087E-18
3.484355E+03	7.153605E-17	2.304141E-18
3.494311E+03	7.249351E-17	2.327081E-18
3.504266E+03	7.348632E-17	2.350911E-18
3.514221E+03	7.452116E-17	2.375834E-18
3.524176E+03	7.559886E-17	2.401858E-18
3.534132E+03	7.671473E-17	2.428820E-18
3.544087E+03	7.788160E-17	2.457112E-18
3.554042E+03	7.908927E-17	2.486394E-18
3.563998E+03	8.035098E-17	2.517065E-18
3.573953E+03	8.166842E-17	2.549160E-18
3.583908E+03	8.303791E-17	2.582543E-18
3.593864E+03	8.446746E-17	2.617443E-18
3.603819E+03	8.595956E-17	2.653915E-18
3.613774E+03	8.751127E-17	2.691846E-18
3.623729E+03	8.914281E-17	2.731833E-18
3.633685E+03	9.084016E-17	2.773419E-18
3.643640E+03	9.261827E-17	2.817035E-18
3.653595E+03	9.448091E-17	2.862763E-18
3.663551E+03	9.642624E-17	2.910518E-18
3.673506E+03	9.846999E-17	2.960742E-18
3.683461E+03	1.006049E-16	3.013181E-18
3.693417E+03	1.028414E-16	3.068109E-18
3.703372E+03	1.051898E-16	3.125799E-18
3.713327E+03	1.076491E-16	3.186178E-18
3.723282E+03	1.102241E-16	3.249343E-18
3.733238E+03	1.129255E-16	3.315565E-18
3.743193E+03	1.157518E-16	3.384757E-18
3.753148E+03	1.187136E-16	3.457174E-18
3.763104E+03	1.218089E-16	3.532709E-18
3.773059E+03	1.250474E-16	3.611594E-18
3.783014E+03	1.284324E-16	3.693864E-18
3.792970E+03	1.319664E-16	3.779535E-18
3.802925E+03	1.356447E-16	3.868419E-18
3.812880E+03	1.394804E-16	3.960829E-18
3.822835E+03	1.434604E-16	4.056337E-18
3.832791E+03	1.475891E-16	4.155006E-18
3.842746E+03	1.518630E-16	4.256679E-18
3.852701E+03	1.562704E-16	4.360976E-18
3.862657E+03	1.608169E-16	4.467998E-18
3.872612E+03	1.654805E-16	4.577081E-18
3.882567E+03	1.702563E-16	4.688044E-18
3.892523E+03	1.751308E-16	4.800467E-18
3.902478E+03	1.800815E-16	4.913699E-18
3.912433E+03	1.850969E-16	5.027396E-18
3.922388E+03	1.901503E-16	5.140803E-18
3.932344E+03	1.952260E-16	5.253486E-18
3.942299E+03	2.002934E-16	5.364607E-18
3.952254E+03	2.053270E-16	5.473490E-18
3.962210E+03	2.103001E-16	5.579437E-18
3.972165E+03	2.151856E-16	5.681747E-18
3.982120E+03	2.199557E-16	5.779727E-18
3.992076E+03	2.245766E-16	5.872528E-18
4.002031E+03	2.290289E-16	5.959704E-18
4.011986E+03	2.332743E-16	6.040323E-18
4.021941E+03	2.373043E-16	6.114246E-18
4.031897E+03	2.410926E-16	6.180880E-18
4.041852E+03	2.446167E-16	6.239739E-18
4.051807E+03	2.478712E-16	6.290792E-18
4.061763E+03	2.508418E-16	6.333779E-18
4.071718E+03	2.535250E-16	6.368725E-18
4.081673E+03	2.559221E-16	6.395770E-18
4.091629E+03	2.580318E-16	6.414995E-18
4.101584E+03	2.598637E-16	6.426751E-18
4.111539E+03	2.614313E-16	6.431479E-18
4.121494E+03	2.627450E-16	6.429539E-18
4.131450E+03	2.638311E-16	6.421669E-18
4.141405E+03	2.647054E-16	6.408345E-18
4.151360E+03	2.653863E-16	6.390092E-18
4.161316E+03	2.659054E-16	6.367749E-18
4.171271E+03	2.662833E-16	6.341870E-18
4.181226E+03	2.665410E-16	6.313010E-18
4.191182E+03	2.667113E-16	6.281992E-18
4.201137E+03	2.668091E-16	6.249201E-18
4.211092E+03	2.668655E-16	6.215396E-18
4.221047E+03	2.668996E-16	6.181034E-18
4.231003E+03	2.669293E-16	6.146541E-18
4.240958E+03	2.669818E-16	6.112546E-18
4.250913E+03	2.670723E-16	6.079384E-18
4.260869E+03	2.672196E-16	6.047474E-18
4.270824E+03	2.674310E-16	6.016957E-18
4.280779E+03	2.677278E-16	5.988289E-18
4.290735E+03	2.681197E-16	5.961654E-18
4.300690E+03	2.686203E-16	5.937319E-18
4.310645E+03	2.692369E-16	5.915405E-18
4.320601E+03	2.699859E-16	5.896227E-18
4.330556E+03	2.708636E-16	5.879657E-18
4.340511E+03	2.718898E-16	5.866073E-18
4.350466E+03	2.730698E-16	5.855534E-18
4.360422E+03	2.744045E-16	5.848006E-18
4.370377E+03	2.759149E-16	5.843873E-18
4.380332E+03	2.776102E-16	5.843265E-18
4.390288E+03	2.795018E-16	5.846352E-18
4.400243E+03	2.816065E-16	5.853411E-18
4.410198E+03	2.839403E-16	5.864694E-18
4.420154E+03	2.865179E-16	5.880418E-18
4.430109E+03	2.893469E-16	5.900648E-18
4.440064E+03	2.924454E-16	5.925659E-18
4.450019E+03	2.958052E-16	5.955186E-18
4.459975E+03	2.994317E-16	5.989239E-18
4.469930E+03	3.033158E-16	6.027542E-18
4.479885E+03	3.074516E-16	6.069886E-18
4.489841E+03	3.118136E-16	6.115678E-18
4.499796E+03	3.163783E-16	6.164386E-18
4.509751E+03	3.211207E-16	6.215452E-18
4.519707E+03	3.259951E-16	6.267940E-18
4.529662E+03	3.309685E-16	6.321178E-18
4.539617E+03	3.359886E-16	6.374150E-18
4.549572E+03	3.409991E-16	6.425784E-18
4.559528E+03	3.459449E-16	6.475066E-18
4.569483E+03	3.507737E-16	6.521062E-18
4.579438E+03	3.554235E-16	6.562682E-18
4.589394E+03	3.598375E-16	6.598966E-18
4.599349E+03	3.639609E-16	6.629016E-18
4.609304E+03	3.677420E-16	6.652019E-18
4.619260E+03	3.711331E-16	6.667261E-18
4.629215E+03	3.740918E-16	6.674143E-18
4.639170E+03	3.765720E-16	6.672020E-18
4.649125E+03	3.785539E-16	6.660734E-18
4.659081E+03	3.800113E-16	6.640019E-18
4.669036E+03	3.809265E-16	6.609772E-18
4.678991E+03	3.813011E-16	6.570229E-18
4.688947E+03	3.811370E-16	6.521627E-18
4.698902E+03	3.804513E-16	6.464460E-18
4.708857E+03	3.792720E-16	6.399393E-18
4.718813E+03	3.776331E-16	6.327177E-18
4.728768E+03	3.755838E-16	6.248802E-18
4.738723E+03	3.731844E-16	6.165409E-18
4.748678E+03	3.705099E-16	6.078358E-18
4.758634E+03	3.676365E-16	5.988986E-18
4.768589E+03	3.646524E-16	5.898790E-18
4.778544E+03	3.616543E-16	5.809365E-18
4.788500E+03	3.587330E-16	5.722163E-18
4.798455E+03	3.559889E-16	5.638750E-18
4.808410E+03	3.535194E-16	5.560602E-18
4.818366E+03	3.514081E-16	5.488930E-18
4.828321E+03	3.497384E-16	5.424903E-18
4.838276E+03	3.485873E-16	5.369556E-18
4.848231E+03	3.480069E-16	5.323511E-18
4.858187E+03	3.480426E-16	5.287270E-18
4.868142E+03	3.487207E-16	5.261033E-18
4.878097E+03	3.500592E-16	5.244863E-18
4.888053E+03	3.520421E-16	5.238320E-18
4.898008E+03	3.546518E-16	5.240947E-18
4.907963E+03	3.578488E-16	5.251973E-18
4.917919E+03	3.615663E-16	5.270255E-18
4.927874E+03	3.657231E-16	5.294468E-18
4.937829E+03	3.702282E-16	5.323178E-18
4.947784E+03	3.749603E-16	5.354562E-18
4.957740E+03	3.797924E-16	5.386761E-18
4.967695E+03	3.845846E-16	5.417786E-18
4.977650E+03	3.891939E-16	5.445657E-18
4.987606E+03	3.934838E-16	5.468540E-18
4.997561E+03	3.973424E-16	5.484989E-18
5.007516E+03	4.006849E-16	5.493973E-18
5.017472E+03	4.034613E-16	5.494961E-18
5.027427E+03	4.056588E-16	5.487941E-18
5.037382E+03	4.073029E-16	5.473422E-18
5.047337E+03	4.084564E-16	5.452394E-18
5.057293E+03	4.092010E-16	5.426076E-18
5.067248E+03	4.096305E-16	5.395816E-18
5.077203E+03	4.098559E-16	5.363150E-18
5.087159E+03	4.099814E-16	5.329490E-18
5.097114E+03	4.101020E-16	5.296089E-18
5.107069E+03	4.103004E-16	5.264013E-18
5.117025E+03	4.106450E-16	5.234117E-18
5.126980E+03	4.111921E-16	5.207080E-18
5.136935E+03	4.119702E-16	5.183217E-18
5.146890E+03	4.130181E-16	5.162962E-18
5.156846E+03	4.143373E-16	5.146274E-18
5.166801E+03	4.159431E-16	5.133286E-18
5.176756E+03	4.178363E-16	5.123949E-18
5.186712E+03	4.200091E-16	5.118111E-18
5.196667E+03	4.224547E-16	5.115638E-18
5.206622E+03	4.251671E-16	5.116408E-18
5.216578E+03	4.281278E-16	5.120154E-18
5.226533E+03	4.313232E-16	5.126676E-18
5.236488E+03	4.347300E-16	5.135664E-18
5.246443E+03	4.383098E-16	5.146640E-18
5.256399E+03	4.420408E-16	5.159332E-18
5.266354E+03	4.458711E-16	5.173129E-18
5.276309E+03	4.497512E-16	5.187461E-18
5.286265E+03	4.536257E-16	5.201707E-18
5.296220E+03	4.574414E-16	5.215284E-18
5.306175E+03	4.611395E-16	5.227563E-18
5.316131E+03	4.646532E-16	5.237839E-18
5.326086E+03	4.679392E-16	5.245686E-18
5.336041E+03	4.709465E-16	5.250605E-18
5.345996E+03	4.736371E-16	5.252250E-18
5.355952E+03	4.759882E-16	5.250450E-18
5.365907E+03	4.779782E-16	5.245050E-18
5.375862E+03	4.795964E-16	5.236020E-18
5.385818E+03	4.808570E-16	5.223598E-18
5.395773E+03	4.817688E-16	5.207956E-18
5.405728E+03	4.823524E-16	5.189392E-18
5.415684E+03	4.826328E-16	5.168241E-18
5.425639E+03	4.826360E-16	5.144844E-18
5.435594E+03	4.823845E-16	5.119494E-18
5.445549E+03	4.818920E-16	5.092387E-18
5.455505E+03	4.811612E-16	5.063597E-18
5.465460E+03	4.801546E-16	5.032774E-18
5.475415E+03	4.788098E-16	4.999307E-18
5.485371E+03	4.770026E-16	4.961928E-18
5.495326E+03	4.745731E-16	4.919001E-18
5.505281E+03	4.713749E-16	4.869050E-18
5.515237E+03	4.672907E-16	4.810912E-18
5.525192E+03	4.622362E-16	4.743773E-18
5.535147E+03	4.561835E-16	4.667398E-18
5.545102E+03	4.491563E-16	4.582075E-18
5.555058E+03	4.412439E-16	4.488752E-18
5.565013E+03	4.325822E-16	4.388831E-18
5.574968E+03	4.233467E-16	4.284097E-18
5.584924E+03	4.137500E-16	4.176688E-18
5.594879E+03	4.040295E-16	4.068970E-18
5.604834E+03	3.944267E-16	3.963327E-18
5.614790E+03	3.851871E-16	3.862166E-18
5.624745E+03	3.765498E-16	3.767810E-18
5.634700E+03	3.687265E-16	3.682296E-18
5.644655E+03	3.619237E-16	3.607596E-18
5.654611E+03	3.563097E-16	3.545295E-18
5.664566E+03	3.520426E-16	3.496874E-18
5.674521E+03	3.492445E-16	3.463450E-18
5.684477E+03	3.480260E-16	3.446030E-18
5.694432E+03	3.484696E-16	3.445341E-18
5.704387E+03	3.506479E-16	3.462019E-18
5.714343E+03	3.546150E-16	3.496518E-18
5.724298E+03	3.604062E-16	3.549117E-18
5.734253E+03	3.680438E-16	3.619966E-18
5.744209E+03	3.775337E-16	3.709064E-18
5.754164E+03	3.888437E-16	3.816042E-18
5.764119E+03	4.019241E-16	3.940367E-18
5.774074E+03	4.166712E-16	4.080985E-18
5.784030E+03	4.329383E-16	4.236432E-18
5.793985E+03	4.505306E-16	4.404780E-18
5.803940E+03	4.691646E-16	4.583251E-18
5.813896E+03	4.885033E-16	4.768555E-18
5.823851E+03	5.081294E-16	4.956629E-18
5.833806E+03	5.275769E-16	5.142952E-18
5.843762E+03	5.463636E-16	5.322856E-18
5.853717E+03	5.639975E-16	5.491590E-18
5.863672E+03	5.800014E-16	5.644553E-18
5.873627E+03	5.939549E-16	5.777704E-18
5.883583E+03	6.055059E-16	5.887672E-18
5.893538E+03	6.143857E-16	5.971893E-18
5.903493E+03	6.204423E-16	6.028935E-18
5.913449E+03	6.236191E-16	6.058291E-18
5.923404E+03	6.239755E-16	6.060569E-18
5.933359E+03	6.216524E-16	6.037162E-18
5.943315E+03	6.168910E-16	5.990431E-18
5.953270E+03	6.099819E-16	5.923205E-18
5.963225E+03	6.012737E-16	5.838869E-18
5.973180E+03	5.911258E-16	5.740911E-18
5.983136E+03	5.799053E-16	5.632882E-18
5.993091E+03	5.679675E-16	5.518223E-18
6.003046E+03	5.556478E-16	5.400181E-18
6.013002E+03	5.432303E-16	5.281500E-18
6.022957E+03	5.309743E-16	5.164692E-18
6.032912E+03	5.190926E-16	5.051816E-18
6.042868E+03	5.077565E-16	4.944536E-18
6.052823E+03	4.970983E-16	4.844137E-18
6.062778E+03	4.872254E-16	4.751671E-18
6.072733E+03	4.781975E-16	4.667728E-18
6.082689E+03	4.700687E-16	4.592852E-18
6.092644E+03	4.628632E-16	4.527297E-18
6.102599E+03	4.565932E-16	4.471207E-18
6.112555E+03	4.512478E-16	4.424505E-18
6.122510E+03	4.468132E-16	4.387089E-18
6.132465E+03	4.432653E-16	4.358762E-18
6.142421E+03	4.405536E-16	4.339068E-18
6.152376E+03	4.386370E-16	4.327649E-18
6.162331E+03	4.374542E-16	4.323950E-18
6.172286E+03	4.369496E-16	4.327469E-18
6.182242E+03	4.370642E-16	4.337676E-18
6.192197E+03	4.377180E-16	4.353822E-18
6.202152E+03	4.388261E-16	4.375088E-18
6.212108E+03	4.402972E-16	4.400578E-18
6.222063E+03	4.420391E-16	4.429380E-18
6.232018E+03	4.439524E-16	4.460503E-18
6.241974E+03	4.459565E-16	4.493134E-18
6.251929E+03	4.479580E-16	4.526325E-18
6.261884E+03	4.498783E-16	4.559264E-18
6.271839E+03	4.516523E-16	4.591267E-18
6.281795E+03	4.532165E-16	4.621661E-18
6.291750E+03	4.545256E-16	4.649941E-18
6.301705E+03	4.555468E-16	4.675733E-18
6.311661E+03	4.562659E-16	4.698842E-18
6.321616E+03	4.566729E-16	4.719114E-18
6.331571E+03	4.567786E-16	4.736613E-18
6.341527E+03	4.565990E-16	4.751451E-18
6.351482E+03	4.561580E-16	4.763827E-18
6.361437E+03	4.554845E-16	4.773997E-18
6.371392E+03	4.546134E-16	4.782281E-18
6.381348E+03	4.535696E-16	4.788899E-18
6.391303E+03	4.523803E-16	4.794102E-18
6.401258E+03	4.510793E-16	4.798212E-18
6.411214E+03	4.496831E-16	4.801373E-18
6.421169E+03	4.482149E-16	4.803806E-18
6.431124E+03	4.466885E-16	4.805632E-18
6.441080E+03	4.451375E-16	4.807190E-18
6.451035E+03	4.435863E-16	4.808722E-18
6.460990E+03	4.420639E-16	4.810519E-18
6.470945E+03	4.406305E-16	4.813217E-18
6.480901E+03	4.393291E-16	4.817276E-18
6.490856E+03	4.382332E-16	4.823499E-18
6.500811E+03	4.374041E-16	4.832565E-18
6.510767E+03	4.369212E-16	4.845369E-18
6.520722E+03	4.368386E-16	4.862531E-18
6.530677E+03	4.371990E-16	4.884560E-18
6.540633E+03	4.380005E-16	4.911468E-18
6.550588E+03	4.392376E-16	4.943228E-18
6.560543E+03	4.408585E-16	4.979286E-18
6.570498E+03	4.427911E-16	5.018850E-18
6.580454E+03	4.449519E-16	5.060987E-18
6.590409E+03	4.472236E-16	5.104365E-18
6.600364E+03	4.494831E-16	5.147565E-18
6.610320E+03	4.515907E-16	5.188962E-18
6.620275E+03	4.534043E-16	5.226877E-18
6.630230E+03	4.547789E-16	5.259579E-18
6.640186E+03	4.555848E-16	5.285498E-18
6.650141E+03	4.557235E-16	5.303407E-18
6.660096E+03	4.551160E-16	5.312297E-18
6.670051E+03	4.537211E-16	5.311592E-18
6.680007E+03	4.515430E-16	5.301249E-18
6.689962E+03	4.486022E-16	5.281421E-18
6.699917E+03	4.449502E-16	5.252636E-18
6.709873E+03	4.406613E-16	5.215701E-18
6.719828E+03	4.358324E-16	5.171704E-18
6.729783E+03	4.305685E-16	5.121847E-18
6.739739E+03	4.249799E-16	5.067409E-18
6.749694E+03	4.191926E-16	5.009875E-18
6.759649E+03	4.133265E-16	4.950670E-18
6.769604E+03	4.075169E-16	4.891420E-18
6.779560E+03	4.018829E-16	4.833570E-18
6.789515E+03	3.965398E-16	4.778532E-18
6.799470E+03	3.916114E-16	4.727827E-18
6.809426E+03	3.871997E-16	4.682726E-18
6.819381E+03	3.834014E-16	4.644440E-18
6.829336E+03	3.803020E-16	4.614049E-18
6.839292E+03	3.779765E-16	4.592507E-18
6.849247E+03	3.764898E-16	4.580647E-18
6.859202E+03	3.759017E-16	4.579236E-18
6.869157E+03	3.762539E-16	4.588822E-18
6.879113E+03	3.775821E-16	4.609872E-18
6.889068E+03	3.799100E-16	4.642705E-18
6.899023E+03	3.832451E-16	4.687431E-18
6.908979E+03	3.875695E-16	4.743848E-18
6.918934E+03	3.928329E-16	4.811344E-18
6.928889E+03	3.989533E-16	4.888912E-18
6.938845E+03	4.058191E-16	4.975172E-18
6.948800E+03	4.132934E-16	5.068427E-18
6.958755E+03	4.211940E-16	5.166415E-18
6.968710E+03	4.293492E-16	5.267001E-18
6.978666E+03	4.375492E-16	5.367573E-18
6.988621E+03	4.455959E-16	5.465667E-18
6.998576E+03	4.532958E-16	5.558876E-18
7.008532E+03	4.604723E-16	5.645005E-18
7.018487E+03	4.669836E-16	5.722289E-18
7.028442E+03	4.727243E-16	5.789421E-18
7.038398E+03	4.776326E-16	5.845636E-18
7.048353E+03	4.816899E-16	5.890705E-18
7.058308E+03	4.849191E-16	5.924914E-18
7.068263E+03	4.873835E-16	5.949050E-18
7.078219E+03	4.891688E-16	5.964174E-18
7.088174E+03	4.904180E-16	5.972050E-18
7.098129E+03	4.912608E-16	5.974273E-18
7.108085E+03	4.918623E-16	5.972866E-18
7.118040E+03	4.923751E-16	5.969691E-18
7.127995E+03	4.929604E-16	5.966704E-18
7.137951E+03	4.937330E-16	5.965286E-18
7.147906E+03	4.948063E-16	5.966791E-18
7.157861E+03	4.962629E-16	5.972191E-18
7.167817E+03	4.981271E-16	5.981748E-18
7.177772E+03	5.004226E-16	5.995709E-18
7.187727E+03	5.030955E-16	6.013390E-18
7.197682E+03	5.060802E-16	6.033969E-18
7.207638E+03	5.092686E-16	6.056126E-18
7.217593E+03	5.125384E-16	6.078385E-18
7.227548E+03	5.157281E-16	6.098822E-18
7.237504E+03	5.186890E-16	6.115683E-18
7.247459E+03	5.212349E-16	6.126801E-18
7.257414E+03	5.232126E-16	6.130422E-18
7.267370E+03	5.244591E-16	6.124707E-18
7.277325E+03	5.248360E-16	6.108134E-18
7.287280E+03	5.242154E-16	6.079332E-18
7.297235E+03	5.225264E-16	6.037614E-18
7.307191E+03	5.197164E-16	5.982528E-18
7.317146E+03	5.157782E-16	5.914156E-18
7.327101E+03	5.107395E-16	5.832992E-18
7.337057E+03	5.046770E-16	5.740085E-18
7.347012E+03	4.977082E-16	5.636941E-18
7.356967E+03	4.899639E-16	5.525202E-18
7.366923E+03	4.816018E-16	5.406787E-18
7.376878E+03	4.727899E-16	5.283705E-18
7.386833E+03	4.636991E-16	5.157966E-18
7.396788E+03	4.544974E-16	5.031511E-18
7.406744E+03	4.453426E-16	4.906138E-18
7.416699E+03	4.363764E-16	4.783430E-18
7.426654E+03	4.277205E-16	4.664722E-18
7.436610E+03	4.194760E-16	4.551096E-18
7.446565E+03	4.117232E-16	4.443382E-18
7.456520E+03	4.045218E-16	4.342172E-18
7.466476E+03	3.979131E-16	4.247838E-18
7.476431E+03	3.919158E-16	4.160509E-18
7.486386E+03	3.865479E-16	4.080290E-18
7.496341E+03	3.817930E-16	4.006924E-18
7.506297E+03	3.776413E-16	3.940216E-18
7.516252E+03	3.740556E-16	3.879688E-18
7.526207E+03	3.709923E-16	3.824799E-18
7.536163E+03	3.684003E-16	3.774946E-18
7.546118E+03	3.662082E-16	3.729326E-18
7.556073E+03	3.643492E-16	3.687203E-18
7.566029E+03	3.627552E-16	3.647842E-18
7.575984E+03	3.613693E-16	3.610642E-18
7.585939E+03	3.601580E-16	3.575245E-18
7.595894E+03	3.591184E-16	3.541605E-18
7.605850E+03	3.582748E-16	3.509943E-18
7.615805E+03	3.576519E-16	3.480479E-18
7.625760E+03	3.572854E-16	3.453535E-18
7.635716E+03	3.571980E-16	3.429296E-18
7.645671E+03	3.574194E-16	3.408011E-18
7.655626E+03	3.579513E-16	3.389659E-18
7.665582E+03	3.587979E-16	3.374241E-18
7.675537E+03	3.599515E-16	3.361646E-18
7.685492E+03	3.613782E-16	3.351529E-18
7.695447E+03	3.630515E-16	3.343619E-18
7.705403E+03	3.649202E-16	3.337431E-18
7.715358E+03	3.669300E-16	3.332466E-18
7.725313E+03	3.690203E-16	3.328186E-18
