#wls	flux	fluxerr
1.592848E+03	2.191452E-17	9.507140E-19
1.632669E+03	2.251417E-17	9.735754E-19
1.672491E+03	2.300815E-17	9.916293E-19
1.712312E+03	2.338035E-17	1.004222E-18
1.752133E+03	2.362473E-17	1.011142E-18
1.791954E+03	2.369804E-17	1.010600E-18
1.831775E+03	2.356802E-17	1.001300E-18
1.871597E+03	2.319039E-17	9.814660E-19
1.911418E+03	2.252314E-17	9.494511E-19
1.951239E+03	2.155934E-17	9.051165E-19
1.991060E+03	2.034844E-17	8.506927E-19
2.030881E+03	1.902557E-17	7.919498E-19
2.070703E+03	1.782059E-17	7.384899E-19
2.110524E+03	1.702170E-17	7.021511E-19
2.150345E+03	1.685386E-17	6.919467E-19
2.190166E+03	1.740695E-17	7.111818E-19
2.229987E+03	1.861929E-17	7.569077E-19
2.269809E+03	2.032056E-17	8.218123E-19
2.309630E+03	2.230397E-17	8.972412E-19
2.349451E+03	2.440011E-17	9.762037E-19
2.389272E+03	2.648426E-17	1.053627E-18
2.429093E+03	2.847226E-17	1.126156E-18
2.468915E+03	3.034265E-17	1.192978E-18
2.508736E+03	3.207362E-17	1.253289E-18
2.548557E+03	3.367229E-17	1.307435E-18
2.588378E+03	3.514742E-17	1.355822E-18
2.628199E+03	3.651629E-17	1.399176E-18
2.668021E+03	3.779106E-17	1.438015E-18
2.707842E+03	3.898961E-17	1.473063E-18
2.747663E+03	4.011657E-17	1.504529E-18
2.787484E+03	4.119450E-17	1.533288E-18
2.827305E+03	4.223905E-17	1.559935E-18
2.867127E+03	4.325889E-17	1.584794E-18
2.906948E+03	4.427477E-17	1.608616E-18
2.946769E+03	4.530689E-17	1.632110E-18
2.986590E+03	4.636851E-17	1.655708E-18
2.996546E+03	4.664182E-17	1.661735E-18
3.006501E+03	4.691787E-17	1.667796E-18
3.016456E+03	4.720303E-17	1.674116E-18
3.026411E+03	4.748564E-17	1.680279E-18
3.036367E+03	4.778192E-17	1.686858E-18
3.046322E+03	4.808884E-17	1.693742E-18
3.056277E+03	4.841379E-17	1.701189E-18
3.066233E+03	4.874933E-17	1.708932E-18
3.076188E+03	4.909438E-17	1.716931E-18
3.086143E+03	4.945428E-17	1.725369E-18
3.096099E+03	4.982812E-17	1.734210E-18
3.106054E+03	5.020886E-17	1.743206E-18
3.116009E+03	5.060205E-17	1.752546E-18
3.125964E+03	5.100075E-17	1.761987E-18
3.135920E+03	5.141690E-17	1.771938E-18
3.145875E+03	5.183745E-17	1.781946E-18
3.155830E+03	5.226815E-17	1.792206E-18
3.165786E+03	5.270859E-17	1.802701E-18
3.175741E+03	5.316459E-17	1.813626E-18
3.185696E+03	5.362335E-17	1.824541E-18
3.195652E+03	5.409698E-17	1.835855E-18
3.205607E+03	5.457898E-17	1.847344E-18
3.215562E+03	5.506906E-17	1.858995E-18
3.225517E+03	5.557328E-17	1.871009E-18
3.235473E+03	5.608517E-17	1.883165E-18
3.245428E+03	5.661078E-17	1.895661E-18
3.255383E+03	5.714989E-17	1.908487E-18
3.265339E+03	5.769622E-17	1.921429E-18
3.275294E+03	5.826199E-17	1.934889E-18
3.285249E+03	5.883475E-17	1.948449E-18
3.295205E+03	5.942057E-17	1.962307E-18
3.305160E+03	6.002553E-17	1.976659E-18
3.315115E+03	6.064340E-17	1.991293E-18
3.325070E+03	6.127417E-17	2.006205E-18
3.335026E+03	6.192395E-17	2.021590E-18
3.344981E+03	6.259270E-17	2.037439E-18
3.354936E+03	6.327432E-17	2.053550E-18
3.364892E+03	6.397496E-17	2.070115E-18
3.374847E+03	6.469471E-17	2.087131E-18
3.384802E+03	6.543366E-17	2.104596E-18
3.394758E+03	6.619186E-17	2.122502E-18
3.404713E+03	6.697562E-17	2.141047E-18
3.414668E+03	6.777903E-17	2.160031E-18
3.424623E+03	6.860232E-17	2.179456E-18
3.434579E+03	6.945784E-17	2.199707E-18
3.444534E+03	7.033388E-17	2.220401E-18
3.454489E+03	7.123685E-17	2.241734E-18
3.464445E+03	7.217314E-17	2.263896E-18
3.474400E+03	7.313725E-17	2.286704E-18
3.484355E+03	7.412983E-17	2.310169E-18
3.494311E+03	7.515151E-17	2.334300E-18
3.504266E+03	7.621488E-17	2.359476E-18
3.514221E+03	7.730889E-17	2.385341E-18
3.524176E+03	7.844031E-17	2.412094E-18
3.534132E+03	7.961601E-17	2.439931E-18
3.544087E+03	8.083115E-17	2.468688E-18
3.554042E+03	8.208687E-17	2.498388E-18
3.563998E+03	8.339019E-17	2.529226E-18
3.573953E+03	8.474244E-17	2.561228E-18
3.583908E+03	8.614485E-17	2.594412E-18
3.593864E+03	8.759887E-17	2.628804E-18
3.603819E+03	8.911167E-17	2.664599E-18
3.613774E+03	9.067887E-17	2.701647E-18
3.623729E+03	9.230195E-17	2.739970E-18
3.633685E+03	9.399404E-17	2.779937E-18
3.643640E+03	9.574498E-17	2.821223E-18
3.653595E+03	9.756206E-17	2.864022E-18
3.663551E+03	9.945265E-17	2.908523E-18
3.673506E+03	1.014181E-16	2.954738E-18
3.683461E+03	1.034539E-16	3.002512E-18
3.693417E+03	1.055672E-16	3.052021E-18
3.703372E+03	1.077591E-16	3.103269E-18
3.713327E+03	1.100305E-16	3.156255E-18
3.723282E+03	1.123822E-16	3.210967E-18
3.733238E+03	1.148205E-16	3.267557E-18
3.743193E+03	1.173456E-16	3.326000E-18
3.753148E+03	1.199516E-16	3.386090E-18
3.763104E+03	1.226497E-16	3.448113E-18
3.773059E+03	1.254271E-16	3.511678E-18
3.783014E+03	1.282942E-16	3.577042E-18
3.792970E+03	1.312433E-16	3.643952E-18
3.802925E+03	1.342776E-16	3.712471E-18
3.812880E+03	1.373941E-16	3.782477E-18
3.822835E+03	1.405829E-16	3.853668E-18
3.832791E+03	1.438456E-16	3.926054E-18
3.842746E+03	1.471828E-16	3.999627E-18
3.852701E+03	1.505827E-16	4.074031E-18
3.862657E+03	1.540383E-16	4.149056E-18
3.872612E+03	1.575423E-16	4.224477E-18
3.882567E+03	1.610924E-16	4.300211E-18
3.892523E+03	1.646736E-16	4.375840E-18
3.902478E+03	1.682884E-16	4.451415E-18
3.912433E+03	1.719144E-16	4.526327E-18
3.922388E+03	1.755408E-16	4.600286E-18
3.932344E+03	1.791686E-16	4.673312E-18
3.942299E+03	1.827740E-16	4.744784E-18
3.952254E+03	1.863515E-16	4.814562E-18
3.962210E+03	1.898893E-16	4.882349E-18
3.972165E+03	1.933757E-16	4.947857E-18
3.982120E+03	1.967992E-16	5.010808E-18
3.992076E+03	2.001490E-16	5.070946E-18
4.002031E+03	2.034084E-16	5.127878E-18
4.011986E+03	2.065740E-16	5.181547E-18
4.021941E+03	2.096311E-16	5.231617E-18
4.031897E+03	2.125780E-16	5.278087E-18
4.041852E+03	2.154024E-16	5.320688E-18
4.051807E+03	2.180992E-16	5.359343E-18
4.061763E+03	2.206648E-16	5.394007E-18
4.071718E+03	2.230970E-16	5.424677E-18
4.081673E+03	2.253896E-16	5.451249E-18
4.091629E+03	2.275434E-16	5.473800E-18
4.101584E+03	2.295612E-16	5.492445E-18
4.111539E+03	2.314470E-16	5.507331E-18
4.121494E+03	2.331954E-16	5.518382E-18
4.131450E+03	2.348245E-16	5.526076E-18
4.141405E+03	2.363263E-16	5.530274E-18
4.151360E+03	2.377214E-16	5.531500E-18
4.161316E+03	2.390097E-16	5.529799E-18
4.171271E+03	2.401980E-16	5.525364E-18
4.181226E+03	2.413039E-16	5.518642E-18
4.191182E+03	2.423307E-16	5.509738E-18
4.201137E+03	2.432923E-16	5.498998E-18
4.211092E+03	2.442029E-16	5.486768E-18
4.221047E+03	2.450674E-16	5.473180E-18
4.231003E+03	2.458961E-16	5.458478E-18
4.240958E+03	2.467085E-16	5.443111E-18
4.250913E+03	2.475103E-16	5.427209E-18
4.260869E+03	2.483116E-16	5.410996E-18
4.270824E+03	2.491226E-16	5.394695E-18
4.280779E+03	2.499576E-16	5.378612E-18
4.290735E+03	2.508262E-16	5.362941E-18
4.300690E+03	2.517331E-16	5.347768E-18
4.310645E+03	2.526872E-16	5.333268E-18
4.320601E+03	2.537053E-16	5.319775E-18
4.330556E+03	2.547864E-16	5.307241E-18
4.340511E+03	2.559419E-16	5.295875E-18
4.350466E+03	2.571735E-16	5.285686E-18
4.360422E+03	2.584904E-16	5.276830E-18
4.370377E+03	2.598965E-16	5.269348E-18
4.380332E+03	2.613898E-16	5.263167E-18
4.390288E+03	2.629669E-16	5.258183E-18
4.400243E+03	2.646349E-16	5.254501E-18
4.410198E+03	2.663834E-16	5.251880E-18
4.420154E+03	2.682126E-16	5.250293E-18
4.430109E+03	2.701133E-16	5.249526E-18
4.440064E+03	2.720830E-16	5.249502E-18
4.450019E+03	2.741174E-16	5.250113E-18
4.459975E+03	2.762150E-16	5.251302E-18
4.469930E+03	2.783609E-16	5.252763E-18
4.479885E+03	2.805545E-16	5.254467E-18
4.489841E+03	2.827821E-16	5.256140E-18
4.499796E+03	2.850366E-16	5.257639E-18
4.509751E+03	2.873019E-16	5.258659E-18
4.519707E+03	2.895686E-16	5.259027E-18
4.529662E+03	2.918226E-16	5.258492E-18
4.539617E+03	2.940451E-16	5.256725E-18
4.549572E+03	2.962286E-16	5.253609E-18
4.559528E+03	2.983538E-16	5.248824E-18
4.569483E+03	3.004087E-16	5.242191E-18
4.579438E+03	3.023784E-16	5.233482E-18
4.589394E+03	3.042558E-16	5.222619E-18
4.599349E+03	3.060194E-16	5.209275E-18
4.609304E+03	3.076641E-16	5.193421E-18
4.619260E+03	3.091826E-16	5.174988E-18
4.629215E+03	3.105613E-16	5.153809E-18
4.639170E+03	3.118043E-16	5.130013E-18
4.649125E+03	3.128979E-16	5.103445E-18
4.659081E+03	3.138506E-16	5.074308E-18
4.669036E+03	3.146616E-16	5.042655E-18
4.678991E+03	3.153327E-16	5.008579E-18
4.688947E+03	3.158762E-16	4.972342E-18
4.698902E+03	3.163036E-16	4.934181E-18
4.708857E+03	3.166216E-16	4.894256E-18
4.718813E+03	3.168556E-16	4.853007E-18
4.728768E+03	3.170225E-16	4.810734E-18
4.738723E+03	3.171425E-16	4.767773E-18
4.748678E+03	3.172420E-16	4.724546E-18
4.758634E+03	3.173457E-16	4.681431E-18
4.768589E+03	3.174762E-16	4.638763E-18
4.778544E+03	3.176552E-16	4.596853E-18
4.788500E+03	3.178883E-16	4.555766E-18
4.798455E+03	3.181926E-16	4.515729E-18
4.808410E+03	3.185779E-16	4.476860E-18
4.818366E+03	3.190654E-16	4.439422E-18
4.828321E+03	3.196605E-16	4.403452E-18
4.838276E+03	3.203787E-16	4.369118E-18
4.848231E+03	3.212260E-16	4.336456E-18
4.858187E+03	3.222176E-16	4.305616E-18
4.868142E+03	3.233509E-16	4.276510E-18
4.878097E+03	3.246353E-16	4.249208E-18
4.888053E+03	3.260623E-16	4.223543E-18
4.898008E+03	3.276352E-16	4.199505E-18
4.907963E+03	3.293432E-16	4.176904E-18
4.917919E+03	3.311802E-16	4.155615E-18
4.927874E+03	3.331299E-16	4.135392E-18
4.937829E+03	3.351816E-16	4.116065E-18
4.947784E+03	3.373155E-16	4.097362E-18
4.957740E+03	3.395218E-16	4.079142E-18
4.967695E+03	3.417752E-16	4.061084E-18
4.977650E+03	3.440618E-16	4.043019E-18
4.987606E+03	3.463683E-16	4.024789E-18
4.997561E+03	3.486749E-16	4.006173E-18
5.007516E+03	3.509676E-16	3.987022E-18
5.017472E+03	3.532340E-16	3.967218E-18
5.027427E+03	3.554684E-16	3.946720E-18
5.037382E+03	3.576635E-16	3.925476E-18
5.047337E+03	3.598106E-16	3.903424E-18
5.057293E+03	3.619115E-16	3.880615E-18
5.067248E+03	3.639620E-16	3.857042E-18
5.077203E+03	3.659680E-16	3.832802E-18
5.087159E+03	3.679331E-16	3.807970E-18
5.097114E+03	3.698619E-16	3.782627E-18
5.107069E+03	3.717598E-16	3.756861E-18
5.117025E+03	3.736283E-16	3.730722E-18
5.126980E+03	3.754771E-16	3.704338E-18
5.136935E+03	3.773150E-16	3.677827E-18
5.146890E+03	3.791383E-16	3.651181E-18
5.156846E+03	3.809540E-16	3.624500E-18
5.166801E+03	3.827598E-16	3.597793E-18
5.176756E+03	3.845642E-16	3.571171E-18
5.186712E+03	3.863619E-16	3.544615E-18
5.196667E+03	3.881460E-16	3.518098E-18
5.206622E+03	3.899202E-16	3.491692E-18
5.216578E+03	3.916703E-16	3.465308E-18
5.226533E+03	3.933932E-16	3.438963E-18
5.236488E+03	3.950801E-16	3.412627E-18
5.246443E+03	3.967212E-16	3.386266E-18
5.256399E+03	3.983015E-16	3.359809E-18
5.266354E+03	3.998137E-16	3.333253E-18
5.276309E+03	4.012456E-16	3.306561E-18
5.286265E+03	4.025850E-16	3.279699E-18
5.296220E+03	4.038154E-16	3.252604E-18
5.306175E+03	4.049249E-16	3.225255E-18
5.316131E+03	4.059061E-16	3.197672E-18
5.326086E+03	4.067484E-16	3.169850E-18
5.336041E+03	4.074335E-16	3.141727E-18
5.345996E+03	4.079610E-16	3.113382E-18
5.355952E+03	4.083235E-16	3.084841E-18
5.365907E+03	4.085061E-16	3.056070E-18
5.375862E+03	4.085118E-16	3.027174E-18
5.385818E+03	4.083280E-16	2.998133E-18
5.395773E+03	4.079595E-16	2.969059E-18
5.405728E+03	4.073990E-16	2.939966E-18
5.415684E+03	4.066394E-16	2.910871E-18
5.425639E+03	4.056857E-16	2.881870E-18
5.435594E+03	4.045263E-16	2.852936E-18
5.445549E+03	4.031610E-16	2.824117E-18
5.455505E+03	4.015851E-16	2.795427E-18
5.465460E+03	3.997902E-16	2.766842E-18
5.475415E+03	3.977825E-16	2.738420E-18
5.485371E+03	3.955779E-16	2.710238E-18
5.495326E+03	3.932011E-16	2.682412E-18
5.505281E+03	3.906773E-16	2.655058E-18
5.515237E+03	3.880369E-16	2.628318E-18
5.525192E+03	3.853082E-16	2.602316E-18
5.535147E+03	3.825177E-16	2.577159E-18
5.545102E+03	3.796981E-16	2.552994E-18
5.555058E+03	3.768928E-16	2.530035E-18
5.565013E+03	3.741361E-16	2.508438E-18
5.574968E+03	3.714688E-16	2.488400E-18
5.584924E+03	3.689302E-16	2.470111E-18
5.594879E+03	3.665718E-16	2.453845E-18
5.604834E+03	3.644352E-16	2.439812E-18
5.614790E+03	3.625654E-16	2.428253E-18
5.624745E+03	3.610066E-16	2.419404E-18
5.634700E+03	3.598051E-16	2.413523E-18
5.644655E+03	3.589936E-16	2.410783E-18
5.654611E+03	3.586123E-16	2.411414E-18
5.664566E+03	3.586940E-16	2.415599E-18
5.674521E+03	3.592663E-16	2.423496E-18
5.684477E+03	3.603479E-16	2.435207E-18
5.694432E+03	3.619620E-16	2.450868E-18
5.704387E+03	3.641108E-16	2.470481E-18
5.714343E+03	3.667999E-16	2.494072E-18
5.724298E+03	3.700198E-16	2.521565E-18
5.734253E+03	3.737598E-16	2.552883E-18
5.744209E+03	3.779929E-16	2.587834E-18
5.754164E+03	3.826868E-16	2.626191E-18
5.764119E+03	3.878033E-16	2.667687E-18
5.774074E+03	3.932838E-16	2.711908E-18
5.784030E+03	3.990753E-16	2.758481E-18
5.793985E+03	4.051011E-16	2.806860E-18
5.803940E+03	4.112880E-16	2.856524E-18
5.813896E+03	4.175485E-16	2.906843E-18
5.823851E+03	4.237980E-16	2.957204E-18
5.833806E+03	4.299405E-16	3.006909E-18
5.843762E+03	4.358833E-16	3.055279E-18
5.853717E+03	4.415350E-16	3.101637E-18
5.863672E+03	4.468086E-16	3.145335E-18
5.873627E+03	4.516190E-16	3.185734E-18
5.883583E+03	4.558993E-16	3.222320E-18
5.893538E+03	4.595848E-16	3.254597E-18
5.903493E+03	4.626284E-16	3.282189E-18
5.913449E+03	4.649974E-16	3.304825E-18
5.923404E+03	4.666698E-16	3.322314E-18
5.933359E+03	4.676478E-16	3.334639E-18
5.943315E+03	4.679397E-16	3.341828E-18
5.953270E+03	4.675767E-16	3.344082E-18
5.963225E+03	4.665892E-16	3.341598E-18
5.973180E+03	4.650321E-16	3.334753E-18
5.983136E+03	4.629597E-16	3.323929E-18
5.993091E+03	4.604424E-16	3.309626E-18
6.003046E+03	4.575415E-16	3.292284E-18
6.013002E+03	4.543386E-16	3.272494E-18
6.022957E+03	4.508978E-16	3.250725E-18
6.032912E+03	4.472910E-16	3.227507E-18
6.042868E+03	4.435914E-16	3.203382E-18
6.052823E+03	4.398553E-16	3.178773E-18
6.062778E+03	4.361467E-16	3.154161E-18
6.072733E+03	4.325158E-16	3.129927E-18
6.082689E+03	4.290146E-16	3.106471E-18
6.092644E+03	4.256806E-16	3.084086E-18
6.102599E+03	4.225450E-16	3.063021E-18
6.112555E+03	4.196408E-16	3.043539E-18
6.122510E+03	4.169908E-16	3.025831E-18
6.132465E+03	4.146083E-16	3.010015E-18
6.142421E+03	4.125090E-16	2.996235E-18
6.152376E+03	4.107042E-16	2.984596E-18
6.162331E+03	4.091931E-16	2.975119E-18
6.172286E+03	4.079754E-16	2.967830E-18
6.182242E+03	4.070442E-16	2.962706E-18
6.192197E+03	4.063986E-16	2.959771E-18
6.202152E+03	4.060359E-16	2.959031E-18
6.212108E+03	4.059392E-16	2.960386E-18
6.222063E+03	4.060939E-16	2.963752E-18
6.232018E+03	4.064755E-16	2.968974E-18
6.241974E+03	4.070420E-16	2.975769E-18
6.251929E+03	4.077677E-16	2.983974E-18
6.261884E+03	4.086165E-16	2.993350E-18
6.271839E+03	4.095655E-16	3.003755E-18
6.281795E+03	4.105859E-16	3.015004E-18
6.291750E+03	4.116463E-16	3.026894E-18
6.301705E+03	4.127300E-16	3.039326E-18
6.311661E+03	4.138096E-16	3.052126E-18
6.321616E+03	4.148726E-16	3.065227E-18
6.331571E+03	4.158960E-16	3.078485E-18
6.341527E+03	4.168675E-16	3.091835E-18
6.351482E+03	4.177729E-16	3.105194E-18
6.361437E+03	4.186044E-16	3.118530E-18
6.371392E+03	4.193564E-16	3.131821E-18
6.381348E+03	4.200167E-16	3.145000E-18
6.391303E+03	4.205925E-16	3.158141E-18
6.401258E+03	4.210709E-16	3.171165E-18
6.411214E+03	4.214580E-16	3.184138E-18
6.421169E+03	4.217614E-16	3.197134E-18
6.431124E+03	4.219767E-16	3.210135E-18
6.441080E+03	4.221136E-16	3.223230E-18
6.451035E+03	4.221787E-16	3.236463E-18
6.460990E+03	4.221791E-16	3.249857E-18
6.470945E+03	4.221231E-16	3.263438E-18
6.480901E+03	4.220151E-16	3.277205E-18
6.490856E+03	4.218513E-16	3.291089E-18
6.500811E+03	4.216328E-16	3.305062E-18
6.510767E+03	4.213609E-16	3.319095E-18
6.520722E+03	4.210253E-16	3.333066E-18
6.530677E+03	4.206244E-16	3.346924E-18
6.540633E+03	4.201381E-16	3.360464E-18
6.550588E+03	4.195725E-16	3.373693E-18
6.560543E+03	4.189053E-16	3.386386E-18
6.570498E+03	4.181314E-16	3.398457E-18
6.580454E+03	4.172445E-16	3.409807E-18
6.590409E+03	4.162245E-16	3.420223E-18
6.600364E+03	4.150648E-16	3.429599E-18
6.610320E+03	4.137547E-16	3.437799E-18
6.620275E+03	4.122899E-16	3.444732E-18
6.630230E+03	4.106539E-16	3.450209E-18
6.640186E+03	4.088470E-16	3.454180E-18
6.650141E+03	4.068679E-16	3.456579E-18
6.660096E+03	4.047237E-16	3.457418E-18
6.670051E+03	4.024167E-16	3.456664E-18
6.680007E+03	3.999576E-16	3.454363E-18
6.689962E+03	3.973663E-16	3.450641E-18
6.699917E+03	3.946576E-16	3.445587E-18
6.709873E+03	3.918594E-16	3.439405E-18
6.719828E+03	3.889982E-16	3.432298E-18
6.729783E+03	3.861038E-16	3.424502E-18
6.739739E+03	3.832036E-16	3.416240E-18
6.749694E+03	3.803403E-16	3.407874E-18
6.759649E+03	3.775397E-16	3.399628E-18
6.769604E+03	3.748454E-16	3.391889E-18
6.779560E+03	3.722875E-16	3.384933E-18
6.789515E+03	3.698997E-16	3.379071E-18
6.799470E+03	3.677181E-16	3.374643E-18
6.809426E+03	3.657680E-16	3.371899E-18
6.819381E+03	3.640764E-16	3.371104E-18
6.829336E+03	3.626715E-16	3.372541E-18
6.839292E+03	3.615734E-16	3.376422E-18
6.849247E+03	3.607946E-16	3.382887E-18
6.859202E+03	3.603473E-16	3.392077E-18
6.869157E+03	3.602438E-16	3.404133E-18
6.879113E+03	3.604877E-16	3.419113E-18
6.889068E+03	3.610739E-16	3.436992E-18
6.899023E+03	3.620051E-16	3.457818E-18
6.908979E+03	3.632585E-16	3.481390E-18
6.918934E+03	3.648323E-16	3.507708E-18
6.928889E+03	3.666995E-16	3.536522E-18
6.938845E+03	3.688372E-16	3.567623E-18
6.948800E+03	3.712285E-16	3.600850E-18
6.958755E+03	3.738359E-16	3.635839E-18
6.968710E+03	3.766283E-16	3.672286E-18
6.978666E+03	3.795779E-16	3.709912E-18
6.988621E+03	3.826516E-16	3.748382E-18
6.998576E+03	3.858115E-16	3.787313E-18
7.008532E+03	3.890253E-16	3.826369E-18
7.018487E+03	3.922666E-16	3.865273E-18
7.028442E+03	3.955069E-16	3.903722E-18
7.038398E+03	3.987151E-16	3.941388E-18
7.048353E+03	4.018678E-16	3.978017E-18
7.058308E+03	4.049448E-16	4.013384E-18
7.068263E+03	4.079339E-16	4.047346E-18
7.078219E+03	4.108109E-16	4.079640E-18
7.088174E+03	4.135741E-16	4.110226E-18
7.098129E+03	4.162089E-16	4.138936E-18
7.108085E+03	4.187070E-16	4.165671E-18
7.118040E+03	4.210609E-16	4.190334E-18
7.127995E+03	4.232633E-16	4.212836E-18
7.137951E+03	4.253008E-16	4.233028E-18
7.147906E+03	4.271746E-16	4.250908E-18
7.157861E+03	4.288631E-16	4.266249E-18
7.167817E+03	4.303585E-16	4.278962E-18
7.177772E+03	4.316452E-16	4.288887E-18
7.187727E+03	4.327002E-16	4.295786E-18
7.197682E+03	4.335091E-16	4.299517E-18
7.207638E+03	4.340503E-16	4.299867E-18
7.217593E+03	4.342959E-16	4.296563E-18
7.227548E+03	4.342231E-16	4.289389E-18
7.237504E+03	4.338153E-16	4.278193E-18
7.247459E+03	4.330518E-16	4.262792E-18
7.257414E+03	4.319040E-16	4.242924E-18
7.267370E+03	4.303685E-16	4.218586E-18
7.277325E+03	4.284354E-16	4.189713E-18
7.287280E+03	4.260952E-16	4.156249E-18
7.297235E+03	4.233493E-16	4.118253E-18
7.307191E+03	4.202111E-16	4.075899E-18
7.317146E+03	4.166843E-16	4.029275E-18
7.327101E+03	4.128006E-16	3.978739E-18
7.337057E+03	4.085869E-16	3.924605E-18
7.347012E+03	4.040705E-16	3.867191E-18
7.356967E+03	3.992838E-16	3.806861E-18
7.366923E+03	3.942784E-16	3.744163E-18
7.376878E+03	3.890985E-16	3.679567E-18
7.386833E+03	3.837803E-16	3.613464E-18
7.396788E+03	3.783809E-16	3.546435E-18
7.406744E+03	3.729373E-16	3.478868E-18
7.416699E+03	3.675052E-16	3.411315E-18
7.426654E+03	3.621189E-16	3.344123E-18
7.436610E+03	3.568292E-16	3.277784E-18
7.446565E+03	3.516697E-16	3.212620E-18
7.456520E+03	3.466753E-16	3.148958E-18
7.466476E+03	3.418770E-16	3.087084E-18
7.476431E+03	3.373024E-16	3.027241E-18
7.486386E+03	3.329750E-16	2.969630E-18
7.496341E+03	3.289151E-16	2.914416E-18
7.506297E+03	3.251353E-16	2.861690E-18
7.516252E+03	3.216580E-16	2.811621E-18
7.526207E+03	3.184862E-16	2.764203E-18
7.536163E+03	3.156331E-16	2.719514E-18
7.546118E+03	3.131020E-16	2.677541E-18
7.556073E+03	3.109023E-16	2.638322E-18
7.566029E+03	3.090377E-16	2.601840E-18
7.575984E+03	3.075053E-16	2.568022E-18
7.585939E+03	3.063068E-16	2.536831E-18
7.595894E+03	3.054344E-16	2.508152E-18
7.605850E+03	3.048731E-16	2.481809E-18
7.615805E+03	3.046099E-16	2.457647E-18
7.625760E+03	3.046351E-16	2.435542E-18
7.635716E+03	3.049300E-16	2.415297E-18
7.645671E+03	3.054842E-16	2.396789E-18
7.655626E+03	3.062822E-16	2.379857E-18
7.665582E+03	3.073003E-16	2.364282E-18
7.675537E+03	3.085341E-16	2.350000E-18
7.685492E+03	3.099584E-16	2.336794E-18
7.695447E+03	3.115550E-16	2.324505E-18
7.705403E+03	3.133090E-16	2.313010E-18
7.715358E+03	3.151965E-16	2.302124E-18
7.725313E+03	3.172008E-16	2.291725E-18
