#wls	flux	fluxerr
1.592848E+03	1.323776E-17	2.498506E-18
1.632669E+03	1.367129E-17	2.565773E-18
1.672491E+03	1.404542E-17	2.620682E-18
1.712312E+03	1.434943E-17	2.661411E-18
1.752133E+03	1.457855E-17	2.687282E-18
1.791954E+03	1.470775E-17	2.693947E-18
1.831775E+03	1.470960E-17	2.676742E-18
1.871597E+03	1.455432E-17	2.630737E-18
1.911418E+03	1.422116E-17	2.552786E-18
1.951239E+03	1.369420E-17	2.440739E-18
1.991060E+03	1.300425E-17	2.300829E-18
2.030881E+03	1.223055E-17	2.147656E-18
2.070703E+03	1.152975E-17	2.008913E-18
2.110524E+03	1.108161E-17	1.915431E-18
2.150345E+03	1.104499E-17	1.893420E-18
2.190166E+03	1.148535E-17	1.952256E-18
2.229987E+03	1.236960E-17	2.084243E-18
2.269809E+03	1.359807E-17	2.270677E-18
2.309630E+03	1.504033E-17	2.488297E-18
2.349451E+03	1.658175E-17	2.717187E-18
2.389272E+03	1.814573E-17	2.944295E-18
2.429093E+03	1.968320E-17	3.161469E-18
2.468915E+03	2.116628E-17	3.364250E-18
2.508736E+03	2.259334E-17	3.552498E-18
2.548557E+03	2.396920E-17	3.727099E-18
2.588378E+03	2.529538E-17	3.888406E-18
2.628199E+03	2.658684E-17	4.038809E-18
2.668021E+03	2.785087E-17	4.179451E-18
2.707842E+03	2.910277E-17	4.312607E-18
2.747663E+03	3.034848E-17	4.439077E-18
2.787484E+03	3.160174E-17	4.560739E-18
2.827305E+03	3.287096E-17	4.678602E-18
2.867127E+03	3.416803E-17	4.794096E-18
2.906948E+03	3.550391E-17	4.908421E-18
2.946769E+03	3.688384E-17	5.021900E-18
2.986590E+03	3.831640E-17	5.135249E-18
2.996546E+03	3.868523E-17	5.163838E-18
3.006501E+03	3.905539E-17	5.192116E-18
3.016456E+03	3.943158E-17	5.220701E-18
3.026411E+03	3.981451E-17	5.249675E-18
3.036367E+03	4.020704E-17	5.279399E-18
3.046322E+03	4.060711E-17	5.309586E-18
3.056277E+03	4.102033E-17	5.340950E-18
3.066233E+03	4.144565E-17	5.373332E-18
3.076188E+03	4.188211E-17	5.406582E-18
3.086143E+03	4.232876E-17	5.440560E-18
3.096099E+03	4.278477E-17	5.475139E-18
3.106054E+03	4.324930E-17	5.510189E-18
3.116009E+03	4.372161E-17	5.545603E-18
3.125964E+03	4.420580E-17	5.581881E-18
3.135920E+03	4.469636E-17	5.618307E-18
3.145875E+03	4.519272E-17	5.654794E-18
3.155830E+03	4.569427E-17	5.691253E-18
3.165786E+03	4.620522E-17	5.728196E-18
3.175741E+03	4.672025E-17	5.764945E-18
3.185696E+03	4.724368E-17	5.802019E-18
3.195652E+03	4.777024E-17	5.838758E-18
3.205607E+03	4.830907E-17	5.876262E-18
3.215562E+03	4.885010E-17	5.913290E-18
3.225517E+03	4.939779E-17	5.950370E-18
3.235473E+03	4.994690E-17	5.986859E-18
3.245428E+03	5.050669E-17	6.023855E-18
3.255383E+03	5.107198E-17	6.060720E-18
3.265339E+03	5.164241E-17	6.097399E-18
3.275294E+03	5.222246E-17	6.134405E-18
3.285249E+03	5.280225E-17	6.170562E-18
3.295205E+03	5.339103E-17	6.206943E-18
3.305160E+03	5.398848E-17	6.243489E-18
3.315115E+03	5.458956E-17	6.279603E-18
3.325070E+03	5.519875E-17	6.315786E-18
3.335026E+03	5.581577E-17	6.351987E-18
3.344981E+03	5.644040E-17	6.388163E-18
3.354936E+03	5.707232E-17	6.424261E-18
3.364892E+03	5.770669E-17	6.459720E-18
3.374847E+03	5.835265E-17	6.495550E-18
3.384802E+03	5.900996E-17	6.531700E-18
3.394758E+03	5.967378E-17	6.567610E-18
3.404713E+03	6.034398E-17	6.603251E-18
3.414668E+03	6.102505E-17	6.639093E-18
3.424623E+03	6.171689E-17	6.675105E-18
3.434579E+03	6.241479E-17	6.710752E-18
3.444534E+03	6.312795E-17	6.747003E-18
3.454489E+03	6.384719E-17	6.782849E-18
3.464445E+03	6.458171E-17	6.819248E-18
3.474400E+03	6.533164E-17	6.856176E-18
3.484355E+03	6.609262E-17	6.893148E-18
3.494311E+03	6.686495E-17	6.930167E-18
3.504266E+03	6.765791E-17	6.968164E-18
3.514221E+03	6.846302E-17	7.006224E-18
3.524176E+03	6.928526E-17	7.044828E-18
3.534132E+03	7.012531E-17	7.084006E-18
3.544087E+03	7.098828E-17	7.124230E-18
3.554042E+03	7.187064E-17	7.165099E-18
3.563998E+03	7.277770E-17	7.207097E-18
3.573953E+03	7.371055E-17	7.250275E-18
3.583908E+03	7.466602E-17	7.294268E-18
3.593864E+03	7.565410E-17	7.339996E-18
3.603819E+03	7.666753E-17	7.386687E-18
3.613774E+03	7.771650E-17	7.435262E-18
3.623729E+03	7.880261E-17	7.485796E-18
3.633685E+03	7.992329E-17	7.537964E-18
3.643640E+03	8.108458E-17	7.592258E-18
3.653595E+03	8.228843E-17	7.648769E-18
3.663551E+03	8.353670E-17	7.707578E-18
3.673506E+03	8.483137E-17	7.768769E-18
3.683461E+03	8.617860E-17	7.832801E-18
3.693417E+03	8.757615E-17	7.899355E-18
3.703372E+03	8.903009E-17	7.968868E-18
3.713327E+03	9.053803E-17	8.041002E-18
3.723282E+03	9.211001E-17	8.116524E-18
3.733238E+03	9.373916E-17	8.194693E-18
3.743193E+03	9.543513E-17	8.276219E-18
3.753148E+03	9.719892E-17	8.361044E-18
3.763104E+03	9.902706E-17	8.448720E-18
3.773059E+03	1.009198E-16	8.539129E-18
3.783014E+03	1.028813E-16	8.632472E-18
3.792970E+03	1.049109E-16	8.728540E-18
3.802925E+03	1.070115E-16	8.827428E-18
3.812880E+03	1.091730E-16	8.928151E-18
3.822835E+03	1.113971E-16	9.030710E-18
3.832791E+03	1.136849E-16	9.135043E-18
3.842746E+03	1.160282E-16	9.240360E-18
3.852701E+03	1.184222E-16	9.346164E-18
3.862657E+03	1.208657E-16	9.452232E-18
3.872612E+03	1.233523E-16	9.557964E-18
3.882567E+03	1.258707E-16	9.662391E-18
3.892523E+03	1.284130E-16	9.764842E-18
3.902478E+03	1.309793E-16	9.865255E-18
3.912433E+03	1.335519E-16	9.962263E-18
3.922388E+03	1.361213E-16	1.005514E-17
3.932344E+03	1.386818E-16	1.014348E-17
3.942299E+03	1.412233E-16	1.022656E-17
3.952254E+03	1.437314E-16	1.030340E-17
3.962210E+03	1.462005E-16	1.037364E-17
3.972165E+03	1.486164E-16	1.043641E-17
3.982120E+03	1.509702E-16	1.049116E-17
3.992076E+03	1.532573E-16	1.053776E-17
4.002031E+03	1.554618E-16	1.057523E-17
4.011986E+03	1.575811E-16	1.060361E-17
4.021941E+03	1.596052E-16	1.062241E-17
4.031897E+03	1.615340E-16	1.063184E-17
4.041852E+03	1.633601E-16	1.063164E-17
4.051807E+03	1.650775E-16	1.062164E-17
4.061763E+03	1.666900E-16	1.060234E-17
4.071718E+03	1.681983E-16	1.057402E-17
4.081673E+03	1.695968E-16	1.053656E-17
4.091629E+03	1.708889E-16	1.049044E-17
4.101584E+03	1.720797E-16	1.043619E-17
4.111539E+03	1.731749E-16	1.037441E-17
4.121494E+03	1.741777E-16	1.030550E-17
4.131450E+03	1.750961E-16	1.023014E-17
4.141405E+03	1.759349E-16	1.014881E-17
4.151360E+03	1.767001E-16	1.006204E-17
4.161316E+03	1.774016E-16	9.970555E-18
4.171271E+03	1.780463E-16	9.874905E-18
4.181226E+03	1.786451E-16	9.775823E-18
4.191182E+03	1.792056E-16	9.673831E-18
4.201137E+03	1.797356E-16	9.569445E-18
4.211092E+03	1.802464E-16	9.463348E-18
4.221047E+03	1.807461E-16	9.356011E-18
4.231003E+03	1.812425E-16	9.247883E-18
4.240958E+03	1.817438E-16	9.139390E-18
4.250913E+03	1.822611E-16	9.031090E-18
4.260869E+03	1.828018E-16	8.923341E-18
4.270824E+03	1.833736E-16	8.816469E-18
4.280779E+03	1.839868E-16	8.710918E-18
4.290735E+03	1.846451E-16	8.606795E-18
4.300690E+03	1.853613E-16	8.504612E-18
4.310645E+03	1.861355E-16	8.404271E-18
4.320601E+03	1.869827E-16	8.306331E-18
4.330556E+03	1.879079E-16	8.210887E-18
4.340511E+03	1.889159E-16	8.118005E-18
4.350466E+03	1.900139E-16	8.027840E-18
4.360422E+03	1.912088E-16	7.940512E-18
4.370377E+03	1.925097E-16	7.856229E-18
4.380332E+03	1.939255E-16	7.775154E-18
4.390288E+03	1.954583E-16	7.697167E-18
4.400243E+03	1.971243E-16	7.622688E-18
4.410198E+03	1.989269E-16	7.551616E-18
4.420154E+03	2.008773E-16	7.484128E-18
4.430109E+03	2.029762E-16	7.419998E-18
4.440064E+03	2.052228E-16	7.358947E-18
4.450019E+03	2.076058E-16	7.300336E-18
4.459975E+03	2.101206E-16	7.243797E-18
4.469930E+03	2.127491E-16	7.188523E-18
4.479885E+03	2.154795E-16	7.133978E-18
4.489841E+03	2.182952E-16	7.079504E-18
4.499796E+03	2.211800E-16	7.024518E-18
4.509751E+03	2.241160E-16	6.968427E-18
4.519707E+03	2.270861E-16	6.910721E-18
4.529662E+03	2.300628E-16	6.850636E-18
4.539617E+03	2.330319E-16	6.787880E-18
4.549572E+03	2.359666E-16	6.721838E-18
4.559528E+03	2.388485E-16	6.652213E-18
4.569483E+03	2.416534E-16	6.578600E-18
4.579438E+03	2.443575E-16	6.500673E-18
4.589394E+03	2.469504E-16	6.418523E-18
4.599349E+03	2.494051E-16	6.331846E-18
4.609304E+03	2.517088E-16	6.240764E-18
4.619260E+03	2.538546E-16	6.145575E-18
4.629215E+03	2.558230E-16	6.046296E-18
4.639170E+03	2.576162E-16	5.943495E-18
4.649125E+03	2.592274E-16	5.837532E-18
4.659081E+03	2.606566E-16	5.728929E-18
4.669036E+03	2.619132E-16	5.618414E-18
4.678991E+03	2.629978E-16	5.506508E-18
4.688947E+03	2.639267E-16	5.394050E-18
4.698902E+03	2.647132E-16	5.281781E-18
4.708857E+03	2.653733E-16	5.170471E-18
4.718813E+03	2.659321E-16	5.061024E-18
4.728768E+03	2.664075E-16	4.954168E-18
4.738723E+03	2.668256E-16	4.850738E-18
4.748678E+03	2.672106E-16	4.751497E-18
4.758634E+03	2.675937E-16	4.657282E-18
4.768589E+03	2.679959E-16	4.568705E-18
4.778544E+03	2.684397E-16	4.486374E-18
4.788500E+03	2.689436E-16	4.410795E-18
4.798455E+03	2.695221E-16	4.342381E-18
4.808410E+03	2.701979E-16	4.281651E-18
4.818366E+03	2.709835E-16	4.228930E-18
4.828321E+03	2.718928E-16	4.184504E-18
4.838276E+03	2.729410E-16	4.148389E-18
4.848231E+03	2.741348E-16	4.120351E-18
4.858187E+03	2.754874E-16	4.100234E-18
4.868142E+03	2.769969E-16	4.087641E-18
4.878097E+03	2.786704E-16	4.082300E-18
4.888053E+03	2.805055E-16	4.083792E-18
4.898008E+03	2.824962E-16	4.091648E-18
4.907963E+03	2.846363E-16	4.105392E-18
4.917919E+03	2.869068E-16	4.124372E-18
4.927874E+03	2.893011E-16	4.148114E-18
4.937829E+03	2.917974E-16	4.175935E-18
4.947784E+03	2.943748E-16	4.207170E-18
4.957740E+03	2.970135E-16	4.241181E-18
4.967695E+03	2.996869E-16	4.277232E-18
4.977650E+03	3.023740E-16	4.314686E-18
4.987606E+03	3.050549E-16	4.352921E-18
4.997561E+03	3.077008E-16	4.391208E-18
5.007516E+03	3.102983E-16	4.429042E-18
5.017472E+03	3.128266E-16	4.465829E-18
5.027427E+03	3.152744E-16	4.501128E-18
5.037382E+03	3.176306E-16	4.534511E-18
5.047337E+03	3.198871E-16	4.565614E-18
5.057293E+03	3.220358E-16	4.594093E-18
5.067248E+03	3.240812E-16	4.619802E-18
5.077203E+03	3.260206E-16	4.642512E-18
5.087159E+03	3.278561E-16	4.662084E-18
5.097114E+03	3.295913E-16	4.678424E-18
5.107069E+03	3.312338E-16	4.691514E-18
5.117025E+03	3.327848E-16	4.701266E-18
5.126980E+03	3.342520E-16	4.707707E-18
5.136935E+03	3.356356E-16	4.710778E-18
5.146890E+03	3.369451E-16	4.710574E-18
5.156846E+03	3.381715E-16	4.706952E-18
5.166801E+03	3.393256E-16	4.700067E-18
5.176756E+03	3.404028E-16	4.689880E-18
5.186712E+03	3.413971E-16	4.676362E-18
5.196667E+03	3.423121E-16	4.659634E-18
5.206622E+03	3.431395E-16	4.639683E-18
5.216578E+03	3.438736E-16	4.616556E-18
5.226533E+03	3.445079E-16	4.590315E-18
5.236488E+03	3.450386E-16	4.561088E-18
5.246443E+03	3.454546E-16	4.528932E-18
5.256399E+03	3.457475E-16	4.493972E-18
5.266354E+03	3.459127E-16	4.456408E-18
5.276309E+03	3.459418E-16	4.416424E-18
5.286265E+03	3.458232E-16	4.374189E-18
5.296220E+03	3.455527E-16	4.329996E-18
5.306175E+03	3.451232E-16	4.284129E-18
5.316131E+03	3.445286E-16	4.236907E-18
5.326086E+03	3.437637E-16	4.188686E-18
5.336041E+03	3.428212E-16	4.139811E-18
5.345996E+03	3.417057E-16	4.090789E-18
5.355952E+03	3.404092E-16	4.041984E-18
5.365907E+03	3.389395E-16	3.993951E-18
5.375862E+03	3.372954E-16	3.947134E-18
5.385818E+03	3.354809E-16	3.902031E-18
5.395773E+03	3.335013E-16	3.859135E-18
5.405728E+03	3.313668E-16	3.818970E-18
5.415684E+03	3.290785E-16	3.781919E-18
5.425639E+03	3.266518E-16	3.748491E-18
5.435594E+03	3.240892E-16	3.718993E-18
5.445549E+03	3.214066E-16	3.693821E-18
5.455505E+03	3.186103E-16	3.672916E-18
5.465460E+03	3.157071E-16	3.655876E-18
5.475415E+03	3.127124E-16	3.642361E-18
5.485371E+03	3.096258E-16	3.631821E-18
5.495326E+03	3.064622E-16	3.623885E-18
5.505281E+03	3.032311E-16	3.618116E-18
5.515237E+03	2.999432E-16	3.614107E-18
5.525192E+03	2.966087E-16	3.611462E-18
5.535147E+03	2.932463E-16	3.609915E-18
5.545102E+03	2.898745E-16	3.609232E-18
5.555058E+03	2.865148E-16	3.609255E-18
5.565013E+03	2.831917E-16	3.609907E-18
5.574968E+03	2.799323E-16	3.611188E-18
5.584924E+03	2.767657E-16	3.613174E-18
5.594879E+03	2.737198E-16	3.615976E-18
5.604834E+03	2.708295E-16	3.619837E-18
5.614790E+03	2.681238E-16	3.624979E-18
5.624745E+03	2.656400E-16	3.631770E-18
5.634700E+03	2.634007E-16	3.640424E-18
5.644655E+03	2.614399E-16	3.651345E-18
5.654611E+03	2.597817E-16	3.664829E-18
5.664566E+03	2.584496E-16	3.681188E-18
5.674521E+03	2.574640E-16	3.700707E-18
5.684477E+03	2.568411E-16	3.723629E-18
5.694432E+03	2.565906E-16	3.750103E-18
5.704387E+03	2.567253E-16	3.780325E-18
5.714343E+03	2.572401E-16	3.814230E-18
5.724298E+03	2.581377E-16	3.851853E-18
5.734253E+03	2.594101E-16	3.893061E-18
5.744209E+03	2.610389E-16	3.937549E-18
5.754164E+03	2.630074E-16	3.985019E-18
5.764119E+03	2.652908E-16	4.035031E-18
5.774074E+03	2.678581E-16	4.087033E-18
5.784030E+03	2.706707E-16	4.140337E-18
5.793985E+03	2.736867E-16	4.194189E-18
5.803940E+03	2.768619E-16	4.247788E-18
5.813896E+03	2.801427E-16	4.300178E-18
5.823851E+03	2.834717E-16	4.350341E-18
5.833806E+03	2.867974E-16	4.397351E-18
5.843762E+03	2.900555E-16	4.440096E-18
5.853717E+03	2.931907E-16	4.477613E-18
5.863672E+03	2.961433E-16	4.508896E-18
5.873627E+03	2.988595E-16	4.533061E-18
5.883583E+03	3.012938E-16	4.549375E-18
5.893538E+03	3.034007E-16	4.557148E-18
5.903493E+03	3.051428E-16	4.555853E-18
5.913449E+03	3.065004E-16	4.545271E-18
5.923404E+03	3.074519E-16	4.525193E-18
5.933359E+03	3.079981E-16	4.495782E-18
5.943315E+03	3.081382E-16	4.457215E-18
5.953270E+03	3.078909E-16	4.409979E-18
5.963225E+03	3.072817E-16	4.354680E-18
5.973180E+03	3.063418E-16	4.292020E-18
5.983136E+03	3.051162E-16	4.222902E-18
5.993091E+03	3.036559E-16	4.148304E-18
6.003046E+03	3.020077E-16	4.069135E-18
6.013002E+03	3.002306E-16	3.986449E-18
6.022957E+03	2.983850E-16	3.901292E-18
6.032912E+03	2.965258E-16	3.814599E-18
6.042868E+03	2.947127E-16	3.727335E-18
6.052823E+03	2.930003E-16	3.640360E-18
6.062778E+03	2.914406E-16	3.554456E-18
6.072733E+03	2.900844E-16	3.470358E-18
6.082689E+03	2.889731E-16	3.388647E-18
6.092644E+03	2.881493E-16	3.309890E-18
6.102599E+03	2.876452E-16	3.234506E-18
6.112555E+03	2.874910E-16	3.162878E-18
6.122510E+03	2.877152E-16	3.095354E-18
6.132465E+03	2.883325E-16	3.032136E-18
6.142421E+03	2.893522E-16	2.973381E-18
6.152376E+03	2.907901E-16	2.919335E-18
6.162331E+03	2.926445E-16	2.870097E-18
6.172286E+03	2.949227E-16	2.825893E-18
6.182242E+03	2.976166E-16	2.786849E-18
6.192197E+03	3.007122E-16	2.753094E-18
6.202152E+03	3.041910E-16	2.724779E-18
6.212108E+03	3.080233E-16	2.702026E-18
6.222063E+03	3.121716E-16	2.684955E-18
6.232018E+03	3.165985E-16	2.673695E-18
6.241974E+03	3.212629E-16	2.667960E-18
6.251929E+03	3.261118E-16	2.667182E-18
6.261884E+03	3.310913E-16	2.670805E-18
6.271839E+03	3.361419E-16	2.678241E-18
6.281795E+03	3.412066E-16	2.688941E-18
6.291750E+03	3.462325E-16	2.702413E-18
6.301705E+03	3.511622E-16	2.718154E-18
6.311661E+03	3.559489E-16	2.735774E-18
6.321616E+03	3.605403E-16	2.754874E-18
6.331571E+03	3.649045E-16	2.775254E-18
6.341527E+03	3.690050E-16	2.796720E-18
6.351482E+03	3.728200E-16	2.819237E-18
6.361437E+03	3.763275E-16	2.842815E-18
6.371392E+03	3.795196E-16	2.867625E-18
6.381348E+03	3.823910E-16	2.893901E-18
6.391303E+03	3.849418E-16	2.921969E-18
6.401258E+03	3.871812E-16	2.952260E-18
6.411214E+03	3.891174E-16	2.985236E-18
6.421169E+03	3.907656E-16	3.021436E-18
6.431124E+03	3.921381E-16	3.061392E-18
6.441080E+03	3.932557E-16	3.105708E-18
6.451035E+03	3.941302E-16	3.154908E-18
6.460990E+03	3.947757E-16	3.209509E-18
6.470945E+03	3.952082E-16	3.270012E-18
6.480901E+03	3.954259E-16	3.336718E-18
6.490856E+03	3.954360E-16	3.409754E-18
6.500811E+03	3.952393E-16	3.488533E-18
6.510767E+03	3.948481E-16	3.572397E-18
6.520722E+03	3.942635E-16	3.660567E-18
6.530677E+03	3.935037E-16	3.752416E-18
6.540633E+03	3.925651E-16	3.847129E-18
6.550588E+03	3.914529E-16	3.943988E-18
6.560543E+03	3.901607E-16	4.042183E-18
6.570498E+03	3.886879E-16	4.140989E-18
6.580454E+03	3.870283E-16	4.239651E-18
6.590409E+03	3.851708E-16	4.337382E-18
6.600364E+03	3.831128E-16	4.433518E-18
6.610320E+03	3.808449E-16	4.527341E-18
6.620275E+03	3.783679E-16	4.618279E-18
6.630230E+03	3.756855E-16	4.705833E-18
6.640186E+03	3.727923E-16	4.789421E-18
6.650141E+03	3.697036E-16	4.868759E-18
6.660096E+03	3.664268E-16	4.943502E-18
6.670051E+03	3.629778E-16	5.013463E-18
6.680007E+03	3.593809E-16	5.078621E-18
6.689962E+03	3.556611E-16	5.139017E-18
6.699917E+03	3.518427E-16	5.194744E-18
6.709873E+03	3.479657E-16	5.246177E-18
6.719828E+03	3.440606E-16	5.293617E-18
6.729783E+03	3.401604E-16	5.337461E-18
6.739739E+03	3.363107E-16	5.378363E-18
6.749694E+03	3.325500E-16	5.416928E-18
6.759649E+03	3.289131E-16	5.453757E-18
6.769604E+03	3.254411E-16	5.489609E-18
6.779560E+03	3.221666E-16	5.525146E-18
6.789515E+03	3.191274E-16	5.561165E-18
6.799470E+03	3.163555E-16	5.598399E-18
6.809426E+03	3.138794E-16	5.637557E-18
6.819381E+03	3.117246E-16	5.679315E-18
6.829336E+03	3.099130E-16	5.724307E-18
6.839292E+03	3.084660E-16	5.773172E-18
6.849247E+03	3.073904E-16	5.826279E-18
6.859202E+03	3.067026E-16	5.884183E-18
6.869157E+03	3.064076E-16	5.947222E-18
6.879113E+03	3.064987E-16	6.015488E-18
6.889068E+03	3.069788E-16	6.089250E-18
6.899023E+03	3.078394E-16	6.168533E-18
6.908979E+03	3.090670E-16	6.253246E-18
6.918934E+03	3.106405E-16	6.343110E-18
6.928889E+03	3.125383E-16	6.437809E-18
6.938845E+03	3.147431E-16	6.537089E-18
6.948800E+03	3.172192E-16	6.640281E-18
6.958755E+03	3.199402E-16	6.746884E-18
6.968710E+03	3.228743E-16	6.856250E-18
6.978666E+03	3.259850E-16	6.967609E-18
6.988621E+03	3.292482E-16	7.080420E-18
6.998576E+03	3.326288E-16	7.193899E-18
7.008532E+03	3.360937E-16	7.307275E-18
7.018487E+03	3.396252E-16	7.420095E-18
7.028442E+03	3.431962E-16	7.531699E-18
7.038398E+03	3.467879E-16	7.641592E-18
7.048353E+03	3.503852E-16	7.749360E-18
7.058308E+03	3.539769E-16	7.854669E-18
7.068263E+03	3.575552E-16	7.957264E-18
7.078219E+03	3.611194E-16	8.057051E-18
7.088174E+03	3.646617E-16	8.153777E-18
7.098129E+03	3.681793E-16	8.247306E-18
7.108085E+03	3.716733E-16	8.337596E-18
7.118040E+03	3.751336E-16	8.424358E-18
7.127995E+03	3.785563E-16	8.507445E-18
7.137951E+03	3.819231E-16	8.586394E-18
7.147906E+03	3.852197E-16	8.660840E-18
7.157861E+03	3.884153E-16	8.730051E-18
7.167817E+03	3.914822E-16	8.793376E-18
7.177772E+03	3.943799E-16	8.849890E-18
7.187727E+03	3.970607E-16	8.898526E-18
7.197682E+03	3.994708E-16	8.938091E-18
7.207638E+03	4.015504E-16	8.967290E-18
7.217593E+03	4.032360E-16	8.984774E-18
7.227548E+03	4.044624E-16	8.989185E-18
7.237504E+03	4.051649E-16	8.979216E-18
7.247459E+03	4.052875E-16	8.953797E-18
7.257414E+03	4.047645E-16	8.911679E-18
7.267370E+03	4.035604E-16	8.852328E-18
7.277325E+03	4.016410E-16	8.775275E-18
7.287280E+03	3.989810E-16	8.680280E-18
7.297235E+03	3.955760E-16	8.567597E-18
7.307191E+03	3.914387E-16	8.437871E-18
7.317146E+03	3.866039E-16	8.292240E-18
7.327101E+03	3.811129E-16	8.131981E-18
7.337057E+03	3.750272E-16	7.958797E-18
7.347012E+03	3.684213E-16	7.774655E-18
7.356967E+03	3.613851E-16	7.581810E-18
7.366923E+03	3.540009E-16	7.382324E-18
7.376878E+03	3.463701E-16	7.178609E-18
7.386833E+03	3.385899E-16	6.972943E-18
7.396788E+03	3.307555E-16	6.767499E-18
7.406744E+03	3.229535E-16	6.564219E-18
7.416699E+03	3.152680E-16	6.364944E-18
7.426654E+03	3.077837E-16	6.171459E-18
7.436610E+03	3.005544E-16	5.984887E-18
7.446565E+03	2.936491E-16	5.806604E-18
7.456520E+03	2.871064E-16	5.637340E-18
7.466476E+03	2.809631E-16	5.477756E-18
7.476431E+03	2.752502E-16	5.328373E-18
7.486386E+03	2.699823E-16	5.189360E-18
7.496341E+03	2.651730E-16	5.060729E-18
7.506297E+03	2.608203E-16	4.942123E-18
7.516252E+03	2.569199E-16	4.833140E-18
7.526207E+03	2.534615E-16	4.733281E-18
7.536163E+03	2.504312E-16	4.641986E-18
7.546118E+03	2.478119E-16	4.558645E-18
7.556073E+03	2.455843E-16	4.482625E-18
7.566029E+03	2.437286E-16	4.413291E-18
7.575984E+03	2.422226E-16	4.349974E-18
7.585939E+03	2.410530E-16	4.292177E-18
7.595894E+03	2.402055E-16	4.239392E-18
7.605850E+03	2.396721E-16	4.191225E-18
7.615805E+03	2.394492E-16	4.147360E-18
7.625760E+03	2.395270E-16	4.107368E-18
7.635716E+03	2.398982E-16	4.070868E-18
7.645671E+03	2.405577E-16	4.037513E-18
7.655626E+03	2.414889E-16	4.006760E-18
7.665582E+03	2.426868E-16	3.978263E-18
7.675537E+03	2.441311E-16	3.951426E-18
7.685492E+03	2.458133E-16	3.925850E-18
7.695447E+03	2.477131E-16	3.900951E-18
7.705403E+03	2.498121E-16	3.876188E-18
7.715358E+03	2.520909E-16	3.851015E-18
7.725313E+03	2.545291E-16	3.824887E-18
