#wls	flux	fluxerr
1.592848E+03	4.200273E-18	4.239022E-18
1.632669E+03	4.416271E-18	4.419397E-18
1.672491E+03	4.618713E-18	4.582119E-18
1.712312E+03	4.804880E-18	4.724791E-18
1.752133E+03	4.971147E-18	4.844244E-18
1.791954E+03	5.107647E-18	4.931416E-18
1.831775E+03	5.202893E-18	4.976073E-18
1.871597E+03	5.245636E-18	4.968651E-18
1.911418E+03	5.221265E-18	4.896876E-18
1.951239E+03	5.123915E-18	4.757188E-18
1.991060E+03	4.958182E-18	4.555909E-18
2.030881E+03	4.753796E-18	4.322087E-18
2.070703E+03	4.567050E-18	4.107545E-18
2.110524E+03	4.475214E-18	3.980559E-18
2.150345E+03	4.547561E-18	3.999255E-18
2.190166E+03	4.821373E-18	4.191071E-18
2.229987E+03	5.295954E-18	4.549167E-18
2.269809E+03	5.936658E-18	5.037778E-18
2.309630E+03	6.697683E-18	5.613102E-18
2.349451E+03	7.532598E-18	6.232645E-18
2.389272E+03	8.407902E-18	6.866386E-18
2.429093E+03	9.302864E-18	7.495996E-18
2.468915E+03	1.020562E-17	8.111080E-18
2.508736E+03	1.111101E-17	8.707008E-18
2.548557E+03	1.202307E-17	9.286481E-18
2.588378E+03	1.294158E-17	9.848770E-18
2.628199E+03	1.387048E-17	1.039629E-17
2.668021E+03	1.481411E-17	1.093156E-17
2.707842E+03	1.577679E-17	1.145685E-17
2.747663E+03	1.676463E-17	1.197553E-17
2.787484E+03	1.778139E-17	1.248900E-17
2.827305E+03	1.882785E-17	1.299641E-17
2.867127E+03	1.991357E-17	1.350279E-17
2.906948E+03	2.103576E-17	1.400451E-17
2.946769E+03	2.220305E-17	1.450546E-17
2.986590E+03	2.341350E-17	1.500235E-17
2.996546E+03	2.372357E-17	1.512616E-17
3.006501E+03	2.403757E-17	1.525033E-17
3.016456E+03	2.435546E-17	1.537480E-17
3.026411E+03	2.467501E-17	1.549812E-17
3.036367E+03	2.500325E-17	1.562467E-17
3.046322E+03	2.533660E-17	1.575213E-17
3.056277E+03	2.567826E-17	1.588241E-17
3.066233E+03	2.602490E-17	1.601340E-17
3.076188E+03	2.638125E-17	1.614793E-17
3.086143E+03	2.674410E-17	1.628393E-17
3.096099E+03	2.711288E-17	1.642101E-17
3.106054E+03	2.748708E-17	1.655879E-17
3.116009E+03	2.786621E-17	1.669690E-17
3.125964E+03	2.824981E-17	1.683503E-17
3.135920E+03	2.864015E-17	1.697448E-17
3.145875E+03	2.903412E-17	1.711332E-17
3.155830E+03	2.943128E-17	1.725127E-17
3.165786E+03	2.983402E-17	1.738967E-17
3.175741E+03	3.023922E-17	1.752666E-17
3.185696E+03	3.064928E-17	1.766359E-17
3.195652E+03	3.106113E-17	1.779864E-17
3.205607E+03	3.147720E-17	1.793318E-17
3.215562E+03	3.189722E-17	1.806700E-17
3.225517E+03	3.231812E-17	1.819832E-17
3.235473E+03	3.274238E-17	1.832853E-17
3.245428E+03	3.317256E-17	1.845899E-17
3.255383E+03	3.360281E-17	1.858642E-17
3.265339E+03	3.403571E-17	1.871221E-17
3.275294E+03	3.447098E-17	1.883619E-17
3.285249E+03	3.490842E-17	1.895822E-17
3.295205E+03	3.535064E-17	1.907966E-17
3.305160E+03	3.579463E-17	1.919887E-17
3.315115E+03	3.624018E-17	1.931569E-17
3.325070E+03	3.668993E-17	1.943150E-17
3.335026E+03	3.714089E-17	1.954469E-17
3.344981E+03	3.759571E-17	1.965661E-17
3.354936E+03	3.805422E-17	1.976713E-17
3.364892E+03	3.851349E-17	1.987471E-17
3.374847E+03	3.897619E-17	1.998068E-17
3.384802E+03	3.944220E-17	2.008494E-17
3.394758E+03	3.991422E-17	2.018883E-17
3.404713E+03	4.038656E-17	2.028942E-17
3.414668E+03	4.086478E-17	2.038946E-17
3.424623E+03	4.134322E-17	2.048609E-17
3.434579E+03	4.183024E-17	2.058342E-17
3.444534E+03	4.232030E-17	2.067864E-17
3.454489E+03	4.281342E-17	2.077172E-17
3.464445E+03	4.331250E-17	2.086402E-17
3.474400E+03	4.381762E-17	2.095552E-17
3.484355E+03	4.432900E-17	2.104624E-17
3.494311E+03	4.484406E-17	2.113491E-17
3.504266E+03	4.536864E-17	2.122420E-17
3.514221E+03	4.590027E-17	2.131287E-17
3.524176E+03	4.644212E-17	2.140230E-17
3.534132E+03	4.699191E-17	2.149133E-17
3.544087E+03	4.755023E-17	2.158013E-17
3.554042E+03	4.812036E-17	2.167011E-17
3.563998E+03	4.870300E-17	2.176142E-17
3.573953E+03	4.929888E-17	2.185427E-17
3.583908E+03	4.990887E-17	2.194888E-17
3.593864E+03	5.053121E-17	2.204434E-17
3.603819E+03	5.117488E-17	2.214439E-17
3.613774E+03	5.183295E-17	2.224582E-17
3.623729E+03	5.251187E-17	2.235124E-17
3.633685E+03	5.321279E-17	2.246088E-17
3.643640E+03	5.393437E-17	2.257396E-17
3.653595E+03	5.468051E-17	2.269186E-17
3.663551E+03	5.545257E-17	2.281487E-17
3.673506E+03	5.625446E-17	2.294431E-17
3.683461E+03	5.708241E-17	2.307833E-17
3.693417E+03	5.794297E-17	2.321927E-17
3.703372E+03	5.883492E-17	2.336628E-17
3.713327E+03	5.976473E-17	2.352158E-17
3.723282E+03	6.072591E-17	2.368221E-17
3.733238E+03	6.172743E-17	2.385130E-17
3.743193E+03	6.276778E-17	2.402782E-17
3.753148E+03	6.384786E-17	2.421171E-17
3.763104E+03	6.496853E-17	2.440284E-17
3.773059E+03	6.613034E-17	2.460097E-17
3.783014E+03	6.733628E-17	2.480676E-17
3.792970E+03	6.858654E-17	2.501979E-17
3.802925E+03	6.987829E-17	2.523855E-17
3.812880E+03	7.121374E-17	2.546338E-17
3.822835E+03	7.259471E-17	2.569444E-17
3.832791E+03	7.401482E-17	2.592900E-17
3.842746E+03	7.547505E-17	2.616696E-17
3.852701E+03	7.697611E-17	2.640813E-17
3.862657E+03	7.851544E-17	2.665119E-17
3.872612E+03	8.008478E-17	2.689295E-17
3.882567E+03	8.168836E-17	2.713448E-17
3.892523E+03	8.331662E-17	2.737227E-17
3.902478E+03	8.496713E-17	2.760525E-17
3.912433E+03	8.663150E-17	2.783048E-17
3.922388E+03	8.830874E-17	2.804750E-17
3.932344E+03	8.998926E-17	2.825316E-17
3.942299E+03	9.166585E-17	2.844518E-17
3.952254E+03	9.332823E-17	2.862047E-17
3.962210E+03	9.497420E-17	2.877850E-17
3.972165E+03	9.659625E-17	2.891723E-17
3.982120E+03	9.818165E-17	2.903314E-17
3.992076E+03	9.972901E-17	2.912625E-17
4.002031E+03	1.012294E-16	2.919441E-17
4.011986E+03	1.026774E-16	2.923659E-17
4.021941E+03	1.040686E-16	2.925215E-17
4.031897E+03	1.053995E-16	2.924075E-17
4.041852E+03	1.066706E-16	2.920318E-17
4.051807E+03	1.078753E-16	2.913837E-17
4.061763E+03	1.090189E-16	2.904845E-17
4.071718E+03	1.100974E-16	2.893306E-17
4.081673E+03	1.111157E-16	2.879420E-17
4.091629E+03	1.120773E-16	2.863344E-17
4.101584E+03	1.129840E-16	2.845191E-17
4.111539E+03	1.138415E-16	2.825159E-17
4.121494E+03	1.146584E-16	2.803520E-17
4.131450E+03	1.154366E-16	2.780363E-17
4.141405E+03	1.161837E-16	2.755912E-17
4.151360E+03	1.169096E-16	2.730440E-17
4.161316E+03	1.176199E-16	2.704097E-17
4.171271E+03	1.183200E-16	2.677028E-17
4.181226E+03	1.190203E-16	2.649476E-17
4.191182E+03	1.197238E-16	2.621510E-17
4.201137E+03	1.204405E-16	2.593344E-17
4.211092E+03	1.211755E-16	2.565076E-17
4.221047E+03	1.219316E-16	2.536746E-17
4.231003E+03	1.227204E-16	2.508574E-17
4.240958E+03	1.235422E-16	2.480533E-17
4.250913E+03	1.244063E-16	2.452773E-17
4.260869E+03	1.253175E-16	2.425344E-17
4.270824E+03	1.262804E-16	2.398291E-17
4.280779E+03	1.273002E-16	2.371654E-17
4.290735E+03	1.283821E-16	2.345472E-17
4.300690E+03	1.295314E-16	2.319780E-17
4.310645E+03	1.307560E-16	2.294647E-17
4.320601E+03	1.320619E-16	2.270101E-17
4.330556E+03	1.334533E-16	2.246130E-17
4.340511E+03	1.349368E-16	2.222758E-17
4.350466E+03	1.365213E-16	2.200036E-17
4.360422E+03	1.382116E-16	2.177940E-17
4.370377E+03	1.400147E-16	2.156469E-17
4.380332E+03	1.419375E-16	2.135617E-17
4.390288E+03	1.439864E-16	2.115359E-17
4.400243E+03	1.461695E-16	2.095687E-17
4.410198E+03	1.484878E-16	2.076481E-17
4.420154E+03	1.509493E-16	2.057721E-17
4.430109E+03	1.535565E-16	2.039299E-17
4.440064E+03	1.563075E-16	2.021051E-17
4.450019E+03	1.592066E-16	2.002893E-17
4.459975E+03	1.622459E-16	1.984592E-17
4.469930E+03	1.654187E-16	1.965934E-17
4.479885E+03	1.687163E-16	1.946699E-17
4.489841E+03	1.721187E-16	1.926555E-17
4.499796E+03	1.756110E-16	1.905250E-17
4.509751E+03	1.791690E-16	1.882460E-17
4.519707E+03	1.827622E-16	1.857829E-17
4.529662E+03	1.863628E-16	1.831076E-17
4.539617E+03	1.899307E-16	1.801837E-17
4.549572E+03	1.934328E-16	1.769871E-17
4.559528E+03	1.968274E-16	1.734905E-17
4.569483E+03	2.000777E-16	1.696766E-17
4.579438E+03	2.031481E-16	1.655340E-17
4.589394E+03	2.059985E-16	1.610524E-17
4.599349E+03	2.086056E-16	1.562398E-17
4.609304E+03	2.109394E-16	1.511018E-17
4.619260E+03	2.129838E-16	1.456582E-17
4.629215E+03	2.147279E-16	1.399334E-17
4.639170E+03	2.161678E-16	1.339581E-17
4.649125E+03	2.173066E-16	1.277676E-17
4.659081E+03	2.181544E-16	1.214003E-17
4.669036E+03	2.187244E-16	1.148955E-17
4.678991E+03	2.190429E-16	1.082975E-17
4.688947E+03	2.191304E-16	1.016450E-17
4.698902E+03	2.190166E-16	9.497876E-18
4.708857E+03	2.187342E-16	8.833838E-18
4.718813E+03	2.183182E-16	8.176182E-18
4.728768E+03	2.178057E-16	7.528588E-18
4.738723E+03	2.172350E-16	6.894666E-18
4.748678E+03	2.166453E-16	6.278102E-18
4.758634E+03	2.160763E-16	5.682856E-18
4.768589E+03	2.155640E-16	5.113434E-18
4.778544E+03	2.151352E-16	4.575318E-18
4.788500E+03	2.148189E-16	4.076083E-18
4.798455E+03	2.146364E-16	3.626216E-18
4.808410E+03	2.146126E-16	3.240521E-18
4.818366E+03	2.147682E-16	2.938492E-18
4.828321E+03	2.151267E-16	2.742575E-18
4.838276E+03	2.157041E-16	2.671777E-18
4.848231E+03	2.165132E-16	2.730103E-18
4.858187E+03	2.175655E-16	2.900993E-18
4.868142E+03	2.188687E-16	3.159034E-18
4.878097E+03	2.204238E-16	3.479406E-18
4.888053E+03	2.222322E-16	3.842454E-18
4.898008E+03	2.242811E-16	4.233903E-18
4.907963E+03	2.265623E-16	4.643988E-18
4.917919E+03	2.290602E-16	5.065881E-18
4.927874E+03	2.317483E-16	5.494514E-18
4.937829E+03	2.345995E-16	5.926014E-18
4.947784E+03	2.375780E-16	6.357029E-18
4.957740E+03	2.406456E-16	6.784531E-18
4.967695E+03	2.437572E-16	7.205493E-18
4.977650E+03	2.468636E-16	7.616807E-18
4.987606E+03	2.499227E-16	8.015590E-18
4.997561E+03	2.528901E-16	8.398855E-18
5.007516E+03	2.557231E-16	8.763659E-18
5.017472E+03	2.583916E-16	9.107488E-18
5.027427E+03	2.608720E-16	9.428105E-18
5.037382E+03	2.631530E-16	9.723812E-18
5.047337E+03	2.652274E-16	9.993185E-18
5.057293E+03	2.670981E-16	1.023534E-17
5.067248E+03	2.687801E-16	1.044999E-17
5.077203E+03	2.702809E-16	1.063676E-17
5.087159E+03	2.716193E-16	1.079585E-17
5.097114E+03	2.728120E-16	1.092755E-17
5.107069E+03	2.738790E-16	1.103238E-17
5.117025E+03	2.748305E-16	1.111062E-17
5.126980E+03	2.756868E-16	1.116303E-17
5.136935E+03	2.764596E-16	1.119012E-17
5.146890E+03	2.771554E-16	1.119227E-17
5.156846E+03	2.777807E-16	1.116994E-17
5.166801E+03	2.783415E-16	1.112363E-17
5.176756E+03	2.788388E-16	1.105369E-17
5.186712E+03	2.792680E-16	1.096037E-17
5.196667E+03	2.796282E-16	1.084412E-17
5.206622E+03	2.799150E-16	1.070535E-17
5.216578E+03	2.801200E-16	1.054444E-17
5.226533E+03	2.802378E-16	1.036198E-17
5.236488E+03	2.802658E-16	1.015882E-17
5.246443E+03	2.801988E-16	9.935850E-18
5.256399E+03	2.800256E-16	9.693924E-18
5.266354E+03	2.797465E-16	9.434486E-18
5.276309E+03	2.793526E-16	9.158878E-18
5.286265E+03	2.788374E-16	8.868775E-18
5.296220E+03	2.781939E-16	8.566126E-18
5.306175E+03	2.774119E-16	8.253114E-18
5.316131E+03	2.764842E-16	7.932410E-18
5.326086E+03	2.754041E-16	7.607136E-18
5.336041E+03	2.741659E-16	7.280942E-18
5.345996E+03	2.727625E-16	6.958010E-18
5.355952E+03	2.711914E-16	6.643258E-18
5.365907E+03	2.694488E-16	6.342231E-18
5.375862E+03	2.675358E-16	6.061212E-18
5.385818E+03	2.654489E-16	5.806929E-18
5.395773E+03	2.631938E-16	5.586627E-18
5.405728E+03	2.607688E-16	5.407316E-18
5.415684E+03	2.581784E-16	5.275490E-18
5.425639E+03	2.554222E-16	5.196203E-18
5.435594E+03	2.525036E-16	5.171933E-18
5.445549E+03	2.494278E-16	5.198944E-18
5.455505E+03	2.462043E-16	5.270262E-18
5.465460E+03	2.428451E-16	5.377941E-18
5.475415E+03	2.393584E-16	5.513706E-18
5.485371E+03	2.357528E-16	5.669624E-18
5.495326E+03	2.320401E-16	5.838543E-18
5.505281E+03	2.282270E-16	6.014100E-18
5.515237E+03	2.243323E-16	6.191194E-18
5.525192E+03	2.203731E-16	6.365631E-18
5.535147E+03	2.163678E-16	6.534119E-18
5.545102E+03	2.123449E-16	6.694464E-18
5.555058E+03	2.083261E-16	6.844968E-18
5.565013E+03	2.043490E-16	6.985082E-18
5.574968E+03	2.004421E-16	7.114518E-18
5.584924E+03	1.966444E-16	7.233865E-18
5.594879E+03	1.929929E-16	7.344084E-18
5.604834E+03	1.895275E-16	7.446640E-18
5.614790E+03	1.862863E-16	7.543282E-18
5.624745E+03	1.833068E-16	7.636022E-18
5.634700E+03	1.806254E-16	7.727068E-18
5.644655E+03	1.782808E-16	7.818915E-18
5.654611E+03	1.763021E-16	7.913809E-18
5.664566E+03	1.747219E-16	8.014229E-18
5.674521E+03	1.735700E-16	8.122607E-18
5.684477E+03	1.728694E-16	8.241066E-18
5.694432E+03	1.726428E-16	8.371701E-18
5.704387E+03	1.729050E-16	8.516160E-18
5.714343E+03	1.736693E-16	8.675926E-18
5.724298E+03	1.749417E-16	8.851994E-18
5.734253E+03	1.767221E-16	9.044895E-18
5.744209E+03	1.790036E-16	9.254637E-18
5.754164E+03	1.817696E-16	9.480524E-18
5.764119E+03	1.849997E-16	9.721458E-18
5.774074E+03	1.886572E-16	9.975274E-18
5.784030E+03	1.926925E-16	1.023891E-17
5.793985E+03	1.970476E-16	1.050864E-17
5.803940E+03	2.016412E-16	1.077935E-17
5.813896E+03	2.063832E-16	1.104530E-17
5.823851E+03	2.111676E-16	1.129981E-17
5.833806E+03	2.158779E-16	1.153564E-17
5.843762E+03	2.203915E-16	1.174526E-17
5.853717E+03	2.245824E-16	1.192115E-17
5.863672E+03	2.283320E-16	1.205638E-17
5.873627E+03	2.315344E-16	1.214504E-17
5.883583E+03	2.340943E-16	1.218212E-17
5.893538E+03	2.359379E-16	1.216417E-17
5.903493E+03	2.370108E-16	1.208917E-17
5.913449E+03	2.372905E-16	1.195714E-17
5.923404E+03	2.367709E-16	1.176935E-17
5.933359E+03	2.354772E-16	1.152890E-17
5.943315E+03	2.334601E-16	1.124042E-17
5.953270E+03	2.307910E-16	1.090963E-17
5.963225E+03	2.275654E-16	1.054343E-17
5.973180E+03	2.238911E-16	1.014910E-17
5.983136E+03	2.198781E-16	9.733825E-18
5.993091E+03	2.156539E-16	9.305193E-18
6.003046E+03	2.113312E-16	8.869702E-18
6.013002E+03	2.070255E-16	8.433494E-18
6.022957E+03	2.028412E-16	8.001697E-18
6.032912E+03	1.988673E-16	7.578296E-18
6.042868E+03	1.951870E-16	7.166528E-18
6.052823E+03	1.918647E-16	6.768430E-18
6.062778E+03	1.889593E-16	6.385382E-18
6.072733E+03	1.865142E-16	6.017835E-18
6.082689E+03	1.845655E-16	5.665635E-18
6.092644E+03	1.831374E-16	5.327978E-18
6.102599E+03	1.822558E-16	5.003882E-18
6.112555E+03	1.819349E-16	4.691843E-18
6.122510E+03	1.821921E-16	4.390335E-18
6.132465E+03	1.830379E-16	4.097599E-18
6.142421E+03	1.844884E-16	3.812034E-18
6.152376E+03	1.865596E-16	3.532146E-18
6.162331E+03	1.892618E-16	3.256607E-18
6.172286E+03	1.926104E-16	2.984720E-18
6.182242E+03	1.966172E-16	2.716642E-18
6.192197E+03	2.012909E-16	2.454083E-18
6.202152E+03	2.066327E-16	2.201365E-18
6.212108E+03	2.126442E-16	1.967349E-18
6.222063E+03	2.192861E-16	1.767667E-18
6.232018E+03	2.264884E-16	1.627271E-18
6.241974E+03	2.341513E-16	1.578024E-18
6.251929E+03	2.421594E-16	1.643154E-18
6.261884E+03	2.503848E-16	1.812995E-18
6.271839E+03	2.586879E-16	2.059128E-18
6.281795E+03	2.669257E-16	2.352467E-18
6.291750E+03	2.749587E-16	2.669794E-18
6.301705E+03	2.826576E-16	2.993780E-18
6.311661E+03	2.899152E-16	3.311435E-18
6.321616E+03	2.966303E-16	3.612553E-18
6.331571E+03	3.027436E-16	3.889311E-18
6.341527E+03	3.082073E-16	4.135489E-18
6.351482E+03	3.129968E-16	4.346382E-18
6.361437E+03	3.171152E-16	4.518772E-18
6.371392E+03	3.205808E-16	4.650703E-18
6.381348E+03	3.234275E-16	4.741443E-18
6.391303E+03	3.256966E-16	4.791349E-18
6.401258E+03	3.274438E-16	4.801951E-18
6.411214E+03	3.287249E-16	4.775755E-18
6.421169E+03	3.295920E-16	4.716247E-18
6.431124E+03	3.300993E-16	4.628063E-18
6.441080E+03	3.303012E-16	4.517135E-18
6.451035E+03	3.302413E-16	4.390768E-18
6.460990E+03	3.299674E-16	4.258122E-18
6.470945E+03	3.295183E-16	4.130318E-18
6.480901E+03	3.289410E-16	4.020786E-18
6.490856E+03	3.282782E-16	3.944874E-18
6.500811E+03	3.275870E-16	3.919194E-18
6.510767E+03	3.268903E-16	3.959341E-18
6.520722E+03	3.261834E-16	4.077207E-18
6.530677E+03	3.254585E-16	4.273132E-18
6.540633E+03	3.247118E-16	4.538551E-18
6.550588E+03	3.239282E-16	4.862647E-18
6.560543E+03	3.230987E-16	5.234480E-18
6.570498E+03	3.222001E-16	5.643753E-18
6.580454E+03	3.212023E-16	6.081284E-18
6.590409E+03	3.200724E-16	6.539075E-18
6.600364E+03	3.187692E-16	7.009989E-18
6.610320E+03	3.172526E-16	7.487693E-18
6.620275E+03	3.154756E-16	7.966244E-18
6.630230E+03	3.134065E-16	8.440455E-18
6.640186E+03	3.110115E-16	8.905370E-18
6.650141E+03	3.082754E-16	9.356780E-18
6.660096E+03	3.051967E-16	9.791141E-18
6.670051E+03	3.017808E-16	1.020541E-17
6.680007E+03	2.980543E-16	1.059754E-17
6.689962E+03	2.940519E-16	1.096621E-17
6.699917E+03	2.898216E-16	1.131098E-17
6.709873E+03	2.854117E-16	1.163196E-17
6.719828E+03	2.808825E-16	1.193017E-17
6.729783E+03	2.762930E-16	1.220717E-17
6.739739E+03	2.717040E-16	1.246503E-17
6.749694E+03	2.671762E-16	1.270637E-17
6.759649E+03	2.627724E-16	1.293435E-17
6.769604E+03	2.585512E-16	1.315241E-17
6.779560E+03	2.545688E-16	1.336426E-17
6.789515E+03	2.508763E-16	1.357374E-17
6.799470E+03	2.475306E-16	1.378536E-17
6.809426E+03	2.445763E-16	1.400323E-17
6.819381E+03	2.420568E-16	1.423171E-17
6.829336E+03	2.400115E-16	1.447512E-17
6.839292E+03	2.384783E-16	1.473787E-17
6.849247E+03	2.374877E-16	1.502410E-17
6.859202E+03	2.370591E-16	1.533732E-17
6.869157E+03	2.372206E-16	1.568165E-17
6.879113E+03	2.379772E-16	1.605973E-17
6.889068E+03	2.393339E-16	1.647413E-17
6.899023E+03	2.412818E-16	1.692636E-17
6.908979E+03	2.437985E-16	1.741683E-17
6.918934E+03	2.468588E-16	1.794552E-17
6.928889E+03	2.504148E-16	1.851050E-17
6.938845E+03	2.544136E-16	1.910914E-17
6.948800E+03	2.587994E-16	1.973823E-17
6.958755E+03	2.634954E-16	2.039261E-17
6.968710E+03	2.684284E-16	2.106698E-17
6.978666E+03	2.735149E-16	2.175486E-17
6.988621E+03	2.786820E-16	2.245021E-17
6.998576E+03	2.838470E-16	2.314588E-17
7.008532E+03	2.889422E-16	2.383564E-17
7.018487E+03	2.939165E-16	2.451440E-17
7.028442E+03	2.987317E-16	2.517797E-17
7.038398E+03	3.033605E-16	2.582300E-17
7.048353E+03	3.078150E-16	2.644948E-17
7.058308E+03	3.121031E-16	2.705714E-17
7.068263E+03	3.162702E-16	2.764902E-17
7.078219E+03	3.203604E-16	2.822823E-17
7.088174E+03	3.244452E-16	2.880045E-17
7.098129E+03	3.285868E-16	2.937076E-17
7.108085E+03	3.328625E-16	2.994574E-17
7.118040E+03	3.373396E-16	3.053121E-17
7.127995E+03	3.420875E-16	3.113331E-17
7.137951E+03	3.471558E-16	3.175649E-17
7.147906E+03	3.525827E-16	3.240415E-17
7.157861E+03	3.583864E-16	3.307786E-17
7.167817E+03	3.645561E-16	3.377648E-17
7.177772E+03	3.710628E-16	3.449706E-17
7.187727E+03	3.778370E-16	3.523282E-17
7.197682E+03	3.847815E-16	3.597425E-17
7.207638E+03	3.917607E-16	3.670810E-17
7.217593E+03	3.986160E-16	3.741890E-17
7.227548E+03	4.051488E-16	3.808732E-17
7.237504E+03	4.111348E-16	3.869159E-17
7.247459E+03	4.163426E-16	3.920931E-17
7.257414E+03	4.205219E-16	3.961639E-17
7.267370E+03	4.234264E-16	3.988934E-17
7.277325E+03	4.248289E-16	4.000670E-17
7.287280E+03	4.245536E-16	3.995220E-17
7.297235E+03	4.224470E-16	3.971205E-17
7.307191E+03	4.184426E-16	3.928103E-17
7.317146E+03	4.125362E-16	3.866016E-17
7.327101E+03	4.048012E-16	3.785805E-17
7.337057E+03	3.953910E-16	3.689105E-17
7.347012E+03	3.845218E-16	3.578153E-17
7.356967E+03	3.724477E-16	3.455537E-17
7.366923E+03	3.594663E-16	3.324238E-17
7.376878E+03	3.458707E-16	3.187173E-17
7.386833E+03	3.319649E-16	3.047327E-17
7.396788E+03	3.180123E-16	2.907273E-17
7.406744E+03	3.042533E-16	2.769333E-17
7.416699E+03	2.908933E-16	2.635465E-17
7.426654E+03	2.780920E-16	2.507174E-17
7.436610E+03	2.659691E-16	2.385562E-17
7.446565E+03	2.546070E-16	2.271367E-17
7.456520E+03	2.440616E-16	2.165039E-17
7.466476E+03	2.343496E-16	2.066627E-17
7.476431E+03	2.254681E-16	1.976003E-17
7.486386E+03	2.174023E-16	1.892926E-17
7.496341E+03	2.101178E-16	1.816984E-17
7.506297E+03	2.035713E-16	1.747688E-17
7.516252E+03	1.977163E-16	1.684528E-17
7.526207E+03	1.924989E-16	1.626931E-17
7.536163E+03	1.878736E-16	1.574404E-17
7.546118E+03	1.837904E-16	1.526421E-17
7.556073E+03	1.802122E-16	1.482569E-17
7.566029E+03	1.770998E-16	1.442419E-17
7.575984E+03	1.744315E-16	1.405692E-17
7.585939E+03	1.721896E-16	1.372137E-17
7.595894E+03	1.703648E-16	1.341570E-17
7.605850E+03	1.689526E-16	1.313836E-17
7.615805E+03	1.679497E-16	1.288786E-17
7.625760E+03	1.673502E-16	1.266239E-17
7.635716E+03	1.671470E-16	1.246001E-17
7.645671E+03	1.673153E-16	1.227740E-17
7.655626E+03	1.678375E-16	1.211178E-17
7.665582E+03	1.686815E-16	1.195933E-17
7.675537E+03	1.698106E-16	1.181597E-17
7.685492E+03	1.711889E-16	1.167780E-17
7.695447E+03	1.727778E-16	1.154083E-17
7.705403E+03	1.745298E-16	1.140068E-17
7.715358E+03	1.764063E-16	1.125374E-17
7.725313E+03	1.783600E-16	1.109605E-17
