#wls	flux	fluxerr
1.592848E+03	4.065854E-18	4.108591E-18
1.632669E+03	4.282297E-18	4.289516E-18
1.672491E+03	4.487099E-18	4.454582E-18
1.712312E+03	4.676791E-18	4.600622E-18
1.752133E+03	4.846870E-18	4.723592E-18
1.791954E+03	4.989298E-18	4.816215E-18
1.831775E+03	5.091830E-18	4.867506E-18
1.871597E+03	5.143182E-18	4.867866E-18
1.911418E+03	5.128731E-18	4.805036E-18
1.951239E+03	5.041437E-18	4.674380E-18
1.991060E+03	4.887234E-18	4.483488E-18
2.030881E+03	4.694200E-18	4.259857E-18
2.070703E+03	4.517829E-18	4.054510E-18
2.110524E+03	4.434759E-18	3.935002E-18
2.150345E+03	4.514246E-18	3.959267E-18
2.190166E+03	4.794208E-18	4.155141E-18
2.229987E+03	5.274906E-18	4.516523E-18
2.269809E+03	5.922732E-18	5.008523E-18
2.309630E+03	6.691541E-18	5.587088E-18
2.349451E+03	7.537345E-18	6.211827E-18
2.389272E+03	8.424515E-18	6.850983E-18
2.429093E+03	9.334700E-18	7.488183E-18
2.468915E+03	1.025317E-17	8.110707E-18
2.508736E+03	1.117751E-17	8.716094E-18
2.548557E+03	1.210832E-17	9.304287E-18
2.588378E+03	1.304484E-17	9.874192E-18
2.628199E+03	1.399442E-17	1.043078E-17
2.668021E+03	1.495943E-17	1.097503E-17
2.707842E+03	1.594180E-17	1.150747E-17
2.747663E+03	1.694938E-17	1.203275E-17
2.787484E+03	1.798119E-17	1.254895E-17
2.827305E+03	1.904435E-17	1.305976E-17
2.867127E+03	2.014121E-17	1.356530E-17
2.906948E+03	2.127341E-17	1.406506E-17
2.946769E+03	2.244684E-17	1.456121E-17
2.986590E+03	2.365943E-17	1.505055E-17
2.996546E+03	2.396979E-17	1.517230E-17
3.006501E+03	2.428140E-17	1.529271E-17
3.016456E+03	2.459677E-17	1.541335E-17
3.026411E+03	2.491631E-17	1.553443E-17
3.036367E+03	2.523923E-17	1.565542E-17
3.046322E+03	2.557243E-17	1.578053E-17
3.056277E+03	2.590860E-17	1.590517E-17
3.066233E+03	2.625500E-17	1.603374E-17
3.076188E+03	2.660839E-17	1.616417E-17
3.086143E+03	2.696554E-17	1.629443E-17
3.096099E+03	2.733122E-17	1.642735E-17
3.106054E+03	2.769957E-17	1.655933E-17
3.116009E+03	2.807279E-17	1.669166E-17
3.125964E+03	2.845311E-17	1.682559E-17
3.135920E+03	2.883470E-17	1.695763E-17
3.145875E+03	2.922258E-17	1.709068E-17
3.155830E+03	2.961363E-17	1.722287E-17
3.165786E+03	3.000747E-17	1.735394E-17
3.175741E+03	3.040378E-17	1.748367E-17
3.185696E+03	3.080498E-17	1.761341E-17
3.195652E+03	3.120798E-17	1.774137E-17
3.205607E+03	3.161250E-17	1.786734E-17
3.215562E+03	3.202104E-17	1.799271E-17
3.225517E+03	3.243335E-17	1.811731E-17
3.235473E+03	3.284640E-17	1.823939E-17
3.245428E+03	3.326275E-17	1.836036E-17
3.255383E+03	3.367939E-17	1.847854E-17
3.265339E+03	3.409891E-17	1.859532E-17
3.275294E+03	3.452116E-17	1.871059E-17
3.285249E+03	3.494594E-17	1.882420E-17
3.295205E+03	3.537311E-17	1.893605E-17
3.305160E+03	3.580251E-17	1.904602E-17
3.315115E+03	3.623405E-17	1.915405E-17
3.325070E+03	3.666758E-17	1.926001E-17
3.335026E+03	3.710582E-17	1.936531E-17
3.344981E+03	3.754310E-17	1.946694E-17
3.354936E+03	3.798494E-17	1.956777E-17
3.364892E+03	3.843130E-17	1.966771E-17
3.374847E+03	3.887932E-17	1.976526E-17
3.384802E+03	3.932902E-17	1.986041E-17
3.394758E+03	3.978319E-17	1.995452E-17
3.404713E+03	4.024184E-17	2.004757E-17
3.414668E+03	4.070224E-17	2.013814E-17
3.424623E+03	4.117004E-17	2.022898E-17
3.434579E+03	4.163979E-17	2.031736E-17
3.444534E+03	4.211434E-17	2.040464E-17
3.454489E+03	4.259664E-17	2.049217E-17
3.464445E+03	4.308412E-17	2.057864E-17
3.474400E+03	4.357697E-17	2.066408E-17
3.484355E+03	4.407544E-17	2.074855E-17
3.494311E+03	4.458256E-17	2.083341E-17
3.504266E+03	4.509589E-17	2.091742E-17
3.514221E+03	4.561854E-17	2.100195E-17
3.524176E+03	4.615089E-17	2.108706E-17
3.534132E+03	4.669063E-17	2.117161E-17
3.544087E+03	4.724096E-17	2.125696E-17
3.554042E+03	4.780508E-17	2.134440E-17
3.563998E+03	4.837812E-17	2.143165E-17
3.573953E+03	4.896604E-17	2.152121E-17
3.583908E+03	4.956676E-17	2.161203E-17
3.593864E+03	5.018092E-17	2.170424E-17
3.603819E+03	5.081189E-17	2.179913E-17
3.613774E+03	5.145766E-17	2.189567E-17
3.623729E+03	5.212161E-17	2.199513E-17
3.633685E+03	5.280451E-17	2.209762E-17
3.643640E+03	5.350703E-17	2.220324E-17
3.653595E+03	5.422998E-17	2.231208E-17
3.663551E+03	5.497408E-17	2.242423E-17
3.673506E+03	5.574002E-17	2.253973E-17
3.683461E+03	5.652854E-17	2.265865E-17
3.693417E+03	5.734295E-17	2.278206E-17
3.703372E+03	5.818123E-17	2.290887E-17
3.713327E+03	5.904661E-17	2.304009E-17
3.723282E+03	5.993693E-17	2.317460E-17
3.733238E+03	6.085530E-17	2.331330E-17
3.743193E+03	6.180464E-17	2.345702E-17
3.753148E+03	6.277996E-17	2.360352E-17
3.763104E+03	6.378391E-17	2.375352E-17
3.773059E+03	6.481916E-17	2.390769E-17
3.783014E+03	6.588284E-17	2.406464E-17
3.792970E+03	6.697459E-17	2.422393E-17
3.802925E+03	6.809646E-17	2.438599E-17
3.812880E+03	6.924512E-17	2.454931E-17
3.822835E+03	7.042211E-17	2.471415E-17
3.832791E+03	7.162632E-17	2.487980E-17
3.842746E+03	7.285621E-17	2.504544E-17
3.852701E+03	7.410745E-17	2.520932E-17
3.862657E+03	7.538332E-17	2.537231E-17
3.872612E+03	7.667623E-17	2.553161E-17
3.882567E+03	7.798900E-17	2.568797E-17
3.892523E+03	7.931613E-17	2.583938E-17
3.902478E+03	8.065462E-17	2.598471E-17
3.912433E+03	8.200117E-17	2.612280E-17
3.922388E+03	8.335504E-17	2.625332E-17
3.932344E+03	8.470992E-17	2.637423E-17
3.942299E+03	8.606482E-17	2.648522E-17
3.952254E+03	8.741333E-17	2.658434E-17
3.962210E+03	8.875175E-17	2.667055E-17
3.972165E+03	9.007914E-17	2.674369E-17
3.982120E+03	9.139205E-17	2.680286E-17
3.992076E+03	9.268460E-17	2.684654E-17
4.002031E+03	9.395393E-17	2.687414E-17
4.011986E+03	9.519752E-17	2.688519E-17
4.021941E+03	9.641595E-17	2.688015E-17
4.031897E+03	9.760494E-17	2.685813E-17
4.041852E+03	9.876610E-17	2.681989E-17
4.051807E+03	9.989370E-17	2.676422E-17
4.061763E+03	1.009930E-16	2.669288E-17
4.071718E+03	1.020595E-16	2.660503E-17
4.081673E+03	1.030972E-16	2.650204E-17
4.091629E+03	1.041077E-16	2.638470E-17
4.101584E+03	1.050910E-16	2.625328E-17
4.111539E+03	1.060501E-16	2.610882E-17
4.121494E+03	1.069908E-16	2.595304E-17
4.131450E+03	1.079119E-16	2.578588E-17
4.141405E+03	1.088178E-16	2.560857E-17
4.151360E+03	1.097154E-16	2.542294E-17
4.161316E+03	1.106071E-16	2.522962E-17
4.171271E+03	1.114980E-16	2.502984E-17
4.181226E+03	1.123908E-16	2.482427E-17
4.191182E+03	1.132887E-16	2.461356E-17
4.201137E+03	1.142018E-16	2.439988E-17
4.211092E+03	1.151286E-16	2.418277E-17
4.221047E+03	1.160795E-16	2.396425E-17
4.231003E+03	1.170532E-16	2.374381E-17
4.240958E+03	1.180599E-16	2.352331E-17
4.250913E+03	1.190985E-16	2.330219E-17
4.260869E+03	1.201792E-16	2.308213E-17
4.270824E+03	1.213011E-16	2.286249E-17
4.280779E+03	1.224742E-16	2.264477E-17
4.290735E+03	1.236974E-16	2.242827E-17
4.300690E+03	1.249789E-16	2.221389E-17
4.310645E+03	1.263217E-16	2.200165E-17
4.320601E+03	1.277292E-16	2.179149E-17
4.330556E+03	1.292067E-16	2.158367E-17
4.340511E+03	1.307572E-16	2.137799E-17
4.350466E+03	1.323835E-16	2.117416E-17
4.360422E+03	1.340900E-16	2.097218E-17
4.370377E+03	1.358810E-16	2.077190E-17
4.380332E+03	1.377557E-16	2.057238E-17
4.390288E+03	1.397171E-16	2.037326E-17
4.400243E+03	1.417674E-16	2.017404E-17
4.410198E+03	1.439058E-16	1.997373E-17
4.420154E+03	1.461302E-16	1.977127E-17
4.430109E+03	1.484419E-16	1.956601E-17
4.440064E+03	1.508342E-16	1.935629E-17
4.450019E+03	1.533031E-16	1.914090E-17
4.459975E+03	1.558431E-16	1.891853E-17
4.469930E+03	1.584472E-16	1.868773E-17
4.479885E+03	1.611039E-16	1.844669E-17
4.489841E+03	1.638003E-16	1.819358E-17
4.499796E+03	1.665285E-16	1.792733E-17
4.509751E+03	1.692698E-16	1.764584E-17
4.519707E+03	1.720088E-16	1.734761E-17
4.529662E+03	1.747285E-16	1.703124E-17
4.539617E+03	1.774141E-16	1.669570E-17
4.549572E+03	1.800425E-16	1.633951E-17
4.559528E+03	1.825981E-16	1.596209E-17
4.569483E+03	1.850632E-16	1.556295E-17
4.579438E+03	1.874210E-16	1.514190E-17
4.589394E+03	1.896537E-16	1.469888E-17
4.599349E+03	1.917475E-16	1.423442E-17
4.609304E+03	1.936963E-16	1.374975E-17
4.619260E+03	1.954863E-16	1.324567E-17
4.629215E+03	1.971117E-16	1.272369E-17
4.639170E+03	1.985724E-16	1.218577E-17
4.649125E+03	1.998686E-16	1.163392E-17
4.659081E+03	2.010016E-16	1.107020E-17
4.669036E+03	2.019804E-16	1.049713E-17
4.678991E+03	2.028149E-16	9.917179E-18
4.688947E+03	2.035143E-16	9.332768E-18
4.698902E+03	2.040986E-16	8.746743E-18
4.708857E+03	2.045789E-16	8.161510E-18
4.718813E+03	2.049759E-16	7.579881E-18
4.728768E+03	2.053085E-16	7.004646E-18
4.738723E+03	2.055989E-16	6.438867E-18
4.748678E+03	2.058642E-16	5.885765E-18
4.758634E+03	2.061261E-16	5.349309E-18
4.768589E+03	2.064030E-16	4.834328E-18
4.778544E+03	2.067095E-16	4.347107E-18
4.788500E+03	2.070688E-16	3.896434E-18
4.798455E+03	2.074876E-16	3.494029E-18
4.808410E+03	2.079861E-16	3.156017E-18
4.818366E+03	2.085725E-16	2.902254E-18
4.828321E+03	2.092585E-16	2.753630E-18
4.838276E+03	2.100488E-16	2.724956E-18
4.848231E+03	2.109539E-16	2.814079E-18
4.858187E+03	2.119745E-16	3.002401E-18
4.868142E+03	2.131144E-16	3.265899E-18
4.878097E+03	2.143723E-16	3.582153E-18
4.888053E+03	2.157475E-16	3.933490E-18
4.898008E+03	2.172368E-16	4.307034E-18
4.907963E+03	2.188271E-16	4.693511E-18
4.917919E+03	2.205134E-16	5.086494E-18
4.927874E+03	2.222860E-16	5.481278E-18
4.937829E+03	2.241254E-16	5.874118E-18
4.947784E+03	2.260239E-16	6.262326E-18
4.957740E+03	2.279592E-16	6.643343E-18
4.967695E+03	2.299189E-16	7.015196E-18
4.977650E+03	2.318847E-16	7.375968E-18
4.987606E+03	2.338362E-16	7.723790E-18
4.997561E+03	2.357587E-16	8.057074E-18
5.007516E+03	2.376385E-16	8.374347E-18
5.017472E+03	2.394611E-16	8.674165E-18
5.027427E+03	2.412107E-16	8.955098E-18
5.037382E+03	2.428794E-16	9.216057E-18
5.047337E+03	2.444584E-16	9.455993E-18
5.057293E+03	2.459442E-16	9.674131E-18
5.067248E+03	2.473295E-16	9.869635E-18
5.077203E+03	2.486146E-16	1.004204E-17
5.087159E+03	2.497986E-16	1.019093E-17
5.097114E+03	2.508818E-16	1.031603E-17
5.107069E+03	2.518627E-16	1.041705E-17
5.117025E+03	2.527490E-16	1.049419E-17
5.126980E+03	2.535375E-16	1.054728E-17
5.136935E+03	2.542362E-16	1.057668E-17
5.146890E+03	2.548448E-16	1.058251E-17
5.156846E+03	2.553623E-16	1.056493E-17
5.166801E+03	2.557961E-16	1.052452E-17
5.176756E+03	2.561475E-16	1.046170E-17
5.186712E+03	2.564112E-16	1.037671E-17
5.196667E+03	2.565904E-16	1.027020E-17
5.206622E+03	2.566815E-16	1.014267E-17
5.216578E+03	2.566895E-16	9.995059E-18
5.226533E+03	2.566074E-16	9.827920E-18
5.236488E+03	2.564365E-16	9.642272E-18
5.246443E+03	2.561719E-16	9.439026E-18
5.256399E+03	2.558118E-16	9.219355E-18
5.266354E+03	2.553538E-16	8.984583E-18
5.276309E+03	2.547929E-16	8.736123E-18
5.286265E+03	2.541297E-16	8.475798E-18
5.296220E+03	2.533593E-16	8.205473E-18
5.306175E+03	2.524798E-16	7.927384E-18
5.316131E+03	2.514896E-16	7.644077E-18
5.326086E+03	2.503818E-16	7.358279E-18
5.336041E+03	2.491611E-16	7.073446E-18
5.345996E+03	2.478217E-16	6.793130E-18
5.355952E+03	2.463641E-16	6.521501E-18
5.365907E+03	2.447889E-16	6.263177E-18
5.375862E+03	2.430953E-16	6.023128E-18
5.385818E+03	2.412884E-16	5.806786E-18
5.395773E+03	2.393657E-16	5.619522E-18
5.405728E+03	2.373338E-16	5.466776E-18
5.415684E+03	2.351947E-16	5.353354E-18
5.425639E+03	2.329536E-16	5.283182E-18
5.435594E+03	2.306166E-16	5.258372E-18
5.445549E+03	2.281907E-16	5.276326E-18
5.455505E+03	2.256842E-16	5.331937E-18
5.465460E+03	2.231042E-16	5.419341E-18
5.475415E+03	2.204659E-16	5.532631E-18
5.485371E+03	2.177760E-16	5.665850E-18
5.495326E+03	2.150488E-16	5.813671E-18
5.505281E+03	2.122997E-16	5.971413E-18
5.515237E+03	2.095403E-16	6.134969E-18
5.525192E+03	2.067878E-16	6.301080E-18
5.535147E+03	2.040579E-16	6.467104E-18
5.545102E+03	2.013696E-16	6.631104E-18
5.555058E+03	1.987403E-16	6.791642E-18
5.565013E+03	1.961904E-16	6.947855E-18
5.574968E+03	1.937362E-16	7.099166E-18
5.584924E+03	1.914013E-16	7.245609E-18
5.594879E+03	1.892024E-16	7.387296E-18
5.604834E+03	1.871606E-16	7.524757E-18
5.614790E+03	1.852984E-16	7.658818E-18
5.624745E+03	1.836295E-16	7.790131E-18
5.634700E+03	1.821727E-16	7.919695E-18
5.644655E+03	1.809456E-16	8.048575E-18
5.654611E+03	1.799618E-16	8.177764E-18
5.664566E+03	1.792337E-16	8.308223E-18
5.674521E+03	1.787731E-16	8.440929E-18
5.684477E+03	1.785855E-16	8.576558E-18
5.694432E+03	1.786795E-16	8.715907E-18
5.704387E+03	1.790529E-16	8.859208E-18
5.714343E+03	1.797078E-16	9.006832E-18
5.724298E+03	1.806386E-16	9.158700E-18
5.734253E+03	1.818336E-16	9.314320E-18
5.744209E+03	1.832827E-16	9.473185E-18
5.754164E+03	1.849628E-16	9.634021E-18
5.764119E+03	1.868522E-16	9.795502E-18
5.774074E+03	1.889217E-16	9.955824E-18
5.784030E+03	1.911393E-16	1.011294E-17
5.793985E+03	1.934620E-16	1.026414E-17
5.803940E+03	1.958504E-16	1.040685E-17
5.813896E+03	1.982553E-16	1.053795E-17
5.823851E+03	2.006267E-16	1.065426E-17
5.833806E+03	2.029128E-16	1.075257E-17
5.843762E+03	2.050619E-16	1.082969E-17
5.853717E+03	2.070235E-16	1.088265E-17
5.863672E+03	2.087504E-16	1.090873E-17
5.873627E+03	2.101978E-16	1.090554E-17
5.883583E+03	2.113344E-16	1.087155E-17
5.893538E+03	2.121275E-16	1.080536E-17
5.903493E+03	2.125580E-16	1.070646E-17
5.913449E+03	2.126170E-16	1.057506E-17
5.923404E+03	2.123079E-16	1.041213E-17
5.933359E+03	2.116375E-16	1.021898E-17
5.943315E+03	2.106316E-16	9.997947E-18
5.953270E+03	2.093135E-16	9.751290E-18
5.963225E+03	2.077278E-16	9.482322E-18
5.973180E+03	2.059118E-16	9.193959E-18
5.983136E+03	2.039168E-16	8.889678E-18
5.993091E+03	2.017946E-16	8.572851E-18
6.003046E+03	1.995962E-16	8.246647E-18
6.013002E+03	1.973774E-16	7.914225E-18
6.022957E+03	1.951879E-16	7.578263E-18
6.032912E+03	1.930750E-16	7.241115E-18
6.042868E+03	1.910895E-16	6.905002E-18
6.052823E+03	1.892676E-16	6.571344E-18
6.062778E+03	1.876520E-16	6.241559E-18
6.072733E+03	1.862750E-16	5.916458E-18
6.082689E+03	1.851666E-16	5.596572E-18
6.092644E+03	1.843507E-16	5.282063E-18
6.102599E+03	1.838518E-16	4.972959E-18
6.112555E+03	1.836864E-16	4.668955E-18
6.122510E+03	1.838698E-16	4.369675E-18
6.132465E+03	1.844166E-16	4.074734E-18
6.142421E+03	1.853318E-16	3.783650E-18
6.152376E+03	1.866236E-16	3.496274E-18
6.162331E+03	1.882954E-16	3.212790E-18
6.172286E+03	1.903468E-16	2.934057E-18
6.182242E+03	1.927739E-16	2.662051E-18
6.192197E+03	1.955659E-16	2.400532E-18
6.202152E+03	1.987114E-16	2.156180E-18
6.212108E+03	2.021902E-16	1.939941E-18
6.222063E+03	2.059733E-16	1.768458E-18
6.232018E+03	2.100290E-16	1.663773E-18
6.241974E+03	2.143140E-16	1.647840E-18
6.251929E+03	2.187857E-16	1.727066E-18
6.261884E+03	2.233870E-16	1.885366E-18
6.271839E+03	2.280649E-16	2.099642E-18
6.281795E+03	2.327630E-16	2.348591E-18
6.291750E+03	2.374220E-16	2.615572E-18
6.301705E+03	2.419926E-16	2.888321E-18
6.311661E+03	2.464210E-16	3.157597E-18
6.321616E+03	2.506609E-16	3.416302E-18
6.331571E+03	2.546750E-16	3.658850E-18
6.341527E+03	2.584237E-16	3.880608E-18
6.351482E+03	2.618873E-16	4.077993E-18
6.361437E+03	2.650474E-16	4.248101E-18
6.371392E+03	2.678870E-16	4.388624E-18
6.381348E+03	2.704118E-16	4.498186E-18
6.391303E+03	2.726182E-16	4.575813E-18
6.401258E+03	2.745181E-16	4.621349E-18
6.411214E+03	2.761248E-16	4.635250E-18
6.421169E+03	2.774554E-16	4.618655E-18
6.431124E+03	2.785300E-16	4.573431E-18
6.441080E+03	2.793706E-16	4.502241E-18
6.451035E+03	2.800031E-16	4.408705E-18
6.460990E+03	2.804470E-16	4.297395E-18
6.470945E+03	2.807238E-16	4.174208E-18
6.480901E+03	2.808608E-16	4.046673E-18
6.490856E+03	2.808691E-16	3.923891E-18
6.500811E+03	2.807711E-16	3.817101E-18
6.510767E+03	2.805719E-16	3.739140E-18
6.520722E+03	2.802901E-16	3.704213E-18
6.530677E+03	2.799238E-16	3.726053E-18
6.540633E+03	2.794783E-16	3.816282E-18
6.550588E+03	2.789562E-16	3.978609E-18
6.560543E+03	2.783509E-16	4.206831E-18
6.570498E+03	2.776571E-16	4.491824E-18
6.580454E+03	2.768751E-16	4.823781E-18
6.590409E+03	2.759939E-16	5.193129E-18
6.600364E+03	2.750059E-16	5.591343E-18
6.610320E+03	2.739077E-16	6.011140E-18
6.620275E+03	2.726937E-16	6.446313E-18
6.630230E+03	2.713599E-16	6.891642E-18
6.640186E+03	2.699090E-16	7.342858E-18
6.650141E+03	2.683392E-16	7.796243E-18
6.660096E+03	2.666591E-16	8.248901E-18
6.670051E+03	2.648778E-16	8.698422E-18
6.680007E+03	2.630078E-16	9.142918E-18
6.689962E+03	2.610687E-16	9.581127E-18
6.699917E+03	2.590799E-16	1.001214E-17
6.709873E+03	2.570639E-16	1.043552E-17
6.719828E+03	2.550425E-16	1.085110E-17
6.729783E+03	2.530496E-16	1.125958E-17
6.739739E+03	2.511104E-16	1.166158E-17
6.749694E+03	2.492581E-16	1.205844E-17
6.759649E+03	2.475230E-16	1.245163E-17
6.769604E+03	2.459321E-16	1.284278E-17
6.779560E+03	2.445218E-16	1.323426E-17
6.789515E+03	2.433145E-16	1.362797E-17
6.799470E+03	2.423446E-16	1.402668E-17
6.809426E+03	2.416349E-16	1.443277E-17
6.819381E+03	2.412097E-16	1.484883E-17
6.829336E+03	2.410939E-16	1.527771E-17
6.839292E+03	2.413036E-16	1.572181E-17
6.849247E+03	2.418586E-16	1.618386E-17
6.859202E+03	2.427716E-16	1.666623E-17
6.869157E+03	2.440491E-16	1.717091E-17
6.879113E+03	2.457004E-16	1.770003E-17
6.889068E+03	2.477271E-16	1.825521E-17
6.899023E+03	2.501271E-16	1.883773E-17
6.908979E+03	2.528904E-16	1.944815E-17
6.918934E+03	2.560098E-16	2.008715E-17
6.928889E+03	2.594740E-16	2.075497E-17
6.938845E+03	2.632538E-16	2.145023E-17
6.948800E+03	2.673380E-16	2.217282E-17
6.958755E+03	2.716984E-16	2.292103E-17
6.968710E+03	2.763044E-16	2.369276E-17
6.978666E+03	2.811318E-16	2.448618E-17
6.988621E+03	2.861522E-16	2.529897E-17
6.998576E+03	2.913342E-16	2.612827E-17
7.008532E+03	2.966560E-16	2.697193E-17
7.018487E+03	3.020902E-16	2.782713E-17
7.028442E+03	3.076167E-16	2.869154E-17
7.038398E+03	3.132240E-16	2.956353E-17
7.048353E+03	3.188959E-16	3.044095E-17
7.058308E+03	3.246294E-16	3.132281E-17
7.068263E+03	3.304115E-16	3.220713E-17
7.078219E+03	3.362459E-16	3.309350E-17
7.088174E+03	3.421292E-16	3.398076E-17
7.098129E+03	3.480727E-16	3.486926E-17
7.108085E+03	3.540630E-16	3.575680E-17
7.118040E+03	3.601083E-16	3.664335E-17
7.127995E+03	3.661976E-16	3.752694E-17
7.137951E+03	3.723187E-16	3.840537E-17
7.147906E+03	3.784513E-16	3.927559E-17
7.157861E+03	3.845600E-16	4.013290E-17
7.167817E+03	3.906039E-16	4.097195E-17
7.177772E+03	3.965301E-16	4.178602E-17
7.187727E+03	4.022793E-16	4.256766E-17
7.197682E+03	4.077572E-16	4.330565E-17
7.207638E+03	4.128871E-16	4.399052E-17
7.217593E+03	4.175715E-16	4.461062E-17
7.227548E+03	4.216940E-16	4.515224E-17
7.237504E+03	4.251464E-16	4.560263E-17
7.247459E+03	4.278271E-16	4.594982E-17
7.257414E+03	4.296276E-16	4.618130E-17
7.267370E+03	4.304494E-16	4.628582E-17
7.277325E+03	4.302209E-16	4.625536E-17
7.287280E+03	4.288784E-16	4.608301E-17
7.297235E+03	4.263877E-16	4.576541E-17
7.307191E+03	4.227408E-16	4.530240E-17
7.317146E+03	4.179581E-16	4.469721E-17
7.327101E+03	4.120762E-16	4.395515E-17
7.337057E+03	4.051759E-16	4.308657E-17
7.347012E+03	3.973613E-16	4.210450E-17
7.356967E+03	3.887336E-16	4.102184E-17
7.366923E+03	3.794419E-16	3.985659E-17
7.376878E+03	3.696111E-16	3.862423E-17
7.386833E+03	3.593966E-16	3.734328E-17
7.396788E+03	3.489410E-16	3.603075E-17
7.406744E+03	3.383707E-16	3.470171E-17
7.416699E+03	3.278174E-16	3.337147E-17
7.426654E+03	3.173991E-16	3.205359E-17
7.436610E+03	3.072055E-16	3.075840E-17
7.446565E+03	2.973294E-16	2.949614E-17
7.456520E+03	2.878385E-16	2.827414E-17
7.466476E+03	2.787814E-16	2.709752E-17
7.476431E+03	2.701977E-16	2.597016E-17
7.486386E+03	2.621185E-16	2.489484E-17
7.496341E+03	2.545601E-16	2.387264E-17
7.506297E+03	2.475299E-16	2.290361E-17
7.516252E+03	2.410283E-16	2.198692E-17
7.526207E+03	2.350500E-16	2.112107E-17
7.536163E+03	2.295888E-16	2.030435E-17
7.546118E+03	2.246319E-16	1.953432E-17
7.556073E+03	2.201615E-16	1.880805E-17
7.566029E+03	2.161647E-16	1.812295E-17
7.575984E+03	2.126278E-16	1.747628E-17
7.585939E+03	2.095303E-16	1.686471E-17
7.595894E+03	2.068578E-16	1.628537E-17
7.605850E+03	2.045891E-16	1.573483E-17
7.615805E+03	2.027058E-16	1.520990E-17
7.625760E+03	2.011950E-16	1.470778E-17
7.635716E+03	2.000340E-16	1.422495E-17
7.645671E+03	1.991992E-16	1.375792E-17
7.655626E+03	1.986751E-16	1.330379E-17
7.665582E+03	1.984365E-16	1.285909E-17
7.675537E+03	1.984605E-16	1.242061E-17
7.685492E+03	1.987234E-16	1.198523E-17
7.695447E+03	1.992018E-16	1.154997E-17
7.705403E+03	1.998749E-16	1.111216E-17
7.715358E+03	2.007168E-16	1.066904E-17
7.725313E+03	2.017056E-16	1.021826E-17
