#wls	flux	fluxerr
1.592848E+03	4.033253E-18	2.766548E-18
1.632669E+03	4.234639E-18	2.882126E-18
1.672491E+03	4.421896E-18	2.985661E-18
1.712312E+03	4.593979E-18	3.076633E-18
1.752133E+03	4.745137E-18	3.151428E-18
1.791954E+03	4.866851E-18	3.204744E-18
1.831775E+03	4.950015E-18	3.231105E-18
1.871597E+03	4.981584E-18	3.222711E-18
1.911418E+03	4.949761E-18	3.172888E-18
1.951239E+03	4.847643E-18	3.078383E-18
1.991060E+03	4.681724E-18	2.944565E-18
2.030881E+03	4.478866E-18	2.789369E-18
2.070703E+03	4.293869E-18	2.647313E-18
2.110524E+03	4.197659E-18	2.561387E-18
2.150345E+03	4.253873E-18	2.568348E-18
2.190166E+03	4.498213E-18	2.686563E-18
2.229987E+03	4.926283E-18	2.909690E-18
2.269809E+03	5.505711E-18	3.215069E-18
2.309630E+03	6.189869E-18	3.572589E-18
2.349451E+03	6.937326E-18	3.956304E-18
2.389272E+03	7.713277E-18	4.345095E-18
2.429093E+03	8.498904E-18	4.727687E-18
2.468915E+03	9.281611E-18	5.096741E-18
2.508736E+03	1.005772E-17	5.450111E-18
2.548557E+03	1.082617E-17	5.787153E-18
2.588378E+03	1.158949E-17	6.109161E-18
2.628199E+03	1.234796E-17	6.416182E-18
2.668021E+03	1.310535E-17	6.710046E-18
2.707842E+03	1.386565E-17	6.992577E-18
2.747663E+03	1.462896E-17	7.263552E-18
2.787484E+03	1.539882E-17	7.524420E-18
2.827305E+03	1.617665E-17	7.775501E-18
2.867127E+03	1.696572E-17	8.017942E-18
2.906948E+03	1.776492E-17	8.250740E-18
2.946769E+03	1.858174E-17	8.476853E-18
2.986590E+03	1.941264E-17	8.694048E-18
2.996546E+03	1.962207E-17	8.746663E-18
3.006501E+03	1.983358E-17	8.799218E-18
3.016456E+03	2.004723E-17	8.851710E-18
3.026411E+03	2.026104E-17	8.903260E-18
3.036367E+03	2.047890E-17	8.955561E-18
3.046322E+03	2.069984E-17	9.008164E-18
3.056277E+03	2.092676E-17	9.062300E-18
3.066233E+03	2.115919E-17	9.117726E-18
3.076188E+03	2.139428E-17	9.173181E-18
3.086143E+03	2.163403E-17	9.229496E-18
3.096099E+03	2.187810E-17	9.286499E-18
3.106054E+03	2.212372E-17	9.342978E-18
3.116009E+03	2.237299E-17	9.399811E-18
3.125964E+03	2.262319E-17	9.455828E-18
3.135920E+03	2.287904E-17	9.512982E-18
3.145875E+03	2.313530E-17	9.569065E-18
3.155830E+03	2.339172E-17	9.623975E-18
3.165786E+03	2.365068E-17	9.678672E-18
3.175741E+03	2.391200E-17	9.733064E-18
3.185696E+03	2.417557E-17	9.787087E-18
3.195652E+03	2.444123E-17	9.840665E-18
3.205607E+03	2.470632E-17	9.892704E-18
3.215562E+03	2.497333E-17	9.944203E-18
3.225517E+03	2.523957E-17	9.994078E-18
3.235473E+03	2.550757E-17	1.004333E-17
3.245428E+03	2.577996E-17	1.009296E-17
3.255383E+03	2.604876E-17	1.013985E-17
3.265339E+03	2.632194E-17	1.018709E-17
3.275294E+03	2.659414E-17	1.023258E-17
3.285249E+03	2.687072E-17	1.027839E-17
3.295205E+03	2.714636E-17	1.032245E-17
3.305160E+03	2.742107E-17	1.036477E-17
3.315115E+03	2.770027E-17	1.040740E-17
3.325070E+03	2.797860E-17	1.044828E-17
3.335026E+03	2.825887E-17	1.048848E-17
3.344981E+03	2.854108E-17	1.052797E-17
3.354936E+03	2.882537E-17	1.056678E-17
3.364892E+03	2.911181E-17	1.060493E-17
3.374847E+03	2.939768E-17	1.064141E-17
3.384802E+03	2.968586E-17	1.067726E-17
3.394758E+03	2.997649E-17	1.071251E-17
3.404713E+03	3.026962E-17	1.074715E-17
3.414668E+03	3.056538E-17	1.078121E-17
3.424623E+03	3.086392E-17	1.081473E-17
3.434579E+03	3.116533E-17	1.084770E-17
3.444534E+03	3.146692E-17	1.087919E-17
3.454489E+03	3.177163E-17	1.091018E-17
3.464445E+03	3.207958E-17	1.094071E-17
3.474400E+03	3.239377E-17	1.097174E-17
3.484355E+03	3.270579E-17	1.100042E-17
3.494311E+03	3.302431E-17	1.102965E-17
3.504266E+03	3.334667E-17	1.105850E-17
3.514221E+03	3.367297E-17	1.108697E-17
3.524176E+03	3.400047E-17	1.111413E-17
3.534132E+03	3.433510E-17	1.114189E-17
3.544087E+03	3.467126E-17	1.116841E-17
3.554042E+03	3.501483E-17	1.119554E-17
3.563998E+03	3.536021E-17	1.122144E-17
3.573953E+03	3.571041E-17	1.124707E-17
3.583908E+03	3.606560E-17	1.127242E-17
3.593864E+03	3.642593E-17	1.129750E-17
3.603819E+03	3.679160E-17	1.132234E-17
3.613774E+03	3.716269E-17	1.134692E-17
3.623729E+03	3.753645E-17	1.137037E-17
3.633685E+03	3.791891E-17	1.139447E-17
3.643640E+03	3.830730E-17	1.141833E-17
3.653595E+03	3.869878E-17	1.144107E-17
3.663551E+03	3.909949E-17	1.146446E-17
3.673506E+03	3.950357E-17	1.148673E-17
3.683461E+03	3.991720E-17	1.150964E-17
3.693417E+03	4.033449E-17	1.153142E-17
3.703372E+03	4.075863E-17	1.155295E-17
3.713327E+03	4.118980E-17	1.157423E-17
3.723282E+03	4.162808E-17	1.159522E-17
3.733238E+03	4.207372E-17	1.161595E-17
3.743193E+03	4.252681E-17	1.163637E-17
3.753148E+03	4.298444E-17	1.165565E-17
3.763104E+03	4.345293E-17	1.167545E-17
3.773059E+03	4.392940E-17	1.169491E-17
3.783014E+03	4.441083E-17	1.171318E-17
3.792970E+03	4.490056E-17	1.173109E-17
3.802925E+03	4.539871E-17	1.174861E-17
3.812880E+03	4.590541E-17	1.176571E-17
3.822835E+03	4.642092E-17	1.178239E-17
3.832791E+03	4.694536E-17	1.179862E-17
3.842746E+03	4.747572E-17	1.181357E-17
3.852701E+03	4.801854E-17	1.182881E-17
3.862657E+03	4.856762E-17	1.184274E-17
3.872612E+03	4.912635E-17	1.185612E-17
3.882567E+03	4.969488E-17	1.186893E-17
3.892523E+03	5.027020E-17	1.188036E-17
3.902478E+03	5.085574E-17	1.189118E-17
3.912433E+03	5.145491E-17	1.190210E-17
3.922388E+03	5.205819E-17	1.191084E-17
3.932344E+03	5.267557E-17	1.191962E-17
3.942299E+03	5.330069E-17	1.192692E-17
3.952254E+03	5.393705E-17	1.193345E-17
3.962210E+03	5.458495E-17	1.193920E-17
3.972165E+03	5.524120E-17	1.194339E-17
3.982120E+03	5.590944E-17	1.194673E-17
3.992076E+03	5.658988E-17	1.194920E-17
4.002031E+03	5.727944E-17	1.195004E-17
4.011986E+03	5.798174E-17	1.194994E-17
4.021941E+03	5.869362E-17	1.194817E-17
4.031897E+03	5.941877E-17	1.194539E-17
4.041852E+03	6.015408E-17	1.194090E-17
4.051807E+03	6.090321E-17	1.193533E-17
4.061763E+03	6.166654E-17	1.192867E-17
4.071718E+03	6.244087E-17	1.192019E-17
4.081673E+03	6.322644E-17	1.190988E-17
4.091629E+03	6.402709E-17	1.189835E-17
4.101584E+03	6.483962E-17	1.188492E-17
4.111539E+03	6.566792E-17	1.187021E-17
4.121494E+03	6.650510E-17	1.185287E-17
4.131450E+03	6.736231E-17	1.183482E-17
4.141405E+03	6.822899E-17	1.181407E-17
4.151360E+03	6.911277E-17	1.179188E-17
4.161316E+03	7.001027E-17	1.176754E-17
4.171271E+03	7.092184E-17	1.174104E-17
4.181226E+03	7.185155E-17	1.171293E-17
4.191182E+03	7.279215E-17	1.168194E-17
4.201137E+03	7.375154E-17	1.164924E-17
4.211092E+03	7.472619E-17	1.161416E-17
4.221047E+03	7.571638E-17	1.157664E-17
4.231003E+03	7.671861E-17	1.153605E-17
4.240958E+03	7.774072E-17	1.149350E-17
4.250913E+03	7.877921E-17	1.144833E-17
4.260869E+03	7.983434E-17	1.140048E-17
4.270824E+03	8.090622E-17	1.134987E-17
4.280779E+03	8.199515E-17	1.129644E-17
4.290735E+03	8.309722E-17	1.123956E-17
4.300690E+03	8.422065E-17	1.118026E-17
4.310645E+03	8.535746E-17	1.111735E-17
4.320601E+03	8.651185E-17	1.105132E-17
4.330556E+03	8.768381E-17	1.098206E-17
4.340511E+03	8.886928E-17	1.090899E-17
4.350466E+03	9.007238E-17	1.083254E-17
4.360422E+03	9.129307E-17	1.075261E-17
4.370377E+03	9.252703E-17	1.066863E-17
4.380332E+03	9.377841E-17	1.058100E-17
4.390288E+03	9.504707E-17	1.048965E-17
4.400243E+03	9.632841E-17	1.039400E-17
4.410198E+03	9.762654E-17	1.029445E-17
4.420154E+03	9.893680E-17	1.019047E-17
4.430109E+03	1.002632E-16	1.008243E-17
4.440064E+03	1.016009E-16	9.969811E-18
4.450019E+03	1.029493E-16	9.852564E-18
4.459975E+03	1.043126E-16	9.731065E-18
4.469930E+03	1.056855E-16	9.604831E-18
4.479885E+03	1.070673E-16	9.473832E-18
4.489841E+03	1.084621E-16	9.338441E-18
4.499796E+03	1.098644E-16	9.198232E-18
4.509751E+03	1.112734E-16	9.053194E-18
4.519707E+03	1.126929E-16	8.903724E-18
4.529662E+03	1.141125E-16	8.749079E-18
4.539617E+03	1.155408E-16	8.590048E-18
4.549572E+03	1.169719E-16	8.426319E-18
4.559528E+03	1.184047E-16	8.257968E-18
4.569483E+03	1.198430E-16	8.085439E-18
4.579438E+03	1.212757E-16	7.908178E-18
4.589394E+03	1.227064E-16	7.726694E-18
4.599349E+03	1.241338E-16	7.541174E-18
4.609304E+03	1.255617E-16	7.352143E-18
4.619260E+03	1.269785E-16	7.159262E-18
4.629215E+03	1.283930E-16	6.963430E-18
4.639170E+03	1.297934E-16	6.764435E-18
4.649125E+03	1.311833E-16	6.562986E-18
4.659081E+03	1.325665E-16	6.359816E-18
4.669036E+03	1.339310E-16	6.154968E-18
4.678991E+03	1.352803E-16	5.949331E-18
4.688947E+03	1.366131E-16	5.743642E-18
4.698902E+03	1.379277E-16	5.538729E-18
4.708857E+03	1.392171E-16	5.335343E-18
4.718813E+03	1.404907E-16	5.134996E-18
4.728768E+03	1.417361E-16	4.938522E-18
4.738723E+03	1.429630E-16	4.747721E-18
4.748678E+03	1.441590E-16	4.563805E-18
4.758634E+03	1.453227E-16	4.388576E-18
4.768589E+03	1.464644E-16	4.224346E-18
4.778544E+03	1.475776E-16	4.073074E-18
4.788500E+03	1.486559E-16	3.936889E-18
4.798455E+03	1.497043E-16	3.818294E-18
4.808410E+03	1.507223E-16	3.719603E-18
4.818366E+03	1.517038E-16	3.642835E-18
4.828321E+03	1.526600E-16	3.590113E-18
4.838276E+03	1.535790E-16	3.562413E-18
4.848231E+03	1.544662E-16	3.559524E-18
4.858187E+03	1.553216E-16	3.579998E-18
4.868142E+03	1.561389E-16	3.621739E-18
4.878097E+03	1.569241E-16	3.682548E-18
4.888053E+03	1.576768E-16	3.759877E-18
4.898008E+03	1.583969E-16	3.851112E-18
4.907963E+03	1.590787E-16	3.953547E-18
4.917919E+03	1.597278E-16	4.064893E-18
4.927874E+03	1.603442E-16	4.182904E-18
4.937829E+03	1.609279E-16	4.305555E-18
4.947784E+03	1.614730E-16	4.430878E-18
4.957740E+03	1.619853E-16	4.557433E-18
4.967695E+03	1.624649E-16	4.683827E-18
4.977650E+03	1.629116E-16	4.808851E-18
4.987606E+03	1.633196E-16	4.931281E-18
4.997561E+03	1.637006E-16	5.050569E-18
5.007516E+03	1.640429E-16	5.165585E-18
5.017472E+03	1.643464E-16	5.275662E-18
5.027427E+03	1.646229E-16	5.380618E-18
5.037382E+03	1.648607E-16	5.479604E-18
5.047337E+03	1.650654E-16	5.572420E-18
5.057293E+03	1.652371E-16	5.658751E-18
5.067248E+03	1.653700E-16	5.738140E-18
5.077203E+03	1.654757E-16	5.810793E-18
5.087159E+03	1.655425E-16	5.876162E-18
5.097114E+03	1.655762E-16	5.934356E-18
5.107069E+03	1.655768E-16	5.985326E-18
5.117025E+03	1.655385E-16	6.028855E-18
5.126980E+03	1.654729E-16	6.065401E-18
5.136935E+03	1.653685E-16	6.094614E-18
5.146890E+03	1.652310E-16	6.116819E-18
5.156846E+03	1.650604E-16	6.132160E-18
5.166801E+03	1.648568E-16	6.140818E-18
5.176756E+03	1.646146E-16	6.142800E-18
5.186712E+03	1.643395E-16	6.138569E-18
5.196667E+03	1.640373E-16	6.128617E-18
5.206622E+03	1.636967E-16	6.112839E-18
5.216578E+03	1.633235E-16	6.091797E-18
5.226533E+03	1.629180E-16	6.065870E-18
5.236488E+03	1.624746E-16	6.035265E-18
5.246443E+03	1.620047E-16	6.000839E-18
5.256399E+03	1.615030E-16	5.962860E-18
5.266354E+03	1.609641E-16	5.921629E-18
5.276309E+03	1.603939E-16	5.877888E-18
5.286265E+03	1.597980E-16	5.832389E-18
5.296220E+03	1.591659E-16	5.785321E-18
5.306175E+03	1.585033E-16	5.737492E-18
5.316131E+03	1.578107E-16	5.689528E-18
5.326086E+03	1.570883E-16	5.642068E-18
5.336041E+03	1.563366E-16	5.595766E-18
5.345996E+03	1.555561E-16	5.551274E-18
5.355952E+03	1.547471E-16	5.509248E-18
5.365907E+03	1.539103E-16	5.470331E-18
5.375862E+03	1.530460E-16	5.435147E-18
5.385818E+03	1.521548E-16	5.404294E-18
5.395773E+03	1.512323E-16	5.378152E-18
5.405728E+03	1.502893E-16	5.357599E-18
5.415684E+03	1.493213E-16	5.342907E-18
5.425639E+03	1.483290E-16	5.334170E-18
5.435594E+03	1.473137E-16	5.330920E-18
5.445549E+03	1.462770E-16	5.332615E-18
5.455505E+03	1.452208E-16	5.338699E-18
5.465460E+03	1.441521E-16	5.348791E-18
5.475415E+03	1.430632E-16	5.361965E-18
5.485371E+03	1.419614E-16	5.377851E-18
5.495326E+03	1.408533E-16	5.396088E-18
5.505281E+03	1.397317E-16	5.415797E-18
5.515237E+03	1.386082E-16	5.436848E-18
5.525192E+03	1.374802E-16	5.458601E-18
5.535147E+03	1.363497E-16	5.480624E-18
5.545102E+03	1.352187E-16	5.502520E-18
5.555058E+03	1.340893E-16	5.523925E-18
5.565013E+03	1.329633E-16	5.544507E-18
5.574968E+03	1.318469E-16	5.564158E-18
5.584924E+03	1.307375E-16	5.582426E-18
5.594879E+03	1.296366E-16	5.599076E-18
5.604834E+03	1.285458E-16	5.613900E-18
5.614790E+03	1.274667E-16	5.626720E-18
5.624745E+03	1.264050E-16	5.637570E-18
5.634700E+03	1.253576E-16	5.646129E-18
5.644655E+03	1.243260E-16	5.652289E-18
5.654611E+03	1.233112E-16	5.655959E-18
5.664566E+03	1.223185E-16	5.657255E-18
5.674521E+03	1.213448E-16	5.655932E-18
5.684477E+03	1.203912E-16	5.651946E-18
5.694432E+03	1.194626E-16	5.645455E-18
5.704387E+03	1.185518E-16	5.636063E-18
5.714343E+03	1.176717E-16	5.624330E-18
5.724298E+03	1.168110E-16	5.609685E-18
5.734253E+03	1.159783E-16	5.592511E-18
5.744209E+03	1.151705E-16	5.572636E-18
5.754164E+03	1.143921E-16	5.550264E-18
5.764119E+03	1.136359E-16	5.525046E-18
5.774074E+03	1.129140E-16	5.497565E-18
5.784030E+03	1.122157E-16	5.467300E-18
5.793985E+03	1.115526E-16	5.434828E-18
5.803940E+03	1.109142E-16	5.399641E-18
5.813896E+03	1.103084E-16	5.362135E-18
5.823851E+03	1.097319E-16	5.322167E-18
5.833806E+03	1.091892E-16	5.279957E-18
5.843762E+03	1.086805E-16	5.235535E-18
5.853717E+03	1.081991E-16	5.188588E-18
5.863672E+03	1.077565E-16	5.139679E-18
5.873627E+03	1.073424E-16	5.088324E-18
5.883583E+03	1.069644E-16	5.034902E-18
5.893538E+03	1.066233E-16	4.979446E-18
5.903493E+03	1.063160E-16	4.921820E-18
5.913449E+03	1.060467E-16	4.862219E-18
5.923404E+03	1.058125E-16	4.800511E-18
5.933359E+03	1.056175E-16	4.736885E-18
5.943315E+03	1.054590E-16	4.671207E-18
5.953270E+03	1.053412E-16	4.603661E-18
5.963225E+03	1.052649E-16	4.534266E-18
5.973180E+03	1.052273E-16	4.462892E-18
5.983136E+03	1.052292E-16	4.389562E-18
5.993091E+03	1.052785E-16	4.314590E-18
6.003046E+03	1.053657E-16	4.237560E-18
6.013002E+03	1.055021E-16	4.158920E-18
6.022957E+03	1.056817E-16	4.078409E-18
6.032912E+03	1.059054E-16	3.996050E-18
6.042868E+03	1.061815E-16	3.912144E-18
6.052823E+03	1.065039E-16	3.826446E-18
6.062778E+03	1.068737E-16	3.739002E-18
6.072733E+03	1.072956E-16	3.649985E-18
6.082689E+03	1.077709E-16	3.559447E-18
6.092644E+03	1.083008E-16	3.467461E-18
6.102599E+03	1.088830E-16	3.373996E-18
6.112555E+03	1.095225E-16	3.279286E-18
6.122510E+03	1.102168E-16	3.183360E-18
6.132465E+03	1.109750E-16	3.086618E-18
6.142421E+03	1.117910E-16	2.989068E-18
6.152376E+03	1.126701E-16	2.891099E-18
6.162331E+03	1.136100E-16	2.792967E-18
6.172286E+03	1.146161E-16	2.695209E-18
6.182242E+03	1.156902E-16	2.598368E-18
6.192197E+03	1.168340E-16	2.503110E-18
6.202152E+03	1.180452E-16	2.410171E-18
6.212108E+03	1.193295E-16	2.320636E-18
6.222063E+03	1.206890E-16	2.235703E-18
6.232018E+03	1.221247E-16	2.156782E-18
6.241974E+03	1.236377E-16	2.085514E-18
6.251929E+03	1.252243E-16	2.023686E-18
6.261884E+03	1.268886E-16	1.973399E-18
6.271839E+03	1.286301E-16	1.936758E-18
6.281795E+03	1.304476E-16	1.915812E-18
6.291750E+03	1.323389E-16	1.912074E-18
6.301705E+03	1.342965E-16	1.925074E-18
6.311661E+03	1.363217E-16	1.953536E-18
6.321616E+03	1.384110E-16	1.995749E-18
6.331571E+03	1.405608E-16	2.049792E-18
6.341527E+03	1.427673E-16	2.113661E-18
6.351482E+03	1.450264E-16	2.185396E-18
6.361437E+03	1.473336E-16	2.263157E-18
6.371392E+03	1.496790E-16	2.345190E-18
6.381348E+03	1.520682E-16	2.430181E-18
6.391303E+03	1.544854E-16	2.516695E-18
6.401258E+03	1.569304E-16	2.603749E-18
6.411214E+03	1.593976E-16	2.690480E-18
6.421169E+03	1.618866E-16	2.776320E-18
6.431124E+03	1.643802E-16	2.860603E-18
6.441080E+03	1.668774E-16	2.943145E-18
6.451035E+03	1.693657E-16	3.023755E-18
6.460990E+03	1.718503E-16	3.102758E-18
6.470945E+03	1.743185E-16	3.180366E-18
6.480901E+03	1.767632E-16	3.257101E-18
6.490856E+03	1.791774E-16	3.333698E-18
6.500811E+03	1.815550E-16	3.411114E-18
6.510767E+03	1.838900E-16	3.490520E-18
6.520722E+03	1.861703E-16	3.573155E-18
6.530677E+03	1.884042E-16	3.660818E-18
6.540633E+03	1.905809E-16	3.755085E-18
6.550588E+03	1.926967E-16	3.857762E-18
6.560543E+03	1.947486E-16	3.970718E-18
6.570498E+03	1.967343E-16	4.095821E-18
6.580454E+03	1.986523E-16	4.234890E-18
6.590409E+03	2.005018E-16	4.389346E-18
6.600364E+03	2.022828E-16	4.559077E-18
6.610320E+03	2.039955E-16	4.743371E-18
6.620275E+03	2.056479E-16	4.941542E-18
6.630230E+03	2.072258E-16	5.152275E-18
6.640186E+03	2.087376E-16	5.374716E-18
6.650141E+03	2.101918E-16	5.608009E-18
6.660096E+03	2.115822E-16	5.850909E-18
6.670051E+03	2.129023E-16	6.102155E-18
6.680007E+03	2.141689E-16	6.361170E-18
6.689962E+03	2.153758E-16	6.626768E-18
6.699917E+03	2.165248E-16	6.898026E-18
6.709873E+03	2.176173E-16	7.174065E-18
6.719828E+03	2.186632E-16	7.454329E-18
6.729783E+03	2.196480E-16	7.737501E-18
6.739739E+03	2.205897E-16	8.023408E-18
6.749694E+03	2.214739E-16	8.310784E-18
6.759649E+03	2.223185E-16	8.599582E-18
6.769604E+03	2.231170E-16	8.888901E-18
6.779560E+03	2.238711E-16	9.178175E-18
6.789515E+03	2.245825E-16	9.466871E-18
6.799470E+03	2.252609E-16	9.754844E-18
6.809426E+03	2.258914E-16	1.004092E-17
6.819381E+03	2.264918E-16	1.032537E-17
6.829336E+03	2.270552E-16	1.060743E-17
6.839292E+03	2.275828E-16	1.088668E-17
6.849247E+03	2.280757E-16	1.116276E-17
6.859202E+03	2.285348E-16	1.143528E-17
6.869157E+03	2.289612E-16	1.170392E-17
6.879113E+03	2.293640E-16	1.196877E-17
6.889068E+03	2.297270E-16	1.222864E-17
6.899023E+03	2.300679E-16	1.248411E-17
6.908979E+03	2.303784E-16	1.273444E-17
6.918934E+03	2.306589E-16	1.297934E-17
6.928889E+03	2.309097E-16	1.321851E-17
6.938845E+03	2.311397E-16	1.345220E-17
6.948800E+03	2.313314E-16	1.367911E-17
6.958755E+03	2.315022E-16	1.389999E-17
6.968710E+03	2.316346E-16	1.411357E-17
6.978666E+03	2.317456E-16	1.432062E-17
6.988621E+03	2.318264E-16	1.452036E-17
6.998576E+03	2.318766E-16	1.471255E-17
7.008532E+03	2.318955E-16	1.489694E-17
7.018487E+03	2.318830E-16	1.507330E-17
7.028442E+03	2.318470E-16	1.524196E-17
7.038398E+03	2.317696E-16	1.540154E-17
7.048353E+03	2.316589E-16	1.555241E-17
7.058308E+03	2.315232E-16	1.569493E-17
7.068263E+03	2.313441E-16	1.582771E-17
7.078219E+03	2.311389E-16	1.595175E-17
7.088174E+03	2.308980E-16	1.606627E-17
7.098129E+03	2.306210E-16	1.617109E-17
7.108085E+03	2.302985E-16	1.626542E-17
7.118040E+03	2.299477E-16	1.635034E-17
7.127995E+03	2.295595E-16	1.642511E-17
7.137951E+03	2.291334E-16	1.648958E-17
7.147906E+03	2.286694E-16	1.654366E-17
7.157861E+03	2.281585E-16	1.658661E-17
7.167817E+03	2.276182E-16	1.661963E-17
7.177772E+03	2.270397E-16	1.664202E-17
7.187727E+03	2.264233E-16	1.665375E-17
7.197682E+03	2.257692E-16	1.665480E-17
7.207638E+03	2.250693E-16	1.664452E-17
7.217593E+03	2.243413E-16	1.662422E-17
7.227548E+03	2.235686E-16	1.659265E-17
7.237504E+03	2.227691E-16	1.655115E-17
7.247459E+03	2.219268E-16	1.649854E-17
7.257414E+03	2.210597E-16	1.643617E-17
7.267370E+03	2.201518E-16	1.636289E-17
7.277325E+03	2.192131E-16	1.627949E-17
7.287280E+03	2.182448E-16	1.618611E-17
7.297235E+03	2.172484E-16	1.608291E-17
7.307191E+03	2.162172E-16	1.596948E-17
7.317146E+03	2.151696E-16	1.584725E-17
7.327101E+03	2.140906E-16	1.571520E-17
7.337057E+03	2.129988E-16	1.557479E-17
7.347012E+03	2.118793E-16	1.542502E-17
7.356967E+03	2.107425E-16	1.526675E-17
7.366923E+03	2.095823E-16	1.509966E-17
7.376878E+03	2.084170E-16	1.492518E-17
7.386833E+03	2.072322E-16	1.474240E-17
7.396788E+03	2.060383E-16	1.455216E-17
7.406744E+03	2.048372E-16	1.435474E-17
7.416699E+03	2.036230E-16	1.414985E-17
7.426654E+03	2.024137E-16	1.393886E-17
7.436610E+03	2.011953E-16	1.372093E-17
7.446565E+03	1.999698E-16	1.349633E-17
7.456520E+03	1.987548E-16	1.326637E-17
7.466476E+03	1.975363E-16	1.303025E-17
7.476431E+03	1.963239E-16	1.278873E-17
7.486386E+03	1.951192E-16	1.254203E-17
7.496341E+03	1.939159E-16	1.228987E-17
7.506297E+03	1.927233E-16	1.203297E-17
7.516252E+03	1.915425E-16	1.177152E-17
7.526207E+03	1.903671E-16	1.150524E-17
7.536163E+03	1.892058E-16	1.123479E-17
7.546118E+03	1.880595E-16	1.096034E-17
7.556073E+03	1.869215E-16	1.068161E-17
7.566029E+03	1.857999E-16	1.039920E-17
7.575984E+03	1.846878E-16	1.011287E-17
7.585939E+03	1.836005E-16	9.823557E-18
7.595894E+03	1.825161E-16	9.530239E-18
7.605850E+03	1.814567E-16	9.234236E-18
7.615805E+03	1.804079E-16	8.934941E-18
7.625760E+03	1.793695E-16	8.632546E-18
7.635716E+03	1.783557E-16	8.327924E-18
7.645671E+03	1.773446E-16	8.020257E-18
7.655626E+03	1.763574E-16	7.710760E-18
7.665582E+03	1.753792E-16	7.399042E-18
7.675537E+03	1.744094E-16	7.085423E-18
7.685492E+03	1.734543E-16	6.770550E-18
7.695447E+03	1.725132E-16	6.454839E-18
7.705403E+03	1.715782E-16	6.138533E-18
7.715358E+03	1.706553E-16	5.822520E-18
7.725313E+03	1.697367E-16	5.507334E-18
