#wls	flux	fluxerr
1.592848E+03	2.832738E-18	1.236558E-18
1.632669E+03	2.965922E-18	1.285603E-18
1.672491E+03	3.089156E-18	1.329393E-18
1.712312E+03	3.200268E-18	1.367072E-18
1.752133E+03	3.297029E-18	1.397791E-18
1.791954E+03	3.373776E-18	1.419291E-18
1.831775E+03	3.422721E-18	1.428502E-18
1.871597E+03	3.436290E-18	1.422558E-18
1.911418E+03	3.406111E-18	1.398374E-18
1.951239E+03	3.328407E-18	1.354869E-18
1.991060E+03	3.207450E-18	1.294273E-18
2.030881E+03	3.062459E-18	1.224751E-18
2.070703E+03	2.929978E-18	1.161066E-18
2.110524E+03	2.858346E-18	1.122077E-18
2.150345E+03	2.891962E-18	1.124381E-18
2.190166E+03	3.052696E-18	1.175200E-18
2.229987E+03	3.338036E-18	1.272090E-18
2.269809E+03	3.725222E-18	1.404964E-18
2.309630E+03	4.183212E-18	1.560965E-18
2.349451E+03	4.682124E-18	1.728133E-18
2.389272E+03	5.200776E-18	1.898146E-18
2.429093E+03	5.725490E-18	2.065732E-18
2.468915E+03	6.249137E-18	2.228175E-18
2.508736E+03	6.769003E-18	2.384436E-18
2.548557E+03	7.285010E-18	2.534440E-18
2.588378E+03	7.797241E-18	2.678169E-18
2.628199E+03	8.310152E-18	2.817086E-18
2.668021E+03	8.823392E-18	2.950969E-18
2.707842E+03	9.341999E-18	3.081378E-18
2.747663E+03	9.865260E-18	3.207908E-18
2.787484E+03	1.039833E-17	3.332047E-18
2.827305E+03	1.093997E-17	3.453162E-18
2.867127E+03	1.149362E-17	3.572099E-18
2.906948E+03	1.206296E-17	3.689704E-18
2.946769E+03	1.264607E-17	3.805059E-18
2.986590E+03	1.324645E-17	3.918887E-18
2.996546E+03	1.339861E-17	3.946875E-18
3.006501E+03	1.355392E-17	3.975347E-18
3.016456E+03	1.371036E-17	4.003699E-18
3.026411E+03	1.386608E-17	4.031390E-18
3.036367E+03	1.402639E-17	4.059952E-18
3.046322E+03	1.419014E-17	4.089041E-18
3.056277E+03	1.435553E-17	4.118120E-18
3.066233E+03	1.452660E-17	4.148337E-18
3.076188E+03	1.470090E-17	4.178973E-18
3.086143E+03	1.487818E-17	4.209938E-18
3.096099E+03	1.505819E-17	4.241154E-18
3.106054E+03	1.524073E-17	4.272544E-18
3.116009E+03	1.542791E-17	4.304693E-18
3.125964E+03	1.561492E-17	4.336241E-18
3.135920E+03	1.580390E-17	4.367779E-18
3.145875E+03	1.599471E-17	4.399256E-18
3.155830E+03	1.618964E-17	4.431292E-18
3.165786E+03	1.638373E-17	4.462517E-18
3.175741E+03	1.658176E-17	4.494229E-18
3.185696E+03	1.677871E-17	4.525053E-18
3.195652E+03	1.697947E-17	4.556307E-18
3.205607E+03	1.718151E-17	4.587293E-18
3.215562E+03	1.738217E-17	4.617301E-18
3.225517E+03	1.758654E-17	4.647681E-18
3.235473E+03	1.779204E-17	4.677734E-18
3.245428E+03	1.799863E-17	4.707444E-18
3.255383E+03	1.820629E-17	4.736798E-18
3.265339E+03	1.841501E-17	4.765789E-18
3.275294E+03	1.862477E-17	4.794405E-18
3.285249E+03	1.883560E-17	4.822644E-18
3.295205E+03	1.904748E-17	4.850499E-18
3.305160E+03	1.926327E-17	4.878684E-18
3.315115E+03	1.947736E-17	4.905770E-18
3.325070E+03	1.969258E-17	4.932469E-18
3.335026E+03	1.991186E-17	4.959505E-18
3.344981E+03	2.012946E-17	4.985437E-18
3.354936E+03	2.034830E-17	5.010988E-18
3.364892E+03	2.057141E-17	5.036894E-18
3.374847E+03	2.079590E-17	5.062432E-18
3.384802E+03	2.101879E-17	5.086871E-18
3.394758E+03	2.124620E-17	5.111687E-18
3.404713E+03	2.147516E-17	5.136152E-18
3.414668E+03	2.170263E-17	5.159529E-18
3.424623E+03	2.193487E-17	5.183308E-18
3.434579E+03	2.216886E-17	5.206754E-18
3.444534E+03	2.240468E-17	5.229875E-18
3.454489E+03	2.264239E-17	5.252677E-18
3.464445E+03	2.288207E-17	5.275166E-18
3.474400E+03	2.312379E-17	5.297349E-18
3.484355E+03	2.336763E-17	5.319232E-18
3.494311E+03	2.361366E-17	5.340820E-18
3.504266E+03	2.386196E-17	5.362122E-18
3.514221E+03	2.411602E-17	5.383902E-18
3.524176E+03	2.436914E-17	5.404644E-18
3.534132E+03	2.462475E-17	5.425115E-18
3.544087E+03	2.488296E-17	5.445317E-18
3.554042E+03	2.514737E-17	5.466022E-18
3.563998E+03	2.541102E-17	5.485701E-18
3.573953E+03	2.568110E-17	5.505893E-18
3.583908E+03	2.595053E-17	5.525059E-18
3.593864E+03	2.622660E-17	5.544747E-18
3.603819E+03	2.650211E-17	5.563410E-18
3.613774E+03	2.678450E-17	5.582598E-18
3.623729E+03	2.706642E-17	5.600761E-18
3.633685E+03	2.735544E-17	5.619451E-18
3.643640E+03	2.764791E-17	5.637892E-18
3.653595E+03	2.794005E-17	5.655299E-18
3.663551E+03	2.823961E-17	5.673233E-18
3.673506E+03	2.854286E-17	5.690911E-18
3.683461E+03	2.884986E-17	5.708328E-18
3.693417E+03	2.916069E-17	5.725480E-18
3.703372E+03	2.947139E-17	5.741578E-18
3.713327E+03	2.979006E-17	5.758185E-18
3.723282E+03	3.011277E-17	5.774511E-18
3.733238E+03	3.043960E-17	5.790549E-18
3.743193E+03	3.077061E-17	5.806290E-18
3.753148E+03	3.110586E-17	5.821728E-18
3.763104E+03	3.144543E-17	5.836852E-18
3.773059E+03	3.178937E-17	5.851655E-18
3.783014E+03	3.213774E-17	5.866123E-18
3.792970E+03	3.249061E-17	5.880248E-18
3.802925E+03	3.284804E-17	5.894017E-18
3.812880E+03	3.321007E-17	5.907419E-18
3.822835E+03	3.357676E-17	5.920439E-18
3.832791E+03	3.394817E-17	5.933065E-18
3.842746E+03	3.432433E-17	5.945282E-18
3.852701E+03	3.470531E-17	5.957075E-18
3.862657E+03	3.509581E-17	5.969223E-18
3.872612E+03	3.548658E-17	5.980122E-18
3.882567E+03	3.588228E-17	5.990547E-18
3.892523E+03	3.628295E-17	6.000484E-18
3.902478E+03	3.668863E-17	6.009912E-18
3.912433E+03	3.709934E-17	6.018814E-18
3.922388E+03	3.751512E-17	6.027171E-18
3.932344E+03	3.794096E-17	6.035755E-18
3.942299E+03	3.836697E-17	6.042961E-18
3.952254E+03	3.879811E-17	6.049561E-18
3.962210E+03	3.923439E-17	6.055533E-18
3.972165E+03	3.967582E-17	6.060856E-18
3.982120E+03	4.012240E-17	6.065508E-18
3.992076E+03	4.057941E-17	6.070255E-18
4.002031E+03	4.103635E-17	6.073495E-18
4.011986E+03	4.149846E-17	6.075997E-18
4.021941E+03	4.196568E-17	6.077730E-18
4.031897E+03	4.243807E-17	6.078682E-18
4.041852E+03	4.291551E-17	6.078814E-18
4.051807E+03	4.339805E-17	6.078112E-18
4.061763E+03	4.388566E-17	6.076550E-18
4.071718E+03	4.437829E-17	6.074102E-18
4.081673E+03	4.487585E-17	6.070738E-18
4.091629E+03	4.537840E-17	6.066442E-18
4.101584E+03	4.588580E-17	6.061180E-18
4.111539E+03	4.639803E-17	6.054933E-18
4.121494E+03	4.691501E-17	6.047671E-18
4.131450E+03	4.743672E-17	6.039375E-18
4.141405E+03	4.796301E-17	6.030013E-18
4.151360E+03	4.849387E-17	6.019568E-18
4.161316E+03	4.902919E-17	6.008012E-18
4.171271E+03	4.956885E-17	5.995320E-18
4.181226E+03	5.011274E-17	5.981466E-18
4.191182E+03	5.066084E-17	5.966437E-18
4.201137E+03	5.120651E-17	5.949453E-18
4.211092E+03	5.176248E-17	5.931996E-18
4.221047E+03	5.232223E-17	5.913293E-18
4.231003E+03	5.288564E-17	5.893323E-18
4.240958E+03	5.344590E-17	5.871338E-18
4.250913E+03	5.401611E-17	5.848785E-18
4.260869E+03	5.458276E-17	5.824190E-18
4.270824E+03	5.515912E-17	5.798985E-18
4.280779E+03	5.573148E-17	5.771719E-18
4.290735E+03	5.631338E-17	5.743814E-18
4.300690E+03	5.689069E-17	5.713825E-18
4.310645E+03	5.747732E-17	5.683172E-18
4.320601E+03	5.805882E-17	5.650429E-18
4.330556E+03	5.864212E-17	5.616306E-18
4.340511E+03	5.922694E-17	5.580796E-18
4.350466E+03	5.982044E-17	5.544585E-18
4.360422E+03	6.040769E-17	5.506300E-18
4.370377E+03	6.099577E-17	5.466638E-18
4.380332E+03	6.158444E-17	5.425608E-18
4.390288E+03	6.217346E-17	5.383221E-18
4.400243E+03	6.276249E-17	5.339487E-18
4.410198E+03	6.335128E-17	5.294424E-18
4.420154E+03	6.393962E-17	5.248061E-18
4.430109E+03	6.451933E-17	5.199786E-18
4.440064E+03	6.510569E-17	5.150896E-18
4.450019E+03	6.569072E-17	5.100794E-18
4.459975E+03	6.626605E-17	5.048904E-18
4.469930E+03	6.684730E-17	4.996496E-18
4.479885E+03	6.742625E-17	4.943004E-18
4.489841E+03	6.799435E-17	4.887891E-18
4.499796E+03	6.855935E-17	4.831820E-18
4.509751E+03	6.912929E-17	4.775436E-18
4.519707E+03	6.968719E-17	4.717650E-18
4.529662E+03	7.024098E-17	4.659123E-18
4.539617E+03	7.079034E-17	4.599944E-18
4.549572E+03	7.133494E-17	4.540205E-18
4.559528E+03	7.187437E-17	4.480004E-18
4.569483E+03	7.240828E-17	4.419448E-18
4.579438E+03	7.293637E-17	4.358657E-18
4.589394E+03	7.345826E-17	4.297756E-18
4.599349E+03	7.397356E-17	4.236873E-18
4.609304E+03	7.447318E-17	4.175663E-18
4.619260E+03	7.497427E-17	4.115267E-18
4.629215E+03	7.545876E-17	4.054863E-18
4.639170E+03	7.594422E-17	3.995593E-18
4.649125E+03	7.641231E-17	3.936678E-18
4.659081E+03	7.687161E-17	3.878783E-18
4.669036E+03	7.733093E-17	3.822555E-18
4.678991E+03	7.777171E-17	3.767285E-18
4.688947E+03	7.820275E-17	3.713644E-18
4.698902E+03	7.862366E-17	3.661843E-18
4.708857E+03	7.903413E-17	3.612102E-18
4.718813E+03	7.943390E-17	3.564644E-18
4.728768E+03	7.981330E-17	3.519281E-18
4.738723E+03	8.019064E-17	3.477063E-18
4.748678E+03	8.055633E-17	3.437791E-18
4.758634E+03	8.090075E-17	3.401288E-18
4.768589E+03	8.124238E-17	3.368549E-18
4.778544E+03	8.156214E-17	3.338982E-18
4.788500E+03	8.186924E-17	3.313159E-18
4.798455E+03	8.216347E-17	3.291228E-18
4.808410E+03	8.244457E-17	3.273181E-18
4.818366E+03	8.271257E-17	3.258930E-18
4.828321E+03	8.296733E-17	3.248349E-18
4.838276E+03	8.320874E-17	3.241298E-18
4.848231E+03	8.343676E-17	3.237614E-18
4.858187E+03	8.365137E-17	3.237119E-18
4.868142E+03	8.384288E-17	3.239248E-18
4.878097E+03	8.403055E-17	3.244540E-18
4.888053E+03	8.419512E-17	3.252036E-18
4.898008E+03	8.435587E-17	3.262262E-18
4.907963E+03	8.449348E-17	3.274244E-18
4.917919E+03	8.461770E-17	3.288133E-18
4.927874E+03	8.472858E-17	3.303705E-18
4.937829E+03	8.482613E-17	3.320736E-18
4.947784E+03	8.491050E-17	3.339015E-18
4.957740E+03	8.498171E-17	3.358329E-18
4.967695E+03	8.503019E-17	3.378092E-18
4.977650E+03	8.507539E-17	3.398880E-18
4.987606E+03	8.510786E-17	3.420129E-18
4.997561E+03	8.511792E-17	3.441271E-18
5.007516E+03	8.511541E-17	3.462531E-18
5.017472E+03	8.511027E-17	3.484158E-18
5.027427E+03	8.508320E-17	3.505217E-18
5.037382E+03	8.504404E-17	3.525973E-18
5.047337E+03	8.499305E-17	3.546308E-18
5.057293E+03	8.493039E-17	3.566115E-18
5.067248E+03	8.485621E-17	3.585294E-18
5.077203E+03	8.477077E-17	3.603761E-18
5.087159E+03	8.466467E-17	3.621025E-18
5.097114E+03	8.455729E-17	3.637836E-18
5.107069E+03	8.442974E-17	3.653317E-18
5.117025E+03	8.430128E-17	3.668237E-18
5.126980E+03	8.415322E-17	3.681736E-18
5.136935E+03	8.399521E-17	3.694184E-18
5.146890E+03	8.382761E-17	3.705565E-18
5.156846E+03	8.365058E-17	3.715853E-18
5.166801E+03	8.346438E-17	3.725039E-18
5.176756E+03	8.326931E-17	3.733119E-18
5.186712E+03	8.306560E-17	3.740094E-18
5.196667E+03	8.285354E-17	3.745972E-18
5.206622E+03	8.262413E-17	3.750345E-18
5.216578E+03	8.239615E-17	3.754071E-18
5.226533E+03	8.215147E-17	3.756334E-18
5.236488E+03	8.189953E-17	3.757580E-18
5.246443E+03	8.164981E-17	3.758263E-18
5.256399E+03	8.138424E-17	3.757577E-18
5.266354E+03	8.111234E-17	3.755985E-18
5.276309E+03	8.083429E-17	3.753525E-18
5.286265E+03	8.055043E-17	3.750247E-18
5.296220E+03	8.026100E-17	3.746197E-18
5.306175E+03	7.995743E-17	3.741010E-18
5.316131E+03	7.965781E-17	3.735575E-18
5.326086E+03	7.934465E-17	3.729112E-18
5.336041E+03	7.903594E-17	3.722511E-18
5.345996E+03	7.871435E-17	3.715000E-18
5.355952E+03	7.839761E-17	3.707462E-18
5.365907E+03	7.806862E-17	3.699135E-18
5.375862E+03	7.773641E-17	3.690491E-18
5.385818E+03	7.740119E-17	3.681588E-18
5.395773E+03	7.706325E-17	3.672487E-18
5.405728E+03	7.672287E-17	3.663247E-18
5.415684E+03	7.638032E-17	3.653926E-18
5.425639E+03	7.602744E-17	3.644177E-18
5.435594E+03	7.568132E-17	3.634845E-18
5.445549E+03	7.532559E-17	3.625104E-18
5.455505E+03	7.497737E-17	3.615721E-18
5.465460E+03	7.462043E-17	3.605861E-18
5.475415E+03	7.427181E-17	3.596291E-18
5.485371E+03	7.391547E-17	3.586182E-18
5.495326E+03	7.356002E-17	3.575899E-18
5.505281E+03	7.320596E-17	3.565416E-18
5.515237E+03	7.285360E-17	3.554700E-18
5.525192E+03	7.250339E-17	3.543724E-18
5.535147E+03	7.215573E-17	3.532464E-18
5.545102E+03	7.180310E-17	3.520507E-18
5.555058E+03	7.146171E-17	3.508605E-18
5.565013E+03	7.112401E-17	3.496348E-18
5.574968E+03	7.078248E-17	3.483330E-18
5.584924E+03	7.045325E-17	3.470307E-18
5.594879E+03	7.012102E-17	3.456491E-18
5.604834E+03	6.979391E-17	3.442251E-18
5.614790E+03	6.947996E-17	3.427953E-18
5.624745E+03	6.916413E-17	3.412825E-18
5.634700E+03	6.885445E-17	3.397239E-18
5.644655E+03	6.855120E-17	3.381181E-18
5.654611E+03	6.825478E-17	3.364649E-18
5.664566E+03	6.796536E-17	3.347628E-18
5.674521E+03	6.767588E-17	3.329752E-18
5.684477E+03	6.740152E-17	3.311749E-18
5.694432E+03	6.713512E-17	3.293247E-18
5.704387E+03	6.686962E-17	3.273885E-18
5.714343E+03	6.661999E-17	3.254382E-18
5.724298E+03	6.637182E-17	3.234018E-18
5.734253E+03	6.614004E-17	3.213510E-18
5.744209E+03	6.591038E-17	3.192150E-18
5.754164E+03	6.569028E-17	3.170290E-18
5.764119E+03	6.548011E-17	3.147938E-18
5.774074E+03	6.528008E-17	3.125095E-18
5.784030E+03	6.509047E-17	3.101765E-18
5.793985E+03	6.491148E-17	3.077951E-18
5.803940E+03	6.474341E-17	3.053657E-18
5.813896E+03	6.458649E-17	3.028891E-18
5.823851E+03	6.444098E-17	3.003656E-18
5.833806E+03	6.430712E-17	2.977958E-18
5.843762E+03	6.417813E-17	2.951482E-18
5.853717E+03	6.406835E-17	2.924883E-18
5.863672E+03	6.397095E-17	2.897841E-18
5.873627E+03	6.387919E-17	2.870051E-18
5.883583E+03	6.380035E-17	2.841842E-18
5.893538E+03	6.374172E-17	2.813533E-18
5.903493E+03	6.368947E-17	2.784509E-18
5.913449E+03	6.365096E-17	2.755098E-18
5.923404E+03	6.363337E-17	2.725608E-18
5.933359E+03	6.362301E-17	2.695450E-18
5.943315E+03	6.362714E-17	2.664940E-18
5.953270E+03	6.364602E-17	2.634092E-18
5.963225E+03	6.368000E-17	2.602926E-18
5.973180E+03	6.372927E-17	2.571455E-18
5.983136E+03	6.379417E-17	2.539702E-18
5.993091E+03	6.386803E-17	2.507416E-18
6.003046E+03	6.396507E-17	2.475171E-18
6.013002E+03	6.407863E-17	2.442716E-18
6.022957E+03	6.420911E-17	2.410087E-18
6.032912E+03	6.434972E-17	2.377055E-18
6.042868E+03	6.451485E-17	2.344181E-18
6.052823E+03	6.469081E-17	2.310995E-18
6.062778E+03	6.489207E-17	2.278055E-18
6.072733E+03	6.510481E-17	2.244913E-18
6.082689E+03	6.533642E-17	2.211882E-18
6.092644E+03	6.559456E-17	2.179273E-18
6.102599E+03	6.586527E-17	2.146683E-18
6.112555E+03	6.615604E-17	2.114440E-18
6.122510E+03	6.646735E-17	2.082642E-18
6.132465E+03	6.679953E-17	2.051398E-18
6.142421E+03	6.716053E-17	2.021054E-18
6.152376E+03	6.753599E-17	1.991296E-18
6.162331E+03	6.793371E-17	1.962500E-18
6.172286E+03	6.835416E-17	1.934833E-18
6.182242E+03	6.879028E-17	1.908268E-18
6.192197E+03	6.925756E-17	1.883424E-18
6.202152E+03	6.974901E-17	1.860306E-18
6.212108E+03	7.026504E-17	1.839148E-18
6.222063E+03	7.080622E-17	1.820200E-18
6.232018E+03	7.136504E-17	1.803526E-18
6.241974E+03	7.195754E-17	1.789801E-18
6.251929E+03	7.257608E-17	1.779106E-18
6.261884E+03	7.321247E-17	1.771524E-18
6.271839E+03	7.388244E-17	1.767719E-18
6.281795E+03	7.456908E-17	1.767418E-18
6.291750E+03	7.528788E-17	1.770984E-18
6.301705E+03	7.602164E-17	1.777980E-18
6.311661E+03	7.677753E-17	1.788536E-18
6.321616E+03	7.756328E-17	1.802780E-18
6.331571E+03	7.836085E-17	1.820228E-18
6.341527E+03	7.917774E-17	1.840987E-18
6.351482E+03	8.002171E-17	1.865165E-18
6.361437E+03	8.087407E-17	1.892253E-18
6.371392E+03	8.174248E-17	1.922356E-18
6.381348E+03	8.262565E-17	1.955373E-18
6.391303E+03	8.352234E-17	1.991210E-18
6.401258E+03	8.443131E-17	2.029782E-18
6.411214E+03	8.535110E-17	2.071004E-18
6.421169E+03	8.628043E-17	2.114809E-18
6.431124E+03	8.721774E-17	2.161129E-18
6.441080E+03	8.816158E-17	2.209914E-18
6.451035E+03	8.911033E-17	2.261118E-18
6.460990E+03	9.006243E-17	2.314711E-18
6.470945E+03	9.101620E-17	2.370668E-18
6.480901E+03	9.196998E-17	2.428975E-18
6.490856E+03	9.291179E-17	2.489354E-18
6.500811E+03	9.386026E-17	2.552349E-18
6.510767E+03	9.480345E-17	2.617702E-18
6.520722E+03	9.572907E-17	2.685134E-18
6.530677E+03	9.665663E-17	2.755260E-18
6.540633E+03	9.757419E-17	2.827825E-18
6.550588E+03	9.846962E-17	2.902551E-18
6.560543E+03	9.936343E-17	2.980120E-18
6.570498E+03	1.002330E-16	3.059939E-18
6.580454E+03	1.010996E-16	3.142670E-18
6.590409E+03	1.019407E-16	3.227474E-18
6.600364E+03	1.027782E-16	3.314889E-18
6.610320E+03	1.035889E-16	3.404007E-18
6.620275E+03	1.043955E-16	3.495399E-18
6.630230E+03	1.051745E-16	3.588116E-18
6.640186E+03	1.059370E-16	3.682355E-18
6.650141E+03	1.066945E-16	3.778348E-18
6.660096E+03	1.074230E-16	3.875090E-18
6.670051E+03	1.081341E-16	3.972805E-18
6.680007E+03	1.088275E-16	4.071319E-18
6.689962E+03	1.095152E-16	4.170917E-18
6.699917E+03	1.101725E-16	4.270511E-18
6.709873E+03	1.108114E-16	4.370382E-18
6.719828E+03	1.114316E-16	4.470365E-18
6.729783E+03	1.120332E-16	4.570296E-18
6.739739E+03	1.126158E-16	4.670016E-18
6.749694E+03	1.131793E-16	4.769367E-18
6.759649E+03	1.137237E-16	4.868201E-18
6.769604E+03	1.142487E-16	4.966367E-18
6.779560E+03	1.147545E-16	5.063722E-18
6.789515E+03	1.152408E-16	5.160128E-18
6.799470E+03	1.157077E-16	5.255450E-18
6.809426E+03	1.161551E-16	5.349551E-18
6.819381E+03	1.165830E-16	5.442311E-18
6.829336E+03	1.169914E-16	5.533607E-18
6.839292E+03	1.173673E-16	5.622690E-18
6.849247E+03	1.177369E-16	5.710692E-18
6.859202E+03	1.180870E-16	5.796885E-18
6.869157E+03	1.184180E-16	5.881167E-18
6.879113E+03	1.187164E-16	5.962769E-18
6.889068E+03	1.190091E-16	6.042916E-18
6.899023E+03	1.192826E-16	6.120858E-18
6.908979E+03	1.195240E-16	6.195813E-18
6.918934E+03	1.197600E-16	6.269079E-18
6.928889E+03	1.199774E-16	6.339890E-18
6.938845E+03	1.201629E-16	6.407448E-18
6.948800E+03	1.203437E-16	6.473112E-18
6.958755E+03	1.204929E-16	6.535377E-18
6.968710E+03	1.206376E-16	6.595626E-18
6.978666E+03	1.207512E-16	6.652339E-18
6.988621E+03	1.208472E-16	6.706183E-18
6.998576E+03	1.209396E-16	6.757874E-18
7.008532E+03	1.210013E-16	6.805849E-18
7.018487E+03	1.210598E-16	6.851593E-18
7.028442E+03	1.210882E-16	6.893524E-18
7.038398E+03	1.211001E-16	6.932371E-18
7.048353E+03	1.210961E-16	6.968111E-18
7.058308E+03	1.210898E-16	7.001493E-18
7.068263E+03	1.210543E-16	7.030920E-18
7.078219E+03	1.210034E-16	7.057157E-18
7.088174E+03	1.209377E-16	7.080191E-18
7.098129E+03	1.208570E-16	7.099996E-18
7.108085E+03	1.207619E-16	7.116564E-18
7.118040E+03	1.206527E-16	7.129892E-18
7.127995E+03	1.205294E-16	7.139964E-18
7.137951E+03	1.203926E-16	7.146786E-18
7.147906E+03	1.202423E-16	7.150349E-18
7.157861E+03	1.200790E-16	7.150666E-18
7.167817E+03	1.199028E-16	7.147734E-18
7.177772E+03	1.197142E-16	7.141570E-18
7.187727E+03	1.195133E-16	7.132172E-18
7.197682E+03	1.193005E-16	7.119569E-18
7.207638E+03	1.190759E-16	7.103764E-18
7.217593E+03	1.188266E-16	7.083985E-18
7.227548E+03	1.185797E-16	7.061853E-18
7.237504E+03	1.183218E-16	7.036585E-18
7.247459E+03	1.180534E-16	7.008210E-18
7.257414E+03	1.177614E-16	6.975965E-18
7.267370E+03	1.174728E-16	6.941468E-18
7.277325E+03	1.171745E-16	6.903956E-18
7.287280E+03	1.168534E-16	6.862681E-18
7.297235E+03	1.165364E-16	6.819248E-18
7.307191E+03	1.161973E-16	6.772135E-18
7.317146E+03	1.158627E-16	6.722935E-18
7.327101E+03	1.155065E-16	6.670152E-18
7.337057E+03	1.151423E-16	6.614608E-18
7.347012E+03	1.147833E-16	6.557088E-18
7.356967E+03	1.144035E-16	6.496151E-18
7.366923E+03	1.140164E-16	6.432594E-18
7.376878E+03	1.136351E-16	6.367207E-18
7.386833E+03	1.132339E-16	6.298577E-18
7.396788E+03	1.128261E-16	6.227500E-18
7.406744E+03	1.124118E-16	6.154036E-18
7.416699E+03	1.120041E-16	6.078940E-18
7.426654E+03	1.115776E-16	6.000886E-18
7.436610E+03	1.111452E-16	5.920637E-18
7.446565E+03	1.107073E-16	5.838269E-18
7.456520E+03	1.102640E-16	5.753852E-18
7.466476E+03	1.098155E-16	5.667463E-18
7.476431E+03	1.093620E-16	5.579184E-18
7.486386E+03	1.089037E-16	5.489094E-18
7.496341E+03	1.084284E-16	5.396665E-18
7.506297E+03	1.079611E-16	5.303233E-18
7.516252E+03	1.074895E-16	5.208266E-18
7.526207E+03	1.070139E-16	5.111866E-18
7.536163E+03	1.065344E-16	5.014136E-18
7.546118E+03	1.060389E-16	4.914623E-18
7.556073E+03	1.055520E-16	4.814587E-18
7.566029E+03	1.050617E-16	4.713580E-18
7.575984E+03	1.045561E-16	4.611201E-18
7.585939E+03	1.040593E-16	4.508668E-18
7.595894E+03	1.035476E-16	4.405080E-18
7.605850E+03	1.030450E-16	4.301633E-18
7.615805E+03	1.025278E-16	4.197498E-18
7.625760E+03	1.020080E-16	4.093371E-18
7.635716E+03	1.014977E-16	3.989925E-18
7.645671E+03	1.009732E-16	3.886444E-18
7.655626E+03	1.004466E-16	3.783641E-18
7.665582E+03	9.992952E-17	3.682215E-18
7.675537E+03	9.939886E-17	3.581582E-18
7.685492E+03	9.886637E-17	3.482495E-18
7.695447E+03	9.833215E-17	3.385294E-18
7.705403E+03	9.779622E-17	3.290349E-18
7.715358E+03	9.725885E-17	3.198068E-18
7.725313E+03	9.672000E-17	3.108886E-18
