#wls	flux	fluxerr
1.592848E+03	1.838230E-18	7.193561E-19
1.632669E+03	1.924267E-18	7.479672E-19
1.672491E+03	2.004482E-18	7.737911E-19
1.712312E+03	2.077188E-18	7.962157E-19
1.752133E+03	2.140605E-18	8.146142E-19
1.791954E+03	2.191062E-18	8.276674E-19
1.831775E+03	2.224286E-18	8.338745E-19
1.871597E+03	2.234183E-18	8.311106E-19
1.911418E+03	2.216455E-18	8.179895E-19
1.951239E+03	2.167804E-18	7.935492E-19
1.991060E+03	2.090944E-18	7.590591E-19
2.030881E+03	1.998695E-18	7.194001E-19
2.070703E+03	1.914491E-18	6.830887E-19
2.110524E+03	1.870640E-18	6.614849E-19
2.150345E+03	1.895427E-18	6.641199E-19
2.190166E+03	2.004543E-18	6.957694E-19
2.229987E+03	2.195812E-18	7.548365E-19
2.269809E+03	2.455488E-18	8.357917E-19
2.309630E+03	2.763198E-18	9.310349E-19
2.349451E+03	3.100067E-18	1.033729E-18
2.389272E+03	3.451915E-18	1.138836E-18
2.429093E+03	3.810510E-18	1.243457E-18
2.468915E+03	4.170696E-18	1.345796E-18
2.508736E+03	4.530763E-18	1.445233E-18
2.548557E+03	4.890748E-18	1.541722E-18
2.588378E+03	5.252543E-18	1.635795E-18
2.628199E+03	5.615834E-18	1.727274E-18
2.668021E+03	5.984106E-18	1.817142E-18
2.707842E+03	6.359185E-18	1.905825E-18
2.747663E+03	6.740543E-18	1.993025E-18
2.787484E+03	7.131957E-18	2.079704E-18
2.827305E+03	7.532498E-18	2.165407E-18
2.867127E+03	7.947411E-18	2.251441E-18
2.906948E+03	8.374159E-18	2.336850E-18
2.946769E+03	8.815301E-18	2.422116E-18
2.986590E+03	9.273649E-18	2.507742E-18
2.996546E+03	9.390846E-18	2.529148E-18
3.006501E+03	9.509123E-18	2.550555E-18
3.016456E+03	9.628502E-18	2.571964E-18
3.026411E+03	9.749178E-18	2.593422E-18
3.036367E+03	9.871904E-18	2.615122E-18
3.046322E+03	9.997374E-18	2.637240E-18
3.056277E+03	1.012586E-17	2.659836E-18
3.066233E+03	1.025714E-17	2.682843E-18
3.076188E+03	1.039104E-17	2.706202E-18
3.086143E+03	1.052737E-17	2.729856E-18
3.096099E+03	1.066597E-17	2.753752E-18
3.106054E+03	1.080669E-17	2.777844E-18
3.116009E+03	1.094939E-17	2.802088E-18
3.125964E+03	1.109396E-17	2.826443E-18
3.135920E+03	1.124026E-17	2.850872E-18
3.145875E+03	1.139011E-17	2.875826E-18
3.155830E+03	1.153962E-17	2.900310E-18
3.165786E+03	1.169058E-17	2.924776E-18
3.175741E+03	1.184292E-17	2.949198E-18
3.185696E+03	1.199658E-17	2.973554E-18
3.195652E+03	1.215149E-17	2.997823E-18
3.205607E+03	1.230967E-17	3.022492E-18
3.215562E+03	1.246697E-17	3.046536E-18
3.225517E+03	1.262539E-17	3.070443E-18
3.235473E+03	1.278490E-17	3.094200E-18
3.245428E+03	1.294548E-17	3.117796E-18
3.255383E+03	1.310929E-17	3.141745E-18
3.265339E+03	1.327197E-17	3.164994E-18
3.275294E+03	1.343568E-17	3.188056E-18
3.285249E+03	1.360040E-17	3.210925E-18
3.295205E+03	1.376844E-17	3.234135E-18
3.305160E+03	1.393524E-17	3.256608E-18
3.315115E+03	1.410307E-17	3.278876E-18
3.325070E+03	1.427195E-17	3.300937E-18
3.335026E+03	1.444430E-17	3.323343E-18
3.344981E+03	1.461535E-17	3.344990E-18
3.354936E+03	1.478752E-17	3.366427E-18
3.364892E+03	1.496330E-17	3.388218E-18
3.374847E+03	1.513778E-17	3.409240E-18
3.384802E+03	1.531345E-17	3.430054E-18
3.394758E+03	1.549292E-17	3.451235E-18
3.404713E+03	1.567110E-17	3.471642E-18
3.414668E+03	1.585057E-17	3.491845E-18
3.424623E+03	1.603403E-17	3.512429E-18
3.434579E+03	1.621623E-17	3.532236E-18
3.444534E+03	1.639983E-17	3.551844E-18
3.454489E+03	1.658763E-17	3.571850E-18
3.464445E+03	1.677420E-17	3.591074E-18
3.474400E+03	1.696511E-17	3.610704E-18
3.484355E+03	1.715481E-17	3.629551E-18
3.494311E+03	1.734614E-17	3.648212E-18
3.504266E+03	1.754203E-17	3.667291E-18
3.514221E+03	1.773675E-17	3.685585E-18
3.524176E+03	1.793618E-17	3.704305E-18
3.534132E+03	1.813448E-17	3.722237E-18
3.544087E+03	1.833764E-17	3.740603E-18
3.554042E+03	1.853969E-17	3.758174E-18
3.563998E+03	1.874366E-17	3.775565E-18
3.573953E+03	1.895271E-17	3.793399E-18
3.583908E+03	1.916069E-17	3.810431E-18
3.593864E+03	1.937390E-17	3.827909E-18
3.603819E+03	1.958605E-17	3.844578E-18
3.613774E+03	1.980357E-17	3.861695E-18
3.623729E+03	2.002005E-17	3.877995E-18
3.633685E+03	2.024206E-17	3.894743E-18
3.643640E+03	2.046302E-17	3.910664E-18
3.653595E+03	2.068965E-17	3.927033E-18
3.663551E+03	2.091524E-17	3.942564E-18
3.673506E+03	2.114664E-17	3.958539E-18
3.683461E+03	2.137699E-17	3.973663E-18
3.693417E+03	2.160976E-17	3.988576E-18
3.703372E+03	2.184852E-17	4.003926E-18
3.713327E+03	2.208623E-17	4.018404E-18
3.723282E+03	2.233007E-17	4.033310E-18
3.733238E+03	2.257283E-17	4.047329E-18
3.743193E+03	2.282184E-17	4.061767E-18
3.753148E+03	2.306973E-17	4.075299E-18
3.763104E+03	2.332400E-17	4.089240E-18
3.773059E+03	2.357711E-17	4.102255E-18
3.783014E+03	2.383671E-17	4.115668E-18
3.792970E+03	2.409511E-17	4.128134E-18
3.802925E+03	2.436009E-17	4.140982E-18
3.812880E+03	2.462381E-17	4.152862E-18
3.822835E+03	2.489422E-17	4.165109E-18
3.832791E+03	2.516330E-17	4.176365E-18
3.842746E+03	2.543916E-17	4.187970E-18
3.852701E+03	2.571361E-17	4.198559E-18
3.862657E+03	2.599492E-17	4.209478E-18
3.872612E+03	2.627472E-17	4.219357E-18
3.882567E+03	2.656147E-17	4.229545E-18
3.892523E+03	2.684661E-17	4.238667E-18
3.902478E+03	2.713438E-17	4.247391E-18
3.912433E+03	2.742918E-17	4.256392E-18
3.922388E+03	2.772220E-17	4.264285E-18
3.932344E+03	2.802231E-17	4.272431E-18
3.942299E+03	2.832050E-17	4.279442E-18
3.952254E+03	2.862582E-17	4.286681E-18
3.962210E+03	2.892908E-17	4.292757E-18
3.972165E+03	2.923950E-17	4.299035E-18
3.982120E+03	2.954770E-17	4.304122E-18
3.992076E+03	2.986308E-17	4.309385E-18
4.002031E+03	3.017607E-17	4.313427E-18
4.011986E+03	3.049136E-17	4.316928E-18
4.021941E+03	3.081384E-17	4.320564E-18
4.031897E+03	3.113363E-17	4.322938E-18
4.041852E+03	3.146061E-17	4.325421E-18
4.051807E+03	3.178471E-17	4.326614E-18
4.061763E+03	3.211082E-17	4.327197E-18
4.071718E+03	3.244409E-17	4.327847E-18
4.081673E+03	3.277412E-17	4.327168E-18
4.091629E+03	3.310598E-17	4.325839E-18
4.101584E+03	3.344493E-17	4.324537E-18
4.111539E+03	3.378026E-17	4.321870E-18
4.121494E+03	3.412261E-17	4.319204E-18
4.131450E+03	3.446109E-17	4.315150E-18
4.141405E+03	3.480098E-17	4.310387E-18
4.151360E+03	3.514778E-17	4.305587E-18
4.161316E+03	3.549026E-17	4.299371E-18
4.171271E+03	3.583387E-17	4.292413E-18
4.181226E+03	3.617850E-17	4.284705E-18
4.191182E+03	3.652984E-17	4.276918E-18
4.201137E+03	3.687624E-17	4.267683E-18
4.211092E+03	3.722332E-17	4.257674E-18
4.221047E+03	3.757693E-17	4.247559E-18
4.231003E+03	3.792509E-17	4.235983E-18
4.240958E+03	3.827357E-17	4.223616E-18
4.250913E+03	3.862225E-17	4.210455E-18
4.260869E+03	3.897715E-17	4.197160E-18
4.270824E+03	3.932587E-17	4.182401E-18
4.280779E+03	3.967439E-17	4.166843E-18
4.290735E+03	4.002257E-17	4.150486E-18
4.300690E+03	4.037024E-17	4.133332E-18
4.310645E+03	4.071729E-17	4.115384E-18
4.320601E+03	4.107003E-17	4.097293E-18
4.330556E+03	4.141540E-17	4.077769E-18
4.340511E+03	4.175969E-17	4.057470E-18
4.350466E+03	4.210273E-17	4.036403E-18
4.360422E+03	4.244436E-17	4.014579E-18
4.370377E+03	4.278443E-17	3.992011E-18
4.380332E+03	4.312278E-17	3.968712E-18
4.390288E+03	4.345923E-17	3.944698E-18
4.400243E+03	4.379362E-17	3.919986E-18
4.410198E+03	4.412580E-17	3.894598E-18
4.420154E+03	4.445558E-17	3.868552E-18
4.430109E+03	4.478280E-17	3.841874E-18
4.440064E+03	4.511436E-17	3.815186E-18
4.450019E+03	4.542888E-17	3.786724E-18
4.459975E+03	4.574741E-17	3.758310E-18
4.469930E+03	4.606269E-17	3.729380E-18
4.479885E+03	4.637456E-17	3.699968E-18
4.489841E+03	4.668285E-17	3.670111E-18
4.499796E+03	4.698740E-17	3.639850E-18
4.509751E+03	4.728802E-17	3.609225E-18
4.519707E+03	4.758457E-17	3.578282E-18
4.529662E+03	4.787687E-17	3.547068E-18
4.539617E+03	4.816475E-17	3.515632E-18
4.549572E+03	4.844806E-17	3.484028E-18
4.559528E+03	4.871904E-17	3.451771E-18
4.569483E+03	4.899269E-17	3.420000E-18
4.579438E+03	4.926129E-17	3.388233E-18
4.589394E+03	4.952471E-17	3.356531E-18
4.599349E+03	4.978278E-17	3.324959E-18
4.609304E+03	5.002758E-17	3.293072E-18
4.619260E+03	5.027452E-17	3.261970E-18
4.629215E+03	5.051565E-17	3.231201E-18
4.639170E+03	5.074304E-17	3.200349E-18
4.649125E+03	5.097227E-17	3.170483E-18
4.659081E+03	5.119534E-17	3.141178E-18
4.669036E+03	5.140419E-17	3.112029E-18
4.678991E+03	5.161455E-17	3.084080E-18
4.688947E+03	5.181847E-17	3.056929E-18
4.698902E+03	5.200772E-17	3.030179E-18
4.708857E+03	5.219828E-17	3.004853E-18
4.718813E+03	5.237397E-17	2.980094E-18
4.728768E+03	5.255083E-17	2.956904E-18
4.738723E+03	5.271256E-17	2.934437E-18
4.748678E+03	5.287534E-17	2.913676E-18
4.758634E+03	5.302273E-17	2.893783E-18
4.768589E+03	5.317103E-17	2.875721E-18
4.778544E+03	5.330373E-17	2.858656E-18
4.788500E+03	5.343720E-17	2.843501E-18
4.798455E+03	5.355493E-17	2.829349E-18
4.808410E+03	5.367344E-17	2.817044E-18
4.818366E+03	5.377607E-17	2.805671E-18
4.828321E+03	5.387117E-17	2.795624E-18
4.838276E+03	5.396705E-17	2.787285E-18
4.848231E+03	5.404707E-17	2.779739E-18
4.858187E+03	5.411953E-17	2.773359E-18
4.868142E+03	5.419279E-17	2.768510E-18
4.878097E+03	5.425021E-17	2.764278E-18
4.888053E+03	5.430014E-17	2.761023E-18
4.898008E+03	5.434260E-17	2.758679E-18
4.907963E+03	5.438602E-17	2.757601E-18
4.917919E+03	5.441374E-17	2.756872E-18
4.927874E+03	5.443413E-17	2.756847E-18
4.937829E+03	5.444727E-17	2.757456E-18
4.947784E+03	5.445320E-17	2.758630E-18
4.957740E+03	5.445206E-17	2.760304E-18
4.967695E+03	5.444384E-17	2.762407E-18
4.977650E+03	5.442873E-17	2.764879E-18
4.987606E+03	5.441510E-17	2.768077E-18
4.997561E+03	5.438636E-17	2.771093E-18
5.007516E+03	5.435091E-17	2.774288E-18
5.017472E+03	5.430896E-17	2.777613E-18
5.027427E+03	5.426056E-17	2.781008E-18
5.037382E+03	5.419760E-17	2.784001E-18
5.047337E+03	5.413671E-17	2.787391E-18
5.057293E+03	5.406974E-17	2.790706E-18
5.067248E+03	5.399689E-17	2.793909E-18
5.077203E+03	5.391821E-17	2.796955E-18
5.087159E+03	5.383387E-17	2.799810E-18
5.097114E+03	5.374402E-17	2.802440E-18
5.107069E+03	5.364883E-17	2.804815E-18
5.117025E+03	5.354021E-17	2.806476E-18
5.126980E+03	5.343472E-17	2.808258E-18
5.136935E+03	5.332437E-17	2.809711E-18
5.146890E+03	5.320922E-17	2.810813E-18
5.156846E+03	5.308142E-17	2.811120E-18
5.166801E+03	5.295727E-17	2.811475E-18
5.176756E+03	5.282888E-17	2.811438E-18
5.186712E+03	5.268838E-17	2.810574E-18
5.196667E+03	5.255202E-17	2.809731E-18
5.206622E+03	5.241185E-17	2.808474E-18
5.216578E+03	5.226014E-17	2.806376E-18
5.226533E+03	5.211304E-17	2.804293E-18
5.236488E+03	5.195474E-17	2.801369E-18
5.246443E+03	5.180130E-17	2.798463E-18
5.256399E+03	5.163710E-17	2.794728E-18
5.266354E+03	5.147806E-17	2.791023E-18
5.276309E+03	5.130865E-17	2.786506E-18
5.286265E+03	5.114468E-17	2.782035E-18
5.296220E+03	5.097075E-17	2.776775E-18
5.306175E+03	5.080255E-17	2.771584E-18
5.316131E+03	5.062478E-17	2.765632E-18
5.326086E+03	5.044535E-17	2.759356E-18
5.336041E+03	5.027209E-17	2.753192E-18
5.345996E+03	5.008985E-17	2.746317E-18
5.355952E+03	4.990647E-17	2.739169E-18
5.365907E+03	4.972966E-17	2.732181E-18
5.375862E+03	4.954445E-17	2.724540E-18
5.385818E+03	4.935859E-17	2.716682E-18
5.395773E+03	4.917224E-17	2.708626E-18
5.405728E+03	4.899299E-17	2.700803E-18
5.415684E+03	4.880611E-17	2.692411E-18
5.425639E+03	4.861921E-17	2.683882E-18
5.435594E+03	4.843245E-17	2.675235E-18
5.445549E+03	4.824599E-17	2.666472E-18
5.455505E+03	4.806002E-17	2.657583E-18
5.465460E+03	4.788200E-17	2.648961E-18
5.475415E+03	4.769755E-17	2.639788E-18
5.485371E+03	4.751416E-17	2.630460E-18
5.495326E+03	4.733201E-17	2.620968E-18
5.505281E+03	4.715127E-17	2.611301E-18
5.515237E+03	4.697211E-17	2.601453E-18
5.525192E+03	4.679472E-17	2.591417E-18
5.535147E+03	4.661927E-17	2.581184E-18
5.545102E+03	4.644591E-17	2.570748E-18
5.555058E+03	4.627480E-17	2.560104E-18
5.565013E+03	4.609915E-17	2.548861E-18
5.574968E+03	4.593309E-17	2.537786E-18
5.584924E+03	4.576976E-17	2.526489E-18
5.594879E+03	4.560934E-17	2.514966E-18
5.604834E+03	4.545197E-17	2.503213E-18
5.614790E+03	4.529780E-17	2.491227E-18
5.624745E+03	4.514698E-17	2.479008E-18
5.634700E+03	4.499286E-17	2.466179E-18
5.644655E+03	4.484922E-17	2.453489E-18
5.654611E+03	4.470937E-17	2.440561E-18
5.664566E+03	4.457345E-17	2.427396E-18
5.674521E+03	4.443490E-17	2.413627E-18
5.684477E+03	4.430730E-17	2.399989E-18
5.694432E+03	4.418407E-17	2.386116E-18
5.704387E+03	4.405867E-17	2.371650E-18
5.714343E+03	4.394459E-17	2.357312E-18
5.724298E+03	4.383528E-17	2.342744E-18
5.734253E+03	4.372427E-17	2.327596E-18
5.744209E+03	4.362493E-17	2.312579E-18
5.754164E+03	4.352420E-17	2.296993E-18
5.764119E+03	4.343538E-17	2.281539E-18
5.774074E+03	4.334546E-17	2.265530E-18
5.784030E+03	4.326769E-17	2.249656E-18
5.793985E+03	4.318913E-17	2.233240E-18
5.803940E+03	4.312295E-17	2.216965E-18
5.813896E+03	4.305627E-17	2.200164E-18
5.823851E+03	4.300223E-17	2.183510E-18
5.833806E+03	4.294797E-17	2.166346E-18
5.843762E+03	4.290662E-17	2.149337E-18
5.853717E+03	4.286534E-17	2.131838E-18
5.863672E+03	4.283076E-17	2.114184E-18
5.873627E+03	4.280947E-17	2.096699E-18
5.883583E+03	4.278870E-17	2.078756E-18
5.893538E+03	4.277505E-17	2.060683E-18
5.903493E+03	4.277511E-17	2.042799E-18
5.913449E+03	4.277613E-17	2.024494E-18
5.923404E+03	4.278471E-17	2.006092E-18
5.933359E+03	4.280744E-17	1.987904E-18
5.943315E+03	4.283158E-17	1.969341E-18
5.953270E+03	4.286372E-17	1.950719E-18
5.963225E+03	4.290404E-17	1.932054E-18
5.973180E+03	4.295267E-17	1.913362E-18
5.983136E+03	4.301628E-17	1.894947E-18
5.993091E+03	4.308206E-17	1.876254E-18
6.003046E+03	4.315664E-17	1.857592E-18
6.013002E+03	4.324021E-17	1.838986E-18
6.022957E+03	4.333294E-17	1.820459E-18
6.032912E+03	4.343499E-17	1.802038E-18
6.042868E+03	4.354654E-17	1.783754E-18
6.052823E+03	4.367436E-17	1.765905E-18
6.062778E+03	4.380548E-17	1.747991E-18
6.072733E+03	4.394665E-17	1.730319E-18
6.082689E+03	4.409806E-17	1.712931E-18
6.092644E+03	4.425990E-17	1.695872E-18
6.102599E+03	4.443236E-17	1.679192E-18
6.112555E+03	4.461563E-17	1.662944E-18
6.122510E+03	4.480992E-17	1.647186E-18
6.132465E+03	4.501541E-17	1.631981E-18
6.142421E+03	4.523232E-17	1.617397E-18
6.152376E+03	4.546082E-17	1.603506E-18
6.162331E+03	4.570115E-17	1.590388E-18
6.172286E+03	4.594654E-17	1.577888E-18
6.182242E+03	4.621103E-17	1.566572E-18
6.192197E+03	4.648791E-17	1.556296E-18
6.202152E+03	4.677737E-17	1.547159E-18
6.212108E+03	4.707960E-17	1.539267E-18
6.222063E+03	4.739476E-17	1.532729E-18
6.232018E+03	4.772302E-17	1.527658E-18
6.241974E+03	4.805726E-17	1.523941E-18
6.251929E+03	4.841203E-17	1.522155E-18
6.261884E+03	4.878001E-17	1.522184E-18
6.271839E+03	4.916098E-17	1.524117E-18
6.281795E+03	4.955458E-17	1.527969E-18
6.291750E+03	4.995290E-17	1.533502E-18
6.301705E+03	5.037054E-17	1.541167E-18
6.311661E+03	5.079961E-17	1.550721E-18
6.321616E+03	5.123966E-17	1.562146E-18
6.331571E+03	5.168245E-17	1.575185E-18
6.341527E+03	5.214302E-17	1.590289E-18
6.351482E+03	5.261314E-17	1.607196E-18
6.361437E+03	5.308429E-17	1.625634E-18
6.371392E+03	5.357187E-17	1.646062E-18
6.381348E+03	5.406738E-17	1.668207E-18
6.391303E+03	5.456200E-17	1.691785E-18
6.401258E+03	5.507153E-17	1.717270E-18
6.411214E+03	5.557878E-17	1.744117E-18
6.421169E+03	5.609983E-17	1.772816E-18
6.431124E+03	5.662569E-17	1.803078E-18
6.441080E+03	5.714703E-17	1.834596E-18
6.451035E+03	5.768034E-17	1.867888E-18
6.460990E+03	5.820754E-17	1.902367E-18
6.470945E+03	5.874539E-17	1.938574E-18
6.480901E+03	5.927547E-17	1.975901E-18
6.490856E+03	5.981484E-17	2.014913E-18
6.500811E+03	6.034472E-17	2.054981E-18
6.510767E+03	6.088247E-17	2.096697E-18
6.520722E+03	6.140894E-17	2.139406E-18
6.530677E+03	6.194184E-17	2.183726E-18
6.540633E+03	6.246182E-17	2.228984E-18
6.550588E+03	6.298693E-17	2.275826E-18
6.560543E+03	6.349774E-17	2.323559E-18
6.570498E+03	6.400317E-17	2.372506E-18
6.580454E+03	6.451276E-17	2.422988E-18
6.590409E+03	6.500668E-17	2.474191E-18
6.600364E+03	6.550428E-17	2.526769E-18
6.610320E+03	6.598554E-17	2.579876E-18
6.620275E+03	6.646002E-17	2.633796E-18
6.630230E+03	6.693766E-17	2.688847E-18
6.640186E+03	6.739803E-17	2.744135E-18
6.650141E+03	6.785090E-17	2.799965E-18
6.660096E+03	6.830643E-17	2.856684E-18
6.670051E+03	6.874373E-17	2.913341E-18
6.680007E+03	6.917293E-17	2.970278E-18
6.689962E+03	6.959375E-17	3.027402E-18
6.699917E+03	7.001672E-17	3.085101E-18
6.709873E+03	7.042043E-17	3.142361E-18
6.719828E+03	7.081517E-17	3.199553E-18
6.729783E+03	7.121173E-17	3.257098E-18
6.739739E+03	7.158835E-17	3.313931E-18
6.749694E+03	7.195558E-17	3.370458E-18
6.759649E+03	7.231334E-17	3.426604E-18
6.769604E+03	7.266144E-17	3.482291E-18
6.779560E+03	7.301090E-17	3.537985E-18
6.789515E+03	7.333942E-17	3.592545E-18
6.799470E+03	7.365802E-17	3.646434E-18
6.809426E+03	7.396649E-17	3.699578E-18
6.819381E+03	7.426484E-17	3.751915E-18
6.829336E+03	7.455297E-17	3.803379E-18
6.839292E+03	7.483074E-17	3.853904E-18
6.849247E+03	7.510950E-17	3.904024E-18
6.859202E+03	7.536653E-17	3.952504E-18
6.869157E+03	7.561306E-17	3.999872E-18
6.879113E+03	7.584901E-17	4.046068E-18
6.889068E+03	7.607446E-17	4.091046E-18
6.899023E+03	7.628932E-17	4.134751E-18
6.908979E+03	7.649355E-17	4.177134E-18
6.918934E+03	7.668714E-17	4.218148E-18
6.928889E+03	7.687012E-17	4.257749E-18
6.938845E+03	7.704247E-17	4.295894E-18
6.948800E+03	7.720426E-17	4.332544E-18
6.958755E+03	7.735538E-17	4.367655E-18
6.968710E+03	7.749597E-17	4.401197E-18
6.978666E+03	7.762602E-17	4.433132E-18
6.988621E+03	7.774546E-17	4.463421E-18
6.998576E+03	7.785448E-17	4.492044E-18
7.008532E+03	7.795310E-17	4.518969E-18
7.018487E+03	7.804123E-17	4.544163E-18
7.028442E+03	7.811910E-17	4.567610E-18
7.038398E+03	7.818671E-17	4.589285E-18
7.048353E+03	7.824407E-17	4.609164E-18
7.058308E+03	7.829133E-17	4.627234E-18
7.068263E+03	7.832851E-17	4.643474E-18
7.078219E+03	7.834375E-17	4.657159E-18
7.088174E+03	7.836102E-17	4.669697E-18
7.098129E+03	7.836847E-17	4.680367E-18
7.108085E+03	7.836621E-17	4.689163E-18
7.118040E+03	7.835425E-17	4.696073E-18
7.127995E+03	7.833283E-17	4.701101E-18
7.137951E+03	7.830192E-17	4.704234E-18
7.147906E+03	7.824980E-17	4.704762E-18
7.157861E+03	7.820034E-17	4.704113E-18
7.167817E+03	7.814177E-17	4.701575E-18
7.177772E+03	7.807420E-17	4.697153E-18
7.187727E+03	7.798580E-17	4.690136E-18
7.197682E+03	7.790061E-17	4.681968E-18
7.207638E+03	7.780667E-17	4.671935E-18
7.217593E+03	7.770425E-17	4.660055E-18
7.227548E+03	7.758158E-17	4.645630E-18
7.237504E+03	7.746246E-17	4.630094E-18
7.247459E+03	7.733514E-17	4.612750E-18
7.257414E+03	7.719979E-17	4.593621E-18
7.267370E+03	7.704480E-17	4.572027E-18
7.277325E+03	7.689385E-17	4.549393E-18
7.287280E+03	7.673518E-17	4.525033E-18
7.297235E+03	7.655729E-17	4.498288E-18
7.307191E+03	7.638376E-17	4.470566E-18
7.317146E+03	7.620302E-17	4.441205E-18
7.327101E+03	7.600351E-17	4.409556E-18
7.337057E+03	7.580866E-17	4.377007E-18
7.347012E+03	7.559543E-17	4.342250E-18
7.356967E+03	7.538706E-17	4.306651E-18
7.366923E+03	7.517211E-17	4.269579E-18
7.376878E+03	7.493925E-17	4.230426E-18
7.386833E+03	7.471162E-17	4.190535E-18
7.396788E+03	7.446641E-17	4.148657E-18
7.406744E+03	7.422655E-17	4.106113E-18
7.416699E+03	7.396959E-17	4.061694E-18
7.426654E+03	7.371816E-17	4.016691E-18
7.436610E+03	7.344982E-17	3.969918E-18
7.446565E+03	7.318735E-17	3.922658E-18
7.456520E+03	7.290836E-17	3.873755E-18
7.466476E+03	7.263537E-17	3.824460E-18
7.476431E+03	7.234619E-17	3.773653E-18
7.486386E+03	7.206322E-17	3.722565E-18
7.496341E+03	7.176442E-17	3.670110E-18
7.506297E+03	7.147200E-17	3.617493E-18
7.516252E+03	7.116412E-17	3.563665E-18
7.526207E+03	7.086280E-17	3.509806E-18
7.536163E+03	7.054637E-17	3.454908E-18
7.546118E+03	7.023667E-17	3.400123E-18
7.556073E+03	6.991221E-17	3.344483E-18
7.566029E+03	6.958396E-17	3.288612E-18
7.575984E+03	6.926271E-17	3.233100E-18
7.585939E+03	6.892722E-17	3.177044E-18
7.595894E+03	6.858833E-17	3.121055E-18
7.605850E+03	6.825668E-17	3.065715E-18
7.615805E+03	6.791132E-17	3.010186E-18
7.625760E+03	6.756295E-17	2.955070E-18
7.635716E+03	6.722203E-17	2.900941E-18
7.645671E+03	6.686796E-17	2.847031E-18
7.655626E+03	6.651123E-17	2.793934E-18
7.665582E+03	6.616219E-17	2.742220E-18
7.675537E+03	6.580051E-17	2.691188E-18
7.685492E+03	6.543655E-17	2.641429E-18
7.695447E+03	6.507045E-17	2.593108E-18
7.705403E+03	6.471231E-17	2.546791E-18
7.715358E+03	6.434222E-17	2.501861E-18
7.725313E+03	6.397034E-17	2.458901E-18
