#wls	flux	fluxerr
1.592848E+03	1.579264E-18	4.372358E-19
1.632669E+03	1.645715E-18	4.531784E-19
1.672491E+03	1.706691E-18	4.673742E-19
1.712312E+03	1.760526E-18	4.793882E-19
1.752133E+03	1.806449E-18	4.890394E-19
1.791954E+03	1.841184E-18	4.954790E-19
1.831775E+03	1.860980E-18	4.977537E-19
1.871597E+03	1.861609E-18	4.948106E-19
1.911418E+03	1.839095E-18	4.856947E-19
1.951239E+03	1.791327E-18	4.699722E-19
1.991060E+03	1.720846E-18	4.484403E-19
2.030881E+03	1.638136E-18	4.239387E-19
2.070703E+03	1.563049E-18	4.016423E-19
2.110524E+03	1.521197E-18	3.880491E-19
2.150345E+03	1.535374E-18	3.887482E-19
2.190166E+03	1.617316E-18	4.063670E-19
2.229987E+03	1.765373E-18	4.400917E-19
2.269809E+03	1.966631E-18	4.863221E-19
2.309630E+03	2.205230E-18	5.408267E-19
2.349451E+03	2.465052E-18	5.994315E-19
2.389272E+03	2.735519E-18	6.594249E-19
2.429093E+03	3.008614E-18	7.187945E-19
2.468915E+03	3.281744E-18	7.768779E-19
2.508736E+03	3.553120E-18	8.332243E-19
2.548557E+03	3.822144E-18	8.876749E-19
2.588378E+03	4.090939E-18	9.407023E-19
2.628199E+03	4.360017E-18	9.923930E-19
2.668021E+03	4.630638E-18	1.042997E-18
2.707842E+03	4.904059E-18	1.092751E-18
2.747663E+03	5.181469E-18	1.141864E-18
2.787484E+03	5.463992E-18	1.190518E-18
2.827305E+03	5.752665E-18	1.238864E-18
2.867127E+03	6.048444E-18	1.287025E-18
2.906948E+03	6.353355E-18	1.335336E-18
2.946769E+03	6.666026E-18	1.383403E-18
2.986590E+03	6.988311E-18	1.431509E-18
2.996546E+03	7.070787E-18	1.443610E-18
3.006501E+03	7.153926E-18	1.455717E-18
3.016456E+03	7.236464E-18	1.467570E-18
3.026411E+03	7.321090E-18	1.479715E-18
3.036367E+03	7.407097E-18	1.492004E-18
3.046322E+03	7.495003E-18	1.504537E-18
3.056277E+03	7.585002E-18	1.517349E-18
3.066233E+03	7.676930E-18	1.530401E-18
3.076188E+03	7.769264E-18	1.543388E-18
3.086143E+03	7.864598E-18	1.556820E-18
3.096099E+03	7.961440E-18	1.570396E-18
3.106054E+03	8.059679E-18	1.584092E-18
3.116009E+03	8.159206E-18	1.597881E-18
3.125964E+03	8.259917E-18	1.611739E-18
3.135920E+03	8.361728E-18	1.625649E-18
3.145875E+03	8.463054E-18	1.639298E-18
3.155830E+03	8.566798E-18	1.653249E-18
3.165786E+03	8.671416E-18	1.667198E-18
3.175741E+03	8.776842E-18	1.681129E-18
3.185696E+03	8.883023E-18	1.695031E-18
3.195652E+03	8.989914E-18	1.708892E-18
3.205607E+03	9.097469E-18	1.722701E-18
3.215562E+03	9.204028E-18	1.736143E-18
3.225517E+03	9.312786E-18	1.749820E-18
3.235473E+03	9.422115E-18	1.763422E-18
3.245428E+03	9.531991E-18	1.776942E-18
3.255383E+03	9.642392E-18	1.790373E-18
3.265339E+03	9.753310E-18	1.803713E-18
3.275294E+03	9.864729E-18	1.816957E-18
3.285249E+03	9.976643E-18	1.830103E-18
3.295205E+03	1.008727E-17	1.842821E-18
3.305160E+03	1.020015E-17	1.855760E-18
3.315115E+03	1.031353E-17	1.868594E-18
3.325070E+03	1.042741E-17	1.881322E-18
3.335026E+03	1.054179E-17	1.893944E-18
3.344981E+03	1.065669E-17	1.906460E-18
3.354936E+03	1.077212E-17	1.918871E-18
3.364892E+03	1.088810E-17	1.931176E-18
3.374847E+03	1.100269E-17	1.943034E-18
3.384802E+03	1.111978E-17	1.955129E-18
3.394758E+03	1.123747E-17	1.967122E-18
3.404713E+03	1.135577E-17	1.979014E-18
3.414668E+03	1.147470E-17	1.990807E-18
3.424623E+03	1.159429E-17	2.002502E-18
3.434579E+03	1.171456E-17	2.014102E-18
3.444534E+03	1.183554E-17	2.025607E-18
3.454489E+03	1.195724E-17	2.037021E-18
3.464445E+03	1.207970E-17	2.048343E-18
3.474400E+03	1.220079E-17	2.059216E-18
3.484355E+03	1.232481E-17	2.070362E-18
3.494311E+03	1.244966E-17	2.081422E-18
3.504266E+03	1.257536E-17	2.092400E-18
3.514221E+03	1.270195E-17	2.103296E-18
3.524176E+03	1.282944E-17	2.114113E-18
3.534132E+03	1.295786E-17	2.124850E-18
3.544087E+03	1.308724E-17	2.135510E-18
3.554042E+03	1.321760E-17	2.146095E-18
3.563998E+03	1.334897E-17	2.156604E-18
3.573953E+03	1.347901E-17	2.166659E-18
3.583908E+03	1.361245E-17	2.177020E-18
3.593864E+03	1.374696E-17	2.187308E-18
3.603819E+03	1.388258E-17	2.197524E-18
3.613774E+03	1.401932E-17	2.207669E-18
3.623729E+03	1.415721E-17	2.217742E-18
3.633685E+03	1.429627E-17	2.227743E-18
3.643640E+03	1.443652E-17	2.237673E-18
3.653595E+03	1.457796E-17	2.247531E-18
3.663551E+03	1.472064E-17	2.257316E-18
3.673506E+03	1.486196E-17	2.266631E-18
3.683461E+03	1.500711E-17	2.276267E-18
3.693417E+03	1.515354E-17	2.285829E-18
3.703372E+03	1.530126E-17	2.295314E-18
3.713327E+03	1.545029E-17	2.304721E-18
3.723282E+03	1.560063E-17	2.314048E-18
3.733238E+03	1.575231E-17	2.323295E-18
3.743193E+03	1.590532E-17	2.332458E-18
3.753148E+03	1.605969E-17	2.341536E-18
3.763104E+03	1.621541E-17	2.350527E-18
3.773059E+03	1.636964E-17	2.359015E-18
3.783014E+03	1.652808E-17	2.367821E-18
3.792970E+03	1.668789E-17	2.376532E-18
3.802925E+03	1.684908E-17	2.385144E-18
3.812880E+03	1.701166E-17	2.393655E-18
3.822835E+03	1.717563E-17	2.402061E-18
3.832791E+03	1.734097E-17	2.410358E-18
3.842746E+03	1.750771E-17	2.418545E-18
3.852701E+03	1.767582E-17	2.426615E-18
3.862657E+03	1.784531E-17	2.434566E-18
3.872612E+03	1.801303E-17	2.441968E-18
3.882567E+03	1.818523E-17	2.449668E-18
3.892523E+03	1.835878E-17	2.457236E-18
3.902478E+03	1.853368E-17	2.464668E-18
3.912433E+03	1.870992E-17	2.471960E-18
3.922388E+03	1.888748E-17	2.479108E-18
3.932344E+03	1.906635E-17	2.486106E-18
3.942299E+03	1.924651E-17	2.492951E-18
3.952254E+03	1.942796E-17	2.499637E-18
3.962210E+03	1.960723E-17	2.505723E-18
3.972165E+03	1.979113E-17	2.512076E-18
3.982120E+03	1.997626E-17	2.518257E-18
3.992076E+03	2.016257E-17	2.524259E-18
4.002031E+03	2.035004E-17	2.530078E-18
4.011986E+03	2.053866E-17	2.535710E-18
4.021941E+03	2.072839E-17	2.541148E-18
4.031897E+03	2.091920E-17	2.546389E-18
4.041852E+03	2.110739E-17	2.550982E-18
4.051807E+03	2.130023E-17	2.555810E-18
4.061763E+03	2.149406E-17	2.560426E-18
4.071718E+03	2.168883E-17	2.564824E-18
4.081673E+03	2.188451E-17	2.568999E-18
4.091629E+03	2.208105E-17	2.572947E-18
4.101584E+03	2.227842E-17	2.576663E-18
4.111539E+03	2.247265E-17	2.579692E-18
4.121494E+03	2.267150E-17	2.582928E-18
4.131450E+03	2.287104E-17	2.585919E-18
4.141405E+03	2.307121E-17	2.588659E-18
4.151360E+03	2.327197E-17	2.591144E-18
4.161316E+03	2.347327E-17	2.593371E-18
4.171271E+03	2.367505E-17	2.595335E-18
4.181226E+03	2.387310E-17	2.596581E-18
4.191182E+03	2.407563E-17	2.598008E-18
4.201137E+03	2.427847E-17	2.599162E-18
4.211092E+03	2.448155E-17	2.600039E-18
4.221047E+03	2.468482E-17	2.600637E-18
4.231003E+03	2.488820E-17	2.600952E-18
4.240958E+03	2.508727E-17	2.600530E-18
4.250913E+03	2.529064E-17	2.600273E-18
4.260869E+03	2.549392E-17	2.599726E-18
4.270824E+03	2.569705E-17	2.598889E-18
4.280779E+03	2.589994E-17	2.597759E-18
4.290735E+03	2.609797E-17	2.595885E-18
4.300690E+03	2.630013E-17	2.594168E-18
4.310645E+03	2.650181E-17	2.592156E-18
4.320601E+03	2.670293E-17	2.589849E-18
4.330556E+03	2.690343E-17	2.587247E-18
4.340511E+03	2.710321E-17	2.584351E-18
4.350466E+03	2.729745E-17	2.580714E-18
4.360422E+03	2.749550E-17	2.577234E-18
4.370377E+03	2.769257E-17	2.573463E-18
4.380332E+03	2.788857E-17	2.569405E-18
4.390288E+03	2.807854E-17	2.564616E-18
4.400243E+03	2.827208E-17	2.559991E-18
4.410198E+03	2.846427E-17	2.555086E-18
4.420154E+03	2.865502E-17	2.549907E-18
4.430109E+03	2.884421E-17	2.544457E-18
4.440064E+03	2.902672E-17	2.538301E-18
4.450019E+03	2.921248E-17	2.532326E-18
4.459975E+03	2.939640E-17	2.526095E-18
4.469930E+03	2.957835E-17	2.519616E-18
4.479885E+03	2.975309E-17	2.512459E-18
4.489841E+03	2.993078E-17	2.505504E-18
4.499796E+03	3.010620E-17	2.498322E-18
4.509751E+03	3.027922E-17	2.490920E-18
4.519707E+03	3.044449E-17	2.482877E-18
4.529662E+03	3.061238E-17	2.475063E-18
4.539617E+03	3.077756E-17	2.467057E-18
4.549572E+03	3.093991E-17	2.458868E-18
4.559528E+03	3.109392E-17	2.450082E-18
4.569483E+03	3.125023E-17	2.441560E-18
4.579438E+03	3.140336E-17	2.432887E-18
4.589394E+03	3.155320E-17	2.424075E-18
4.599349E+03	3.169415E-17	2.414718E-18
4.609304E+03	3.183702E-17	2.405663E-18
4.619260E+03	3.197625E-17	2.396506E-18
4.629215E+03	3.210616E-17	2.386845E-18
4.639170E+03	3.223771E-17	2.377522E-18
4.649125E+03	3.236527E-17	2.368134E-18
4.659081E+03	3.248310E-17	2.358287E-18
4.669036E+03	3.260230E-17	2.348812E-18
4.678991E+03	3.271714E-17	2.339314E-18
4.688947E+03	3.282186E-17	2.329404E-18
4.698902E+03	3.292767E-17	2.319902E-18
4.708857E+03	3.302881E-17	2.310420E-18
4.718813E+03	3.311946E-17	2.300574E-18
4.728768E+03	3.321097E-17	2.291175E-18
4.738723E+03	3.329753E-17	2.281839E-18
4.748678E+03	3.337331E-17	2.272190E-18
4.758634E+03	3.344977E-17	2.263029E-18
4.768589E+03	3.352112E-17	2.253978E-18
4.778544E+03	3.358151E-17	2.244663E-18
4.788500E+03	3.364254E-17	2.235862E-18
4.798455E+03	3.369845E-17	2.227185E-18
4.808410E+03	3.374346E-17	2.218248E-18
4.818366E+03	3.378926E-17	2.209817E-18
4.828321E+03	3.383010E-17	2.201507E-18
4.838276E+03	3.386021E-17	2.192936E-18
4.848231E+03	3.389134E-17	2.184862E-18
4.858187E+03	3.391190E-17	2.176526E-18
4.868142E+03	3.393366E-17	2.168677E-18
4.878097E+03	3.395085E-17	2.160935E-18
4.888053E+03	3.395773E-17	2.152925E-18
4.898008E+03	3.396608E-17	2.145386E-18
4.907963E+03	3.396429E-17	2.137572E-18
4.917919E+03	3.396418E-17	2.130217E-18
4.927874E+03	3.395997E-17	2.122944E-18
4.937829E+03	3.394592E-17	2.115386E-18
4.947784E+03	3.393384E-17	2.108265E-18
4.957740E+03	3.391212E-17	2.100848E-18
4.967695E+03	3.389256E-17	2.093855E-18
4.977650E+03	3.386357E-17	2.086556E-18
4.987606E+03	3.383694E-17	2.079665E-18
4.997561E+03	3.380110E-17	2.072459E-18
5.007516E+03	3.376782E-17	2.065647E-18
5.017472E+03	3.373134E-17	2.058864E-18
5.027427E+03	3.368601E-17	2.051752E-18
5.037382E+03	3.364350E-17	2.045011E-18
5.047337E+03	3.359234E-17	2.037932E-18
5.057293E+03	3.354422E-17	2.031212E-18
5.067248E+03	3.348766E-17	2.024143E-18
5.077203E+03	3.343433E-17	2.017421E-18
5.087159E+03	3.337279E-17	2.010344E-18
5.097114E+03	3.331466E-17	2.003601E-18
5.107069E+03	3.324856E-17	1.996497E-18
5.117025E+03	3.318604E-17	1.989715E-18
5.126980E+03	3.311578E-17	1.982568E-18
5.136935E+03	3.304928E-17	1.975734E-18
5.146890E+03	3.297527E-17	1.968529E-18
5.156846E+03	3.290519E-17	1.961630E-18
5.166801E+03	3.282783E-17	1.954357E-18
5.176756E+03	3.275458E-17	1.947383E-18
5.186712E+03	3.267427E-17	1.940034E-18
5.196667E+03	3.259263E-17	1.932645E-18
5.206622E+03	3.251536E-17	1.925547E-18
5.216578E+03	3.243135E-17	1.918074E-18
5.226533E+03	3.235187E-17	1.910887E-18
5.236488E+03	3.226588E-17	1.903328E-18
5.246443E+03	3.218456E-17	1.896052E-18
5.256399E+03	3.209696E-17	1.888407E-18
5.266354E+03	3.200869E-17	1.880721E-18
5.276309E+03	3.192534E-17	1.873317E-18
5.286265E+03	3.183601E-17	1.865550E-18
5.296220E+03	3.175174E-17	1.858065E-18
5.306175E+03	3.166170E-17	1.850224E-18
5.316131E+03	3.157686E-17	1.842666E-18
5.326086E+03	3.148645E-17	1.834759E-18
5.336041E+03	3.139600E-17	1.826823E-18
5.345996E+03	3.131096E-17	1.819173E-18
5.355952E+03	3.122064E-17	1.811186E-18
5.365907E+03	3.113053E-17	1.803180E-18
5.375862E+03	3.104603E-17	1.795465E-18
5.385818E+03	3.095654E-17	1.787427E-18
5.395773E+03	3.087278E-17	1.779684E-18
5.405728E+03	3.078423E-17	1.771629E-18
5.415684E+03	3.069627E-17	1.763571E-18
5.425639E+03	3.061422E-17	1.755817E-18
5.435594E+03	3.052765E-17	1.747766E-18
5.445549E+03	3.044190E-17	1.739725E-18
5.455505E+03	3.036224E-17	1.731988E-18
5.465460E+03	3.027831E-17	1.723958E-18
5.475415E+03	3.019540E-17	1.715930E-18
5.485371E+03	3.011875E-17	1.708194E-18
5.495326E+03	3.003806E-17	1.700161E-18
5.505281E+03	2.995858E-17	1.692123E-18
5.515237E+03	2.988039E-17	1.684079E-18
5.525192E+03	2.980866E-17	1.676313E-18
5.535147E+03	2.973320E-17	1.668247E-18
5.545102E+03	2.965922E-17	1.660171E-18
5.555058E+03	2.959185E-17	1.652364E-18
5.565013E+03	2.952098E-17	1.644259E-18
5.574968E+03	2.945177E-17	1.636140E-18
5.584924E+03	2.938429E-17	1.628005E-18
5.594879E+03	2.932361E-17	1.620132E-18
5.604834E+03	2.925972E-17	1.611964E-18
5.614790E+03	2.919775E-17	1.603780E-18
5.624745E+03	2.913772E-17	1.595579E-18
5.634700E+03	2.908469E-17	1.587635E-18
5.644655E+03	2.902873E-17	1.579402E-18
5.654611E+03	2.897491E-17	1.571154E-18
5.664566E+03	2.892327E-17	1.562892E-18
5.674521E+03	2.887882E-17	1.554883E-18
5.684477E+03	2.883172E-17	1.546594E-18
5.694432E+03	2.878696E-17	1.538295E-18
5.704387E+03	2.874461E-17	1.529986E-18
5.714343E+03	2.870965E-17	1.521931E-18
5.724298E+03	2.867229E-17	1.513608E-18
5.734253E+03	2.863749E-17	1.505281E-18
5.744209E+03	2.860533E-17	1.496954E-18
5.754164E+03	2.857585E-17	1.488627E-18
5.764119E+03	2.855401E-17	1.480559E-18
5.774074E+03	2.853007E-17	1.472242E-18
5.784030E+03	2.850898E-17	1.463936E-18
5.793985E+03	2.849079E-17	1.455643E-18
5.803940E+03	2.847557E-17	1.447367E-18
5.813896E+03	2.846338E-17	1.439112E-18
5.823851E+03	2.845913E-17	1.431128E-18
5.833806E+03	2.845314E-17	1.422927E-18
5.843762E+03	2.845034E-17	1.414761E-18
5.853717E+03	2.845079E-17	1.406634E-18
5.863672E+03	2.845455E-17	1.398552E-18
5.873627E+03	2.846167E-17	1.390520E-18
5.883583E+03	2.847223E-17	1.382546E-18
5.893538E+03	2.849114E-17	1.374869E-18
5.903493E+03	2.850872E-17	1.367026E-18
5.913449E+03	2.852991E-17	1.359260E-18
5.923404E+03	2.855476E-17	1.351579E-18
5.933359E+03	2.858335E-17	1.343990E-18
5.943315E+03	2.861572E-17	1.336504E-18
5.953270E+03	2.865195E-17	1.329127E-18
5.963225E+03	2.869211E-17	1.321871E-18
5.973180E+03	2.873624E-17	1.314746E-18
5.983136E+03	2.878935E-17	1.307985E-18
5.993091E+03	2.884166E-17	1.301152E-18
6.003046E+03	2.889814E-17	1.294484E-18
6.013002E+03	2.895888E-17	1.287994E-18
6.022957E+03	2.902393E-17	1.281693E-18
6.032912E+03	2.909336E-17	1.275598E-18
6.042868E+03	2.916724E-17	1.269723E-18
6.052823E+03	2.924565E-17	1.264083E-18
6.062778E+03	2.932864E-17	1.258695E-18
6.072733E+03	2.941628E-17	1.253576E-18
6.082689E+03	2.950864E-17	1.248745E-18
6.092644E+03	2.960580E-17	1.244220E-18
6.102599E+03	2.970781E-17	1.240021E-18
6.112555E+03	2.981474E-17	1.236169E-18
6.122510E+03	2.992666E-17	1.232686E-18
6.132465E+03	3.004363E-17	1.229594E-18
6.142421E+03	3.016572E-17	1.226916E-18
6.152376E+03	3.029296E-17	1.224676E-18
6.162331E+03	3.042544E-17	1.222899E-18
6.172286E+03	3.056318E-17	1.221612E-18
6.182242E+03	3.070625E-17	1.220839E-18
6.192197E+03	3.085467E-17	1.220609E-18
6.202152E+03	3.100847E-17	1.220947E-18
6.212108E+03	3.116769E-17	1.221883E-18
6.222063E+03	3.133232E-17	1.223442E-18
6.232018E+03	3.150239E-17	1.225655E-18
6.241974E+03	3.167788E-17	1.228548E-18
6.251929E+03	3.185871E-17	1.232147E-18
6.261884E+03	3.204474E-17	1.236462E-18
6.271839E+03	3.223579E-17	1.241487E-18
6.281795E+03	3.243167E-17	1.247217E-18
6.291750E+03	3.263219E-17	1.253644E-18
6.301705E+03	3.283711E-17	1.260761E-18
6.311661E+03	3.304623E-17	1.268559E-18
6.321616E+03	3.325932E-17	1.277028E-18
6.331571E+03	3.347613E-17	1.286160E-18
6.341527E+03	3.369642E-17	1.295942E-18
6.351482E+03	3.391993E-17	1.306363E-18
6.361437E+03	3.414638E-17	1.317411E-18
6.371392E+03	3.437550E-17	1.329074E-18
6.381348E+03	3.460701E-17	1.341338E-18
6.391303E+03	3.484060E-17	1.354188E-18
6.401258E+03	3.507599E-17	1.367611E-18
6.411214E+03	3.531284E-17	1.381590E-18
6.421169E+03	3.554477E-17	1.395871E-18
6.431124E+03	3.578359E-17	1.410913E-18
6.441080E+03	3.602291E-17	1.426463E-18
6.451035E+03	3.626242E-17	1.442505E-18
6.460990E+03	3.650177E-17	1.459019E-18
6.470945E+03	3.674063E-17	1.475989E-18
6.480901E+03	3.697868E-17	1.493396E-18
6.490856E+03	3.721561E-17	1.511224E-18
6.500811E+03	3.745109E-17	1.529455E-18
6.510767E+03	3.768482E-17	1.548070E-18
6.520722E+03	3.791002E-17	1.566783E-18
6.530677E+03	3.813937E-17	1.586113E-18
6.540633E+03	3.836617E-17	1.605778E-18
6.550588E+03	3.859027E-17	1.625764E-18
6.560543E+03	3.881154E-17	1.646053E-18
6.570498E+03	3.902990E-17	1.666616E-18
6.580454E+03	3.924527E-17	1.687428E-18
6.590409E+03	3.945081E-17	1.708167E-18
6.600364E+03	3.965995E-17	1.729388E-18
6.610320E+03	3.986591E-17	1.750775E-18
6.620275E+03	4.006861E-17	1.772300E-18
6.630230E+03	4.026801E-17	1.793936E-18
6.640186E+03	4.046405E-17	1.815657E-18
6.650141E+03	4.064972E-17	1.837120E-18
6.660096E+03	4.083888E-17	1.858926E-18
6.670051E+03	4.102454E-17	1.880737E-18
6.680007E+03	4.120667E-17	1.902527E-18
6.689962E+03	4.138522E-17	1.924271E-18
6.699917E+03	4.156017E-17	1.945944E-18
6.709873E+03	4.172431E-17	1.967184E-18
6.719828E+03	4.189190E-17	1.988636E-18
6.729783E+03	4.205578E-17	2.009945E-18
6.739739E+03	4.221592E-17	2.031086E-18
6.749694E+03	4.237230E-17	2.052037E-18
6.759649E+03	4.251759E-17	2.072419E-18
6.769604E+03	4.266633E-17	2.092919E-18
6.779560E+03	4.281123E-17	2.113163E-18
6.789515E+03	4.295227E-17	2.133131E-18
6.799470E+03	4.308943E-17	2.152801E-18
6.809426E+03	4.321529E-17	2.171783E-18
6.819381E+03	4.334463E-17	2.190797E-18
6.829336E+03	4.347003E-17	2.209457E-18
6.839292E+03	4.359150E-17	2.227745E-18
6.849247E+03	4.370153E-17	2.245258E-18
6.859202E+03	4.381507E-17	2.262746E-18
6.869157E+03	4.392465E-17	2.279811E-18
6.879113E+03	4.403025E-17	2.296437E-18
6.889068E+03	4.412432E-17	2.312213E-18
6.899023E+03	4.422195E-17	2.327915E-18
6.908979E+03	4.431560E-17	2.343134E-18
6.918934E+03	4.440527E-17	2.357858E-18
6.928889E+03	4.448332E-17	2.371667E-18
6.938845E+03	4.456501E-17	2.385360E-18
6.948800E+03	4.464272E-17	2.398522E-18
6.958755E+03	4.471647E-17	2.411140E-18
6.968710E+03	4.477856E-17	2.422790E-18
6.978666E+03	4.484437E-17	2.434291E-18
6.988621E+03	4.490623E-17	2.445221E-18
6.998576E+03	4.495643E-17	2.455149E-18
7.008532E+03	4.501041E-17	2.464908E-18
7.018487E+03	4.506048E-17	2.474072E-18
7.028442E+03	4.510664E-17	2.482634E-18
7.038398E+03	4.514116E-17	2.490161E-18
7.048353E+03	4.517955E-17	2.497500E-18
7.058308E+03	4.521409E-17	2.504221E-18
7.068263E+03	4.523702E-17	2.509889E-18
7.078219E+03	4.526390E-17	2.515360E-18
7.088174E+03	4.528697E-17	2.520202E-18
7.098129E+03	4.529849E-17	2.523979E-18
7.108085E+03	4.531402E-17	2.527555E-18
7.118040E+03	4.532582E-17	2.530497E-18
7.127995E+03	4.533390E-17	2.532803E-18
7.137951E+03	4.533051E-17	2.534038E-18
7.147906E+03	4.533125E-17	2.535074E-18
7.157861E+03	4.532835E-17	2.535477E-18
7.167817E+03	4.531405E-17	2.534812E-18
7.177772E+03	4.530395E-17	2.533953E-18
7.187727E+03	4.528252E-17	2.532033E-18
7.197682E+03	4.526535E-17	2.529925E-18
7.207638E+03	4.524467E-17	2.527199E-18
7.217593E+03	4.521276E-17	2.523426E-18
7.227548E+03	4.518518E-17	2.519478E-18
7.237504E+03	4.515420E-17	2.514929E-18
7.247459E+03	4.511209E-17	2.509352E-18
7.257414E+03	4.507439E-17	2.503620E-18
7.267370E+03	4.503339E-17	2.497307E-18
7.277325E+03	4.498138E-17	2.489994E-18
7.287280E+03	4.493386E-17	2.482548E-18
7.297235E+03	4.488313E-17	2.474549E-18
7.307191E+03	4.482151E-17	2.465583E-18
7.317146E+03	4.476447E-17	2.456512E-18
7.327101E+03	4.469664E-17	2.446500E-18
7.337057E+03	4.463343E-17	2.436403E-18
7.347012E+03	4.456718E-17	2.425813E-18
7.356967E+03	4.449028E-17	2.414326E-18
7.366923E+03	4.441808E-17	2.402790E-18
7.376878E+03	4.433532E-17	2.390393E-18
7.386833E+03	4.425730E-17	2.377973E-18
7.396788E+03	4.417642E-17	2.365134E-18
7.406744E+03	4.408514E-17	2.351490E-18
7.416699E+03	4.399867E-17	2.337869E-18
7.426654E+03	4.390189E-17	2.323482E-18
7.436610E+03	4.380997E-17	2.309153E-18
7.446565E+03	4.370786E-17	2.294103E-18
7.456520E+03	4.361064E-17	2.279147E-18
7.466476E+03	4.351081E-17	2.263907E-18
7.476431E+03	4.340094E-17	2.248020E-18
7.486386E+03	4.329603E-17	2.232286E-18
7.496341E+03	4.318119E-17	2.215958E-18
7.506297E+03	4.307134E-17	2.199826E-18
7.516252E+03	4.295167E-17	2.183156E-18
7.526207E+03	4.283702E-17	2.166729E-18
7.536163E+03	4.272002E-17	2.150193E-18
7.546118E+03	4.259336E-17	2.133211E-18
7.556073E+03	4.247177E-17	2.116547E-18
7.566029E+03	4.234063E-17	2.099501E-18
7.575984E+03	4.221460E-17	2.082829E-18
7.585939E+03	4.207912E-17	2.065842E-18
7.595894E+03	4.194877E-17	2.049287E-18
7.605850E+03	4.180910E-17	2.032489E-18
7.615805E+03	4.167456E-17	2.016184E-18
7.625760E+03	4.153081E-17	1.999709E-18
7.635716E+03	4.139222E-17	1.983792E-18
7.645671E+03	4.124453E-17	1.967782E-18
7.655626E+03	4.110200E-17	1.952395E-18
7.665582E+03	4.095048E-17	1.936994E-18
7.675537E+03	4.080415E-17	1.922286E-18
7.685492E+03	4.065593E-17	1.907971E-18
7.695447E+03	4.049889E-17	1.893761E-18
7.705403E+03	4.034703E-17	1.880350E-18
7.715358E+03	4.018644E-17	1.867123E-18
7.725313E+03	4.003103E-17	1.854766E-18
