#wls	flux	fluxerr
1.587256E+03	1.856921E-04	4.544865E-06
1.626937E+03	1.992297E-04	4.862091E-06
1.666619E+03	2.107950E-04	5.129093E-06
1.706300E+03	2.199339E-04	5.335230E-06
1.745982E+03	2.260056E-04	5.465501E-06
1.785663E+03	2.279288E-04	5.494500E-06
1.825344E+03	2.245437E-04	5.395305E-06
1.865026E+03	2.148198E-04	5.144499E-06
1.904707E+03	1.983546E-04	4.734037E-06
1.944389E+03	1.759586E-04	4.184919E-06
1.984070E+03	1.501348E-04	3.558044E-06
2.023751E+03	1.249885E-04	2.951338E-06
2.063433E+03	1.049866E-04	2.469830E-06
2.103114E+03	9.355855E-05	2.192633E-06
2.142795E+03	9.267560E-05	2.163523E-06
2.182477E+03	1.036463E-04	2.410061E-06
2.222158E+03	1.278694E-04	2.961301E-06
2.261840E+03	1.666895E-04	3.844409E-06
2.301521E+03	2.206024E-04	5.066408E-06
2.341202E+03	2.889697E-04	6.608063E-06
2.380884E+03	3.702701E-04	8.430153E-06
2.420565E+03	4.626992E-04	1.048753E-05
2.460247E+03	5.647185E-04	1.274170E-05
2.499928E+03	6.752131E-04	1.516420E-05
2.539609E+03	7.937412E-04	1.774206E-05
2.579291E+03	9.202521E-04	2.047110E-05
2.618972E+03	1.055149E-03	2.335721E-05
2.658654E+03	1.199112E-03	2.641210E-05
2.698335E+03	1.353146E-03	2.965431E-05
2.738016E+03	1.518430E-03	3.310566E-05
2.777698E+03	1.696333E-03	3.679154E-05
2.817379E+03	1.888573E-03	4.074417E-05
2.857061E+03	2.097114E-03	4.500026E-05
2.896742E+03	2.324439E-03	4.960660E-05
2.936423E+03	2.573600E-03	5.462094E-05
2.976105E+03	2.848346E-03	6.011422E-05
2.986025E+03	2.921528E-03	6.157175E-05
2.995946E+03	2.996672E-03	6.306608E-05
3.005866E+03	3.073850E-03	6.459855E-05
3.015786E+03	3.153425E-03	6.617657E-05
3.025707E+03	3.236216E-03	6.781709E-05
3.035627E+03	3.323203E-03	6.954033E-05
3.045547E+03	3.414466E-03	7.134759E-05
3.055468E+03	3.509817E-03	7.323451E-05
3.065388E+03	3.609363E-03	7.520301E-05
3.075308E+03	3.713009E-03	7.725068E-05
3.085229E+03	3.820740E-03	7.937685E-05
3.095149E+03	3.932706E-03	8.158428E-05
3.105069E+03	4.048763E-03	8.386957E-05
3.114990E+03	4.169007E-03	8.623434E-05
3.124910E+03	4.293467E-03	8.867881E-05
3.134830E+03	4.422263E-03	9.120508E-05
3.144751E+03	4.555364E-03	9.381211E-05
3.154671E+03	4.692912E-03	9.650244E-05
3.164591E+03	4.834982E-03	9.927718E-05
3.174512E+03	4.981563E-03	1.021357E-04
3.184432E+03	5.132833E-03	1.050813E-04
3.194353E+03	5.288983E-03	1.081173E-04
3.204273E+03	5.449938E-03	1.112419E-04
3.214193E+03	5.616000E-03	1.144608E-04
3.224114E+03	5.787103E-03	1.177721E-04
3.234034E+03	5.963663E-03	1.211839E-04
3.243954E+03	6.145525E-03	1.246925E-04
3.253875E+03	6.332914E-03	1.283020E-04
3.263795E+03	6.526072E-03	1.320169E-04
3.273715E+03	6.725016E-03	1.358369E-04
3.283636E+03	6.929975E-03	1.397662E-04
3.293556E+03	7.140835E-03	1.438019E-04
3.303476E+03	7.357767E-03	1.479470E-04
3.313397E+03	7.580811E-03	1.522017E-04
3.323317E+03	7.809970E-03	1.565656E-04
3.333237E+03	8.045174E-03	1.610368E-04
3.343158E+03	8.286165E-03	1.656095E-04
3.353078E+03	8.532736E-03	1.702792E-04
3.362998E+03	8.784543E-03	1.750384E-04
3.372919E+03	9.041165E-03	1.798785E-04
3.382839E+03	9.301900E-03	1.847851E-04
3.392760E+03	9.566051E-03	1.897440E-04
3.402680E+03	9.832756E-03	1.947379E-04
3.412600E+03	1.010087E-02	1.997441E-04
3.422521E+03	1.036924E-02	2.047395E-04
3.432441E+03	1.063651E-02	2.096977E-04
3.442361E+03	1.090095E-02	2.145845E-04
3.452282E+03	1.116104E-02	2.193706E-04
3.462202E+03	1.141485E-02	2.240184E-04
3.472122E+03	1.166029E-02	2.284876E-04
3.482043E+03	1.189526E-02	2.327381E-04
3.491963E+03	1.211721E-02	2.367211E-04
3.501883E+03	1.232379E-02	2.403918E-04
3.511804E+03	1.251238E-02	2.437007E-04
3.521724E+03	1.268039E-02	2.465991E-04
3.531644E+03	1.282526E-02	2.490392E-04
3.541565E+03	1.294470E-02	2.509786E-04
3.551485E+03	1.303661E-02	2.523792E-04
3.561405E+03	1.309984E-02	2.532210E-04
3.571326E+03	1.313392E-02	2.534975E-04
3.581246E+03	1.314028E-02	2.532391E-04
3.591167E+03	1.312125E-02	2.524929E-04
3.601087E+03	1.308056E-02	2.513327E-04
3.611007E+03	1.302197E-02	2.498329E-04
3.620928E+03	1.295040E-02	2.480890E-04
3.630848E+03	1.287099E-02	2.462004E-04
3.640768E+03	1.278954E-02	2.442790E-04
3.650689E+03	1.271196E-02	2.424373E-04
3.660609E+03	1.264479E-02	2.407994E-04
3.670529E+03	1.259456E-02	2.394888E-04
3.680450E+03	1.256840E-02	2.386394E-04
3.690370E+03	1.257330E-02	2.383815E-04
3.700290E+03	1.261663E-02	2.388523E-04
3.710211E+03	1.270529E-02	2.401788E-04
3.720131E+03	1.284665E-02	2.424967E-04
3.730051E+03	1.304779E-02	2.459347E-04
3.739972E+03	1.331570E-02	2.506199E-04
3.749892E+03	1.365716E-02	2.566740E-04
3.759812E+03	1.407892E-02	2.642178E-04
3.769733E+03	1.458654E-02	2.733494E-04
3.779653E+03	1.518534E-02	2.841611E-04
3.789574E+03	1.587949E-02	2.967239E-04
3.799494E+03	1.667155E-02	3.110782E-04
3.809414E+03	1.756220E-02	3.272287E-04
3.819335E+03	1.854946E-02	3.451311E-04
3.829255E+03	1.962827E-02	3.646841E-04
3.839175E+03	2.078955E-02	3.857123E-04
3.849096E+03	2.201986E-02	4.079603E-04
3.859016E+03	2.330128E-02	4.310918E-04
3.868936E+03	2.461122E-02	4.546859E-04
3.878857E+03	2.592332E-02	4.782541E-04
3.888777E+03	2.720755E-02	5.012438E-04
3.898697E+03	2.843268E-02	5.230829E-04
3.908618E+03	2.956657E-02	5.431857E-04
3.918538E+03	3.057955E-02	5.610157E-04
3.928458E+03	3.144480E-02	5.760908E-04
3.938379E+03	3.214103E-02	5.880329E-04
3.948299E+03	3.265434E-02	5.966014E-04
3.958219E+03	3.297762E-02	6.016807E-04
3.968140E+03	3.311214E-02	6.033081E-04
3.978060E+03	3.306652E-02	6.016548E-04
3.987981E+03	3.285635E-02	5.970173E-04
3.997901E+03	3.250224E-02	5.897820E-04
4.007821E+03	3.202849E-02	5.803997E-04
4.017742E+03	3.146196E-02	5.693653E-04
4.027662E+03	3.083016E-02	5.571825E-04
4.037582E+03	3.015856E-02	5.443153E-04
4.047503E+03	2.947227E-02	5.312194E-04
4.057423E+03	2.879266E-02	5.182802E-04
4.067343E+03	2.813812E-02	5.058276E-04
4.077264E+03	2.752341E-02	4.941244E-04
4.087184E+03	2.696081E-02	4.833878E-04
4.097104E+03	2.645855E-02	4.737616E-04
4.107025E+03	2.602258E-02	4.653474E-04
4.116945E+03	2.565660E-02	4.582070E-04
4.126865E+03	2.536099E-02	4.523417E-04
4.136786E+03	2.513480E-02	4.477297E-04
4.146706E+03	2.497570E-02	4.443250E-04
4.156626E+03	2.487908E-02	4.420409E-04
4.166547E+03	2.483968E-02	4.407797E-04
4.176467E+03	2.485167E-02	4.404342E-04
4.186387E+03	2.490828E-02	4.408815E-04
4.196308E+03	2.500191E-02	4.419839E-04
4.206228E+03	2.512494E-02	4.436048E-04
4.216149E+03	2.526911E-02	4.455965E-04
4.226069E+03	2.542661E-02	4.478202E-04
4.235989E+03	2.558942E-02	4.501341E-04
4.245910E+03	2.575000E-02	4.524054E-04
4.255830E+03	2.590150E-02	4.545143E-04
4.265750E+03	2.603775E-02	4.563531E-04
4.275671E+03	2.615493E-02	4.578564E-04
4.285591E+03	2.625004E-02	4.589726E-04
4.295511E+03	2.632241E-02	4.596918E-04
4.305432E+03	2.637354E-02	4.600416E-04
4.315352E+03	2.640783E-02	4.600999E-04
4.325272E+03	2.643066E-02	4.599615E-04
4.335193E+03	2.645033E-02	4.597714E-04
4.345113E+03	2.647698E-02	4.597054E-04
4.355033E+03	2.652318E-02	4.599814E-04
4.364954E+03	2.660459E-02	4.608694E-04
4.374874E+03	2.673946E-02	4.626828E-04
4.384794E+03	2.694667E-02	4.657452E-04
4.394715E+03	2.724170E-02	4.703192E-04
4.404635E+03	2.763923E-02	4.766532E-04
4.414556E+03	2.815090E-02	4.849421E-04
4.424476E+03	2.878371E-02	4.952995E-04
4.434396E+03	2.954156E-02	5.077862E-04
4.444317E+03	3.042344E-02	5.223778E-04
4.454237E+03	3.142439E-02	5.389824E-04
4.464157E+03	3.253305E-02	5.573994E-04
4.474078E+03	3.373450E-02	5.773678E-04
4.483998E+03	3.500695E-02	5.985098E-04
4.493918E+03	3.632357E-02	6.203643E-04
4.503839E+03	3.765308E-02	6.423954E-04
4.513759E+03	3.895985E-02	6.639952E-04
4.523679E+03	4.020697E-02	6.845373E-04
4.533600E+03	4.135538E-02	7.033606E-04
4.543520E+03	4.236855E-02	7.198501E-04
4.553440E+03	4.321300E-02	7.334447E-04
4.563361E+03	4.386003E-02	7.436670E-04
4.573281E+03	4.428801E-02	7.501609E-04
4.583201E+03	4.448296E-02	7.527011E-04
4.593122E+03	4.443945E-02	7.512080E-04
4.603042E+03	4.416117E-02	7.457559E-04
4.612963E+03	4.365972E-02	7.365523E-04
4.622883E+03	4.295298E-02	7.239094E-04
4.632803E+03	4.206654E-02	7.082685E-04
4.642724E+03	4.102971E-02	6.901310E-04
4.652644E+03	3.987477E-02	6.700467E-04
4.662564E+03	3.863636E-02	6.486025E-04
4.672485E+03	3.734852E-02	6.263732E-04
4.682405E+03	3.604355E-02	6.039018E-04
4.692325E+03	3.475095E-02	5.816826E-04
4.702246E+03	3.349658E-02	5.601473E-04
4.712166E+03	3.230194E-02	5.396528E-04
4.722086E+03	3.118325E-02	5.204666E-04
4.732007E+03	3.015257E-02	5.027859E-04
4.741927E+03	2.921770E-02	4.867363E-04
4.751847E+03	2.838212E-02	4.723708E-04
4.761768E+03	2.764572E-02	4.596827E-04
4.771688E+03	2.700763E-02	4.486529E-04
4.781608E+03	2.646382E-02	4.392095E-04
4.791529E+03	2.600992E-02	4.312758E-04
4.801449E+03	2.564058E-02	4.247588E-04
4.811370E+03	2.534884E-02	4.195393E-04
4.821290E+03	2.512830E-02	4.155079E-04
4.831210E+03	2.497167E-02	4.125408E-04
4.841131E+03	2.487185E-02	4.105180E-04
4.851051E+03	2.482073E-02	4.093031E-04
4.860971E+03	2.481185E-02	4.087875E-04
4.870892E+03	2.483793E-02	4.088495E-04
4.880812E+03	2.489269E-02	4.093842E-04
4.890732E+03	2.497000E-02	4.102897E-04
4.900653E+03	2.506533E-02	4.114907E-04
4.910573E+03	2.517425E-02	4.129137E-04
4.920493E+03	2.529433E-02	4.145186E-04
4.930414E+03	2.542578E-02	4.163079E-04
4.940334E+03	2.556941E-02	4.182948E-04
4.950254E+03	2.572753E-02	4.205165E-04
4.960175E+03	2.590417E-02	4.230383E-04
4.970095E+03	2.610388E-02	4.259335E-04
4.980015E+03	2.633084E-02	4.292696E-04
4.989936E+03	2.658987E-02	4.331239E-04
4.999856E+03	2.688544E-02	4.375682E-04
5.009777E+03	2.722170E-02	4.426682E-04
5.019697E+03	2.760170E-02	4.484722E-04
5.029617E+03	2.802830E-02	4.550247E-04
5.039538E+03	2.850434E-02	4.623704E-04
5.049458E+03	2.903162E-02	4.705364E-04
5.059378E+03	2.961243E-02	4.795579E-04
5.069299E+03	3.024822E-02	4.894567E-04
5.079219E+03	3.094093E-02	5.002620E-04
5.089139E+03	3.169206E-02	5.119962E-04
5.099060E+03	3.250246E-02	5.246709E-04
5.108980E+03	3.337187E-02	5.382800E-04
5.118900E+03	3.429949E-02	5.528088E-04
5.128821E+03	3.528177E-02	5.681982E-04
5.138741E+03	3.631388E-02	5.843688E-04
5.148661E+03	3.738788E-02	6.011914E-04
5.158582E+03	3.849379E-02	6.185049E-04
5.168502E+03	3.961927E-02	6.361101E-04
5.178422E+03	4.074963E-02	6.537712E-04
5.188343E+03	4.186763E-02	6.712122E-04
5.198263E+03	4.295686E-02	6.881713E-04
5.208183E+03	4.399817E-02	7.043432E-04
5.218104E+03	4.497465E-02	7.194599E-04
5.228024E+03	4.586956E-02	7.332561E-04
5.237945E+03	4.666919E-02	7.455164E-04
5.247865E+03	4.736127E-02	7.560485E-04
5.257785E+03	4.793732E-02	7.647212E-04
5.267706E+03	4.839311E-02	7.714710E-04
5.277626E+03	4.872613E-02	7.762624E-04
5.287546E+03	4.893886E-02	7.791390E-04
5.297467E+03	4.903570E-02	7.801748E-04
5.307387E+03	4.902335E-02	7.794803E-04
5.317307E+03	4.891065E-02	7.771993E-04
5.327228E+03	4.870785E-02	7.734976E-04
5.337148E+03	4.842610E-02	7.685550E-04
5.347068E+03	4.807544E-02	7.625331E-04
5.356989E+03	4.766767E-02	7.556210E-04
5.366909E+03	4.721384E-02	7.479951E-04
5.376829E+03	4.672565E-02	7.398419E-04
5.386750E+03	4.621342E-02	7.313257E-04
5.396670E+03	4.568988E-02	7.226480E-04
5.406590E+03	4.516700E-02	7.139985E-04
5.416511E+03	4.465842E-02	7.055925E-04
5.426431E+03	4.417344E-02	6.975761E-04
5.436352E+03	4.371824E-02	6.900457E-04
5.446272E+03	4.329790E-02	6.830805E-04
5.456192E+03	4.291438E-02	6.767104E-04
5.466113E+03	4.256386E-02	6.708738E-04
5.476033E+03	4.223730E-02	6.654273E-04
5.485953E+03	4.192700E-02	6.602490E-04
5.495874E+03	4.162258E-02	6.551749E-04
5.505794E+03	4.131516E-02	6.500647E-04
5.515714E+03	4.099667E-02	6.447915E-04
5.525635E+03	4.066044E-02	6.392501E-04
5.535555E+03	4.030049E-02	6.333470E-04
5.545475E+03	3.991358E-02	6.270312E-04
5.555396E+03	3.949899E-02	6.202915E-04
5.565316E+03	3.905758E-02	6.131418E-04
5.575236E+03	3.859205E-02	6.056247E-04
5.585157E+03	3.810818E-02	5.978307E-04
5.595077E+03	3.761204E-02	5.898553E-04
5.604997E+03	3.711162E-02	5.818233E-04
5.614918E+03	3.661553E-02	5.738697E-04
5.624838E+03	3.613318E-02	5.661414E-04
5.634759E+03	3.567345E-02	5.587773E-04
5.644679E+03	3.524457E-02	5.519054E-04
5.654599E+03	3.485433E-02	5.456471E-04
5.664520E+03	3.450941E-02	5.401062E-04
5.674440E+03	3.421411E-02	5.353495E-04
5.684360E+03	3.397204E-02	5.314325E-04
5.694281E+03	3.378505E-02	5.283832E-04
5.704201E+03	3.365298E-02	5.261987E-04
5.714121E+03	3.357505E-02	5.248661E-04
5.724042E+03	3.354778E-02	5.243304E-04
5.733962E+03	3.356793E-02	5.245401E-04
5.743882E+03	3.363021E-02	5.254124E-04
5.753803E+03	3.372930E-02	5.268637E-04
5.763723E+03	3.385914E-02	5.287991E-04
5.773643E+03	3.401323E-02	5.311170E-04
5.783564E+03	3.418533E-02	5.337195E-04
5.793484E+03	3.436858E-02	5.364998E-04
5.803404E+03	3.455703E-02	5.393647E-04
5.813325E+03	3.474460E-02	5.422196E-04
5.823245E+03	3.492571E-02	5.449772E-04
5.833166E+03	3.509636E-02	5.475755E-04
5.843086E+03	3.525176E-02	5.499398E-04
5.853006E+03	3.538972E-02	5.520358E-04
5.862927E+03	3.550769E-02	5.538244E-04
5.872847E+03	3.560408E-02	5.552804E-04
5.882767E+03	3.567835E-02	5.563958E-04
5.892688E+03	3.572926E-02	5.571514E-04
5.902608E+03	3.575697E-02	5.575496E-04
5.912528E+03	3.576172E-02	5.575945E-04
5.922449E+03	3.574260E-02	5.572717E-04
5.932369E+03	3.569981E-02	5.565846E-04
5.942289E+03	3.563282E-02	5.555248E-04
5.952210E+03	3.554058E-02	5.540763E-04
5.962130E+03	3.542245E-02	5.522286E-04
5.972050E+03	3.527768E-02	5.499705E-04
5.981971E+03	3.510524E-02	5.472857E-04
5.991891E+03	3.490468E-02	5.441671E-04
6.001811E+03	3.467617E-02	5.406174E-04
6.011732E+03	3.441851E-02	5.366177E-04
6.021652E+03	3.413313E-02	5.321903E-04
6.031573E+03	3.381999E-02	5.273344E-04
6.041493E+03	3.348186E-02	5.220930E-04
6.051413E+03	3.312048E-02	5.164931E-04
6.061334E+03	3.274053E-02	5.106077E-04
6.071254E+03	3.234678E-02	5.045106E-04
6.081174E+03	3.194627E-02	4.983118E-04
6.091095E+03	3.154656E-02	4.921288E-04
6.101015E+03	3.115653E-02	4.861003E-04
6.110935E+03	3.078645E-02	4.803864E-04
6.120856E+03	3.044608E-02	4.751394E-04
6.130776E+03	3.014634E-02	4.705298E-04
6.140696E+03	2.989732E-02	4.667153E-04
6.150617E+03	2.970801E-02	4.638366E-04
6.160537E+03	2.958640E-02	4.620189E-04
6.170457E+03	2.953968E-02	4.613750E-04
6.180378E+03	2.957189E-02	4.619690E-04
6.190298E+03	2.968559E-02	4.638414E-04
6.200218E+03	2.988160E-02	4.670059E-04
6.210139E+03	3.015853E-02	4.714419E-04
6.220059E+03	3.051141E-02	4.770730E-04
6.229979E+03	3.093423E-02	4.838059E-04
6.239900E+03	3.141867E-02	4.915118E-04
6.249820E+03	3.195409E-02	5.000254E-04
6.259741E+03	3.252785E-02	5.091498E-04
6.269661E+03	3.312534E-02	5.186571E-04
6.279581E+03	3.373177E-02	5.283165E-04
6.289502E+03	3.433047E-02	5.378674E-04
6.299422E+03	3.490574E-02	5.470641E-04
6.309342E+03	3.544220E-02	5.556654E-04
6.319263E+03	3.592618E-02	5.634569E-04
6.329183E+03	3.634681E-02	5.702673E-04
6.339103E+03	3.669629E-02	5.759738E-04
6.349024E+03	3.697042E-02	5.805089E-04
6.358944E+03	3.716847E-02	5.838600E-04
6.368864E+03	3.729465E-02	5.860918E-04
6.378785E+03	3.735586E-02	5.873109E-04
6.388705E+03	3.736179E-02	5.876686E-04
6.398625E+03	3.732446E-02	5.873525E-04
6.408546E+03	3.725648E-02	5.865603E-04
6.418466E+03	3.717199E-02	5.855134E-04
6.428386E+03	3.708458E-02	5.844258E-04
6.438307E+03	3.700844E-02	5.835206E-04
6.448227E+03	3.695556E-02	5.829873E-04
6.458148E+03	3.693844E-02	5.830234E-04
6.468068E+03	3.696639E-02	5.837769E-04
6.477988E+03	3.704739E-02	5.853745E-04
6.487909E+03	3.718198E-02	5.878264E-04
6.497829E+03	3.736349E-02	5.910281E-04
6.507749E+03	3.758068E-02	5.948031E-04
6.517670E+03	3.781830E-02	5.989106E-04
6.527590E+03	3.806194E-02	6.031230E-04
6.537510E+03	3.829727E-02	6.072131E-04
6.547431E+03	3.850887E-02	6.109359E-04
6.557351E+03	3.868530E-02	6.141093E-04
6.567271E+03	3.881480E-02	6.165451E-04
6.577192E+03	3.889057E-02	6.181341E-04
6.587112E+03	3.890598E-02	6.187688E-04
6.597032E+03	3.885917E-02	6.184178E-04
6.606953E+03	3.875038E-02	6.170829E-04
6.616873E+03	3.858148E-02	6.147918E-04
6.626793E+03	3.835752E-02	6.116232E-04
6.636714E+03	3.808389E-02	6.076607E-04
6.646634E+03	3.776743E-02	6.030123E-04
6.656555E+03	3.741489E-02	5.977841E-04
6.666475E+03	3.703187E-02	5.920641E-04
6.676395E+03	3.662416E-02	5.859440E-04
6.686316E+03	3.619863E-02	5.795326E-04
6.696236E+03	3.575959E-02	5.728982E-04
6.706156E+03	3.531313E-02	5.661378E-04
6.716077E+03	3.486404E-02	5.593280E-04
6.725997E+03	3.441645E-02	5.525344E-04
6.735917E+03	3.397502E-02	5.458322E-04
6.745838E+03	3.354375E-02	5.392854E-04
6.755758E+03	3.312711E-02	5.329663E-04
6.765678E+03	3.272816E-02	5.269247E-04
6.775599E+03	3.234930E-02	5.211994E-04
6.785519E+03	3.199374E-02	5.158427E-04
6.795439E+03	3.166384E-02	5.108936E-04
6.805360E+03	3.136106E-02	5.063764E-04
6.815280E+03	3.108599E-02	5.023015E-04
6.825200E+03	3.083937E-02	4.986818E-04
6.835121E+03	3.062187E-02	4.955289E-04
6.845041E+03	3.043261E-02	4.928295E-04
6.854962E+03	3.027101E-02	4.905754E-04
6.864882E+03	3.013589E-02	4.887482E-04
6.874802E+03	3.002599E-02	4.873283E-04
6.884723E+03	2.993984E-02	4.862929E-04
6.894643E+03	2.987581E-02	4.856162E-04
6.904563E+03	2.983166E-02	4.852625E-04
6.914484E+03	2.980580E-02	4.852067E-04
6.924404E+03	2.979724E-02	4.854332E-04
6.934324E+03	2.980451E-02	4.859188E-04
6.944245E+03	2.982523E-02	4.866251E-04
6.954165E+03	2.985935E-02	4.875518E-04
6.964085E+03	2.990530E-02	4.886738E-04
6.974006E+03	2.996230E-02	4.899787E-04
6.983926E+03	3.002900E-02	4.914449E-04
6.993846E+03	3.010541E-02	4.930729E-04
7.003767E+03	3.019109E-02	4.948558E-04
7.013687E+03	3.028550E-02	4.967851E-04
7.023607E+03	3.038755E-02	4.988434E-04
7.033528E+03	3.049679E-02	5.010235E-04
7.043448E+03	3.061316E-02	5.033245E-04
7.053369E+03	3.073531E-02	5.057249E-04
7.063289E+03	3.086187E-02	5.082021E-04
7.073209E+03	3.099306E-02	5.107600E-04
7.083130E+03	3.112717E-02	5.133706E-04
7.093050E+03	3.126312E-02	5.160162E-04
7.102970E+03	3.139885E-02	5.186630E-04
7.112891E+03	3.153371E-02	5.213000E-04
7.122811E+03	3.166623E-02	5.239033E-04
7.132731E+03	3.179414E-02	5.264349E-04
7.142652E+03	3.191581E-02	5.288678E-04
7.152572E+03	3.203008E-02	5.311826E-04
7.162492E+03	3.213438E-02	5.333365E-04
7.172413E+03	3.222667E-02	5.352950E-04
7.182333E+03	3.230480E-02	5.370221E-04
7.192253E+03	3.236645E-02	5.384787E-04
7.202174E+03	3.240854E-02	5.396129E-04
7.212094E+03	3.243001E-02	5.404064E-04
7.222014E+03	3.242767E-02	5.408051E-04
7.231935E+03	3.239771E-02	5.407445E-04
7.241855E+03	3.233979E-02	5.402178E-04
7.251775E+03	3.224962E-02	5.391523E-04
7.261696E+03	3.212652E-02	5.375355E-04
7.271616E+03	3.196815E-02	5.353265E-04
7.281537E+03	3.177312E-02	5.325008E-04
7.291457E+03	3.153990E-02	5.290313E-04
7.301377E+03	3.126827E-02	5.249126E-04
7.311298E+03	3.095858E-02	5.201491E-04
7.321218E+03	3.061196E-02	5.147582E-04
7.331138E+03	3.022906E-02	5.087492E-04
7.341059E+03	2.981330E-02	5.021782E-04
7.350979E+03	2.936702E-02	4.950831E-04
7.360899E+03	2.889408E-02	4.875278E-04
7.370820E+03	2.839914E-02	4.795898E-04
7.380740E+03	2.788878E-02	4.713794E-04
7.390660E+03	2.736952E-02	4.630058E-04
7.400581E+03	2.684946E-02	4.546061E-04
7.410501E+03	2.633689E-02	4.463204E-04
7.420421E+03	2.583835E-02	4.382599E-04
7.430342E+03	2.536143E-02	4.305542E-04
7.440262E+03	2.491402E-02	4.233382E-04
7.450182E+03	2.450130E-02	4.167012E-04
7.460103E+03	2.413009E-02	4.107609E-04
7.470023E+03	2.380549E-02	4.056061E-04
7.479944E+03	2.353193E-02	4.013144E-04
7.489864E+03	2.331297E-02	3.979490E-04
7.499784E+03	2.315149E-02	3.955617E-04
7.509705E+03	2.305020E-02	3.942017E-04
7.519625E+03	2.300984E-02	3.938846E-04
7.529545E+03	2.303159E-02	3.946334E-04
7.539466E+03	2.311500E-02	3.964438E-04
7.549386E+03	2.325994E-02	3.993166E-04
7.559306E+03	2.346524E-02	4.032350E-04
7.569227E+03	2.372873E-02	4.081649E-04
7.579147E+03	2.404870E-02	4.140798E-04
7.589067E+03	2.442244E-02	4.209365E-04
7.598988E+03	2.484625E-02	4.286740E-04
7.608908E+03	2.531707E-02	4.372424E-04
7.618828E+03	2.583024E-02	4.465638E-04
7.628749E+03	2.638251E-02	4.565850E-04
7.638669E+03	2.696775E-02	4.672020E-04
7.648589E+03	2.758122E-02	4.783348E-04
7.658510E+03	2.821646E-02	4.898735E-04
7.668430E+03	2.886777E-02	5.017205E-04
7.678351E+03	2.952836E-02	5.137591E-04
7.688271E+03	3.019100E-02	5.258644E-04
7.698191E+03	3.084719E-02	5.378889E-04
