#wls	flux	fluxerr
1.587256E+03	8.023214E-05	2.668027E-06
1.626937E+03	8.519839E-05	2.823630E-06
1.666619E+03	8.916918E-05	2.945011E-06
1.706300E+03	9.192933E-05	3.025396E-06
1.745982E+03	9.329444E-05	3.059140E-06
1.785663E+03	9.285116E-05	3.033226E-06
1.825344E+03	9.020234E-05	2.935395E-06
1.865026E+03	8.504990E-05	2.756832E-06
1.904707E+03	7.737016E-05	2.497775E-06
1.944389E+03	6.760174E-05	2.173380E-06
1.984070E+03	5.680990E-05	1.818668E-06
2.023751E+03	4.658373E-05	1.484799E-06
2.063433E+03	3.855948E-05	1.223545E-06
2.103114E+03	3.389078E-05	1.070475E-06
2.142795E+03	3.315391E-05	1.042281E-06
2.182477E+03	3.666997E-05	1.147267E-06
2.222158E+03	4.483418E-05	1.395770E-06
2.261840E+03	5.802833E-05	1.797388E-06
2.301521E+03	7.640337E-05	2.354272E-06
2.341202E+03	9.970382E-05	3.055922E-06
2.380884E+03	1.273959E-04	3.883427E-06
2.420565E+03	1.588009E-04	4.813750E-06
2.460247E+03	1.933046E-04	5.826188E-06
2.499928E+03	2.304061E-04	6.903792E-06
2.539609E+03	2.697190E-04	8.033324E-06
2.579291E+03	3.110133E-04	9.206405E-06
2.618972E+03	3.540983E-04	1.041595E-05
2.658654E+03	3.989128E-04	1.165875E-05
2.698335E+03	4.453464E-04	1.293021E-05
2.738016E+03	4.933517E-04	1.422758E-05
2.777698E+03	5.428479E-04	1.554719E-05
2.817379E+03	5.937394E-04	1.688496E-05
2.857061E+03	6.459466E-04	1.823735E-05
2.896742E+03	6.992983E-04	1.959829E-05
2.936423E+03	7.538645E-04	2.096855E-05
2.976105E+03	8.097536E-04	2.234989E-05
2.986025E+03	8.239831E-04	2.269819E-05
2.995946E+03	8.382813E-04	2.304669E-05
3.005866E+03	8.526846E-04	2.339638E-05
3.015786E+03	8.672497E-04	2.374877E-05
3.025707E+03	8.822309E-04	2.411079E-05
3.035627E+03	8.978608E-04	2.448871E-05
3.045547E+03	9.140418E-04	2.487974E-05
3.055468E+03	9.307993E-04	2.528449E-05
3.065388E+03	9.480421E-04	2.570038E-05
3.075308E+03	9.657624E-04	2.612711E-05
3.085229E+03	9.838731E-04	2.656224E-05
3.095149E+03	1.002412E-03	2.700672E-05
3.105069E+03	1.021298E-03	2.745825E-05
3.114990E+03	1.040531E-03	2.791682E-05
3.124910E+03	1.060073E-03	2.838134E-05
3.134830E+03	1.079892E-03	2.885083E-05
3.144751E+03	1.099993E-03	2.932544E-05
3.154671E+03	1.120345E-03	2.980425E-05
3.164591E+03	1.140917E-03	3.028641E-05
3.174512E+03	1.161724E-03	3.077224E-05
3.184432E+03	1.182738E-03	3.126097E-05
3.194353E+03	1.203934E-03	3.175188E-05
3.204273E+03	1.225329E-03	3.224541E-05
3.214193E+03	1.246902E-03	3.274093E-05
3.224114E+03	1.268630E-03	3.323784E-05
3.234034E+03	1.290537E-03	3.373669E-05
3.243954E+03	1.312646E-03	3.423806E-05
3.253875E+03	1.334897E-03	3.474035E-05
3.263795E+03	1.357360E-03	3.524532E-05
3.273715E+03	1.379933E-03	3.575030E-05
3.283636E+03	1.402730E-03	3.625822E-05
3.293556E+03	1.425696E-03	3.676760E-05
3.303476E+03	1.448820E-03	3.727811E-05
3.313397E+03	1.472175E-03	3.779162E-05
3.323317E+03	1.495709E-03	3.830674E-05
3.333237E+03	1.519415E-03	3.882322E-05
3.343158E+03	1.543371E-03	3.934303E-05
3.353078E+03	1.567529E-03	3.986491E-05
3.362998E+03	1.591884E-03	4.038869E-05
3.372919E+03	1.616478E-03	4.091537E-05
3.382839E+03	1.641310E-03	4.144488E-05
3.392760E+03	1.666381E-03	4.197724E-05
3.402680E+03	1.691697E-03	4.251249E-05
3.412600E+03	1.717224E-03	4.304974E-05
3.422521E+03	1.743011E-03	4.359021E-05
3.432441E+03	1.769074E-03	4.413419E-05
3.442361E+03	1.795304E-03	4.467895E-05
3.452282E+03	1.821805E-03	4.522705E-05
3.462202E+03	1.848522E-03	4.577702E-05
3.472122E+03	1.875443E-03	4.632857E-05
3.482043E+03	1.902565E-03	4.688155E-05
3.491963E+03	1.929846E-03	4.743493E-05
3.501883E+03	1.957295E-03	4.798885E-05
3.511804E+03	1.984886E-03	4.854264E-05
3.521724E+03	2.012679E-03	4.909777E-05
3.531644E+03	2.040660E-03	4.965384E-05
3.541565E+03	2.068823E-03	5.021066E-05
3.551485E+03	2.097208E-03	5.076916E-05
3.561405E+03	2.125821E-03	5.132947E-05
3.571326E+03	2.154631E-03	5.189078E-05
3.581246E+03	2.183661E-03	5.245358E-05
3.591167E+03	2.212842E-03	5.301623E-05
3.601087E+03	2.242309E-03	5.358186E-05
3.611007E+03	2.271998E-03	5.414896E-05
3.620928E+03	2.302046E-03	5.472069E-05
3.630848E+03	2.332550E-03	5.529928E-05
3.640768E+03	2.363489E-03	5.588416E-05
3.650689E+03	2.394961E-03	5.647756E-05
3.660609E+03	2.427066E-03	5.708168E-05
3.670529E+03	2.459859E-03	5.769772E-05
3.680450E+03	2.493360E-03	5.832599E-05
3.690370E+03	2.527623E-03	5.896762E-05
3.700290E+03	2.562740E-03	5.962458E-05
3.710211E+03	2.598721E-03	6.029694E-05
3.720131E+03	2.635650E-03	6.098647E-05
3.730051E+03	2.673532E-03	6.169308E-05
3.739972E+03	2.712440E-03	6.241829E-05
3.749892E+03	2.752328E-03	6.316082E-05
3.759812E+03	2.793300E-03	6.392284E-05
3.769733E+03	2.835295E-03	6.470278E-05
3.779653E+03	2.878367E-03	6.550161E-05
3.789574E+03	2.922519E-03	6.631921E-05
3.799494E+03	2.967750E-03	6.715535E-05
3.809414E+03	3.014011E-03	6.800867E-05
3.819335E+03	3.061283E-03	6.887858E-05
3.829255E+03	3.109584E-03	6.976524E-05
3.839175E+03	3.158882E-03	7.066774E-05
3.849096E+03	3.209056E-03	7.158317E-05
3.859016E+03	3.260143E-03	7.251218E-05
3.868936E+03	3.312053E-03	7.345257E-05
3.878857E+03	3.364727E-03	7.440289E-05
3.888777E+03	3.418105E-03	7.536166E-05
3.898697E+03	3.472168E-03	7.632827E-05
3.908618E+03	3.526762E-03	7.729926E-05
3.918538E+03	3.581865E-03	7.827398E-05
3.928458E+03	3.637453E-03	7.925185E-05
3.938379E+03	3.693377E-03	8.022948E-05
3.948299E+03	3.749663E-03	8.120738E-05
3.958219E+03	3.806165E-03	8.218234E-05
3.968140E+03	3.862927E-03	8.315521E-05
3.978060E+03	3.919815E-03	8.412309E-05
3.987981E+03	3.976888E-03	8.508719E-05
3.997901E+03	4.034032E-03	8.604507E-05
4.007821E+03	4.091330E-03	8.699841E-05
4.017742E+03	4.148736E-03	8.794627E-05
4.027662E+03	4.206217E-03	8.888787E-05
4.037582E+03	4.263893E-03	8.982574E-05
4.047503E+03	4.321756E-03	9.075968E-05
4.057423E+03	4.379809E-03	9.168968E-05
4.067343E+03	4.438161E-03	9.261802E-05
4.077264E+03	4.496937E-03	9.354720E-05
4.087184E+03	4.556072E-03	9.447579E-05
4.097104E+03	4.615806E-03	9.540870E-05
4.107025E+03	4.676138E-03	9.634578E-05
4.116945E+03	4.737175E-03	9.728910E-05
4.126865E+03	4.799026E-03	9.824075E-05
4.136786E+03	4.861803E-03	9.920288E-05
4.146706E+03	4.925569E-03	1.001766E-04
4.156626E+03	4.990491E-03	1.011650E-04
4.166547E+03	5.056578E-03	1.021682E-04
4.176467E+03	5.123994E-03	1.031891E-04
4.186387E+03	5.192742E-03	1.042276E-04
4.196308E+03	5.262924E-03	1.052856E-04
4.206228E+03	5.334638E-03	1.063645E-04
4.216149E+03	5.407868E-03	1.074639E-04
4.226069E+03	5.482698E-03	1.085851E-04
4.235989E+03	5.559146E-03	1.097281E-04
4.245910E+03	5.637221E-03	1.108928E-04
4.255830E+03	5.716923E-03	1.120790E-04
4.265750E+03	5.798177E-03	1.132848E-04
4.275671E+03	5.881009E-03	1.145104E-04
4.285591E+03	5.965256E-03	1.157524E-04
4.295511E+03	6.050966E-03	1.170115E-04
4.305432E+03	6.137936E-03	1.182835E-04
4.315352E+03	6.226115E-03	1.195671E-04
4.325272E+03	6.315376E-03	1.208597E-04
4.335193E+03	6.405570E-03	1.221583E-04
4.345113E+03	6.496722E-03	1.234632E-04
4.355033E+03	6.588662E-03	1.247711E-04
4.364954E+03	6.681610E-03	1.260859E-04
4.374874E+03	6.775733E-03	1.274106E-04
4.384794E+03	6.871198E-03	1.287483E-04
4.394715E+03	6.968228E-03	1.301027E-04
4.404635E+03	7.066959E-03	1.314762E-04
4.414556E+03	7.167502E-03	1.328705E-04
4.424476E+03	7.269931E-03	1.342867E-04
4.434396E+03	7.374288E-03	1.357251E-04
4.444317E+03	7.480495E-03	1.371840E-04
4.454237E+03	7.588505E-03	1.386622E-04
4.464157E+03	7.698154E-03	1.401561E-04
4.474078E+03	7.809230E-03	1.416619E-04
4.483998E+03	7.921479E-03	1.431744E-04
4.493918E+03	8.034527E-03	1.446867E-04
4.503839E+03	8.148043E-03	1.461928E-04
4.513759E+03	8.261663E-03	1.476861E-04
4.523679E+03	8.374842E-03	1.491567E-04
4.533600E+03	8.487179E-03	1.505978E-04
4.543520E+03	8.598188E-03	1.520007E-04
4.553440E+03	8.707305E-03	1.533560E-04
4.563361E+03	8.814142E-03	1.546571E-04
4.573281E+03	8.918093E-03	1.558939E-04
4.583201E+03	9.018835E-03	1.570613E-04
4.593122E+03	9.115925E-03	1.581523E-04
4.603042E+03	9.208885E-03	1.591594E-04
4.612963E+03	9.297562E-03	1.600807E-04
4.622883E+03	9.381423E-03	1.609080E-04
4.632803E+03	9.460453E-03	1.616418E-04
4.642724E+03	9.534342E-03	1.622780E-04
4.652644E+03	9.602939E-03	1.628149E-04
4.662564E+03	9.666156E-03	1.632522E-04
4.672485E+03	9.723869E-03	1.635888E-04
4.682405E+03	9.776192E-03	1.638277E-04
4.692325E+03	9.823472E-03	1.639758E-04
4.702246E+03	9.866001E-03	1.640389E-04
4.712166E+03	9.904198E-03	1.640250E-04
4.722086E+03	9.938689E-03	1.639452E-04
4.732007E+03	9.969733E-03	1.638046E-04
4.741927E+03	9.997975E-03	1.636143E-04
4.751847E+03	1.002377E-02	1.633807E-04
4.761768E+03	1.004755E-02	1.631115E-04
4.771688E+03	1.006983E-02	1.628153E-04
4.781608E+03	1.009102E-02	1.624989E-04
4.791529E+03	1.011140E-02	1.621672E-04
4.801449E+03	1.013131E-02	1.618260E-04
4.811370E+03	1.015101E-02	1.614792E-04
4.821290E+03	1.017079E-02	1.611317E-04
4.831210E+03	1.019095E-02	1.607882E-04
4.841131E+03	1.021166E-02	1.604513E-04
4.851051E+03	1.023318E-02	1.601251E-04
4.860971E+03	1.025557E-02	1.598104E-04
4.870892E+03	1.027908E-02	1.595108E-04
4.880812E+03	1.030385E-02	1.592286E-04
4.890732E+03	1.033005E-02	1.589661E-04
4.900653E+03	1.035795E-02	1.587272E-04
4.910573E+03	1.038765E-02	1.585131E-04
4.920493E+03	1.041935E-02	1.583268E-04
4.930414E+03	1.045351E-02	1.581747E-04
4.940334E+03	1.049021E-02	1.580578E-04
4.950254E+03	1.052977E-02	1.579802E-04
4.960175E+03	1.057274E-02	1.579501E-04
4.970095E+03	1.061922E-02	1.579680E-04
4.980015E+03	1.066994E-02	1.580445E-04
4.989936E+03	1.072516E-02	1.581826E-04
4.999856E+03	1.078538E-02	1.583889E-04
5.009777E+03	1.085120E-02	1.586713E-04
5.019697E+03	1.092316E-02	1.590368E-04
5.029617E+03	1.100167E-02	1.594903E-04
5.039538E+03	1.108725E-02	1.600382E-04
5.049458E+03	1.118039E-02	1.606864E-04
5.059378E+03	1.128155E-02	1.614405E-04
5.069299E+03	1.139130E-02	1.623068E-04
5.079219E+03	1.150977E-02	1.632863E-04
5.089139E+03	1.163754E-02	1.643853E-04
5.099060E+03	1.177464E-02	1.656031E-04
5.108980E+03	1.192126E-02	1.669407E-04
5.118900E+03	1.207775E-02	1.684017E-04
5.128821E+03	1.224379E-02	1.699801E-04
5.138741E+03	1.241957E-02	1.716770E-04
5.148661E+03	1.260481E-02	1.734872E-04
5.158582E+03	1.279940E-02	1.754079E-04
5.168502E+03	1.300273E-02	1.774294E-04
5.178422E+03	1.321448E-02	1.795464E-04
5.188343E+03	1.343410E-02	1.817502E-04
5.198263E+03	1.366081E-02	1.840294E-04
5.208183E+03	1.389384E-02	1.863731E-04
5.218104E+03	1.413251E-02	1.887714E-04
5.228024E+03	1.437574E-02	1.912098E-04
5.237945E+03	1.462255E-02	1.936748E-04
5.247865E+03	1.487175E-02	1.961508E-04
5.257785E+03	1.512239E-02	1.986255E-04
5.267706E+03	1.537321E-02	2.010829E-04
5.277626E+03	1.562326E-02	2.035112E-04
5.287546E+03	1.587114E-02	2.058930E-04
5.297467E+03	1.611594E-02	2.082176E-04
5.307387E+03	1.635667E-02	2.104733E-04
5.317307E+03	1.659222E-02	2.126476E-04
5.327228E+03	1.682193E-02	2.147331E-04
5.337148E+03	1.704469E-02	2.167178E-04
5.347068E+03	1.726001E-02	2.185969E-04
5.356989E+03	1.746731E-02	2.203651E-04
5.366909E+03	1.766575E-02	2.220137E-04
5.376829E+03	1.785527E-02	2.235440E-04
5.386750E+03	1.803516E-02	2.249493E-04
5.396670E+03	1.820513E-02	2.262279E-04
5.406590E+03	1.836494E-02	2.273790E-04
5.416511E+03	1.851426E-02	2.284005E-04
5.426431E+03	1.865281E-02	2.292912E-04
5.436352E+03	1.878067E-02	2.300542E-04
5.446272E+03	1.889835E-02	2.306978E-04
5.456192E+03	1.900595E-02	2.312249E-04
5.466113E+03	1.910209E-02	2.316208E-04
5.476033E+03	1.918601E-02	2.318784E-04
5.485953E+03	1.925695E-02	2.319905E-04
5.495874E+03	1.931406E-02	2.319485E-04
5.505794E+03	1.935777E-02	2.317591E-04
5.515714E+03	1.938789E-02	2.314212E-04
5.525635E+03	1.940493E-02	2.309421E-04
5.535555E+03	1.941011E-02	2.303375E-04
5.545475E+03	1.940423E-02	2.296173E-04
5.555396E+03	1.938895E-02	2.288022E-04
5.565316E+03	1.936601E-02	2.279132E-04
5.575236E+03	1.933741E-02	2.269739E-04
5.585157E+03	1.930555E-02	2.260125E-04
5.595077E+03	1.927257E-02	2.250541E-04
5.604997E+03	1.924093E-02	2.241269E-04
5.614918E+03	1.921336E-02	2.232619E-04
5.624838E+03	1.919218E-02	2.224854E-04
5.634759E+03	1.918005E-02	2.218273E-04
5.644679E+03	1.917936E-02	2.213139E-04
5.654599E+03	1.919232E-02	2.209696E-04
5.664520E+03	1.922096E-02	2.208162E-04
5.674440E+03	1.926706E-02	2.208726E-04
5.684360E+03	1.933229E-02	2.211564E-04
5.694281E+03	1.941760E-02	2.216769E-04
5.704201E+03	1.952377E-02	2.224413E-04
5.714121E+03	1.965137E-02	2.234546E-04
5.724042E+03	1.980016E-02	2.247124E-04
5.733962E+03	1.997007E-02	2.262123E-04
5.743882E+03	2.015994E-02	2.279400E-04
5.753803E+03	2.036816E-02	2.298760E-04
5.763723E+03	2.059335E-02	2.320033E-04
5.773643E+03	2.083325E-02	2.342957E-04
5.783564E+03	2.108478E-02	2.367178E-04
5.793484E+03	2.134568E-02	2.392433E-04
5.803404E+03	2.161226E-02	2.418306E-04
5.813325E+03	2.188156E-02	2.444463E-04
5.823245E+03	2.214956E-02	2.470454E-04
5.833166E+03	2.241317E-02	2.495936E-04
5.843086E+03	2.266863E-02	2.520493E-04
5.853006E+03	2.291281E-02	2.543781E-04
5.862927E+03	2.314257E-02	2.565459E-04
5.872847E+03	2.335483E-02	2.585190E-04
5.882767E+03	2.354762E-02	2.602767E-04
5.892688E+03	2.371864E-02	2.617943E-04
5.902608E+03	2.386629E-02	2.630553E-04
5.912528E+03	2.398974E-02	2.640513E-04
5.922449E+03	2.408809E-02	2.647737E-04
5.932369E+03	2.416176E-02	2.652280E-04
5.942289E+03	2.421054E-02	2.654129E-04
5.952210E+03	2.423576E-02	2.653438E-04
5.962130E+03	2.423831E-02	2.650313E-04
5.972050E+03	2.421998E-02	2.644959E-04
5.981971E+03	2.418228E-02	2.637548E-04
5.991891E+03	2.412751E-02	2.628337E-04
6.001811E+03	2.405784E-02	2.617568E-04
6.011732E+03	2.397525E-02	2.605459E-04
6.021652E+03	2.388259E-02	2.592326E-04
6.031573E+03	2.378183E-02	2.578383E-04
6.041493E+03	2.367487E-02	2.563840E-04
6.051413E+03	2.356432E-02	2.548979E-04
6.061334E+03	2.345152E-02	2.533944E-04
6.071254E+03	2.333815E-02	2.518921E-04
6.081174E+03	2.322574E-02	2.504069E-04
6.091095E+03	2.311529E-02	2.489500E-04
6.101015E+03	2.300762E-02	2.475299E-04
6.110935E+03	2.290308E-02	2.461501E-04
6.120856E+03	2.280155E-02	2.448094E-04
6.130776E+03	2.270360E-02	2.435136E-04
6.140696E+03	2.261075E-02	2.422792E-04
6.150617E+03	2.252307E-02	2.411066E-04
6.160537E+03	2.244195E-02	2.400105E-04
6.170457E+03	2.236735E-02	2.389904E-04
6.180378E+03	2.230010E-02	2.380551E-04
6.190298E+03	2.224077E-02	2.372104E-04
6.200218E+03	2.218918E-02	2.364544E-04
6.210139E+03	2.214661E-02	2.358004E-04
6.220059E+03	2.211330E-02	2.352510E-04
6.229979E+03	2.208960E-02	2.348096E-04
6.239900E+03	2.207673E-02	2.344893E-04
6.249820E+03	2.207515E-02	2.342947E-04
6.259741E+03	2.208561E-02	2.342337E-04
6.269661E+03	2.210916E-02	2.343173E-04
6.279581E+03	2.214622E-02	2.345498E-04
6.289502E+03	2.219742E-02	2.349379E-04
6.299422E+03	2.226355E-02	2.354899E-04
6.309342E+03	2.234471E-02	2.362067E-04
6.319263E+03	2.244165E-02	2.370963E-04
6.329183E+03	2.255375E-02	2.381522E-04
6.339103E+03	2.268105E-02	2.393748E-04
6.349024E+03	2.282331E-02	2.407618E-04
6.358944E+03	2.297978E-02	2.423052E-04
6.368864E+03	2.314940E-02	2.439942E-04
6.378785E+03	2.333089E-02	2.458155E-04
6.388705E+03	2.352236E-02	2.477495E-04
6.398625E+03	2.372202E-02	2.497777E-04
6.408546E+03	2.392719E-02	2.518722E-04
6.418466E+03	2.413594E-02	2.540130E-04
6.428386E+03	2.434519E-02	2.561674E-04
6.438307E+03	2.455239E-02	2.583080E-04
6.448227E+03	2.475453E-02	2.604029E-04
6.458148E+03	2.494899E-02	2.624240E-04
6.468068E+03	2.513290E-02	2.643406E-04
6.477988E+03	2.530436E-02	2.661324E-04
6.487909E+03	2.546135E-02	2.677775E-04
6.497829E+03	2.560285E-02	2.692647E-04
6.507749E+03	2.572827E-02	2.705870E-04
6.517670E+03	2.583693E-02	2.717370E-04
6.527590E+03	2.592945E-02	2.727203E-04
6.537510E+03	2.600551E-02	2.735330E-04
6.547431E+03	2.606523E-02	2.741756E-04
6.557351E+03	2.610882E-02	2.746498E-04
6.567271E+03	2.613694E-02	2.749617E-04
6.577192E+03	2.614956E-02	2.751105E-04
6.587112E+03	2.614788E-02	2.751081E-04
6.597032E+03	2.613127E-02	2.749472E-04
6.606953E+03	2.610144E-02	2.746452E-04
6.616873E+03	2.605868E-02	2.742044E-04
6.626793E+03	2.600368E-02	2.736318E-04
6.636714E+03	2.593762E-02	2.729388E-04
6.646634E+03	2.586092E-02	2.721297E-04
6.656555E+03	2.577484E-02	2.712170E-04
6.666475E+03	2.567992E-02	2.702059E-04
6.676395E+03	2.557747E-02	2.691098E-04
6.686316E+03	2.546884E-02	2.679425E-04
6.696236E+03	2.535427E-02	2.667061E-04
6.706156E+03	2.523516E-02	2.654149E-04
6.716077E+03	2.511256E-02	2.640796E-04
6.725997E+03	2.498792E-02	2.627152E-04
6.735917E+03	2.486194E-02	2.613287E-04
6.745838E+03	2.473573E-02	2.599314E-04
6.755758E+03	2.461040E-02	2.585349E-04
6.765678E+03	2.448747E-02	2.571546E-04
6.775599E+03	2.436804E-02	2.558020E-04
6.785519E+03	2.425283E-02	2.544842E-04
6.795439E+03	2.414289E-02	2.532122E-04
6.805360E+03	2.403958E-02	2.519998E-04
6.815280E+03	2.394382E-02	2.508563E-04
6.825200E+03	2.385602E-02	2.497859E-04
6.835121E+03	2.377725E-02	2.487992E-04
6.845041E+03	2.370803E-02	2.479014E-04
6.854962E+03	2.364836E-02	2.470922E-04
6.864882E+03	2.359882E-02	2.463772E-04
6.874802E+03	2.355909E-02	2.457526E-04
6.884723E+03	2.352945E-02	2.452208E-04
6.894643E+03	2.350964E-02	2.447788E-04
6.904563E+03	2.349927E-02	2.444221E-04
6.914484E+03	2.349749E-02	2.441412E-04
6.924404E+03	2.350412E-02	2.439339E-04
6.934324E+03	2.351816E-02	2.437893E-04
6.944245E+03	2.353939E-02	2.437047E-04
6.954165E+03	2.356718E-02	2.436731E-04
6.964085E+03	2.360097E-02	2.436883E-04
6.974006E+03	2.363983E-02	2.437403E-04
6.983926E+03	2.368369E-02	2.438280E-04
6.993846E+03	2.373181E-02	2.439432E-04
7.003767E+03	2.378469E-02	2.440909E-04
7.013687E+03	2.384131E-02	2.442603E-04
7.023607E+03	2.390155E-02	2.444496E-04
7.033528E+03	2.396575E-02	2.446620E-04
7.043448E+03	2.403389E-02	2.448971E-04
7.053369E+03	2.410599E-02	2.451546E-04
7.063289E+03	2.418162E-02	2.454299E-04
7.073209E+03	2.426123E-02	2.457271E-04
7.083130E+03	2.434476E-02	2.460455E-04
7.093050E+03	2.443170E-02	2.463793E-04
7.102970E+03	2.452274E-02	2.467354E-04
7.112891E+03	2.461676E-02	2.471022E-04
7.122811E+03	2.471384E-02	2.474801E-04
7.132731E+03	2.481353E-02	2.478644E-04
7.142652E+03	2.491570E-02	2.482537E-04
7.152572E+03	2.501921E-02	2.486365E-04
7.162492E+03	2.512329E-02	2.490050E-04
7.172413E+03	2.522702E-02	2.493502E-04
7.182333E+03	2.532990E-02	2.496673E-04
7.192253E+03	2.543088E-02	2.499460E-04
7.202174E+03	2.552884E-02	2.501759E-04
7.212094E+03	2.562264E-02	2.503461E-04
7.222014E+03	2.571111E-02	2.504459E-04
7.231935E+03	2.579360E-02	2.504695E-04
7.241855E+03	2.586898E-02	2.504070E-04
7.251775E+03	2.593621E-02	2.502494E-04
7.261696E+03	2.599432E-02	2.499882E-04
7.271616E+03	2.604345E-02	2.496264E-04
7.281537E+03	2.608186E-02	2.491485E-04
7.291457E+03	2.610945E-02	2.485552E-04
7.301377E+03	2.612633E-02	2.478490E-04
7.311298E+03	2.613223E-02	2.470292E-04
7.321218E+03	2.612708E-02	2.460967E-04
7.331138E+03	2.611097E-02	2.450543E-04
7.341059E+03	2.608421E-02	2.439067E-04
7.350979E+03	2.604781E-02	2.426653E-04
7.360899E+03	2.600142E-02	2.413284E-04
7.370820E+03	2.594643E-02	2.399108E-04
7.380740E+03	2.588339E-02	2.384195E-04
7.390660E+03	2.581463E-02	2.368775E-04
7.400581E+03	2.574055E-02	2.352899E-04
7.410501E+03	2.566276E-02	2.336731E-04
7.420421E+03	2.558360E-02	2.320495E-04
7.430342E+03	2.550395E-02	2.304284E-04
7.440262E+03	2.542697E-02	2.288392E-04
7.450182E+03	2.535326E-02	2.272881E-04
7.460103E+03	2.528619E-02	2.258058E-04
7.470023E+03	2.522757E-02	2.244091E-04
7.479944E+03	2.517873E-02	2.231099E-04
7.489864E+03	2.514313E-02	2.219390E-04
7.499784E+03	2.512257E-02	2.209120E-04
7.509705E+03	2.511931E-02	2.200485E-04
7.519625E+03	2.513494E-02	2.193621E-04
7.529545E+03	2.517142E-02	2.188693E-04
7.539466E+03	2.523051E-02	2.185849E-04
7.549386E+03	2.531422E-02	2.185257E-04
7.559306E+03	2.542211E-02	2.186873E-04
7.569227E+03	2.555664E-02	2.190904E-04
7.579147E+03	2.571717E-02	2.197290E-04
7.589067E+03	2.590424E-02	2.206078E-04
7.598988E+03	2.611686E-02	2.217182E-04
7.608908E+03	2.635408E-02	2.230525E-04
7.618828E+03	2.661503E-02	2.246040E-04
7.628749E+03	2.689717E-02	2.263526E-04
7.638669E+03	2.719803E-02	2.282786E-04
7.648589E+03	2.751525E-02	2.303643E-04
7.658510E+03	2.784479E-02	2.325782E-04
7.668430E+03	2.818276E-02	2.348906E-04
7.678351E+03	2.852492E-02	2.372693E-04
7.688271E+03	2.886732E-02	2.396851E-04
7.698191E+03	2.920451E-02	2.420965E-04
