#wls	flux	fluxerr
1.587256E+03	9.599581E-05	2.666599E-06
1.626937E+03	1.021274E-04	2.830774E-06
1.666619E+03	1.070914E-04	2.961760E-06
1.706300E+03	1.106376E-04	3.052848E-06
1.745982E+03	1.125029E-04	3.097045E-06
1.785663E+03	1.122072E-04	3.081479E-06
1.825344E+03	1.092392E-04	2.992569E-06
1.865026E+03	1.032312E-04	2.820826E-06
1.904707E+03	9.410560E-05	2.564793E-06
1.944389E+03	8.239142E-05	2.239552E-06
1.984070E+03	6.938282E-05	1.880805E-06
2.023751E+03	5.701293E-05	1.541159E-06
2.063433E+03	4.728521E-05	1.274532E-06
2.103114E+03	4.164480E-05	1.119195E-06
2.142795E+03	4.080963E-05	1.093441E-06
2.182477E+03	4.523006E-05	1.208131E-06
2.222158E+03	5.540965E-05	1.475344E-06
2.261840E+03	7.187952E-05	1.907653E-06
2.301521E+03	9.485794E-05	2.509107E-06
2.341202E+03	1.241138E-04	3.271757E-06
2.380884E+03	1.590027E-04	4.176807E-06
2.420565E+03	1.987594E-04	5.202468E-06
2.460247E+03	2.426183E-04	6.327164E-06
2.499928E+03	2.899617E-04	7.533406E-06
2.539609E+03	3.403791E-04	8.809258E-06
2.579291E+03	3.935310E-04	1.014474E-05
2.618972E+03	4.492503E-04	1.153440E-05
2.658654E+03	5.073766E-04	1.297299E-05
2.698335E+03	5.678382E-04	1.445755E-05
2.738016E+03	6.304674E-04	1.598271E-05
2.777698E+03	6.951798E-04	1.754520E-05
2.817379E+03	7.618737E-04	1.914138E-05
2.857061E+03	8.303792E-04	2.076588E-05
2.896742E+03	9.005344E-04	2.241361E-05
2.936423E+03	9.724008E-04	2.408505E-05
2.976105E+03	1.046163E-03	2.578368E-05
2.986025E+03	1.064928E-03	2.621315E-05
2.995946E+03	1.083855E-03	2.664529E-05
3.005866E+03	1.102939E-03	2.707996E-05
3.015786E+03	1.122252E-03	2.751892E-05
3.025707E+03	1.142073E-03	2.796894E-05
3.035627E+03	1.162744E-03	2.843834E-05
3.045547E+03	1.184190E-03	2.892521E-05
3.055468E+03	1.206384E-03	2.942881E-05
3.065388E+03	1.229216E-03	2.994637E-05
3.075308E+03	1.252666E-03	3.047733E-05
3.085229E+03	1.276718E-03	3.102125E-05
3.095149E+03	1.301270E-03	3.157558E-05
3.105069E+03	1.326312E-03	3.214001E-05
3.114990E+03	1.351838E-03	3.271433E-05
3.124910E+03	1.377751E-03	3.329617E-05
3.134830E+03	1.404097E-03	3.388656E-05
3.144751E+03	1.430831E-03	3.448436E-05
3.154671E+03	1.457862E-03	3.508739E-05
3.164591E+03	1.485244E-03	3.569682E-05
3.174512E+03	1.512937E-03	3.631172E-05
3.184432E+03	1.540903E-03	3.693111E-05
3.194353E+03	1.569110E-03	3.755416E-05
3.204273E+03	1.597616E-03	3.818225E-05
3.214193E+03	1.626390E-03	3.881459E-05
3.224114E+03	1.655356E-03	3.944932E-05
3.234034E+03	1.684578E-03	4.008796E-05
3.243954E+03	1.714030E-03	4.072983E-05
3.253875E+03	1.743686E-03	4.137431E-05
3.263795E+03	1.773524E-03	4.202080E-05
3.273715E+03	1.803613E-03	4.267095E-05
3.283636E+03	1.833887E-03	4.332311E-05
3.293556E+03	1.864371E-03	4.397789E-05
3.303476E+03	1.895048E-03	4.463484E-05
3.313397E+03	1.925947E-03	4.529460E-05
3.323317E+03	1.957008E-03	4.595572E-05
3.333237E+03	1.988262E-03	4.661893E-05
3.343158E+03	2.019653E-03	4.728284E-05
3.353078E+03	2.051262E-03	4.794936E-05
3.362998E+03	2.083037E-03	4.861724E-05
3.372919E+03	2.114973E-03	4.928631E-05
3.382839E+03	2.147024E-03	4.995549E-05
3.392760E+03	2.179239E-03	5.062587E-05
3.402680E+03	2.211577E-03	5.129649E-05
3.412600E+03	2.244004E-03	5.196655E-05
3.422521E+03	2.276538E-03	5.263642E-05
3.432441E+03	2.309200E-03	5.330657E-05
3.442361E+03	2.341885E-03	5.397455E-05
3.452282E+03	2.374628E-03	5.464117E-05
3.462202E+03	2.407430E-03	5.530642E-05
3.472122E+03	2.440254E-03	5.596944E-05
3.482043E+03	2.473117E-03	5.663062E-05
3.491963E+03	2.505960E-03	5.728856E-05
3.501883E+03	2.538863E-03	5.794510E-05
3.511804E+03	2.571784E-03	5.859927E-05
3.521724E+03	2.604780E-03	5.925234E-05
3.531644E+03	2.637871E-03	5.990475E-05
3.541565E+03	2.671042E-03	6.055614E-05
3.551485E+03	2.704368E-03	6.120821E-05
3.561405E+03	2.737888E-03	6.186178E-05
3.571326E+03	2.771598E-03	6.251675E-05
3.581246E+03	2.805582E-03	6.317497E-05
3.591167E+03	2.839880E-03	6.383729E-05
3.601087E+03	2.874575E-03	6.450554E-05
3.611007E+03	2.909789E-03	6.518238E-05
3.620928E+03	2.945602E-03	6.586956E-05
3.630848E+03	2.982095E-03	6.656876E-05
3.640768E+03	3.019428E-03	6.728349E-05
3.650689E+03	3.057721E-03	6.801627E-05
3.660609E+03	3.097051E-03	6.876870E-05
3.670529E+03	3.137531E-03	6.954317E-05
3.680450E+03	3.179274E-03	7.034200E-05
3.690370E+03	3.222428E-03	7.116830E-05
3.700290E+03	3.267052E-03	7.202318E-05
3.710211E+03	3.313239E-03	7.290852E-05
3.720131E+03	3.361117E-03	7.382688E-05
3.730051E+03	3.410760E-03	7.477968E-05
3.739972E+03	3.462190E-03	7.576720E-05
3.749892E+03	3.515499E-03	7.679118E-05
3.759812E+03	3.570725E-03	7.785220E-05
3.769733E+03	3.627934E-03	7.895144E-05
3.779653E+03	3.687045E-03	8.008691E-05
3.789574E+03	3.748135E-03	8.126000E-05
3.799494E+03	3.811178E-03	8.246987E-05
3.809414E+03	3.876085E-03	8.371435E-05
3.819335E+03	3.942883E-03	8.499376E-05
3.829255E+03	4.011449E-03	8.630518E-05
3.839175E+03	4.081641E-03	8.764534E-05
3.849096E+03	4.153482E-03	8.901450E-05
3.859016E+03	4.226755E-03	9.040781E-05
3.868936E+03	4.301414E-03	9.182402E-05
3.878857E+03	4.377210E-03	9.325767E-05
3.888777E+03	4.454078E-03	9.470719E-05
3.898697E+03	4.531798E-03	9.616775E-05
3.908618E+03	4.610295E-03	9.763761E-05
3.918538E+03	4.689291E-03	9.911083E-05
3.928458E+03	4.768660E-03	1.005846E-04
3.938379E+03	4.848276E-03	1.020562E-04
3.948299E+03	4.927972E-03	1.035220E-04
3.958219E+03	5.007536E-03	1.049777E-04
3.968140E+03	5.086869E-03	1.064211E-04
3.978060E+03	5.165890E-03	1.078504E-04
3.987981E+03	5.244424E-03	1.092622E-04
3.997901E+03	5.322365E-03	1.106542E-04
4.007821E+03	5.399681E-03	1.120258E-04
4.017742E+03	5.476307E-03	1.133756E-04
4.027662E+03	5.552191E-03	1.147029E-04
4.037582E+03	5.627309E-03	1.160070E-04
4.047503E+03	5.701705E-03	1.172889E-04
4.057423E+03	5.775331E-03	1.185478E-04
4.067343E+03	5.848213E-03	1.197843E-04
4.077264E+03	5.920449E-03	1.210004E-04
4.087184E+03	5.992038E-03	1.221963E-04
4.097104E+03	6.063105E-03	1.233744E-04
4.107025E+03	6.133670E-03	1.245352E-04
4.116945E+03	6.203880E-03	1.256819E-04
4.126865E+03	6.273771E-03	1.268151E-04
4.136786E+03	6.343441E-03	1.279368E-04
4.146706E+03	6.412997E-03	1.290492E-04
4.156626E+03	6.482545E-03	1.301545E-04
4.166547E+03	6.552198E-03	1.312548E-04
4.176467E+03	6.621944E-03	1.323499E-04
4.186387E+03	6.691963E-03	1.334434E-04
4.196308E+03	6.762246E-03	1.345350E-04
4.206228E+03	6.832914E-03	1.356270E-04
4.216149E+03	6.904031E-03	1.367208E-04
4.226069E+03	6.975730E-03	1.378187E-04
4.235989E+03	7.047956E-03	1.389197E-04
4.245910E+03	7.120793E-03	1.400254E-04
4.255830E+03	7.194334E-03	1.411373E-04
4.265750E+03	7.268684E-03	1.422575E-04
4.275671E+03	7.343757E-03	1.433842E-04
4.285591E+03	7.419745E-03	1.445210E-04
4.295511E+03	7.496645E-03	1.456676E-04
4.305432E+03	7.574592E-03	1.468267E-04
4.315352E+03	7.653583E-03	1.479978E-04
4.325272E+03	7.733736E-03	1.491833E-04
4.335193E+03	7.815217E-03	1.503860E-04
4.345113E+03	7.898312E-03	1.516113E-04
4.355033E+03	7.983127E-03	1.528609E-04
4.364954E+03	8.070080E-03	1.541427E-04
4.374874E+03	8.159244E-03	1.554576E-04
4.384794E+03	8.250799E-03	1.568087E-04
4.394715E+03	8.344884E-03	1.581985E-04
4.404635E+03	8.441599E-03	1.596282E-04
4.414556E+03	8.540782E-03	1.610946E-04
4.424476E+03	8.642547E-03	1.625993E-04
4.434396E+03	8.746825E-03	1.641408E-04
4.444317E+03	8.853366E-03	1.657138E-04
4.454237E+03	8.962132E-03	1.673173E-04
4.464157E+03	9.072903E-03	1.689470E-04
4.474078E+03	9.185351E-03	1.705963E-04
4.483998E+03	9.299287E-03	1.722615E-04
4.493918E+03	9.414420E-03	1.739371E-04
4.503839E+03	9.530353E-03	1.756153E-04
4.513759E+03	9.646755E-03	1.772901E-04
4.523679E+03	9.763195E-03	1.789535E-04
4.533600E+03	9.879319E-03	1.805988E-04
4.543520E+03	9.994592E-03	1.822165E-04
4.553440E+03	1.010875E-02	1.838017E-04
4.563361E+03	1.022117E-02	1.853434E-04
4.573281E+03	1.033171E-02	1.868391E-04
4.583201E+03	1.043969E-02	1.882770E-04
4.593122E+03	1.054502E-02	1.896558E-04
4.603042E+03	1.064719E-02	1.909664E-04
4.612963E+03	1.074609E-02	1.922077E-04
4.622883E+03	1.084128E-02	1.933722E-04
4.632803E+03	1.093277E-02	1.944605E-04
4.642724E+03	1.102042E-02	1.954707E-04
4.652644E+03	1.110404E-02	1.964000E-04
4.662564E+03	1.118360E-02	1.972484E-04
4.672485E+03	1.125901E-02	1.980152E-04
4.682405E+03	1.133014E-02	1.986984E-04
4.692325E+03	1.139710E-02	1.993007E-04
4.702246E+03	1.145973E-02	1.998199E-04
4.712166E+03	1.151833E-02	2.002619E-04
4.722086E+03	1.157281E-02	2.006258E-04
4.732007E+03	1.162354E-02	2.009185E-04
4.741927E+03	1.167079E-02	2.011454E-04
4.751847E+03	1.171477E-02	2.013104E-04
4.761768E+03	1.175589E-02	2.014213E-04
4.771688E+03	1.179450E-02	2.014843E-04
4.781608E+03	1.183102E-02	2.015072E-04
4.791529E+03	1.186570E-02	2.014942E-04
4.801449E+03	1.189898E-02	2.014533E-04
4.811370E+03	1.193119E-02	2.013903E-04
4.821290E+03	1.196290E-02	2.013148E-04
4.831210E+03	1.199420E-02	2.012287E-04
4.841131E+03	1.202576E-02	2.011430E-04
4.851051E+03	1.205768E-02	2.010596E-04
4.860971E+03	1.209050E-02	2.009872E-04
4.870892E+03	1.212443E-02	2.009294E-04
4.880812E+03	1.216002E-02	2.008949E-04
4.890732E+03	1.219736E-02	2.008851E-04
4.900653E+03	1.223712E-02	2.009107E-04
4.910573E+03	1.227930E-02	2.009714E-04
4.920493E+03	1.232456E-02	2.010777E-04
4.930414E+03	1.237317E-02	2.012333E-04
4.940334E+03	1.242558E-02	2.014452E-04
4.950254E+03	1.248194E-02	2.017153E-04
4.960175E+03	1.254286E-02	2.020528E-04
4.970095E+03	1.260874E-02	2.024633E-04
4.980015E+03	1.267985E-02	2.029505E-04
4.989936E+03	1.275671E-02	2.035220E-04
4.999856E+03	1.283960E-02	2.041815E-04
5.009777E+03	1.292906E-02	2.049364E-04
5.019697E+03	1.302548E-02	2.057921E-04
5.029617E+03	1.312925E-02	2.067535E-04
5.039538E+03	1.324061E-02	2.078234E-04
5.049458E+03	1.336004E-02	2.090083E-04
5.059378E+03	1.348787E-02	2.103120E-04
5.069299E+03	1.362426E-02	2.117357E-04
5.079219E+03	1.376959E-02	2.132842E-04
5.089139E+03	1.392381E-02	2.149554E-04
5.099060E+03	1.408748E-02	2.167565E-04
5.108980E+03	1.426031E-02	2.186818E-04
5.118900E+03	1.444263E-02	2.207349E-04
5.128821E+03	1.463428E-02	2.229120E-04
5.138741E+03	1.483506E-02	2.252087E-04
5.148661E+03	1.504510E-02	2.276258E-04
5.158582E+03	1.526390E-02	2.301544E-04
5.168502E+03	1.549117E-02	2.327889E-04
5.178422E+03	1.572671E-02	2.355250E-04
5.188343E+03	1.596994E-02	2.383531E-04
5.198263E+03	1.622036E-02	2.412647E-04
5.208183E+03	1.647741E-02	2.442505E-04
5.218104E+03	1.674047E-02	2.473005E-04
5.228024E+03	1.700870E-02	2.504016E-04
5.237945E+03	1.728152E-02	2.535448E-04
5.247865E+03	1.755802E-02	2.567160E-04
5.257785E+03	1.783737E-02	2.599030E-04
5.267706E+03	1.811856E-02	2.630910E-04
5.277626E+03	1.840094E-02	2.662702E-04
5.287546E+03	1.868363E-02	2.694282E-04
5.297467E+03	1.896541E-02	2.725477E-04
5.307387E+03	1.924561E-02	2.756193E-04
5.317307E+03	1.952338E-02	2.786314E-04
5.327228E+03	1.979769E-02	2.815702E-04
5.337148E+03	2.006792E-02	2.844274E-04
5.347068E+03	2.033288E-02	2.871874E-04
5.356989E+03	2.059197E-02	2.898425E-04
5.366909E+03	2.084418E-02	2.923798E-04
5.376829E+03	2.108893E-02	2.947925E-04
5.386750E+03	2.132499E-02	2.970649E-04
5.396670E+03	2.155193E-02	2.991925E-04
5.406590E+03	2.176842E-02	3.011586E-04
5.416511E+03	2.197369E-02	3.029545E-04
5.426431E+03	2.216645E-02	3.045641E-04
5.436352E+03	2.234557E-02	3.059742E-04
5.446272E+03	2.250974E-02	3.071692E-04
5.456192E+03	2.265841E-02	3.081438E-04
5.466113E+03	2.279181E-02	3.089039E-04
5.476033E+03	2.290993E-02	3.094515E-04
5.485953E+03	2.301365E-02	3.098009E-04
5.495874E+03	2.310362E-02	3.099629E-04
5.505794E+03	2.318051E-02	3.099484E-04
5.515714E+03	2.324509E-02	3.097694E-04
5.525635E+03	2.329848E-02	3.094424E-04
5.535555E+03	2.334140E-02	3.089783E-04
5.545475E+03	2.337472E-02	3.083901E-04
5.555396E+03	2.340037E-02	3.077044E-04
5.565316E+03	2.341902E-02	3.069308E-04
5.575236E+03	2.343288E-02	3.060990E-04
5.585157E+03	2.344298E-02	3.052232E-04
5.595077E+03	2.345098E-02	3.043253E-04
5.604997E+03	2.345882E-02	3.034306E-04
5.614918E+03	2.346816E-02	3.025603E-04
5.624838E+03	2.348068E-02	3.017361E-04
5.634759E+03	2.349799E-02	3.009780E-04
5.644679E+03	2.352164E-02	3.003052E-04
5.654599E+03	2.355304E-02	2.997347E-04
5.664520E+03	2.359343E-02	2.992814E-04
5.674440E+03	2.364390E-02	2.989580E-04
5.684360E+03	2.370557E-02	2.987773E-04
5.694281E+03	2.377909E-02	2.987462E-04
5.704201E+03	2.386464E-02	2.988655E-04
5.714121E+03	2.396233E-02	2.991350E-04
5.724042E+03	2.407255E-02	2.995586E-04
5.733962E+03	2.419442E-02	3.001235E-04
5.743882E+03	2.432774E-02	3.008263E-04
5.753803E+03	2.447107E-02	3.016478E-04
5.763723E+03	2.462376E-02	3.025788E-04
5.773643E+03	2.478406E-02	3.035974E-04
5.783564E+03	2.495068E-02	3.046866E-04
5.793484E+03	2.512177E-02	3.058235E-04
5.803404E+03	2.529511E-02	3.069808E-04
5.813325E+03	2.546889E-02	3.081365E-04
5.823245E+03	2.564129E-02	3.092687E-04
5.833166E+03	2.580962E-02	3.103454E-04
5.843086E+03	2.597263E-02	3.113522E-04
5.853006E+03	2.612769E-02	3.122585E-04
5.862927E+03	2.627294E-02	3.130432E-04
5.872847E+03	2.640718E-02	3.136931E-04
5.882767E+03	2.652861E-02	3.141884E-04
5.892688E+03	2.663591E-02	3.145151E-04
5.902608E+03	2.672829E-02	3.146654E-04
5.912528E+03	2.680471E-02	3.146289E-04
5.922449E+03	2.686494E-02	3.144048E-04
5.932369E+03	2.690907E-02	3.139959E-04
5.942289E+03	2.693654E-02	3.133976E-04
5.952210E+03	2.694828E-02	3.126223E-04
5.962130E+03	2.694453E-02	3.116747E-04
5.972050E+03	2.692674E-02	3.105732E-04
5.981971E+03	2.689490E-02	3.093190E-04
5.991891E+03	2.685114E-02	3.079383E-04
6.001811E+03	2.679641E-02	3.064430E-04
6.011732E+03	2.673206E-02	3.048498E-04
6.021652E+03	2.665952E-02	3.031761E-04
6.031573E+03	2.658025E-02	3.014390E-04
6.041493E+03	2.649606E-02	2.996599E-04
6.051413E+03	2.640836E-02	2.978553E-04
6.061334E+03	2.631889E-02	2.960450E-04
6.071254E+03	2.622865E-02	2.942406E-04
6.081174E+03	2.613950E-02	2.924630E-04
6.091095E+03	2.605330E-02	2.907331E-04
6.101015E+03	2.597140E-02	2.890655E-04
6.110935E+03	2.589609E-02	2.874857E-04
6.120856E+03	2.582923E-02	2.860136E-04
6.130776E+03	2.577064E-02	2.846467E-04
6.140696E+03	2.572070E-02	2.833886E-04
6.150617E+03	2.567906E-02	2.822349E-04
6.160537E+03	2.564563E-02	2.811843E-04
6.170457E+03	2.562027E-02	2.802345E-04
6.180378E+03	2.560377E-02	2.793938E-04
6.190298E+03	2.559589E-02	2.786591E-04
6.200218E+03	2.559734E-02	2.780379E-04
6.210139E+03	2.560816E-02	2.775298E-04
6.220059E+03	2.562902E-02	2.771420E-04
6.229979E+03	2.565990E-02	2.768735E-04
6.239900E+03	2.570107E-02	2.767270E-04
6.249820E+03	2.575277E-02	2.767048E-04
6.259741E+03	2.581556E-02	2.768122E-04
6.269661E+03	2.588960E-02	2.770507E-04
6.279581E+03	2.597462E-02	2.774171E-04
6.289502E+03	2.607100E-02	2.779152E-04
6.299422E+03	2.617866E-02	2.785438E-04
6.309342E+03	2.629746E-02	2.793012E-04
6.319263E+03	2.642711E-02	2.801842E-04
6.329183E+03	2.656759E-02	2.811925E-04
6.339103E+03	2.671806E-02	2.823170E-04
6.349024E+03	2.687786E-02	2.835509E-04
6.358944E+03	2.704625E-02	2.848865E-04
6.368864E+03	2.722272E-02	2.863185E-04
6.378785E+03	2.740552E-02	2.878289E-04
6.388705E+03	2.759392E-02	2.894102E-04
6.398625E+03	2.778671E-02	2.910503E-04
6.408546E+03	2.798262E-02	2.927362E-04
6.418466E+03	2.817950E-02	2.944459E-04
6.428386E+03	2.837672E-02	2.961725E-04
6.438307E+03	2.857204E-02	2.978928E-04
6.448227E+03	2.876398E-02	2.995911E-04
6.458148E+03	2.895145E-02	3.012561E-04
6.468068E+03	2.913227E-02	3.028652E-04
6.477988E+03	2.930569E-02	3.044106E-04
6.487909E+03	2.947060E-02	3.058808E-04
6.497829E+03	2.962474E-02	3.072521E-04
6.507749E+03	2.976796E-02	3.085233E-04
6.517670E+03	2.989853E-02	3.096761E-04
6.527590E+03	3.001660E-02	3.107124E-04
6.537510E+03	3.012069E-02	3.116163E-04
6.547431E+03	3.021079E-02	3.123880E-04
6.557351E+03	3.028650E-02	3.130230E-04
6.567271E+03	3.034762E-02	3.135191E-04
6.577192E+03	3.039404E-02	3.138750E-04
6.587112E+03	3.042541E-02	3.140866E-04
6.597032E+03	3.044227E-02	3.141596E-04
6.606953E+03	3.044545E-02	3.141019E-04
6.616873E+03	3.043439E-02	3.139075E-04
6.626793E+03	3.041007E-02	3.135861E-04
6.636714E+03	3.037312E-02	3.131439E-04
6.646634E+03	3.032424E-02	3.125876E-04
6.656555E+03	3.026466E-02	3.119295E-04
6.666475E+03	3.019430E-02	3.111683E-04
6.676395E+03	3.011503E-02	3.103229E-04
6.686316E+03	3.002735E-02	3.093980E-04
6.696236E+03	2.993274E-02	3.084083E-04
6.706156E+03	2.983178E-02	3.073593E-04
6.716077E+03	2.972556E-02	3.062619E-04
6.725997E+03	2.961563E-02	3.051316E-04
6.735917E+03	2.950309E-02	3.039794E-04
6.745838E+03	2.938858E-02	3.028113E-04
6.755758E+03	2.927365E-02	3.016430E-04
6.765678E+03	2.915889E-02	3.004801E-04
6.775599E+03	2.904627E-02	2.993425E-04
6.785519E+03	2.893583E-02	2.982304E-04
6.795439E+03	2.882896E-02	2.971577E-04
6.805360E+03	2.872605E-02	2.961282E-04
6.815280E+03	2.862883E-02	2.951593E-04
6.825200E+03	2.853751E-02	2.942531E-04
6.835121E+03	2.845224E-02	2.934106E-04
6.845041E+03	2.837447E-02	2.926468E-04
6.854962E+03	2.830367E-02	2.919557E-04
6.864882E+03	2.824108E-02	2.913502E-04
6.874802E+03	2.818598E-02	2.908224E-04
6.884723E+03	2.813942E-02	2.903833E-04
6.894643E+03	2.810096E-02	2.900280E-04
6.904563E+03	2.807006E-02	2.897507E-04
6.914484E+03	2.804803E-02	2.895649E-04
6.924404E+03	2.803324E-02	2.894536E-04
6.934324E+03	2.802592E-02	2.894191E-04
6.944245E+03	2.802628E-02	2.894635E-04
6.954165E+03	2.803303E-02	2.895733E-04
6.964085E+03	2.804683E-02	2.897552E-04
6.974006E+03	2.806683E-02	2.900004E-04
6.983926E+03	2.809319E-02	2.903105E-04
6.993846E+03	2.812508E-02	2.906769E-04
7.003767E+03	2.816215E-02	2.910958E-04
7.013687E+03	2.820408E-02	2.915639E-04
7.023607E+03	2.825053E-02	2.920777E-04
7.033528E+03	2.830169E-02	2.926392E-04
7.043448E+03	2.835725E-02	2.932450E-04
7.053369E+03	2.841636E-02	2.938864E-04
7.063289E+03	2.847866E-02	2.945596E-04
7.073209E+03	2.854377E-02	2.952608E-04
7.083130E+03	2.861237E-02	2.959970E-04
7.093050E+03	2.868242E-02	2.967472E-04
7.102970E+03	2.875451E-02	2.975174E-04
7.112891E+03	2.882812E-02	2.983024E-04
7.122811E+03	2.890269E-02	2.990963E-04
7.132731E+03	2.897704E-02	2.998873E-04
7.142652E+03	2.905106E-02	3.006739E-04
7.152572E+03	2.912401E-02	3.014490E-04
7.162492E+03	2.919515E-02	3.022047E-04
7.172413E+03	2.926311E-02	3.029271E-04
7.182333E+03	2.932820E-02	3.036195E-04
7.192253E+03	2.938901E-02	3.042674E-04
7.202174E+03	2.944528E-02	3.048685E-04
7.212094E+03	2.949561E-02	3.054083E-04
7.222014E+03	2.953919E-02	3.058786E-04
7.231935E+03	2.957646E-02	3.062841E-04
7.241855E+03	2.960553E-02	3.066055E-04
7.251775E+03	2.962699E-02	3.068492E-04
7.261696E+03	2.963971E-02	3.070036E-04
7.271616E+03	2.964389E-02	3.070712E-04
7.281537E+03	2.963985E-02	3.070555E-04
7.291457E+03	2.962684E-02	3.069488E-04
7.301377E+03	2.960608E-02	3.067642E-04
7.311298E+03	2.957710E-02	3.064970E-04
7.321218E+03	2.954083E-02	3.061571E-04
7.331138E+03	2.949834E-02	3.057561E-04
7.341059E+03	2.945028E-02	3.053009E-04
7.350979E+03	2.939805E-02	3.048063E-04
7.360899E+03	2.934261E-02	3.042825E-04
7.370820E+03	2.928567E-02	3.037478E-04
7.380740E+03	2.922721E-02	3.032022E-04
7.390660E+03	2.916860E-02	3.026602E-04
7.400581E+03	2.911131E-02	3.021377E-04
7.410501E+03	2.905631E-02	3.016448E-04
7.420421E+03	2.900463E-02	3.011928E-04
7.430342E+03	2.895740E-02	3.007938E-04
7.440262E+03	2.891640E-02	3.004670E-04
7.450182E+03	2.888350E-02	3.002318E-04
7.460103E+03	2.886051E-02	3.001082E-04
7.470023E+03	2.884802E-02	3.001023E-04
7.479944E+03	2.884844E-02	3.002403E-04
7.489864E+03	2.886352E-02	3.005407E-04
7.499784E+03	2.889424E-02	3.010146E-04
7.509705E+03	2.894213E-02	3.016788E-04
7.519625E+03	2.900855E-02	3.025482E-04
7.529545E+03	2.909537E-02	3.036435E-04
7.539466E+03	2.920226E-02	3.049621E-04
7.549386E+03	2.933065E-02	3.065201E-04
7.559306E+03	2.948038E-02	3.083171E-04
7.569227E+03	2.965302E-02	3.103707E-04
7.579147E+03	2.984714E-02	3.126675E-04
7.589067E+03	3.006301E-02	3.152116E-04
7.598988E+03	3.029918E-02	3.179894E-04
7.608908E+03	3.055520E-02	3.209979E-04
7.618828E+03	3.082958E-02	3.242229E-04
7.628749E+03	3.112042E-02	3.276463E-04
7.638669E+03	3.142470E-02	3.312380E-04
7.648589E+03	3.174048E-02	3.349791E-04
7.658510E+03	3.206469E-02	3.388391E-04
7.668430E+03	3.239393E-02	3.427835E-04
7.678351E+03	3.272445E-02	3.467741E-04
7.688271E+03	3.305140E-02	3.507611E-04
7.698191E+03	3.337203E-02	3.547164E-04
