#wls	flux	fluxerr
1.587256E+03	6.371572E-05	1.792991E-06
1.626937E+03	6.737739E-05	1.895440E-06
1.666619E+03	7.021551E-05	1.974647E-06
1.706300E+03	7.206998E-05	2.026130E-06
1.745982E+03	7.279166E-05	2.045724E-06
1.785663E+03	7.208659E-05	2.025201E-06
1.825344E+03	6.967314E-05	1.956695E-06
1.865026E+03	6.535314E-05	1.834695E-06
1.904707E+03	5.912549E-05	1.659233E-06
1.944389E+03	5.137308E-05	1.441115E-06
1.984070E+03	4.292496E-05	1.203647E-06
2.023751E+03	3.498995E-05	9.807388E-07
2.063433E+03	2.878961E-05	8.066072E-07
2.103114E+03	2.514661E-05	7.042338E-07
2.142795E+03	2.444686E-05	6.843313E-07
2.182477E+03	2.686953E-05	7.518032E-07
2.222158E+03	3.264140E-05	9.128686E-07
2.261840E+03	4.196612E-05	1.173081E-06
2.301521E+03	5.485760E-05	1.532676E-06
2.341202E+03	7.103660E-05	1.983692E-06
2.380884E+03	9.002493E-05	2.512625E-06
2.420565E+03	1.112390E-04	3.103050E-06
2.460247E+03	1.341757E-04	3.740814E-06
2.499928E+03	1.584101E-04	4.413973E-06
2.539609E+03	1.836475E-04	5.114224E-06
2.579291E+03	2.097189E-04	5.836788E-06
2.618972E+03	2.364610E-04	6.577047E-06
2.658654E+03	2.638630E-04	7.334631E-06
2.698335E+03	2.918729E-04	8.108023E-06
2.738016E+03	3.205856E-04	8.899788E-06
2.777698E+03	3.500257E-04	9.710529E-06
2.817379E+03	3.802967E-04	1.054303E-05
2.857061E+03	4.112831E-04	1.139401E-05
2.896742E+03	4.430019E-04	1.226384E-05
2.936423E+03	4.752981E-04	1.314815E-05
2.976105E+03	5.082930E-04	1.405020E-05
2.986025E+03	5.166447E-04	1.427830E-05
2.995946E+03	5.250074E-04	1.450660E-05
3.005866E+03	5.334679E-04	1.473750E-05
3.015786E+03	5.419757E-04	1.496960E-05
3.025707E+03	5.507111E-04	1.520787E-05
3.035627E+03	5.598196E-04	1.545633E-05
3.045547E+03	5.692674E-04	1.571404E-05
3.055468E+03	5.789744E-04	1.597878E-05
3.065388E+03	5.890025E-04	1.625225E-05
3.075308E+03	5.992769E-04	1.653239E-05
3.085229E+03	6.097694E-04	1.681841E-05
3.095149E+03	6.204550E-04	1.710961E-05
3.105069E+03	6.313571E-04	1.740665E-05
3.114990E+03	6.423560E-04	1.770621E-05
3.124910E+03	6.535770E-04	1.801174E-05
3.134830E+03	6.648517E-04	1.831860E-05
3.144751E+03	6.763112E-04	1.863039E-05
3.154671E+03	6.878376E-04	1.894388E-05
3.164591E+03	6.994128E-04	1.925855E-05
3.174512E+03	7.111247E-04	1.957682E-05
3.184432E+03	7.229077E-04	1.989689E-05
3.194353E+03	7.347485E-04	2.021839E-05
3.204273E+03	7.466347E-04	2.054096E-05
3.214193E+03	7.585542E-04	2.086429E-05
3.224114E+03	7.705494E-04	2.118953E-05
3.234034E+03	7.825576E-04	2.151495E-05
3.243954E+03	7.946773E-04	2.184326E-05
3.253875E+03	8.067924E-04	2.217128E-05
3.263795E+03	8.190037E-04	2.250175E-05
3.273715E+03	8.312489E-04	2.283298E-05
3.283636E+03	8.435776E-04	2.316632E-05
3.293556E+03	8.559266E-04	2.350003E-05
3.303476E+03	8.684023E-04	2.383704E-05
3.313397E+03	8.809429E-04	2.417564E-05
3.323317E+03	8.935424E-04	2.451566E-05
3.333237E+03	9.063079E-04	2.486004E-05
3.343158E+03	9.191778E-04	2.520709E-05
3.353078E+03	9.321462E-04	2.555665E-05
3.362998E+03	9.452643E-04	2.591010E-05
3.372919E+03	9.585815E-04	2.626881E-05
3.382839E+03	9.720936E-04	2.663264E-05
3.392760E+03	9.857914E-04	2.700135E-05
3.402680E+03	9.997250E-04	2.737630E-05
3.412600E+03	1.013885E-03	2.775724E-05
3.422521E+03	1.028322E-03	2.814550E-05
3.432441E+03	1.043080E-03	2.854235E-05
3.442361E+03	1.058092E-03	2.894589E-05
3.452282E+03	1.073518E-03	2.936050E-05
3.462202E+03	1.089344E-03	2.978581E-05
3.472122E+03	1.105554E-03	3.022137E-05
3.482043E+03	1.122192E-03	3.066834E-05
3.491963E+03	1.139239E-03	3.112623E-05
3.501883E+03	1.156851E-03	3.159926E-05
3.511804E+03	1.174893E-03	3.208376E-05
3.521724E+03	1.193405E-03	3.258076E-05
3.531644E+03	1.212366E-03	3.308974E-05
3.541565E+03	1.231761E-03	3.361024E-05
3.551485E+03	1.251573E-03	3.414178E-05
3.561405E+03	1.271731E-03	3.468244E-05
3.571326E+03	1.292225E-03	3.523191E-05
3.581246E+03	1.312993E-03	3.578851E-05
3.591167E+03	1.334090E-03	3.635372E-05
3.601087E+03	1.355462E-03	3.692607E-05
3.611007E+03	1.377115E-03	3.750569E-05
3.620928E+03	1.398948E-03	3.808985E-05
3.630848E+03	1.421086E-03	3.868192E-05
3.640768E+03	1.443432E-03	3.927928E-05
3.650689E+03	1.466008E-03	3.988248E-05
3.660609E+03	1.488778E-03	4.049059E-05
3.670529E+03	1.511820E-03	4.110567E-05
3.680450E+03	1.535103E-03	4.172692E-05
3.690370E+03	1.558600E-03	4.235354E-05
3.700290E+03	1.582336E-03	4.298624E-05
3.710211E+03	1.606338E-03	4.362575E-05
3.720131E+03	1.630580E-03	4.427132E-05
3.730051E+03	1.655089E-03	4.492370E-05
3.739972E+03	1.679892E-03	4.558361E-05
3.749892E+03	1.704961E-03	4.625029E-05
3.759812E+03	1.730322E-03	4.692441E-05
3.769733E+03	1.755947E-03	4.760522E-05
3.779653E+03	1.781858E-03	4.829331E-05
3.789574E+03	1.808075E-03	4.898920E-05
3.799494E+03	1.834564E-03	4.969196E-05
3.809414E+03	1.861340E-03	5.040198E-05
3.819335E+03	1.888363E-03	5.111819E-05
3.829255E+03	1.915642E-03	5.184081E-05
3.839175E+03	1.943180E-03	5.256992E-05
3.849096E+03	1.970928E-03	5.330416E-05
3.859016E+03	1.998881E-03	5.404342E-05
3.868936E+03	2.026984E-03	5.478617E-05
3.878857E+03	2.055225E-03	5.553212E-05
3.888777E+03	2.083594E-03	5.628096E-05
3.898697E+03	2.112027E-03	5.703097E-05
3.908618E+03	2.140461E-03	5.778042E-05
3.918538E+03	2.168932E-03	5.853032E-05
3.928458E+03	2.197379E-03	5.927900E-05
3.938379E+03	2.225745E-03	6.002490E-05
3.948299E+03	2.254026E-03	6.076794E-05
3.958219E+03	2.282176E-03	6.150684E-05
3.968140E+03	2.310249E-03	6.224313E-05
3.978060E+03	2.338216E-03	6.297596E-05
3.987981E+03	2.366051E-03	6.370465E-05
3.997901E+03	2.393741E-03	6.442884E-05
4.007821E+03	2.421430E-03	6.515241E-05
4.017742E+03	2.449025E-03	6.587289E-05
4.027662E+03	2.476644E-03	6.659342E-05
4.037582E+03	2.504318E-03	6.731481E-05
4.047503E+03	2.532136E-03	6.803949E-05
4.057423E+03	2.560199E-03	6.877013E-05
4.067343E+03	2.588569E-03	6.950840E-05
4.077264E+03	2.617365E-03	7.025749E-05
4.087184E+03	2.646664E-03	7.101944E-05
4.097104E+03	2.676600E-03	7.179784E-05
4.107025E+03	2.707307E-03	7.259625E-05
4.116945E+03	2.738925E-03	7.341838E-05
4.126865E+03	2.771543E-03	7.426663E-05
4.136786E+03	2.805300E-03	7.514465E-05
4.146706E+03	2.840376E-03	7.605727E-05
4.156626E+03	2.876804E-03	7.700527E-05
4.166547E+03	2.914753E-03	7.799317E-05
4.176467E+03	2.954286E-03	7.902261E-05
4.186387E+03	2.995556E-03	8.009759E-05
4.196308E+03	3.038651E-03	8.122046E-05
4.206228E+03	3.083602E-03	8.239197E-05
4.216149E+03	3.130570E-03	8.361636E-05
4.226069E+03	3.179507E-03	8.489228E-05
4.235989E+03	3.230546E-03	8.622321E-05
4.245910E+03	3.283706E-03	8.760960E-05
4.255830E+03	3.338990E-03	8.905146E-05
4.265750E+03	3.396437E-03	9.054978E-05
4.275671E+03	3.456021E-03	9.210376E-05
4.285591E+03	3.517753E-03	9.371363E-05
4.295511E+03	3.581582E-03	9.537797E-05
4.305432E+03	3.647606E-03	9.709933E-05
4.315352E+03	3.715654E-03	9.887307E-05
4.325272E+03	3.785821E-03	1.007016E-04
4.335193E+03	3.858040E-03	1.025832E-04
4.345113E+03	3.932364E-03	1.045191E-04
4.355033E+03	4.008742E-03	1.065079E-04
4.364954E+03	4.087251E-03	1.085515E-04
4.374874E+03	4.167931E-03	1.106510E-04
4.384794E+03	4.250826E-03	1.128075E-04
4.394715E+03	4.335920E-03	1.150204E-04
4.404635E+03	4.423374E-03	1.172940E-04
4.414556E+03	4.513089E-03	1.196255E-04
4.424476E+03	4.604938E-03	1.220114E-04
4.434396E+03	4.698817E-03	1.244490E-04
4.444317E+03	4.794580E-03	1.269344E-04
4.454237E+03	4.891769E-03	1.294552E-04
4.464157E+03	4.990254E-03	1.320081E-04
4.474078E+03	5.089454E-03	1.345776E-04
4.483998E+03	5.189121E-03	1.371571E-04
4.493918E+03	5.288616E-03	1.397298E-04
4.503839E+03	5.387369E-03	1.422805E-04
4.513759E+03	5.484845E-03	1.447951E-04
4.523679E+03	5.580391E-03	1.472565E-04
4.533600E+03	5.673268E-03	1.496452E-04
4.543520E+03	5.762936E-03	1.519470E-04
4.553440E+03	5.848654E-03	1.541426E-04
4.563361E+03	5.929855E-03	1.562170E-04
4.573281E+03	6.005944E-03	1.581549E-04
4.583201E+03	6.076395E-03	1.599424E-04
4.593122E+03	6.140836E-03	1.615700E-04
4.603042E+03	6.198998E-03	1.630308E-04
4.612963E+03	6.250640E-03	1.643187E-04
4.622883E+03	6.295787E-03	1.654345E-04
4.632803E+03	6.334350E-03	1.663762E-04
4.642724E+03	6.366585E-03	1.671506E-04
4.652644E+03	6.392769E-03	1.677653E-04
4.662564E+03	6.413357E-03	1.682324E-04
4.672485E+03	6.428726E-03	1.685619E-04
4.682405E+03	6.439546E-03	1.687716E-04
4.692325E+03	6.446309E-03	1.688746E-04
4.702246E+03	6.449761E-03	1.688905E-04
4.712166E+03	6.450510E-03	1.688354E-04
4.722086E+03	6.449235E-03	1.687270E-04
4.732007E+03	6.446599E-03	1.685829E-04
4.741927E+03	6.443231E-03	1.684195E-04
4.751847E+03	6.439647E-03	1.682503E-04
4.761768E+03	6.436313E-03	1.680876E-04
4.771688E+03	6.433640E-03	1.679419E-04
4.781608E+03	6.431909E-03	1.678207E-04
4.791529E+03	6.431338E-03	1.677295E-04
4.801449E+03	6.432086E-03	1.676726E-04
4.811370E+03	6.434476E-03	1.676582E-04
4.821290E+03	6.438410E-03	1.676838E-04
4.831210E+03	6.444103E-03	1.677549E-04
4.841131E+03	6.451443E-03	1.678684E-04
4.851051E+03	6.460492E-03	1.680261E-04
4.860971E+03	6.471142E-03	1.682250E-04
4.870892E+03	6.483415E-03	1.684655E-04
4.880812E+03	6.497245E-03	1.687461E-04
4.890732E+03	6.512499E-03	1.690630E-04
4.900653E+03	6.529197E-03	1.694169E-04
4.910573E+03	6.547313E-03	1.698069E-04
4.920493E+03	6.566785E-03	1.702315E-04
4.930414E+03	6.587811E-03	1.706957E-04
4.940334E+03	6.610361E-03	1.711986E-04
4.950254E+03	6.634751E-03	1.717484E-04
4.960175E+03	6.661149E-03	1.723494E-04
4.970095E+03	6.689940E-03	1.730115E-04
4.980015E+03	6.721425E-03	1.737422E-04
4.989936E+03	6.756105E-03	1.745546E-04
4.999856E+03	6.794394E-03	1.754592E-04
5.009777E+03	6.836952E-03	1.764728E-04
5.019697E+03	6.884249E-03	1.776074E-04
5.029617E+03	6.936829E-03	1.788769E-04
5.039538E+03	6.995240E-03	1.802952E-04
5.049458E+03	7.060074E-03	1.818773E-04
5.059378E+03	7.131749E-03	1.836338E-04
5.069299E+03	7.210785E-03	1.855778E-04
5.079219E+03	7.297575E-03	1.877190E-04
5.089139E+03	7.392372E-03	1.900637E-04
5.099060E+03	7.495586E-03	1.926222E-04
5.108980E+03	7.607243E-03	1.953948E-04
5.118900E+03	7.727591E-03	1.983875E-04
5.128821E+03	7.856554E-03	2.015980E-04
5.138741E+03	7.994032E-03	2.050234E-04
5.148661E+03	8.139818E-03	2.086582E-04
5.158582E+03	8.293672E-03	2.124957E-04
5.168502E+03	8.455071E-03	2.165225E-04
5.178422E+03	8.623444E-03	2.207233E-04
5.188343E+03	8.798183E-03	2.250826E-04
5.198263E+03	8.978469E-03	2.295791E-04
5.208183E+03	9.163257E-03	2.341858E-04
5.218104E+03	9.351480E-03	2.388754E-04
5.228024E+03	9.542052E-03	2.436199E-04
5.237945E+03	9.733704E-03	2.483870E-04
5.247865E+03	9.924992E-03	2.531396E-04
5.257785E+03	1.011462E-02	2.578449E-04
5.267706E+03	1.030108E-02	2.624644E-04
5.277626E+03	1.048297E-02	2.669625E-04
5.287546E+03	1.065904E-02	2.713076E-04
5.297467E+03	1.082791E-02	2.754649E-04
5.307387E+03	1.098854E-02	2.794083E-04
5.317307E+03	1.113982E-02	2.831095E-04
5.327228E+03	1.128090E-02	2.865476E-04
5.337148E+03	1.141124E-02	2.897096E-04
5.347068E+03	1.153016E-02	2.925781E-04
5.356989E+03	1.163761E-02	2.951525E-04
5.366909E+03	1.173337E-02	2.974277E-04
5.376829E+03	1.181735E-02	2.994020E-04
5.386750E+03	1.188992E-02	3.010851E-04
5.396670E+03	1.195116E-02	3.024794E-04
5.406590E+03	1.200114E-02	3.035874E-04
5.416511E+03	1.204016E-02	3.044168E-04
5.426431E+03	1.206831E-02	3.049706E-04
5.436352E+03	1.208549E-02	3.052464E-04
5.446272E+03	1.209171E-02	3.052453E-04
5.456192E+03	1.208678E-02	3.049626E-04
5.466113E+03	1.207025E-02	3.043876E-04
5.476033E+03	1.204193E-02	3.035160E-04
5.485953E+03	1.200151E-02	3.023402E-04
5.495874E+03	1.194921E-02	3.008666E-04
5.505794E+03	1.188519E-02	2.990993E-04
5.515714E+03	1.181002E-02	2.970533E-04
5.525635E+03	1.172473E-02	2.947550E-04
5.535555E+03	1.163049E-02	2.922341E-04
5.545475E+03	1.152901E-02	2.895339E-04
5.555396E+03	1.142220E-02	2.867025E-04
5.565316E+03	1.131232E-02	2.837970E-04
5.575236E+03	1.120160E-02	2.808736E-04
5.585157E+03	1.109255E-02	2.779947E-04
5.595077E+03	1.098784E-02	2.752278E-04
5.604997E+03	1.088999E-02	2.726351E-04
5.614918E+03	1.080168E-02	2.702840E-04
5.624838E+03	1.072545E-02	2.682372E-04
5.634759E+03	1.066370E-02	2.665546E-04
5.644679E+03	1.061872E-02	2.652928E-04
5.654599E+03	1.059262E-02	2.645034E-04
5.664520E+03	1.058729E-02	2.642333E-04
5.674440E+03	1.060441E-02	2.645237E-04
5.684360E+03	1.064542E-02	2.654091E-04
5.694281E+03	1.071157E-02	2.669202E-04
5.704201E+03	1.080351E-02	2.690719E-04
5.714121E+03	1.092198E-02	2.718819E-04
5.724042E+03	1.106715E-02	2.753535E-04
5.733962E+03	1.123860E-02	2.794746E-04
5.743882E+03	1.143588E-02	2.842339E-04
5.753803E+03	1.165780E-02	2.896002E-04
5.763723E+03	1.190288E-02	2.955362E-04
5.773643E+03	1.216893E-02	3.019865E-04
5.783564E+03	1.245323E-02	3.088828E-04
5.793484E+03	1.275296E-02	3.161545E-04
5.803404E+03	1.306445E-02	3.237104E-04
5.813325E+03	1.338379E-02	3.314529E-04
5.823245E+03	1.370672E-02	3.392767E-04
5.833166E+03	1.402880E-02	3.470713E-04
5.843086E+03	1.434531E-02	3.547204E-04
5.853006E+03	1.465183E-02	3.621152E-04
5.862927E+03	1.494384E-02	3.691438E-04
5.872847E+03	1.521734E-02	3.757087E-04
5.882767E+03	1.546831E-02	3.817109E-04
5.892688E+03	1.569383E-02	3.870797E-04
5.902608E+03	1.589096E-02	3.917434E-04
5.912528E+03	1.605790E-02	3.956588E-04
5.922449E+03	1.619308E-02	3.987882E-04
5.932369E+03	1.629631E-02	4.011283E-04
5.942289E+03	1.636764E-02	4.026817E-04
5.952210E+03	1.640798E-02	4.034717E-04
5.962130E+03	1.641871E-02	4.035335E-04
5.972050E+03	1.640192E-02	4.029195E-04
5.981971E+03	1.636031E-02	4.016970E-04
5.991891E+03	1.629642E-02	3.999294E-04
6.001811E+03	1.621351E-02	3.976975E-04
6.011732E+03	1.611477E-02	3.950800E-04
6.021652E+03	1.600322E-02	3.921516E-04
6.031573E+03	1.588210E-02	3.889922E-04
6.041493E+03	1.575431E-02	3.856730E-04
6.051413E+03	1.562232E-02	3.822548E-04
6.061334E+03	1.548863E-02	3.787989E-04
6.071254E+03	1.535526E-02	3.753546E-04
6.081174E+03	1.522371E-02	3.719586E-04
6.091095E+03	1.509562E-02	3.686509E-04
6.101015E+03	1.497180E-02	3.654512E-04
6.110935E+03	1.485322E-02	3.623829E-04
6.120856E+03	1.473979E-02	3.594435E-04
6.130776E+03	1.463223E-02	3.566508E-04
6.140696E+03	1.453001E-02	3.539913E-04
6.150617E+03	1.443320E-02	3.514668E-04
6.160537E+03	1.434133E-02	3.490655E-04
6.170457E+03	1.425420E-02	3.467824E-04
6.180378E+03	1.417120E-02	3.446023E-04
6.190298E+03	1.409207E-02	3.425192E-04
6.200218E+03	1.401686E-02	3.405338E-04
6.210139E+03	1.394546E-02	3.386435E-04
6.220059E+03	1.387808E-02	3.368533E-04
6.229979E+03	1.381513E-02	3.351729E-04
6.239900E+03	1.375702E-02	3.336122E-04
6.249820E+03	1.370462E-02	3.321918E-04
6.259741E+03	1.365844E-02	3.309244E-04
6.269661E+03	1.361967E-02	3.298384E-04
6.279581E+03	1.358907E-02	3.289518E-04
6.289502E+03	1.356737E-02	3.282820E-04
6.299422E+03	1.355563E-02	3.278549E-04
6.309342E+03	1.355408E-02	3.276752E-04
6.319263E+03	1.356363E-02	3.277647E-04
6.329183E+03	1.358409E-02	3.281188E-04
6.339103E+03	1.361579E-02	3.287447E-04
6.349024E+03	1.365832E-02	3.296326E-04
6.358944E+03	1.371135E-02	3.307739E-04
6.368864E+03	1.377394E-02	3.321458E-04
6.378785E+03	1.384525E-02	3.337277E-04
6.388705E+03	1.392421E-02	3.354937E-04
6.398625E+03	1.400956E-02	3.374136E-04
6.408546E+03	1.410011E-02	3.394580E-04
6.418466E+03	1.419422E-02	3.415874E-04
6.428386E+03	1.429067E-02	3.437729E-04
6.438307E+03	1.438745E-02	3.459655E-04
6.448227E+03	1.448285E-02	3.481242E-04
6.458148E+03	1.457500E-02	3.502047E-04
6.468068E+03	1.466228E-02	3.521674E-04
6.477988E+03	1.474309E-02	3.539745E-04
6.487909E+03	1.481600E-02	3.555919E-04
6.497829E+03	1.487929E-02	3.569782E-04
6.507749E+03	1.493146E-02	3.580979E-04
6.517670E+03	1.497171E-02	3.589323E-04
6.527590E+03	1.499837E-02	3.594412E-04
6.537510E+03	1.501101E-02	3.596153E-04
6.547431E+03	1.500879E-02	3.594343E-04
6.557351E+03	1.499128E-02	3.588884E-04
6.567271E+03	1.495870E-02	3.579833E-04
6.577192E+03	1.491083E-02	3.567143E-04
6.587112E+03	1.484864E-02	3.551046E-04
6.597032E+03	1.477243E-02	3.531620E-04
6.606953E+03	1.468346E-02	3.509167E-04
6.616873E+03	1.458263E-02	3.483907E-04
6.626793E+03	1.447136E-02	3.456178E-04
6.636714E+03	1.435096E-02	3.426300E-04
6.646634E+03	1.422284E-02	3.394608E-04
6.656555E+03	1.408843E-02	3.361443E-04
6.666475E+03	1.394913E-02	3.327145E-04
6.676395E+03	1.380669E-02	3.292130E-04
6.686316E+03	1.366193E-02	3.256591E-04
6.696236E+03	1.351665E-02	3.220960E-04
6.706156E+03	1.337189E-02	3.185484E-04
6.716077E+03	1.322864E-02	3.150397E-04
6.725997E+03	1.308832E-02	3.116040E-04
6.735917E+03	1.295180E-02	3.082615E-04
6.745838E+03	1.282006E-02	3.050356E-04
6.755758E+03	1.269420E-02	3.019521E-04
6.765678E+03	1.257491E-02	2.990278E-04
6.775599E+03	1.246305E-02	2.962825E-04
6.785519E+03	1.235955E-02	2.937382E-04
6.795439E+03	1.226513E-02	2.914120E-04
6.805360E+03	1.218028E-02	2.893150E-04
6.815280E+03	1.210571E-02	2.874643E-04
6.825200E+03	1.204174E-02	2.858668E-04
6.835121E+03	1.198888E-02	2.845347E-04
6.845041E+03	1.194721E-02	2.834696E-04
6.854962E+03	1.191714E-02	2.826812E-04
6.864882E+03	1.189819E-02	2.821575E-04
6.874802E+03	1.189069E-02	2.819061E-04
6.884723E+03	1.189402E-02	2.819126E-04
6.894643E+03	1.190798E-02	2.821716E-04
6.904563E+03	1.193191E-02	2.826675E-04
6.914484E+03	1.196543E-02	2.833911E-04
6.924404E+03	1.200778E-02	2.843241E-04
6.934324E+03	1.205850E-02	2.854557E-04
6.944245E+03	1.211682E-02	2.867673E-04
6.954165E+03	1.218232E-02	2.882490E-04
6.964085E+03	1.225428E-02	2.898837E-04
6.974006E+03	1.233242E-02	2.916645E-04
6.983926E+03	1.241617E-02	2.935779E-04
6.993846E+03	1.250521E-02	2.956165E-04
7.003767E+03	1.259933E-02	2.977749E-04
7.013687E+03	1.269838E-02	3.000500E-04
7.023607E+03	1.280230E-02	3.024397E-04
7.033528E+03	1.291106E-02	3.049438E-04
7.043448E+03	1.302471E-02	3.075629E-04
7.053369E+03	1.314327E-02	3.102981E-04
7.063289E+03	1.326681E-02	3.131503E-04
7.073209E+03	1.339514E-02	3.161155E-04
7.083130E+03	1.352823E-02	3.191929E-04
7.093050E+03	1.366620E-02	3.223849E-04
7.102970E+03	1.380865E-02	3.256825E-04
7.112891E+03	1.395531E-02	3.290792E-04
7.122811E+03	1.410579E-02	3.325656E-04
7.132731E+03	1.425958E-02	3.361297E-04
7.142652E+03	1.441582E-02	3.397515E-04
7.152572E+03	1.457396E-02	3.434178E-04
7.162492E+03	1.473288E-02	3.471025E-04
7.172413E+03	1.489158E-02	3.507817E-04
7.182333E+03	1.504892E-02	3.544287E-04
7.192253E+03	1.520367E-02	3.580149E-04
7.202174E+03	1.535454E-02	3.615098E-04
7.212094E+03	1.549971E-02	3.648708E-04
7.222014E+03	1.563825E-02	3.680758E-04
7.231935E+03	1.576831E-02	3.710816E-04
7.241855E+03	1.588876E-02	3.738618E-04
7.251775E+03	1.599833E-02	3.763865E-04
7.261696E+03	1.609534E-02	3.786166E-04
7.271616E+03	1.617899E-02	3.805331E-04
7.281537E+03	1.624814E-02	3.821096E-04
7.291457E+03	1.630208E-02	3.833296E-04
7.301377E+03	1.634033E-02	3.841818E-04
7.311298E+03	1.636237E-02	3.846540E-04
7.321218E+03	1.636839E-02	3.847515E-04
7.331138E+03	1.635812E-02	3.844674E-04
7.341059E+03	1.633224E-02	3.838182E-04
7.350979E+03	1.629095E-02	3.828083E-04
7.360899E+03	1.623564E-02	3.814711E-04
7.370820E+03	1.616721E-02	3.798276E-04
7.380740E+03	1.608702E-02	3.779096E-04
7.390660E+03	1.599661E-02	3.757537E-04
7.400581E+03	1.589798E-02	3.734066E-04
7.410501E+03	1.579254E-02	3.709017E-04
7.420421E+03	1.568284E-02	3.682987E-04
7.430342E+03	1.557080E-02	3.656430E-04
7.440262E+03	1.545896E-02	3.629938E-04
7.450182E+03	1.534989E-02	3.604119E-04
7.460103E+03	1.524577E-02	3.579481E-04
7.470023E+03	1.514923E-02	3.556645E-04
7.479944E+03	1.506269E-02	3.536173E-04
7.489864E+03	1.498873E-02	3.518675E-04
7.499784E+03	1.492939E-02	3.504629E-04
7.509705E+03	1.488709E-02	3.494599E-04
7.519625E+03	1.486384E-02	3.489062E-04
7.529545E+03	1.486150E-02	3.488453E-04
7.539466E+03	1.488173E-02	3.493158E-04
7.549386E+03	1.492617E-02	3.503565E-04
7.559306E+03	1.499596E-02	3.519941E-04
7.569227E+03	1.509193E-02	3.542485E-04
7.579147E+03	1.521437E-02	3.571259E-04
7.589067E+03	1.536387E-02	3.606408E-04
7.598988E+03	1.553970E-02	3.647759E-04
7.608908E+03	1.574167E-02	3.695269E-04
7.618828E+03	1.596841E-02	3.748619E-04
7.628749E+03	1.621860E-02	3.807503E-04
7.638669E+03	1.648969E-02	3.871321E-04
7.648589E+03	1.678000E-02	3.939680E-04
7.658510E+03	1.708578E-02	4.011705E-04
7.668430E+03	1.740425E-02	4.086744E-04
7.678351E+03	1.773115E-02	4.163799E-04
7.688271E+03	1.806304E-02	4.242063E-04
7.698191E+03	1.839567E-02	4.320542E-04
