#wls	flux	fluxerr
1.587256E+03	6.640710E-05	1.513755E-06
1.626937E+03	7.024101E-05	1.600609E-06
1.666619E+03	7.320443E-05	1.667560E-06
1.706300E+03	7.515375E-05	1.711354E-06
1.745982E+03	7.592060E-05	1.728182E-06
1.785663E+03	7.520976E-05	1.711355E-06
1.825344E+03	7.271312E-05	1.653904E-06
1.865026E+03	6.821105E-05	1.550884E-06
1.904707E+03	6.173423E-05	1.403048E-06
1.944389E+03	5.365697E-05	1.218961E-06
1.984070E+03	4.484504E-05	1.018334E-06
2.023751E+03	3.656792E-05	8.300088E-07
2.063433E+03	3.009605E-05	6.828001E-07
2.103114E+03	2.630445E-05	5.964985E-07
2.142795E+03	2.557797E-05	5.797448E-07
2.182477E+03	2.812789E-05	6.372250E-07
2.222158E+03	3.418353E-05	7.740192E-07
2.261840E+03	4.396588E-05	9.950015E-07
2.301521E+03	5.750075E-05	1.300615E-06
2.341202E+03	7.449437E-05	1.684068E-06
2.380884E+03	9.444643E-05	2.133911E-06
2.420565E+03	1.167741E-04	2.636852E-06
2.460247E+03	1.409260E-04	3.180329E-06
2.499928E+03	1.664710E-04	3.754519E-06
2.539609E+03	1.930986E-04	4.352342E-06
2.579291E+03	2.206273E-04	4.969632E-06
2.618972E+03	2.488819E-04	5.602376E-06
2.658654E+03	2.778406E-04	6.250019E-06
2.698335E+03	3.074713E-04	6.911776E-06
2.738016E+03	3.377959E-04	7.588069E-06
2.777698E+03	3.688896E-04	8.280516E-06
2.817379E+03	4.007714E-04	8.989470E-06
2.857061E+03	4.334206E-04	9.714383E-06
2.896742E+03	4.666843E-04	1.045175E-05
2.936423E+03	5.006330E-04	1.120308E-05
2.976105E+03	5.351691E-04	1.196610E-05
2.986025E+03	5.438582E-04	1.215785E-05
2.995946E+03	5.526337E-04	1.235144E-05
3.005866E+03	5.614514E-04	1.254587E-05
3.015786E+03	5.703507E-04	1.274203E-05
3.025707E+03	5.794748E-04	1.294311E-05
3.035627E+03	5.889773E-04	1.315254E-05
3.045547E+03	5.988196E-04	1.336944E-05
3.055468E+03	6.089674E-04	1.359306E-05
3.065388E+03	6.194340E-04	1.382367E-05
3.075308E+03	6.301419E-04	1.405955E-05
3.085229E+03	6.410626E-04	1.430005E-05
3.095149E+03	6.522158E-04	1.454561E-05
3.105069E+03	6.635280E-04	1.479459E-05
3.114990E+03	6.750224E-04	1.504750E-05
3.124910E+03	6.866770E-04	1.530384E-05
3.134830E+03	6.984222E-04	1.556207E-05
3.144751E+03	7.102857E-04	1.582280E-05
3.154671E+03	7.222984E-04	1.608670E-05
3.164591E+03	7.343445E-04	1.635121E-05
3.174512E+03	7.465068E-04	1.661815E-05
3.184432E+03	7.586698E-04	1.688497E-05
3.194353E+03	7.709706E-04	1.715470E-05
3.204273E+03	7.832955E-04	1.742482E-05
3.214193E+03	7.956320E-04	1.769504E-05
3.224114E+03	8.080713E-04	1.796740E-05
3.234034E+03	8.205015E-04	1.823939E-05
3.243954E+03	8.330155E-04	1.851310E-05
3.253875E+03	8.455543E-04	1.878719E-05
3.263795E+03	8.581613E-04	1.906264E-05
3.273715E+03	8.707775E-04	1.933813E-05
3.283636E+03	8.834479E-04	1.961466E-05
3.293556E+03	8.962211E-04	1.989331E-05
3.303476E+03	9.090373E-04	2.017274E-05
3.313397E+03	9.219454E-04	2.045405E-05
3.323317E+03	9.349395E-04	2.073709E-05
3.333237E+03	9.480153E-04	2.102176E-05
3.343158E+03	9.612223E-04	2.130917E-05
3.353078E+03	9.745561E-04	2.159921E-05
3.362998E+03	9.880107E-04	2.189175E-05
3.372919E+03	1.001636E-03	2.218788E-05
3.382839E+03	1.015426E-03	2.248748E-05
3.392760E+03	1.029487E-03	2.279287E-05
3.402680E+03	1.043700E-03	2.310145E-05
3.412600E+03	1.058169E-03	2.341549E-05
3.422521E+03	1.072943E-03	2.373607E-05
3.432441E+03	1.088012E-03	2.406297E-05
3.442361E+03	1.103422E-03	2.439720E-05
3.452282E+03	1.119217E-03	2.473971E-05
3.462202E+03	1.135331E-03	2.508907E-05
3.472122E+03	1.151972E-03	2.544982E-05
3.482043E+03	1.169015E-03	2.581922E-05
3.491963E+03	1.186554E-03	2.619933E-05
3.501883E+03	1.204574E-03	2.658979E-05
3.511804E+03	1.223165E-03	2.699262E-05
3.521724E+03	1.242255E-03	2.740618E-05
3.531644E+03	1.261825E-03	2.783004E-05
3.541565E+03	1.281804E-03	2.826264E-05
3.551485E+03	1.302231E-03	2.870481E-05
3.561405E+03	1.322983E-03	2.915385E-05
3.571326E+03	1.344107E-03	2.961080E-05
3.581246E+03	1.365547E-03	3.007437E-05
3.591167E+03	1.387305E-03	3.054464E-05
3.601087E+03	1.409281E-03	3.101937E-05
3.611007E+03	1.431595E-03	3.150124E-05
3.620928E+03	1.454102E-03	3.198700E-05
3.630848E+03	1.476876E-03	3.247827E-05
3.640768E+03	1.499882E-03	3.297432E-05
3.650689E+03	1.523146E-03	3.347568E-05
3.660609E+03	1.546587E-03	3.398057E-05
3.670529E+03	1.570334E-03	3.449183E-05
3.680450E+03	1.594310E-03	3.500776E-05
3.690370E+03	1.618544E-03	3.552895E-05
3.700290E+03	1.643010E-03	3.605486E-05
3.710211E+03	1.667737E-03	3.658611E-05
3.720131E+03	1.692700E-03	3.712217E-05
3.730051E+03	1.717979E-03	3.766473E-05
3.739972E+03	1.743499E-03	3.821217E-05
3.749892E+03	1.769285E-03	3.876504E-05
3.759812E+03	1.795362E-03	3.932385E-05
3.769733E+03	1.821753E-03	3.988912E-05
3.779653E+03	1.848380E-03	4.045913E-05
3.789574E+03	1.875362E-03	4.103647E-05
3.799494E+03	1.902567E-03	4.161826E-05
3.809414E+03	1.930061E-03	4.220590E-05
3.819335E+03	1.957808E-03	4.279861E-05
3.829255E+03	1.985817E-03	4.339658E-05
3.839175E+03	2.014094E-03	4.399996E-05
3.849096E+03	2.042594E-03	4.460772E-05
3.859016E+03	2.071272E-03	4.521887E-05
3.868936E+03	2.100172E-03	4.583438E-05
3.878857E+03	2.129244E-03	4.645315E-05
3.888777E+03	2.158432E-03	4.707396E-05
3.898697E+03	2.187731E-03	4.769668E-05
3.908618E+03	2.217135E-03	4.832117E-05
3.918538E+03	2.246587E-03	4.894619E-05
3.928458E+03	2.276036E-03	4.957064E-05
3.938379E+03	2.305529E-03	5.019551E-05
3.948299E+03	2.335018E-03	5.081979E-05
3.958219E+03	2.364512E-03	5.144363E-05
3.968140E+03	2.393976E-03	5.206630E-05
3.978060E+03	2.423385E-03	5.268723E-05
3.987981E+03	2.452767E-03	5.330706E-05
3.997901E+03	2.482210E-03	5.392764E-05
4.007821E+03	2.511667E-03	5.454801E-05
4.017742E+03	2.541152E-03	5.516844E-05
4.027662E+03	2.570830E-03	5.579249E-05
4.037582E+03	2.600689E-03	5.641992E-05
4.047503E+03	2.630773E-03	5.705169E-05
4.057423E+03	2.661234E-03	5.769105E-05
4.067343E+03	2.692137E-03	5.833941E-05
4.077264E+03	2.723603E-03	5.899937E-05
4.087184E+03	2.755758E-03	5.967368E-05
4.097104E+03	2.788642E-03	6.036313E-05
4.107025E+03	2.822438E-03	6.107169E-05
4.116945E+03	2.857285E-03	6.180234E-05
4.126865E+03	2.893274E-03	6.255700E-05
4.136786E+03	2.930493E-03	6.333757E-05
4.146706E+03	2.969169E-03	6.414891E-05
4.156626E+03	3.009337E-03	6.499171E-05
4.166547E+03	3.051162E-03	6.586954E-05
4.176467E+03	3.094709E-03	6.678370E-05
4.186387E+03	3.140125E-03	6.773736E-05
4.196308E+03	3.187403E-03	6.873028E-05
4.206228E+03	3.236763E-03	6.976719E-05
4.216149E+03	3.288170E-03	7.084725E-05
4.226069E+03	3.341715E-03	7.197237E-05
4.235989E+03	3.397373E-03	7.314196E-05
4.245910E+03	3.455307E-03	7.435945E-05
4.255830E+03	3.515401E-03	7.562231E-05
4.265750E+03	3.577726E-03	7.693197E-05
4.275671E+03	3.642229E-03	7.828724E-05
4.285591E+03	3.708942E-03	7.968874E-05
4.295511E+03	3.777663E-03	8.113209E-05
4.305432E+03	3.848498E-03	8.261949E-05
4.315352E+03	3.921327E-03	8.414829E-05
4.325272E+03	3.996018E-03	8.571562E-05
4.335193E+03	4.072619E-03	8.732243E-05
4.345113E+03	4.151076E-03	8.896754E-05
4.355033E+03	4.231310E-03	9.064917E-05
4.364954E+03	4.313445E-03	9.236991E-05
4.374874E+03	4.397472E-03	9.412955E-05
4.384794E+03	4.483464E-03	9.592956E-05
4.394715E+03	4.571638E-03	9.777453E-05
4.404635E+03	4.661967E-03	9.966383E-05
4.414556E+03	4.754530E-03	1.015990E-04
4.424476E+03	4.849255E-03	1.035786E-04
4.434396E+03	4.946020E-03	1.055998E-04
4.444317E+03	5.044657E-03	1.076590E-04
4.454237E+03	5.144928E-03	1.097511E-04
4.464157E+03	5.246531E-03	1.118695E-04
4.474078E+03	5.349097E-03	1.140064E-04
4.483998E+03	5.452183E-03	1.161523E-04
4.493918E+03	5.555213E-03	1.182949E-04
4.503839E+03	5.657614E-03	1.204220E-04
4.513759E+03	5.758838E-03	1.225219E-04
4.523679E+03	5.858152E-03	1.245791E-04
4.533600E+03	5.954940E-03	1.265806E-04
4.543520E+03	6.048507E-03	1.285115E-04
4.553440E+03	6.138091E-03	1.303559E-04
4.563361E+03	6.223183E-03	1.321030E-04
4.573281E+03	6.303021E-03	1.337368E-04
4.583201E+03	6.377292E-03	1.352508E-04
4.593122E+03	6.445385E-03	1.366322E-04
4.603042E+03	6.507015E-03	1.378752E-04
4.612963E+03	6.562087E-03	1.389778E-04
4.622883E+03	6.610390E-03	1.399358E-04
4.632803E+03	6.652062E-03	1.407524E-04
4.642724E+03	6.687278E-03	1.414315E-04
4.652644E+03	6.716237E-03	1.419773E-04
4.662564E+03	6.739396E-03	1.423999E-04
4.672485E+03	6.757282E-03	1.427104E-04
4.682405E+03	6.770415E-03	1.429200E-04
4.692325E+03	6.779355E-03	1.430407E-04
4.702246E+03	6.784926E-03	1.430899E-04
4.712166E+03	6.787724E-03	1.430804E-04
4.722086E+03	6.788498E-03	1.430280E-04
4.732007E+03	6.787897E-03	1.429464E-04
4.741927E+03	6.786534E-03	1.428486E-04
4.751847E+03	6.785057E-03	1.427483E-04
4.761768E+03	6.783837E-03	1.426532E-04
4.771688E+03	6.783112E-03	1.425683E-04
4.781608E+03	6.783215E-03	1.425006E-04
4.791529E+03	6.784422E-03	1.424559E-04
4.801449E+03	6.786799E-03	1.424356E-04
4.811370E+03	6.790504E-03	1.424429E-04
4.821290E+03	6.795646E-03	1.424800E-04
4.831210E+03	6.802214E-03	1.425468E-04
4.841131E+03	6.810230E-03	1.426435E-04
4.851051E+03	6.819681E-03	1.427700E-04
4.860971E+03	6.830535E-03	1.429254E-04
4.870892E+03	6.842664E-03	1.431071E-04
4.880812E+03	6.856164E-03	1.433170E-04
4.890732E+03	6.870827E-03	1.435508E-04
4.900653E+03	6.886767E-03	1.438107E-04
4.910573E+03	6.903817E-03	1.440933E-04
4.920493E+03	6.922149E-03	1.444021E-04
4.930414E+03	6.941759E-03	1.447370E-04
4.940334E+03	6.962767E-03	1.451004E-04
4.950254E+03	6.985438E-03	1.454978E-04
4.960175E+03	7.010029E-03	1.459346E-04
4.970095E+03	7.036868E-03	1.464175E-04
4.980015E+03	7.066275E-03	1.469530E-04
4.989936E+03	7.098857E-03	1.475537E-04
4.999856E+03	7.134976E-03	1.482270E-04
5.009777E+03	7.175329E-03	1.489873E-04
5.019697E+03	7.220495E-03	1.498465E-04
5.029617E+03	7.270985E-03	1.508150E-04
5.039538E+03	7.327451E-03	1.519061E-04
5.049458E+03	7.390461E-03	1.531313E-04
5.059378E+03	7.460540E-03	1.545015E-04
5.069299E+03	7.538174E-03	1.560264E-04
5.079219E+03	7.623707E-03	1.577128E-04
5.089139E+03	7.717735E-03	1.595728E-04
5.099060E+03	7.820302E-03	1.616070E-04
5.108980E+03	7.931765E-03	1.638226E-04
5.118900E+03	8.052148E-03	1.662197E-04
5.128821E+03	8.181534E-03	1.687998E-04
5.138741E+03	8.319734E-03	1.715586E-04
5.148661E+03	8.466608E-03	1.744929E-04
5.158582E+03	8.621721E-03	1.775936E-04
5.168502E+03	8.784685E-03	1.808523E-04
5.178422E+03	8.954886E-03	1.842561E-04
5.188343E+03	9.131484E-03	1.877876E-04
5.198263E+03	9.313676E-03	1.914299E-04
5.208183E+03	9.500434E-03	1.951619E-04
5.218104E+03	9.690507E-03	1.989576E-04
5.228024E+03	9.882714E-03	2.027926E-04
5.237945E+03	1.007568E-02	2.066389E-04
5.247865E+03	1.026796E-02	2.104666E-04
5.257785E+03	1.045796E-02	2.142430E-04
5.267706E+03	1.064414E-02	2.179371E-04
5.277626E+03	1.082514E-02	2.215207E-04
5.287546E+03	1.099942E-02	2.249626E-04
5.297467E+03	1.116577E-02	2.282384E-04
5.307387E+03	1.132290E-02	2.313223E-04
5.317307E+03	1.146995E-02	2.341965E-04
5.327228E+03	1.160603E-02	2.368433E-04
5.337148E+03	1.173048E-02	2.392498E-04
5.347068E+03	1.184324E-02	2.414152E-04
5.356989E+03	1.194416E-02	2.433368E-04
5.366909E+03	1.203333E-02	2.450168E-04
5.376829E+03	1.211141E-02	2.464692E-04
5.386750E+03	1.217878E-02	2.477019E-04
5.396670E+03	1.223631E-02	2.487329E-04
5.406590E+03	1.228470E-02	2.495769E-04
5.416511E+03	1.232487E-02	2.502530E-04
5.426431E+03	1.235741E-02	2.507732E-04
5.436352E+03	1.238290E-02	2.511497E-04
5.446272E+03	1.240134E-02	2.513830E-04
5.456192E+03	1.241248E-02	2.514678E-04
5.466113E+03	1.241579E-02	2.513938E-04
5.476033E+03	1.241034E-02	2.511426E-04
5.485953E+03	1.239489E-02	2.506893E-04
5.495874E+03	1.236893E-02	2.500240E-04
5.505794E+03	1.233173E-02	2.491323E-04
5.515714E+03	1.228297E-02	2.480080E-04
5.525635E+03	1.222314E-02	2.466617E-04
5.535555E+03	1.215277E-02	2.451042E-04
5.545475E+03	1.207345E-02	2.433677E-04
5.555396E+03	1.198657E-02	2.414810E-04
5.565316E+03	1.189429E-02	2.394875E-04
5.575236E+03	1.179892E-02	2.374342E-04
5.585157E+03	1.170304E-02	2.353727E-04
5.595077E+03	1.160935E-02	2.333575E-04
5.604997E+03	1.152067E-02	2.314453E-04
5.614918E+03	1.143997E-02	2.296953E-04
5.624838E+03	1.136997E-02	2.281619E-04
5.634759E+03	1.131364E-02	2.269044E-04
5.644679E+03	1.127327E-02	2.259683E-04
5.654599E+03	1.125169E-02	2.254094E-04
5.664520E+03	1.125103E-02	2.252701E-04
5.674440E+03	1.127321E-02	2.255881E-04
5.684360E+03	1.132021E-02	2.264020E-04
5.694281E+03	1.139323E-02	2.277353E-04
5.704201E+03	1.149362E-02	2.296137E-04
5.714121E+03	1.162196E-02	2.320481E-04
5.724042E+03	1.177855E-02	2.350436E-04
5.733962E+03	1.196322E-02	2.385959E-04
5.743882E+03	1.217533E-02	2.426910E-04
5.753803E+03	1.241380E-02	2.473068E-04
5.763723E+03	1.267677E-02	2.524054E-04
5.773643E+03	1.296192E-02	2.579398E-04
5.783564E+03	1.326638E-02	2.638522E-04
5.793484E+03	1.358673E-02	2.700739E-04
5.803404E+03	1.391904E-02	2.765265E-04
5.813325E+03	1.425897E-02	2.831233E-04
5.823245E+03	1.460185E-02	2.897712E-04
5.833166E+03	1.494277E-02	2.963734E-04
5.843086E+03	1.527662E-02	3.028281E-04
5.853006E+03	1.559863E-02	3.090414E-04
5.862927E+03	1.590412E-02	3.149208E-04
5.872847E+03	1.618839E-02	3.203741E-04
5.882767E+03	1.644790E-02	3.253317E-04
5.892688E+03	1.667917E-02	3.297260E-04
5.902608E+03	1.687940E-02	3.335023E-04
5.912528E+03	1.704685E-02	3.366276E-04
5.922449E+03	1.718022E-02	3.390769E-04
5.932369E+03	1.727930E-02	3.408477E-04
5.942289E+03	1.734416E-02	3.419419E-04
5.952210E+03	1.737606E-02	3.423859E-04
5.962130E+03	1.737677E-02	3.422155E-04
5.972050E+03	1.734860E-02	3.414772E-04
5.981971E+03	1.729395E-02	3.402192E-04
5.991891E+03	1.721630E-02	3.385104E-04
6.001811E+03	1.711858E-02	3.364095E-04
6.011732E+03	1.700455E-02	3.339909E-04
6.021652E+03	1.687723E-02	3.313144E-04
6.031573E+03	1.674022E-02	3.284509E-04
6.041493E+03	1.659620E-02	3.254537E-04
6.051413E+03	1.644812E-02	3.223803E-04
6.061334E+03	1.629858E-02	3.192820E-04
6.071254E+03	1.614965E-02	3.161993E-04
6.081174E+03	1.600303E-02	3.131655E-04
6.091095E+03	1.586005E-02	3.102066E-04
6.101015E+03	1.572183E-02	3.073444E-04
6.110935E+03	1.558917E-02	3.045941E-04
6.120856E+03	1.546255E-02	3.019652E-04
6.130776E+03	1.534203E-02	2.994586E-04
6.140696E+03	1.522762E-02	2.970744E-04
6.150617E+03	1.511891E-02	2.948042E-04
6.160537E+03	1.501569E-02	2.926439E-04
6.170457E+03	1.491730E-02	2.905805E-04
6.180378E+03	1.482344E-02	2.886079E-04
6.190298E+03	1.473377E-02	2.867196E-04
6.200218E+03	1.464828E-02	2.849150E-04
6.210139E+03	1.456697E-02	2.831941E-04
6.220059E+03	1.449037E-02	2.815670E-04
6.229979E+03	1.441887E-02	2.800414E-04
6.239900E+03	1.435307E-02	2.786286E-04
6.249820E+03	1.429402E-02	2.773487E-04
6.259741E+03	1.424254E-02	2.762177E-04
6.269661E+03	1.419985E-02	2.752587E-04
6.279581E+03	1.416681E-02	2.744886E-04
6.289502E+03	1.414426E-02	2.739230E-04
6.299422E+03	1.413336E-02	2.735844E-04
6.309342E+03	1.413449E-02	2.734795E-04
6.319263E+03	1.414811E-02	2.736173E-04
6.329183E+03	1.417445E-02	2.740016E-04
6.339103E+03	1.421344E-02	2.746309E-04
6.349024E+03	1.426474E-02	2.754982E-04
6.358944E+03	1.432755E-02	2.765878E-04
6.368864E+03	1.440093E-02	2.778815E-04
6.378785E+03	1.448373E-02	2.793565E-04
6.388705E+03	1.457453E-02	2.809856E-04
6.398625E+03	1.467177E-02	2.827386E-04
6.408546E+03	1.477377E-02	2.845826E-04
6.418466E+03	1.487877E-02	2.864839E-04
6.428386E+03	1.498534E-02	2.884149E-04
6.438307E+03	1.509173E-02	2.903420E-04
6.448227E+03	1.519645E-02	2.922363E-04
6.458148E+03	1.529806E-02	2.940704E-04
6.468068E+03	1.539519E-02	2.958181E-04
6.477988E+03	1.548615E-02	2.974470E-04
6.487909E+03	1.556981E-02	2.989352E-04
6.497829E+03	1.564465E-02	3.002543E-04
6.507749E+03	1.570924E-02	3.013766E-04
6.517670E+03	1.576223E-02	3.022767E-04
6.527590E+03	1.580283E-02	3.029397E-04
6.537510E+03	1.582969E-02	3.033399E-04
6.547431E+03	1.584265E-02	3.034746E-04
6.557351E+03	1.584105E-02	3.033313E-04
6.567271E+03	1.582466E-02	3.029062E-04
6.577192E+03	1.579352E-02	3.022001E-04
6.587112E+03	1.574812E-02	3.012228E-04
6.597032E+03	1.568917E-02	2.999881E-04
6.606953E+03	1.561720E-02	2.985064E-04
6.616873E+03	1.553310E-02	2.967949E-04
6.626793E+03	1.543830E-02	2.948812E-04
6.636714E+03	1.533355E-02	2.927800E-04
6.646634E+03	1.522027E-02	2.905182E-04
6.656555E+03	1.509991E-02	2.881237E-04
6.666475E+03	1.497337E-02	2.856138E-04
6.676395E+03	1.484249E-02	2.830238E-04
6.686316E+03	1.470812E-02	2.803700E-04
6.696236E+03	1.457151E-02	2.776758E-04
6.706156E+03	1.443419E-02	2.749710E-04
6.716077E+03	1.429695E-02	2.722701E-04
6.725997E+03	1.416107E-02	2.695978E-04
6.735917E+03	1.402764E-02	2.669745E-04
6.745838E+03	1.389771E-02	2.644203E-04
6.755758E+03	1.377232E-02	2.619549E-04
6.765678E+03	1.365269E-02	2.596011E-04
6.775599E+03	1.353943E-02	2.573709E-04
6.785519E+03	1.343391E-02	2.552895E-04
6.795439E+03	1.333684E-02	2.533710E-04
6.805360E+03	1.324912E-02	2.516318E-04
6.815280E+03	1.317151E-02	2.500864E-04
6.825200E+03	1.310470E-02	2.487475E-04
6.835121E+03	1.304939E-02	2.476285E-04
6.845041E+03	1.300581E-02	2.467333E-04
6.854962E+03	1.297417E-02	2.460658E-04
6.864882E+03	1.295471E-02	2.456303E-04
6.874802E+03	1.294692E-02	2.454172E-04
6.884723E+03	1.295090E-02	2.454278E-04
6.894643E+03	1.296599E-02	2.456498E-04
6.904563E+03	1.299164E-02	2.460722E-04
6.914484E+03	1.302715E-02	2.466821E-04
6.924404E+03	1.307179E-02	2.474652E-04
6.934324E+03	1.312496E-02	2.484102E-04
6.944245E+03	1.318552E-02	2.494953E-04
6.954165E+03	1.325292E-02	2.507099E-04
6.964085E+03	1.332667E-02	2.520449E-04
6.974006E+03	1.340581E-02	2.534820E-04
6.983926E+03	1.348987E-02	2.550123E-04
6.993846E+03	1.357888E-02	2.566362E-04
7.003767E+03	1.367223E-02	2.583421E-04
7.013687E+03	1.376999E-02	2.601315E-04
7.023607E+03	1.387217E-02	2.620042E-04
7.033528E+03	1.397863E-02	2.639581E-04
7.043448E+03	1.408954E-02	2.659958E-04
7.053369E+03	1.420528E-02	2.681248E-04
7.063289E+03	1.432584E-02	2.703447E-04
7.073209E+03	1.445141E-02	2.726590E-04
7.083130E+03	1.458210E-02	2.750702E-04
7.093050E+03	1.471822E-02	2.775835E-04
7.102970E+03	1.485929E-02	2.801901E-04
7.112891E+03	1.500538E-02	2.828915E-04
7.122811E+03	1.515598E-02	2.856779E-04
7.132731E+03	1.531115E-02	2.885502E-04
7.142652E+03	1.546961E-02	2.914847E-04
7.152572E+03	1.563111E-02	2.944765E-04
7.162492E+03	1.579455E-02	2.975047E-04
7.172413E+03	1.595913E-02	3.005546E-04
7.182333E+03	1.612323E-02	3.035954E-04
7.192253E+03	1.628579E-02	3.066075E-04
7.202174E+03	1.644518E-02	3.095601E-04
7.212094E+03	1.660019E-02	3.124304E-04
7.222014E+03	1.674904E-02	3.151854E-04
7.231935E+03	1.689047E-02	3.178011E-04
7.241855E+03	1.702245E-02	3.202395E-04
7.251775E+03	1.714379E-02	3.224783E-04
7.261696E+03	1.725312E-02	3.244921E-04
7.271616E+03	1.734897E-02	3.262532E-04
7.281537E+03	1.743026E-02	3.277413E-04
7.291457E+03	1.749637E-02	3.289451E-04
7.301377E+03	1.754610E-02	3.298421E-04
7.311298E+03	1.757927E-02	3.304291E-04
7.321218E+03	1.759539E-02	3.306969E-04
7.331138E+03	1.759476E-02	3.306514E-04
7.341059E+03	1.757710E-02	3.302873E-04
7.350979E+03	1.754320E-02	3.296197E-04
7.360899E+03	1.749355E-02	3.286578E-04
7.370820E+03	1.742915E-02	3.274205E-04
7.380740E+03	1.735122E-02	3.259309E-04
7.390660E+03	1.726151E-02	3.242217E-04
7.400581E+03	1.716116E-02	3.223144E-04
7.410501E+03	1.705285E-02	3.202596E-04
7.420421E+03	1.693813E-02	3.180863E-04
7.430342E+03	1.681952E-02	3.158417E-04
7.440262E+03	1.669941E-02	3.135708E-04
7.450182E+03	1.658057E-02	3.113257E-04
7.460103E+03	1.646538E-02	3.091508E-04
7.470023E+03	1.635674E-02	3.071008E-04
7.479944E+03	1.625737E-02	3.052266E-04
7.489864E+03	1.616994E-02	3.035783E-04
7.499784E+03	1.609709E-02	3.022054E-04
7.509705E+03	1.604135E-02	3.011555E-04
7.519625E+03	1.600538E-02	3.004786E-04
7.529545E+03	1.599117E-02	3.002118E-04
7.539466E+03	1.600099E-02	3.003979E-04
7.549386E+03	1.603635E-02	3.010654E-04
7.559306E+03	1.609901E-02	3.022472E-04
7.569227E+03	1.619011E-02	3.039647E-04
7.579147E+03	1.631041E-02	3.062326E-04
7.589067E+03	1.646028E-02	3.090576E-04
7.598988E+03	1.663958E-02	3.124375E-04
7.608908E+03	1.684771E-02	3.163610E-04
7.618828E+03	1.708351E-02	3.208066E-04
7.628749E+03	1.734559E-02	3.257484E-04
7.638669E+03	1.763114E-02	3.311337E-04
7.648589E+03	1.793795E-02	3.369215E-04
7.658510E+03	1.826245E-02	3.430448E-04
7.668430E+03	1.860089E-02	3.494332E-04
7.678351E+03	1.894907E-02	3.560082E-04
7.688271E+03	1.930245E-02	3.626850E-04
7.698191E+03	1.965625E-02	3.693736E-04
