#wls	flux	fluxerr
1.587256E+03	6.143114E-05	2.214539E-06
1.626937E+03	6.490695E-05	2.333635E-06
1.666619E+03	6.757560E-05	2.422973E-06
1.706300E+03	6.928409E-05	2.477298E-06
1.745982E+03	6.990531E-05	2.492354E-06
1.785663E+03	6.916108E-05	2.458578E-06
1.825344E+03	6.676278E-05	2.366173E-06
1.865026E+03	6.255236E-05	2.210102E-06
1.904707E+03	5.652415E-05	1.990787E-06
1.944389E+03	4.904456E-05	1.721746E-06
1.984070E+03	4.092214E-05	1.431820E-06
2.023751E+03	3.330579E-05	1.161355E-06
2.063433E+03	2.735877E-05	9.506488E-07
2.103114E+03	2.385973E-05	8.260940E-07
2.142795E+03	2.314824E-05	7.985162E-07
2.182477E+03	2.538672E-05	8.724385E-07
2.222158E+03	3.076081E-05	1.053048E-06
2.261840E+03	3.943921E-05	1.344808E-06
2.301521E+03	5.140508E-05	1.745733E-06
2.341202E+03	6.637613E-05	2.244818E-06
2.380884E+03	8.386207E-05	2.824158E-06
2.420565E+03	1.033045E-04	3.463802E-06
2.460247E+03	1.242248E-04	4.146747E-06
2.499928E+03	1.462221E-04	4.858840E-06
2.539609E+03	1.690015E-04	5.589643E-06
2.579291E+03	1.924359E-04	6.334418E-06
2.618972E+03	2.163797E-04	7.087885E-06
2.658654E+03	2.408144E-04	7.848991E-06
2.698335E+03	2.657333E-04	8.617068E-06
2.738016E+03	2.911879E-04	9.393326E-06
2.777698E+03	3.171750E-04	1.017717E-05
2.817379E+03	3.436888E-04	1.096793E-05
2.857061E+03	3.707601E-04	1.176609E-05
2.896742E+03	3.983738E-04	1.257064E-05
2.936423E+03	4.265036E-04	1.338025E-05
2.976105E+03	4.552059E-04	1.419616E-05
2.986025E+03	4.624992E-04	1.440194E-05
2.995946E+03	4.698598E-04	1.460906E-05
3.005866E+03	4.771890E-04	1.481442E-05
3.015786E+03	4.846690E-04	1.502368E-05
3.025707E+03	4.923221E-04	1.523752E-05
3.035627E+03	5.002780E-04	1.545989E-05
3.045547E+03	5.085558E-04	1.569136E-05
3.055468E+03	5.171268E-04	1.593098E-05
3.065388E+03	5.259638E-04	1.617786E-05
3.075308E+03	5.350413E-04	1.643120E-05
3.085229E+03	5.442814E-04	1.668855E-05
3.095149E+03	5.537686E-04	1.695248E-05
3.105069E+03	5.633732E-04	1.721899E-05
3.114990E+03	5.731844E-04	1.749076E-05
3.124910E+03	5.830724E-04	1.776382E-05
3.134830E+03	5.931307E-04	1.804100E-05
3.144751E+03	6.032867E-04	1.832005E-05
3.154671E+03	6.135822E-04	1.860222E-05
3.164591E+03	6.239442E-04	1.888529E-05
3.174512E+03	6.343592E-04	1.916883E-05
3.184432E+03	6.449320E-04	1.945599E-05
3.194353E+03	6.555325E-04	1.974281E-05
3.204273E+03	6.662093E-04	2.003077E-05
3.214193E+03	6.769520E-04	2.031952E-05
3.224114E+03	6.877504E-04	2.060875E-05
3.234034E+03	6.986582E-04	2.090004E-05
3.243954E+03	7.096051E-04	2.119129E-05
3.253875E+03	7.205824E-04	2.148222E-05
3.263795E+03	7.317083E-04	2.177634E-05
3.273715E+03	7.429151E-04	2.207161E-05
3.283636E+03	7.541309E-04	2.236589E-05
3.293556E+03	7.654783E-04	2.266279E-05
3.303476E+03	7.769506E-04	2.296209E-05
3.313397E+03	7.884783E-04	2.326173E-05
3.323317E+03	8.001860E-04	2.356535E-05
3.333237E+03	8.120017E-04	2.387082E-05
3.343158E+03	8.239205E-04	2.417795E-05
3.353078E+03	8.360019E-04	2.448848E-05
3.362998E+03	8.483062E-04	2.480415E-05
3.372919E+03	8.606940E-04	2.512083E-05
3.382839E+03	8.733578E-04	2.544413E-05
3.392760E+03	8.861570E-04	2.576991E-05
3.402680E+03	8.992175E-04	2.610179E-05
3.412600E+03	9.125302E-04	2.643947E-05
3.422521E+03	9.260189E-04	2.678071E-05
3.432441E+03	9.398744E-04	2.713096E-05
3.442361E+03	9.538839E-04	2.748405E-05
3.452282E+03	9.682367E-04	2.784538E-05
3.462202E+03	9.829202E-04	2.821454E-05
3.472122E+03	9.978510E-04	2.858908E-05
3.482043E+03	1.013149E-03	2.897238E-05
3.491963E+03	1.028730E-03	2.936197E-05
3.501883E+03	1.044641E-03	2.975916E-05
3.511804E+03	1.060864E-03	3.016336E-05
3.521724E+03	1.077378E-03	3.057391E-05
3.531644E+03	1.094226E-03	3.099201E-05
3.541565E+03	1.111318E-03	3.141503E-05
3.551485E+03	1.128766E-03	3.184610E-05
3.561405E+03	1.146408E-03	3.228060E-05
3.571326E+03	1.164225E-03	3.271795E-05
3.581246E+03	1.182345E-03	3.316172E-05
3.591167E+03	1.200708E-03	3.361014E-05
3.601087E+03	1.219252E-03	3.406148E-05
3.611007E+03	1.238053E-03	3.451781E-05
3.620928E+03	1.257122E-03	3.497939E-05
3.630848E+03	1.276471E-03	3.544649E-05
3.640768E+03	1.296047E-03	3.591760E-05
3.650689E+03	1.315932E-03	3.639493E-05
3.660609E+03	1.336141E-03	3.687886E-05
3.670529E+03	1.356627E-03	3.736804E-05
3.680450E+03	1.377412E-03	3.786297E-05
3.690370E+03	1.398515E-03	3.836416E-05
3.700290E+03	1.419959E-03	3.887218E-05
3.710211E+03	1.441831E-03	3.938929E-05
3.720131E+03	1.464026E-03	3.991261E-05
3.730051E+03	1.486571E-03	4.044279E-05
3.739972E+03	1.509552E-03	4.098207E-05
3.749892E+03	1.532931E-03	4.152937E-05
3.759812E+03	1.556731E-03	4.208523E-05
3.769733E+03	1.580975E-03	4.265020E-05
3.779653E+03	1.605624E-03	4.322313E-05
3.789574E+03	1.630696E-03	4.380442E-05
3.799494E+03	1.656268E-03	4.439608E-05
3.809414E+03	1.682292E-03	4.499669E-05
3.819335E+03	1.708655E-03	4.560318E-05
3.829255E+03	1.735537E-03	4.622029E-05
3.839175E+03	1.762755E-03	4.684301E-05
3.849096E+03	1.790351E-03	4.747243E-05
3.859016E+03	1.818247E-03	4.810638E-05
3.868936E+03	1.846470E-03	4.874555E-05
3.878857E+03	1.874869E-03	4.938585E-05
3.888777E+03	1.903462E-03	5.002775E-05
3.898697E+03	1.932146E-03	5.066849E-05
3.908618E+03	1.960878E-03	5.130692E-05
3.918538E+03	1.989552E-03	5.194027E-05
3.928458E+03	2.018186E-03	5.256898E-05
3.938379E+03	2.046623E-03	5.318901E-05
3.948299E+03	2.074888E-03	5.380098E-05
3.958219E+03	2.102892E-03	5.440270E-05
3.968140E+03	2.130561E-03	5.499220E-05
3.978060E+03	2.157940E-03	5.557074E-05
3.987981E+03	2.185025E-03	5.613828E-05
3.997901E+03	2.211663E-03	5.669090E-05
4.007821E+03	2.238043E-03	5.723351E-05
4.017742E+03	2.264034E-03	5.776284E-05
4.027662E+03	2.289743E-03	5.828167E-05
4.037582E+03	2.315235E-03	5.879170E-05
4.047503E+03	2.340482E-03	5.929221E-05
4.057423E+03	2.365688E-03	5.978844E-05
4.067343E+03	2.390795E-03	6.027893E-05
4.077264E+03	2.416033E-03	6.076945E-05
4.087184E+03	2.441477E-03	6.126187E-05
4.097104E+03	2.467211E-03	6.175823E-05
4.107025E+03	2.493429E-03	6.226338E-05
4.116945E+03	2.520227E-03	6.277955E-05
4.126865E+03	2.547749E-03	6.331025E-05
4.136786E+03	2.576144E-03	6.385903E-05
4.146706E+03	2.605504E-03	6.442797E-05
4.156626E+03	2.636019E-03	6.502164E-05
4.166547E+03	2.667771E-03	6.564179E-05
4.176467E+03	2.700888E-03	6.629136E-05
4.186387E+03	2.735538E-03	6.697418E-05
4.196308E+03	2.771726E-03	6.769013E-05
4.206228E+03	2.809656E-03	6.844385E-05
4.216149E+03	2.849360E-03	6.923582E-05
4.226069E+03	2.890967E-03	7.006883E-05
4.235989E+03	2.934488E-03	7.094280E-05
4.245910E+03	2.979977E-03	7.185865E-05
4.255830E+03	3.027526E-03	7.281824E-05
4.265750E+03	3.077164E-03	7.382190E-05
4.275671E+03	3.128854E-03	7.486835E-05
4.285591E+03	3.182707E-03	7.595986E-05
4.295511E+03	3.238658E-03	7.709443E-05
4.305432E+03	3.296733E-03	7.827237E-05
4.315352E+03	3.356833E-03	7.949085E-05
4.325272E+03	3.418952E-03	8.074942E-05
4.335193E+03	3.483066E-03	8.204713E-05
4.345113E+03	3.548965E-03	8.337866E-05
4.355033E+03	3.616653E-03	8.474375E-05
4.364954E+03	3.686074E-03	8.614082E-05
4.374874E+03	3.757404E-03	8.757361E-05
4.384794E+03	3.830696E-03	8.904300E-05
4.394715E+03	3.905982E-03	9.054939E-05
4.404635E+03	3.983454E-03	9.209685E-05
4.414556E+03	4.063151E-03	9.368586E-05
4.424476E+03	4.144941E-03	9.531299E-05
4.434396E+03	4.228768E-03	9.697657E-05
4.444317E+03	4.314645E-03	9.867652E-05
4.454237E+03	4.402271E-03	1.004056E-04
4.464157E+03	4.491400E-03	1.021578E-04
4.474078E+03	4.581788E-03	1.039273E-04
4.483998E+03	4.673044E-03	1.057051E-04
4.493918E+03	4.764570E-03	1.074774E-04
4.503839E+03	4.855896E-03	1.092338E-04
4.513759E+03	4.946348E-03	1.109589E-04
4.523679E+03	5.035331E-03	1.126398E-04
4.533600E+03	5.122004E-03	1.142578E-04
4.543520E+03	5.205704E-03	1.157987E-04
4.553440E+03	5.285707E-03	1.172470E-04
4.563361E+03	5.361239E-03	1.185863E-04
4.573281E+03	5.431583E-03	1.198014E-04
4.583201E+03	5.496245E-03	1.208826E-04
4.593122E+03	5.554696E-03	1.218193E-04
4.603042E+03	5.606606E-03	1.226055E-04
4.612963E+03	5.651717E-03	1.232367E-04
4.622883E+03	5.690144E-03	1.237168E-04
4.632803E+03	5.721779E-03	1.240446E-04
4.642724E+03	5.747031E-03	1.242303E-04
4.652644E+03	5.766209E-03	1.242817E-04
4.662564E+03	5.779809E-03	1.242107E-04
4.672485E+03	5.788409E-03	1.240307E-04
4.682405E+03	5.792582E-03	1.237548E-04
4.692325E+03	5.793087E-03	1.234002E-04
4.702246E+03	5.790490E-03	1.229794E-04
4.712166E+03	5.785580E-03	1.225099E-04
4.722086E+03	5.779057E-03	1.220068E-04
4.732007E+03	5.771463E-03	1.214818E-04
4.741927E+03	5.763437E-03	1.209487E-04
4.751847E+03	5.755565E-03	1.204196E-04
4.761768E+03	5.748304E-03	1.199042E-04
4.771688E+03	5.742174E-03	1.194132E-04
4.781608E+03	5.737544E-03	1.189540E-04
4.791529E+03	5.734770E-03	1.185336E-04
4.801449E+03	5.733990E-03	1.181547E-04
4.811370E+03	5.735474E-03	1.178223E-04
4.821290E+03	5.739150E-03	1.175346E-04
4.831210E+03	5.745226E-03	1.172955E-04
4.841131E+03	5.753528E-03	1.171009E-04
4.851051E+03	5.764103E-03	1.169514E-04
4.860971E+03	5.776762E-03	1.168428E-04
4.870892E+03	5.791350E-03	1.167715E-04
4.880812E+03	5.807745E-03	1.167348E-04
4.890732E+03	5.825670E-03	1.167269E-04
4.900653E+03	5.844961E-03	1.167440E-04
4.910573E+03	5.865393E-03	1.167817E-04
4.920493E+03	5.886771E-03	1.168357E-04
4.930414E+03	5.908950E-03	1.169030E-04
4.940334E+03	5.931869E-03	1.169825E-04
4.950254E+03	5.955566E-03	1.170746E-04
4.960175E+03	5.980265E-03	1.171836E-04
4.970095E+03	6.006180E-03	1.173137E-04
4.980015E+03	6.033781E-03	1.174736E-04
4.989936E+03	6.063508E-03	1.176718E-04
4.999856E+03	6.096012E-03	1.179204E-04
5.009777E+03	6.131938E-03	1.182314E-04
5.019697E+03	6.171953E-03	1.186170E-04
5.029617E+03	6.216719E-03	1.190892E-04
5.039538E+03	6.266881E-03	1.196594E-04
5.049458E+03	6.323026E-03	1.203379E-04
5.059378E+03	6.385753E-03	1.211350E-04
5.069299E+03	6.455518E-03	1.220581E-04
5.079219E+03	6.532639E-03	1.231120E-04
5.089139E+03	6.617483E-03	1.243024E-04
5.099060E+03	6.710284E-03	1.256321E-04
5.108980E+03	6.811204E-03	1.271029E-04
5.118900E+03	6.920265E-03	1.287139E-04
5.128821E+03	7.037634E-03	1.304665E-04
5.138741E+03	7.163186E-03	1.323573E-04
5.148661E+03	7.296789E-03	1.343824E-04
5.158582E+03	7.438294E-03	1.365377E-04
5.168502E+03	7.587302E-03	1.388146E-04
5.178422E+03	7.743379E-03	1.412040E-04
5.188343E+03	7.906062E-03	1.436964E-04
5.198263E+03	8.074607E-03	1.462773E-04
5.208183E+03	8.248314E-03	1.489331E-04
5.218104E+03	8.426188E-03	1.516454E-04
5.228024E+03	8.607284E-03	1.543966E-04
5.237945E+03	8.790453E-03	1.571657E-04
5.247865E+03	8.974444E-03	1.599305E-04
5.257785E+03	9.157816E-03	1.626653E-04
5.267706E+03	9.339250E-03	1.653472E-04
5.277626E+03	9.517194E-03	1.679495E-04
5.287546E+03	9.690271E-03	1.704487E-04
5.297467E+03	9.857038E-03	1.728207E-04
5.307387E+03	1.001611E-02	1.750427E-04
5.317307E+03	1.016612E-02	1.770922E-04
5.327228E+03	1.030603E-02	1.789532E-04
5.337148E+03	1.043490E-02	1.806115E-04
5.347068E+03	1.055201E-02	1.820566E-04
5.356989E+03	1.065676E-02	1.832804E-04
5.366909E+03	1.074894E-02	1.842817E-04
5.376829E+03	1.082832E-02	1.850588E-04
5.386750E+03	1.089500E-02	1.856155E-04
5.396670E+03	1.094904E-02	1.859554E-04
5.406590E+03	1.099053E-02	1.860821E-04
5.416511E+03	1.101948E-02	1.859978E-04
5.426431E+03	1.103623E-02	1.857106E-04
5.436352E+03	1.104076E-02	1.852222E-04
5.446272E+03	1.103366E-02	1.845443E-04
5.456192E+03	1.101464E-02	1.836740E-04
5.466113E+03	1.098168E-02	1.825796E-04
5.476033E+03	1.093279E-02	1.812305E-04
5.485953E+03	1.086672E-02	1.796082E-04
5.495874E+03	1.078306E-02	1.777079E-04
5.505794E+03	1.068227E-02	1.755399E-04
5.515714E+03	1.056537E-02	1.731229E-04
5.525635E+03	1.043415E-02	1.704880E-04
5.535555E+03	1.029081E-02	1.676729E-04
5.545475E+03	1.013820E-02	1.647254E-04
5.555396E+03	9.979124E-03	1.616918E-04
5.565316E+03	9.816488E-03	1.586195E-04
5.575236E+03	9.653523E-03	1.555608E-04
5.585157E+03	9.493126E-03	1.525620E-04
5.595077E+03	9.338227E-03	1.496695E-04
5.604997E+03	9.191769E-03	1.469292E-04
5.614918E+03	9.056322E-03	1.443808E-04
5.624838E+03	8.934702E-03	1.420675E-04
5.634759E+03	8.829380E-03	1.400264E-04
5.644679E+03	8.742561E-03	1.382902E-04
5.654599E+03	8.676322E-03	1.368893E-04
5.664520E+03	8.632589E-03	1.358513E-04
5.674440E+03	8.612856E-03	1.351967E-04
5.684360E+03	8.618532E-03	1.349447E-04
5.694281E+03	8.650589E-03	1.351075E-04
5.704201E+03	8.709897E-03	1.356953E-04
5.714121E+03	8.796947E-03	1.367128E-04
5.724042E+03	8.911810E-03	1.381577E-04
5.733962E+03	9.054363E-03	1.400252E-04
5.743882E+03	9.223882E-03	1.423009E-04
5.753803E+03	9.419336E-03	1.449661E-04
5.763723E+03	9.639080E-03	1.479927E-04
5.773643E+03	9.880817E-03	1.513431E-04
5.783564E+03	1.014180E-02	1.549729E-04
5.793484E+03	1.041884E-02	1.588319E-04
5.803404E+03	1.070822E-02	1.628617E-04
5.813325E+03	1.100573E-02	1.669976E-04
5.823245E+03	1.130704E-02	1.711732E-04
5.833166E+03	1.160768E-02	1.753208E-04
5.843086E+03	1.190334E-02	1.793758E-04
5.853006E+03	1.218951E-02	1.832713E-04
5.862927E+03	1.246246E-02	1.869521E-04
5.872847E+03	1.271829E-02	1.903617E-04
5.882767E+03	1.295394E-02	1.934562E-04
5.892688E+03	1.316668E-02	1.961971E-04
5.902608E+03	1.335419E-02	1.985524E-04
5.912528E+03	1.351498E-02	2.005024E-04
5.922449E+03	1.364777E-02	2.020310E-04
5.932369E+03	1.375234E-02	2.031379E-04
5.942289E+03	1.382906E-02	2.038311E-04
5.952210E+03	1.387898E-02	2.041289E-04
5.962130E+03	1.390349E-02	2.040543E-04
5.972050E+03	1.390512E-02	2.036466E-04
5.981971E+03	1.388615E-02	2.029414E-04
5.991891E+03	1.384985E-02	2.019882E-04
6.001811E+03	1.379929E-02	2.008333E-04
6.011732E+03	1.373743E-02	1.995211E-04
6.021652E+03	1.366758E-02	1.981004E-04
6.031573E+03	1.359258E-02	1.966129E-04
6.041493E+03	1.351502E-02	1.950964E-04
6.051413E+03	1.343718E-02	1.935842E-04
6.061334E+03	1.336114E-02	1.921061E-04
6.071254E+03	1.328850E-02	1.906847E-04
6.081174E+03	1.322035E-02	1.893355E-04
6.091095E+03	1.315782E-02	1.880743E-04
6.101015E+03	1.310116E-02	1.869040E-04
6.110935E+03	1.305075E-02	1.858297E-04
6.120856E+03	1.300637E-02	1.848477E-04
6.130776E+03	1.296743E-02	1.839492E-04
6.140696E+03	1.293328E-02	1.831246E-04
6.150617E+03	1.290285E-02	1.823583E-04
6.160537E+03	1.287486E-02	1.816322E-04
6.170457E+03	1.284796E-02	1.809269E-04
6.180378E+03	1.282095E-02	1.802258E-04
6.190298E+03	1.279267E-02	1.795125E-04
6.200218E+03	1.276247E-02	1.787782E-04
6.210139E+03	1.272982E-02	1.780154E-04
6.220059E+03	1.269468E-02	1.772240E-04
6.229979E+03	1.265743E-02	1.764095E-04
6.239900E+03	1.261885E-02	1.755829E-04
6.249820E+03	1.257994E-02	1.747583E-04
6.259741E+03	1.254212E-02	1.739553E-04
6.269661E+03	1.250700E-02	1.731963E-04
6.279581E+03	1.247618E-02	1.725035E-04
6.289502E+03	1.245157E-02	1.719026E-04
6.299422E+03	1.243444E-02	1.714112E-04
6.309342E+03	1.242660E-02	1.710537E-04
6.319263E+03	1.242919E-02	1.708451E-04
6.329183E+03	1.244286E-02	1.707941E-04
6.339103E+03	1.246827E-02	1.709092E-04
6.349024E+03	1.250537E-02	1.711890E-04
6.358944E+03	1.255376E-02	1.716279E-04
6.368864E+03	1.261236E-02	1.722102E-04
6.378785E+03	1.267991E-02	1.729189E-04
6.388705E+03	1.275487E-02	1.737324E-04
6.398625E+03	1.283516E-02	1.746226E-04
6.408546E+03	1.291876E-02	1.755616E-04
6.418466E+03	1.300347E-02	1.765197E-04
6.428386E+03	1.308754E-02	1.774726E-04
6.438307E+03	1.316926E-02	1.783974E-04
6.448227E+03	1.324716E-02	1.792737E-04
6.458148E+03	1.332085E-02	1.800963E-04
6.468068E+03	1.338948E-02	1.808538E-04
6.477988E+03	1.345320E-02	1.815479E-04
6.487909E+03	1.351070E-02	1.821612E-04
6.497829E+03	1.355950E-02	1.826599E-04
6.507749E+03	1.359694E-02	1.830084E-04
6.517670E+03	1.362038E-02	1.831714E-04
6.527590E+03	1.362819E-02	1.831270E-04
6.537510E+03	1.361887E-02	1.828552E-04
6.547431E+03	1.359125E-02	1.823408E-04
6.557351E+03	1.354504E-02	1.815800E-04
6.567271E+03	1.348017E-02	1.805720E-04
6.577192E+03	1.339740E-02	1.793275E-04
6.587112E+03	1.329782E-02	1.778611E-04
6.597032E+03	1.318275E-02	1.761907E-04
6.606953E+03	1.305429E-02	1.743444E-04
6.616873E+03	1.291427E-02	1.723469E-04
6.626793E+03	1.276481E-02	1.702263E-04
6.636714E+03	1.260817E-02	1.680129E-04
6.646634E+03	1.244626E-02	1.657321E-04
6.656555E+03	1.228117E-02	1.634116E-04
6.666475E+03	1.211465E-02	1.610744E-04
6.676395E+03	1.194812E-02	1.587393E-04
6.686316E+03	1.178322E-02	1.564281E-04
6.696236E+03	1.162102E-02	1.541543E-04
6.706156E+03	1.146265E-02	1.519332E-04
6.716077E+03	1.130885E-02	1.497741E-04
6.725997E+03	1.116051E-02	1.476883E-04
6.735917E+03	1.101817E-02	1.456828E-04
6.745838E+03	1.088267E-02	1.437687E-04
6.755758E+03	1.075434E-02	1.419495E-04
6.765678E+03	1.063398E-02	1.402358E-04
6.775599E+03	1.052201E-02	1.386326E-04
6.785519E+03	1.041897E-02	1.371468E-04
6.795439E+03	1.032541E-02	1.357850E-04
6.805360E+03	1.024196E-02	1.345553E-04
6.815280E+03	1.016896E-02	1.334614E-04
6.825200E+03	1.010693E-02	1.325100E-04
6.835121E+03	1.005619E-02	1.317045E-04
6.845041E+03	1.001680E-02	1.310453E-04
6.854962E+03	9.988946E-03	1.305340E-04
6.864882E+03	9.972397E-03	1.301673E-04
6.874802E+03	9.967151E-03	1.299444E-04
6.884723E+03	9.972546E-03	1.298561E-04
6.894643E+03	9.988029E-03	1.298945E-04
6.904563E+03	1.001320E-02	1.300539E-04
6.914484E+03	1.004708E-02	1.303209E-04
6.924404E+03	1.008904E-02	1.306869E-04
6.934324E+03	1.013834E-02	1.311416E-04
6.944245E+03	1.019413E-02	1.316736E-04
6.954165E+03	1.025607E-02	1.322777E-04
6.964085E+03	1.032319E-02	1.329413E-04
6.974006E+03	1.039547E-02	1.336634E-04
6.983926E+03	1.047216E-02	1.344341E-04
6.993846E+03	1.055348E-02	1.352554E-04
7.003767E+03	1.063888E-02	1.361201E-04
7.013687E+03	1.072861E-02	1.370309E-04
7.023607E+03	1.082256E-02	1.379859E-04
7.033528E+03	1.092081E-02	1.389856E-04
7.043448E+03	1.102345E-02	1.400307E-04
7.053369E+03	1.113056E-02	1.411218E-04
7.063289E+03	1.124222E-02	1.422592E-04
7.073209E+03	1.135828E-02	1.434405E-04
7.083130E+03	1.147865E-02	1.446641E-04
7.093050E+03	1.160332E-02	1.459295E-04
7.102970E+03	1.173171E-02	1.472287E-04
7.112891E+03	1.186374E-02	1.485601E-04
7.122811E+03	1.199842E-02	1.499111E-04
7.132731E+03	1.213560E-02	1.512792E-04
7.142652E+03	1.227408E-02	1.526491E-04
7.152572E+03	1.241317E-02	1.540121E-04
7.162492E+03	1.255180E-02	1.553545E-04
7.172413E+03	1.268912E-02	1.566660E-04
7.182333E+03	1.282388E-02	1.579310E-04
7.192253E+03	1.295461E-02	1.591315E-04
7.202174E+03	1.308044E-02	1.602572E-04
7.212094E+03	1.319998E-02	1.612914E-04
7.222014E+03	1.331182E-02	1.622176E-04
7.231935E+03	1.341458E-02	1.630197E-04
7.241855E+03	1.350729E-02	1.636868E-04
7.251775E+03	1.358872E-02	1.642051E-04
7.261696E+03	1.365782E-02	1.645631E-04
7.271616E+03	1.371365E-02	1.647510E-04
7.281537E+03	1.375588E-02	1.647663E-04
7.291457E+03	1.378384E-02	1.646025E-04
7.301377E+03	1.379727E-02	1.642583E-04
7.311298E+03	1.379646E-02	1.637390E-04
7.321218E+03	1.378160E-02	1.630485E-04
7.331138E+03	1.375284E-02	1.621905E-04
7.341059E+03	1.371108E-02	1.611775E-04
7.350979E+03	1.365684E-02	1.600171E-04
7.360899E+03	1.359133E-02	1.587253E-04
7.370820E+03	1.351515E-02	1.573109E-04
7.380740E+03	1.343014E-02	1.557967E-04
7.390660E+03	1.333734E-02	1.541962E-04
7.400581E+03	1.323827E-02	1.525280E-04
7.410501E+03	1.313506E-02	1.508178E-04
7.420421E+03	1.302903E-02	1.490817E-04
7.430342E+03	1.292249E-02	1.473467E-04
7.440262E+03	1.281690E-02	1.456299E-04
7.450182E+03	1.271468E-02	1.439588E-04
7.460103E+03	1.261756E-02	1.423531E-04
7.470023E+03	1.252782E-02	1.408381E-04
7.479944E+03	1.244724E-02	1.394334E-04
7.489864E+03	1.237792E-02	1.381616E-04
7.499784E+03	1.232210E-02	1.370468E-04
7.509705E+03	1.228127E-02	1.361043E-04
7.519625E+03	1.225751E-02	1.353556E-04
7.529545E+03	1.225259E-02	1.348188E-04
7.539466E+03	1.226760E-02	1.345040E-04
7.549386E+03	1.230424E-02	1.344280E-04
7.559306E+03	1.236314E-02	1.345957E-04
7.569227E+03	1.244530E-02	1.350159E-04
7.579147E+03	1.255107E-02	1.356905E-04
7.589067E+03	1.268024E-02	1.366152E-04
7.598988E+03	1.283256E-02	1.377856E-04
7.608908E+03	1.300717E-02	1.391908E-04
7.618828E+03	1.320276E-02	1.408153E-04
7.628749E+03	1.341781E-02	1.426419E-04
7.638669E+03	1.364998E-02	1.446448E-04
7.648589E+03	1.389678E-02	1.467972E-04
7.658510E+03	1.415552E-02	1.490709E-04
7.668430E+03	1.442288E-02	1.514311E-04
7.678351E+03	1.469546E-02	1.538430E-04
7.688271E+03	1.496992E-02	1.562731E-04
7.698191E+03	1.524265E-02	1.586851E-04
