#wls	flux	fluxerr
1.587256E+03	5.418031E-05	2.966674E-06
1.626937E+03	5.728656E-05	3.133252E-06
1.666619E+03	5.967601E-05	3.260198E-06
1.706300E+03	6.123405E-05	3.341376E-06
1.745982E+03	6.182535E-05	3.369566E-06
1.785663E+03	6.121348E-05	3.332081E-06
1.825344E+03	5.913949E-05	3.215090E-06
1.865026E+03	5.544046E-05	3.010060E-06
1.904707E+03	5.013050E-05	2.718119E-06
1.944389E+03	4.352263E-05	2.356593E-06
1.984070E+03	3.632776E-05	1.964246E-06
2.023751E+03	2.957620E-05	1.596878E-06
2.063433E+03	2.429428E-05	1.309753E-06
2.103114E+03	2.118341E-05	1.140304E-06
2.142795E+03	2.053805E-05	1.103843E-06
2.182477E+03	2.249919E-05	1.207316E-06
2.222158E+03	2.722565E-05	1.458549E-06
2.261840E+03	3.484708E-05	1.863717E-06
2.301521E+03	4.533480E-05	2.420461E-06
2.341202E+03	5.841076E-05	3.113104E-06
2.380884E+03	7.364203E-05	3.917798E-06
2.420565E+03	9.052791E-05	4.807232E-06
2.460247E+03	1.086277E-04	5.757445E-06
2.499928E+03	1.276001E-04	6.749899E-06
2.539609E+03	1.472090E-04	7.771720E-06
2.579291E+03	1.673070E-04	8.814804E-06
2.618972E+03	1.878132E-04	9.874596E-06
2.658654E+03	2.086924E-04	1.094897E-05
2.698335E+03	2.299046E-04	1.203554E-05
2.738016E+03	2.514898E-04	1.313614E-05
2.777698E+03	2.734671E-04	1.425145E-05
2.817379E+03	2.958156E-04	1.538009E-05
2.857061E+03	3.185898E-04	1.652456E-05
2.896742E+03	3.418001E-04	1.768507E-05
2.936423E+03	3.654951E-04	1.886379E-05
2.976105E+03	3.897682E-04	2.006512E-05
2.986025E+03	3.959432E-04	2.036978E-05
2.995946E+03	4.021760E-04	2.067694E-05
3.005866E+03	4.084151E-04	2.098393E-05
3.015786E+03	4.147920E-04	2.129752E-05
3.025707E+03	4.213074E-04	2.161770E-05
3.035627E+03	4.281241E-04	2.195283E-05
3.045547E+03	4.352152E-04	2.230147E-05
3.055468E+03	4.425551E-04	2.266230E-05
3.065388E+03	4.501201E-04	2.303406E-05
3.075308E+03	4.579428E-04	2.341841E-05
3.085229E+03	4.658919E-04	2.380858E-05
3.095149E+03	4.740584E-04	2.420923E-05
3.105069E+03	4.823677E-04	2.461650E-05
3.114990E+03	4.908014E-04	2.502946E-05
3.124910E+03	4.994007E-04	2.545017E-05
3.134830E+03	5.080917E-04	2.587485E-05
3.144751E+03	5.169184E-04	2.630572E-05
3.154671E+03	5.258672E-04	2.674208E-05
3.164591E+03	5.348651E-04	2.718020E-05
3.174512E+03	5.439596E-04	2.762248E-05
3.184432E+03	5.532011E-04	2.807146E-05
3.194353E+03	5.624558E-04	2.852033E-05
3.204273E+03	5.717746E-04	2.897168E-05
3.214193E+03	5.812112E-04	2.942820E-05
3.224114E+03	5.906939E-04	2.988625E-05
3.234034E+03	6.002133E-04	3.034534E-05
3.243954E+03	6.098262E-04	3.080835E-05
3.253875E+03	6.194607E-04	3.127161E-05
3.263795E+03	6.292393E-04	3.174131E-05
3.273715E+03	6.390259E-04	3.221055E-05
3.283636E+03	6.489446E-04	3.268559E-05
3.293556E+03	6.588581E-04	3.315950E-05
3.303476E+03	6.688934E-04	3.363865E-05
3.313397E+03	6.789774E-04	3.411935E-05
3.323317E+03	6.891729E-04	3.460476E-05
3.333237E+03	6.994749E-04	3.509459E-05
3.343158E+03	7.098783E-04	3.558858E-05
3.353078E+03	7.203777E-04	3.608642E-05
3.362998E+03	7.309696E-04	3.658795E-05
3.372919E+03	7.416475E-04	3.709281E-05
3.382839E+03	7.524763E-04	3.760423E-05
3.392760E+03	7.634501E-04	3.812188E-05
3.402680E+03	7.745658E-04	3.864561E-05
3.412600E+03	7.858170E-04	3.917506E-05
3.422521E+03	7.971995E-04	3.970999E-05
3.432441E+03	8.087777E-04	4.025360E-05
3.442361E+03	8.204771E-04	4.080215E-05
3.452282E+03	8.323629E-04	4.135886E-05
3.462202E+03	8.444298E-04	4.192343E-05
3.472122E+03	8.566736E-04	4.249562E-05
3.482043E+03	8.691594E-04	4.307865E-05
3.491963E+03	8.818137E-04	4.366883E-05
3.501883E+03	8.947021E-04	4.426938E-05
3.511804E+03	9.078206E-04	4.488005E-05
3.521724E+03	9.211678E-04	4.550076E-05
3.531644E+03	9.347393E-04	4.613125E-05
3.541565E+03	9.485353E-04	4.677148E-05
3.551485E+03	9.626212E-04	4.742466E-05
3.561405E+03	9.769970E-04	4.809073E-05
3.571326E+03	9.916606E-04	4.876954E-05
3.581246E+03	1.006613E-03	4.946108E-05
3.591167E+03	1.021851E-03	5.016519E-05
3.601087E+03	1.037376E-03	5.088188E-05
3.611007E+03	1.053255E-03	5.161439E-05
3.620928E+03	1.069424E-03	5.235946E-05
3.630848E+03	1.085949E-03	5.312041E-05
3.640768E+03	1.102768E-03	5.389401E-05
3.650689E+03	1.120017E-03	5.468693E-05
3.660609E+03	1.137633E-03	5.549605E-05
3.670529E+03	1.155622E-03	5.632154E-05
3.680450E+03	1.173990E-03	5.716371E-05
3.690370E+03	1.192743E-03	5.802271E-05
3.700290E+03	1.211954E-03	5.890205E-05
3.710211E+03	1.231565E-03	5.979887E-05
3.720131E+03	1.251647E-03	6.071653E-05
3.730051E+03	1.272144E-03	6.165226E-05
3.739972E+03	1.293127E-03	6.260937E-05
3.749892E+03	1.314538E-03	6.358504E-05
3.759812E+03	1.336448E-03	6.458260E-05
3.769733E+03	1.358860E-03	6.560215E-05
3.779653E+03	1.381716E-03	6.664076E-05
3.789574E+03	1.405080E-03	6.770147E-05
3.799494E+03	1.428954E-03	6.878429E-05
3.809414E+03	1.453336E-03	6.988902E-05
3.819335E+03	1.478162E-03	7.101252E-05
3.829255E+03	1.503427E-03	7.215448E-05
3.839175E+03	1.529250E-03	7.332047E-05
3.849096E+03	1.555436E-03	7.450116E-05
3.859016E+03	1.582100E-03	7.570191E-05
3.868936E+03	1.609231E-03	7.692211E-05
3.878857E+03	1.636755E-03	7.815820E-05
3.888777E+03	1.664661E-03	7.940953E-05
3.898697E+03	1.692937E-03	8.067548E-05
3.908618E+03	1.721568E-03	8.195526E-05
3.918538E+03	1.750544E-03	8.324838E-05
3.928458E+03	1.779856E-03	8.455427E-05
3.938379E+03	1.809433E-03	8.586953E-05
3.948299E+03	1.839272E-03	8.719395E-05
3.958219E+03	1.869428E-03	8.853010E-05
3.968140E+03	1.899842E-03	8.987512E-05
3.978060E+03	1.930521E-03	9.122926E-05
3.987981E+03	1.961472E-03	9.259283E-05
3.997901E+03	1.992651E-03	9.396371E-05
4.007821E+03	2.024079E-03	9.534282E-05
4.017742E+03	2.055839E-03	9.673397E-05
4.027662E+03	2.087845E-03	9.813313E-05
4.037582E+03	2.120192E-03	9.954467E-05
4.047503E+03	2.152863E-03	1.009677E-04
4.057423E+03	2.185965E-03	1.024072E-04
4.067343E+03	2.219432E-03	1.038601E-04
4.077264E+03	2.253383E-03	1.053316E-04
4.087184E+03	2.287875E-03	1.068245E-04
4.097104E+03	2.322860E-03	1.083365E-04
4.107025E+03	2.358523E-03	1.098760E-04
4.116945E+03	2.394762E-03	1.114381E-04
4.126865E+03	2.431765E-03	1.130316E-04
4.136786E+03	2.469549E-03	1.146570E-04
4.146706E+03	2.508134E-03	1.163152E-04
4.156626E+03	2.547652E-03	1.180120E-04
4.166547E+03	2.588121E-03	1.197482E-04
4.176467E+03	2.629559E-03	1.215245E-04
4.186387E+03	2.672093E-03	1.233465E-04
4.196308E+03	2.715681E-03	1.252121E-04
4.206228E+03	2.760444E-03	1.271266E-04
4.216149E+03	2.806443E-03	1.290928E-04
4.226069E+03	2.853624E-03	1.311078E-04
4.235989E+03	2.902093E-03	1.331764E-04
4.245910E+03	2.951840E-03	1.352977E-04
4.255830E+03	3.002904E-03	1.374735E-04
4.265750E+03	3.055261E-03	1.397023E-04
4.275671E+03	3.108989E-03	1.419876E-04
4.285591E+03	3.163994E-03	1.443246E-04
4.295511E+03	3.220342E-03	1.467163E-04
4.305432E+03	3.277917E-03	1.491571E-04
4.315352E+03	3.336828E-03	1.516517E-04
4.325272E+03	3.396945E-03	1.541941E-04
4.335193E+03	3.458249E-03	1.567830E-04
4.345113E+03	3.520654E-03	1.594144E-04
4.355033E+03	3.584253E-03	1.620922E-04
4.364954E+03	3.648841E-03	1.648071E-04
4.374874E+03	3.714509E-03	1.675629E-04
4.384794E+03	3.781164E-03	1.703552E-04
4.394715E+03	3.848710E-03	1.731796E-04
4.404635E+03	3.917222E-03	1.760390E-04
4.414556E+03	3.986513E-03	1.789252E-04
4.424476E+03	4.056570E-03	1.818372E-04
4.434396E+03	4.127302E-03	1.847709E-04
4.444317E+03	4.198469E-03	1.877154E-04
4.454237E+03	4.269936E-03	1.906646E-04
4.464157E+03	4.341611E-03	1.936142E-04
4.474078E+03	4.413190E-03	1.965506E-04
4.483998E+03	4.484538E-03	1.994680E-04
4.493918E+03	4.555374E-03	2.023537E-04
4.503839E+03	4.625465E-03	2.051976E-04
4.513759E+03	4.694499E-03	2.079858E-04
4.523679E+03	4.762287E-03	2.107103E-04
4.533600E+03	4.828504E-03	2.133567E-04
4.543520E+03	4.892891E-03	2.159140E-04
4.553440E+03	4.955268E-03	2.183744E-04
4.563361E+03	5.015262E-03	2.207221E-04
4.573281E+03	5.072661E-03	2.229479E-04
4.583201E+03	5.127343E-03	2.250471E-04
4.593122E+03	5.179153E-03	2.270131E-04
4.603042E+03	5.227832E-03	2.288354E-04
4.612963E+03	5.273371E-03	2.305139E-04
4.622883E+03	5.315795E-03	2.320503E-04
4.632803E+03	5.354907E-03	2.334366E-04
4.642724E+03	5.390956E-03	2.346842E-04
4.652644E+03	5.423826E-03	2.357886E-04
4.662564E+03	5.453710E-03	2.367587E-04
4.672485E+03	5.480765E-03	2.376019E-04
4.682405E+03	5.505183E-03	2.383270E-04
4.692325E+03	5.527107E-03	2.389407E-04
4.702246E+03	5.546842E-03	2.394565E-04
4.712166E+03	5.564564E-03	2.398824E-04
4.722086E+03	5.580531E-03	2.402301E-04
4.732007E+03	5.594936E-03	2.405080E-04
4.741927E+03	5.608171E-03	2.407332E-04
4.751847E+03	5.620490E-03	2.409169E-04
4.761768E+03	5.632002E-03	2.410639E-04
4.771688E+03	5.643072E-03	2.411900E-04
4.781608E+03	5.653915E-03	2.413044E-04
4.791529E+03	5.664729E-03	2.414156E-04
4.801449E+03	5.675692E-03	2.415312E-04
4.811370E+03	5.687033E-03	2.416609E-04
4.821290E+03	5.698891E-03	2.418105E-04
4.831210E+03	5.711453E-03	2.419879E-04
4.841131E+03	5.724826E-03	2.421974E-04
4.851051E+03	5.739097E-03	2.424427E-04
4.860971E+03	5.754410E-03	2.427295E-04
4.870892E+03	5.770828E-03	2.430604E-04
4.880812E+03	5.788345E-03	2.434350E-04
4.890732E+03	5.807213E-03	2.438635E-04
4.900653E+03	5.827350E-03	2.443423E-04
4.910573E+03	5.848879E-03	2.448763E-04
4.920493E+03	5.871926E-03	2.454706E-04
4.930414E+03	5.896563E-03	2.461279E-04
4.940334E+03	5.922874E-03	2.468513E-04
4.950254E+03	5.950954E-03	2.476445E-04
4.960175E+03	5.980918E-03	2.485120E-04
4.970095E+03	6.012958E-03	2.494613E-04
4.980015E+03	6.047288E-03	2.505010E-04
4.989936E+03	6.083928E-03	2.516315E-04
4.999856E+03	6.123185E-03	2.528650E-04
5.009777E+03	6.165233E-03	2.542081E-04
5.019697E+03	6.210182E-03	2.556649E-04
5.029617E+03	6.258281E-03	2.572450E-04
5.039538E+03	6.309767E-03	2.589578E-04
5.049458E+03	6.364667E-03	2.608034E-04
5.059378E+03	6.423262E-03	2.627928E-04
5.069299E+03	6.485606E-03	2.649276E-04
5.079219E+03	6.551868E-03	2.672140E-04
5.089139E+03	6.622122E-03	2.696540E-04
5.099060E+03	6.696333E-03	2.722457E-04
5.108980E+03	6.774573E-03	2.749912E-04
5.118900E+03	6.856882E-03	2.778913E-04
5.128821E+03	6.943038E-03	2.809363E-04
5.138741E+03	7.032994E-03	2.841236E-04
5.148661E+03	7.126583E-03	2.874457E-04
5.158582E+03	7.223598E-03	2.908935E-04
5.168502E+03	7.323858E-03	2.944593E-04
5.178422E+03	7.426900E-03	2.981237E-04
5.188343E+03	7.532525E-03	3.018784E-04
5.198263E+03	7.640253E-03	3.057036E-04
5.208183E+03	7.749632E-03	3.095810E-04
5.218104E+03	7.860249E-03	3.134936E-04
5.228024E+03	7.971398E-03	3.174133E-04
5.237945E+03	8.082668E-03	3.213236E-04
5.247865E+03	8.193362E-03	3.251970E-04
5.257785E+03	8.302926E-03	3.290114E-04
5.267706E+03	8.410523E-03	3.327343E-04
5.277626E+03	8.515648E-03	3.363460E-04
5.287546E+03	8.617531E-03	3.398166E-04
5.297467E+03	8.715494E-03	3.431202E-04
5.307387E+03	8.808864E-03	3.462312E-04
5.317307E+03	8.896997E-03	3.491252E-04
5.327228E+03	8.979273E-03	3.517789E-04
5.337148E+03	9.055201E-03	3.541744E-04
5.347068E+03	9.124059E-03	3.562848E-04
5.356989E+03	9.185544E-03	3.580996E-04
5.366909E+03	9.239033E-03	3.595961E-04
5.376829E+03	9.284332E-03	3.607683E-04
5.386750E+03	9.321032E-03	3.616021E-04
5.396670E+03	9.348779E-03	3.620853E-04
5.406590E+03	9.367577E-03	3.622198E-04
5.416511E+03	9.377208E-03	3.619992E-04
5.426431E+03	9.377528E-03	3.614195E-04
5.436352E+03	9.368753E-03	3.604910E-04
5.446272E+03	9.350891E-03	3.592156E-04
5.456192E+03	9.324016E-03	3.575981E-04
5.466113E+03	9.288476E-03	3.556534E-04
5.476033E+03	9.244704E-03	3.533998E-04
5.485953E+03	9.193064E-03	3.508526E-04
5.495874E+03	9.134238E-03	3.480393E-04
5.505794E+03	9.068760E-03	3.449815E-04
5.515714E+03	8.997661E-03	3.417196E-04
5.525635E+03	8.921817E-03	3.382879E-04
5.535555E+03	8.842308E-03	3.347279E-04
5.545475E+03	8.760384E-03	3.310878E-04
5.555396E+03	8.677192E-03	3.274111E-04
5.565316E+03	8.594099E-03	3.237496E-04
5.575236E+03	8.512324E-03	3.201490E-04
5.585157E+03	8.433173E-03	3.166582E-04
5.595077E+03	8.358017E-03	3.133279E-04
5.604997E+03	8.288022E-03	3.102012E-04
5.614918E+03	8.224388E-03	3.073219E-04
5.624838E+03	8.168241E-03	3.047307E-04
5.634759E+03	8.120628E-03	3.024655E-04
5.644679E+03	8.082583E-03	3.005630E-04
5.654599E+03	8.054796E-03	2.990471E-04
5.664520E+03	8.038166E-03	2.979493E-04
5.674440E+03	8.033152E-03	2.972847E-04
5.684360E+03	8.040323E-03	2.970721E-04
5.694281E+03	8.060035E-03	2.973226E-04
5.704201E+03	8.092431E-03	2.980392E-04
5.714121E+03	8.137658E-03	2.992251E-04
5.724042E+03	8.195561E-03	3.008724E-04
5.733962E+03	8.265991E-03	3.029734E-04
5.743882E+03	8.348410E-03	3.055063E-04
5.753803E+03	8.442444E-03	3.084555E-04
5.763723E+03	8.547336E-03	3.117913E-04
5.773643E+03	8.662183E-03	3.154789E-04
5.783564E+03	8.786115E-03	3.194853E-04
5.793484E+03	8.918063E-03	3.237700E-04
5.803404E+03	9.056771E-03	3.282863E-04
5.813325E+03	9.200981E-03	3.329876E-04
5.823245E+03	9.349374E-03	3.378253E-04
5.833166E+03	9.500506E-03	3.427469E-04
5.843086E+03	9.653195E-03	3.477093E-04
5.853006E+03	9.805904E-03	3.526573E-04
5.862927E+03	9.957327E-03	3.575439E-04
5.872847E+03	1.010622E-02	3.623249E-04
5.882767E+03	1.025143E-02	3.669599E-04
5.892688E+03	1.039192E-02	3.714123E-04
5.902608E+03	1.052669E-02	3.756472E-04
5.912528E+03	1.065497E-02	3.796385E-04
5.922449E+03	1.077626E-02	3.833695E-04
5.932369E+03	1.088990E-02	3.868185E-04
5.942289E+03	1.099573E-02	3.899803E-04
5.952210E+03	1.109361E-02	3.928523E-04
5.962130E+03	1.118337E-02	3.954294E-04
5.972050E+03	1.126539E-02	3.977265E-04
5.981971E+03	1.133986E-02	3.997517E-04
5.991891E+03	1.140718E-02	4.015204E-04
6.001811E+03	1.146784E-02	4.030511E-04
6.011732E+03	1.152227E-02	4.043602E-04
6.021652E+03	1.157129E-02	4.054773E-04
6.031573E+03	1.161540E-02	4.064208E-04
6.041493E+03	1.165509E-02	4.072088E-04
6.051413E+03	1.169116E-02	4.078702E-04
6.061334E+03	1.172416E-02	4.084247E-04
6.071254E+03	1.175446E-02	4.088859E-04
6.081174E+03	1.178273E-02	4.092770E-04
6.091095E+03	1.180930E-02	4.096106E-04
6.101015E+03	1.183435E-02	4.098928E-04
6.110935E+03	1.185830E-02	4.101385E-04
6.120856E+03	1.188115E-02	4.103482E-04
6.130776E+03	1.190284E-02	4.105200E-04
6.140696E+03	1.192324E-02	4.106498E-04
6.150617E+03	1.194252E-02	4.107436E-04
6.160537E+03	1.196036E-02	4.107907E-04
6.170457E+03	1.197687E-02	4.107952E-04
6.180378E+03	1.199182E-02	4.107494E-04
6.190298E+03	1.200510E-02	4.106500E-04
6.200218E+03	1.201639E-02	4.104867E-04
6.210139E+03	1.202589E-02	4.102663E-04
6.220059E+03	1.203337E-02	4.099813E-04
6.229979E+03	1.203901E-02	4.096384E-04
6.239900E+03	1.204292E-02	4.092417E-04
6.249820E+03	1.204515E-02	4.087931E-04
6.259741E+03	1.204591E-02	4.082998E-04
6.269661E+03	1.204566E-02	4.077785E-04
6.279581E+03	1.204455E-02	4.072338E-04
6.289502E+03	1.204284E-02	4.066747E-04
6.299422E+03	1.204088E-02	4.061136E-04
6.309342E+03	1.203889E-02	4.055577E-04
6.319263E+03	1.203703E-02	4.050125E-04
6.329183E+03	1.203553E-02	4.044861E-04
6.339103E+03	1.203431E-02	4.039753E-04
6.349024E+03	1.203357E-02	4.034875E-04
6.358944E+03	1.203322E-02	4.030194E-04
6.368864E+03	1.203296E-02	4.025612E-04
6.378785E+03	1.203269E-02	4.021099E-04
6.388705E+03	1.203228E-02	4.016605E-04
6.398625E+03	1.203129E-02	4.011993E-04
6.408546E+03	1.202943E-02	4.007160E-04
6.418466E+03	1.202637E-02	4.002005E-04
6.428386E+03	1.202195E-02	3.996469E-04
6.438307E+03	1.201576E-02	3.990417E-04
6.448227E+03	1.200751E-02	3.983758E-04
6.458148E+03	1.199721E-02	3.976490E-04
6.468068E+03	1.198455E-02	3.968515E-04
6.477988E+03	1.196918E-02	3.959716E-04
6.487909E+03	1.195085E-02	3.950009E-04
6.497829E+03	1.192888E-02	3.939180E-04
6.507749E+03	1.190257E-02	3.926990E-04
6.517670E+03	1.187121E-02	3.913213E-04
6.527590E+03	1.183431E-02	3.897688E-04
6.537510E+03	1.179147E-02	3.880288E-04
6.547431E+03	1.174219E-02	3.860849E-04
6.557351E+03	1.168622E-02	3.839297E-04
6.567271E+03	1.162376E-02	3.815696E-04
6.577192E+03	1.155474E-02	3.790031E-04
6.587112E+03	1.147952E-02	3.762422E-04
6.597032E+03	1.139847E-02	3.732991E-04
6.606953E+03	1.131193E-02	3.701853E-04
6.616873E+03	1.122073E-02	3.669282E-04
6.626793E+03	1.112539E-02	3.635448E-04
6.636714E+03	1.102674E-02	3.600625E-04
6.646634E+03	1.092552E-02	3.565053E-04
6.656555E+03	1.082249E-02	3.528981E-04
6.666475E+03	1.071841E-02	3.492652E-04
6.676395E+03	1.061402E-02	3.456313E-04
6.686316E+03	1.051007E-02	3.420197E-04
6.696236E+03	1.040735E-02	3.384566E-04
6.706156E+03	1.030653E-02	3.349633E-04
6.716077E+03	1.020823E-02	3.315597E-04
6.725997E+03	1.011292E-02	3.282604E-04
6.735917E+03	1.002135E-02	3.250899E-04
6.745838E+03	9.933788E-03	3.220562E-04
6.755758E+03	9.850912E-03	3.191810E-04
6.765678E+03	9.772899E-03	3.164694E-04
6.775599E+03	9.700331E-03	3.139402E-04
6.785519E+03	9.633531E-03	3.116031E-04
6.795439E+03	9.572546E-03	3.094593E-04
6.805360E+03	9.517840E-03	3.075234E-04
6.815280E+03	9.469495E-03	3.057977E-04
6.825200E+03	9.427768E-03	3.042899E-04
6.835121E+03	9.392661E-03	3.029998E-04
6.845041E+03	9.364247E-03	3.019293E-04
6.854962E+03	9.342661E-03	3.010824E-04
6.864882E+03	9.327788E-03	3.004548E-04
6.874802E+03	9.319690E-03	3.000484E-04
6.884723E+03	9.318174E-03	2.998566E-04
6.894643E+03	9.323131E-03	2.998754E-04
6.904563E+03	9.334529E-03	3.001035E-04
6.914484E+03	9.352097E-03	3.005320E-04
6.924404E+03	9.375646E-03	3.011544E-04
6.934324E+03	9.404974E-03	3.019641E-04
6.944245E+03	9.439868E-03	3.029539E-04
6.954165E+03	9.480096E-03	3.041162E-04
6.964085E+03	9.525425E-03	3.054433E-04
6.974006E+03	9.575616E-03	3.069273E-04
6.983926E+03	9.630425E-03	3.085603E-04
6.993846E+03	9.689483E-03	3.103303E-04
7.003767E+03	9.752652E-03	3.122328E-04
7.013687E+03	9.819548E-03	3.142553E-04
7.023607E+03	9.889904E-03	3.163892E-04
7.033528E+03	9.963563E-03	3.186294E-04
7.043448E+03	1.003999E-02	3.209587E-04
7.053369E+03	1.011899E-02	3.233711E-04
7.063289E+03	1.020024E-02	3.258561E-04
7.073209E+03	1.028329E-02	3.283990E-04
7.083130E+03	1.036776E-02	3.309878E-04
7.093050E+03	1.045326E-02	3.336106E-04
7.102970E+03	1.053939E-02	3.362542E-04
7.112891E+03	1.062558E-02	3.389007E-04
7.122811E+03	1.071153E-02	3.415401E-04
7.132731E+03	1.079649E-02	3.441493E-04
7.142652E+03	1.088025E-02	3.467214E-04
7.152572E+03	1.096193E-02	3.492282E-04
7.162492E+03	1.104128E-02	3.516627E-04
7.172413E+03	1.111770E-02	3.540049E-04
7.182333E+03	1.119068E-02	3.562398E-04
7.192253E+03	1.125964E-02	3.583482E-04
7.202174E+03	1.132398E-02	3.603118E-04
7.212094E+03	1.138359E-02	3.621268E-04
7.222014E+03	1.143780E-02	3.637726E-04
7.231935E+03	1.148616E-02	3.652348E-04
7.241855E+03	1.152869E-02	3.665145E-04
7.251775E+03	1.156478E-02	3.675920E-04
7.261696E+03	1.159457E-02	3.684727E-04
7.271616E+03	1.161774E-02	3.691459E-04
7.281537E+03	1.163446E-02	3.696177E-04
7.291457E+03	1.164471E-02	3.698872E-04
7.301377E+03	1.164852E-02	3.699560E-04
7.311298E+03	1.164647E-02	3.698424E-04
7.321218E+03	1.163848E-02	3.695444E-04
7.331138E+03	1.162529E-02	3.690848E-04
7.341059E+03	1.160709E-02	3.684707E-04
7.350979E+03	1.158476E-02	3.677296E-04
7.360899E+03	1.155879E-02	3.668770E-04
7.370820E+03	1.152985E-02	3.659348E-04
7.380740E+03	1.149868E-02	3.649262E-04
7.390660E+03	1.146605E-02	3.638757E-04
7.400581E+03	1.143288E-02	3.628131E-04
7.410501E+03	1.139973E-02	3.617551E-04
7.420421E+03	1.136769E-02	3.607376E-04
7.430342E+03	1.133733E-02	3.597777E-04
7.440262E+03	1.130974E-02	3.589110E-04
7.450182E+03	1.128548E-02	3.581546E-04
7.460103E+03	1.126562E-02	3.575427E-04
7.470023E+03	1.125078E-02	3.570957E-04
7.479944E+03	1.124185E-02	3.568411E-04
7.489864E+03	1.123936E-02	3.567965E-04
7.499784E+03	1.124424E-02	3.569911E-04
7.509705E+03	1.125675E-02	3.574339E-04
7.519625E+03	1.127769E-02	3.581501E-04
7.529545E+03	1.130746E-02	3.591528E-04
7.539466E+03	1.134623E-02	3.604479E-04
7.549386E+03	1.139437E-02	3.620474E-04
7.559306E+03	1.145214E-02	3.639597E-04
7.569227E+03	1.151937E-02	3.661802E-04
7.579147E+03	1.159593E-02	3.687050E-04
7.589067E+03	1.168156E-02	3.715264E-04
7.598988E+03	1.177616E-02	3.746416E-04
7.608908E+03	1.187889E-02	3.780248E-04
7.618828E+03	1.198923E-02	3.816596E-04
7.628749E+03	1.210638E-02	3.855214E-04
7.638669E+03	1.222955E-02	3.895855E-04
7.648589E+03	1.235737E-02	3.938088E-04
7.658510E+03	1.248897E-02	3.981644E-04
7.668430E+03	1.262292E-02	4.026070E-04
7.678351E+03	1.275784E-02	4.070933E-04
7.688271E+03	1.289247E-02	4.115833E-04
7.698191E+03	1.302512E-02	4.160239E-04
