#wls	flux	fluxerr
1.587256E+03	4.573448E-05	1.985031E-06
1.626937E+03	4.862047E-05	2.104445E-06
1.666619E+03	5.092074E-05	2.197744E-06
1.706300E+03	5.253598E-05	2.260849E-06
1.745982E+03	5.331748E-05	2.287623E-06
1.785663E+03	5.305594E-05	2.269427E-06
1.825344E+03	5.150940E-05	2.196353E-06
1.865026E+03	4.851619E-05	2.062061E-06
1.904707E+03	4.406064E-05	1.866509E-06
1.944389E+03	3.839738E-05	1.621098E-06
1.984070E+03	3.216347E-05	1.353202E-06
2.023751E+03	2.626713E-05	1.101203E-06
2.063433E+03	2.162913E-05	9.034637E-07
2.103114E+03	1.888960E-05	7.860909E-07
2.142795E+03	1.833396E-05	7.600555E-07
2.182477E+03	2.009547E-05	8.298249E-07
2.222158E+03	2.431185E-05	9.999183E-07
2.261840E+03	3.109246E-05	1.273557E-06
2.301521E+03	4.039187E-05	1.647525E-06
2.341202E+03	5.194151E-05	2.109522E-06
2.380884E+03	6.532397E-05	2.641376E-06
2.420565E+03	8.005759E-05	3.222582E-06
2.460247E+03	9.574198E-05	3.836213E-06
2.499928E+03	1.120459E-04	4.468373E-06
2.539609E+03	1.287687E-04	5.110586E-06
2.579291E+03	1.457128E-04	5.754638E-06
2.618972E+03	1.628644E-04	6.399693E-06
2.658654E+03	1.801182E-04	7.041332E-06
2.698335E+03	1.975142E-04	7.680888E-06
2.738016E+03	2.150627E-04	8.318492E-06
2.777698E+03	2.327475E-04	8.953269E-06
2.817379E+03	2.506481E-04	9.587996E-06
2.857061E+03	2.687821E-04	1.022304E-05
2.896742E+03	2.871603E-04	1.085850E-05
2.936423E+03	3.058601E-04	1.149695E-05
2.976105E+03	3.249192E-04	1.213943E-05
2.986025E+03	3.297736E-04	1.230188E-05
2.995946E+03	3.346275E-04	1.246369E-05
3.005866E+03	3.394796E-04	1.262482E-05
3.015786E+03	3.444313E-04	1.278902E-05
3.025707E+03	3.494897E-04	1.295653E-05
3.035627E+03	3.547852E-04	1.313217E-05
3.045547E+03	3.602940E-04	1.331501E-05
3.055468E+03	3.659941E-04	1.350419E-05
3.065388E+03	3.718644E-04	1.369891E-05
3.075308E+03	3.779263E-04	1.389992E-05
3.085229E+03	3.840798E-04	1.410351E-05
3.095149E+03	3.903480E-04	1.431051E-05
3.105069E+03	3.967560E-04	1.452181E-05
3.114990E+03	4.032472E-04	1.473531E-05
3.124910E+03	4.098068E-04	1.495047E-05
3.134830E+03	4.164634E-04	1.516830E-05
3.144751E+03	4.231619E-04	1.538678E-05
3.154671E+03	4.298902E-04	1.560547E-05
3.164591E+03	4.366797E-04	1.582549E-05
3.174512E+03	4.435203E-04	1.604646E-05
3.184432E+03	4.504024E-04	1.626803E-05
3.194353E+03	4.572739E-04	1.648830E-05
3.204273E+03	4.641696E-04	1.670853E-05
3.214193E+03	4.711257E-04	1.693002E-05
3.224114E+03	4.780481E-04	1.714936E-05
3.234034E+03	4.849738E-04	1.736790E-05
3.243954E+03	4.918973E-04	1.758543E-05
3.253875E+03	4.988575E-04	1.780333E-05
3.263795E+03	5.058055E-04	1.801986E-05
3.273715E+03	5.127374E-04	1.823489E-05
3.283636E+03	5.196937E-04	1.844983E-05
3.293556E+03	5.266712E-04	1.866459E-05
3.303476E+03	5.336232E-04	1.887749E-05
3.313397E+03	5.405472E-04	1.908846E-05
3.323317E+03	5.475300E-04	1.930056E-05
3.333237E+03	5.545257E-04	1.951216E-05
3.343158E+03	5.614891E-04	1.972166E-05
3.353078E+03	5.685077E-04	1.993214E-05
3.362998E+03	5.755368E-04	2.014203E-05
3.372919E+03	5.825762E-04	2.035131E-05
3.382839E+03	5.896701E-04	2.056152E-05
3.392760E+03	5.968185E-04	2.077266E-05
3.402680E+03	6.039782E-04	2.098320E-05
3.412600E+03	6.111502E-04	2.119318E-05
3.422521E+03	6.184226E-04	2.140564E-05
3.432441E+03	6.257530E-04	2.161911E-05
3.442361E+03	6.330996E-04	2.183212E-05
3.452282E+03	6.405504E-04	2.204770E-05
3.462202E+03	6.481069E-04	2.226589E-05
3.472122E+03	6.557282E-04	2.248525E-05
3.482043E+03	6.634165E-04	2.270586E-05
3.491963E+03	6.712170E-04	2.292924E-05
3.501883E+03	6.791320E-04	2.315544E-05
3.511804E+03	6.871643E-04	2.338455E-05
3.521724E+03	6.953169E-04	2.361664E-05
3.531644E+03	7.036347E-04	2.385321E-05
3.541565E+03	7.120378E-04	2.409152E-05
3.551485E+03	7.206554E-04	2.433592E-05
3.561405E+03	7.294082E-04	2.458369E-05
3.571326E+03	7.383007E-04	2.483496E-05
3.581246E+03	7.474192E-04	2.509261E-05
3.591167E+03	7.567248E-04	2.535527E-05
3.601087E+03	7.662203E-04	2.562302E-05
3.611007E+03	7.759106E-04	2.589598E-05
3.620928E+03	7.858391E-04	2.617555E-05
3.630848E+03	7.959703E-04	2.646051E-05
3.640768E+03	8.063471E-04	2.675223E-05
3.650689E+03	8.169757E-04	2.705088E-05
3.660609E+03	8.278982E-04	2.735780E-05
3.670529E+03	8.390413E-04	2.767050E-05
3.680450E+03	8.504888E-04	2.799170E-05
3.690370E+03	8.622053E-04	2.832019E-05
3.700290E+03	8.741958E-04	2.865606E-05
3.710211E+03	8.865444E-04	2.900202E-05
3.720131E+03	8.991769E-04	2.935557E-05
3.730051E+03	9.121374E-04	2.971809E-05
3.739972E+03	9.254700E-04	3.009095E-05
3.749892E+03	9.391032E-04	3.047175E-05
3.759812E+03	9.531185E-04	3.086308E-05
3.769733E+03	9.674816E-04	3.126375E-05
3.779653E+03	9.822375E-04	3.167514E-05
3.789574E+03	9.973904E-04	3.209731E-05
3.799494E+03	1.012908E-03	3.252912E-05
3.809414E+03	1.028833E-03	3.297191E-05
3.819335E+03	1.045171E-03	3.342577E-05
3.829255E+03	1.061928E-03	3.389078E-05
3.839175E+03	1.079109E-03	3.436704E-05
3.849096E+03	1.096722E-03	3.485469E-05
3.859016E+03	1.114770E-03	3.535377E-05
3.868936E+03	1.133261E-03	3.586445E-05
3.878857E+03	1.152202E-03	3.638686E-05
3.888777E+03	1.171636E-03	3.692227E-05
3.898697E+03	1.191534E-03	3.746964E-05
3.908618E+03	1.211868E-03	3.802804E-05
3.918538E+03	1.232720E-03	3.859993E-05
3.928458E+03	1.254062E-03	3.918433E-05
3.938379E+03	1.275903E-03	3.978145E-05
3.948299E+03	1.298255E-03	4.039156E-05
3.958219E+03	1.321092E-03	4.101376E-05
3.968140E+03	1.344463E-03	4.164947E-05
3.978060E+03	1.368382E-03	4.229899E-05
3.987981E+03	1.392789E-03	4.296040E-05
3.997901E+03	1.417772E-03	4.363631E-05
4.007821E+03	1.443311E-03	4.432598E-05
4.017742E+03	1.469423E-03	4.502986E-05
4.027662E+03	1.496089E-03	4.574723E-05
4.037582E+03	1.523328E-03	4.647858E-05
4.047503E+03	1.551197E-03	4.722554E-05
4.057423E+03	1.579606E-03	4.798524E-05
4.067343E+03	1.608650E-03	4.876051E-05
4.077264E+03	1.638315E-03	4.955074E-05
4.087184E+03	1.668586E-03	5.035542E-05
4.097104E+03	1.699523E-03	5.117625E-05
4.107025E+03	1.731077E-03	5.201159E-05
4.116945E+03	1.763270E-03	5.286201E-05
4.126865E+03	1.796126E-03	5.372816E-05
4.136786E+03	1.829631E-03	5.460943E-05
4.146706E+03	1.863807E-03	5.550641E-05
4.156626E+03	1.898639E-03	5.641852E-05
4.166547E+03	1.934109E-03	5.734512E-05
4.176467E+03	1.970272E-03	5.828775E-05
4.186387E+03	2.007110E-03	5.924571E-05
4.196308E+03	2.044599E-03	6.021824E-05
4.206228E+03	2.082713E-03	6.120441E-05
4.216149E+03	2.121461E-03	6.220442E-05
4.226069E+03	2.160850E-03	6.321836E-05
4.235989E+03	2.200842E-03	6.424501E-05
4.245910E+03	2.241397E-03	6.528317E-05
4.255830E+03	2.282549E-03	6.633366E-05
4.265750E+03	2.324207E-03	6.739382E-05
4.275671E+03	2.366356E-03	6.846313E-05
4.285591E+03	2.409012E-03	6.954196E-05
4.295511E+03	2.452111E-03	7.062840E-05
4.305432E+03	2.495578E-03	7.172029E-05
4.315352E+03	2.539377E-03	7.281651E-05
4.325272E+03	2.583462E-03	7.391575E-05
4.335193E+03	2.627824E-03	7.501773E-05
4.345113E+03	2.672331E-03	7.611867E-05
4.355033E+03	2.716967E-03	7.721811E-05
4.364954E+03	2.761701E-03	7.831520E-05
4.374874E+03	2.806492E-03	7.940880E-05
4.384794E+03	2.851378E-03	8.050003E-05
4.394715E+03	2.896360E-03	8.158889E-05
4.404635E+03	2.941392E-03	8.267422E-05
4.414556E+03	2.986515E-03	8.375709E-05
4.424476E+03	3.031723E-03	8.483744E-05
4.434396E+03	3.076923E-03	8.591267E-05
4.444317E+03	3.122149E-03	8.698378E-05
4.454237E+03	3.167344E-03	8.804925E-05
4.464157E+03	3.212452E-03	8.910747E-05
4.474078E+03	3.257540E-03	9.016038E-05
4.483998E+03	3.302460E-03	9.120389E-05
4.493918E+03	3.347190E-03	9.223744E-05
4.503839E+03	3.391747E-03	9.326156E-05
4.513759E+03	3.436021E-03	9.427324E-05
4.523679E+03	3.479982E-03	9.527176E-05
4.533600E+03	3.523650E-03	9.625771E-05
4.543520E+03	3.566906E-03	9.722788E-05
4.553440E+03	3.609724E-03	9.818170E-05
4.563361E+03	3.652073E-03	9.911840E-05
4.573281E+03	3.693933E-03	1.000375E-04
4.583201E+03	3.735274E-03	1.009383E-04
4.593122E+03	3.776076E-03	1.018203E-04
4.603042E+03	3.816273E-03	1.026820E-04
4.612963E+03	3.855850E-03	1.035229E-04
4.622883E+03	3.894881E-03	1.043452E-04
4.632803E+03	3.933219E-03	1.051450E-04
4.642724E+03	3.970951E-03	1.059248E-04
4.652644E+03	4.008025E-03	1.066834E-04
4.662564E+03	4.044395E-03	1.074195E-04
4.672485E+03	4.080067E-03	1.081335E-04
4.682405E+03	4.115050E-03	1.088258E-04
4.692325E+03	4.149258E-03	1.094942E-04
4.702246E+03	4.182663E-03	1.101380E-04
4.712166E+03	4.215232E-03	1.107567E-04
4.722086E+03	4.246896E-03	1.113484E-04
4.732007E+03	4.277532E-03	1.119101E-04
4.741927E+03	4.307120E-03	1.124415E-04
4.751847E+03	4.335591E-03	1.129410E-04
4.761768E+03	4.363117E-03	1.134132E-04
4.771688E+03	4.389730E-03	1.138591E-04
4.781608E+03	4.415654E-03	1.142846E-04
4.791529E+03	4.441021E-03	1.146933E-04
4.801449E+03	4.465869E-03	1.150863E-04
4.811370E+03	4.490425E-03	1.154695E-04
4.821290E+03	4.514732E-03	1.158439E-04
4.831210E+03	4.538825E-03	1.162106E-04
4.841131E+03	4.562888E-03	1.165744E-04
4.851051E+03	4.586912E-03	1.169349E-04
4.860971E+03	4.611032E-03	1.172956E-04
4.870892E+03	4.635283E-03	1.176573E-04
4.880812E+03	4.659699E-03	1.180211E-04
4.890732E+03	4.684367E-03	1.183889E-04
4.900653E+03	4.709314E-03	1.187615E-04
4.910573E+03	4.734574E-03	1.191397E-04
4.920493E+03	4.760221E-03	1.195252E-04
4.930414E+03	4.786284E-03	1.199188E-04
4.940334E+03	4.812734E-03	1.203196E-04
4.950254E+03	4.839693E-03	1.207307E-04
4.960175E+03	4.867127E-03	1.211511E-04
4.970095E+03	4.895101E-03	1.215824E-04
4.980015E+03	4.923571E-03	1.220234E-04
4.989936E+03	4.952650E-03	1.224768E-04
4.999856E+03	4.982233E-03	1.229400E-04
5.009777E+03	5.012316E-03	1.234127E-04
5.019697E+03	5.043046E-03	1.238987E-04
5.029617E+03	5.074252E-03	1.243934E-04
5.039538E+03	5.105966E-03	1.248977E-04
5.049458E+03	5.138210E-03	1.254121E-04
5.059378E+03	5.170953E-03	1.259357E-04
5.069299E+03	5.204098E-03	1.264661E-04
5.079219E+03	5.237653E-03	1.270035E-04
5.089139E+03	5.271504E-03	1.275450E-04
5.099060E+03	5.305641E-03	1.280905E-04
5.108980E+03	5.339994E-03	1.286381E-04
5.118900E+03	5.374485E-03	1.291860E-04
5.128821E+03	5.409077E-03	1.297334E-04
5.138741E+03	5.443568E-03	1.302753E-04
5.148661E+03	5.477913E-03	1.308109E-04
5.158582E+03	5.512056E-03	1.313387E-04
5.168502E+03	5.545832E-03	1.318550E-04
5.178422E+03	5.579173E-03	1.323582E-04
5.188343E+03	5.611904E-03	1.328442E-04
5.198263E+03	5.643952E-03	1.333116E-04
5.208183E+03	5.675132E-03	1.337560E-04
5.218104E+03	5.705427E-03	1.341772E-04
5.228024E+03	5.734590E-03	1.345697E-04
5.237945E+03	5.762610E-03	1.349333E-04
5.247865E+03	5.789242E-03	1.352626E-04
5.257785E+03	5.814481E-03	1.355577E-04
5.267706E+03	5.838208E-03	1.358161E-04
5.277626E+03	5.860254E-03	1.360340E-04
5.287546E+03	5.880571E-03	1.362109E-04
5.297467E+03	5.899008E-03	1.363433E-04
5.307387E+03	5.915600E-03	1.364325E-04
5.317307E+03	5.930271E-03	1.364771E-04
5.327228E+03	5.942843E-03	1.364731E-04
5.337148E+03	5.953446E-03	1.364241E-04
5.347068E+03	5.961925E-03	1.363268E-04
5.356989E+03	5.968321E-03	1.361825E-04
5.366909E+03	5.972623E-03	1.359912E-04
5.376829E+03	5.974903E-03	1.357551E-04
5.386750E+03	5.975118E-03	1.354733E-04
5.396670E+03	5.973366E-03	1.351484E-04
5.406590E+03	5.969632E-03	1.347805E-04
5.416511E+03	5.964038E-03	1.343727E-04
5.426431E+03	5.956713E-03	1.339280E-04
5.436352E+03	5.947620E-03	1.334460E-04
5.446272E+03	5.936910E-03	1.329301E-04
5.456192E+03	5.924689E-03	1.323829E-04
5.466113E+03	5.911040E-03	1.318065E-04
5.476033E+03	5.896234E-03	1.312069E-04
5.485953E+03	5.880310E-03	1.305853E-04
5.495874E+03	5.863551E-03	1.299478E-04
5.505794E+03	5.846008E-03	1.292958E-04
5.515714E+03	5.827848E-03	1.286330E-04
5.525635E+03	5.809307E-03	1.279646E-04
5.535555E+03	5.790564E-03	1.272945E-04
5.545475E+03	5.771677E-03	1.266239E-04
5.555396E+03	5.752942E-03	1.259595E-04
5.565316E+03	5.734423E-03	1.253023E-04
5.575236E+03	5.716351E-03	1.246575E-04
5.585157E+03	5.698844E-03	1.240275E-04
5.595077E+03	5.682066E-03	1.234157E-04
5.604997E+03	5.666245E-03	1.228270E-04
5.614918E+03	5.651419E-03	1.222620E-04
5.624838E+03	5.637795E-03	1.217249E-04
5.634759E+03	5.625460E-03	1.212176E-04
5.644679E+03	5.614546E-03	1.207426E-04
5.654599E+03	5.605229E-03	1.203035E-04
5.664520E+03	5.597512E-03	1.199001E-04
5.674440E+03	5.591549E-03	1.195355E-04
5.684360E+03	5.587372E-03	1.192101E-04
5.694281E+03	5.585117E-03	1.189265E-04
5.704201E+03	5.584788E-03	1.186846E-04
5.714121E+03	5.586385E-03	1.184842E-04
5.724042E+03	5.590056E-03	1.183280E-04
5.733962E+03	5.595720E-03	1.182141E-04
5.743882E+03	5.603445E-03	1.181436E-04
5.753803E+03	5.613179E-03	1.181153E-04
5.763723E+03	5.624916E-03	1.181287E-04
5.773643E+03	5.638638E-03	1.181831E-04
5.783564E+03	5.654313E-03	1.182776E-04
5.793484E+03	5.671907E-03	1.184114E-04
5.803404E+03	5.691313E-03	1.185818E-04
5.813325E+03	5.712536E-03	1.187888E-04
5.823245E+03	5.735454E-03	1.190296E-04
5.833166E+03	5.760059E-03	1.193038E-04
5.843086E+03	5.786163E-03	1.196074E-04
5.853006E+03	5.813800E-03	1.199409E-04
5.862927E+03	5.842774E-03	1.202999E-04
5.872847E+03	5.873056E-03	1.206839E-04
5.882767E+03	5.904561E-03	1.210908E-04
5.892688E+03	5.937137E-03	1.215175E-04
5.902608E+03	5.970752E-03	1.219631E-04
5.912528E+03	6.005259E-03	1.224245E-04
5.922449E+03	6.040561E-03	1.228997E-04
5.932369E+03	6.076626E-03	1.233880E-04
5.942289E+03	6.113242E-03	1.238849E-04
5.952210E+03	6.150492E-03	1.243921E-04
5.962130E+03	6.188103E-03	1.249040E-04
5.972050E+03	6.226105E-03	1.254212E-04
5.981971E+03	6.264336E-03	1.259405E-04
5.991891E+03	6.302702E-03	1.264599E-04
6.001811E+03	6.341166E-03	1.269786E-04
6.011732E+03	6.379626E-03	1.274948E-04
6.021652E+03	6.417917E-03	1.280050E-04
6.031573E+03	6.456058E-03	1.285099E-04
6.041493E+03	6.493944E-03	1.290072E-04
6.051413E+03	6.531457E-03	1.294947E-04
6.061334E+03	6.568480E-03	1.299703E-04
6.071254E+03	6.604961E-03	1.304330E-04
6.081174E+03	6.640901E-03	1.308829E-04
6.091095E+03	6.676174E-03	1.313175E-04
6.101015E+03	6.710718E-03	1.317360E-04
6.110935E+03	6.744527E-03	1.321382E-04
6.120856E+03	6.777740E-03	1.325269E-04
6.130776E+03	6.810217E-03	1.328997E-04
6.140696E+03	6.841687E-03	1.332514E-04
6.150617E+03	6.871795E-03	1.335751E-04
6.160537E+03	6.900394E-03	1.338684E-04
6.170457E+03	6.927130E-03	1.341245E-04
6.180378E+03	6.951852E-03	1.343409E-04
6.190298E+03	6.974279E-03	1.345123E-04
6.200218E+03	6.994270E-03	1.346364E-04
6.210139E+03	7.011618E-03	1.347095E-04
6.220059E+03	7.026198E-03	1.347297E-04
6.229979E+03	7.037894E-03	1.346950E-04
6.239900E+03	7.046527E-03	1.346024E-04
6.249820E+03	7.052006E-03	1.344506E-04
6.259741E+03	7.054316E-03	1.342397E-04
6.269661E+03	7.053251E-03	1.339661E-04
6.279581E+03	7.048826E-03	1.336307E-04
6.289502E+03	7.041073E-03	1.332343E-04
6.299422E+03	7.029899E-03	1.327757E-04
6.309342E+03	7.015294E-03	1.322551E-04
6.319263E+03	6.997258E-03	1.316729E-04
6.329183E+03	6.975953E-03	1.310325E-04
6.339103E+03	6.951267E-03	1.303322E-04
6.349024E+03	6.923387E-03	1.295758E-04
6.358944E+03	6.892363E-03	1.287648E-04
6.368864E+03	6.858257E-03	1.279006E-04
6.378785E+03	6.821210E-03	1.269861E-04
6.388705E+03	6.781226E-03	1.260217E-04
6.398625E+03	6.738533E-03	1.250120E-04
6.408546E+03	6.693284E-03	1.239600E-04
6.418466E+03	6.645430E-03	1.228649E-04
6.428386E+03	6.595271E-03	1.217323E-04
6.438307E+03	6.542829E-03	1.205627E-04
6.448227E+03	6.488267E-03	1.193590E-04
6.458148E+03	6.431750E-03	1.181244E-04
6.468068E+03	6.373230E-03	1.168579E-04
6.477988E+03	6.312872E-03	1.155627E-04
6.487909E+03	6.250792E-03	1.142408E-04
6.497829E+03	6.187370E-03	1.128992E-04
6.507749E+03	6.122836E-03	1.115420E-04
6.517670E+03	6.057428E-03	1.101735E-04
6.527590E+03	5.991558E-03	1.088011E-04
6.537510E+03	5.925369E-03	1.074274E-04
6.547431E+03	5.859117E-03	1.060568E-04
6.557351E+03	5.793111E-03	1.046948E-04
6.567271E+03	5.727585E-03	1.033456E-04
6.577192E+03	5.662629E-03	1.020105E-04
6.587112E+03	5.598642E-03	1.006967E-04
6.597032E+03	5.535623E-03	9.940382E-05
6.606953E+03	5.473885E-03	9.813741E-05
6.616873E+03	5.413597E-03	9.690025E-05
6.626793E+03	5.354912E-03	9.569491E-05
6.636714E+03	5.297925E-03	9.452281E-05
6.646634E+03	5.242830E-03	9.338723E-05
6.656555E+03	5.189819E-03	9.229133E-05
6.666475E+03	5.138942E-03	9.123578E-05
6.676395E+03	5.090320E-03	9.022244E-05
6.686316E+03	5.044103E-03	8.925371E-05
6.696236E+03	5.000385E-03	8.833101E-05
6.706156E+03	4.959194E-03	8.745454E-05
6.716077E+03	4.920720E-03	8.662739E-05
6.725997E+03	4.884974E-03	8.584944E-05
6.735917E+03	4.852017E-03	8.512148E-05
6.745838E+03	4.821962E-03	8.444519E-05
6.755758E+03	4.794855E-03	8.382107E-05
6.765678E+03	4.770685E-03	8.324860E-05
6.775599E+03	4.749594E-03	8.272995E-05
6.785519E+03	4.731565E-03	8.226448E-05
6.795439E+03	4.716621E-03	8.185228E-05
6.805360E+03	4.704780E-03	8.149330E-05
6.815280E+03	4.696115E-03	8.118847E-05
6.825200E+03	4.690579E-03	8.093662E-05
6.835121E+03	4.688239E-03	8.073857E-05
6.845041E+03	4.689092E-03	8.059387E-05
6.854962E+03	4.693136E-03	8.050216E-05
6.864882E+03	4.700363E-03	8.046288E-05
6.874802E+03	4.710709E-03	8.047460E-05
6.884723E+03	4.724268E-03	8.053854E-05
6.894643E+03	4.740963E-03	8.065297E-05
6.904563E+03	4.760766E-03	8.081706E-05
6.914484E+03	4.783651E-03	8.102996E-05
6.924404E+03	4.809635E-03	8.129154E-05
6.934324E+03	4.838624E-03	8.159986E-05
6.944245E+03	4.870572E-03	8.195371E-05
6.954165E+03	4.905422E-03	8.235175E-05
6.964085E+03	4.943176E-03	8.279362E-05
6.974006E+03	4.983708E-03	8.327679E-05
6.983926E+03	5.027013E-03	8.380080E-05
6.993846E+03	5.072947E-03	8.436285E-05
7.003767E+03	5.121418E-03	8.496103E-05
7.013687E+03	5.172403E-03	8.559460E-05
7.023607E+03	5.225731E-03	8.626032E-05
7.033528E+03	5.281288E-03	8.695597E-05
7.043448E+03	5.339027E-03	8.768042E-05
7.053369E+03	5.398814E-03	8.843114E-05
7.063289E+03	5.460382E-03	8.920342E-05
7.073209E+03	5.523719E-03	8.999678E-05
7.083130E+03	5.588603E-03	9.080732E-05
7.093050E+03	5.654941E-03	9.163324E-05
7.102970E+03	5.722496E-03	9.247046E-05
7.112891E+03	5.791092E-03	9.331594E-05
7.122811E+03	5.860615E-03	9.416765E-05
7.132731E+03	5.930736E-03	9.502013E-05
7.142652E+03	6.001490E-03	9.587381E-05
7.152572E+03	6.072452E-03	9.672182E-05
7.162492E+03	6.143584E-03	9.756346E-05
7.172413E+03	6.214617E-03	9.839445E-05
7.182333E+03	6.285442E-03	9.921304E-05
7.192253E+03	6.355792E-03	1.000151E-04
7.202174E+03	6.425490E-03	1.007978E-04
7.212094E+03	6.494530E-03	1.015613E-04
7.222014E+03	6.562500E-03	1.022993E-04
7.231935E+03	6.629516E-03	1.030136E-04
7.241855E+03	6.695268E-03	1.036998E-04
7.251775E+03	6.759817E-03	1.043589E-04
7.261696E+03	6.822893E-03	1.049871E-04
7.271616E+03	6.884595E-03	1.055862E-04
7.281537E+03	6.944773E-03	1.061541E-04
7.291457E+03	7.003485E-03	1.066922E-04
7.301377E+03	7.060717E-03	1.072005E-04
7.311298E+03	7.116386E-03	1.076780E-04
7.321218E+03	7.170612E-03	1.081271E-04
7.331138E+03	7.223445E-03	1.085488E-04
7.341059E+03	7.274956E-03	1.089445E-04
7.350979E+03	7.325334E-03	1.093175E-04
7.360899E+03	7.374390E-03	1.096653E-04
7.370820E+03	7.422540E-03	1.099945E-04
7.380740E+03	7.469723E-03	1.103045E-04
7.390660E+03	7.516082E-03	1.105978E-04
7.400581E+03	7.561772E-03	1.108771E-04
7.410501E+03	7.607047E-03	1.111464E-04
7.420421E+03	7.651976E-03	1.114070E-04
7.430342E+03	7.696609E-03	1.116601E-04
7.440262E+03	7.741109E-03	1.119082E-04
7.450182E+03	7.785615E-03	1.121539E-04
7.460103E+03	7.830378E-03	1.124009E-04
7.470023E+03	7.875211E-03	1.126470E-04
7.479944E+03	7.920529E-03	1.128983E-04
7.489864E+03	7.966114E-03	1.131522E-04
7.499784E+03	8.012241E-03	1.134128E-04
7.509705E+03	8.058741E-03	1.136782E-04
7.519625E+03	8.105738E-03	1.139503E-04
7.529545E+03	8.153221E-03	1.142296E-04
7.539466E+03	8.201034E-03	1.145141E-04
7.549386E+03	8.249216E-03	1.148050E-04
7.559306E+03	8.297542E-03	1.150995E-04
7.569227E+03	8.345989E-03	1.153978E-04
7.579147E+03	8.394152E-03	1.156949E-04
7.589067E+03	8.442048E-03	1.159917E-04
7.598988E+03	8.489438E-03	1.162855E-04
7.608908E+03	8.535817E-03	1.165701E-04
7.618828E+03	8.581116E-03	1.168453E-04
7.628749E+03	8.624883E-03	1.171057E-04
7.638669E+03	8.666771E-03	1.173476E-04
7.648589E+03	8.706400E-03	1.175666E-04
7.658510E+03	8.743499E-03	1.177601E-04
7.668430E+03	8.777546E-03	1.179219E-04
7.678351E+03	8.808127E-03	1.180476E-04
7.688271E+03	8.834950E-03	1.181343E-04
7.698191E+03	8.857600E-03	1.181775E-04
