#wls	flux	fluxerr
1.587256E+03	4.653240E-05	1.647627E-06
1.626937E+03	4.946038E-05	1.747725E-06
1.666619E+03	5.179141E-05	1.826262E-06
1.706300E+03	5.342476E-05	1.879813E-06
1.745982E+03	5.420961E-05	1.903230E-06
1.785663E+03	5.393362E-05	1.889267E-06
1.825344E+03	5.235147E-05	1.829604E-06
1.865026E+03	4.929965E-05	1.718863E-06
1.904707E+03	4.476313E-05	1.556903E-06
1.944389E+03	3.900153E-05	1.353133E-06
1.984070E+03	3.266263E-05	1.130319E-06
2.023751E+03	2.666900E-05	9.204931E-07
2.063433E+03	2.195516E-05	7.557651E-07
2.103114E+03	1.916997E-05	6.580818E-07
2.142795E+03	1.860175E-05	6.367836E-07
2.182477E+03	2.038413E-05	6.957943E-07
2.222158E+03	2.465506E-05	8.391036E-07
2.261840E+03	3.152352E-05	1.069633E-06
2.301521E+03	4.094140E-05	1.384915E-06
2.341202E+03	5.263444E-05	1.774841E-06
2.380884E+03	6.617783E-05	2.224331E-06
2.420565E+03	8.108201E-05	2.716293E-06
2.460247E+03	9.694030E-05	3.236600E-06
2.499928E+03	1.134163E-04	3.773634E-06
2.539609E+03	1.303064E-04	4.320319E-06
2.579291E+03	1.474100E-04	4.869777E-06
2.618972E+03	1.647130E-04	5.421350E-06
2.658654E+03	1.821083E-04	5.971344E-06
2.698335E+03	1.996366E-04	6.520934E-06
2.738016E+03	2.173079E-04	7.070280E-06
2.777698E+03	2.351058E-04	7.618687E-06
2.817379E+03	2.531107E-04	8.168574E-06
2.857061E+03	2.713401E-04	8.720315E-06
2.896742E+03	2.898053E-04	9.274056E-06
2.936423E+03	3.085842E-04	9.832073E-06
2.976105E+03	3.277152E-04	1.039533E-05
2.986025E+03	3.325867E-04	1.053800E-05
2.995946E+03	3.374571E-04	1.068025E-05
3.005866E+03	3.423251E-04	1.082202E-05
3.015786E+03	3.472928E-04	1.096655E-05
3.025707E+03	3.523676E-04	1.111405E-05
3.035627E+03	3.576807E-04	1.126865E-05
3.045547E+03	3.632082E-04	1.142956E-05
3.055468E+03	3.689278E-04	1.159605E-05
3.065388E+03	3.748184E-04	1.176745E-05
3.075308E+03	3.809014E-04	1.194440E-05
3.085229E+03	3.870759E-04	1.212372E-05
3.095149E+03	3.933653E-04	1.230613E-05
3.105069E+03	3.997949E-04	1.249240E-05
3.114990E+03	4.063075E-04	1.268073E-05
3.124910E+03	4.128884E-04	1.287065E-05
3.134830E+03	4.195661E-04	1.306304E-05
3.144751E+03	4.262855E-04	1.325616E-05
3.154671E+03	4.330341E-04	1.344964E-05
3.164591E+03	4.398436E-04	1.364444E-05
3.174512E+03	4.467039E-04	1.384024E-05
3.184432E+03	4.536053E-04	1.403673E-05
3.194353E+03	4.604953E-04	1.423229E-05
3.204273E+03	4.674089E-04	1.442799E-05
3.214193E+03	4.743827E-04	1.462496E-05
3.224114E+03	4.813219E-04	1.482026E-05
3.234034E+03	4.882638E-04	1.501505E-05
3.243954E+03	4.952028E-04	1.520916E-05
3.253875E+03	5.021778E-04	1.540377E-05
3.263795E+03	5.091402E-04	1.559739E-05
3.273715E+03	5.160856E-04	1.578988E-05
3.283636E+03	5.230549E-04	1.598250E-05
3.293556E+03	5.300450E-04	1.617513E-05
3.303476E+03	5.370086E-04	1.636635E-05
3.313397E+03	5.439435E-04	1.655609E-05
3.323317E+03	5.509368E-04	1.674698E-05
3.333237E+03	5.579425E-04	1.693762E-05
3.343158E+03	5.649150E-04	1.712664E-05
3.353078E+03	5.719423E-04	1.731670E-05
3.362998E+03	5.789795E-04	1.750643E-05
3.372919E+03	5.860265E-04	1.769582E-05
3.382839E+03	5.931274E-04	1.788620E-05
3.392760E+03	6.002825E-04	1.807758E-05
3.402680E+03	6.074481E-04	1.826863E-05
3.412600E+03	6.146254E-04	1.845937E-05
3.422521E+03	6.219029E-04	1.865248E-05
3.432441E+03	6.292377E-04	1.884664E-05
3.442361E+03	6.365881E-04	1.904060E-05
3.452282E+03	6.440424E-04	1.923699E-05
3.462202E+03	6.516021E-04	1.943585E-05
3.472122E+03	6.592258E-04	1.963592E-05
3.482043E+03	6.669161E-04	1.983728E-05
3.491963E+03	6.747180E-04	2.004125E-05
3.501883E+03	6.826341E-04	2.024789E-05
3.511804E+03	6.906669E-04	2.045726E-05
3.521724E+03	6.988195E-04	2.066944E-05
3.531644E+03	7.071370E-04	2.088574E-05
3.541565E+03	7.155391E-04	2.110378E-05
3.551485E+03	7.241549E-04	2.132733E-05
3.561405E+03	7.329055E-04	2.155406E-05
3.571326E+03	7.417947E-04	2.178406E-05
3.581246E+03	7.509086E-04	2.201983E-05
3.591167E+03	7.602085E-04	2.226020E-05
3.601087E+03	7.696985E-04	2.250528E-05
3.611007E+03	7.793806E-04	2.275510E-05
3.620928E+03	7.893001E-04	2.301095E-05
3.630848E+03	7.994202E-04	2.327173E-05
3.640768E+03	8.097845E-04	2.353867E-05
3.650689E+03	8.203975E-04	2.381188E-05
3.660609E+03	8.313028E-04	2.409257E-05
3.670529E+03	8.424264E-04	2.437858E-05
3.680450E+03	8.538511E-04	2.467226E-05
3.690370E+03	8.655416E-04	2.497256E-05
3.700290E+03	8.775041E-04	2.527960E-05
3.710211E+03	8.898206E-04	2.559572E-05
3.720131E+03	9.024181E-04	2.591877E-05
3.730051E+03	9.153400E-04	2.624995E-05
3.739972E+03	9.286295E-04	2.659045E-05
3.749892E+03	9.422156E-04	2.693820E-05
3.759812E+03	9.561799E-04	2.729549E-05
3.769733E+03	9.704879E-04	2.766127E-05
3.779653E+03	9.851844E-04	2.803677E-05
3.789574E+03	1.000273E-03	2.842203E-05
3.799494E+03	1.015721E-03	2.881610E-05
3.809414E+03	1.031573E-03	2.922017E-05
3.819335E+03	1.047834E-03	2.963429E-05
3.829255E+03	1.064508E-03	3.005858E-05
3.839175E+03	1.081600E-03	3.049311E-05
3.849096E+03	1.099120E-03	3.093805E-05
3.859016E+03	1.117071E-03	3.139347E-05
3.868936E+03	1.135460E-03	3.185950E-05
3.878857E+03	1.154294E-03	3.233628E-05
3.888777E+03	1.173616E-03	3.282495E-05
3.898697E+03	1.193398E-03	3.332463E-05
3.908618E+03	1.213612E-03	3.383447E-05
3.918538E+03	1.234338E-03	3.435668E-05
3.928458E+03	1.255550E-03	3.489044E-05
3.938379E+03	1.277256E-03	3.543594E-05
3.948299E+03	1.299470E-03	3.599341E-05
3.958219E+03	1.322164E-03	3.656210E-05
3.968140E+03	1.345388E-03	3.714327E-05
3.978060E+03	1.369155E-03	3.773718E-05
3.987981E+03	1.393405E-03	3.834217E-05
3.997901E+03	1.418227E-03	3.896058E-05
4.007821E+03	1.443602E-03	3.959177E-05
4.017742E+03	1.469542E-03	4.023608E-05
4.027662E+03	1.496033E-03	4.089296E-05
4.037582E+03	1.523091E-03	4.156282E-05
4.047503E+03	1.550773E-03	4.224710E-05
4.057423E+03	1.578989E-03	4.294330E-05
4.067343E+03	1.607834E-03	4.365390E-05
4.077264E+03	1.637293E-03	4.437838E-05
4.087184E+03	1.667351E-03	4.511630E-05
4.097104E+03	1.698066E-03	4.586912E-05
4.107025E+03	1.729390E-03	4.663545E-05
4.116945E+03	1.761344E-03	4.741576E-05
4.126865E+03	1.793951E-03	4.821057E-05
4.136786E+03	1.827196E-03	4.901942E-05
4.146706E+03	1.861101E-03	4.984282E-05
4.156626E+03	1.895649E-03	5.068016E-05
4.166547E+03	1.930823E-03	5.153095E-05
4.176467E+03	1.966677E-03	5.239651E-05
4.186387E+03	2.003192E-03	5.327625E-05
4.196308E+03	2.040342E-03	5.416938E-05
4.206228E+03	2.078101E-03	5.507517E-05
4.216149E+03	2.116479E-03	5.599372E-05
4.226069E+03	2.155479E-03	5.692509E-05
4.235989E+03	2.195066E-03	5.786825E-05
4.245910E+03	2.235199E-03	5.882201E-05
4.255830E+03	2.275910E-03	5.978719E-05
4.265750E+03	2.317109E-03	6.076132E-05
4.275671E+03	2.358782E-03	6.174395E-05
4.285591E+03	2.400945E-03	6.273548E-05
4.295511E+03	2.443532E-03	6.373410E-05
4.305432E+03	2.486474E-03	6.473793E-05
4.315352E+03	2.529731E-03	6.574594E-05
4.325272E+03	2.573260E-03	6.675696E-05
4.335193E+03	2.617056E-03	6.777078E-05
4.345113E+03	2.660985E-03	6.878397E-05
4.355033E+03	2.705037E-03	6.979622E-05
4.364954E+03	2.749184E-03	7.080680E-05
4.374874E+03	2.793378E-03	7.181448E-05
4.384794E+03	2.837660E-03	7.282029E-05
4.394715E+03	2.882027E-03	7.382421E-05
4.404635E+03	2.926437E-03	7.482509E-05
4.414556E+03	2.970927E-03	7.582392E-05
4.424476E+03	3.015491E-03	7.682055E-05
4.434396E+03	3.060038E-03	7.781265E-05
4.444317E+03	3.104602E-03	7.880108E-05
4.454237E+03	3.149126E-03	7.978441E-05
4.464157E+03	3.193555E-03	8.076127E-05
4.474078E+03	3.237955E-03	8.173332E-05
4.483998E+03	3.282183E-03	8.269693E-05
4.493918E+03	3.326214E-03	8.365156E-05
4.503839E+03	3.370069E-03	8.459771E-05
4.513759E+03	3.413638E-03	8.553265E-05
4.523679E+03	3.456895E-03	8.645578E-05
4.533600E+03	3.499860E-03	8.736761E-05
4.543520E+03	3.542415E-03	8.826528E-05
4.553440E+03	3.584536E-03	8.914824E-05
4.563361E+03	3.626197E-03	9.001589E-05
4.573281E+03	3.667374E-03	9.086770E-05
4.583201E+03	3.708043E-03	9.170312E-05
4.593122E+03	3.748184E-03	9.252176E-05
4.603042E+03	3.787736E-03	9.332213E-05
4.612963E+03	3.826677E-03	9.410385E-05
4.622883E+03	3.865090E-03	9.486896E-05
4.632803E+03	3.902825E-03	9.561392E-05
4.642724E+03	3.939970E-03	9.634092E-05
4.652644E+03	3.976476E-03	9.704889E-05
4.662564E+03	4.012296E-03	9.773673E-05
4.672485E+03	4.047436E-03	9.840469E-05
4.682405E+03	4.081903E-03	9.905304E-05
4.692325E+03	4.115616E-03	9.967992E-05
4.702246E+03	4.148543E-03	1.002846E-04
4.712166E+03	4.180654E-03	1.008666E-04
4.722086E+03	4.211876E-03	1.014241E-04
4.732007E+03	4.242090E-03	1.019545E-04
4.741927E+03	4.271275E-03	1.024573E-04
4.751847E+03	4.299360E-03	1.029311E-04
4.761768E+03	4.326516E-03	1.033801E-04
4.771688E+03	4.352775E-03	1.038050E-04
4.781608E+03	4.378356E-03	1.042114E-04
4.791529E+03	4.403390E-03	1.046024E-04
4.801449E+03	4.427914E-03	1.049789E-04
4.811370E+03	4.452154E-03	1.053464E-04
4.821290E+03	4.476147E-03	1.057058E-04
4.831210E+03	4.499930E-03	1.060580E-04
4.841131E+03	4.523687E-03	1.064073E-04
4.851051E+03	4.547405E-03	1.067535E-04
4.860971E+03	4.571216E-03	1.070996E-04
4.870892E+03	4.595155E-03	1.074465E-04
4.880812E+03	4.619257E-03	1.077949E-04
4.890732E+03	4.643603E-03	1.081468E-04
4.900653E+03	4.668223E-03	1.085028E-04
4.910573E+03	4.693147E-03	1.088635E-04
4.920493E+03	4.718449E-03	1.092306E-04
4.930414E+03	4.744155E-03	1.096048E-04
4.940334E+03	4.770235E-03	1.099852E-04
4.950254E+03	4.796810E-03	1.103745E-04
4.960175E+03	4.823845E-03	1.107720E-04
4.970095E+03	4.851399E-03	1.111789E-04
4.980015E+03	4.879433E-03	1.115942E-04
4.989936E+03	4.908051E-03	1.120203E-04
4.999856E+03	4.937152E-03	1.124547E-04
5.009777E+03	4.966728E-03	1.128974E-04
5.019697E+03	4.996924E-03	1.133514E-04
5.029617E+03	5.027568E-03	1.138128E-04
5.039538E+03	5.058690E-03	1.142822E-04
5.049458E+03	5.090314E-03	1.147602E-04
5.059378E+03	5.122402E-03	1.152458E-04
5.069299E+03	5.154862E-03	1.157369E-04
5.079219E+03	5.187698E-03	1.162336E-04
5.089139E+03	5.220800E-03	1.167333E-04
5.099060E+03	5.254153E-03	1.172357E-04
5.108980E+03	5.287693E-03	1.177393E-04
5.118900E+03	5.321336E-03	1.182423E-04
5.128821E+03	5.355054E-03	1.187441E-04
5.138741E+03	5.388643E-03	1.192401E-04
5.148661E+03	5.422061E-03	1.197294E-04
5.158582E+03	5.455256E-03	1.202110E-04
5.168502E+03	5.488066E-03	1.206814E-04
5.178422E+03	5.520426E-03	1.211391E-04
5.188343E+03	5.552164E-03	1.215806E-04
5.198263E+03	5.583216E-03	1.220045E-04
5.208183E+03	5.613396E-03	1.224068E-04
5.218104E+03	5.642696E-03	1.227876E-04
5.228024E+03	5.670876E-03	1.231418E-04
5.237945E+03	5.697927E-03	1.234693E-04
5.247865E+03	5.723609E-03	1.237652E-04
5.257785E+03	5.747924E-03	1.240298E-04
5.267706E+03	5.770761E-03	1.242607E-04
5.277626E+03	5.791952E-03	1.244547E-04
5.287546E+03	5.811458E-03	1.246111E-04
5.297467E+03	5.829131E-03	1.247271E-04
5.307387E+03	5.845009E-03	1.248038E-04
5.317307E+03	5.859021E-03	1.248398E-04
5.327228E+03	5.870995E-03	1.248319E-04
5.337148E+03	5.881059E-03	1.247830E-04
5.347068E+03	5.889066E-03	1.246903E-04
5.356989E+03	5.895051E-03	1.245548E-04
5.366909E+03	5.899014E-03	1.243769E-04
5.376829E+03	5.901018E-03	1.241582E-04
5.386750E+03	5.901024E-03	1.238980E-04
5.396670E+03	5.899127E-03	1.235988E-04
5.406590E+03	5.895312E-03	1.232605E-04
5.416511E+03	5.889696E-03	1.228857E-04
5.426431E+03	5.882408E-03	1.224775E-04
5.436352E+03	5.873407E-03	1.220352E-04
5.446272E+03	5.862840E-03	1.215620E-04
5.456192E+03	5.850815E-03	1.210604E-04
5.466113E+03	5.837408E-03	1.205320E-04
5.476033E+03	5.822888E-03	1.199826E-04
5.485953E+03	5.807290E-03	1.194130E-04
5.495874E+03	5.790893E-03	1.188291E-04
5.505794E+03	5.773744E-03	1.182318E-04
5.515714E+03	5.756011E-03	1.176247E-04
5.525635E+03	5.737921E-03	1.170124E-04
5.535555E+03	5.719648E-03	1.163986E-04
5.545475E+03	5.701247E-03	1.157843E-04
5.555396E+03	5.683010E-03	1.151754E-04
5.565316E+03	5.664992E-03	1.145730E-04
5.575236E+03	5.647421E-03	1.139816E-04
5.585157E+03	5.630407E-03	1.134035E-04
5.595077E+03	5.614114E-03	1.128417E-04
5.604997E+03	5.598755E-03	1.123005E-04
5.614918E+03	5.584371E-03	1.117805E-04
5.624838E+03	5.571160E-03	1.112856E-04
5.634759E+03	5.559204E-03	1.108171E-04
5.644679E+03	5.548632E-03	1.103776E-04
5.654599E+03	5.539615E-03	1.099702E-04
5.664520E+03	5.532151E-03	1.095947E-04
5.674440E+03	5.526393E-03	1.092539E-04
5.684360E+03	5.522375E-03	1.089481E-04
5.694281E+03	5.520223E-03	1.086798E-04
5.704201E+03	5.519948E-03	1.084489E-04
5.714121E+03	5.521545E-03	1.082549E-04
5.724042E+03	5.525163E-03	1.081007E-04
5.733962E+03	5.530724E-03	1.079843E-04
5.743882E+03	5.538296E-03	1.079070E-04
5.753803E+03	5.547832E-03	1.078675E-04
5.763723E+03	5.559327E-03	1.078655E-04
5.773643E+03	5.572766E-03	1.079004E-04
5.783564E+03	5.588123E-03	1.079715E-04
5.793484E+03	5.605364E-03	1.080780E-04
5.803404E+03	5.624392E-03	1.082176E-04
5.813325E+03	5.645213E-03	1.083904E-04
5.823245E+03	5.667712E-03	1.085938E-04
5.833166E+03	5.691884E-03	1.088276E-04
5.843086E+03	5.717546E-03	1.090882E-04
5.853006E+03	5.744735E-03	1.093759E-04
5.862927E+03	5.773262E-03	1.096871E-04
5.872847E+03	5.803103E-03	1.100210E-04
5.882767E+03	5.834169E-03	1.103760E-04
5.892688E+03	5.866319E-03	1.107492E-04
5.902608E+03	5.899523E-03	1.111398E-04
5.912528E+03	5.933631E-03	1.115450E-04
5.922449E+03	5.968549E-03	1.119628E-04
5.932369E+03	6.004247E-03	1.123927E-04
5.942289E+03	6.040510E-03	1.128305E-04
5.952210E+03	6.077426E-03	1.132778E-04
5.962130E+03	6.114718E-03	1.137294E-04
5.972050E+03	6.152409E-03	1.141857E-04
5.981971E+03	6.190342E-03	1.146437E-04
5.991891E+03	6.228416E-03	1.151015E-04
6.001811E+03	6.266595E-03	1.155585E-04
6.011732E+03	6.304770E-03	1.160127E-04
6.021652E+03	6.342778E-03	1.164611E-04
6.031573E+03	6.380629E-03	1.169040E-04
6.041493E+03	6.418214E-03	1.173393E-04
6.051413E+03	6.455418E-03	1.177650E-04
6.061334E+03	6.492122E-03	1.181790E-04
6.071254E+03	6.528263E-03	1.185802E-04
6.081174E+03	6.563846E-03	1.189689E-04
6.091095E+03	6.598743E-03	1.193428E-04
6.101015E+03	6.632885E-03	1.197008E-04
6.110935E+03	6.666273E-03	1.200429E-04
6.120856E+03	6.699039E-03	1.203717E-04
6.130776E+03	6.731044E-03	1.206848E-04
6.140696E+03	6.762021E-03	1.209775E-04
6.150617E+03	6.791620E-03	1.212437E-04
6.160537E+03	6.819697E-03	1.214811E-04
6.170457E+03	6.845903E-03	1.216836E-04
6.180378E+03	6.870095E-03	1.218490E-04
6.190298E+03	6.891990E-03	1.219726E-04
6.200218E+03	6.911457E-03	1.220522E-04
6.210139E+03	6.928292E-03	1.220846E-04
6.220059E+03	6.942378E-03	1.220681E-04
6.229979E+03	6.953600E-03	1.220011E-04
6.239900E+03	6.961785E-03	1.218808E-04
6.249820E+03	6.966846E-03	1.217060E-04
6.259741E+03	6.968774E-03	1.214772E-04
6.269661E+03	6.967366E-03	1.211910E-04
6.279581E+03	6.962642E-03	1.208483E-04
6.289502E+03	6.954636E-03	1.204500E-04
6.299422E+03	6.943255E-03	1.199950E-04
6.309342E+03	6.928494E-03	1.194835E-04
6.319263E+03	6.910355E-03	1.189159E-04
6.329183E+03	6.889006E-03	1.182957E-04
6.339103E+03	6.864331E-03	1.176211E-04
6.349024E+03	6.836516E-03	1.168957E-04
6.358944E+03	6.805616E-03	1.161208E-04
6.368864E+03	6.771696E-03	1.152979E-04
6.378785E+03	6.734892E-03	1.144297E-04
6.388705E+03	6.695215E-03	1.135166E-04
6.398625E+03	6.652888E-03	1.125627E-04
6.408546E+03	6.608069E-03	1.115710E-04
6.418466E+03	6.560702E-03	1.105408E-04
6.428386E+03	6.511097E-03	1.094773E-04
6.438307E+03	6.459272E-03	1.083810E-04
6.448227E+03	6.405394E-03	1.072550E-04
6.458148E+03	6.349619E-03	1.061018E-04
6.468068E+03	6.291915E-03	1.049211E-04
6.477988E+03	6.232449E-03	1.037157E-04
6.487909E+03	6.171348E-03	1.024878E-04
6.497829E+03	6.108958E-03	1.012434E-04
6.507749E+03	6.045515E-03	9.998621E-05
6.517670E+03	5.981243E-03	9.872010E-05
6.527590E+03	5.916546E-03	9.745170E-05
6.537510E+03	5.851564E-03	9.618326E-05
6.547431E+03	5.786547E-03	9.491887E-05
6.557351E+03	5.721797E-03	9.366338E-05
6.567271E+03	5.657543E-03	9.242047E-05
6.577192E+03	5.593875E-03	9.119148E-05
6.587112E+03	5.531174E-03	8.998251E-05
6.597032E+03	5.469451E-03	8.879356E-05
6.606953E+03	5.408998E-03	8.762923E-05
6.616873E+03	5.349986E-03	8.649210E-05
6.626793E+03	5.292569E-03	8.538446E-05
6.636714E+03	5.236828E-03	8.430744E-05
6.646634E+03	5.182957E-03	8.326393E-05
6.656555E+03	5.131141E-03	8.225665E-05
6.666475E+03	5.081432E-03	8.128621E-05
6.676395E+03	5.033937E-03	8.035407E-05
6.686316E+03	4.988813E-03	7.946248E-05
6.696236E+03	4.946145E-03	7.861252E-05
6.706156E+03	4.905958E-03	7.780428E-05
6.716077E+03	4.868437E-03	7.704043E-05
6.725997E+03	4.833593E-03	7.632084E-05
6.735917E+03	4.801483E-03	7.564611E-05
6.745838E+03	4.772219E-03	7.501768E-05
6.755758E+03	4.745844E-03	7.443593E-05
6.765678E+03	4.722346E-03	7.390032E-05
6.775599E+03	4.701864E-03	7.341272E-05
6.785519E+03	4.684381E-03	7.297250E-05
6.795439E+03	4.669913E-03	7.257960E-05
6.805360E+03	4.658485E-03	7.223403E-05
6.815280E+03	4.650164E-03	7.193652E-05
6.825200E+03	4.644906E-03	7.168601E-05
6.835121E+03	4.642774E-03	7.148311E-05
6.845041E+03	4.643765E-03	7.132741E-05
6.854962E+03	4.647877E-03	7.121854E-05
6.864882E+03	4.655107E-03	7.115608E-05
6.874802E+03	4.665381E-03	7.113852E-05
6.884723E+03	4.678802E-03	7.116706E-05
6.894643E+03	4.695290E-03	7.124011E-05
6.904563E+03	4.714820E-03	7.135695E-05
6.914484E+03	4.737361E-03	7.151670E-05
6.924404E+03	4.762938E-03	7.171939E-05
6.934324E+03	4.791453E-03	7.196318E-05
6.944245E+03	4.822861E-03	7.224700E-05
6.954165E+03	4.857111E-03	7.256974E-05
6.964085E+03	4.894203E-03	7.293104E-05
6.974006E+03	4.934020E-03	7.332882E-05
6.983926E+03	4.976546E-03	7.376246E-05
6.993846E+03	5.021648E-03	7.422964E-05
7.003767E+03	5.069241E-03	7.472880E-05
7.013687E+03	5.119294E-03	7.525913E-05
7.023607E+03	5.171645E-03	7.581795E-05
7.033528E+03	5.226192E-03	7.640346E-05
7.043448E+03	5.282879E-03	7.701455E-05
7.053369E+03	5.341582E-03	7.764914E-05
7.063289E+03	5.402045E-03	7.830321E-05
7.073209E+03	5.464255E-03	7.897637E-05
7.083130E+03	5.527995E-03	7.966527E-05
7.093050E+03	5.593190E-03	8.036858E-05
7.102970E+03	5.659597E-03	8.108267E-05
7.112891E+03	5.727057E-03	8.180507E-05
7.122811E+03	5.795463E-03	8.253413E-05
7.132731E+03	5.864494E-03	8.326519E-05
7.142652E+03	5.934189E-03	8.399870E-05
7.152572E+03	6.004144E-03	8.472890E-05
7.162492E+03	6.074323E-03	8.545526E-05
7.172413E+03	6.144468E-03	8.617414E-05
7.182333E+03	6.214479E-03	8.688418E-05
7.192253E+03	6.284099E-03	8.758186E-05
7.202174E+03	6.353160E-03	8.826490E-05
7.212094E+03	6.421665E-03	8.893349E-05
7.222014E+03	6.489217E-03	8.958226E-05
7.231935E+03	6.555923E-03	9.021288E-05
7.241855E+03	6.621494E-03	9.082154E-05
7.251775E+03	6.685991E-03	9.140931E-05
7.261696E+03	6.749148E-03	9.197278E-05
7.271616E+03	6.811062E-03	9.251355E-05
7.281537E+03	6.871595E-03	9.302998E-05
7.291457E+03	6.930796E-03	9.352306E-05
7.301377E+03	6.988650E-03	9.399286E-05
7.311298E+03	7.045071E-03	9.443851E-05
7.321218E+03	7.100177E-03	9.486192E-05
7.331138E+03	7.154012E-03	9.526399E-05
7.341059E+03	7.206635E-03	9.564581E-05
7.350979E+03	7.258227E-03	9.601009E-05
7.360899E+03	7.308591E-03	9.635453E-05
7.370820E+03	7.358129E-03	9.668475E-05
7.380740E+03	7.406767E-03	9.700008E-05
7.390660E+03	7.454636E-03	9.730250E-05
7.400581E+03	7.501877E-03	9.759417E-05
7.410501E+03	7.548731E-03	9.787851E-05
7.420421E+03	7.595246E-03	9.815641E-05
7.430342E+03	7.641462E-03	9.842863E-05
7.440262E+03	7.687525E-03	9.869732E-05
7.450182E+03	7.733562E-03	9.896441E-05
7.460103E+03	7.779803E-03	9.923306E-05
7.470023E+03	7.826050E-03	9.950101E-05
7.479944E+03	7.872709E-03	9.977369E-05
7.489864E+03	7.919545E-03	1.000484E-04
7.499784E+03	7.966825E-03	1.003287E-04
7.509705E+03	8.014368E-03	1.006127E-04
7.519625E+03	8.062291E-03	1.009020E-04
7.529545E+03	8.110571E-03	1.011968E-04
7.539466E+03	8.159056E-03	1.014954E-04
7.549386E+03	8.207771E-03	1.017985E-04
7.559306E+03	8.256500E-03	1.021038E-04
7.569227E+03	8.305209E-03	1.024113E-04
7.579147E+03	8.353502E-03	1.027164E-04
7.589067E+03	8.401399E-03	1.030199E-04
7.598988E+03	8.448663E-03	1.033194E-04
7.608908E+03	8.494803E-03	1.036094E-04
7.618828E+03	8.539748E-03	1.038896E-04
7.628749E+03	8.583069E-03	1.041553E-04
7.638669E+03	8.624423E-03	1.044031E-04
7.648589E+03	8.663449E-03	1.046291E-04
7.658510E+03	8.699886E-03	1.048310E-04
7.668430E+03	8.733230E-03	1.050034E-04
7.678351E+03	8.763084E-03	1.051422E-04
7.688271E+03	8.789167E-03	1.052448E-04
7.698191E+03	8.811087E-03	1.053072E-04
