#wls	flux	fluxerr
1.587256E+03	4.459857E-05	2.424707E-06
1.626937E+03	4.744371E-05	2.576984E-06
1.666619E+03	4.972854E-05	2.698500E-06
1.706300E+03	5.133619E-05	2.782998E-06
1.745982E+03	5.213872E-05	2.823648E-06
1.785663E+03	5.191968E-05	2.808868E-06
1.825344E+03	5.044017E-05	2.725920E-06
1.865026E+03	4.753913E-05	2.566331E-06
1.904707E+03	4.319883E-05	2.329408E-06
1.944389E+03	3.767398E-05	2.029151E-06
1.984070E+03	3.157351E-05	1.698565E-06
2.023751E+03	2.579718E-05	1.386131E-06
2.063433E+03	2.125479E-05	1.140638E-06
2.103114E+03	1.857283E-05	9.954373E-07
2.142795E+03	1.803866E-05	9.655407E-07
2.182477E+03	1.978071E-05	1.057363E-06
2.222158E+03	2.394475E-05	1.278184E-06
2.261840E+03	3.063911E-05	1.633220E-06
2.301521E+03	3.982201E-05	2.119639E-06
2.341202E+03	5.123949E-05	2.723313E-06
2.380884E+03	6.447697E-05	3.421648E-06
2.420565E+03	7.907375E-05	4.189712E-06
2.460247E+03	9.462675E-05	5.005761E-06
2.499928E+03	1.108268E-04	5.853127E-06
2.539609E+03	1.274435E-04	6.719401E-06
2.579291E+03	1.443637E-04	7.598404E-06
2.618972E+03	1.614979E-04	8.485251E-06
2.658654E+03	1.788169E-04	9.378240E-06
2.698335E+03	1.963192E-04	1.027712E-05
2.738016E+03	2.140481E-04	1.118399E-05
2.777698E+03	2.320312E-04	1.210009E-05
2.817379E+03	2.502660E-04	1.302511E-05
2.857061E+03	2.688427E-04	1.396351E-05
2.896742E+03	2.878234E-04	1.491828E-05
2.936423E+03	3.072683E-04	1.589226E-05
2.976105E+03	3.271973E-04	1.688618E-05
2.986025E+03	3.322522E-04	1.713759E-05
2.995946E+03	3.373538E-04	1.739108E-05
3.005866E+03	3.425020E-04	1.764661E-05
3.015786E+03	3.477203E-04	1.790541E-05
3.025707E+03	3.530579E-04	1.817000E-05
3.035627E+03	3.586832E-04	1.844903E-05
3.045547E+03	3.644973E-04	1.873737E-05
3.055468E+03	3.705162E-04	1.903584E-05
3.065388E+03	3.767586E-04	1.934537E-05
3.075308E+03	3.831277E-04	1.966099E-05
3.085229E+03	3.896837E-04	1.998575E-05
3.095149E+03	3.963706E-04	2.031677E-05
3.105069E+03	4.031723E-04	2.065320E-05
3.114990E+03	4.100738E-04	2.099427E-05
3.124910E+03	4.171011E-04	2.134130E-05
3.134830E+03	4.242010E-04	2.169155E-05
3.144751E+03	4.313605E-04	2.204434E-05
3.154671E+03	4.386092E-04	2.240118E-05
3.164591E+03	4.459364E-04	2.276151E-05
3.174512E+03	4.532907E-04	2.312270E-05
3.184432E+03	4.607043E-04	2.348639E-05
3.194353E+03	4.681686E-04	2.385211E-05
3.204273E+03	4.756758E-04	2.421948E-05
3.214193E+03	4.831762E-04	2.458595E-05
3.224114E+03	4.907052E-04	2.495332E-05
3.234034E+03	4.982995E-04	2.532346E-05
3.243954E+03	5.058682E-04	2.569173E-05
3.253875E+03	5.134920E-04	2.606222E-05
3.263795E+03	5.211236E-04	2.643254E-05
3.273715E+03	5.288023E-04	2.680466E-05
3.283636E+03	5.364381E-04	2.717402E-05
3.293556E+03	5.441578E-04	2.754705E-05
3.303476E+03	5.518290E-04	2.791703E-05
3.313397E+03	5.595797E-04	2.829043E-05
3.323317E+03	5.673213E-04	2.866276E-05
3.333237E+03	5.750960E-04	2.903616E-05
3.343158E+03	5.829026E-04	2.941055E-05
3.353078E+03	5.907405E-04	2.978590E-05
3.362998E+03	5.986092E-04	3.016217E-05
3.372919E+03	6.065522E-04	3.054156E-05
3.382839E+03	6.144823E-04	3.091965E-05
3.392760E+03	6.224870E-04	3.130086E-05
3.402680E+03	6.305667E-04	3.168518E-05
3.412600E+03	6.386788E-04	3.207046E-05
3.422521E+03	6.468673E-04	3.245891E-05
3.432441E+03	6.550901E-04	3.284841E-05
3.442361E+03	6.634349E-04	3.324333E-05
3.452282E+03	6.718162E-04	3.363939E-05
3.462202E+03	6.803220E-04	3.404097E-05
3.472122E+03	6.889107E-04	3.444599E-05
3.482043E+03	6.975835E-04	3.485448E-05
3.491963E+03	7.063846E-04	3.526864E-05
3.501883E+03	7.153160E-04	3.568856E-05
3.511804E+03	7.243367E-04	3.611216E-05
3.521724E+03	7.334902E-04	3.654161E-05
3.531644E+03	7.427791E-04	3.697702E-05
3.541565E+03	7.522045E-04	3.741841E-05
3.551485E+03	7.617683E-04	3.786587E-05
3.561405E+03	7.715138E-04	3.832152E-05
3.571326E+03	7.814009E-04	3.878336E-05
3.581246E+03	7.914312E-04	3.925143E-05
3.591167E+03	8.016888E-04	3.972989E-05
3.601087E+03	8.120936E-04	4.021474E-05
3.611007E+03	8.226871E-04	4.070801E-05
3.620928E+03	8.335118E-04	4.121178E-05
3.630848E+03	8.444881E-04	4.172208E-05
3.640768E+03	8.556978E-04	4.224293E-05
3.650689E+03	8.671427E-04	4.277439E-05
3.660609E+03	8.787832E-04	4.331446E-05
3.670529E+03	8.907017E-04	4.386718E-05
3.680450E+03	9.028178E-04	4.442857E-05
3.690370E+03	9.151734E-04	4.500064E-05
3.700290E+03	9.277701E-04	4.558344E-05
3.710211E+03	9.406474E-04	4.617889E-05
3.720131E+03	9.537672E-04	4.678506E-05
3.730051E+03	9.671708E-04	4.740396E-05
3.739972E+03	9.808584E-04	4.803554E-05
3.749892E+03	9.947910E-04	4.867787E-05
3.759812E+03	1.009050E-03	4.933490E-05
3.769733E+03	1.023597E-03	5.000464E-05
3.779653E+03	1.038431E-03	5.068712E-05
3.789574E+03	1.053556E-03	5.138239E-05
3.799494E+03	1.069011E-03	5.209235E-05
3.809414E+03	1.084759E-03	5.281515E-05
3.819335E+03	1.100840E-03	5.355272E-05
3.829255E+03	1.117295E-03	5.430696E-05
3.839175E+03	1.134049E-03	5.507416E-05
3.849096E+03	1.151143E-03	5.585631E-05
3.859016E+03	1.168579E-03	5.665348E-05
3.868936E+03	1.186360E-03	5.746569E-05
3.878857E+03	1.204528E-03	5.829499E-05
3.888777E+03	1.223049E-03	5.913964E-05
3.898697E+03	1.241926E-03	5.999972E-05
3.908618E+03	1.261203E-03	6.087734E-05
3.918538E+03	1.280845E-03	6.177075E-05
3.928458E+03	1.300898E-03	6.268209E-05
3.938379E+03	1.321366E-03	6.361151E-05
3.948299E+03	1.342220E-03	6.455751E-05
3.958219E+03	1.363504E-03	6.552221E-05
3.968140E+03	1.385189E-03	6.650411E-05
3.978060E+03	1.407321E-03	6.750539E-05
3.987981E+03	1.429911E-03	6.852646E-05
3.997901E+03	1.452930E-03	6.956594E-05
4.007821E+03	1.476427E-03	7.062606E-05
4.017742E+03	1.500341E-03	7.170382E-05
4.027662E+03	1.524795E-03	7.280503E-05
4.037582E+03	1.549692E-03	7.392500E-05
4.047503E+03	1.575120E-03	7.506786E-05
4.057423E+03	1.601019E-03	7.623067E-05
4.067343E+03	1.627480E-03	7.741767E-05
4.077264E+03	1.654446E-03	7.862607E-05
4.087184E+03	1.681933E-03	7.985658E-05
4.097104E+03	1.709995E-03	8.111167E-05
4.107025E+03	1.738577E-03	8.238867E-05
4.116945E+03	1.767772E-03	8.369184E-05
4.126865E+03	1.797525E-03	8.501849E-05
4.136786E+03	1.827819E-03	8.636777E-05
4.146706E+03	1.858746E-03	8.774394E-05
4.156626E+03	1.890252E-03	8.914437E-05
4.166547E+03	1.922357E-03	9.056984E-05
4.176467E+03	1.955080E-03	9.202120E-05
4.186387E+03	1.988403E-03	9.349750E-05
4.196308E+03	2.022345E-03	9.499955E-05
4.206228E+03	2.056886E-03	9.652636E-05
4.216149E+03	2.092008E-03	9.807687E-05
4.226069E+03	2.127727E-03	9.965184E-05
4.235989E+03	2.164057E-03	1.012518E-04
4.245910E+03	2.200941E-03	1.028740E-04
4.255830E+03	2.238391E-03	1.045189E-04
4.265750E+03	2.276421E-03	1.061870E-04
4.275671E+03	2.314927E-03	1.078735E-04
4.285591E+03	2.353958E-03	1.095805E-04
4.295511E+03	2.393446E-03	1.113047E-04
4.305432E+03	2.433396E-03	1.130465E-04
4.315352E+03	2.473740E-03	1.148024E-04
4.325272E+03	2.514439E-03	1.165706E-04
4.335193E+03	2.555420E-03	1.183477E-04
4.345113E+03	2.596716E-03	1.201352E-04
4.355033E+03	2.638170E-03	1.219258E-04
4.364954E+03	2.679769E-03	1.237187E-04
4.374874E+03	2.721412E-03	1.255095E-04
4.384794E+03	2.763035E-03	1.272950E-04
4.394715E+03	2.804493E-03	1.290685E-04
4.404635E+03	2.845752E-03	1.308286E-04
4.414556E+03	2.886700E-03	1.325701E-04
4.424476E+03	2.927298E-03	1.342913E-04
4.434396E+03	2.967504E-03	1.359903E-04
4.444317E+03	3.007279E-03	1.376653E-04
4.454237E+03	3.046620E-03	1.393163E-04
4.464157E+03	3.085445E-03	1.409395E-04
4.474078E+03	3.123787E-03	1.425366E-04
4.483998E+03	3.161564E-03	1.441039E-04
4.493918E+03	3.198775E-03	1.456412E-04
4.503839E+03	3.235374E-03	1.471468E-04
4.513759E+03	3.271321E-03	1.486188E-04
4.523679E+03	3.306614E-03	1.500572E-04
4.533600E+03	3.341216E-03	1.514604E-04
4.543520E+03	3.375090E-03	1.528269E-04
4.553440E+03	3.408240E-03	1.541568E-04
4.563361E+03	3.440636E-03	1.554490E-04
4.573281E+03	3.472207E-03	1.567004E-04
4.583201E+03	3.503009E-03	1.579136E-04
4.593122E+03	3.533019E-03	1.590876E-04
4.603042E+03	3.562220E-03	1.602218E-04
4.612963E+03	3.590596E-03	1.613156E-04
4.622883E+03	3.618176E-03	1.623705E-04
4.632803E+03	3.644999E-03	1.633883E-04
4.642724E+03	3.671017E-03	1.643668E-04
4.652644E+03	3.696318E-03	1.653103E-04
4.662564E+03	3.720950E-03	1.662209E-04
4.672485E+03	3.744837E-03	1.670954E-04
4.682405E+03	3.768166E-03	1.679421E-04
4.692325E+03	3.790869E-03	1.687581E-04
4.702246E+03	3.813009E-03	1.695463E-04
4.712166E+03	3.834654E-03	1.703099E-04
4.722086E+03	3.855792E-03	1.710483E-04
4.732007E+03	3.876452E-03	1.717630E-04
4.741927E+03	3.896584E-03	1.724517E-04
4.751847E+03	3.916264E-03	1.731180E-04
4.761768E+03	3.935575E-03	1.737654E-04
4.771688E+03	3.954600E-03	1.743978E-04
4.781608E+03	3.973377E-03	1.750169E-04
4.791529E+03	3.991995E-03	1.756266E-04
4.801449E+03	4.010451E-03	1.762268E-04
4.811370E+03	4.028789E-03	1.768194E-04
4.821290E+03	4.047051E-03	1.774064E-04
4.831210E+03	4.065236E-03	1.779876E-04
4.841131E+03	4.083429E-03	1.785668E-04
4.851051E+03	4.101624E-03	1.791438E-04
4.860971E+03	4.119906E-03	1.797222E-04
4.870892E+03	4.138267E-03	1.803017E-04
4.880812E+03	4.156742E-03	1.808837E-04
4.890732E+03	4.175407E-03	1.814716E-04
4.900653E+03	4.194247E-03	1.820647E-04
4.910573E+03	4.213334E-03	1.826660E-04
4.920493E+03	4.232688E-03	1.832764E-04
4.930414E+03	4.252331E-03	1.838968E-04
4.940334E+03	4.272279E-03	1.845279E-04
4.950254E+03	4.292588E-03	1.851719E-04
4.960175E+03	4.313266E-03	1.858292E-04
4.970095E+03	4.334314E-03	1.864998E-04
4.980015E+03	4.355778E-03	1.871856E-04
4.989936E+03	4.377560E-03	1.878823E-04
4.999856E+03	4.399782E-03	1.885950E-04
5.009777E+03	4.422384E-03	1.893212E-04
5.019697E+03	4.445344E-03	1.900598E-04
5.029617E+03	4.468677E-03	1.908114E-04
5.039538E+03	4.492304E-03	1.915726E-04
5.049458E+03	4.516230E-03	1.923436E-04
5.059378E+03	4.540412E-03	1.931224E-04
5.069299E+03	4.564843E-03	1.939087E-04
5.079219E+03	4.589419E-03	1.946981E-04
5.089139E+03	4.614124E-03	1.954899E-04
5.099060E+03	4.638843E-03	1.962792E-04
5.108980E+03	4.663547E-03	1.970647E-04
5.118900E+03	4.688160E-03	1.978433E-04
5.128821E+03	4.712596E-03	1.986113E-04
5.138741E+03	4.736816E-03	1.993672E-04
5.148661E+03	4.760629E-03	2.001029E-04
5.158582E+03	4.784040E-03	2.008188E-04
5.168502E+03	4.806851E-03	2.015065E-04
5.178422E+03	4.829060E-03	2.021662E-04
5.188343E+03	4.850564E-03	2.027936E-04
5.198263E+03	4.871166E-03	2.033806E-04
5.208183E+03	4.890859E-03	2.039272E-04
5.218104E+03	4.909495E-03	2.044272E-04
5.228024E+03	4.926974E-03	2.048767E-04
5.237945E+03	4.943253E-03	2.052742E-04
5.247865E+03	4.958135E-03	2.056116E-04
5.257785E+03	4.971588E-03	2.058880E-04
5.267706E+03	4.983578E-03	2.061021E-04
5.277626E+03	4.993880E-03	2.062449E-04
5.287546E+03	5.002580E-03	2.063202E-04
5.297467E+03	5.009516E-03	2.063218E-04
5.307387E+03	5.014689E-03	2.062498E-04
5.317307E+03	5.018062E-03	2.061032E-04
5.327228E+03	5.019501E-03	2.058766E-04
5.337148E+03	5.019088E-03	2.055740E-04
5.347068E+03	5.016817E-03	2.051952E-04
5.356989E+03	5.012587E-03	2.047367E-04
5.366909E+03	5.006567E-03	2.042054E-04
5.376829E+03	4.998679E-03	2.035987E-04
5.386750E+03	4.989014E-03	2.029205E-04
5.396670E+03	4.977664E-03	2.021750E-04
5.406590E+03	4.964738E-03	2.013667E-04
5.416511E+03	4.950356E-03	2.005010E-04
5.426431E+03	4.934641E-03	1.995830E-04
5.436352E+03	4.917828E-03	1.986224E-04
5.446272E+03	4.900010E-03	1.976231E-04
5.456192E+03	4.881386E-03	1.965934E-04
5.466113E+03	4.861928E-03	1.955322E-04
5.476033E+03	4.841861E-03	1.944488E-04
5.485953E+03	4.821121E-03	1.933407E-04
5.495874E+03	4.799846E-03	1.922134E-04
5.505794E+03	4.778180E-03	1.910729E-04
5.515714E+03	4.756120E-03	1.899191E-04
5.525635E+03	4.733864E-03	1.887599E-04
5.535555E+03	4.711559E-03	1.876013E-04
5.545475E+03	4.689353E-03	1.864491E-04
5.555396E+03	4.667299E-03	1.853055E-04
5.565316E+03	4.645635E-03	1.841797E-04
5.575236E+03	4.624457E-03	1.830757E-04
5.585157E+03	4.603955E-03	1.820008E-04
5.595077E+03	4.584214E-03	1.809582E-04
5.604997E+03	4.565417E-03	1.799550E-04
5.614918E+03	4.547641E-03	1.789941E-04
5.624838E+03	4.531056E-03	1.780820E-04
5.634759E+03	4.515729E-03	1.772211E-04
5.644679E+03	4.501866E-03	1.764193E-04
5.654599E+03	4.489473E-03	1.756766E-04
5.664520E+03	4.478743E-03	1.750002E-04
5.674440E+03	4.469670E-03	1.743898E-04
5.684360E+03	4.462429E-03	1.738516E-04
5.694281E+03	4.457049E-03	1.733867E-04
5.704201E+03	4.453642E-03	1.729990E-04
5.714121E+03	4.452226E-03	1.726889E-04
5.724042E+03	4.452855E-03	1.724582E-04
5.733962E+03	4.455616E-03	1.723098E-04
5.743882E+03	4.460507E-03	1.722433E-04
5.753803E+03	4.467600E-03	1.722613E-04
5.763723E+03	4.476924E-03	1.723643E-04
5.773643E+03	4.488448E-03	1.725508E-04
5.783564E+03	4.502231E-03	1.728227E-04
5.793484E+03	4.518273E-03	1.731797E-04
5.803404E+03	4.536531E-03	1.736197E-04
5.813325E+03	4.556992E-03	1.741418E-04
5.823245E+03	4.579730E-03	1.747485E-04
5.833166E+03	4.604632E-03	1.754351E-04
5.843086E+03	4.631670E-03	1.762002E-04
5.853006E+03	4.660850E-03	1.770437E-04
5.862927E+03	4.692088E-03	1.779620E-04
5.872847E+03	4.725380E-03	1.789545E-04
5.882767E+03	4.760572E-03	1.800153E-04
5.892688E+03	4.797699E-03	1.811452E-04
5.902608E+03	4.836644E-03	1.823396E-04
5.912528E+03	4.877325E-03	1.835950E-04
5.922449E+03	4.919614E-03	1.849064E-04
5.932369E+03	4.963466E-03	1.862718E-04
5.942289E+03	5.008729E-03	1.876853E-04
5.952210E+03	5.055349E-03	1.891446E-04
5.962130E+03	5.103108E-03	1.906414E-04
5.972050E+03	5.151931E-03	1.921727E-04
5.981971E+03	5.201633E-03	1.937316E-04
5.991891E+03	5.252077E-03	1.953126E-04
6.001811E+03	5.303055E-03	1.969081E-04
6.011732E+03	5.354464E-03	1.985141E-04
6.021652E+03	5.406081E-03	2.001224E-04
6.031573E+03	5.457679E-03	2.017246E-04
6.041493E+03	5.509071E-03	2.033137E-04
6.051413E+03	5.560012E-03	2.048809E-04
6.061334E+03	5.610303E-03	2.064188E-04
6.071254E+03	5.659735E-03	2.079201E-04
6.081174E+03	5.707985E-03	2.093730E-04
6.091095E+03	5.754893E-03	2.107718E-04
6.101015E+03	5.800237E-03	2.121088E-04
6.110935E+03	5.843684E-03	2.133721E-04
6.120856E+03	5.885063E-03	2.145559E-04
6.130776E+03	5.924159E-03	2.156525E-04
6.140696E+03	5.960691E-03	2.166524E-04
6.150617E+03	5.994566E-03	2.175525E-04
6.160537E+03	6.025575E-03	2.183458E-04
6.170457E+03	6.053529E-03	2.190259E-04
6.180378E+03	6.078234E-03	2.195865E-04
6.190298E+03	6.099584E-03	2.200242E-04
6.200218E+03	6.117421E-03	2.203339E-04
6.210139E+03	6.131598E-03	2.205110E-04
6.220059E+03	6.141993E-03	2.205518E-04
6.229979E+03	6.148563E-03	2.204553E-04
6.239900E+03	6.151288E-03	2.202215E-04
6.249820E+03	6.150041E-03	2.198465E-04
6.259741E+03	6.144847E-03	2.193318E-04
6.269661E+03	6.135625E-03	2.186754E-04
6.279581E+03	6.122513E-03	2.178826E-04
6.289502E+03	6.105473E-03	2.169529E-04
6.299422E+03	6.084567E-03	2.158891E-04
6.309342E+03	6.059872E-03	2.146946E-04
6.319263E+03	6.031553E-03	2.133758E-04
6.329183E+03	5.999610E-03	2.119332E-04
6.339103E+03	5.964310E-03	2.103770E-04
6.349024E+03	5.925756E-03	2.087112E-04
6.358944E+03	5.884133E-03	2.069430E-04
6.368864E+03	5.839632E-03	2.050794E-04
6.378785E+03	5.792413E-03	2.031265E-04
6.388705E+03	5.742693E-03	2.010924E-04
6.398625E+03	5.690713E-03	1.989858E-04
6.408546E+03	5.636713E-03	1.968155E-04
6.418466E+03	5.580938E-03	1.945903E-04
6.428386E+03	5.523582E-03	1.923171E-04
6.438307E+03	5.464900E-03	1.900049E-04
6.448227E+03	5.405080E-03	1.876604E-04
6.458148E+03	5.344485E-03	1.852963E-04
6.468068E+03	5.283354E-03	1.829208E-04
6.477988E+03	5.221800E-03	1.805379E-04
6.487909E+03	5.160191E-03	1.781603E-04
6.497829E+03	5.098626E-03	1.757913E-04
6.507749E+03	5.037360E-03	1.734397E-04
6.517670E+03	4.976476E-03	1.711082E-04
6.527590E+03	4.916152E-03	1.688027E-04
6.537510E+03	4.856568E-03	1.665293E-04
6.547431E+03	4.797830E-03	1.642915E-04
6.557351E+03	4.740100E-03	1.620946E-04
6.567271E+03	4.683473E-03	1.599417E-04
6.577192E+03	4.628100E-03	1.578378E-04
6.587112E+03	4.574065E-03	1.557853E-04
6.597032E+03	4.521497E-03	1.537887E-04
6.606953E+03	4.470425E-03	1.518484E-04
6.616873E+03	4.421019E-03	1.499702E-04
6.626793E+03	4.373291E-03	1.481540E-04
6.636714E+03	4.327353E-03	1.464035E-04
6.646634E+03	4.283309E-03	1.447218E-04
6.656555E+03	4.241109E-03	1.431070E-04
6.666475E+03	4.200944E-03	1.415652E-04
6.676395E+03	4.162764E-03	1.400945E-04
6.686316E+03	4.126647E-03	1.386972E-04
6.696236E+03	4.092677E-03	1.373758E-04
6.706156E+03	4.060834E-03	1.361293E-04
6.716077E+03	4.031149E-03	1.349585E-04
6.725997E+03	4.003687E-03	1.338652E-04
6.735917E+03	3.978515E-03	1.328513E-04
6.745838E+03	3.955557E-03	1.319141E-04
6.755758E+03	3.934872E-03	1.310551E-04
6.765678E+03	3.916519E-03	1.302760E-04
6.775599E+03	3.900454E-03	1.295751E-04
6.785519E+03	3.886691E-03	1.289525E-04
6.795439E+03	3.875273E-03	1.284093E-04
6.805360E+03	3.866160E-03	1.279439E-04
6.815280E+03	3.859438E-03	1.275589E-04
6.825200E+03	3.854968E-03	1.272492E-04
6.835121E+03	3.852885E-03	1.270192E-04
6.845041E+03	3.853136E-03	1.268668E-04
6.854962E+03	3.855659E-03	1.267896E-04
6.864882E+03	3.860496E-03	1.267887E-04
6.874802E+03	3.867633E-03	1.268634E-04
6.884723E+03	3.877098E-03	1.270144E-04
6.894643E+03	3.888782E-03	1.272377E-04
6.904563E+03	3.902714E-03	1.275341E-04
6.914484E+03	3.918871E-03	1.279026E-04
6.924404E+03	3.937226E-03	1.283419E-04
6.934324E+03	3.957759E-03	1.288513E-04
6.944245E+03	3.980389E-03	1.294278E-04
6.954165E+03	4.005180E-03	1.300733E-04
6.964085E+03	4.032052E-03	1.307849E-04
6.974006E+03	4.060920E-03	1.315597E-04
6.983926E+03	4.091795E-03	1.323978E-04
6.993846E+03	4.124630E-03	1.332974E-04
7.003767E+03	4.159386E-03	1.342572E-04
7.013687E+03	4.196011E-03	1.352752E-04
7.023607E+03	4.234407E-03	1.363482E-04
7.033528E+03	4.274520E-03	1.374741E-04
7.043448E+03	4.316342E-03	1.386526E-04
7.053369E+03	4.359820E-03	1.398818E-04
7.063289E+03	4.404779E-03	1.411561E-04
7.073209E+03	4.451271E-03	1.424768E-04
7.083130E+03	4.499168E-03	1.438398E-04
7.093050E+03	4.548407E-03	1.452430E-04
7.102970E+03	4.598916E-03	1.466840E-04
7.112891E+03	4.650623E-03	1.481605E-04
7.122811E+03	4.703456E-03	1.496700E-04
7.132731E+03	4.757285E-03	1.512083E-04
7.142652E+03	4.812030E-03	1.527729E-04
7.152572E+03	4.867681E-03	1.543635E-04
7.162492E+03	4.924163E-03	1.559777E-04
7.172413E+03	4.981284E-03	1.576093E-04
7.182333E+03	5.039026E-03	1.592578E-04
7.192253E+03	5.097328E-03	1.609213E-04
7.202174E+03	5.156112E-03	1.625974E-04
7.212094E+03	5.215258E-03	1.642823E-04
7.222014E+03	5.274696E-03	1.659739E-04
7.231935E+03	5.334433E-03	1.676725E-04
7.241855E+03	5.394283E-03	1.693724E-04
7.251775E+03	5.454263E-03	1.710741E-04
7.261696E+03	5.514321E-03	1.727761E-04
7.271616E+03	5.574276E-03	1.744729E-04
7.281537E+03	5.634232E-03	1.761679E-04
7.291457E+03	5.694013E-03	1.778556E-04
7.301377E+03	5.753587E-03	1.795353E-04
7.311298E+03	5.812851E-03	1.812039E-04
7.321218E+03	5.871866E-03	1.828634E-04
7.331138E+03	5.930453E-03	1.845084E-04
7.341059E+03	5.988528E-03	1.861366E-04
7.350979E+03	6.046149E-03	1.877498E-04
7.360899E+03	6.103150E-03	1.893432E-04
7.370820E+03	6.159446E-03	1.909143E-04
7.380740E+03	6.215019E-03	1.924627E-04
7.390660E+03	6.269948E-03	1.939913E-04
7.400581E+03	6.324303E-03	1.955022E-04
7.410501E+03	6.378083E-03	1.969958E-04
7.420421E+03	6.431367E-03	1.984746E-04
7.430342E+03	6.484150E-03	1.999388E-04
7.440262E+03	6.536503E-03	2.013907E-04
7.450182E+03	6.588338E-03	2.028278E-04
7.460103E+03	6.639803E-03	2.042549E-04
7.470023E+03	6.690796E-03	2.056692E-04
7.479944E+03	6.741373E-03	2.070725E-04
7.489864E+03	6.791503E-03	2.084642E-04
7.499784E+03	6.841225E-03	2.098456E-04
7.509705E+03	6.890307E-03	2.112098E-04
7.519625E+03	6.938869E-03	2.125609E-04
7.529545E+03	6.986737E-03	2.138936E-04
7.539466E+03	7.033921E-03	2.152087E-04
7.549386E+03	7.080315E-03	2.165031E-04
7.559306E+03	7.125809E-03	2.177737E-04
7.569227E+03	7.170183E-03	2.190140E-04
7.579147E+03	7.213483E-03	2.202257E-04
7.589067E+03	7.255463E-03	2.214017E-04
7.598988E+03	7.296055E-03	2.225401E-04
7.608908E+03	7.334886E-03	2.236298E-04
7.618828E+03	7.371958E-03	2.246712E-04
7.628749E+03	7.407071E-03	2.256585E-04
7.638669E+03	7.439916E-03	2.265826E-04
7.648589E+03	7.470370E-03	2.274400E-04
7.658510E+03	7.498109E-03	2.282211E-04
7.668430E+03	7.522997E-03	2.289222E-04
7.678351E+03	7.544697E-03	2.295332E-04
7.688271E+03	7.563074E-03	2.300502E-04
7.698191E+03	7.577890E-03	2.304664E-04
