#wls	flux	fluxerr
1.587256E+03	3.748322E-05	2.485332E-06
1.626937E+03	3.997042E-05	2.649453E-06
1.666619E+03	4.199784E-05	2.782983E-06
1.706300E+03	4.346360E-05	2.879199E-06
1.745982E+03	4.426301E-05	2.931199E-06
1.785663E+03	4.418367E-05	2.924966E-06
1.825344E+03	4.303881E-05	2.848194E-06
1.865026E+03	4.067407E-05	2.690749E-06
1.904707E+03	3.706415E-05	2.451047E-06
1.944389E+03	3.241188E-05	2.142591E-06
1.984070E+03	2.724475E-05	1.800325E-06
2.023751E+03	2.232554E-05	1.474682E-06
2.063433E+03	1.845048E-05	1.218226E-06
2.103114E+03	1.617368E-05	1.067451E-06
2.142795E+03	1.575818E-05	1.039583E-06
2.182477E+03	1.733768E-05	1.143281E-06
2.222158E+03	2.105782E-05	1.387967E-06
2.261840E+03	2.704112E-05	1.781513E-06
2.301521E+03	3.527885E-05	2.323121E-06
2.341202E+03	4.556280E-05	2.998854E-06
2.380884E+03	5.755445E-05	3.786220E-06
2.420565E+03	7.087770E-05	4.660288E-06
2.460247E+03	8.518723E-05	5.598194E-06
2.499928E+03	1.002263E-04	6.582937E-06
2.539609E+03	1.157930E-04	7.601130E-06
2.579291E+03	1.318178E-04	8.648127E-06
2.618972E+03	1.482046E-04	9.717512E-06
2.658654E+03	1.649641E-04	1.080991E-05
2.698335E+03	1.821203E-04	1.192678E-05
2.738016E+03	1.996903E-04	1.306915E-05
2.777698E+03	2.177512E-04	1.424197E-05
2.817379E+03	2.363083E-04	1.544543E-05
2.857061E+03	2.554791E-04	1.668710E-05
2.896742E+03	2.753000E-04	1.796921E-05
2.936423E+03	2.958013E-04	1.929357E-05
2.976105E+03	3.171102E-04	2.066831E-05
2.986025E+03	3.225911E-04	2.102164E-05
2.995946E+03	3.280854E-04	2.137568E-05
3.005866E+03	3.336635E-04	2.173503E-05
3.015786E+03	3.393140E-04	2.209892E-05
3.025707E+03	3.451227E-04	2.247296E-05
3.035627E+03	3.512180E-04	2.286549E-05
3.045547E+03	3.575431E-04	2.327279E-05
3.055468E+03	3.640780E-04	2.369357E-05
3.065388E+03	3.708039E-04	2.412658E-05
3.075308E+03	3.777414E-04	2.457316E-05
3.085229E+03	3.848364E-04	2.502978E-05
3.095149E+03	3.921122E-04	2.549795E-05
3.105069E+03	3.995156E-04	2.597419E-05
3.114990E+03	4.070325E-04	2.645759E-05
3.124910E+03	4.146897E-04	2.694988E-05
3.134830E+03	4.224758E-04	2.745031E-05
3.144751E+03	4.303390E-04	2.795552E-05
3.154671E+03	4.382680E-04	2.846476E-05
3.164591E+03	4.463360E-04	2.898278E-05
3.174512E+03	4.544087E-04	2.950085E-05
3.184432E+03	4.626033E-04	3.002659E-05
3.194353E+03	4.708276E-04	3.055399E-05
3.204273E+03	4.791167E-04	3.108534E-05
3.214193E+03	4.874206E-04	3.161738E-05
3.224114E+03	4.958204E-04	3.215537E-05
3.234034E+03	5.042230E-04	3.269328E-05
3.243954E+03	5.126672E-04	3.323361E-05
3.253875E+03	5.211036E-04	3.377316E-05
3.263795E+03	5.296182E-04	3.431750E-05
3.273715E+03	5.381627E-04	3.486348E-05
3.283636E+03	5.466881E-04	3.540795E-05
3.293556E+03	5.552834E-04	3.595666E-05
3.303476E+03	5.638543E-04	3.650349E-05
3.313397E+03	5.724914E-04	3.705432E-05
3.323317E+03	5.811471E-04	3.760605E-05
3.333237E+03	5.898200E-04	3.815860E-05
3.343158E+03	5.984619E-04	3.870884E-05
3.353078E+03	6.072142E-04	3.926591E-05
3.362998E+03	6.159344E-04	3.982060E-05
3.372919E+03	6.247175E-04	4.037904E-05
3.382839E+03	6.335160E-04	4.093817E-05
3.392760E+03	6.423300E-04	4.149798E-05
3.402680E+03	6.511600E-04	4.205850E-05
3.412600E+03	6.600549E-04	4.262289E-05
3.422521E+03	6.690159E-04	4.319122E-05
3.432441E+03	6.779951E-04	4.376039E-05
3.442361E+03	6.869933E-04	4.433046E-05
3.452282E+03	6.960604E-04	4.490464E-05
3.462202E+03	7.051977E-04	4.548300E-05
3.472122E+03	7.143573E-04	4.606244E-05
3.482043E+03	7.235885E-04	4.664616E-05
3.491963E+03	7.328446E-04	4.723113E-05
3.501883E+03	7.422240E-04	4.782369E-05
3.511804E+03	7.516299E-04	4.841758E-05
3.521724E+03	7.610624E-04	4.901283E-05
3.531644E+03	7.706225E-04	4.961592E-05
3.541565E+03	7.802599E-04	5.022361E-05
3.551485E+03	7.899272E-04	5.083284E-05
3.561405E+03	7.997236E-04	5.144999E-05
3.571326E+03	8.095500E-04	5.206868E-05
3.581246E+03	8.195063E-04	5.269532E-05
3.591167E+03	8.294933E-04	5.332354E-05
3.601087E+03	8.396108E-04	5.395973E-05
3.611007E+03	8.498083E-04	5.460065E-05
3.620928E+03	8.600856E-04	5.524628E-05
3.630848E+03	8.704419E-04	5.589656E-05
3.640768E+03	8.809271E-04	5.655468E-05
3.650689E+03	8.914895E-04	5.721732E-05
3.660609E+03	9.021286E-04	5.788444E-05
3.670529E+03	9.128430E-04	5.855594E-05
3.680450E+03	9.236807E-04	5.923490E-05
3.690370E+03	9.345902E-04	5.991799E-05
3.700290E+03	9.456188E-04	6.060826E-05
3.710211E+03	9.567151E-04	6.130238E-05
3.720131E+03	9.679264E-04	6.200340E-05
3.730051E+03	9.791990E-04	6.270785E-05
3.739972E+03	9.905311E-04	6.341562E-05
3.749892E+03	1.002018E-03	6.413282E-05
3.759812E+03	1.013508E-03	6.484970E-05
3.769733E+03	1.025146E-03	6.557553E-05
3.779653E+03	1.036828E-03	6.630367E-05
3.789574E+03	1.048601E-03	6.703711E-05
3.799494E+03	1.060410E-03	6.777230E-05
3.809414E+03	1.072300E-03	6.851214E-05
3.819335E+03	1.084218E-03	6.925323E-05
3.829255E+03	1.096256E-03	7.000148E-05
3.839175E+03	1.108313E-03	7.075034E-05
3.849096E+03	1.120383E-03	7.149949E-05
3.859016E+03	1.132559E-03	7.225488E-05
3.868936E+03	1.144739E-03	7.300989E-05
3.878857E+03	1.156918E-03	7.376430E-05
3.888777E+03	1.169141E-03	7.452100E-05
3.898697E+03	1.181404E-03	7.527960E-05
3.908618E+03	1.193704E-03	7.603999E-05
3.918538E+03	1.205989E-03	7.679886E-05
3.928458E+03	1.218305E-03	7.755911E-05
3.938379E+03	1.230604E-03	7.831765E-05
3.948299E+03	1.242932E-03	7.907749E-05
3.958219E+03	1.255242E-03	7.983559E-05
3.968140E+03	1.267587E-03	8.059528E-05
3.978060E+03	1.279920E-03	8.135360E-05
3.987981E+03	1.292247E-03	8.211095E-05
3.997901E+03	1.304623E-03	8.287076E-05
4.007821E+03	1.317008E-03	8.363059E-05
4.017742E+03	1.329415E-03	8.439115E-05
4.027662E+03	1.341902E-03	8.515616E-05
4.037582E+03	1.354389E-03	8.592055E-05
4.047503E+03	1.366942E-03	8.668847E-05
4.057423E+03	1.379578E-03	8.746105E-05
4.067343E+03	1.392319E-03	8.823961E-05
4.077264E+03	1.405187E-03	8.902557E-05
4.087184E+03	1.418162E-03	8.981762E-05
4.097104E+03	1.431315E-03	9.062032E-05
4.107025E+03	1.444676E-03	9.143547E-05
4.116945E+03	1.458182E-03	9.225913E-05
4.126865E+03	1.471958E-03	9.309911E-05
4.136786E+03	1.485989E-03	9.395454E-05
4.146706E+03	1.500310E-03	9.482754E-05
4.156626E+03	1.514909E-03	9.571737E-05
4.166547E+03	1.529915E-03	9.663212E-05
4.176467E+03	1.545223E-03	9.756520E-05
4.186387E+03	1.561008E-03	9.852761E-05
4.196308E+03	1.577170E-03	9.951292E-05
4.206228E+03	1.593835E-03	1.005291E-04
4.216149E+03	1.610990E-03	1.015754E-04
4.226069E+03	1.628672E-03	1.026539E-04
4.235989E+03	1.646867E-03	1.037638E-04
4.245910E+03	1.665652E-03	1.049100E-04
4.255830E+03	1.685013E-03	1.060914E-04
4.265750E+03	1.704977E-03	1.073098E-04
4.275671E+03	1.725616E-03	1.085696E-04
4.285591E+03	1.746861E-03	1.098664E-04
4.295511E+03	1.768780E-03	1.112045E-04
4.305432E+03	1.791392E-03	1.125850E-04
4.315352E+03	1.814663E-03	1.140058E-04
4.325272E+03	1.838607E-03	1.154675E-04
4.335193E+03	1.863231E-03	1.169707E-04
4.345113E+03	1.888538E-03	1.185155E-04
4.355033E+03	1.914528E-03	1.201018E-04
4.364954E+03	1.941152E-03	1.217264E-04
4.374874E+03	1.968399E-03	1.233887E-04
4.384794E+03	1.996303E-03	1.250908E-04
4.394715E+03	2.024800E-03	1.268285E-04
4.404635E+03	2.053862E-03	1.286001E-04
4.414556E+03	2.083412E-03	1.304007E-04
4.424476E+03	2.113460E-03	1.322309E-04
4.434396E+03	2.143914E-03	1.340848E-04
4.444317E+03	2.174770E-03	1.359623E-04
4.454237E+03	2.205922E-03	1.378566E-04
4.464157E+03	2.237309E-03	1.397639E-04
4.474078E+03	2.268809E-03	1.416766E-04
4.483998E+03	2.300449E-03	1.435964E-04
4.493918E+03	2.332049E-03	1.455119E-04
4.503839E+03	2.363525E-03	1.474180E-04
4.513759E+03	2.394844E-03	1.493126E-04
4.523679E+03	2.425871E-03	1.511872E-04
4.533600E+03	2.456517E-03	1.530364E-04
4.543520E+03	2.486701E-03	1.548552E-04
4.553440E+03	2.516394E-03	1.566417E-04
4.563361E+03	2.545413E-03	1.583847E-04
4.573281E+03	2.573742E-03	1.600831E-04
4.583201E+03	2.601319E-03	1.617331E-04
4.593122E+03	2.628034E-03	1.633280E-04
4.603042E+03	2.653897E-03	1.648685E-04
4.612963E+03	2.678872E-03	1.663524E-04
4.622883E+03	2.702881E-03	1.677748E-04
4.632803E+03	2.725966E-03	1.691385E-04
4.642724E+03	2.748070E-03	1.704400E-04
4.652644E+03	2.769255E-03	1.716833E-04
4.662564E+03	2.789490E-03	1.728664E-04
4.672485E+03	2.808804E-03	1.739913E-04
4.682405E+03	2.827289E-03	1.750637E-04
4.692325E+03	2.844941E-03	1.760833E-04
4.702246E+03	2.861870E-03	1.770572E-04
4.712166E+03	2.878084E-03	1.779859E-04
4.722086E+03	2.893650E-03	1.788734E-04
4.732007E+03	2.908694E-03	1.797278E-04
4.741927E+03	2.923236E-03	1.805501E-04
4.751847E+03	2.937410E-03	1.813489E-04
4.761768E+03	2.951236E-03	1.821252E-04
4.771688E+03	2.964792E-03	1.828840E-04
4.781608E+03	2.978268E-03	1.836371E-04
4.791529E+03	2.991576E-03	1.843789E-04
4.801449E+03	3.004953E-03	1.851241E-04
4.811370E+03	3.018363E-03	1.858705E-04
4.821290E+03	3.031933E-03	1.866259E-04
4.831210E+03	3.045730E-03	1.873943E-04
4.841131E+03	3.059820E-03	1.881800E-04
4.851051E+03	3.074212E-03	1.889833E-04
4.860971E+03	3.089076E-03	1.898147E-04
4.870892E+03	3.104364E-03	1.906712E-04
4.880812E+03	3.120242E-03	1.915630E-04
4.890732E+03	3.136710E-03	1.924900E-04
4.900653E+03	3.153823E-03	1.934556E-04
4.910573E+03	3.171631E-03	1.944628E-04
4.920493E+03	3.190245E-03	1.955182E-04
4.930414E+03	3.209656E-03	1.966214E-04
4.940334E+03	3.229969E-03	1.977786E-04
4.950254E+03	3.251173E-03	1.989892E-04
4.960175E+03	3.273372E-03	2.002594E-04
4.970095E+03	3.296607E-03	2.015916E-04
4.980015E+03	3.320858E-03	2.029846E-04
4.989936E+03	3.346221E-03	2.044441E-04
4.999856E+03	3.372724E-03	2.059717E-04
5.009777E+03	3.400394E-03	2.075691E-04
5.019697E+03	3.429254E-03	2.092375E-04
5.029617E+03	3.459250E-03	2.109736E-04
5.039538E+03	3.490508E-03	2.127848E-04
5.049458E+03	3.522960E-03	2.146670E-04
5.059378E+03	3.556590E-03	2.166191E-04
5.069299E+03	3.591365E-03	2.186390E-04
5.079219E+03	3.627243E-03	2.207241E-04
5.089139E+03	3.664227E-03	2.228744E-04
5.099060E+03	3.702186E-03	2.250820E-04
5.108980E+03	3.741027E-03	2.273410E-04
5.118900E+03	3.780650E-03	2.296453E-04
5.128821E+03	3.820994E-03	2.319913E-04
5.138741E+03	3.861865E-03	2.343669E-04
5.148661E+03	3.903108E-03	2.367629E-04
5.158582E+03	3.944621E-03	2.391729E-04
5.168502E+03	3.986160E-03	2.415823E-04
5.178422E+03	4.027529E-03	2.439790E-04
5.188343E+03	4.068589E-03	2.463548E-04
5.198263E+03	4.109055E-03	2.486924E-04
5.208183E+03	4.148775E-03	2.509827E-04
5.218104E+03	4.187376E-03	2.532031E-04
5.228024E+03	4.224832E-03	2.553523E-04
5.237945E+03	4.260696E-03	2.574032E-04
5.247865E+03	4.294870E-03	2.593502E-04
5.257785E+03	4.327051E-03	2.611751E-04
5.267706E+03	4.357009E-03	2.628641E-04
5.277626E+03	4.384598E-03	2.644088E-04
5.287546E+03	4.409534E-03	2.657921E-04
5.297467E+03	4.431702E-03	2.670073E-04
5.307387E+03	4.450772E-03	2.680349E-04
5.317307E+03	4.466733E-03	2.688744E-04
5.327228E+03	4.479371E-03	2.695132E-04
5.337148E+03	4.488647E-03	2.699492E-04
5.347068E+03	4.494318E-03	2.701681E-04
5.356989E+03	4.496463E-03	2.701751E-04
5.366909E+03	4.494967E-03	2.699634E-04
5.376829E+03	4.489813E-03	2.695323E-04
5.386750E+03	4.481089E-03	2.688875E-04
5.396670E+03	4.468754E-03	2.680267E-04
5.406590E+03	4.452876E-03	2.669544E-04
5.416511E+03	4.433538E-03	2.656758E-04
5.426431E+03	4.410930E-03	2.642026E-04
5.436352E+03	4.385112E-03	2.625386E-04
5.446272E+03	4.356245E-03	2.606937E-04
5.456192E+03	4.324577E-03	2.586831E-04
5.466113E+03	4.290237E-03	2.565146E-04
5.476033E+03	4.253512E-03	2.542055E-04
5.485953E+03	4.214499E-03	2.517620E-04
5.495874E+03	4.173659E-03	2.492116E-04
5.505794E+03	4.131126E-03	2.465626E-04
5.515714E+03	4.087182E-03	2.438318E-04
5.525635E+03	4.042192E-03	2.410413E-04
5.535555E+03	3.996459E-03	2.382090E-04
5.545475E+03	3.950296E-03	2.353537E-04
5.555396E+03	3.903952E-03	2.324902E-04
5.565316E+03	3.857807E-03	2.296413E-04
5.575236E+03	3.812170E-03	2.268252E-04
5.585157E+03	3.767290E-03	2.240567E-04
5.595077E+03	3.723582E-03	2.213604E-04
5.604997E+03	3.681270E-03	2.187495E-04
5.614918E+03	3.640621E-03	2.162398E-04
5.624838E+03	3.601886E-03	2.138461E-04
5.634759E+03	3.565301E-03	2.115822E-04
5.644679E+03	3.531136E-03	2.094640E-04
5.654599E+03	3.499531E-03	2.074994E-04
5.664520E+03	3.470656E-03	2.056985E-04
5.674440E+03	3.444718E-03	2.040733E-04
5.684360E+03	3.421792E-03	2.026281E-04
5.694281E+03	3.402043E-03	2.013722E-04
5.704201E+03	3.385504E-03	2.003075E-04
5.714121E+03	3.372302E-03	1.994412E-04
5.724042E+03	3.362484E-03	1.987759E-04
5.733962E+03	3.356086E-03	1.983134E-04
5.743882E+03	3.353071E-03	1.980512E-04
5.753803E+03	3.353492E-03	1.979923E-04
5.763723E+03	3.357340E-03	1.981358E-04
5.773643E+03	3.364586E-03	1.984799E-04
5.783564E+03	3.375198E-03	1.990224E-04
5.793484E+03	3.389132E-03	1.997603E-04
5.803404E+03	3.406274E-03	2.006868E-04
5.813325E+03	3.426673E-03	2.018046E-04
5.823245E+03	3.450212E-03	2.031065E-04
5.833166E+03	3.476815E-03	2.045879E-04
5.843086E+03	3.506413E-03	2.062444E-04
5.853006E+03	3.538925E-03	2.080710E-04
5.862927E+03	3.574274E-03	2.100632E-04
5.872847E+03	3.612448E-03	2.122199E-04
5.882767E+03	3.653245E-03	2.145291E-04
5.892688E+03	3.696716E-03	2.169936E-04
5.902608E+03	3.742728E-03	2.196055E-04
5.912528E+03	3.791208E-03	2.223604E-04
5.922449E+03	3.842089E-03	2.252541E-04
5.932369E+03	3.895304E-03	2.282825E-04
5.942289E+03	3.950784E-03	2.314415E-04
5.952210E+03	4.008537E-03	2.347314E-04
5.962130E+03	4.068354E-03	2.381399E-04
5.972050E+03	4.130312E-03	2.416712E-04
5.981971E+03	4.194263E-03	2.453167E-04
5.991891E+03	4.260059E-03	2.490677E-04
6.001811E+03	4.327755E-03	2.529270E-04
6.011732E+03	4.397257E-03	2.568894E-04
6.021652E+03	4.468309E-03	2.609396E-04
6.031573E+03	4.540859E-03	2.650745E-04
6.041493E+03	4.614760E-03	2.692856E-04
6.051413E+03	4.689844E-03	2.735629E-04
6.061334E+03	4.766012E-03	2.779007E-04
6.071254E+03	4.842879E-03	2.822764E-04
6.081174E+03	4.920290E-03	2.866811E-04
6.091095E+03	4.998056E-03	2.911037E-04
6.101015E+03	5.075704E-03	2.955167E-04
6.110935E+03	5.152987E-03	2.999058E-04
6.120856E+03	5.229540E-03	3.042498E-04
6.130776E+03	5.305062E-03	3.085313E-04
6.140696E+03	5.378950E-03	3.127154E-04
6.150617E+03	5.450850E-03	3.167816E-04
6.160537E+03	5.520296E-03	3.207029E-04
6.170457E+03	5.586808E-03	3.244519E-04
6.180378E+03	5.649897E-03	3.280002E-04
6.190298E+03	5.709073E-03	3.313196E-04
6.200218E+03	5.763850E-03	3.343824E-04
6.210139E+03	5.813757E-03	3.371613E-04
6.220059E+03	5.858348E-03	3.396311E-04
6.229979E+03	5.897202E-03	3.417675E-04
6.239900E+03	5.929944E-03	3.435492E-04
6.249820E+03	5.956245E-03	3.449576E-04
6.259741E+03	5.975833E-03	3.459773E-04
6.269661E+03	5.988495E-03	3.465965E-04
6.279581E+03	5.994189E-03	3.468130E-04
6.289502E+03	5.992629E-03	3.466108E-04
6.299422E+03	5.984018E-03	3.460020E-04
6.309342E+03	5.968212E-03	3.449787E-04
6.319263E+03	5.945555E-03	3.435612E-04
6.329183E+03	5.916144E-03	3.417554E-04
6.339103E+03	5.880344E-03	3.395829E-04
6.349024E+03	5.838365E-03	3.370560E-04
6.358944E+03	5.790581E-03	3.341967E-04
6.368864E+03	5.737395E-03	3.310285E-04
6.378785E+03	5.679350E-03	3.275830E-04
6.388705E+03	5.616914E-03	3.238873E-04
6.398625E+03	5.550366E-03	3.199579E-04
6.408546E+03	5.480499E-03	3.158404E-04
6.418466E+03	5.407602E-03	3.115517E-04
6.428386E+03	5.332256E-03	3.071254E-04
6.438307E+03	5.254839E-03	3.025832E-04
6.448227E+03	5.175892E-03	2.979564E-04
6.458148E+03	5.095844E-03	2.932696E-04
6.468068E+03	5.015082E-03	2.885451E-04
6.477988E+03	4.933971E-03	2.838039E-04
6.487909E+03	4.852827E-03	2.790642E-04
6.497829E+03	4.771860E-03	2.743378E-04
6.507749E+03	4.691492E-03	2.696492E-04
6.517670E+03	4.611868E-03	2.650064E-04
6.527590E+03	4.533180E-03	2.604205E-04
6.537510E+03	4.455693E-03	2.559066E-04
6.547431E+03	4.379475E-03	2.514685E-04
6.557351E+03	4.304671E-03	2.471144E-04
6.567271E+03	4.231404E-03	2.428512E-04
6.577192E+03	4.159870E-03	2.386901E-04
6.587112E+03	4.090167E-03	2.346367E-04
6.597032E+03	4.022314E-03	2.306919E-04
6.606953E+03	3.956470E-03	2.268647E-04
6.616873E+03	3.892637E-03	2.231551E-04
6.626793E+03	3.831030E-03	2.195753E-04
6.636714E+03	3.771571E-03	2.161207E-04
6.646634E+03	3.714381E-03	2.127981E-04
6.656555E+03	3.659515E-03	2.096106E-04
6.666475E+03	3.607013E-03	2.065605E-04
6.676395E+03	3.556911E-03	2.036495E-04
6.686316E+03	3.509177E-03	2.008758E-04
6.696236E+03	3.464034E-03	1.982519E-04
6.706156E+03	3.421303E-03	1.957677E-04
6.716077E+03	3.381064E-03	1.934275E-04
6.725997E+03	3.343389E-03	1.912354E-04
6.735917E+03	3.308219E-03	1.891877E-04
6.745838E+03	3.275554E-03	1.872846E-04
6.755758E+03	3.245388E-03	1.855255E-04
6.765678E+03	3.217776E-03	1.839135E-04
6.775599E+03	3.192640E-03	1.824440E-04
6.785519E+03	3.170027E-03	1.811196E-04
6.795439E+03	3.149854E-03	1.799356E-04
6.805360E+03	3.132100E-03	1.788905E-04
6.815280E+03	3.116799E-03	1.779863E-04
6.825200E+03	3.103922E-03	1.772212E-04
6.835121E+03	3.093376E-03	1.765899E-04
6.845041E+03	3.085129E-03	1.760904E-04
6.854962E+03	3.079204E-03	1.757240E-04
6.864882E+03	3.075501E-03	1.754850E-04
6.874802E+03	3.074042E-03	1.753745E-04
6.884723E+03	3.074781E-03	1.753898E-04
6.894643E+03	3.077614E-03	1.755249E-04
6.904563E+03	3.082493E-03	1.757770E-04
6.914484E+03	3.089427E-03	1.761467E-04
6.924404E+03	3.098304E-03	1.766274E-04
6.934324E+03	3.109129E-03	1.772195E-04
6.944245E+03	3.121785E-03	1.779162E-04
6.954165E+03	3.136273E-03	1.787175E-04
6.964085E+03	3.152470E-03	1.796164E-04
6.974006E+03	3.170310E-03	1.806090E-04
6.983926E+03	3.189788E-03	1.816952E-04
6.993846E+03	3.210773E-03	1.828673E-04
7.003767E+03	3.233190E-03	1.841211E-04
7.013687E+03	3.257031E-03	1.854561E-04
7.023607E+03	3.282087E-03	1.868604E-04
7.033528E+03	3.308407E-03	1.883368E-04
7.043448E+03	3.335844E-03	1.898769E-04
7.053369E+03	3.364313E-03	1.914758E-04
7.063289E+03	3.393725E-03	1.931285E-04
7.073209E+03	3.423990E-03	1.948299E-04
7.083130E+03	3.455018E-03	1.965748E-04
7.093050E+03	3.486713E-03	1.983577E-04
7.102970E+03	3.518911E-03	2.001694E-04
7.112891E+03	3.551586E-03	2.020084E-04
7.122811E+03	3.584640E-03	2.038690E-04
7.132731E+03	3.617977E-03	2.057460E-04
7.142652E+03	3.651428E-03	2.076296E-04
7.152572E+03	3.684970E-03	2.095185E-04
7.162492E+03	3.718435E-03	2.114034E-04
7.172413E+03	3.751806E-03	2.132831E-04
7.182333E+03	3.784844E-03	2.151441E-04
7.192253E+03	3.817691E-03	2.169945E-04
7.202174E+03	3.850039E-03	2.188169E-04
7.212094E+03	3.881967E-03	2.206158E-04
7.222014E+03	3.913252E-03	2.223784E-04
7.231935E+03	3.943989E-03	2.241103E-04
7.241855E+03	3.974048E-03	2.258040E-04
7.251775E+03	4.003302E-03	2.274525E-04
7.261696E+03	4.031881E-03	2.290630E-04
7.271616E+03	4.059595E-03	2.306249E-04
7.281537E+03	4.086509E-03	2.321418E-04
7.291457E+03	4.112621E-03	2.336136E-04
7.301377E+03	4.137939E-03	2.350409E-04
7.311298E+03	4.162390E-03	2.364196E-04
7.321218E+03	4.186000E-03	2.377511E-04
7.331138E+03	4.208893E-03	2.390424E-04
7.341059E+03	4.231111E-03	2.402960E-04
7.350979E+03	4.252626E-03	2.415104E-04
7.360899E+03	4.273581E-03	2.426936E-04
7.370820E+03	4.293959E-03	2.438449E-04
7.380740E+03	4.313835E-03	2.449683E-04
7.390660E+03	4.333289E-03	2.460685E-04
7.400581E+03	4.352494E-03	2.471553E-04
7.410501E+03	4.371450E-03	2.482288E-04
7.420421E+03	4.390236E-03	2.492934E-04
7.430342E+03	4.408948E-03	2.503546E-04
7.440262E+03	4.427760E-03	2.514224E-04
7.450182E+03	4.446574E-03	2.524911E-04
7.460103E+03	4.465653E-03	2.535758E-04
7.470023E+03	4.484982E-03	2.546756E-04
7.479944E+03	4.504537E-03	2.557892E-04
7.489864E+03	4.524562E-03	2.569304E-04
7.499784E+03	4.545018E-03	2.580971E-04
7.509705E+03	4.565945E-03	2.592915E-04
7.519625E+03	4.587372E-03	2.605154E-04
7.529545E+03	4.609324E-03	2.617702E-04
7.539466E+03	4.631703E-03	2.630502E-04
7.549386E+03	4.654690E-03	2.643659E-04
7.559306E+03	4.678170E-03	2.657108E-04
7.569227E+03	4.702099E-03	2.670824E-04
7.579147E+03	4.726321E-03	2.684719E-04
7.589067E+03	4.750964E-03	2.698864E-04
7.598988E+03	4.775735E-03	2.713095E-04
7.608908E+03	4.800625E-03	2.727408E-04
7.618828E+03	4.825610E-03	2.741787E-04
7.628749E+03	4.850352E-03	2.756043E-04
7.638669E+03	4.874683E-03	2.770078E-04
7.648589E+03	4.898641E-03	2.783917E-04
7.658510E+03	4.921932E-03	2.797390E-04
7.668430E+03	4.944248E-03	2.810325E-04
7.678351E+03	4.965588E-03	2.822720E-04
7.688271E+03	4.985505E-03	2.834321E-04
7.698191E+03	5.003769E-03	2.844998E-04
