#wls	flux	fluxerr
1.587256E+03	2.998095E-05	3.919206E-07
1.626937E+03	3.197732E-05	4.180176E-07
1.666619E+03	3.360318E-05	4.392710E-07
1.706300E+03	3.478264E-05	4.546889E-07
1.745982E+03	3.541990E-05	4.630191E-07
1.785663E+03	3.536331E-05	4.622790E-07
1.825344E+03	3.445114E-05	4.503545E-07
1.865026E+03	3.256002E-05	4.256330E-07
1.904707E+03	2.967025E-05	3.878569E-07
1.944389E+03	2.594927E-05	3.392151E-07
1.984070E+03	2.181072E-05	2.851147E-07
2.023751E+03	1.787379E-05	2.336500E-07
2.063433E+03	1.476976E-05	1.930734E-07
2.103114E+03	1.294573E-05	1.692291E-07
2.142795E+03	1.261193E-05	1.648655E-07
2.182477E+03	1.387291E-05	1.813490E-07
2.222158E+03	1.684649E-05	2.202200E-07
2.261840E+03	2.162706E-05	2.827120E-07
2.301521E+03	2.820522E-05	3.687024E-07
2.341202E+03	3.641175E-05	4.759788E-07
2.380884E+03	4.597364E-05	6.009722E-07
2.420565E+03	5.658032E-05	7.396231E-07
2.460247E+03	6.795081E-05	8.882582E-07
2.499928E+03	7.987621E-05	1.044147E-06
2.539609E+03	9.219227E-05	1.205142E-06
2.579291E+03	1.048135E-04	1.370125E-06
2.618972E+03	1.177026E-04	1.538610E-06
2.658654E+03	1.308215E-04	1.710098E-06
2.698335E+03	1.441638E-04	1.884507E-06
2.738016E+03	1.577773E-04	2.062460E-06
2.777698E+03	1.716368E-04	2.243627E-06
2.817379E+03	1.858283E-04	2.429134E-06
2.857061E+03	2.003276E-04	2.618664E-06
2.896742E+03	2.151781E-04	2.812784E-06
2.936423E+03	2.304264E-04	3.012104E-06
2.976105E+03	2.460915E-04	3.216872E-06
2.986025E+03	2.500673E-04	3.268841E-06
2.995946E+03	2.540852E-04	3.321362E-06
3.005866E+03	2.581154E-04	3.374042E-06
3.015786E+03	2.622066E-04	3.427521E-06
3.025707E+03	2.663941E-04	3.482258E-06
3.035627E+03	2.707798E-04	3.539585E-06
3.045547E+03	2.753154E-04	3.598872E-06
3.055468E+03	2.800171E-04	3.660331E-06
3.065388E+03	2.848709E-04	3.723777E-06
3.075308E+03	2.898302E-04	3.788602E-06
3.085229E+03	2.949151E-04	3.855070E-06
3.095149E+03	3.000799E-04	3.922581E-06
3.105069E+03	3.053470E-04	3.991430E-06
3.114990E+03	3.106711E-04	4.061024E-06
3.124910E+03	3.160770E-04	4.131687E-06
3.134830E+03	3.215198E-04	4.202833E-06
3.144751E+03	3.270626E-04	4.275285E-06
3.154671E+03	3.325889E-04	4.347521E-06
3.164591E+03	3.382001E-04	4.420868E-06
3.174512E+03	3.438162E-04	4.494278E-06
3.184432E+03	3.494296E-04	4.567653E-06
3.194353E+03	3.551104E-04	4.641908E-06
3.204273E+03	3.607386E-04	4.715477E-06
3.214193E+03	3.664246E-04	4.789801E-06
3.224114E+03	3.720866E-04	4.863811E-06
3.234034E+03	3.777597E-04	4.937966E-06
3.243954E+03	3.834006E-04	5.011700E-06
3.253875E+03	3.890461E-04	5.085495E-06
3.263795E+03	3.946939E-04	5.159319E-06
3.273715E+03	4.003422E-04	5.233149E-06
3.283636E+03	4.059478E-04	5.306421E-06
3.293556E+03	4.115506E-04	5.379656E-06
3.303476E+03	4.171075E-04	5.452291E-06
3.313397E+03	4.226596E-04	5.524865E-06
3.323317E+03	4.282067E-04	5.597372E-06
3.333237E+03	4.337492E-04	5.669819E-06
3.343158E+03	4.392438E-04	5.741640E-06
3.353078E+03	4.447341E-04	5.813404E-06
3.362998E+03	4.502210E-04	5.885124E-06
3.372919E+03	4.556614E-04	5.956236E-06
3.382839E+03	4.611003E-04	6.027329E-06
3.392760E+03	4.665391E-04	6.098419E-06
3.402680E+03	4.719346E-04	6.168944E-06
3.412600E+03	4.773781E-04	6.240096E-06
3.422521E+03	4.827816E-04	6.310726E-06
3.432441E+03	4.881921E-04	6.381447E-06
3.442361E+03	4.935659E-04	6.451688E-06
3.452282E+03	4.989507E-04	6.522073E-06
3.462202E+03	5.043488E-04	6.592631E-06
3.472122E+03	5.097627E-04	6.663396E-06
3.482043E+03	5.151949E-04	6.734399E-06
3.491963E+03	5.206012E-04	6.805065E-06
3.501883E+03	5.260306E-04	6.876032E-06
3.511804E+03	5.314857E-04	6.947335E-06
3.521724E+03	5.369220E-04	7.018393E-06
3.531644E+03	5.423891E-04	7.089852E-06
3.541565E+03	5.478897E-04	7.161749E-06
3.551485E+03	5.534264E-04	7.234120E-06
3.561405E+03	5.590022E-04	7.307000E-06
3.571326E+03	5.645718E-04	7.379798E-06
3.581246E+03	5.701855E-04	7.453175E-06
3.591167E+03	5.758462E-04	7.527164E-06
3.601087E+03	5.815566E-04	7.601804E-06
3.611007E+03	5.872709E-04	7.676494E-06
3.620928E+03	5.930401E-04	7.751901E-06
3.630848E+03	5.988670E-04	7.828063E-06
3.640768E+03	6.047542E-04	7.905013E-06
3.650689E+03	6.106554E-04	7.982146E-06
3.660609E+03	6.166714E-04	8.060780E-06
3.670529E+03	6.227065E-04	8.139663E-06
3.680450E+03	6.287630E-04	8.218825E-06
3.690370E+03	6.349426E-04	8.299596E-06
3.700290E+03	6.411487E-04	8.380714E-06
3.710211E+03	6.474335E-04	8.462861E-06
3.720131E+03	6.537997E-04	8.546071E-06
3.730051E+03	6.601999E-04	8.629726E-06
3.739972E+03	6.666866E-04	8.714511E-06
3.749892E+03	6.732626E-04	8.800463E-06
3.759812E+03	6.799306E-04	8.887617E-06
3.769733E+03	6.866424E-04	8.975345E-06
3.779653E+03	6.934514E-04	9.064342E-06
3.789574E+03	7.003603E-04	9.154646E-06
3.799494E+03	7.073208E-04	9.245623E-06
3.809414E+03	7.143864E-04	9.337975E-06
3.819335E+03	7.215602E-04	9.431740E-06
3.829255E+03	7.287931E-04	9.526278E-06
3.839175E+03	7.361396E-04	9.622300E-06
3.849096E+03	7.436025E-04	9.719845E-06
3.859016E+03	7.511850E-04	9.818951E-06
3.868936E+03	7.588376E-04	9.918975E-06
3.878857E+03	7.665628E-04	1.001995E-05
3.888777E+03	7.744160E-04	1.012259E-05
3.898697E+03	7.824004E-04	1.022695E-05
3.908618E+03	7.905192E-04	1.033307E-05
3.918538E+03	7.987223E-04	1.044029E-05
3.928458E+03	8.070125E-04	1.054864E-05
3.938379E+03	8.154464E-04	1.065888E-05
3.948299E+03	8.240272E-04	1.077103E-05
3.958219E+03	8.327043E-04	1.088445E-05
3.968140E+03	8.415350E-04	1.099987E-05
3.978060E+03	8.504685E-04	1.111663E-05
3.987981E+03	8.595076E-04	1.123478E-05
3.997901E+03	8.687101E-04	1.135506E-05
4.007821E+03	8.780799E-04	1.147752E-05
4.017742E+03	8.875653E-04	1.160150E-05
4.027662E+03	8.971694E-04	1.172703E-05
4.037582E+03	9.069510E-04	1.185488E-05
4.047503E+03	9.168581E-04	1.198437E-05
4.057423E+03	9.268934E-04	1.211553E-05
4.067343E+03	9.371169E-04	1.224916E-05
4.077264E+03	9.474753E-04	1.238455E-05
4.087184E+03	9.579719E-04	1.252174E-05
4.097104E+03	9.686668E-04	1.266153E-05
4.107025E+03	9.794490E-04	1.280245E-05
4.116945E+03	9.904358E-04	1.294605E-05
4.126865E+03	1.001631E-03	1.309237E-05
4.136786E+03	1.012921E-03	1.323995E-05
4.146706E+03	1.024426E-03	1.339031E-05
4.156626E+03	1.036090E-03	1.354276E-05
4.166547E+03	1.047856E-03	1.369655E-05
4.176467E+03	1.059846E-03	1.385326E-05
4.186387E+03	1.072061E-03	1.401292E-05
4.196308E+03	1.084386E-03	1.417400E-05
4.206228E+03	1.096880E-03	1.433730E-05
4.216149E+03	1.109546E-03	1.450286E-05
4.226069E+03	1.122386E-03	1.467068E-05
4.235989E+03	1.135402E-03	1.484079E-05
4.245910E+03	1.148595E-03	1.501322E-05
4.255830E+03	1.161965E-03	1.518798E-05
4.265750E+03	1.175515E-03	1.536507E-05
4.275671E+03	1.189244E-03	1.554452E-05
4.285591E+03	1.203090E-03	1.572549E-05
4.295511E+03	1.217181E-03	1.590966E-05
4.305432E+03	1.231389E-03	1.609535E-05
4.315352E+03	1.245777E-03	1.628341E-05
4.325272E+03	1.260280E-03	1.647296E-05
4.335193E+03	1.275029E-03	1.666573E-05
4.345113E+03	1.289891E-03	1.685998E-05
4.355033E+03	1.304932E-03	1.705657E-05
4.364954E+03	1.320085E-03	1.725461E-05
4.374874E+03	1.335413E-03	1.745495E-05
4.384794E+03	1.350917E-03	1.765759E-05
4.394715E+03	1.366527E-03	1.786161E-05
4.404635E+03	1.382309E-03	1.806788E-05
4.414556E+03	1.398193E-03	1.827548E-05
4.424476E+03	1.414247E-03	1.848531E-05
4.434396E+03	1.430397E-03	1.869639E-05
4.444317E+03	1.446713E-03	1.890964E-05
4.454237E+03	1.463123E-03	1.912412E-05
4.464157E+03	1.479694E-03	1.934070E-05
4.474078E+03	1.496355E-03	1.955845E-05
4.483998E+03	1.513174E-03	1.977827E-05
4.493918E+03	1.530006E-03	1.999827E-05
4.503839E+03	1.547066E-03	2.022123E-05
4.513759E+03	1.564134E-03	2.044432E-05
4.523679E+03	1.581354E-03	2.066937E-05
4.533600E+03	1.598652E-03	2.089546E-05
4.543520E+03	1.616028E-03	2.112255E-05
4.553440E+03	1.633552E-03	2.135159E-05
4.563361E+03	1.651152E-03	2.158161E-05
4.573281E+03	1.668826E-03	2.181261E-05
4.583201E+03	1.686574E-03	2.204456E-05
4.593122E+03	1.704470E-03	2.227845E-05
4.603042E+03	1.722441E-03	2.251333E-05
4.612963E+03	1.740408E-03	2.274816E-05
4.622883E+03	1.758528E-03	2.298498E-05
4.632803E+03	1.776800E-03	2.322378E-05
4.642724E+03	1.795072E-03	2.346259E-05
4.652644E+03	1.813421E-03	2.370240E-05
4.662564E+03	1.831929E-03	2.394430E-05
4.672485E+03	1.850440E-03	2.418622E-05
4.682405E+03	1.869114E-03	2.443028E-05
4.692325E+03	1.887792E-03	2.467439E-05
4.702246E+03	1.906639E-03	2.492071E-05
4.712166E+03	1.925577E-03	2.516822E-05
4.722086E+03	1.944608E-03	2.541695E-05
4.732007E+03	1.963650E-03	2.566581E-05
4.741927E+03	1.982873E-03	2.591705E-05
4.751847E+03	2.002198E-03	2.616961E-05
4.761768E+03	2.021624E-03	2.642349E-05
4.771688E+03	2.041154E-03	2.667874E-05
4.781608E+03	2.060705E-03	2.693426E-05
4.791529E+03	2.080449E-03	2.719230E-05
4.801449E+03	2.100305E-03	2.745180E-05
4.811370E+03	2.120269E-03	2.771271E-05
4.821290E+03	2.140256E-03	2.797393E-05
4.831210E+03	2.160442E-03	2.823775E-05
4.841131E+03	2.180738E-03	2.850300E-05
4.851051E+03	2.201055E-03	2.876852E-05
4.860971E+03	2.221568E-03	2.903661E-05
4.870892E+03	2.242093E-03	2.930486E-05
4.880812E+03	2.262812E-03	2.957564E-05
4.890732E+03	2.283536E-03	2.984647E-05
4.900653E+03	2.304351E-03	3.011851E-05
4.910573E+03	2.325343E-03	3.039286E-05
4.920493E+03	2.346323E-03	3.066704E-05
4.930414E+03	2.367370E-03	3.094210E-05
4.940334E+03	2.388479E-03	3.121798E-05
4.950254E+03	2.409636E-03	3.149448E-05
4.960175E+03	2.430832E-03	3.177150E-05
4.970095E+03	2.452053E-03	3.204884E-05
4.980015E+03	2.473285E-03	3.232631E-05
4.989936E+03	2.494512E-03	3.260373E-05
4.999856E+03	2.515719E-03	3.288087E-05
5.009777E+03	2.536883E-03	3.315747E-05
5.019697E+03	2.557891E-03	3.343201E-05
5.029617E+03	2.578918E-03	3.370681E-05
5.039538E+03	2.599842E-03	3.398026E-05
5.049458E+03	2.620537E-03	3.425072E-05
5.059378E+03	2.641186E-03	3.452057E-05
5.069299E+03	2.661657E-03	3.478811E-05
5.079219E+03	2.681821E-03	3.505162E-05
5.089139E+03	2.701857E-03	3.531347E-05
5.099060E+03	2.721529E-03	3.557055E-05
5.108980E+03	2.741014E-03	3.582519E-05
5.118900E+03	2.760073E-03	3.607425E-05
5.128821E+03	2.778883E-03	3.632008E-05
5.138741E+03	2.797203E-03	3.655949E-05
5.148661E+03	2.815213E-03	3.679484E-05
5.158582E+03	2.832662E-03	3.702287E-05
5.168502E+03	2.849738E-03	3.724603E-05
5.178422E+03	2.866189E-03	3.746101E-05
5.188343E+03	2.882200E-03	3.767024E-05
5.198263E+03	2.897523E-03	3.787047E-05
5.208183E+03	2.912340E-03	3.806410E-05
5.218104E+03	2.926514E-03	3.824932E-05
5.228024E+03	2.939904E-03	3.842429E-05
5.237945E+03	2.952702E-03	3.859153E-05
5.247865E+03	2.964770E-03	3.874923E-05
5.257785E+03	2.976081E-03	3.889703E-05
5.267706E+03	2.986611E-03	3.903462E-05
5.277626E+03	2.996338E-03	3.916172E-05
5.287546E+03	3.005242E-03	3.927806E-05
5.297467E+03	3.013303E-03	3.938338E-05
5.307387E+03	3.020619E-03	3.947897E-05
5.317307E+03	3.026952E-03	3.956170E-05
5.327228E+03	3.032517E-03	3.963440E-05
5.337148E+03	3.037080E-03	3.969400E-05
5.347068E+03	3.040863E-03	3.974342E-05
5.356989E+03	3.043754E-03	3.978117E-05
5.366909E+03	3.045753E-03	3.980727E-05
5.376829E+03	3.046867E-03	3.982178E-05
5.386750E+03	3.047221E-03	3.982638E-05
5.396670E+03	3.046602E-03	3.981825E-05
5.406590E+03	3.045254E-03	3.980060E-05
5.416511E+03	3.043088E-03	3.977226E-05
5.426431E+03	3.040129E-03	3.973356E-05
5.436352E+03	3.036412E-03	3.968494E-05
5.446272E+03	3.032085E-03	3.962836E-05
5.456192E+03	3.026963E-03	3.956138E-05
5.466113E+03	3.021313E-03	3.948750E-05
5.476033E+03	3.015075E-03	3.940595E-05
5.485953E+03	3.008411E-03	3.931882E-05
5.495874E+03	3.001155E-03	3.922395E-05
5.505794E+03	2.993581E-03	3.912493E-05
5.515714E+03	2.985645E-03	3.902118E-05
5.525635E+03	2.977513E-03	3.891486E-05
5.535555E+03	2.969031E-03	3.880398E-05
5.545475E+03	2.960479E-03	3.869217E-05
5.555396E+03	2.951809E-03	3.857883E-05
5.565316E+03	2.943196E-03	3.846622E-05
5.575236E+03	2.934589E-03	3.835371E-05
5.585157E+03	2.926052E-03	3.824210E-05
5.595077E+03	2.917642E-03	3.813215E-05
5.604997E+03	2.909526E-03	3.802605E-05
5.614918E+03	2.901654E-03	3.792314E-05
5.624838E+03	2.894077E-03	3.782407E-05
5.634759E+03	2.886956E-03	3.773099E-05
5.644679E+03	2.880236E-03	3.764312E-05
5.654599E+03	2.874064E-03	3.756243E-05
5.664520E+03	2.868387E-03	3.748820E-05
5.674440E+03	2.863240E-03	3.742090E-05
5.684360E+03	2.858773E-03	3.736250E-05
5.694281E+03	2.854916E-03	3.731206E-05
5.704201E+03	2.851809E-03	3.727142E-05
5.714121E+03	2.849378E-03	3.723962E-05
5.724042E+03	2.847649E-03	3.721700E-05
5.733962E+03	2.846755E-03	3.720528E-05
5.743882E+03	2.846614E-03	3.720341E-05
5.753803E+03	2.847347E-03	3.721297E-05
5.763723E+03	2.848873E-03	3.723288E-05
5.773643E+03	2.851305E-03	3.726463E-05
5.783564E+03	2.854549E-03	3.730700E-05
5.793484E+03	2.858721E-03	3.736149E-05
5.803404E+03	2.863718E-03	3.742678E-05
5.813325E+03	2.869650E-03	3.750427E-05
5.823245E+03	2.876511E-03	3.759392E-05
5.833166E+03	2.884087E-03	3.769290E-05
5.843086E+03	2.892690E-03	3.780530E-05
5.853006E+03	2.902093E-03	3.792817E-05
5.862927E+03	2.912282E-03	3.806130E-05
5.872847E+03	2.923348E-03	3.820590E-05
5.882767E+03	2.935266E-03	3.836163E-05
5.892688E+03	2.947906E-03	3.852679E-05
5.902608E+03	2.961348E-03	3.870244E-05
5.912528E+03	2.975448E-03	3.888669E-05
5.922449E+03	2.990281E-03	3.908051E-05
5.932369E+03	3.005696E-03	3.928195E-05
5.942289E+03	3.021872E-03	3.949332E-05
5.952210E+03	3.038425E-03	3.970963E-05
5.962130E+03	3.055646E-03	3.993466E-05
5.972050E+03	3.073247E-03	4.016467E-05
5.981971E+03	3.091285E-03	4.040038E-05
5.991891E+03	3.109584E-03	4.063949E-05
6.001811E+03	3.128192E-03	4.088266E-05
6.011732E+03	3.147041E-03	4.112897E-05
6.021652E+03	3.165935E-03	4.137587E-05
6.031573E+03	3.184921E-03	4.162397E-05
6.041493E+03	3.203917E-03	4.187220E-05
6.051413E+03	3.222721E-03	4.211792E-05
6.061334E+03	3.241367E-03	4.236157E-05
6.071254E+03	3.259770E-03	4.260206E-05
6.081174E+03	3.277840E-03	4.283818E-05
6.091095E+03	3.295366E-03	4.306721E-05
6.101015E+03	3.312379E-03	4.328952E-05
6.110935E+03	3.328788E-03	4.350394E-05
6.120856E+03	3.344378E-03	4.370765E-05
6.130776E+03	3.359308E-03	4.390275E-05
6.140696E+03	3.373239E-03	4.408478E-05
6.150617E+03	3.386209E-03	4.425426E-05
6.160537E+03	3.398008E-03	4.440843E-05
6.170457E+03	3.408685E-03	4.454793E-05
6.180378E+03	3.418287E-03	4.467339E-05
6.190298E+03	3.426358E-03	4.477885E-05
6.200218E+03	3.433218E-03	4.486847E-05
6.210139E+03	3.438682E-03	4.493984E-05
6.220059E+03	3.442557E-03	4.499046E-05
6.229979E+03	3.444934E-03	4.502150E-05
6.239900E+03	3.445771E-03	4.503240E-05
6.249820E+03	3.445035E-03	4.502277E-05
6.259741E+03	3.442705E-03	4.499229E-05
6.269661E+03	3.438634E-03	4.493905E-05
6.279581E+03	3.433080E-03	4.486644E-05
6.289502E+03	3.425783E-03	4.477105E-05
6.299422E+03	3.416885E-03	4.465475E-05
6.309342E+03	3.406410E-03	4.451782E-05
6.319263E+03	3.394389E-03	4.436069E-05
6.329183E+03	3.380856E-03	4.418380E-05
6.339103E+03	3.365733E-03	4.398614E-05
6.349024E+03	3.349330E-03	4.377175E-05
6.358944E+03	3.331451E-03	4.353807E-05
6.368864E+03	3.312425E-03	4.328940E-05
6.378785E+03	3.292066E-03	4.302331E-05
6.388705E+03	3.270587E-03	4.274258E-05
6.398625E+03	3.248069E-03	4.244827E-05
6.408546E+03	3.224602E-03	4.214157E-05
6.418466E+03	3.200277E-03	4.182365E-05
6.428386E+03	3.175186E-03	4.149572E-05
6.438307E+03	3.149427E-03	4.115906E-05
6.448227E+03	3.123098E-03	4.081495E-05
6.458148E+03	3.096286E-03	4.046453E-05
6.468068E+03	3.069091E-03	4.010911E-05
6.477988E+03	3.041487E-03	3.974833E-05
6.487909E+03	3.013801E-03	3.938650E-05
6.497829E+03	2.986003E-03	3.902319E-05
6.507749E+03	2.958179E-03	3.865956E-05
6.517670E+03	2.930412E-03	3.829666E-05
6.527590E+03	2.902670E-03	3.793410E-05
6.537510E+03	2.875256E-03	3.757581E-05
6.547431E+03	2.848130E-03	3.722129E-05
6.557351E+03	2.821362E-03	3.687146E-05
6.567271E+03	2.795021E-03	3.652720E-05
6.577192E+03	2.769172E-03	3.618936E-05
6.587112E+03	2.743767E-03	3.585734E-05
6.597032E+03	2.719084E-03	3.553475E-05
6.606953E+03	2.695069E-03	3.522089E-05
6.616873E+03	2.671882E-03	3.491786E-05
6.626793E+03	2.649361E-03	3.462352E-05
6.636714E+03	2.627660E-03	3.433991E-05
6.646634E+03	2.606826E-03	3.406762E-05
6.656555E+03	2.586899E-03	3.380720E-05
6.666475E+03	2.568025E-03	3.356052E-05
6.676395E+03	2.550034E-03	3.332539E-05
6.686316E+03	2.533166E-03	3.310493E-05
6.696236E+03	2.517251E-03	3.289694E-05
6.706156E+03	2.502522E-03	3.270444E-05
6.716077E+03	2.488906E-03	3.252648E-05
6.725997E+03	2.476429E-03	3.236342E-05
6.735917E+03	2.465117E-03	3.221558E-05
6.745838E+03	2.454991E-03	3.208324E-05
6.755758E+03	2.446073E-03	3.196668E-05
6.765678E+03	2.438380E-03	3.186614E-05
6.775599E+03	2.431930E-03	3.178183E-05
6.785519E+03	2.426738E-03	3.171397E-05
6.795439E+03	2.422915E-03	3.166400E-05
6.805360E+03	2.420278E-03	3.162952E-05
6.815280E+03	2.419031E-03	3.161322E-05
6.825200E+03	2.419087E-03	3.161394E-05
6.835121E+03	2.420453E-03	3.163178E-05
6.845041E+03	2.423134E-03	3.166681E-05
6.854962E+03	2.427134E-03	3.171908E-05
6.864882E+03	2.432456E-03	3.178861E-05
6.874802E+03	2.439100E-03	3.187544E-05
6.884723E+03	2.447066E-03	3.197952E-05
6.894643E+03	2.456350E-03	3.210084E-05
6.904563E+03	2.467049E-03	3.224065E-05
6.914484E+03	2.478955E-03	3.239624E-05
6.924404E+03	2.492263E-03	3.257015E-05
6.934324E+03	2.506860E-03	3.276091E-05
6.944245E+03	2.522633E-03	3.296702E-05
6.954165E+03	2.539770E-03	3.319097E-05
6.964085E+03	2.558152E-03	3.343120E-05
6.974006E+03	2.577761E-03	3.368744E-05
6.983926E+03	2.598573E-03	3.395942E-05
6.993846E+03	2.620563E-03	3.424679E-05
7.003767E+03	2.643704E-03	3.454920E-05
7.013687E+03	2.667964E-03	3.486623E-05
7.023607E+03	2.693310E-03	3.519746E-05
7.033528E+03	2.719705E-03	3.554240E-05
7.043448E+03	2.747223E-03	3.590200E-05
7.053369E+03	2.775593E-03	3.627275E-05
7.063289E+03	2.804883E-03	3.665552E-05
7.073209E+03	2.835042E-03	3.704964E-05
7.083130E+03	2.866137E-03	3.745600E-05
7.093050E+03	2.897874E-03	3.787075E-05
7.102970E+03	2.930313E-03	3.829467E-05
7.112891E+03	2.963392E-03	3.872695E-05
7.122811E+03	2.997045E-03	3.916674E-05
7.132731E+03	3.031331E-03	3.961481E-05
7.142652E+03	3.065930E-03	4.006695E-05
7.152572E+03	3.100894E-03	4.052387E-05
7.162492E+03	3.136149E-03	4.098459E-05
7.172413E+03	3.171619E-03	4.144813E-05
7.182333E+03	3.207228E-03	4.191347E-05
7.192253E+03	3.242897E-03	4.237960E-05
7.202174E+03	3.278548E-03	4.284550E-05
7.212094E+03	3.314102E-03	4.331014E-05
7.222014E+03	3.349340E-03	4.377065E-05
7.231935E+03	3.384465E-03	4.422966E-05
7.241855E+03	3.419116E-03	4.468249E-05
7.251775E+03	3.453504E-03	4.513189E-05
7.261696E+03	3.487267E-03	4.557311E-05
7.271616E+03	3.520476E-03	4.600711E-05
7.281537E+03	3.553065E-03	4.643298E-05
7.291457E+03	3.584966E-03	4.684989E-05
7.301377E+03	3.615966E-03	4.725500E-05
7.311298E+03	3.646309E-03	4.765154E-05
7.321218E+03	3.675634E-03	4.803476E-05
7.331138E+03	3.704201E-03	4.840809E-05
7.341059E+03	3.731653E-03	4.876684E-05
7.350979E+03	3.757938E-03	4.911034E-05
7.360899E+03	3.783341E-03	4.944232E-05
7.370820E+03	3.807668E-03	4.976024E-05
7.380740E+03	3.830732E-03	5.006165E-05
7.390660E+03	3.852663E-03	5.034825E-05
7.400581E+03	3.873446E-03	5.061986E-05
7.410501E+03	3.892897E-03	5.087404E-05
7.420421E+03	3.911339E-03	5.111506E-05
7.430342E+03	3.928426E-03	5.133836E-05
7.440262E+03	3.944323E-03	5.154611E-05
7.450182E+03	3.958861E-03	5.173610E-05
7.460103E+03	3.972376E-03	5.191273E-05
7.470023E+03	3.984540E-03	5.207170E-05
7.479944E+03	3.995521E-03	5.221520E-05
7.489864E+03	4.005166E-03	5.234126E-05
7.499784E+03	4.013649E-03	5.245211E-05
7.509705E+03	4.020993E-03	5.254809E-05
7.519625E+03	4.027204E-03	5.262927E-05
7.529545E+03	4.032130E-03	5.269365E-05
7.539466E+03	4.035957E-03	5.274366E-05
7.549386E+03	4.038706E-03	5.277960E-05
7.559306E+03	4.040393E-03	5.280165E-05
7.569227E+03	4.040859E-03	5.280775E-05
7.579147E+03	4.040122E-03	5.279812E-05
7.589067E+03	4.038556E-03	5.277767E-05
7.598988E+03	4.035824E-03	5.274198E-05
7.608908E+03	4.032118E-03	5.269356E-05
7.618828E+03	4.027287E-03	5.263043E-05
7.628749E+03	4.021520E-03	5.255508E-05
7.638669E+03	4.014834E-03	5.246771E-05
7.648589E+03	4.007073E-03	5.236629E-05
7.658510E+03	3.998427E-03	5.225331E-05
7.668430E+03	3.988739E-03	5.212672E-05
7.678351E+03	3.978380E-03	5.199136E-05
7.688271E+03	3.966837E-03	5.184052E-05
7.698191E+03	3.954656E-03	5.168135E-05
