#wls	flux	fluxerr
1.586043E+03	2.138633E-03	8.027842E-04
1.625694E+03	2.042379E-03	7.661012E-04
1.665345E+03	1.938970E-03	7.267705E-04
1.704996E+03	1.830316E-03	6.855167E-04
1.744647E+03	1.718017E-03	6.429451E-04
1.784298E+03	1.602206E-03	5.991117E-04
1.823949E+03	1.482187E-03	5.537629E-04
1.863600E+03	1.358025E-03	5.069304E-04
1.903251E+03	1.229967E-03	4.587140E-04
1.942902E+03	1.099775E-03	4.097771E-04
1.982554E+03	9.717821E-04	3.617396E-04
2.022205E+03	8.538413E-04	3.175228E-04
2.061856E+03	7.563357E-04	2.809765E-04
2.101507E+03	6.892407E-04	2.557826E-04
2.141158E+03	6.584985E-04	2.441105E-04
2.180809E+03	6.637654E-04	2.457902E-04
2.220460E+03	6.995454E-04	2.587441E-04
2.260111E+03	7.577335E-04	2.799380E-04
2.299762E+03	8.302318E-04	3.063528E-04
2.339413E+03	9.107295E-04	3.356410E-04
2.379064E+03	9.951713E-04	3.662962E-04
2.418715E+03	1.081390E-03	3.975133E-04
2.458366E+03	1.168602E-03	4.289991E-04
2.498017E+03	1.256528E-03	4.606463E-04
2.537669E+03	1.345196E-03	4.924616E-04
2.577320E+03	1.434440E-03	5.243802E-04
2.616971E+03	1.523972E-03	5.562924E-04
2.656622E+03	1.613178E-03	5.879713E-04
2.696273E+03	1.701239E-03	6.191165E-04
2.735924E+03	1.787173E-03	6.493700E-04
2.775575E+03	1.869848E-03	6.783222E-04
2.815226E+03	1.948112E-03	7.055588E-04
2.854877E+03	2.020975E-03	7.307280E-04
2.894528E+03	2.087472E-03	7.534890E-04
2.934179E+03	2.147094E-03	7.736682E-04
2.973830E+03	2.199401E-03	7.911190E-04
2.983743E+03	2.211383E-03	7.950744E-04
2.993656E+03	2.222872E-03	7.988473E-04
3.003569E+03	2.233866E-03	8.024375E-04
3.013481E+03	2.244528E-03	8.059033E-04
3.023394E+03	2.255025E-03	8.093053E-04
3.033307E+03	2.265584E-03	8.127243E-04
3.043220E+03	2.276182E-03	8.161528E-04
3.053132E+03	2.286705E-03	8.195499E-04
3.063045E+03	2.297097E-03	8.228949E-04
3.072958E+03	2.307403E-03	8.262044E-04
3.082871E+03	2.317481E-03	8.294276E-04
3.092784E+03	2.327338E-03	8.325673E-04
3.102696E+03	2.336896E-03	8.355952E-04
3.112609E+03	2.346264E-03	8.385509E-04
3.122522E+03	2.355278E-03	8.413756E-04
3.132435E+03	2.363965E-03	8.440791E-04
3.142347E+03	2.372356E-03	8.466729E-04
3.152260E+03	2.380439E-03	8.491529E-04
3.162173E+03	2.388118E-03	8.514847E-04
3.172086E+03	2.395521E-03	8.537145E-04
3.181998E+03	2.402562E-03	8.558114E-04
3.191911E+03	2.409288E-03	8.577925E-04
3.201824E+03	2.415661E-03	8.596449E-04
3.211737E+03	2.421735E-03	8.613871E-04
3.221649E+03	2.427522E-03	8.630244E-04
3.231562E+03	2.433037E-03	8.645618E-04
3.241475E+03	2.438257E-03	8.659915E-04
3.251388E+03	2.443243E-03	8.673348E-04
3.261301E+03	2.448015E-03	8.686000E-04
3.271213E+03	2.452561E-03	8.697818E-04
3.281126E+03	2.456944E-03	8.709034E-04
3.291039E+03	2.461155E-03	8.719616E-04
3.300952E+03	2.465262E-03	8.729808E-04
3.310864E+03	2.469259E-03	8.739584E-04
3.320777E+03	2.473180E-03	8.749065E-04
3.330690E+03	2.477057E-03	8.758373E-04
3.340603E+03	2.480930E-03	8.767640E-04
3.350515E+03	2.484835E-03	8.776999E-04
3.360428E+03	2.488773E-03	8.786455E-04
3.370341E+03	2.492823E-03	8.796279E-04
3.380254E+03	2.496952E-03	8.806363E-04
3.390167E+03	2.501275E-03	8.817108E-04
3.400079E+03	2.505765E-03	8.828417E-04
3.409992E+03	2.510465E-03	8.840446E-04
3.419905E+03	2.515423E-03	8.853359E-04
3.429818E+03	2.520650E-03	8.867193E-04
3.439730E+03	2.526228E-03	8.882237E-04
3.449643E+03	2.532171E-03	8.898536E-04
3.459556E+03	2.538493E-03	8.916141E-04
3.469469E+03	2.545244E-03	8.935224E-04
3.479381E+03	2.552442E-03	8.955845E-04
3.489294E+03	2.560168E-03	8.978289E-04
3.499207E+03	2.568377E-03	9.002394E-04
3.509120E+03	2.577151E-03	9.028446E-04
3.519033E+03	2.586509E-03	9.056504E-04
3.528945E+03	2.596499E-03	9.086738E-04
3.538858E+03	2.607109E-03	9.119103E-04
3.548771E+03	2.618355E-03	9.153652E-04
3.558684E+03	2.630317E-03	9.190658E-04
3.568596E+03	2.642946E-03	9.229950E-04
3.578509E+03	2.656318E-03	9.271786E-04
3.588422E+03	2.670439E-03	9.316188E-04
3.598335E+03	2.685289E-03	9.363078E-04
3.608247E+03	2.700871E-03	9.412465E-04
3.618160E+03	2.717214E-03	9.464449E-04
3.628073E+03	2.734285E-03	9.518908E-04
3.637986E+03	2.752131E-03	9.576003E-04
3.647898E+03	2.770679E-03	9.635479E-04
3.657811E+03	2.789936E-03	9.697351E-04
3.667724E+03	2.809874E-03	9.761523E-04
3.677637E+03	2.830485E-03	9.827965E-04
3.687550E+03	2.851698E-03	9.896424E-04
3.697462E+03	2.873489E-03	9.966819E-04
3.707375E+03	2.895800E-03	1.003894E-03
3.717288E+03	2.918588E-03	1.011264E-03
3.727201E+03	2.941779E-03	1.018766E-03
3.737113E+03	2.965314E-03	1.026379E-03
3.747026E+03	2.989100E-03	1.034072E-03
3.756939E+03	3.013031E-03	1.041807E-03
3.766852E+03	3.037084E-03	1.049576E-03
3.776764E+03	3.061081E-03	1.057319E-03
3.786677E+03	3.084954E-03	1.065011E-03
3.796590E+03	3.108630E-03	1.072628E-03
3.806503E+03	3.131939E-03	1.080112E-03
3.816416E+03	3.154768E-03	1.087422E-03
3.826328E+03	3.177029E-03	1.094531E-03
3.836241E+03	3.198603E-03	1.101396E-03
3.846154E+03	3.219366E-03	1.107977E-03
3.856067E+03	3.239172E-03	1.114222E-03
3.865979E+03	3.257927E-03	1.120102E-03
3.875892E+03	3.275516E-03	1.125575E-03
3.885805E+03	3.291826E-03	1.130605E-03
3.895718E+03	3.306750E-03	1.135156E-03
3.905630E+03	3.320185E-03	1.139193E-03
3.915543E+03	3.332069E-03	1.142695E-03
3.925456E+03	3.342318E-03	1.145636E-03
3.935369E+03	3.350828E-03	1.147979E-03
3.945282E+03	3.357597E-03	1.149726E-03
3.955194E+03	3.362542E-03	1.150849E-03
3.965107E+03	3.365657E-03	1.151347E-03
3.975020E+03	3.366913E-03	1.151211E-03
3.984933E+03	3.366273E-03	1.150429E-03
3.994845E+03	3.363794E-03	1.149023E-03
4.004758E+03	3.359466E-03	1.146989E-03
4.014671E+03	3.353346E-03	1.144348E-03
4.024584E+03	3.345478E-03	1.141117E-03
4.034496E+03	3.335920E-03	1.137315E-03
4.044409E+03	3.324741E-03	1.132967E-03
4.054322E+03	3.312051E-03	1.128111E-03
4.064235E+03	3.297914E-03	1.122771E-03
4.074148E+03	3.282433E-03	1.116981E-03
4.084060E+03	3.265778E-03	1.110801E-03
4.093973E+03	3.248011E-03	1.104251E-03
4.103886E+03	3.229288E-03	1.097386E-03
4.113799E+03	3.209739E-03	1.090251E-03
4.123711E+03	3.189499E-03	1.082890E-03
4.133624E+03	3.168705E-03	1.075352E-03
4.143537E+03	3.147493E-03	1.067683E-03
4.153450E+03	3.126002E-03	1.059929E-03
4.163362E+03	3.104362E-03	1.052136E-03
4.173275E+03	3.082702E-03	1.044347E-03
4.183188E+03	3.061145E-03	1.036603E-03
4.193101E+03	3.039780E-03	1.028935E-03
4.203013E+03	3.018712E-03	1.021378E-03
4.212926E+03	2.998066E-03	1.013974E-03
4.222839E+03	2.977924E-03	1.006752E-03
4.232752E+03	2.958311E-03	9.997176E-04
4.242665E+03	2.939309E-03	9.929005E-04
4.252577E+03	2.920966E-03	9.863160E-04
4.262490E+03	2.903316E-03	9.799750E-04
4.272403E+03	2.886373E-03	9.738823E-04
4.282316E+03	2.870118E-03	9.680309E-04
4.292228E+03	2.854588E-03	9.624335E-04
4.302141E+03	2.839705E-03	9.570633E-04
4.312054E+03	2.825480E-03	9.519236E-04
4.321967E+03	2.811859E-03	9.469961E-04
4.331879E+03	2.798800E-03	9.422664E-04
4.341792E+03	2.786222E-03	9.377074E-04
4.351705E+03	2.774062E-03	9.332970E-04
4.361618E+03	2.762219E-03	9.290019E-04
4.371531E+03	2.750637E-03	9.248029E-04
4.381443E+03	2.739205E-03	9.206622E-04
4.391356E+03	2.727803E-03	9.165400E-04
4.401269E+03	2.716364E-03	9.124136E-04
4.411182E+03	2.704771E-03	9.082439E-04
4.421094E+03	2.692933E-03	9.040000E-04
4.431007E+03	2.680788E-03	8.996617E-04
4.440920E+03	2.668207E-03	8.951852E-04
4.450833E+03	2.655144E-03	8.905559E-04
4.460745E+03	2.641538E-03	8.857528E-04
4.470658E+03	2.627314E-03	8.807512E-04
4.480571E+03	2.612437E-03	8.755395E-04
4.490484E+03	2.596882E-03	8.701096E-04
4.500397E+03	2.580642E-03	8.644592E-04
4.510309E+03	2.563724E-03	8.585906E-04
4.520222E+03	2.546127E-03	8.525036E-04
4.530135E+03	2.527860E-03	8.462018E-04
4.540048E+03	2.509028E-03	8.397198E-04
4.549960E+03	2.489645E-03	8.330626E-04
4.559873E+03	2.469767E-03	8.262490E-04
4.569786E+03	2.449507E-03	8.193166E-04
4.579699E+03	2.428964E-03	8.122990E-04
4.589611E+03	2.408176E-03	8.052084E-04
4.599524E+03	2.387331E-03	7.981075E-04
4.609437E+03	2.366455E-03	7.910054E-04
4.619350E+03	2.345719E-03	7.839586E-04
4.629262E+03	2.325227E-03	7.770024E-04
4.639175E+03	2.305083E-03	7.701705E-04
4.649088E+03	2.285388E-03	7.634971E-04
4.659001E+03	2.266245E-03	7.570162E-04
4.668914E+03	2.247795E-03	7.507742E-04
4.678826E+03	2.230107E-03	7.447942E-04
4.688739E+03	2.213267E-03	7.391047E-04
4.698652E+03	2.197376E-03	7.337391E-04
4.708565E+03	2.182463E-03	7.287063E-04
4.718477E+03	2.168651E-03	7.240479E-04
4.728390E+03	2.155932E-03	7.197604E-04
4.738303E+03	2.144392E-03	7.158723E-04
4.748216E+03	2.134068E-03	7.123962E-04
4.758128E+03	2.124943E-03	7.093257E-04
4.768041E+03	2.117061E-03	7.066759E-04
4.777954E+03	2.110461E-03	7.044591E-04
4.787867E+03	2.105109E-03	7.026640E-04
4.797780E+03	2.101031E-03	7.012991E-04
4.807692E+03	2.098226E-03	7.003642E-04
4.817605E+03	2.096669E-03	6.998508E-04
4.827518E+03	2.096349E-03	6.997551E-04
4.837431E+03	2.097276E-03	7.000804E-04
4.847343E+03	2.099410E-03	7.008129E-04
4.857256E+03	2.102749E-03	7.019529E-04
4.867169E+03	2.107224E-03	7.034763E-04
4.877082E+03	2.112826E-03	7.053811E-04
4.886994E+03	2.119523E-03	7.076556E-04
4.896907E+03	2.127249E-03	7.102788E-04
4.906820E+03	2.135988E-03	7.132446E-04
4.916733E+03	2.145670E-03	7.165301E-04
4.926646E+03	2.156266E-03	7.201260E-04
4.936558E+03	2.167703E-03	7.240071E-04
4.946471E+03	2.179921E-03	7.281541E-04
4.956384E+03	2.192841E-03	7.325406E-04
4.966297E+03	2.206444E-03	7.371601E-04
4.976209E+03	2.220621E-03	7.419765E-04
4.986122E+03	2.235307E-03	7.469680E-04
4.996035E+03	2.250457E-03	7.521198E-04
5.005948E+03	2.265982E-03	7.574022E-04
5.015860E+03	2.281813E-03	7.627920E-04
5.025773E+03	2.297885E-03	7.682677E-04
5.035686E+03	2.314133E-03	7.738075E-04
5.045599E+03	2.330469E-03	7.793820E-04
5.055511E+03	2.346833E-03	7.849713E-04
5.065424E+03	2.363194E-03	7.905647E-04
5.075337E+03	2.379451E-03	7.961291E-04
5.085250E+03	2.395603E-03	8.016638E-04
5.095163E+03	2.411539E-03	8.071314E-04
5.105075E+03	2.427268E-03	8.125352E-04
5.114988E+03	2.442740E-03	8.178580E-04
5.124901E+03	2.457928E-03	8.230916E-04
5.134814E+03	2.472823E-03	8.282319E-04
5.144726E+03	2.487387E-03	8.332668E-04
5.154639E+03	2.501623E-03	8.381970E-04
5.164552E+03	2.515513E-03	8.430163E-04
5.174465E+03	2.529120E-03	8.477461E-04
5.184377E+03	2.542393E-03	8.523690E-04
5.194290E+03	2.555385E-03	8.569027E-04
5.204203E+03	2.568133E-03	8.613595E-04
5.214116E+03	2.580679E-03	8.657536E-04
5.224029E+03	2.593018E-03	8.700829E-04
5.233941E+03	2.605230E-03	8.743745E-04
5.243854E+03	2.617343E-03	8.786379E-04
5.253767E+03	2.629418E-03	8.828931E-04
5.263680E+03	2.641492E-03	8.871530E-04
5.273592E+03	2.653654E-03	8.914468E-04
5.283505E+03	2.665916E-03	8.957792E-04
5.293418E+03	2.678337E-03	9.001700E-04
5.303331E+03	2.690951E-03	9.046300E-04
5.313243E+03	2.703839E-03	9.091872E-04
5.323156E+03	2.716967E-03	9.138299E-04
5.333069E+03	2.730403E-03	9.185811E-04
5.342982E+03	2.744152E-03	9.234423E-04
5.352895E+03	2.758210E-03	9.284125E-04
5.362807E+03	2.772503E-03	9.334670E-04
5.372720E+03	2.787012E-03	9.385988E-04
5.382633E+03	2.801704E-03	9.437977E-04
5.392546E+03	2.816428E-03	9.490119E-04
5.402458E+03	2.831133E-03	9.542252E-04
5.412371E+03	2.845683E-03	9.593909E-04
5.422284E+03	2.859982E-03	9.644774E-04
5.432197E+03	2.874082E-03	9.695013E-04
5.442109E+03	2.887909E-03	9.744380E-04
5.452022E+03	2.901504E-03	9.793010E-04
5.461935E+03	2.914843E-03	9.840826E-04
5.471848E+03	2.927996E-03	9.888059E-04
5.481761E+03	2.940879E-03	9.934428E-04
5.491673E+03	2.953496E-03	9.979941E-04
5.501586E+03	2.965791E-03	1.002441E-03
5.511499E+03	2.977798E-03	1.006795E-03
5.521412E+03	2.989434E-03	1.011028E-03
5.531324E+03	3.000671E-03	1.015131E-03
5.541237E+03	3.011458E-03	1.019085E-03
5.551150E+03	3.021803E-03	1.022893E-03
5.561063E+03	3.031628E-03	1.026530E-03
5.570975E+03	3.040918E-03	1.029989E-03
5.580888E+03	3.049659E-03	1.033265E-03
5.590801E+03	3.057812E-03	1.036346E-03
5.600714E+03	3.065375E-03	1.039230E-03
5.610626E+03	3.072281E-03	1.041895E-03
5.620539E+03	3.078535E-03	1.044341E-03
5.630452E+03	3.084147E-03	1.046573E-03
5.640365E+03	3.089099E-03	1.048583E-03
5.650278E+03	3.093372E-03	1.050366E-03
5.660190E+03	3.096960E-03	1.051918E-03
5.670103E+03	3.099918E-03	1.053259E-03
5.680016E+03	3.102180E-03	1.054365E-03
5.689929E+03	3.103816E-03	1.055260E-03
5.699841E+03	3.104829E-03	1.055945E-03
5.709754E+03	3.105197E-03	1.056412E-03
5.719667E+03	3.104966E-03	1.056677E-03
5.729580E+03	3.104188E-03	1.056756E-03
5.739492E+03	3.102851E-03	1.056647E-03
5.749405E+03	3.100979E-03	1.056356E-03
5.759318E+03	3.098669E-03	1.055917E-03
5.769231E+03	3.095886E-03	1.055318E-03
5.779144E+03	3.092700E-03	1.054582E-03
5.789056E+03	3.089152E-03	1.053723E-03
5.798969E+03	3.085283E-03	1.052754E-03
5.808882E+03	3.081175E-03	1.051704E-03
5.818795E+03	3.076814E-03	1.050569E-03
5.828707E+03	3.072320E-03	1.049388E-03
5.838620E+03	3.067718E-03	1.048170E-03
5.848533E+03	3.063071E-03	1.046937E-03
5.858446E+03	3.058444E-03	1.045710E-03
5.868358E+03	3.053904E-03	1.044513E-03
5.878271E+03	3.049556E-03	1.043383E-03
5.888184E+03	3.045406E-03	1.042320E-03
5.898097E+03	3.041529E-03	1.041350E-03
5.908010E+03	3.038037E-03	1.040513E-03
5.917922E+03	3.035007E-03	1.039834E-03
5.927835E+03	3.032449E-03	1.039317E-03
5.937748E+03	3.030512E-03	1.039014E-03
5.947661E+03	3.029169E-03	1.038915E-03
5.957573E+03	3.028604E-03	1.039083E-03
5.967486E+03	3.028784E-03	1.039508E-03
5.977399E+03	3.029779E-03	1.040214E-03
5.987312E+03	3.031698E-03	1.041238E-03
5.997224E+03	3.034565E-03	1.042590E-03
6.007137E+03	3.038440E-03	1.044289E-03
6.017050E+03	3.043308E-03	1.046333E-03
6.026963E+03	3.049286E-03	1.048760E-03
6.036875E+03	3.056303E-03	1.051547E-03
6.046788E+03	3.064469E-03	1.054732E-03
6.056701E+03	3.073771E-03	1.058312E-03
6.066614E+03	3.084186E-03	1.062278E-03
6.076527E+03	3.095722E-03	1.066634E-03
6.086439E+03	3.108418E-03	1.071394E-03
6.096352E+03	3.122220E-03	1.076539E-03
6.106265E+03	3.137111E-03	1.082064E-03
6.116178E+03	3.153143E-03	1.087988E-03
6.126090E+03	3.170195E-03	1.094269E-03
6.136003E+03	3.188261E-03	1.100906E-03
6.145916E+03	3.207330E-03	1.107894E-03
6.155829E+03	3.227376E-03	1.115227E-03
6.165741E+03	3.248289E-03	1.122865E-03
6.175654E+03	3.269995E-03	1.130784E-03
6.185567E+03	3.292445E-03	1.138967E-03
6.195480E+03	3.315506E-03	1.147368E-03
6.205393E+03	3.339126E-03	1.155970E-03
6.215305E+03	3.363200E-03	1.164737E-03
6.225218E+03	3.387667E-03	1.173647E-03
6.235131E+03	3.412420E-03	1.182663E-03
6.245044E+03	3.437349E-03	1.191749E-03
6.254956E+03	3.462391E-03	1.200880E-03
6.264869E+03	3.487482E-03	1.210037E-03
6.274782E+03	3.512469E-03	1.219165E-03
6.284695E+03	3.537291E-03	1.228243E-03
6.294607E+03	3.561898E-03	1.237254E-03
6.304520E+03	3.586141E-03	1.246146E-03
6.314433E+03	3.610023E-03	1.254920E-03
6.324346E+03	3.633461E-03	1.263546E-03
6.334259E+03	3.656368E-03	1.271994E-03
6.344171E+03	3.678668E-03	1.280238E-03
6.354084E+03	3.700397E-03	1.288290E-03
6.363997E+03	3.721435E-03	1.296107E-03
6.373910E+03	3.741837E-03	1.303709E-03
6.383822E+03	3.761549E-03	1.311076E-03
6.393735E+03	3.780533E-03	1.318196E-03
6.403648E+03	3.798806E-03	1.325073E-03
6.413561E+03	3.816339E-03	1.331696E-03
6.423473E+03	3.833164E-03	1.338078E-03
6.433386E+03	3.849147E-03	1.344171E-03
6.443299E+03	3.864393E-03	1.350011E-03
6.453212E+03	3.878890E-03	1.355593E-03
6.463125E+03	3.892580E-03	1.360897E-03
6.473037E+03	3.905517E-03	1.365942E-03
6.482950E+03	3.917709E-03	1.370729E-03
6.492863E+03	3.929164E-03	1.375262E-03
6.502776E+03	3.939893E-03	1.379545E-03
6.512688E+03	3.949971E-03	1.383601E-03
6.522601E+03	3.959355E-03	1.387418E-03
6.532514E+03	3.968065E-03	1.391000E-03
6.542427E+03	3.976179E-03	1.394376E-03
6.552339E+03	3.983728E-03	1.397555E-03
6.562252E+03	3.990666E-03	1.400522E-03
6.572165E+03	3.997087E-03	1.403309E-03
6.582078E+03	4.002945E-03	1.405900E-03
6.591990E+03	4.008405E-03	1.408352E-03
6.601903E+03	4.013358E-03	1.410627E-03
6.611816E+03	4.017828E-03	1.412733E-03
6.621729E+03	4.021910E-03	1.414704E-03
6.631642E+03	4.025629E-03	1.416548E-03
6.641554E+03	4.028945E-03	1.418250E-03
6.651467E+03	4.031875E-03	1.419817E-03
6.661380E+03	4.034518E-03	1.421282E-03
6.671293E+03	4.036823E-03	1.422629E-03
6.681205E+03	4.038882E-03	1.423889E-03
6.691118E+03	4.040573E-03	1.425019E-03
6.701031E+03	4.042057E-03	1.426076E-03
6.710944E+03	4.043206E-03	1.427015E-03
6.720856E+03	4.044182E-03	1.427892E-03
6.730769E+03	4.044850E-03	1.428660E-03
6.740682E+03	4.045296E-03	1.429348E-03
6.750595E+03	4.045534E-03	1.429963E-03
6.760508E+03	4.045496E-03	1.430479E-03
6.770420E+03	4.045263E-03	1.430926E-03
6.780333E+03	4.044770E-03	1.431279E-03
6.790246E+03	4.044094E-03	1.431567E-03
6.800159E+03	4.043086E-03	1.431735E-03
6.810071E+03	4.041901E-03	1.431840E-03
6.819984E+03	4.040465E-03	1.431855E-03
6.829897E+03	4.038776E-03	1.431779E-03
6.839810E+03	4.036758E-03	1.431584E-03
6.849722E+03	4.034558E-03	1.431324E-03
6.859635E+03	4.031946E-03	1.430916E-03
6.869548E+03	4.029148E-03	1.430439E-03
6.879461E+03	4.026009E-03	1.429840E-03
6.889374E+03	4.022520E-03	1.429114E-03
6.899286E+03	4.018756E-03	1.428289E-03
6.909199E+03	4.014635E-03	1.427335E-03
6.919112E+03	4.010154E-03	1.426251E-03
6.929025E+03	4.005308E-03	1.425034E-03
6.938937E+03	4.000095E-03	1.423684E-03
6.948850E+03	3.994510E-03	1.422199E-03
6.958763E+03	3.988476E-03	1.420552E-03
6.968676E+03	3.982143E-03	1.418795E-03
6.978588E+03	3.975280E-03	1.416846E-03
6.988501E+03	3.968124E-03	1.414791E-03
6.998414E+03	3.960439E-03	1.412543E-03
7.008327E+03	3.952387E-03	1.410161E-03
7.018239E+03	3.943897E-03	1.407619E-03
7.028152E+03	3.934972E-03	1.404919E-03
7.038065E+03	3.925704E-03	1.402092E-03
7.047978E+03	3.915942E-03	1.399086E-03
7.057891E+03	3.905779E-03	1.395932E-03
7.067803E+03	3.895153E-03	1.392609E-03
7.077716E+03	3.884154E-03	1.389148E-03
7.087629E+03	3.872808E-03	1.385559E-03
7.097542E+03	3.861050E-03	1.381819E-03
7.107454E+03	3.848982E-03	1.377963E-03
7.117367E+03	3.836474E-03	1.373946E-03
7.127280E+03	3.823711E-03	1.369832E-03
7.137193E+03	3.810638E-03	1.365603E-03
7.147105E+03	3.797212E-03	1.361243E-03
7.157018E+03	3.783540E-03	1.356790E-03
7.166931E+03	3.769659E-03	1.352257E-03
7.176844E+03	3.755522E-03	1.347628E-03
7.186757E+03	3.741171E-03	1.342917E-03
7.196669E+03	3.726639E-03	1.338136E-03
7.206582E+03	3.711969E-03	1.333300E-03
7.216495E+03	3.697198E-03	1.328424E-03
7.226408E+03	3.682216E-03	1.323467E-03
7.236320E+03	3.667212E-03	1.318496E-03
7.246233E+03	3.652154E-03	1.313502E-03
7.256146E+03	3.637006E-03	1.308470E-03
7.266059E+03	3.621882E-03	1.303442E-03
7.275971E+03	3.606671E-03	1.298377E-03
7.285884E+03	3.591410E-03	1.293289E-03
7.295797E+03	3.576142E-03	1.288195E-03
7.305710E+03	3.560820E-03	1.283075E-03
7.315623E+03	3.545557E-03	1.277972E-03
7.325535E+03	3.530159E-03	1.272815E-03
7.335448E+03	3.514805E-03	1.267669E-03
7.345361E+03	3.499374E-03	1.262491E-03
7.355274E+03	3.483961E-03	1.257314E-03
7.365186E+03	3.468516E-03	1.252120E-03
7.375099E+03	3.453051E-03	1.246915E-03
7.385012E+03	3.437659E-03	1.241731E-03
7.394925E+03	3.422273E-03	1.236544E-03
7.404837E+03	3.407118E-03	1.231437E-03
7.414750E+03	3.392054E-03	1.226356E-03
7.424663E+03	3.377223E-03	1.221356E-03
7.434576E+03	3.362544E-03	1.216406E-03
7.444489E+03	3.348229E-03	1.211583E-03
7.454401E+03	3.334186E-03	1.206854E-03
7.464314E+03	3.320403E-03	1.202215E-03
7.474227E+03	3.306926E-03	1.197682E-03
7.484140E+03	3.293727E-03	1.193245E-03
7.494052E+03	3.280925E-03	1.188948E-03
7.503965E+03	3.268337E-03	1.184725E-03
7.513878E+03	3.256003E-03	1.180589E-03
7.523791E+03	3.243962E-03	1.176556E-03
7.533703E+03	3.232103E-03	1.172585E-03
7.543616E+03	3.220463E-03	1.168690E-03
7.553529E+03	3.208934E-03	1.164831E-03
7.563442E+03	3.197626E-03	1.161048E-03
7.573354E+03	3.186367E-03	1.157280E-03
7.583267E+03	3.175271E-03	1.153567E-03
7.593180E+03	3.164166E-03	1.149847E-03
7.603093E+03	3.153171E-03	1.146163E-03
7.613006E+03	3.142125E-03	1.142458E-03
7.622918E+03	3.131151E-03	1.138775E-03
7.632831E+03	3.120163E-03	1.135083E-03
7.642744E+03	3.109154E-03	1.131380E-03
7.652657E+03	3.098109E-03	1.127660E-03
7.662569E+03	3.087031E-03	1.123925E-03
7.672482E+03	3.075912E-03	1.120171E-03
7.682395E+03	3.064686E-03	1.116375E-03
7.692308E+03	3.053498E-03	1.112589E-03
