#wls	flux	fluxerr
1.586043E+03	5.686939E-03	2.871922E-04
1.625694E+03	5.433842E-03	2.731245E-04
1.665345E+03	5.159516E-03	2.580869E-04
1.704996E+03	4.868549E-03	2.423273E-04
1.744647E+03	4.566261E-03	2.261259E-04
1.784298E+03	4.251975E-03	2.094627E-04
1.823949E+03	3.926548E-03	1.923938E-04
1.863600E+03	3.589352E-03	1.749028E-04
1.903251E+03	3.241886E-03	1.570774E-04
1.942902E+03	2.889504E-03	1.391899E-04
1.982554E+03	2.544615E-03	1.218446E-04
2.022205E+03	2.228373E-03	1.060478E-04
2.061856E+03	1.967523E-03	9.304460E-05
2.101507E+03	1.788524E-03	8.403299E-05
2.141158E+03	1.706137E-03	7.963008E-05
2.180809E+03	1.719689E-03	7.971574E-05
2.220460E+03	1.815879E-03	8.358582E-05
2.260111E+03	1.975118E-03	9.026286E-05
2.299762E+03	2.178275E-03	9.881342E-05
2.339413E+03	2.411048E-03	1.085454E-04
2.379064E+03	2.663768E-03	1.189919E-04
2.418715E+03	2.932658E-03	1.299598E-04
2.458366E+03	3.216189E-03	1.413594E-04
2.498017E+03	3.515779E-03	1.532313E-04
2.537669E+03	3.832713E-03	1.656075E-04
2.577320E+03	4.169137E-03	1.785545E-04
2.616971E+03	4.526747E-03	1.921158E-04
2.656622E+03	4.907416E-03	2.063389E-04
2.696273E+03	5.311220E-03	2.211929E-04
2.735924E+03	5.739467E-03	2.366968E-04
2.775575E+03	6.192303E-03	2.528194E-04
2.815226E+03	6.669906E-03	2.695300E-04
2.854877E+03	7.172632E-03	2.868038E-04
2.894528E+03	7.702383E-03	3.046764E-04
2.934179E+03	8.261893E-03	3.232119E-04
2.973830E+03	8.855169E-03	3.425185E-04
2.983743E+03	9.009644E-03	3.474935E-04
2.993656E+03	9.166595E-03	3.525263E-04
3.003569E+03	9.326017E-03	3.576160E-04
3.013481E+03	9.488825E-03	3.627965E-04
3.023394E+03	9.655658E-03	3.680909E-04
3.033307E+03	9.827878E-03	3.735496E-04
3.043220E+03	1.000494E-02	3.791497E-04
3.053132E+03	1.018760E-02	3.849187E-04
3.063045E+03	1.037505E-02	3.908233E-04
3.072958E+03	1.056743E-02	3.968674E-04
3.082871E+03	1.076491E-02	4.030556E-04
3.092784E+03	1.096736E-02	4.093808E-04
3.102696E+03	1.117497E-02	4.158485E-04
3.112609E+03	1.138728E-02	4.224400E-04
3.122522E+03	1.160487E-02	4.291746E-04
3.132435E+03	1.182763E-02	4.360464E-04
3.142347E+03	1.205582E-02	4.430630E-04
3.152260E+03	1.228902E-02	4.502074E-04
3.162173E+03	1.252752E-02	4.574876E-04
3.172086E+03	1.277160E-02	4.649120E-04
3.181998E+03	1.302120E-02	4.724767E-04
3.191911E+03	1.327663E-02	4.801908E-04
3.201824E+03	1.353786E-02	4.880508E-04
3.211737E+03	1.380521E-02	4.960665E-04
3.221649E+03	1.407868E-02	5.042349E-04
3.231562E+03	1.435825E-02	5.125536E-04
3.241475E+03	1.464428E-02	5.210327E-04
3.251388E+03	1.493675E-02	5.296698E-04
3.261301E+03	1.523571E-02	5.384633E-04
3.271213E+03	1.554183E-02	5.474354E-04
3.281126E+03	1.585483E-02	5.565725E-04
3.291039E+03	1.617471E-02	5.658731E-04
3.300952E+03	1.650151E-02	5.753359E-04
3.310864E+03	1.683598E-02	5.849836E-04
3.320777E+03	1.717746E-02	5.947913E-04
3.330690E+03	1.752634E-02	6.047696E-04
3.340603E+03	1.788267E-02	6.149178E-04
3.350515E+03	1.824617E-02	6.252231E-04
3.360428E+03	1.861689E-02	6.356847E-04
3.370341E+03	1.899524E-02	6.463142E-04
3.380254E+03	1.938023E-02	6.570751E-04
3.390167E+03	1.977263E-02	6.679909E-04
3.400079E+03	2.017147E-02	6.790262E-04
3.409992E+03	2.057714E-02	6.901920E-04
3.419905E+03	2.098868E-02	7.014537E-04
3.429818E+03	2.140650E-02	7.128228E-04
3.439730E+03	2.182962E-02	7.242647E-04
3.449643E+03	2.225811E-02	7.357798E-04
3.459556E+03	2.269100E-02	7.473340E-04
3.469469E+03	2.312835E-02	7.589281E-04
3.479381E+03	2.356917E-02	7.705282E-04
3.489294E+03	2.401319E-02	7.821240E-04
3.499207E+03	2.445976E-02	7.936942E-04
3.509120E+03	2.490826E-02	8.052172E-04
3.519033E+03	2.535840E-02	8.166834E-04
3.528945E+03	2.580883E-02	8.280492E-04
3.538858E+03	2.625926E-02	8.393054E-04
3.548771E+03	2.670941E-02	8.504432E-04
3.558684E+03	2.715862E-02	8.614423E-04
3.568596E+03	2.760625E-02	8.722829E-04
3.578509E+03	2.805163E-02	8.829453E-04
3.588422E+03	2.849449E-02	8.934214E-04
3.598335E+03	2.893450E-02	9.037027E-04
3.608247E+03	2.937030E-02	9.137481E-04
3.618160E+03	2.980193E-02	9.235608E-04
3.628073E+03	3.022834E-02	9.331108E-04
3.637986E+03	3.064996E-02	9.424126E-04
3.647898E+03	3.106607E-02	9.514470E-04
3.657811E+03	3.147635E-02	9.602058E-04
3.667724E+03	3.188083E-02	9.686922E-04
3.677637E+03	3.227915E-02	9.768979E-04
3.687550E+03	3.267169E-02	9.848363E-04
3.697462E+03	3.305773E-02	9.924879E-04
3.707375E+03	3.343762E-02	9.998661E-04
3.717288E+03	3.381136E-02	1.006973E-03
3.727201E+03	3.417927E-02	1.013820E-03
3.737113E+03	3.454097E-02	1.020399E-03
3.747026E+03	3.489680E-02	1.026722E-03
3.756939E+03	3.524669E-02	1.032789E-03
3.766852E+03	3.559097E-02	1.038612E-03
3.776764E+03	3.592919E-02	1.044181E-03
3.786677E+03	3.626240E-02	1.049527E-03
3.796590E+03	3.658978E-02	1.054630E-03
3.806503E+03	3.691198E-02	1.059510E-03
3.816416E+03	3.722852E-02	1.064155E-03
3.826328E+03	3.754041E-02	1.068598E-03
3.836241E+03	3.784682E-02	1.072814E-03
3.846154E+03	3.814798E-02	1.076815E-03
3.856067E+03	3.844453E-02	1.080619E-03
3.865979E+03	3.873595E-02	1.084215E-03
3.875892E+03	3.902251E-02	1.087611E-03
3.885805E+03	3.930444E-02	1.090816E-03
3.895718E+03	3.958123E-02	1.093819E-03
3.905630E+03	3.985350E-02	1.096637E-03
3.915543E+03	4.012111E-02	1.099270E-03
3.925456E+03	4.038356E-02	1.101706E-03
3.935369E+03	4.064148E-02	1.103963E-03
3.945282E+03	4.089473E-02	1.106040E-03
3.955194E+03	4.114357E-02	1.107947E-03
3.965107E+03	4.138752E-02	1.109672E-03
3.975020E+03	4.162685E-02	1.111224E-03
3.984933E+03	4.186145E-02	1.112604E-03
3.994845E+03	4.209124E-02	1.113810E-03
4.004758E+03	4.231690E-02	1.114863E-03
4.014671E+03	4.253760E-02	1.115743E-03
4.024584E+03	4.275406E-02	1.116471E-03
4.034496E+03	4.296584E-02	1.117037E-03
4.044409E+03	4.317330E-02	1.117454E-03
4.054322E+03	4.337643E-02	1.117723E-03
4.064235E+03	4.357483E-02	1.117836E-03
4.074148E+03	4.376930E-02	1.117815E-03
4.084060E+03	4.395948E-02	1.117654E-03
4.093973E+03	4.414541E-02	1.117355E-03
4.103886E+03	4.432715E-02	1.116923E-03
4.113799E+03	4.450518E-02	1.116371E-03
4.123711E+03	4.467919E-02	1.115693E-03
4.133624E+03	4.484969E-02	1.114905E-03
4.143537E+03	4.501641E-02	1.114002E-03
4.153450E+03	4.517910E-02	1.112979E-03
4.163362E+03	4.533869E-02	1.111862E-03
4.173275E+03	4.549497E-02	1.110648E-03
4.183188E+03	4.564771E-02	1.109332E-03
4.193101E+03	4.579751E-02	1.107932E-03
4.203013E+03	4.594378E-02	1.106434E-03
4.212926E+03	4.608714E-02	1.104857E-03
4.222839E+03	4.622740E-02	1.103198E-03
4.232752E+03	4.636441E-02	1.101454E-03
4.242665E+03	4.649839E-02	1.099633E-03
4.252577E+03	4.662877E-02	1.097724E-03
4.262490E+03	4.675580E-02	1.095735E-03
4.272403E+03	4.687849E-02	1.093645E-03
4.282316E+03	4.699704E-02	1.091461E-03
4.292228E+03	4.711086E-02	1.089172E-03
4.302141E+03	4.721972E-02	1.086775E-03
4.312054E+03	4.732255E-02	1.084249E-03
4.321967E+03	4.741948E-02	1.081598E-03
4.331879E+03	4.751060E-02	1.078830E-03
4.341792E+03	4.759718E-02	1.075974E-03
4.351705E+03	4.767967E-02	1.073045E-03
4.361618E+03	4.775849E-02	1.070053E-03
4.371531E+03	4.783524E-02	1.067036E-03
4.381443E+03	4.790988E-02	1.063996E-03
4.391356E+03	4.798317E-02	1.060948E-03
4.401269E+03	4.805586E-02	1.057912E-03
4.411182E+03	4.812782E-02	1.054886E-03
4.421094E+03	4.819979E-02	1.051886E-03
4.431007E+03	4.827248E-02	1.048929E-03
4.440920E+03	4.834533E-02	1.046003E-03
4.450833E+03	4.841950E-02	1.043134E-03
4.460745E+03	4.849444E-02	1.040311E-03
4.470658E+03	4.857088E-02	1.037549E-03
4.480571E+03	4.864913E-02	1.034857E-03
4.490484E+03	4.872867E-02	1.032223E-03
4.500397E+03	4.881028E-02	1.029664E-03
4.510309E+03	4.889387E-02	1.027180E-03
4.520222E+03	4.897982E-02	1.024778E-03
4.530135E+03	4.906808E-02	1.022458E-03
4.540048E+03	4.915908E-02	1.020229E-03
4.549960E+03	4.925278E-02	1.018091E-03
4.559873E+03	4.934965E-02	1.016054E-03
4.569786E+03	4.945015E-02	1.014127E-03
4.579699E+03	4.955432E-02	1.012312E-03
4.589611E+03	4.966269E-02	1.010620E-03
4.599524E+03	4.977577E-02	1.009061E-03
4.609437E+03	4.989457E-02	1.007657E-03
4.619350E+03	5.001880E-02	1.006401E-03
4.629262E+03	5.014948E-02	1.005313E-03
4.639175E+03	5.028727E-02	1.004407E-03
4.649088E+03	5.043326E-02	1.003705E-03
4.659001E+03	5.058676E-02	1.003192E-03
4.668914E+03	5.074848E-02	1.002883E-03
4.678826E+03	5.091727E-02	1.002754E-03
4.688739E+03	5.109292E-02	1.002801E-03
4.698652E+03	5.127475E-02	1.003012E-03
4.708565E+03	5.146299E-02	1.003392E-03
4.718477E+03	5.165697E-02	1.003927E-03
4.728390E+03	5.185646E-02	1.004614E-03
4.738303E+03	5.206122E-02	1.005450E-03
4.748216E+03	5.227103E-02	1.006430E-03
4.758128E+03	5.248658E-02	1.007568E-03
4.768041E+03	5.270761E-02	1.008858E-03
4.777954E+03	5.293384E-02	1.010292E-03
4.787867E+03	5.316594E-02	1.011882E-03
4.797780E+03	5.340412E-02	1.013630E-03
4.807692E+03	5.364807E-02	1.015528E-03
4.817605E+03	5.389894E-02	1.017597E-03
4.827518E+03	5.415591E-02	1.019818E-03
4.837431E+03	5.442014E-02	1.022213E-03
4.847343E+03	5.469176E-02	1.024782E-03
4.857256E+03	5.497092E-02	1.027526E-03
4.867169E+03	5.525774E-02	1.030445E-03
4.877082E+03	5.555282E-02	1.033549E-03
4.886994E+03	5.585575E-02	1.036829E-03
4.896907E+03	5.616711E-02	1.040292E-03
4.906820E+03	5.648696E-02	1.043939E-03
4.916733E+03	5.681585E-02	1.047777E-03
4.926646E+03	5.715382E-02	1.051806E-03
4.936558E+03	5.750033E-02	1.056015E-03
4.946471E+03	5.785643E-02	1.060420E-03
4.956384E+03	5.822155E-02	1.065008E-03
4.966297E+03	5.859562E-02	1.069779E-03
4.976209E+03	5.897855E-02	1.074727E-03
4.986122E+03	5.937081E-02	1.079860E-03
4.996035E+03	5.977226E-02	1.085173E-03
5.005948E+03	6.018219E-02	1.090653E-03
5.015860E+03	6.060101E-02	1.096305E-03
5.025773E+03	6.102854E-02	1.102124E-03
5.035686E+03	6.146397E-02	1.108095E-03
5.045599E+03	6.190767E-02	1.114222E-03
5.055511E+03	6.235939E-02	1.120499E-03
5.065424E+03	6.281886E-02	1.126921E-03
5.075337E+03	6.328522E-02	1.133471E-03
5.085250E+03	6.375932E-02	1.140162E-03
5.095163E+03	6.423911E-02	1.146958E-03
5.105075E+03	6.472538E-02	1.153871E-03
5.114988E+03	6.521789E-02	1.160895E-03
5.124901E+03	6.571554E-02	1.168011E-03
5.134814E+03	6.621806E-02	1.175212E-03
5.144726E+03	6.672569E-02	1.182502E-03
5.154639E+03	6.723669E-02	1.189850E-03
5.164552E+03	6.775134E-02	1.197259E-03
5.174465E+03	6.826917E-02	1.204721E-03
5.184377E+03	6.878989E-02	1.212230E-03
5.194290E+03	6.931238E-02	1.219766E-03
5.204203E+03	6.983678E-02	1.227332E-03
5.214116E+03	7.036146E-02	1.234897E-03
5.224029E+03	7.088726E-02	1.242476E-03
5.233941E+03	7.141232E-02	1.250037E-03
5.243854E+03	7.193705E-02	1.257588E-03
5.253767E+03	7.246088E-02	1.265117E-03
5.263680E+03	7.298200E-02	1.272593E-03
5.273592E+03	7.350144E-02	1.280035E-03
5.283505E+03	7.401733E-02	1.287410E-03
5.293418E+03	7.452913E-02	1.294709E-03
5.303331E+03	7.503718E-02	1.301938E-03
5.313243E+03	7.554036E-02	1.309079E-03
5.323156E+03	7.603826E-02	1.316125E-03
5.333069E+03	7.652964E-02	1.323055E-03
5.342982E+03	7.701480E-02	1.329875E-03
5.352895E+03	7.749262E-02	1.336567E-03
5.362807E+03	7.796267E-02	1.343122E-03
5.372720E+03	7.842460E-02	1.349535E-03
5.382633E+03	7.887811E-02	1.355798E-03
5.392546E+03	7.932200E-02	1.361892E-03
5.402458E+03	7.975512E-02	1.367795E-03
5.412371E+03	8.017790E-02	1.373515E-03
5.422284E+03	8.058913E-02	1.379030E-03
5.432197E+03	8.098933E-02	1.384349E-03
5.442109E+03	8.137646E-02	1.389437E-03
5.452022E+03	8.175178E-02	1.394315E-03
5.461935E+03	8.211414E-02	1.398964E-03
5.471848E+03	8.246230E-02	1.403361E-03
5.481761E+03	8.279679E-02	1.407518E-03
5.491673E+03	8.311631E-02	1.411410E-03
5.501586E+03	8.341971E-02	1.415020E-03
5.511499E+03	8.370823E-02	1.418368E-03
5.521412E+03	8.398080E-02	1.421436E-03
5.531324E+03	8.423686E-02	1.424216E-03
5.541237E+03	8.447618E-02	1.426705E-03
5.551150E+03	8.469829E-02	1.428895E-03
5.561063E+03	8.490290E-02	1.430781E-03
5.570975E+03	8.508966E-02	1.432360E-03
5.580888E+03	8.525815E-02	1.433625E-03
5.590801E+03	8.540808E-02	1.434572E-03
5.600714E+03	8.553906E-02	1.435196E-03
5.610626E+03	8.565078E-02	1.435493E-03
5.620539E+03	8.574379E-02	1.435473E-03
5.630452E+03	8.581686E-02	1.435118E-03
5.640365E+03	8.586888E-02	1.434411E-03
5.650278E+03	8.590211E-02	1.433390E-03
5.660190E+03	8.591373E-02	1.432012E-03
5.670103E+03	8.590607E-02	1.430315E-03
5.680016E+03	8.587618E-02	1.428255E-03
5.689929E+03	8.582658E-02	1.425874E-03
5.699841E+03	8.575427E-02	1.423124E-03
5.709754E+03	8.566183E-02	1.420052E-03
5.719667E+03	8.554824E-02	1.416642E-03
5.729580E+03	8.541233E-02	1.412878E-03
5.739492E+03	8.525485E-02	1.408773E-03
5.749405E+03	8.507675E-02	1.404347E-03
5.759318E+03	8.487694E-02	1.399584E-03
5.769231E+03	8.465535E-02	1.394486E-03
5.779144E+03	8.441286E-02	1.389070E-03
5.789056E+03	8.414858E-02	1.383323E-03
5.798969E+03	8.386339E-02	1.377263E-03
5.808882E+03	8.355738E-02	1.370894E-03
5.818795E+03	8.323149E-02	1.364235E-03
5.828707E+03	8.288394E-02	1.357259E-03
5.838620E+03	8.251678E-02	1.350002E-03
5.848533E+03	8.213010E-02	1.342468E-03
5.858446E+03	8.172409E-02	1.334663E-03
5.868358E+03	8.129881E-02	1.326591E-03
5.878271E+03	8.085455E-02	1.318258E-03
5.888184E+03	8.039248E-02	1.309688E-03
5.898097E+03	7.991273E-02	1.300883E-03
5.908010E+03	7.941572E-02	1.291854E-03
5.917922E+03	7.890248E-02	1.282619E-03
5.927835E+03	7.837440E-02	1.273203E-03
5.937748E+03	7.782974E-02	1.263581E-03
5.947661E+03	7.727087E-02	1.253791E-03
5.957573E+03	7.669888E-02	1.243854E-03
5.967486E+03	7.611330E-02	1.233765E-03
5.977399E+03	7.551538E-02	1.223544E-03
5.987312E+03	7.490727E-02	1.213228E-03
5.997224E+03	7.428765E-02	1.202798E-03
6.007137E+03	7.365952E-02	1.192302E-03
6.017050E+03	7.302246E-02	1.181736E-03
6.026963E+03	7.237781E-02	1.171121E-03
6.036875E+03	7.172597E-02	1.160465E-03
6.046788E+03	7.106920E-02	1.149805E-03
6.056701E+03	7.040799E-02	1.139150E-03
6.066614E+03	6.974275E-02	1.128506E-03
6.076527E+03	6.907408E-02	1.117882E-03
6.086439E+03	6.840256E-02	1.107283E-03
6.096352E+03	6.772789E-02	1.096703E-03
6.106265E+03	6.705074E-02	1.086150E-03
6.116178E+03	6.637091E-02	1.075618E-03
6.126090E+03	6.569171E-02	1.065158E-03
6.136003E+03	6.501302E-02	1.054766E-03
6.145916E+03	6.433727E-02	1.044478E-03
6.155829E+03	6.366526E-02	1.034306E-03
6.165741E+03	6.299775E-02	1.024258E-03
6.175654E+03	6.233473E-02	1.014333E-03
6.185567E+03	6.167705E-02	1.004543E-03
6.195480E+03	6.102558E-02	9.948980E-04
6.205393E+03	6.037956E-02	9.853851E-04
6.215305E+03	5.973992E-02	9.760168E-04
6.225218E+03	5.910753E-02	9.668038E-04
6.235131E+03	5.848244E-02	9.577432E-04
6.245044E+03	5.786471E-02	9.488322E-04
6.254956E+03	5.725524E-02	9.400818E-04
6.264869E+03	5.665485E-02	9.315022E-04
6.274782E+03	5.606363E-02	9.230915E-04
6.284695E+03	5.548239E-02	9.148602E-04
6.294607E+03	5.491114E-02	9.068055E-04
6.304520E+03	5.435141E-02	8.989501E-04
6.314433E+03	5.380314E-02	8.912905E-04
6.324346E+03	5.326699E-02	8.838354E-04
6.334259E+03	5.274357E-02	8.765929E-04
6.344171E+03	5.223419E-02	8.695828E-04
6.354084E+03	5.173857E-02	8.627989E-04
6.363997E+03	5.125713E-02	8.562470E-04
6.373910E+03	5.079027E-02	8.499321E-04
6.383822E+03	5.033903E-02	8.438705E-04
6.393735E+03	4.990144E-02	8.380286E-04
6.403648E+03	4.947992E-02	8.324458E-04
6.413561E+03	4.907312E-02	8.270989E-04
6.423473E+03	4.868118E-02	8.219895E-04
6.433386E+03	4.830552E-02	8.171414E-04
6.443299E+03	4.794402E-02	8.125180E-04
6.453212E+03	4.759872E-02	8.081540E-04
6.463125E+03	4.726811E-02	8.040234E-04
6.473037E+03	4.695204E-02	8.001236E-04
6.482950E+03	4.665101E-02	7.964631E-04
6.492863E+03	4.636411E-02	7.930262E-04
6.502776E+03	4.609106E-02	7.898086E-04
6.512688E+03	4.583159E-02	7.868054E-04
6.522601E+03	4.558537E-02	7.840115E-04
6.532514E+03	4.535138E-02	7.814090E-04
6.542427E+03	4.513065E-02	7.790162E-04
6.552339E+03	4.492141E-02	7.768028E-04
6.562252E+03	4.472398E-02	7.747743E-04
6.572165E+03	4.453727E-02	7.729123E-04
6.582078E+03	4.436158E-02	7.712218E-04
6.591990E+03	4.419579E-02	7.696843E-04
6.601903E+03	4.403951E-02	7.682926E-04
6.611816E+03	4.389303E-02	7.670523E-04
6.621729E+03	4.375524E-02	7.659441E-04
6.631642E+03	4.362575E-02	7.649617E-04
6.641554E+03	4.350415E-02	7.640978E-04
6.651467E+03	4.339075E-02	7.633583E-04
6.661380E+03	4.328447E-02	7.627245E-04
6.671293E+03	4.318494E-02	7.621898E-04
6.681205E+03	4.309178E-02	7.617481E-04
6.691118E+03	4.300465E-02	7.613933E-04
6.701031E+03	4.292318E-02	7.611193E-04
6.710944E+03	4.284772E-02	7.609326E-04
6.720856E+03	4.277726E-02	7.608154E-04
6.730769E+03	4.271216E-02	7.607744E-04
6.740682E+03	4.265071E-02	7.607795E-04
6.750595E+03	4.259400E-02	7.608502E-04
6.760508E+03	4.254176E-02	7.609820E-04
6.770420E+03	4.249296E-02	7.611571E-04
6.780333E+03	4.244733E-02	7.613706E-04
6.790246E+03	4.240531E-02	7.616311E-04
6.800159E+03	4.236591E-02	7.619207E-04
6.810071E+03	4.232961E-02	7.622486E-04
6.819984E+03	4.229540E-02	7.625971E-04
6.829897E+03	4.226378E-02	7.629754E-04
6.839810E+03	4.223451E-02	7.633797E-04
6.849722E+03	4.220662E-02	7.637927E-04
6.859635E+03	4.218132E-02	7.642372E-04
6.869548E+03	4.215696E-02	7.646833E-04
6.879461E+03	4.213327E-02	7.651269E-04
6.889374E+03	4.211155E-02	7.655919E-04
6.899286E+03	4.209007E-02	7.660475E-04
6.909199E+03	4.207013E-02	7.665177E-04
6.919112E+03	4.205001E-02	7.669721E-04
6.929025E+03	4.203027E-02	7.674214E-04
6.938937E+03	4.201070E-02	7.678622E-04
6.948850E+03	4.199186E-02	7.683056E-04
6.958763E+03	4.197204E-02	7.687210E-04
6.968676E+03	4.195257E-02	7.691333E-04
6.978588E+03	4.193249E-02	7.695258E-04
6.988501E+03	4.191083E-02	7.698814E-04
6.998414E+03	4.188975E-02	7.702405E-04
7.008327E+03	4.186673E-02	7.705576E-04
7.018239E+03	4.184313E-02	7.708587E-04
7.028152E+03	4.181801E-02	7.711271E-04
7.038065E+03	4.179197E-02	7.713751E-04
7.047978E+03	4.176405E-02	7.715856E-04
7.057891E+03	4.173488E-02	7.717712E-04
7.067803E+03	4.170349E-02	7.719151E-04
7.077716E+03	4.167052E-02	7.720299E-04
7.087629E+03	4.163581E-02	7.721139E-04
7.097542E+03	4.159839E-02	7.721499E-04
7.107454E+03	4.155974E-02	7.721665E-04
7.117367E+03	4.151807E-02	7.721315E-04
7.127280E+03	4.147323E-02	7.720434E-04
7.137193E+03	4.142672E-02	7.719307E-04
7.147105E+03	4.137758E-02	7.717772E-04
7.157018E+03	4.132567E-02	7.715811E-04
7.166931E+03	4.127086E-02	7.713411E-04
7.176844E+03	4.121385E-02	7.710715E-04
7.186757E+03	4.115285E-02	7.707399E-04
7.196669E+03	4.108940E-02	7.703764E-04
7.206582E+03	4.102255E-02	7.699643E-04
7.216495E+03	4.095302E-02	7.695182E-04
7.226408E+03	4.087986E-02	7.690216E-04
7.236320E+03	4.080379E-02	7.684891E-04
7.246233E+03	4.072388E-02	7.679040E-04
7.256146E+03	4.064085E-02	7.672816E-04
7.266059E+03	4.055462E-02	7.666210E-04
7.275971E+03	4.046594E-02	7.659380E-04
7.285884E+03	4.037385E-02	7.652153E-04
7.295797E+03	4.027826E-02	7.644522E-04
7.305710E+03	4.018082E-02	7.636813E-04
7.315623E+03	4.008055E-02	7.628852E-04
7.325535E+03	3.997827E-02	7.620803E-04
7.335448E+03	3.987386E-02	7.612658E-04
7.345361E+03	3.976901E-02	7.604749E-04
7.355274E+03	3.966365E-02	7.597074E-04
7.365186E+03	3.955681E-02	7.589461E-04
7.375099E+03	3.944928E-02	7.582073E-04
7.385012E+03	3.934011E-02	7.574736E-04
7.394925E+03	3.922744E-02	7.567104E-04
7.404837E+03	3.911209E-02	7.559335E-04
7.414750E+03	3.899312E-02	7.551237E-04
7.424663E+03	3.886960E-02	7.542618E-04
7.434576E+03	3.874150E-02	7.533455E-04
7.444489E+03	3.860879E-02	7.523731E-04
7.454401E+03	3.847147E-02	7.513429E-04
7.464314E+03	3.832864E-02	7.502358E-04
7.474227E+03	3.818119E-02	7.490679E-04
7.484140E+03	3.802828E-02	7.478208E-04
7.494052E+03	3.786993E-02	7.464933E-04
7.503965E+03	3.770798E-02	7.451202E-04
7.513878E+03	3.753980E-02	7.436479E-04
7.523791E+03	3.736727E-02	7.421118E-04
7.533703E+03	3.718957E-02	7.404939E-04
7.543616E+03	3.700766E-02	7.388119E-04
7.553529E+03	3.682075E-02	7.370483E-04
7.563442E+03	3.662982E-02	7.352210E-04
7.573354E+03	3.643408E-02	7.333123E-04
7.583267E+03	3.623450E-02	7.313403E-04
7.593180E+03	3.603029E-02	7.292875E-04
7.603093E+03	3.582244E-02	7.271722E-04
7.613006E+03	3.561104E-02	7.249945E-04
7.622918E+03	3.539529E-02	7.227369E-04
7.632831E+03	3.517532E-02	7.203999E-04
7.642744E+03	3.495294E-02	7.180196E-04
7.652657E+03	3.472651E-02	7.155605E-04
7.662569E+03	3.449616E-02	7.130237E-04
7.672482E+03	3.426367E-02	7.104446E-04
7.682395E+03	3.402746E-02	7.077890E-04
7.692308E+03	3.378846E-02	7.050749E-04
