#wls	flux	fluxerr
1.586043E+03	6.650008E-04	6.647779E-05
1.625694E+03	6.730854E-04	6.719811E-05
1.665345E+03	6.774960E-04	6.754763E-05
1.704996E+03	6.780610E-04	6.751063E-05
1.744647E+03	6.743586E-04	6.704672E-05
1.784298E+03	6.656486E-04	6.608421E-05
1.823949E+03	6.510225E-04	6.453526E-05
1.863600E+03	6.294328E-04	6.229895E-05
1.903251E+03	6.000143E-04	5.929318E-05
1.942902E+03	5.630277E-04	5.554765E-05
1.982554E+03	5.203342E-04	5.124975E-05
2.022205E+03	4.763863E-04	4.684057E-05
2.061856E+03	4.379085E-04	4.298131E-05
2.101507E+03	4.123333E-04	4.039774E-05
2.141158E+03	4.050661E-04	3.961192E-05
2.180809E+03	4.179388E-04	4.079266E-05
2.220460E+03	4.488149E-04	4.372038E-05
2.260111E+03	4.930182E-04	4.792964E-05
2.299762E+03	5.454536E-04	5.291761E-05
2.339413E+03	6.013632E-04	5.821794E-05
2.379064E+03	6.577275E-04	6.353592E-05
2.418715E+03	7.125411E-04	6.867707E-05
2.458366E+03	7.650356E-04	7.356762E-05
2.498017E+03	8.149696E-04	7.818508E-05
2.537669E+03	8.624522E-04	8.254077E-05
2.577320E+03	9.079088E-04	8.667620E-05
2.616971E+03	9.516803E-04	9.062445E-05
2.656622E+03	9.942602E-04	9.443284E-05
2.696273E+03	1.035792E-03	9.811512E-05
2.735924E+03	1.077032E-03	1.017426E-04
2.775575E+03	1.118036E-03	1.053201E-04
2.815226E+03	1.159322E-03	1.088957E-04
2.854877E+03	1.201205E-03	1.124980E-04
2.894528E+03	1.243789E-03	1.161351E-04
2.934179E+03	1.287853E-03	1.198783E-04
2.973830E+03	1.333624E-03	1.237464E-04
2.983743E+03	1.345398E-03	1.247387E-04
2.993656E+03	1.357268E-03	1.257376E-04
3.003569E+03	1.369416E-03	1.267599E-04
3.013481E+03	1.381516E-03	1.277755E-04
3.023394E+03	1.394249E-03	1.288472E-04
3.033307E+03	1.407212E-03	1.299376E-04
3.043220E+03	1.420727E-03	1.310764E-04
3.053132E+03	1.434573E-03	1.322431E-04
3.063045E+03	1.448898E-03	1.334512E-04
3.072958E+03	1.463670E-03	1.346977E-04
3.082871E+03	1.478675E-03	1.359627E-04
3.092784E+03	1.494069E-03	1.372606E-04
3.102696E+03	1.509827E-03	1.385888E-04
3.112609E+03	1.525925E-03	1.399452E-04
3.122522E+03	1.542158E-03	1.413107E-04
3.132435E+03	1.558875E-03	1.427174E-04
3.142347E+03	1.575687E-03	1.441295E-04
3.152260E+03	1.592949E-03	1.455793E-04
3.162173E+03	1.610459E-03	1.470484E-04
3.172086E+03	1.628204E-03	1.485354E-04
3.181998E+03	1.646168E-03	1.500389E-04
3.191911E+03	1.664342E-03	1.515578E-04
3.201824E+03	1.682900E-03	1.531080E-04
3.211737E+03	1.701833E-03	1.546886E-04
3.221649E+03	1.720944E-03	1.562815E-04
3.231562E+03	1.740411E-03	1.579028E-04
3.241475E+03	1.760228E-03	1.595518E-04
3.251388E+03	1.780199E-03	1.612107E-04
3.261301E+03	1.800691E-03	1.629128E-04
3.271213E+03	1.821325E-03	1.646234E-04
3.281126E+03	1.842469E-03	1.663758E-04
3.291039E+03	1.863930E-03	1.681524E-04
3.300952E+03	1.885703E-03	1.699527E-04
3.310864E+03	1.907970E-03	1.717929E-04
3.320777E+03	1.930539E-03	1.736557E-04
3.330690E+03	1.953594E-03	1.755574E-04
3.340603E+03	1.977129E-03	1.774973E-04
3.350515E+03	2.000954E-03	1.794583E-04
3.360428E+03	2.025438E-03	1.814733E-04
3.370341E+03	2.050203E-03	1.835083E-04
3.380254E+03	2.075618E-03	1.855961E-04
3.390167E+03	2.101493E-03	1.877196E-04
3.400079E+03	2.128009E-03	1.898948E-04
3.409992E+03	2.154975E-03	1.921046E-04
3.419905E+03	2.182574E-03	1.943648E-04
3.429818E+03	2.210800E-03	1.966750E-04
3.439730E+03	2.239648E-03	1.990343E-04
3.449643E+03	2.269114E-03	2.014423E-04
3.459556E+03	2.299377E-03	2.039145E-04
3.469469E+03	2.330063E-03	2.064177E-04
3.479381E+03	2.361717E-03	2.089999E-04
3.489294E+03	2.393967E-03	2.116279E-04
3.499207E+03	2.426991E-03	2.143172E-04
3.509120E+03	2.460600E-03	2.170510E-04
3.519033E+03	2.495152E-03	2.198604E-04
3.528945E+03	2.530638E-03	2.227445E-04
3.538858E+03	2.566871E-03	2.256865E-04
3.548771E+03	2.603845E-03	2.286856E-04
3.558684E+03	2.641911E-03	2.317723E-04
3.568596E+03	2.680704E-03	2.349143E-04
3.578509E+03	2.720394E-03	2.381263E-04
3.588422E+03	2.761152E-03	2.414227E-04
3.598335E+03	2.802791E-03	2.447871E-04
3.608247E+03	2.845479E-03	2.482337E-04
3.618160E+03	2.889208E-03	2.517615E-04
3.628073E+03	2.933969E-03	2.553693E-04
3.637986E+03	2.979751E-03	2.590558E-04
3.647898E+03	3.026547E-03	2.628201E-04
3.657811E+03	3.074520E-03	2.666759E-04
3.667724E+03	3.123487E-03	2.706071E-04
3.677637E+03	3.173612E-03	2.746273E-04
3.687550E+03	3.224885E-03	2.787354E-04
3.697462E+03	3.277465E-03	2.829447E-04
3.707375E+03	3.331172E-03	2.872392E-04
3.717288E+03	3.385995E-03	2.916175E-04
3.727201E+03	3.442094E-03	2.960931E-04
3.737113E+03	3.499458E-03	3.006645E-04
3.747026E+03	3.558075E-03	3.053303E-04
3.756939E+03	3.618103E-03	3.101035E-04
3.766852E+03	3.679195E-03	3.149540E-04
3.776764E+03	3.741843E-03	3.199234E-04
3.786677E+03	3.805701E-03	3.249815E-04
3.796590E+03	3.870757E-03	3.301272E-04
3.806503E+03	3.937336E-03	3.353873E-04
3.816416E+03	4.005257E-03	3.407462E-04
3.826328E+03	4.074512E-03	3.462024E-04
3.836241E+03	4.145252E-03	3.517686E-04
3.846154E+03	4.217305E-03	3.574294E-04
3.856067E+03	4.290823E-03	3.631973E-04
3.865979E+03	4.365632E-03	3.690571E-04
3.875892E+03	4.442048E-03	3.750349E-04
3.885805E+03	4.519737E-03	3.811019E-04
3.895718E+03	4.598851E-03	3.872706E-04
3.905630E+03	4.679542E-03	3.935532E-04
3.915543E+03	4.761480E-03	3.999213E-04
3.925456E+03	4.844977E-03	4.064007E-04
3.935369E+03	4.929867E-03	4.129768E-04
3.945282E+03	5.016300E-03	4.196617E-04
3.955194E+03	5.103952E-03	4.264279E-04
3.965107E+03	5.193136E-03	4.333008E-04
3.975020E+03	5.283685E-03	4.402661E-04
3.984933E+03	5.375594E-03	4.473227E-04
3.994845E+03	5.469022E-03	4.544834E-04
4.004758E+03	5.563644E-03	4.617207E-04
4.014671E+03	5.659625E-03	4.690477E-04
4.024584E+03	5.757105E-03	4.764755E-04
4.034496E+03	5.855631E-03	4.839660E-04
4.044409E+03	5.955511E-03	4.915445E-04
4.054322E+03	6.056742E-03	4.992100E-04
4.064235E+03	6.159016E-03	5.069366E-04
4.074148E+03	6.262503E-03	5.147380E-04
4.084060E+03	6.367042E-03	5.226006E-04
4.093973E+03	6.472651E-03	5.305252E-04
4.103886E+03	6.579330E-03	5.385115E-04
4.113799E+03	6.686943E-03	5.465480E-04
4.123711E+03	6.795493E-03	5.546346E-04
4.133624E+03	6.904848E-03	5.627600E-04
4.143537E+03	7.015021E-03	5.709252E-04
4.153450E+03	7.125726E-03	5.791065E-04
4.163362E+03	7.237137E-03	5.873177E-04
4.173275E+03	7.349110E-03	5.955470E-04
4.183188E+03	7.461527E-03	6.037846E-04
4.193101E+03	7.574264E-03	6.120202E-04
4.203013E+03	7.687188E-03	6.202431E-04
4.212926E+03	7.800183E-03	6.284437E-04
4.222839E+03	7.913277E-03	6.366244E-04
4.232752E+03	8.026354E-03	6.447755E-04
4.242665E+03	8.139143E-03	6.528756E-04
4.252577E+03	8.251546E-03	6.609168E-04
4.262490E+03	8.363438E-03	6.688892E-04
4.272403E+03	8.474716E-03	6.767848E-04
4.282316E+03	8.585420E-03	6.846070E-04
4.292228E+03	8.695001E-03	6.923124E-04
4.302141E+03	8.803802E-03	6.999285E-04
4.312054E+03	8.911275E-03	7.074122E-04
4.321967E+03	9.017616E-03	7.147795E-04
4.331879E+03	9.122575E-03	7.220111E-04
4.341792E+03	9.226063E-03	7.291003E-04
4.351705E+03	9.327971E-03	7.360394E-04
4.361618E+03	9.428208E-03	7.428215E-04
4.371531E+03	9.526822E-03	7.494512E-04
4.381443E+03	9.623711E-03	7.559210E-04
4.391356E+03	9.718785E-03	7.622247E-04
4.401269E+03	9.812236E-03	7.683779E-04
4.411182E+03	9.903817E-03	7.743618E-04
4.421094E+03	9.993442E-03	7.801707E-04
4.431007E+03	1.008114E-02	7.858078E-04
4.440920E+03	1.016699E-02	7.912788E-04
4.450833E+03	1.025057E-02	7.965537E-04
4.460745E+03	1.033224E-02	8.016591E-04
4.470658E+03	1.041175E-02	8.065779E-04
4.480571E+03	1.048914E-02	8.113136E-04
4.490484E+03	1.056445E-02	8.158700E-04
4.500397E+03	1.063773E-02	8.202517E-04
4.510309E+03	1.070915E-02	8.244728E-04
4.520222E+03	1.077861E-02	8.285266E-04
4.530135E+03	1.084628E-02	8.324270E-04
4.540048E+03	1.091235E-02	8.361881E-04
4.549960E+03	1.097684E-02	8.398139E-04
4.559873E+03	1.103994E-02	8.433174E-04
4.569786E+03	1.110166E-02	8.467022E-04
4.579699E+03	1.116232E-02	8.499918E-04
4.589611E+03	1.122195E-02	8.531894E-04
4.599524E+03	1.128071E-02	8.563082E-04
4.609437E+03	1.133879E-02	8.593615E-04
4.619350E+03	1.139632E-02	8.623614E-04
4.629262E+03	1.145350E-02	8.653217E-04
4.639175E+03	1.151047E-02	8.682545E-04
4.649088E+03	1.156755E-02	8.711829E-04
4.659001E+03	1.162476E-02	8.741092E-04
4.668914E+03	1.168226E-02	8.770459E-04
4.678826E+03	1.174050E-02	8.800255E-04
4.688739E+03	1.179951E-02	8.830509E-04
4.698652E+03	1.185944E-02	8.861336E-04
4.708565E+03	1.192076E-02	8.893075E-04
4.718477E+03	1.198348E-02	8.925733E-04
4.728390E+03	1.204788E-02	8.959523E-04
4.738303E+03	1.211397E-02	8.994442E-04
4.748216E+03	1.218175E-02	9.030482E-04
4.758128E+03	1.225108E-02	9.067538E-04
4.768041E+03	1.232195E-02	9.105599E-04
4.777954E+03	1.239420E-02	9.144550E-04
4.787867E+03	1.246799E-02	9.184494E-04
4.797780E+03	1.254301E-02	9.225206E-04
4.807692E+03	1.261955E-02	9.266895E-04
4.817605E+03	1.269715E-02	9.309228E-04
4.827518E+03	1.277625E-02	9.352510E-04
4.837431E+03	1.285653E-02	9.396515E-04
4.847343E+03	1.293799E-02	9.441232E-04
4.857256E+03	1.302074E-02	9.486749E-04
4.867169E+03	1.310449E-02	9.532833E-04
4.877082E+03	1.318949E-02	9.579688E-04
4.886994E+03	1.327575E-02	9.627300E-04
4.896907E+03	1.336292E-02	9.675417E-04
4.906820E+03	1.345130E-02	9.724253E-04
4.916733E+03	1.354069E-02	9.773672E-04
4.926646E+03	1.363108E-02	9.823650E-04
4.936558E+03	1.372258E-02	9.874272E-04
4.946471E+03	1.381502E-02	9.925414E-04
4.956384E+03	1.390835E-02	9.977039E-04
4.966297E+03	1.400255E-02	1.002913E-03
4.976209E+03	1.409773E-02	1.008176E-03
4.986122E+03	1.419371E-02	1.013481E-03
4.996035E+03	1.429044E-02	1.018823E-03
5.005948E+03	1.438803E-02	1.024211E-03
5.015860E+03	1.448629E-02	1.029631E-03
5.025773E+03	1.458517E-02	1.035079E-03
5.035686E+03	1.468480E-02	1.040563E-03
5.045599E+03	1.478494E-02	1.046070E-03
5.055511E+03	1.488573E-02	1.051606E-03
5.065424E+03	1.498710E-02	1.057169E-03
5.075337E+03	1.508869E-02	1.062731E-03
5.085250E+03	1.519093E-02	1.068323E-03
5.095163E+03	1.529343E-02	1.073919E-03
5.105075E+03	1.539613E-02	1.079515E-03
5.114988E+03	1.549914E-02	1.085118E-03
5.124901E+03	1.560241E-02	1.090724E-03
5.134814E+03	1.570570E-02	1.096318E-03
5.144726E+03	1.580913E-02	1.101907E-03
5.154639E+03	1.591244E-02	1.107475E-03
5.164552E+03	1.601576E-02	1.113030E-03
5.174465E+03	1.611883E-02	1.118555E-03
5.184377E+03	1.622178E-02	1.124059E-03
5.194290E+03	1.632452E-02	1.129535E-03
5.204203E+03	1.642682E-02	1.134969E-03
5.214116E+03	1.652860E-02	1.140356E-03
5.224029E+03	1.662996E-02	1.145703E-03
5.233941E+03	1.673083E-02	1.151006E-03
5.243854E+03	1.683098E-02	1.156248E-03
5.253767E+03	1.693031E-02	1.161425E-03
5.263680E+03	1.702894E-02	1.166544E-03
5.273592E+03	1.712661E-02	1.171588E-03
5.283505E+03	1.722325E-02	1.176554E-03
5.293418E+03	1.731896E-02	1.181448E-03
5.303331E+03	1.741330E-02	1.186242E-03
5.313243E+03	1.750657E-02	1.190957E-03
5.323156E+03	1.759831E-02	1.195562E-03
5.333069E+03	1.768866E-02	1.200066E-03
5.342982E+03	1.777771E-02	1.204479E-03
5.352895E+03	1.786508E-02	1.208773E-03
5.362807E+03	1.795069E-02	1.212945E-03
5.372720E+03	1.803469E-02	1.217005E-03
5.382633E+03	1.811703E-02	1.220950E-03
5.392546E+03	1.819748E-02	1.224765E-03
5.402458E+03	1.827616E-02	1.228460E-03
5.412371E+03	1.835288E-02	1.232021E-03
5.422284E+03	1.842774E-02	1.235457E-03
5.432197E+03	1.850055E-02	1.238755E-03
5.442109E+03	1.857143E-02	1.241924E-03
5.452022E+03	1.864017E-02	1.244950E-03
5.461935E+03	1.870710E-02	1.247856E-03
5.471848E+03	1.877219E-02	1.250641E-03
5.481761E+03	1.883523E-02	1.253291E-03
5.491673E+03	1.889617E-02	1.255803E-03
5.501586E+03	1.895518E-02	1.258190E-03
5.511499E+03	1.901205E-02	1.260438E-03
5.521412E+03	1.906675E-02	1.262546E-03
5.531324E+03	1.911906E-02	1.264500E-03
5.541237E+03	1.916935E-02	1.266324E-03
5.551150E+03	1.921739E-02	1.268005E-03
5.561063E+03	1.926319E-02	1.269543E-03
5.570975E+03	1.930652E-02	1.270925E-03
5.580888E+03	1.934757E-02	1.272162E-03
5.590801E+03	1.938650E-02	1.273268E-03
5.600714E+03	1.942293E-02	1.274216E-03
5.610626E+03	1.945704E-02	1.275020E-03
5.620539E+03	1.948882E-02	1.275679E-03
5.630452E+03	1.951827E-02	1.276194E-03
5.640365E+03	1.954538E-02	1.276566E-03
5.650278E+03	1.957015E-02	1.276794E-03
5.660190E+03	1.959258E-02	1.276880E-03
5.670103E+03	1.961247E-02	1.276810E-03
5.680016E+03	1.963022E-02	1.276612E-03
5.689929E+03	1.964544E-02	1.276261E-03
5.699841E+03	1.965833E-02	1.275771E-03
5.709754E+03	1.966891E-02	1.275142E-03
5.719667E+03	1.967698E-02	1.274363E-03
5.729580E+03	1.968275E-02	1.273449E-03
5.739492E+03	1.968605E-02	1.272388E-03
5.749405E+03	1.968688E-02	1.271181E-03
5.759318E+03	1.968545E-02	1.269843E-03
5.769231E+03	1.968159E-02	1.268362E-03
5.779144E+03	1.967532E-02	1.266742E-03
5.789056E+03	1.966666E-02	1.264984E-03
5.798969E+03	1.965544E-02	1.263076E-03
5.808882E+03	1.964188E-02	1.261034E-03
5.818795E+03	1.962599E-02	1.258860E-03
5.828707E+03	1.960744E-02	1.256532E-03
5.838620E+03	1.958661E-02	1.254075E-03
5.848533E+03	1.956336E-02	1.251482E-03
5.858446E+03	1.953753E-02	1.248741E-03
5.868358E+03	1.950934E-02	1.245868E-03
5.878271E+03	1.947882E-02	1.242866E-03
5.888184E+03	1.944563E-02	1.239713E-03
5.898097E+03	1.941000E-02	1.236424E-03
5.908010E+03	1.937197E-02	1.233001E-03
5.917922E+03	1.933120E-02	1.229425E-03
5.927835E+03	1.928811E-02	1.225723E-03
5.937748E+03	1.924256E-02	1.221884E-03
5.947661E+03	1.919440E-02	1.217901E-03
5.957573E+03	1.914368E-02	1.213778E-03
5.967486E+03	1.909044E-02	1.209517E-03
5.977399E+03	1.903475E-02	1.205123E-03
5.987312E+03	1.897646E-02	1.200586E-03
5.997224E+03	1.891544E-02	1.195900E-03
6.007137E+03	1.885212E-02	1.191092E-03
6.017050E+03	1.878617E-02	1.186140E-03
6.026963E+03	1.871766E-02	1.181051E-03
6.036875E+03	1.864665E-02	1.175828E-03
6.046788E+03	1.857319E-02	1.170474E-03
6.056701E+03	1.849733E-02	1.164993E-03
6.066614E+03	1.841914E-02	1.159390E-03
6.076527E+03	1.833851E-02	1.153657E-03
6.086439E+03	1.825565E-02	1.147809E-03
6.096352E+03	1.817047E-02	1.141840E-03
6.106265E+03	1.808302E-02	1.135753E-03
6.116178E+03	1.799336E-02	1.129553E-03
6.126090E+03	1.790157E-02	1.123243E-03
6.136003E+03	1.780751E-02	1.116815E-03
6.145916E+03	1.771163E-02	1.110297E-03
6.155829E+03	1.761379E-02	1.103681E-03
6.165741E+03	1.751407E-02	1.096972E-03
6.175654E+03	1.741287E-02	1.090193E-03
6.185567E+03	1.731007E-02	1.083337E-03
6.195480E+03	1.720579E-02	1.076412E-03
6.205393E+03	1.710030E-02	1.069435E-03
6.215305E+03	1.699375E-02	1.062413E-03
6.225218E+03	1.688624E-02	1.055354E-03
6.235131E+03	1.677791E-02	1.048266E-03
6.245044E+03	1.666904E-02	1.041165E-03
6.254956E+03	1.655973E-02	1.034059E-03
6.264869E+03	1.645028E-02	1.026965E-03
6.274782E+03	1.634076E-02	1.019888E-03
6.284695E+03	1.623130E-02	1.012834E-03
6.294607E+03	1.612214E-02	1.005819E-03
6.304520E+03	1.601354E-02	9.988575E-04
6.314433E+03	1.590558E-02	9.919544E-04
6.324346E+03	1.579834E-02	9.851143E-04
6.334259E+03	1.569222E-02	9.783610E-04
6.344171E+03	1.558731E-02	9.716990E-04
6.354084E+03	1.548381E-02	9.651414E-04
6.363997E+03	1.538180E-02	9.586918E-04
6.373910E+03	1.528165E-02	9.523732E-04
6.383822E+03	1.518341E-02	9.461883E-04
6.393735E+03	1.508731E-02	9.401500E-04
6.403648E+03	1.499355E-02	9.342708E-04
6.413561E+03	1.490199E-02	9.285414E-04
6.423473E+03	1.481308E-02	9.229894E-04
6.433386E+03	1.472650E-02	9.175943E-04
6.443299E+03	1.464221E-02	9.123532E-04
6.453212E+03	1.456034E-02	9.072742E-04
6.463125E+03	1.448102E-02	9.023648E-04
6.473037E+03	1.440392E-02	8.976034E-04
6.482950E+03	1.432917E-02	8.929988E-04
6.492863E+03	1.425658E-02	8.885383E-04
6.502776E+03	1.418615E-02	8.842210E-04
6.512688E+03	1.411767E-02	8.800350E-04
6.522601E+03	1.405129E-02	8.759878E-04
6.532514E+03	1.398668E-02	8.720592E-04
6.542427E+03	1.392396E-02	8.682561E-04
6.552339E+03	1.386310E-02	8.645770E-04
6.562252E+03	1.380378E-02	8.610014E-04
6.572165E+03	1.374628E-02	8.575464E-04
6.582078E+03	1.369026E-02	8.541909E-04
6.591990E+03	1.363586E-02	8.509433E-04
6.601903E+03	1.358305E-02	8.478012E-04
6.611816E+03	1.353180E-02	8.447626E-04
6.621729E+03	1.348209E-02	8.418261E-04
6.631642E+03	1.343374E-02	8.389809E-04
6.641554E+03	1.338702E-02	8.362428E-04
6.651467E+03	1.334176E-02	8.336017E-04
6.661380E+03	1.329778E-02	8.310459E-04
6.671293E+03	1.325535E-02	8.285922E-04
6.681205E+03	1.321429E-02	8.262296E-04
6.691118E+03	1.317474E-02	8.239662E-04
6.701031E+03	1.313636E-02	8.217805E-04
6.710944E+03	1.309957E-02	8.196994E-04
6.720856E+03	1.306405E-02	8.177022E-04
6.730769E+03	1.302977E-02	8.157872E-04
6.740682E+03	1.299685E-02	8.139619E-04
6.750595E+03	1.296526E-02	8.122245E-04
6.760508E+03	1.293498E-02	8.105732E-04
6.770420E+03	1.290599E-02	8.090069E-04
6.780333E+03	1.287825E-02	8.075230E-04
6.790246E+03	1.285158E-02	8.061108E-04
6.800159E+03	1.282626E-02	8.047872E-04
6.810071E+03	1.280212E-02	8.035412E-04
6.819984E+03	1.277912E-02	8.023710E-04
6.829897E+03	1.275724E-02	8.012751E-04
6.839810E+03	1.273660E-02	8.002614E-04
6.849722E+03	1.271688E-02	7.993091E-04
6.859635E+03	1.269835E-02	7.984352E-04
6.869548E+03	1.268082E-02	7.976286E-04
6.879461E+03	1.266428E-02	7.968879E-04
6.889374E+03	1.264885E-02	7.962205E-04
6.899286E+03	1.263435E-02	7.956162E-04
6.909199E+03	1.262075E-02	7.950722E-04
6.919112E+03	1.260803E-02	7.945875E-04
6.929025E+03	1.259631E-02	7.941700E-04
6.938937E+03	1.258541E-02	7.938081E-04
6.948850E+03	1.257532E-02	7.935008E-04
6.958763E+03	1.256613E-02	7.932550E-04
6.968676E+03	1.255769E-02	7.930606E-04
6.978588E+03	1.254996E-02	7.929150E-04
6.988501E+03	1.254292E-02	7.928168E-04
6.998414E+03	1.253654E-02	7.927647E-04
7.008327E+03	1.253094E-02	7.927665E-04
7.018239E+03	1.252594E-02	7.928105E-04
7.028152E+03	1.252151E-02	7.928951E-04
7.038065E+03	1.251763E-02	7.930185E-04
7.047978E+03	1.251427E-02	7.931797E-04
7.057891E+03	1.251139E-02	7.933757E-04
7.067803E+03	1.250897E-02	7.936060E-04
7.077716E+03	1.250713E-02	7.938777E-04
7.087629E+03	1.250555E-02	7.941703E-04
7.097542E+03	1.250449E-02	7.945008E-04
7.107454E+03	1.250360E-02	7.948476E-04
7.117367E+03	1.250319E-02	7.952295E-04
7.127280E+03	1.250289E-02	7.956241E-04
7.137193E+03	1.250300E-02	7.960498E-04
7.147105E+03	1.250316E-02	7.964841E-04
7.157018E+03	1.250367E-02	7.969459E-04
7.166931E+03	1.250418E-02	7.974134E-04
7.176844E+03	1.250496E-02	7.979038E-04
7.186757E+03	1.250567E-02	7.983951E-04
7.196669E+03	1.250660E-02	7.989068E-04
7.206582E+03	1.250738E-02	7.994148E-04
7.216495E+03	1.250833E-02	7.999390E-04
7.226408E+03	1.250905E-02	8.004559E-04
7.236320E+03	1.250987E-02	8.009842E-04
7.246233E+03	1.251040E-02	8.015015E-04
7.256146E+03	1.251096E-02	8.020261E-04
7.266059E+03	1.251117E-02	8.025353E-04
7.275971E+03	1.251131E-02	8.030471E-04
7.285884E+03	1.251121E-02	8.035500E-04
7.295797E+03	1.251066E-02	8.040311E-04
7.305710E+03	1.250995E-02	8.045083E-04
7.315623E+03	1.250888E-02	8.049702E-04
7.325535E+03	1.250724E-02	8.054026E-04
7.335448E+03	1.250518E-02	8.058153E-04
7.345361E+03	1.250265E-02	8.062044E-04
7.355274E+03	1.249945E-02	8.065585E-04
7.365186E+03	1.249571E-02	8.068855E-04
7.375099E+03	1.249123E-02	8.071719E-04
7.385012E+03	1.248612E-02	8.074262E-04
7.394925E+03	1.248038E-02	8.076467E-04
7.404837E+03	1.247361E-02	8.078093E-04
7.414750E+03	1.246628E-02	8.079433E-04
7.424663E+03	1.245803E-02	8.080256E-04
7.434576E+03	1.244882E-02	8.080538E-04
7.444489E+03	1.243893E-02	8.080465E-04
7.454401E+03	1.242785E-02	8.079693E-04
7.464314E+03	1.241604E-02	8.078529E-04
7.474227E+03	1.240312E-02	8.076721E-04
7.484140E+03	1.238930E-02	8.074395E-04
7.494052E+03	1.237440E-02	8.071443E-04
7.503965E+03	1.235863E-02	8.067991E-04
7.513878E+03	1.234184E-02	8.063942E-04
7.523791E+03	1.232405E-02	8.059310E-04
7.533703E+03	1.230545E-02	8.054216E-04
7.543616E+03	1.228592E-02	8.048568E-04
7.553529E+03	1.226544E-02	8.042371E-04
7.563442E+03	1.224424E-02	8.035751E-04
7.573354E+03	1.222198E-02	8.028503E-04
7.583267E+03	1.219903E-02	8.020852E-04
7.593180E+03	1.217524E-02	8.012710E-04
7.603093E+03	1.215065E-02	8.004087E-04
7.613006E+03	1.212526E-02	7.994993E-04
7.622918E+03	1.209911E-02	7.985449E-04
7.632831E+03	1.207237E-02	7.975566E-04
7.642744E+03	1.204475E-02	7.965144E-04
7.652657E+03	1.201643E-02	7.954306E-04
7.662569E+03	1.198758E-02	7.943165E-04
7.672482E+03	1.195792E-02	7.931526E-04
7.682395E+03	1.192779E-02	7.919615E-04
7.692308E+03	1.189689E-02	7.907232E-04
