#wls	flux	fluxerr
1.588266E+03	8.949318E-17	1.082473E-17
1.627973E+03	9.423509E-17	1.134468E-17
1.667679E+03	9.861989E-17	1.181493E-17
1.707386E+03	1.025536E-16	1.222469E-17
1.747092E+03	1.059411E-16	1.256326E-17
1.786799E+03	1.085783E-16	1.280739E-17
1.826506E+03	1.101470E-16	1.292101E-17
1.866212E+03	1.103323E-16	1.286936E-17
1.905919E+03	1.088003E-16	1.261643E-17
1.945626E+03	1.053396E-16	1.214142E-17
1.985332E+03	1.000479E-16	1.145973E-17
2.025039E+03	9.357813E-17	1.064985E-17
2.064746E+03	8.723202E-17	9.861878E-18
2.104452E+03	8.275526E-17	9.291860E-18
2.144159E+03	8.183289E-17	9.123560E-18
2.183866E+03	8.552966E-17	9.466416E-18
2.223572E+03	9.409559E-17	1.033643E-17
2.263279E+03	1.070404E-16	1.166752E-17
2.302986E+03	1.233831E-16	1.334165E-17
2.342692E+03	1.419866E-16	1.522701E-17
2.382399E+03	1.618302E-16	1.720788E-17
2.422105E+03	1.821481E-16	1.919890E-17
2.461812E+03	2.024703E-16	2.114836E-17
2.501519E+03	2.225246E-16	2.302677E-17
2.541225E+03	2.422069E-16	2.482294E-17
2.580932E+03	2.614780E-16	2.653274E-17
2.620639E+03	2.803551E-16	2.815786E-17
2.660345E+03	2.988573E-16	2.970019E-17
2.700052E+03	3.170076E-16	3.116198E-17
2.739759E+03	3.348244E-16	3.254496E-17
2.779465E+03	3.523074E-16	3.384907E-17
2.819172E+03	3.694465E-16	3.507335E-17
2.858879E+03	3.862419E-16	3.621793E-17
2.898585E+03	4.026638E-16	3.728022E-17
2.938292E+03	4.187249E-16	3.826175E-17
2.977999E+03	4.343983E-16	3.916050E-17
2.987925E+03	4.382671E-16	3.937331E-17
2.997852E+03	4.421045E-16	3.958034E-17
3.007779E+03	4.459092E-16	3.978149E-17
3.017705E+03	4.497001E-16	3.997847E-17
3.027632E+03	4.534656E-16	4.017025E-17
3.037559E+03	4.572200E-16	4.035810E-17
3.047485E+03	4.609910E-16	4.054445E-17
3.057412E+03	4.648605E-16	4.073647E-17
3.067339E+03	4.688104E-16	4.093246E-17
3.077265E+03	4.728438E-16	4.113261E-17
3.087192E+03	4.769252E-16	4.133374E-17
3.097118E+03	4.810498E-16	4.153539E-17
3.107045E+03	4.851946E-16	4.173551E-17
3.116972E+03	4.893756E-16	4.193548E-17
3.126898E+03	4.935523E-16	4.213176E-17
3.136825E+03	4.977235E-16	4.232425E-17
3.146752E+03	5.018886E-16	4.251290E-17
3.156678E+03	5.060381E-16	4.269691E-17
3.166605E+03	5.101446E-16	4.287398E-17
3.176532E+03	5.142281E-16	4.304582E-17
3.186458E+03	5.182628E-16	4.321030E-17
3.196385E+03	5.222512E-16	4.336765E-17
3.206312E+03	5.261778E-16	4.351664E-17
3.216238E+03	5.300462E-16	4.365763E-17
3.226165E+03	5.338511E-16	4.379024E-17
3.236092E+03	5.375883E-16	4.391416E-17
3.246018E+03	5.412439E-16	4.402837E-17
3.255945E+03	5.448237E-16	4.413338E-17
3.265872E+03	5.483242E-16	4.422900E-17
3.275798E+03	5.517334E-16	4.431435E-17
3.285725E+03	5.550580E-16	4.439004E-17
3.295652E+03	5.582866E-16	4.445528E-17
3.305578E+03	5.614262E-16	4.451070E-17
3.315505E+03	5.644666E-16	4.455560E-17
3.325432E+03	5.674065E-16	4.458999E-17
3.335358E+03	5.702447E-16	4.461387E-17
3.345285E+03	5.729811E-16	4.462735E-17
3.355212E+03	5.756146E-16	4.463046E-17
3.365138E+03	5.781367E-16	4.462265E-17
3.375065E+03	5.805561E-16	4.460472E-17
3.384992E+03	5.828562E-16	4.457551E-17
3.394918E+03	5.850538E-16	4.453645E-17
3.404845E+03	5.871335E-16	4.448646E-17
3.414772E+03	5.890959E-16	4.442576E-17
3.424698E+03	5.909421E-16	4.435454E-17
3.434625E+03	5.926653E-16	4.427245E-17
3.444552E+03	5.942748E-16	4.418030E-17
3.454478E+03	5.957644E-16	4.407778E-17
3.464405E+03	5.971277E-16	4.396458E-17
3.474332E+03	5.983670E-16	4.384099E-17
3.484258E+03	5.994762E-16	4.370673E-17
3.494185E+03	6.004651E-16	4.356267E-17
3.504112E+03	6.013138E-16	4.340752E-17
3.514038E+03	6.020319E-16	4.324214E-17
3.523965E+03	6.026152E-16	4.306639E-17
3.533892E+03	6.030657E-16	4.288058E-17
3.543818E+03	6.033726E-16	4.268411E-17
3.553745E+03	6.035317E-16	4.247686E-17
3.563672E+03	6.035533E-16	4.225974E-17
3.573598E+03	6.034201E-16	4.203172E-17
3.583525E+03	6.031427E-16	4.179372E-17
3.593452E+03	6.027177E-16	4.154569E-17
3.603378E+03	6.021357E-16	4.128717E-17
3.613305E+03	6.013942E-16	4.101820E-17
3.623232E+03	6.004976E-16	4.073926E-17
3.633158E+03	5.994372E-16	4.044997E-17
3.643085E+03	5.982245E-16	4.015131E-17
3.653012E+03	5.968445E-16	3.984247E-17
3.662938E+03	5.953024E-16	3.952400E-17
3.672865E+03	5.935972E-16	3.919605E-17
3.682792E+03	5.917343E-16	3.885917E-17
3.692718E+03	5.897065E-16	3.851310E-17
3.702645E+03	5.875196E-16	3.815842E-17
3.712572E+03	5.851731E-16	3.779530E-17
3.722498E+03	5.826725E-16	3.742430E-17
3.732425E+03	5.800182E-16	3.704563E-17
3.742352E+03	5.772158E-16	3.665987E-17
3.752278E+03	5.742652E-16	3.626717E-17
3.762205E+03	5.711675E-16	3.586781E-17
3.772131E+03	5.679396E-16	3.546301E-17
3.782058E+03	5.645708E-16	3.505230E-17
3.791985E+03	5.610729E-16	3.463657E-17
3.801911E+03	5.574577E-16	3.421672E-17
3.811838E+03	5.537205E-16	3.379261E-17
3.821765E+03	5.498676E-16	3.336478E-17
3.831691E+03	5.459108E-16	3.293409E-17
3.841618E+03	5.418562E-16	3.250104E-17
3.851545E+03	5.377104E-16	3.206614E-17
3.861471E+03	5.334742E-16	3.162958E-17
3.871398E+03	5.291595E-16	3.119217E-17
3.881325E+03	5.247729E-16	3.075439E-17
3.891251E+03	5.203206E-16	3.031671E-17
3.901178E+03	5.158092E-16	2.987959E-17
3.911105E+03	5.112458E-16	2.944353E-17
3.921031E+03	5.066413E-16	2.900921E-17
3.930958E+03	5.020026E-16	2.857710E-17
3.940885E+03	4.973318E-16	2.814736E-17
3.950811E+03	4.926448E-16	2.772093E-17
3.960738E+03	4.879443E-16	2.729799E-17
3.970665E+03	4.832412E-16	2.687919E-17
3.980591E+03	4.785425E-16	2.646492E-17
3.990518E+03	4.738511E-16	2.605534E-17
4.000445E+03	4.691821E-16	2.565129E-17
4.010371E+03	4.645388E-16	2.525293E-17
4.020298E+03	4.599319E-16	2.486083E-17
4.030225E+03	4.553681E-16	2.447533E-17
4.040151E+03	4.508547E-16	2.409677E-17
4.050078E+03	4.463982E-16	2.372546E-17
4.060005E+03	4.420089E-16	2.336191E-17
4.069931E+03	4.376900E-16	2.300622E-17
4.079858E+03	4.334473E-16	2.265864E-17
4.089785E+03	4.292950E-16	2.231985E-17
4.099711E+03	4.252312E-16	2.198967E-17
4.109638E+03	4.212658E-16	2.166854E-17
4.119565E+03	4.174039E-16	2.135665E-17
4.129491E+03	4.136508E-16	2.105417E-17
4.139418E+03	4.100113E-16	2.076127E-17
4.149345E+03	4.064908E-16	2.047813E-17
4.159271E+03	4.030927E-16	2.020482E-17
4.169198E+03	3.998214E-16	1.994149E-17
4.179125E+03	3.966805E-16	1.968820E-17
4.189051E+03	3.936736E-16	1.944505E-17
4.198978E+03	3.907998E-16	1.921190E-17
4.208905E+03	3.880622E-16	1.898881E-17
4.218831E+03	3.854661E-16	1.877595E-17
4.228758E+03	3.830137E-16	1.857333E-17
4.238685E+03	3.806994E-16	1.838059E-17
4.248611E+03	3.785277E-16	1.819788E-17
4.258538E+03	3.764997E-16	1.802516E-17
4.268465E+03	3.746155E-16	1.786235E-17
4.278391E+03	3.728751E-16	1.770939E-17
4.288318E+03	3.712743E-16	1.756600E-17
4.298245E+03	3.698193E-16	1.743240E-17
4.308171E+03	3.685012E-16	1.730813E-17
4.318098E+03	3.673249E-16	1.719334E-17
4.328025E+03	3.662879E-16	1.708786E-17
4.337951E+03	3.653898E-16	1.699164E-17
4.347878E+03	3.646266E-16	1.690441E-17
4.357805E+03	3.639958E-16	1.682597E-17
4.367731E+03	3.634912E-16	1.675591E-17
4.377658E+03	3.631106E-16	1.669403E-17
4.387585E+03	3.628443E-16	1.663978E-17
4.397511E+03	3.626800E-16	1.659250E-17
4.407438E+03	3.626102E-16	1.655175E-17
4.417365E+03	3.626191E-16	1.651675E-17
4.427291E+03	3.626929E-16	1.648679E-17
4.437218E+03	3.628206E-16	1.646128E-17
4.447144E+03	3.629814E-16	1.643923E-17
4.457071E+03	3.631647E-16	1.642010E-17
4.466998E+03	3.633577E-16	1.640325E-17
4.476924E+03	3.635447E-16	1.638792E-17
4.486851E+03	3.637157E-16	1.637360E-17
4.496778E+03	3.638620E-16	1.635985E-17
4.506704E+03	3.639767E-16	1.634631E-17
4.516631E+03	3.640556E-16	1.633274E-17
4.526558E+03	3.640924E-16	1.631881E-17
4.536484E+03	3.640838E-16	1.630431E-17
4.546411E+03	3.640386E-16	1.628960E-17
4.556338E+03	3.639548E-16	1.627452E-17
4.566264E+03	3.638354E-16	1.625915E-17
4.576191E+03	3.636931E-16	1.624401E-17
4.586118E+03	3.635385E-16	1.622951E-17
4.596044E+03	3.633737E-16	1.621570E-17
4.605971E+03	3.632235E-16	1.620361E-17
4.615898E+03	3.630897E-16	1.619328E-17
4.625824E+03	3.629953E-16	1.618567E-17
4.635751E+03	3.629547E-16	1.618137E-17
4.645678E+03	3.629817E-16	1.618094E-17
4.655604E+03	3.630906E-16	1.618496E-17
4.665531E+03	3.632962E-16	1.619405E-17
4.675458E+03	3.636190E-16	1.620906E-17
4.685384E+03	3.640692E-16	1.623040E-17
4.695311E+03	3.646592E-16	1.625858E-17
4.705238E+03	3.654041E-16	1.629423E-17
4.715164E+03	3.663074E-16	1.633746E-17
4.725091E+03	3.673893E-16	1.638914E-17
4.735018E+03	3.686471E-16	1.644910E-17
4.744944E+03	3.700950E-16	1.651794E-17
4.754871E+03	3.717387E-16	1.659589E-17
4.764798E+03	3.735750E-16	1.668277E-17
4.774724E+03	3.756107E-16	1.677884E-17
4.784651E+03	3.778522E-16	1.688437E-17
4.794578E+03	3.802931E-16	1.699904E-17
4.804504E+03	3.829377E-16	1.712301E-17
4.814431E+03	3.857862E-16	1.725626E-17
4.824358E+03	3.888337E-16	1.739854E-17
4.834284E+03	3.920797E-16	1.754981E-17
4.844211E+03	3.955269E-16	1.771016E-17
4.854138E+03	3.991702E-16	1.787931E-17
4.864064E+03	4.030135E-16	1.805743E-17
4.873991E+03	4.070471E-16	1.824404E-17
4.883918E+03	4.112744E-16	1.843927E-17
4.893844E+03	4.156954E-16	1.864308E-17
4.903771E+03	4.203058E-16	1.885523E-17
4.913698E+03	4.251097E-16	1.907588E-17
4.923624E+03	4.301034E-16	1.930484E-17
4.933551E+03	4.352911E-16	1.954223E-17
4.943478E+03	4.406698E-16	1.978790E-17
4.953404E+03	4.462394E-16	2.004178E-17
4.963331E+03	4.519964E-16	2.030369E-17
4.973258E+03	4.579498E-16	2.057398E-17
4.983184E+03	4.640904E-16	2.085219E-17
4.993111E+03	4.704174E-16	2.113823E-17
5.003038E+03	4.769340E-16	2.143221E-17
5.012964E+03	4.836335E-16	2.173376E-17
5.022891E+03	4.905128E-16	2.204270E-17
5.032818E+03	4.975678E-16	2.235878E-17
5.042744E+03	5.047927E-16	2.268169E-17
5.052671E+03	5.121760E-16	2.301084E-17
5.062598E+03	5.197093E-16	2.334581E-17
5.072524E+03	5.273882E-16	2.368634E-17
5.082451E+03	5.351911E-16	2.403138E-17
5.092378E+03	5.431164E-16	2.438081E-17
5.102304E+03	5.511330E-16	2.473317E-17
5.112231E+03	5.592365E-16	2.508818E-17
5.122158E+03	5.674047E-16	2.544481E-17
5.132084E+03	5.756198E-16	2.580217E-17
5.142011E+03	5.838615E-16	2.615931E-17
5.151937E+03	5.921048E-16	2.651503E-17
5.161864E+03	6.003286E-16	2.686834E-17
5.171791E+03	6.085043E-16	2.721790E-17
5.181717E+03	6.166232E-16	2.756326E-17
5.191644E+03	6.246446E-16	2.790256E-17
5.201571E+03	6.325524E-16	2.823504E-17
5.211497E+03	6.403255E-16	2.855971E-17
5.221424E+03	6.479427E-16	2.887559E-17
5.231351E+03	6.553714E-16	2.918120E-17
5.241277E+03	6.625985E-16	2.947593E-17
5.251204E+03	6.695997E-16	2.975869E-17
5.261131E+03	6.763582E-16	3.002872E-17
5.271057E+03	6.828533E-16	3.028509E-17
5.280984E+03	6.890780E-16	3.052750E-17
5.290911E+03	6.950074E-16	3.075486E-17
5.300837E+03	7.006323E-16	3.096678E-17
5.310764E+03	7.059383E-16	3.116265E-17
5.320691E+03	7.109271E-16	3.134257E-17
5.330617E+03	7.155742E-16	3.150551E-17
5.340544E+03	7.198858E-16	3.165179E-17
5.350471E+03	7.238558E-16	3.178119E-17
5.360397E+03	7.274805E-16	3.189361E-17
5.370324E+03	7.307426E-16	3.198837E-17
5.380251E+03	7.336419E-16	3.206552E-17
5.390177E+03	7.361814E-16	3.212528E-17
5.400104E+03	7.383336E-16	3.216653E-17
5.410031E+03	7.401036E-16	3.218959E-17
5.419957E+03	7.414751E-16	3.219385E-17
5.429884E+03	7.424475E-16	3.217939E-17
5.439811E+03	7.430579E-16	3.214792E-17
5.449737E+03	7.433150E-16	3.209994E-17
5.459664E+03	7.432577E-16	3.203724E-17
5.469591E+03	7.429095E-16	3.196092E-17
5.479517E+03	7.423172E-16	3.187312E-17
5.489444E+03	7.414902E-16	3.177433E-17
5.499371E+03	7.404590E-16	3.166597E-17
5.509297E+03	7.392408E-16	3.154885E-17
5.519224E+03	7.378721E-16	3.142463E-17
5.529151E+03	7.363608E-16	3.129373E-17
5.539077E+03	7.347282E-16	3.115715E-17
5.549004E+03	7.329878E-16	3.101553E-17
5.558931E+03	7.311664E-16	3.087010E-17
5.568857E+03	7.292676E-16	3.072108E-17
5.578784E+03	7.273098E-16	3.056933E-17
5.588711E+03	7.253091E-16	3.041558E-17
5.598637E+03	7.232731E-16	3.026024E-17
5.608564E+03	7.212163E-16	3.010398E-17
5.618491E+03	7.191367E-16	2.994678E-17
5.628417E+03	7.170455E-16	2.978918E-17
5.638344E+03	7.149529E-16	2.963165E-17
5.648271E+03	7.128606E-16	2.947436E-17
5.658197E+03	7.107677E-16	2.931731E-17
5.668124E+03	7.086733E-16	2.916054E-17
5.678051E+03	7.065894E-16	2.900461E-17
5.687977E+03	7.044970E-16	2.884880E-17
5.697904E+03	7.024056E-16	2.869358E-17
5.707831E+03	7.003087E-16	2.853875E-17
5.717757E+03	6.981910E-16	2.838376E-17
5.727684E+03	6.960514E-16	2.822865E-17
5.737611E+03	6.938872E-16	2.807338E-17
5.747537E+03	6.916811E-16	2.791733E-17
5.757464E+03	6.894220E-16	2.776015E-17
5.767391E+03	6.871133E-16	2.760206E-17
5.777317E+03	6.847282E-16	2.744207E-17
5.787244E+03	6.822622E-16	2.728009E-17
5.797171E+03	6.797034E-16	2.711575E-17
5.807097E+03	6.770395E-16	2.694866E-17
5.817024E+03	6.742667E-16	2.677877E-17
5.826950E+03	6.713593E-16	2.660516E-17
5.836877E+03	6.683212E-16	2.642808E-17
5.846804E+03	6.651353E-16	2.624697E-17
5.856730E+03	6.617931E-16	2.606160E-17
5.866657E+03	6.582860E-16	2.587172E-17
5.876584E+03	6.546071E-16	2.567718E-17
5.886510E+03	6.507579E-16	2.547813E-17
5.896437E+03	6.467196E-16	2.527393E-17
5.906364E+03	6.424878E-16	2.506451E-17
5.916290E+03	6.380683E-16	2.485018E-17
5.926217E+03	6.334596E-16	2.463097E-17
5.936144E+03	6.286482E-16	2.440643E-17
5.946070E+03	6.236496E-16	2.417724E-17
5.955997E+03	6.184452E-16	2.394274E-17
5.965924E+03	6.130609E-16	2.370400E-17
5.975850E+03	6.074808E-16	2.346044E-17
5.985777E+03	6.017114E-16	2.321238E-17
5.995704E+03	5.957687E-16	2.296045E-17
6.005630E+03	5.896532E-16	2.270470E-17
6.015557E+03	5.833762E-16	2.244558E-17
6.025484E+03	5.769351E-16	2.218301E-17
6.035410E+03	5.703555E-16	2.191795E-17
6.045337E+03	5.636302E-16	2.165012E-17
6.055264E+03	5.567875E-16	2.138051E-17
6.065190E+03	5.498352E-16	2.110925E-17
6.075117E+03	5.427827E-16	2.083656E-17
6.085044E+03	5.356470E-16	2.056292E-17
6.094970E+03	5.284515E-16	2.028909E-17
6.104897E+03	5.212096E-16	2.001540E-17
6.114824E+03	5.139401E-16	1.974245E-17
6.124750E+03	5.066775E-16	1.947140E-17
6.134677E+03	4.994323E-16	1.920250E-17
6.144604E+03	4.922359E-16	1.893684E-17
6.154530E+03	4.851224E-16	1.867557E-17
6.164457E+03	4.781277E-16	1.841997E-17
6.174384E+03	4.712776E-16	1.817089E-17
6.184310E+03	4.646045E-16	1.792949E-17
6.194237E+03	4.581466E-16	1.769715E-17
6.204164E+03	4.519285E-16	1.747471E-17
6.214090E+03	4.459841E-16	1.726341E-17
6.224017E+03	4.403376E-16	1.706413E-17
6.233944E+03	4.350155E-16	1.687783E-17
6.243870E+03	4.300335E-16	1.670508E-17
6.253797E+03	4.254035E-16	1.654630E-17
6.263724E+03	4.211385E-16	1.640198E-17
6.273650E+03	4.172471E-16	1.627242E-17
6.283577E+03	4.137225E-16	1.615734E-17
6.293504E+03	4.105659E-16	1.605680E-17
6.303430E+03	4.077744E-16	1.597066E-17
6.313357E+03	4.053311E-16	1.589828E-17
6.323284E+03	4.032330E-16	1.583953E-17
6.333210E+03	4.014635E-16	1.579377E-17
6.343137E+03	4.000035E-16	1.576025E-17
6.353064E+03	3.988321E-16	1.573816E-17
6.362990E+03	3.979384E-16	1.572707E-17
6.372917E+03	3.972927E-16	1.572581E-17
6.382844E+03	3.968819E-16	1.573386E-17
6.392770E+03	3.966805E-16	1.575020E-17
6.402697E+03	3.966621E-16	1.577380E-17
6.412624E+03	3.968062E-16	1.580382E-17
6.422550E+03	3.970862E-16	1.583920E-17
6.432477E+03	3.974818E-16	1.587911E-17
6.442404E+03	3.979547E-16	1.592199E-17
6.452330E+03	3.984911E-16	1.596729E-17
6.462257E+03	3.990663E-16	1.601398E-17
6.472184E+03	3.996498E-16	1.606080E-17
6.482110E+03	4.002248E-16	1.610705E-17
6.492037E+03	4.007692E-16	1.615181E-17
6.501963E+03	4.012623E-16	1.619420E-17
6.511890E+03	4.016852E-16	1.623342E-17
6.521817E+03	4.020263E-16	1.626895E-17
6.531743E+03	4.022634E-16	1.629987E-17
6.541670E+03	4.023821E-16	1.632553E-17
6.551597E+03	4.023762E-16	1.634565E-17
6.561523E+03	4.022351E-16	1.635975E-17
6.571450E+03	4.019432E-16	1.636716E-17
6.581377E+03	4.014999E-16	1.636780E-17
6.591303E+03	4.008930E-16	1.636114E-17
6.601230E+03	4.001323E-16	1.634755E-17
6.611157E+03	3.992023E-16	1.632635E-17
6.621083E+03	3.981022E-16	1.629749E-17
6.631010E+03	3.968400E-16	1.626125E-17
6.640937E+03	3.954180E-16	1.621770E-17
6.650863E+03	3.938332E-16	1.616670E-17
6.660790E+03	3.920903E-16	1.610843E-17
6.670717E+03	3.902021E-16	1.604338E-17
6.680643E+03	3.881685E-16	1.597155E-17
6.690570E+03	3.860042E-16	1.589352E-17
6.700497E+03	3.837038E-16	1.580907E-17
6.710423E+03	3.812899E-16	1.571913E-17
6.720350E+03	3.787581E-16	1.562352E-17
6.730277E+03	3.761319E-16	1.552320E-17
6.740203E+03	3.734076E-16	1.541803E-17
6.750130E+03	3.706021E-16	1.530872E-17
6.760057E+03	3.677254E-16	1.519570E-17
6.769983E+03	3.647811E-16	1.507912E-17
6.779910E+03	3.617857E-16	1.495969E-17
6.789837E+03	3.587424E-16	1.483755E-17
6.799763E+03	3.556674E-16	1.471340E-17
6.809690E+03	3.525567E-16	1.458709E-17
6.819617E+03	3.494325E-16	1.445956E-17
6.829543E+03	3.462967E-16	1.433091E-17
6.839470E+03	3.431576E-16	1.420152E-17
6.849397E+03	3.400164E-16	1.407146E-17
6.859323E+03	3.368935E-16	1.394160E-17
6.869250E+03	3.337764E-16	1.381145E-17
6.879177E+03	3.306909E-16	1.368211E-17
6.889103E+03	3.276303E-16	1.355332E-17
6.899030E+03	3.246003E-16	1.342536E-17
6.908957E+03	3.216125E-16	1.329872E-17
6.918883E+03	3.186654E-16	1.317338E-17
6.928810E+03	3.157635E-16	1.304954E-17
6.938737E+03	3.129109E-16	1.292742E-17
6.948663E+03	3.101116E-16	1.280720E-17
6.958590E+03	3.073690E-16	1.268905E-17
6.968517E+03	3.046800E-16	1.257287E-17
6.978443E+03	3.020599E-16	1.245931E-17
6.988370E+03	2.994933E-16	1.234778E-17
6.998297E+03	2.970004E-16	1.223912E-17
7.008223E+03	2.945657E-16	1.213274E-17
7.018150E+03	2.922032E-16	1.202923E-17
7.028077E+03	2.899086E-16	1.192845E-17
7.038003E+03	2.876840E-16	1.183049E-17
7.047930E+03	2.855364E-16	1.173569E-17
7.057857E+03	2.834560E-16	1.164366E-17
7.067783E+03	2.814496E-16	1.155471E-17
7.077710E+03	2.795131E-16	1.146869E-17
7.087637E+03	2.776532E-16	1.138592E-17
7.097563E+03	2.758710E-16	1.130645E-17
7.107490E+03	2.741619E-16	1.123013E-17
7.117417E+03	2.725324E-16	1.115726E-17
7.127343E+03	2.709725E-16	1.108744E-17
7.137270E+03	2.694940E-16	1.102120E-17
7.147197E+03	2.680923E-16	1.095836E-17
7.157123E+03	2.667628E-16	1.089878E-17
7.167050E+03	2.655117E-16	1.084273E-17
7.176976E+03	2.643399E-16	1.079027E-17
7.186903E+03	2.632427E-16	1.074125E-17
7.196830E+03	2.622207E-16	1.069574E-17
7.206756E+03	2.612747E-16	1.065378E-17
7.216683E+03	2.604056E-16	1.061544E-17
7.226610E+03	2.596138E-16	1.058079E-17
7.236536E+03	2.588893E-16	1.054944E-17
7.246463E+03	2.582434E-16	1.052190E-17
7.256390E+03	2.576713E-16	1.049801E-17
7.266316E+03	2.571680E-16	1.047760E-17
7.276243E+03	2.567393E-16	1.046095E-17
7.286170E+03	2.563748E-16	1.044767E-17
7.296096E+03	2.560747E-16	1.043783E-17
7.306023E+03	2.558389E-16	1.043145E-17
7.315950E+03	2.556617E-16	1.042836E-17
7.325876E+03	2.555485E-16	1.042881E-17
7.335803E+03	2.554823E-16	1.043218E-17
7.345730E+03	2.554731E-16	1.043891E-17
7.355656E+03	2.555090E-16	1.044856E-17
7.365583E+03	2.555940E-16	1.046137E-17
7.375510E+03	2.557209E-16	1.047708E-17
7.385436E+03	2.558876E-16	1.049566E-17
7.395363E+03	2.560970E-16	1.051729E-17
7.405290E+03	2.563410E-16	1.054170E-17
7.415216E+03	2.566328E-16	1.056947E-17
7.425143E+03	2.569579E-16	1.060009E-17
7.435070E+03	2.573235E-16	1.063389E-17
7.444996E+03	2.577196E-16	1.067054E-17
7.454923E+03	2.581585E-16	1.071059E-17
7.464850E+03	2.586295E-16	1.075368E-17
7.474776E+03	2.591273E-16	1.079963E-17
7.484703E+03	2.596518E-16	1.084852E-17
7.494630E+03	2.601971E-16	1.090015E-17
7.504556E+03	2.607682E-16	1.095479E-17
7.514483E+03	2.613472E-16	1.101175E-17
7.524410E+03	2.619329E-16	1.107105E-17
7.534336E+03	2.625244E-16	1.113269E-17
7.544263E+03	2.631089E-16	1.119618E-17
7.554190E+03	2.636857E-16	1.126149E-17
7.564116E+03	2.642423E-16	1.132808E-17
7.574043E+03	2.647852E-16	1.139618E-17
7.583970E+03	2.652974E-16	1.146505E-17
7.593896E+03	2.657874E-16	1.153501E-17
7.603823E+03	2.662406E-16	1.160538E-17
7.613750E+03	2.666674E-16	1.167660E-17
7.623676E+03	2.670554E-16	1.174804E-17
7.633603E+03	2.674165E-16	1.182021E-17
7.643530E+03	2.677453E-16	1.189282E-17
7.653456E+03	2.680427E-16	1.196584E-17
7.663383E+03	2.683098E-16	1.203927E-17
7.673310E+03	2.685477E-16	1.211312E-17
7.683236E+03	2.687578E-16	1.218740E-17
7.693163E+03	2.689351E-16	1.226181E-17
7.703090E+03	2.690935E-16	1.233694E-17
