#wls	flux	fluxerr
1.588266E+03	1.133217E-16	6.332566E-18
1.627973E+03	1.202486E-16	6.688520E-18
1.667679E+03	1.268262E-16	7.020718E-18
1.707386E+03	1.329246E-16	7.322126E-18
1.747092E+03	1.384077E-16	7.585545E-18
1.786799E+03	1.429922E-16	7.795905E-18
1.826506E+03	1.462330E-16	7.929729E-18
1.866212E+03	1.476756E-16	7.963597E-18
1.905919E+03	1.468245E-16	7.872514E-18
1.945626E+03	1.433346E-16	7.640192E-18
1.985332E+03	1.372729E-16	7.272748E-18
2.025039E+03	1.294777E-16	6.816926E-18
2.064746E+03	1.217209E-16	6.367306E-18
2.104452E+03	1.164602E-16	6.051721E-18
2.144159E+03	1.161516E-16	5.994440E-18
2.183866E+03	1.224476E-16	6.274867E-18
2.223572E+03	1.358810E-16	6.912724E-18
2.263279E+03	1.559236E-16	7.873009E-18
2.302986E+03	1.813054E-16	9.084002E-18
2.342692E+03	2.104789E-16	1.046185E-17
2.382399E+03	2.420141E-16	1.193070E-17
2.422105E+03	2.748130E-16	1.343311E-17
2.461812E+03	3.081874E-16	1.493322E-17
2.501519E+03	3.417281E-16	1.640964E-17
2.541225E+03	3.752708E-16	1.785335E-17
2.580932E+03	4.087454E-16	1.926002E-17
2.620639E+03	4.421691E-16	2.062953E-17
2.660345E+03	4.755615E-16	2.196180E-17
2.700052E+03	5.089487E-16	2.325702E-17
2.739759E+03	5.423506E-16	2.451504E-17
2.779465E+03	5.757575E-16	2.573431E-17
2.819172E+03	6.091420E-16	2.691253E-17
2.858879E+03	6.424938E-16	2.804819E-17
2.898585E+03	6.757521E-16	2.913763E-17
2.938292E+03	7.089268E-16	3.018031E-17
2.977999E+03	7.419616E-16	3.117290E-17
2.987925E+03	7.502159E-16	3.141385E-17
2.997852E+03	7.584481E-16	3.165104E-17
3.007779E+03	7.666564E-16	3.188439E-17
3.017705E+03	7.748724E-16	3.211520E-17
3.027632E+03	7.830768E-16	3.234265E-17
3.037559E+03	7.912937E-16	3.256772E-17
3.047485E+03	7.995710E-16	3.279236E-17
3.057412E+03	8.080517E-16	3.302237E-17
3.067339E+03	8.167057E-16	3.325640E-17
3.077265E+03	8.255392E-16	3.349463E-17
3.087192E+03	8.344912E-16	3.373449E-17
3.097118E+03	8.435545E-16	3.397561E-17
3.107045E+03	8.526887E-16	3.421632E-17
3.116972E+03	8.619235E-16	3.445773E-17
3.126898E+03	8.711872E-16	3.469695E-17
3.136825E+03	8.804779E-16	3.493385E-17
3.146752E+03	8.897953E-16	3.516840E-17
3.156678E+03	8.991224E-16	3.539989E-17
3.166605E+03	9.084105E-16	3.562640E-17
3.176532E+03	9.176958E-16	3.584933E-17
3.186458E+03	9.269312E-16	3.606684E-17
3.196385E+03	9.361217E-16	3.627912E-17
3.206312E+03	9.452387E-16	3.648508E-17
3.216238E+03	9.542890E-16	3.668499E-17
3.226165E+03	9.632628E-16	3.687849E-17
3.236092E+03	9.721516E-16	3.706528E-17
3.246018E+03	9.809305E-16	3.724444E-17
3.255945E+03	9.896091E-16	3.741635E-17
3.265872E+03	9.981810E-16	3.758082E-17
3.275798E+03	1.006624E-15	3.773704E-17
3.285725E+03	1.014949E-15	3.788548E-17
3.295652E+03	1.023136E-15	3.802541E-17
3.305578E+03	1.031196E-15	3.815733E-17
3.315505E+03	1.039111E-15	3.828057E-17
3.325432E+03	1.046876E-15	3.839508E-17
3.335358E+03	1.054491E-15	3.850086E-17
3.345285E+03	1.061954E-15	3.859788E-17
3.355212E+03	1.069262E-15	3.868616E-17
3.365138E+03	1.076399E-15	3.876516E-17
3.375065E+03	1.083381E-15	3.883552E-17
3.384992E+03	1.090176E-15	3.889615E-17
3.394918E+03	1.096815E-15	3.894829E-17
3.404845E+03	1.103268E-15	3.899091E-17
3.414772E+03	1.109537E-15	3.902414E-17
3.424698E+03	1.115622E-15	3.904812E-17
3.434625E+03	1.121511E-15	3.906247E-17
3.444552E+03	1.127219E-15	3.906786E-17
3.454478E+03	1.132736E-15	3.906395E-17
3.464405E+03	1.138047E-15	3.905041E-17
3.474332E+03	1.143157E-15	3.902744E-17
3.484258E+03	1.148054E-15	3.899474E-17
3.494185E+03	1.152755E-15	3.895304E-17
3.504112E+03	1.157222E-15	3.890110E-17
3.514038E+03	1.161471E-15	3.883965E-17
3.523965E+03	1.165495E-15	3.876849E-17
3.533892E+03	1.169297E-15	3.868787E-17
3.543818E+03	1.172853E-15	3.859713E-17
3.553745E+03	1.176156E-15	3.849615E-17
3.563672E+03	1.179224E-15	3.838565E-17
3.573598E+03	1.182021E-15	3.826465E-17
3.583525E+03	1.184569E-15	3.813390E-17
3.593452E+03	1.186857E-15	3.799330E-17
3.603378E+03	1.188867E-15	3.784234E-17
3.613305E+03	1.190593E-15	3.768099E-17
3.623232E+03	1.192040E-15	3.750960E-17
3.633158E+03	1.193189E-15	3.732776E-17
3.643085E+03	1.194062E-15	3.713625E-17
3.653012E+03	1.194628E-15	3.693428E-17
3.662938E+03	1.194892E-15	3.672225E-17
3.672865E+03	1.194852E-15	3.650022E-17
3.682792E+03	1.194515E-15	3.626859E-17
3.692718E+03	1.193865E-15	3.602703E-17
3.702645E+03	1.192908E-15	3.577597E-17
3.712572E+03	1.191643E-15	3.551550E-17
3.722498E+03	1.190077E-15	3.524604E-17
3.732425E+03	1.188206E-15	3.496765E-17
3.742352E+03	1.186038E-15	3.468078E-17
3.752278E+03	1.183571E-15	3.438550E-17
3.762205E+03	1.180801E-15	3.408191E-17
3.772131E+03	1.177760E-15	3.377108E-17
3.782058E+03	1.174420E-15	3.345245E-17
3.791985E+03	1.170802E-15	3.312676E-17
3.801911E+03	1.166925E-15	3.279471E-17
3.811838E+03	1.162774E-15	3.245608E-17
3.821765E+03	1.158358E-15	3.211126E-17
3.831691E+03	1.153694E-15	3.176093E-17
3.841618E+03	1.148791E-15	3.140547E-17
3.851545E+03	1.143656E-15	3.104522E-17
3.861471E+03	1.138285E-15	3.068027E-17
3.871398E+03	1.132696E-15	3.031124E-17
3.881325E+03	1.126898E-15	2.993848E-17
3.891251E+03	1.120896E-15	2.956232E-17
3.901178E+03	1.114698E-15	2.918308E-17
3.911105E+03	1.108311E-15	2.880109E-17
3.921031E+03	1.101753E-15	2.841694E-17
3.930958E+03	1.095031E-15	2.803092E-17
3.940885E+03	1.088141E-15	2.764309E-17
3.950811E+03	1.081112E-15	2.725426E-17
3.960738E+03	1.073941E-15	2.686449E-17
3.970665E+03	1.066646E-15	2.647431E-17
3.980591E+03	1.059235E-15	2.608403E-17
3.990518E+03	1.161408E-15	2.837375E-17
3.999651E+03	1.140418E-15	2.765646E-17
4.008783E+03	1.127871E-15	2.714992E-17
4.017916E+03	1.111517E-15	2.655695E-17
4.027048E+03	1.104041E-15	2.618037E-17
4.036181E+03	1.097031E-15	2.581748E-17
4.045313E+03	1.087129E-15	2.538964E-17
4.054446E+03	1.071576E-15	2.483447E-17
4.063578E+03	1.057798E-15	2.432581E-17
4.072711E+03	1.047128E-15	2.389312E-17
4.081843E+03	1.032322E-15	2.337076E-17
4.090976E+03	1.013705E-15	2.276828E-17
4.100108E+03	9.879735E-16	2.201413E-17
4.109241E+03	9.638674E-16	2.130529E-17
4.118373E+03	9.565787E-16	2.097402E-17
4.127506E+03	9.350304E-16	2.033546E-17
4.136639E+03	9.160234E-16	1.975966E-17
4.145771E+03	8.972015E-16	1.919485E-17
4.154904E+03	8.934136E-16	1.895601E-17
4.164036E+03	8.873630E-16	1.867123E-17
4.173169E+03	8.737998E-16	1.823220E-17
4.182301E+03	8.722855E-16	1.804762E-17
4.191434E+03	8.806947E-16	1.806757E-17
4.200566E+03	8.793562E-16	1.788675E-17
4.209699E+03	8.999376E-16	1.814894E-17
4.218831E+03	9.053671E-16	1.810157E-17
4.227964E+03	9.251405E-16	1.833718E-17
4.237096E+03	9.466750E-16	1.860120E-17
4.246229E+03	9.642648E-16	1.878164E-17
4.255361E+03	9.789759E-16	1.890119E-17
4.264494E+03	9.919587E-16	1.898341E-17
4.273626E+03	1.004044E-15	1.904502E-17
4.282759E+03	1.008971E-15	1.896881E-17
4.291892E+03	1.003255E-15	1.869358E-17
4.301024E+03	9.924566E-16	1.832732E-17
4.310157E+03	9.820074E-16	1.797202E-17
4.319289E+03	9.663480E-16	1.752668E-17
4.328422E+03	9.458867E-16	1.700120E-17
4.337554E+03	9.241103E-16	1.646003E-17
4.346687E+03	9.049495E-16	1.597314E-17
4.355819E+03	8.886800E-16	1.554407E-17
4.364952E+03	8.716335E-16	1.510782E-17
4.374084E+03	8.610230E-16	1.478860E-17
4.383217E+03	8.620882E-16	1.467255E-17
4.392349E+03	8.726233E-16	1.471703E-17
4.401482E+03	8.901306E-16	1.487601E-17
4.410614E+03	9.229208E-16	1.528400E-17
4.419747E+03	9.436211E-16	1.548504E-17
4.428879E+03	9.729502E-16	1.582163E-17
4.438012E+03	1.002860E-15	1.616039E-17
4.447144E+03	1.032615E-15	1.648951E-17
4.456277E+03	1.060330E-15	1.677941E-17
4.465410E+03	1.088546E-15	1.707100E-17
4.474542E+03	1.115437E-15	1.733591E-17
4.483675E+03	1.138089E-15	1.752998E-17
4.492807E+03	1.160646E-15	1.771844E-17
4.501940E+03	1.182508E-15	1.789243E-17
4.511072E+03	1.206883E-15	1.810053E-17
4.520205E+03	1.220373E-15	1.814277E-17
4.529337E+03	1.229831E-15	1.812458E-17
4.538470E+03	1.229030E-15	1.795668E-17
4.547602E+03	1.222412E-15	1.770740E-17
4.556735E+03	1.206470E-15	1.732856E-17
4.565867E+03	1.188187E-15	1.692303E-17
4.575000E+03	1.167295E-15	1.648783E-17
4.584132E+03	1.142549E-15	1.600635E-17
4.593265E+03	1.114772E-15	1.549126E-17
4.602397E+03	1.089558E-15	1.502060E-17
4.611530E+03	1.058137E-15	1.447341E-17
4.620663E+03	1.020566E-15	1.385233E-17
4.629795E+03	9.798063E-16	1.319892E-17
4.638928E+03	9.390285E-16	1.255630E-17
4.648060E+03	9.012239E-16	1.196389E-17
4.657193E+03	8.608124E-16	1.134702E-17
4.666325E+03	8.270255E-16	1.082696E-17
4.675458E+03	7.923132E-16	1.030349E-17
4.684590E+03	7.547022E-16	9.751060E-18
4.693723E+03	7.299077E-16	9.371885E-18
4.702855E+03	7.109513E-16	9.073606E-18
4.711988E+03	7.046683E-16	8.941458E-18
4.721120E+03	7.071527E-16	8.923335E-18
4.730253E+03	7.152626E-16	8.978029E-18
4.739385E+03	7.283791E-16	9.096823E-18
4.748518E+03	7.465223E-16	9.279212E-18
4.757650E+03	7.660583E-16	9.479587E-18
4.766783E+03	7.852816E-16	9.676968E-18
4.775916E+03	7.998718E-16	9.818636E-18
4.785048E+03	8.135975E-16	9.951562E-18
4.794181E+03	8.228028E-16	1.003149E-17
4.803313E+03	8.366729E-16	1.017076E-17
4.812446E+03	8.466646E-16	1.026543E-17
4.821578E+03	8.524474E-16	1.031193E-17
4.830711E+03	8.579544E-16	1.035805E-17
4.839843E+03	8.643871E-16	1.041828E-17
4.848976E+03	8.727884E-16	1.050509E-17
4.858108E+03	8.816350E-16	1.060007E-17
4.867241E+03	8.937385E-16	1.073696E-17
4.876373E+03	9.040787E-16	1.085541E-17
4.885506E+03	9.095593E-16	1.091828E-17
4.894638E+03	9.155735E-16	1.099030E-17
4.903771E+03	9.189640E-16	1.103351E-17
4.912903E+03	9.171999E-16	1.101740E-17
4.922036E+03	9.119094E-16	1.096132E-17
4.931169E+03	9.015169E-16	1.084610E-17
4.940301E+03	8.921604E-16	1.074529E-17
4.949434E+03	8.828635E-16	1.064700E-17
4.958566E+03	8.751737E-16	1.056974E-17
4.967699E+03	8.695545E-16	1.051906E-17
4.976831E+03	8.670552E-16	1.050765E-17
4.985964E+03	8.693944E-16	1.055646E-17
4.995096E+03	8.724449E-16	1.061555E-17
5.004229E+03	8.829317E-16	1.076688E-17
5.013361E+03	8.924708E-16	1.090852E-17
5.022494E+03	9.042736E-16	1.107970E-17
5.031626E+03	9.208382E-16	1.131124E-17
5.040759E+03	9.409661E-16	1.158881E-17
5.049891E+03	9.583715E-16	1.183508E-17
5.059024E+03	9.761233E-16	1.208776E-17
5.068156E+03	9.941719E-16	1.234622E-17
5.077289E+03	1.007379E-15	1.254644E-17
5.086422E+03	1.020318E-15	1.274499E-17
5.095554E+03	1.032882E-15	1.294041E-17
5.104687E+03	1.048931E-15	1.318111E-17
5.113819E+03	1.065606E-15	1.343139E-17
5.122952E+03	1.083108E-15	1.369380E-17
5.132084E+03	1.102239E-15	1.397854E-17
5.141217E+03	1.122306E-15	1.427691E-17
5.150349E+03	1.138760E-15	1.453093E-17
5.159482E+03	1.155408E-15	1.478882E-17
5.168614E+03	1.175299E-15	1.508966E-17
5.177747E+03	1.194676E-15	1.538540E-17
5.186879E+03	1.214651E-15	1.569027E-17
5.196012E+03	1.229149E-15	1.592553E-17
5.205144E+03	1.246879E-15	1.620367E-17
5.214277E+03	1.259262E-15	1.641316E-17
5.223409E+03	1.272264E-15	1.663130E-17
5.232542E+03	1.284003E-15	1.683340E-17
5.241675E+03	1.293721E-15	1.700933E-17
5.250807E+03	1.299920E-15	1.713899E-17
5.259940E+03	1.306243E-15	1.727013E-17
5.269072E+03	1.310250E-15	1.737037E-17
5.278205E+03	1.308628E-15	1.739533E-17
5.287337E+03	1.303658E-15	1.737481E-17
5.296470E+03	1.297223E-15	1.733357E-17
5.305602E+03	1.289841E-15	1.727839E-17
5.314735E+03	1.282356E-15	1.722047E-17
5.323867E+03	1.274440E-15	1.715539E-17
5.333000E+03	1.268560E-15	1.711638E-17
5.342132E+03	1.263538E-15	1.708767E-17
5.351265E+03	1.256891E-15	1.703570E-17
5.360397E+03	1.248719E-15	1.696165E-17
5.369530E+03	1.240864E-15	1.689044E-17
5.378662E+03	1.234201E-15	1.683404E-17
5.387795E+03	1.224835E-15	1.673930E-17
5.396927E+03	1.211567E-15	1.658960E-17
5.406060E+03	1.202337E-15	1.649354E-17
5.415193E+03	1.194766E-15	1.641877E-17
5.424325E+03	1.188103E-15	1.635508E-17
5.433458E+03	1.180393E-15	1.627557E-17
5.442590E+03	1.168370E-15	1.613507E-17
5.451723E+03	1.158361E-15	1.602085E-17
5.460855E+03	1.149175E-15	1.591654E-17
5.469988E+03	1.142780E-15	1.584954E-17
5.479120E+03	1.137546E-15	1.579735E-17
5.488253E+03	1.129770E-15	1.570856E-17
5.497385E+03	1.124252E-15	1.564991E-17
5.506518E+03	1.115768E-15	1.554870E-17
5.515650E+03	1.106068E-15	1.542924E-17
5.524783E+03	1.093854E-15	1.527341E-17
5.533915E+03	1.084549E-15	1.515691E-17
5.543048E+03	1.078204E-15	1.508060E-17
5.552180E+03	1.070292E-15	1.498127E-17
5.561313E+03	1.063411E-15	1.489526E-17
5.570446E+03	1.056468E-15	1.480734E-17
5.579578E+03	1.050061E-15	1.472590E-17
5.588711E+03	1.037974E-15	1.456379E-17
5.597843E+03	1.030070E-15	1.445938E-17
5.606976E+03	1.020631E-15	1.433248E-17
5.616108E+03	1.011607E-15	1.421052E-17
5.625241E+03	1.000392E-15	1.405692E-17
5.634373E+03	9.857653E-16	1.385455E-17
5.643506E+03	9.682981E-16	1.361146E-17
5.652638E+03	9.458702E-16	1.329788E-17
5.661771E+03	9.201455E-16	1.293726E-17
5.670903E+03	8.967152E-16	1.260826E-17
5.680036E+03	8.740418E-16	1.228936E-17
5.689168E+03	8.543857E-16	1.201239E-17
5.698301E+03	8.416382E-16	1.183212E-17
5.707433E+03	8.385867E-16	1.178775E-17
5.716566E+03	8.443866E-16	1.186740E-17
5.725699E+03	8.569728E-16	1.204200E-17
5.734831E+03	8.796535E-16	1.235801E-17
5.743964E+03	9.052995E-16	1.271520E-17
5.753096E+03	9.334530E-16	1.310712E-17
5.762229E+03	9.711712E-16	1.363283E-17
5.771361E+03	1.006063E-15	1.411832E-17
5.780494E+03	1.036550E-15	1.454153E-17
5.789626E+03	1.055103E-15	1.479694E-17
5.798759E+03	1.069683E-15	1.499638E-17
5.807891E+03	1.074399E-15	1.505737E-17
5.817024E+03	1.071868E-15	1.501678E-17
5.826156E+03	1.061079E-15	1.486063E-17
5.835289E+03	1.047900E-15	1.467119E-17
5.844421E+03	1.033649E-15	1.446703E-17
5.853554E+03	1.019034E-15	1.425812E-17
5.862686E+03	1.003672E-15	1.403913E-17
5.871819E+03	9.902147E-16	1.384721E-17
5.880952E+03	9.751403E-16	1.363313E-17
5.890084E+03	9.626473E-16	1.345564E-17
5.899217E+03	9.514337E-16	1.329656E-17
5.908349E+03	9.443634E-16	1.319593E-17
5.917482E+03	9.358151E-16	1.307523E-17
5.926614E+03	9.262589E-16	1.294108E-17
5.935747E+03	9.161568E-16	1.279996E-17
5.944879E+03	9.020464E-16	1.260353E-17
5.954012E+03	8.888039E-16	1.241995E-17
5.963144E+03	8.802629E-16	1.230281E-17
5.972277E+03	8.703545E-16	1.216734E-17
5.981409E+03	8.626844E-16	1.206396E-17
5.990542E+03	8.516296E-16	1.191408E-17
5.999674E+03	8.407613E-16	1.176764E-17
6.008807E+03	8.309264E-16	1.163651E-17
6.017939E+03	8.230165E-16	1.153322E-17
6.027072E+03	8.138924E-16	1.141382E-17
6.036205E+03	8.047305E-16	1.129479E-17
6.045337E+03	7.997197E-16	1.123500E-17
6.054470E+03	7.935016E-16	1.115927E-17
6.063602E+03	7.859828E-16	1.106624E-17
6.072735E+03	7.774409E-16	1.095978E-17
6.081867E+03	7.658203E-16	1.081078E-17
6.091000E+03	7.543124E-16	1.066411E-17
6.100132E+03	7.379920E-16	1.044994E-17
6.109265E+03	7.202696E-16	1.021621E-17
6.118397E+03	6.971747E-16	9.906283E-18
6.127530E+03	6.697222E-16	9.534067E-18
6.136662E+03	6.412699E-16	9.146965E-18
6.145795E+03	6.124177E-16	8.753320E-18
6.154927E+03	5.820635E-16	8.337172E-18
6.164060E+03	5.513061E-16	7.914019E-18
6.173192E+03	5.206839E-16	7.491434E-18
6.182325E+03	4.912417E-16	7.084372E-18
6.191458E+03	4.604629E-16	6.656454E-18
6.200590E+03	4.323036E-16	6.264759E-18
6.209723E+03	4.087180E-16	5.937855E-18
6.218855E+03	3.880723E-16	5.652365E-18
6.227988E+03	3.705152E-16	5.410715E-18
6.237120E+03	3.574935E-16	5.234386E-18
6.246253E+03	3.536038E-16	5.191340E-18
6.255385E+03	3.510979E-16	5.168563E-18
6.264518E+03	3.545500E-16	5.233722E-18
6.273650E+03	3.607338E-16	5.339770E-18
6.282783E+03	3.731083E-16	5.538376E-18
6.291915E+03	3.905920E-16	5.814205E-18
6.301048E+03	4.097706E-16	6.116926E-18
6.310180E+03	4.348292E-16	6.509404E-18
6.319313E+03	4.642022E-16	6.968880E-18
6.328445E+03	4.950071E-16	7.452502E-18
6.337578E+03	5.326687E-16	8.042352E-18
6.346711E+03	5.712524E-16	8.649440E-18
6.355843E+03	6.108050E-16	9.274582E-18
6.364976E+03	6.501055E-16	9.899282E-18
6.374108E+03	6.886233E-16	1.051537E-17
6.383241E+03	7.265179E-16	1.112517E-17
6.392373E+03	7.595703E-16	1.166375E-17
6.401506E+03	7.886092E-16	1.214322E-17
6.410638E+03	8.135292E-16	1.256138E-17
6.419771E+03	8.330758E-16	1.289825E-17
6.428903E+03	8.461639E-16	1.313625E-17
6.438036E+03	8.523728E-16	1.326798E-17
6.447168E+03	8.555246E-16	1.335220E-17
6.456301E+03	8.574458E-16	1.341709E-17
6.465433E+03	8.587210E-16	1.347162E-17
6.474566E+03	8.573044E-16	1.348353E-17
6.483698E+03	8.552770E-16	1.348527E-17
6.492831E+03	8.525760E-16	1.347575E-17
6.501963E+03	8.492798E-16	1.345612E-17
6.511096E+03	8.459544E-16	1.343529E-17
6.520229E+03	8.444046E-16	1.344196E-17
6.529361E+03	8.423278E-16	1.343957E-17
6.538494E+03	8.415902E-16	1.345789E-17
6.547626E+03	8.387469E-16	1.344184E-17
6.556759E+03	8.358044E-16	1.342341E-17
6.565891E+03	8.329680E-16	1.340588E-17
6.575024E+03	8.298982E-16	1.338378E-17
6.584156E+03	8.249093E-16	1.332983E-17
6.593289E+03	8.172170E-16	1.323114E-17
6.602421E+03	8.070517E-16	1.309122E-17
6.611554E+03	7.962448E-16	1.293959E-17
6.620686E+03	7.869317E-16	1.281099E-17
6.629819E+03	7.733955E-16	1.261232E-17
6.638951E+03	7.558133E-16	1.234615E-17
6.648084E+03	7.390987E-16	1.209258E-17
6.657216E+03	7.251439E-16	1.188271E-17
6.666349E+03	7.122192E-16	1.168841E-17
6.675482E+03	6.998583E-16	1.150211E-17
6.684614E+03	6.859128E-16	1.128853E-17
6.693747E+03	6.767373E-16	1.115230E-17
6.702879E+03	6.680930E-16	1.102382E-17
6.712012E+03	6.602316E-16	1.090731E-17
6.721144E+03	6.514800E-16	1.077517E-17
6.730277E+03	6.482942E-16	1.073424E-17
6.739409E+03	6.417113E-16	1.063630E-17
6.748542E+03	6.329192E-16	1.050089E-17
6.757674E+03	6.203878E-16	1.030251E-17
6.766807E+03	6.077330E-16	1.010114E-17
6.775939E+03	5.954265E-16	9.904654E-18
6.785072E+03	5.819850E-16	9.688403E-18
6.794204E+03	5.698987E-16	9.493873E-18
6.803337E+03	5.563078E-16	9.273475E-18
6.812469E+03	5.461883E-16	9.110198E-18
6.821602E+03	5.364801E-16	8.953113E-18
6.830735E+03	5.269265E-16	8.797972E-18
6.839867E+03	5.173340E-16	8.641578E-18
6.849000E+03	5.105540E-16	8.531611E-18
6.858132E+03	5.088190E-16	8.505469E-18
6.867265E+03	5.075234E-16	8.486237E-18
6.876397E+03	5.076520E-16	8.490404E-18
6.885530E+03	5.065483E-16	8.473561E-18
6.894662E+03	5.084758E-16	8.507033E-18
6.903795E+03	5.095992E-16	8.526679E-18
6.912927E+03	5.080832E-16	8.501789E-18
6.922060E+03	5.058744E-16	8.464948E-18
6.931192E+03	5.093029E-16	8.522090E-18
6.940325E+03	5.104911E-16	8.541409E-18
6.949457E+03	5.125734E-16	8.575358E-18
6.958590E+03	5.117630E-16	8.560604E-18
6.967722E+03	5.101474E-16	8.532092E-18
6.976855E+03	5.076899E-16	8.489235E-18
6.985988E+03	5.028038E-16	8.405537E-18
6.995120E+03	4.996350E-16	8.350339E-18
7.004253E+03	4.936407E-16	8.247741E-18
7.013385E+03	4.914230E-16	8.208079E-18
7.022518E+03	4.869759E-16	8.131036E-18
7.031650E+03	4.829074E-16	8.060198E-18
7.040783E+03	4.778100E-16	7.972103E-18
7.049915E+03	4.750113E-16	7.922291E-18
7.059048E+03	4.737977E-16	7.898840E-18
7.068180E+03	4.660946E-16	7.767183E-18
7.077313E+03	4.567573E-16	7.608356E-18
7.086445E+03	4.501420E-16	7.494947E-18
7.095578E+03	4.450419E-16	7.406840E-18
7.104710E+03	4.401636E-16	7.322506E-18
7.113843E+03	4.348423E-16	7.230907E-18
7.122975E+03	4.329638E-16	7.196663E-18
7.132108E+03	4.283590E-16	7.117224E-18
7.141241E+03	4.254938E-16	7.066839E-18
7.150373E+03	4.247469E-16	7.051783E-18
7.159506E+03	4.247223E-16	7.048874E-18
7.168638E+03	4.247702E-16	7.047342E-18
7.177771E+03	4.248388E-16	7.046351E-18
7.186903E+03	4.223116E-16	7.002542E-18
7.196036E+03	4.243746E-16	7.035100E-18
7.205168E+03	4.235189E-16	7.019548E-18
7.214301E+03	4.226051E-16	7.003347E-18
7.223433E+03	4.217551E-16	6.988540E-18
7.232566E+03	4.211716E-16	6.978513E-18
7.241698E+03	4.213813E-16	6.982020E-18
7.250831E+03	4.252492E-16	7.046567E-18
7.259963E+03	4.258793E-16	7.057924E-18
7.269096E+03	4.243934E-16	7.034694E-18
7.278228E+03	4.228395E-16	7.010841E-18
7.287361E+03	4.228229E-16	7.013016E-18
7.296494E+03	4.213022E-16	6.990807E-18
7.305626E+03	4.198296E-16	6.969980E-18
7.314759E+03	4.208326E-16	6.990885E-18
7.323891E+03	4.212431E-16	7.002632E-18
7.333024E+03	4.194019E-16	6.977629E-18
7.342156E+03	4.182376E-16	6.964575E-18
7.351289E+03	4.171110E-16	6.952874E-18
7.360421E+03	4.150004E-16	6.925504E-18
7.369554E+03	4.111361E-16	6.869566E-18
7.378686E+03	4.064232E-16	6.800105E-18
7.387819E+03	3.994610E-16	6.693593E-18
7.396951E+03	3.975959E-16	6.673145E-18
7.406084E+03	3.963388E-16	6.663721E-18
