#wls	flux	fluxerr
1.588266E+03	3.517426E-17	1.296763E-18
1.627973E+03	3.696099E-17	1.357926E-18
1.667679E+03	3.857360E-17	1.412135E-18
1.707386E+03	3.999033E-17	1.458647E-18
1.747092E+03	4.116668E-17	1.495906E-18
1.786799E+03	4.202951E-17	1.521350E-18
1.826506E+03	4.246743E-17	1.531083E-18
1.866212E+03	4.236078E-17	1.520986E-18
1.905919E+03	4.159568E-17	1.487226E-18
1.945626E+03	4.011103E-17	1.427932E-18
1.985332E+03	3.796373E-17	1.345469E-18
2.025039E+03	3.540425E-17	1.249011E-18
2.064746E+03	3.294541E-17	1.156790E-18
2.104452E+03	3.124225E-17	1.091673E-18
2.144159E+03	3.093811E-17	1.075659E-18
2.183866E+03	3.245765E-17	1.122707E-18
2.223572E+03	3.593643E-17	1.236487E-18
2.263279E+03	4.125635E-17	1.411841E-18
2.302986E+03	4.812809E-17	1.637822E-18
2.342692E+03	5.619611E-17	1.901423E-18
2.382399E+03	6.513053E-17	2.190740E-18
2.422105E+03	7.467448E-17	2.496546E-18
2.461812E+03	8.465536E-17	2.812602E-18
2.501519E+03	9.497577E-17	3.135281E-18
2.541225E+03	1.055860E-16	3.462589E-18
2.580932E+03	1.164487E-16	3.792968E-18
2.620639E+03	1.275766E-16	4.126507E-18
2.660345E+03	1.389399E-16	4.461901E-18
2.700052E+03	1.505444E-16	4.799006E-18
2.739759E+03	1.623740E-16	5.136968E-18
2.779465E+03	1.744025E-16	5.474625E-18
2.819172E+03	1.865941E-16	5.810527E-18
2.858879E+03	1.989278E-16	6.143725E-18
2.898585E+03	2.113726E-16	6.472968E-18
2.938292E+03	2.239316E-16	6.798073E-18
2.977999E+03	2.366225E-16	7.119294E-18
2.987925E+03	2.398227E-16	7.199161E-18
2.997852E+03	2.430299E-16	7.278724E-18
3.007779E+03	2.462514E-16	7.358198E-18
3.017705E+03	2.494943E-16	7.437784E-18
3.027632E+03	2.527379E-16	7.516864E-18
3.037559E+03	2.560161E-16	7.596435E-18
3.047485E+03	2.593281E-16	7.676469E-18
3.057412E+03	2.627246E-16	7.758447E-18
3.067339E+03	2.661950E-16	7.842043E-18
3.077265E+03	2.697464E-16	7.927439E-18
3.087192E+03	2.733690E-16	8.014331E-18
3.097118E+03	2.770440E-16	8.102150E-18
3.107045E+03	2.807803E-16	8.191140E-18
3.116972E+03	2.845687E-16	8.281020E-18
3.126898E+03	2.884005E-16	8.371517E-18
3.136825E+03	2.922676E-16	8.462389E-18
3.146752E+03	2.961795E-16	8.553895E-18
3.156678E+03	3.001107E-16	8.645287E-18
3.166605E+03	3.040798E-16	8.737095E-18
3.176532E+03	3.080707E-16	8.828844E-18
3.186458E+03	3.120848E-16	8.920566E-18
3.196385E+03	3.161238E-16	9.012298E-18
3.206312E+03	3.201717E-16	9.103579E-18
3.216238E+03	3.242307E-16	9.194464E-18
3.226165E+03	3.282941E-16	9.284759E-18
3.236092E+03	3.323722E-16	9.374748E-18
3.246018E+03	3.364500E-16	9.464004E-18
3.255945E+03	3.405297E-16	9.552585E-18
3.265872E+03	3.446051E-16	9.640309E-18
3.275798E+03	3.486780E-16	9.727231E-18
3.285725E+03	3.527423E-16	9.813176E-18
3.295652E+03	3.567922E-16	9.897978E-18
3.305578E+03	3.608216E-16	9.981471E-18
3.315505E+03	3.648327E-16	1.006372E-17
3.325432E+03	3.688200E-16	1.014457E-17
3.335358E+03	3.727774E-16	1.022386E-17
3.345285E+03	3.766917E-16	1.030123E-17
3.355212E+03	3.805731E-16	1.037696E-17
3.365138E+03	3.844006E-16	1.045050E-17
3.375065E+03	3.881697E-16	1.052172E-17
3.384992E+03	3.918825E-16	1.059071E-17
3.394918E+03	3.955198E-16	1.065694E-17
3.404845E+03	3.990769E-16	1.072031E-17
3.414772E+03	4.025499E-16	1.078073E-17
3.424698E+03	4.059202E-16	1.083773E-17
3.434625E+03	4.091773E-16	1.089104E-17
3.444552E+03	4.123186E-16	1.094063E-17
3.454478E+03	4.153271E-16	1.098607E-17
3.464405E+03	4.181869E-16	1.102697E-17
3.474332E+03	4.208898E-16	1.106315E-17
3.484258E+03	4.234284E-16	1.109446E-17
3.494185E+03	4.257885E-16	1.112057E-17
3.504112E+03	4.279576E-16	1.114119E-17
3.514038E+03	4.299235E-16	1.115605E-17
3.523965E+03	4.316816E-16	1.116509E-17
3.533892E+03	4.332085E-16	1.116776E-17
3.543818E+03	4.345077E-16	1.116420E-17
3.553745E+03	4.355646E-16	1.115410E-17
3.563672E+03	4.363774E-16	1.113747E-17
3.573598E+03	4.369395E-16	1.111422E-17
3.583525E+03	4.372448E-16	1.108424E-17
3.593452E+03	4.372938E-16	1.104763E-17
3.603378E+03	4.370821E-16	1.100434E-17
3.613305E+03	4.366118E-16	1.095448E-17
3.623232E+03	4.358796E-16	1.089805E-17
3.633158E+03	4.348997E-16	1.083547E-17
3.643085E+03	4.336644E-16	1.076662E-17
3.653012E+03	4.321888E-16	1.069194E-17
3.662938E+03	4.304818E-16	1.061172E-17
3.672865E+03	4.285423E-16	1.052598E-17
3.682792E+03	4.263857E-16	1.043518E-17
3.692718E+03	4.240213E-16	1.033960E-17
3.702645E+03	4.214540E-16	1.023942E-17
3.712572E+03	4.186986E-16	1.013505E-17
3.722498E+03	4.157650E-16	1.002679E-17
3.732425E+03	4.126624E-16	9.914908E-18
3.742352E+03	4.094010E-16	9.799698E-18
3.752278E+03	4.059904E-16	9.681435E-18
3.762205E+03	4.024443E-16	9.560491E-18
3.772131E+03	3.987721E-16	9.437125E-18
3.782058E+03	3.949876E-16	9.311704E-18
3.791985E+03	3.910911E-16	9.184268E-18
3.801911E+03	3.871044E-16	9.055361E-18
3.811838E+03	3.830322E-16	8.925120E-18
3.821765E+03	3.788829E-16	8.793771E-18
3.831691E+03	3.746691E-16	8.661629E-18
3.841618E+03	3.704032E-16	8.528999E-18
3.851545E+03	3.660894E-16	8.395997E-18
3.861471E+03	3.617391E-16	8.262902E-18
3.871398E+03	3.573641E-16	8.129993E-18
3.881325E+03	3.529683E-16	7.997371E-18
3.891251E+03	3.485625E-16	7.865291E-18
3.901178E+03	3.441541E-16	7.733924E-18
3.911105E+03	3.397538E-16	7.603514E-18
3.921031E+03	3.353682E-16	7.474208E-18
3.930958E+03	3.310072E-16	7.346227E-18
3.940885E+03	3.266743E-16	7.219646E-18
3.950811E+03	3.223758E-16	7.094595E-18
3.960738E+03	3.181272E-16	6.971412E-18
3.970665E+03	3.139255E-16	6.850020E-18
3.980591E+03	3.097827E-16	6.730668E-18
3.990518E+03	3.057044E-16	6.613465E-18
4.000445E+03	3.016997E-16	6.498590E-18
4.010371E+03	2.977709E-16	6.386076E-18
4.020298E+03	2.939236E-16	6.276025E-18
4.030225E+03	2.901666E-16	6.168602E-18
4.040151E+03	2.865075E-16	6.063946E-18
4.050078E+03	2.829464E-16	5.962037E-18
4.060005E+03	2.794941E-16	5.863070E-18
4.069931E+03	2.761529E-16	5.767071E-18
4.079858E+03	2.729306E-16	5.674170E-18
4.089785E+03	2.698288E-16	5.584372E-18
4.099711E+03	2.668553E-16	5.497801E-18
4.109638E+03	2.640141E-16	5.414510E-18
4.119565E+03	2.613094E-16	5.334546E-18
4.129491E+03	2.587424E-16	5.257901E-18
4.139418E+03	2.563192E-16	5.184658E-18
4.149345E+03	2.540406E-16	5.114797E-18
4.159271E+03	2.519121E-16	5.048390E-18
4.169198E+03	2.499317E-16	4.985355E-18
4.179125E+03	2.481041E-16	4.925748E-18
4.189051E+03	2.464293E-16	4.869526E-18
4.198978E+03	2.449092E-16	4.816686E-18
4.208905E+03	2.435433E-16	4.767180E-18
4.218831E+03	2.423311E-16	4.720955E-18
4.228758E+03	2.412741E-16	4.678000E-18
4.238685E+03	2.403693E-16	4.638215E-18
4.248611E+03	2.396158E-16	4.601545E-18
4.258538E+03	2.390127E-16	4.567932E-18
4.268465E+03	2.385546E-16	4.537236E-18
4.278391E+03	2.382426E-16	4.509438E-18
4.288318E+03	2.380732E-16	4.484434E-18
4.298245E+03	2.380383E-16	4.462038E-18
4.308171E+03	2.381379E-16	4.442216E-18
4.318098E+03	2.383671E-16	4.424842E-18
4.328025E+03	2.387199E-16	4.409776E-18
4.337951E+03	2.391939E-16	4.396940E-18
4.347878E+03	2.397917E-16	4.386354E-18
4.357805E+03	2.405114E-16	4.377956E-18
4.367731E+03	2.413528E-16	4.371710E-18
4.377658E+03	2.423200E-16	4.367664E-18
4.387585E+03	2.434108E-16	4.365749E-18
4.397511E+03	2.446272E-16	4.365971E-18
4.407438E+03	2.459663E-16	4.368248E-18
4.417365E+03	2.474295E-16	4.372577E-18
4.427291E+03	2.490168E-16	4.378925E-18
4.437218E+03	2.507256E-16	4.387222E-18
4.447144E+03	2.525539E-16	4.397399E-18
4.457071E+03	2.544989E-16	4.409385E-18
4.466998E+03	2.565626E-16	4.423185E-18
4.476924E+03	2.587373E-16	4.438643E-18
4.486851E+03	2.610221E-16	4.455717E-18
4.496778E+03	2.634088E-16	4.474244E-18
4.506704E+03	2.658982E-16	4.494218E-18
4.516631E+03	2.684842E-16	4.515517E-18
4.526558E+03	2.711583E-16	4.537977E-18
4.536484E+03	2.739170E-16	4.561525E-18
4.546411E+03	2.767602E-16	4.586142E-18
4.556338E+03	2.796786E-16	4.611664E-18
4.566264E+03	2.826771E-16	4.638155E-18
4.576191E+03	2.857494E-16	4.665503E-18
4.586118E+03	2.888991E-16	4.693750E-18
4.596044E+03	2.921342E-16	4.723022E-18
4.605971E+03	2.954576E-16	4.753345E-18
4.615898E+03	2.988788E-16	4.784864E-18
4.625824E+03	3.024093E-16	4.817743E-18
4.635751E+03	3.060642E-16	4.852205E-18
4.645678E+03	3.098507E-16	4.888348E-18
4.655604E+03	3.137877E-16	4.926443E-18
4.665531E+03	3.178877E-16	4.966664E-18
4.675458E+03	3.221510E-16	5.008987E-18
4.685384E+03	3.265791E-16	5.053410E-18
4.695311E+03	3.311712E-16	5.099897E-18
4.705238E+03	3.359242E-16	5.148375E-18
4.715164E+03	3.408359E-16	5.198788E-18
4.725091E+03	3.458996E-16	5.251015E-18
4.735018E+03	3.511070E-16	5.304911E-18
4.744944E+03	3.564452E-16	5.360265E-18
4.754871E+03	3.619044E-16	5.416920E-18
4.764798E+03	3.674583E-16	5.474475E-18
4.774724E+03	3.730977E-16	5.532789E-18
4.784651E+03	3.787937E-16	5.591438E-18
4.794578E+03	3.845264E-16	5.650136E-18
4.804504E+03	3.902726E-16	5.708553E-18
4.814431E+03	3.960140E-16	5.766440E-18
4.824358E+03	4.017277E-16	5.823487E-18
4.834284E+03	4.074061E-16	5.879609E-18
4.844211E+03	4.130436E-16	5.934754E-18
4.854138E+03	4.186419E-16	5.988974E-18
4.864064E+03	4.242001E-16	6.042284E-18
4.873991E+03	4.297155E-16	6.094678E-18
4.883918E+03	4.351847E-16	6.146134E-18
4.893844E+03	4.406075E-16	6.196684E-18
4.903771E+03	4.459645E-16	6.246086E-18
4.913698E+03	4.512490E-16	6.294280E-18
4.923624E+03	4.564415E-16	6.341029E-18
4.933551E+03	4.615147E-16	6.385988E-18
4.943478E+03	4.664466E-16	6.428887E-18
4.953404E+03	4.712107E-16	6.469400E-18
4.963331E+03	4.757842E-16	6.507255E-18
4.973258E+03	4.801384E-16	6.542103E-18
4.983184E+03	4.842528E-16	6.573714E-18
4.993111E+03	4.881171E-16	6.601997E-18
5.003038E+03	4.917252E-16	6.626917E-18
5.012964E+03	4.950735E-16	6.648475E-18
5.022891E+03	4.981770E-16	6.666918E-18
5.032818E+03	5.010540E-16	6.682536E-18
5.042744E+03	5.037271E-16	6.695667E-18
5.052671E+03	5.062339E-16	6.706848E-18
5.062598E+03	5.086112E-16	6.716593E-18
5.072524E+03	5.108984E-16	6.725445E-18
5.082451E+03	5.131306E-16	6.733887E-18
5.092378E+03	5.153466E-16	6.742439E-18
5.102304E+03	5.175867E-16	6.751637E-18
5.112231E+03	5.198847E-16	6.761928E-18
5.122158E+03	5.222647E-16	6.773625E-18
5.132084E+03	5.247513E-16	6.787047E-18
5.142011E+03	5.273663E-16	6.802473E-18
5.151937E+03	5.301273E-16	6.820128E-18
5.161864E+03	5.330453E-16	6.840147E-18
5.171791E+03	5.361440E-16	6.862831E-18
5.181717E+03	5.394252E-16	6.888198E-18
5.191644E+03	5.429060E-16	6.916462E-18
5.201571E+03	5.465904E-16	6.947671E-18
5.211497E+03	5.504874E-16	6.981935E-18
5.221424E+03	5.546036E-16	7.019336E-18
5.231351E+03	5.589393E-16	7.059877E-18
5.241277E+03	5.635057E-16	7.103699E-18
5.251204E+03	5.683063E-16	7.150850E-18
5.261131E+03	5.733335E-16	7.201236E-18
5.271057E+03	5.786026E-16	7.255054E-18
5.280984E+03	5.841061E-16	7.312218E-18
5.290911E+03	5.898544E-16	7.372864E-18
5.300837E+03	5.958470E-16	7.436997E-18
5.310764E+03	6.020886E-16	7.504687E-18
5.320691E+03	6.085787E-16	7.575941E-18
5.330617E+03	6.153331E-16	7.650970E-18
5.340544E+03	6.223331E-16	7.729560E-18
5.350471E+03	6.295803E-16	7.811747E-18
5.360397E+03	6.370538E-16	7.897295E-18
5.370324E+03	6.446950E-16	7.985503E-18
5.380251E+03	6.523872E-16	8.074951E-18
5.390177E+03	6.599940E-16	8.163971E-18
5.400104E+03	6.673708E-16	8.250786E-18
5.410031E+03	6.743709E-16	8.333599E-18
5.419957E+03	6.808570E-16	8.410727E-18
5.429884E+03	6.866877E-16	8.480433E-18
5.439811E+03	6.917149E-16	8.540899E-18
5.449737E+03	6.958063E-16	8.590496E-18
5.459664E+03	6.988634E-16	8.628008E-18
5.469591E+03	7.007700E-16	8.651994E-18
5.479517E+03	7.014660E-16	8.661699E-18
5.489444E+03	7.008898E-16	8.656342E-18
5.499371E+03	6.990286E-16	8.635739E-18
5.509297E+03	6.958999E-16	8.600072E-18
5.519224E+03	6.915278E-16	8.549599E-18
5.529151E+03	6.859843E-16	8.485166E-18
5.539077E+03	6.793648E-16	8.407904E-18
5.549004E+03	6.717648E-16	8.318942E-18
5.558931E+03	6.633200E-16	8.219911E-18
5.568857E+03	6.541821E-16	8.112637E-18
5.578784E+03	6.444959E-16	7.998864E-18
5.588711E+03	6.344449E-16	7.880823E-18
5.598637E+03	6.242076E-16	7.760688E-18
5.608564E+03	6.139545E-16	7.640542E-18
5.618491E+03	6.038866E-16	7.522857E-18
5.628417E+03	5.941903E-16	7.409936E-18
5.638344E+03	5.850415E-16	7.303958E-18
5.648271E+03	5.766237E-16	7.207217E-18
5.658197E+03	5.690978E-16	7.121731E-18
5.668124E+03	5.626254E-16	7.049546E-18
5.678051E+03	5.573499E-16	6.992489E-18
5.687977E+03	5.534006E-16	6.952227E-18
5.697904E+03	5.508903E-16	6.930232E-18
5.707831E+03	5.499208E-16	6.927850E-18
5.717757E+03	5.505565E-16	6.945968E-18
5.727684E+03	5.528627E-16	6.985495E-18
5.737611E+03	5.568598E-16	7.046781E-18
5.747537E+03	5.625455E-16	7.129893E-18
5.757464E+03	5.698916E-16	7.234580E-18
5.767391E+03	5.788299E-16	7.360077E-18
5.777317E+03	5.892575E-16	7.505184E-18
5.787244E+03	6.010387E-16	7.668272E-18
5.797171E+03	6.140045E-16	7.847281E-18
5.807097E+03	6.279561E-16	8.039757E-18
5.817024E+03	6.426757E-16	8.242988E-18
5.826950E+03	6.579147E-16	8.453847E-18
5.836877E+03	6.734012E-16	8.668886E-18
5.846804E+03	6.888658E-16	8.884666E-18
5.856730E+03	7.040292E-16	9.097590E-18
5.866657E+03	7.186242E-16	9.304195E-18
5.876584E+03	7.323812E-16	9.500953E-18
5.886510E+03	7.450678E-16	9.684797E-18
5.896437E+03	7.564704E-16	9.852872E-18
5.906364E+03	7.664092E-16	1.000275E-17
5.916290E+03	7.747492E-16	1.013255E-17
5.926217E+03	7.813848E-16	1.024077E-17
5.936144E+03	7.862371E-16	1.032624E-17
5.946070E+03	7.892920E-16	1.038864E-17
5.955997E+03	7.905402E-16	1.042770E-17
5.965924E+03	7.900186E-16	1.044374E-17
5.975850E+03	7.877795E-16	1.043731E-17
5.985777E+03	7.838913E-16	1.040917E-17
5.995704E+03	7.784458E-16	1.036038E-17
6.005630E+03	7.715396E-16	1.029208E-17
6.015557E+03	7.632430E-16	1.020509E-17
6.025484E+03	7.536613E-16	1.010066E-17
6.035410E+03	7.428723E-16	9.979728E-18
6.045337E+03	7.309541E-16	9.843203E-18
6.055264E+03	7.179636E-16	9.691740E-18
6.065190E+03	7.039549E-16	9.525947E-18
6.075117E+03	6.889532E-16	9.346054E-18
6.085044E+03	6.730107E-16	9.152652E-18
6.094970E+03	6.561500E-16	8.945938E-18
6.104897E+03	6.383980E-16	8.726166E-18
6.114824E+03	6.198181E-16	8.494089E-18
6.124750E+03	6.004598E-16	8.250268E-18
6.134677E+03	5.804251E-16	7.995989E-18
6.144604E+03	5.598118E-16	7.732493E-18
6.154530E+03	5.387976E-16	7.462144E-18
6.164457E+03	5.176191E-16	7.188148E-18
6.174384E+03	4.965877E-16	6.914791E-18
6.184310E+03	4.760289E-16	6.646605E-18
6.194237E+03	4.562474E-16	6.387881E-18
6.204164E+03	4.375124E-16	6.142461E-18
6.214090E+03	4.200664E-16	5.913859E-18
6.224017E+03	4.040762E-16	5.704556E-18
6.233944E+03	3.896852E-16	5.516735E-18
6.243870E+03	3.769822E-16	5.351830E-18
6.253797E+03	3.660288E-16	5.210904E-18
6.263724E+03	3.568441E-16	5.094425E-18
6.273650E+03	3.494223E-16	5.002512E-18
6.283577E+03	3.437527E-16	4.935215E-18
6.293504E+03	3.397914E-16	4.892106E-18
6.303430E+03	3.374949E-16	4.872759E-18
6.313357E+03	3.368228E-16	4.876784E-18
6.323284E+03	3.377116E-16	4.903457E-18
6.333210E+03	3.401093E-16	4.952202E-18
6.343137E+03	3.439512E-16	5.022262E-18
6.353064E+03	3.491837E-16	5.113023E-18
6.362990E+03	3.557295E-16	5.223520E-18
6.372917E+03	3.635208E-16	5.352912E-18
6.382844E+03	3.724785E-16	5.500184E-18
6.392770E+03	3.825061E-16	5.664047E-18
6.402697E+03	3.935217E-16	5.843413E-18
6.412624E+03	4.054210E-16	6.036850E-18
6.422550E+03	4.180997E-16	6.242905E-18
6.432477E+03	4.314438E-16	6.459962E-18
6.442404E+03	4.453487E-16	6.686530E-18
6.452330E+03	4.596968E-16	6.920902E-18
6.462257E+03	4.743838E-16	7.161554E-18
6.472184E+03	4.892863E-16	7.406653E-18
6.482110E+03	5.043100E-16	7.654788E-18
6.492037E+03	5.193407E-16	7.904232E-18
6.501963E+03	5.342644E-16	8.153237E-18
6.511890E+03	5.489828E-16	8.400280E-18
6.521817E+03	5.633812E-16	8.643569E-18
6.531743E+03	5.773596E-16	8.881521E-18
6.541670E+03	5.908012E-16	9.112275E-18
6.551597E+03	6.035970E-16	9.334074E-18
6.561523E+03	6.156483E-16	9.545304E-18
6.571450E+03	6.268299E-16	9.743920E-18
6.581377E+03	6.370595E-16	9.928531E-18
6.591303E+03	6.462345E-16	1.009741E-17
6.601230E+03	6.542707E-16	1.024911E-17
6.611157E+03	6.610972E-16	1.038238E-17
6.621083E+03	6.666701E-16	1.049637E-17
6.631010E+03	6.709303E-16	1.059000E-17
6.640937E+03	6.738703E-16	1.066300E-17
6.650863E+03	6.755028E-16	1.071540E-17
6.660790E+03	6.758390E-16	1.074723E-17
6.670717E+03	6.749102E-16	1.075883E-17
6.680643E+03	6.727960E-16	1.075134E-17
6.690570E+03	6.695721E-16	1.072582E-17
6.700497E+03	6.653065E-16	1.068324E-17
6.710423E+03	6.601210E-16	1.062544E-17
6.720350E+03	6.541153E-16	1.055393E-17
6.730277E+03	6.474046E-16	1.047048E-17
6.740203E+03	6.401201E-16	1.037713E-17
6.750130E+03	6.323718E-16	1.027562E-17
6.760057E+03	6.242912E-16	1.016803E-17
6.769983E+03	6.159851E-16	1.005609E-17
6.779910E+03	6.075783E-16	9.941797E-18
6.789837E+03	5.991673E-16	9.826742E-18
6.799763E+03	5.908630E-16	9.712750E-18
6.809690E+03	5.827587E-16	9.601373E-18
6.819617E+03	5.749275E-16	9.493849E-18
6.829543E+03	5.674545E-16	9.391620E-18
6.839470E+03	5.603952E-16	9.295653E-18
6.849397E+03	5.538230E-16	9.207217E-18
6.859323E+03	5.477622E-16	9.126779E-18
6.869250E+03	5.422547E-16	9.055098E-18
6.879177E+03	5.373211E-16	8.992585E-18
6.889103E+03	5.329700E-16	8.939454E-18
6.899030E+03	5.291980E-16	8.895716E-18
6.908957E+03	5.259903E-16	8.861191E-18
6.918883E+03	5.233216E-16	8.835516E-18
6.928810E+03	5.211569E-16	8.818166E-18
6.938737E+03	5.194443E-16	8.808319E-18
6.948663E+03	5.181531E-16	8.805509E-18
6.958590E+03	5.172207E-16	8.808722E-18
6.968517E+03	5.165914E-16	8.817049E-18
6.978443E+03	5.162181E-16	8.829725E-18
6.988370E+03	5.160270E-16	8.845517E-18
6.998297E+03	5.159843E-16	8.863873E-18
7.008223E+03	5.160328E-16	8.883825E-18
7.018150E+03	5.161290E-16	8.904642E-18
7.028077E+03	5.162362E-16	8.925698E-18
7.038003E+03	5.163335E-16	8.946640E-18
7.047930E+03	5.163881E-16	8.966903E-18
7.057857E+03	5.163939E-16	8.986381E-18
7.067783E+03	5.163323E-16	9.004750E-18
7.077710E+03	5.162010E-16	9.021970E-18
7.087637E+03	5.160136E-16	9.038275E-18
7.097563E+03	5.157780E-16	9.053806E-18
7.107490E+03	5.154960E-16	9.068596E-18
7.117417E+03	5.151909E-16	9.083055E-18
7.127343E+03	5.148661E-16	9.097247E-18
7.137270E+03	5.145442E-16	9.111578E-18
7.147197E+03	5.142357E-16	9.126240E-18
7.157123E+03	5.139481E-16	9.141376E-18
7.167050E+03	5.136857E-16	9.157072E-18
7.176976E+03	5.134492E-16	9.173348E-18
7.186903E+03	5.132255E-16	9.189983E-18
7.196830E+03	5.130291E-16	9.207244E-18
7.206756E+03	5.128409E-16	9.224798E-18
7.216683E+03	5.126496E-16	9.242450E-18
7.226610E+03	5.124522E-16	9.260153E-18
7.236536E+03	5.122236E-16	9.277458E-18
7.246463E+03	5.119588E-16	9.294278E-18
7.256390E+03	5.116422E-16	9.310333E-18
7.266316E+03	5.112589E-16	9.325350E-18
7.276243E+03	5.107952E-16	9.339080E-18
7.286170E+03	5.102500E-16	9.351495E-18
7.296096E+03	5.096030E-16	9.362223E-18
7.306023E+03	5.088691E-16	9.371530E-18
7.315950E+03	5.080556E-16	9.379545E-18
7.325876E+03	5.071402E-16	9.385854E-18
7.335803E+03	5.061588E-16	9.391111E-18
7.345730E+03	5.051173E-16	9.395426E-18
7.355656E+03	5.040355E-16	9.399166E-18
7.365583E+03	5.029240E-16	9.402528E-18
7.375510E+03	5.018052E-16	9.405936E-18
7.385436E+03	5.006793E-16	9.409396E-18
7.395363E+03	4.995337E-16	9.412676E-18
7.405290E+03	4.983866E-16	9.416121E-18
7.415216E+03	4.972197E-16	9.419394E-18
7.425143E+03	4.960341E-16	9.422513E-18
7.435070E+03	4.948051E-16	9.425014E-18
7.444996E+03	4.935385E-16	9.427003E-18
7.454923E+03	4.922266E-16	9.428334E-18
7.464850E+03	4.908375E-16	9.428388E-18
7.474776E+03	4.893708E-16	9.427142E-18
7.484703E+03	4.878030E-16	9.424121E-18
7.494630E+03	4.861204E-16	9.419033E-18
7.504556E+03	4.843200E-16	9.411792E-18
7.514483E+03	4.823760E-16	9.401863E-18
7.524410E+03	4.802737E-16	9.388926E-18
7.534336E+03	4.779987E-16	9.372660E-18
7.544263E+03	4.755371E-16	9.352752E-18
7.554190E+03	4.728765E-16	9.328913E-18
7.564116E+03	4.700062E-16	9.300886E-18
7.574043E+03	4.669186E-16	9.268468E-18
7.583970E+03	4.636100E-16	9.231537E-18
7.593896E+03	4.600850E-16	9.190130E-18
7.603823E+03	4.563569E-16	9.144465E-18
7.613750E+03	4.524435E-16	9.094844E-18
7.623676E+03	4.483745E-16	9.041824E-18
7.633603E+03	4.441478E-16	8.985319E-18
7.643530E+03	4.398040E-16	8.926108E-18
7.653456E+03	4.353395E-16	8.864087E-18
7.663383E+03	4.307922E-16	8.799994E-18
7.673310E+03	4.261666E-16	8.733892E-18
7.683236E+03	4.214869E-16	8.666251E-18
7.693163E+03	4.167550E-16	8.597088E-18
7.703090E+03	4.119819E-16	8.526609E-18
