#wls	flux	fluxerr
1.588266E+03	2.710451E-17	7.384392E-19
1.627973E+03	2.829001E-17	7.698909E-19
1.667679E+03	2.932005E-17	7.970232E-19
1.707386E+03	3.017888E-17	8.194204E-19
1.747092E+03	3.083571E-17	8.362609E-19
1.786799E+03	3.123265E-17	8.459943E-19
1.826506E+03	3.130876E-17	8.469964E-19
1.866212E+03	3.097618E-17	8.369249E-19
1.905919E+03	3.015969E-17	8.137937E-19
1.945626E+03	2.884050E-17	7.771490E-19
1.985332E+03	2.705799E-17	7.281086E-19
2.025039E+03	2.501603E-17	6.722070E-19
2.064746E+03	2.307549E-17	6.191617E-19
2.104452E+03	2.169073E-17	5.811391E-19
2.144159E+03	2.128671E-17	5.694438E-19
2.183866E+03	2.212604E-17	5.909711E-19
2.223572E+03	2.426027E-17	6.469365E-19
2.263279E+03	2.756591E-17	7.338795E-19
2.302986E+03	3.179742E-17	8.451105E-19
2.342692E+03	3.667936E-17	9.731837E-19
2.382399E+03	4.196057E-17	1.111343E-18
2.422105E+03	4.744456E-17	1.254320E-18
2.461812E+03	5.300862E-17	1.398832E-18
2.501519E+03	5.856908E-17	1.542643E-18
2.541225E+03	6.408167E-17	1.684573E-18
2.580932E+03	6.952977E-17	1.824174E-18
2.620639E+03	7.490054E-17	1.961103E-18
2.660345E+03	8.017664E-17	2.094900E-18
2.700052E+03	8.537282E-17	2.225948E-18
2.739759E+03	9.047031E-17	2.353753E-18
2.779465E+03	9.548067E-17	2.478614E-18
2.819172E+03	1.003696E-16	2.599641E-18
2.858879E+03	1.051245E-16	2.716513E-18
2.898585E+03	1.096941E-16	2.827915E-18
2.938292E+03	1.140506E-16	2.933153E-18
2.977999E+03	1.181645E-16	3.031491E-18
2.987925E+03	1.191612E-16	3.055158E-18
2.997852E+03	1.201309E-16	3.078092E-18
3.007779E+03	1.210908E-16	3.100737E-18
3.017705E+03	1.220316E-16	3.122853E-18
3.027632E+03	1.229528E-16	3.144429E-18
3.037559E+03	1.238669E-16	3.165784E-18
3.047485E+03	1.247697E-16	3.186813E-18
3.057412E+03	1.256947E-16	3.208371E-18
3.067339E+03	1.266281E-16	3.230102E-18
3.077265E+03	1.275739E-16	3.252109E-18
3.087192E+03	1.285275E-16	3.274276E-18
3.097118E+03	1.294849E-16	3.296496E-18
3.107045E+03	1.304421E-16	3.318671E-18
3.116972E+03	1.313868E-16	3.340490E-18
3.126898E+03	1.323332E-16	3.362307E-18
3.136825E+03	1.332693E-16	3.383823E-18
3.146752E+03	1.341924E-16	3.404966E-18
3.156678E+03	1.351083E-16	3.425886E-18
3.166605E+03	1.360059E-16	3.446301E-18
3.176532E+03	1.368914E-16	3.466372E-18
3.186458E+03	1.377628E-16	3.486043E-18
3.196385E+03	1.386180E-16	3.505265E-18
3.206312E+03	1.394467E-16	3.523779E-18
3.216238E+03	1.402641E-16	3.541968E-18
3.226165E+03	1.410685E-16	3.559792E-18
3.236092E+03	1.418502E-16	3.577003E-18
3.246018E+03	1.426160E-16	3.593777E-18
3.255945E+03	1.433565E-16	3.609876E-18
3.265872E+03	1.440868E-16	3.625684E-18
3.275798E+03	1.447977E-16	3.640967E-18
3.285725E+03	1.454962E-16	3.655904E-18
3.295652E+03	1.461732E-16	3.670265E-18
3.305578E+03	1.468438E-16	3.684431E-18
3.315505E+03	1.474990E-16	3.698176E-18
3.325432E+03	1.481379E-16	3.711480E-18
3.335358E+03	1.487753E-16	3.724712E-18
3.345285E+03	1.494023E-16	3.737652E-18
3.355212E+03	1.500182E-16	3.750278E-18
3.365138E+03	1.506371E-16	3.762950E-18
3.375065E+03	1.512505E-16	3.775450E-18
3.384992E+03	1.518573E-16	3.787754E-18
3.394918E+03	1.524789E-16	3.800393E-18
3.404845E+03	1.530991E-16	3.812964E-18
3.414772E+03	1.537314E-16	3.825803E-18
3.424698E+03	1.543670E-16	3.838691E-18
3.434625E+03	1.550263E-16	3.852132E-18
3.444552E+03	1.557002E-16	3.865902E-18
3.454478E+03	1.564011E-16	3.880306E-18
3.464405E+03	1.571200E-16	3.895122E-18
3.474332E+03	1.578758E-16	3.910811E-18
3.484258E+03	1.586591E-16	3.927144E-18
3.494185E+03	1.594812E-16	3.944396E-18
3.504112E+03	1.603395E-16	3.962499E-18
3.514038E+03	1.612378E-16	3.981548E-18
3.523965E+03	1.621669E-16	4.001314E-18
3.533892E+03	1.631308E-16	4.021889E-18
3.543818E+03	1.641203E-16	4.043050E-18
3.553745E+03	1.651270E-16	4.064584E-18
3.563672E+03	1.661548E-16	4.086587E-18
3.573598E+03	1.671892E-16	4.108703E-18
3.583525E+03	1.682286E-16	4.130889E-18
3.593452E+03	1.692652E-16	4.152959E-18
3.603378E+03	1.702978E-16	4.174877E-18
3.613305E+03	1.713192E-16	4.196471E-18
3.623232E+03	1.723284E-16	4.217716E-18
3.633158E+03	1.733133E-16	4.238316E-18
3.643085E+03	1.742845E-16	4.258533E-18
3.653012E+03	1.752249E-16	4.277948E-18
3.662938E+03	1.761398E-16	4.296694E-18
3.672865E+03	1.770184E-16	4.314510E-18
3.682792E+03	1.778663E-16	4.331533E-18
3.692718E+03	1.786785E-16	4.347643E-18
3.702645E+03	1.794453E-16	4.362608E-18
3.712572E+03	1.801777E-16	4.376697E-18
3.722498E+03	1.808714E-16	4.389807E-18
3.732425E+03	1.815174E-16	4.401725E-18
3.742352E+03	1.821172E-16	4.412487E-18
3.752278E+03	1.826769E-16	4.422244E-18
3.762205E+03	1.831884E-16	4.430804E-18
3.772131E+03	1.836579E-16	4.438322E-18
3.782058E+03	1.840780E-16	4.444618E-18
3.791985E+03	1.844552E-16	4.449852E-18
3.801911E+03	1.847867E-16	4.453963E-18
3.811838E+03	1.850704E-16	4.456901E-18
3.821765E+03	1.853084E-16	4.458720E-18
3.831691E+03	1.855031E-16	4.459481E-18
3.841618E+03	1.856567E-16	4.459239E-18
3.851545E+03	1.857633E-16	4.457857E-18
3.861471E+03	1.858297E-16	4.455499E-18
3.871398E+03	1.858544E-16	4.452132E-18
3.881325E+03	1.858399E-16	4.447821E-18
3.891251E+03	1.857891E-16	4.442635E-18
3.901178E+03	1.856969E-16	4.436457E-18
3.911105E+03	1.855700E-16	4.429450E-18
3.921031E+03	1.854076E-16	4.421596E-18
3.930958E+03	1.852090E-16	4.412879E-18
3.940885E+03	1.849843E-16	4.403545E-18
3.950811E+03	1.847257E-16	4.393410E-18
3.960738E+03	1.844363E-16	4.382549E-18
3.970665E+03	1.841226E-16	4.371119E-18
3.980591E+03	1.837841E-16	4.359113E-18
3.990518E+03	1.834174E-16	4.346446E-18
4.000445E+03	1.830321E-16	4.333353E-18
4.010371E+03	1.826280E-16	4.319828E-18
4.020298E+03	1.822020E-16	4.305798E-18
4.030225E+03	1.817637E-16	4.291495E-18
4.040151E+03	1.813103E-16	4.276851E-18
4.050078E+03	1.808454E-16	4.261952E-18
4.060005E+03	1.803696E-16	4.246816E-18
4.069931E+03	1.798899E-16	4.231605E-18
4.079858E+03	1.794070E-16	4.216341E-18
4.089785E+03	1.789221E-16	4.201047E-18
4.099711E+03	1.784421E-16	4.185889E-18
4.109638E+03	1.779653E-16	4.170824E-18
4.119565E+03	1.775012E-16	4.156079E-18
4.129491E+03	1.770454E-16	4.141547E-18
4.139418E+03	1.766073E-16	4.127447E-18
4.149345E+03	1.761849E-16	4.113733E-18
4.159271E+03	1.757870E-16	4.100611E-18
4.169198E+03	1.754088E-16	4.087966E-18
4.179125E+03	1.750587E-16	4.075992E-18
4.189051E+03	1.747393E-16	4.064748E-18
4.198978E+03	1.744505E-16	4.054230E-18
4.208905E+03	1.741945E-16	4.044489E-18
4.218831E+03	1.739733E-16	4.035569E-18
4.228758E+03	1.737938E-16	4.027625E-18
4.238685E+03	1.736522E-16	4.020572E-18
4.248611E+03	1.735525E-16	4.014494E-18
4.258538E+03	1.734980E-16	4.009471E-18
4.268465E+03	1.734920E-16	4.005571E-18
4.278391E+03	1.735324E-16	4.002747E-18
4.288318E+03	1.736244E-16	4.001115E-18
4.298245E+03	1.737704E-16	4.000726E-18
4.308171E+03	1.739725E-16	4.001627E-18
4.318098E+03	1.742304E-16	4.003805E-18
4.328025E+03	1.745505E-16	4.007407E-18
4.337951E+03	1.749344E-16	4.012465E-18
4.347878E+03	1.753838E-16	4.019012E-18
4.357805E+03	1.759023E-16	4.027130E-18
4.367731E+03	1.764915E-16	4.036850E-18
4.377658E+03	1.771553E-16	4.048255E-18
4.387585E+03	1.778954E-16	4.061383E-18
4.397511E+03	1.787142E-16	4.076282E-18
4.407438E+03	1.796100E-16	4.092911E-18
4.417365E+03	1.805889E-16	4.111402E-18
4.427291E+03	1.816451E-16	4.131620E-18
4.437218E+03	1.827850E-16	4.153705E-18
4.447144E+03	1.840030E-16	4.177527E-18
4.457071E+03	1.852985E-16	4.203065E-18
4.466998E+03	1.866751E-16	4.230398E-18
4.476924E+03	1.881268E-16	4.259385E-18
4.486851E+03	1.896545E-16	4.290043E-18
4.496778E+03	1.912562E-16	4.322322E-18
4.506704E+03	1.929274E-16	4.356117E-18
4.516631E+03	1.946680E-16	4.391423E-18
4.526558E+03	1.964732E-16	4.428127E-18
4.536484E+03	1.983428E-16	4.466223E-18
4.546411E+03	2.002721E-16	4.505598E-18
4.556338E+03	2.022612E-16	4.546256E-18
4.566264E+03	2.043081E-16	4.588147E-18
4.576191E+03	2.064112E-16	4.631232E-18
4.586118E+03	2.085714E-16	4.675531E-18
4.596044E+03	2.107854E-16	4.720965E-18
4.605971E+03	2.130548E-16	4.767569E-18
4.615898E+03	2.153790E-16	4.815329E-18
4.625824E+03	2.177601E-16	4.864286E-18
4.635751E+03	2.201998E-16	4.914479E-18
4.645678E+03	2.226969E-16	4.965879E-18
4.655604E+03	2.252549E-16	5.018559E-18
4.665531E+03	2.278738E-16	5.072518E-18
4.675458E+03	2.305529E-16	5.127738E-18
4.685384E+03	2.332930E-16	5.184236E-18
4.695311E+03	2.360916E-16	5.241954E-18
4.705238E+03	2.389533E-16	5.300992E-18
4.715164E+03	2.418738E-16	5.361250E-18
4.725091E+03	2.448559E-16	5.422792E-18
4.735018E+03	2.478936E-16	5.485483E-18
4.744944E+03	2.509885E-16	5.549356E-18
4.754871E+03	2.541337E-16	5.614258E-18
4.764798E+03	2.573164E-16	5.679902E-18
4.774724E+03	2.605294E-16	5.746133E-18
4.784651E+03	2.637691E-16	5.812872E-18
4.794578E+03	2.670269E-16	5.879928E-18
4.804504E+03	2.702922E-16	5.947068E-18
4.814431E+03	2.735638E-16	6.014270E-18
4.824358E+03	2.768360E-16	6.081411E-18
4.834284E+03	2.801080E-16	6.148472E-18
4.844211E+03	2.833833E-16	6.215533E-18
4.854138E+03	2.866567E-16	6.282485E-18
4.864064E+03	2.899323E-16	6.349417E-18
4.873991E+03	2.932075E-16	6.416276E-18
4.883918E+03	2.964882E-16	6.483193E-18
4.893844E+03	2.997670E-16	6.550006E-18
4.903771E+03	3.030412E-16	6.616662E-18
4.913698E+03	3.063128E-16	6.683208E-18
4.923624E+03	3.095722E-16	6.749433E-18
4.933551E+03	3.128099E-16	6.815134E-18
4.943478E+03	3.160136E-16	6.880049E-18
4.953404E+03	3.191718E-16	6.943928E-18
4.963331E+03	3.222642E-16	7.006337E-18
4.973258E+03	3.252729E-16	7.066890E-18
4.983184E+03	3.281843E-16	7.125296E-18
4.993111E+03	3.309865E-16	7.181307E-18
5.003038E+03	3.336606E-16	7.234518E-18
5.012964E+03	3.362019E-16	7.284834E-18
5.022891E+03	3.386070E-16	7.332189E-18
5.032818E+03	3.408778E-16	7.376634E-18
5.042744E+03	3.430264E-16	7.418435E-18
5.052671E+03	3.450671E-16	7.457908E-18
5.062598E+03	3.470154E-16	7.495396E-18
5.072524E+03	3.488935E-16	7.531382E-18
5.082451E+03	3.507277E-16	7.566441E-18
5.092378E+03	3.525401E-16	7.601047E-18
5.102304E+03	3.543502E-16	7.635626E-18
5.112231E+03	3.561705E-16	7.670451E-18
5.122158E+03	3.580220E-16	7.705971E-18
5.132084E+03	3.599084E-16	7.742268E-18
5.142011E+03	3.618431E-16	7.779631E-18
5.151937E+03	3.638352E-16	7.818256E-18
5.161864E+03	3.658978E-16	7.858421E-18
5.171791E+03	3.680333E-16	7.900182E-18
5.181717E+03	3.702561E-16	7.943847E-18
5.191644E+03	3.725779E-16	7.989660E-18
5.201571E+03	3.750140E-16	8.037956E-18
5.211497E+03	3.775691E-16	8.088828E-18
5.221424E+03	3.802583E-16	8.142603E-18
5.231351E+03	3.830927E-16	8.199512E-18
5.241277E+03	3.860818E-16	8.259759E-18
5.251204E+03	3.892299E-16	8.323437E-18
5.261131E+03	3.925515E-16	8.390849E-18
5.271057E+03	3.960427E-16	8.461913E-18
5.280984E+03	3.997048E-16	8.536656E-18
5.290911E+03	4.035399E-16	8.615120E-18
5.300837E+03	4.075420E-16	8.697175E-18
5.310764E+03	4.116964E-16	8.782509E-18
5.320691E+03	4.159870E-16	8.870778E-18
5.330617E+03	4.203923E-16	8.961525E-18
5.340544E+03	4.248897E-16	9.054270E-18
5.350471E+03	4.294375E-16	9.148125E-18
5.360397E+03	4.339988E-16	9.242309E-18
5.370324E+03	4.385229E-16	9.335745E-18
5.380251E+03	4.429489E-16	9.427143E-18
5.390177E+03	4.472050E-16	9.514980E-18
5.400104E+03	4.512252E-16	9.597857E-18
5.410031E+03	4.549341E-16	9.674177E-18
5.419957E+03	4.582612E-16	9.742448E-18
5.429884E+03	4.611375E-16	9.801211E-18
5.439811E+03	4.635004E-16	9.849142E-18
5.449737E+03	4.652832E-16	9.884836E-18
5.459664E+03	4.664270E-16	9.907048E-18
5.469591E+03	4.668881E-16	9.914859E-18
5.479517E+03	4.666179E-16	9.907243E-18
5.489444E+03	4.656023E-16	9.883911E-18
5.499371E+03	4.638341E-16	9.844716E-18
5.509297E+03	4.613201E-16	9.789810E-18
5.519224E+03	4.580889E-16	9.719802E-18
5.529151E+03	4.541963E-16	9.635878E-18
5.539077E+03	4.496937E-16	9.539136E-18
5.549004E+03	4.446658E-16	9.431372E-18
5.558931E+03	4.391944E-16	9.314317E-18
5.568857E+03	4.333766E-16	9.190033E-18
5.578784E+03	4.273212E-16	9.060823E-18
5.588711E+03	4.211399E-16	8.929051E-18
5.598637E+03	4.149467E-16	8.797132E-18
5.608564E+03	4.088561E-16	8.667487E-18
5.618491E+03	4.029799E-16	8.542484E-18
5.628417E+03	3.974257E-16	8.424394E-18
5.638344E+03	3.922947E-16	8.315362E-18
5.648271E+03	3.876855E-16	8.217473E-18
5.658197E+03	3.836856E-16	8.132574E-18
5.668124E+03	3.803710E-16	8.062276E-18
5.678051E+03	3.778184E-16	8.008202E-18
5.687977E+03	3.760932E-16	7.971732E-18
5.697904E+03	3.752526E-16	7.954083E-18
5.707831E+03	3.753452E-16	7.956281E-18
5.717757E+03	3.764045E-16	7.979038E-18
5.727684E+03	3.784618E-16	8.023023E-18
5.737611E+03	3.815216E-16	8.088333E-18
5.747537E+03	3.855763E-16	8.174811E-18
5.757464E+03	3.906016E-16	8.281948E-18
5.767391E+03	3.965614E-16	8.408983E-18
5.777317E+03	4.033906E-16	8.554545E-18
5.787244E+03	4.110233E-16	8.717243E-18
5.797171E+03	4.193598E-16	8.894973E-18
5.807097E+03	4.283002E-16	9.085621E-18
5.817024E+03	4.377157E-16	9.286462E-18
5.826950E+03	4.474619E-16	9.494444E-18
5.836877E+03	4.573953E-16	9.706524E-18
5.846804E+03	4.673423E-16	9.919027E-18
5.856730E+03	4.771363E-16	1.012842E-17
5.866657E+03	4.866002E-16	1.033094E-17
5.876584E+03	4.955541E-16	1.052278E-17
5.886510E+03	5.038348E-16	1.070046E-17
5.896437E+03	5.112797E-16	1.086053E-17
5.906364E+03	5.177455E-16	1.099994E-17
5.916290E+03	5.231272E-16	1.111644E-17
5.926217E+03	5.273290E-16	1.120799E-17
5.936144E+03	5.302753E-16	1.127296E-17
5.946070E+03	5.319440E-16	1.131088E-17
5.955997E+03	5.323047E-16	1.132108E-17
5.965924E+03	5.313764E-16	1.130394E-17
5.975850E+03	5.291764E-16	1.125981E-17
5.985777E+03	5.257550E-16	1.118974E-17
5.995704E+03	5.211654E-16	1.109484E-17
6.005630E+03	5.154850E-16	1.097675E-17
6.015557E+03	5.087881E-16	1.083701E-17
6.025484E+03	5.011666E-16	1.067757E-17
6.035410E+03	4.927032E-16	1.050018E-17
6.045337E+03	4.835085E-16	1.030717E-17
6.055264E+03	4.736709E-16	1.010040E-17
6.065190E+03	4.632875E-16	9.881936E-18
6.075117E+03	4.524707E-16	9.654158E-18
6.085044E+03	4.413058E-16	9.418872E-18
6.094970E+03	4.298949E-16	9.178248E-18
6.104897E+03	4.183276E-16	8.934186E-18
6.114824E+03	4.066943E-16	8.688614E-18
6.124750E+03	3.950823E-16	8.443385E-18
6.134677E+03	3.835748E-16	8.200275E-18
6.144604E+03	3.722438E-16	7.960821E-18
6.154530E+03	3.611716E-16	7.726780E-18
6.164457E+03	3.504229E-16	7.499540E-18
6.174384E+03	3.400662E-16	7.280567E-18
6.184310E+03	3.301744E-16	7.071430E-18
6.194237E+03	3.208082E-16	6.873436E-18
6.204164E+03	3.120230E-16	6.687778E-18
6.214090E+03	3.038680E-16	6.515525E-18
6.224017E+03	2.963960E-16	6.357819E-18
6.233944E+03	2.896356E-16	6.215289E-18
6.243870E+03	2.836240E-16	6.088750E-18
6.253797E+03	2.783806E-16	5.978634E-18
6.263724E+03	2.739193E-16	5.885260E-18
6.273650E+03	2.702457E-16	5.808765E-18
6.283577E+03	2.673554E-16	5.749074E-18
6.293504E+03	2.652442E-16	5.706118E-18
6.303430E+03	2.638977E-16	5.679606E-18
6.313357E+03	2.633040E-16	5.669303E-18
6.323284E+03	2.634394E-16	5.674719E-18
6.333210E+03	2.642862E-16	5.695494E-18
6.343137E+03	2.658144E-16	5.731000E-18
6.353064E+03	2.679995E-16	5.780728E-18
6.362990E+03	2.708064E-16	5.843941E-18
6.372917E+03	2.741956E-16	5.919802E-18
6.382844E+03	2.781229E-16	6.007379E-18
6.392770E+03	2.825402E-16	6.105645E-18
6.402697E+03	2.873952E-16	6.213487E-18
6.412624E+03	2.926363E-16	6.329802E-18
6.422550E+03	2.982027E-16	6.453285E-18
6.432477E+03	3.040534E-16	6.583063E-18
6.442404E+03	3.101339E-16	6.717965E-18
6.452330E+03	3.163942E-16	6.856911E-18
6.462257E+03	3.227974E-16	6.999113E-18
6.472184E+03	3.292861E-16	7.143328E-18
6.482110E+03	3.358241E-16	7.288774E-18
6.492037E+03	3.423693E-16	7.434542E-18
6.501963E+03	3.488772E-16	7.579662E-18
6.511890E+03	3.553033E-16	7.723169E-18
6.521817E+03	3.616075E-16	7.864190E-18
6.531743E+03	3.677495E-16	8.001842E-18
6.541670E+03	3.736789E-16	8.135025E-18
6.551597E+03	3.793579E-16	8.262908E-18
6.561523E+03	3.847337E-16	8.384334E-18
6.571450E+03	3.897577E-16	8.498232E-18
6.581377E+03	3.943913E-16	8.603750E-18
6.591303E+03	3.985782E-16	8.699646E-18
6.601230E+03	4.022852E-16	8.785180E-18
6.611157E+03	4.054687E-16	8.859381E-18
6.621083E+03	4.081014E-16	8.921638E-18
6.631010E+03	4.101585E-16	8.971385E-18
6.640937E+03	4.116181E-16	9.008127E-18
6.650863E+03	4.124834E-16	9.031907E-18
6.660790E+03	4.127453E-16	9.042513E-18
6.670717E+03	4.124260E-16	9.040403E-18
6.680643E+03	4.115406E-16	9.025891E-18
6.690570E+03	4.101237E-16	8.999712E-18
6.700497E+03	4.082014E-16	8.962424E-18
6.710423E+03	4.058339E-16	8.915328E-18
6.720350E+03	4.030599E-16	8.859258E-18
6.730277E+03	3.999333E-16	8.795387E-18
6.740203E+03	3.965222E-16	8.725197E-18
6.750130E+03	3.928698E-16	8.649627E-18
6.760057E+03	3.890523E-16	8.570348E-18
6.769983E+03	3.851190E-16	8.488443E-18
6.779910E+03	3.811399E-16	8.405446E-18
6.789837E+03	3.771567E-16	8.322276E-18
6.799763E+03	3.732400E-16	8.240492E-18
6.809690E+03	3.694368E-16	8.161133E-18
6.819617E+03	3.657903E-16	8.085158E-18
6.829543E+03	3.623500E-16	8.013668E-18
6.839470E+03	3.591557E-16	7.947550E-18
6.849397E+03	3.562372E-16	7.887475E-18
6.859323E+03	3.536339E-16	7.834322E-18
6.869250E+03	3.513594E-16	7.788406E-18
6.879177E+03	3.494361E-16	7.750237E-18
6.889103E+03	3.478702E-16	7.719964E-18
6.899030E+03	3.466713E-16	7.697814E-18
6.908957E+03	3.458374E-16	7.683758E-18
6.918883E+03	3.453602E-16	7.677624E-18
6.928810E+03	3.452200E-16	7.678990E-18
6.938737E+03	3.453964E-16	7.687413E-18
6.948663E+03	3.458690E-16	7.702450E-18
6.958590E+03	3.466078E-16	7.723448E-18
6.968517E+03	3.475747E-16	7.749566E-18
6.978443E+03	3.487345E-16	7.780028E-18
6.988370E+03	3.500562E-16	7.814149E-18
6.998297E+03	3.514986E-16	7.851017E-18
7.008223E+03	3.530269E-16	7.889859E-18
7.018150E+03	3.546084E-16	7.929947E-18
7.028077E+03	3.562130E-16	7.970612E-18
7.038003E+03	3.578198E-16	8.011384E-18
7.047930E+03	3.593956E-16	8.051521E-18
7.057857E+03	3.609271E-16	8.090725E-18
7.067783E+03	3.624003E-16	8.128679E-18
7.077710E+03	3.638049E-16	8.165152E-18
7.087637E+03	3.651345E-16	8.199997E-18
7.097563E+03	3.663802E-16	8.233013E-18
7.107490E+03	3.675469E-16	8.264301E-18
7.117417E+03	3.686296E-16	8.293753E-18
7.127343E+03	3.696356E-16	8.321524E-18
7.137270E+03	3.705603E-16	8.347513E-18
7.147197E+03	3.714036E-16	8.371712E-18
7.157123E+03	3.721635E-16	8.394074E-18
7.167050E+03	3.728412E-16	8.414621E-18
7.176976E+03	3.734178E-16	8.432927E-18
7.186903E+03	3.738955E-16	8.449033E-18
7.196830E+03	3.742511E-16	8.462412E-18
7.206756E+03	3.744773E-16	8.472896E-18
7.216683E+03	3.745548E-16	8.480042E-18
7.226610E+03	3.744763E-16	8.483676E-18
7.236536E+03	3.742294E-16	8.483516E-18
7.246463E+03	3.737917E-16	8.479041E-18
7.256390E+03	3.731665E-16	8.470320E-18
7.266316E+03	3.723479E-16	8.457214E-18
7.276243E+03	3.713212E-16	8.439375E-18
7.286170E+03	3.700922E-16	8.416929E-18
7.296096E+03	3.686639E-16	8.389936E-18
7.306023E+03	3.670421E-16	8.358520E-18
7.315950E+03	3.652297E-16	8.322735E-18
7.325876E+03	3.632435E-16	8.282957E-18
7.335803E+03	3.610965E-16	8.239477E-18
7.345730E+03	3.587976E-16	8.192489E-18
7.355656E+03	3.563631E-16	8.142357E-18
7.365583E+03	3.538097E-16	8.089459E-18
7.375510E+03	3.511494E-16	8.034063E-18
7.385436E+03	3.484054E-16	7.976692E-18
7.395363E+03	3.455888E-16	7.917601E-18
7.405290E+03	3.427268E-16	7.857408E-18
7.415216E+03	3.398224E-16	7.796181E-18
7.425143E+03	3.368993E-16	7.734458E-18
7.435070E+03	3.339567E-16	7.672221E-18
7.444996E+03	3.310138E-16	7.609912E-18
7.454923E+03	3.280768E-16	7.547672E-18
7.464850E+03	3.251446E-16	7.485476E-18
7.474776E+03	3.222203E-16	7.423393E-18
7.484703E+03	3.193108E-16	7.361583E-18
7.494630E+03	3.164116E-16	7.299939E-18
7.504556E+03	3.135280E-16	7.238585E-18
7.514483E+03	3.106541E-16	7.177385E-18
7.524410E+03	3.077942E-16	7.116435E-18
7.534336E+03	3.049419E-16	7.055588E-18
7.544263E+03	3.021059E-16	6.995044E-18
7.554190E+03	2.992745E-16	6.934533E-18
7.564116E+03	2.964515E-16	6.874139E-18
7.574043E+03	2.936306E-16	6.813718E-18
7.583970E+03	2.908214E-16	6.753491E-18
7.593896E+03	2.880148E-16	6.693248E-18
7.603823E+03	2.852233E-16	6.633276E-18
7.613750E+03	2.824400E-16	6.573415E-18
7.623676E+03	2.796730E-16	6.513855E-18
7.633603E+03	2.769257E-16	6.454673E-18
7.643530E+03	2.742058E-16	6.396048E-18
7.653456E+03	2.715068E-16	6.337832E-18
7.663383E+03	2.688362E-16	6.280196E-18
7.673310E+03	2.661963E-16	6.223200E-18
7.683236E+03	2.635892E-16	6.166889E-18
7.693163E+03	2.610207E-16	6.111403E-18
7.703090E+03	2.584828E-16	6.056554E-18
