#wls	flux	fluxerr
1.588266E+03	2.750407E-17	1.180896E-18
1.627973E+03	2.877518E-17	1.231563E-18
1.667679E+03	2.989729E-17	1.275425E-18
1.707386E+03	3.085284E-17	1.311784E-18
1.747092E+03	3.160454E-17	1.339119E-18
1.786799E+03	3.210560E-17	1.355533E-18
1.826506E+03	3.227081E-17	1.357547E-18
1.866212E+03	3.202097E-17	1.341993E-18
1.905919E+03	3.127841E-17	1.305824E-18
1.945626E+03	3.000303E-17	1.247618E-18
1.985332E+03	2.824404E-17	1.169690E-18
2.025039E+03	2.620339E-17	1.080634E-18
2.064746E+03	2.425587E-17	9.960085E-19
2.104452E+03	2.288418E-17	9.355211E-19
2.144159E+03	2.254291E-17	9.173722E-19
2.183866E+03	2.352162E-17	9.527165E-19
2.223572E+03	2.589314E-17	1.043721E-18
2.263279E+03	2.954131E-17	1.184877E-18
2.302986E+03	3.422590E-17	1.365780E-18
2.342692E+03	3.966419E-17	1.574505E-18
2.382399E+03	4.560028E-17	1.800397E-18
2.422105E+03	5.184073E-17	2.035451E-18
2.461812E+03	5.824655E-17	2.273946E-18
2.501519E+03	6.474144E-17	2.512712E-18
2.541225E+03	7.128559E-17	2.750047E-18
2.580932E+03	7.786056E-17	2.985108E-18
2.620639E+03	8.444373E-17	3.216901E-18
2.660345E+03	9.103696E-17	3.445383E-18
2.700052E+03	9.762678E-17	3.669929E-18
2.739759E+03	1.042120E-16	3.890385E-18
2.779465E+03	1.107629E-16	4.105537E-18
2.819172E+03	1.172686E-16	4.314903E-18
2.858879E+03	1.236798E-16	4.516600E-18
2.898585E+03	1.299583E-16	4.709210E-18
2.938292E+03	1.360957E-16	4.892432E-18
2.977999E+03	1.420542E-16	5.064926E-18
2.987925E+03	1.435224E-16	5.106609E-18
2.997852E+03	1.449744E-16	5.147447E-18
3.007779E+03	1.464178E-16	5.187714E-18
3.017705E+03	1.478518E-16	5.227378E-18
3.027632E+03	1.492757E-16	5.266411E-18
3.037559E+03	1.506850E-16	5.304663E-18
3.047485E+03	1.521021E-16	5.342919E-18
3.057412E+03	1.535570E-16	5.382227E-18
3.067339E+03	1.550264E-16	5.421763E-18
3.077265E+03	1.565213E-16	5.461905E-18
3.087192E+03	1.580362E-16	5.502449E-18
3.097118E+03	1.595655E-16	5.543205E-18
3.107045E+03	1.611044E-16	5.583994E-18
3.116972E+03	1.626482E-16	5.624648E-18
3.126898E+03	1.641924E-16	5.665014E-18
3.136825E+03	1.657412E-16	5.705228E-18
3.146752E+03	1.672904E-16	5.745152E-18
3.156678E+03	1.688281E-16	5.784371E-18
3.166605E+03	1.703673E-16	5.823328E-18
3.176532E+03	1.718962E-16	5.861625E-18
3.186458E+03	1.734117E-16	5.899152E-18
3.196385E+03	1.749189E-16	5.936087E-18
3.206312E+03	1.764230E-16	5.972604E-18
3.216238E+03	1.779050E-16	6.008061E-18
3.226165E+03	1.793784E-16	6.042918E-18
3.236092E+03	1.808327E-16	6.076820E-18
3.246018E+03	1.822813E-16	6.110224E-18
3.255945E+03	1.837140E-16	6.142784E-18
3.265872E+03	1.851285E-16	6.174427E-18
3.275798E+03	1.865304E-16	6.205346E-18
3.285725E+03	1.879178E-16	6.235472E-18
3.295652E+03	1.892961E-16	6.264993E-18
3.305578E+03	1.906556E-16	6.293588E-18
3.315505E+03	1.920096E-16	6.321699E-18
3.325432E+03	1.933485E-16	6.349008E-18
3.335358E+03	1.946779E-16	6.375700E-18
3.345285E+03	1.959883E-16	6.401469E-18
3.355212E+03	1.973001E-16	6.426982E-18
3.365138E+03	1.985964E-16	6.451689E-18
3.375065E+03	1.998826E-16	6.475769E-18
3.384992E+03	2.011641E-16	6.499393E-18
3.394918E+03	2.024386E-16	6.522494E-18
3.404845E+03	2.037043E-16	6.545006E-18
3.414772E+03	2.049660E-16	6.567093E-18
3.424698E+03	2.062217E-16	6.588684E-18
3.434625E+03	2.074761E-16	6.609932E-18
3.444552E+03	2.087134E-16	6.630336E-18
3.454478E+03	2.099520E-16	6.650478E-18
3.464405E+03	2.111829E-16	6.670077E-18
3.474332E+03	2.124041E-16	6.689066E-18
3.484258E+03	2.136200E-16	6.707587E-18
3.494185E+03	2.148220E-16	6.725374E-18
3.504112E+03	2.160146E-16	6.742569E-18
3.514038E+03	2.171896E-16	6.758915E-18
3.523965E+03	2.183452E-16	6.774363E-18
3.533892E+03	2.194676E-16	6.788493E-18
3.543818E+03	2.205618E-16	6.801462E-18
3.553745E+03	2.216206E-16	6.813059E-18
3.563672E+03	2.226314E-16	6.822906E-18
3.573598E+03	2.235938E-16	6.831007E-18
3.583525E+03	2.245018E-16	6.837191E-18
3.593452E+03	2.253556E-16	6.841478E-18
3.603378E+03	2.261443E-16	6.843551E-18
3.613305E+03	2.268684E-16	6.843448E-18
3.623232E+03	2.275234E-16	6.841054E-18
3.633158E+03	2.281105E-16	6.836418E-18
3.643085E+03	2.286204E-16	6.829285E-18
3.653012E+03	2.290650E-16	6.820036E-18
3.662938E+03	2.294306E-16	6.808279E-18
3.672865E+03	2.297192E-16	6.794098E-18
3.682792E+03	2.299379E-16	6.777726E-18
3.692718E+03	2.300791E-16	6.758959E-18
3.702645E+03	2.301451E-16	6.737893E-18
3.712572E+03	2.301434E-16	6.714763E-18
3.722498E+03	2.300670E-16	6.689391E-18
3.732425E+03	2.299188E-16	6.661882E-18
3.742352E+03	2.297016E-16	6.632345E-18
3.752278E+03	2.294186E-16	6.600884E-18
3.762205E+03	2.290682E-16	6.567483E-18
3.772131E+03	2.286537E-16	6.532253E-18
3.782058E+03	2.281741E-16	6.495189E-18
3.791985E+03	2.276369E-16	6.456525E-18
3.801911E+03	2.270414E-16	6.416257E-18
3.811838E+03	2.263910E-16	6.374502E-18
3.821765E+03	2.256812E-16	6.331154E-18
3.831691E+03	2.249237E-16	6.286556E-18
3.841618E+03	2.241180E-16	6.240714E-18
3.851545E+03	2.232678E-16	6.193744E-18
3.861471E+03	2.223691E-16	6.145556E-18
3.871398E+03	2.214333E-16	6.096474E-18
3.881325E+03	2.204566E-16	6.046413E-18
3.891251E+03	2.194464E-16	5.995587E-18
3.901178E+03	2.184029E-16	5.944014E-18
3.911105E+03	2.173263E-16	5.891712E-18
3.921031E+03	2.162272E-16	5.838981E-18
3.930958E+03	2.150991E-16	5.785655E-18
3.940885E+03	2.139525E-16	5.732023E-18
3.950811E+03	2.127876E-16	5.678103E-18
3.960738E+03	2.116050E-16	5.623913E-18
3.970665E+03	2.104113E-16	5.569640E-18
3.980591E+03	2.092040E-16	5.515223E-18
3.990518E+03	2.079928E-16	5.460922E-18
4.000445E+03	2.067753E-16	5.406678E-18
4.010371E+03	2.055552E-16	5.352591E-18
4.020298E+03	2.043391E-16	5.298834E-18
4.030225E+03	2.031250E-16	5.245357E-18
4.040151E+03	2.019196E-16	5.192335E-18
4.050078E+03	2.007241E-16	5.139796E-18
4.060005E+03	1.995426E-16	5.087845E-18
4.069931E+03	1.983793E-16	5.036582E-18
4.079858E+03	1.972383E-16	4.986111E-18
4.089785E+03	1.961186E-16	4.936401E-18
4.099711E+03	1.950298E-16	4.887687E-18
4.109638E+03	1.939709E-16	4.839936E-18
4.119565E+03	1.929488E-16	4.793309E-18
4.129491E+03	1.919625E-16	4.747774E-18
4.139418E+03	1.910186E-16	4.703483E-18
4.149345E+03	1.901208E-16	4.660516E-18
4.159271E+03	1.892705E-16	4.618891E-18
4.169198E+03	1.884687E-16	4.578620E-18
4.179125E+03	1.877234E-16	4.539883E-18
4.189051E+03	1.870307E-16	4.502567E-18
4.198978E+03	1.863979E-16	4.466835E-18
4.208905E+03	1.858230E-16	4.432620E-18
4.218831E+03	1.853107E-16	4.400015E-18
4.228758E+03	1.848607E-16	4.368999E-18
4.238685E+03	1.844774E-16	4.339650E-18
4.248611E+03	1.841600E-16	4.311935E-18
4.258538E+03	1.839081E-16	4.285820E-18
4.268465E+03	1.837293E-16	4.261467E-18
4.278391E+03	1.836185E-16	4.238732E-18
4.288318E+03	1.835808E-16	4.217716E-18
4.298245E+03	1.836172E-16	4.198417E-18
4.308171E+03	1.837306E-16	4.180881E-18
4.318098E+03	1.839238E-16	4.165146E-18
4.328025E+03	1.841952E-16	4.151154E-18
4.337951E+03	1.845517E-16	4.139036E-18
4.347878E+03	1.849937E-16	4.128775E-18
4.357805E+03	1.855257E-16	4.120450E-18
4.367731E+03	1.861503E-16	4.114086E-18
4.377658E+03	1.868717E-16	4.109754E-18
4.387585E+03	1.876902E-16	4.107427E-18
4.397511E+03	1.886119E-16	4.107214E-18
4.407438E+03	1.896348E-16	4.109038E-18
4.417365E+03	1.907627E-16	4.112955E-18
4.427291E+03	1.919932E-16	4.118881E-18
4.437218E+03	1.933279E-16	4.126821E-18
4.447144E+03	1.947662E-16	4.136731E-18
4.457071E+03	1.963094E-16	4.148611E-18
4.466998E+03	1.979525E-16	4.162323E-18
4.476924E+03	1.996985E-16	4.177906E-18
4.486851E+03	2.015442E-16	4.195262E-18
4.496778E+03	2.034859E-16	4.214290E-18
4.506704E+03	2.055245E-16	4.234980E-18
4.516631E+03	2.076561E-16	4.257230E-18
4.526558E+03	2.098771E-16	4.280942E-18
4.536484E+03	2.121886E-16	4.306114E-18
4.546411E+03	2.145826E-16	4.332565E-18
4.556338E+03	2.170628E-16	4.360351E-18
4.566264E+03	2.196221E-16	4.389308E-18
4.576191E+03	2.222604E-16	4.419417E-18
4.586118E+03	2.249757E-16	4.450625E-18
4.596044E+03	2.277690E-16	4.482933E-18
4.605971E+03	2.306343E-16	4.516210E-18
4.615898E+03	2.335731E-16	4.550472E-18
4.625824E+03	2.365844E-16	4.585687E-18
4.635751E+03	2.396648E-16	4.621777E-18
4.645678E+03	2.428129E-16	4.658706E-18
4.655604E+03	2.460266E-16	4.696424E-18
4.665531E+03	2.493032E-16	4.734871E-18
4.675458E+03	2.526388E-16	4.773970E-18
4.685384E+03	2.560286E-16	4.813621E-18
4.695311E+03	2.594689E-16	4.853756E-18
4.705238E+03	2.629549E-16	4.894282E-18
4.715164E+03	2.664858E-16	4.935187E-18
4.725091E+03	2.700569E-16	4.976385E-18
4.735018E+03	2.736623E-16	5.017773E-18
4.744944E+03	2.773008E-16	5.059336E-18
4.754871E+03	2.809651E-16	5.100943E-18
4.764798E+03	2.846498E-16	5.142512E-18
4.774724E+03	2.883440E-16	5.183855E-18
4.784651E+03	2.920424E-16	5.224895E-18
4.794578E+03	2.957373E-16	5.265511E-18
4.804504E+03	2.994188E-16	5.305547E-18
4.814431E+03	3.030807E-16	5.344917E-18
4.824358E+03	3.067167E-16	5.383534E-18
4.834284E+03	3.103313E-16	5.421503E-18
4.844211E+03	3.139290E-16	5.458930E-18
4.854138E+03	3.175254E-16	5.496108E-18
4.864064E+03	3.211261E-16	5.533157E-18
4.873991E+03	3.247383E-16	5.570222E-18
4.883918E+03	3.283708E-16	5.607470E-18
4.893844E+03	3.320192E-16	5.644850E-18
4.903771E+03	3.356928E-16	5.682537E-18
4.913698E+03	3.393771E-16	5.720305E-18
4.923624E+03	3.430740E-16	5.758209E-18
4.933551E+03	3.467609E-16	5.795889E-18
4.943478E+03	3.504291E-16	5.833219E-18
4.953404E+03	3.540600E-16	5.869913E-18
4.963331E+03	3.576296E-16	5.905601E-18
4.973258E+03	3.611164E-16	5.939962E-18
4.983184E+03	3.645000E-16	5.972694E-18
4.993111E+03	3.677655E-16	6.003594E-18
5.003038E+03	3.708946E-16	6.032401E-18
5.012964E+03	3.738767E-16	6.058989E-18
5.022891E+03	3.767110E-16	6.083383E-18
5.032818E+03	3.793947E-16	6.105587E-18
5.042744E+03	3.819351E-16	6.125756E-18
5.052671E+03	3.843454E-16	6.144139E-18
5.062598E+03	3.866431E-16	6.161053E-18
5.072524E+03	3.888493E-16	6.176866E-18
5.082451E+03	3.909905E-16	6.192026E-18
5.092378E+03	3.930816E-16	6.206795E-18
5.102304E+03	3.951484E-16	6.221596E-18
5.112231E+03	3.972141E-16	6.236816E-18
5.122158E+03	3.992890E-16	6.252631E-18
5.132084E+03	4.013925E-16	6.269356E-18
5.142011E+03	4.035338E-16	6.287151E-18
5.151937E+03	4.057300E-16	6.306289E-18
5.161864E+03	4.079934E-16	6.326974E-18
5.171791E+03	4.103313E-16	6.349328E-18
5.181717E+03	4.127611E-16	6.373630E-18
5.191644E+03	4.152904E-16	6.400004E-18
5.201571E+03	4.179363E-16	6.428727E-18
5.211497E+03	4.207034E-16	6.459877E-18
5.221424E+03	4.236084E-16	6.493720E-18
5.231351E+03	4.266682E-16	6.530525E-18
5.241277E+03	4.298854E-16	6.570346E-18
5.251204E+03	4.332751E-16	6.613423E-18
5.261131E+03	4.368433E-16	6.659864E-18
5.271057E+03	4.405987E-16	6.709815E-18
5.280984E+03	4.445536E-16	6.763481E-18
5.290911E+03	4.487100E-16	6.820913E-18
5.300837E+03	4.530743E-16	6.882225E-18
5.310764E+03	4.576476E-16	6.947461E-18
5.320691E+03	4.624399E-16	7.016797E-18
5.330617E+03	4.674525E-16	7.090281E-18
5.340544E+03	4.726976E-16	7.168127E-18
5.350471E+03	4.781734E-16	7.250343E-18
5.360397E+03	4.838837E-16	7.337021E-18
5.370324E+03	4.897850E-16	7.427541E-18
5.380251E+03	4.957688E-16	7.520295E-18
5.390177E+03	5.016978E-16	7.613231E-18
5.400104E+03	5.074370E-16	7.704315E-18
5.410031E+03	5.128587E-16	7.791616E-18
5.419957E+03	5.178274E-16	7.873076E-18
5.429884E+03	5.222300E-16	7.946967E-18
5.439811E+03	5.259581E-16	8.011620E-18
5.449737E+03	5.289080E-16	8.065425E-18
5.459664E+03	5.309955E-16	8.107051E-18
5.469591E+03	5.321572E-16	8.135474E-18
5.479517E+03	5.323364E-16	8.149756E-18
5.489444E+03	5.315146E-16	8.149530E-18
5.499371E+03	5.296722E-16	8.134404E-18
5.509297E+03	5.268305E-16	8.104601E-18
5.519224E+03	5.230274E-16	8.060593E-18
5.529151E+03	5.183239E-16	8.003211E-18
5.539077E+03	5.128012E-16	7.933592E-18
5.549004E+03	5.065643E-16	7.853247E-18
5.558931E+03	4.997229E-16	7.763770E-18
5.568857E+03	4.924058E-16	7.667064E-18
5.578784E+03	4.847609E-16	7.565341E-18
5.588711E+03	4.769223E-16	7.460618E-18
5.598637E+03	4.690470E-16	7.355295E-18
5.608564E+03	4.612732E-16	7.251495E-18
5.618491E+03	4.537534E-16	7.151592E-18
5.628417E+03	4.466258E-16	7.057761E-18
5.638344E+03	4.400159E-16	6.972004E-18
5.648271E+03	4.340494E-16	6.896347E-18
5.658197E+03	4.288329E-16	6.832544E-18
5.668124E+03	4.244759E-16	6.782416E-18
5.678051E+03	4.210600E-16	6.747361E-18
5.687977E+03	4.186729E-16	6.728901E-18
5.697904E+03	4.173824E-16	6.728254E-18
5.707831E+03	4.172354E-16	6.746322E-18
5.717757E+03	4.182827E-16	6.784088E-18
5.727684E+03	4.205518E-16	6.842167E-18
5.737611E+03	4.240544E-16	6.920930E-18
5.747537E+03	4.287849E-16	7.020473E-18
5.757464E+03	4.347152E-16	7.140527E-18
5.767391E+03	4.418119E-16	7.280733E-18
5.777317E+03	4.500037E-16	7.440103E-18
5.787244E+03	4.592172E-16	7.617606E-18
5.797171E+03	4.693443E-16	7.811616E-18
5.807097E+03	4.802656E-16	8.020302E-18
5.817024E+03	4.918318E-16	8.241301E-18
5.826950E+03	5.038837E-16	8.472061E-18
5.836877E+03	5.162354E-16	8.709539E-18
5.846804E+03	5.286970E-16	8.950580E-18
5.856730E+03	5.410621E-16	9.191707E-18
5.866657E+03	5.531140E-16	9.429220E-18
5.876584E+03	5.646452E-16	9.659519E-18
5.886510E+03	5.754553E-16	9.879080E-18
5.896437E+03	5.853386E-16	1.008423E-17
5.906364E+03	5.941236E-16	1.027185E-17
5.916290E+03	6.016645E-16	1.043920E-17
5.926217E+03	6.078226E-16	1.058364E-17
5.936144E+03	6.125159E-16	1.070348E-17
5.946070E+03	6.156656E-16	1.079707E-17
5.955997E+03	6.172506E-16	1.086373E-17
5.965924E+03	6.172569E-16	1.090293E-17
5.975850E+03	6.156976E-16	1.091458E-17
5.985777E+03	6.126199E-16	1.089922E-17
5.995704E+03	6.080919E-16	1.085776E-17
6.005630E+03	6.021690E-16	1.079090E-17
6.015557E+03	5.949532E-16	1.070021E-17
6.025484E+03	5.865346E-16	1.058704E-17
6.035410E+03	5.770184E-16	1.045305E-17
6.045337E+03	5.665059E-16	1.029985E-17
6.055264E+03	5.551144E-16	1.012938E-17
6.065190E+03	5.429441E-16	9.943287E-18
6.075117E+03	5.301075E-16	9.743465E-18
6.085044E+03	5.167223E-16	9.531943E-18
6.094970E+03	5.028824E-16	9.310337E-18
6.104897E+03	4.887150E-16	9.080907E-18
6.114824E+03	4.743174E-16	8.845384E-18
6.124750E+03	4.597978E-16	8.605735E-18
6.134677E+03	4.452738E-16	8.364123E-18
6.144604E+03	4.308509E-16	8.122525E-18
6.154530E+03	4.166350E-16	7.882946E-18
6.164457E+03	4.027344E-16	7.647476E-18
6.174384E+03	3.892647E-16	7.418367E-18
6.184310E+03	3.763362E-16	7.197810E-18
6.194237E+03	3.640424E-16	6.987697E-18
6.204164E+03	3.524834E-16	6.790083E-18
6.214090E+03	3.417228E-16	6.606338E-18
6.224017E+03	3.318370E-16	6.438103E-18
6.233944E+03	3.228775E-16	6.286557E-18
6.243870E+03	3.148803E-16	6.152589E-18
6.253797E+03	3.078773E-16	6.037019E-18
6.263724E+03	3.018823E-16	5.940320E-18
6.273650E+03	2.969102E-16	5.862993E-18
6.283577E+03	2.929531E-16	5.805089E-18
6.293504E+03	2.900069E-16	5.766733E-18
6.303430E+03	2.880579E-16	5.747860E-18
6.313357E+03	2.870874E-16	5.748300E-18
6.323284E+03	2.870691E-16	5.767722E-18
6.333210E+03	2.879758E-16	5.805773E-18
6.343137E+03	2.897764E-16	5.862012E-18
6.353064E+03	2.924318E-16	5.935825E-18
6.362990E+03	2.959059E-16	6.026652E-18
6.372917E+03	3.001433E-16	6.133527E-18
6.382844E+03	3.051029E-16	6.255759E-18
6.392770E+03	3.107205E-16	6.392172E-18
6.402697E+03	3.169431E-16	6.541804E-18
6.412624E+03	3.237030E-16	6.703371E-18
6.422550E+03	3.309417E-16	6.875763E-18
6.432477E+03	3.385911E-16	7.057652E-18
6.442404E+03	3.465861E-16	7.247756E-18
6.452330E+03	3.548614E-16	7.444771E-18
6.462257E+03	3.633570E-16	7.647483E-18
6.472184E+03	3.720042E-16	7.854483E-18
6.482110E+03	3.807546E-16	8.064767E-18
6.492037E+03	3.895364E-16	8.276828E-18
6.501963E+03	3.982981E-16	8.489565E-18
6.511890E+03	4.069781E-16	8.701652E-18
6.521817E+03	4.155143E-16	8.911735E-18
6.531743E+03	4.238489E-16	9.118536E-18
6.541670E+03	4.319179E-16	9.320626E-18
6.551597E+03	4.396556E-16	9.516529E-18
6.561523E+03	4.470019E-16	9.704865E-18
6.571450E+03	4.538908E-16	9.884117E-18
6.581377E+03	4.602578E-16	1.005278E-17
6.591303E+03	4.660473E-16	1.020953E-17
6.601230E+03	4.711956E-16	1.035285E-17
6.611157E+03	4.756584E-16	1.048163E-17
6.621083E+03	4.793929E-16	1.059480E-17
6.631010E+03	4.823724E-16	1.069162E-17
6.640937E+03	4.845616E-16	1.077115E-17
6.650863E+03	4.859630E-16	1.083331E-17
6.660790E+03	4.865783E-16	1.087797E-17
6.670717E+03	4.864146E-16	1.090514E-17
6.680643E+03	4.855043E-16	1.091541E-17
6.690570E+03	4.838844E-16	1.090947E-17
6.700497E+03	4.816020E-16	1.088824E-17
6.710423E+03	4.787060E-16	1.085273E-17
6.720350E+03	4.752734E-16	1.080455E-17
6.730277E+03	4.713595E-16	1.074489E-17
6.740203E+03	4.670513E-16	1.067563E-17
6.750130E+03	4.624108E-16	1.059814E-17
6.760057E+03	4.575287E-16	1.051443E-17
6.769983E+03	4.524749E-16	1.042608E-17
6.779910E+03	4.473248E-16	1.033480E-17
6.789837E+03	4.421514E-16	1.024226E-17
6.799763E+03	4.370306E-16	1.015024E-17
6.809690E+03	4.320146E-16	1.005996E-17
6.819617E+03	4.271766E-16	9.973149E-18
6.829543E+03	4.225646E-16	9.890973E-18
6.839470E+03	4.182272E-16	9.814615E-18
6.849397E+03	4.142063E-16	9.745112E-18
6.859323E+03	4.105428E-16	9.683493E-18
6.869250E+03	4.072518E-16	9.630181E-18
6.879177E+03	4.043654E-16	9.586009E-18
6.889103E+03	4.018899E-16	9.551197E-18
6.899030E+03	3.998233E-16	9.525781E-18
6.908957E+03	3.981750E-16	9.510054E-18
6.918883E+03	3.969283E-16	9.503697E-18
6.928810E+03	3.960658E-16	9.506367E-18
6.938737E+03	3.955640E-16	9.517566E-18
6.948663E+03	3.953876E-16	9.536511E-18
6.958590E+03	3.955155E-16	9.562749E-18
6.968517E+03	3.959046E-16	9.595294E-18
6.978443E+03	3.965098E-16	9.633095E-18
6.988370E+03	3.972973E-16	9.675373E-18
6.998297E+03	3.982276E-16	9.721197E-18
7.008223E+03	3.992627E-16	9.769663E-18
7.018150E+03	4.003604E-16	9.819758E-18
7.028077E+03	4.014948E-16	9.870856E-18
7.038003E+03	4.026374E-16	9.922269E-18
7.047930E+03	4.037643E-16	9.973405E-18
7.057857E+03	4.048496E-16	1.002363E-17
7.067783E+03	4.058851E-16	1.007273E-17
7.077710E+03	4.068540E-16	1.012028E-17
7.087637E+03	4.077569E-16	1.016629E-17
7.097563E+03	4.085911E-16	1.021069E-17
7.107490E+03	4.093565E-16	1.025346E-17
7.117417E+03	4.100479E-16	1.029446E-17
7.127343E+03	4.106675E-16	1.033374E-17
7.137270E+03	4.112313E-16	1.037170E-17
7.147197E+03	4.117265E-16	1.040800E-17
7.157123E+03	4.121521E-16	1.044261E-17
7.167050E+03	4.125191E-16	1.047581E-17
7.176976E+03	4.128079E-16	1.050708E-17
7.186903E+03	4.130244E-16	1.053657E-17
7.196830E+03	4.131444E-16	1.056364E-17
7.206756E+03	4.131629E-16	1.058817E-17
7.216683E+03	4.130672E-16	1.060980E-17
7.226610E+03	4.128510E-16	1.062837E-17
7.236536E+03	4.124943E-16	1.064333E-17
7.246463E+03	4.119852E-16	1.065436E-17
7.256390E+03	4.113133E-16	1.066116E-17
7.266316E+03	4.104778E-16	1.066369E-17
7.276243E+03	4.094734E-16	1.066179E-17
7.286170E+03	4.082904E-16	1.065518E-17
7.296096E+03	4.069367E-16	1.064402E-17
7.306023E+03	4.054160E-16	1.062841E-17
7.315950E+03	4.037351E-16	1.060848E-17
7.325876E+03	4.019038E-16	1.058447E-17
7.335803E+03	3.999412E-16	1.055686E-17
7.345730E+03	3.978541E-16	1.052580E-17
7.355656E+03	3.956577E-16	1.049169E-17
7.365583E+03	3.933826E-16	1.045531E-17
7.375510E+03	3.910305E-16	1.041670E-17
7.385436E+03	3.886313E-16	1.037664E-17
7.395363E+03	3.861923E-16	1.033534E-17
7.405290E+03	3.837193E-16	1.029292E-17
7.415216E+03	3.812232E-16	1.024969E-17
7.425143E+03	3.787200E-16	1.020607E-17
7.435070E+03	3.762022E-16	1.016186E-17
7.444996E+03	3.736744E-16	1.011719E-17
7.454923E+03	3.711463E-16	1.007230E-17
7.464850E+03	3.686050E-16	1.002687E-17
7.474776E+03	3.660643E-16	9.981244E-18
7.484703E+03	3.635092E-16	9.935020E-18
7.494630E+03	3.609377E-16	9.888134E-18
7.504556E+03	3.583612E-16	9.840887E-18
7.514483E+03	3.557563E-16	9.792630E-18
7.524410E+03	3.531268E-16	9.743461E-18
7.534336E+03	3.504763E-16	9.693468E-18
7.544263E+03	3.477883E-16	9.642182E-18
7.554190E+03	3.450732E-16	9.589881E-18
7.564116E+03	3.423146E-16	9.536102E-18
7.574043E+03	3.395103E-16	9.480765E-18
7.583970E+03	3.366718E-16	9.424180E-18
7.593896E+03	3.337872E-16	9.366001E-18
7.603823E+03	3.308609E-16	9.306341E-18
7.613750E+03	3.279051E-16	9.245527E-18
7.623676E+03	3.249189E-16	9.183527E-18
7.633603E+03	3.219144E-16	9.120668E-18
7.643530E+03	3.188904E-16	9.056914E-18
7.653456E+03	3.158521E-16	8.992400E-18
7.663383E+03	3.128103E-16	8.927431E-18
7.673310E+03	3.097631E-16	8.861945E-18
7.683236E+03	3.067204E-16	8.796222E-18
7.693163E+03	3.036732E-16	8.730002E-18
7.703090E+03	3.006365E-16	8.663709E-18
