#wls	flux	fluxerr
1.588266E+03	1.760727E-17	3.494780E-19
1.627973E+03	1.829929E-17	3.622712E-19
1.667679E+03	1.888933E-17	3.729547E-19
1.707386E+03	1.935518E-17	3.811046E-19
1.747092E+03	1.968138E-17	3.864348E-19
1.786799E+03	1.984065E-17	3.884328E-19
1.826506E+03	1.978758E-17	3.862394E-19
1.866212E+03	1.946970E-17	3.788707E-19
1.905919E+03	1.884499E-17	3.655596E-19
1.945626E+03	1.790395E-17	3.461812E-19
1.985332E+03	1.668100E-17	3.214622E-19
2.025039E+03	1.530483E-17	2.939340E-19
2.064746E+03	1.399442E-17	2.678231E-19
2.104452E+03	1.303095E-17	2.484844E-19
2.144159E+03	1.265173E-17	2.403587E-19
2.183866E+03	1.299593E-17	2.459571E-19
2.223572E+03	1.406788E-17	2.652025E-19
2.263279E+03	1.576490E-17	2.959992E-19
2.302986E+03	1.791777E-17	3.350317E-19
2.342692E+03	2.034925E-17	3.788821E-19
2.382399E+03	2.290850E-17	4.246742E-19
2.422105E+03	2.548398E-17	4.703042E-19
2.461812E+03	2.799569E-17	5.142833E-19
2.501519E+03	3.041892E-17	5.561616E-19
2.541225E+03	3.273185E-17	5.955506E-19
2.580932E+03	3.493536E-17	6.324815E-19
2.620639E+03	3.702536E-17	6.668970E-19
2.660345E+03	3.901835E-17	6.991109E-19
2.700052E+03	4.091324E-17	7.291191E-19
2.739759E+03	4.272745E-17	7.572465E-19
2.779465E+03	4.446464E-17	7.835697E-19
2.819172E+03	4.613372E-17	8.082568E-19
2.858879E+03	4.774239E-17	8.314522E-19
2.898585E+03	4.930407E-17	8.533967E-19
2.938292E+03	5.082398E-17	8.741846E-19
2.977999E+03	5.231299E-17	8.940058E-19
2.987925E+03	5.268702E-17	8.989227E-19
2.997852E+03	5.305873E-17	9.037725E-19
3.007779E+03	5.342095E-17	9.084328E-19
3.017705E+03	5.378774E-17	9.131434E-19
3.027632E+03	5.415907E-17	9.179029E-19
3.037559E+03	5.452950E-17	9.226191E-19
3.047485E+03	5.490123E-17	9.273286E-19
3.057412E+03	5.529226E-17	9.323353E-19
3.067339E+03	5.569338E-17	9.374818E-19
3.077265E+03	5.610967E-17	9.428526E-19
3.087192E+03	5.653219E-17	9.482963E-19
3.097118E+03	5.696626E-17	9.539012E-19
3.107045E+03	5.741034E-17	9.596405E-19
3.116972E+03	5.785581E-17	9.653692E-19
3.126898E+03	5.831549E-17	9.713006E-19
3.136825E+03	5.877392E-17	9.771762E-19
3.146752E+03	5.923699E-17	9.830937E-19
3.156678E+03	5.971066E-17	9.891512E-19
3.166605E+03	6.017979E-17	9.950972E-19
3.176532E+03	6.065749E-17	1.001148E-18
3.186458E+03	6.113585E-17	1.007173E-18
3.196385E+03	6.161404E-17	1.013158E-18
3.206312E+03	6.209825E-17	1.019205E-18
3.216238E+03	6.258078E-17	1.025186E-18
3.226165E+03	6.306792E-17	1.031205E-18
3.236092E+03	6.355208E-17	1.037136E-18
3.246018E+03	6.403959E-17	1.043084E-18
3.255945E+03	6.452985E-17	1.049037E-18
3.265872E+03	6.502229E-17	1.054987E-18
3.275798E+03	6.551640E-17	1.060925E-18
3.285725E+03	6.601170E-17	1.066842E-18
3.295652E+03	6.650768E-17	1.072730E-18
3.305578E+03	6.701064E-17	1.078690E-18
3.315505E+03	6.751335E-17	1.084606E-18
3.325432E+03	6.801542E-17	1.090470E-18
3.335358E+03	6.852309E-17	1.096383E-18
3.345285E+03	6.903591E-17	1.102337E-18
3.355212E+03	6.955337E-17	1.108322E-18
3.365138E+03	7.006849E-17	1.114228E-18
3.375065E+03	7.059397E-17	1.120256E-18
3.384992E+03	7.112275E-17	1.126293E-18
3.394918E+03	7.166083E-17	1.132433E-18
3.404845E+03	7.219497E-17	1.138467E-18
3.414772E+03	7.274379E-17	1.144687E-18
3.424698E+03	7.329412E-17	1.150886E-18
3.434625E+03	7.385173E-17	1.157153E-18
3.444552E+03	7.441615E-17	1.163480E-18
3.454478E+03	7.498683E-17	1.169857E-18
3.464405E+03	7.556323E-17	1.176277E-18
3.474332E+03	7.615087E-17	1.182822E-18
3.484258E+03	7.674913E-17	1.189484E-18
3.494185E+03	7.735135E-17	1.196157E-18
3.504112E+03	7.796292E-17	1.202924E-18
3.514038E+03	7.858320E-17	1.209774E-18
3.523965E+03	7.921152E-17	1.216696E-18
3.533892E+03	7.985298E-17	1.223766E-18
3.543818E+03	8.050108E-17	1.230885E-18
3.553745E+03	8.115518E-17	1.238041E-18
3.563672E+03	8.182578E-17	1.245394E-18
3.573598E+03	8.250089E-17	1.252759E-18
3.583525E+03	8.319086E-17	1.260293E-18
3.593452E+03	8.388924E-17	1.267897E-18
3.603378E+03	8.459532E-17	1.275558E-18
3.613305E+03	8.531361E-17	1.283344E-18
3.623232E+03	8.604321E-17	1.291240E-18
3.633158E+03	8.678315E-17	1.299230E-18
3.643085E+03	8.753257E-17	1.307300E-18
3.653012E+03	8.829050E-17	1.315435E-18
3.662938E+03	8.906115E-17	1.323695E-18
3.672865E+03	8.984348E-17	1.332064E-18
3.682792E+03	9.063142E-17	1.340451E-18
3.692718E+03	9.143397E-17	1.348988E-18
3.702645E+03	9.224017E-17	1.357512E-18
3.712572E+03	9.305884E-17	1.366152E-18
3.722498E+03	9.388880E-17	1.374889E-18
3.732425E+03	9.472417E-17	1.383637E-18
3.742352E+03	9.556866E-17	1.392448E-18
3.752278E+03	9.642110E-17	1.401304E-18
3.762205E+03	9.728501E-17	1.410256E-18
3.772131E+03	9.815003E-17	1.419152E-18
3.782058E+03	9.902422E-17	1.428109E-18
3.791985E+03	9.990635E-17	1.437108E-18
3.801911E+03	1.007952E-16	1.446131E-18
3.811838E+03	1.016853E-16	1.455097E-18
3.821765E+03	1.025842E-16	1.464115E-18
3.831691E+03	1.034863E-16	1.473105E-18
3.841618E+03	1.043905E-16	1.482051E-18
3.851545E+03	1.052958E-16	1.490938E-18
3.861471E+03	1.062051E-16	1.499807E-18
3.871398E+03	1.071173E-16	1.508641E-18
3.881325E+03	1.080271E-16	1.517368E-18
3.891251E+03	1.089416E-16	1.526085E-18
3.901178E+03	1.098516E-16	1.534666E-18
3.911105E+03	1.107602E-16	1.543152E-18
3.921031E+03	1.116663E-16	1.551529E-18
3.930958E+03	1.125726E-16	1.559836E-18
3.940885E+03	1.134709E-16	1.567958E-18
3.950811E+03	1.143639E-16	1.575936E-18
3.960738E+03	1.152546E-16	1.583810E-18
3.970665E+03	1.161351E-16	1.591472E-18
3.980591E+03	1.170119E-16	1.599013E-18
3.990518E+03	1.178810E-16	1.606379E-18
4.000445E+03	1.187386E-16	1.613520E-18
4.010371E+03	1.195879E-16	1.620481E-18
4.020298E+03	1.204289E-16	1.627263E-18
4.030225E+03	1.212617E-16	1.633868E-18
4.040151E+03	1.220831E-16	1.640255E-18
4.050078E+03	1.228936E-16	1.646433E-18
4.060005E+03	1.236938E-16	1.652410E-18
4.069931E+03	1.244812E-16	1.658156E-18
4.079858E+03	1.252599E-16	1.663725E-18
4.089785E+03	1.260308E-16	1.669134E-18
4.099711E+03	1.267861E-16	1.674279E-18
4.109638E+03	1.275361E-16	1.679299E-18
4.119565E+03	1.282736E-16	1.684098E-18
4.129491E+03	1.290031E-16	1.688742E-18
4.139418E+03	1.297238E-16	1.693217E-18
4.149345E+03	1.304349E-16	1.697516E-18
4.159271E+03	1.311385E-16	1.701669E-18
4.169198E+03	1.318344E-16	1.705673E-18
4.179125E+03	1.325249E-16	1.709562E-18
4.189051E+03	1.332101E-16	1.713335E-18
4.198978E+03	1.338898E-16	1.716993E-18
4.208905E+03	1.345669E-16	1.720574E-18
4.218831E+03	1.352389E-16	1.724048E-18
4.228758E+03	1.359063E-16	1.727421E-18
4.238685E+03	1.365743E-16	1.730763E-18
4.248611E+03	1.372386E-16	1.734016E-18
4.258538E+03	1.379019E-16	1.737219E-18
4.268465E+03	1.385647E-16	1.740378E-18
4.278391E+03	1.392251E-16	1.743470E-18
4.288318E+03	1.398882E-16	1.746561E-18
4.298245E+03	1.405497E-16	1.749596E-18
4.308171E+03	1.412099E-16	1.752581E-18
4.318098E+03	1.418737E-16	1.755579E-18
4.328025E+03	1.425345E-16	1.758507E-18
4.337951E+03	1.431970E-16	1.761425E-18
4.347878E+03	1.438612E-16	1.764336E-18
4.357805E+03	1.445252E-16	1.767213E-18
4.367731E+03	1.451911E-16	1.770087E-18
4.377658E+03	1.458568E-16	1.772933E-18
4.387585E+03	1.465224E-16	1.775752E-18
4.397511E+03	1.471881E-16	1.778547E-18
4.407438E+03	1.478540E-16	1.781321E-18
4.417365E+03	1.485223E-16	1.784104E-18
4.427291E+03	1.491934E-16	1.786899E-18
4.437218E+03	1.498672E-16	1.789707E-18
4.447144E+03	1.505481E-16	1.792581E-18
4.457071E+03	1.512359E-16	1.795520E-18
4.466998E+03	1.519349E-16	1.798573E-18
4.476924E+03	1.526426E-16	1.801713E-18
4.486851E+03	1.533651E-16	1.805009E-18
4.496778E+03	1.540997E-16	1.808434E-18
4.506704E+03	1.548502E-16	1.812028E-18
4.516631E+03	1.556180E-16	1.815809E-18
4.526558E+03	1.564044E-16	1.819792E-18
4.536484E+03	1.572128E-16	1.824017E-18
4.546411E+03	1.580446E-16	1.828496E-18
4.556338E+03	1.589028E-16	1.833267E-18
4.566264E+03	1.597866E-16	1.838319E-18
4.576191E+03	1.607014E-16	1.843710E-18
4.586118E+03	1.616481E-16	1.849452E-18
4.596044E+03	1.626298E-16	1.855579E-18
4.605971E+03	1.636476E-16	1.862102E-18
4.615898E+03	1.647066E-16	1.869075E-18
4.625824E+03	1.658053E-16	1.876483E-18
4.635751E+03	1.669506E-16	1.884400E-18
4.645678E+03	1.681428E-16	1.892829E-18
4.655604E+03	1.693840E-16	1.901790E-18
4.665531E+03	1.706759E-16	1.911301E-18
4.675458E+03	1.720199E-16	1.921374E-18
4.685384E+03	1.734165E-16	1.932015E-18
4.695311E+03	1.748662E-16	1.943226E-18
4.705238E+03	1.763706E-16	1.955025E-18
4.715164E+03	1.779291E-16	1.967401E-18
4.725091E+03	1.795403E-16	1.980339E-18
4.735018E+03	1.812022E-16	1.993815E-18
4.744944E+03	1.829125E-16	2.007804E-18
4.754871E+03	1.846618E-16	2.022201E-18
4.764798E+03	1.864487E-16	2.036993E-18
4.774724E+03	1.882627E-16	2.052064E-18
4.784651E+03	1.900968E-16	2.067341E-18
4.794578E+03	1.919459E-16	2.082770E-18
4.804504E+03	1.937971E-16	2.098216E-18
4.814431E+03	1.956460E-16	2.113634E-18
4.824358E+03	1.974769E-16	2.128858E-18
4.834284E+03	1.992971E-16	2.143974E-18
4.844211E+03	2.011094E-16	2.159013E-18
4.854138E+03	2.029228E-16	2.174081E-18
4.864064E+03	2.047413E-16	2.189222E-18
4.873991E+03	2.065725E-16	2.204521E-18
4.883918E+03	2.084183E-16	2.220002E-18
4.893844E+03	2.102862E-16	2.235749E-18
4.903771E+03	2.121730E-16	2.251727E-18
4.913698E+03	2.140810E-16	2.267965E-18
4.923624E+03	2.160061E-16	2.284418E-18
4.933551E+03	2.179497E-16	2.301105E-18
4.943478E+03	2.199046E-16	2.317950E-18
4.953404E+03	2.218619E-16	2.334863E-18
4.963331E+03	2.238190E-16	2.351821E-18
4.973258E+03	2.257653E-16	2.368712E-18
4.983184E+03	2.276945E-16	2.385476E-18
4.993111E+03	2.295927E-16	2.401969E-18
5.003038E+03	2.314564E-16	2.418162E-18
5.012964E+03	2.332753E-16	2.433948E-18
5.022891E+03	2.350451E-16	2.449288E-18
5.032818E+03	2.367575E-16	2.464101E-18
5.042744E+03	2.384110E-16	2.478376E-18
5.052671E+03	2.400028E-16	2.492087E-18
5.062598E+03	2.415289E-16	2.505199E-18
5.072524E+03	2.429895E-16	2.517717E-18
5.082451E+03	2.443884E-16	2.529685E-18
5.092378E+03	2.457278E-16	2.541132E-18
5.102304E+03	2.470111E-16	2.552092E-18
5.112231E+03	2.482392E-16	2.562582E-18
5.122158E+03	2.494190E-16	2.572675E-18
5.132084E+03	2.505549E-16	2.582419E-18
5.142011E+03	2.516487E-16	2.591837E-18
5.151937E+03	2.527104E-16	2.601031E-18
5.161864E+03	2.537387E-16	2.609993E-18
5.171791E+03	2.547378E-16	2.618768E-18
5.181717E+03	2.557167E-16	2.627450E-18
5.191644E+03	2.566736E-16	2.636021E-18
5.201571E+03	2.576140E-16	2.644543E-18
5.211497E+03	2.585381E-16	2.653015E-18
5.221424E+03	2.594507E-16	2.661491E-18
5.231351E+03	2.603536E-16	2.669991E-18
5.241277E+03	2.612485E-16	2.678532E-18
5.251204E+03	2.621336E-16	2.687099E-18
5.261131E+03	2.630094E-16	2.695698E-18
5.271057E+03	2.638792E-16	2.704363E-18
5.280984E+03	2.647399E-16	2.713066E-18
5.290911E+03	2.655939E-16	2.721831E-18
5.300837E+03	2.664377E-16	2.730625E-18
5.310764E+03	2.672701E-16	2.739437E-18
5.320691E+03	2.680927E-16	2.748283E-18
5.330617E+03	2.688981E-16	2.757090E-18
5.340544E+03	2.696901E-16	2.765898E-18
5.350471E+03	2.704633E-16	2.774652E-18
5.360397E+03	2.712119E-16	2.783295E-18
5.370324E+03	2.719336E-16	2.791802E-18
5.380251E+03	2.726060E-16	2.799939E-18
5.390177E+03	2.732134E-16	2.807546E-18
5.400104E+03	2.737370E-16	2.814427E-18
5.410031E+03	2.741584E-16	2.820389E-18
5.419957E+03	2.744569E-16	2.825216E-18
5.429884E+03	2.746210E-16	2.828785E-18
5.439811E+03	2.746294E-16	2.830875E-18
5.449737E+03	2.744711E-16	2.831363E-18
5.459664E+03	2.741315E-16	2.830094E-18
5.469591E+03	2.736040E-16	2.826994E-18
5.479517E+03	2.728794E-16	2.821959E-18
5.489444E+03	2.719572E-16	2.814977E-18
5.499371E+03	2.708350E-16	2.806013E-18
5.509297E+03	2.695191E-16	2.795124E-18
5.519224E+03	2.680201E-16	2.782411E-18
5.529151E+03	2.663441E-16	2.767928E-18
5.539077E+03	2.645093E-16	2.751855E-18
5.549004E+03	2.625351E-16	2.734383E-18
5.558931E+03	2.604467E-16	2.715769E-18
5.568857E+03	2.582651E-16	2.696223E-18
5.578784E+03	2.560244E-16	2.676093E-18
5.588711E+03	2.537508E-16	2.655649E-18
5.598637E+03	2.514825E-16	2.635284E-18
5.608564E+03	2.492485E-16	2.615300E-18
5.618491E+03	2.470885E-16	2.596112E-18
5.628417E+03	2.450345E-16	2.578056E-18
5.638344E+03	2.431175E-16	2.561460E-18
5.648271E+03	2.413719E-16	2.546689E-18
5.658197E+03	2.398296E-16	2.534086E-18
5.668124E+03	2.385131E-16	2.523895E-18
5.678051E+03	2.374483E-16	2.516399E-18
5.687977E+03	2.366530E-16	2.511796E-18
5.697904E+03	2.361475E-16	2.510315E-18
5.707831E+03	2.359386E-16	2.512039E-18
5.717757E+03	2.360328E-16	2.517052E-18
5.727684E+03	2.364338E-16	2.525407E-18
5.737611E+03	2.371378E-16	2.537078E-18
5.747537E+03	2.381310E-16	2.551935E-18
5.757464E+03	2.394036E-16	2.569886E-18
5.767391E+03	2.409336E-16	2.590710E-18
5.777317E+03	2.426964E-16	2.614156E-18
5.787244E+03	2.446625E-16	2.639919E-18
5.797171E+03	2.467959E-16	2.667621E-18
5.807097E+03	2.490614E-16	2.696893E-18
5.817024E+03	2.514158E-16	2.727272E-18
5.826950E+03	2.538187E-16	2.758326E-18
5.836877E+03	2.562228E-16	2.789545E-18
5.846804E+03	2.585808E-16	2.820411E-18
5.856730E+03	2.608503E-16	2.850461E-18
5.866657E+03	2.629887E-16	2.879222E-18
5.876584E+03	2.649531E-16	2.906217E-18
5.886510E+03	2.667069E-16	2.931033E-18
5.896437E+03	2.682205E-16	2.953332E-18
5.906364E+03	2.694594E-16	2.972717E-18
5.916290E+03	2.704099E-16	2.989019E-18
5.926217E+03	2.710486E-16	3.001962E-18
5.936144E+03	2.713714E-16	3.011478E-18
5.946070E+03	2.713693E-16	3.017446E-18
5.955997E+03	2.710465E-16	3.019891E-18
5.965924E+03	2.704074E-16	3.018840E-18
5.975850E+03	2.694635E-16	3.014399E-18
5.985777E+03	2.682300E-16	3.006717E-18
5.995704E+03	2.667229E-16	2.995953E-18
6.005630E+03	2.649658E-16	2.982352E-18
6.015557E+03	2.629790E-16	2.966124E-18
6.025484E+03	2.607839E-16	2.947494E-18
6.035410E+03	2.584075E-16	2.926751E-18
6.045337E+03	2.558741E-16	2.904157E-18
6.055264E+03	2.532051E-16	2.879941E-18
6.065190E+03	2.504234E-16	2.854355E-18
6.075117E+03	2.475508E-16	2.827636E-18
6.085044E+03	2.446075E-16	2.800009E-18
6.094970E+03	2.416125E-16	2.771682E-18
6.104897E+03	2.385807E-16	2.742823E-18
6.114824E+03	2.355302E-16	2.713633E-18
6.124750E+03	2.324732E-16	2.684249E-18
6.134677E+03	2.294205E-16	2.654795E-18
6.144604E+03	2.263841E-16	2.625406E-18
6.154530E+03	2.233773E-16	2.596235E-18
6.164457E+03	2.204132E-16	2.567436E-18
6.174384E+03	2.175115E-16	2.539240E-18
6.184310E+03	2.146888E-16	2.511845E-18
6.194237E+03	2.119611E-16	2.485440E-18
6.204164E+03	2.093449E-16	2.460225E-18
6.214090E+03	2.068533E-16	2.436363E-18
6.224017E+03	2.044962E-16	2.413978E-18
6.233944E+03	2.022903E-16	2.393277E-18
6.243870E+03	2.002385E-16	2.374304E-18
6.253797E+03	1.983541E-16	2.357228E-18
6.263724E+03	1.966408E-16	2.342106E-18
6.273650E+03	1.951042E-16	2.329017E-18
6.283577E+03	1.937440E-16	2.317969E-18
6.293504E+03	1.925655E-16	2.309041E-18
6.303430E+03	1.915624E-16	2.302170E-18
6.313357E+03	1.907339E-16	2.297359E-18
6.323284E+03	1.900737E-16	2.294546E-18
6.333210E+03	1.895732E-16	2.293639E-18
6.343137E+03	1.892265E-16	2.294580E-18
6.353064E+03	1.890202E-16	2.297216E-18
6.362990E+03	1.889454E-16	2.301451E-18
6.372917E+03	1.889906E-16	2.307154E-18
6.382844E+03	1.891413E-16	2.314157E-18
6.392770E+03	1.893827E-16	2.322286E-18
6.402697E+03	1.897055E-16	2.331435E-18
6.412624E+03	1.900931E-16	2.341404E-18
6.422550E+03	1.905344E-16	2.352063E-18
6.432477E+03	1.910136E-16	2.363218E-18
6.442404E+03	1.915214E-16	2.374756E-18
6.452330E+03	1.920434E-16	2.386502E-18
6.462257E+03	1.925702E-16	2.398339E-18
6.472184E+03	1.930878E-16	2.410092E-18
6.482110E+03	1.935912E-16	2.421698E-18
6.492037E+03	1.940707E-16	2.433032E-18
6.501963E+03	1.945174E-16	2.443980E-18
6.511890E+03	1.949235E-16	2.454442E-18
6.521817E+03	1.952863E-16	2.464380E-18
6.531743E+03	1.955995E-16	2.473709E-18
6.541670E+03	1.958598E-16	2.482383E-18
6.551597E+03	1.960619E-16	2.490332E-18
6.561523E+03	1.962035E-16	2.497519E-18
6.571450E+03	1.962826E-16	2.503914E-18
6.581377E+03	1.962974E-16	2.509489E-18
6.591303E+03	1.962470E-16	2.514226E-18
6.601230E+03	1.961306E-16	2.518110E-18
6.611157E+03	1.959484E-16	2.521136E-18
6.621083E+03	1.957008E-16	2.523306E-18
6.631010E+03	1.953873E-16	2.524606E-18
6.640937E+03	1.950120E-16	2.525084E-18
6.650863E+03	1.945802E-16	2.524805E-18
6.660790E+03	1.940937E-16	2.523784E-18
6.670717E+03	1.935548E-16	2.522050E-18
6.680643E+03	1.929736E-16	2.519729E-18
6.690570E+03	1.923563E-16	2.516897E-18
6.700497E+03	1.917076E-16	2.513614E-18
6.710423E+03	1.910350E-16	2.509976E-18
6.720350E+03	1.903487E-16	2.506116E-18
6.730277E+03	1.896550E-16	2.502113E-18
6.740203E+03	1.889667E-16	2.498139E-18
6.750130E+03	1.882885E-16	2.494255E-18
6.760057E+03	1.876313E-16	2.490607E-18
6.769983E+03	1.870063E-16	2.487344E-18
6.779910E+03	1.864178E-16	2.484527E-18
6.789837E+03	1.858763E-16	2.482300E-18
6.799763E+03	1.853922E-16	2.480805E-18
6.809690E+03	1.849710E-16	2.480120E-18
6.819617E+03	1.846199E-16	2.480347E-18
6.829543E+03	1.843454E-16	2.481580E-18
6.839470E+03	1.841557E-16	2.483935E-18
6.849397E+03	1.840538E-16	2.487460E-18
6.859323E+03	1.840442E-16	2.492221E-18
6.869250E+03	1.841326E-16	2.498304E-18
6.879177E+03	1.843195E-16	2.505724E-18
6.889103E+03	1.846087E-16	2.514541E-18
6.899030E+03	1.849988E-16	2.524742E-18
6.908957E+03	1.854896E-16	2.536334E-18
6.918883E+03	1.860819E-16	2.549336E-18
6.928810E+03	1.867735E-16	2.563723E-18
6.938737E+03	1.875565E-16	2.579398E-18
6.948663E+03	1.884334E-16	2.596400E-18
6.958590E+03	1.893922E-16	2.614572E-18
6.968517E+03	1.904315E-16	2.633900E-18
6.978443E+03	1.915446E-16	2.654299E-18
6.988370E+03	1.927195E-16	2.675608E-18
6.998297E+03	1.939532E-16	2.697787E-18
7.008223E+03	1.952351E-16	2.720697E-18
7.018150E+03	1.965592E-16	2.744255E-18
7.028077E+03	1.979148E-16	2.768316E-18
7.038003E+03	1.992932E-16	2.792762E-18
7.047930E+03	2.006863E-16	2.817477E-18
7.057857E+03	2.020858E-16	2.842349E-18
7.067783E+03	2.034838E-16	2.867265E-18
7.077710E+03	2.048753E-16	2.892156E-18
7.087637E+03	2.062478E-16	2.916845E-18
7.097563E+03	2.075997E-16	2.941306E-18
7.107490E+03	2.089191E-16	2.965370E-18
7.117417E+03	2.102024E-16	2.988983E-18
7.127343E+03	2.114462E-16	3.012093E-18
7.137270E+03	2.126392E-16	3.034538E-18
7.147197E+03	2.137786E-16	3.056272E-18
7.157123E+03	2.148587E-16	3.077211E-18
7.167050E+03	2.158739E-16	3.097271E-18
7.176976E+03	2.168160E-16	3.116326E-18
7.186903E+03	2.176846E-16	3.134368E-18
7.196830E+03	2.184687E-16	3.151230E-18
7.206756E+03	2.191649E-16	3.166861E-18
7.216683E+03	2.197647E-16	3.181127E-18
7.226610E+03	2.202676E-16	3.194018E-18
7.236536E+03	2.206623E-16	3.205358E-18
7.246463E+03	2.209459E-16	3.215100E-18
7.256390E+03	2.211130E-16	3.223157E-18
7.266316E+03	2.211560E-16	3.229407E-18
7.276243E+03	2.210763E-16	3.233865E-18
7.286170E+03	2.208620E-16	3.236344E-18
7.296096E+03	2.205191E-16	3.236924E-18
7.306023E+03	2.200434E-16	3.235534E-18
7.315950E+03	2.194321E-16	3.232122E-18
7.325876E+03	2.186891E-16	3.226736E-18
7.335803E+03	2.178141E-16	3.219362E-18
7.345730E+03	2.168138E-16	3.210091E-18
7.355656E+03	2.156934E-16	3.198987E-18
7.365583E+03	2.144535E-16	3.186053E-18
7.375510E+03	2.131069E-16	3.171471E-18
7.385436E+03	2.116561E-16	3.155268E-18
7.395363E+03	2.101123E-16	3.137607E-18
7.405290E+03	2.084845E-16	3.118613E-18
7.415216E+03	2.067845E-16	3.098457E-18
7.425143E+03	2.050182E-16	3.077224E-18
7.435070E+03	2.031945E-16	3.055040E-18
7.444996E+03	2.013241E-16	3.032066E-18
7.454923E+03	1.994123E-16	3.008375E-18
7.464850E+03	1.974661E-16	2.984072E-18
7.474776E+03	1.954948E-16	2.959294E-18
7.484703E+03	1.935018E-16	2.934091E-18
7.494630E+03	1.914951E-16	2.908581E-18
7.504556E+03	1.894743E-16	2.882758E-18
7.514483E+03	1.874486E-16	2.856761E-18
7.524410E+03	1.854192E-16	2.830607E-18
7.534336E+03	1.833891E-16	2.804341E-18
7.544263E+03	1.813611E-16	2.778003E-18
7.554190E+03	1.793372E-16	2.751628E-18
7.564116E+03	1.773191E-16	2.725240E-18
7.574043E+03	1.753060E-16	2.698826E-18
7.583970E+03	1.733036E-16	2.672474E-18
7.593896E+03	1.713112E-16	2.646175E-18
7.603823E+03	1.693295E-16	2.619939E-18
7.613750E+03	1.673632E-16	2.593841E-18
7.623676E+03	1.654149E-16	2.567920E-18
7.633603E+03	1.634865E-16	2.542209E-18
7.643530E+03	1.615800E-16	2.516739E-18
7.653456E+03	1.596946E-16	2.491500E-18
7.663383E+03	1.578340E-16	2.466549E-18
7.673310E+03	1.559992E-16	2.441906E-18
7.683236E+03	1.541913E-16	2.417589E-18
7.693163E+03	1.524110E-16	2.393611E-18
7.703090E+03	1.506570E-16	2.369953E-18
