#wls	flux	fluxerr
1.588266E+03	1.979133E-17	6.937836E-19
1.627973E+03	2.055900E-17	7.181552E-19
1.667679E+03	2.120309E-17	7.379694E-19
1.707386E+03	2.171093E-17	7.528265E-19
1.747092E+03	2.206153E-17	7.620477E-19
1.786799E+03	2.222459E-17	7.646488E-19
1.826506E+03	2.214537E-17	7.588281E-19
1.866212E+03	2.177440E-17	7.429980E-19
1.905919E+03	2.106508E-17	7.157032E-19
1.945626E+03	2.000298E-17	6.766110E-19
1.985332E+03	1.862712E-17	6.272040E-19
2.025039E+03	1.708158E-17	5.724705E-19
2.064746E+03	1.561391E-17	5.207627E-19
2.104452E+03	1.453406E-17	4.823450E-19
2.144159E+03	1.411160E-17	4.659373E-19
2.183866E+03	1.449307E-17	4.760235E-19
2.223572E+03	1.568857E-17	5.125105E-19
2.263279E+03	1.757761E-17	5.710350E-19
2.302986E+03	1.998100E-17	6.454082E-19
2.342692E+03	2.269934E-17	7.289093E-19
2.382399E+03	2.555190E-17	8.155545E-19
2.422105E+03	2.842626E-17	9.016615E-19
2.461812E+03	3.123423E-17	9.843990E-19
2.501519E+03	3.393146E-17	1.062380E-18
2.541225E+03	3.650342E-17	1.135182E-18
2.580932E+03	3.895071E-17	1.202867E-18
2.620639E+03	4.126190E-17	1.265130E-18
2.660345E+03	4.344723E-17	1.322338E-18
2.700052E+03	4.551861E-17	1.374904E-18
2.739759E+03	4.748063E-17	1.423012E-18
2.779465E+03	4.932902E-17	1.466582E-18
2.819172E+03	5.108802E-17	1.506382E-18
2.858879E+03	5.275863E-17	1.542480E-18
2.898585E+03	5.434021E-17	1.574897E-18
2.938292E+03	5.585428E-17	1.604295E-18
2.977999E+03	5.730574E-17	1.630841E-18
2.987925E+03	5.765618E-17	1.636960E-18
2.997852E+03	5.801165E-17	1.643157E-18
3.007779E+03	5.835646E-17	1.648987E-18
3.017705E+03	5.870612E-17	1.654888E-18
3.027632E+03	5.905275E-17	1.660639E-18
3.037559E+03	5.939825E-17	1.666292E-18
3.047485E+03	5.974500E-17	1.671915E-18
3.057412E+03	6.011266E-17	1.678054E-18
3.067339E+03	6.048338E-17	1.684210E-18
3.077265E+03	6.087820E-17	1.690964E-18
3.087192E+03	6.127187E-17	1.697613E-18
3.097118E+03	6.167802E-17	1.704532E-18
3.107045E+03	6.209490E-17	1.711670E-18
3.116972E+03	6.251319E-17	1.718769E-18
3.126898E+03	6.293914E-17	1.725999E-18
3.136825E+03	6.337138E-17	1.733321E-18
3.146752E+03	6.380094E-17	1.740489E-18
3.156678E+03	6.424208E-17	1.747889E-18
3.166605E+03	6.467834E-17	1.755074E-18
3.176532E+03	6.511638E-17	1.762223E-18
3.186458E+03	6.556293E-17	1.769518E-18
3.196385E+03	6.600949E-17	1.776728E-18
3.206312E+03	6.644768E-17	1.783627E-18
3.216238E+03	6.689955E-17	1.790807E-18
3.226165E+03	6.734921E-17	1.797840E-18
3.236092E+03	6.779607E-17	1.804711E-18
3.246018E+03	6.824702E-17	1.811604E-18
3.255945E+03	6.870150E-17	1.818501E-18
3.265872E+03	6.915150E-17	1.825190E-18
3.275798E+03	6.960402E-17	1.831857E-18
3.285725E+03	7.006590E-17	1.838680E-18
3.295652E+03	7.052925E-17	1.845449E-18
3.305578E+03	7.098634E-17	1.851963E-18
3.315505E+03	7.145868E-17	1.858781E-18
3.325432E+03	7.193115E-17	1.865509E-18
3.335358E+03	7.240341E-17	1.872137E-18
3.345285E+03	7.288224E-17	1.878839E-18
3.355212E+03	7.336719E-17	1.885601E-18
3.365138E+03	7.385777E-17	1.892411E-18
3.375065E+03	7.435359E-17	1.899255E-18
3.384992E+03	7.485417E-17	1.906121E-18
3.394918E+03	7.536605E-17	1.913172E-18
3.404845E+03	7.588178E-17	1.920217E-18
3.414772E+03	7.640777E-17	1.927417E-18
3.424698E+03	7.693670E-17	1.934584E-18
3.434625E+03	7.748164E-17	1.942046E-18
3.444552E+03	7.803523E-17	1.949613E-18
3.454478E+03	7.859028E-17	1.957105E-18
3.464405E+03	7.916614E-17	1.965002E-18
3.474332E+03	7.974891E-17	1.972954E-18
3.484258E+03	8.033809E-17	1.980945E-18
3.494185E+03	8.093956E-17	1.989120E-18
3.504112E+03	8.155901E-17	1.997615E-18
3.514038E+03	8.218295E-17	2.006094E-18
3.523965E+03	8.282345E-17	2.014850E-18
3.533892E+03	8.347337E-17	2.023706E-18
3.543818E+03	8.413831E-17	2.032795E-18
3.553745E+03	8.481734E-17	2.042089E-18
3.563672E+03	8.550366E-17	2.051422E-18
3.573598E+03	8.620854E-17	2.061061E-18
3.583525E+03	8.692512E-17	2.070837E-18
3.593452E+03	8.765846E-17	2.080868E-18
3.603378E+03	8.840176E-17	2.090988E-18
3.613305E+03	8.915997E-17	2.101311E-18
3.623232E+03	8.992646E-17	2.111676E-18
3.633158E+03	9.071176E-17	2.122329E-18
3.643085E+03	9.150917E-17	2.133107E-18
3.653012E+03	9.232330E-17	2.144114E-18
3.662938E+03	9.314757E-17	2.155194E-18
3.672865E+03	9.398652E-17	2.166448E-18
3.682792E+03	9.483371E-17	2.177725E-18
3.692718E+03	9.569892E-17	2.189244E-18
3.702645E+03	9.657567E-17	2.200855E-18
3.712572E+03	9.746295E-17	2.212531E-18
3.722498E+03	9.835972E-17	2.224244E-18
3.732425E+03	9.927013E-17	2.236087E-18
3.742352E+03	1.001930E-16	2.248029E-18
3.752278E+03	1.011222E-16	2.259929E-18
3.762205E+03	1.020667E-16	2.271987E-18
3.772131E+03	1.030155E-16	2.283951E-18
3.782058E+03	1.039773E-16	2.296013E-18
3.791985E+03	1.049460E-16	2.308040E-18
3.801911E+03	1.059255E-16	2.320110E-18
3.811838E+03	1.069097E-16	2.332090E-18
3.821765E+03	1.078978E-16	2.343959E-18
3.831691E+03	1.088933E-16	2.355793E-18
3.841618E+03	1.098950E-16	2.367566E-18
3.851545E+03	1.109019E-16	2.379253E-18
3.861471E+03	1.119084E-16	2.390734E-18
3.871398E+03	1.129180E-16	2.402083E-18
3.881325E+03	1.139340E-16	2.413370E-18
3.891251E+03	1.149467E-16	2.424386E-18
3.901178E+03	1.159594E-16	2.435206E-18
3.911105E+03	1.169753E-16	2.445896E-18
3.921031E+03	1.179851E-16	2.456261E-18
3.930958E+03	1.189921E-16	2.466371E-18
3.940885E+03	1.199954E-16	2.476210E-18
3.950811E+03	1.209981E-16	2.485843E-18
3.960738E+03	1.219913E-16	2.495089E-18
3.970665E+03	1.229745E-16	2.503940E-18
3.980591E+03	1.239548E-16	2.512543E-18
3.990518E+03	1.249238E-16	2.520732E-18
4.000445E+03	1.258814E-16	2.528507E-18
4.010371E+03	1.268311E-16	2.535943E-18
4.020298E+03	1.277730E-16	2.543045E-18
4.030225E+03	1.287002E-16	2.549679E-18
4.040151E+03	1.296167E-16	2.555930E-18
4.050078E+03	1.305232E-16	2.561815E-18
4.060005E+03	1.314169E-16	2.567282E-18
4.069931E+03	1.322986E-16	2.572355E-18
4.079858E+03	1.331728E-16	2.577120E-18
4.089785E+03	1.340335E-16	2.581470E-18
4.099711E+03	1.348822E-16	2.585436E-18
4.109638E+03	1.357202E-16	2.589049E-18
4.119565E+03	1.365524E-16	2.592405E-18
4.129491E+03	1.373709E-16	2.595358E-18
4.139418E+03	1.381810E-16	2.598015E-18
4.149345E+03	1.389850E-16	2.600421E-18
4.159271E+03	1.397820E-16	2.602563E-18
4.169198E+03	1.405745E-16	2.604492E-18
4.179125E+03	1.413590E-16	2.606145E-18
4.189051E+03	1.421409E-16	2.607627E-18
4.198978E+03	1.429227E-16	2.608985E-18
4.208905E+03	1.437009E-16	2.610159E-18
4.218831E+03	1.444753E-16	2.611146E-18
4.228758E+03	1.452510E-16	2.612043E-18
4.238685E+03	1.460275E-16	2.612844E-18
4.248611E+03	1.468044E-16	2.613541E-18
4.258538E+03	1.475811E-16	2.614127E-18
4.268465E+03	1.483568E-16	2.614591E-18
4.278391E+03	1.491362E-16	2.615018E-18
4.288318E+03	1.499154E-16	2.615342E-18
4.298245E+03	1.506933E-16	2.615546E-18
4.308171E+03	1.514683E-16	2.615606E-18
4.318098E+03	1.522439E-16	2.615586E-18
4.328025E+03	1.530129E-16	2.615364E-18
4.337951E+03	1.537756E-16	2.614952E-18
4.347878E+03	1.545320E-16	2.614354E-18
4.357805E+03	1.552744E-16	2.613447E-18
4.367731E+03	1.560073E-16	2.612310E-18
4.377658E+03	1.567226E-16	2.610815E-18
4.387585E+03	1.574167E-16	2.608913E-18
4.397511E+03	1.580929E-16	2.606666E-18
4.407438E+03	1.587531E-16	2.604112E-18
4.417365E+03	1.593997E-16	2.601296E-18
4.427291E+03	1.600370E-16	2.598301E-18
4.437218E+03	1.606672E-16	2.595161E-18
4.447144E+03	1.612918E-16	2.591908E-18
4.457071E+03	1.619196E-16	2.588684E-18
4.466998E+03	1.625517E-16	2.585508E-18
4.476924E+03	1.631891E-16	2.582398E-18
4.486851E+03	1.638373E-16	2.579440E-18
4.496778E+03	1.644991E-16	2.576676E-18
4.506704E+03	1.651771E-16	2.574149E-18
4.516631E+03	1.658738E-16	2.571895E-18
4.526558E+03	1.665916E-16	2.569948E-18
4.536484E+03	1.673349E-16	2.568374E-18
4.546411E+03	1.681035E-16	2.567166E-18
4.556338E+03	1.689041E-16	2.566423E-18
4.566264E+03	1.697364E-16	2.566137E-18
4.576191E+03	1.706004E-16	2.566302E-18
4.586118E+03	1.715050E-16	2.567049E-18
4.596044E+03	1.724480E-16	2.568339E-18
4.605971E+03	1.734343E-16	2.570238E-18
4.615898E+03	1.744665E-16	2.572782E-18
4.625824E+03	1.755474E-16	2.576002E-18
4.635751E+03	1.766819E-16	2.579965E-18
4.645678E+03	1.778701E-16	2.584667E-18
4.655604E+03	1.791143E-16	2.590131E-18
4.665531E+03	1.804183E-16	2.596405E-18
4.675458E+03	1.817805E-16	2.603462E-18
4.685384E+03	1.832029E-16	2.611322E-18
4.695311E+03	1.846818E-16	2.619923E-18
4.705238E+03	1.862121E-16	2.629192E-18
4.715164E+03	1.877950E-16	2.639138E-18
4.725091E+03	1.894219E-16	2.649638E-18
4.735018E+03	1.910909E-16	2.660665E-18
4.744944E+03	1.927978E-16	2.672157E-18
4.754871E+03	1.945387E-16	2.684061E-18
4.764798E+03	1.963123E-16	2.696361E-18
4.774724E+03	1.981134E-16	2.708987E-18
4.784651E+03	1.999447E-16	2.721978E-18
4.794578E+03	2.018076E-16	2.735356E-18
4.804504E+03	2.037004E-16	2.749101E-18
4.814431E+03	2.056301E-16	2.763309E-18
4.824358E+03	2.076023E-16	2.778060E-18
4.834284E+03	2.096165E-16	2.793348E-18
4.844211E+03	2.116754E-16	2.809212E-18
4.854138E+03	2.137827E-16	2.825701E-18
4.864064E+03	2.159397E-16	2.842838E-18
4.873991E+03	2.181511E-16	2.860684E-18
4.883918E+03	2.204187E-16	2.879269E-18
4.893844E+03	2.227470E-16	2.898649E-18
4.903771E+03	2.251311E-16	2.918762E-18
4.913698E+03	2.275772E-16	2.939686E-18
4.923624E+03	2.300776E-16	2.961321E-18
4.933551E+03	2.326234E-16	2.983549E-18
4.943478E+03	2.352039E-16	3.006238E-18
4.953404E+03	2.378032E-16	3.029185E-18
4.963331E+03	2.404003E-16	3.052129E-18
4.973258E+03	2.429805E-16	3.074891E-18
4.983184E+03	2.455207E-16	3.097189E-18
4.993111E+03	2.480004E-16	3.118778E-18
5.003038E+03	2.504035E-16	3.139467E-18
5.012964E+03	2.527106E-16	3.159032E-18
5.022891E+03	2.549144E-16	3.177397E-18
5.032818E+03	2.569977E-16	3.194366E-18
5.042744E+03	2.589640E-16	3.210000E-18
5.052671E+03	2.608098E-16	3.224275E-18
5.062598E+03	2.625353E-16	3.237207E-18
5.072524E+03	2.641519E-16	3.248957E-18
5.082451E+03	2.656624E-16	3.259570E-18
5.092378E+03	2.670824E-16	3.269253E-18
5.102304E+03	2.684199E-16	3.278115E-18
5.112231E+03	2.696861E-16	3.286303E-18
5.122158E+03	2.708923E-16	3.293964E-18
5.132084E+03	2.720494E-16	3.301239E-18
5.142011E+03	2.731681E-16	3.308265E-18
5.151937E+03	2.742613E-16	3.315204E-18
5.161864E+03	2.753354E-16	3.322138E-18
5.171791E+03	2.763984E-16	3.329168E-18
5.181717E+03	2.774574E-16	3.336387E-18
5.191644E+03	2.785190E-16	3.343874E-18
5.201571E+03	2.795889E-16	3.351704E-18
5.211497E+03	2.806725E-16	3.359944E-18
5.221424E+03	2.817775E-16	3.368690E-18
5.231351E+03	2.829024E-16	3.377927E-18
5.241277E+03	2.840566E-16	3.387771E-18
5.251204E+03	2.852373E-16	3.398194E-18
5.261131E+03	2.864499E-16	3.409262E-18
5.271057E+03	2.876960E-16	3.420998E-18
5.280984E+03	2.889763E-16	3.433416E-18
5.290911E+03	2.902910E-16	3.446523E-18
5.300837E+03	2.916399E-16	3.460320E-18
5.310764E+03	2.930188E-16	3.474764E-18
5.320691E+03	2.944268E-16	3.489848E-18
5.330617E+03	2.958693E-16	3.505645E-18
5.340544E+03	2.973378E-16	3.522057E-18
5.350471E+03	2.988403E-16	3.539189E-18
5.360397E+03	3.003793E-16	3.557075E-18
5.370324E+03	3.019404E-16	3.575544E-18
5.380251E+03	3.034849E-16	3.594137E-18
5.390177E+03	3.049692E-16	3.612340E-18
5.400104E+03	3.063493E-16	3.629627E-18
5.410031E+03	3.075814E-16	3.645478E-18
5.419957E+03	3.086232E-16	3.659388E-18
5.429884E+03	3.094341E-16	3.670872E-18
5.439811E+03	3.099734E-16	3.679438E-18
5.449737E+03	3.102096E-16	3.684703E-18
5.459664E+03	3.101085E-16	3.686248E-18
5.469591E+03	3.096464E-16	3.683779E-18
5.479517E+03	3.087987E-16	3.676986E-18
5.489444E+03	3.075507E-16	3.665675E-18
5.499371E+03	3.058987E-16	3.649780E-18
5.509297E+03	3.038414E-16	3.629262E-18
5.519224E+03	3.013951E-16	3.604291E-18
5.529151E+03	2.985698E-16	3.574959E-18
5.539077E+03	2.954019E-16	3.541677E-18
5.549004E+03	2.919241E-16	3.504810E-18
5.558931E+03	2.881801E-16	3.464855E-18
5.568857E+03	2.842234E-16	3.422432E-18
5.578784E+03	2.801062E-16	3.378147E-18
5.588711E+03	2.758947E-16	3.332777E-18
5.598637E+03	2.716590E-16	3.287155E-18
5.608564E+03	2.674632E-16	3.242044E-18
5.618491E+03	2.633825E-16	3.198346E-18
5.628417E+03	2.594797E-16	3.156826E-18
5.638344E+03	2.558254E-16	3.118344E-18
5.648271E+03	2.524758E-16	3.083594E-18
5.658197E+03	2.494899E-16	3.053313E-18
5.668124E+03	2.469188E-16	3.028147E-18
5.678051E+03	2.448057E-16	3.008651E-18
5.687977E+03	2.431897E-16	2.995340E-18
5.697904E+03	2.421057E-16	2.988677E-18
5.707831E+03	2.415756E-16	2.988978E-18
5.717757E+03	2.416181E-16	2.996520E-18
5.727684E+03	2.422358E-16	3.011383E-18
5.737611E+03	2.434283E-16	3.033616E-18
5.747537E+03	2.451835E-16	3.063123E-18
5.757464E+03	2.474801E-16	3.099693E-18
5.767391E+03	2.502850E-16	3.142968E-18
5.777317E+03	2.535610E-16	3.192537E-18
5.787244E+03	2.572549E-16	3.247778E-18
5.797171E+03	2.613135E-16	3.308075E-18
5.807097E+03	2.656683E-16	3.372602E-18
5.817024E+03	2.702425E-16	3.440423E-18
5.826950E+03	2.749575E-16	3.510572E-18
5.836877E+03	2.797241E-16	3.581931E-18
5.846804E+03	2.844543E-16	3.653388E-18
5.856730E+03	2.890532E-16	3.723730E-18
5.866657E+03	2.934271E-16	3.791743E-18
5.876584E+03	2.974957E-16	3.856369E-18
5.886510E+03	3.011758E-16	3.916500E-18
5.896437E+03	3.044026E-16	3.971256E-18
5.906364E+03	3.071170E-16	4.019814E-18
5.916290E+03	3.092752E-16	4.061542E-18
5.926217E+03	3.108489E-16	4.096001E-18
5.936144E+03	3.118139E-16	4.122801E-18
5.946070E+03	3.121704E-16	4.141867E-18
5.955997E+03	3.119187E-16	4.153124E-18
5.965924E+03	3.110823E-16	4.156801E-18
5.975850E+03	3.096822E-16	4.153097E-18
5.985777E+03	3.077538E-16	4.142408E-18
5.995704E+03	3.053449E-16	4.125297E-18
6.005630E+03	3.024957E-16	4.102236E-18
6.015557E+03	2.992587E-16	4.073867E-18
6.025484E+03	2.956842E-16	4.040812E-18
6.035410E+03	2.918227E-16	4.003703E-18
6.045337E+03	2.877201E-16	3.963120E-18
6.055264E+03	2.834284E-16	3.919734E-18
6.065190E+03	2.789852E-16	3.874026E-18
6.075117E+03	2.744357E-16	3.826593E-18
6.085044E+03	2.698109E-16	3.777839E-18
6.094970E+03	2.651438E-16	3.728205E-18
6.104897E+03	2.604672E-16	3.678129E-18
6.114824E+03	2.558032E-16	3.627907E-18
6.124750E+03	2.511722E-16	3.577810E-18
6.134677E+03	2.465954E-16	3.528132E-18
6.144604E+03	2.420974E-16	3.479217E-18
6.154530E+03	2.376992E-16	3.431369E-18
6.164457E+03	2.334252E-16	3.384943E-18
6.174384E+03	2.292977E-16	3.340275E-18
6.184310E+03	2.253322E-16	3.297604E-18
6.194237E+03	2.215484E-16	3.257238E-18
6.204164E+03	2.179660E-16	3.219494E-18
6.214090E+03	2.146027E-16	3.184662E-18
6.224017E+03	2.114737E-16	3.153003E-18
6.233944E+03	2.085981E-16	3.124842E-18
6.243870E+03	2.059939E-16	3.100493E-18
6.253797E+03	2.036711E-16	3.080157E-18
6.263724E+03	2.016460E-16	3.064130E-18
6.273650E+03	1.999271E-16	3.052603E-18
6.283577E+03	1.985178E-16	3.045686E-18
6.293504E+03	1.974229E-16	3.043518E-18
6.303430E+03	1.966351E-16	3.046046E-18
6.313357E+03	1.961505E-16	3.053276E-18
6.323284E+03	1.959578E-16	3.065094E-18
6.333210E+03	1.960406E-16	3.081305E-18
6.343137E+03	1.963854E-16	3.101756E-18
6.353064E+03	1.969703E-16	3.126155E-18
6.362990E+03	1.977749E-16	3.154231E-18
6.372917E+03	1.987730E-16	3.185610E-18
6.382844E+03	1.999383E-16	3.219915E-18
6.392770E+03	2.012476E-16	3.256805E-18
6.402697E+03	2.026664E-16	3.295752E-18
6.412624E+03	2.041682E-16	3.336348E-18
6.422550E+03	2.057226E-16	3.378110E-18
6.432477E+03	2.073022E-16	3.420596E-18
6.442404E+03	2.088788E-16	3.463346E-18
6.452330E+03	2.104266E-16	3.505924E-18
6.462257E+03	2.119284E-16	3.548037E-18
6.472184E+03	2.133681E-16	3.589398E-18
6.482110E+03	2.147344E-16	3.629801E-18
6.492037E+03	2.160123E-16	3.668970E-18
6.501963E+03	2.171959E-16	3.706782E-18
6.511890E+03	2.182794E-16	3.743111E-18
6.521817E+03	2.192560E-16	3.777815E-18
6.531743E+03	2.201204E-16	3.810771E-18
6.541670E+03	2.208698E-16	3.841901E-18
6.551597E+03	2.214995E-16	3.871095E-18
6.561523E+03	2.220074E-16	3.898280E-18
6.571450E+03	2.223837E-16	3.923256E-18
6.581377E+03	2.226287E-16	3.945988E-18
6.591303E+03	2.227358E-16	3.966326E-18
6.601230E+03	2.227037E-16	3.984211E-18
6.611157E+03	2.225300E-16	3.999561E-18
6.621083E+03	2.222137E-16	4.012322E-18
6.631010E+03	2.217532E-16	4.022426E-18
6.640937E+03	2.211561E-16	4.029975E-18
6.650863E+03	2.204249E-16	4.034978E-18
6.660790E+03	2.195643E-16	4.037485E-18
6.670717E+03	2.185882E-16	4.037719E-18
6.680643E+03	2.175051E-16	4.035808E-18
6.690570E+03	2.163301E-16	4.032003E-18
6.700497E+03	2.150749E-16	4.026500E-18
6.710423E+03	2.137548E-16	4.019565E-18
6.720350E+03	2.123886E-16	4.011534E-18
6.730277E+03	2.109907E-16	4.002669E-18
6.740203E+03	2.095811E-16	3.993341E-18
6.750130E+03	2.081751E-16	3.983838E-18
6.760057E+03	2.067927E-16	3.974543E-18
6.769983E+03	2.054489E-16	3.965755E-18
6.779910E+03	2.041656E-16	3.957903E-18
6.789837E+03	2.029520E-16	3.951180E-18
6.799763E+03	2.018307E-16	3.946047E-18
6.809690E+03	2.008116E-16	3.942719E-18
6.819617E+03	1.999106E-16	3.941533E-18
6.829543E+03	1.991399E-16	3.942761E-18
6.839470E+03	1.985106E-16	3.946652E-18
6.849397E+03	1.980298E-16	3.953386E-18
6.859323E+03	1.977080E-16	3.963207E-18
6.869250E+03	1.975520E-16	3.976291E-18
6.879177E+03	1.975643E-16	3.992726E-18
6.889103E+03	1.977503E-16	4.012666E-18
6.899030E+03	1.981089E-16	4.036129E-18
6.908957E+03	1.986441E-16	4.063238E-18
6.918883E+03	1.993462E-16	4.093836E-18
6.928810E+03	2.002153E-16	4.127962E-18
6.938737E+03	2.012448E-16	4.165524E-18
6.948663E+03	2.024239E-16	4.206336E-18
6.958590E+03	2.037425E-16	4.250216E-18
6.968517E+03	2.051910E-16	4.297002E-18
6.978443E+03	2.067538E-16	4.346394E-18
6.988370E+03	2.084167E-16	4.398120E-18
6.998297E+03	2.101648E-16	4.451884E-18
7.008223E+03	2.119828E-16	4.507383E-18
7.018150E+03	2.138529E-16	4.564254E-18
7.028077E+03	2.157655E-16	4.622298E-18
7.038003E+03	2.177011E-16	4.681105E-18
7.047930E+03	2.196485E-16	4.740442E-18
7.057857E+03	2.215925E-16	4.799978E-18
7.067783E+03	2.235211E-16	4.859451E-18
7.077710E+03	2.254265E-16	4.918684E-18
7.087637E+03	2.272960E-16	4.977395E-18
7.097563E+03	2.291210E-16	5.035383E-18
7.107490E+03	2.308937E-16	5.092463E-18
7.117417E+03	2.326042E-16	5.148409E-18
7.127343E+03	2.342494E-16	5.203130E-18
7.137270E+03	2.358236E-16	5.256485E-18
7.147197E+03	2.373188E-16	5.308275E-18
7.157123E+03	2.387297E-16	5.358365E-18
7.167050E+03	2.400510E-16	5.406614E-18
7.176976E+03	2.412800E-16	5.452941E-18
7.186903E+03	2.424045E-16	5.497045E-18
7.196830E+03	2.434204E-16	5.538808E-18
7.206756E+03	2.443169E-16	5.577959E-18
7.216683E+03	2.450918E-16	5.614419E-18
7.226610E+03	2.457271E-16	5.647745E-18
7.236536E+03	2.462198E-16	5.677837E-18
7.246463E+03	2.465574E-16	5.704375E-18
7.256390E+03	2.467340E-16	5.727182E-18
7.266316E+03	2.467346E-16	5.745874E-18
7.276243E+03	2.465575E-16	5.760372E-18
7.286170E+03	2.461898E-16	5.770334E-18
7.296096E+03	2.456328E-16	5.775747E-18
7.306023E+03	2.448778E-16	5.776362E-18
7.315950E+03	2.439308E-16	5.772281E-18
7.325876E+03	2.427884E-16	5.763379E-18
7.335803E+03	2.414626E-16	5.749896E-18
7.345730E+03	2.399589E-16	5.731927E-18
7.355656E+03	2.382858E-16	5.709637E-18
7.365583E+03	2.364633E-16	5.683466E-18
7.375510E+03	2.345070E-16	5.653765E-18
7.385436E+03	2.324283E-16	5.620774E-18
7.395363E+03	2.302477E-16	5.584969E-18
7.405290E+03	2.279830E-16	5.546761E-18
7.415216E+03	2.256541E-16	5.506619E-18
7.425143E+03	2.232711E-16	5.464776E-18
7.435070E+03	2.208514E-16	5.421649E-18
7.444996E+03	2.184052E-16	5.377482E-18
7.454923E+03	2.159490E-16	5.332684E-18
7.464850E+03	2.134871E-16	5.287351E-18
7.474776E+03	2.110274E-16	5.241688E-18
7.484703E+03	2.085793E-16	5.195926E-18
7.494630E+03	2.061457E-16	5.150139E-18
7.504556E+03	2.037309E-16	5.104442E-18
7.514483E+03	2.013383E-16	5.058925E-18
7.524410E+03	1.989732E-16	5.013725E-18
7.534336E+03	1.966347E-16	4.968827E-18
7.544263E+03	1.943265E-16	4.924330E-18
7.554190E+03	1.920439E-16	4.880123E-18
7.564116E+03	1.897919E-16	4.836341E-18
7.574043E+03	1.875680E-16	4.792925E-18
7.583970E+03	1.853743E-16	4.749934E-18
7.593896E+03	1.832080E-16	4.707308E-18
7.603823E+03	1.810696E-16	4.665063E-18
7.613750E+03	1.789619E-16	4.623279E-18
7.623676E+03	1.768831E-16	4.581916E-18
7.633603E+03	1.748360E-16	4.541056E-18
7.643530E+03	1.728192E-16	4.500665E-18
7.653456E+03	1.708351E-16	4.460818E-18
7.663383E+03	1.688821E-16	4.421478E-18
7.673310E+03	1.669647E-16	4.382773E-18
7.683236E+03	1.650789E-16	4.344600E-18
7.693163E+03	1.632244E-16	4.306965E-18
7.703090E+03	1.614056E-16	4.269988E-18
