#wls	flux	fluxerr
1.588266E+03	1.849146E-17	5.730830E-19
1.627973E+03	1.922059E-17	5.946659E-19
1.667679E+03	1.983892E-17	6.127232E-19
1.707386E+03	2.032679E-17	6.266633E-19
1.747092E+03	2.067203E-17	6.361308E-19
1.786799E+03	2.083797E-17	6.400224E-19
1.826506E+03	2.078093E-17	6.370284E-19
1.866212E+03	2.044588E-17	6.255055E-19
1.905919E+03	1.979255E-17	6.042758E-19
1.945626E+03	1.880314E-17	5.728596E-19
1.985332E+03	1.752123E-17	5.326509E-19
2.025039E+03	1.607802E-17	4.876921E-19
2.064746E+03	1.470349E-17	4.449830E-19
2.104452E+03	1.369316E-17	4.134381E-19
2.144159E+03	1.329909E-17	4.005772E-19
2.183866E+03	1.366540E-17	4.105977E-19
2.223572E+03	1.479462E-17	4.434050E-19
2.263279E+03	1.658466E-17	4.957666E-19
2.302986E+03	1.885544E-17	5.621505E-19
2.342692E+03	2.142470E-17	6.370101E-19
2.382399E+03	2.412646E-17	7.153368E-19
2.422105E+03	2.684193E-17	7.935704E-19
2.461812E+03	2.950104E-17	8.696258E-19
2.501519E+03	3.206326E-17	9.423105E-19
2.541225E+03	3.451016E-17	1.011095E-18
2.580932E+03	3.683627E-17	1.075837E-18
2.620639E+03	3.904273E-17	1.136587E-18
2.660345E+03	4.114013E-17	1.193673E-18
2.700052E+03	4.313347E-17	1.247258E-18
2.739759E+03	4.502706E-17	1.297483E-18
2.779465E+03	4.683821E-17	1.344865E-18
2.819172E+03	4.856922E-17	1.389481E-18
2.858879E+03	5.022065E-17	1.431362E-18
2.898585E+03	5.181397E-17	1.471132E-18
2.938292E+03	5.335485E-17	1.508960E-18
2.977999E+03	5.485518E-17	1.545188E-18
2.987925E+03	5.522645E-17	1.554066E-18
2.997852E+03	5.559532E-17	1.562849E-18
3.007779E+03	5.596168E-17	1.571532E-18
3.017705E+03	5.632542E-17	1.580113E-18
3.027632E+03	5.668645E-17	1.588590E-18
3.037559E+03	5.705408E-17	1.597223E-18
3.047485E+03	5.742311E-17	1.605865E-18
3.057412E+03	5.780495E-17	1.614837E-18
3.067339E+03	5.820486E-17	1.624282E-18
3.077265E+03	5.861327E-17	1.633933E-18
3.087192E+03	5.903565E-17	1.643941E-18
3.097118E+03	5.946281E-17	1.654048E-18
3.107045E+03	5.990050E-17	1.664415E-18
3.116972E+03	6.034720E-17	1.674997E-18
3.126898E+03	6.079401E-17	1.685547E-18
3.136825E+03	6.125451E-17	1.696441E-18
3.146752E+03	6.171260E-17	1.707231E-18
3.156678E+03	6.217456E-17	1.718093E-18
3.166605E+03	6.263934E-17	1.728996E-18
3.176532E+03	6.310596E-17	1.739912E-18
3.186458E+03	6.358090E-17	1.751020E-18
3.196385E+03	6.405590E-17	1.762091E-18
3.206312E+03	6.453021E-17	1.773106E-18
3.216238E+03	6.500307E-17	1.784042E-18
3.226165E+03	6.548114E-17	1.795082E-18
3.236092E+03	6.596374E-17	1.806208E-18
3.246018E+03	6.644300E-17	1.817203E-18
3.255945E+03	6.692559E-17	1.828249E-18
3.265872E+03	6.741097E-17	1.839331E-18
3.275798E+03	6.789859E-17	1.850435E-18
3.285725E+03	6.838795E-17	1.861545E-18
3.295652E+03	6.887863E-17	1.872651E-18
3.305578E+03	6.937719E-17	1.883930E-18
3.315505E+03	6.986907E-17	1.894985E-18
3.325432E+03	7.037499E-17	1.906380E-18
3.335358E+03	7.088038E-17	1.917718E-18
3.345285E+03	7.138486E-17	1.928989E-18
3.355212E+03	7.190194E-17	1.940556E-18
3.365138E+03	7.241725E-17	1.952033E-18
3.375065E+03	7.294414E-17	1.963777E-18
3.384992E+03	7.346852E-17	1.975410E-18
3.394918E+03	7.400350E-17	1.987282E-18
3.404845E+03	7.454857E-17	1.999379E-18
3.414772E+03	7.509649E-17	2.011506E-18
3.424698E+03	7.565350E-17	2.023830E-18
3.434625E+03	7.621903E-17	2.036333E-18
3.444552E+03	7.678604E-17	2.048828E-18
3.454478E+03	7.736703E-17	2.061647E-18
3.464405E+03	7.796133E-17	2.074770E-18
3.474332E+03	7.855555E-17	2.087840E-18
3.484258E+03	7.916823E-17	2.101349E-18
3.494185E+03	7.978602E-17	2.114941E-18
3.504112E+03	8.041461E-17	2.128766E-18
3.514038E+03	8.105333E-17	2.142805E-18
3.523965E+03	8.170146E-17	2.157038E-18
3.533892E+03	8.235839E-17	2.171447E-18
3.543818E+03	8.302943E-17	2.186171E-18
3.553745E+03	8.371373E-17	2.201187E-18
3.563672E+03	8.441051E-17	2.216471E-18
3.573598E+03	8.511894E-17	2.232001E-18
3.583525E+03	8.583820E-17	2.247754E-18
3.593452E+03	8.656749E-17	2.263708E-18
3.603378E+03	8.731168E-17	2.279988E-18
3.613305E+03	8.806416E-17	2.296420E-18
3.623232E+03	8.882976E-17	2.313130E-18
3.633158E+03	8.961302E-17	2.330233E-18
3.643085E+03	9.040193E-17	2.347416E-18
3.653012E+03	9.120653E-17	2.364938E-18
3.662938E+03	9.202038E-17	2.382630E-18
3.672865E+03	9.284785E-17	2.400604E-18
3.682792E+03	9.368789E-17	2.418832E-18
3.692718E+03	9.453943E-17	2.437285E-18
3.702645E+03	9.540145E-17	2.455934E-18
3.712572E+03	9.627287E-17	2.474751E-18
3.722498E+03	9.715775E-17	2.493838E-18
3.732425E+03	9.804990E-17	2.513036E-18
3.742352E+03	9.895819E-17	2.532570E-18
3.752278E+03	9.987156E-17	2.552156E-18
3.762205E+03	1.007939E-16	2.571892E-18
3.772131E+03	1.017240E-16	2.591746E-18
3.782058E+03	1.026655E-16	2.611813E-18
3.791985E+03	1.036173E-16	2.632057E-18
3.801911E+03	1.045688E-16	2.652212E-18
3.811838E+03	1.055328E-16	2.672604E-18
3.821765E+03	1.065035E-16	2.693081E-18
3.831691E+03	1.074753E-16	2.713502E-18
3.841618E+03	1.084559E-16	2.734062E-18
3.851545E+03	1.094354E-16	2.754511E-18
3.861471E+03	1.104215E-16	2.775039E-18
3.871398E+03	1.114129E-16	2.795616E-18
3.881325E+03	1.124000E-16	2.816001E-18
3.891251E+03	1.133902E-16	2.836378E-18
3.901178E+03	1.143824E-16	2.856719E-18
3.911105E+03	1.153714E-16	2.876896E-18
3.921031E+03	1.163602E-16	2.896983E-18
3.930958E+03	1.173479E-16	2.916956E-18
3.940885E+03	1.183293E-16	2.936691E-18
3.950811E+03	1.193038E-16	2.956168E-18
3.960738E+03	1.202781E-16	2.975557E-18
3.970665E+03	1.212399E-16	2.994553E-18
3.980591E+03	1.221960E-16	3.013328E-18
3.990518E+03	1.231458E-16	3.031866E-18
4.000445E+03	1.240852E-16	3.050066E-18
4.010371E+03	1.250141E-16	3.067926E-18
4.020298E+03	1.259324E-16	3.085450E-18
4.030225E+03	1.268404E-16	3.102645E-18
4.040151E+03	1.277386E-16	3.119522E-18
4.050078E+03	1.286241E-16	3.136012E-18
4.060005E+03	1.295009E-16	3.152216E-18
4.069931E+03	1.303663E-16	3.168070E-18
4.079858E+03	1.312181E-16	3.183520E-18
4.089785E+03	1.320606E-16	3.198674E-18
4.099711E+03	1.328916E-16	3.213481E-18
4.109638E+03	1.337127E-16	3.227978E-18
4.119565E+03	1.345255E-16	3.242205E-18
4.129491E+03	1.353254E-16	3.256059E-18
4.139418E+03	1.361179E-16	3.269667E-18
4.149345E+03	1.369021E-16	3.283012E-18
4.159271E+03	1.376805E-16	3.296154E-18
4.169198E+03	1.384525E-16	3.309083E-18
4.179125E+03	1.392180E-16	3.321792E-18
4.189051E+03	1.399795E-16	3.334347E-18
4.198978E+03	1.407398E-16	3.346811E-18
4.208905E+03	1.414957E-16	3.359113E-18
4.218831E+03	1.422499E-16	3.371318E-18
4.228758E+03	1.430024E-16	3.383422E-18
4.238685E+03	1.437558E-16	3.395490E-18
4.248611E+03	1.445072E-16	3.407455E-18
4.258538E+03	1.452617E-16	3.419438E-18
4.268465E+03	1.460139E-16	3.431310E-18
4.278391E+03	1.467661E-16	3.443126E-18
4.288318E+03	1.475202E-16	3.454934E-18
4.298245E+03	1.482730E-16	3.466658E-18
4.308171E+03	1.490262E-16	3.478337E-18
4.318098E+03	1.497761E-16	3.489889E-18
4.328025E+03	1.505217E-16	3.501286E-18
4.337951E+03	1.512640E-16	3.512558E-18
4.347878E+03	1.520016E-16	3.523672E-18
4.357805E+03	1.527284E-16	3.534487E-18
4.367731E+03	1.534479E-16	3.545088E-18
4.377658E+03	1.541566E-16	3.555395E-18
4.387585E+03	1.548539E-16	3.565393E-18
4.397511E+03	1.555392E-16	3.575076E-18
4.407438E+03	1.562127E-16	3.584449E-18
4.417365E+03	1.568728E-16	3.593474E-18
4.427291E+03	1.575247E-16	3.602278E-18
4.437218E+03	1.581695E-16	3.610882E-18
4.447144E+03	1.588126E-16	3.619415E-18
4.457071E+03	1.594571E-16	3.627947E-18
4.466998E+03	1.601016E-16	3.636447E-18
4.476924E+03	1.607556E-16	3.645131E-18
4.486851E+03	1.614173E-16	3.653957E-18
4.496778E+03	1.620937E-16	3.663083E-18
4.506704E+03	1.627825E-16	3.672459E-18
4.516631E+03	1.634882E-16	3.682183E-18
4.526558E+03	1.642149E-16	3.692346E-18
4.536484E+03	1.649645E-16	3.702990E-18
4.546411E+03	1.657386E-16	3.714152E-18
4.556338E+03	1.665392E-16	3.725869E-18
4.566264E+03	1.673700E-16	3.738226E-18
4.576191E+03	1.682328E-16	3.751259E-18
4.586118E+03	1.691293E-16	3.765005E-18
4.596044E+03	1.700637E-16	3.779552E-18
4.605971E+03	1.710379E-16	3.794944E-18
4.615898E+03	1.720565E-16	3.811272E-18
4.625824E+03	1.731236E-16	3.828631E-18
4.635751E+03	1.742395E-16	3.847016E-18
4.645678E+03	1.754080E-16	3.866514E-18
4.655604E+03	1.766330E-16	3.887203E-18
4.665531E+03	1.779178E-16	3.909150E-18
4.675458E+03	1.792603E-16	3.932306E-18
4.685384E+03	1.806640E-16	3.956744E-18
4.695311E+03	1.821247E-16	3.982363E-18
4.705238E+03	1.836434E-16	4.009185E-18
4.715164E+03	1.852137E-16	4.037064E-18
4.725091E+03	1.868330E-16	4.065941E-18
4.735018E+03	1.884961E-16	4.095699E-18
4.744944E+03	1.901973E-16	4.126212E-18
4.754871E+03	1.919355E-16	4.157456E-18
4.764798E+03	1.937006E-16	4.189209E-18
4.774724E+03	1.954918E-16	4.221452E-18
4.784651E+03	1.973039E-16	4.254077E-18
4.794578E+03	1.991328E-16	4.286992E-18
4.804504E+03	2.009753E-16	4.320131E-18
4.814431E+03	2.028298E-16	4.353461E-18
4.824358E+03	2.046984E-16	4.387027E-18
4.834284E+03	2.065829E-16	4.420869E-18
4.844211E+03	2.084861E-16	4.455049E-18
4.854138E+03	2.104144E-16	4.489705E-18
4.864064E+03	2.123676E-16	4.524831E-18
4.873991E+03	2.143556E-16	4.560639E-18
4.883918E+03	2.163835E-16	4.597236E-18
4.893844E+03	2.184557E-16	4.634718E-18
4.903771E+03	2.205780E-16	4.673205E-18
4.913698E+03	2.227466E-16	4.712613E-18
4.923624E+03	2.249643E-16	4.753000E-18
4.933551E+03	2.272247E-16	4.794231E-18
4.943478E+03	2.295152E-16	4.836038E-18
4.953404E+03	2.318277E-16	4.878253E-18
4.963331E+03	2.341417E-16	4.920442E-18
4.973258E+03	2.364452E-16	4.962360E-18
4.983184E+03	2.387180E-16	5.003585E-18
4.993111E+03	2.409422E-16	5.043749E-18
5.003038E+03	2.431037E-16	5.082564E-18
5.012964E+03	2.451853E-16	5.119676E-18
5.022891E+03	2.471779E-16	5.154908E-18
5.032818E+03	2.490735E-16	5.188104E-18
5.042744E+03	2.508649E-16	5.219120E-18
5.052671E+03	2.525537E-16	5.248000E-18
5.062598E+03	2.541419E-16	5.274799E-18
5.072524E+03	2.556340E-16	5.299621E-18
5.082451E+03	2.570367E-16	5.322609E-18
5.092378E+03	2.583580E-16	5.343940E-18
5.102304E+03	2.596065E-16	5.363800E-18
5.112231E+03	2.607910E-16	5.382379E-18
5.122158E+03	2.619205E-16	5.399868E-18
5.132084E+03	2.630038E-16	5.416452E-18
5.142011E+03	2.640493E-16	5.432311E-18
5.151937E+03	2.650648E-16	5.447612E-18
5.161864E+03	2.660578E-16	5.462509E-18
5.171791E+03	2.670344E-16	5.477135E-18
5.181717E+03	2.680004E-16	5.491607E-18
5.191644E+03	2.689606E-16	5.506031E-18
5.201571E+03	2.699225E-16	5.520560E-18
5.211497E+03	2.708845E-16	5.535164E-18
5.221424E+03	2.718532E-16	5.549981E-18
5.231351E+03	2.728320E-16	5.565080E-18
5.241277E+03	2.738236E-16	5.580521E-18
5.251204E+03	2.748275E-16	5.596295E-18
5.261131E+03	2.758512E-16	5.612553E-18
5.271057E+03	2.768898E-16	5.629200E-18
5.280984E+03	2.779465E-16	5.646303E-18
5.290911E+03	2.790179E-16	5.663793E-18
5.300837E+03	2.801056E-16	5.681706E-18
5.310764E+03	2.812076E-16	5.700002E-18
5.320691E+03	2.823180E-16	5.718565E-18
5.330617E+03	2.834361E-16	5.737381E-18
5.340544E+03	2.845547E-16	5.756312E-18
5.350471E+03	2.856690E-16	5.775256E-18
5.360397E+03	2.867745E-16	5.794131E-18
5.370324E+03	2.878559E-16	5.812628E-18
5.380251E+03	2.888907E-16	5.830292E-18
5.390177E+03	2.898608E-16	5.846760E-18
5.400104E+03	2.907367E-16	5.861444E-18
5.410031E+03	2.914878E-16	5.873725E-18
5.419957E+03	2.920918E-16	5.883160E-18
5.429884E+03	2.925155E-16	5.889087E-18
5.439811E+03	2.927333E-16	5.890991E-18
5.449737E+03	2.927242E-16	5.888456E-18
5.459664E+03	2.924666E-16	5.881053E-18
5.469591E+03	2.919388E-16	5.868349E-18
5.479517E+03	2.911255E-16	5.850042E-18
5.489444E+03	2.900189E-16	5.825979E-18
5.499371E+03	2.886084E-16	5.795949E-18
5.509297E+03	2.869033E-16	5.760143E-18
5.519224E+03	2.849050E-16	5.718588E-18
5.529151E+03	2.826292E-16	5.671606E-18
5.539077E+03	2.800925E-16	5.619523E-18
5.549004E+03	2.773253E-16	5.562953E-18
5.558931E+03	2.743532E-16	5.502408E-18
5.568857E+03	2.712158E-16	5.438679E-18
5.578784E+03	2.679582E-16	5.372665E-18
5.588711E+03	2.646226E-16	5.305212E-18
5.598637E+03	2.612657E-16	5.237450E-18
5.608564E+03	2.579362E-16	5.170351E-18
5.618491E+03	2.546941E-16	5.105113E-18
5.628417E+03	2.515887E-16	5.042723E-18
5.638344E+03	2.486782E-16	4.984336E-18
5.648271E+03	2.460077E-16	4.930857E-18
5.658197E+03	2.436268E-16	4.883277E-18
5.668124E+03	2.415788E-16	4.842459E-18
5.678051E+03	2.399025E-16	4.809179E-18
5.687977E+03	2.386294E-16	4.784071E-18
5.697904E+03	2.377899E-16	4.767740E-18
5.707831E+03	2.374029E-16	4.760569E-18
5.717757E+03	2.374845E-16	4.762883E-18
5.727684E+03	2.380356E-16	4.774704E-18
5.737611E+03	2.390574E-16	4.796058E-18
5.747537E+03	2.405352E-16	4.826663E-18
5.757464E+03	2.424487E-16	4.866111E-18
5.767391E+03	2.447694E-16	4.913840E-18
5.777317E+03	2.474586E-16	4.969083E-18
5.787244E+03	2.504750E-16	5.031016E-18
5.797171E+03	2.537653E-16	5.098577E-18
5.807097E+03	2.572719E-16	5.170616E-18
5.817024E+03	2.609341E-16	5.245921E-18
5.826950E+03	2.646789E-16	5.323032E-18
5.836877E+03	2.684375E-16	5.400569E-18
5.846804E+03	2.721365E-16	5.477058E-18
5.856730E+03	2.757000E-16	5.550974E-18
5.866657E+03	2.790569E-16	5.620885E-18
5.876584E+03	2.821443E-16	5.685523E-18
5.886510E+03	2.848991E-16	5.743610E-18
5.896437E+03	2.872778E-16	5.794265E-18
5.906364E+03	2.892330E-16	5.836522E-18
5.916290E+03	2.907437E-16	5.869947E-18
5.926217E+03	2.917823E-16	5.893970E-18
5.936144E+03	2.923446E-16	5.908492E-18
5.946070E+03	2.924274E-16	5.913433E-18
5.955997E+03	2.920390E-16	5.908947E-18
5.965924E+03	2.911928E-16	5.895285E-18
5.975850E+03	2.899144E-16	5.872953E-18
5.985777E+03	2.882326E-16	5.842515E-18
5.995704E+03	2.861775E-16	5.804566E-18
6.005630E+03	2.837827E-16	5.759768E-18
6.015557E+03	2.810915E-16	5.708987E-18
6.025484E+03	2.781373E-16	5.652887E-18
6.035410E+03	2.749610E-16	5.592285E-18
6.045337E+03	2.715971E-16	5.527869E-18
6.055264E+03	2.680806E-16	5.460341E-18
6.065190E+03	2.644439E-16	5.390354E-18
6.075117E+03	2.607143E-16	5.318451E-18
6.085044E+03	2.569189E-16	5.245179E-18
6.094970E+03	2.530822E-16	5.171032E-18
6.104897E+03	2.492264E-16	5.096455E-18
6.114824E+03	2.453690E-16	5.021801E-18
6.124750E+03	2.415330E-16	4.947535E-18
6.134677E+03	2.377350E-16	4.873992E-18
6.144604E+03	2.339905E-16	4.801486E-18
6.154530E+03	2.303096E-16	4.730228E-18
6.164457E+03	2.267121E-16	4.660616E-18
6.174384E+03	2.232116E-16	4.592933E-18
6.184310E+03	2.198238E-16	4.527505E-18
6.194237E+03	2.165670E-16	4.464709E-18
6.204164E+03	2.134548E-16	4.404831E-18
6.214090E+03	2.105075E-16	4.348293E-18
6.224017E+03	2.077389E-16	4.295387E-18
6.233944E+03	2.051663E-16	4.246481E-18
6.243870E+03	2.028065E-16	4.201929E-18
6.253797E+03	2.006725E-16	4.162014E-18
6.263724E+03	1.987754E-16	4.126977E-18
6.273650E+03	1.971236E-16	4.097004E-18
6.283577E+03	1.957260E-16	4.072293E-18
6.293504E+03	1.945797E-16	4.052803E-18
6.303430E+03	1.936857E-16	4.038567E-18
6.313357E+03	1.930372E-16	4.029459E-18
6.323284E+03	1.926224E-16	4.025247E-18
6.333210E+03	1.924342E-16	4.025799E-18
6.343137E+03	1.924536E-16	4.030730E-18
6.353064E+03	1.926655E-16	4.039736E-18
6.362990E+03	1.930523E-16	4.052465E-18
6.372917E+03	1.935935E-16	4.068494E-18
6.382844E+03	1.942671E-16	4.087371E-18
6.392770E+03	1.950521E-16	4.108664E-18
6.402697E+03	1.959272E-16	4.131933E-18
6.412624E+03	1.968713E-16	4.156735E-18
6.422550E+03	1.978617E-16	4.182597E-18
6.432477E+03	1.988790E-16	4.209109E-18
6.442404E+03	1.999071E-16	4.235936E-18
6.452330E+03	2.009263E-16	4.262658E-18
6.462257E+03	2.019251E-16	4.289030E-18
6.472184E+03	2.028840E-16	4.314634E-18
6.482110E+03	2.037921E-16	4.339235E-18
6.492037E+03	2.046431E-16	4.362696E-18
6.501963E+03	2.054238E-16	4.384729E-18
6.511890E+03	2.061338E-16	4.405320E-18
6.521817E+03	2.067672E-16	4.424335E-18
6.531743E+03	2.073187E-16	4.441656E-18
6.541670E+03	2.077901E-16	4.457314E-18
6.551597E+03	2.081765E-16	4.471197E-18
6.561523E+03	2.084751E-16	4.483233E-18
6.571450E+03	2.086826E-16	4.493350E-18
6.581377E+03	2.087958E-16	4.501467E-18
6.591303E+03	2.088138E-16	4.507558E-18
6.601230E+03	2.087317E-16	4.511506E-18
6.611157E+03	2.085473E-16	4.513258E-18
6.621083E+03	2.082621E-16	4.512835E-18
6.631010E+03	2.078765E-16	4.510237E-18
6.640937E+03	2.073901E-16	4.505446E-18
6.650863E+03	2.068110E-16	4.498630E-18
6.660790E+03	2.061397E-16	4.489792E-18
6.670717E+03	2.053852E-16	4.479117E-18
6.680643E+03	2.045555E-16	4.466775E-18
6.690570E+03	2.036599E-16	4.452961E-18
6.700497E+03	2.027088E-16	4.437897E-18
6.710423E+03	2.017158E-16	4.421873E-18
6.720350E+03	2.006906E-16	4.405101E-18
6.730277E+03	1.996480E-16	4.387903E-18
6.740203E+03	1.985986E-16	4.370508E-18
6.750130E+03	1.975556E-16	4.353207E-18
6.760057E+03	1.965367E-16	4.336389E-18
6.769983E+03	1.955503E-16	4.320244E-18
6.779910E+03	1.946094E-16	4.305059E-18
6.789837E+03	1.937308E-16	4.291210E-18
6.799763E+03	1.929218E-16	4.278866E-18
6.809690E+03	1.921961E-16	4.268333E-18
6.819617E+03	1.915638E-16	4.259847E-18
6.829543E+03	1.910347E-16	4.253632E-18
6.839470E+03	1.906175E-16	4.249888E-18
6.849397E+03	1.903198E-16	4.248798E-18
6.859323E+03	1.901461E-16	4.250470E-18
6.869250E+03	1.901063E-16	4.255138E-18
6.879177E+03	1.902002E-16	4.262808E-18
6.889103E+03	1.904352E-16	4.273657E-18
6.899030E+03	1.908080E-16	4.287626E-18
6.908957E+03	1.913229E-16	4.304822E-18
6.918883E+03	1.919737E-16	4.325116E-18
6.928810E+03	1.927592E-16	4.348496E-18
6.938737E+03	1.936745E-16	4.374860E-18
6.948663E+03	1.947131E-16	4.404076E-18
6.958590E+03	1.958647E-16	4.435919E-18
6.968517E+03	1.971244E-16	4.470289E-18
6.978443E+03	1.984772E-16	4.506854E-18
6.988370E+03	1.999115E-16	4.545359E-18
6.998297E+03	2.014201E-16	4.585649E-18
7.008223E+03	2.029835E-16	4.627283E-18
7.018150E+03	2.045967E-16	4.670155E-18
7.028077E+03	2.062402E-16	4.713823E-18
7.038003E+03	2.079072E-16	4.758135E-18
7.047930E+03	2.095867E-16	4.802837E-18
7.057857E+03	2.112630E-16	4.847574E-18
7.067783E+03	2.129314E-16	4.892238E-18
7.077710E+03	2.145802E-16	4.936559E-18
7.087637E+03	2.162011E-16	4.980343E-18
7.097563E+03	2.177839E-16	5.023352E-18
7.107490E+03	2.193270E-16	5.065549E-18
7.117417E+03	2.208191E-16	5.106664E-18
7.127343E+03	2.222597E-16	5.146686E-18
7.137270E+03	2.236358E-16	5.185307E-18
7.147197E+03	2.249507E-16	5.222599E-18
7.157123E+03	2.261942E-16	5.258319E-18
7.167050E+03	2.273615E-16	5.292349E-18
7.176976E+03	2.284504E-16	5.324630E-18
7.186903E+03	2.294524E-16	5.354957E-18
7.196830E+03	2.303613E-16	5.383180E-18
7.206756E+03	2.311732E-16	5.409197E-18
7.216683E+03	2.318751E-16	5.432697E-18
7.226610E+03	2.324652E-16	5.453625E-18
7.236536E+03	2.329325E-16	5.471715E-18
7.246463E+03	2.332661E-16	5.486697E-18
7.256390E+03	2.334634E-16	5.498502E-18
7.266316E+03	2.335108E-16	5.506795E-18
7.276243E+03	2.334040E-16	5.511457E-18
7.286170E+03	2.331364E-16	5.512324E-18
7.296096E+03	2.327031E-16	5.509262E-18
7.306023E+03	2.321007E-16	5.502177E-18
7.315950E+03	2.313253E-16	5.490956E-18
7.325876E+03	2.303807E-16	5.475682E-18
7.335803E+03	2.292709E-16	5.456428E-18
7.345730E+03	2.280020E-16	5.433324E-18
7.355656E+03	2.265824E-16	5.406561E-18
7.365583E+03	2.250201E-16	5.376310E-18
7.375510E+03	2.233331E-16	5.342993E-18
7.385436E+03	2.215353E-16	5.306927E-18
7.395363E+03	2.196378E-16	5.268373E-18
7.405290E+03	2.176580E-16	5.227734E-18
7.415216E+03	2.156042E-16	5.185204E-18
7.425143E+03	2.134921E-16	5.141157E-18
7.435070E+03	2.113341E-16	5.095882E-18
7.444996E+03	2.091382E-16	5.049571E-18
7.454923E+03	2.069168E-16	5.002516E-18
7.464850E+03	2.046756E-16	4.954856E-18
7.474776E+03	2.024246E-16	4.906828E-18
7.484703E+03	2.001674E-16	4.858522E-18
7.494630E+03	1.979094E-16	4.810066E-18
7.504556E+03	1.956556E-16	4.761578E-18
7.514483E+03	1.934100E-16	4.713155E-18
7.524410E+03	1.911784E-16	4.664943E-18
7.534336E+03	1.889588E-16	4.616888E-18
7.544263E+03	1.867582E-16	4.569167E-18
7.554190E+03	1.845760E-16	4.521762E-18
7.564116E+03	1.824134E-16	4.474705E-18
7.574043E+03	1.802714E-16	4.428020E-18
7.583970E+03	1.781529E-16	4.381783E-18
7.593896E+03	1.760542E-16	4.335903E-18
7.603823E+03	1.739787E-16	4.290464E-18
7.613750E+03	1.719300E-16	4.245558E-18
7.623676E+03	1.699069E-16	4.201156E-18
7.633603E+03	1.679081E-16	4.157229E-18
7.643530E+03	1.659392E-16	4.113916E-18
7.653456E+03	1.640008E-16	4.071236E-18
7.663383E+03	1.620892E-16	4.029099E-18
7.673310E+03	1.602093E-16	3.987627E-18
7.683236E+03	1.583570E-16	3.946723E-18
7.693163E+03	1.565369E-16	3.906505E-18
7.703090E+03	1.547490E-16	3.866973E-18
