#wls	flux	fluxerr
1.588266E+03	1.553326E-17	4.079458E-19
1.627973E+03	1.621457E-17	4.258127E-19
1.667679E+03	1.680411E-17	4.412668E-19
1.707386E+03	1.729023E-17	4.540027E-19
1.747092E+03	1.766117E-17	4.637120E-19
1.786799E+03	1.787736E-17	4.693564E-19
1.826506E+03	1.790550E-17	4.700627E-19
1.866212E+03	1.769232E-17	4.644333E-19
1.905919E+03	1.719633E-17	4.513804E-19
1.945626E+03	1.640494E-17	4.305755E-19
1.985332E+03	1.534924E-17	4.028362E-19
2.025039E+03	1.413649E-17	3.709790E-19
2.064746E+03	1.297903E-17	3.405770E-19
2.104452E+03	1.213153E-17	3.183122E-19
2.144159E+03	1.182453E-17	3.102312E-19
2.183866E+03	1.219230E-17	3.198527E-19
2.223572E+03	1.324644E-17	3.474769E-19
2.263279E+03	1.489701E-17	3.907396E-19
2.302986E+03	1.699517E-17	4.457325E-19
2.342692E+03	1.937787E-17	5.081765E-19
2.382399E+03	2.189756E-17	5.741998E-19
2.422105E+03	2.445519E-17	6.412043E-19
2.461812E+03	2.697972E-17	7.073265E-19
2.501519E+03	2.944215E-17	7.718063E-19
2.541225E+03	3.182564E-17	8.342023E-19
2.580932E+03	3.413494E-17	8.946389E-19
2.620639E+03	3.636609E-17	9.530131E-19
2.660345E+03	3.853297E-17	1.009689E-18
2.700052E+03	4.064511E-17	1.064915E-18
2.739759E+03	4.271137E-17	1.118926E-18
2.779465E+03	4.474524E-17	1.172073E-18
2.819172E+03	4.674678E-17	1.224358E-18
2.858879E+03	4.873228E-17	1.276209E-18
2.898585E+03	5.070415E-17	1.327687E-18
2.938292E+03	5.267537E-17	1.379133E-18
2.977999E+03	5.464446E-17	1.430508E-18
2.987925E+03	5.513528E-17	1.443311E-18
2.997852E+03	5.562835E-17	1.456172E-18
3.007779E+03	5.612348E-17	1.469086E-18
3.017705E+03	5.662046E-17	1.482047E-18
3.027632E+03	5.711281E-17	1.494886E-18
3.037559E+03	5.760860E-17	1.507814E-18
3.047485E+03	5.811627E-17	1.521052E-18
3.057412E+03	5.863483E-17	1.534574E-18
3.067339E+03	5.917454E-17	1.548649E-18
3.077265E+03	5.972072E-17	1.562891E-18
3.087192E+03	6.028386E-17	1.577577E-18
3.097118E+03	6.084961E-17	1.592329E-18
3.107045E+03	6.142871E-17	1.607430E-18
3.116972E+03	6.201947E-17	1.622834E-18
3.126898E+03	6.261416E-17	1.638340E-18
3.136825E+03	6.321128E-17	1.653909E-18
3.146752E+03	6.380954E-17	1.669505E-18
3.156678E+03	6.441382E-17	1.685259E-18
3.166605E+03	6.502298E-17	1.701138E-18
3.176532E+03	6.563584E-17	1.717113E-18
3.186458E+03	6.624516E-17	1.732994E-18
3.196385E+03	6.685616E-17	1.748918E-18
3.206312E+03	6.746787E-17	1.764859E-18
3.216238E+03	6.807329E-17	1.780634E-18
3.226165E+03	6.868386E-17	1.796543E-18
3.236092E+03	6.929264E-17	1.812403E-18
3.246018E+03	6.989895E-17	1.828198E-18
3.255945E+03	7.050203E-17	1.843907E-18
3.265872E+03	7.110729E-17	1.859671E-18
3.275798E+03	7.170806E-17	1.875316E-18
3.285725E+03	7.230380E-17	1.890829E-18
3.295652E+03	7.289986E-17	1.906349E-18
3.305578E+03	7.349571E-17	1.921862E-18
3.315505E+03	7.408492E-17	1.937200E-18
3.325432E+03	7.467286E-17	1.952503E-18
3.335358E+03	7.525908E-17	1.967760E-18
3.345285E+03	7.584888E-17	1.983110E-18
3.355212E+03	7.643020E-17	1.998236E-18
3.365138E+03	7.700841E-17	2.013279E-18
3.375065E+03	7.758881E-17	2.028379E-18
3.384992E+03	7.816525E-17	2.043374E-18
3.394918E+03	7.874297E-17	2.058401E-18
3.404845E+03	7.931589E-17	2.073301E-18
3.414772E+03	7.988925E-17	2.088211E-18
3.424698E+03	8.046258E-17	2.103119E-18
3.434625E+03	8.103546E-17	2.118014E-18
3.444552E+03	8.160208E-17	2.132744E-18
3.454478E+03	8.217290E-17	2.147582E-18
3.464405E+03	8.274203E-17	2.162375E-18
3.474332E+03	8.331444E-17	2.177253E-18
3.484258E+03	8.388435E-17	2.192063E-18
3.494185E+03	8.445663E-17	2.206934E-18
3.504112E+03	8.503079E-17	2.221853E-18
3.514038E+03	8.560128E-17	2.236675E-18
3.523965E+03	8.617789E-17	2.251655E-18
3.533892E+03	8.675006E-17	2.266518E-18
3.543818E+03	8.732739E-17	2.281514E-18
3.553745E+03	8.790444E-17	2.296502E-18
3.563672E+03	8.848569E-17	2.311598E-18
3.573598E+03	8.907062E-17	2.326788E-18
3.583525E+03	8.965395E-17	2.341936E-18
3.593452E+03	9.024004E-17	2.357154E-18
3.603378E+03	9.083312E-17	2.372553E-18
3.613305E+03	9.142332E-17	2.387876E-18
3.623232E+03	9.201949E-17	2.403353E-18
3.633158E+03	9.262111E-17	2.418971E-18
3.643085E+03	9.322311E-17	2.434598E-18
3.653012E+03	9.382513E-17	2.450223E-18
3.662938E+03	9.443559E-17	2.466068E-18
3.672865E+03	9.504952E-17	2.482002E-18
3.682792E+03	9.566646E-17	2.498012E-18
3.692718E+03	9.628595E-17	2.514088E-18
3.702645E+03	9.691184E-17	2.530330E-18
3.712572E+03	9.753940E-17	2.546613E-18
3.722498E+03	9.817240E-17	2.563037E-18
3.732425E+03	9.881034E-17	2.579589E-18
3.742352E+03	9.945279E-17	2.596257E-18
3.752278E+03	1.000954E-16	2.612927E-18
3.762205E+03	1.007496E-16	2.629899E-18
3.772131E+03	1.014032E-16	2.646853E-18
3.782058E+03	1.020637E-16	2.663985E-18
3.791985E+03	1.027268E-16	2.681183E-18
3.801911E+03	1.033960E-16	2.698541E-18
3.811838E+03	1.040710E-16	2.716047E-18
3.821765E+03	1.047477E-16	2.733597E-18
3.831691E+03	1.054333E-16	2.751377E-18
3.841618E+03	1.061202E-16	2.769188E-18
3.851545E+03	1.068153E-16	2.787213E-18
3.861471E+03	1.075114E-16	2.805262E-18
3.871398E+03	1.082154E-16	2.823515E-18
3.881325E+03	1.089235E-16	2.841875E-18
3.891251E+03	1.096358E-16	2.860339E-18
3.901178E+03	1.103554E-16	2.878996E-18
3.911105E+03	1.110790E-16	2.897754E-18
3.921031E+03	1.118066E-16	2.916615E-18
3.930958E+03	1.125383E-16	2.935579E-18
3.940885E+03	1.132772E-16	2.954733E-18
3.950811E+03	1.140204E-16	2.973994E-18
3.960738E+03	1.147679E-16	2.993368E-18
3.970665E+03	1.155199E-16	3.012856E-18
3.980591E+03	1.162767E-16	3.032468E-18
3.990518E+03	1.170385E-16	3.052208E-18
4.000445E+03	1.178055E-16	3.072084E-18
4.010371E+03	1.185782E-16	3.092104E-18
4.020298E+03	1.193538E-16	3.112200E-18
4.030225E+03	1.201328E-16	3.132384E-18
4.040151E+03	1.209186E-16	3.152741E-18
4.050078E+03	1.217059E-16	3.173135E-18
4.060005E+03	1.224980E-16	3.193654E-18
4.069931E+03	1.232954E-16	3.214310E-18
4.079858E+03	1.240960E-16	3.235046E-18
4.089785E+03	1.249003E-16	3.255875E-18
4.099711E+03	1.257061E-16	3.276745E-18
4.109638E+03	1.265169E-16	3.297741E-18
4.119565E+03	1.273304E-16	3.318809E-18
4.129491E+03	1.281448E-16	3.339896E-18
4.139418E+03	1.289634E-16	3.361090E-18
4.149345E+03	1.297815E-16	3.382270E-18
4.159271E+03	1.306023E-16	3.403520E-18
4.169198E+03	1.314214E-16	3.424723E-18
4.179125E+03	1.322420E-16	3.445962E-18
4.189051E+03	1.330621E-16	3.467187E-18
4.198978E+03	1.338797E-16	3.488346E-18
4.208905E+03	1.346954E-16	3.509455E-18
4.218831E+03	1.355074E-16	3.530462E-18
4.228758E+03	1.363159E-16	3.551379E-18
4.238685E+03	1.371190E-16	3.572154E-18
4.248611E+03	1.379172E-16	3.592797E-18
4.258538E+03	1.387059E-16	3.613195E-18
4.268465E+03	1.394880E-16	3.633415E-18
4.278391E+03	1.402589E-16	3.653345E-18
4.288318E+03	1.410190E-16	3.672991E-18
4.298245E+03	1.417685E-16	3.692360E-18
4.308171E+03	1.425009E-16	3.711281E-18
4.318098E+03	1.432209E-16	3.729880E-18
4.328025E+03	1.439223E-16	3.747991E-18
4.337951E+03	1.446076E-16	3.765683E-18
4.347878E+03	1.452751E-16	3.782910E-18
4.357805E+03	1.459232E-16	3.799629E-18
4.367731E+03	1.465504E-16	3.815805E-18
4.377658E+03	1.471596E-16	3.831511E-18
4.387585E+03	1.477455E-16	3.846610E-18
4.397511E+03	1.483134E-16	3.861237E-18
4.407438E+03	1.488603E-16	3.875318E-18
4.417365E+03	1.493876E-16	3.888887E-18
4.427291E+03	1.498948E-16	3.901931E-18
4.437218E+03	1.503854E-16	3.914546E-18
4.447144E+03	1.508573E-16	3.926671E-18
4.457071E+03	1.513123E-16	3.938355E-18
4.466998E+03	1.517502E-16	3.949595E-18
4.476924E+03	1.521751E-16	3.960494E-18
4.486851E+03	1.525868E-16	3.971051E-18
4.496778E+03	1.529854E-16	3.981266E-18
4.506704E+03	1.533748E-16	3.991242E-18
4.516631E+03	1.537549E-16	4.000975E-18
4.526558E+03	1.541296E-16	4.010564E-18
4.536484E+03	1.544965E-16	4.019953E-18
4.546411E+03	1.548594E-16	4.029238E-18
4.556338E+03	1.552179E-16	4.038407E-18
4.566264E+03	1.555754E-16	4.047550E-18
4.576191E+03	1.559331E-16	4.056699E-18
4.586118E+03	1.562905E-16	4.065840E-18
4.596044E+03	1.566505E-16	4.075048E-18
4.605971E+03	1.570142E-16	4.084351E-18
4.615898E+03	1.573805E-16	4.093722E-18
4.625824E+03	1.577520E-16	4.103230E-18
4.635751E+03	1.581313E-16	4.112938E-18
4.645678E+03	1.585171E-16	4.122814E-18
4.655604E+03	1.589115E-16	4.132917E-18
4.665531E+03	1.593186E-16	4.143348E-18
4.675458E+03	1.597367E-16	4.154067E-18
4.685384E+03	1.601697E-16	4.165170E-18
4.695311E+03	1.606211E-16	4.176753E-18
4.705238E+03	1.610909E-16	4.188814E-18
4.715164E+03	1.615844E-16	4.201490E-18
4.725091E+03	1.621031E-16	4.214823E-18
4.735018E+03	1.626486E-16	4.228853E-18
4.744944E+03	1.632188E-16	4.243524E-18
4.754871E+03	1.638169E-16	4.258919E-18
4.764798E+03	1.644389E-16	4.274935E-18
4.774724E+03	1.650843E-16	4.291559E-18
4.784651E+03	1.657490E-16	4.308685E-18
4.794578E+03	1.664289E-16	4.326207E-18
4.804504E+03	1.671253E-16	4.344156E-18
4.814431E+03	1.678322E-16	4.362375E-18
4.824358E+03	1.685488E-16	4.380850E-18
4.834284E+03	1.692746E-16	4.399562E-18
4.844211E+03	1.700071E-16	4.418447E-18
4.854138E+03	1.707456E-16	4.437488E-18
4.864064E+03	1.714911E-16	4.456710E-18
4.873991E+03	1.722410E-16	4.476049E-18
4.883918E+03	1.729946E-16	4.495481E-18
4.893844E+03	1.737546E-16	4.515079E-18
4.903771E+03	1.745165E-16	4.534726E-18
4.913698E+03	1.752830E-16	4.554493E-18
4.923624E+03	1.760532E-16	4.574354E-18
4.933551E+03	1.768260E-16	4.594283E-18
4.943478E+03	1.776022E-16	4.614301E-18
4.953404E+03	1.783807E-16	4.634379E-18
4.963331E+03	1.791604E-16	4.654487E-18
4.973258E+03	1.799420E-16	4.674643E-18
4.983184E+03	1.807242E-16	4.694816E-18
4.993111E+03	1.815076E-16	4.715019E-18
5.003038E+03	1.822889E-16	4.735169E-18
5.012964E+03	1.830688E-16	4.755281E-18
5.022891E+03	1.838458E-16	4.775316E-18
5.032818E+03	1.846202E-16	4.795286E-18
5.042744E+03	1.853887E-16	4.815101E-18
5.052671E+03	1.861516E-16	4.834772E-18
5.062598E+03	1.869093E-16	4.854307E-18
5.072524E+03	1.876582E-16	4.873614E-18
5.082451E+03	1.883967E-16	4.892650E-18
5.092378E+03	1.891250E-16	4.911421E-18
5.102304E+03	1.898413E-16	4.929882E-18
5.112231E+03	1.905440E-16	4.947989E-18
5.122158E+03	1.912294E-16	4.965646E-18
5.132084E+03	1.918995E-16	4.982907E-18
5.142011E+03	1.925526E-16	4.999727E-18
5.151937E+03	1.931830E-16	5.015959E-18
5.161864E+03	1.937948E-16	5.031708E-18
5.171791E+03	1.943805E-16	5.046777E-18
5.181717E+03	1.949440E-16	5.061275E-18
5.191644E+03	1.954799E-16	5.075052E-18
5.201571E+03	1.959862E-16	5.088066E-18
5.211497E+03	1.964656E-16	5.100377E-18
5.221424E+03	1.969122E-16	5.111842E-18
5.231351E+03	1.973286E-16	5.122522E-18
5.241277E+03	1.977093E-16	5.132277E-18
5.251204E+03	1.980570E-16	5.141173E-18
5.261131E+03	1.983681E-16	5.149125E-18
5.271057E+03	1.986417E-16	5.156101E-18
5.280984E+03	1.988784E-16	5.162122E-18
5.290911E+03	1.990754E-16	5.167112E-18
5.300837E+03	1.992336E-16	5.171098E-18
5.310764E+03	1.993543E-16	5.174111E-18
5.320691E+03	1.994328E-16	5.176031E-18
5.330617E+03	1.994726E-16	5.176948E-18
5.340544E+03	1.994733E-16	5.176852E-18
5.350471E+03	1.994366E-16	5.175788E-18
5.360397E+03	1.993606E-16	5.173703E-18
5.370324E+03	1.992472E-16	5.170651E-18
5.380251E+03	1.990967E-16	5.166639E-18
5.390177E+03	1.989116E-16	5.161728E-18
5.400104E+03	1.986944E-16	5.155986E-18
5.410031E+03	1.984436E-16	5.149376E-18
5.419957E+03	1.981623E-16	5.141974E-18
5.429884E+03	1.978531E-16	5.133853E-18
5.439811E+03	1.975153E-16	5.124988E-18
5.449737E+03	1.971517E-16	5.115459E-18
5.459664E+03	1.967638E-16	5.105299E-18
5.469591E+03	1.963507E-16	5.094487E-18
5.479517E+03	1.959177E-16	5.083162E-18
5.489444E+03	1.954624E-16	5.071258E-18
5.499371E+03	1.949861E-16	5.058814E-18
5.509297E+03	1.944905E-16	5.045868E-18
5.519224E+03	1.939771E-16	5.032463E-18
5.529151E+03	1.934474E-16	5.018639E-18
5.539077E+03	1.928993E-16	5.004337E-18
5.549004E+03	1.923363E-16	4.989652E-18
5.558931E+03	1.917602E-16	4.974627E-18
5.568857E+03	1.911687E-16	4.959206E-18
5.578784E+03	1.905655E-16	4.943482E-18
5.588711E+03	1.899521E-16	4.927497E-18
5.598637E+03	1.893285E-16	4.911246E-18
5.608564E+03	1.886961E-16	4.894771E-18
5.618491E+03	1.880547E-16	4.878066E-18
5.628417E+03	1.874078E-16	4.861217E-18
5.638344E+03	1.867568E-16	4.844266E-18
5.648271E+03	1.860996E-16	4.827152E-18
5.658197E+03	1.854412E-16	4.810011E-18
5.668124E+03	1.847810E-16	4.792825E-18
5.678051E+03	1.841204E-16	4.775631E-18
5.687977E+03	1.834605E-16	4.758457E-18
5.697904E+03	1.828007E-16	4.741285E-18
5.707831E+03	1.821438E-16	4.724192E-18
5.717757E+03	1.814908E-16	4.707200E-18
5.727684E+03	1.808425E-16	4.690333E-18
5.737611E+03	1.801980E-16	4.673564E-18
5.747537E+03	1.795579E-16	4.656913E-18
5.757464E+03	1.789247E-16	4.640441E-18
5.767391E+03	1.782971E-16	4.624119E-18
5.777317E+03	1.776776E-16	4.608004E-18
5.787244E+03	1.770645E-16	4.592060E-18
5.797171E+03	1.764585E-16	4.576298E-18
5.807097E+03	1.758613E-16	4.560770E-18
5.817024E+03	1.752699E-16	4.545391E-18
5.826950E+03	1.746878E-16	4.530256E-18
5.836877E+03	1.741135E-16	4.515324E-18
5.846804E+03	1.735471E-16	4.500597E-18
5.856730E+03	1.729868E-16	4.486031E-18
5.866657E+03	1.724361E-16	4.471715E-18
5.876584E+03	1.718932E-16	4.457604E-18
5.886510E+03	1.713566E-16	4.443655E-18
5.896437E+03	1.708277E-16	4.429908E-18
5.906364E+03	1.703064E-16	4.416362E-18
5.916290E+03	1.697911E-16	4.402970E-18
5.926217E+03	1.692832E-16	4.389773E-18
5.936144E+03	1.687827E-16	4.376768E-18
5.946070E+03	1.682877E-16	4.363907E-18
5.955997E+03	1.677998E-16	4.351231E-18
5.965924E+03	1.673171E-16	4.338691E-18
5.975850E+03	1.668411E-16	4.326326E-18
5.985777E+03	1.663716E-16	4.314132E-18
5.995704E+03	1.659068E-16	4.302061E-18
6.005630E+03	1.654464E-16	4.290105E-18
6.015557E+03	1.649935E-16	4.278345E-18
6.025484E+03	1.645430E-16	4.266647E-18
6.035410E+03	1.640994E-16	4.255130E-18
6.045337E+03	1.636592E-16	4.243703E-18
6.055264E+03	1.632221E-16	4.232358E-18
6.065190E+03	1.627894E-16	4.221127E-18
6.075117E+03	1.623592E-16	4.209962E-18
6.085044E+03	1.619294E-16	4.198810E-18
6.094970E+03	1.615014E-16	4.187704E-18
6.104897E+03	1.610716E-16	4.176552E-18
6.114824E+03	1.606395E-16	4.165344E-18
6.124750E+03	1.602034E-16	4.154032E-18
6.134677E+03	1.597627E-16	4.142603E-18
6.144604E+03	1.593158E-16	4.131013E-18
6.154530E+03	1.588638E-16	4.119292E-18
6.164457E+03	1.584096E-16	4.107515E-18
6.174384E+03	1.579531E-16	4.095680E-18
6.184310E+03	1.574939E-16	4.083777E-18
6.194237E+03	1.570336E-16	4.071844E-18
6.204164E+03	1.565719E-16	4.059876E-18
6.214090E+03	1.561086E-16	4.047869E-18
6.224017E+03	1.556452E-16	4.035859E-18
6.233944E+03	1.551799E-16	4.023803E-18
6.243870E+03	1.547142E-16	4.011735E-18
6.253797E+03	1.542464E-16	3.999613E-18
6.263724E+03	1.537763E-16	3.987433E-18
6.273650E+03	1.533052E-16	3.975230E-18
6.283577E+03	1.528301E-16	3.962920E-18
6.293504E+03	1.523537E-16	3.950580E-18
6.303430E+03	1.518744E-16	3.938165E-18
6.313357E+03	1.513936E-16	3.925713E-18
6.323284E+03	1.509080E-16	3.913136E-18
6.333210E+03	1.504208E-16	3.900516E-18
6.343137E+03	1.499284E-16	3.887765E-18
6.353064E+03	1.494340E-16	3.874962E-18
6.362990E+03	1.489374E-16	3.862104E-18
6.372917E+03	1.484355E-16	3.849108E-18
6.382844E+03	1.479314E-16	3.836054E-18
6.392770E+03	1.474218E-16	3.822860E-18
6.402697E+03	1.469098E-16	3.809605E-18
6.412624E+03	1.463941E-16	3.796252E-18
6.422550E+03	1.458745E-16	3.782800E-18
6.432477E+03	1.453512E-16	3.769252E-18
6.442404E+03	1.448228E-16	3.755573E-18
6.452330E+03	1.442910E-16	3.741807E-18
6.462257E+03	1.437545E-16	3.727919E-18
6.472184E+03	1.432150E-16	3.713954E-18
6.482110E+03	1.426713E-16	3.699881E-18
6.492037E+03	1.421269E-16	3.685788E-18
6.501963E+03	1.415820E-16	3.671684E-18
6.511890E+03	1.410370E-16	3.657578E-18
6.521817E+03	1.404939E-16	3.643522E-18
6.531743E+03	1.399516E-16	3.629488E-18
6.541670E+03	1.394137E-16	3.615566E-18
6.551597E+03	1.388790E-16	3.601731E-18
6.561523E+03	1.383483E-16	3.587996E-18
6.571450E+03	1.378249E-16	3.574454E-18
6.581377E+03	1.373081E-16	3.561081E-18
6.591303E+03	1.367983E-16	3.547891E-18
6.601230E+03	1.362976E-16	3.534939E-18
6.611157E+03	1.358067E-16	3.522241E-18
6.621083E+03	1.353261E-16	3.509810E-18
6.631010E+03	1.348565E-16	3.497663E-18
6.640937E+03	1.343983E-16	3.485815E-18
6.650863E+03	1.339552E-16	3.474358E-18
6.660790E+03	1.335248E-16	3.463229E-18
6.670717E+03	1.331091E-16	3.452482E-18
6.680643E+03	1.327085E-16	3.442129E-18
6.690570E+03	1.323252E-16	3.432223E-18
6.700497E+03	1.319580E-16	3.422737E-18
6.710423E+03	1.316105E-16	3.413761E-18
6.720350E+03	1.312800E-16	3.405227E-18
6.730277E+03	1.309669E-16	3.397146E-18
6.740203E+03	1.306761E-16	3.389641E-18
6.750130E+03	1.304033E-16	3.382606E-18
6.760057E+03	1.301518E-16	3.376122E-18
6.769983E+03	1.299203E-16	3.370158E-18
6.779910E+03	1.297105E-16	3.364757E-18
6.789837E+03	1.295224E-16	3.359920E-18
6.799763E+03	1.293546E-16	3.355609E-18
6.809690E+03	1.292101E-16	3.351904E-18
6.819617E+03	1.290857E-16	3.348721E-18
6.829543E+03	1.289845E-16	3.346139E-18
6.839470E+03	1.289046E-16	3.344111E-18
6.849397E+03	1.288457E-16	3.342631E-18
6.859323E+03	1.288077E-16	3.341691E-18
6.869250E+03	1.287915E-16	3.341317E-18
6.879177E+03	1.287952E-16	3.341460E-18
6.889103E+03	1.288182E-16	3.342103E-18
6.899030E+03	1.288614E-16	3.343274E-18
6.908957E+03	1.289225E-16	3.344909E-18
6.918883E+03	1.290025E-16	3.347034E-18
6.928810E+03	1.290987E-16	3.349582E-18
6.938737E+03	1.292120E-16	3.352573E-18
6.948663E+03	1.293397E-16	3.355938E-18
6.958590E+03	1.294824E-16	3.359692E-18
6.968517E+03	1.296373E-16	3.363765E-18
6.978443E+03	1.298047E-16	3.368164E-18
6.988370E+03	1.299819E-16	3.372818E-18
6.998297E+03	1.301676E-16	3.377692E-18
7.008223E+03	1.303619E-16	3.382790E-18
7.018150E+03	1.305618E-16	3.388034E-18
7.028077E+03	1.307657E-16	3.393383E-18
7.038003E+03	1.309721E-16	3.398799E-18
7.047930E+03	1.311811E-16	3.404282E-18
7.057857E+03	1.313878E-16	3.409706E-18
7.067783E+03	1.315921E-16	3.415070E-18
7.077710E+03	1.317924E-16	3.420330E-18
7.087637E+03	1.319869E-16	3.425441E-18
7.097563E+03	1.321739E-16	3.430360E-18
7.107490E+03	1.323502E-16	3.434999E-18
7.117417E+03	1.325139E-16	3.439313E-18
7.127343E+03	1.326650E-16	3.443302E-18
7.137270E+03	1.328018E-16	3.446922E-18
7.147197E+03	1.329194E-16	3.450042E-18
7.157123E+03	1.330195E-16	3.452710E-18
7.167050E+03	1.330972E-16	3.454796E-18
7.176976E+03	1.331526E-16	3.456306E-18
7.186903E+03	1.331844E-16	3.457202E-18
7.196830E+03	1.331911E-16	3.457448E-18
7.206756E+03	1.331698E-16	3.456969E-18
7.216683E+03	1.331209E-16	3.455776E-18
7.226610E+03	1.330418E-16	3.453797E-18
7.236536E+03	1.329314E-16	3.451007E-18
7.246463E+03	1.327906E-16	3.447428E-18
7.256390E+03	1.326169E-16	3.442996E-18
7.266316E+03	1.324114E-16	3.437740E-18
7.276243E+03	1.321720E-16	3.431604E-18
7.286170E+03	1.318999E-16	3.424621E-18
7.296096E+03	1.315934E-16	3.416743E-18
7.306023E+03	1.312557E-16	3.408056E-18
7.315950E+03	1.308869E-16	3.398562E-18
7.325876E+03	1.304871E-16	3.388266E-18
7.335803E+03	1.300585E-16	3.377219E-18
7.345730E+03	1.296014E-16	3.365435E-18
7.355656E+03	1.291199E-16	3.353016E-18
7.365583E+03	1.286144E-16	3.339976E-18
7.375510E+03	1.280859E-16	3.326338E-18
7.385436E+03	1.275334E-16	3.312077E-18
7.395363E+03	1.269596E-16	3.297263E-18
7.405290E+03	1.263606E-16	3.281794E-18
7.415216E+03	1.257374E-16	3.265696E-18
7.425143E+03	1.250880E-16	3.248921E-18
7.435070E+03	1.244154E-16	3.231541E-18
7.444996E+03	1.237176E-16	3.213509E-18
7.454923E+03	1.229979E-16	3.194905E-18
7.464850E+03	1.222543E-16	3.175682E-18
7.474776E+03	1.214918E-16	3.155966E-18
7.484703E+03	1.207069E-16	3.135670E-18
7.494630E+03	1.199060E-16	3.114958E-18
7.504556E+03	1.190860E-16	3.093749E-18
7.514483E+03	1.182515E-16	3.072164E-18
7.524410E+03	1.174041E-16	3.050244E-18
7.534336E+03	1.165437E-16	3.027982E-18
7.544263E+03	1.156717E-16	3.005423E-18
7.554190E+03	1.147897E-16	2.982599E-18
7.564116E+03	1.139019E-16	2.959628E-18
7.574043E+03	1.130067E-16	2.936462E-18
7.583970E+03	1.121053E-16	2.913135E-18
7.593896E+03	1.112004E-16	2.889717E-18
7.603823E+03	1.102947E-16	2.866275E-18
7.613750E+03	1.093861E-16	2.842758E-18
7.623676E+03	1.084772E-16	2.819231E-18
7.633603E+03	1.075687E-16	2.795717E-18
7.643530E+03	1.066617E-16	2.772239E-18
7.653456E+03	1.057584E-16	2.748855E-18
7.663383E+03	1.048579E-16	2.725545E-18
7.673310E+03	1.039611E-16	2.702331E-18
7.683236E+03	1.030700E-16	2.679261E-18
7.693163E+03	1.021837E-16	2.656316E-18
7.703090E+03	1.013041E-16	2.633547E-18
