#wls	flux	fluxerr
1.588266E+03	1.656666E-17	3.756171E-19
1.627973E+03	1.727517E-17	3.915934E-19
1.667679E+03	1.788786E-17	4.053886E-19
1.707386E+03	1.838600E-17	4.165797E-19
1.747092E+03	1.876080E-17	4.249693E-19
1.786799E+03	1.897056E-17	4.296144E-19
1.826506E+03	1.897713E-17	4.296544E-19
1.866212E+03	1.873178E-17	4.239894E-19
1.905919E+03	1.819127E-17	4.116460E-19
1.945626E+03	1.733318E-17	3.921216E-19
1.985332E+03	1.619843E-17	3.663488E-19
2.025039E+03	1.490369E-17	3.369706E-19
2.064746E+03	1.366750E-17	3.089305E-19
2.104452E+03	1.276044E-17	2.883419E-19
2.144159E+03	1.242355E-17	2.806437E-19
2.183866E+03	1.279588E-17	2.889643E-19
2.223572E+03	1.388730E-17	3.135116E-19
2.263279E+03	1.559871E-17	3.520326E-19
2.302986E+03	1.777775E-17	4.010756E-19
2.342692E+03	2.024362E-17	4.565515E-19
2.382399E+03	2.285078E-17	5.151713E-19
2.422105E+03	2.548883E-17	5.744421E-19
2.461812E+03	2.808746E-17	6.327781E-19
2.501519E+03	3.061245E-17	6.894079E-19
2.541225E+03	3.305139E-17	7.440531E-19
2.580932E+03	3.539936E-17	7.966033E-19
2.620639E+03	3.766879E-17	8.473399E-19
2.660345E+03	3.986407E-17	8.963620E-19
2.700052E+03	4.199555E-17	9.439034E-19
2.739759E+03	4.407933E-17	9.903261E-19
2.779465E+03	4.611775E-17	1.035683E-18
2.819172E+03	4.812410E-17	1.080273E-18
2.858879E+03	5.011006E-17	1.124358E-18
2.898585E+03	5.207900E-17	1.168012E-18
2.938292E+03	5.403885E-17	1.211414E-18
2.977999E+03	5.600910E-17	1.254999E-18
2.987925E+03	5.650118E-17	1.265877E-18
2.997852E+03	5.699609E-17	1.276815E-18
3.007779E+03	5.748697E-17	1.287659E-18
3.017705E+03	5.798032E-17	1.298555E-18
3.027632E+03	5.847594E-17	1.309499E-18
3.037559E+03	5.897565E-17	1.320531E-18
3.047485E+03	5.948167E-17	1.331701E-18
3.057412E+03	5.999919E-17	1.343125E-18
3.067339E+03	6.053920E-17	1.355050E-18
3.077265E+03	6.109281E-17	1.367274E-18
3.087192E+03	6.165800E-17	1.379755E-18
3.097118E+03	6.223282E-17	1.392447E-18
3.107045E+03	6.281551E-17	1.405311E-18
3.116972E+03	6.340436E-17	1.418310E-18
3.126898E+03	6.400448E-17	1.431556E-18
3.136825E+03	6.460772E-17	1.444868E-18
3.146752E+03	6.521933E-17	1.458363E-18
3.156678E+03	6.583140E-17	1.471865E-18
3.166605E+03	6.644928E-17	1.485492E-18
3.176532E+03	6.706527E-17	1.499073E-18
3.186458E+03	6.768489E-17	1.512730E-18
3.196385E+03	6.830707E-17	1.526441E-18
3.206312E+03	6.893087E-17	1.540184E-18
3.216238E+03	6.954885E-17	1.553792E-18
3.226165E+03	7.017323E-17	1.567539E-18
3.236092E+03	7.079017E-17	1.581116E-18
3.246018E+03	7.141189E-17	1.594795E-18
3.255945E+03	7.203121E-17	1.608415E-18
3.265872E+03	7.264739E-17	1.621962E-18
3.275798E+03	7.326626E-17	1.635564E-18
3.285725E+03	7.388074E-17	1.649064E-18
3.295652E+03	7.449662E-17	1.662591E-18
3.305578E+03	7.510698E-17	1.675991E-18
3.315505E+03	7.572388E-17	1.689531E-18
3.325432E+03	7.633414E-17	1.702920E-18
3.335358E+03	7.693739E-17	1.716147E-18
3.345285E+03	7.754552E-17	1.729479E-18
3.355212E+03	7.815790E-17	1.742902E-18
3.365138E+03	7.876181E-17	1.756130E-18
3.375065E+03	7.936899E-17	1.769428E-18
3.384992E+03	7.997290E-17	1.782649E-18
3.394918E+03	8.057307E-17	1.795781E-18
3.404845E+03	8.118101E-17	1.809082E-18
3.414772E+03	8.178426E-17	1.822274E-18
3.424698E+03	8.238833E-17	1.835480E-18
3.434625E+03	8.299274E-17	1.848690E-18
3.444552E+03	8.359697E-17	1.861890E-18
3.454478E+03	8.420058E-17	1.875073E-18
3.464405E+03	8.480880E-17	1.888353E-18
3.474332E+03	8.541542E-17	1.901593E-18
3.484258E+03	8.602557E-17	1.914908E-18
3.494185E+03	8.663868E-17	1.928283E-18
3.504112E+03	8.724879E-17	1.941588E-18
3.514038E+03	8.786630E-17	1.955052E-18
3.523965E+03	8.847981E-17	1.968423E-18
3.533892E+03	8.909963E-17	1.981929E-18
3.543818E+03	8.972504E-17	1.995555E-18
3.553745E+03	9.035027E-17	2.009173E-18
3.563672E+03	9.097477E-17	2.022769E-18
3.573598E+03	9.160325E-17	2.036449E-18
3.583525E+03	9.224016E-17	2.050312E-18
3.593452E+03	9.287476E-17	2.064119E-18
3.603378E+03	9.351654E-17	2.078080E-18
3.613305E+03	9.415987E-17	2.092071E-18
3.623232E+03	9.480427E-17	2.106081E-18
3.633158E+03	9.545887E-17	2.120312E-18
3.643085E+03	9.611325E-17	2.134534E-18
3.653012E+03	9.677174E-17	2.148842E-18
3.662938E+03	9.743372E-17	2.163222E-18
3.672865E+03	9.809857E-17	2.177661E-18
3.682792E+03	9.877034E-17	2.192249E-18
3.692718E+03	9.944379E-17	2.206869E-18
3.702645E+03	1.001229E-16	2.221610E-18
3.712572E+03	1.008071E-16	2.236457E-18
3.722498E+03	1.014913E-16	2.251300E-18
3.732425E+03	1.021838E-16	2.266322E-18
3.742352E+03	1.028796E-16	2.281411E-18
3.752278E+03	1.035782E-16	2.296558E-18
3.762205E+03	1.042790E-16	2.311749E-18
3.772131E+03	1.049859E-16	2.327069E-18
3.782058E+03	1.056941E-16	2.342413E-18
3.791985E+03	1.064114E-16	2.357952E-18
3.801911E+03	1.071291E-16	2.373495E-18
3.811838E+03	1.078469E-16	2.389036E-18
3.821765E+03	1.085724E-16	2.404741E-18
3.831691E+03	1.093012E-16	2.420514E-18
3.841618E+03	1.100330E-16	2.436348E-18
3.851545E+03	1.107675E-16	2.452235E-18
3.861471E+03	1.115044E-16	2.468172E-18
3.871398E+03	1.122436E-16	2.484153E-18
3.881325E+03	1.129885E-16	2.500256E-18
3.891251E+03	1.137354E-16	2.516395E-18
3.901178E+03	1.144841E-16	2.532570E-18
3.911105E+03	1.152347E-16	2.548781E-18
3.921031E+03	1.159871E-16	2.565028E-18
3.930958E+03	1.167416E-16	2.581313E-18
3.940885E+03	1.174981E-16	2.597639E-18
3.950811E+03	1.182569E-16	2.614009E-18
3.960738E+03	1.190182E-16	2.630430E-18
3.970665E+03	1.197790E-16	2.646834E-18
3.980591E+03	1.205430E-16	2.663303E-18
3.990518E+03	1.213074E-16	2.679774E-18
4.000445E+03	1.220758E-16	2.696329E-18
4.010371E+03	1.228424E-16	2.712839E-18
4.020298E+03	1.236112E-16	2.729390E-18
4.030225E+03	1.243796E-16	2.745929E-18
4.040151E+03	1.251485E-16	2.762472E-18
4.050078E+03	1.259187E-16	2.779039E-18
4.060005E+03	1.266881E-16	2.795584E-18
4.069931E+03	1.274607E-16	2.812194E-18
4.079858E+03	1.282316E-16	2.828761E-18
4.089785E+03	1.290020E-16	2.845310E-18
4.099711E+03	1.297759E-16	2.861932E-18
4.109638E+03	1.305459E-16	2.878463E-18
4.119565E+03	1.313190E-16	2.895056E-18
4.129491E+03	1.320882E-16	2.911559E-18
4.139418E+03	1.328603E-16	2.928119E-18
4.149345E+03	1.336312E-16	2.944648E-18
4.159271E+03	1.344023E-16	2.961176E-18
4.169198E+03	1.351723E-16	2.977676E-18
4.179125E+03	1.359427E-16	2.994179E-18
4.189051E+03	1.367121E-16	3.010655E-18
4.198978E+03	1.374794E-16	3.027080E-18
4.208905E+03	1.382484E-16	3.043537E-18
4.218831E+03	1.390152E-16	3.059940E-18
4.228758E+03	1.397784E-16	3.076259E-18
4.238685E+03	1.405440E-16	3.092626E-18
4.248611E+03	1.413053E-16	3.108895E-18
4.258538E+03	1.420630E-16	3.125080E-18
4.268465E+03	1.428201E-16	3.141246E-18
4.278391E+03	1.435742E-16	3.157341E-18
4.288318E+03	1.443229E-16	3.173313E-18
4.298245E+03	1.450680E-16	3.189201E-18
4.308171E+03	1.458064E-16	3.204940E-18
4.318098E+03	1.465372E-16	3.220505E-18
4.328025E+03	1.472587E-16	3.235864E-18
4.337951E+03	1.479694E-16	3.250978E-18
4.347878E+03	1.486694E-16	3.265856E-18
4.357805E+03	1.493545E-16	3.280403E-18
4.367731E+03	1.500230E-16	3.294579E-18
4.377658E+03	1.506756E-16	3.308405E-18
4.387585E+03	1.513097E-16	3.321819E-18
4.397511E+03	1.519278E-16	3.334881E-18
4.407438E+03	1.525273E-16	3.347531E-18
4.417365E+03	1.531153E-16	3.359926E-18
4.427291E+03	1.536908E-16	3.372045E-18
4.437218E+03	1.542620E-16	3.384066E-18
4.447144E+03	1.548286E-16	3.395983E-18
4.457071E+03	1.553966E-16	3.407930E-18
4.466998E+03	1.559700E-16	3.419991E-18
4.476924E+03	1.565479E-16	3.432149E-18
4.486851E+03	1.571337E-16	3.444478E-18
4.496778E+03	1.577282E-16	3.456995E-18
4.506704E+03	1.583341E-16	3.469761E-18
4.516631E+03	1.589538E-16	3.482827E-18
4.526558E+03	1.595853E-16	3.496148E-18
4.536484E+03	1.602305E-16	3.509766E-18
4.546411E+03	1.608910E-16	3.523717E-18
4.556338E+03	1.615681E-16	3.538029E-18
4.566264E+03	1.622590E-16	3.552641E-18
4.576191E+03	1.629668E-16	3.567620E-18
4.586118E+03	1.636922E-16	3.582982E-18
4.596044E+03	1.644339E-16	3.598699E-18
4.605971E+03	1.651945E-16	3.614826E-18
4.615898E+03	1.659705E-16	3.631285E-18
4.625824E+03	1.667658E-16	3.648166E-18
4.635751E+03	1.675769E-16	3.665390E-18
4.645678E+03	1.684057E-16	3.682997E-18
4.655604E+03	1.692482E-16	3.700900E-18
4.665531E+03	1.701082E-16	3.719183E-18
4.675458E+03	1.709794E-16	3.737708E-18
4.685384E+03	1.718635E-16	3.756513E-18
4.695311E+03	1.727561E-16	3.775500E-18
4.705238E+03	1.736546E-16	3.794613E-18
4.715164E+03	1.745564E-16	3.813796E-18
4.725091E+03	1.754587E-16	3.832987E-18
4.735018E+03	1.763548E-16	3.852039E-18
4.744944E+03	1.772436E-16	3.870928E-18
4.754871E+03	1.781199E-16	3.889545E-18
4.764798E+03	1.789885E-16	3.907989E-18
4.774724E+03	1.798479E-16	3.926231E-18
4.784651E+03	1.807027E-16	3.944370E-18
4.794578E+03	1.815514E-16	3.962374E-18
4.804504E+03	1.824004E-16	3.980382E-18
4.814431E+03	1.832463E-16	3.998324E-18
4.824358E+03	1.840959E-16	4.016341E-18
4.834284E+03	1.849459E-16	4.034368E-18
4.844211E+03	1.857993E-16	4.052467E-18
4.854138E+03	1.866572E-16	4.070663E-18
4.864064E+03	1.875189E-16	4.088940E-18
4.873991E+03	1.883853E-16	4.107320E-18
4.883918E+03	1.892579E-16	4.125833E-18
4.893844E+03	1.901378E-16	4.144504E-18
4.903771E+03	1.910200E-16	4.163224E-18
4.913698E+03	1.919097E-16	4.182106E-18
4.923624E+03	1.928019E-16	4.201042E-18
4.933551E+03	1.936996E-16	4.220097E-18
4.943478E+03	1.946018E-16	4.239248E-18
4.953404E+03	1.955052E-16	4.258425E-18
4.963331E+03	1.964127E-16	4.277692E-18
4.973258E+03	1.973192E-16	4.296935E-18
4.983184E+03	1.982274E-16	4.316215E-18
4.993111E+03	1.991319E-16	4.335413E-18
5.003038E+03	2.000355E-16	4.354591E-18
5.012964E+03	2.009368E-16	4.373721E-18
5.022891E+03	2.018325E-16	4.392726E-18
5.032818E+03	2.027231E-16	4.411622E-18
5.042744E+03	2.036072E-16	4.430376E-18
5.052671E+03	2.044813E-16	4.448912E-18
5.062598E+03	2.053460E-16	4.467244E-18
5.072524E+03	2.062018E-16	4.485385E-18
5.082451E+03	2.070432E-16	4.503209E-18
5.092378E+03	2.078704E-16	4.520730E-18
5.102304E+03	2.086822E-16	4.537912E-18
5.112231E+03	2.094789E-16	4.554770E-18
5.122158E+03	2.102570E-16	4.571223E-18
5.132084E+03	2.110147E-16	4.587235E-18
5.142011E+03	2.117526E-16	4.602818E-18
5.151937E+03	2.124670E-16	4.617892E-18
5.161864E+03	2.131584E-16	4.632466E-18
5.171791E+03	2.138229E-16	4.646461E-18
5.181717E+03	2.144635E-16	4.659935E-18
5.191644E+03	2.150739E-16	4.672760E-18
5.201571E+03	2.156527E-16	4.684897E-18
5.211497E+03	2.162025E-16	4.696410E-18
5.221424E+03	2.167197E-16	4.707216E-18
5.231351E+03	2.172026E-16	4.717281E-18
5.241277E+03	2.176519E-16	4.726619E-18
5.251204E+03	2.180638E-16	4.735152E-18
5.261131E+03	2.184370E-16	4.742845E-18
5.271057E+03	2.187721E-16	4.749716E-18
5.280984E+03	2.190678E-16	4.755737E-18
5.290911E+03	2.193227E-16	4.760878E-18
5.300837E+03	2.195358E-16	4.765114E-18
5.310764E+03	2.197058E-16	4.768420E-18
5.320691E+03	2.198317E-16	4.770775E-18
5.330617E+03	2.199148E-16	4.772209E-18
5.340544E+03	2.199524E-16	4.772659E-18
5.350471E+03	2.199463E-16	4.772166E-18
5.360397E+03	2.198961E-16	4.770723E-18
5.370324E+03	2.198021E-16	4.768337E-18
5.380251E+03	2.196649E-16	4.765020E-18
5.390177E+03	2.194853E-16	4.760789E-18
5.400104E+03	2.192645E-16	4.755669E-18
5.410031E+03	2.190037E-16	4.749689E-18
5.419957E+03	2.187066E-16	4.742930E-18
5.429884E+03	2.183727E-16	4.735378E-18
5.439811E+03	2.180058E-16	4.727119E-18
5.449737E+03	2.176057E-16	4.718145E-18
5.459664E+03	2.171743E-16	4.708498E-18
5.469591E+03	2.167156E-16	4.698267E-18
5.479517E+03	2.162295E-16	4.687449E-18
5.489444E+03	2.157180E-16	4.676088E-18
5.499371E+03	2.151834E-16	4.664230E-18
5.509297E+03	2.146297E-16	4.651967E-18
5.519224E+03	2.140548E-16	4.639250E-18
5.529151E+03	2.134651E-16	4.626219E-18
5.539077E+03	2.128604E-16	4.612871E-18
5.549004E+03	2.122408E-16	4.599206E-18
5.558931E+03	2.116105E-16	4.585314E-18
5.568857E+03	2.109713E-16	4.571237E-18
5.578784E+03	2.103232E-16	4.556972E-18
5.588711E+03	2.096679E-16	4.542560E-18
5.598637E+03	2.090074E-16	4.528040E-18
5.608564E+03	2.083434E-16	4.513450E-18
5.618491E+03	2.076775E-16	4.498825E-18
5.628417E+03	2.070092E-16	4.484156E-18
5.638344E+03	2.063401E-16	4.469474E-18
5.648271E+03	2.056736E-16	4.454854E-18
5.658197E+03	2.050068E-16	4.440235E-18
5.668124E+03	2.043450E-16	4.425729E-18
5.678051E+03	2.036853E-16	4.411273E-18
5.687977E+03	2.030285E-16	4.396887E-18
5.697904E+03	2.023774E-16	4.382631E-18
5.707831E+03	2.017309E-16	4.368478E-18
5.717757E+03	2.010874E-16	4.354396E-18
5.727684E+03	2.004495E-16	4.340442E-18
5.737611E+03	1.998175E-16	4.326622E-18
5.747537E+03	1.991918E-16	4.312940E-18
5.757464E+03	1.985684E-16	4.299317E-18
5.767391E+03	1.979515E-16	4.285837E-18
5.777317E+03	1.973371E-16	4.272417E-18
5.787244E+03	1.967270E-16	4.259096E-18
5.797171E+03	1.961211E-16	4.245869E-18
5.807097E+03	1.955171E-16	4.232691E-18
5.817024E+03	1.949168E-16	4.219596E-18
5.826950E+03	1.943178E-16	4.206534E-18
5.836877E+03	1.937178E-16	4.193456E-18
5.846804E+03	1.931202E-16	4.180436E-18
5.856730E+03	1.925208E-16	4.167380E-18
5.866657E+03	1.919192E-16	4.154280E-18
5.876584E+03	1.913167E-16	4.141167E-18
5.886510E+03	1.907128E-16	4.128030E-18
5.896437E+03	1.901054E-16	4.114819E-18
5.906364E+03	1.894921E-16	4.101485E-18
5.916290E+03	1.888761E-16	4.088099E-18
5.926217E+03	1.882553E-16	4.074613E-18
5.936144E+03	1.876294E-16	4.061019E-18
5.946070E+03	1.869979E-16	4.047311E-18
5.955997E+03	1.863588E-16	4.033441E-18
5.965924E+03	1.857155E-16	4.019485E-18
5.975850E+03	1.850641E-16	4.005359E-18
5.985777E+03	1.844062E-16	3.991096E-18
5.995704E+03	1.837418E-16	3.976695E-18
6.005630E+03	1.830723E-16	3.962190E-18
6.015557E+03	1.823958E-16	3.947538E-18
6.025484E+03	1.817123E-16	3.932738E-18
6.035410E+03	1.810234E-16	3.917823E-18
6.045337E+03	1.803305E-16	3.902829E-18
6.055264E+03	1.796318E-16	3.887713E-18
6.065190E+03	1.789307E-16	3.872546E-18
6.075117E+03	1.782283E-16	3.857359E-18
6.085044E+03	1.775228E-16	3.842106E-18
6.094970E+03	1.768207E-16	3.826932E-18
6.104897E+03	1.761216E-16	3.811826E-18
6.114824E+03	1.754302E-16	3.796890E-18
6.124750E+03	1.747495E-16	3.782190E-18
6.134677E+03	1.740790E-16	3.767714E-18
6.144604E+03	1.734184E-16	3.753457E-18
6.154530E+03	1.727608E-16	3.739266E-18
6.164457E+03	1.721065E-16	3.725150E-18
6.174384E+03	1.714494E-16	3.710978E-18
6.184310E+03	1.707926E-16	3.696815E-18
6.194237E+03	1.701322E-16	3.682579E-18
6.204164E+03	1.694681E-16	3.668263E-18
6.214090E+03	1.688034E-16	3.653938E-18
6.224017E+03	1.681377E-16	3.639595E-18
6.233944E+03	1.674690E-16	3.625187E-18
6.243870E+03	1.668001E-16	3.610779E-18
6.253797E+03	1.661320E-16	3.596393E-18
6.263724E+03	1.654658E-16	3.582047E-18
6.273650E+03	1.648002E-16	3.567719E-18
6.283577E+03	1.641378E-16	3.553462E-18
6.293504E+03	1.634791E-16	3.539287E-18
6.303430E+03	1.628227E-16	3.525163E-18
6.313357E+03	1.621723E-16	3.511172E-18
6.323284E+03	1.615248E-16	3.497245E-18
6.333210E+03	1.608835E-16	3.483456E-18
6.343137E+03	1.602487E-16	3.469808E-18
6.353064E+03	1.596218E-16	3.456335E-18
6.362990E+03	1.590012E-16	3.442998E-18
6.372917E+03	1.583900E-16	3.429869E-18
6.382844E+03	1.577865E-16	3.416907E-18
6.392770E+03	1.571938E-16	3.404180E-18
6.402697E+03	1.566116E-16	3.391681E-18
6.412624E+03	1.560414E-16	3.379445E-18
6.422550E+03	1.554827E-16	3.367462E-18
6.432477E+03	1.549373E-16	3.355765E-18
6.442404E+03	1.544063E-16	3.344382E-18
6.452330E+03	1.538878E-16	3.333273E-18
6.462257E+03	1.533834E-16	3.322469E-18
6.472184E+03	1.528928E-16	3.311967E-18
6.482110E+03	1.524141E-16	3.301724E-18
6.492037E+03	1.519489E-16	3.291775E-18
6.501963E+03	1.514954E-16	3.282079E-18
6.511890E+03	1.510518E-16	3.272601E-18
6.521817E+03	1.506197E-16	3.263373E-18
6.531743E+03	1.501975E-16	3.254360E-18
6.541670E+03	1.497835E-16	3.245527E-18
6.551597E+03	1.493794E-16	3.236910E-18
6.561523E+03	1.489852E-16	3.228509E-18
6.571450E+03	1.485994E-16	3.220292E-18
6.581377E+03	1.482222E-16	3.212261E-18
6.591303E+03	1.478537E-16	3.204421E-18
6.601230E+03	1.474958E-16	3.196811E-18
6.611157E+03	1.471453E-16	3.189363E-18
6.621083E+03	1.468059E-16	3.182156E-18
6.631010E+03	1.464777E-16	3.175195E-18
6.640937E+03	1.461594E-16	3.168448E-18
6.650863E+03	1.458529E-16	3.161960E-18
6.660790E+03	1.455586E-16	3.155736E-18
6.670717E+03	1.452766E-16	3.149782E-18
6.680643E+03	1.450058E-16	3.144071E-18
6.690570E+03	1.447513E-16	3.138714E-18
6.700497E+03	1.445085E-16	3.133613E-18
6.710423E+03	1.442810E-16	3.128846E-18
6.720350E+03	1.440691E-16	3.124416E-18
6.730277E+03	1.438746E-16	3.120367E-18
6.740203E+03	1.436946E-16	3.116633E-18
6.750130E+03	1.435308E-16	3.113253E-18
6.760057E+03	1.433851E-16	3.110265E-18
6.769983E+03	1.432560E-16	3.107641E-18
6.779910E+03	1.431469E-16	3.105451E-18
6.789837E+03	1.430529E-16	3.103592E-18
6.799763E+03	1.429790E-16	3.102168E-18
6.809690E+03	1.429235E-16	3.101146E-18
6.819617E+03	1.428878E-16	3.100557E-18
6.829543E+03	1.428687E-16	3.100329E-18
6.839470E+03	1.428691E-16	3.100526E-18
6.849397E+03	1.428871E-16	3.101107E-18
6.859323E+03	1.429242E-16	3.102103E-18
6.869250E+03	1.429797E-16	3.103504E-18
6.879177E+03	1.430517E-16	3.105261E-18
6.889103E+03	1.431428E-16	3.107437E-18
6.899030E+03	1.432490E-16	3.109945E-18
6.908957E+03	1.433715E-16	3.112805E-18
6.918883E+03	1.435093E-16	3.116002E-18
6.928810E+03	1.436598E-16	3.119478E-18
6.938737E+03	1.438257E-16	3.123288E-18
6.948663E+03	1.440058E-16	3.127413E-18
6.958590E+03	1.441957E-16	3.131750E-18
6.968517E+03	1.443958E-16	3.136313E-18
6.978443E+03	1.446068E-16	3.141115E-18
6.988370E+03	1.448238E-16	3.146049E-18
6.998297E+03	1.450489E-16	3.151163E-18
7.008223E+03	1.452808E-16	3.156429E-18
7.018150E+03	1.455144E-16	3.161733E-18
7.028077E+03	1.457518E-16	3.167122E-18
7.038003E+03	1.459895E-16	3.172520E-18
7.047930E+03	1.462259E-16	3.177896E-18
7.057857E+03	1.464612E-16	3.183249E-18
7.067783E+03	1.466919E-16	3.188505E-18
7.077710E+03	1.469181E-16	3.193666E-18
7.087637E+03	1.471343E-16	3.198614E-18
7.097563E+03	1.473444E-16	3.203431E-18
7.107490E+03	1.475410E-16	3.207959E-18
7.117417E+03	1.477262E-16	3.212240E-18
7.127343E+03	1.478980E-16	3.216236E-18
7.137270E+03	1.480532E-16	3.219871E-18
7.147197E+03	1.481916E-16	3.223147E-18
7.157123E+03	1.483100E-16	3.225988E-18
7.167050E+03	1.484085E-16	3.228401E-18
7.176976E+03	1.484857E-16	3.230352E-18
7.186903E+03	1.485381E-16	3.231767E-18
7.196830E+03	1.485681E-16	3.232698E-18
7.206756E+03	1.485706E-16	3.233032E-18
7.216683E+03	1.485481E-16	3.232827E-18
7.226610E+03	1.484976E-16	3.232013E-18
7.236536E+03	1.484180E-16	3.230570E-18
7.246463E+03	1.483103E-16	3.228516E-18
7.256390E+03	1.481716E-16	3.225790E-18
7.266316E+03	1.480031E-16	3.222420E-18
7.276243E+03	1.478043E-16	3.218389E-18
7.286170E+03	1.475725E-16	3.213644E-18
7.296096E+03	1.473114E-16	3.208260E-18
7.306023E+03	1.470166E-16	3.202146E-18
7.315950E+03	1.466879E-16	3.195297E-18
7.325876E+03	1.463292E-16	3.187794E-18
7.335803E+03	1.459348E-16	3.179514E-18
7.345730E+03	1.455066E-16	3.170500E-18
7.355656E+03	1.450449E-16	3.160758E-18
7.365583E+03	1.445482E-16	3.150252E-18
7.375510E+03	1.440150E-16	3.138955E-18
7.385436E+03	1.434479E-16	3.126917E-18
7.395363E+03	1.428455E-16	3.114111E-18
7.405290E+03	1.422125E-16	3.100639E-18
7.415216E+03	1.415478E-16	3.086475E-18
7.425143E+03	1.408542E-16	3.071681E-18
7.435070E+03	1.401327E-16	3.056278E-18
7.444996E+03	1.393804E-16	3.040205E-18
7.454923E+03	1.386042E-16	3.023609E-18
7.464850E+03	1.378014E-16	3.006433E-18
7.474776E+03	1.369731E-16	2.988700E-18
7.484703E+03	1.361207E-16	2.970438E-18
7.494630E+03	1.352451E-16	2.951672E-18
7.504556E+03	1.343479E-16	2.932432E-18
7.514483E+03	1.334284E-16	2.912703E-18
7.524410E+03	1.324897E-16	2.892555E-18
7.534336E+03	1.315314E-16	2.871977E-18
7.544263E+03	1.305548E-16	2.850996E-18
7.554190E+03	1.295613E-16	2.829643E-18
7.564116E+03	1.285539E-16	2.807988E-18
7.574043E+03	1.275308E-16	2.785982E-18
7.583970E+03	1.264948E-16	2.763696E-18
7.593896E+03	1.254460E-16	2.741125E-18
7.603823E+03	1.243876E-16	2.718342E-18
7.613750E+03	1.233213E-16	2.695380E-18
7.623676E+03	1.222467E-16	2.672237E-18
7.633603E+03	1.211673E-16	2.648983E-18
7.643530E+03	1.200829E-16	2.625617E-18
7.653456E+03	1.189967E-16	2.602205E-18
7.663383E+03	1.179100E-16	2.578781E-18
7.673310E+03	1.168226E-16	2.555337E-18
7.683236E+03	1.157359E-16	2.531902E-18
7.693163E+03	1.146527E-16	2.508541E-18
7.703090E+03	1.135741E-16	2.485277E-18
