#wls	flux	fluxerr
1.588266E+03	1.262448E-17	5.129393E-19
1.627973E+03	1.322743E-17	5.371077E-19
1.667679E+03	1.376044E-17	5.583990E-19
1.707386E+03	1.421557E-17	5.764964E-19
1.747092E+03	1.457716E-17	5.907696E-19
1.786799E+03	1.481673E-17	6.000722E-19
1.826506E+03	1.489948E-17	6.030048E-19
1.866212E+03	1.478194E-17	5.978227E-19
1.905919E+03	1.443183E-17	5.832382E-19
1.945626E+03	1.382740E-17	5.583949E-19
1.985332E+03	1.299204E-17	5.242600E-19
2.025039E+03	1.202077E-17	4.846880E-19
2.064746E+03	1.108411E-17	4.465637E-19
2.104452E+03	1.040722E-17	4.189495E-19
2.144159E+03	1.019021E-17	4.098706E-19
2.183866E+03	1.055555E-17	4.242016E-19
2.223572E+03	1.152145E-17	4.626133E-19
2.263279E+03	1.301780E-17	5.222270E-19
2.302986E+03	1.492365E-17	5.981345E-19
2.342692E+03	1.709385E-17	6.844742E-19
2.382399E+03	1.940872E-17	7.764231E-19
2.422105E+03	2.177614E-17	8.702773E-19
2.461812E+03	2.413987E-17	9.637801E-19
2.501519E+03	2.647029E-17	1.055744E-18
2.541225E+03	2.874767E-17	1.145381E-18
2.580932E+03	3.096995E-17	1.232611E-18
2.620639E+03	3.314563E-17	1.317772E-18
2.660345E+03	3.528204E-17	1.401157E-18
2.700052E+03	3.737749E-17	1.482697E-18
2.739759E+03	3.943861E-17	1.562656E-18
2.779465E+03	4.148154E-17	1.641672E-18
2.819172E+03	4.350628E-17	1.719742E-18
2.858879E+03	4.551621E-17	1.796997E-18
2.898585E+03	4.751322E-17	1.873509E-18
2.938292E+03	4.950863E-17	1.949720E-18
2.977999E+03	5.149597E-17	2.025371E-18
2.987925E+03	5.198990E-17	2.044132E-18
2.997852E+03	5.248687E-17	2.062996E-18
3.007779E+03	5.298111E-17	2.081738E-18
3.017705E+03	5.347252E-17	2.100353E-18
3.027632E+03	5.397209E-17	2.119272E-18
3.037559E+03	5.446472E-17	2.137904E-18
3.047485E+03	5.496371E-17	2.156769E-18
3.057412E+03	5.548005E-17	2.176299E-18
3.067339E+03	5.600600E-17	2.196190E-18
3.077265E+03	5.655082E-17	2.216803E-18
3.087192E+03	5.709580E-17	2.237405E-18
3.097118E+03	5.765606E-17	2.258588E-18
3.107045E+03	5.821874E-17	2.279849E-18
3.116972E+03	5.878798E-17	2.301347E-18
3.126898E+03	5.935672E-17	2.322808E-18
3.136825E+03	5.993485E-17	2.344618E-18
3.146752E+03	6.051557E-17	2.366510E-18
3.156678E+03	6.109206E-17	2.388218E-18
3.166605E+03	6.166888E-17	2.409920E-18
3.176532E+03	6.225066E-17	2.431796E-18
3.186458E+03	6.282517E-17	2.453370E-18
3.196385E+03	6.340283E-17	2.475048E-18
3.206312E+03	6.397156E-17	2.496358E-18
3.216238E+03	6.454183E-17	2.517709E-18
3.226165E+03	6.510733E-17	2.538854E-18
3.236092E+03	6.566742E-17	2.559770E-18
3.246018E+03	6.622705E-17	2.580649E-18
3.255945E+03	6.678008E-17	2.601252E-18
3.265872E+03	6.732596E-17	2.621557E-18
3.275798E+03	6.786982E-17	2.641765E-18
3.285725E+03	6.840560E-17	2.661640E-18
3.295652E+03	6.893296E-17	2.681169E-18
3.305578E+03	6.946248E-17	2.700763E-18
3.315505E+03	6.998276E-17	2.719980E-18
3.325432E+03	7.049352E-17	2.738808E-18
3.335358E+03	7.099991E-17	2.757449E-18
3.345285E+03	7.150165E-17	2.775890E-18
3.355212E+03	7.199838E-17	2.794120E-18
3.365138E+03	7.248989E-17	2.812129E-18
3.375065E+03	7.297591E-17	2.829908E-18
3.384992E+03	7.345089E-17	2.847241E-18
3.394918E+03	7.392526E-17	2.864532E-18
3.404845E+03	7.439345E-17	2.881568E-18
3.414772E+03	7.485529E-17	2.898340E-18
3.424698E+03	7.531061E-17	2.914843E-18
3.434625E+03	7.575924E-17	2.931069E-18
3.444552E+03	7.620613E-17	2.947212E-18
3.454478E+03	7.664596E-17	2.963066E-18
3.464405E+03	7.708368E-17	2.978821E-18
3.474332E+03	7.751398E-17	2.994273E-18
3.484258E+03	7.793677E-17	3.009419E-18
3.494185E+03	7.836187E-17	3.024638E-18
3.504112E+03	7.877910E-17	3.039537E-18
3.514038E+03	7.918838E-17	3.054113E-18
3.523965E+03	7.959930E-17	3.068737E-18
3.533892E+03	8.000195E-17	3.083026E-18
3.543818E+03	8.040578E-17	3.097346E-18
3.553745E+03	8.080106E-17	3.111321E-18
3.563672E+03	8.119710E-17	3.125309E-18
3.573598E+03	8.158431E-17	3.138942E-18
3.583525E+03	8.197185E-17	3.152573E-18
3.593452E+03	8.235490E-17	3.166016E-18
3.603378E+03	8.273784E-17	3.179440E-18
3.613305E+03	8.311585E-17	3.192660E-18
3.623232E+03	8.348886E-17	3.205673E-18
3.633158E+03	8.386112E-17	3.218642E-18
3.643085E+03	8.423239E-17	3.231560E-18
3.653012E+03	8.459807E-17	3.244248E-18
3.662938E+03	8.496236E-17	3.256868E-18
3.672865E+03	8.532501E-17	3.269411E-18
3.682792E+03	8.568161E-17	3.281708E-18
3.692718E+03	8.604042E-17	3.294075E-18
3.702645E+03	8.639279E-17	3.306183E-18
3.712572E+03	8.674690E-17	3.318343E-18
3.722498E+03	8.709835E-17	3.330387E-18
3.732425E+03	8.744696E-17	3.342309E-18
3.742352E+03	8.779259E-17	3.354103E-18
3.752278E+03	8.813507E-17	3.365763E-18
3.762205E+03	8.847813E-17	3.377432E-18
3.772131E+03	8.881769E-17	3.388954E-18
3.782058E+03	8.915358E-17	3.400323E-18
3.791985E+03	8.948953E-17	3.411681E-18
3.801911E+03	8.982526E-17	3.423018E-18
3.811838E+03	9.015689E-17	3.434185E-18
3.821765E+03	9.048802E-17	3.445321E-18
3.831691E+03	9.081481E-17	3.456279E-18
3.841618E+03	9.114086E-17	3.467196E-18
3.851545E+03	9.146599E-17	3.478065E-18
3.861471E+03	9.178654E-17	3.488748E-18
3.871398E+03	9.210601E-17	3.499378E-18
3.881325E+03	9.242428E-17	3.509950E-18
3.891251E+03	9.274129E-17	3.520461E-18
3.901178E+03	9.305694E-17	3.530910E-18
3.911105E+03	9.336791E-17	3.541169E-18
3.921031E+03	9.367751E-17	3.551365E-18
3.930958E+03	9.398576E-17	3.561497E-18
3.940885E+03	9.429265E-17	3.571568E-18
3.950811E+03	9.459822E-17	3.581577E-18
3.960738E+03	9.489934E-17	3.591406E-18
3.970665E+03	9.519932E-17	3.601181E-18
3.980591E+03	9.549511E-17	3.610787E-18
3.990518E+03	9.579002E-17	3.620349E-18
4.000445E+03	9.608414E-17	3.629871E-18
4.010371E+03	9.637462E-17	3.639245E-18
4.020298E+03	9.666468E-17	3.648593E-18
4.030225E+03	9.695158E-17	3.657812E-18
4.040151E+03	9.723559E-17	3.666912E-18
4.050078E+03	9.751707E-17	3.675907E-18
4.060005E+03	9.779635E-17	3.684809E-18
4.069931E+03	9.807373E-17	3.693631E-18
4.079858E+03	9.834963E-17	3.702388E-18
4.089785E+03	9.862439E-17	3.711093E-18
4.099711E+03	9.889580E-17	3.719663E-18
4.109638E+03	9.916430E-17	3.728115E-18
4.119565E+03	9.943044E-17	3.736471E-18
4.129491E+03	9.969736E-17	3.744847E-18
4.139418E+03	9.996042E-17	3.753071E-18
4.149345E+03	1.002228E-16	3.761261E-18
4.159271E+03	1.004826E-16	3.769345E-18
4.169198E+03	1.007404E-16	3.777350E-18
4.179125E+03	1.009995E-16	3.785393E-18
4.189051E+03	1.012555E-16	3.793314E-18
4.198978E+03	1.015092E-16	3.801145E-18
4.208905E+03	1.017615E-16	3.808913E-18
4.218831E+03	1.020155E-16	3.816736E-18
4.228758E+03	1.022671E-16	3.824468E-18
4.238685E+03	1.025173E-16	3.832139E-18
4.248611E+03	1.027668E-16	3.839780E-18
4.258538E+03	1.030166E-16	3.847423E-18
4.268465E+03	1.032674E-16	3.855098E-18
4.278391E+03	1.035177E-16	3.862752E-18
4.288318E+03	1.037663E-16	3.870333E-18
4.298245E+03	1.040161E-16	3.877958E-18
4.308171E+03	1.042658E-16	3.885572E-18
4.318098E+03	1.045163E-16	3.893208E-18
4.328025E+03	1.047682E-16	3.900895E-18
4.337951E+03	1.050181E-16	3.908503E-18
4.347878E+03	1.052711E-16	3.916221E-18
4.357805E+03	1.055236E-16	3.923916E-18
4.367731E+03	1.057765E-16	3.931620E-18
4.377658E+03	1.060324E-16	3.939434E-18
4.387585E+03	1.062879E-16	3.947230E-18
4.397511E+03	1.065439E-16	3.955037E-18
4.407438E+03	1.068029E-16	3.962955E-18
4.417365E+03	1.070618E-16	3.970865E-18
4.427291E+03	1.073212E-16	3.978791E-18
4.437218E+03	1.075839E-16	3.986835E-18
4.447144E+03	1.078485E-16	3.994947E-18
4.457071E+03	1.081157E-16	4.003151E-18
4.466998E+03	1.083842E-16	4.011401E-18
4.476924E+03	1.086546E-16	4.019719E-18
4.486851E+03	1.089294E-16	4.028197E-18
4.496778E+03	1.092055E-16	4.036717E-18
4.506704E+03	1.094852E-16	4.045370E-18
4.516631E+03	1.097691E-16	4.054175E-18
4.526558E+03	1.100540E-16	4.063015E-18
4.536484E+03	1.103442E-16	4.072044E-18
4.546411E+03	1.106382E-16	4.081213E-18
4.556338E+03	1.109365E-16	4.090538E-18
4.566264E+03	1.112395E-16	4.100036E-18
4.576191E+03	1.115477E-16	4.109721E-18
4.586118E+03	1.118597E-16	4.119543E-18
4.596044E+03	1.121757E-16	4.129513E-18
4.605971E+03	1.124981E-16	4.139712E-18
4.615898E+03	1.128270E-16	4.150150E-18
4.625824E+03	1.131610E-16	4.160773E-18
4.635751E+03	1.135003E-16	4.171590E-18
4.645678E+03	1.138470E-16	4.182675E-18
4.655604E+03	1.141995E-16	4.193970E-18
4.665531E+03	1.145597E-16	4.205546E-18
4.675458E+03	1.149242E-16	4.217281E-18
4.685384E+03	1.152985E-16	4.229370E-18
4.695311E+03	1.156774E-16	4.241625E-18
4.705238E+03	1.160661E-16	4.254240E-18
4.715164E+03	1.164612E-16	4.267087E-18
4.725091E+03	1.168627E-16	4.280165E-18
4.735018E+03	1.172723E-16	4.293537E-18
4.744944E+03	1.176916E-16	4.307266E-18
4.754871E+03	1.181171E-16	4.321215E-18
4.764798E+03	1.185503E-16	4.335448E-18
4.774724E+03	1.189911E-16	4.349955E-18
4.784651E+03	1.194410E-16	4.364794E-18
4.794578E+03	1.198981E-16	4.379892E-18
4.804504E+03	1.203620E-16	4.395239E-18
4.814431E+03	1.208358E-16	4.410948E-18
4.824358E+03	1.213159E-16	4.426884E-18
4.834284E+03	1.218055E-16	4.443162E-18
4.844211E+03	1.223007E-16	4.459648E-18
4.854138E+03	1.228049E-16	4.476460E-18
4.864064E+03	1.233161E-16	4.493524E-18
4.873991E+03	1.238357E-16	4.510893E-18
4.883918E+03	1.243633E-16	4.528553E-18
4.893844E+03	1.249003E-16	4.546554E-18
4.903771E+03	1.254427E-16	4.564753E-18
4.913698E+03	1.259919E-16	4.583194E-18
4.923624E+03	1.265490E-16	4.601923E-18
4.933551E+03	1.271135E-16	4.620920E-18
4.943478E+03	1.276848E-16	4.640161E-18
4.953404E+03	1.282620E-16	4.659621E-18
4.963331E+03	1.288447E-16	4.679275E-18
4.973258E+03	1.294319E-16	4.699095E-18
4.983184E+03	1.300229E-16	4.719050E-18
4.993111E+03	1.306203E-16	4.739238E-18
5.003038E+03	1.312179E-16	4.759433E-18
5.012964E+03	1.318200E-16	4.779793E-18
5.022891E+03	1.324239E-16	4.800216E-18
5.032818E+03	1.330266E-16	4.820598E-18
5.042744E+03	1.336308E-16	4.841032E-18
5.052671E+03	1.342333E-16	4.861408E-18
5.062598E+03	1.348348E-16	4.881751E-18
5.072524E+03	1.354305E-16	4.901883E-18
5.082451E+03	1.360227E-16	4.921890E-18
5.092378E+03	1.366100E-16	4.941725E-18
5.102304E+03	1.371893E-16	4.961273E-18
5.112231E+03	1.377611E-16	4.980551E-18
5.122158E+03	1.383220E-16	4.999442E-18
5.132084E+03	1.388707E-16	5.017895E-18
5.142011E+03	1.394094E-16	5.035991E-18
5.151937E+03	1.399330E-16	5.053546E-18
5.161864E+03	1.404399E-16	5.070507E-18
5.171791E+03	1.409306E-16	5.086889E-18
5.181717E+03	1.414018E-16	5.102575E-18
5.191644E+03	1.418540E-16	5.117583E-18
5.201571E+03	1.422839E-16	5.131796E-18
5.211497E+03	1.426921E-16	5.145235E-18
5.221424E+03	1.430754E-16	5.157786E-18
5.231351E+03	1.434325E-16	5.169406E-18
5.241277E+03	1.437624E-16	5.180054E-18
5.251204E+03	1.440637E-16	5.189689E-18
5.261131E+03	1.443357E-16	5.198278E-18
5.271057E+03	1.445773E-16	5.205787E-18
5.280984E+03	1.447877E-16	5.212184E-18
5.290911E+03	1.449640E-16	5.217374E-18
5.300837E+03	1.451075E-16	5.221400E-18
5.310764E+03	1.452177E-16	5.224242E-18
5.320691E+03	1.452919E-16	5.225808E-18
5.330617E+03	1.453299E-16	5.226088E-18
5.340544E+03	1.453311E-16	5.225065E-18
5.350471E+03	1.452971E-16	5.222800E-18
5.360397E+03	1.452240E-16	5.219146E-18
5.370324E+03	1.451156E-16	5.214244E-18
5.380251E+03	1.449685E-16	5.207973E-18
5.390177E+03	1.447852E-16	5.200423E-18
5.400104E+03	1.445682E-16	5.191683E-18
5.410031E+03	1.443144E-16	5.181644E-18
5.419957E+03	1.440247E-16	5.170335E-18
5.429884E+03	1.437035E-16	5.157919E-18
5.439811E+03	1.433481E-16	5.144296E-18
5.449737E+03	1.429611E-16	5.129565E-18
5.459664E+03	1.425437E-16	5.113764E-18
5.469591E+03	1.420970E-16	5.096930E-18
5.479517E+03	1.416219E-16	5.079103E-18
5.489444E+03	1.411197E-16	5.060326E-18
5.499371E+03	1.405916E-16	5.040644E-18
5.509297E+03	1.400388E-16	5.020099E-18
5.519224E+03	1.394628E-16	4.998742E-18
5.529151E+03	1.388666E-16	4.976687E-18
5.539077E+03	1.382517E-16	4.953981E-18
5.549004E+03	1.376178E-16	4.930615E-18
5.558931E+03	1.369681E-16	4.906706E-18
5.568857E+03	1.363024E-16	4.882243E-18
5.578784E+03	1.356257E-16	4.857410E-18
5.588711E+03	1.349378E-16	4.832198E-18
5.598637E+03	1.342421E-16	4.806726E-18
5.608564E+03	1.335384E-16	4.780988E-18
5.618491E+03	1.328300E-16	4.755101E-18
5.628417E+03	1.321166E-16	4.729057E-18
5.638344E+03	1.314033E-16	4.703036E-18
5.648271E+03	1.306898E-16	4.677026E-18
5.658197E+03	1.299774E-16	4.651079E-18
5.668124E+03	1.292677E-16	4.625242E-18
5.678051E+03	1.285636E-16	4.599624E-18
5.687977E+03	1.278662E-16	4.574268E-18
5.697904E+03	1.271750E-16	4.549150E-18
5.707831E+03	1.264929E-16	4.524373E-18
5.717757E+03	1.258206E-16	4.499967E-18
5.727684E+03	1.251608E-16	4.476024E-18
5.737611E+03	1.245109E-16	4.452451E-18
5.747537E+03	1.238749E-16	4.429390E-18
5.757464E+03	1.232517E-16	4.406804E-18
5.767391E+03	1.226418E-16	4.384708E-18
5.777317E+03	1.220471E-16	4.363175E-18
5.787244E+03	1.214665E-16	4.342157E-18
5.797171E+03	1.209017E-16	4.321721E-18
5.807097E+03	1.203530E-16	4.301871E-18
5.817024E+03	1.198187E-16	4.282554E-18
5.826950E+03	1.192990E-16	4.263773E-18
5.836877E+03	1.187955E-16	4.245583E-18
5.846804E+03	1.183081E-16	4.227982E-18
5.856730E+03	1.178351E-16	4.210911E-18
5.866657E+03	1.173782E-16	4.194426E-18
5.876584E+03	1.169355E-16	4.178465E-18
5.886510E+03	1.165086E-16	4.163081E-18
5.896437E+03	1.160959E-16	4.148212E-18
5.906364E+03	1.156971E-16	4.133857E-18
5.916290E+03	1.153138E-16	4.120067E-18
5.926217E+03	1.149460E-16	4.106842E-18
5.936144E+03	1.145903E-16	4.094065E-18
5.946070E+03	1.142500E-16	4.081845E-18
5.955997E+03	1.139218E-16	4.070074E-18
5.965924E+03	1.136088E-16	4.058856E-18
5.975850E+03	1.133095E-16	4.048138E-18
5.985777E+03	1.130238E-16	4.037916E-18
5.995704E+03	1.127501E-16	4.028138E-18
6.005630E+03	1.124914E-16	4.018906E-18
6.015557E+03	1.122446E-16	4.010113E-18
6.025484E+03	1.120097E-16	4.001752E-18
6.035410E+03	1.117879E-16	3.993872E-18
6.045337E+03	1.115791E-16	3.986470E-18
6.055264E+03	1.113815E-16	3.979479E-18
6.065190E+03	1.111964E-16	3.972944E-18
6.075117E+03	1.110204E-16	3.966746E-18
6.085044E+03	1.108560E-16	3.960975E-18
6.094970E+03	1.107028E-16	3.955614E-18
6.104897E+03	1.105572E-16	3.950536E-18
6.114824E+03	1.104200E-16	3.945770E-18
6.124750E+03	1.102920E-16	3.941345E-18
6.134677E+03	1.101695E-16	3.937124E-18
6.144604E+03	1.100530E-16	3.933130E-18
6.154530E+03	1.099417E-16	3.929331E-18
6.164457E+03	1.098345E-16	3.925691E-18
6.174384E+03	1.097304E-16	3.922171E-18
6.184310E+03	1.096284E-16	3.918735E-18
6.194237E+03	1.095273E-16	3.915341E-18
6.204164E+03	1.094245E-16	3.911896E-18
6.214090E+03	1.093203E-16	3.908409E-18
6.224017E+03	1.092135E-16	3.904842E-18
6.233944E+03	1.091031E-16	3.901151E-18
6.243870E+03	1.089878E-16	3.897294E-18
6.253797E+03	1.088650E-16	3.893180E-18
6.263724E+03	1.087366E-16	3.888873E-18
6.273650E+03	1.085984E-16	3.884227E-18
6.283577E+03	1.084512E-16	3.879262E-18
6.293504E+03	1.082953E-16	3.873996E-18
6.303430E+03	1.081268E-16	3.868288E-18
6.313357E+03	1.079464E-16	3.862160E-18
6.323284E+03	1.077548E-16	3.855639E-18
6.333210E+03	1.075482E-16	3.848589E-18
6.343137E+03	1.073291E-16	3.841096E-18
6.353064E+03	1.070953E-16	3.833086E-18
6.362990E+03	1.068464E-16	3.824541E-18
6.372917E+03	1.065834E-16	3.815501E-18
6.382844E+03	1.063046E-16	3.805898E-18
6.392770E+03	1.060113E-16	3.795780E-18
6.402697E+03	1.057018E-16	3.785088E-18
6.412624E+03	1.053776E-16	3.773874E-18
6.422550E+03	1.050387E-16	3.762142E-18
6.432477E+03	1.046854E-16	3.749897E-18
6.442404E+03	1.043179E-16	3.737146E-18
6.452330E+03	1.039366E-16	3.723905E-18
6.462257E+03	1.035419E-16	3.710188E-18
6.472184E+03	1.031343E-16	3.696014E-18
6.482110E+03	1.027162E-16	3.681464E-18
6.492037E+03	1.022881E-16	3.666560E-18
6.501963E+03	1.018493E-16	3.651276E-18
6.511890E+03	1.014023E-16	3.635699E-18
6.521817E+03	1.009464E-16	3.619808E-18
6.531743E+03	1.004858E-16	3.603748E-18
6.541670E+03	1.000198E-16	3.587498E-18
6.551597E+03	9.954953E-17	3.571097E-18
6.561523E+03	9.907611E-17	3.554584E-18
6.571450E+03	9.860223E-17	3.538056E-18
6.581377E+03	9.812886E-17	3.521548E-18
6.591303E+03	9.765577E-17	3.505051E-18
6.601230E+03	9.718542E-17	3.488654E-18
6.611157E+03	9.671902E-17	3.472399E-18
6.621083E+03	9.625767E-17	3.456328E-18
6.631010E+03	9.580378E-17	3.440525E-18
6.640937E+03	9.535557E-17	3.424927E-18
6.650863E+03	9.491841E-17	3.409727E-18
6.660790E+03	9.448886E-17	3.394801E-18
6.670717E+03	9.407226E-17	3.380342E-18
6.680643E+03	9.366659E-17	3.366276E-18
6.690570E+03	9.327418E-17	3.352688E-18
6.700497E+03	9.289576E-17	3.339605E-18
6.710423E+03	9.253218E-17	3.327056E-18
6.720350E+03	9.218419E-17	3.315069E-18
6.730277E+03	9.185235E-17	3.303665E-18
6.740203E+03	9.153880E-17	3.292920E-18
6.750130E+03	9.124260E-17	3.282801E-18
6.760057E+03	9.096577E-17	3.273381E-18
6.769983E+03	9.070728E-17	3.264623E-18
6.779910E+03	9.046895E-17	3.256593E-18
6.789837E+03	9.024974E-17	3.249254E-18
6.799763E+03	9.005127E-17	3.242665E-18
6.809690E+03	8.987382E-17	3.236836E-18
6.819617E+03	8.971607E-17	3.231719E-18
6.829543E+03	8.957945E-17	3.227368E-18
6.839470E+03	8.946549E-17	3.223837E-18
6.849397E+03	8.937124E-17	3.221020E-18
6.859323E+03	8.929796E-17	3.218963E-18
6.869250E+03	8.924401E-17	3.217608E-18
6.879177E+03	8.921194E-17	3.217047E-18
6.889103E+03	8.920001E-17	3.217218E-18
6.899030E+03	8.920776E-17	3.218104E-18
6.908957E+03	8.923318E-17	3.219633E-18
6.918883E+03	8.927859E-17	3.221890E-18
6.928810E+03	8.934041E-17	3.224746E-18
6.938737E+03	8.941936E-17	3.228227E-18
6.948663E+03	8.951463E-17	3.232304E-18
6.958590E+03	8.962526E-17	3.236944E-18
6.968517E+03	8.974883E-17	3.242058E-18
6.978443E+03	8.988582E-17	3.247666E-18
6.988370E+03	9.003502E-17	3.253723E-18
6.998297E+03	9.019531E-17	3.260189E-18
7.008223E+03	9.036399E-17	3.266967E-18
7.018150E+03	9.053974E-17	3.274010E-18
7.028077E+03	9.072275E-17	3.281325E-18
7.038003E+03	9.091005E-17	3.288805E-18
7.047930E+03	9.110027E-17	3.296400E-18
7.057857E+03	9.129345E-17	3.304111E-18
7.067783E+03	9.148508E-17	3.311777E-18
7.077710E+03	9.167665E-17	3.319450E-18
7.087637E+03	9.186353E-17	3.326964E-18
7.097563E+03	9.204582E-17	3.334322E-18
7.107490E+03	9.222179E-17	3.341461E-18
7.117417E+03	9.238855E-17	3.348277E-18
7.127343E+03	9.254594E-17	3.354763E-18
7.137270E+03	9.269088E-17	3.360808E-18
7.147197E+03	9.282200E-17	3.366362E-18
7.157123E+03	9.293769E-17	3.371366E-18
7.167050E+03	9.303655E-17	3.375770E-18
7.176976E+03	9.311723E-17	3.379524E-18
7.186903E+03	9.317826E-17	3.382574E-18
7.196830E+03	9.321702E-17	3.384824E-18
7.206756E+03	9.323217E-17	3.386226E-18
7.216683E+03	9.322418E-17	3.386796E-18
7.226610E+03	9.319056E-17	3.386443E-18
7.236536E+03	9.313030E-17	3.385130E-18
7.246463E+03	9.304267E-17	3.382829E-18
7.256390E+03	9.292702E-17	3.379517E-18
7.266316E+03	9.278271E-17	3.375168E-18
7.276243E+03	9.260795E-17	3.369718E-18
7.286170E+03	9.240233E-17	3.363150E-18
7.296096E+03	9.216742E-17	3.355522E-18
7.306023E+03	9.190170E-17	3.346775E-18
7.315950E+03	9.160690E-17	3.336974E-18
7.325876E+03	9.128037E-17	3.326020E-18
7.335803E+03	9.092560E-17	3.314040E-18
7.345730E+03	9.054034E-17	3.300949E-18
7.355656E+03	9.012843E-17	3.286889E-18
7.365583E+03	8.968774E-17	3.271780E-18
7.375510E+03	8.922093E-17	3.255718E-18
7.385436E+03	8.872773E-17	3.238693E-18
7.395363E+03	8.821234E-17	3.220857E-18
7.405290E+03	8.767329E-17	3.202155E-18
7.415216E+03	8.711198E-17	3.182638E-18
7.425143E+03	8.653291E-17	3.162470E-18
7.435070E+03	8.593471E-17	3.141599E-18
7.444996E+03	8.531901E-17	3.120085E-18
7.454923E+03	8.468882E-17	3.098036E-18
7.464850E+03	8.404575E-17	3.075512E-18
7.474776E+03	8.338998E-17	3.052518E-18
7.484703E+03	8.272447E-17	3.029161E-18
7.494630E+03	8.204937E-17	3.005447E-18
7.504556E+03	8.136748E-17	2.981478E-18
7.514483E+03	8.068024E-17	2.957304E-18
7.524410E+03	7.998895E-17	2.932975E-18
7.534336E+03	7.929350E-17	2.908484E-18
7.544263E+03	7.859650E-17	2.883928E-18
7.554190E+03	7.789765E-17	2.859293E-18
7.564116E+03	7.720063E-17	2.834717E-18
7.574043E+03	7.650381E-17	2.810137E-18
7.583970E+03	7.580925E-17	2.785631E-18
7.593896E+03	7.511773E-17	2.761224E-18
7.603823E+03	7.442997E-17	2.736945E-18
7.613750E+03	7.374650E-17	2.712813E-18
7.623676E+03	7.306666E-17	2.688803E-18
7.633603E+03	7.239341E-17	2.665023E-18
7.643530E+03	7.172458E-17	2.641394E-18
7.653456E+03	7.106305E-17	2.618022E-18
7.663383E+03	7.040658E-17	2.594824E-18
7.673310E+03	6.975670E-17	2.571857E-18
7.683236E+03	6.911360E-17	2.549127E-18
7.693163E+03	6.847737E-17	2.526638E-18
7.703090E+03	6.784818E-17	2.504396E-18
