#wls	flux	fluxerr
1.588266E+03	1.103329E-17	6.116158E-19
1.627973E+03	1.157962E-17	6.418864E-19
1.667679E+03	1.206740E-17	6.689093E-19
1.707386E+03	1.248941E-17	6.922853E-19
1.747092E+03	1.283170E-17	7.112410E-19
1.786799E+03	1.306881E-17	7.243657E-19
1.826506E+03	1.316719E-17	7.298003E-19
1.866212E+03	1.308988E-17	7.254962E-19
1.905919E+03	1.280495E-17	7.096848E-19
1.945626E+03	1.229412E-17	6.813546E-19
1.985332E+03	1.157670E-17	6.415767E-19
2.025039E+03	1.073598E-17	5.949670E-19
2.064746E+03	9.921934E-18	5.498383E-19
2.104452E+03	9.336911E-18	5.174030E-19
2.144159E+03	9.164054E-18	5.078087E-19
2.183866E+03	9.515155E-18	5.272479E-19
2.223572E+03	1.041054E-17	5.768440E-19
2.263279E+03	1.179075E-17	6.532995E-19
2.302986E+03	1.354959E-17	7.507284E-19
2.342692E+03	1.556049E-17	8.621149E-19
2.382399E+03	1.771204E-17	9.812861E-19
2.422105E+03	1.992376E-17	1.103781E-18
2.461812E+03	2.214202E-17	1.226630E-18
2.501519E+03	2.433626E-17	1.348137E-18
2.541225E+03	2.649899E-17	1.467890E-18
2.580932E+03	2.862210E-17	1.585438E-18
2.620639E+03	3.071392E-17	1.701242E-18
2.660345E+03	3.276892E-17	1.814997E-18
2.700052E+03	3.480318E-17	1.927593E-18
2.739759E+03	3.681537E-17	2.038956E-18
2.779465E+03	3.881697E-17	2.149722E-18
2.819172E+03	4.080918E-17	2.259957E-18
2.858879E+03	4.279167E-17	2.369642E-18
2.898585E+03	4.476791E-17	2.478971E-18
2.938292E+03	4.674567E-17	2.588372E-18
2.977999E+03	4.872107E-17	2.697632E-18
2.987925E+03	4.921431E-17	2.724911E-18
2.997852E+03	4.970767E-17	2.752196E-18
3.007779E+03	5.020107E-17	2.779483E-18
3.017705E+03	5.069438E-17	2.806763E-18
3.027632E+03	5.118752E-17	2.834034E-18
3.037559E+03	5.168212E-17	2.861385E-18
3.047485E+03	5.218023E-17	2.888929E-18
3.057412E+03	5.269235E-17	2.917249E-18
3.067339E+03	5.321653E-17	2.946234E-18
3.077265E+03	5.375092E-17	2.975785E-18
3.087192E+03	5.429384E-17	3.005807E-18
3.097118E+03	5.484373E-17	3.036214E-18
3.107045E+03	5.540471E-17	3.067234E-18
3.116972E+03	5.596415E-17	3.098168E-18
3.126898E+03	5.653207E-17	3.129571E-18
3.136825E+03	5.710161E-17	3.161062E-18
3.146752E+03	5.767163E-17	3.192579E-18
3.156678E+03	5.824111E-17	3.224066E-18
3.166605E+03	5.881482E-17	3.255785E-18
3.176532E+03	5.938611E-17	3.287369E-18
3.186458E+03	5.995417E-17	3.318774E-18
3.196385E+03	6.051820E-17	3.349956E-18
3.206312E+03	6.108329E-17	3.381195E-18
3.216238E+03	6.164300E-17	3.412134E-18
3.226165E+03	6.219671E-17	3.442741E-18
3.236092E+03	6.274964E-17	3.473305E-18
3.246018E+03	6.329555E-17	3.503478E-18
3.255945E+03	6.383393E-17	3.533234E-18
3.265872E+03	6.437014E-17	3.562869E-18
3.275798E+03	6.489803E-17	3.592042E-18
3.285725E+03	6.542303E-17	3.621055E-18
3.295652E+03	6.593901E-17	3.649568E-18
3.305578E+03	6.645150E-17	3.677886E-18
3.315505E+03	6.695443E-17	3.705674E-18
3.325432E+03	6.745335E-17	3.733240E-18
3.335358E+03	6.794231E-17	3.760254E-18
3.345285E+03	6.842683E-17	3.787021E-18
3.355212E+03	6.890677E-17	3.813534E-18
3.365138E+03	6.937625E-17	3.839467E-18
3.375065E+03	6.984083E-17	3.865128E-18
3.384992E+03	7.029470E-17	3.890196E-18
3.394918E+03	7.074346E-17	3.914980E-18
3.404845E+03	7.118703E-17	3.939476E-18
3.414772E+03	7.162528E-17	3.963677E-18
3.424698E+03	7.205249E-17	3.987267E-18
3.434625E+03	7.247428E-17	4.010555E-18
3.444552E+03	7.289054E-17	4.033537E-18
3.454478E+03	7.330120E-17	4.056208E-18
3.464405E+03	7.370068E-17	4.078260E-18
3.474332E+03	7.409449E-17	4.099997E-18
3.484258E+03	7.448812E-17	4.121723E-18
3.494185E+03	7.487044E-17	4.142824E-18
3.504112E+03	7.524697E-17	4.163603E-18
3.514038E+03	7.561765E-17	4.184057E-18
3.523965E+03	7.597704E-17	4.203886E-18
3.533892E+03	7.633591E-17	4.223686E-18
3.543818E+03	7.668881E-17	4.243156E-18
3.553745E+03	7.703572E-17	4.262292E-18
3.563672E+03	7.737658E-17	4.281094E-18
3.573598E+03	7.771135E-17	4.299557E-18
3.583525E+03	7.804001E-17	4.317683E-18
3.593452E+03	7.836249E-17	4.335466E-18
3.603378E+03	7.867882E-17	4.352907E-18
3.613305E+03	7.898890E-17	4.370003E-18
3.623232E+03	7.929276E-17	4.386754E-18
3.633158E+03	7.959539E-17	4.403436E-18
3.643085E+03	7.988658E-17	4.419485E-18
3.653012E+03	8.017645E-17	4.435460E-18
3.662938E+03	8.045989E-17	4.451079E-18
3.672865E+03	8.073686E-17	4.466339E-18
3.682792E+03	8.101223E-17	4.481510E-18
3.692718E+03	8.127617E-17	4.496049E-18
3.702645E+03	8.153841E-17	4.510493E-18
3.712572E+03	8.179404E-17	4.524571E-18
3.722498E+03	8.204302E-17	4.538281E-18
3.732425E+03	8.228539E-17	4.551624E-18
3.742352E+03	8.252581E-17	4.564859E-18
3.752278E+03	8.275951E-17	4.577723E-18
3.762205E+03	8.298650E-17	4.590214E-18
3.772131E+03	8.321140E-17	4.602589E-18
3.782058E+03	8.342498E-17	4.614338E-18
3.791985E+03	8.363645E-17	4.625970E-18
3.801911E+03	8.384567E-17	4.637477E-18
3.811838E+03	8.404374E-17	4.648367E-18
3.821765E+03	8.423962E-17	4.659135E-18
3.831691E+03	8.442885E-17	4.669535E-18
3.841618E+03	8.461155E-17	4.679573E-18
3.851545E+03	8.478774E-17	4.689252E-18
3.861471E+03	8.496178E-17	4.698811E-18
3.871398E+03	8.512525E-17	4.707785E-18
3.881325E+03	8.528668E-17	4.716646E-18
3.891251E+03	8.544194E-17	4.725166E-18
3.901178E+03	8.559531E-17	4.733581E-18
3.911105E+03	8.573864E-17	4.741439E-18
3.921031E+03	8.587621E-17	4.748980E-18
3.930958E+03	8.601222E-17	4.756434E-18
3.940885E+03	8.614276E-17	4.763585E-18
3.950811E+03	8.626411E-17	4.770228E-18
3.960738E+03	8.638434E-17	4.776808E-18
3.970665E+03	8.649586E-17	4.782907E-18
3.980591E+03	8.660665E-17	4.788966E-18
3.990518E+03	8.670930E-17	4.794573E-18
4.000445E+03	8.680789E-17	4.799957E-18
4.010371E+03	8.690271E-17	4.805131E-18
4.020298E+03	8.699402E-17	4.810112E-18
4.030225E+03	8.708216E-17	4.814917E-18
4.040151E+03	8.716380E-17	4.819363E-18
4.050078E+03	8.723939E-17	4.823474E-18
4.060005E+03	8.731642E-17	4.827664E-18
4.069931E+03	8.738817E-17	4.831563E-18
4.079858E+03	8.745506E-17	4.835192E-18
4.089785E+03	8.752101E-17	4.838770E-18
4.099711E+03	8.758299E-17	4.842128E-18
4.109638E+03	8.764149E-17	4.845294E-18
4.119565E+03	8.770040E-17	4.848482E-18
4.129491E+03	8.775342E-17	4.851345E-18
4.139418E+03	8.780779E-17	4.854282E-18
4.149345E+03	8.786067E-17	4.857137E-18
4.159271E+03	8.790932E-17	4.859758E-18
4.169198E+03	8.796082E-17	4.862537E-18
4.179125E+03	8.800919E-17	4.865142E-18
4.189051E+03	8.805827E-17	4.867787E-18
4.198978E+03	8.810862E-17	4.870502E-18
4.208905E+03	8.815760E-17	4.873141E-18
4.218831E+03	8.820897E-17	4.875913E-18
4.228758E+03	8.826019E-17	4.878676E-18
4.238685E+03	8.831192E-17	4.881467E-18
4.248611E+03	8.836476E-17	4.884320E-18
4.258538E+03	8.842229E-17	4.887432E-18
4.268465E+03	8.848209E-17	4.890670E-18
4.278391E+03	8.854189E-17	4.893908E-18
4.288318E+03	8.860808E-17	4.897498E-18
4.298245E+03	8.867550E-17	4.901157E-18
4.308171E+03	8.874761E-17	4.905075E-18
4.318098E+03	8.882217E-17	4.909129E-18
4.328025E+03	8.890263E-17	4.913509E-18
4.337951E+03	8.898951E-17	4.918244E-18
4.347878E+03	8.907782E-17	4.923057E-18
4.357805E+03	8.917374E-17	4.928292E-18
4.367731E+03	8.927503E-17	4.933823E-18
4.377658E+03	8.938228E-17	4.939684E-18
4.387585E+03	8.949599E-17	4.945901E-18
4.397511E+03	8.961677E-17	4.952509E-18
4.407438E+03	8.974505E-17	4.959532E-18
4.417365E+03	8.988136E-17	4.966999E-18
4.427291E+03	9.002359E-17	4.974793E-18
4.437218E+03	9.017220E-17	4.982939E-18
4.447144E+03	9.033033E-17	4.991612E-18
4.457071E+03	9.049834E-17	5.000830E-18
4.466998E+03	9.067415E-17	5.010480E-18
4.476924E+03	9.085813E-17	5.020580E-18
4.486851E+03	9.105067E-17	5.031154E-18
4.496778E+03	9.125224E-17	5.042227E-18
4.506704E+03	9.146563E-17	5.053953E-18
4.516631E+03	9.168618E-17	5.066075E-18
4.526558E+03	9.191668E-17	5.078745E-18
4.536484E+03	9.215750E-17	5.091987E-18
4.546411E+03	9.240886E-17	5.105810E-18
4.556338E+03	9.267097E-17	5.120228E-18
4.566264E+03	9.294164E-17	5.135118E-18
4.576191E+03	9.322348E-17	5.150626E-18
4.586118E+03	9.351429E-17	5.166629E-18
4.596044E+03	9.381657E-17	5.183265E-18
4.605971E+03	9.413052E-17	5.200546E-18
4.615898E+03	9.445373E-17	5.218339E-18
4.625824E+03	9.478633E-17	5.236650E-18
4.635751E+03	9.513074E-17	5.255614E-18
4.645678E+03	9.548454E-17	5.275096E-18
4.655604E+03	9.584777E-17	5.295100E-18
4.665531E+03	9.622278E-17	5.315753E-18
4.675458E+03	9.660704E-17	5.336918E-18
4.685384E+03	9.700053E-17	5.358592E-18
4.695311E+03	9.740303E-17	5.380764E-18
4.705238E+03	9.781682E-17	5.403560E-18
4.715164E+03	9.823932E-17	5.426836E-18
4.725091E+03	9.867034E-17	5.450583E-18
4.735018E+03	9.910952E-17	5.474781E-18
4.744944E+03	9.955909E-17	5.499552E-18
4.754871E+03	1.000139E-16	5.524611E-18
4.764798E+03	1.004784E-16	5.550206E-18
4.774724E+03	1.009498E-16	5.576184E-18
4.784651E+03	1.014277E-16	5.602521E-18
4.794578E+03	1.019141E-16	5.629326E-18
4.804504E+03	1.024038E-16	5.656310E-18
4.814431E+03	1.029009E-16	5.683710E-18
4.824358E+03	1.034027E-16	5.711364E-18
4.834284E+03	1.039085E-16	5.739240E-18
4.844211E+03	1.044202E-16	5.767444E-18
4.854138E+03	1.049324E-16	5.795670E-18
4.864064E+03	1.054491E-16	5.824151E-18
4.873991E+03	1.059699E-16	5.852854E-18
4.883918E+03	1.064891E-16	5.881466E-18
4.893844E+03	1.070108E-16	5.910220E-18
4.903771E+03	1.075318E-16	5.938938E-18
4.913698E+03	1.080539E-16	5.967713E-18
4.923624E+03	1.085737E-16	5.996363E-18
4.933551E+03	1.090905E-16	6.024846E-18
4.943478E+03	1.096059E-16	6.053247E-18
4.953404E+03	1.101189E-16	6.081521E-18
4.963331E+03	1.106237E-16	6.109343E-18
4.973258E+03	1.111270E-16	6.137077E-18
4.983184E+03	1.116201E-16	6.164255E-18
4.993111E+03	1.121098E-16	6.191240E-18
5.003038E+03	1.125876E-16	6.217567E-18
5.012964E+03	1.130599E-16	6.243596E-18
5.022891E+03	1.135209E-16	6.268996E-18
5.032818E+03	1.139720E-16	6.293852E-18
5.042744E+03	1.144098E-16	6.317971E-18
5.052671E+03	1.148357E-16	6.341437E-18
5.062598E+03	1.152464E-16	6.364059E-18
5.072524E+03	1.156458E-16	6.386062E-18
5.082451E+03	1.160280E-16	6.407111E-18
5.092378E+03	1.163945E-16	6.427297E-18
5.102304E+03	1.167419E-16	6.446426E-18
5.112231E+03	1.170718E-16	6.464591E-18
5.122158E+03	1.173859E-16	6.481883E-18
5.132084E+03	1.176757E-16	6.497831E-18
5.142011E+03	1.179479E-16	6.512813E-18
5.151937E+03	1.181993E-16	6.526645E-18
5.161864E+03	1.184266E-16	6.539144E-18
5.171791E+03	1.186316E-16	6.550411E-18
5.181717E+03	1.188135E-16	6.560411E-18
5.191644E+03	1.189719E-16	6.569108E-18
5.201571E+03	1.191061E-16	6.576470E-18
5.211497E+03	1.192157E-16	6.582470E-18
5.221424E+03	1.192974E-16	6.586940E-18
5.231351E+03	1.193563E-16	6.590143E-18
5.241277E+03	1.193892E-16	6.591914E-18
5.251204E+03	1.193933E-16	6.592099E-18
5.261131E+03	1.193711E-16	6.590827E-18
5.271057E+03	1.193248E-16	6.588231E-18
5.280984E+03	1.192494E-16	6.584022E-18
5.290911E+03	1.191473E-16	6.578342E-18
5.300837E+03	1.190185E-16	6.571191E-18
5.310764E+03	1.188657E-16	6.562716E-18
5.320691E+03	1.186840E-16	6.552647E-18
5.330617E+03	1.184763E-16	6.541139E-18
5.340544E+03	1.182453E-16	6.528347E-18
5.350471E+03	1.179864E-16	6.514016E-18
5.360397E+03	1.177025E-16	6.498307E-18
5.370324E+03	1.173967E-16	6.481388E-18
5.380251E+03	1.170645E-16	6.463017E-18
5.390177E+03	1.167117E-16	6.443504E-18
5.400104E+03	1.163363E-16	6.422747E-18
5.410031E+03	1.159367E-16	6.400656E-18
5.419957E+03	1.155187E-16	6.377546E-18
5.429884E+03	1.150806E-16	6.353328E-18
5.439811E+03	1.146257E-16	6.328186E-18
5.449737E+03	1.141502E-16	6.301906E-18
5.459664E+03	1.136598E-16	6.274807E-18
5.469591E+03	1.131533E-16	6.246814E-18
5.479517E+03	1.126316E-16	6.217987E-18
5.489444E+03	1.120958E-16	6.188381E-18
5.499371E+03	1.115493E-16	6.158189E-18
5.509297E+03	1.109910E-16	6.127342E-18
5.519224E+03	1.104220E-16	6.095906E-18
5.529151E+03	1.098457E-16	6.064069E-18
5.539077E+03	1.092609E-16	6.031767E-18
5.549004E+03	1.086689E-16	5.999064E-18
5.558931E+03	1.080731E-16	5.966152E-18
5.568857E+03	1.074724E-16	5.932968E-18
5.578784E+03	1.068701E-16	5.899700E-18
5.588711E+03	1.062651E-16	5.866285E-18
5.598637E+03	1.056609E-16	5.832912E-18
5.608564E+03	1.050585E-16	5.799637E-18
5.618491E+03	1.044566E-16	5.766399E-18
5.628417E+03	1.038566E-16	5.733259E-18
5.638344E+03	1.032616E-16	5.700394E-18
5.648271E+03	1.026725E-16	5.667861E-18
5.658197E+03	1.020903E-16	5.635711E-18
5.668124E+03	1.015139E-16	5.603876E-18
5.678051E+03	1.009463E-16	5.572529E-18
5.687977E+03	1.003883E-16	5.541714E-18
5.697904E+03	9.984077E-17	5.511478E-18
5.707831E+03	9.930241E-17	5.481748E-18
5.717757E+03	9.877605E-17	5.452681E-18
5.727684E+03	9.826451E-17	5.424433E-18
5.737611E+03	9.776424E-17	5.396808E-18
5.747537E+03	9.727794E-17	5.369954E-18
5.757464E+03	9.680620E-17	5.343905E-18
5.767391E+03	9.634948E-17	5.318685E-18
5.777317E+03	9.590829E-17	5.294323E-18
5.787244E+03	9.548301E-17	5.270840E-18
5.797171E+03	9.507411E-17	5.248261E-18
5.807097E+03	9.468177E-17	5.226598E-18
5.817024E+03	9.430638E-17	5.205871E-18
5.826950E+03	9.394814E-17	5.186090E-18
5.836877E+03	9.360713E-17	5.167262E-18
5.846804E+03	9.328560E-17	5.149508E-18
5.856730E+03	9.298151E-17	5.132719E-18
5.866657E+03	9.269298E-17	5.116789E-18
5.876584E+03	9.242391E-17	5.101933E-18
5.886510E+03	9.217420E-17	5.088147E-18
5.896437E+03	9.193979E-17	5.075205E-18
5.906364E+03	9.172443E-17	5.063316E-18
5.916290E+03	9.152394E-17	5.052248E-18
5.926217E+03	9.134396E-17	5.042312E-18
5.936144E+03	9.117818E-17	5.033161E-18
5.946070E+03	9.102827E-17	5.024886E-18
5.955997E+03	9.089568E-17	5.017568E-18
5.965924E+03	9.077993E-17	5.011180E-18
5.975850E+03	9.067655E-17	5.005475E-18
5.985777E+03	9.058885E-17	5.000636E-18
5.995704E+03	9.051422E-17	4.996519E-18
6.005630E+03	9.045193E-17	4.993084E-18
6.015557E+03	9.040323E-17	4.990399E-18
6.025484E+03	9.036528E-17	4.988308E-18
6.035410E+03	9.033730E-17	4.986768E-18
6.045337E+03	9.032024E-17	4.985831E-18
6.055264E+03	9.031130E-17	4.985343E-18
6.065190E+03	9.031133E-17	4.985351E-18
6.075117E+03	9.031547E-17	4.985585E-18
6.085044E+03	9.032843E-17	4.986307E-18
6.094970E+03	9.034320E-17	4.987130E-18
6.104897E+03	9.036260E-17	4.988209E-18
6.114824E+03	9.038541E-17	4.989475E-18
6.124750E+03	9.040649E-17	4.990648E-18
6.134677E+03	9.042860E-17	4.991877E-18
6.144604E+03	9.045039E-17	4.993089E-18
6.154530E+03	9.046870E-17	4.994110E-18
6.164457E+03	9.048423E-17	4.994977E-18
6.174384E+03	9.049172E-17	4.995401E-18
6.184310E+03	9.049587E-17	4.995642E-18
6.194237E+03	9.049156E-17	4.995415E-18
6.204164E+03	9.047752E-17	4.994652E-18
6.214090E+03	9.045456E-17	4.993396E-18
6.224017E+03	9.041954E-17	4.991475E-18
6.233944E+03	9.037338E-17	4.988940E-18
6.243870E+03	9.031307E-17	4.985624E-18
6.253797E+03	9.023963E-17	4.981584E-18
6.263724E+03	9.015215E-17	4.976768E-18
6.273650E+03	9.004781E-17	4.971023E-18
6.283577E+03	8.992790E-17	4.964418E-18
6.293504E+03	8.978969E-17	4.956803E-18
6.303430E+03	8.963476E-17	4.948266E-18
6.313357E+03	8.946052E-17	4.938662E-18
6.323284E+03	8.926868E-17	4.928088E-18
6.333210E+03	8.905904E-17	4.916531E-18
6.343137E+03	8.883138E-17	4.903979E-18
6.353064E+03	8.858370E-17	4.890323E-18
6.362990E+03	8.831812E-17	4.875679E-18
6.372917E+03	8.803478E-17	4.860054E-18
6.382844E+03	8.773406E-17	4.843470E-18
6.392770E+03	8.741425E-17	4.825832E-18
6.402697E+03	8.707993E-17	4.807393E-18
6.412624E+03	8.672770E-17	4.787966E-18
6.422550E+03	8.636024E-17	4.767699E-18
6.432477E+03	8.597837E-17	4.746636E-18
6.442404E+03	8.558294E-17	4.724824E-18
6.452330E+03	8.517293E-17	4.702208E-18
6.462257E+03	8.475330E-17	4.679060E-18
6.472184E+03	8.432319E-17	4.655334E-18
6.482110E+03	8.388363E-17	4.631086E-18
6.492037E+03	8.343591E-17	4.606388E-18
6.501963E+03	8.298122E-17	4.581305E-18
6.511890E+03	8.252081E-17	4.555906E-18
6.521817E+03	8.205596E-17	4.530263E-18
6.531743E+03	8.158795E-17	4.504445E-18
6.541670E+03	8.111993E-17	4.478626E-18
6.551597E+03	8.065138E-17	4.452778E-18
6.561523E+03	8.018353E-17	4.426969E-18
6.571450E+03	7.971773E-17	4.401273E-18
6.581377E+03	7.925701E-17	4.375857E-18
6.591303E+03	7.880081E-17	4.350691E-18
6.601230E+03	7.835035E-17	4.325842E-18
6.611157E+03	7.790859E-17	4.301473E-18
6.621083E+03	7.747483E-17	4.277546E-18
6.631010E+03	7.705200E-17	4.254223E-18
6.640937E+03	7.663747E-17	4.231357E-18
6.650863E+03	7.623771E-17	4.209307E-18
6.660790E+03	7.585001E-17	4.187924E-18
6.670717E+03	7.547525E-17	4.167254E-18
6.680643E+03	7.511606E-17	4.147444E-18
6.690570E+03	7.477138E-17	4.128435E-18
6.700497E+03	7.444375E-17	4.110368E-18
6.710423E+03	7.413377E-17	4.093275E-18
6.720350E+03	7.384025E-17	4.077091E-18
6.730277E+03	7.356546E-17	4.061941E-18
6.740203E+03	7.330806E-17	4.047752E-18
6.750130E+03	7.307205E-17	4.034744E-18
6.760057E+03	7.285238E-17	4.022637E-18
6.769983E+03	7.265467E-17	4.011744E-18
6.779910E+03	7.247554E-17	4.001877E-18
6.789837E+03	7.231508E-17	3.993041E-18
6.799763E+03	7.217699E-17	3.985439E-18
6.809690E+03	7.205767E-17	3.978875E-18
6.819617E+03	7.195883E-17	3.973441E-18
6.829543E+03	7.187859E-17	3.969035E-18
6.839470E+03	7.181857E-17	3.965746E-18
6.849397E+03	7.177848E-17	3.963557E-18
6.859323E+03	7.175797E-17	3.962449E-18
6.869250E+03	7.175499E-17	3.962310E-18
6.879177E+03	7.177078E-17	3.963207E-18
6.889103E+03	7.180489E-17	3.965117E-18
6.899030E+03	7.185675E-17	3.968006E-18
6.908957E+03	7.192396E-17	3.971744E-18
6.918883E+03	7.200767E-17	3.976393E-18
6.928810E+03	7.210526E-17	3.981809E-18
6.938737E+03	7.221775E-17	3.988048E-18
6.948663E+03	7.234428E-17	3.995062E-18
6.958590E+03	7.248400E-17	4.002806E-18
6.968517E+03	7.263399E-17	4.011117E-18
6.978443E+03	7.279516E-17	4.020045E-18
6.988370E+03	7.296454E-17	4.029427E-18
6.998297E+03	7.314285E-17	4.039303E-18
7.008223E+03	7.332888E-17	4.049605E-18
7.018150E+03	7.351957E-17	4.060166E-18
7.028077E+03	7.371365E-17	4.070914E-18
7.038003E+03	7.391172E-17	4.081882E-18
7.047930E+03	7.411232E-17	4.092991E-18
7.057857E+03	7.431230E-17	4.104066E-18
7.067783E+03	7.451205E-17	4.115129E-18
7.077710E+03	7.470839E-17	4.126004E-18
7.087637E+03	7.489984E-17	4.136609E-18
7.097563E+03	7.508680E-17	4.146966E-18
7.107490E+03	7.526597E-17	4.156894E-18
7.117417E+03	7.543588E-17	4.166311E-18
7.127343E+03	7.559706E-17	4.175246E-18
7.137270E+03	7.574616E-17	4.183514E-18
7.147197E+03	7.588175E-17	4.191037E-18
7.157123E+03	7.600256E-17	4.197744E-18
7.167050E+03	7.610914E-17	4.203665E-18
7.176976E+03	7.619839E-17	4.208629E-18
7.186903E+03	7.626908E-17	4.212568E-18
7.196830E+03	7.631813E-17	4.215313E-18
7.206756E+03	7.634834E-17	4.217017E-18
7.216683E+03	7.635685E-17	4.217524E-18
7.226610E+03	7.634464E-17	4.216886E-18
7.236536E+03	7.630706E-17	4.214846E-18
7.246463E+03	7.624342E-17	4.211368E-18
7.256390E+03	7.615695E-17	4.206629E-18
7.266316E+03	7.604529E-17	4.200499E-18
7.276243E+03	7.590796E-17	4.192951E-18
7.286170E+03	7.574283E-17	4.183868E-18
7.296096E+03	7.555165E-17	4.173346E-18
7.306023E+03	7.533431E-17	4.161379E-18
7.315950E+03	7.509094E-17	4.147974E-18
7.325876E+03	7.482171E-17	4.133140E-18
7.335803E+03	7.452493E-17	4.116786E-18
7.345730E+03	7.420294E-17	4.099038E-18
7.355656E+03	7.385433E-17	4.079820E-18
7.365583E+03	7.348159E-17	4.059269E-18
7.375510E+03	7.308539E-17	4.037421E-18
7.385436E+03	7.266459E-17	4.014215E-18
7.395363E+03	7.222196E-17	3.989803E-18
7.405290E+03	7.175649E-17	3.964129E-18
7.415216E+03	7.127106E-17	3.937352E-18
7.425143E+03	7.076675E-17	3.909531E-18
7.435070E+03	7.024084E-17	3.880517E-18
7.444996E+03	6.969829E-17	3.850584E-18
7.454923E+03	6.914014E-17	3.819788E-18
7.464850E+03	6.856580E-17	3.788098E-18
7.474776E+03	6.797827E-17	3.755679E-18
7.484703E+03	6.737519E-17	3.722400E-18
7.494630E+03	6.676141E-17	3.688530E-18
7.504556E+03	6.613804E-17	3.654129E-18
7.514483E+03	6.550459E-17	3.619171E-18
7.524410E+03	6.486223E-17	3.583721E-18
7.534336E+03	6.421216E-17	3.547843E-18
7.544263E+03	6.355714E-17	3.511692E-18
7.554190E+03	6.289504E-17	3.475149E-18
7.564116E+03	6.223180E-17	3.438542E-18
7.574043E+03	6.156351E-17	3.401656E-18
7.583970E+03	6.089289E-17	3.364640E-18
7.593896E+03	6.022245E-17	3.327634E-18
7.603823E+03	5.955143E-17	3.290595E-18
7.613750E+03	5.888072E-17	3.253573E-18
7.623676E+03	5.821271E-17	3.216699E-18
7.633603E+03	5.754498E-17	3.179840E-18
7.643530E+03	5.688134E-17	3.143206E-18
7.653456E+03	5.621940E-17	3.106666E-18
7.663383E+03	5.556279E-17	3.070419E-18
7.673310E+03	5.491055E-17	3.034413E-18
7.683236E+03	5.426320E-17	2.998677E-18
7.693163E+03	5.362120E-17	2.963235E-18
7.703090E+03	5.298498E-17	2.928113E-18
