#wls	flux	fluxerr
1.588266E+03	7.668114E-18	2.353623E-19
1.627973E+03	8.057099E-18	2.464136E-19
1.667679E+03	8.405783E-18	2.561279E-19
1.707386E+03	8.710504E-18	2.644042E-19
1.747092E+03	8.960005E-18	2.709146E-19
1.786799E+03	9.137910E-18	2.751828E-19
1.826506E+03	9.219016E-18	2.764771E-19
1.866212E+03	9.178650E-18	2.740956E-19
1.905919E+03	8.993875E-18	2.674027E-19
1.945626E+03	8.648220E-18	2.559688E-19
1.985332E+03	8.157520E-18	2.403278E-19
2.025039E+03	7.577123E-18	2.221664E-19
2.064746E+03	7.015259E-18	2.046854E-19
2.104452E+03	6.613990E-18	1.920062E-19
2.144159E+03	6.504235E-18	1.878427E-19
2.183866E+03	6.767288E-18	1.943995E-19
2.223572E+03	7.418958E-18	2.119532E-19
2.263279E+03	8.421838E-18	2.392506E-19
2.302986E+03	9.698797E-18	2.739327E-19
2.342692E+03	1.116219E-17	3.133892E-19
2.382399E+03	1.273739E-17	3.554271E-19
2.422105E+03	1.436252E-17	3.982549E-19
2.461812E+03	1.600163E-17	4.408369E-19
2.501519E+03	1.763357E-17	4.825674E-19
2.541225E+03	1.925123E-17	5.232378E-19
2.580932E+03	2.085224E-17	5.627719E-19
2.620639E+03	2.243470E-17	6.011091E-19
2.660345E+03	2.400772E-17	6.384832E-19
2.700052E+03	2.557176E-17	6.748919E-19
2.739759E+03	2.713370E-17	7.105019E-19
2.779465E+03	2.869666E-17	7.453754E-19
2.819172E+03	3.026303E-17	7.795539E-19
2.858879E+03	3.183432E-17	8.130540E-19
2.898585E+03	3.341544E-17	8.459769E-19
2.938292E+03	3.501096E-17	8.784117E-19
2.977999E+03	3.661622E-17	9.102122E-19
2.987925E+03	3.701624E-17	9.179903E-19
2.997852E+03	3.741925E-17	9.257861E-19
3.007779E+03	3.782531E-17	9.336000E-19
3.017705E+03	3.822980E-17	9.413176E-19
3.027632E+03	3.863727E-17	9.490505E-19
3.037559E+03	3.904443E-17	9.567173E-19
3.047485E+03	3.945748E-17	9.644694E-19
3.057412E+03	3.987980E-17	9.723877E-19
3.067339E+03	4.030991E-17	9.804342E-19
3.077265E+03	4.075597E-17	9.888053E-19
3.087192E+03	4.120260E-17	9.971253E-19
3.097118E+03	4.166292E-17	1.005711E-18
3.107045E+03	4.212151E-17	1.014188E-18
3.116972E+03	4.259184E-17	1.022879E-18
3.126898E+03	4.306336E-17	1.031530E-18
3.136825E+03	4.353518E-17	1.040119E-18
3.146752E+03	4.401141E-17	1.048743E-18
3.156678E+03	4.449132E-17	1.057384E-18
3.166605E+03	4.496933E-17	1.065908E-18
3.176532E+03	4.544976E-17	1.074417E-18
3.186458E+03	4.592704E-17	1.082781E-18
3.196385E+03	4.640565E-17	1.091103E-18
3.206312E+03	4.688005E-17	1.099254E-18
3.216238E+03	4.735488E-17	1.107342E-18
3.226165E+03	4.782973E-17	1.115359E-18
3.236092E+03	4.829916E-17	1.123176E-18
3.246018E+03	4.876791E-17	1.130905E-18
3.255945E+03	4.923576E-17	1.138540E-18
3.265872E+03	4.969720E-17	1.145954E-18
3.275798E+03	5.015723E-17	1.153264E-18
3.285725E+03	5.061036E-17	1.160342E-18
3.295652E+03	5.106168E-17	1.167308E-18
3.305578E+03	5.151100E-17	1.174156E-18
3.315505E+03	5.195295E-17	1.180764E-18
3.325432E+03	5.239264E-17	1.187250E-18
3.335358E+03	5.282467E-17	1.193492E-18
3.345285E+03	5.325960E-17	1.199729E-18
3.355212E+03	5.368136E-17	1.205600E-18
3.365138E+03	5.410591E-17	1.211463E-18
3.375065E+03	5.452251E-17	1.217079E-18
3.384992E+03	5.493650E-17	1.222568E-18
3.394918E+03	5.534245E-17	1.227810E-18
3.404845E+03	5.575112E-17	1.233045E-18
3.414772E+03	5.614634E-17	1.237914E-18
3.424698E+03	5.654427E-17	1.242776E-18
3.434625E+03	5.693415E-17	1.247394E-18
3.444552E+03	5.732136E-17	1.251888E-18
3.454478E+03	5.770051E-17	1.256141E-18
3.464405E+03	5.808243E-17	1.260388E-18
3.474332E+03	5.845632E-17	1.264397E-18
3.484258E+03	5.882221E-17	1.268168E-18
3.494185E+03	5.919092E-17	1.271937E-18
3.504112E+03	5.955163E-17	1.275470E-18
3.514038E+03	5.990440E-17	1.278772E-18
3.523965E+03	6.026002E-17	1.282072E-18
3.533892E+03	6.060770E-17	1.285141E-18
3.543818E+03	6.094748E-17	1.287983E-18
3.553745E+03	6.129014E-17	1.290825E-18
3.563672E+03	6.162489E-17	1.293441E-18
3.573598E+03	6.195713E-17	1.295946E-18
3.583525E+03	6.228147E-17	1.298226E-18
3.593452E+03	6.260863E-17	1.300508E-18
3.603378E+03	6.292788E-17	1.302568E-18
3.613305E+03	6.323923E-17	1.304408E-18
3.623232E+03	6.355334E-17	1.306249E-18
3.633158E+03	6.385946E-17	1.307871E-18
3.643085E+03	6.415759E-17	1.309275E-18
3.653012E+03	6.445836E-17	1.310679E-18
3.662938E+03	6.475106E-17	1.311866E-18
3.672865E+03	6.503568E-17	1.312838E-18
3.682792E+03	6.532271E-17	1.313807E-18
3.692718E+03	6.560156E-17	1.314560E-18
3.702645E+03	6.587738E-17	1.315204E-18
3.712572E+03	6.614491E-17	1.315634E-18
3.722498E+03	6.640928E-17	1.315953E-18
3.732425E+03	6.667041E-17	1.316160E-18
3.742352E+03	6.692816E-17	1.316255E-18
3.752278E+03	6.717729E-17	1.316136E-18
3.762205E+03	6.741772E-17	1.315802E-18
3.772131E+03	6.765964E-17	1.315456E-18
3.782058E+03	6.789263E-17	1.314893E-18
3.791985E+03	6.811663E-17	1.314116E-18
3.801911E+03	6.834169E-17	1.313321E-18
3.811838E+03	6.855753E-17	1.312310E-18
3.821765E+03	6.876399E-17	1.311083E-18
3.831691E+03	6.896606E-17	1.309736E-18
3.841618E+03	6.916356E-17	1.308269E-18
3.851545E+03	6.935134E-17	1.306586E-18
3.861471E+03	6.953429E-17	1.304780E-18
3.871398E+03	6.970727E-17	1.302758E-18
3.881325E+03	6.987510E-17	1.300611E-18
3.891251E+03	7.003275E-17	1.298248E-18
3.901178E+03	7.018497E-17	1.295760E-18
3.911105E+03	7.033163E-17	1.293146E-18
3.921031E+03	7.046769E-17	1.290315E-18
3.930958E+03	7.059314E-17	1.287270E-18
3.940885E+03	7.071261E-17	1.284099E-18
3.950811E+03	7.082606E-17	1.280801E-18
3.960738E+03	7.092383E-17	1.277206E-18
3.970665E+03	7.102013E-17	1.273572E-18
3.980591E+03	7.110075E-17	1.269647E-18
3.990518E+03	7.117980E-17	1.265684E-18
4.000445E+03	7.124321E-17	1.261437E-18
4.010371E+03	7.130043E-17	1.257077E-18
4.020298E+03	7.134686E-17	1.252523E-18
4.030225E+03	7.138728E-17	1.247863E-18
4.040151E+03	7.141725E-17	1.243023E-18
4.050078E+03	7.143702E-17	1.238008E-18
4.060005E+03	7.145137E-17	1.232904E-18
4.069931E+03	7.145611E-17	1.227643E-18
4.079858E+03	7.145164E-17	1.222232E-18
4.089785E+03	7.143836E-17	1.216682E-18
4.099711E+03	7.142111E-17	1.211078E-18
4.109638E+03	7.139595E-17	1.205354E-18
4.119565E+03	7.136347E-17	1.199524E-18
4.129491E+03	7.132417E-17	1.193597E-18
4.139418E+03	7.127865E-17	1.187586E-18
4.149345E+03	7.123175E-17	1.181574E-18
4.159271E+03	7.117563E-17	1.175432E-18
4.169198E+03	7.111937E-17	1.169313E-18
4.179125E+03	7.105936E-17	1.163157E-18
4.189051E+03	7.099222E-17	1.156912E-18
4.198978E+03	7.092684E-17	1.150724E-18
4.208905E+03	7.085983E-17	1.144539E-18
4.218831E+03	7.079189E-17	1.138370E-18
4.228758E+03	7.072377E-17	1.132229E-18
4.238685E+03	7.065616E-17	1.126128E-18
4.248611E+03	7.058591E-17	1.120018E-18
4.258538E+03	7.052163E-17	1.114036E-18
4.268465E+03	7.045623E-17	1.108072E-18
4.278391E+03	7.039821E-17	1.102258E-18
4.288318E+03	7.034054E-17	1.096485E-18
4.298245E+03	7.028780E-17	1.090825E-18
4.308171E+03	7.024062E-17	1.085287E-18
4.318098E+03	7.019595E-17	1.079824E-18
4.328025E+03	7.016191E-17	1.074561E-18
4.337951E+03	7.013159E-17	1.069392E-18
4.347878E+03	7.010936E-17	1.064383E-18
4.357805E+03	7.009205E-17	1.059486E-18
4.367731E+03	7.008398E-17	1.054766E-18
4.377658E+03	7.008565E-17	1.050229E-18
4.387585E+03	7.009761E-17	1.045883E-18
4.397511E+03	7.011682E-17	1.041681E-18
4.407438E+03	7.014389E-17	1.037631E-18
4.417365E+03	7.018652E-17	1.033846E-18
4.427291E+03	7.023823E-17	1.030228E-18
4.437218E+03	7.029964E-17	1.026784E-18
4.447144E+03	7.037490E-17	1.023575E-18
4.457071E+03	7.046112E-17	1.020557E-18
4.466998E+03	7.056238E-17	1.017786E-18
4.476924E+03	7.067586E-17	1.015221E-18
4.486851E+03	7.080555E-17	1.012916E-18
4.496778E+03	7.094854E-17	1.010830E-18
4.506704E+03	7.110880E-17	1.009015E-18
4.516631E+03	7.128333E-17	1.007429E-18
4.526558E+03	7.147253E-17	1.006074E-18
4.536484E+03	7.167680E-17	1.004956E-18
4.546411E+03	7.189991E-17	1.004125E-18
4.556338E+03	7.214204E-17	1.003581E-18
4.566264E+03	7.239657E-17	1.003232E-18
4.576191E+03	7.267051E-17	1.003173E-18
4.586118E+03	7.296051E-17	1.003356E-18
4.596044E+03	7.327002E-17	1.003827E-18
4.605971E+03	7.359560E-17	1.004538E-18
4.615898E+03	7.393379E-17	1.005440E-18
4.625824E+03	7.429471E-17	1.006670E-18
4.635751E+03	7.466795E-17	1.008087E-18
4.645678E+03	7.506013E-17	1.009779E-18
4.655604E+03	7.546409E-17	1.011648E-18
4.665531E+03	7.588641E-17	1.013783E-18
4.675458E+03	7.632329E-17	1.016133E-18
4.685384E+03	7.677436E-17	1.018692E-18
4.695311E+03	7.724256E-17	1.021500E-18
4.705238E+03	7.772054E-17	1.024459E-18
4.715164E+03	7.821470E-17	1.027655E-18
4.725091E+03	7.872093E-17	1.031033E-18
4.735018E+03	7.923871E-17	1.034588E-18
4.744944E+03	7.976388E-17	1.038266E-18
4.754871E+03	8.030637E-17	1.042198E-18
4.764798E+03	8.085491E-17	1.046238E-18
4.774724E+03	8.141245E-17	1.050427E-18
4.784651E+03	8.197827E-17	1.054756E-18
4.794578E+03	8.255535E-17	1.059265E-18
4.804504E+03	8.313597E-17	1.063858E-18
4.814431E+03	8.372307E-17	1.068573E-18
4.824358E+03	8.431976E-17	1.073453E-18
4.834284E+03	8.492195E-17	1.078448E-18
4.844211E+03	8.552542E-17	1.083504E-18
4.854138E+03	8.613707E-17	1.088712E-18
4.864064E+03	8.675269E-17	1.094017E-18
4.873991E+03	8.736807E-17	1.099369E-18
4.883918E+03	8.799012E-17	1.104855E-18
4.893844E+03	8.861446E-17	1.110421E-18
4.903771E+03	8.924046E-17	1.116061E-18
4.913698E+03	8.986738E-17	1.121766E-18
4.923624E+03	9.049430E-17	1.127527E-18
4.933551E+03	9.112031E-17	1.133332E-18
4.943478E+03	9.174431E-17	1.139171E-18
4.953404E+03	9.236515E-17	1.145031E-18
4.963331E+03	9.298154E-17	1.150896E-18
4.973258E+03	9.359209E-17	1.156751E-18
4.983184E+03	9.419535E-17	1.162580E-18
4.993111E+03	9.478981E-17	1.168366E-18
5.003038E+03	9.537776E-17	1.174138E-18
5.012964E+03	9.594973E-17	1.179783E-18
5.022891E+03	9.650795E-17	1.185328E-18
5.032818E+03	9.705073E-17	1.190756E-18
5.042744E+03	9.758021E-17	1.196093E-18
5.052671E+03	9.808675E-17	1.201224E-18
5.062598E+03	9.857657E-17	1.206227E-18
5.072524E+03	9.903986E-17	1.210982E-18
5.082451E+03	9.948284E-17	1.215569E-18
5.092378E+03	9.989579E-17	1.219868E-18
5.102304E+03	1.002850E-16	1.223959E-18
5.112231E+03	1.006448E-16	1.227774E-18
5.122158E+03	1.009735E-16	1.231293E-18
5.132084E+03	1.012696E-16	1.234499E-18
5.142011E+03	1.015316E-16	1.237376E-18
5.151937E+03	1.017583E-16	1.239908E-18
5.161864E+03	1.019486E-16	1.242083E-18
5.171791E+03	1.021014E-16	1.243889E-18
5.181717E+03	1.022201E-16	1.245368E-18
5.191644E+03	1.022961E-16	1.246413E-18
5.201571E+03	1.023372E-16	1.247121E-18
5.211497E+03	1.023352E-16	1.247391E-18
5.221424E+03	1.022984E-16	1.247325E-18
5.231351E+03	1.022232E-16	1.246878E-18
5.241277E+03	1.021102E-16	1.246056E-18
5.251204E+03	1.019603E-16	1.244869E-18
5.261131E+03	1.017784E-16	1.243377E-18
5.271057E+03	1.015577E-16	1.241494E-18
5.280984E+03	1.013075E-16	1.239333E-18
5.290911E+03	1.010210E-16	1.236810E-18
5.300837E+03	1.007077E-16	1.234040E-18
5.310764E+03	1.003651E-16	1.230989E-18
5.320691E+03	9.999851E-17	1.227721E-18
5.330617E+03	9.960164E-17	1.224157E-18
5.340544E+03	9.918365E-17	1.220403E-18
5.350471E+03	9.873814E-17	1.216378E-18
5.360397E+03	9.827401E-17	1.212187E-18
5.370324E+03	9.779225E-17	1.207840E-18
5.380251E+03	9.728615E-17	1.203249E-18
5.390177E+03	9.676410E-17	1.198514E-18
5.400104E+03	9.621914E-17	1.193545E-18
5.410031E+03	9.566297E-17	1.188484E-18
5.419957E+03	9.508487E-17	1.183193E-18
5.429884E+03	9.448893E-17	1.177719E-18
5.439811E+03	9.387900E-17	1.172107E-18
5.449737E+03	9.325173E-17	1.166312E-18
5.459664E+03	9.261100E-17	1.160377E-18
5.469591E+03	9.194986E-17	1.154213E-18
5.479517E+03	9.127585E-17	1.147910E-18
5.489444E+03	9.058574E-17	1.141423E-18
5.499371E+03	8.988349E-17	1.134800E-18
5.509297E+03	8.916272E-17	1.127956E-18
5.519224E+03	8.843445E-17	1.121027E-18
5.529151E+03	8.768925E-17	1.113890E-18
5.539077E+03	8.693484E-17	1.106640E-18
5.549004E+03	8.616901E-17	1.099245E-18
5.558931E+03	8.539314E-17	1.091721E-18
5.568857E+03	8.461195E-17	1.084124E-18
5.578784E+03	8.382377E-17	1.076431E-18
5.588711E+03	8.303055E-17	1.068664E-18
5.598637E+03	8.223741E-17	1.060887E-18
5.608564E+03	8.144314E-17	1.053081E-18
5.618491E+03	8.065318E-17	1.045317E-18
5.628417E+03	7.986648E-17	1.037577E-18
5.638344E+03	7.908542E-17	1.029894E-18
5.648271E+03	7.831527E-17	1.022332E-18
5.658197E+03	7.755824E-17	1.014922E-18
5.668124E+03	7.681055E-17	1.007614E-18
5.678051E+03	7.608032E-17	1.000513E-18
5.687977E+03	7.536949E-17	9.936449E-19
5.697904E+03	7.467709E-17	9.869983E-19
5.707831E+03	7.400496E-17	9.805979E-19
5.717757E+03	7.335762E-17	9.745046E-19
5.727684E+03	7.273658E-17	9.687398E-19
5.737611E+03	7.213758E-17	9.632484E-19
5.747537E+03	7.157025E-17	9.581606E-19
5.757464E+03	7.102998E-17	9.534166E-19
5.767391E+03	7.051776E-17	9.490321E-19
5.777317E+03	7.003698E-17	9.450547E-19
5.787244E+03	6.958557E-17	9.414591E-19
5.797171E+03	6.916655E-17	9.382887E-19
5.807097E+03	6.878023E-17	9.355508E-19
5.817024E+03	6.842404E-17	9.332129E-19
5.826950E+03	6.809802E-17	9.312787E-19
5.836877E+03	6.780476E-17	9.297864E-19
5.846804E+03	6.754419E-17	9.287382E-19
5.856730E+03	6.731340E-17	9.280975E-19
5.866657E+03	6.711492E-17	9.279020E-19
5.876584E+03	6.694844E-17	9.281508E-19
5.886510E+03	6.681132E-17	9.288107E-19
5.896437E+03	6.670332E-17	9.298815E-19
5.906364E+03	6.662968E-17	9.314395E-19
5.916290E+03	6.658517E-17	9.334153E-19
5.926217E+03	6.656988E-17	9.358134E-19
5.936144E+03	6.658656E-17	9.386762E-19
5.946070E+03	6.663555E-17	9.420119E-19
5.955997E+03	6.671712E-17	9.458285E-19
5.965924E+03	6.682921E-17	9.501003E-19
5.975850E+03	6.697223E-17	9.548371E-19
5.985777E+03	6.715196E-17	9.601254E-19
5.995704E+03	6.736380E-17	9.659037E-19
6.005630E+03	6.761089E-17	9.722215E-19
6.015557E+03	6.789115E-17	9.790532E-19
6.025484E+03	6.820781E-17	9.864499E-19
6.035410E+03	6.856114E-17	9.944203E-19
6.045337E+03	6.895143E-17	1.002974E-18
6.055264E+03	6.937608E-17	1.012077E-18
6.065190E+03	6.983755E-17	1.021771E-18
6.075117E+03	7.033542E-17	1.032054E-18
6.085044E+03	7.086600E-17	1.042879E-18
6.094970E+03	7.143097E-17	1.054273E-18
6.104897E+03	7.202868E-17	1.066217E-18
6.114824E+03	7.265697E-17	1.078685E-18
6.124750E+03	7.331330E-17	1.091642E-18
6.134677E+03	7.399155E-17	1.104999E-18
6.144604E+03	7.469087E-17	1.118747E-18
6.154530E+03	7.540686E-17	1.132823E-18
6.164457E+03	7.613160E-17	1.147109E-18
6.174384E+03	7.686554E-17	1.161612E-18
6.184310E+03	7.759639E-17	1.176147E-18
6.194237E+03	7.832065E-17	1.190661E-18
6.204164E+03	7.903111E-17	1.205042E-18
6.214090E+03	7.971721E-17	1.219127E-18
6.224017E+03	8.037758E-17	1.232890E-18
6.233944E+03	8.099801E-17	1.246109E-18
6.243870E+03	8.157387E-17	1.258708E-18
6.253797E+03	8.209767E-17	1.270563E-18
6.263724E+03	8.256204E-17	1.281552E-18
6.273650E+03	8.296031E-17	1.291564E-18
6.283577E+03	8.328303E-17	1.300440E-18
6.293504E+03	8.352822E-17	1.308138E-18
6.303430E+03	8.369478E-17	1.314631E-18
6.313357E+03	8.377267E-17	1.319749E-18
6.323284E+03	8.376287E-17	1.323493E-18
6.333210E+03	8.366411E-17	1.325832E-18
6.343137E+03	8.347625E-17	1.326750E-18
6.353064E+03	8.319669E-17	1.326192E-18
6.362990E+03	8.283393E-17	1.324281E-18
6.372917E+03	8.238395E-17	1.320940E-18
6.382844E+03	8.185687E-17	1.316320E-18
6.392770E+03	8.125017E-17	1.310369E-18
6.402697E+03	8.057510E-17	1.303256E-18
6.412624E+03	7.983025E-17	1.294948E-18
6.422550E+03	7.902445E-17	1.285580E-18
6.432477E+03	7.816341E-17	1.275236E-18
6.442404E+03	7.725309E-17	1.264004E-18
6.452330E+03	7.629945E-17	1.251976E-18
6.462257E+03	7.530861E-17	1.239245E-18
6.472184E+03	7.428654E-17	1.225905E-18
6.482110E+03	7.323911E-17	1.212048E-18
6.492037E+03	7.217213E-17	1.197767E-18
6.501963E+03	7.109108E-17	1.183150E-18
6.511890E+03	7.000142E-17	1.168286E-18
6.521817E+03	6.890819E-17	1.153258E-18
6.531743E+03	6.781624E-17	1.138147E-18
6.541670E+03	6.673019E-17	1.123031E-18
6.551597E+03	6.565434E-17	1.107983E-18
6.561523E+03	6.459264E-17	1.093071E-18
6.571450E+03	6.354883E-17	1.078361E-18
6.581377E+03	6.252635E-17	1.063914E-18
6.591303E+03	6.152824E-17	1.049785E-18
6.601230E+03	6.055742E-17	1.036026E-18
6.611157E+03	5.961642E-17	1.022686E-18
6.621083E+03	5.870745E-17	1.009806E-18
6.631010E+03	5.783272E-17	9.974293E-19
6.640937E+03	5.699392E-17	9.855896E-19
6.650863E+03	5.619263E-17	9.743196E-19
6.660790E+03	5.543255E-17	9.636887E-19
6.670717E+03	5.471021E-17	9.536422E-19
6.680643E+03	5.402884E-17	9.442419E-19
6.690570E+03	5.339160E-17	9.355489E-19
6.700497E+03	5.279450E-17	9.274992E-19
6.710423E+03	5.224264E-17	9.201883E-19
6.720350E+03	5.173187E-17	9.135492E-19
6.730277E+03	5.126682E-17	9.076694E-19
6.740203E+03	5.084549E-17	9.025198E-19
6.750130E+03	5.046789E-17	8.981069E-19
6.760057E+03	5.013190E-17	8.943988E-19
6.769983E+03	4.984163E-17	8.914746E-19
6.779910E+03	4.959481E-17	8.892999E-19
6.789837E+03	4.939327E-17	8.879138E-19
6.799763E+03	4.923260E-17	8.872426E-19
6.809690E+03	4.911455E-17	8.873240E-19
6.819617E+03	4.903876E-17	8.881570E-19
6.829543E+03	4.900691E-17	8.897777E-19
6.839470E+03	4.901439E-17	8.921087E-19
6.849397E+03	4.906278E-17	8.951838E-19
6.859323E+03	4.915363E-17	8.990370E-19
6.869250E+03	4.928427E-17	9.036251E-19
6.879177E+03	4.945197E-17	9.089031E-19
6.889103E+03	4.966020E-17	9.149404E-19
6.899030E+03	4.990611E-17	9.216896E-19
6.908957E+03	5.018887E-17	9.291403E-19
6.918883E+03	5.050758E-17	9.372809E-19
6.928810E+03	5.086126E-17	9.460979E-19
6.938737E+03	5.124884E-17	9.555762E-19
6.948663E+03	5.166917E-17	9.656991E-19
6.958590E+03	5.212103E-17	9.764476E-19
6.968517E+03	5.260306E-17	9.878010E-19
6.978443E+03	5.311608E-17	9.997786E-19
6.988370E+03	5.365405E-17	1.012271E-18
6.998297E+03	5.421756E-17	1.025292E-18
7.008223E+03	5.480710E-17	1.038855E-18
7.018150E+03	5.541608E-17	1.052838E-18
7.028077E+03	5.604484E-17	1.067250E-18
7.038003E+03	5.669350E-17	1.082097E-18
7.047930E+03	5.735489E-17	1.097244E-18
7.057857E+03	5.803144E-17	1.112740E-18
7.067783E+03	5.871543E-17	1.128438E-18
7.077710E+03	5.940911E-17	1.144382E-18
7.087637E+03	6.010429E-17	1.160418E-18
7.097563E+03	6.080037E-17	1.176532E-18
7.107490E+03	6.149650E-17	1.192709E-18
7.117417E+03	6.218393E-17	1.208780E-18
7.127343E+03	6.286419E-17	1.224772E-18
7.137270E+03	6.352788E-17	1.240503E-18
7.147197E+03	6.417365E-17	1.255943E-18
7.157123E+03	6.479723E-17	1.271008E-18
7.167050E+03	6.539707E-17	1.285663E-18
7.176976E+03	6.596300E-17	1.299706E-18
7.186903E+03	6.649324E-17	1.313097E-18
7.196830E+03	6.698329E-17	1.325743E-18
7.206756E+03	6.742856E-17	1.337548E-18
7.216683E+03	6.782464E-17	1.348419E-18
7.226610E+03	6.816417E-17	1.358203E-18
7.236536E+03	6.844914E-17	1.366932E-18
7.246463E+03	6.867285E-17	1.374465E-18
7.256390E+03	6.882903E-17	1.380670E-18
7.266316E+03	6.891777E-17	1.385538E-18
7.276243E+03	6.893695E-17	1.389020E-18
7.286170E+03	6.888798E-17	1.391133E-18
7.296096E+03	6.876402E-17	1.391731E-18
7.306023E+03	6.856481E-17	1.390798E-18
7.315950E+03	6.829722E-17	1.388465E-18
7.325876E+03	6.795958E-17	1.384688E-18
7.335803E+03	6.755091E-17	1.379439E-18
7.345730E+03	6.707719E-17	1.372829E-18
7.355656E+03	6.654173E-17	1.364918E-18
7.365583E+03	6.594856E-17	1.355781E-18
7.375510E+03	6.530195E-17	1.345497E-18
7.385436E+03	6.460372E-17	1.334097E-18
7.395363E+03	6.386178E-17	1.321738E-18
7.405290E+03	6.308114E-17	1.308517E-18
7.415216E+03	6.226689E-17	1.294535E-18
7.425143E+03	6.142408E-17	1.279892E-18
7.435070E+03	6.055491E-17	1.264630E-18
7.444996E+03	5.966694E-17	1.248902E-18
7.454923E+03	5.876467E-17	1.232801E-18
7.464850E+03	5.785231E-17	1.216412E-18
7.474776E+03	5.693129E-17	1.199763E-18
7.484703E+03	5.600788E-17	1.182984E-18
7.494630E+03	5.508536E-17	1.166144E-18
7.504556E+03	5.416669E-17	1.149305E-18
7.514483E+03	5.325208E-17	1.132472E-18
7.524410E+03	5.234871E-17	1.115796E-18
7.534336E+03	5.145141E-17	1.099170E-18
7.544263E+03	5.056903E-17	1.082782E-18
7.554190E+03	4.969833E-17	1.066566E-18
7.564116E+03	4.884282E-17	1.050596E-18
7.574043E+03	4.800341E-17	1.034896E-18
7.583970E+03	4.717867E-17	1.019436E-18
7.593896E+03	4.637133E-17	1.004276E-18
7.603823E+03	4.558175E-17	9.894265E-19
7.613750E+03	4.480807E-17	9.748494E-19
7.623676E+03	4.405248E-17	9.605943E-19
7.633603E+03	4.331494E-17	9.466627E-19
7.643530E+03	4.259335E-17	9.330109E-19
7.653456E+03	4.189150E-17	9.197238E-19
7.663383E+03	4.120329E-17	9.066703E-19
7.673310E+03	4.053424E-17	8.939732E-19
7.683236E+03	3.988019E-17	8.815438E-19
7.693163E+03	3.924086E-17	8.693774E-19
7.703090E+03	3.861951E-17	8.575486E-19
