#wls	flux	fluxerr
1.541421E+03	2.333517E-18	1.576511E-19
1.579957E+03	2.391196E-18	1.611641E-19
1.618492E+03	2.441147E-18	1.641294E-19
1.657028E+03	2.482495E-18	1.664911E-19
1.695564E+03	2.514532E-18	1.682056E-19
1.734099E+03	2.534230E-18	1.690752E-19
1.772635E+03	2.538026E-18	1.688687E-19
1.811170E+03	2.521799E-18	1.673212E-19
1.849706E+03	2.481349E-18	1.641661E-19
1.888241E+03	2.415466E-18	1.593375E-19
1.926777E+03	2.326135E-18	1.529815E-19
1.965312E+03	2.225692E-18	1.459221E-19
2.003848E+03	2.135794E-18	1.395826E-19
2.042383E+03	2.085239E-18	1.358334E-19
2.080919E+03	2.099947E-18	1.363328E-19
2.119454E+03	2.193272E-18	1.419014E-19
2.157990E+03	2.363141E-18	1.523513E-19
2.196525E+03	2.596664E-18	1.667992E-19
2.235061E+03	2.877533E-18	1.841529E-19
2.273597E+03	3.190130E-18	2.033779E-19
2.312132E+03	3.523886E-18	2.237745E-19
2.350668E+03	3.871484E-18	2.448582E-19
2.389203E+03	4.230194E-18	2.664403E-19
2.427739E+03	4.599410E-18	2.884677E-19
2.466274E+03	4.979881E-18	3.109719E-19
2.504810E+03	5.373367E-18	3.340463E-19
2.543345E+03	5.781276E-18	3.577595E-19
2.581881E+03	6.206366E-18	3.822614E-19
2.620416E+03	6.649740E-18	4.075964E-19
2.658952E+03	7.113720E-18	4.338814E-19
2.697487E+03	7.600227E-18	4.612049E-19
2.736023E+03	8.110770E-18	4.896275E-19
2.774558E+03	8.648529E-18	5.193073E-19
2.813094E+03	9.217409E-18	5.504403E-19
2.851630E+03	9.822772E-18	5.833026E-19
2.890165E+03	1.047114E-17	6.182303E-19
2.899799E+03	1.064120E-17	6.273518E-19
2.909433E+03	1.081415E-17	6.366098E-19
2.919067E+03	1.099038E-17	6.460261E-19
2.928701E+03	1.117083E-17	6.556543E-19
2.938334E+03	1.135593E-17	6.655190E-19
2.947968E+03	1.154654E-17	6.756689E-19
2.957602E+03	1.174321E-17	6.861339E-19
2.967236E+03	1.194506E-17	6.968613E-19
2.976870E+03	1.215301E-17	7.079032E-19
2.986504E+03	1.236658E-17	7.192291E-19
2.996138E+03	1.258565E-17	7.308306E-19
3.005772E+03	1.281082E-17	7.427410E-19
3.015406E+03	1.304164E-17	7.549319E-19
3.025039E+03	1.327874E-17	7.674380E-19
3.034673E+03	1.352171E-17	7.802340E-19
3.044307E+03	1.377043E-17	7.933105E-19
3.053941E+03	1.402610E-17	8.067345E-19
3.063575E+03	1.428793E-17	8.204585E-19
3.073209E+03	1.455658E-17	8.345188E-19
3.082843E+03	1.483203E-17	8.489110E-19
3.092477E+03	1.511422E-17	8.636306E-19
3.102110E+03	1.540351E-17	8.786950E-19
3.111744E+03	1.569988E-17	8.941007E-19
3.121378E+03	1.600404E-17	9.098865E-19
3.131012E+03	1.631528E-17	9.260082E-19
3.140646E+03	1.663433E-17	9.425056E-19
3.150280E+03	1.696121E-17	9.593770E-19
3.159914E+03	1.729632E-17	9.766418E-19
3.169548E+03	1.763932E-17	9.942787E-19
3.179182E+03	1.799062E-17	1.012308E-18
3.188815E+03	1.835028E-17	1.030729E-18
3.198449E+03	1.871872E-17	1.049563E-18
3.208083E+03	1.909601E-17	1.068812E-18
3.217717E+03	1.948186E-17	1.088455E-18
3.227351E+03	1.987673E-17	1.108516E-18
3.236985E+03	2.028033E-17	1.128974E-18
3.246619E+03	2.069314E-17	1.149854E-18
3.256253E+03	2.111490E-17	1.171138E-18
3.265887E+03	2.154574E-17	1.192829E-18
3.275520E+03	2.198541E-17	1.214911E-18
3.285154E+03	2.243406E-17	1.237387E-18
3.294788E+03	2.289145E-17	1.260243E-18
3.304422E+03	2.335775E-17	1.283484E-18
3.314056E+03	2.383200E-17	1.307054E-18
3.323690E+03	2.431477E-17	1.330980E-18
3.333324E+03	2.480548E-17	1.355229E-18
3.342958E+03	2.530358E-17	1.379767E-18
3.352591E+03	2.580928E-17	1.404603E-18
3.362225E+03	2.632167E-17	1.429684E-18
3.371859E+03	2.684022E-17	1.454977E-18
3.381493E+03	2.736517E-17	1.480495E-18
3.391127E+03	2.789525E-17	1.506165E-18
3.400761E+03	2.843071E-17	1.531999E-18
3.410395E+03	2.897029E-17	1.557927E-18
3.420029E+03	2.951427E-17	1.583961E-18
3.429663E+03	3.006138E-17	1.610033E-18
3.439296E+03	3.061155E-17	1.636135E-18
3.448930E+03	3.116428E-17	1.662240E-18
3.458564E+03	3.171949E-17	1.688342E-18
3.468198E+03	3.227670E-17	1.714414E-18
3.477832E+03	3.283504E-17	1.740409E-18
3.487466E+03	3.339479E-17	1.766340E-18
3.497100E+03	3.395468E-17	1.792140E-18
3.506734E+03	3.451459E-17	1.817801E-18
3.516367E+03	3.507358E-17	1.843273E-18
3.526001E+03	3.563189E-17	1.868569E-18
3.535635E+03	3.618855E-17	1.893638E-18
3.545269E+03	3.674336E-17	1.918468E-18
3.554903E+03	3.729649E-17	1.943069E-18
3.564537E+03	3.784729E-17	1.967407E-18
3.574171E+03	3.839629E-17	1.991510E-18
3.583805E+03	3.894279E-17	2.015342E-18
3.593439E+03	3.948728E-17	2.038928E-18
3.603072E+03	4.002984E-17	2.062272E-18
3.612706E+03	4.057010E-17	2.085356E-18
3.622340E+03	4.110850E-17	2.108202E-18
3.631974E+03	4.164507E-17	2.130812E-18
3.641608E+03	4.218022E-17	2.153207E-18
3.651242E+03	4.271395E-17	2.175388E-18
3.660876E+03	4.324663E-17	2.197372E-18
3.670510E+03	4.377784E-17	2.219140E-18
3.680144E+03	4.430873E-17	2.240747E-18
3.689777E+03	4.483837E-17	2.262149E-18
3.699411E+03	4.536795E-17	2.283403E-18
3.709045E+03	4.589682E-17	2.304478E-18
3.718679E+03	4.642567E-17	2.325407E-18
3.728313E+03	4.695393E-17	2.346163E-18
3.737947E+03	4.748224E-17	2.366775E-18
3.747581E+03	4.801038E-17	2.387234E-18
3.757215E+03	4.853813E-17	2.407528E-18
3.766848E+03	4.906627E-17	2.427695E-18
3.776482E+03	4.959449E-17	2.447719E-18
3.786116E+03	5.012270E-17	2.467595E-18
3.795750E+03	5.065110E-17	2.487334E-18
3.805384E+03	5.117996E-17	2.506947E-18
3.815018E+03	5.170899E-17	2.526421E-18
3.824652E+03	5.223802E-17	2.545746E-18
3.834286E+03	5.276675E-17	2.564908E-18
3.843920E+03	5.329576E-17	2.583934E-18
3.853553E+03	5.382478E-17	2.602811E-18
3.863187E+03	5.435356E-17	2.621527E-18
3.872821E+03	5.488170E-17	2.640062E-18
3.882455E+03	5.540897E-17	2.658405E-18
3.892089E+03	5.593603E-17	2.676589E-18
3.901723E+03	5.646172E-17	2.694557E-18
3.911357E+03	5.698736E-17	2.712373E-18
3.920991E+03	5.751130E-17	2.729957E-18
3.930624E+03	5.803508E-17	2.747385E-18
3.940258E+03	5.855815E-17	2.764629E-18
3.949892E+03	5.908068E-17	2.781697E-18
3.959526E+03	5.960283E-17	2.798598E-18
3.969160E+03	6.012490E-17	2.815345E-18
3.978794E+03	6.064773E-17	2.831978E-18
3.988428E+03	6.117181E-17	2.848518E-18
3.998062E+03	6.169721E-17	2.864970E-18
4.007696E+03	6.222448E-17	2.881357E-18
4.017329E+03	6.275492E-17	2.897739E-18
4.026963E+03	6.328931E-17	2.914150E-18
4.036597E+03	6.382841E-17	2.930625E-18
4.046231E+03	6.437247E-17	2.947173E-18
4.055865E+03	6.492233E-17	2.963829E-18
4.065499E+03	6.547927E-17	2.980650E-18
4.075133E+03	6.604400E-17	2.997667E-18
4.084767E+03	6.661605E-17	3.014853E-18
4.094400E+03	6.719764E-17	3.032308E-18
4.104034E+03	6.778761E-17	3.049975E-18
4.113668E+03	6.838691E-17	3.067893E-18
4.123302E+03	6.899646E-17	3.086100E-18
4.132936E+03	6.961540E-17	3.104554E-18
4.142570E+03	7.024441E-17	3.123282E-18
4.152204E+03	7.088312E-17	3.142264E-18
4.161838E+03	7.153150E-17	3.161494E-18
4.171472E+03	7.218945E-17	3.180964E-18
4.181105E+03	7.285553E-17	3.200609E-18
4.190739E+03	7.352877E-17	3.220382E-18
4.200373E+03	7.420863E-17	3.240258E-18
4.210007E+03	7.489567E-17	3.260258E-18
4.219641E+03	7.558897E-17	3.280340E-18
4.229275E+03	7.628823E-17	3.300490E-18
4.238909E+03	7.699351E-17	3.320708E-18
4.248543E+03	7.770291E-17	3.340910E-18
4.258177E+03	7.841618E-17	3.361085E-18
4.267810E+03	7.913172E-17	3.381163E-18
4.277444E+03	7.984778E-17	3.401069E-18
4.287078E+03	8.056379E-17	3.420780E-18
4.296712E+03	8.127718E-17	3.440188E-18
4.306346E+03	8.198710E-17	3.459258E-18
4.315980E+03	8.269064E-17	3.477871E-18
4.325614E+03	8.338622E-17	3.495964E-18
4.335248E+03	8.407282E-17	3.513498E-18
4.344881E+03	8.474729E-17	3.530346E-18
4.354515E+03	8.540853E-17	3.546468E-18
4.364149E+03	8.605319E-17	3.561733E-18
4.373783E+03	8.667932E-17	3.576067E-18
4.383417E+03	8.728500E-17	3.589400E-18
4.393051E+03	8.786834E-17	3.601663E-18
4.402685E+03	8.842659E-17	3.612755E-18
4.412319E+03	8.895795E-17	3.622613E-18
4.421953E+03	8.945983E-17	3.631144E-18
4.431586E+03	8.993063E-17	3.638296E-18
4.441220E+03	9.036968E-17	3.644056E-18
4.450854E+03	9.077490E-17	3.648354E-18
4.460488E+03	9.114477E-17	3.651144E-18
4.470122E+03	9.147945E-17	3.652448E-18
4.479756E+03	9.177814E-17	3.652248E-18
4.489390E+03	9.204206E-17	3.650610E-18
4.499024E+03	9.227053E-17	3.647520E-18
4.508657E+03	9.246583E-17	3.643085E-18
4.518291E+03	9.262922E-17	3.637368E-18
4.527925E+03	9.276236E-17	3.630447E-18
4.537559E+03	9.286577E-17	3.622357E-18
4.547193E+03	9.294358E-17	3.613270E-18
4.556827E+03	9.299701E-17	3.603245E-18
4.566461E+03	9.302835E-17	3.592381E-18
4.576095E+03	9.303900E-17	3.580742E-18
4.585729E+03	9.303401E-17	3.568532E-18
4.595362E+03	9.301308E-17	3.555744E-18
4.604996E+03	9.298033E-17	3.542545E-18
4.614630E+03	9.293795E-17	3.529022E-18
4.624264E+03	9.288925E-17	3.515307E-18
4.633898E+03	9.283682E-17	3.501499E-18
4.643532E+03	9.278500E-17	3.487766E-18
4.653166E+03	9.273857E-17	3.474286E-18
4.662800E+03	9.270178E-17	3.461218E-18
4.672434E+03	9.268042E-17	3.448775E-18
4.682067E+03	9.267984E-17	3.437150E-18
4.691701E+03	9.270246E-17	3.426426E-18
4.701335E+03	9.275272E-17	3.416759E-18
4.710969E+03	9.283444E-17	3.408277E-18
4.720603E+03	9.294912E-17	3.401022E-18
4.730237E+03	9.309861E-17	3.395047E-18
4.739871E+03	9.328581E-17	3.390445E-18
4.749505E+03	9.351081E-17	3.387202E-18
4.759138E+03	9.377295E-17	3.385281E-18
4.768772E+03	9.407505E-17	3.384767E-18
4.778406E+03	9.441507E-17	3.385572E-18
4.788040E+03	9.479353E-17	3.387699E-18
4.797674E+03	9.521003E-17	3.391119E-18
4.807308E+03	9.566424E-17	3.395806E-18
4.816942E+03	9.615660E-17	3.401760E-18
4.826576E+03	9.668614E-17	3.408932E-18
4.836210E+03	9.725366E-17	3.417337E-18
4.845843E+03	9.785834E-17	3.426929E-18
4.855477E+03	9.850138E-17	3.437738E-18
4.865111E+03	9.918300E-17	3.449756E-18
4.874745E+03	9.990275E-17	3.462951E-18
4.884379E+03	1.006619E-16	3.477356E-18
4.894013E+03	1.014620E-16	3.493006E-18
4.903647E+03	1.023016E-16	3.509835E-18
4.913281E+03	1.031821E-16	3.527876E-18
4.922914E+03	1.041038E-16	3.547128E-18
4.932548E+03	1.050663E-16	3.567557E-18
4.942182E+03	1.060719E-16	3.589226E-18
4.951816E+03	1.071188E-16	3.612061E-18
4.961450E+03	1.082086E-16	3.636094E-18
4.971084E+03	1.093401E-16	3.661277E-18
4.980718E+03	1.105148E-16	3.687635E-18
4.990352E+03	1.117315E-16	3.715120E-18
4.999986E+03	1.129914E-16	3.743748E-18
5.009619E+03	1.142933E-16	3.773466E-18
5.019253E+03	1.156358E-16	3.804214E-18
5.028887E+03	1.170210E-16	3.836042E-18
5.038521E+03	1.184474E-16	3.868888E-18
5.048155E+03	1.199136E-16	3.902688E-18
5.057789E+03	1.214204E-16	3.937454E-18
5.067423E+03	1.229662E-16	3.973116E-18
5.077057E+03	1.245519E-16	4.009689E-18
5.086691E+03	1.261747E-16	4.047066E-18
5.096324E+03	1.278353E-16	4.085258E-18
5.105958E+03	1.295333E-16	4.124238E-18
5.115592E+03	1.312682E-16	4.163972E-18
5.125226E+03	1.330367E-16	4.204342E-18
5.134860E+03	1.348405E-16	4.245389E-18
5.144494E+03	1.366770E-16	4.287015E-18
5.154128E+03	1.385430E-16	4.329111E-18
5.163762E+03	1.404376E-16	4.371634E-18
5.173395E+03	1.423551E-16	4.414395E-18
5.183029E+03	1.442945E-16	4.457353E-18
5.192663E+03	1.462483E-16	4.500273E-18
5.202297E+03	1.482111E-16	4.542978E-18
5.211931E+03	1.501780E-16	4.585314E-18
5.221565E+03	1.521390E-16	4.626975E-18
5.231199E+03	1.540859E-16	4.667715E-18
5.240833E+03	1.560118E-16	4.707327E-18
5.250467E+03	1.579058E-16	4.745494E-18
5.260100E+03	1.597601E-16	4.781987E-18
5.269734E+03	1.615631E-16	4.816479E-18
5.279368E+03	1.633031E-16	4.848635E-18
5.289002E+03	1.649699E-16	4.878180E-18
5.298636E+03	1.665515E-16	4.904787E-18
5.308270E+03	1.680413E-16	4.928291E-18
5.317904E+03	1.694261E-16	4.948341E-18
5.327538E+03	1.706962E-16	4.964692E-18
5.337171E+03	1.718443E-16	4.977175E-18
5.346805E+03	1.728583E-16	4.985484E-18
5.356439E+03	1.737354E-16	4.989592E-18
5.366073E+03	1.744632E-16	4.989194E-18
5.375707E+03	1.750372E-16	4.984215E-18
5.385341E+03	1.754521E-16	4.974567E-18
5.394975E+03	1.757040E-16	4.960196E-18
5.404609E+03	1.757901E-16	4.941089E-18
5.414243E+03	1.757111E-16	4.917322E-18
5.423876E+03	1.754633E-16	4.888860E-18
5.433510E+03	1.750502E-16	4.855862E-18
5.443144E+03	1.744747E-16	4.818475E-18
5.452778E+03	1.737398E-16	4.776839E-18
5.462412E+03	1.728549E-16	4.731273E-18
5.472046E+03	1.718253E-16	4.681982E-18
5.481680E+03	1.706593E-16	4.629249E-18
5.491314E+03	1.693664E-16	4.573380E-18
5.500947E+03	1.679568E-16	4.514698E-18
5.510581E+03	1.664414E-16	4.453545E-18
5.520215E+03	1.648318E-16	4.390271E-18
5.529849E+03	1.631398E-16	4.325225E-18
5.539483E+03	1.613793E-16	4.258806E-18
5.549117E+03	1.595605E-16	4.191313E-18
5.558751E+03	1.576954E-16	4.123084E-18
5.568385E+03	1.557974E-16	4.054483E-18
5.578019E+03	1.538758E-16	3.985773E-18
5.587652E+03	1.519447E-16	3.917324E-18
5.597286E+03	1.500106E-16	3.849310E-18
5.606920E+03	1.480826E-16	3.781969E-18
5.616554E+03	1.461725E-16	3.715600E-18
5.626188E+03	1.442861E-16	3.650346E-18
5.635822E+03	1.424316E-16	3.586408E-18
5.645456E+03	1.406133E-16	3.523884E-18
5.655090E+03	1.388359E-16	3.462883E-18
5.664724E+03	1.371069E-16	3.403576E-18
5.674357E+03	1.354263E-16	3.345950E-18
5.683991E+03	1.337996E-16	3.290128E-18
5.693625E+03	1.322288E-16	3.236136E-18
5.703259E+03	1.307131E-16	3.183946E-18
5.712893E+03	1.292548E-16	3.133591E-18
5.722527E+03	1.278552E-16	3.085086E-18
5.732161E+03	1.265122E-16	3.038365E-18
5.741795E+03	1.252279E-16	2.993460E-18
5.751428E+03	1.239995E-16	2.950287E-18
5.761062E+03	1.228254E-16	2.908794E-18
5.770696E+03	1.217069E-16	2.868995E-18
5.780330E+03	1.206422E-16	2.830835E-18
5.789964E+03	1.196295E-16	2.794252E-18
5.799598E+03	1.186685E-16	2.759231E-18
5.809232E+03	1.177589E-16	2.725750E-18
5.818866E+03	1.168991E-16	2.693757E-18
5.828500E+03	1.160876E-16	2.663211E-18
5.838133E+03	1.153262E-16	2.634136E-18
5.847767E+03	1.146137E-16	2.606496E-18
5.857401E+03	1.139507E-16	2.580295E-18
5.867035E+03	1.133366E-16	2.555506E-18
5.876669E+03	1.127737E-16	2.532175E-18
5.886303E+03	1.122604E-16	2.510254E-18
5.895937E+03	1.117967E-16	2.489732E-18
5.905571E+03	1.113857E-16	2.470673E-18
5.915204E+03	1.110262E-16	2.453041E-18
5.924838E+03	1.107159E-16	2.436775E-18
5.934472E+03	1.104554E-16	2.421884E-18
5.944106E+03	1.102470E-16	2.408409E-18
5.953740E+03	1.100901E-16	2.396335E-18
5.963374E+03	1.099914E-16	2.385801E-18
5.973008E+03	1.099492E-16	2.376760E-18
5.982642E+03	1.099659E-16	2.369262E-18
5.992276E+03	1.100440E-16	2.363358E-18
6.001909E+03	1.101831E-16	2.359033E-18
6.011543E+03	1.103843E-16	2.356307E-18
6.021177E+03	1.106485E-16	2.355196E-18
6.030811E+03	1.109733E-16	2.355650E-18
6.040445E+03	1.113594E-16	2.357685E-18
6.050079E+03	1.118071E-16	2.361306E-18
6.059713E+03	1.123165E-16	2.366517E-18
6.069347E+03	1.128827E-16	2.373221E-18
6.078981E+03	1.135083E-16	2.381476E-18
6.088614E+03	1.141891E-16	2.391200E-18
6.098248E+03	1.149222E-16	2.402339E-18
6.107882E+03	1.157075E-16	2.414902E-18
6.117516E+03	1.165398E-16	2.428789E-18
6.127150E+03	1.174167E-16	2.443964E-18
6.136784E+03	1.183339E-16	2.460346E-18
6.146418E+03	1.192901E-16	2.477929E-18
6.156052E+03	1.202809E-16	2.496627E-18
6.165685E+03	1.213045E-16	2.516419E-18
6.175319E+03	1.223561E-16	2.537202E-18
6.184953E+03	1.234323E-16	2.558909E-18
6.194587E+03	1.245299E-16	2.581479E-18
6.204221E+03	1.256477E-16	2.604887E-18
6.213855E+03	1.267811E-16	2.629042E-18
6.223489E+03	1.279289E-16	2.653921E-18
6.233123E+03	1.290882E-16	2.679465E-18
6.242757E+03	1.302552E-16	2.705600E-18
6.252390E+03	1.314280E-16	2.732287E-18
6.262024E+03	1.325976E-16	2.759338E-18
6.271658E+03	1.337618E-16	2.786708E-18
6.281292E+03	1.349096E-16	2.814166E-18
6.290926E+03	1.360370E-16	2.841628E-18
6.300560E+03	1.371333E-16	2.868867E-18
6.310194E+03	1.381874E-16	2.895644E-18
6.319828E+03	1.391920E-16	2.921799E-18
6.329461E+03	1.401379E-16	2.947129E-18
6.339095E+03	1.410136E-16	2.971385E-18
6.348729E+03	1.418131E-16	2.994422E-18
6.358363E+03	1.425239E-16	3.015963E-18
6.367997E+03	1.431433E-16	3.035931E-18
6.377631E+03	1.436608E-16	3.054082E-18
6.387265E+03	1.440754E-16	3.070373E-18
6.396899E+03	1.443786E-16	3.084597E-18
6.406533E+03	1.445693E-16	3.096707E-18
6.416166E+03	1.446432E-16	3.106578E-18
6.425800E+03	1.446014E-16	3.114207E-18
6.435434E+03	1.444417E-16	3.119513E-18
6.445068E+03	1.441652E-16	3.122489E-18
6.454702E+03	1.437760E-16	3.123191E-18
6.464336E+03	1.432747E-16	3.121600E-18
6.473970E+03	1.426649E-16	3.117762E-18
6.483604E+03	1.419535E-16	3.111793E-18
6.493237E+03	1.411432E-16	3.103722E-18
6.502871E+03	1.402396E-16	3.093639E-18
6.512505E+03	1.392489E-16	3.081652E-18
6.522139E+03	1.381778E-16	3.067879E-18
6.531773E+03	1.370353E-16	3.052495E-18
6.541407E+03	1.358267E-16	3.035586E-18
6.551041E+03	1.345617E-16	3.017349E-18
6.560675E+03	1.332436E-16	2.997832E-18
6.570309E+03	1.318847E-16	2.977294E-18
6.579942E+03	1.304929E-16	2.955895E-18
6.589576E+03	1.290720E-16	2.933701E-18
6.599210E+03	1.276363E-16	2.911027E-18
6.608844E+03	1.261868E-16	2.887882E-18
6.618478E+03	1.247376E-16	2.864577E-18
6.628112E+03	1.232889E-16	2.841111E-18
6.637746E+03	1.218536E-16	2.817777E-18
6.647380E+03	1.204333E-16	2.794606E-18
6.657014E+03	1.190333E-16	2.771719E-18
6.666647E+03	1.176601E-16	2.749271E-18
6.676281E+03	1.163178E-16	2.727354E-18
6.685915E+03	1.150099E-16	2.706053E-18
6.695549E+03	1.137390E-16	2.685439E-18
6.705183E+03	1.125057E-16	2.665524E-18
6.714817E+03	1.113160E-16	2.646460E-18
6.724451E+03	1.101674E-16	2.628194E-18
6.734085E+03	1.090634E-16	2.610815E-18
6.743718E+03	1.080049E-16	2.594355E-18
6.753352E+03	1.069948E-16	2.578889E-18
6.762986E+03	1.060298E-16	2.564348E-18
6.772620E+03	1.051142E-16	2.550848E-18
6.782254E+03	1.042463E-16	2.538352E-18
6.791888E+03	1.034261E-16	2.526874E-18
6.801522E+03	1.026536E-16	2.516424E-18
6.811156E+03	1.019306E-16	2.507052E-18
6.820790E+03	1.012546E-16	2.498713E-18
6.830423E+03	1.006274E-16	2.491457E-18
6.840057E+03	1.000463E-16	2.485231E-18
6.849691E+03	9.951271E-17	2.480079E-18
6.859325E+03	9.902587E-17	2.475992E-18
6.868959E+03	9.858324E-17	2.472918E-18
6.878593E+03	9.818576E-17	2.470890E-18
6.888227E+03	9.783261E-17	2.469898E-18
6.897861E+03	9.752286E-17	2.469928E-18
6.907494E+03	9.725724E-17	2.471010E-18
6.917128E+03	9.703081E-17	2.473027E-18
6.926762E+03	9.684412E-17	2.476002E-18
6.936396E+03	9.669779E-17	2.479962E-18
6.946030E+03	9.658825E-17	2.484822E-18
6.955664E+03	9.651388E-17	2.490551E-18
6.965298E+03	9.647473E-17	2.497158E-18
6.974932E+03	9.646692E-17	2.504550E-18
6.984566E+03	9.649033E-17	2.512733E-18
6.994199E+03	9.654059E-17	2.521598E-18
7.003833E+03	9.661742E-17	2.531146E-18
7.013467E+03	9.671805E-17	2.541310E-18
7.023101E+03	9.684002E-17	2.552032E-18
7.032735E+03	9.697832E-17	2.563183E-18
7.042369E+03	9.713423E-17	2.574803E-18
7.052003E+03	9.730061E-17	2.586707E-18
7.061637E+03	9.747633E-17	2.598866E-18
7.071271E+03	9.765824E-17	2.611201E-18
7.080904E+03	9.784321E-17	2.623628E-18
7.090538E+03	9.802805E-17	2.636065E-18
7.100172E+03	9.820938E-17	2.648420E-18
7.109806E+03	9.838404E-17	2.660608E-18
7.119440E+03	9.855105E-17	2.672604E-18
7.129074E+03	9.870311E-17	2.684206E-18
7.138708E+03	9.884159E-17	2.695451E-18
7.148342E+03	9.896380E-17	2.706263E-18
7.157975E+03	9.906728E-17	2.716573E-18
7.167609E+03	9.914756E-17	2.726255E-18
7.177243E+03	9.920270E-17	2.735252E-18
7.186877E+03	9.923103E-17	2.743513E-18
7.196511E+03	9.923121E-17	2.750997E-18
7.206145E+03	9.920242E-17	2.757676E-18
7.215779E+03	9.914423E-17	2.763535E-18
7.225413E+03	9.905653E-17	2.768564E-18
7.235047E+03	9.893990E-17	2.772776E-18
7.244680E+03	9.879290E-17	2.776126E-18
7.254314E+03	9.862149E-17	2.778775E-18
7.263948E+03	9.842291E-17	2.780644E-18
7.273582E+03	9.820167E-17	2.781855E-18
7.283216E+03	9.796034E-17	2.782478E-18
7.292850E+03	9.770406E-17	2.782657E-18
7.302484E+03	9.743106E-17	2.782341E-18
7.312118E+03	9.714660E-17	2.781678E-18
7.321751E+03	9.685611E-17	2.780824E-18
7.331385E+03	9.655770E-17	2.779724E-18
7.341019E+03	9.625869E-17	2.778590E-18
7.350653E+03	9.595674E-17	2.777357E-18
7.360287E+03	9.565857E-17	2.776221E-18
7.369921E+03	9.536350E-17	2.775165E-18
7.379555E+03	9.507277E-17	2.774228E-18
7.389189E+03	9.478743E-17	2.773445E-18
7.398823E+03	9.450583E-17	2.772769E-18
7.408456E+03	9.423522E-17	2.772418E-18
7.418090E+03	9.396869E-17	2.772192E-18
7.427724E+03	9.370829E-17	2.772155E-18
7.437358E+03	9.345617E-17	2.772374E-18
7.446992E+03	9.320666E-17	2.772685E-18
7.456626E+03	9.296370E-17	2.773209E-18
7.466260E+03	9.272587E-17	2.773906E-18
7.475894E+03	9.248678E-17	2.774589E-18
