#wls	flux	fluxerr
1.541421E+03	7.617202E-19	3.525301E-20
1.579957E+03	7.764292E-19	3.592762E-20
1.618492E+03	7.884034E-19	3.647533E-20
1.657028E+03	7.972852E-19	3.687964E-20
1.695564E+03	8.028868E-19	3.713193E-20
1.734099E+03	8.044967E-19	3.719939E-20
1.772635E+03	8.010134E-19	3.703120E-20
1.811170E+03	7.910415E-19	3.656298E-20
1.849706E+03	7.737444E-19	3.575626E-20
1.888241E+03	7.485945E-19	3.458688E-20
1.926777E+03	7.165801E-19	3.310073E-20
1.965312E+03	6.812951E-19	3.146401E-20
2.003848E+03	6.496707E-19	2.999685E-20
2.042383E+03	6.301103E-19	2.908710E-20
2.080919E+03	6.301305E-19	2.908128E-20
2.119454E+03	6.529808E-19	3.012869E-20
2.157990E+03	6.975238E-19	3.217609E-20
2.196525E+03	7.590290E-19	3.500457E-20
2.235061E+03	8.318616E-19	3.835368E-20
2.273597E+03	9.110584E-19	4.199421E-20
2.312132E+03	9.930912E-19	4.576326E-20
2.350668E+03	1.075895E-18	4.956553E-20
2.389203E+03	1.158730E-18	5.336690E-20
2.427739E+03	1.241023E-18	5.714079E-20
2.466274E+03	1.323176E-18	6.090576E-20
2.504810E+03	1.405613E-18	6.468125E-20
2.543345E+03	1.488606E-18	6.847962E-20
2.581881E+03	1.573128E-18	7.234559E-20
2.620416E+03	1.659201E-18	7.627995E-20
2.658952E+03	1.747521E-18	8.031459E-20
2.697487E+03	1.838247E-18	8.445665E-20
2.736023E+03	1.932022E-18	8.873545E-20
2.774558E+03	2.029488E-18	9.318025E-20
2.813094E+03	2.130707E-18	9.779361E-20
2.851630E+03	2.236877E-18	1.026303E-19
2.890165E+03	2.348653E-18	1.077198E-19
2.899799E+03	2.377339E-18	1.090256E-19
2.909433E+03	2.406829E-18	1.103679E-19
2.919067E+03	2.436508E-18	1.117186E-19
2.928701E+03	2.466740E-18	1.130944E-19
2.938334E+03	2.497703E-18	1.145033E-19
2.947968E+03	2.529583E-18	1.159540E-19
2.957602E+03	2.562340E-18	1.174446E-19
2.967236E+03	2.596260E-18	1.189881E-19
2.976870E+03	2.630665E-18	1.205536E-19
2.986504E+03	2.665846E-18	1.221541E-19
2.996138E+03	2.702102E-18	1.238037E-19
3.005772E+03	2.739084E-18	1.254861E-19
3.015406E+03	2.776767E-18	1.272002E-19
3.025039E+03	2.815466E-18	1.289606E-19
3.034673E+03	2.854837E-18	1.307513E-19
3.044307E+03	2.895193E-18	1.325866E-19
3.053941E+03	2.936213E-18	1.344520E-19
3.063575E+03	2.978573E-18	1.363783E-19
3.073209E+03	3.021575E-18	1.383336E-19
3.082843E+03	3.065203E-18	1.403171E-19
3.092477E+03	3.110151E-18	1.423605E-19
3.102110E+03	3.156065E-18	1.444477E-19
3.111744E+03	3.202942E-18	1.465784E-19
3.121378E+03	3.250780E-18	1.487527E-19
3.131012E+03	3.299937E-18	1.509868E-19
3.140646E+03	3.350058E-18	1.532645E-19
3.150280E+03	3.401507E-18	1.556024E-19
3.159914E+03	3.453923E-18	1.579840E-19
3.169548E+03	3.508048E-18	1.604432E-19
3.179182E+03	3.563152E-18	1.629466E-19
3.188815E+03	3.619611E-18	1.655113E-19
3.198449E+03	3.677434E-18	1.681379E-19
3.208083E+03	3.737008E-18	1.708438E-19
3.217717E+03	3.797968E-18	1.736125E-19
3.227351E+03	3.860704E-18	1.764616E-19
3.236985E+03	3.924847E-18	1.793744E-19
3.246619E+03	3.990791E-18	1.823689E-19
3.256253E+03	4.058550E-18	1.854455E-19
3.265887E+03	4.128530E-18	1.886229E-19
3.275520E+03	4.200356E-18	1.918838E-19
3.285154E+03	4.274038E-18	1.952288E-19
3.294788E+03	4.349984E-18	1.986763E-19
3.304422E+03	4.427815E-18	2.022091E-19
3.314056E+03	4.508340E-18	2.058640E-19
3.323690E+03	4.591178E-18	2.096237E-19
3.333324E+03	4.676332E-18	2.134882E-19
3.342958E+03	4.763824E-18	2.174585E-19
3.352591E+03	4.854475E-18	2.215719E-19
3.362225E+03	4.947479E-18	2.257918E-19
3.371859E+03	5.043262E-18	2.301374E-19
3.381493E+03	5.141830E-18	2.346091E-19
3.391127E+03	5.243186E-18	2.392068E-19
3.400761E+03	5.347752E-18	2.439499E-19
3.410395E+03	5.455539E-18	2.488387E-19
3.420029E+03	5.566123E-18	2.538538E-19
3.429663E+03	5.680354E-18	2.590340E-19
3.439296E+03	5.797377E-18	2.643402E-19
3.448930E+03	5.918039E-18	2.698110E-19
3.458564E+03	6.042328E-18	2.754458E-19
3.468198E+03	6.169811E-18	2.812248E-19
3.477832E+03	6.300903E-18	2.871668E-19
3.487466E+03	6.435578E-18	2.932705E-19
3.497100E+03	6.573391E-18	2.995157E-19
3.506734E+03	6.715606E-18	3.059599E-19
3.516367E+03	6.860895E-18	3.125425E-19
3.526001E+03	7.010088E-18	3.193012E-19
3.535635E+03	7.163149E-18	3.262344E-19
3.545269E+03	7.319594E-18	3.333199E-19
3.554903E+03	7.480245E-18	3.405951E-19
3.564537E+03	7.644166E-18	3.480174E-19
3.574171E+03	7.811735E-18	3.556037E-19
3.583805E+03	7.983319E-18	3.633709E-19
3.593439E+03	8.158404E-18	3.712954E-19
3.603072E+03	8.336905E-18	3.793733E-19
3.612706E+03	8.519171E-18	3.876204E-19
3.622340E+03	8.704664E-18	3.960121E-19
3.631974E+03	8.893718E-18	4.045637E-19
3.641608E+03	9.085771E-18	4.132494E-19
3.651242E+03	9.281155E-18	4.220844E-19
3.660876E+03	9.479729E-18	4.310621E-19
3.670510E+03	9.681363E-18	4.401765E-19
3.680144E+03	9.885458E-18	4.494004E-19
3.689777E+03	1.009275E-17	4.587672E-19
3.699411E+03	1.030218E-17	4.682288E-19
3.709045E+03	1.051403E-17	4.777977E-19
3.718679E+03	1.072812E-17	4.874656E-19
3.728313E+03	1.094380E-17	4.972034E-19
3.737947E+03	1.116177E-17	5.070429E-19
3.747581E+03	1.138095E-17	5.169342E-19
3.757215E+03	1.160155E-17	5.268878E-19
3.766848E+03	1.182338E-17	5.368942E-19
3.776482E+03	1.204576E-17	5.469230E-19
3.786116E+03	1.226891E-17	5.569843E-19
3.795750E+03	1.249218E-17	5.670477E-19
3.805384E+03	1.271576E-17	5.771232E-19
3.815018E+03	1.293902E-17	5.871808E-19
3.824652E+03	1.316172E-17	5.972104E-19
3.834286E+03	1.338366E-17	6.072027E-19
3.843920E+03	1.360462E-17	6.171482E-19
3.853553E+03	1.382444E-17	6.270388E-19
3.863187E+03	1.404249E-17	6.368466E-19
3.872821E+03	1.425906E-17	6.465844E-19
3.882455E+03	1.447314E-17	6.562068E-19
3.892089E+03	1.468549E-17	6.657479E-19
3.901723E+03	1.489559E-17	6.751843E-19
3.911357E+03	1.510296E-17	6.844943E-19
3.920991E+03	1.530799E-17	6.936961E-19
3.930624E+03	1.551028E-17	7.027707E-19
3.940258E+03	1.570987E-17	7.117208E-19
3.949892E+03	1.590685E-17	7.205496E-19
3.959526E+03	1.610092E-17	7.292443E-19
3.969160E+03	1.629224E-17	7.378124E-19
3.978794E+03	1.648102E-17	7.462626E-19
3.988428E+03	1.666709E-17	7.545878E-19
3.998062E+03	1.685113E-17	7.628191E-19
4.007696E+03	1.703306E-17	7.709522E-19
4.017329E+03	1.721283E-17	7.789853E-19
4.026963E+03	1.739123E-17	7.869538E-19
4.036597E+03	1.756827E-17	7.948586E-19
4.046231E+03	1.774400E-17	8.027024E-19
4.055865E+03	1.791929E-17	8.105237E-19
4.065499E+03	1.809386E-17	8.183101E-19
4.075133E+03	1.826860E-17	8.261018E-19
4.084767E+03	1.844364E-17	8.339054E-19
4.094400E+03	1.861915E-17	8.417273E-19
4.104034E+03	1.879603E-17	8.496094E-19
4.113668E+03	1.897444E-17	8.575585E-19
4.123302E+03	1.915493E-17	8.655990E-19
4.132936E+03	1.933727E-17	8.737209E-19
4.142570E+03	1.952236E-17	8.819647E-19
4.152204E+03	1.971033E-17	8.903361E-19
4.161838E+03	1.990165E-17	8.988568E-19
4.171472E+03	2.009644E-17	9.075315E-19
4.181105E+03	2.029548E-17	9.163956E-19
4.190739E+03	2.049809E-17	9.254186E-19
4.200373E+03	2.070536E-17	9.346494E-19
4.210007E+03	2.091726E-17	9.440865E-19
4.219641E+03	2.113337E-17	9.537112E-19
4.229275E+03	2.135464E-17	9.635661E-19
4.238909E+03	2.158093E-17	9.736441E-19
4.248543E+03	2.181200E-17	9.839357E-19
4.258177E+03	2.204797E-17	9.944451E-19
4.267810E+03	2.228886E-17	1.005174E-18
4.277444E+03	2.253465E-17	1.016120E-18
4.287078E+03	2.278491E-17	1.027265E-18
4.296712E+03	2.304018E-17	1.038633E-18
4.306346E+03	2.329920E-17	1.050166E-18
4.315980E+03	2.356204E-17	1.061869E-18
4.325614E+03	2.382800E-17	1.073710E-18
4.335248E+03	2.409703E-17	1.085685E-18
4.344881E+03	2.436795E-17	1.097742E-18
4.354515E+03	2.464022E-17	1.109857E-18
4.364149E+03	2.491359E-17	1.122018E-18
4.373783E+03	2.518670E-17	1.134165E-18
4.383417E+03	2.545956E-17	1.146296E-18
4.393051E+03	2.573104E-17	1.158363E-18
4.402685E+03	2.599999E-17	1.170312E-18
4.412319E+03	2.626557E-17	1.182107E-18
4.421953E+03	2.652729E-17	1.193724E-18
4.431586E+03	2.678389E-17	1.205109E-18
4.441220E+03	2.703449E-17	1.216221E-18
4.450854E+03	2.727819E-17	1.227019E-18
4.460488E+03	2.751411E-17	1.237465E-18
4.470122E+03	2.774140E-17	1.247520E-18
4.479756E+03	2.795922E-17	1.257147E-18
4.489390E+03	2.816607E-17	1.266279E-18
4.499024E+03	2.836194E-17	1.274914E-18
4.508657E+03	2.854580E-17	1.283008E-18
4.518291E+03	2.871670E-17	1.290517E-18
4.527925E+03	2.887450E-17	1.297436E-18
4.537559E+03	2.901842E-17	1.303731E-18
4.547193E+03	2.914818E-17	1.309387E-18
4.556827E+03	2.926355E-17	1.314396E-18
4.566461E+03	2.936412E-17	1.318740E-18
4.576095E+03	2.944992E-17	1.322419E-18
4.585729E+03	2.952114E-17	1.325443E-18
4.595362E+03	2.957844E-17	1.327842E-18
4.604996E+03	2.962190E-17	1.329620E-18
4.614630E+03	2.965214E-17	1.330804E-18
4.624264E+03	2.967022E-17	1.331443E-18
4.633898E+03	2.967666E-17	1.331560E-18
4.643532E+03	2.967282E-17	1.331215E-18
4.653166E+03	2.966014E-17	1.330475E-18
4.662800E+03	2.963947E-17	1.329378E-18
4.672434E+03	2.961244E-17	1.327996E-18
4.682067E+03	2.958105E-17	1.326419E-18
4.691701E+03	2.954633E-17	1.324695E-18
4.701335E+03	2.950998E-17	1.322897E-18
4.710969E+03	2.947334E-17	1.321088E-18
4.720603E+03	2.943842E-17	1.319358E-18
4.730237E+03	2.940582E-17	1.317732E-18
4.739871E+03	2.937744E-17	1.316296E-18
4.749505E+03	2.935478E-17	1.315117E-18
4.759138E+03	2.933859E-17	1.314230E-18
4.768772E+03	2.932991E-17	1.313679E-18
4.778406E+03	2.933034E-17	1.313537E-18
4.788040E+03	2.934042E-17	1.313828E-18
4.797674E+03	2.936128E-17	1.314602E-18
4.807308E+03	2.939363E-17	1.315891E-18
4.816942E+03	2.943815E-17	1.317724E-18
4.826576E+03	2.949539E-17	1.320127E-18
4.836210E+03	2.956621E-17	1.323138E-18
4.845843E+03	2.965106E-17	1.326777E-18
4.855477E+03	2.975033E-17	1.331061E-18
4.865111E+03	2.986436E-17	1.336004E-18
4.874745E+03	2.999344E-17	1.341620E-18
4.884379E+03	3.013812E-17	1.347934E-18
4.894013E+03	3.029861E-17	1.354953E-18
4.903647E+03	3.047470E-17	1.362669E-18
4.913281E+03	3.066684E-17	1.371101E-18
4.922914E+03	3.087506E-17	1.380251E-18
4.932548E+03	3.109939E-17	1.390119E-18
4.942182E+03	3.133977E-17	1.400703E-18
4.951816E+03	3.159613E-17	1.412000E-18
4.961450E+03	3.186867E-17	1.424017E-18
4.971084E+03	3.215654E-17	1.436718E-18
4.980718E+03	3.246051E-17	1.450135E-18
4.990352E+03	3.277925E-17	1.464210E-18
4.999986E+03	3.311310E-17	1.478958E-18
5.009619E+03	3.346163E-17	1.494359E-18
5.019253E+03	3.382398E-17	1.510374E-18
5.028887E+03	3.419958E-17	1.526977E-18
5.038521E+03	3.458810E-17	1.544155E-18
5.048155E+03	3.498845E-17	1.561858E-18
5.057789E+03	3.540014E-17	1.580064E-18
5.067423E+03	3.582223E-17	1.598731E-18
5.077057E+03	3.625292E-17	1.617779E-18
5.086691E+03	3.669220E-17	1.637207E-18
5.096324E+03	3.713806E-17	1.656925E-18
5.105958E+03	3.758913E-17	1.676872E-18
5.115592E+03	3.804395E-17	1.696984E-18
5.125226E+03	3.850134E-17	1.717206E-18
5.134860E+03	3.895963E-17	1.737466E-18
5.144494E+03	3.941628E-17	1.757649E-18
5.154128E+03	3.987023E-17	1.777708E-18
5.163762E+03	4.031916E-17	1.797541E-18
5.173395E+03	4.076108E-17	1.817058E-18
5.183029E+03	4.119436E-17	1.836188E-18
5.192663E+03	4.161652E-17	1.854819E-18
5.202297E+03	4.202503E-17	1.872839E-18
5.211931E+03	4.241865E-17	1.890192E-18
5.221565E+03	4.279485E-17	1.906768E-18
5.231199E+03	4.315158E-17	1.922474E-18
5.240833E+03	4.348686E-17	1.937223E-18
5.250467E+03	4.379875E-17	1.950929E-18
5.260100E+03	4.408545E-17	1.963511E-18
5.269734E+03	4.434525E-17	1.974894E-18
5.279368E+03	4.457702E-17	1.985028E-18
5.289002E+03	4.477848E-17	1.993812E-18
5.298636E+03	4.494927E-17	2.001230E-18
5.308270E+03	4.508835E-17	2.007237E-18
5.317904E+03	4.519398E-17	2.011755E-18
5.327538E+03	4.526553E-17	2.014757E-18
5.337171E+03	4.530304E-17	2.016245E-18
5.346805E+03	4.530633E-17	2.016210E-18
5.356439E+03	4.527589E-17	2.014677E-18
5.366073E+03	4.521155E-17	2.011637E-18
5.375707E+03	4.511426E-17	2.007134E-18
5.385341E+03	4.498473E-17	2.001198E-18
5.394975E+03	4.482345E-17	1.993853E-18
5.404609E+03	4.463153E-17	1.985148E-18
5.414243E+03	4.441072E-17	1.975161E-18
5.423876E+03	4.416206E-17	1.963939E-18
5.433510E+03	4.388718E-17	1.951554E-18
5.443144E+03	4.358826E-17	1.938105E-18
5.452778E+03	4.326632E-17	1.923635E-18
5.462412E+03	4.292418E-17	1.908272E-18
5.472046E+03	4.256303E-17	1.892068E-18
5.481680E+03	4.218580E-17	1.875153E-18
5.491314E+03	4.179377E-17	1.857584E-18
5.500947E+03	4.138951E-17	1.839477E-18
5.510581E+03	4.097474E-17	1.820907E-18
5.520215E+03	4.055196E-17	1.801986E-18
5.529849E+03	4.012326E-17	1.782806E-18
5.539483E+03	3.969026E-17	1.763439E-18
5.549117E+03	3.925488E-17	1.743972E-18
5.558751E+03	3.881941E-17	1.724505E-18
5.568385E+03	3.838485E-17	1.705083E-18
5.578019E+03	3.795362E-17	1.685813E-18
5.587652E+03	3.752657E-17	1.666733E-18
5.597286E+03	3.710515E-17	1.647908E-18
5.606920E+03	3.669142E-17	1.629428E-18
5.616554E+03	3.628553E-17	1.611301E-18
5.626188E+03	3.588928E-17	1.593606E-18
5.635822E+03	3.550330E-17	1.576371E-18
5.645456E+03	3.512810E-17	1.559618E-18
5.655090E+03	3.476477E-17	1.543396E-18
5.664724E+03	3.441391E-17	1.527732E-18
5.674357E+03	3.407570E-17	1.512633E-18
5.683991E+03	3.375055E-17	1.498116E-18
5.693625E+03	3.343875E-17	1.484197E-18
5.703259E+03	3.314020E-17	1.470868E-18
5.712893E+03	3.285534E-17	1.458150E-18
5.722527E+03	3.258387E-17	1.446030E-18
5.732161E+03	3.232608E-17	1.434520E-18
5.741795E+03	3.208124E-17	1.423587E-18
5.751428E+03	3.184950E-17	1.413239E-18
5.761062E+03	3.163036E-17	1.403452E-18
5.770696E+03	3.142388E-17	1.394230E-18
5.780330E+03	3.122947E-17	1.385547E-18
5.789964E+03	3.104684E-17	1.377388E-18
5.799598E+03	3.087568E-17	1.369741E-18
5.809232E+03	3.071599E-17	1.362606E-18
5.818866E+03	3.056686E-17	1.355942E-18
5.828500E+03	3.042829E-17	1.349748E-18
5.838133E+03	3.030002E-17	1.344014E-18
5.847767E+03	3.018178E-17	1.338727E-18
5.857401E+03	3.007336E-17	1.333878E-18
5.867035E+03	2.997516E-17	1.329485E-18
5.876669E+03	2.988642E-17	1.325514E-18
5.886303E+03	2.980762E-17	1.321986E-18
5.895937E+03	2.973867E-17	1.318897E-18
5.905571E+03	2.967982E-17	1.316258E-18
5.915204E+03	2.963078E-17	1.314057E-18
5.924838E+03	2.959183E-17	1.312306E-18
5.934472E+03	2.956334E-17	1.311020E-18
5.944106E+03	2.954451E-17	1.310166E-18
5.953740E+03	2.953572E-17	1.309759E-18
5.963374E+03	2.953651E-17	1.309779E-18
5.973008E+03	2.954727E-17	1.310244E-18
5.982642E+03	2.956871E-17	1.311184E-18
5.992276E+03	2.960065E-17	1.312593E-18
6.001909E+03	2.964320E-17	1.314474E-18
6.011543E+03	2.969645E-17	1.316833E-18
6.021177E+03	2.976048E-17	1.319672E-18
6.030811E+03	2.983474E-17	1.322967E-18
6.040445E+03	2.991986E-17	1.326746E-18
6.050079E+03	3.001521E-17	1.330982E-18
6.059713E+03	3.012075E-17	1.335673E-18
6.069347E+03	3.023670E-17	1.340827E-18
6.078981E+03	3.036260E-17	1.346426E-18
6.088614E+03	3.049828E-17	1.352462E-18
6.098248E+03	3.064351E-17	1.358923E-18
6.107882E+03	3.079830E-17	1.365813E-18
6.117516E+03	3.096200E-17	1.373100E-18
6.127150E+03	3.113453E-17	1.380782E-18
6.136784E+03	3.131541E-17	1.388838E-18
6.146418E+03	3.150412E-17	1.397245E-18
6.156052E+03	3.170005E-17	1.405975E-18
6.165685E+03	3.190282E-17	1.415013E-18
6.175319E+03	3.211136E-17	1.424310E-18
6.184953E+03	3.232478E-17	1.433827E-18
6.194587E+03	3.254278E-17	1.443551E-18
6.204221E+03	3.276400E-17	1.453422E-18
6.213855E+03	3.298756E-17	1.463400E-18
6.223489E+03	3.321183E-17	1.473414E-18
6.233123E+03	3.343646E-17	1.483448E-18
6.242757E+03	3.365997E-17	1.493436E-18
6.252390E+03	3.388045E-17	1.503293E-18
6.262024E+03	3.409735E-17	1.512996E-18
6.271658E+03	3.430796E-17	1.522423E-18
6.281292E+03	3.451128E-17	1.531531E-18
6.290926E+03	3.470487E-17	1.540211E-18
6.300560E+03	3.488774E-17	1.548419E-18
6.310194E+03	3.505781E-17	1.556063E-18
6.319828E+03	3.521415E-17	1.563100E-18
6.329461E+03	3.535440E-17	1.569427E-18
6.339095E+03	3.547811E-17	1.575024E-18
6.348729E+03	3.558344E-17	1.579808E-18
6.358363E+03	3.566900E-17	1.583718E-18
6.367997E+03	3.573430E-17	1.586731E-18
6.377631E+03	3.577780E-17	1.588779E-18
6.387265E+03	3.579892E-17	1.589836E-18
6.396899E+03	3.579679E-17	1.589864E-18
6.406533E+03	3.577116E-17	1.588850E-18
6.416166E+03	3.572153E-17	1.586772E-18
6.425800E+03	3.564760E-17	1.583616E-18
6.435434E+03	3.554967E-17	1.579397E-18
6.445068E+03	3.542744E-17	1.574099E-18
6.454702E+03	3.528123E-17	1.567737E-18
6.464336E+03	3.511235E-17	1.560369E-18
6.473970E+03	3.492113E-17	1.552009E-18
6.483604E+03	3.470849E-17	1.542697E-18
6.493237E+03	3.447553E-17	1.532483E-18
6.502871E+03	3.422394E-17	1.521440E-18
6.512505E+03	3.395515E-17	1.509633E-18
6.522139E+03	3.367037E-17	1.497114E-18
6.531773E+03	3.337168E-17	1.483976E-18
6.541407E+03	3.306050E-17	1.470283E-18
6.551041E+03	3.273946E-17	1.456150E-18
6.560675E+03	3.241010E-17	1.441645E-18
6.570309E+03	3.207399E-17	1.426839E-18
6.579942E+03	3.173381E-17	1.411851E-18
6.589576E+03	3.139111E-17	1.396749E-18
6.599210E+03	3.104776E-17	1.381616E-18
6.608844E+03	3.070560E-17	1.366535E-18
6.618478E+03	3.036635E-17	1.351581E-18
6.628112E+03	3.003167E-17	1.336829E-18
6.637746E+03	2.970346E-17	1.322364E-18
6.647380E+03	2.938282E-17	1.308233E-18
6.657014E+03	2.907107E-17	1.294497E-18
6.666647E+03	2.876944E-17	1.281209E-18
6.676281E+03	2.847904E-17	1.268420E-18
6.685915E+03	2.820085E-17	1.256173E-18
6.695549E+03	2.793575E-17	1.244507E-18
6.705183E+03	2.768453E-17	1.233458E-18
6.714817E+03	2.744784E-17	1.223055E-18
6.724451E+03	2.722660E-17	1.213339E-18
6.734085E+03	2.702031E-17	1.204289E-18
6.743718E+03	2.683036E-17	1.195965E-18
6.753352E+03	2.665644E-17	1.188355E-18
6.762986E+03	2.649911E-17	1.181484E-18
6.772620E+03	2.635860E-17	1.175362E-18
6.782254E+03	2.623472E-17	1.169981E-18
6.791888E+03	2.612756E-17	1.165345E-18
6.801522E+03	2.603718E-17	1.161457E-18
6.811156E+03	2.596355E-17	1.158317E-18
6.820790E+03	2.590664E-17	1.155922E-18
6.830423E+03	2.586638E-17	1.154271E-18
6.840057E+03	2.584265E-17	1.153357E-18
6.849691E+03	2.583466E-17	1.153147E-18
6.859325E+03	2.584316E-17	1.153673E-18
6.868959E+03	2.586698E-17	1.154885E-18
6.878593E+03	2.590619E-17	1.156784E-18
6.888227E+03	2.596015E-17	1.159343E-18
6.897861E+03	2.602918E-17	1.162577E-18
6.907494E+03	2.611195E-17	1.166425E-18
6.917128E+03	2.620834E-17	1.170884E-18
6.926762E+03	2.631824E-17	1.175948E-18
6.936396E+03	2.644017E-17	1.181551E-18
6.946030E+03	2.657456E-17	1.187714E-18
6.955664E+03	2.671987E-17	1.194366E-18
6.965298E+03	2.687578E-17	1.201495E-18
6.974932E+03	2.704129E-17	1.209056E-18
6.984566E+03	2.721604E-17	1.217032E-18
6.994199E+03	2.739860E-17	1.225359E-18
7.003833E+03	2.758886E-17	1.234034E-18
7.013467E+03	2.778497E-17	1.242974E-18
7.023101E+03	2.798676E-17	1.252170E-18
7.032735E+03	2.819301E-17	1.261569E-18
7.042369E+03	2.840280E-17	1.271129E-18
7.052003E+03	2.861450E-17	1.280778E-18
7.061637E+03	2.882787E-17	1.290504E-18
7.071271E+03	2.904157E-17	1.300248E-18
7.080904E+03	2.925466E-17	1.309968E-18
7.090538E+03	2.946579E-17	1.319603E-18
7.100172E+03	2.967399E-17	1.329109E-18
7.109806E+03	2.987868E-17	1.338462E-18
7.119440E+03	3.007856E-17	1.347601E-18
7.129074E+03	3.027269E-17	1.356486E-18
7.138708E+03	3.046021E-17	1.365077E-18
7.148342E+03	3.064026E-17	1.373336E-18
7.157975E+03	3.081204E-17	1.381226E-18
7.167609E+03	3.097478E-17	1.388714E-18
7.177243E+03	3.112777E-17	1.395767E-18
7.186877E+03	3.127037E-17	1.402355E-18
7.196511E+03	3.140199E-17	1.408454E-18
7.206145E+03	3.152210E-17	1.414038E-18
7.215779E+03	3.163025E-17	1.419086E-18
7.225413E+03	3.172604E-17	1.423582E-18
7.235047E+03	3.180876E-17	1.427493E-18
7.244680E+03	3.187894E-17	1.430842E-18
7.254314E+03	3.193561E-17	1.433585E-18
7.263948E+03	3.197945E-17	1.435753E-18
7.273582E+03	3.201002E-17	1.437326E-18
7.283216E+03	3.202731E-17	1.438303E-18
7.292850E+03	3.203180E-17	1.438705E-18
7.302484E+03	3.202319E-17	1.438519E-18
7.312118E+03	3.200204E-17	1.437770E-18
7.321751E+03	3.196856E-17	1.436466E-18
7.331385E+03	3.192299E-17	1.434618E-18
7.341019E+03	3.186556E-17	1.432237E-18
7.350653E+03	3.179659E-17	1.429336E-18
7.360287E+03	3.171675E-17	1.425946E-18
7.369921E+03	3.162598E-17	1.422063E-18
7.379555E+03	3.152499E-17	1.417719E-18
7.389189E+03	3.141370E-17	1.412911E-18
7.398823E+03	3.129323E-17	1.407688E-18
7.408456E+03	3.116309E-17	1.402028E-18
7.418090E+03	3.102398E-17	1.395964E-18
7.427724E+03	3.087661E-17	1.389525E-18
7.437358E+03	3.072043E-17	1.382688E-18
7.446992E+03	3.055650E-17	1.375500E-18
7.456626E+03	3.038467E-17	1.367955E-18
7.466260E+03	3.020513E-17	1.360059E-18
7.475894E+03	3.001809E-17	1.351824E-18
