#wls	flux	fluxerr
1.541421E+03	7.265645E-19	7.101475E-21
1.579957E+03	7.432155E-19	7.264221E-21
1.618492E+03	7.575619E-19	7.404440E-21
1.657028E+03	7.690892E-19	7.517106E-21
1.695564E+03	7.774361E-19	7.598685E-21
1.734099E+03	7.820295E-19	7.643579E-21
1.772635E+03	7.817510E-19	7.640854E-21
1.811170E+03	7.751714E-19	7.576542E-21
1.849706E+03	7.610985E-19	7.438990E-21
1.888241E+03	7.392304E-19	7.225247E-21
1.926777E+03	7.103124E-19	6.942600E-21
1.965312E+03	6.779817E-19	6.626596E-21
2.003848E+03	6.487473E-19	6.340856E-21
2.042383E+03	6.314669E-19	6.171955E-21
2.080919E+03	6.334689E-19	6.191519E-21
2.119454E+03	6.585877E-19	6.437027E-21
2.157990E+03	7.056549E-19	6.897058E-21
2.196525E+03	7.701887E-19	7.527807E-21
2.235061E+03	8.464562E-19	8.273239E-21
2.273597E+03	9.296264E-19	9.086137E-21
2.312132E+03	1.016333E-18	9.933598E-21
2.350668E+03	1.104532E-18	1.079565E-20
2.389203E+03	1.192901E-18	1.165936E-20
2.427739E+03	1.281876E-18	1.252899E-20
2.466274E+03	1.371535E-18	1.340530E-20
2.504810E+03	1.462613E-18	1.429548E-20
2.543345E+03	1.555464E-18	1.520299E-20
2.581881E+03	1.651218E-18	1.613888E-20
2.620416E+03	1.750245E-18	1.710675E-20
2.658952E+03	1.853709E-18	1.811798E-20
2.697487E+03	1.962228E-18	1.917863E-20
2.736023E+03	2.076700E-18	2.029746E-20
2.774558E+03	2.198039E-18	2.148339E-20
2.813094E+03	2.327507E-18	2.274878E-20
2.851630E+03	2.466087E-18	2.410323E-20
2.890165E+03	2.615138E-18	2.556002E-20
2.899799E+03	2.654476E-18	2.594451E-20
2.909433E+03	2.694529E-18	2.633597E-20
2.919067E+03	2.734941E-18	2.673095E-20
2.928701E+03	2.776502E-18	2.713716E-20
2.938334E+03	2.819424E-18	2.755666E-20
2.947968E+03	2.863558E-18	2.798802E-20
2.957602E+03	2.908864E-18	2.843083E-20
2.967236E+03	2.955684E-18	2.888843E-20
2.976870E+03	3.003611E-18	2.935687E-20
2.986504E+03	3.053001E-18	2.983959E-20
2.996138E+03	3.103445E-18	3.033261E-20
3.005772E+03	3.155308E-18	3.083951E-20
3.015406E+03	3.208577E-18	3.136015E-20
3.025039E+03	3.262841E-18	3.189051E-20
3.034673E+03	3.318890E-18	3.243832E-20
3.044307E+03	3.375903E-18	3.299555E-20
3.053941E+03	3.434311E-18	3.356641E-20
3.063575E+03	3.494515E-18	3.415483E-20
3.073209E+03	3.555690E-18	3.475274E-20
3.082843E+03	3.618654E-18	3.536814E-20
3.092477E+03	3.682992E-18	3.599696E-20
3.102110E+03	3.748701E-18	3.663918E-20
3.111744E+03	3.816204E-18	3.729894E-20
3.121378E+03	3.885079E-18	3.797210E-20
3.131012E+03	3.955758E-18	3.866290E-20
3.140646E+03	4.027815E-18	3.936717E-20
3.150280E+03	4.101688E-18	4.008918E-20
3.159914E+03	4.177388E-18	4.082905E-20
3.169548E+03	4.254926E-18	4.158689E-20
3.179182E+03	4.334311E-18	4.236278E-20
3.188815E+03	4.415554E-18	4.315682E-20
3.198449E+03	4.498664E-18	4.396912E-20
3.208083E+03	4.584115E-18	4.480429E-20
3.217717E+03	4.671454E-18	4.565792E-20
3.227351E+03	4.760699E-18	4.653016E-20
3.236985E+03	4.852321E-18	4.742566E-20
3.246619E+03	4.946343E-18	4.834460E-20
3.256253E+03	5.042774E-18	4.928708E-20
3.265887E+03	5.141156E-18	5.024864E-20
3.275520E+03	5.242452E-18	5.123869E-20
3.285154E+03	5.346200E-18	5.225268E-20
3.294788E+03	5.452900E-18	5.329554E-20
3.304422E+03	5.561587E-18	5.435781E-20
3.314056E+03	5.673733E-18	5.545390E-20
3.323690E+03	5.788379E-18	5.657441E-20
3.333324E+03	5.906016E-18	5.772416E-20
3.342958E+03	6.026655E-18	5.890324E-20
3.352591E+03	6.150306E-18	6.011177E-20
3.362225E+03	6.276963E-18	6.134968E-20
3.371859E+03	6.407147E-18	6.262206E-20
3.381493E+03	6.540849E-18	6.392882E-20
3.391127E+03	6.677563E-18	6.526502E-20
3.400761E+03	6.817794E-18	6.663559E-20
3.410395E+03	6.961530E-18	6.804042E-20
3.420029E+03	7.108763E-18	6.947943E-20
3.429663E+03	7.259995E-18	7.095752E-20
3.439296E+03	7.414686E-18	7.246943E-20
3.448930E+03	7.572811E-18	7.401489E-20
3.458564E+03	7.735396E-18	7.560394E-20
3.468198E+03	7.901347E-18	7.722589E-20
3.477832E+03	8.071690E-18	7.889076E-20
3.487466E+03	8.245846E-18	8.059290E-20
3.497100E+03	8.423764E-18	8.233182E-20
3.506734E+03	8.605924E-18	8.411219E-20
3.516367E+03	8.792257E-18	8.593335E-20
3.526001E+03	8.982695E-18	8.779462E-20
3.535635E+03	9.177157E-18	8.969523E-20
3.545269E+03	9.375551E-18	9.163426E-20
3.554903E+03	9.578327E-18	9.361613E-20
3.564537E+03	9.785373E-18	9.563972E-20
3.574171E+03	9.996031E-18	9.769862E-20
3.583805E+03	1.021127E-17	9.980233E-20
3.593439E+03	1.042986E-17	1.019387E-19
3.603072E+03	1.065275E-17	1.041171E-19
3.612706E+03	1.087978E-17	1.063361E-19
3.622340E+03	1.111026E-17	1.085887E-19
3.631974E+03	1.134457E-17	1.108788E-19
3.641608E+03	1.158254E-17	1.132046E-19
3.651242E+03	1.182456E-17	1.155699E-19
3.660876E+03	1.206930E-17	1.179620E-19
3.670510E+03	1.231770E-17	1.203898E-19
3.680144E+03	1.256953E-17	1.228510E-19
3.689777E+03	1.282457E-17	1.253437E-19
3.699411E+03	1.308202E-17	1.278599E-19
3.709045E+03	1.334275E-17	1.304082E-19
3.718679E+03	1.360593E-17	1.329805E-19
3.728313E+03	1.387129E-17	1.355739E-19
3.737947E+03	1.413852E-17	1.381857E-19
3.747581E+03	1.440786E-17	1.408182E-19
3.757215E+03	1.467896E-17	1.434678E-19
3.766848E+03	1.495089E-17	1.461256E-19
3.776482E+03	1.522436E-17	1.487983E-19
3.786116E+03	1.549781E-17	1.514709E-19
3.795750E+03	1.577133E-17	1.541442E-19
3.805384E+03	1.604440E-17	1.568130E-19
3.815018E+03	1.631701E-17	1.594774E-19
3.824652E+03	1.658751E-17	1.621212E-19
3.834286E+03	1.685585E-17	1.647439E-19
3.843920E+03	1.712196E-17	1.673446E-19
3.853553E+03	1.738412E-17	1.699069E-19
3.863187E+03	1.764280E-17	1.724351E-19
3.872821E+03	1.789685E-17	1.749181E-19
3.882455E+03	1.814516E-17	1.773449E-19
3.892089E+03	1.838770E-17	1.797155E-19
3.901723E+03	1.862400E-17	1.820249E-19
3.911357E+03	1.885362E-17	1.842691E-19
3.920991E+03	1.907569E-17	1.864395E-19
3.930624E+03	1.928995E-17	1.885336E-19
3.940258E+03	1.949625E-17	1.905498E-19
3.949892E+03	1.969399E-17	1.924824E-19
3.959526E+03	1.988367E-17	1.943363E-19
3.969160E+03	2.006543E-17	1.961126E-19
3.978794E+03	2.023803E-17	1.977996E-19
3.988428E+03	2.040326E-17	1.994144E-19
3.998062E+03	2.056016E-17	2.009479E-19
4.007696E+03	2.070980E-17	2.024103E-19
4.017329E+03	2.085241E-17	2.038041E-19
4.026963E+03	2.098834E-17	2.051326E-19
4.036597E+03	2.111852E-17	2.064049E-19
4.046231E+03	2.124348E-17	2.076262E-19
4.055865E+03	2.136427E-17	2.088067E-19
4.065499E+03	2.148156E-17	2.099530E-19
4.075133E+03	2.159602E-17	2.110717E-19
4.084767E+03	2.170881E-17	2.121740E-19
4.094400E+03	2.182018E-17	2.132624E-19
4.104034E+03	2.193080E-17	2.143436E-19
4.113668E+03	2.204214E-17	2.154317E-19
4.123302E+03	2.215397E-17	2.165246E-19
4.132936E+03	2.226725E-17	2.176318E-19
4.142570E+03	2.238250E-17	2.187582E-19
4.152204E+03	2.249981E-17	2.199047E-19
4.161838E+03	2.262037E-17	2.210830E-19
4.171472E+03	2.274381E-17	2.222894E-19
4.181105E+03	2.287049E-17	2.235274E-19
4.190739E+03	2.300146E-17	2.248075E-19
4.200373E+03	2.313589E-17	2.261212E-19
4.210007E+03	2.327475E-17	2.274784E-19
4.219641E+03	2.341825E-17	2.288808E-19
4.229275E+03	2.356614E-17	2.303262E-19
4.238909E+03	2.371887E-17	2.318189E-19
4.248543E+03	2.387605E-17	2.333551E-19
4.258177E+03	2.403761E-17	2.349340E-19
4.267810E+03	2.420330E-17	2.365534E-19
4.277444E+03	2.437281E-17	2.382100E-19
4.287078E+03	2.454602E-17	2.399029E-19
4.296712E+03	2.472234E-17	2.416261E-19
4.306346E+03	2.490105E-17	2.433727E-19
4.315980E+03	2.508200E-17	2.451412E-19
4.325614E+03	2.526424E-17	2.469223E-19
4.335248E+03	2.544741E-17	2.487125E-19
4.344881E+03	2.563001E-17	2.504971E-19
4.354515E+03	2.581182E-17	2.522740E-19
4.364149E+03	2.599115E-17	2.540267E-19
4.373783E+03	2.616728E-17	2.557481E-19
4.383417E+03	2.633904E-17	2.574267E-19
4.393051E+03	2.650518E-17	2.590504E-19
4.402685E+03	2.666474E-17	2.606099E-19
4.412319E+03	2.681636E-17	2.620917E-19
4.421953E+03	2.695896E-17	2.634854E-19
4.431586E+03	2.709076E-17	2.647735E-19
4.441220E+03	2.721101E-17	2.659487E-19
4.450854E+03	2.731829E-17	2.669972E-19
4.460488E+03	2.741158E-17	2.679089E-19
4.470122E+03	2.748959E-17	2.686714E-19
4.479756E+03	2.755188E-17	2.692800E-19
4.489390E+03	2.759707E-17	2.697217E-19
4.499024E+03	2.762540E-17	2.699985E-19
4.508657E+03	2.763626E-17	2.701046E-19
4.518291E+03	2.762957E-17	2.700392E-19
4.527925E+03	2.760544E-17	2.698033E-19
4.537559E+03	2.756421E-17	2.694003E-19
4.547193E+03	2.750640E-17	2.688353E-19
4.556827E+03	2.743273E-17	2.681152E-19
4.566461E+03	2.734446E-17	2.672524E-19
4.576095E+03	2.724268E-17	2.662577E-19
4.585729E+03	2.712872E-17	2.651438E-19
4.595362E+03	2.700407E-17	2.639255E-19
4.604996E+03	2.687041E-17	2.626192E-19
4.614630E+03	2.672866E-17	2.612337E-19
4.624264E+03	2.658113E-17	2.597918E-19
4.633898E+03	2.642900E-17	2.583049E-19
4.643532E+03	2.627418E-17	2.567918E-19
4.653166E+03	2.611892E-17	2.552743E-19
4.662800E+03	2.596455E-17	2.537655E-19
4.672434E+03	2.581359E-17	2.522900E-19
4.682067E+03	2.566695E-17	2.508569E-19
4.691701E+03	2.552731E-17	2.494920E-19
4.701335E+03	2.539567E-17	2.482054E-19
4.710969E+03	2.527385E-17	2.470147E-19
4.720603E+03	2.516292E-17	2.459305E-19
4.730237E+03	2.506440E-17	2.449676E-19
4.739871E+03	2.497910E-17	2.441339E-19
4.749505E+03	2.490849E-17	2.434438E-19
4.759138E+03	2.485276E-17	2.428991E-19
4.768772E+03	2.481273E-17	2.425078E-19
4.778406E+03	2.478846E-17	2.422706E-19
4.788040E+03	2.478069E-17	2.421946E-19
4.797674E+03	2.478912E-17	2.422770E-19
4.807308E+03	2.481336E-17	2.425139E-19
4.816942E+03	2.485377E-17	2.429088E-19
4.826576E+03	2.490982E-17	2.434565E-19
4.836210E+03	2.498152E-17	2.441573E-19
4.845843E+03	2.506804E-17	2.450029E-19
4.855477E+03	2.516965E-17	2.459960E-19
4.865111E+03	2.528580E-17	2.471311E-19
4.874745E+03	2.541650E-17	2.484084E-19
4.884379E+03	2.556119E-17	2.498226E-19
4.894013E+03	2.571992E-17	2.513739E-19
4.903647E+03	2.589245E-17	2.530601E-19
4.913281E+03	2.607828E-17	2.548763E-19
4.922914E+03	2.627721E-17	2.568205E-19
4.932548E+03	2.648937E-17	2.588941E-19
4.942182E+03	2.671461E-17	2.610954E-19
4.951816E+03	2.695282E-17	2.634235E-19
4.961450E+03	2.720360E-17	2.658745E-19
4.971084E+03	2.746718E-17	2.684505E-19
4.980718E+03	2.774344E-17	2.711506E-19
4.990352E+03	2.803205E-17	2.739713E-19
4.999986E+03	2.833352E-17	2.769177E-19
5.009619E+03	2.864716E-17	2.799830E-19
5.019253E+03	2.897283E-17	2.831659E-19
5.028887E+03	2.931098E-17	2.864708E-19
5.038521E+03	2.966075E-17	2.898893E-19
5.048155E+03	3.002210E-17	2.934208E-19
5.057789E+03	3.039419E-17	2.970575E-19
5.067423E+03	3.077671E-17	3.007960E-19
5.077057E+03	3.116881E-17	3.046282E-19
5.086691E+03	3.156948E-17	3.085441E-19
5.096324E+03	3.197716E-17	3.125286E-19
5.105958E+03	3.239050E-17	3.165683E-19
5.115592E+03	3.280830E-17	3.206516E-19
5.125226E+03	3.322853E-17	3.247586E-19
5.134860E+03	3.364969E-17	3.288748E-19
5.144494E+03	3.406945E-17	3.329774E-19
5.154128E+03	3.448569E-17	3.370454E-19
5.163762E+03	3.489647E-17	3.410601E-19
5.173395E+03	3.529867E-17	3.449910E-19
5.183029E+03	3.569054E-17	3.488209E-19
5.192663E+03	3.606916E-17	3.525214E-19
5.202297E+03	3.643164E-17	3.560640E-19
5.211931E+03	3.677621E-17	3.594317E-19
5.221565E+03	3.709969E-17	3.625931E-19
5.231199E+03	3.740009E-17	3.655291E-19
5.240833E+03	3.767522E-17	3.682180E-19
5.250467E+03	3.792296E-17	3.706392E-19
5.260100E+03	3.814097E-17	3.727699E-19
5.269734E+03	3.832821E-17	3.745999E-19
5.279368E+03	3.848229E-17	3.761058E-19
5.289002E+03	3.860215E-17	3.772772E-19
5.298636E+03	3.868619E-17	3.780985E-19
5.308270E+03	3.873385E-17	3.785643E-19
5.317904E+03	3.874406E-17	3.786640E-19
5.327538E+03	3.871689E-17	3.783984E-19
5.337171E+03	3.865196E-17	3.777639E-19
5.346805E+03	3.855004E-17	3.767677E-19
5.356439E+03	3.841224E-17	3.754209E-19
5.366073E+03	3.823885E-17	3.737262E-19
5.375707E+03	3.803160E-17	3.717006E-19
5.385341E+03	3.779210E-17	3.693599E-19
5.394975E+03	3.752255E-17	3.667254E-19
5.404609E+03	3.722420E-17	3.638094E-19
5.414243E+03	3.689990E-17	3.606399E-19
5.423876E+03	3.655120E-17	3.572318E-19
5.433510E+03	3.618115E-17	3.536151E-19
5.443144E+03	3.579143E-17	3.498062E-19
5.452778E+03	3.538518E-17	3.458357E-19
5.462412E+03	3.496448E-17	3.417240E-19
5.472046E+03	3.453143E-17	3.374915E-19
5.481680E+03	3.408877E-17	3.331652E-19
5.491314E+03	3.363923E-17	3.287716E-19
5.500947E+03	3.318448E-17	3.243271E-19
5.510581E+03	3.272718E-17	3.198576E-19
5.520215E+03	3.226928E-17	3.153823E-19
5.529849E+03	3.181364E-17	3.109292E-19
5.539483E+03	3.136181E-17	3.065132E-19
5.549117E+03	3.091591E-17	3.021551E-19
5.558751E+03	3.047827E-17	2.978779E-19
5.568385E+03	3.005081E-17	2.937001E-19
5.578019E+03	2.963476E-17	2.896339E-19
5.587652E+03	2.923233E-17	2.857007E-19
5.597286E+03	2.884467E-17	2.819119E-19
5.606920E+03	2.847303E-17	2.782797E-19
5.616554E+03	2.811842E-17	2.748138E-19
5.626188E+03	2.778136E-17	2.715196E-19
5.635822E+03	2.746273E-17	2.684055E-19
5.645456E+03	2.716271E-17	2.654732E-19
5.655090E+03	2.688186E-17	2.627283E-19
5.664724E+03	2.662012E-17	2.601701E-19
5.674357E+03	2.637737E-17	2.577976E-19
5.683991E+03	2.615390E-17	2.556136E-19
5.693625E+03	2.594971E-17	2.536179E-19
5.703259E+03	2.576445E-17	2.518072E-19
5.712893E+03	2.559791E-17	2.501795E-19
5.722527E+03	2.544996E-17	2.487335E-19
5.732161E+03	2.531935E-17	2.474570E-19
5.741795E+03	2.520606E-17	2.463497E-19
5.751428E+03	2.510841E-17	2.453953E-19
5.761062E+03	2.502575E-17	2.445874E-19
5.770696E+03	2.495633E-17	2.439089E-19
5.780330E+03	2.489899E-17	2.433484E-19
5.789964E+03	2.485205E-17	2.428897E-19
5.799598E+03	2.481405E-17	2.425183E-19
5.809232E+03	2.478354E-17	2.422201E-19
5.818866E+03	2.475892E-17	2.419794E-19
5.828500E+03	2.473919E-17	2.417865E-19
5.838133E+03	2.472300E-17	2.416283E-19
5.847767E+03	2.470921E-17	2.414935E-19
5.857401E+03	2.469734E-17	2.413774E-19
5.867035E+03	2.468687E-17	2.412750E-19
5.876669E+03	2.467727E-17	2.411812E-19
5.886303E+03	2.466844E-17	2.410949E-19
5.895937E+03	2.466046E-17	2.410168E-19
5.905571E+03	2.465361E-17	2.409498E-19
5.915204E+03	2.464831E-17	2.408981E-19
5.924838E+03	2.464493E-17	2.408650E-19
5.934472E+03	2.464444E-17	2.408602E-19
5.944106E+03	2.464745E-17	2.408896E-19
5.953740E+03	2.465465E-17	2.409598E-19
5.963374E+03	2.466698E-17	2.410803E-19
5.973008E+03	2.468559E-17	2.412622E-19
5.982642E+03	2.471132E-17	2.415136E-19
5.992276E+03	2.474512E-17	2.418440E-19
6.001909E+03	2.478760E-17	2.422590E-19
6.011543E+03	2.483915E-17	2.427629E-19
6.021177E+03	2.490034E-17	2.433608E-19
6.030811E+03	2.497129E-17	2.440543E-19
6.040445E+03	2.505182E-17	2.448412E-19
6.050079E+03	2.514261E-17	2.457285E-19
6.059713E+03	2.524279E-17	2.467075E-19
6.069347E+03	2.535290E-17	2.477837E-19
6.078981E+03	2.547245E-17	2.489521E-19
6.088614E+03	2.560140E-17	2.502123E-19
6.098248E+03	2.573915E-17	2.515585E-19
6.107882E+03	2.588607E-17	2.529944E-19
6.117516E+03	2.604120E-17	2.545105E-19
6.127150E+03	2.620455E-17	2.561070E-19
6.136784E+03	2.637556E-17	2.577783E-19
6.146418E+03	2.655356E-17	2.595179E-19
6.156052E+03	2.673836E-17	2.613240E-19
6.165685E+03	2.692889E-17	2.631860E-19
6.175319E+03	2.712477E-17	2.651004E-19
6.184953E+03	2.732534E-17	2.670606E-19
6.194587E+03	2.752954E-17	2.690562E-19
6.204221E+03	2.773624E-17	2.710764E-19
6.213855E+03	2.794511E-17	2.731176E-19
6.223489E+03	2.815455E-17	2.751645E-19
6.233123E+03	2.836376E-17	2.772092E-19
6.242757E+03	2.857093E-17	2.792339E-19
6.252390E+03	2.877505E-17	2.812287E-19
6.262024E+03	2.897408E-17	2.831739E-19
6.271658E+03	2.916654E-17	2.850548E-19
6.281292E+03	2.934994E-17	2.868472E-19
6.290926E+03	2.952303E-17	2.885388E-19
6.300560E+03	2.968368E-17	2.901088E-19
6.310194E+03	2.982987E-17	2.915375E-19
6.319828E+03	2.995971E-17	2.928065E-19
6.329461E+03	3.007216E-17	2.939054E-19
6.339095E+03	3.016569E-17	2.948194E-19
6.348729E+03	3.023928E-17	2.955386E-19
6.358363E+03	3.029169E-17	2.960508E-19
6.367997E+03	3.032206E-17	2.963475E-19
6.377631E+03	3.032952E-17	2.964204E-19
6.387265E+03	3.031321E-17	2.962609E-19
6.396899E+03	3.027212E-17	2.958593E-19
6.406533E+03	3.020525E-17	2.952057E-19
6.416166E+03	3.011149E-17	2.942893E-19
6.425800E+03	2.998977E-17	2.930996E-19
6.435434E+03	2.983874E-17	2.916234E-19
6.445068E+03	2.965790E-17	2.898560E-19
6.454702E+03	2.944698E-17	2.877945E-19
6.464336E+03	2.920547E-17	2.854340E-19
6.473970E+03	2.893330E-17	2.827740E-19
6.483604E+03	2.863198E-17	2.798291E-19
6.493237E+03	2.830298E-17	2.766136E-19
6.502871E+03	2.794802E-17	2.731444E-19
6.512505E+03	2.756960E-17	2.694459E-19
6.522139E+03	2.717097E-17	2.655499E-19
6.531773E+03	2.675498E-17	2.614843E-19
6.541407E+03	2.632566E-17	2.572884E-19
6.551041E+03	2.588592E-17	2.529906E-19
6.560675E+03	2.543963E-17	2.486288E-19
6.570309E+03	2.499063E-17	2.442405E-19
6.579942E+03	2.454174E-17	2.398534E-19
6.589576E+03	2.409648E-17	2.355016E-19
6.599210E+03	2.365806E-17	2.312167E-19
6.608844E+03	2.322884E-17	2.270218E-19
6.618478E+03	2.281111E-17	2.229391E-19
6.628112E+03	2.240683E-17	2.189880E-19
6.637746E+03	2.201788E-17	2.151866E-19
6.647380E+03	2.164530E-17	2.115452E-19
6.657014E+03	2.129010E-17	2.080737E-19
6.666647E+03	2.095328E-17	2.047818E-19
6.676281E+03	2.063507E-17	2.016718E-19
6.685915E+03	2.033599E-17	1.987488E-19
6.695549E+03	2.005589E-17	1.960113E-19
6.705183E+03	1.979471E-17	1.934586E-19
6.714817E+03	1.955253E-17	1.910916E-19
6.724451E+03	1.932908E-17	1.889078E-19
6.734085E+03	1.912362E-17	1.868997E-19
6.743718E+03	1.893648E-17	1.850708E-19
6.753352E+03	1.876663E-17	1.834106E-19
6.762986E+03	1.861410E-17	1.819200E-19
6.772620E+03	1.847853E-17	1.805950E-19
6.782254E+03	1.835907E-17	1.794273E-19
6.791888E+03	1.825580E-17	1.784180E-19
6.801522E+03	1.816814E-17	1.775612E-19
6.811156E+03	1.809602E-17	1.768563E-19
6.820790E+03	1.803897E-17	1.762988E-19
6.830423E+03	1.799679E-17	1.758865E-19
6.840057E+03	1.796930E-17	1.756178E-19
6.849691E+03	1.795639E-17	1.754915E-19
6.859325E+03	1.795791E-17	1.755063E-19
6.868959E+03	1.797397E-17	1.756632E-19
6.878593E+03	1.800397E-17	1.759564E-19
6.888227E+03	1.804821E-17	1.763887E-19
6.897861E+03	1.810602E-17	1.769536E-19
6.907494E+03	1.817736E-17	1.776508E-19
6.917128E+03	1.826214E-17	1.784793E-19
6.926762E+03	1.835952E-17	1.794309E-19
6.936396E+03	1.846922E-17	1.805030E-19
6.946030E+03	1.859065E-17	1.816898E-19
6.955664E+03	1.872315E-17	1.829846E-19
6.965298E+03	1.886570E-17	1.843777E-19
6.974932E+03	1.901794E-17	1.858656E-19
6.984566E+03	1.917851E-17	1.874348E-19
6.994199E+03	1.934672E-17	1.890787E-19
7.003833E+03	1.952140E-17	1.907857E-19
7.013467E+03	1.970207E-17	1.925514E-19
7.023101E+03	1.988729E-17	1.943615E-19
7.032735E+03	2.007635E-17	1.962092E-19
7.042369E+03	2.026830E-17	1.980851E-19
7.052003E+03	2.046193E-17	1.999774E-19
7.061637E+03	2.065684E-17	2.018822E-19
7.071271E+03	2.085132E-17	2.037828E-19
7.080904E+03	2.104524E-17	2.056780E-19
7.090538E+03	2.123746E-17	2.075565E-19
7.100172E+03	2.142681E-17	2.094070E-19
7.109806E+03	2.161270E-17	2.112237E-19
7.119440E+03	2.179397E-17	2.129951E-19
7.129074E+03	2.197002E-17	2.147157E-19
7.138708E+03	2.214002E-17	2.163770E-19
7.148342E+03	2.230254E-17	2.179653E-19
7.157975E+03	2.245735E-17	2.194782E-19
7.167609E+03	2.260311E-17	2.209026E-19
7.177243E+03	2.273941E-17	2.222346E-19
7.186877E+03	2.286561E-17	2.234679E-19
7.196511E+03	2.298149E-17	2.246003E-19
7.206145E+03	2.308628E-17	2.256244E-19
7.215779E+03	2.317963E-17	2.265366E-19
7.225413E+03	2.326158E-17	2.273374E-19
7.235047E+03	2.333165E-17	2.280222E-19
7.244680E+03	2.338980E-17	2.285904E-19
7.254314E+03	2.343642E-17	2.290459E-19
7.263948E+03	2.347136E-17	2.293874E-19
7.273582E+03	2.349527E-17	2.296210E-19
7.283216E+03	2.350796E-17	2.297449E-19
7.292850E+03	2.351061E-17	2.297707E-19
7.302484E+03	2.350353E-17	2.297014E-19
7.312118E+03	2.348740E-17	2.295437E-19
7.321751E+03	2.346289E-17	2.293041E-19
7.331385E+03	2.343066E-17	2.289890E-19
7.341019E+03	2.339128E-17	2.286041E-19
7.350653E+03	2.334492E-17	2.281510E-19
7.360287E+03	2.329260E-17	2.276395E-19
7.369921E+03	2.323429E-17	2.270696E-19
7.379555E+03	2.316993E-17	2.264405E-19
7.389189E+03	2.310005E-17	2.257575E-19
7.398823E+03	2.302488E-17	2.250228E-19
7.408456E+03	2.294469E-17	2.242390E-19
7.418090E+03	2.285986E-17	2.234098E-19
7.427724E+03	2.277049E-17	2.225363E-19
7.437358E+03	2.267736E-17	2.216261E-19
7.446992E+03	2.258095E-17	2.206839E-19
7.456626E+03	2.248173E-17	2.197141E-19
7.466260E+03	2.238011E-17	2.187209E-19
7.475894E+03	2.227614E-17	2.177047E-19
