#wls	flux	fluxerr
1.541421E+03	6.989572E-19	4.328076E-20
1.579957E+03	7.167520E-19	4.438193E-20
1.618492E+03	7.319997E-19	4.532534E-20
1.657028E+03	7.448893E-19	4.612269E-20
1.695564E+03	7.547734E-19	4.673390E-20
1.734099E+03	7.610719E-19	4.712306E-20
1.772635E+03	7.623713E-19	4.720265E-20
1.811170E+03	7.578330E-19	4.692079E-20
1.849706E+03	7.459462E-19	4.618395E-20
1.888241E+03	7.262154E-19	4.496146E-20
1.926777E+03	6.994657E-19	4.330447E-20
1.965312E+03	6.691059E-19	4.142401E-20
2.003848E+03	6.418111E-19	3.973336E-20
2.042383E+03	6.261306E-19	3.876177E-20
2.080919E+03	6.296736E-19	3.898024E-20
2.119454E+03	6.561569E-19	4.061878E-20
2.157990E+03	7.046930E-19	4.362233E-20
2.196525E+03	7.708103E-19	4.771401E-20
2.235061E+03	8.491557E-19	5.256239E-20
2.273597E+03	9.349969E-19	5.787446E-20
2.312132E+03	1.024671E-18	6.342346E-20
2.350668E+03	1.116099E-18	6.908070E-20
2.389203E+03	1.208761E-18	7.481390E-20
2.427739E+03	1.302322E-18	8.060242E-20
2.466274E+03	1.397301E-18	8.647834E-20
2.504810E+03	1.494489E-18	9.249051E-20
2.543345E+03	1.594293E-18	9.866416E-20
2.581881E+03	1.697913E-18	1.050736E-19
2.620416E+03	1.806067E-18	1.117630E-19
2.658952E+03	1.919742E-18	1.187935E-19
2.697487E+03	2.039943E-18	1.262273E-19
2.736023E+03	2.167695E-18	1.341278E-19
2.774558E+03	2.304376E-18	1.425800E-19
2.813094E+03	2.450746E-18	1.516309E-19
2.851630E+03	2.608970E-18	1.614145E-19
2.890165E+03	2.780277E-18	1.720066E-19
2.899799E+03	2.825076E-18	1.747765E-19
2.909433E+03	2.871063E-18	1.776197E-19
2.919067E+03	2.918258E-18	1.805377E-19
2.928701E+03	2.966357E-18	1.835116E-19
2.938334E+03	3.015578E-18	1.865547E-19
2.947968E+03	3.066540E-18	1.897056E-19
2.957602E+03	3.118822E-18	1.929380E-19
2.967236E+03	3.172780E-18	1.962740E-19
2.976870E+03	3.228390E-18	1.997120E-19
2.986504E+03	3.285629E-18	2.032509E-19
2.996138E+03	3.344073E-18	2.068641E-19
3.005772E+03	3.404102E-18	2.105754E-19
3.015406E+03	3.465703E-18	2.143837E-19
3.025039E+03	3.528863E-18	2.182884E-19
3.034673E+03	3.593577E-18	2.222892E-19
3.044307E+03	3.659823E-18	2.263846E-19
3.053941E+03	3.728063E-18	2.306032E-19
3.063575E+03	3.797436E-18	2.348918E-19
3.073209E+03	3.868791E-18	2.393030E-19
3.082843E+03	3.941694E-18	2.438097E-19
3.092477E+03	4.016140E-18	2.484118E-19
3.102110E+03	4.092562E-18	2.531360E-19
3.111744E+03	4.170976E-18	2.579832E-19
3.121378E+03	4.250934E-18	2.629258E-19
3.131012E+03	4.332883E-18	2.679915E-19
3.140646E+03	4.416835E-18	2.731809E-19
3.150280E+03	4.502334E-18	2.784659E-19
3.159914E+03	4.590313E-18	2.839041E-19
3.169548E+03	4.679853E-18	2.894387E-19
3.179182E+03	4.771893E-18	2.951277E-19
3.188815E+03	4.865979E-18	3.009432E-19
3.198449E+03	4.962114E-18	3.068852E-19
3.208083E+03	5.060798E-18	3.129847E-19
3.217717E+03	5.161549E-18	3.192119E-19
3.227351E+03	5.264872E-18	3.255979E-19
3.236985E+03	5.370285E-18	3.321130E-19
3.246619E+03	5.478788E-18	3.388191E-19
3.256253E+03	5.589405E-18	3.456557E-19
3.265887E+03	5.703136E-18	3.526847E-19
3.275520E+03	5.818994E-18	3.598449E-19
3.285154E+03	5.937992E-18	3.671992E-19
3.294788E+03	6.059638E-18	3.747171E-19
3.304422E+03	6.184443E-18	3.824300E-19
3.314056E+03	6.312429E-18	3.903394E-19
3.323690E+03	6.443070E-18	3.984128E-19
3.333324E+03	6.576896E-18	4.066829E-19
3.342958E+03	6.713903E-18	4.151494E-19
3.352591E+03	6.854622E-18	4.238452E-19
3.362225E+03	6.997987E-18	4.327043E-19
3.371859E+03	7.145058E-18	4.417923E-19
3.381493E+03	7.295825E-18	4.511087E-19
3.391127E+03	7.450285E-18	4.606530E-19
3.400761E+03	7.607873E-18	4.703905E-19
3.410395E+03	7.769114E-18	4.803535E-19
3.420029E+03	7.934533E-18	4.905745E-19
3.429663E+03	8.103554E-18	5.010179E-19
3.439296E+03	8.276135E-18	5.116811E-19
3.448930E+03	8.452801E-18	5.225965E-19
3.458564E+03	8.633508E-18	5.337615E-19
3.468198E+03	8.818198E-18	5.451723E-19
3.477832E+03	9.006825E-18	5.568261E-19
3.487466E+03	9.199322E-18	5.687188E-19
3.497100E+03	9.396175E-18	5.808805E-19
3.506734E+03	9.596748E-18	5.932717E-19
3.516367E+03	9.801518E-18	6.059219E-19
3.526001E+03	1.001039E-17	6.188255E-19
3.535635E+03	1.022326E-17	6.319756E-19
3.545269E+03	1.044059E-17	6.454008E-19
3.554903E+03	1.066168E-17	6.590580E-19
3.564537E+03	1.088696E-17	6.729741E-19
3.574171E+03	1.111572E-17	6.871044E-19
3.583805E+03	1.134895E-17	7.015112E-19
3.593439E+03	1.158591E-17	7.161477E-19
3.603072E+03	1.182643E-17	7.310033E-19
3.612706E+03	1.207089E-17	7.461024E-19
3.622340E+03	1.231852E-17	7.613971E-19
3.631974E+03	1.257030E-17	7.769473E-19
3.641608E+03	1.282484E-17	7.926678E-19
3.651242E+03	1.308311E-17	8.086184E-19
3.660876E+03	1.334430E-17	8.247485E-19
3.670510E+03	1.360816E-17	8.410432E-19
3.680144E+03	1.387503E-17	8.575235E-19
3.689777E+03	1.414464E-17	8.741726E-19
3.699411E+03	1.441731E-17	8.910096E-19
3.709045E+03	1.469155E-17	9.079438E-19
3.718679E+03	1.496766E-17	9.249925E-19
3.728313E+03	1.524590E-17	9.421720E-19
3.737947E+03	1.552591E-17	9.594607E-19
3.747581E+03	1.580676E-17	9.768000E-19
3.757215E+03	1.608862E-17	9.942020E-19
3.766848E+03	1.637166E-17	1.011676E-18
3.776482E+03	1.665426E-17	1.029121E-18
3.786116E+03	1.693649E-17	1.046544E-18
3.795750E+03	1.721783E-17	1.063910E-18
3.805384E+03	1.749827E-17	1.081220E-18
3.815018E+03	1.777606E-17	1.098367E-18
3.824652E+03	1.805228E-17	1.115415E-18
3.834286E+03	1.832456E-17	1.132218E-18
3.843920E+03	1.859335E-17	1.148806E-18
3.853553E+03	1.885796E-17	1.165135E-18
3.863187E+03	1.911715E-17	1.181128E-18
3.872821E+03	1.937024E-17	1.196744E-18
3.882455E+03	1.961661E-17	1.211943E-18
3.892089E+03	1.985620E-17	1.226723E-18
3.901723E+03	2.008793E-17	1.241017E-18
3.911357E+03	2.031134E-17	1.254797E-18
3.920991E+03	2.052553E-17	1.268006E-18
3.930624E+03	2.073129E-17	1.280693E-18
3.940258E+03	2.092736E-17	1.292782E-18
3.949892E+03	2.111367E-17	1.304267E-18
3.959526E+03	2.129076E-17	1.315181E-18
3.969160E+03	2.145774E-17	1.325471E-18
3.978794E+03	2.161536E-17	1.335182E-18
3.988428E+03	2.176351E-17	1.344308E-18
3.998062E+03	2.190221E-17	1.352849E-18
4.007696E+03	2.203306E-17	1.360905E-18
4.017329E+03	2.215537E-17	1.368433E-18
4.026963E+03	2.227003E-17	1.375489E-18
4.036597E+03	2.237848E-17	1.382160E-18
4.046231E+03	2.248038E-17	1.388426E-18
4.055865E+03	2.257777E-17	1.394414E-18
4.065499E+03	2.267046E-17	1.400110E-18
4.075133E+03	2.276009E-17	1.405617E-18
4.084767E+03	2.284697E-17	1.410955E-18
4.094400E+03	2.293227E-17	1.416194E-18
4.104034E+03	2.301627E-17	1.421352E-18
4.113668E+03	2.310006E-17	1.426498E-18
4.123302E+03	2.318427E-17	1.431668E-18
4.132936E+03	2.326907E-17	1.436875E-18
4.142570E+03	2.335500E-17	1.442151E-18
4.152204E+03	2.344257E-17	1.447528E-18
4.161838E+03	2.353223E-17	1.453033E-18
4.171472E+03	2.362362E-17	1.458645E-18
4.181105E+03	2.371789E-17	1.464435E-18
4.190739E+03	2.381423E-17	1.470352E-18
4.200373E+03	2.391372E-17	1.476463E-18
4.210007E+03	2.401514E-17	1.482692E-18
4.219641E+03	2.411947E-17	1.489101E-18
4.229275E+03	2.422652E-17	1.495677E-18
4.238909E+03	2.433604E-17	1.502405E-18
4.248543E+03	2.444771E-17	1.509266E-18
4.258177E+03	2.456147E-17	1.516255E-18
4.267810E+03	2.467714E-17	1.523361E-18
4.277444E+03	2.479442E-17	1.530566E-18
4.287078E+03	2.491288E-17	1.537844E-18
4.296712E+03	2.503160E-17	1.545137E-18
4.306346E+03	2.515059E-17	1.552447E-18
4.315980E+03	2.526870E-17	1.559701E-18
4.325614E+03	2.538536E-17	1.566865E-18
4.335248E+03	2.550023E-17	1.573919E-18
4.344881E+03	2.561222E-17	1.580794E-18
4.354515E+03	2.572116E-17	1.587480E-18
4.364149E+03	2.582611E-17	1.593920E-18
4.373783E+03	2.592609E-17	1.600052E-18
4.383417E+03	2.602035E-17	1.605830E-18
4.393051E+03	2.610843E-17	1.611227E-18
4.402685E+03	2.618914E-17	1.616169E-18
4.412319E+03	2.626190E-17	1.620620E-18
4.421953E+03	2.632546E-17	1.624502E-18
4.431586E+03	2.637888E-17	1.627758E-18
4.441220E+03	2.642187E-17	1.630370E-18
4.450854E+03	2.645286E-17	1.632242E-18
4.460488E+03	2.647135E-17	1.633341E-18
4.470122E+03	2.647690E-17	1.633643E-18
4.479756E+03	2.646856E-17	1.633086E-18
4.489390E+03	2.644585E-17	1.631643E-18
4.499024E+03	2.640913E-17	1.629336E-18
4.508657E+03	2.635765E-17	1.626118E-18
4.518291E+03	2.629180E-17	1.622014E-18
4.527925E+03	2.621185E-17	1.617039E-18
4.537559E+03	2.611824E-17	1.611222E-18
4.547193E+03	2.601126E-17	1.604579E-18
4.556827E+03	2.589232E-17	1.597200E-18
4.566461E+03	2.576177E-17	1.589105E-18
4.576095E+03	2.562044E-17	1.580344E-18
4.585729E+03	2.546994E-17	1.571018E-18
4.595362E+03	2.531114E-17	1.561181E-18
4.604996E+03	2.514570E-17	1.550935E-18
4.614630E+03	2.497539E-17	1.540388E-18
4.624264E+03	2.480182E-17	1.529641E-18
4.633898E+03	2.462669E-17	1.518797E-18
4.643532E+03	2.445227E-17	1.507999E-18
4.653166E+03	2.427973E-17	1.497316E-18
4.662800E+03	2.411134E-17	1.486890E-18
4.672434E+03	2.394845E-17	1.476803E-18
4.682067E+03	2.379264E-17	1.467153E-18
4.691701E+03	2.364567E-17	1.458048E-18
4.701335E+03	2.350835E-17	1.449539E-18
4.710969E+03	2.338221E-17	1.441719E-18
4.720603E+03	2.326838E-17	1.434659E-18
4.730237E+03	2.316735E-17	1.428388E-18
4.739871E+03	2.308053E-17	1.422993E-18
4.749505E+03	2.300838E-17	1.418503E-18
4.759138E+03	2.295149E-17	1.414953E-18
4.768772E+03	2.290998E-17	1.412352E-18
4.778406E+03	2.288407E-17	1.410712E-18
4.788040E+03	2.287406E-17	1.410052E-18
4.797674E+03	2.287933E-17	1.410334E-18
4.807308E+03	2.290017E-17	1.411576E-18
4.816942E+03	2.293578E-17	1.413728E-18
4.826576E+03	2.298586E-17	1.416770E-18
4.836210E+03	2.305033E-17	1.420700E-18
4.845843E+03	2.312858E-17	1.425478E-18
4.855477E+03	2.322055E-17	1.431102E-18
4.865111E+03	2.332565E-17	1.437533E-18
4.874745E+03	2.344356E-17	1.444754E-18
4.884379E+03	2.357397E-17	1.452745E-18
4.894013E+03	2.371659E-17	1.461486E-18
4.903647E+03	2.387140E-17	1.470979E-18
4.913281E+03	2.403760E-17	1.481172E-18
4.922914E+03	2.421551E-17	1.492086E-18
4.932548E+03	2.440438E-17	1.503674E-18
4.942182E+03	2.460455E-17	1.515958E-18
4.951816E+03	2.481561E-17	1.528911E-18
4.961450E+03	2.503742E-17	1.542525E-18
4.971084E+03	2.526986E-17	1.556793E-18
4.980718E+03	2.551281E-17	1.571707E-18
4.990352E+03	2.576645E-17	1.587279E-18
4.999986E+03	2.603014E-17	1.603468E-18
5.009619E+03	2.630429E-17	1.620301E-18
5.019253E+03	2.658852E-17	1.637752E-18
5.028887E+03	2.688264E-17	1.655811E-18
5.038521E+03	2.718669E-17	1.674480E-18
5.048155E+03	2.749977E-17	1.693704E-18
5.057789E+03	2.782199E-17	1.713489E-18
5.067423E+03	2.815246E-17	1.733780E-18
5.077057E+03	2.849070E-17	1.754548E-18
5.086691E+03	2.883518E-17	1.775698E-18
5.096324E+03	2.918539E-17	1.797200E-18
5.105958E+03	2.953979E-17	1.818957E-18
5.115592E+03	2.989731E-17	1.840905E-18
5.125226E+03	3.025583E-17	1.862913E-18
5.134860E+03	3.061434E-17	1.884917E-18
5.144494E+03	3.097075E-17	1.906791E-18
5.154128E+03	3.132318E-17	1.928417E-18
5.163762E+03	3.166994E-17	1.949692E-18
5.173395E+03	3.200828E-17	1.970447E-18
5.183029E+03	3.233668E-17	1.990588E-18
5.192663E+03	3.265224E-17	2.009936E-18
5.202297E+03	3.295344E-17	2.028399E-18
5.211931E+03	3.323777E-17	2.045822E-18
5.221565E+03	3.350283E-17	2.062057E-18
5.231199E+03	3.374729E-17	2.077022E-18
5.240833E+03	3.396860E-17	2.090561E-18
5.250467E+03	3.416535E-17	2.102587E-18
5.260100E+03	3.433591E-17	2.113000E-18
5.269734E+03	3.447846E-17	2.121688E-18
5.279368E+03	3.459199E-17	2.128589E-18
5.289002E+03	3.467500E-17	2.133611E-18
5.298636E+03	3.472654E-17	2.136696E-18
5.308270E+03	3.474552E-17	2.137776E-18
5.317904E+03	3.473145E-17	2.136824E-18
5.327538E+03	3.468452E-17	2.133848E-18
5.337171E+03	3.460484E-17	2.128858E-18
5.346805E+03	3.449319E-17	2.121902E-18
5.356439E+03	3.434999E-17	2.113004E-18
5.366073E+03	3.417696E-17	2.102272E-18
5.375707E+03	3.397471E-17	2.089743E-18
5.385341E+03	3.374542E-17	2.075551E-18
5.394975E+03	3.349075E-17	2.059799E-18
5.404609E+03	3.321185E-17	2.042559E-18
5.414243E+03	3.291131E-17	2.023988E-18
5.423876E+03	3.259114E-17	2.004211E-18
5.433510E+03	3.225310E-17	1.983337E-18
5.443144E+03	3.189930E-17	1.961494E-18
5.452778E+03	3.153220E-17	1.938836E-18
5.462412E+03	3.115361E-17	1.915472E-18
5.472046E+03	3.076594E-17	1.891552E-18
5.481680E+03	3.037070E-17	1.867169E-18
5.491314E+03	2.997054E-17	1.842484E-18
5.500947E+03	2.956747E-17	1.817622E-18
5.510581E+03	2.916320E-17	1.792689E-18
5.520215E+03	2.875967E-17	1.767803E-18
5.529849E+03	2.835882E-17	1.743083E-18
5.539483E+03	2.796251E-17	1.718644E-18
5.549117E+03	2.757255E-17	1.694597E-18
5.558751E+03	2.719097E-17	1.671068E-18
5.568385E+03	2.681889E-17	1.648124E-18
5.578019E+03	2.645815E-17	1.625878E-18
5.587652E+03	2.611014E-17	1.604416E-18
5.597286E+03	2.577612E-17	1.583816E-18
5.606920E+03	2.545689E-17	1.564126E-18
5.616554E+03	2.515357E-17	1.545415E-18
5.626188E+03	2.486683E-17	1.527723E-18
5.635822E+03	2.459665E-17	1.511051E-18
5.645456E+03	2.434389E-17	1.495450E-18
5.655090E+03	2.410853E-17	1.480919E-18
5.664724E+03	2.389074E-17	1.467468E-18
5.674357E+03	2.369058E-17	1.455102E-18
5.683991E+03	2.350810E-17	1.443821E-18
5.693625E+03	2.334304E-17	1.433612E-18
5.703259E+03	2.319531E-17	1.424467E-18
5.712893E+03	2.306496E-17	1.416390E-18
5.722527E+03	2.295144E-17	1.409347E-18
5.732161E+03	2.285405E-17	1.403295E-18
5.741795E+03	2.277233E-17	1.398206E-18
5.751428E+03	2.270520E-17	1.394011E-18
5.761062E+03	2.265158E-17	1.390647E-18
5.770696E+03	2.261032E-17	1.388042E-18
5.780330E+03	2.258012E-17	1.386115E-18
5.789964E+03	2.255942E-17	1.384771E-18
5.799598E+03	2.254663E-17	1.383913E-18
5.809232E+03	2.254060E-17	1.383469E-18
5.818866E+03	2.254007E-17	1.383363E-18
5.828500E+03	2.254342E-17	1.383494E-18
5.838133E+03	2.254982E-17	1.383812E-18
5.847767E+03	2.255797E-17	1.384237E-18
5.857401E+03	2.256739E-17	1.384739E-18
5.867035E+03	2.257737E-17	1.385276E-18
5.876669E+03	2.258760E-17	1.385827E-18
5.886303E+03	2.259773E-17	1.386372E-18
5.895937E+03	2.260762E-17	1.386901E-18
5.905571E+03	2.261745E-17	1.387427E-18
5.915204E+03	2.262763E-17	1.387973E-18
5.924838E+03	2.263867E-17	1.388572E-18
5.934472E+03	2.265101E-17	1.389250E-18
5.944106E+03	2.266564E-17	1.390068E-18
5.953740E+03	2.268341E-17	1.391079E-18
5.963374E+03	2.270541E-17	1.392348E-18
5.973008E+03	2.273246E-17	1.393926E-18
5.982642E+03	2.276513E-17	1.395848E-18
5.992276E+03	2.280449E-17	1.398180E-18
6.001909E+03	2.285084E-17	1.400940E-18
6.011543E+03	2.290456E-17	1.404151E-18
6.021177E+03	2.296654E-17	1.407867E-18
6.030811E+03	2.303645E-17	1.412069E-18
6.040445E+03	2.311451E-17	1.416769E-18
6.050079E+03	2.320086E-17	1.421977E-18
6.059713E+03	2.329581E-17	1.427710E-18
6.069347E+03	2.339869E-17	1.433929E-18
6.078981E+03	2.350946E-17	1.440630E-18
6.088614E+03	2.362830E-17	1.447823E-18
6.098248E+03	2.375462E-17	1.455475E-18
6.107882E+03	2.388851E-17	1.463588E-18
6.117516E+03	2.402907E-17	1.472109E-18
6.127150E+03	2.417629E-17	1.481036E-18
6.136784E+03	2.432961E-17	1.490336E-18
6.146418E+03	2.448866E-17	1.499985E-18
6.156052E+03	2.465253E-17	1.509927E-18
6.165685E+03	2.482066E-17	1.520129E-18
6.175319E+03	2.499250E-17	1.530556E-18
6.184953E+03	2.516687E-17	1.541136E-18
6.194587E+03	2.534279E-17	1.551810E-18
6.204221E+03	2.551974E-17	1.562545E-18
6.213855E+03	2.569636E-17	1.573257E-18
6.223489E+03	2.587171E-17	1.583891E-18
6.233123E+03	2.604453E-17	1.594367E-18
6.242757E+03	2.621343E-17	1.604602E-18
6.252390E+03	2.637722E-17	1.614521E-18
6.262024E+03	2.653377E-17	1.623997E-18
6.271658E+03	2.668229E-17	1.632979E-18
6.281292E+03	2.682057E-17	1.641333E-18
6.290926E+03	2.694721E-17	1.648973E-18
6.300560E+03	2.706063E-17	1.655802E-18
6.310194E+03	2.715904E-17	1.661713E-18
6.319828E+03	2.724145E-17	1.666642E-18
6.329461E+03	2.730643E-17	1.670504E-18
6.339095E+03	2.735334E-17	1.673261E-18
6.348729E+03	2.738143E-17	1.674864E-18
6.358363E+03	2.739002E-17	1.675275E-18
6.367997E+03	2.737825E-17	1.674440E-18
6.377631E+03	2.734610E-17	1.672358E-18
6.387265E+03	2.729265E-17	1.668973E-18
6.396899E+03	2.721720E-17	1.664243E-18
6.406533E+03	2.711894E-17	1.658120E-18
6.416166E+03	2.699736E-17	1.650570E-18
6.425800E+03	2.685128E-17	1.641523E-18
6.435434E+03	2.668023E-17	1.630951E-18
6.445068E+03	2.648355E-17	1.618813E-18
6.454702E+03	2.626051E-17	1.605066E-18
6.464336E+03	2.601131E-17	1.589721E-18
6.473970E+03	2.573629E-17	1.572800E-18
6.483604E+03	2.543600E-17	1.554336E-18
6.493237E+03	2.511241E-17	1.534452E-18
6.502871E+03	2.476689E-17	1.513230E-18
6.512505E+03	2.440205E-17	1.490829E-18
6.522139E+03	2.402081E-17	1.467431E-18
6.531773E+03	2.362550E-17	1.443176E-18
6.541407E+03	2.321947E-17	1.418269E-18
6.551041E+03	2.280586E-17	1.392902E-18
6.560675E+03	2.238784E-17	1.367270E-18
6.570309E+03	2.196856E-17	1.341564E-18
6.579942E+03	2.155102E-17	1.315968E-18
6.589576E+03	2.113802E-17	1.290653E-18
6.599210E+03	2.073239E-17	1.265790E-18
6.608844E+03	2.033589E-17	1.241489E-18
6.618478E+03	1.995073E-17	1.217884E-18
6.628112E+03	1.957879E-17	1.195088E-18
6.637746E+03	1.922095E-17	1.173157E-18
6.647380E+03	1.887873E-17	1.152181E-18
6.657014E+03	1.855249E-17	1.132184E-18
6.666647E+03	1.824323E-17	1.113226E-18
6.676281E+03	1.795108E-17	1.095314E-18
6.685915E+03	1.767621E-17	1.078459E-18
6.695549E+03	1.741839E-17	1.062647E-18
6.705183E+03	1.717792E-17	1.047895E-18
6.714817E+03	1.695457E-17	1.034190E-18
6.724451E+03	1.674764E-17	1.021488E-18
6.734085E+03	1.655701E-17	1.009782E-18
6.743718E+03	1.638232E-17	9.990493E-19
6.753352E+03	1.622339E-17	9.892796E-19
6.762986E+03	1.607944E-17	9.804242E-19
6.772620E+03	1.595046E-17	9.724828E-19
6.782254E+03	1.583586E-17	9.654191E-19
6.791888E+03	1.573507E-17	9.591983E-19
6.801522E+03	1.564814E-17	9.538229E-19
6.811156E+03	1.557458E-17	9.492632E-19
6.820790E+03	1.551413E-17	9.455028E-19
6.830423E+03	1.546658E-17	9.425291E-19
6.840057E+03	1.543175E-17	9.403305E-19
6.849691E+03	1.540949E-17	9.388985E-19
6.859325E+03	1.539987E-17	9.382360E-19
6.868959E+03	1.540237E-17	9.383121E-19
6.878593E+03	1.541702E-17	9.391282E-19
6.888227E+03	1.544386E-17	9.406867E-19
6.897861E+03	1.548249E-17	9.429625E-19
6.907494E+03	1.553267E-17	9.459412E-19
6.917128E+03	1.559410E-17	9.496041E-19
6.926762E+03	1.566641E-17	9.539292E-19
6.936396E+03	1.574938E-17	9.589021E-19
6.946030E+03	1.584208E-17	9.644662E-19
6.955664E+03	1.594430E-17	9.706091E-19
6.965298E+03	1.605517E-17	9.772771E-19
6.974932E+03	1.617416E-17	9.844378E-19
6.984566E+03	1.630029E-17	9.920324E-19
6.994199E+03	1.643277E-17	1.000011E-18
7.003833E+03	1.657100E-17	1.008339E-18
7.013467E+03	1.671395E-17	1.016952E-18
7.023101E+03	1.686081E-17	1.025802E-18
7.032735E+03	1.701099E-17	1.034852E-18
7.042369E+03	1.716369E-17	1.044053E-18
7.052003E+03	1.731791E-17	1.053345E-18
7.061637E+03	1.747307E-17	1.062693E-18
7.071271E+03	1.762820E-17	1.072037E-18
7.080904E+03	1.778278E-17	1.081346E-18
7.090538E+03	1.793606E-17	1.090574E-18
7.100172E+03	1.808708E-17	1.099663E-18
7.109806E+03	1.823538E-17	1.108585E-18
7.119440E+03	1.838022E-17	1.117296E-18
7.129074E+03	1.852068E-17	1.125737E-18
7.138708E+03	1.865627E-17	1.133882E-18
7.148342E+03	1.878656E-17	1.141703E-18
7.157975E+03	1.891067E-17	1.149147E-18
7.167609E+03	1.902796E-17	1.156175E-18
7.177243E+03	1.913812E-17	1.162769E-18
7.186877E+03	1.924040E-17	1.168883E-18
7.196511E+03	1.933411E-17	1.174475E-18
7.206145E+03	1.941940E-17	1.179554E-18
7.215779E+03	1.949520E-17	1.184057E-18
7.225413E+03	1.956182E-17	1.188001E-18
7.235047E+03	1.961887E-17	1.191363E-18
7.244680E+03	1.966659E-17	1.194157E-18
7.254314E+03	1.970450E-17	1.196356E-18
7.263948E+03	1.973330E-17	1.198001E-18
7.273582E+03	1.975301E-17	1.199094E-18
7.283216E+03	1.976373E-17	1.199641E-18
7.292850E+03	1.976647E-17	1.199704E-18
7.302484E+03	1.976123E-17	1.199282E-18
7.312118E+03	1.974886E-17	1.198428E-18
7.321751E+03	1.972995E-17	1.197176E-18
7.331385E+03	1.970505E-17	1.195562E-18
7.341019E+03	1.967437E-17	1.193597E-18
7.350653E+03	1.963832E-17	1.191307E-18
7.360287E+03	1.959774E-17	1.188743E-18
7.369921E+03	1.955207E-17	1.185870E-18
7.379555E+03	1.950202E-17	1.182732E-18
7.389189E+03	1.944774E-17	1.179338E-18
7.398823E+03	1.938913E-17	1.175682E-18
7.408456E+03	1.932643E-17	1.171779E-18
7.418090E+03	1.926018E-17	1.167662E-18
7.427724E+03	1.919048E-17	1.163336E-18
7.437358E+03	1.911771E-17	1.158824E-18
7.446992E+03	1.904253E-17	1.154168E-18
7.456626E+03	1.896509E-17	1.149375E-18
7.466260E+03	1.888599E-17	1.144483E-18
7.475894E+03	1.880525E-17	1.139492E-18
