#wls	flux	fluxerr
1.541421E+03	7.302212E-19	2.175015E-20
1.579957E+03	7.463292E-19	2.222931E-20
1.618492E+03	7.599355E-19	2.263392E-20
1.657028E+03	7.706728E-19	2.295304E-20
1.695564E+03	7.783401E-19	2.318070E-20
1.734099E+03	7.820712E-19	2.329110E-20
1.772635E+03	7.809115E-19	2.325583E-20
1.811170E+03	7.734519E-19	2.303294E-20
1.849706E+03	7.586733E-19	2.259210E-20
1.888241E+03	7.360031E-19	2.191629E-20
1.926777E+03	7.064983E-19	2.103699E-20
1.965312E+03	6.736485E-19	2.005815E-20
2.003848E+03	6.439262E-19	1.917248E-20
2.042383E+03	6.261065E-19	1.864123E-20
2.080919E+03	6.275288E-19	1.868290E-20
2.119454E+03	6.518139E-19	1.940519E-20
2.157990E+03	6.976109E-19	2.076782E-20
2.196525E+03	7.606786E-19	2.264446E-20
2.235061E+03	8.351842E-19	2.486142E-20
2.273597E+03	9.164934E-19	2.728071E-20
2.312132E+03	1.000946E-18	2.979335E-20
2.350668E+03	1.086477E-18	3.233784E-20
2.389203E+03	1.172355E-18	3.489245E-20
2.427739E+03	1.258424E-18	3.745248E-20
2.466274E+03	1.344947E-18	4.002579E-20
2.504810E+03	1.432399E-18	4.262648E-20
2.543345E+03	1.521335E-18	4.527110E-20
2.581881E+03	1.612592E-18	4.798450E-20
2.620416E+03	1.706759E-18	5.078421E-20
2.658952E+03	1.804395E-18	5.368682E-20
2.697487E+03	1.906609E-18	5.672534E-20
2.736023E+03	2.013954E-18	5.991621E-20
2.774558E+03	2.126956E-18	6.327501E-20
2.813094E+03	2.247077E-18	6.684521E-20
2.851630E+03	2.375213E-18	7.065348E-20
2.890165E+03	2.512621E-18	7.473710E-20
2.899799E+03	2.548634E-18	7.580734E-20
2.909433E+03	2.585298E-18	7.689689E-20
2.919067E+03	2.622622E-18	7.800606E-20
2.928701E+03	2.660666E-18	7.913663E-20
2.938334E+03	2.699624E-18	8.029436E-20
2.947968E+03	2.740062E-18	8.149606E-20
2.957602E+03	2.781587E-18	8.273004E-20
2.967236E+03	2.824161E-18	8.399521E-20
2.976870E+03	2.868120E-18	8.530152E-20
2.986504E+03	2.913070E-18	8.663729E-20
2.996138E+03	2.959359E-18	8.801281E-20
3.005772E+03	3.006591E-18	8.941637E-20
3.015406E+03	3.055124E-18	9.085858E-20
3.025039E+03	3.104946E-18	9.233905E-20
3.034673E+03	3.155666E-18	9.384622E-20
3.044307E+03	3.208033E-18	9.540232E-20
3.053941E+03	3.261302E-18	9.698521E-20
3.063575E+03	3.315851E-18	9.860611E-20
3.073209E+03	3.371672E-18	1.002648E-19
3.082843E+03	3.428760E-18	1.019611E-19
3.092477E+03	3.487512E-18	1.037068E-19
3.102110E+03	3.547529E-18	1.054901E-19
3.111744E+03	3.608807E-18	1.073109E-19
3.121378E+03	3.671344E-18	1.091691E-19
3.131012E+03	3.735557E-18	1.110770E-19
3.140646E+03	3.801453E-18	1.130349E-19
3.150280E+03	3.868620E-18	1.150306E-19
3.159914E+03	3.937484E-18	1.170767E-19
3.169548E+03	4.008055E-18	1.191734E-19
3.179182E+03	4.080343E-18	1.213212E-19
3.188815E+03	4.154358E-18	1.235202E-19
3.198449E+03	4.230111E-18	1.257709E-19
3.208083E+03	4.308051E-18	1.280865E-19
3.217717E+03	4.387312E-18	1.304413E-19
3.227351E+03	4.469229E-18	1.328751E-19
3.236985E+03	4.552934E-18	1.353619E-19
3.246619E+03	4.638434E-18	1.379021E-19
3.256253E+03	4.726644E-18	1.405227E-19
3.265887E+03	4.816678E-18	1.431974E-19
3.275520E+03	4.909452E-18	1.459536E-19
3.285154E+03	5.004069E-18	1.487645E-19
3.294788E+03	5.101462E-18	1.516578E-19
3.304422E+03	5.201644E-18	1.546340E-19
3.314056E+03	5.304164E-18	1.576796E-19
3.323690E+03	5.409504E-18	1.608089E-19
3.333324E+03	5.517667E-18	1.640220E-19
3.342958E+03	5.628197E-18	1.673055E-19
3.352591E+03	5.742046E-18	1.706875E-19
3.362225E+03	5.859229E-18	1.741685E-19
3.371859E+03	5.978782E-18	1.777199E-19
3.381493E+03	6.102165E-18	1.813850E-19
3.391127E+03	6.228404E-18	1.851349E-19
3.400761E+03	6.357989E-18	1.889842E-19
3.410395E+03	6.490905E-18	1.929323E-19
3.420029E+03	6.627152E-18	1.969794E-19
3.429663E+03	6.766719E-18	2.011251E-19
3.439296E+03	6.910084E-18	2.053835E-19
3.448930E+03	7.057230E-18	2.097541E-19
3.458564E+03	7.208139E-18	2.142366E-19
3.468198E+03	7.362786E-18	2.188299E-19
3.477832E+03	7.521134E-18	2.235332E-19
3.487466E+03	7.683147E-18	2.283453E-19
3.497100E+03	7.849295E-18	2.332801E-19
3.506734E+03	8.019009E-18	2.383208E-19
3.516367E+03	8.192755E-18	2.434811E-19
3.526001E+03	8.370982E-18	2.487745E-19
3.535635E+03	8.552590E-18	2.541683E-19
3.545269E+03	8.738539E-18	2.596909E-19
3.554903E+03	8.928226E-18	2.653244E-19
3.564537E+03	9.122077E-18	2.710816E-19
3.574171E+03	9.319997E-18	2.769595E-19
3.583805E+03	9.521870E-18	2.829547E-19
3.593439E+03	9.727591E-18	2.890641E-19
3.603072E+03	9.937032E-18	2.952839E-19
3.612706E+03	1.015059E-17	3.016258E-19
3.622340E+03	1.036758E-17	3.080698E-19
3.631974E+03	1.058894E-17	3.146431E-19
3.641608E+03	1.081343E-17	3.213096E-19
3.651242E+03	1.104143E-17	3.280800E-19
3.660876E+03	1.127276E-17	3.349491E-19
3.670510E+03	1.150775E-17	3.419271E-19
3.680144E+03	1.174622E-17	3.490081E-19
3.689777E+03	1.198689E-17	3.561543E-19
3.699411E+03	1.223113E-17	3.634064E-19
3.709045E+03	1.247818E-17	3.707418E-19
3.718679E+03	1.272725E-17	3.781369E-19
3.728313E+03	1.297912E-17	3.856153E-19
3.737947E+03	1.323246E-17	3.931371E-19
3.747581E+03	1.348802E-17	4.007247E-19
3.757215E+03	1.374547E-17	4.083681E-19
3.766848E+03	1.400341E-17	4.160261E-19
3.776482E+03	1.426251E-17	4.237183E-19
3.786116E+03	1.452239E-17	4.314334E-19
3.795750E+03	1.478209E-17	4.391431E-19
3.805384E+03	1.504170E-17	4.468498E-19
3.815018E+03	1.530075E-17	4.545398E-19
3.824652E+03	1.555825E-17	4.621838E-19
3.834286E+03	1.581372E-17	4.697668E-19
3.843920E+03	1.606767E-17	4.773049E-19
3.853553E+03	1.631808E-17	4.847377E-19
3.863187E+03	1.656549E-17	4.920810E-19
3.872821E+03	1.680942E-17	4.993208E-19
3.882455E+03	1.704891E-17	5.064287E-19
3.892089E+03	1.728355E-17	5.133926E-19
3.901723E+03	1.751298E-17	5.202013E-19
3.911357E+03	1.773688E-17	5.268456E-19
3.920991E+03	1.795499E-17	5.333177E-19
3.930624E+03	1.816663E-17	5.395977E-19
3.940258E+03	1.837217E-17	5.456965E-19
3.949892E+03	1.857110E-17	5.515985E-19
3.959526E+03	1.876297E-17	5.572912E-19
3.969160E+03	1.894843E-17	5.627931E-19
3.978794E+03	1.912721E-17	5.680966E-19
3.988428E+03	1.929965E-17	5.732115E-19
3.998062E+03	1.946614E-17	5.781500E-19
4.007696E+03	1.962630E-17	5.829000E-19
4.017329E+03	1.978116E-17	5.874930E-19
4.026963E+03	1.993096E-17	5.919352E-19
4.036597E+03	2.007642E-17	5.962489E-19
4.046231E+03	2.021793E-17	6.004451E-19
4.055865E+03	2.035592E-17	6.045366E-19
4.065499E+03	2.049129E-17	6.085501E-19
4.075133E+03	2.062495E-17	6.125130E-19
4.084767E+03	2.075701E-17	6.164285E-19
4.094400E+03	2.088842E-17	6.203245E-19
4.104034E+03	2.101970E-17	6.242168E-19
4.113668E+03	2.115179E-17	6.281328E-19
4.123302E+03	2.128477E-17	6.320756E-19
4.132936E+03	2.141991E-17	6.360824E-19
4.142570E+03	2.155689E-17	6.401436E-19
4.152204E+03	2.169650E-17	6.442830E-19
4.161838E+03	2.183951E-17	6.485236E-19
4.171472E+03	2.198590E-17	6.528642E-19
4.181105E+03	2.213634E-17	6.573252E-19
4.190739E+03	2.229072E-17	6.619033E-19
4.200373E+03	2.244928E-17	6.666054E-19
4.210007E+03	2.261256E-17	6.714478E-19
4.219641E+03	2.278068E-17	6.764338E-19
4.229275E+03	2.295298E-17	6.815437E-19
4.238909E+03	2.313016E-17	6.867988E-19
4.248543E+03	2.331180E-17	6.921862E-19
4.258177E+03	2.349773E-17	6.977009E-19
4.267810E+03	2.368768E-17	7.033351E-19
4.277444E+03	2.388131E-17	7.090784E-19
4.287078E+03	2.407780E-17	7.149067E-19
4.296712E+03	2.427728E-17	7.208240E-19
4.306346E+03	2.447910E-17	7.268106E-19
4.315980E+03	2.468316E-17	7.328637E-19
4.325614E+03	2.488893E-17	7.389675E-19
4.335248E+03	2.509505E-17	7.450819E-19
4.344881E+03	2.530184E-17	7.512160E-19
4.354515E+03	2.550775E-17	7.573241E-19
4.364149E+03	2.571254E-17	7.633992E-19
4.373783E+03	2.591453E-17	7.693908E-19
4.383417E+03	2.611293E-17	7.752763E-19
4.393051E+03	2.630696E-17	7.810318E-19
4.402685E+03	2.649540E-17	7.866213E-19
4.412319E+03	2.667696E-17	7.920067E-19
4.421953E+03	2.685035E-17	7.971498E-19
4.431586E+03	2.701461E-17	8.020218E-19
4.441220E+03	2.716843E-17	8.065839E-19
4.450854E+03	2.731052E-17	8.107979E-19
4.460488E+03	2.744001E-17	8.146379E-19
4.470122E+03	2.755573E-17	8.180694E-19
4.479756E+03	2.765699E-17	8.210713E-19
4.489390E+03	2.774318E-17	8.236263E-19
4.499024E+03	2.781316E-17	8.257001E-19
4.508657E+03	2.786664E-17	8.272842E-19
4.518291E+03	2.790350E-17	8.283750E-19
4.527925E+03	2.792380E-17	8.289742E-19
4.537559E+03	2.792708E-17	8.290686E-19
4.547193E+03	2.791414E-17	8.286814E-19
4.556827E+03	2.788492E-17	8.278112E-19
4.566461E+03	2.784059E-17	8.264924E-19
4.576095E+03	2.778147E-17	8.247350E-19
4.585729E+03	2.770878E-17	8.225749E-19
4.595362E+03	2.762355E-17	8.200425E-19
4.604996E+03	2.752697E-17	8.171735E-19
4.614630E+03	2.742104E-17	8.140270E-19
4.624264E+03	2.730655E-17	8.106269E-19
4.633898E+03	2.718571E-17	8.070382E-19
4.643532E+03	2.706020E-17	8.033110E-19
4.653166E+03	2.693181E-17	7.994985E-19
4.662800E+03	2.680231E-17	7.956535E-19
4.672434E+03	2.667350E-17	7.918288E-19
4.682067E+03	2.654739E-17	7.880848E-19
4.691701E+03	2.642564E-17	7.844703E-19
4.701335E+03	2.630982E-17	7.810318E-19
4.710969E+03	2.620168E-17	7.778217E-19
4.720603E+03	2.610197E-17	7.748620E-19
4.730237E+03	2.601250E-17	7.722066E-19
4.739871E+03	2.593436E-17	7.698875E-19
4.749505E+03	2.586849E-17	7.679328E-19
4.759138E+03	2.581597E-17	7.663746E-19
4.768772E+03	2.577686E-17	7.652146E-19
4.778406E+03	2.575227E-17	7.644857E-19
4.788040E+03	2.574256E-17	7.641987E-19
4.797674E+03	2.574770E-17	7.643530E-19
4.807308E+03	2.576842E-17	7.649698E-19
4.816942E+03	2.580422E-17	7.660344E-19
4.826576E+03	2.585568E-17	7.675638E-19
4.836210E+03	2.592243E-17	7.695477E-19
4.845843E+03	2.600441E-17	7.719835E-19
4.855477E+03	2.610177E-17	7.748761E-19
4.865111E+03	2.621408E-17	7.782129E-19
4.874745E+03	2.634148E-17	7.819977E-19
4.884379E+03	2.648382E-17	7.862263E-19
4.894013E+03	2.664065E-17	7.908851E-19
4.903647E+03	2.681211E-17	7.959782E-19
4.913281E+03	2.699804E-17	8.015013E-19
4.922914E+03	2.719830E-17	8.074501E-19
4.932548E+03	2.741277E-17	8.138208E-19
4.942182E+03	2.764133E-17	8.206098E-19
4.951816E+03	2.788383E-17	8.278132E-19
4.961450E+03	2.814018E-17	8.354278E-19
4.971084E+03	2.841025E-17	8.434500E-19
4.980718E+03	2.869390E-17	8.518757E-19
4.990352E+03	2.899100E-17	8.607005E-19
4.999986E+03	2.930136E-17	8.699195E-19
5.009619E+03	2.962477E-17	8.795263E-19
5.019253E+03	2.996098E-17	8.895130E-19
5.028887E+03	3.030964E-17	8.998698E-19
5.038521E+03	3.067035E-17	9.105845E-19
5.048155E+03	3.104291E-17	9.216515E-19
5.057789E+03	3.142605E-17	9.330327E-19
5.067423E+03	3.181933E-17	9.447154E-19
5.077057E+03	3.222186E-17	9.566726E-19
5.086691E+03	3.263257E-17	9.688732E-19
5.096324E+03	3.304992E-17	9.812712E-19
5.105958E+03	3.347324E-17	9.938468E-19
5.115592E+03	3.390031E-17	1.006534E-18
5.125226E+03	3.432983E-17	1.019294E-18
5.134860E+03	3.475962E-17	1.032063E-18
5.144494E+03	3.518808E-17	1.044792E-18
5.154128E+03	3.561313E-17	1.057421E-18
5.163762E+03	3.603223E-17	1.069873E-18
5.173395E+03	3.644343E-17	1.082091E-18
5.183029E+03	3.684401E-17	1.093994E-18
5.192663E+03	3.723156E-17	1.105510E-18
5.202297E+03	3.760403E-17	1.116579E-18
5.211931E+03	3.795861E-17	1.127117E-18
5.221565E+03	3.829253E-17	1.137041E-18
5.231199E+03	3.860426E-17	1.146307E-18
5.240833E+03	3.889115E-17	1.154836E-18
5.250467E+03	3.915072E-17	1.162554E-18
5.260100E+03	3.938177E-17	1.169424E-18
5.269734E+03	3.958171E-17	1.175372E-18
5.279368E+03	3.974889E-17	1.180347E-18
5.289002E+03	3.988232E-17	1.184320E-18
5.298636E+03	3.998082E-17	1.187255E-18
5.308270E+03	4.004307E-17	1.189115E-18
5.317904E+03	4.006844E-17	1.189879E-18
5.327538E+03	4.005698E-17	1.189550E-18
5.337171E+03	4.000784E-17	1.188102E-18
5.346805E+03	3.992252E-17	1.185579E-18
5.356439E+03	3.980078E-17	1.181975E-18
5.366073E+03	3.964389E-17	1.177327E-18
5.375707E+03	3.945261E-17	1.171658E-18
5.385341E+03	3.922910E-17	1.165031E-18
5.394975E+03	3.897422E-17	1.157473E-18
5.404609E+03	3.869017E-17	1.149048E-18
5.414243E+03	3.837930E-17	1.139827E-18
5.423876E+03	3.804299E-17	1.129851E-18
5.433510E+03	3.768423E-17	1.119207E-18
5.443144E+03	3.730459E-17	1.107943E-18
5.452778E+03	3.690719E-17	1.096151E-18
5.462412E+03	3.649372E-17	1.083882E-18
5.472046E+03	3.606734E-17	1.071229E-18
5.481680E+03	3.562979E-17	1.058245E-18
5.491314E+03	3.518384E-17	1.045010E-18
5.500947E+03	3.473191E-17	1.031598E-18
5.510581E+03	3.427633E-17	1.018077E-18
5.520215E+03	3.381910E-17	1.004507E-18
5.529849E+03	3.336277E-17	9.909631E-19
5.539483E+03	3.290919E-17	9.775009E-19
5.549117E+03	3.246076E-17	9.641914E-19
5.558751E+03	3.201880E-17	9.510739E-19
5.568385E+03	3.158580E-17	9.382220E-19
5.578019E+03	3.116313E-17	9.256771E-19
5.587652E+03	3.075236E-17	9.134852E-19
5.597286E+03	3.035487E-17	9.016875E-19
5.606920E+03	2.997159E-17	8.903120E-19
5.616554E+03	2.960387E-17	8.793984E-19
5.626188E+03	2.925231E-17	8.689645E-19
5.635822E+03	2.891762E-17	8.590316E-19
5.645456E+03	2.860067E-17	8.496253E-19
5.655090E+03	2.830131E-17	8.407418E-19
5.664724E+03	2.802013E-17	8.323979E-19
5.674357E+03	2.775731E-17	8.245992E-19
5.683991E+03	2.751263E-17	8.173394E-19
5.693625E+03	2.728604E-17	8.106167E-19
5.703259E+03	2.707762E-17	8.044340E-19
5.712893E+03	2.688658E-17	7.987672E-19
5.722527E+03	2.671299E-17	7.936189E-19
5.732161E+03	2.655555E-17	7.889501E-19
5.741795E+03	2.641433E-17	7.847634E-19
5.751428E+03	2.628778E-17	7.810124E-19
5.761062E+03	2.617552E-17	7.776855E-19
5.770696E+03	2.607627E-17	7.747455E-19
5.780330E+03	2.598900E-17	7.721612E-19
5.789964E+03	2.591234E-17	7.698923E-19
5.799598E+03	2.584545E-17	7.679134E-19
5.809232E+03	2.578725E-17	7.661927E-19
5.818866E+03	2.573645E-17	7.646919E-19
5.828500E+03	2.569187E-17	7.633757E-19
5.838133E+03	2.565314E-17	7.622334E-19
5.847767E+03	2.561904E-17	7.612289E-19
5.857401E+03	2.558925E-17	7.603521E-19
5.867035E+03	2.556307E-17	7.595828E-19
5.876669E+03	2.554023E-17	7.589125E-19
5.886303E+03	2.552060E-17	7.583376E-19
5.895937E+03	2.550395E-17	7.578513E-19
5.905571E+03	2.549044E-17	7.574582E-19
5.915204E+03	2.548035E-17	7.571670E-19
5.924838E+03	2.547411E-17	7.569899E-19
5.934472E+03	2.547196E-17	7.569344E-19
5.944106E+03	2.547496E-17	7.570319E-19
5.953740E+03	2.548373E-17	7.573011E-19
5.963374E+03	2.549892E-17	7.577608E-19
5.973008E+03	2.552065E-17	7.584150E-19
5.982642E+03	2.555002E-17	7.592962E-19
5.992276E+03	2.558732E-17	7.604133E-19
6.001909E+03	2.563303E-17	7.617801E-19
6.011543E+03	2.568779E-17	7.634159E-19
6.021177E+03	2.575163E-17	7.653217E-19
6.030811E+03	2.582530E-17	7.675194E-19
6.040445E+03	2.590864E-17	7.700047E-19
6.050079E+03	2.600196E-17	7.727866E-19
6.059713E+03	2.610547E-17	7.758717E-19
6.069347E+03	2.621909E-17	7.792571E-19
6.078981E+03	2.634263E-17	7.829374E-19
6.088614E+03	2.647586E-17	7.869056E-19
6.098248E+03	2.661899E-17	7.911685E-19
6.107882E+03	2.677114E-17	7.956992E-19
6.117516E+03	2.693241E-17	8.005010E-19
6.127150E+03	2.710229E-17	8.055591E-19
6.136784E+03	2.727993E-17	8.108479E-19
6.146418E+03	2.746552E-17	8.163730E-19
6.156052E+03	2.765778E-17	8.220964E-19
6.165685E+03	2.785616E-17	8.280021E-19
6.175319E+03	2.806007E-17	8.340719E-19
6.184953E+03	2.826851E-17	8.402767E-19
6.194587E+03	2.848040E-17	8.465842E-19
6.204221E+03	2.869489E-17	8.529691E-19
6.213855E+03	2.891101E-17	8.594024E-19
6.223489E+03	2.912772E-17	8.658535E-19
6.233123E+03	2.934360E-17	8.722798E-19
6.242757E+03	2.955743E-17	8.786453E-19
6.252390E+03	2.976824E-17	8.849213E-19
6.262024E+03	2.997409E-17	8.910499E-19
6.271658E+03	3.017390E-17	8.969991E-19
6.281292E+03	3.036500E-17	9.026894E-19
6.290926E+03	3.054564E-17	9.080690E-19
6.300560E+03	3.071445E-17	9.130969E-19
6.310194E+03	3.086876E-17	9.176937E-19
6.319828E+03	3.100762E-17	9.218313E-19
6.329461E+03	3.112918E-17	9.254544E-19
6.339095E+03	3.123166E-17	9.285107E-19
6.348729E+03	3.131440E-17	9.309799E-19
6.358363E+03	3.137578E-17	9.328143E-19
6.367997E+03	3.141464E-17	9.339788E-19
6.377631E+03	3.142982E-17	9.344395E-19
6.387265E+03	3.142025E-17	9.341643E-19
6.396899E+03	3.138526E-17	9.331336E-19
6.406533E+03	3.132357E-17	9.313084E-19
6.416166E+03	3.123431E-17	9.286639E-19
6.425800E+03	3.111711E-17	9.251882E-19
6.435434E+03	3.097142E-17	9.208655E-19
6.445068E+03	3.079656E-17	9.156756E-19
6.454702E+03	3.059318E-17	9.096373E-19
6.464336E+03	3.036087E-17	9.027386E-19
6.473970E+03	3.010062E-17	8.950090E-19
6.483604E+03	2.981346E-17	8.864793E-19
6.493237E+03	2.950085E-17	8.771922E-19
6.502871E+03	2.916459E-17	8.672022E-19
6.512505E+03	2.880721E-17	8.565837E-19
6.522139E+03	2.843086E-17	8.454008E-19
6.531773E+03	2.803859E-17	8.337444E-19
6.541407E+03	2.763301E-17	8.216919E-19
6.551041E+03	2.721715E-17	8.093336E-19
6.560675E+03	2.679471E-17	7.967793E-19
6.570309E+03	2.636814E-17	7.841015E-19
6.579942E+03	2.594041E-17	7.713894E-19
6.589576E+03	2.551496E-17	7.587448E-19
6.599210E+03	2.509387E-17	7.462296E-19
6.608844E+03	2.467987E-17	7.339248E-19
6.618478E+03	2.427514E-17	7.218957E-19
6.628112E+03	2.388165E-17	7.102002E-19
6.637746E+03	2.350105E-17	6.988882E-19
6.647380E+03	2.313478E-17	6.880018E-19
6.657014E+03	2.278372E-17	6.775677E-19
6.666647E+03	2.244935E-17	6.676297E-19
6.676281E+03	2.213186E-17	6.581934E-19
6.685915E+03	2.183230E-17	6.492903E-19
6.695549E+03	2.155049E-17	6.409148E-19
6.705183E+03	2.128717E-17	6.330891E-19
6.714817E+03	2.104190E-17	6.258001E-19
6.724451E+03	2.081493E-17	6.190552E-19
6.734085E+03	2.060616E-17	6.128513E-19
6.743718E+03	2.041543E-17	6.071839E-19
6.753352E+03	2.024229E-17	6.020395E-19
6.762986E+03	2.008700E-17	5.974260E-19
6.772620E+03	1.994882E-17	5.933210E-19
6.782254E+03	1.982748E-17	5.897169E-19
6.791888E+03	1.972319E-17	5.866199E-19
6.801522E+03	1.963499E-17	5.840014E-19
6.811156E+03	1.956334E-17	5.818750E-19
6.820790E+03	1.950730E-17	5.802128E-19
6.830423E+03	1.946713E-17	5.790228E-19
6.840057E+03	1.944263E-17	5.782987E-19
6.849691E+03	1.943313E-17	5.780207E-19
6.859325E+03	1.943891E-17	5.781971E-19
6.868959E+03	1.945952E-17	5.788145E-19
6.878593E+03	1.949474E-17	5.798666E-19
6.888227E+03	1.954408E-17	5.813387E-19
6.897861E+03	1.960773E-17	5.832367E-19
6.907494E+03	1.968489E-17	5.855363E-19
6.917128E+03	1.977566E-17	5.882406E-19
6.926762E+03	1.987885E-17	5.913147E-19
6.936396E+03	1.999471E-17	5.947653E-19
6.946030E+03	2.012214E-17	5.985604E-19
6.955664E+03	2.026052E-17	6.026812E-19
6.965298E+03	2.040940E-17	6.071143E-19
6.974932E+03	2.056774E-17	6.118287E-19
6.984566E+03	2.073473E-17	6.168007E-19
6.994199E+03	2.090977E-17	6.220121E-19
7.003833E+03	2.109145E-17	6.274210E-19
7.013467E+03	2.127936E-17	6.330154E-19
7.023101E+03	2.147228E-17	6.387591E-19
7.032735E+03	2.166901E-17	6.446160E-19
7.042369E+03	2.186910E-17	6.505728E-19
7.052003E+03	2.207104E-17	6.565846E-19
7.061637E+03	2.227411E-17	6.626303E-19
7.071271E+03	2.247735E-17	6.686811E-19
7.080904E+03	2.267979E-17	6.747081E-19
7.090538E+03	2.288048E-17	6.806828E-19
7.100172E+03	2.307815E-17	6.865681E-19
7.109806E+03	2.327218E-17	6.923451E-19
7.119440E+03	2.346163E-17	6.979859E-19
7.129074E+03	2.364562E-17	7.034640E-19
7.138708E+03	2.382325E-17	7.087534E-19
7.148342E+03	2.399340E-17	7.138200E-19
7.157975E+03	2.415588E-17	7.186586E-19
7.167609E+03	2.430994E-17	7.232465E-19
7.177243E+03	2.445461E-17	7.275551E-19
7.186877E+03	2.458956E-17	7.315747E-19
7.196511E+03	2.471365E-17	7.352710E-19
7.206145E+03	2.482672E-17	7.386396E-19
7.215779E+03	2.492841E-17	7.416697E-19
7.225413E+03	2.501814E-17	7.443439E-19
7.235047E+03	2.509606E-17	7.466669E-19
7.244680E+03	2.516178E-17	7.486267E-19
7.254314E+03	2.521567E-17	7.502344E-19
7.263948E+03	2.525752E-17	7.514841E-19
7.273582E+03	2.528759E-17	7.523832E-19
7.283216E+03	2.530619E-17	7.529410E-19
7.292850E+03	2.531373E-17	7.531695E-19
7.302484E+03	2.531096E-17	7.530917E-19
7.312118E+03	2.529774E-17	7.527025E-19
7.321751E+03	2.527524E-17	7.520373E-19
7.331385E+03	2.524362E-17	7.511007E-19
7.341019E+03	2.520339E-17	7.499081E-19
7.350653E+03	2.515504E-17	7.484735E-19
7.360287E+03	2.509931E-17	7.468195E-19
7.369921E+03	2.503597E-17	7.449387E-19
7.379555E+03	2.496572E-17	7.428528E-19
7.389189E+03	2.488929E-17	7.405823E-19
7.398823E+03	2.480670E-17	7.381291E-19
7.408456E+03	2.471801E-17	7.354937E-19
7.418090E+03	2.462423E-17	7.327073E-19
7.427724E+03	2.452576E-17	7.297809E-19
7.437358E+03	2.442231E-17	7.267067E-19
7.446992E+03	2.431493E-17	7.235152E-19
7.456626E+03	2.420329E-17	7.201971E-19
7.466260E+03	2.408837E-17	7.167810E-19
7.475894E+03	2.397042E-17	7.132748E-19
