#wls	flux	fluxerr
1.541421E+03	6.066212E-19	2.888966E-20
1.579957E+03	6.229110E-19	2.966289E-20
1.618492E+03	6.371645E-19	3.033896E-20
1.657028E+03	6.492913E-19	3.091358E-20
1.695564E+03	6.589680E-19	3.137137E-20
1.734099E+03	6.654217E-19	3.167557E-20
1.772635E+03	6.676573E-19	3.177886E-20
1.811170E+03	6.646601E-19	3.163300E-20
1.849706E+03	6.553357E-19	3.118598E-20
1.888241E+03	6.389624E-19	3.040356E-20
1.926777E+03	6.164813E-19	2.933062E-20
1.965312E+03	5.907419E-19	2.810284E-20
2.003848E+03	5.676293E-19	2.700019E-20
2.042383E+03	5.546260E-19	2.637852E-20
2.080919E+03	5.586425E-19	2.656629E-20
2.119454E+03	5.831699E-19	2.772920E-20
2.157990E+03	6.273054E-19	2.982394E-20
2.196525E+03	6.873880E-19	3.267610E-20
2.235061E+03	7.584742E-19	3.605037E-20
2.273597E+03	8.366480E-19	3.976039E-20
2.312132E+03	9.183754E-19	4.363806E-20
2.350668E+03	1.002295E-18	4.761858E-20
2.389203E+03	1.087457E-18	5.165668E-20
2.427739E+03	1.173927E-18	5.575545E-20
2.466274E+03	1.261998E-18	5.992873E-20
2.504810E+03	1.352385E-18	6.421034E-20
2.543345E+03	1.445935E-18	6.864033E-20
2.581881E+03	1.543071E-18	7.323868E-20
2.620416E+03	1.644934E-18	7.805939E-20
2.658952E+03	1.752737E-18	8.315972E-20
2.697487E+03	1.866919E-18	8.856037E-20
2.736023E+03	1.988724E-18	9.432001E-20
2.774558E+03	2.119464E-18	1.005005E-19
2.813094E+03	2.260207E-18	1.071522E-19
2.851630E+03	2.412052E-18	1.143266E-19
2.890165E+03	2.577128E-18	1.221243E-19
2.899799E+03	2.620644E-18	1.241796E-19
2.909433E+03	2.665294E-18	1.262883E-19
2.919067E+03	2.710753E-18	1.284351E-19
2.928701E+03	2.757084E-18	1.306228E-19
2.938334E+03	2.804840E-18	1.328778E-19
2.947968E+03	2.853894E-18	1.351940E-19
2.957602E+03	2.904922E-18	1.376034E-19
2.967236E+03	2.957190E-18	1.400711E-19
2.976870E+03	3.010664E-18	1.425957E-19
2.986504E+03	3.066051E-18	1.452104E-19
2.996138E+03	3.122600E-18	1.478799E-19
3.005772E+03	3.181036E-18	1.506383E-19
3.015406E+03	3.240600E-18	1.534497E-19
3.025039E+03	3.301649E-18	1.563311E-19
3.034673E+03	3.364568E-18	1.593006E-19
3.044307E+03	3.428568E-18	1.623208E-19
3.053941E+03	3.494456E-18	1.654300E-19
3.063575E+03	3.561838E-18	1.686094E-19
3.073209E+03	3.630704E-18	1.718587E-19
3.082843E+03	3.701448E-18	1.751963E-19
3.092477E+03	3.774076E-18	1.786225E-19
3.102110E+03	3.847774E-18	1.820990E-19
3.111744E+03	3.923765E-18	1.856834E-19
3.121378E+03	4.001233E-18	1.893371E-19
3.131012E+03	4.080594E-18	1.930799E-19
3.140646E+03	4.161856E-18	1.969120E-19
3.150280E+03	4.245025E-18	2.008338E-19
3.159914E+03	4.330107E-18	2.048454E-19
3.169548E+03	4.417111E-18	2.089473E-19
3.179182E+03	4.506040E-18	2.131397E-19
3.188815E+03	4.596904E-18	2.174229E-19
3.198449E+03	4.690153E-18	2.218182E-19
3.208083E+03	4.785798E-18	2.263261E-19
3.217717E+03	4.883408E-18	2.309262E-19
3.227351E+03	4.982987E-18	2.356187E-19
3.236985E+03	5.085446E-18	2.404465E-19
3.246619E+03	5.189887E-18	2.453673E-19
3.256253E+03	5.296779E-18	2.504031E-19
3.265887E+03	5.406592E-18	2.555762E-19
3.275520E+03	5.518403E-18	2.608428E-19
3.285154E+03	5.633155E-18	2.662476E-19
3.294788E+03	5.750854E-18	2.717907E-19
3.304422E+03	5.871038E-18	2.774503E-19
3.314056E+03	5.993704E-18	2.832262E-19
3.323690E+03	6.119811E-18	2.891637E-19
3.333324E+03	6.248400E-18	2.952174E-19
3.342958E+03	6.380437E-18	3.014330E-19
3.352591E+03	6.514945E-18	3.077641E-19
3.362225E+03	6.652893E-18	3.142566E-19
3.371859E+03	6.794278E-18	3.209104E-19
3.381493E+03	6.938591E-18	3.277012E-19
3.391127E+03	7.086318E-18	3.346520E-19
3.400761E+03	7.237433E-18	3.417615E-19
3.410395E+03	7.391922E-18	3.490290E-19
3.420029E+03	7.549753E-18	3.564530E-19
3.429663E+03	7.710894E-18	3.640318E-19
3.439296E+03	7.875820E-18	3.717879E-19
3.448930E+03	8.043977E-18	3.796951E-19
3.458564E+03	8.216353E-18	3.877998E-19
3.468198E+03	8.391857E-18	3.960507E-19
3.477832E+03	8.570947E-18	4.044692E-19
3.487466E+03	8.754081E-18	4.130769E-19
3.497100E+03	8.940665E-18	4.218456E-19
3.506734E+03	9.131146E-18	4.307965E-19
3.516367E+03	9.324904E-18	4.399003E-19
3.526001E+03	9.522905E-18	4.492023E-19
3.535635E+03	9.723983E-18	4.586476E-19
3.545269E+03	9.929084E-18	4.682808E-19
3.554903E+03	1.013809E-17	4.780964E-19
3.564537E+03	1.034981E-17	4.880373E-19
3.574171E+03	1.056569E-17	4.981730E-19
3.583805E+03	1.078506E-17	5.084707E-19
3.593439E+03	1.100775E-17	5.189230E-19
3.603072E+03	1.123360E-17	5.295219E-19
3.612706E+03	1.146243E-17	5.402588E-19
3.622340E+03	1.169513E-17	5.511762E-19
3.631974E+03	1.193043E-17	5.622133E-19
3.641608E+03	1.216865E-17	5.733860E-19
3.651242E+03	1.240959E-17	5.846845E-19
3.660876E+03	1.265302E-17	5.960975E-19
3.670510E+03	1.289925E-17	6.076396E-19
3.680144E+03	1.314747E-17	6.192735E-19
3.689777E+03	1.339851E-17	6.310373E-19
3.699411E+03	1.365102E-17	6.428674E-19
3.709045E+03	1.390523E-17	6.547752E-19
3.718679E+03	1.416085E-17	6.667463E-19
3.728313E+03	1.441754E-17	6.787649E-19
3.737947E+03	1.467550E-17	6.908407E-19
3.747581E+03	1.493382E-17	7.029307E-19
3.757215E+03	1.519266E-17	7.150420E-19
3.766848E+03	1.545159E-17	7.271550E-19
3.776482E+03	1.570966E-17	7.392242E-19
3.786116E+03	1.596694E-17	7.512530E-19
3.795750E+03	1.622346E-17	7.632435E-19
3.805384E+03	1.647766E-17	7.751218E-19
3.815018E+03	1.672955E-17	7.868883E-19
3.824652E+03	1.697859E-17	7.985174E-19
3.834286E+03	1.722421E-17	8.099832E-19
3.843920E+03	1.746639E-17	8.212837E-19
3.853553E+03	1.770353E-17	8.323446E-19
3.863187E+03	1.793611E-17	8.431881E-19
3.872821E+03	1.816261E-17	8.537424E-19
3.882455E+03	1.838302E-17	8.640082E-19
3.892089E+03	1.859741E-17	8.739877E-19
3.901723E+03	1.880436E-17	8.836150E-19
3.911357E+03	1.900355E-17	8.928748E-19
3.920991E+03	1.919519E-17	9.017771E-19
3.930624E+03	1.937907E-17	9.103122E-19
3.940258E+03	1.955412E-17	9.184298E-19
3.949892E+03	1.972126E-17	9.261732E-19
3.959526E+03	1.987959E-17	9.335010E-19
3.969160E+03	2.002976E-17	9.404425E-19
3.978794E+03	2.017152E-17	9.469876E-19
3.988428E+03	2.030480E-17	9.531317E-19
3.998062E+03	2.043093E-17	9.589381E-19
4.007696E+03	2.054910E-17	9.643689E-19
4.017329E+03	2.066039E-17	9.694750E-19
4.026963E+03	2.076550E-17	9.742889E-19
4.036597E+03	2.086477E-17	9.788270E-19
4.046231E+03	2.095863E-17	9.831089E-19
4.055865E+03	2.104794E-17	9.871764E-19
4.065499E+03	2.113324E-17	9.910531E-19
4.075133E+03	2.121545E-17	9.947838E-19
4.084767E+03	2.129513E-17	9.983937E-19
4.094400E+03	2.137322E-17	1.001928E-18
4.104034E+03	2.144988E-17	1.005393E-18
4.113668E+03	2.152603E-17	1.008832E-18
4.123302E+03	2.160218E-17	1.012269E-18
4.132936E+03	2.167916E-17	1.015744E-18
4.142570E+03	2.175708E-17	1.019261E-18
4.152204E+03	2.183632E-17	1.022838E-18
4.161838E+03	2.191730E-17	1.026494E-18
4.171472E+03	2.200034E-17	1.030246E-18
4.181105E+03	2.208542E-17	1.034091E-18
4.190739E+03	2.217281E-17	1.038041E-18
4.200373E+03	2.226242E-17	1.042094E-18
4.210007E+03	2.235407E-17	1.046241E-18
4.219641E+03	2.244795E-17	1.050489E-18
4.229275E+03	2.254281E-17	1.054781E-18
4.238909E+03	2.263904E-17	1.059135E-18
4.248543E+03	2.273564E-17	1.063504E-18
4.258177E+03	2.283153E-17	1.067838E-18
4.267810E+03	2.292626E-17	1.072115E-18
4.277444E+03	2.301892E-17	1.076293E-18
4.287078E+03	2.310824E-17	1.080313E-18
4.296712E+03	2.319444E-17	1.084185E-18
4.306346E+03	2.327697E-17	1.087883E-18
4.315980E+03	2.335648E-17	1.091438E-18
4.325614E+03	2.343253E-17	1.094829E-18
4.335248E+03	2.350557E-17	1.098077E-18
4.344881E+03	2.357529E-17	1.101168E-18
4.354515E+03	2.364163E-17	1.104100E-18
4.364149E+03	2.370385E-17	1.106837E-18
4.373783E+03	2.376237E-17	1.109399E-18
4.383417E+03	2.381601E-17	1.111731E-18
4.393051E+03	2.386419E-17	1.113807E-18
4.402685E+03	2.390688E-17	1.115625E-18
4.412319E+03	2.394313E-17	1.117141E-18
4.421953E+03	2.397229E-17	1.118324E-18
4.431586E+03	2.399370E-17	1.119144E-18
4.441220E+03	2.400673E-17	1.119572E-18
4.450854E+03	2.401052E-17	1.119568E-18
4.460488E+03	2.400483E-17	1.119120E-18
4.470122E+03	2.398921E-17	1.118209E-18
4.479756E+03	2.396331E-17	1.116818E-18
4.489390E+03	2.392660E-17	1.114922E-18
4.499024E+03	2.387894E-17	1.112515E-18
4.508657E+03	2.382065E-17	1.109613E-18
4.518291E+03	2.375128E-17	1.106195E-18
4.527925E+03	2.367170E-17	1.102301E-18
4.537559E+03	2.358205E-17	1.097938E-18
4.547193E+03	2.348290E-17	1.093134E-18
4.556827E+03	2.337495E-17	1.087920E-18
4.566461E+03	2.325877E-17	1.082324E-18
4.576095E+03	2.313532E-17	1.076390E-18
4.585729E+03	2.300544E-17	1.070158E-18
4.595362E+03	2.287059E-17	1.063696E-18
4.604996E+03	2.273156E-17	1.057040E-18
4.614630E+03	2.258998E-17	1.050268E-18
4.624264E+03	2.244680E-17	1.043422E-18
4.633898E+03	2.230324E-17	1.036559E-18
4.643532E+03	2.216111E-17	1.029765E-18
4.653166E+03	2.202141E-17	1.023084E-18
4.662800E+03	2.188567E-17	1.016589E-18
4.672434E+03	2.175461E-17	1.010312E-18
4.682067E+03	2.162968E-17	1.004321E-18
4.691701E+03	2.151200E-17	9.986673E-19
4.701335E+03	2.140238E-17	9.933889E-19
4.710969E+03	2.130205E-17	9.885423E-19
4.720603E+03	2.121140E-17	9.841455E-19
4.730237E+03	2.113146E-17	9.802460E-19
4.739871E+03	2.106267E-17	9.768641E-19
4.749505E+03	2.100586E-17	9.740373E-19
4.759138E+03	2.096099E-17	9.717646E-19
4.768772E+03	2.092867E-17	9.700729E-19
4.778406E+03	2.090915E-17	9.689736E-19
4.788040E+03	2.090232E-17	9.684617E-19
4.797674E+03	2.090848E-17	9.685505E-19
4.807308E+03	2.092714E-17	9.692168E-19
4.816942E+03	2.095868E-17	9.704776E-19
4.826576E+03	2.100248E-17	9.723049E-19
4.836210E+03	2.105862E-17	9.747008E-19
4.845843E+03	2.112688E-17	9.776554E-19
4.855477E+03	2.120705E-17	9.811582E-19
4.865111E+03	2.129889E-17	9.851983E-19
4.874745E+03	2.140193E-17	9.897535E-19
4.884379E+03	2.151618E-17	9.948233E-19
4.894013E+03	2.164116E-17	1.000386E-18
4.903647E+03	2.177713E-17	1.006452E-18
4.913281E+03	2.192338E-17	1.012989E-18
4.922914E+03	2.207971E-17	1.019988E-18
4.932548E+03	2.224640E-17	1.027461E-18
4.942182E+03	2.242279E-17	1.035377E-18
4.951816E+03	2.260869E-17	1.043727E-18
4.961450E+03	2.280442E-17	1.052525E-18
4.971084E+03	2.300957E-17	1.061752E-18
4.980718E+03	2.322371E-17	1.071389E-18
4.990352E+03	2.344692E-17	1.081437E-18
4.999986E+03	2.367925E-17	1.091900E-18
5.009619E+03	2.391997E-17	1.102744E-18
5.019253E+03	2.416908E-17	1.113968E-18
5.028887E+03	2.442654E-17	1.125569E-18
5.038521E+03	2.469147E-17	1.137507E-18
5.048155E+03	2.496396E-17	1.149786E-18
5.057789E+03	2.524321E-17	1.162368E-18
5.067423E+03	2.552861E-17	1.175226E-18
5.077057E+03	2.581945E-17	1.188327E-18
5.086691E+03	2.611490E-17	1.201631E-18
5.096324E+03	2.641427E-17	1.215107E-18
5.105958E+03	2.671625E-17	1.228695E-18
5.115592E+03	2.701969E-17	1.242341E-18
5.125226E+03	2.732330E-17	1.255986E-18
5.134860E+03	2.762600E-17	1.269580E-18
5.144494E+03	2.792606E-17	1.283044E-18
5.154128E+03	2.822191E-17	1.296307E-18
5.163762E+03	2.851195E-17	1.309293E-18
5.173395E+03	2.879478E-17	1.321939E-18
5.183029E+03	2.906810E-17	1.334141E-18
5.192663E+03	2.933078E-17	1.345845E-18
5.202297E+03	2.958076E-17	1.356959E-18
5.211931E+03	2.981635E-17	1.367404E-18
5.221565E+03	3.003588E-17	1.377106E-18
5.231199E+03	3.023772E-17	1.385989E-18
5.240833E+03	3.042006E-17	1.393971E-18
5.250467E+03	3.058207E-17	1.401016E-18
5.260100E+03	3.072183E-17	1.407035E-18
5.269734E+03	3.083816E-17	1.411975E-18
5.279368E+03	3.093063E-17	1.415819E-18
5.289002E+03	3.099745E-17	1.418484E-18
5.298636E+03	3.103853E-17	1.419968E-18
5.308270E+03	3.105338E-17	1.420248E-18
5.317904E+03	3.104138E-17	1.419298E-18
5.327538E+03	3.100245E-17	1.417116E-18
5.337171E+03	3.093703E-17	1.413722E-18
5.346805E+03	3.084519E-17	1.409120E-18
5.356439E+03	3.072811E-17	1.403365E-18
5.366073E+03	3.058597E-17	1.396468E-18
5.375707E+03	3.042004E-17	1.388485E-18
5.385341E+03	3.023148E-17	1.379472E-18
5.394975E+03	3.002157E-17	1.369489E-18
5.404609E+03	2.979175E-17	1.358600E-18
5.414243E+03	2.954355E-17	1.346878E-18
5.423876E+03	2.927888E-17	1.334410E-18
5.433510E+03	2.899914E-17	1.321260E-18
5.443144E+03	2.870635E-17	1.307521E-18
5.452778E+03	2.840198E-17	1.293261E-18
5.462412E+03	2.808783E-17	1.278562E-18
5.472046E+03	2.776596E-17	1.263519E-18
5.481680E+03	2.743785E-17	1.248198E-18
5.491314E+03	2.710527E-17	1.232682E-18
5.500947E+03	2.677022E-17	1.217060E-18
5.510581E+03	2.643412E-17	1.201399E-18
5.520215E+03	2.609863E-17	1.185772E-18
5.529849E+03	2.576537E-17	1.170255E-18
5.539483E+03	2.543611E-17	1.154927E-18
5.549117E+03	2.511211E-17	1.139845E-18
5.558751E+03	2.479450E-17	1.125061E-18
5.568385E+03	2.448510E-17	1.110657E-18
5.578019E+03	2.418487E-17	1.096676E-18
5.587652E+03	2.389469E-17	1.083158E-18
5.597286E+03	2.361580E-17	1.070157E-18
5.606920E+03	2.334904E-17	1.057713E-18
5.616554E+03	2.309516E-17	1.045859E-18
5.626188E+03	2.285456E-17	1.034612E-18
5.635822E+03	2.262774E-17	1.023993E-18
5.645456E+03	2.241531E-17	1.014031E-18
5.655090E+03	2.221735E-17	1.004728E-18
5.664724E+03	2.203404E-17	9.960919E-19
5.674357E+03	2.186570E-17	9.881365E-19
5.683991E+03	2.171193E-17	9.808423E-19
5.693625E+03	2.157289E-17	9.742164E-19
5.703259E+03	2.144820E-17	9.682410E-19
5.712893E+03	2.133804E-17	9.629236E-19
5.722527E+03	2.124144E-17	9.582196E-19
5.732161E+03	2.115838E-17	9.541276E-19
5.741795E+03	2.108809E-17	9.506120E-19
5.751428E+03	2.102993E-17	9.476437E-19
5.761062E+03	2.098316E-17	9.451885E-19
5.770696E+03	2.094696E-17	9.432089E-19
5.780330E+03	2.092026E-17	9.416566E-19
5.789964E+03	2.090215E-17	9.404896E-19
5.799598E+03	2.089190E-17	9.396753E-19
5.809232E+03	2.088821E-17	9.391542E-19
5.818866E+03	2.089041E-17	9.388960E-19
5.828500E+03	2.089767E-17	9.388633E-19
5.838133E+03	2.090886E-17	9.390053E-19
5.847767E+03	2.092375E-17	9.393109E-19
5.857401E+03	2.094140E-17	9.397383E-19
5.867035E+03	2.096141E-17	9.402690E-19
5.876669E+03	2.098330E-17	9.408814E-19
5.886303E+03	2.100712E-17	9.415776E-19
5.895937E+03	2.103242E-17	9.423376E-19
5.905571E+03	2.105930E-17	9.431653E-19
5.915204E+03	2.108774E-17	9.440605E-19
5.924838E+03	2.111763E-17	9.450175E-19
5.934472E+03	2.114935E-17	9.460532E-19
5.944106E+03	2.118271E-17	9.471590E-19
5.953740E+03	2.121797E-17	9.483468E-19
5.963374E+03	2.125581E-17	9.496470E-19
5.973008E+03	2.129673E-17	9.510809E-19
5.982642E+03	2.134198E-17	9.527053E-19
5.992276E+03	2.139200E-17	9.545383E-19
6.001909E+03	2.144774E-17	9.566230E-19
6.011543E+03	2.150928E-17	9.589622E-19
6.021177E+03	2.157746E-17	9.615932E-19
6.030811E+03	2.165242E-17	9.645211E-19
6.040445E+03	2.173420E-17	9.677484E-19
6.050079E+03	2.182344E-17	9.713026E-19
6.059713E+03	2.191965E-17	9.751611E-19
6.069347E+03	2.202290E-17	9.793269E-19
6.078981E+03	2.213342E-17	9.838103E-19
6.088614E+03	2.225078E-17	9.885908E-19
6.098248E+03	2.237465E-17	9.936541E-19
6.107882E+03	2.250493E-17	9.989945E-19
6.117516E+03	2.264142E-17	1.004604E-18
6.127150E+03	2.278324E-17	1.010441E-18
6.136784E+03	2.293030E-17	1.016504E-18
6.146418E+03	2.308205E-17	1.022766E-18
6.156052E+03	2.323761E-17	1.029189E-18
6.165685E+03	2.339628E-17	1.035741E-18
6.175319E+03	2.355754E-17	1.042399E-18
6.184953E+03	2.372030E-17	1.049114E-18
6.194587E+03	2.388344E-17	1.055838E-18
6.204221E+03	2.404622E-17	1.062536E-18
6.213855E+03	2.420736E-17	1.069153E-18
6.223489E+03	2.436574E-17	1.075640E-18
6.233123E+03	2.451970E-17	1.081922E-18
6.242757E+03	2.466825E-17	1.087957E-18
6.252390E+03	2.481012E-17	1.093689E-18
6.262024E+03	2.494345E-17	1.099036E-18
6.271658E+03	2.506742E-17	1.103964E-18
6.281292E+03	2.518069E-17	1.108413E-18
6.290926E+03	2.528221E-17	1.112337E-18
6.300560E+03	2.537072E-17	1.115682E-18
6.310194E+03	2.544526E-17	1.118408E-18
6.319828E+03	2.550499E-17	1.120477E-18
6.329461E+03	2.554915E-17	1.121858E-18
6.339095E+03	2.557652E-17	1.122497E-18
6.348729E+03	2.558682E-17	1.122384E-18
6.358363E+03	2.557926E-17	1.121485E-18
6.367997E+03	2.555314E-17	1.119771E-18
6.377631E+03	2.550779E-17	1.117214E-18
6.387265E+03	2.544290E-17	1.113800E-18
6.396899E+03	2.535788E-17	1.109507E-18
6.406533E+03	2.525222E-17	1.104312E-18
6.416166E+03	2.512575E-17	1.098210E-18
6.425800E+03	2.497755E-17	1.091163E-18
6.435434E+03	2.480795E-17	1.083185E-18
6.445068E+03	2.461660E-17	1.074264E-18
6.454702E+03	2.440366E-17	1.064408E-18
6.464336E+03	2.416978E-17	1.053647E-18
6.473970E+03	2.391538E-17	1.042000E-18
6.483604E+03	2.364168E-17	1.029522E-18
6.493237E+03	2.334942E-17	1.016247E-18
6.502871E+03	2.304068E-17	1.002267E-18
6.512505E+03	2.271729E-17	9.876628E-19
6.522139E+03	2.238101E-17	9.725114E-19
6.531773E+03	2.203379E-17	9.568993E-19
6.541407E+03	2.167874E-17	9.409615E-19
6.551041E+03	2.131749E-17	9.247701E-19
6.560675E+03	2.095271E-17	9.084409E-19
6.570309E+03	2.058702E-17	8.920882E-19
6.579942E+03	2.022246E-17	8.758003E-19
6.589576E+03	1.986121E-17	8.596715E-19
6.599210E+03	1.950528E-17	8.437889E-19
6.608844E+03	1.915650E-17	8.282309E-19
6.618478E+03	1.881671E-17	8.130772E-19
6.628112E+03	1.848689E-17	7.983689E-19
6.637746E+03	1.816847E-17	7.841672E-19
6.647380E+03	1.786264E-17	7.705232E-19
6.657014E+03	1.756979E-17	7.574525E-19
6.666647E+03	1.729096E-17	7.449985E-19
6.676281E+03	1.702638E-17	7.331709E-19
6.685915E+03	1.677614E-17	7.219728E-19
6.695549E+03	1.654083E-17	7.114276E-19
6.705183E+03	1.632030E-17	7.015280E-19
6.714817E+03	1.611432E-17	6.922637E-19
6.724451E+03	1.592317E-17	6.836455E-19
6.734085E+03	1.574650E-17	6.756567E-19
6.743718E+03	1.558391E-17	6.682793E-19
6.753352E+03	1.543553E-17	6.615184E-19
6.762986E+03	1.530092E-17	6.553538E-19
6.772620E+03	1.517981E-17	6.497725E-19
6.782254E+03	1.507174E-17	6.447541E-19
6.791888E+03	1.497681E-17	6.403021E-19
6.801522E+03	1.489457E-17	6.363960E-19
6.811156E+03	1.482477E-17	6.330245E-19
6.820790E+03	1.476720E-17	6.301769E-19
6.830423E+03	1.472161E-17	6.278426E-19
6.840057E+03	1.468781E-17	6.260119E-19
6.849691E+03	1.466579E-17	6.246839E-19
6.859325E+03	1.465499E-17	6.238333E-19
6.868959E+03	1.465539E-17	6.234586E-19
6.878593E+03	1.466696E-17	6.235581E-19
6.888227E+03	1.468931E-17	6.241134E-19
6.897861E+03	1.472217E-17	6.251130E-19
6.907494E+03	1.476526E-17	6.265441E-19
6.917128E+03	1.481828E-17	6.283924E-19
6.926762E+03	1.488104E-17	6.306499E-19
6.936396E+03	1.495275E-17	6.332823E-19
6.946030E+03	1.503355E-17	6.362940E-19
6.955664E+03	1.512235E-17	6.396389E-19
6.965298E+03	1.521900E-17	6.433096E-19
6.974932E+03	1.532270E-17	6.472723E-19
6.984566E+03	1.543307E-17	6.515093E-19
6.994199E+03	1.554923E-17	6.559838E-19
7.003833E+03	1.567073E-17	6.606762E-19
7.013467E+03	1.579690E-17	6.655573E-19
7.023101E+03	1.592682E-17	6.705885E-19
7.032735E+03	1.606002E-17	6.757493E-19
7.042369E+03	1.619578E-17	6.810099E-19
7.052003E+03	1.633320E-17	6.863317E-19
7.061637E+03	1.647202E-17	6.917032E-19
7.071271E+03	1.661132E-17	6.970865E-19
7.080904E+03	1.675043E-17	7.024529E-19
7.090538E+03	1.688888E-17	7.077832E-19
7.100172E+03	1.702580E-17	7.130407E-19
7.109806E+03	1.716077E-17	7.182077E-19
7.119440E+03	1.729290E-17	7.232479E-19
7.129074E+03	1.742159E-17	7.281354E-19
7.138708E+03	1.754644E-17	7.328549E-19
7.148342E+03	1.766688E-17	7.373825E-19
7.157975E+03	1.778190E-17	7.416763E-19
7.167609E+03	1.789121E-17	7.457244E-19
7.177243E+03	1.799433E-17	7.495080E-19
7.186877E+03	1.809083E-17	7.530097E-19
7.196511E+03	1.818060E-17	7.562249E-19
7.206145E+03	1.826307E-17	7.591311E-19
7.215779E+03	1.833801E-17	7.617187E-19
7.225413E+03	1.840523E-17	7.639814E-19
7.235047E+03	1.846462E-17	7.659147E-19
7.244680E+03	1.851591E-17	7.675080E-19
7.254314E+03	1.855961E-17	7.687837E-19
7.263948E+03	1.859509E-17	7.697161E-19
7.273582E+03	1.862304E-17	7.703344E-19
7.283216E+03	1.864343E-17	7.706379E-19
7.292850E+03	1.865680E-17	7.706500E-19
7.302484E+03	1.866297E-17	7.703642E-19
7.312118E+03	1.866257E-17	7.698061E-19
7.321751E+03	1.865569E-17	7.689808E-19
7.331385E+03	1.864321E-17	7.679250E-19
7.341019E+03	1.862497E-17	7.666327E-19
7.350653E+03	1.860131E-17	7.651180E-19
7.360287E+03	1.857278E-17	7.634044E-19
7.369921E+03	1.853940E-17	7.614931E-19
7.379555E+03	1.850169E-17	7.594062E-19
7.389189E+03	1.845966E-17	7.571441E-19
7.398823E+03	1.841380E-17	7.547272E-19
7.408456E+03	1.836410E-17	7.521560E-19
7.418090E+03	1.831081E-17	7.494407E-19
7.427724E+03	1.825422E-17	7.465933E-19
7.437358E+03	1.819480E-17	7.436341E-19
7.446992E+03	1.813257E-17	7.405633E-19
7.456626E+03	1.806801E-17	7.374017E-19
7.466260E+03	1.800107E-17	7.341470E-19
7.475894E+03	1.793194E-17	7.308068E-19
