#wls	flux	fluxerr
1.541421E+03	2.326400E-20	0.000000E+00
1.579957E+03	2.401469E-20	0.000000E+00
1.618492E+03	2.468241E-20	0.000000E+00
1.657028E+03	2.526067E-20	0.000000E+00
1.695564E+03	2.573446E-20	0.000000E+00
1.734099E+03	2.606665E-20	0.000000E+00
1.772635E+03	2.622036E-20	0.000000E+00
1.811170E+03	2.614406E-20	0.000000E+00
1.849706E+03	2.579790E-20	0.000000E+00
1.888241E+03	2.515374E-20	0.000000E+00
1.926777E+03	2.424867E-20	0.000000E+00
1.965312E+03	2.319356E-20	0.000000E+00
2.003848E+03	2.221816E-20	0.000000E+00
2.042383E+03	2.162782E-20	0.000000E+00
2.080919E+03	2.167580E-20	0.000000E+00
2.119454E+03	2.248603E-20	0.000000E+00
2.157990E+03	2.401032E-20	0.000000E+00
2.196525E+03	2.607899E-20	0.000000E+00
2.235061E+03	2.849645E-20	0.000000E+00
2.273597E+03	3.107160E-20	0.000000E+00
2.312132E+03	3.367673E-20	0.000000E+00
2.350668E+03	3.623119E-20	0.000000E+00
2.389203E+03	3.869426E-20	0.000000E+00
2.427739E+03	4.105114E-20	0.000000E+00
2.466274E+03	4.330165E-20	0.000000E+00
2.504810E+03	4.545261E-20	0.000000E+00
2.543345E+03	4.751339E-20	0.000000E+00
2.581881E+03	4.949351E-20	0.000000E+00
2.620416E+03	5.139330E-20	0.000000E+00
2.658952E+03	5.323590E-20	0.000000E+00
2.697487E+03	5.501887E-20	0.000000E+00
2.736023E+03	5.674619E-20	0.000000E+00
2.774558E+03	5.842050E-20	0.000000E+00
2.813094E+03	6.004326E-20	0.000000E+00
2.851630E+03	6.161498E-20	0.000000E+00
2.890165E+03	6.313531E-20	0.000000E+00
2.899799E+03	6.350817E-20	0.000000E+00
2.909433E+03	6.387712E-20	0.000000E+00
2.919067E+03	6.424215E-20	0.000000E+00
2.928701E+03	6.460446E-20	0.000000E+00
2.938334E+03	6.496840E-20	0.000000E+00
2.947968E+03	6.533848E-20	0.000000E+00
2.957602E+03	6.572320E-20	0.000000E+00
2.967236E+03	6.610131E-20	0.000000E+00
2.976870E+03	6.648150E-20	0.000000E+00
2.986504E+03	6.687269E-20	0.000000E+00
2.996138E+03	6.725373E-20	0.000000E+00
3.005772E+03	6.764387E-20	0.000000E+00
3.015406E+03	6.803214E-20	0.000000E+00
3.025039E+03	6.841774E-20	0.000000E+00
3.034673E+03	6.878981E-20	0.000000E+00
3.044307E+03	6.916798E-20	0.000000E+00
3.053941E+03	6.954221E-20	0.000000E+00
3.063575E+03	6.991187E-20	0.000000E+00
3.073209E+03	7.027638E-20	0.000000E+00
3.082843E+03	7.063520E-20	0.000000E+00
3.092477E+03	7.099850E-20	0.000000E+00
3.102110E+03	7.134486E-20	0.000000E+00
3.111744E+03	7.168442E-20	0.000000E+00
3.121378E+03	7.201679E-20	0.000000E+00
3.131012E+03	7.235241E-20	0.000000E+00
3.140646E+03	7.266974E-20	0.000000E+00
3.150280E+03	7.299006E-20	0.000000E+00
3.159914E+03	7.329171E-20	0.000000E+00
3.169548E+03	7.359599E-20	0.000000E+00
3.179182E+03	7.389221E-20	0.000000E+00
3.188815E+03	7.418018E-20	0.000000E+00
3.198449E+03	7.444907E-20	0.000000E+00
3.208083E+03	7.472047E-20	0.000000E+00
3.217717E+03	7.498368E-20	0.000000E+00
3.227351E+03	7.523852E-20	0.000000E+00
3.236985E+03	7.548520E-20	0.000000E+00
3.246619E+03	7.572358E-20	0.000000E+00
3.256253E+03	7.596487E-20	0.000000E+00
3.265887E+03	7.618711E-20	0.000000E+00
3.275520E+03	7.640135E-20	0.000000E+00
3.285154E+03	7.660771E-20	0.000000E+00
3.294788E+03	7.681729E-20	0.000000E+00
3.304422E+03	7.700814E-20	0.000000E+00
3.314056E+03	7.720244E-20	0.000000E+00
3.323690E+03	7.737825E-20	0.000000E+00
3.333324E+03	7.755773E-20	0.000000E+00
3.342958E+03	7.771898E-20	0.000000E+00
3.352591E+03	7.788422E-20	0.000000E+00
3.362225E+03	7.804241E-20	0.000000E+00
3.371859E+03	7.818274E-20	0.000000E+00
3.381493E+03	7.832739E-20	0.000000E+00
3.391127E+03	7.846549E-20	0.000000E+00
3.400761E+03	7.859709E-20	0.000000E+00
3.410395E+03	7.872242E-20	0.000000E+00
3.420029E+03	7.884152E-20	0.000000E+00
3.429663E+03	7.895452E-20	0.000000E+00
3.439296E+03	7.906162E-20	0.000000E+00
3.448930E+03	7.916288E-20	0.000000E+00
3.458564E+03	7.925840E-20	0.000000E+00
3.468198E+03	7.935932E-20	0.000000E+00
3.477832E+03	7.944380E-20	0.000000E+00
3.487466E+03	7.952295E-20	0.000000E+00
3.497100E+03	7.959679E-20	0.000000E+00
3.506734E+03	7.967648E-20	0.000000E+00
3.516367E+03	7.974014E-20	0.000000E+00
3.526001E+03	7.979883E-20	0.000000E+00
3.535635E+03	7.986367E-20	0.000000E+00
3.545269E+03	7.991275E-20	0.000000E+00
3.554903E+03	7.996815E-20	0.000000E+00
3.564537E+03	8.000805E-20	0.000000E+00
3.574171E+03	8.005434E-20	0.000000E+00
3.583805E+03	8.009617E-20	0.000000E+00
3.593439E+03	8.012285E-20	0.000000E+00
3.603072E+03	8.015611E-20	0.000000E+00
3.612706E+03	8.018519E-20	0.000000E+00
3.622340E+03	8.019937E-20	0.000000E+00
3.631974E+03	8.022026E-20	0.000000E+00
3.641608E+03	8.023723E-20	0.000000E+00
3.651242E+03	8.023948E-20	0.000000E+00
3.660876E+03	8.024863E-20	0.000000E+00
3.670510E+03	8.025399E-20	0.000000E+00
3.680144E+03	8.025556E-20	0.000000E+00
3.689777E+03	8.025343E-20	0.000000E+00
3.699411E+03	8.024775E-20	0.000000E+00
3.709045E+03	8.022778E-20	0.000000E+00
3.718679E+03	8.021491E-20	0.000000E+00
3.728313E+03	8.019856E-20	0.000000E+00
3.737947E+03	8.017879E-20	0.000000E+00
3.747581E+03	8.015560E-20	0.000000E+00
3.757215E+03	8.012904E-20	0.000000E+00
3.766848E+03	8.009916E-20	0.000000E+00
3.776482E+03	8.006596E-20	0.000000E+00
3.786116E+03	8.002956E-20	0.000000E+00
3.795750E+03	7.999001E-20	0.000000E+00
3.805384E+03	7.994721E-20	0.000000E+00
3.815018E+03	7.990127E-20	0.000000E+00
3.824652E+03	7.985234E-20	0.000000E+00
3.834286E+03	7.980028E-20	0.000000E+00
3.843920E+03	7.973489E-20	0.000000E+00
3.853553E+03	7.967686E-20	0.000000E+00
3.863187E+03	7.961591E-20	0.000000E+00
3.872821E+03	7.955200E-20	0.000000E+00
3.882455E+03	7.948520E-20	0.000000E+00
3.892089E+03	7.941554E-20	0.000000E+00
3.901723E+03	7.934306E-20	0.000000E+00
3.911357E+03	7.926779E-20	0.000000E+00
3.920991E+03	7.918976E-20	0.000000E+00
3.930624E+03	7.910900E-20	0.000000E+00
3.940258E+03	7.902555E-20	0.000000E+00
3.949892E+03	7.893943E-20	0.000000E+00
3.959526E+03	7.884075E-20	0.000000E+00
3.969160E+03	7.874942E-20	0.000000E+00
3.978794E+03	7.865554E-20	0.000000E+00
3.988428E+03	7.855913E-20	0.000000E+00
3.998062E+03	7.846022E-20	0.000000E+00
4.007696E+03	7.834904E-20	0.000000E+00
4.017329E+03	7.824525E-20	0.000000E+00
4.026963E+03	7.813907E-20	0.000000E+00
4.036597E+03	7.802081E-20	0.000000E+00
4.046231E+03	7.790997E-20	0.000000E+00
4.055865E+03	7.779683E-20	0.000000E+00
4.065499E+03	7.767180E-20	0.000000E+00
4.075133E+03	7.755421E-20	0.000000E+00
4.084767E+03	7.742487E-20	0.000000E+00
4.094400E+03	7.730296E-20	0.000000E+00
4.104034E+03	7.716945E-20	0.000000E+00
4.113668E+03	7.703392E-20	0.000000E+00
4.123302E+03	7.690584E-20	0.000000E+00
4.132936E+03	7.676635E-20	0.000000E+00
4.142570E+03	7.662498E-20	0.000000E+00
4.152204E+03	7.649106E-20	0.000000E+00
4.161838E+03	7.634595E-20	0.000000E+00
4.171472E+03	7.619906E-20	0.000000E+00
4.181105E+03	7.605043E-20	0.000000E+00
4.190739E+03	7.590009E-20	0.000000E+00
4.200373E+03	7.574808E-20	0.000000E+00
4.210007E+03	7.559444E-20	0.000000E+00
4.219641E+03	7.543922E-20	0.000000E+00
4.229275E+03	7.528245E-20	0.000000E+00
4.238909E+03	7.512418E-20	0.000000E+00
4.248543E+03	7.495544E-20	0.000000E+00
4.258177E+03	7.479431E-20	0.000000E+00
4.267810E+03	7.463180E-20	0.000000E+00
4.277444E+03	7.445905E-20	0.000000E+00
4.287078E+03	7.429393E-20	0.000000E+00
4.296712E+03	7.411872E-20	0.000000E+00
4.306346E+03	7.395116E-20	0.000000E+00
4.315980E+03	7.377365E-20	0.000000E+00
4.325614E+03	7.359508E-20	0.000000E+00
4.335248E+03	7.342418E-20	0.000000E+00
4.344881E+03	7.324357E-20	0.000000E+00
4.354515E+03	7.306201E-20	0.000000E+00
4.364149E+03	7.287955E-20	0.000000E+00
4.373783E+03	7.269623E-20	0.000000E+00
4.383417E+03	7.251208E-20	0.000000E+00
4.393051E+03	7.232715E-20	0.000000E+00
4.402685E+03	7.213302E-20	0.000000E+00
4.412319E+03	7.194668E-20	0.000000E+00
4.421953E+03	7.175967E-20	0.000000E+00
4.431586E+03	7.156369E-20	0.000000E+00
4.441220E+03	7.137551E-20	0.000000E+00
4.450854E+03	7.117849E-20	0.000000E+00
4.460488E+03	7.098105E-20	0.000000E+00
4.470122E+03	7.079141E-20	0.000000E+00
4.479756E+03	7.059316E-20	0.000000E+00
4.489390E+03	7.039457E-20	0.000000E+00
4.499024E+03	7.019570E-20	0.000000E+00
4.508657E+03	6.999656E-20	0.000000E+00
4.518291E+03	6.979721E-20	0.000000E+00
4.527925E+03	6.959767E-20	0.000000E+00
4.537559E+03	6.938999E-20	0.000000E+00
4.547193E+03	6.919022E-20	0.000000E+00
4.556827E+03	6.898244E-20	0.000000E+00
4.566461E+03	6.878256E-20	0.000000E+00
4.576095E+03	6.857480E-20	0.000000E+00
4.585729E+03	6.836713E-20	0.000000E+00
4.595362E+03	6.816736E-20	0.000000E+00
4.604996E+03	6.795990E-20	0.000000E+00
4.614630E+03	6.775261E-20	0.000000E+00
4.624264E+03	6.754552E-20	0.000000E+00
4.633898E+03	6.733099E-20	0.000000E+00
4.643532E+03	6.712441E-20	0.000000E+00
4.653166E+03	6.691812E-20	0.000000E+00
4.662800E+03	6.670456E-20	0.000000E+00
4.672434E+03	6.649894E-20	0.000000E+00
4.682067E+03	6.628617E-20	0.000000E+00
4.691701E+03	6.608133E-20	0.000000E+00
4.701335E+03	6.586944E-20	0.000000E+00
4.710969E+03	6.565806E-20	0.000000E+00
4.720603E+03	6.544719E-20	0.000000E+00
4.730237E+03	6.523686E-20	0.000000E+00
4.739871E+03	6.502709E-20	0.000000E+00
4.749505E+03	6.481789E-20	0.000000E+00
4.759138E+03	6.460204E-20	0.000000E+00
4.768772E+03	6.439410E-20	0.000000E+00
4.778406E+03	6.417959E-20	0.000000E+00
4.788040E+03	6.397296E-20	0.000000E+00
4.797674E+03	6.375988E-20	0.000000E+00
4.807308E+03	6.354753E-20	0.000000E+00
4.816942E+03	6.333595E-20	0.000000E+00
4.826576E+03	6.312516E-20	0.000000E+00
4.836210E+03	6.291515E-20	0.000000E+00
4.845843E+03	6.270594E-20	0.000000E+00
4.855477E+03	6.249755E-20	0.000000E+00
4.865111E+03	6.228309E-20	0.000000E+00
4.874745E+03	6.207640E-20	0.000000E+00
4.884379E+03	6.186371E-20	0.000000E+00
4.894013E+03	6.165876E-20	0.000000E+00
4.903647E+03	6.144790E-20	0.000000E+00
4.913281E+03	6.123797E-20	0.000000E+00
4.922914E+03	6.102899E-20	0.000000E+00
4.932548E+03	6.082097E-20	0.000000E+00
4.942182E+03	6.061391E-20	0.000000E+00
4.951816E+03	6.040782E-20	0.000000E+00
4.961450E+03	6.019608E-20	0.000000E+00
4.971084E+03	5.999199E-20	0.000000E+00
4.980718E+03	5.978230E-20	0.000000E+00
4.990352E+03	5.958022E-20	0.000000E+00
4.999986E+03	5.937261E-20	0.000000E+00
5.009619E+03	5.916605E-20	0.000000E+00
5.019253E+03	5.896056E-20	0.000000E+00
5.028887E+03	5.875612E-20	0.000000E+00
5.038521E+03	5.855276E-20	0.000000E+00
5.048155E+03	5.835047E-20	0.000000E+00
5.057789E+03	5.814924E-20	0.000000E+00
5.067423E+03	5.794274E-20	0.000000E+00
5.077057E+03	5.774368E-20	0.000000E+00
5.086691E+03	5.753941E-20	0.000000E+00
5.096324E+03	5.734252E-20	0.000000E+00
5.105958E+03	5.714046E-20	0.000000E+00
5.115592E+03	5.693954E-20	0.000000E+00
5.125226E+03	5.673973E-20	0.000000E+00
5.134860E+03	5.654103E-20	0.000000E+00
5.144494E+03	5.634346E-20	0.000000E+00
5.154128E+03	5.614700E-20	0.000000E+00
5.163762E+03	5.594557E-20	0.000000E+00
5.173395E+03	5.575136E-20	0.000000E+00
5.183029E+03	5.555222E-20	0.000000E+00
5.192663E+03	5.536025E-20	0.000000E+00
5.202297E+03	5.516338E-20	0.000000E+00
5.211931E+03	5.496766E-20	0.000000E+00
5.221565E+03	5.477904E-20	0.000000E+00
5.231199E+03	5.458557E-20	0.000000E+00
5.240833E+03	5.439324E-20	0.000000E+00
5.250467E+03	5.420203E-20	0.000000E+00
5.260100E+03	5.400610E-20	0.000000E+00
5.269734E+03	5.381715E-20	0.000000E+00
5.279368E+03	5.362931E-20	0.000000E+00
5.289002E+03	5.343681E-20	0.000000E+00
5.298636E+03	5.325120E-20	0.000000E+00
5.308270E+03	5.306095E-20	0.000000E+00
5.317904E+03	5.287183E-20	0.000000E+00
5.327538E+03	5.268954E-20	0.000000E+00
5.337171E+03	5.250264E-20	0.000000E+00
5.346805E+03	5.231687E-20	0.000000E+00
5.356439E+03	5.213219E-20	0.000000E+00
5.366073E+03	5.194862E-20	0.000000E+00
5.375707E+03	5.176055E-20	0.000000E+00
5.385341E+03	5.157917E-20	0.000000E+00
5.394975E+03	5.139887E-20	0.000000E+00
5.404609E+03	5.121411E-20	0.000000E+00
5.414243E+03	5.103597E-20	0.000000E+00
5.423876E+03	5.085339E-20	0.000000E+00
5.433510E+03	5.067191E-20	0.000000E+00
5.443144E+03	5.049694E-20	0.000000E+00
5.452778E+03	5.031759E-20	0.000000E+00
5.462412E+03	5.013931E-20	0.000000E+00
5.472046E+03	4.996207E-20	0.000000E+00
5.481680E+03	4.978589E-20	0.000000E+00
5.491314E+03	4.961074E-20	0.000000E+00
5.500947E+03	4.943131E-20	0.000000E+00
5.510581E+03	4.925824E-20	0.000000E+00
5.520215E+03	4.908619E-20	0.000000E+00
5.529849E+03	4.890986E-20	0.000000E+00
5.539483E+03	4.873983E-20	0.000000E+00
5.549117E+03	4.856557E-20	0.000000E+00
5.558751E+03	4.839231E-20	0.000000E+00
5.568385E+03	4.822525E-20	0.000000E+00
5.578019E+03	4.805398E-20	0.000000E+00
5.587652E+03	4.788371E-20	0.000000E+00
5.597286E+03	4.771443E-20	0.000000E+00
5.606920E+03	4.754611E-20	0.000000E+00
5.616554E+03	4.737875E-20	0.000000E+00
5.626188E+03	4.721236E-20	0.000000E+00
5.635822E+03	4.704689E-20	0.000000E+00
5.645456E+03	4.687734E-20	0.000000E+00
5.655090E+03	4.671377E-20	0.000000E+00
5.664724E+03	4.655111E-20	0.000000E+00
5.674357E+03	4.638438E-20	0.000000E+00
5.683991E+03	4.622355E-20	0.000000E+00
5.693625E+03	4.605867E-20	0.000000E+00
5.703259E+03	4.589470E-20	0.000000E+00
5.712893E+03	4.573654E-20	0.000000E+00
5.722527E+03	4.557436E-20	0.000000E+00
5.732161E+03	4.541306E-20	0.000000E+00
5.741795E+03	4.525265E-20	0.000000E+00
5.751428E+03	4.509310E-20	0.000000E+00
5.761062E+03	4.493441E-20	0.000000E+00
5.770696E+03	4.477658E-20	0.000000E+00
5.780330E+03	4.461959E-20	0.000000E+00
5.789964E+03	4.446343E-20	0.000000E+00
5.799598E+03	4.430334E-20	0.000000E+00
5.809232E+03	4.414883E-20	0.000000E+00
5.818866E+03	4.399513E-20	0.000000E+00
5.828500E+03	4.383751E-20	0.000000E+00
5.838133E+03	4.368541E-20	0.000000E+00
5.847767E+03	4.352941E-20	0.000000E+00
5.857401E+03	4.337888E-20	0.000000E+00
5.867035E+03	4.322445E-20	0.000000E+00
5.876669E+03	4.307543E-20	0.000000E+00
5.886303E+03	4.292256E-20	0.000000E+00
5.895937E+03	4.277045E-20	0.000000E+00
5.905571E+03	4.261908E-20	0.000000E+00
5.915204E+03	4.246847E-20	0.000000E+00
5.924838E+03	4.231860E-20	0.000000E+00
5.934472E+03	4.216946E-20	0.000000E+00
5.944106E+03	4.202103E-20	0.000000E+00
5.953740E+03	4.187333E-20	0.000000E+00
5.963374E+03	4.172633E-20	0.000000E+00
5.973008E+03	4.158003E-20	0.000000E+00
5.982642E+03	4.143442E-20	0.000000E+00
5.992276E+03	4.128947E-20	0.000000E+00
6.001909E+03	4.114079E-20	0.000000E+00
6.011543E+03	4.099720E-20	0.000000E+00
6.021177E+03	4.085427E-20	0.000000E+00
6.030811E+03	4.070762E-20	0.000000E+00
6.040445E+03	4.056600E-20	0.000000E+00
6.050079E+03	4.042066E-20	0.000000E+00
6.059713E+03	4.028031E-20	0.000000E+00
6.069347E+03	4.013626E-20	0.000000E+00
6.078981E+03	3.999285E-20	0.000000E+00
6.088614E+03	3.985437E-20	0.000000E+00
6.098248E+03	3.971220E-20	0.000000E+00
6.107882E+03	3.957066E-20	0.000000E+00
6.117516E+03	3.943398E-20	0.000000E+00
6.127150E+03	3.929364E-20	0.000000E+00
6.136784E+03	3.915390E-20	0.000000E+00
6.146418E+03	3.901475E-20	0.000000E+00
6.156052E+03	3.887619E-20	0.000000E+00
6.165685E+03	3.873820E-20	0.000000E+00
6.175319E+03	3.860080E-20	0.000000E+00
6.184953E+03	3.846396E-20	0.000000E+00
6.194587E+03	3.832768E-20	0.000000E+00
6.204221E+03	3.819196E-20	0.000000E+00
6.213855E+03	3.805679E-20	0.000000E+00
6.223489E+03	3.791807E-20	0.000000E+00
6.233123E+03	3.778399E-20	0.000000E+00
6.242757E+03	3.765045E-20	0.000000E+00
6.252390E+03	3.751745E-20	0.000000E+00
6.262024E+03	3.738093E-20	0.000000E+00
6.271658E+03	3.724898E-20	0.000000E+00
6.281292E+03	3.711755E-20	0.000000E+00
6.290926E+03	3.698263E-20	0.000000E+00
6.300560E+03	3.685222E-20	0.000000E+00
6.310194E+03	3.671836E-20	0.000000E+00
6.319828E+03	3.658897E-20	0.000000E+00
6.329461E+03	3.645613E-20	0.000000E+00
6.339095E+03	3.632774E-20	0.000000E+00
6.348729E+03	3.619590E-20	0.000000E+00
6.358363E+03	3.606459E-20	0.000000E+00
6.367997E+03	3.593767E-20	0.000000E+00
6.377631E+03	3.580736E-20	0.000000E+00
6.387265E+03	3.567753E-20	0.000000E+00
6.396899E+03	3.555206E-20	0.000000E+00
6.406533E+03	3.542321E-20	0.000000E+00
6.416166E+03	3.529485E-20	0.000000E+00
6.425800E+03	3.516697E-20	0.000000E+00
6.435434E+03	3.503959E-20	0.000000E+00
6.445068E+03	3.491267E-20	0.000000E+00
6.454702E+03	3.479002E-20	0.000000E+00
6.464336E+03	3.466406E-20	0.000000E+00
6.473970E+03	3.453856E-20	0.000000E+00
6.483604E+03	3.441354E-20	0.000000E+00
6.493237E+03	3.428898E-20	0.000000E+00
6.502871E+03	3.416118E-20	0.000000E+00
6.512505E+03	3.403756E-20	0.000000E+00
6.522139E+03	3.391441E-20	0.000000E+00
6.531773E+03	3.379172E-20	0.000000E+00
6.541407E+03	3.366950E-20	0.000000E+00
6.551041E+03	3.354773E-20	0.000000E+00
6.560675E+03	3.342641E-20	0.000000E+00
6.570309E+03	3.330192E-20	0.000000E+00
6.579942E+03	3.318152E-20	0.000000E+00
6.589576E+03	3.306158E-20	0.000000E+00
6.599210E+03	3.293849E-20	0.000000E+00
6.608844E+03	3.281946E-20	0.000000E+00
6.618478E+03	3.270088E-20	0.000000E+00
6.628112E+03	3.257917E-20	0.000000E+00
6.637746E+03	3.246150E-20	0.000000E+00
6.647380E+03	3.234072E-20	0.000000E+00
6.657014E+03	3.222395E-20	0.000000E+00
6.666647E+03	3.210410E-20	0.000000E+00
6.676281E+03	3.198822E-20	0.000000E+00
6.685915E+03	3.186928E-20	0.000000E+00
6.695549E+03	3.175429E-20	0.000000E+00
6.705183E+03	3.163628E-20	0.000000E+00
6.714817E+03	3.151873E-20	0.000000E+00
6.724451E+03	3.140508E-20	0.000000E+00
6.734085E+03	3.128844E-20	0.000000E+00
6.743718E+03	3.117225E-20	0.000000E+00
6.753352E+03	3.105653E-20	0.000000E+00
6.762986E+03	3.094467E-20	0.000000E+00
6.772620E+03	3.082985E-20	0.000000E+00
6.782254E+03	3.071549E-20	0.000000E+00
6.791888E+03	3.060159E-20	0.000000E+00
6.801522E+03	3.048815E-20	0.000000E+00
6.811156E+03	3.037517E-20	0.000000E+00
6.820790E+03	3.026264E-20	0.000000E+00
6.830423E+03	3.015057E-20	0.000000E+00
6.840057E+03	3.003895E-20	0.000000E+00
6.849691E+03	2.992779E-20	0.000000E+00
6.859325E+03	2.981710E-20	0.000000E+00
6.868959E+03	2.970685E-20	0.000000E+00
6.878593E+03	2.959706E-20	0.000000E+00
6.888227E+03	2.948773E-20	0.000000E+00
6.897861E+03	2.937885E-20	0.000000E+00
6.907494E+03	2.927043E-20	0.000000E+00
6.917128E+03	2.915923E-20	0.000000E+00
6.926762E+03	2.905174E-20	0.000000E+00
6.936396E+03	2.894469E-20	0.000000E+00
6.946030E+03	2.883492E-20	0.000000E+00
6.955664E+03	2.872880E-20	0.000000E+00
6.965298E+03	2.862314E-20	0.000000E+00
6.974932E+03	2.851477E-20	0.000000E+00
6.984566E+03	2.841004E-20	0.000000E+00
6.994199E+03	2.830262E-20	0.000000E+00
7.003833E+03	2.819881E-20	0.000000E+00
7.013467E+03	2.809234E-20	0.000000E+00
7.023101E+03	2.798946E-20	0.000000E+00
7.032735E+03	2.788394E-20	0.000000E+00
7.042369E+03	2.778199E-20	0.000000E+00
7.052003E+03	2.767742E-20	0.000000E+00
7.061637E+03	2.757334E-20	0.000000E+00
7.071271E+03	2.746974E-20	0.000000E+00
7.080904E+03	2.736968E-20	0.000000E+00
7.090538E+03	2.726705E-20	0.000000E+00
7.100172E+03	2.716489E-20	0.000000E+00
7.109806E+03	2.706323E-20	0.000000E+00
7.119440E+03	2.696206E-20	0.000000E+00
7.129074E+03	2.686136E-20	0.000000E+00
7.138708E+03	2.676118E-20	0.000000E+00
7.148342E+03	2.666147E-20	0.000000E+00
7.157975E+03	2.656227E-20	0.000000E+00
7.167609E+03	2.646356E-20	0.000000E+00
7.177243E+03	2.636535E-20	0.000000E+00
7.186877E+03	2.626764E-20	0.000000E+00
7.196511E+03	2.617042E-20	0.000000E+00
7.206145E+03	2.607372E-20	0.000000E+00
7.215779E+03	2.597459E-20	0.000000E+00
7.225413E+03	2.587891E-20	0.000000E+00
7.235047E+03	2.578374E-20	0.000000E+00
7.244680E+03	2.568617E-20	0.000000E+00
7.254314E+03	2.559203E-20	0.000000E+00
7.263948E+03	2.549554E-20	0.000000E+00
7.273582E+03	2.540244E-20	0.000000E+00
7.283216E+03	2.530701E-20	0.000000E+00
7.292850E+03	2.521497E-20	0.000000E+00
7.302484E+03	2.512062E-20	0.000000E+00
7.312118E+03	2.502965E-20	0.000000E+00
7.321751E+03	2.493638E-20	0.000000E+00
7.331385E+03	2.484367E-20	0.000000E+00
7.341019E+03	2.475433E-20	0.000000E+00
7.350653E+03	2.466272E-20	0.000000E+00
7.360287E+03	2.457169E-20	0.000000E+00
7.369921E+03	2.448121E-20	0.000000E+00
7.379555E+03	2.439131E-20	0.000000E+00
7.389189E+03	2.430199E-20	0.000000E+00
7.398823E+03	2.421324E-20	0.000000E+00
7.408456E+03	2.412507E-20	0.000000E+00
7.418090E+03	2.403748E-20	0.000000E+00
7.427724E+03	2.395049E-20	0.000000E+00
7.437358E+03	2.386409E-20	0.000000E+00
7.446992E+03	2.377828E-20	0.000000E+00
7.456626E+03	2.369037E-20	0.000000E+00
7.466260E+03	2.360578E-20	0.000000E+00
7.475894E+03	2.352181E-20	0.000000E+00
