#wls	flux	fluxerr
1.541421E+03	7.115217E-22	0.000000E+00
1.579957E+03	7.272957E-22	0.000000E+00
1.618492E+03	7.401084E-22	0.000000E+00
1.657028E+03	7.498514E-22	0.000000E+00
1.695564E+03	7.558968E-22	0.000000E+00
1.734099E+03	7.576690E-22	0.000000E+00
1.772635E+03	7.538430E-22	0.000000E+00
1.811170E+03	7.435318E-22	0.000000E+00
1.849706E+03	7.254440E-22	0.000000E+00
1.888241E+03	6.994539E-22	0.000000E+00
1.926777E+03	6.663841E-22	0.000000E+00
1.965312E+03	6.299961E-22	0.000000E+00
2.003848E+03	5.964751E-22	0.000000E+00
2.042383E+03	5.735493E-22	0.000000E+00
2.080919E+03	5.679065E-22	0.000000E+00
2.119454E+03	5.819461E-22	0.000000E+00
2.157990E+03	6.137163E-22	0.000000E+00
2.196525E+03	6.583728E-22	0.000000E+00
2.235061E+03	7.103246E-22	0.000000E+00
2.273597E+03	7.647893E-22	0.000000E+00
2.312132E+03	8.184329E-22	0.000000E+00
2.350668E+03	8.693256E-22	0.000000E+00
2.389203E+03	9.165879E-22	0.000000E+00
2.427739E+03	9.599996E-22	0.000000E+00
2.466274E+03	9.996987E-22	0.000000E+00
2.504810E+03	1.035984E-21	0.000000E+00
2.543345E+03	1.069397E-21	0.000000E+00
2.581881E+03	1.099904E-21	0.000000E+00
2.620416E+03	1.127999E-21	0.000000E+00
2.658952E+03	1.154158E-21	0.000000E+00
2.697487E+03	1.178200E-21	0.000000E+00
2.736023E+03	1.200518E-21	0.000000E+00
2.774558E+03	1.221485E-21	0.000000E+00
2.813094E+03	1.240799E-21	0.000000E+00
2.851630E+03	1.259005E-21	0.000000E+00
2.890165E+03	1.275747E-21	0.000000E+00
2.899799E+03	1.279860E-21	0.000000E+00
2.909433E+03	1.283902E-21	0.000000E+00
2.919067E+03	1.287644E-21	0.000000E+00
2.928701E+03	1.291570E-21	0.000000E+00
2.938334E+03	1.295540E-21	0.000000E+00
2.947968E+03	1.299412E-21	0.000000E+00
2.957602E+03	1.303618E-21	0.000000E+00
2.967236E+03	1.307903E-21	0.000000E+00
2.976870E+03	1.312009E-21	0.000000E+00
2.986504E+03	1.316379E-21	0.000000E+00
2.996138E+03	1.320761E-21	0.000000E+00
3.005772E+03	1.324903E-21	0.000000E+00
3.015406E+03	1.329258E-21	0.000000E+00
3.025039E+03	1.333341E-21	0.000000E+00
3.034673E+03	1.337614E-21	0.000000E+00
3.044307E+03	1.341826E-21	0.000000E+00
3.053941E+03	1.345742E-21	0.000000E+00
3.063575E+03	1.349830E-21	0.000000E+00
3.073209E+03	1.353841E-21	0.000000E+00
3.082843E+03	1.357528E-21	0.000000E+00
3.092477E+03	1.361364E-21	0.000000E+00
3.102110E+03	1.365102E-21	0.000000E+00
3.111744E+03	1.368496E-21	0.000000E+00
3.121378E+03	1.372025E-21	0.000000E+00
3.131012E+03	1.375445E-21	0.000000E+00
3.140646E+03	1.378754E-21	0.000000E+00
3.150280E+03	1.381703E-21	0.000000E+00
3.159914E+03	1.384781E-21	0.000000E+00
3.169548E+03	1.387744E-21	0.000000E+00
3.179182E+03	1.390344E-21	0.000000E+00
3.188815E+03	1.393074E-21	0.000000E+00
3.198449E+03	1.395689E-21	0.000000E+00
3.208083E+03	1.397942E-21	0.000000E+00
3.217717E+03	1.400330E-21	0.000000E+00
3.227351E+03	1.402607E-21	0.000000E+00
3.236985E+03	1.404526E-21	0.000000E+00
3.246619E+03	1.406587E-21	0.000000E+00
3.256253E+03	1.408544E-21	0.000000E+00
3.265887E+03	1.410148E-21	0.000000E+00
3.275520E+03	1.411903E-21	0.000000E+00
3.285154E+03	1.413562E-21	0.000000E+00
3.294788E+03	1.414876E-21	0.000000E+00
3.304422E+03	1.416351E-21	0.000000E+00
3.314056E+03	1.417738E-21	0.000000E+00
3.323690E+03	1.419041E-21	0.000000E+00
3.333324E+03	1.420011E-21	0.000000E+00
3.342958E+03	1.421154E-21	0.000000E+00
3.352591E+03	1.422222E-21	0.000000E+00
3.362225E+03	1.422967E-21	0.000000E+00
3.371859E+03	1.423894E-21	0.000000E+00
3.381493E+03	1.424756E-21	0.000000E+00
3.391127E+03	1.425303E-21	0.000000E+00
3.400761E+03	1.426042E-21	0.000000E+00
3.410395E+03	1.426724E-21	0.000000E+00
3.420029E+03	1.427352E-21	0.000000E+00
3.429663E+03	1.427676E-21	0.000000E+00
3.439296E+03	1.428203E-21	0.000000E+00
3.448930E+03	1.428685E-21	0.000000E+00
3.458564E+03	1.428871E-21	0.000000E+00
3.468198E+03	1.429267E-21	0.000000E+00
3.477832E+03	1.429625E-21	0.000000E+00
3.487466E+03	1.429694E-21	0.000000E+00
3.497100E+03	1.429981E-21	0.000000E+00
3.506734E+03	1.430235E-21	0.000000E+00
3.516367E+03	1.430459E-21	0.000000E+00
3.526001E+03	1.430402E-21	0.000000E+00
3.535635E+03	1.430571E-21	0.000000E+00
3.545269E+03	1.430715E-21	0.000000E+00
3.554903E+03	1.430584E-21	0.000000E+00
3.564537E+03	1.430683E-21	0.000000E+00
3.574171E+03	1.430761E-21	0.000000E+00
3.583805E+03	1.430569E-21	0.000000E+00
3.593439E+03	1.430611E-21	0.000000E+00
3.603072E+03	1.430636E-21	0.000000E+00
3.612706E+03	1.430395E-21	0.000000E+00
3.622340E+03	1.430391E-21	0.000000E+00
3.631974E+03	1.430374E-21	0.000000E+00
3.641608E+03	1.430344E-21	0.000000E+00
3.651242E+03	1.430052E-21	0.000000E+00
3.660876E+03	1.430000E-21	0.000000E+00
3.670510E+03	1.429938E-21	0.000000E+00
3.680144E+03	1.429616E-21	0.000000E+00
3.689777E+03	1.429536E-21	0.000000E+00
3.699411E+03	1.429448E-21	0.000000E+00
3.709045E+03	1.429101E-21	0.000000E+00
3.718679E+03	1.428998E-21	0.000000E+00
3.728313E+03	1.428888E-21	0.000000E+00
3.737947E+03	1.428771E-21	0.000000E+00
3.747581E+03	1.428396E-21	0.000000E+00
3.757215E+03	1.428267E-21	0.000000E+00
3.766848E+03	1.428132E-21	0.000000E+00
3.776482E+03	1.427739E-21	0.000000E+00
3.786116E+03	1.427592E-21	0.000000E+00
3.795750E+03	1.427439E-21	0.000000E+00
3.805384E+03	1.427030E-21	0.000000E+00
3.815018E+03	1.426865E-21	0.000000E+00
3.824652E+03	1.426695E-21	0.000000E+00
3.834286E+03	1.426268E-21	0.000000E+00
3.843920E+03	1.426086E-21	0.000000E+00
3.853553E+03	1.425898E-21	0.000000E+00
3.863187E+03	1.425453E-21	0.000000E+00
3.872821E+03	1.425252E-21	0.000000E+00
3.882455E+03	1.425044E-21	0.000000E+00
3.892089E+03	1.424580E-21	0.000000E+00
3.901723E+03	1.424358E-21	0.000000E+00
3.911357E+03	1.424129E-21	0.000000E+00
3.920991E+03	1.423643E-21	0.000000E+00
3.930624E+03	1.423398E-21	0.000000E+00
3.940258E+03	1.423146E-21	0.000000E+00
3.949892E+03	1.422635E-21	0.000000E+00
3.959526E+03	1.422365E-21	0.000000E+00
3.969160E+03	1.422086E-21	0.000000E+00
3.978794E+03	1.421548E-21	0.000000E+00
3.988428E+03	1.421250E-21	0.000000E+00
3.998062E+03	1.420941E-21	0.000000E+00
4.007696E+03	1.420373E-21	0.000000E+00
4.017329E+03	1.420043E-21	0.000000E+00
4.026963E+03	1.419702E-21	0.000000E+00
4.036597E+03	1.419101E-21	0.000000E+00
4.046231E+03	1.418736E-21	0.000000E+00
4.055865E+03	1.418359E-21	0.000000E+00
4.065499E+03	1.417721E-21	0.000000E+00
4.075133E+03	1.417319E-21	0.000000E+00
4.084767E+03	1.416903E-21	0.000000E+00
4.094400E+03	1.416225E-21	0.000000E+00
4.104034E+03	1.415782E-21	0.000000E+00
4.113668E+03	1.415324E-21	0.000000E+00
4.123302E+03	1.414604E-21	0.000000E+00
4.132936E+03	1.414116E-21	0.000000E+00
4.142570E+03	1.413366E-21	0.000000E+00
4.152204E+03	1.412847E-21	0.000000E+00
4.161838E+03	1.412313E-21	0.000000E+00
4.171472E+03	1.411515E-21	0.000000E+00
4.181105E+03	1.410947E-21	0.000000E+00
4.190739E+03	1.410363E-21	0.000000E+00
4.200373E+03	1.409515E-21	0.000000E+00
4.210007E+03	1.408896E-21	0.000000E+00
4.219641E+03	1.408012E-21	0.000000E+00
4.229275E+03	1.407358E-21	0.000000E+00
4.238909E+03	1.406685E-21	0.000000E+00
4.248543E+03	1.405748E-21	0.000000E+00
4.258177E+03	1.405038E-21	0.000000E+00
4.267810E+03	1.404063E-21	0.000000E+00
4.277444E+03	1.403315E-21	0.000000E+00
4.287078E+03	1.402548E-21	0.000000E+00
4.296712E+03	1.401516E-21	0.000000E+00
4.306346E+03	1.400710E-21	0.000000E+00
4.315980E+03	1.399639E-21	0.000000E+00
4.325614E+03	1.398793E-21	0.000000E+00
4.335248E+03	1.397926E-21	0.000000E+00
4.344881E+03	1.396795E-21	0.000000E+00
4.354515E+03	1.395889E-21	0.000000E+00
4.364149E+03	1.394717E-21	0.000000E+00
4.373783E+03	1.393769E-21	0.000000E+00
4.383417E+03	1.392557E-21	0.000000E+00
4.393051E+03	1.391568E-21	0.000000E+00
4.402685E+03	1.390558E-21	0.000000E+00
4.412319E+03	1.389284E-21	0.000000E+00
4.421953E+03	1.388231E-21	0.000000E+00
4.431586E+03	1.386916E-21	0.000000E+00
4.441220E+03	1.385822E-21	0.000000E+00
4.450854E+03	1.384465E-21	0.000000E+00
4.460488E+03	1.383328E-21	0.000000E+00
4.470122E+03	1.382171E-21	0.000000E+00
4.479756E+03	1.380751E-21	0.000000E+00
4.489390E+03	1.379552E-21	0.000000E+00
4.499024E+03	1.378091E-21	0.000000E+00
4.508657E+03	1.376850E-21	0.000000E+00
4.518291E+03	1.375347E-21	0.000000E+00
4.527925E+03	1.374064E-21	0.000000E+00
4.537559E+03	1.372521E-21	0.000000E+00
4.547193E+03	1.371196E-21	0.000000E+00
4.556827E+03	1.369612E-21	0.000000E+00
4.566461E+03	1.368247E-21	0.000000E+00
4.576095E+03	1.366622E-21	0.000000E+00
4.585729E+03	1.365216E-21	0.000000E+00
4.595362E+03	1.363551E-21	0.000000E+00
4.604996E+03	1.362105E-21	0.000000E+00
4.614630E+03	1.360401E-21	0.000000E+00
4.624264E+03	1.358914E-21	0.000000E+00
4.633898E+03	1.357171E-21	0.000000E+00
4.643532E+03	1.355646E-21	0.000000E+00
4.653166E+03	1.353865E-21	0.000000E+00
4.662800E+03	1.352301E-21	0.000000E+00
4.672434E+03	1.350482E-21	0.000000E+00
4.682067E+03	1.348881E-21	0.000000E+00
4.691701E+03	1.347025E-21	0.000000E+00
4.701335E+03	1.345386E-21	0.000000E+00
4.710969E+03	1.343495E-21	0.000000E+00
4.720603E+03	1.341820E-21	0.000000E+00
4.730237E+03	1.339893E-21	0.000000E+00
4.739871E+03	1.338182E-21	0.000000E+00
4.749505E+03	1.336221E-21	0.000000E+00
4.759138E+03	1.334476E-21	0.000000E+00
4.768772E+03	1.332481E-21	0.000000E+00
4.778406E+03	1.330470E-21	0.000000E+00
4.788040E+03	1.328675E-21	0.000000E+00
4.797674E+03	1.326632E-21	0.000000E+00
4.807308E+03	1.324804E-21	0.000000E+00
4.816942E+03	1.322730E-21	0.000000E+00
4.826576E+03	1.320871E-21	0.000000E+00
4.836210E+03	1.318766E-21	0.000000E+00
4.845843E+03	1.316648E-21	0.000000E+00
4.855477E+03	1.314743E-21	0.000000E+00
4.865111E+03	1.312596E-21	0.000000E+00
4.874745E+03	1.310663E-21	0.000000E+00
4.884379E+03	1.308488E-21	0.000000E+00
4.894013E+03	1.306527E-21	0.000000E+00
4.903647E+03	1.304326E-21	0.000000E+00
4.913281E+03	1.302112E-21	0.000000E+00
4.922914E+03	1.300111E-21	0.000000E+00
4.932548E+03	1.297872E-21	0.000000E+00
4.942182E+03	1.295621E-21	0.000000E+00
4.951816E+03	1.293584E-21	0.000000E+00
4.961450E+03	1.291309E-21	0.000000E+00
4.971084E+03	1.289248E-21	0.000000E+00
4.980718E+03	1.286952E-21	0.000000E+00
4.990352E+03	1.284645E-21	0.000000E+00
4.999986E+03	1.282551E-21	0.000000E+00
5.009619E+03	1.280223E-21	0.000000E+00
5.019253E+03	1.277886E-21	0.000000E+00
5.028887E+03	1.275762E-21	0.000000E+00
5.038521E+03	1.273406E-21	0.000000E+00
5.048155E+03	1.271262E-21	0.000000E+00
5.057789E+03	1.268888E-21	0.000000E+00
5.067423E+03	1.266506E-21	0.000000E+00
5.077057E+03	1.264335E-21	0.000000E+00
5.086691E+03	1.261937E-21	0.000000E+00
5.096324E+03	1.259531E-21	0.000000E+00
5.105958E+03	1.257337E-21	0.000000E+00
5.115592E+03	1.254916E-21	0.000000E+00
5.125226E+03	1.252489E-21	0.000000E+00
5.134860E+03	1.250056E-21	0.000000E+00
5.144494E+03	1.247833E-21	0.000000E+00
5.154128E+03	1.245387E-21	0.000000E+00
5.163762E+03	1.242936E-21	0.000000E+00
5.173395E+03	1.240694E-21	0.000000E+00
5.183029E+03	1.238232E-21	0.000000E+00
5.192663E+03	1.235765E-21	0.000000E+00
5.202297E+03	1.233507E-21	0.000000E+00
5.211931E+03	1.231030E-21	0.000000E+00
5.221565E+03	1.228549E-21	0.000000E+00
5.231199E+03	1.226065E-21	0.000000E+00
5.240833E+03	1.223789E-21	0.000000E+00
5.250467E+03	1.221296E-21	0.000000E+00
5.260100E+03	1.218801E-21	0.000000E+00
5.269734E+03	1.216514E-21	0.000000E+00
5.279368E+03	1.214013E-21	0.000000E+00
5.289002E+03	1.211509E-21	0.000000E+00
5.298636E+03	1.209003E-21	0.000000E+00
5.308270E+03	1.206705E-21	0.000000E+00
5.317904E+03	1.204195E-21	0.000000E+00
5.327538E+03	1.201683E-21	0.000000E+00
5.337171E+03	1.199170E-21	0.000000E+00
5.346805E+03	1.196656E-21	0.000000E+00
5.356439E+03	1.194348E-21	0.000000E+00
5.366073E+03	1.191832E-21	0.000000E+00
5.375707E+03	1.189316E-21	0.000000E+00
5.385341E+03	1.186799E-21	0.000000E+00
5.394975E+03	1.184488E-21	0.000000E+00
5.404609E+03	1.181970E-21	0.000000E+00
5.414243E+03	1.179454E-21	0.000000E+00
5.423876E+03	1.176938E-21	0.000000E+00
5.433510E+03	1.174422E-21	0.000000E+00
5.443144E+03	1.172110E-21	0.000000E+00
5.452778E+03	1.169597E-21	0.000000E+00
5.462412E+03	1.167084E-21	0.000000E+00
5.472046E+03	1.164572E-21	0.000000E+00
5.481680E+03	1.162063E-21	0.000000E+00
5.491314E+03	1.159756E-21	0.000000E+00
5.500947E+03	1.157250E-21	0.000000E+00
5.510581E+03	1.154746E-21	0.000000E+00
5.520215E+03	1.152244E-21	0.000000E+00
5.529849E+03	1.149745E-21	0.000000E+00
5.539483E+03	1.147248E-21	0.000000E+00
5.549117E+03	1.144953E-21	0.000000E+00
5.558751E+03	1.142462E-21	0.000000E+00
5.568385E+03	1.139973E-21	0.000000E+00
5.578019E+03	1.137488E-21	0.000000E+00
5.587652E+03	1.135007E-21	0.000000E+00
5.597286E+03	1.132529E-21	0.000000E+00
5.606920E+03	1.130251E-21	0.000000E+00
5.616554E+03	1.127780E-21	0.000000E+00
5.626188E+03	1.125313E-21	0.000000E+00
5.635822E+03	1.122850E-21	0.000000E+00
5.645456E+03	1.120391E-21	0.000000E+00
5.655090E+03	1.117937E-21	0.000000E+00
5.664724E+03	1.115487E-21	0.000000E+00
5.674357E+03	1.113042E-21	0.000000E+00
5.683991E+03	1.110602E-21	0.000000E+00
5.693625E+03	1.108358E-21	0.000000E+00
5.703259E+03	1.105927E-21	0.000000E+00
5.712893E+03	1.103501E-21	0.000000E+00
5.722527E+03	1.101081E-21	0.000000E+00
5.732161E+03	1.098665E-21	0.000000E+00
5.741795E+03	1.096255E-21	0.000000E+00
5.751428E+03	1.093850E-21	0.000000E+00
5.761062E+03	1.091452E-21	0.000000E+00
5.770696E+03	1.089058E-21	0.000000E+00
5.780330E+03	1.086671E-21	0.000000E+00
5.789964E+03	1.084477E-21	0.000000E+00
5.799598E+03	1.082101E-21	0.000000E+00
5.809232E+03	1.079731E-21	0.000000E+00
5.818866E+03	1.077368E-21	0.000000E+00
5.828500E+03	1.075011E-21	0.000000E+00
5.838133E+03	1.072660E-21	0.000000E+00
5.847767E+03	1.070315E-21	0.000000E+00
5.857401E+03	1.067977E-21	0.000000E+00
5.867035E+03	1.065645E-21	0.000000E+00
5.876669E+03	1.063320E-21	0.000000E+00
5.886303E+03	1.061002E-21	0.000000E+00
5.895937E+03	1.058690E-21	0.000000E+00
5.905571E+03	1.056386E-21	0.000000E+00
5.915204E+03	1.054089E-21	0.000000E+00
5.924838E+03	1.051798E-21	0.000000E+00
5.934472E+03	1.049515E-21	0.000000E+00
5.944106E+03	1.047238E-21	0.000000E+00
5.953740E+03	1.044969E-21	0.000000E+00
5.963374E+03	1.042707E-21	0.000000E+00
5.973008E+03	1.040453E-21	0.000000E+00
5.982642E+03	1.038206E-21	0.000000E+00
5.992276E+03	1.035966E-21	0.000000E+00
6.001909E+03	1.033734E-21	0.000000E+00
6.011543E+03	1.031509E-21	0.000000E+00
6.021177E+03	1.029292E-21	0.000000E+00
6.030811E+03	1.027082E-21	0.000000E+00
6.040445E+03	1.024881E-21	0.000000E+00
6.050079E+03	1.022687E-21	0.000000E+00
6.059713E+03	1.020501E-21	0.000000E+00
6.069347E+03	1.018322E-21	0.000000E+00
6.078981E+03	1.016151E-21	0.000000E+00
6.088614E+03	1.013989E-21	0.000000E+00
6.098248E+03	1.011834E-21	0.000000E+00
6.107882E+03	1.009688E-21	0.000000E+00
6.117516E+03	1.007549E-21	0.000000E+00
6.127150E+03	1.005418E-21	0.000000E+00
6.136784E+03	1.003296E-21	0.000000E+00
6.146418E+03	1.001182E-21	0.000000E+00
6.156052E+03	9.990752E-22	0.000000E+00
6.165685E+03	9.969771E-22	0.000000E+00
6.175319E+03	9.948878E-22	0.000000E+00
6.184953E+03	9.928059E-22	0.000000E+00
6.194587E+03	9.907330E-22	0.000000E+00
6.204221E+03	9.886681E-22	0.000000E+00
6.213855E+03	9.866113E-22	0.000000E+00
6.223489E+03	9.845632E-22	0.000000E+00
6.233123E+03	9.823535E-22	0.000000E+00
6.242757E+03	9.803227E-22	0.000000E+00
6.252390E+03	9.783002E-22	0.000000E+00
6.262024E+03	9.762861E-22	0.000000E+00
6.271658E+03	9.742804E-22	0.000000E+00
6.281292E+03	9.722838E-22	0.000000E+00
6.290926E+03	9.702952E-22	0.000000E+00
6.300560E+03	9.683153E-22	0.000000E+00
6.310194E+03	9.663440E-22	0.000000E+00
6.319828E+03	9.643815E-22	0.000000E+00
6.329461E+03	9.624272E-22	0.000000E+00
6.339095E+03	9.604822E-22	0.000000E+00
6.348729E+03	9.583792E-22	0.000000E+00
6.358363E+03	9.564514E-22	0.000000E+00
6.367997E+03	9.545325E-22	0.000000E+00
6.377631E+03	9.526222E-22	0.000000E+00
6.387265E+03	9.507209E-22	0.000000E+00
6.396899E+03	9.488283E-22	0.000000E+00
6.406533E+03	9.469443E-22	0.000000E+00
6.416166E+03	9.450690E-22	0.000000E+00
6.425800E+03	9.432024E-22	0.000000E+00
6.435434E+03	9.411820E-22	0.000000E+00
6.445068E+03	9.393334E-22	0.000000E+00
6.454702E+03	9.374937E-22	0.000000E+00
6.464336E+03	9.356632E-22	0.000000E+00
6.473970E+03	9.338413E-22	0.000000E+00
6.483604E+03	9.320284E-22	0.000000E+00
6.493237E+03	9.302244E-22	0.000000E+00
6.502871E+03	9.282682E-22	0.000000E+00
6.512505E+03	9.264823E-22	0.000000E+00
6.522139E+03	9.247054E-22	0.000000E+00
6.531773E+03	9.229372E-22	0.000000E+00
6.541407E+03	9.211781E-22	0.000000E+00
6.551041E+03	9.194278E-22	0.000000E+00
6.560675E+03	9.175280E-22	0.000000E+00
6.570309E+03	9.157961E-22	0.000000E+00
6.579942E+03	9.140730E-22	0.000000E+00
6.589576E+03	9.123592E-22	0.000000E+00
6.599210E+03	9.106547E-22	0.000000E+00
6.608844E+03	9.089587E-22	0.000000E+00
6.618478E+03	9.071149E-22	0.000000E+00
6.628112E+03	9.054376E-22	0.000000E+00
6.637746E+03	9.037693E-22	0.000000E+00
6.647380E+03	9.021105E-22	0.000000E+00
6.657014E+03	9.004602E-22	0.000000E+00
6.666647E+03	8.986635E-22	0.000000E+00
6.676281E+03	8.970323E-22	0.000000E+00
6.685915E+03	8.954096E-22	0.000000E+00
6.695549E+03	8.937966E-22	0.000000E+00
6.705183E+03	8.921922E-22	0.000000E+00
6.714817E+03	8.904433E-22	0.000000E+00
6.724451E+03	8.888577E-22	0.000000E+00
6.734085E+03	8.872813E-22	0.000000E+00
6.743718E+03	8.857146E-22	0.000000E+00
6.753352E+03	8.841568E-22	0.000000E+00
6.762986E+03	8.824552E-22	0.000000E+00
6.772620E+03	8.809158E-22	0.000000E+00
6.782254E+03	8.793862E-22	0.000000E+00
6.791888E+03	8.778655E-22	0.000000E+00
6.801522E+03	8.762025E-22	0.000000E+00
6.811156E+03	8.747009E-22	0.000000E+00
6.820790E+03	8.732083E-22	0.000000E+00
6.830423E+03	8.717255E-22	0.000000E+00
6.840057E+03	8.702517E-22	0.000000E+00
6.849691E+03	8.686366E-22	0.000000E+00
6.859325E+03	8.671821E-22	0.000000E+00
6.868959E+03	8.657366E-22	0.000000E+00
6.878593E+03	8.643007E-22	0.000000E+00
6.888227E+03	8.627244E-22	0.000000E+00
6.897861E+03	8.613079E-22	0.000000E+00
6.907494E+03	8.599005E-22	0.000000E+00
6.917128E+03	8.585026E-22	0.000000E+00
6.926762E+03	8.569655E-22	0.000000E+00
6.936396E+03	8.555868E-22	0.000000E+00
6.946030E+03	8.542172E-22	0.000000E+00
6.955664E+03	8.527094E-22	0.000000E+00
6.965298E+03	8.513600E-22	0.000000E+00
6.974932E+03	8.500193E-22	0.000000E+00
6.984566E+03	8.486887E-22	0.000000E+00
6.994199E+03	8.472205E-22	0.000000E+00
7.003833E+03	8.459088E-22	0.000000E+00
7.013467E+03	8.446074E-22	0.000000E+00
7.023101E+03	8.433152E-22	0.000000E+00
7.032735E+03	8.418868E-22	0.000000E+00
7.042369E+03	8.406145E-22	0.000000E+00
7.052003E+03	8.393515E-22	0.000000E+00
7.061637E+03	8.379531E-22	0.000000E+00
7.071271E+03	8.367101E-22	0.000000E+00
7.080904E+03	8.354765E-22	0.000000E+00
7.090538E+03	8.341080E-22	0.000000E+00
7.100172E+03	8.328945E-22	0.000000E+00
7.109806E+03	8.316909E-22	0.000000E+00
7.119440E+03	8.304972E-22	0.000000E+00
7.129074E+03	8.291691E-22	0.000000E+00
7.138708E+03	8.279956E-22	0.000000E+00
7.148342E+03	8.268315E-22	0.000000E+00
7.157975E+03	8.255338E-22	0.000000E+00
7.167609E+03	8.243900E-22	0.000000E+00
7.177243E+03	8.232562E-22	0.000000E+00
7.186877E+03	8.219894E-22	0.000000E+00
7.196511E+03	8.208760E-22	0.000000E+00
7.206145E+03	8.197725E-22	0.000000E+00
7.215779E+03	8.185368E-22	0.000000E+00
7.225413E+03	8.174533E-22	0.000000E+00
7.235047E+03	8.163804E-22	0.000000E+00
7.244680E+03	8.151758E-22	0.000000E+00
7.254314E+03	8.141234E-22	0.000000E+00
7.263948E+03	8.130811E-22	0.000000E+00
7.273582E+03	8.119078E-22	0.000000E+00
7.283216E+03	8.108861E-22	0.000000E+00
7.292850E+03	8.098746E-22	0.000000E+00
7.302484E+03	8.087327E-22	0.000000E+00
7.312118E+03	8.077423E-22	0.000000E+00
7.321751E+03	8.067621E-22	0.000000E+00
7.331385E+03	8.056523E-22	0.000000E+00
7.341019E+03	8.046929E-22	0.000000E+00
7.350653E+03	8.036041E-22	0.000000E+00
7.360287E+03	8.026660E-22	0.000000E+00
7.369921E+03	8.017386E-22	0.000000E+00
7.379555E+03	8.006821E-22	0.000000E+00
7.389189E+03	7.997756E-22	0.000000E+00
7.398823E+03	7.988798E-22	0.000000E+00
7.408456E+03	7.978557E-22	0.000000E+00
7.418090E+03	7.969814E-22	0.000000E+00
7.427724E+03	7.959790E-22	0.000000E+00
7.437358E+03	7.951263E-22	0.000000E+00
7.446992E+03	7.942839E-22	0.000000E+00
7.456626E+03	7.933146E-22	0.000000E+00
7.466260E+03	7.924938E-22	0.000000E+00
7.475894E+03	7.915464E-22	0.000000E+00
