#wls	flux	fluxerr
1.591305E+03	2.805644E-16	1.759880E-17
1.631088E+03	2.613048E-16	1.621735E-17
1.670870E+03	2.413347E-16	1.481589E-17
1.710653E+03	2.210033E-16	1.341759E-17
1.750436E+03	2.006580E-16	1.204460E-17
1.790218E+03	1.805451E-16	1.071208E-17
1.830001E+03	1.608429E-16	9.430500E-18
1.869784E+03	1.418232E-16	8.215188E-18
1.909566E+03	1.237468E-16	7.080033E-18
1.949349E+03	1.069443E-16	6.042060E-18
1.989131E+03	9.184555E-17	5.122811E-18
2.028914E+03	7.901339E-17	4.349831E-18
2.068697E+03	6.908828E-17	3.753178E-18
2.108479E+03	6.262168E-17	3.356198E-18
2.148262E+03	5.982159E-17	3.162407E-18
2.188045E+03	6.072616E-17	3.165819E-18
2.227827E+03	6.534885E-17	3.359060E-18
2.267610E+03	7.384356E-17	3.741856E-18
2.307392E+03	8.666249E-17	4.328453E-18
2.347175E+03	1.046416E-16	5.150786E-18
2.386958E+03	1.289896E-16	6.256631E-18
2.426740E+03	1.611991E-16	7.704145E-18
2.466523E+03	2.029079E-16	9.554474E-18
2.506306E+03	2.556337E-16	1.185913E-17
2.546088E+03	3.206130E-16	1.465297E-17
2.585871E+03	3.987980E-16	1.795515E-17
2.625653E+03	4.913299E-16	2.179114E-17
2.665436E+03	5.971478E-16	2.608783E-17
2.705219E+03	7.125071E-16	3.066001E-17
2.745001E+03	8.330249E-16	3.530575E-17
2.784784E+03	9.543938E-16	3.983796E-17
2.824567E+03	1.073053E-15	4.411149E-17
2.864349E+03	1.186696E-15	4.804097E-17
2.904132E+03	1.294344E-15	5.159974E-17
2.943914E+03	1.396553E-15	5.482377E-17
2.983697E+03	1.494965E-15	5.778959E-17
2.993643E+03	1.519313E-15	5.850491E-17
3.003588E+03	1.543618E-15	5.921220E-17
3.013534E+03	1.567927E-15	5.991340E-17
3.023480E+03	1.592386E-15	6.061410E-17
3.033425E+03	1.617114E-15	6.131878E-17
3.043371E+03	1.642217E-15	6.203140E-17
3.053317E+03	1.667853E-15	6.275780E-17
3.063262E+03	1.694020E-15	6.349771E-17
3.073208E+03	1.720752E-15	6.425230E-17
3.083154E+03	1.748160E-15	6.502549E-17
3.093099E+03	1.776214E-15	6.581595E-17
3.103045E+03	1.804994E-15	6.662642E-17
3.112991E+03	1.834509E-15	6.745702E-17
3.122936E+03	1.864916E-15	6.831322E-17
3.132882E+03	1.896155E-15	6.919249E-17
3.142828E+03	1.928312E-15	7.009763E-17
3.152773E+03	1.961476E-15	7.103149E-17
3.162719E+03	1.995699E-15	7.199556E-17
3.172665E+03	2.030956E-15	7.298854E-17
3.182610E+03	2.067411E-15	7.401588E-17
3.192556E+03	2.105038E-15	7.507620E-17
3.202502E+03	2.143924E-15	7.617208E-17
3.212447E+03	2.184073E-15	7.730328E-17
3.222393E+03	2.225568E-15	7.847213E-17
3.232339E+03	2.268445E-15	7.967946E-17
3.242284E+03	2.312740E-15	8.092592E-17
3.252230E+03	2.358440E-15	8.221055E-17
3.262175E+03	2.405606E-15	8.353492E-17
3.272121E+03	2.454252E-15	8.489897E-17
3.282067E+03	2.504342E-15	8.630092E-17
3.292012E+03	2.555914E-15	8.774145E-17
3.301958E+03	2.608913E-15	8.921817E-17
3.311904E+03	2.663354E-15	9.073105E-17
3.321849E+03	2.719159E-15	9.227690E-17
3.331795E+03	2.776279E-15	9.385355E-17
3.341741E+03	2.834650E-15	9.545838E-17
3.351686E+03	2.894199E-15	9.708845E-17
3.361632E+03	2.954838E-15	9.874040E-17
3.371578E+03	3.016424E-15	1.004091E-16
3.381523E+03	3.078889E-15	1.020919E-16
3.391469E+03	3.142025E-15	1.037816E-16
3.401415E+03	3.205789E-15	1.054767E-16
3.411360E+03	3.269957E-15	1.071696E-16
3.421306E+03	3.334384E-15	1.088553E-16
3.431252E+03	3.398922E-15	1.105291E-16
3.441197E+03	3.463382E-15	1.121848E-16
3.451143E+03	3.527665E-15	1.138192E-16
3.461089E+03	3.591554E-15	1.154256E-16
3.471034E+03	3.654740E-15	1.169942E-16
3.480980E+03	3.716921E-15	1.185156E-16
3.490926E+03	3.777768E-15	1.199799E-16
3.500871E+03	3.837071E-15	1.213810E-16
3.510817E+03	3.894471E-15	1.227082E-16
3.520763E+03	3.949836E-15	1.239581E-16
3.530708E+03	4.003008E-15	1.251266E-16
3.540654E+03	4.053940E-15	1.262131E-16
3.550600E+03	4.102559E-15	1.272161E-16
3.560545E+03	4.148920E-15	1.281383E-16
3.570491E+03	4.193258E-15	1.289876E-16
3.580436E+03	4.235696E-15	1.297686E-16
3.590382E+03	4.276640E-15	1.304944E-16
3.600328E+03	4.316471E-15	1.311771E-16
3.610273E+03	4.355597E-15	1.318294E-16
3.620219E+03	4.394549E-15	1.324678E-16
3.630165E+03	4.433955E-15	1.331109E-16
3.640110E+03	4.474406E-15	1.337764E-16
3.650056E+03	4.516675E-15	1.344870E-16
3.660002E+03	4.561354E-15	1.352595E-16
3.669947E+03	4.609206E-15	1.361156E-16
3.679893E+03	4.660946E-15	1.370753E-16
3.689839E+03	4.717316E-15	1.381587E-16
3.699784E+03	4.778935E-15	1.393825E-16
3.709730E+03	4.846481E-15	1.407645E-16
3.719676E+03	4.920527E-15	1.423190E-16
3.729621E+03	5.001629E-15	1.440600E-16
3.739567E+03	5.090204E-15	1.459968E-16
3.749513E+03	5.186629E-15	1.481376E-16
3.759458E+03	5.291114E-15	1.504858E-16
3.769404E+03	5.403750E-15	1.530411E-16
3.779350E+03	5.524645E-15	1.558039E-16
3.789295E+03	5.653494E-15	1.587627E-16
3.799241E+03	5.790065E-15	1.619086E-16
3.809187E+03	5.933942E-15	1.652273E-16
3.819132E+03	6.084400E-15	1.686966E-16
3.829078E+03	6.240650E-15	1.722924E-16
3.839024E+03	6.401813E-15	1.759890E-16
3.848969E+03	6.566798E-15	1.797552E-16
3.858915E+03	6.734403E-15	1.835572E-16
3.868861E+03	6.903248E-15	1.873571E-16
3.878806E+03	7.072006E-15	1.911190E-16
3.888752E+03	7.239232E-15	1.948046E-16
3.898698E+03	7.403470E-15	1.983760E-16
3.908643E+03	7.563276E-15	2.017961E-16
3.918589E+03	7.717259E-15	2.050302E-16
3.928534E+03	7.864157E-15	2.080474E-16
3.938480E+03	8.002751E-15	2.108186E-16
3.948426E+03	8.131855E-15	2.133162E-16
3.958371E+03	8.250635E-15	2.155221E-16
3.968317E+03	8.358171E-15	2.174166E-16
3.978263E+03	8.453831E-15	2.189876E-16
3.988208E+03	8.537064E-15	2.202255E-16
3.998154E+03	8.607360E-15	2.211217E-16
4.008100E+03	8.664590E-15	2.216779E-16
4.018045E+03	8.708515E-15	2.218927E-16
4.027991E+03	8.739187E-15	2.217722E-16
4.037937E+03	8.756698E-15	2.213235E-16
4.047882E+03	8.761265E-15	2.205565E-16
4.057828E+03	8.753235E-15	2.194845E-16
4.067774E+03	8.733138E-15	2.181248E-16
4.077719E+03	8.701488E-15	2.164944E-16
4.087665E+03	8.658979E-15	2.146142E-16
4.097611E+03	8.606591E-15	2.125117E-16
4.107556E+03	8.545084E-15	2.102088E-16
4.117502E+03	8.475559E-15	2.077352E-16
4.127448E+03	8.399118E-15	2.051203E-16
4.137393E+03	8.316937E-15	2.023946E-16
4.147339E+03	8.230229E-15	1.995891E-16
4.157285E+03	8.140256E-15	1.967356E-16
4.167230E+03	8.048274E-15	1.938651E-16
4.177176E+03	7.955532E-15	1.910082E-16
4.187122E+03	7.863239E-15	1.881938E-16
4.197067E+03	7.772555E-15	1.854496E-16
4.207013E+03	7.684483E-15	1.827990E-16
4.216959E+03	7.600025E-15	1.802651E-16
4.226904E+03	7.520120E-15	1.778694E-16
4.236850E+03	7.445529E-15	1.756287E-16
4.246796E+03	7.376760E-15	1.735540E-16
4.256741E+03	7.314368E-15	1.716572E-16
4.266687E+03	7.258717E-15	1.699458E-16
4.276632E+03	7.210024E-15	1.684237E-16
4.286578E+03	7.168378E-15	1.670920E-16
4.296524E+03	7.133684E-15	1.659475E-16
4.306469E+03	7.105953E-15	1.649897E-16
4.316415E+03	7.084881E-15	1.642104E-16
4.326361E+03	7.070429E-15	1.636072E-16
4.336306E+03	7.062481E-15	1.631762E-16
4.346252E+03	7.060866E-15	1.629119E-16
4.356198E+03	7.064910E-15	1.627979E-16
4.366143E+03	7.073970E-15	1.628182E-16
4.376089E+03	7.087415E-15	1.629575E-16
4.386035E+03	7.104773E-15	1.632043E-16
4.395980E+03	7.125434E-15	1.635438E-16
4.405926E+03	7.148757E-15	1.639608E-16
4.415872E+03	7.174180E-15	1.644420E-16
4.425817E+03	7.200967E-15	1.649698E-16
4.435763E+03	7.228402E-15	1.655277E-16
4.445709E+03	7.255792E-15	1.660993E-16
4.455654E+03	7.282222E-15	1.666632E-16
4.465600E+03	7.306989E-15	1.672031E-16
4.475546E+03	7.329305E-15	1.677006E-16
4.485491E+03	7.348371E-15	1.681369E-16
4.495437E+03	7.363497E-15	1.684959E-16
4.505383E+03	7.374050E-15	1.687626E-16
4.515328E+03	7.379511E-15	1.689247E-16
4.525274E+03	7.379434E-15	1.689713E-16
4.535220E+03	7.373439E-15	1.688932E-16
4.545165E+03	7.361256E-15	1.686835E-16
4.555111E+03	7.342942E-15	1.683429E-16
4.565057E+03	7.318410E-15	1.678687E-16
4.575002E+03	7.287739E-15	1.672619E-16
4.584948E+03	7.251279E-15	1.665298E-16
4.594894E+03	7.209381E-15	1.656797E-16
4.604839E+03	7.162290E-15	1.647164E-16
4.614785E+03	7.110719E-15	1.636556E-16
4.624730E+03	7.054961E-15	1.625033E-16
4.634676E+03	6.995747E-15	1.612756E-16
4.644622E+03	6.933625E-15	1.599845E-16
4.654567E+03	6.869168E-15	1.586426E-16
4.664513E+03	6.802924E-15	1.572620E-16
4.674459E+03	6.735442E-15	1.558549E-16
4.684404E+03	6.667387E-15	1.544362E-16
4.694350E+03	6.599205E-15	1.530158E-16
4.704296E+03	6.531372E-15	1.516045E-16
4.714241E+03	6.464409E-15	1.502140E-16
4.724187E+03	6.398614E-15	1.488512E-16
4.734133E+03	6.334569E-15	1.475293E-16
4.744078E+03	6.272451E-15	1.462524E-16
4.754024E+03	6.212728E-15	1.450314E-16
4.763970E+03	6.155702E-15	1.438733E-16
4.773915E+03	6.101531E-15	1.427819E-16
4.783861E+03	6.050510E-15	1.417643E-16
4.793807E+03	6.002923E-15	1.408271E-16
4.803752E+03	5.958804E-15	1.399715E-16
4.813698E+03	5.918359E-15	1.392025E-16
4.823644E+03	5.881668E-15	1.385224E-16
4.833589E+03	5.848724E-15	1.379311E-16
4.843535E+03	5.819513E-15	1.374288E-16
4.853481E+03	5.794053E-15	1.370162E-16
4.863426E+03	5.772178E-15	1.366899E-16
4.873372E+03	5.753792E-15	1.364478E-16
4.883318E+03	5.738579E-15	1.362830E-16
4.893263E+03	5.726349E-15	1.361912E-16
4.903209E+03	5.716806E-15	1.361660E-16
4.913155E+03	5.709552E-15	1.361981E-16
4.923100E+03	5.704272E-15	1.362805E-16
4.933046E+03	5.700484E-15	1.364019E-16
4.942991E+03	5.697801E-15	1.365535E-16
4.952937E+03	5.695692E-15	1.367228E-16
4.962883E+03	5.693650E-15	1.368978E-16
4.972828E+03	5.691104E-15	1.370650E-16
4.982774E+03	5.687637E-15	1.372146E-16
4.992720E+03	5.682596E-15	1.373309E-16
5.002665E+03	5.675453E-15	1.374010E-16
5.012611E+03	5.665756E-15	1.374142E-16
5.022557E+03	5.652950E-15	1.373566E-16
5.032502E+03	5.636585E-15	1.372174E-16
5.042448E+03	5.616254E-15	1.369862E-16
5.052394E+03	5.591611E-15	1.366543E-16
5.062339E+03	5.562315E-15	1.362129E-16
5.072285E+03	5.528169E-15	1.356568E-16
5.082231E+03	5.489124E-15	1.349842E-16
5.092176E+03	5.445054E-15	1.341915E-16
5.102122E+03	5.396151E-15	1.332826E-16
5.112068E+03	5.342442E-15	1.322576E-16
5.122013E+03	5.284319E-15	1.311256E-16
5.131959E+03	5.222106E-15	1.298939E-16
5.141905E+03	5.156269E-15	1.285733E-16
5.151850E+03	5.087342E-15	1.271768E-16
5.161796E+03	5.015866E-15	1.257171E-16
5.171742E+03	4.942485E-15	1.242099E-16
5.181687E+03	4.867814E-15	1.226703E-16
5.191633E+03	4.792630E-15	1.211175E-16
5.201579E+03	4.717453E-15	1.195645E-16
5.211524E+03	4.642978E-15	1.180289E-16
5.221470E+03	4.569812E-15	1.165260E-16
5.231416E+03	4.498515E-15	1.150704E-16
5.241361E+03	4.429502E-15	1.136730E-16
5.251307E+03	4.363263E-15	1.123468E-16
5.261253E+03	4.300140E-15	1.111012E-16
5.271198E+03	4.240460E-15	1.099453E-16
5.281144E+03	4.184457E-15	1.088859E-16
5.291089E+03	4.132404E-15	1.079312E-16
5.301035E+03	4.084411E-15	1.070849E-16
5.310981E+03	4.040652E-15	1.063528E-16
5.320926E+03	4.001236E-15	1.057389E-16
5.330872E+03	3.966350E-15	1.052495E-16
5.340818E+03	3.936017E-15	1.048867E-16
5.350763E+03	3.910420E-15	1.046569E-16
5.360709E+03	3.889670E-15	1.045648E-16
5.370655E+03	3.873883E-15	1.046152E-16
5.380600E+03	3.863106E-15	1.048114E-16
5.390546E+03	3.857475E-15	1.051592E-16
5.400492E+03	3.857141E-15	1.056645E-16
5.410437E+03	3.862018E-15	1.063268E-16
5.420383E+03	3.871874E-15	1.071419E-16
5.430329E+03	3.886270E-15	1.080992E-16
5.440274E+03	3.904838E-15	1.091904E-16
5.450220E+03	3.927386E-15	1.104119E-16
5.460166E+03	3.953535E-15	1.117547E-16
5.470111E+03	3.983015E-15	1.132128E-16
5.480057E+03	4.015431E-15	1.147765E-16
5.490003E+03	4.050468E-15	1.164380E-16
5.499948E+03	4.087570E-15	1.181827E-16
5.509894E+03	4.126278E-15	1.199983E-16
5.519840E+03	4.166036E-15	1.218693E-16
5.529785E+03	4.206415E-15	1.237838E-16
5.539731E+03	4.246834E-15	1.257248E-16
5.549677E+03	4.286822E-15	1.276783E-16
5.559622E+03	4.325905E-15	1.296301E-16
5.569568E+03	4.363749E-15	1.315694E-16
5.579514E+03	4.399948E-15	1.334833E-16
5.589459E+03	4.434245E-15	1.353629E-16
5.599405E+03	4.466457E-15	1.372015E-16
5.609351E+03	4.496421E-15	1.389928E-16
5.619296E+03	4.524090E-15	1.407338E-16
5.629242E+03	4.549386E-15	1.424207E-16
5.639187E+03	4.572382E-15	1.440542E-16
5.649133E+03	4.593201E-15	1.456367E-16
5.659079E+03	4.611962E-15	1.471704E-16
5.669024E+03	4.628811E-15	1.486587E-16
5.678970E+03	4.643914E-15	1.501055E-16
5.688916E+03	4.657544E-15	1.515184E-16
5.698861E+03	4.669774E-15	1.528987E-16
5.708807E+03	4.680858E-15	1.542536E-16
5.718753E+03	4.690927E-15	1.555865E-16
5.728698E+03	4.700030E-15	1.568982E-16
5.738644E+03	4.708269E-15	1.581913E-16
5.748590E+03	4.715705E-15	1.594670E-16
5.758535E+03	4.722240E-15	1.607213E-16
5.768481E+03	4.727777E-15	1.619500E-16
5.778427E+03	4.732266E-15	1.631505E-16
5.788372E+03	4.735402E-15	1.643113E-16
5.798318E+03	4.736987E-15	1.654243E-16
5.808264E+03	4.736734E-15	1.664783E-16
5.818209E+03	4.734328E-15	1.674605E-16
5.828155E+03	4.729485E-15	1.683592E-16
5.838101E+03	4.721760E-15	1.691566E-16
5.848046E+03	4.710924E-15	1.698422E-16
5.857992E+03	4.696616E-15	1.704005E-16
5.867938E+03	4.678565E-15	1.708191E-16
5.877883E+03	4.656554E-15	1.710872E-16
5.887829E+03	4.630436E-15	1.711963E-16
5.897775E+03	4.600200E-15	1.711429E-16
5.907720E+03	4.565772E-15	1.709212E-16
5.917666E+03	4.527289E-15	1.705332E-16
5.927612E+03	4.485052E-15	1.699873E-16
5.937557E+03	4.439424E-15	1.692944E-16
5.947503E+03	4.390780E-15	1.684663E-16
5.957449E+03	4.339808E-15	1.675273E-16
5.967394E+03	4.287040E-15	1.664961E-16
5.977340E+03	4.233396E-15	1.654073E-16
5.987285E+03	4.179562E-15	1.642871E-16
5.997231E+03	4.126424E-15	1.631700E-16
6.007177E+03	4.074937E-15	1.620945E-16
6.017122E+03	4.025961E-15	1.610960E-16
6.027068E+03	3.980382E-15	1.602117E-16
6.037014E+03	3.938945E-15	1.594741E-16
6.046959E+03	3.902518E-15	1.589214E-16
6.056905E+03	3.871649E-15	1.585793E-16
6.066851E+03	3.847016E-15	1.584798E-16
6.076796E+03	3.829039E-15	1.586445E-16
6.086742E+03	3.818008E-15	1.590901E-16
6.096688E+03	3.814122E-15	1.598297E-16
6.106633E+03	3.817480E-15	1.608726E-16
6.116579E+03	3.827934E-15	1.622175E-16
6.126525E+03	3.845230E-15	1.638585E-16
6.136470E+03	3.869060E-15	1.657871E-16
6.146416E+03	3.898769E-15	1.679798E-16
6.156362E+03	3.933710E-15	1.704124E-16
6.166307E+03	3.973104E-15	1.730548E-16
6.176253E+03	4.016064E-15	1.758710E-16
6.186199E+03	4.061507E-15	1.788158E-16
6.196144E+03	4.108333E-15	1.818421E-16
6.206090E+03	4.155458E-15	1.849027E-16
6.216036E+03	4.201686E-15	1.879440E-16
6.225981E+03	4.245962E-15	1.909180E-16
6.235927E+03	4.287239E-15	1.937757E-16
6.245873E+03	4.324627E-15	1.964746E-16
6.255818E+03	4.357307E-15	1.989743E-16
6.265764E+03	4.384612E-15	2.012410E-16
6.275710E+03	4.406101E-15	2.032504E-16
6.285655E+03	4.421519E-15	2.049865E-16
6.295601E+03	4.430671E-15	2.064360E-16
6.305546E+03	4.433663E-15	2.075994E-16
6.315492E+03	4.430773E-15	2.084854E-16
6.325438E+03	4.422309E-15	2.091045E-16
6.335383E+03	4.408901E-15	2.094827E-16
6.345329E+03	4.391169E-15	2.096462E-16
6.355275E+03	4.369819E-15	2.096258E-16
6.365220E+03	4.345623E-15	2.094563E-16
6.375166E+03	4.319512E-15	2.091807E-16
6.385112E+03	4.292238E-15	2.088344E-16
6.395057E+03	4.264716E-15	2.084613E-16
6.405003E+03	4.237672E-15	2.080968E-16
6.414949E+03	4.211732E-15	2.077722E-16
6.424894E+03	4.187441E-15	2.075152E-16
6.434840E+03	4.165116E-15	2.073428E-16
6.444786E+03	4.144968E-15	2.072667E-16
6.454731E+03	4.126876E-15	2.072824E-16
6.464677E+03	4.110863E-15	2.073924E-16
6.474623E+03	4.096755E-15	2.075893E-16
6.484568E+03	4.084278E-15	2.078604E-16
6.494514E+03	4.073267E-15	2.081982E-16
6.504460E+03	4.063488E-15	2.085918E-16
6.514405E+03	4.054719E-15	2.090306E-16
6.524351E+03	4.046748E-15	2.095041E-16
6.534297E+03	4.039447E-15	2.100063E-16
6.544242E+03	4.032579E-15	2.105252E-16
6.554188E+03	4.025992E-15	2.110531E-16
6.564134E+03	4.019626E-15	2.115870E-16
6.574079E+03	4.013376E-15	2.121215E-16
6.584025E+03	4.007095E-15	2.126489E-16
6.593971E+03	4.000791E-15	2.131695E-16
6.603916E+03	3.994357E-15	2.136777E-16
6.613862E+03	3.987910E-15	2.141795E-16
6.623808E+03	3.981311E-15	2.146676E-16
6.633753E+03	3.974573E-15	2.151423E-16
6.643699E+03	3.967785E-15	2.156087E-16
6.653644E+03	3.960982E-15	2.160685E-16
6.663590E+03	3.954135E-15	2.165200E-16
6.673536E+03	3.947288E-15	2.169658E-16
6.683481E+03	3.940556E-15	2.174121E-16
6.693427E+03	3.933917E-15	2.178578E-16
6.703373E+03	3.927486E-15	2.183094E-16
6.713318E+03	3.921165E-15	2.187615E-16
6.723264E+03	3.915130E-15	2.192240E-16
6.733210E+03	3.909271E-15	2.196909E-16
6.743155E+03	3.903754E-15	2.201717E-16
6.753101E+03	3.898457E-15	2.206597E-16
6.763047E+03	3.893459E-15	2.211595E-16
6.772992E+03	3.888765E-15	2.216716E-16
6.782938E+03	3.884301E-15	2.221920E-16
6.792884E+03	3.880129E-15	2.227243E-16
6.802829E+03	3.876164E-15	2.232637E-16
6.812775E+03	3.872457E-15	2.238135E-16
6.822721E+03	3.868842E-15	2.243641E-16
6.832666E+03	3.865435E-15	2.249223E-16
6.842612E+03	3.862134E-15	2.254823E-16
6.852558E+03	3.858909E-15	2.260423E-16
6.862503E+03	3.855651E-15	2.265961E-16
6.872449E+03	3.852474E-15	2.271503E-16
6.882395E+03	3.849122E-15	2.276899E-16
6.892340E+03	3.845781E-15	2.282257E-16
6.902286E+03	3.842267E-15	2.287468E-16
6.912232E+03	3.838546E-15	2.292512E-16
6.922177E+03	3.834658E-15	2.297410E-16
6.932123E+03	3.830492E-15	2.302096E-16
6.942069E+03	3.826017E-15	2.306549E-16
6.952014E+03	3.821200E-15	2.310748E-16
6.961960E+03	3.816009E-15	2.314670E-16
6.971906E+03	3.810414E-15	2.318297E-16
6.981851E+03	3.804309E-15	2.321561E-16
6.991797E+03	3.797818E-15	2.324536E-16
7.001742E+03	3.790690E-15	2.327064E-16
7.011688E+03	3.783125E-15	2.329267E-16
7.021634E+03	3.774877E-15	2.330991E-16
7.031579E+03	3.766078E-15	2.332313E-16
7.041525E+03	3.756637E-15	2.333174E-16
7.051471E+03	3.746542E-15	2.333563E-16
7.061416E+03	3.735862E-15	2.333521E-16
7.071362E+03	3.724442E-15	2.332947E-16
7.081308E+03	3.712361E-15	2.331887E-16
7.091253E+03	3.699550E-15	2.330296E-16
7.101199E+03	3.686097E-15	2.328224E-16
7.111145E+03	3.672020E-15	2.325680E-16
7.121090E+03	3.657269E-15	2.322630E-16
7.131036E+03	3.641950E-15	2.319138E-16
7.140982E+03	3.625950E-15	2.315130E-16
7.150927E+03	3.609460E-15	2.310724E-16
7.160873E+03	3.592454E-15	2.305902E-16
7.170819E+03	3.574912E-15	2.300648E-16
7.180764E+03	3.556965E-15	2.295046E-16
7.190710E+03	3.538676E-15	2.289134E-16
7.200656E+03	3.520039E-15	2.282907E-16
7.210601E+03	3.501123E-15	2.276409E-16
7.220547E+03	3.482003E-15	2.269687E-16
7.230493E+03	3.462752E-15	2.262790E-16
7.240438E+03	3.443449E-15	2.255768E-16
7.250384E+03	3.424030E-15	2.248580E-16
7.260330E+03	3.404717E-15	2.241371E-16
7.270275E+03	3.385515E-15	2.234147E-16
7.280221E+03	3.366436E-15	2.226916E-16
7.290167E+03	3.347626E-15	2.219776E-16
7.300112E+03	3.329021E-15	2.212686E-16
7.310058E+03	3.310696E-15	2.205698E-16
7.320004E+03	3.292721E-15	2.198860E-16
7.329949E+03	3.275092E-15	2.192173E-16
7.339895E+03	3.257941E-15	2.185725E-16
7.349840E+03	3.241117E-15	2.179419E-16
7.359786E+03	3.224804E-15	2.173380E-16
7.369732E+03	3.208907E-15	2.167548E-16
7.379677E+03	3.193526E-15	2.161991E-16
7.389623E+03	3.178612E-15	2.156680E-16
7.399569E+03	3.164176E-15	2.151625E-16
7.409514E+03	3.150282E-15	2.146871E-16
7.419460E+03	3.136850E-15	2.142367E-16
7.429406E+03	3.124052E-15	2.138234E-16
7.439351E+03	3.111714E-15	2.134354E-16
7.449297E+03	3.099916E-15	2.130786E-16
7.459243E+03	3.088526E-15	2.127440E-16
7.469188E+03	3.077669E-15	2.124407E-16
7.479134E+03	3.067193E-15	2.121581E-16
7.489080E+03	3.057000E-15	2.118899E-16
7.499025E+03	3.047059E-15	2.116339E-16
7.508971E+03	3.037261E-15	2.113828E-16
7.518917E+03	3.027632E-15	2.111384E-16
7.528862E+03	3.017926E-15	2.108837E-16
7.538808E+03	3.008102E-15	2.106158E-16
7.548754E+03	2.998118E-15	2.103317E-16
7.558699E+03	2.987807E-15	2.100196E-16
7.568645E+03	2.977137E-15	2.096771E-16
7.578591E+03	2.965952E-15	2.092933E-16
7.588536E+03	2.954304E-15	2.088714E-16
7.598482E+03	2.941987E-15	2.083968E-16
7.608428E+03	2.929069E-15	2.078742E-16
7.618373E+03	2.915364E-15	2.072900E-16
7.628319E+03	2.900956E-15	2.066500E-16
7.638265E+03	2.885677E-15	2.059418E-16
7.648210E+03	2.869629E-15	2.051726E-16
7.658156E+03	2.852724E-15	2.043358E-16
7.668101E+03	2.834947E-15	2.034300E-16
7.678047E+03	2.816291E-15	2.024543E-16
7.687993E+03	2.796755E-15	2.014084E-16
7.697938E+03	2.776341E-15	2.002923E-16
7.707884E+03	2.754998E-15	1.991018E-16
7.717830E+03	2.732869E-15	1.978471E-16
