#wls	flux	fluxerr
1.591305E+03	1.233151E-15	4.794393E-17
1.631088E+03	1.209777E-15	4.620799E-17
1.670870E+03	1.176921E-15	4.414164E-17
1.710653E+03	1.134681E-15	4.176912E-17
1.750436E+03	1.083321E-15	3.912076E-17
1.790218E+03	1.022757E-15	3.621401E-17
1.830001E+03	9.526824E-16	3.305900E-17
1.869784E+03	8.735698E-16	2.969329E-17
1.909566E+03	7.862674E-16	2.616563E-17
1.949349E+03	6.927129E-16	2.255773E-17
1.989131E+03	5.964227E-16	1.899589E-17
2.028914E+03	5.029197E-16	1.565856E-17
2.068697E+03	4.191804E-16	1.275234E-17
2.108479E+03	3.522888E-16	1.046688E-17
2.148262E+03	3.074141E-16	8.916047E-18
2.188045E+03	2.860164E-16	8.094306E-18
2.227827E+03	2.883504E-16	7.959230E-18
2.267610E+03	3.167787E-16	8.525199E-18
2.307392E+03	3.766246E-16	9.878904E-18
2.347175E+03	4.777133E-16	1.220936E-17
2.386958E+03	6.367241E-16	1.585261E-17
2.426740E+03	8.784466E-16	2.130153E-17
2.466523E+03	1.235599E-15	2.917832E-17
2.506306E+03	1.744191E-15	4.010714E-17
2.546088E+03	2.431800E-15	5.444563E-17
2.585871E+03	3.298256E-15	7.189378E-17
2.625653E+03	4.302850E-15	9.130680E-17
2.665436E+03	5.373289E-15	1.109943E-16
2.705219E+03	6.431623E-15	1.293233E-16
2.745001E+03	7.412065E-15	1.450722E-16
2.784784E+03	8.267119E-15	1.575057E-16
2.824567E+03	8.969985E-15	1.663638E-16
2.864349E+03	9.514795E-15	1.718084E-16
2.904132E+03	9.913036E-15	1.743061E-16
2.943914E+03	1.019132E-14	1.745488E-16
2.983697E+03	1.038497E-14	1.733142E-16
2.993643E+03	1.042519E-14	1.728739E-16
3.003588E+03	1.046319E-14	1.724011E-16
3.013534E+03	1.049962E-14	1.719075E-16
3.023480E+03	1.053578E-14	1.714147E-16
3.033425E+03	1.057276E-14	1.709402E-16
3.043371E+03	1.061151E-14	1.704988E-16
3.053317E+03	1.065332E-14	1.701104E-16
3.063262E+03	1.069841E-14	1.697776E-16
3.073208E+03	1.074728E-14	1.695067E-16
3.083154E+03	1.080087E-14	1.693117E-16
3.093099E+03	1.085927E-14	1.691924E-16
3.103045E+03	1.092327E-14	1.691594E-16
3.112991E+03	1.099324E-14	1.692166E-16
3.122936E+03	1.107044E-14	1.693818E-16
3.132882E+03	1.115485E-14	1.696527E-16
3.142828E+03	1.124737E-14	1.700406E-16
3.152773E+03	1.134892E-14	1.705572E-16
3.162719E+03	1.146023E-14	1.712111E-16
3.172665E+03	1.158165E-14	1.720049E-16
3.182610E+03	1.171463E-14	1.729574E-16
3.192556E+03	1.185962E-14	1.740722E-16
3.202502E+03	1.201772E-14	1.753626E-16
3.212447E+03	1.218969E-14	1.768361E-16
3.222393E+03	1.237676E-14	1.785071E-16
3.232339E+03	1.258000E-14	1.803875E-16
3.242284E+03	1.280054E-14	1.824898E-16
3.252230E+03	1.303941E-14	1.848243E-16
3.262175E+03	1.329810E-14	1.874078E-16
3.272121E+03	1.357798E-14	1.902553E-16
3.282067E+03	1.388031E-14	1.933795E-16
3.292012E+03	1.420686E-14	1.968000E-16
3.301958E+03	1.455907E-14	2.005313E-16
3.311904E+03	1.493892E-14	2.045953E-16
3.321849E+03	1.534806E-14	2.090085E-16
3.331795E+03	1.578848E-14	2.137918E-16
3.341741E+03	1.626228E-14	2.189670E-16
3.351686E+03	1.677173E-14	2.245576E-16
3.361632E+03	1.731924E-14	2.305889E-16
3.371578E+03	1.790712E-14	2.370836E-16
3.381523E+03	1.853818E-14	2.440711E-16
3.391469E+03	1.921427E-14	2.515671E-16
3.392200E+03	1.883694E-14	2.465260E-16
3.395203E+03	1.889102E-14	2.468193E-16
3.398206E+03	1.894377E-14	2.470938E-16
3.401210E+03	1.895950E-14	2.468851E-16
3.404213E+03	1.898186E-14	2.467630E-16
3.407216E+03	1.896359E-14	2.461138E-16
3.410220E+03	1.897036E-14	2.457910E-16
3.413223E+03	1.902539E-14	2.460931E-16
3.416226E+03	1.909643E-14	2.466009E-16
3.419229E+03	1.919395E-14	2.474479E-16
3.422233E+03	1.926701E-14	2.479772E-16
3.425237E+03	1.935964E-14	2.487560E-16
3.428239E+03	1.954626E-14	2.507377E-16
3.431243E+03	1.977364E-14	2.532347E-16
3.434246E+03	1.999068E-14	2.555908E-16
3.437250E+03	2.021597E-14	2.580445E-16
3.440252E+03	2.048802E-14	2.610858E-16
3.443256E+03	2.076259E-14	2.641489E-16
3.446260E+03	2.103501E-14	2.671745E-16
3.449263E+03	2.132280E-14	2.703849E-16
3.452266E+03	2.165524E-14	2.741500E-16
3.455269E+03	2.197623E-14	2.777577E-16
3.458273E+03	2.230211E-14	2.814154E-16
3.461277E+03	2.267867E-14	2.856993E-16
3.464279E+03	2.306725E-14	2.901205E-16
3.467283E+03	2.346199E-14	2.946045E-16
3.470286E+03	2.384408E-14	2.989152E-16
3.473290E+03	2.426878E-14	3.037452E-16
3.476293E+03	2.470202E-14	3.086664E-16
3.479296E+03	2.518390E-14	3.141782E-16
3.482300E+03	2.569208E-14	3.199997E-16
3.485303E+03	2.619825E-14	3.257776E-16
3.488306E+03	2.671185E-14	3.316292E-16
3.491309E+03	2.724234E-14	3.376712E-16
3.494313E+03	2.778025E-14	3.437857E-16
3.497317E+03	2.833506E-14	3.500895E-16
3.500319E+03	2.887715E-14	3.562165E-16
3.503323E+03	2.941598E-14	3.622837E-16
3.506326E+03	2.992777E-14	3.679993E-16
3.509330E+03	3.042197E-14	3.734808E-16
3.512333E+03	3.086882E-14	3.783649E-16
3.515336E+03	3.128131E-14	3.828129E-16
3.518340E+03	3.163796E-14	3.865645E-16
3.521343E+03	3.199459E-14	3.903040E-16
3.524346E+03	3.224523E-14	3.927409E-16
3.527350E+03	3.241353E-14	3.941685E-16
3.530353E+03	3.256729E-14	3.954150E-16
3.533357E+03	3.267666E-14	3.961193E-16
3.536359E+03	3.274637E-14	3.963413E-16
3.539363E+03	3.281334E-14	3.965290E-16
3.542367E+03	3.280117E-14	3.957609E-16
3.545370E+03	3.282441E-14	3.954214E-16
3.548373E+03	3.283770E-14	3.949632E-16
3.551376E+03	3.283507E-14	3.943144E-16
3.554380E+03	3.280214E-14	3.933040E-16
3.557382E+03	3.276640E-14	3.922627E-16
3.560386E+03	3.271589E-14	3.910473E-16
3.563390E+03	3.266496E-14	3.898301E-16
3.566393E+03	3.266512E-14	3.892247E-16
3.569396E+03	3.268529E-14	3.888587E-16
3.572399E+03	3.268832E-14	3.882893E-16
3.575403E+03	3.269698E-14	3.877878E-16
3.578407E+03	3.275687E-14	3.878934E-16
3.581410E+03	3.282365E-14	3.880793E-16
3.584413E+03	3.288411E-14	3.881893E-16
3.587416E+03	3.299349E-14	3.888744E-16
3.590420E+03	3.310739E-14	3.896094E-16
3.593423E+03	3.323183E-14	3.904651E-16
3.596426E+03	3.332715E-14	3.909752E-16
3.599430E+03	3.338493E-14	3.910428E-16
3.602433E+03	3.346285E-14	3.913445E-16
3.605437E+03	3.349598E-14	3.911210E-16
3.608439E+03	3.355767E-14	3.912299E-16
3.611443E+03	3.360222E-14	3.911375E-16
3.614447E+03	3.359233E-14	3.904111E-16
3.617449E+03	3.355684E-14	3.893888E-16
3.620453E+03	3.345241E-14	3.875692E-16
3.623456E+03	3.337173E-14	3.860284E-16
3.626460E+03	3.327987E-14	3.843619E-16
3.629463E+03	3.307809E-14	3.814316E-16
3.632466E+03	3.279165E-14	3.775338E-16
3.635470E+03	3.246749E-14	3.732130E-16
3.638473E+03	3.209596E-14	3.683606E-16
3.641476E+03	3.163851E-14	3.625373E-16
3.644480E+03	3.113489E-14	3.562022E-16
3.647483E+03	3.058991E-14	3.494130E-16
3.650487E+03	3.000599E-14	3.421994E-16
3.653489E+03	2.933733E-14	3.340422E-16
3.656493E+03	2.863456E-14	3.255212E-16
3.659497E+03	2.790612E-14	3.167343E-16
3.662500E+03	2.712310E-14	3.073551E-16
3.665503E+03	2.630721E-14	2.976324E-16
3.668506E+03	2.546690E-14	2.876631E-16
3.671510E+03	2.463837E-14	2.778571E-16
3.674513E+03	2.378547E-14	2.678065E-16
3.677516E+03	2.296731E-14	2.581772E-16
3.680520E+03	2.214893E-14	2.485749E-16
3.683523E+03	2.135087E-14	2.392297E-16
3.686527E+03	2.059484E-14	2.303835E-16
3.689529E+03	1.988811E-14	2.221153E-16
3.692533E+03	1.923070E-14	2.144222E-16
3.695537E+03	1.863588E-14	2.074497E-16
3.698540E+03	1.806266E-14	2.007387E-16
3.701543E+03	1.751347E-14	1.943149E-16
3.704546E+03	1.698349E-14	1.881237E-16
3.707550E+03	1.653785E-14	1.828842E-16
3.710554E+03	1.613073E-14	1.780860E-16
3.713556E+03	1.578506E-14	1.739797E-16
3.716560E+03	1.545258E-14	1.700309E-16
3.719563E+03	1.517551E-14	1.667027E-16
3.722567E+03	1.494420E-14	1.638861E-16
3.725569E+03	1.478998E-14	1.619219E-16
3.728573E+03	1.467429E-14	1.603839E-16
3.731577E+03	1.459107E-14	1.592042E-16
3.734580E+03	1.456202E-14	1.586172E-16
3.737583E+03	1.456783E-14	1.584101E-16
3.740586E+03	1.460731E-14	1.585678E-16
3.743590E+03	1.468285E-14	1.591143E-16
3.746594E+03	1.474865E-14	1.595523E-16
3.749596E+03	1.483725E-14	1.602337E-16
3.752600E+03	1.489804E-14	1.606115E-16
3.755603E+03	1.498404E-14	1.612578E-16
3.758607E+03	1.507836E-14	1.619898E-16
3.761610E+03	1.521712E-14	1.631946E-16
3.764613E+03	1.535819E-14	1.644183E-16
3.767617E+03	1.553042E-14	1.659692E-16
3.770619E+03	1.573864E-14	1.678971E-16
3.773623E+03	1.597920E-14	1.701610E-16
3.776627E+03	1.628939E-14	1.731554E-16
3.779630E+03	1.667157E-14	1.769013E-16
3.782634E+03	1.711368E-14	1.812670E-16
3.785636E+03	1.761448E-14	1.862359E-16
3.788640E+03	1.813185E-14	1.913599E-16
3.791643E+03	1.874993E-14	1.975245E-16
3.794647E+03	1.946984E-14	2.047356E-16
3.797650E+03	2.027231E-14	2.127851E-16
3.800653E+03	2.112003E-14	2.212771E-16
3.803657E+03	2.201776E-14	2.302588E-16
3.806659E+03	2.294628E-14	2.395266E-16
3.809663E+03	2.391152E-14	2.491404E-16
3.812667E+03	2.494230E-14	2.593976E-16
3.815670E+03	2.600013E-14	2.698949E-16
3.818674E+03	2.705861E-14	2.803569E-16
3.821676E+03	2.814651E-14	2.910813E-16
3.824680E+03	2.920144E-14	3.014220E-16
3.827684E+03	3.025819E-14	3.117392E-16
3.830686E+03	3.133352E-14	3.222055E-16
3.833690E+03	3.242382E-14	3.327821E-16
3.836693E+03	3.347635E-14	3.429281E-16
3.839697E+03	3.454264E-14	3.531723E-16
3.842699E+03	3.558675E-14	3.631474E-16
3.845703E+03	3.661706E-14	3.729394E-16
3.848707E+03	3.768265E-14	3.830483E-16
3.851710E+03	3.875955E-14	3.932288E-16
3.854713E+03	3.981666E-14	4.031653E-16
3.857716E+03	4.084201E-14	4.127375E-16
3.860720E+03	4.185117E-14	4.221046E-16
3.863724E+03	4.281067E-14	4.309305E-16
3.866726E+03	4.374087E-14	4.394230E-16
3.869730E+03	4.463103E-14	4.474755E-16
3.872733E+03	4.546685E-14	4.549476E-16
3.875737E+03	4.625076E-14	4.618666E-16
3.878740E+03	4.696847E-14	4.680938E-16
3.881743E+03	4.760691E-14	4.735023E-16
3.884747E+03	4.816496E-14	4.780861E-16
3.887750E+03	4.862120E-14	4.816379E-16
3.890753E+03	4.901390E-14	4.845425E-16
3.893757E+03	4.930255E-14	4.864035E-16
3.896760E+03	4.946820E-14	4.870408E-16
3.899764E+03	4.952882E-14	4.866386E-16
3.902766E+03	4.951311E-14	4.854848E-16
3.905770E+03	4.941753E-14	4.835491E-16
3.908773E+03	4.922671E-14	4.806865E-16
3.911777E+03	4.894549E-14	4.769499E-16
3.914780E+03	4.858466E-14	4.724502E-16
3.917783E+03	4.816570E-14	4.674002E-16
3.920787E+03	4.766608E-14	4.615854E-16
3.923790E+03	4.710370E-14	4.551841E-16
3.926793E+03	4.647509E-14	4.481667E-16
3.929797E+03	4.581472E-14	4.408686E-16
3.932800E+03	4.514401E-14	4.334978E-16
3.935804E+03	4.447130E-14	4.261348E-16
3.938806E+03	4.379658E-14	4.187802E-16
3.941810E+03	4.310326E-14	4.112750E-16
3.944814E+03	4.239371E-14	4.036436E-16
3.947817E+03	4.169169E-14	3.961125E-16
3.950820E+03	4.097112E-14	3.884345E-16
3.953823E+03	4.029835E-14	3.812379E-16
3.956827E+03	3.962834E-14	3.740950E-16
3.959829E+03	3.898597E-14	3.672402E-16
3.962833E+03	3.839962E-14	3.609381E-16
3.965837E+03	3.788934E-14	3.553737E-16
3.968840E+03	3.743734E-14	3.503760E-16
3.971844E+03	3.704001E-14	3.459077E-16
3.974846E+03	3.670794E-14	3.420645E-16
3.977850E+03	3.644817E-14	3.389074E-16
3.980854E+03	3.625117E-14	3.363440E-16
3.983856E+03	3.614169E-14	3.346000E-16
3.986860E+03	3.614445E-14	3.338979E-16
3.989863E+03	3.628177E-14	3.344369E-16
3.992867E+03	3.650632E-14	3.357740E-16
3.995871E+03	3.677320E-14	3.374916E-16
3.998873E+03	3.708592E-14	3.396198E-16
4.001877E+03	3.748803E-14	3.425535E-16
4.004880E+03	3.793470E-14	3.458789E-16
4.007883E+03	3.842940E-14	3.496253E-16
4.010887E+03	3.897798E-14	3.538426E-16
4.013890E+03	3.953448E-14	3.581116E-16
4.016894E+03	4.010950E-14	3.625279E-16
4.019896E+03	4.069712E-14	3.670376E-16
4.022900E+03	4.124558E-14	3.711737E-16
4.025903E+03	4.178904E-14	3.752457E-16
4.028907E+03	4.229339E-14	3.789485E-16
4.031911E+03	4.276692E-14	3.823587E-16
4.034913E+03	4.316150E-14	3.850491E-16
4.037917E+03	4.353355E-14	3.875264E-16
4.040920E+03	4.384202E-14	3.894276E-16
4.043923E+03	4.413040E-14	3.911425E-16
4.046927E+03	4.440340E-14	3.927133E-16
4.049930E+03	4.461647E-14	3.937484E-16
4.052934E+03	4.476028E-14	3.941690E-16
4.055936E+03	4.485600E-14	3.941659E-16
4.058940E+03	4.491540E-14	3.938442E-16
4.061944E+03	4.494905E-14	3.932992E-16
4.064947E+03	4.495464E-14	3.925122E-16
4.067950E+03	4.489941E-14	3.911997E-16
4.070953E+03	4.478693E-14	3.893958E-16
4.073957E+03	4.463597E-14	3.872669E-16
4.076960E+03	4.445709E-14	3.849066E-16
4.079963E+03	4.425151E-14	3.823272E-16
4.082967E+03	4.402273E-14	3.795601E-16
4.085970E+03	4.375327E-14	3.764563E-16
4.088974E+03	4.349572E-14	3.734698E-16
4.091976E+03	4.319636E-14	3.701398E-16
4.094980E+03	4.288090E-14	3.666879E-16
4.097984E+03	4.256921E-14	3.632848E-16
4.100987E+03	4.227647E-14	3.600597E-16
4.103990E+03	4.198049E-14	3.568232E-16
4.106993E+03	4.166493E-14	3.534365E-16
4.109997E+03	4.132981E-14	3.499010E-16
4.113001E+03	4.100547E-14	3.464739E-16
4.116003E+03	4.070239E-14	3.432435E-16
4.119007E+03	4.038559E-14	3.399137E-16
4.122010E+03	4.007255E-14	3.366324E-16
4.125014E+03	3.976095E-14	3.333798E-16
4.128017E+03	3.946942E-14	3.303122E-16
4.131020E+03	3.919678E-14	3.274181E-16
4.134024E+03	3.893603E-14	3.246387E-16
4.137027E+03	3.869531E-14	3.220411E-16
4.140030E+03	3.844319E-14	3.193635E-16
4.143033E+03	3.816456E-14	3.164807E-16
4.146037E+03	3.788849E-14	3.136349E-16
4.149041E+03	3.759873E-14	3.106914E-16
4.152043E+03	3.731155E-14	3.077854E-16
4.155047E+03	3.700022E-14	3.046962E-16
4.158050E+03	3.671820E-14	3.018645E-16
4.161054E+03	3.644341E-14	2.991078E-16
4.164057E+03	3.615724E-14	2.962735E-16
4.167060E+03	3.585042E-14	2.932858E-16
4.170064E+03	3.554851E-14	2.903544E-16
4.173067E+03	3.523175E-14	2.873180E-16
4.176070E+03	3.494661E-14	2.845554E-16
4.179074E+03	3.466634E-14	2.818479E-16
4.182077E+03	3.439328E-14	2.792141E-16
4.185081E+03	3.412975E-14	2.766726E-16
4.188083E+03	3.383745E-14	2.739132E-16
4.191087E+03	3.351988E-14	2.709648E-16
4.194090E+03	3.318517E-14	2.678938E-16
4.197093E+03	3.285998E-14	2.649159E-16
4.200097E+03	3.252809E-14	2.618996E-16
4.203100E+03	3.217096E-14	2.586961E-16
4.206104E+03	3.180248E-14	2.554177E-16
4.209106E+03	3.143426E-14	2.521576E-16
4.212110E+03	3.104891E-14	2.487762E-16
4.215114E+03	3.065570E-14	2.453480E-16
4.218117E+03	3.023726E-14	2.417342E-16
4.221121E+03	2.979128E-14	2.379166E-16
4.224123E+03	2.932703E-14	2.339698E-16
4.227127E+03	2.885955E-14	2.300137E-16
4.230131E+03	2.840738E-14	2.261956E-16
4.233134E+03	2.795428E-14	2.223858E-16
4.236137E+03	2.751184E-14	2.186760E-16
4.239140E+03	2.705690E-14	2.148818E-16
4.242144E+03	2.660680E-14	2.111407E-16
4.245147E+03	2.621595E-14	2.078837E-16
4.248150E+03	2.587159E-14	2.050083E-16
4.251154E+03	2.554825E-14	2.023119E-16
4.254157E+03	2.524707E-14	1.998029E-16
4.257161E+03	2.496343E-14	1.974441E-16
4.260163E+03	2.470080E-14	1.952626E-16
4.263167E+03	2.443948E-14	1.931024E-16
4.266171E+03	2.419916E-14	1.911185E-16
4.269173E+03	2.398329E-14	1.893380E-16
4.272177E+03	2.378493E-14	1.877055E-16
4.275180E+03	2.360638E-14	1.862388E-16
4.278184E+03	2.343724E-14	1.848556E-16
4.281187E+03	2.328328E-14	1.836010E-16
4.284190E+03	2.314911E-14	1.825112E-16
4.287194E+03	2.303936E-14	1.816224E-16
4.290197E+03	2.294706E-14	1.808796E-16
4.293200E+03	2.287453E-14	1.803008E-16
4.296204E+03	2.283217E-14	1.799678E-16
4.299207E+03	2.282689E-14	1.799351E-16
4.302211E+03	2.283557E-14	1.800205E-16
4.305213E+03	2.287901E-14	1.803879E-16
4.308217E+03	2.296184E-14	1.810739E-16
4.311220E+03	2.309329E-14	1.821517E-16
4.314224E+03	2.324214E-14	1.833751E-16
4.317227E+03	2.339796E-14	1.846619E-16
4.320230E+03	2.358504E-14	1.862041E-16
4.323234E+03	2.378485E-14	1.878557E-16
4.326237E+03	2.398236E-14	1.894980E-16
4.329240E+03	2.418680E-14	1.912041E-16
4.332244E+03	2.439702E-14	1.929651E-16
4.335247E+03	2.460029E-14	1.946803E-16
4.338251E+03	2.477115E-14	1.961481E-16
4.341253E+03	2.491653E-14	1.974231E-16
4.344257E+03	2.505380E-14	1.986425E-16
4.347261E+03	2.516790E-14	1.996868E-16
4.350264E+03	2.523685E-14	2.003809E-16
4.353267E+03	2.528264E-14	2.008988E-16
4.356270E+03	2.530873E-14	2.012676E-16
4.359274E+03	2.528966E-14	2.012839E-16
4.362278E+03	2.525898E-14	2.012143E-16
4.365280E+03	2.520630E-14	2.009750E-16
4.368284E+03	2.516863E-14	2.008614E-16
4.371287E+03	2.512632E-14	2.007162E-16
4.374291E+03	2.508746E-14	2.006040E-16
4.377293E+03	2.503815E-14	2.004135E-16
4.380297E+03	2.499577E-14	2.002834E-16
4.383301E+03	2.497768E-14	2.003532E-16
4.386303E+03	2.497346E-14	2.005394E-16
4.389307E+03	2.497847E-14	2.008053E-16
4.392310E+03	2.501705E-14	2.013467E-16
4.395314E+03	2.507644E-14	2.020616E-16
4.398318E+03	2.516129E-14	2.029881E-16
4.401320E+03	2.526696E-14	2.040892E-16
4.404324E+03	2.539460E-14	2.053751E-16
4.407327E+03	2.551760E-14	2.066306E-16
4.410330E+03	2.566606E-14	2.080995E-16
4.413334E+03	2.583302E-14	2.097264E-16
4.416337E+03	2.601271E-14	2.114647E-16
4.419341E+03	2.621321E-14	2.133806E-16
4.422343E+03	2.644033E-14	2.155219E-16
4.425347E+03	2.670912E-14	2.180127E-16
4.428350E+03	2.700683E-14	2.207499E-16
4.431354E+03	2.733231E-14	2.237252E-16
4.434358E+03	2.767978E-14	2.268921E-16
4.437360E+03	2.805734E-14	2.303177E-16
4.440364E+03	2.846845E-14	2.340320E-16
4.443367E+03	2.893860E-14	2.382457E-16
4.446371E+03	2.942493E-14	2.426078E-16
4.449374E+03	2.990430E-14	2.469275E-16
4.452377E+03	3.038018E-14	2.512337E-16
4.455381E+03	3.085256E-14	2.555260E-16
4.458383E+03	3.130754E-14	2.596889E-16
4.461387E+03	3.176018E-14	2.638471E-16
4.464391E+03	3.220238E-14	2.679328E-16
4.467394E+03	3.260750E-14	2.717239E-16
4.470397E+03	3.298713E-14	2.753152E-16
4.473400E+03	3.332157E-14	2.785414E-16
4.476404E+03	3.361199E-14	2.814104E-16
4.479408E+03	3.386764E-14	2.839979E-16
4.482410E+03	3.407348E-14	2.861758E-16
4.485414E+03	3.423414E-14	2.879815E-16
4.488417E+03	3.435540E-14	2.894616E-16
4.491421E+03	3.443960E-14	2.906339E-16
4.494423E+03	3.449481E-14	2.915651E-16
4.497427E+03	3.451991E-14	2.922446E-16
4.500431E+03	3.451141E-14	2.926412E-16
4.503434E+03	3.448783E-14	2.929110E-16
4.506437E+03	3.443644E-14	2.929445E-16
4.509440E+03	3.435725E-14	2.927409E-16
4.512444E+03	3.427109E-14	2.924765E-16
4.515448E+03	3.418376E-14	2.922005E-16
4.518450E+03	3.409408E-14	2.919025E-16
4.521454E+03	3.399629E-14	2.915332E-16
4.524457E+03	3.390426E-14	2.912110E-16
4.527461E+03	3.382032E-14	2.909560E-16
4.530464E+03	3.373751E-14	2.907085E-16
4.533467E+03	3.366626E-14	2.905587E-16
4.536471E+03	3.360426E-14	2.904867E-16
4.539474E+03	3.355149E-14	2.904927E-16
4.542477E+03	3.350333E-14	2.905367E-16
4.545480E+03	3.345515E-14	2.905789E-16
4.548484E+03	3.340464E-14	2.905990E-16
4.551488E+03	3.335180E-14	2.905966E-16
4.554490E+03	3.327925E-14	2.904200E-16
4.557494E+03	3.320322E-14	2.902101E-16
4.560497E+03	3.312718E-14	2.899970E-16
4.563501E+03	3.302334E-14	2.895371E-16
4.566504E+03	3.291022E-14	2.889915E-16
4.569507E+03	3.276816E-14	2.881872E-16
4.572511E+03	3.260294E-14	2.871737E-16
4.575514E+03	3.240994E-14	2.859092E-16
4.578517E+03	3.219957E-14	2.844843E-16
4.581521E+03	3.199036E-14	2.830625E-16
4.584524E+03	3.174873E-14	2.813463E-16
4.587528E+03	3.147702E-14	2.793548E-16
4.590530E+03	3.120646E-14	2.773644E-16
4.593534E+03	3.089888E-14	2.750355E-16
4.596538E+03	3.057625E-14	2.725625E-16
4.599540E+03	3.023743E-14	2.699343E-16
4.602544E+03	2.988127E-14	2.671403E-16
4.605547E+03	2.951354E-14	2.642315E-16
4.608551E+03	2.914698E-14	2.613215E-16
4.611554E+03	2.875035E-14	2.581300E-16
4.614557E+03	2.835719E-14	2.549572E-16
4.617561E+03	2.796290E-14	2.517621E-16
4.620564E+03	2.757440E-14	2.486071E-16
4.623568E+03	2.719747E-14	2.455446E-16
4.626570E+03	2.682982E-14	2.425540E-16
4.629574E+03	2.647952E-14	2.397093E-16
4.632578E+03	2.615814E-14	2.371157E-16
4.635580E+03	2.585064E-14	2.346379E-16
4.638584E+03	2.554548E-14	2.321714E-16
4.641587E+03	2.527732E-14	2.300320E-16
4.644591E+03	2.502651E-14	2.280418E-16
4.647595E+03	2.477687E-14	2.260537E-16
4.650597E+03	2.453763E-14	2.241524E-16
4.653601E+03	2.431459E-14	2.223911E-16
4.656604E+03	2.409849E-14	2.206857E-16
4.659608E+03	2.389627E-14	2.191000E-16
4.662610E+03	2.370445E-14	2.176025E-16
4.665614E+03	2.351495E-14	2.161195E-16
4.668618E+03	2.335088E-14	2.148637E-16
4.671620E+03	2.317525E-14	2.134950E-16
4.674624E+03	2.300772E-14	2.121946E-16
4.677627E+03	2.284482E-14	2.109306E-16
4.680631E+03	2.269347E-14	2.097672E-16
4.683634E+03	2.255137E-14	2.086834E-16
4.686637E+03	2.241042E-14	2.076046E-16
4.689641E+03	2.228797E-14	2.066917E-16
4.692644E+03	2.216667E-14	2.057841E-16
4.695647E+03	2.204074E-14	2.048283E-16
