#wls	flux	fluxerr
1.591305E+03	7.386895E-16	2.381662E-17
1.631088E+03	6.741534E-16	2.151587E-17
1.670870E+03	6.082292E-16	1.921133E-17
1.710653E+03	5.424465E-16	1.695296E-17
1.750436E+03	4.783161E-16	1.478803E-17
1.790218E+03	4.168013E-16	1.274502E-17
1.830001E+03	3.587743E-16	1.084821E-17
1.869784E+03	3.049562E-16	9.116124E-18
1.909566E+03	2.559034E-16	7.561304E-18
1.949349E+03	2.121910E-16	6.195966E-18
1.989131E+03	1.741830E-16	5.025330E-18
2.028914E+03	1.423868E-16	4.058103E-18
2.068697E+03	1.171300E-16	3.297133E-18
2.108479E+03	9.868369E-17	2.743165E-18
2.148262E+03	8.716143E-17	2.392194E-18
2.188045E+03	8.209896E-17	2.224365E-18
2.227827E+03	8.288434E-17	2.216526E-18
2.267610E+03	8.932939E-17	2.357583E-18
2.307392E+03	1.017666E-16	2.650305E-18
2.347175E+03	1.210773E-16	3.111135E-18
2.386958E+03	1.488888E-16	3.774216E-18
2.426740E+03	1.874509E-16	4.687028E-18
2.466523E+03	2.395605E-16	5.907461E-18
2.506306E+03	3.081298E-16	7.492369E-18
2.546088E+03	3.954287E-16	9.479194E-18
2.585871E+03	5.018443E-16	1.185773E-17
2.625653E+03	6.246903E-16	1.454561E-17
2.665436E+03	7.600616E-16	1.743614E-17
2.705219E+03	9.038021E-16	2.042223E-17
2.745001E+03	1.051008E-15	2.338582E-17
2.784784E+03	1.196071E-15	2.620016E-17
2.824567E+03	1.333352E-15	2.874560E-17
2.864349E+03	1.458281E-15	3.093304E-17
2.904132E+03	1.567846E-15	3.271233E-17
2.943914E+03	1.661072E-15	3.407943E-17
2.983697E+03	1.739002E-15	3.507255E-17
2.993643E+03	1.756449E-15	3.527141E-17
3.003588E+03	1.773102E-15	3.545133E-17
3.013534E+03	1.789063E-15	3.561457E-17
3.023480E+03	1.804524E-15	3.576512E-17
3.033425E+03	1.819591E-15	3.590520E-17
3.043371E+03	1.834375E-15	3.603709E-17
3.053317E+03	1.849115E-15	3.616559E-17
3.063262E+03	1.863727E-15	3.628904E-17
3.073208E+03	1.878412E-15	3.641139E-17
3.083154E+03	1.893151E-15	3.653225E-17
3.093099E+03	1.907987E-15	3.665249E-17
3.103045E+03	1.923077E-15	3.677505E-17
3.112991E+03	1.938420E-15	3.689984E-17
3.122936E+03	1.954175E-15	3.702986E-17
3.132882E+03	1.970352E-15	3.716511E-17
3.142828E+03	1.987013E-15	3.730670E-17
3.152773E+03	2.004382E-15	3.745866E-17
3.162719E+03	2.022426E-15	3.762019E-17
3.172665E+03	2.041322E-15	3.779437E-17
3.182610E+03	2.061146E-15	3.798239E-17
3.192556E+03	2.081980E-15	3.818548E-17
3.202502E+03	2.103956E-15	3.840583E-17
3.212447E+03	2.127162E-15	3.864470E-17
3.222393E+03	2.151786E-15	3.890517E-17
3.232339E+03	2.177821E-15	3.918674E-17
3.242284E+03	2.205460E-15	3.949249E-17
3.252230E+03	2.234798E-15	3.982371E-17
3.262175E+03	2.265982E-15	4.018252E-17
3.272121E+03	2.299059E-15	4.056932E-17
3.282067E+03	2.334174E-15	4.098612E-17
3.292012E+03	2.371419E-15	4.143399E-17
3.301958E+03	2.410926E-15	4.191470E-17
3.311904E+03	2.452772E-15	4.242895E-17
3.321849E+03	2.496969E-15	4.297637E-17
3.331795E+03	2.543604E-15	4.355780E-17
3.341741E+03	2.592640E-15	4.417199E-17
3.351686E+03	2.644096E-15	4.481866E-17
3.361632E+03	2.697849E-15	4.549507E-17
3.371578E+03	2.753762E-15	4.619833E-17
3.381523E+03	2.811578E-15	4.692360E-17
3.391469E+03	2.871003E-15	4.766548E-17
3.401415E+03	2.931601E-15	4.841639E-17
3.411360E+03	2.992888E-15	4.916807E-17
3.421306E+03	3.054145E-15	4.990857E-17
3.431252E+03	3.114771E-15	5.062817E-17
3.441197E+03	3.174003E-15	5.131469E-17
3.451143E+03	3.231145E-15	5.195733E-17
3.461089E+03	3.285820E-15	5.255058E-17
3.471034E+03	3.337829E-15	5.309200E-17
3.480980E+03	3.387312E-15	5.358445E-17
3.490926E+03	3.434668E-15	5.403492E-17
3.500871E+03	3.480177E-15	5.444837E-17
3.510817E+03	3.524326E-15	5.483286E-17
3.520763E+03	3.567392E-15	5.519307E-17
3.530708E+03	3.609804E-15	5.553589E-17
3.540654E+03	3.651754E-15	5.586443E-17
3.550600E+03	3.693519E-15	5.618300E-17
3.560545E+03	3.735278E-15	5.649432E-17
3.570491E+03	3.777210E-15	5.680107E-17
3.580436E+03	3.819413E-15	5.710464E-17
3.590382E+03	3.861920E-15	5.740541E-17
3.600328E+03	3.904896E-15	5.770574E-17
3.610273E+03	3.948343E-15	5.800548E-17
3.620219E+03	3.992431E-15	5.830701E-17
3.630165E+03	4.037301E-15	5.861215E-17
3.640110E+03	4.083303E-15	5.892574E-17
3.650056E+03	4.130746E-15	5.925190E-17
3.660002E+03	4.180137E-15	5.959743E-17
3.669947E+03	4.232141E-15	5.997128E-17
3.679893E+03	4.287454E-15	6.038252E-17
3.689839E+03	4.347020E-15	6.084350E-17
3.699784E+03	4.411749E-15	6.136574E-17
3.709730E+03	4.482771E-15	6.196351E-17
3.719676E+03	4.561220E-15	6.265073E-17
3.729621E+03	4.648217E-15	6.344073E-17
3.739567E+03	4.744924E-15	6.434706E-17
3.749513E+03	4.852412E-15	6.538159E-17
3.759458E+03	4.971641E-15	6.655433E-17
3.769404E+03	5.103343E-15	6.787197E-17
3.779350E+03	5.248028E-15	6.933797E-17
3.789295E+03	5.405776E-15	7.095000E-17
3.799241E+03	5.576478E-15	7.270321E-17
3.809187E+03	5.759326E-15	7.458379E-17
3.819132E+03	5.953272E-15	7.657507E-17
3.829078E+03	6.156557E-15	7.865173E-17
3.839024E+03	6.367079E-15	8.078470E-17
3.848969E+03	6.582120E-15	8.293787E-17
3.858915E+03	6.798739E-15	8.507336E-17
3.868861E+03	7.013623E-15	8.714968E-17
3.878806E+03	7.223344E-15	8.912506E-17
3.888752E+03	7.424640E-15	9.096105E-17
3.898698E+03	7.614369E-15	9.262175E-17
3.908643E+03	7.789789E-15	9.407723E-17
3.918589E+03	7.948806E-15	9.530629E-17
3.928534E+03	8.090015E-15	9.629667E-17
3.938480E+03	8.212709E-15	9.704484E-17
3.948426E+03	8.316977E-15	9.755689E-17
3.958371E+03	8.403675E-15	9.784775E-17
3.968317E+03	8.474495E-15	9.794180E-17
3.978263E+03	8.531557E-15	9.786765E-17
3.988208E+03	8.577420E-15	9.765823E-17
3.998154E+03	8.614921E-15	9.734874E-17
4.008100E+03	8.647014E-15	9.697469E-17
4.018045E+03	8.676793E-15	9.657216E-17
4.027991E+03	8.706884E-15	9.617101E-17
4.037937E+03	8.740051E-15	9.580176E-17
4.047882E+03	8.778232E-15	9.548501E-17
4.057828E+03	8.823424E-15	9.524136E-17
4.067774E+03	8.876851E-15	9.508254E-17
4.077719E+03	8.939322E-15	9.501549E-17
4.087665E+03	9.011159E-15	9.504177E-17
4.097611E+03	9.092176E-15	9.515758E-17
4.107556E+03	9.181792E-15	9.535516E-17
4.117502E+03	9.278898E-15	9.562152E-17
4.127448E+03	9.381906E-15	9.593919E-17
4.137393E+03	9.488966E-15	9.628859E-17
4.147339E+03	9.598027E-15	9.664880E-17
4.157285E+03	9.706776E-15	9.699690E-17
4.167230E+03	9.812811E-15	9.730986E-17
4.177176E+03	9.913637E-15	9.756448E-17
4.187122E+03	1.000695E-14	9.774016E-17
4.197067E+03	1.009072E-14	9.781974E-17
4.207013E+03	1.016313E-14	9.778855E-17
4.216959E+03	1.022258E-14	9.763445E-17
4.226904E+03	1.026829E-14	9.735363E-17
4.236850E+03	1.029947E-14	9.694221E-17
4.246796E+03	1.031615E-14	9.640408E-17
4.256741E+03	1.031886E-14	9.574772E-17
4.266687E+03	1.030829E-14	9.498295E-17
4.276632E+03	1.028580E-14	9.412511E-17
4.286578E+03	1.025283E-14	9.319020E-17
4.296524E+03	1.021115E-14	9.219645E-17
4.306469E+03	1.016262E-14	9.116250E-17
4.316415E+03	1.010906E-14	9.010617E-17
4.326361E+03	1.005261E-14	8.904754E-17
4.336306E+03	9.996110E-15	8.801225E-17
4.346252E+03	9.943565E-15	8.703570E-17
4.356198E+03	9.899952E-15	8.616078E-17
4.366143E+03	9.871235E-15	8.543805E-17
4.376089E+03	9.863876E-15	8.492126E-17
4.386035E+03	9.884175E-15	8.466146E-17
4.395980E+03	9.937722E-15	8.470284E-17
4.405926E+03	1.002769E-14	8.506844E-17
4.415872E+03	1.015585E-14	8.576946E-17
4.425817E+03	1.032371E-14	8.681491E-17
4.435763E+03	1.053193E-14	8.820666E-17
4.445709E+03	1.078052E-14	8.994133E-17
4.455654E+03	1.106804E-14	9.200344E-17
4.465600E+03	1.139173E-14	9.436727E-17
4.475546E+03	1.174721E-14	9.699437E-17
4.485491E+03	1.212798E-14	9.982948E-17
4.495437E+03	1.252600E-14	1.028055E-16
4.505383E+03	1.293120E-14	1.058393E-16
4.515328E+03	1.333227E-14	1.088390E-16
4.525274E+03	1.371700E-14	1.117056E-16
4.535220E+03	1.407282E-14	1.143386E-16
4.545165E+03	1.438747E-14	1.166402E-16
4.555111E+03	1.464998E-14	1.185236E-16
4.565057E+03	1.485117E-14	1.199170E-16
4.575002E+03	1.498448E-14	1.207699E-16
4.584948E+03	1.504646E-14	1.210567E-16
4.594894E+03	1.503645E-14	1.207741E-16
4.604839E+03	1.495683E-14	1.199430E-16
4.614785E+03	1.481292E-14	1.186073E-16
4.624730E+03	1.461195E-14	1.168262E-16
4.634676E+03	1.436303E-14	1.146729E-16
4.644622E+03	1.407578E-14	1.122245E-16
4.654567E+03	1.376052E-14	1.095633E-16
4.664513E+03	1.342711E-14	1.067674E-16
4.674459E+03	1.308474E-14	1.039094E-16
4.684404E+03	1.274143E-14	1.010523E-16
4.694350E+03	1.240451E-14	9.825326E-17
4.704296E+03	1.207964E-14	9.555624E-17
4.714241E+03	1.177135E-14	9.299601E-17
4.724187E+03	1.148291E-14	9.059727E-17
4.734133E+03	1.121691E-14	8.837951E-17
4.744078E+03	1.097440E-14	8.634981E-17
4.754024E+03	1.075609E-14	8.451271E-17
4.763970E+03	1.056181E-14	8.286586E-17
4.773915E+03	1.039093E-14	8.140313E-17
4.783861E+03	1.024224E-14	8.011406E-17
4.793807E+03	1.011425E-14	7.898617E-17
4.803752E+03	1.000520E-14	7.800470E-17
4.813698E+03	9.913040E-15	7.715278E-17
4.823644E+03	9.835752E-15	7.641399E-17
4.833589E+03	9.771269E-15	7.577153E-17
4.843535E+03	9.717248E-15	7.520660E-17
4.853481E+03	9.671706E-15	7.470332E-17
4.863426E+03	9.632837E-15	7.424730E-17
4.873372E+03	9.598859E-15	7.382442E-17
4.883318E+03	9.568417E-15	7.342401E-17
4.893263E+03	9.540671E-15	7.303940E-17
4.903209E+03	9.514934E-15	7.266520E-17
4.913155E+03	9.490960E-15	7.229943E-17
4.923100E+03	9.469298E-15	7.194621E-17
4.933046E+03	9.450471E-15	7.160938E-17
4.942991E+03	9.435681E-15	7.129795E-17
4.952937E+03	9.426377E-15	7.102265E-17
4.962883E+03	9.424306E-15	7.079635E-17
4.972828E+03	9.431516E-15	7.063401E-17
4.982774E+03	9.450020E-15	7.055015E-17
4.992720E+03	9.482103E-15	7.056108E-17
5.002665E+03	9.529861E-15	7.068152E-17
5.012611E+03	9.595535E-15	7.092699E-17
5.022557E+03	9.681141E-15	7.131111E-17
5.032502E+03	9.788447E-15	7.184548E-17
5.042448E+03	9.919152E-15	7.254095E-17
5.052394E+03	1.007469E-14	7.340625E-17
5.062339E+03	1.025580E-14	7.444496E-17
5.072285E+03	1.046310E-14	7.565951E-17
5.082231E+03	1.069654E-14	7.704771E-17
5.092176E+03	1.095537E-14	7.860223E-17
5.102122E+03	1.123844E-14	8.031297E-17
5.112068E+03	1.154338E-14	8.216134E-17
5.122013E+03	1.186729E-14	8.412542E-17
5.131959E+03	1.220617E-14	8.617595E-17
5.141905E+03	1.255542E-14	8.827986E-17
5.151850E+03	1.290941E-14	9.039769E-17
5.161796E+03	1.326214E-14	9.248790E-17
5.171742E+03	1.360691E-14	9.450527E-17
5.181687E+03	1.393685E-14	9.640403E-17
5.191633E+03	1.424562E-14	9.814295E-17
5.201579E+03	1.452690E-14	9.968181E-17
5.211524E+03	1.477507E-14	1.009859E-16
5.221470E+03	1.498574E-14	1.020294E-16
5.231416E+03	1.515536E-14	1.027930E-16
5.241361E+03	1.528183E-14	1.032670E-16
5.251307E+03	1.536379E-14	1.034470E-16
5.261253E+03	1.540136E-14	1.033387E-16
5.271198E+03	1.539540E-14	1.029523E-16
5.281144E+03	1.534746E-14	1.023024E-16
5.291089E+03	1.525929E-14	1.014044E-16
5.301035E+03	1.513357E-14	1.002797E-16
5.310981E+03	1.497275E-14	9.894729E-17
5.320926E+03	1.477948E-14	9.742729E-17
5.330872E+03	1.455689E-14	9.574233E-17
5.340818E+03	1.430795E-14	9.391348E-17
5.350763E+03	1.403655E-14	9.196725E-17
5.360709E+03	1.374638E-14	8.992851E-17
5.370655E+03	1.344189E-14	8.782637E-17
5.380600E+03	1.312806E-14	8.569309E-17
5.390546E+03	1.281003E-14	8.356110E-17
5.400492E+03	1.249426E-14	8.147027E-17
5.410437E+03	1.218961E-14	7.947564E-17
5.420383E+03	1.190618E-14	7.764066E-17
5.430329E+03	1.165060E-14	7.600610E-17
5.440274E+03	1.142420E-14	7.457889E-17
5.450220E+03	1.122589E-14	7.335025E-17
5.460166E+03	1.105334E-14	7.230369E-17
5.470111E+03	1.090339E-14	7.141747E-17
5.480057E+03	1.077286E-14	7.066984E-17
5.490003E+03	1.065807E-14	7.003587E-17
5.499948E+03	1.055569E-14	6.949288E-17
5.509894E+03	1.046273E-14	6.902051E-17
5.519840E+03	1.037621E-14	6.859834E-17
5.529785E+03	1.029409E-14	6.821209E-17
5.539731E+03	1.021414E-14	6.784612E-17
5.549677E+03	1.013503E-14	6.749083E-17
5.559622E+03	1.005584E-14	6.713919E-17
5.569568E+03	9.976191E-15	6.678785E-17
5.579514E+03	9.896183E-15	6.643662E-17
5.589459E+03	9.816495E-15	6.608930E-17
5.599405E+03	9.737907E-15	6.575049E-17
5.609351E+03	9.661849E-15	6.542925E-17
5.619296E+03	9.589898E-15	6.513582E-17
5.629242E+03	9.523718E-15	6.488121E-17
5.639187E+03	9.465347E-15	6.467919E-17
5.649133E+03	9.416538E-15	6.454176E-17
5.659079E+03	9.379074E-15	6.448135E-17
5.669024E+03	9.354609E-15	6.450965E-17
5.678970E+03	9.344592E-15	6.463714E-17
5.688916E+03	9.350231E-15	6.487279E-17
5.698861E+03	9.372419E-15	6.522348E-17
5.708807E+03	9.411713E-15	6.569386E-17
5.718753E+03	9.468361E-15	6.628648E-17
5.728698E+03	9.541987E-15	6.699954E-17
5.738644E+03	9.631840E-15	6.782857E-17
5.748590E+03	9.736761E-15	6.876618E-17
5.758535E+03	9.854865E-15	6.979975E-17
5.768481E+03	9.984076E-15	7.091515E-17
5.778427E+03	1.012134E-14	7.209114E-17
5.788372E+03	1.026338E-14	7.330464E-17
5.798318E+03	1.040670E-14	7.453081E-17
5.808264E+03	1.054716E-14	7.573987E-17
5.818209E+03	1.068065E-14	7.690194E-17
5.828155E+03	1.080270E-14	7.798450E-17
5.838101E+03	1.090907E-14	7.895611E-17
5.848046E+03	1.099597E-14	7.978849E-17
5.857992E+03	1.105947E-14	8.045208E-17
5.867938E+03	1.109667E-14	8.092459E-17
5.877883E+03	1.110502E-14	8.118616E-17
5.887829E+03	1.108255E-14	8.122102E-17
5.897775E+03	1.102831E-14	8.102085E-17
5.907720E+03	1.094217E-14	8.058314E-17
5.917666E+03	1.082447E-14	7.990921E-17
5.927612E+03	1.067674E-14	7.900899E-17
5.937557E+03	1.050084E-14	7.789499E-17
5.947503E+03	1.029939E-14	7.658558E-17
5.957449E+03	1.007583E-14	7.510532E-17
5.967394E+03	9.833834E-15	7.348086E-17
5.977340E+03	9.577480E-15	7.174198E-17
5.987285E+03	9.311260E-15	6.992191E-17
5.997231E+03	9.039842E-15	6.805545E-17
6.007177E+03	8.767900E-15	6.617779E-17
6.017122E+03	8.500081E-15	6.432420E-17
6.027068E+03	8.241141E-15	6.253113E-17
6.037014E+03	7.995394E-15	6.083203E-17
6.046959E+03	7.766972E-15	5.925929E-17
6.056905E+03	7.559557E-15	5.784225E-17
6.066851E+03	7.376567E-15	5.660854E-17
6.076796E+03	7.220698E-15	5.558065E-17
6.086742E+03	7.094237E-15	5.477819E-17
6.096688E+03	6.999132E-15	5.421851E-17
6.106633E+03	6.936526E-15	5.391303E-17
6.116579E+03	6.906904E-15	5.386829E-17
6.126525E+03	6.910308E-15	5.408763E-17
6.136470E+03	6.946220E-15	5.457018E-17
6.146416E+03	7.013199E-15	5.530796E-17
6.156362E+03	7.109488E-15	5.629054E-17
6.166307E+03	7.231920E-15	5.749630E-17
6.176253E+03	7.376719E-15	5.889857E-17
6.186199E+03	7.539243E-15	6.046343E-17
6.196144E+03	7.713804E-15	6.214807E-17
6.206090E+03	7.894121E-15	6.390419E-17
6.216036E+03	8.073428E-15	6.567869E-17
6.225981E+03	8.244525E-15	6.741350E-17
6.235927E+03	8.400523E-15	6.905132E-17
6.245873E+03	8.535040E-15	7.053768E-17
6.255818E+03	8.642511E-15	7.182351E-17
6.265764E+03	8.718125E-15	7.286481E-17
6.275710E+03	8.759048E-15	7.363295E-17
6.285655E+03	8.763450E-15	7.410701E-17
6.295601E+03	8.731149E-15	7.427944E-17
6.305546E+03	8.663687E-15	7.415714E-17
6.315492E+03	8.563574E-15	7.375546E-17
6.325438E+03	8.434701E-15	7.310206E-17
6.335383E+03	8.281745E-15	7.223215E-17
6.345329E+03	8.110261E-15	7.118959E-17
6.355275E+03	7.925985E-15	7.002102E-17
6.365220E+03	7.735029E-15	6.877768E-17
6.375166E+03	7.543207E-15	6.750958E-17
6.385112E+03	7.356222E-15	6.626713E-17
6.395057E+03	7.179350E-15	6.509823E-17
6.405003E+03	7.017460E-15	6.404844E-17
6.414949E+03	6.874585E-15	6.315683E-17
6.424894E+03	6.753877E-15	6.245542E-17
6.434840E+03	6.655740E-15	6.195147E-17
6.444786E+03	6.577693E-15	6.162539E-17
6.454731E+03	6.516408E-15	6.144904E-17
6.464677E+03	6.468190E-15	6.139005E-17
6.474623E+03	6.429843E-15	6.141994E-17
6.484568E+03	6.397972E-15	6.150752E-17
6.494514E+03	6.369832E-15	6.162713E-17
6.504460E+03	6.342713E-15	6.175274E-17
6.514405E+03	6.314265E-15	6.186123E-17
6.524351E+03	6.282725E-15	6.193468E-17
6.534297E+03	6.246628E-15	6.195775E-17
6.544242E+03	6.204809E-15	6.191770E-17
6.554188E+03	6.156668E-15	6.180726E-17
6.564134E+03	6.101665E-15	6.161962E-17
6.574079E+03	6.039952E-15	6.135490E-17
6.584025E+03	5.971566E-15	6.101212E-17
6.593971E+03	5.897144E-15	6.059651E-17
6.603916E+03	5.817119E-15	6.011136E-17
6.613862E+03	5.732333E-15	5.956435E-17
6.623808E+03	5.643527E-15	5.896237E-17
6.633753E+03	5.551668E-15	5.831484E-17
6.643699E+03	5.457557E-15	5.762967E-17
6.653644E+03	5.362063E-15	5.691575E-17
6.663590E+03	5.266104E-15	5.618265E-17
6.673536E+03	5.170363E-15	5.543768E-17
6.683481E+03	5.075541E-15	5.468850E-17
6.693427E+03	4.982340E-15	5.394290E-17
6.703373E+03	4.891213E-15	5.320617E-17
6.713318E+03	4.802612E-15	5.248367E-17
6.723264E+03	4.716905E-15	5.177992E-17
6.733210E+03	4.634383E-15	5.109867E-17
6.743155E+03	4.555337E-15	5.044370E-17
6.753101E+03	4.479838E-15	4.981644E-17
6.763047E+03	4.408049E-15	4.921932E-17
6.772992E+03	4.339858E-15	4.865168E-17
6.782938E+03	4.275404E-15	4.811572E-17
6.792884E+03	4.214641E-15	4.761149E-17
6.802829E+03	4.157349E-15	4.713710E-17
6.812775E+03	4.103644E-15	4.669440E-17
6.822721E+03	4.053200E-15	4.628020E-17
6.832666E+03	4.006098E-15	4.589592E-17
6.842612E+03	3.961996E-15	4.553810E-17
6.852558E+03	3.920963E-15	4.520796E-17
6.862503E+03	3.882723E-15	4.490273E-17
6.872449E+03	3.847139E-15	4.462120E-17
6.882395E+03	3.814147E-15	4.436294E-17
6.892340E+03	3.783617E-15	4.412678E-17
6.902286E+03	3.755426E-15	4.391158E-17
6.912232E+03	3.729456E-15	4.371622E-17
6.922177E+03	3.705527E-15	4.353884E-17
6.932123E+03	3.683667E-15	4.338000E-17
6.942069E+03	3.663639E-15	4.323710E-17
6.952014E+03	3.645411E-15	4.310996E-17
6.961960E+03	3.628887E-15	4.299761E-17
6.971906E+03	3.614040E-15	4.289988E-17
6.981851E+03	3.600642E-15	4.281421E-17
6.991797E+03	3.588733E-15	4.274118E-17
7.001742E+03	3.578150E-15	4.267898E-17
7.011688E+03	3.568795E-15	4.262652E-17
7.021634E+03	3.560564E-15	4.258266E-17
7.031579E+03	3.553419E-15	4.254700E-17
7.041525E+03	3.547180E-15	4.251744E-17
7.051471E+03	3.541796E-15	4.249345E-17
7.061416E+03	3.537073E-15	4.247273E-17
7.071362E+03	3.532950E-15	4.245459E-17
7.081308E+03	3.529286E-15	4.243737E-17
7.091253E+03	3.525869E-15	4.241854E-17
7.101199E+03	3.522615E-15	4.239711E-17
7.111145E+03	3.519365E-15	4.237122E-17
7.121090E+03	3.515959E-15	4.233894E-17
7.131036E+03	3.512300E-15	4.229913E-17
7.140982E+03	3.508081E-15	4.224813E-17
7.150927E+03	3.503202E-15	4.218477E-17
7.160873E+03	3.497569E-15	4.210796E-17
7.170819E+03	3.490951E-15	4.201496E-17
7.180764E+03	3.483195E-15	4.190403E-17
7.190710E+03	3.474232E-15	4.177438E-17
7.200656E+03	3.463865E-15	4.162373E-17
7.210601E+03	3.452057E-15	4.145176E-17
7.220547E+03	3.438652E-15	4.125671E-17
7.230493E+03	3.423659E-15	4.103882E-17
7.240438E+03	3.407047E-15	4.079788E-17
7.250384E+03	3.388813E-15	4.053401E-17
7.260330E+03	3.368915E-15	4.024687E-17
7.270275E+03	3.347556E-15	3.993911E-17
7.280221E+03	3.324689E-15	3.961035E-17
7.290167E+03	3.300513E-15	3.926315E-17
7.300112E+03	3.275183E-15	3.889958E-17
7.310058E+03	3.248885E-15	3.852205E-17
7.320004E+03	3.221828E-15	3.813324E-17
7.329949E+03	3.194243E-15	3.773610E-17
7.339895E+03	3.166378E-15	3.733372E-17
7.349840E+03	3.138560E-15	3.693014E-17
7.359786E+03	3.110918E-15	3.652702E-17
7.369732E+03	3.083857E-15	3.612924E-17
7.379677E+03	3.057640E-15	3.574002E-17
7.389623E+03	3.032522E-15	3.536240E-17
7.399569E+03	3.008678E-15	3.499848E-17
7.409514E+03	2.986334E-15	3.465093E-17
7.419460E+03	2.965696E-15	3.432215E-17
7.429406E+03	2.946949E-15	3.401427E-17
7.439351E+03	2.930251E-15	3.372909E-17
7.449297E+03	2.915736E-15	3.346808E-17
7.459243E+03	2.903510E-15	3.323239E-17
7.469188E+03	2.893652E-15	3.302285E-17
7.479134E+03	2.886151E-15	3.283920E-17
7.489080E+03	2.881171E-15	3.268323E-17
7.499025E+03	2.878584E-15	3.255334E-17
7.508971E+03	2.878440E-15	3.245001E-17
7.518917E+03	2.880708E-15	3.237276E-17
7.528862E+03	2.885406E-15	3.232166E-17
7.538808E+03	2.892329E-15	3.229433E-17
7.548754E+03	2.901469E-15	3.229058E-17
7.558699E+03	2.912808E-15	3.231012E-17
7.568645E+03	2.926107E-15	3.235024E-17
7.578591E+03	2.941405E-15	3.241131E-17
7.588536E+03	2.958448E-15	3.249052E-17
7.598482E+03	2.977265E-15	3.258817E-17
7.608428E+03	2.997664E-15	3.270219E-17
7.618373E+03	3.019521E-15	3.283126E-17
7.628319E+03	3.042707E-15	3.297404E-17
7.638265E+03	3.067008E-15	3.312835E-17
7.648210E+03	3.092512E-15	3.329525E-17
7.658156E+03	3.118837E-15	3.347080E-17
7.668101E+03	3.145900E-15	3.365429E-17
7.678047E+03	3.173606E-15	3.384496E-17
7.687993E+03	3.201612E-15	3.403939E-17
7.697938E+03	3.229876E-15	3.423748E-17
7.707884E+03	3.258187E-15	3.443729E-17
7.717830E+03	3.286147E-15	3.463500E-17
