#wls	flux	fluxerr
1.591305E+03	9.415353E-16	2.840001E-17
1.631088E+03	8.671441E-16	2.588199E-17
1.670870E+03	7.891177E-16	2.330127E-17
1.710653E+03	7.091772E-16	2.071245E-17
1.750436E+03	6.292644E-16	1.817426E-17
1.790218E+03	5.508245E-16	1.572869E-17
1.830001E+03	4.752222E-16	1.341350E-17
1.869784E+03	4.037556E-16	1.126269E-17
1.909566E+03	3.376121E-16	9.305374E-18
1.949349E+03	2.779915E-16	7.569303E-18
1.989131E+03	2.259959E-16	6.077890E-18
2.028914E+03	1.825594E-16	4.848496E-18
2.068697E+03	1.482978E-16	3.888795E-18
2.108479E+03	1.234595E-16	3.196048E-18
2.148262E+03	1.079010E-16	2.757142E-18
2.188045E+03	1.007447E-16	2.540636E-18
2.227827E+03	1.010988E-16	2.515945E-18
2.267610E+03	1.087076E-16	2.669344E-18
2.307392E+03	1.240258E-16	3.004757E-18
2.347175E+03	1.483063E-16	3.544691E-18
2.386958E+03	1.837615E-16	4.332742E-18
2.426740E+03	2.336331E-16	5.433695E-18
2.466523E+03	3.018869E-16	6.924934E-18
2.506306E+03	3.928967E-16	8.888192E-18
2.546088E+03	5.104703E-16	1.138723E-17
2.585871E+03	6.567418E-16	1.444437E-17
2.625653E+03	8.306177E-16	1.800951E-17
2.665436E+03	1.028209E-15	2.197432E-17
2.705219E+03	1.243232E-15	2.618503E-17
2.745001E+03	1.467096E-15	3.044789E-17
2.784784E+03	1.689602E-15	3.454702E-17
2.824567E+03	1.900763E-15	3.828335E-17
2.864349E+03	2.091815E-15	4.149444E-17
2.904132E+03	2.257110E-15	4.408937E-17
2.943914E+03	2.394542E-15	4.605219E-17
2.983697E+03	2.505751E-15	4.744040E-17
2.993643E+03	2.529961E-15	4.771012E-17
3.003588E+03	2.552823E-15	4.795124E-17
3.013534E+03	2.574479E-15	4.816679E-17
3.023480E+03	2.595117E-15	4.836051E-17
3.033425E+03	2.614981E-15	4.853721E-17
3.043371E+03	2.634236E-15	4.870014E-17
3.053317E+03	2.653212E-15	4.885551E-17
3.063262E+03	2.671884E-15	4.900297E-17
3.073208E+03	2.690308E-15	4.914361E-17
3.083154E+03	2.708677E-15	4.928106E-17
3.093099E+03	2.727058E-15	4.941654E-17
3.103045E+03	2.745588E-15	4.955257E-17
3.112991E+03	2.764214E-15	4.968818E-17
3.122936E+03	2.783278E-15	4.982949E-17
3.132882E+03	2.802736E-15	4.997563E-17
3.142828E+03	2.822744E-15	5.012929E-17
3.152773E+03	2.843458E-15	5.029311E-17
3.162719E+03	2.864976E-15	5.046868E-17
3.172665E+03	2.887462E-15	5.065869E-17
3.182610E+03	2.911020E-15	5.086477E-17
3.192556E+03	2.935817E-15	5.108962E-17
3.202502E+03	2.961965E-15	5.133491E-17
3.212447E+03	2.989636E-15	5.160335E-17
3.222393E+03	3.018949E-15	5.189663E-17
3.232339E+03	3.050023E-15	5.221651E-17
3.242284E+03	3.083042E-15	5.256573E-17
3.252230E+03	3.118133E-15	5.294608E-17
3.262175E+03	3.155486E-15	5.336035E-17
3.272121E+03	3.195238E-15	5.381039E-17
3.282067E+03	3.237531E-15	5.429809E-17
3.292012E+03	3.282512E-15	5.482543E-17
3.301958E+03	3.330391E-15	5.539534E-17
3.311904E+03	3.381326E-15	5.600990E-17
3.321849E+03	3.435485E-15	5.667124E-17
3.331795E+03	3.493036E-15	5.738154E-17
3.341741E+03	3.554097E-15	5.814204E-17
3.351686E+03	3.618889E-15	5.895565E-17
3.361632E+03	3.687497E-15	5.982306E-17
3.371578E+03	3.760065E-15	6.074586E-17
3.381523E+03	3.836538E-15	6.172241E-17
3.391469E+03	3.916671E-15	6.274805E-17
3.401415E+03	4.000273E-15	6.381905E-17
3.411360E+03	4.086663E-15	6.492395E-17
3.421306E+03	4.175101E-15	6.605057E-17
3.431252E+03	4.264534E-15	6.718197E-17
3.441197E+03	4.353716E-15	6.829846E-17
3.451143E+03	4.441302E-15	6.937920E-17
3.461089E+03	4.526373E-15	7.041025E-17
3.471034E+03	4.608934E-15	7.139228E-17
3.480980E+03	4.689729E-15	7.233734E-17
3.490926E+03	4.769474E-15	7.325683E-17
3.500871E+03	4.848851E-15	7.416151E-17
3.510817E+03	4.928470E-15	7.506078E-17
3.520763E+03	5.008617E-15	7.595906E-17
3.530708E+03	5.089531E-15	7.685991E-17
3.540654E+03	5.171286E-15	7.776439E-17
3.550600E+03	5.253749E-15	7.867032E-17
3.560545E+03	5.336638E-15	7.957339E-17
3.570491E+03	5.419477E-15	8.046641E-17
3.580436E+03	5.501886E-15	8.134382E-17
3.590382E+03	5.583140E-15	8.219499E-17
3.600328E+03	5.662577E-15	8.301044E-17
3.610273E+03	5.739517E-15	8.378057E-17
3.620219E+03	5.813309E-15	8.449636E-17
3.630165E+03	5.883434E-15	8.515090E-17
3.640110E+03	5.949680E-15	8.574180E-17
3.650056E+03	6.012205E-15	8.627199E-17
3.660002E+03	6.071551E-15	8.674992E-17
3.669947E+03	6.128674E-15	8.718975E-17
3.679893E+03	6.185285E-15	8.761610E-17
3.689839E+03	6.243395E-15	8.805739E-17
3.699784E+03	6.305732E-15	8.855168E-17
3.709730E+03	6.375467E-15	8.914248E-17
3.719676E+03	6.456299E-15	8.987993E-17
3.729621E+03	6.552155E-15	9.081644E-17
3.739567E+03	6.667332E-15	9.200857E-17
3.749513E+03	6.806271E-15	9.351380E-17
3.759458E+03	6.973133E-15	9.538478E-17
3.769404E+03	7.171878E-15	9.767039E-17
3.779350E+03	7.405890E-15	1.004108E-16
3.789295E+03	7.677667E-15	1.036333E-16
3.799241E+03	7.988448E-15	1.073478E-16
3.809187E+03	8.337987E-15	1.115442E-16
3.819132E+03	8.724290E-15	1.161888E-16
3.829078E+03	9.143087E-15	1.212186E-16
3.839024E+03	9.588169E-15	1.265459E-16
3.848969E+03	1.005113E-14	1.320558E-16
3.858915E+03	1.052163E-14	1.376097E-16
3.868861E+03	1.098800E-14	1.430547E-16
3.878806E+03	1.143783E-14	1.482308E-16
3.888752E+03	1.185868E-14	1.529807E-16
3.898698E+03	1.223924E-14	1.571645E-16
3.908643E+03	1.256965E-14	1.606635E-16
3.918589E+03	1.284285E-14	1.633969E-16
3.928534E+03	1.305468E-14	1.653224E-16
3.938480E+03	1.320407E-14	1.664376E-16
3.948426E+03	1.329346E-14	1.667841E-16
3.958371E+03	1.332831E-14	1.664410E-16
3.968317E+03	1.331653E-14	1.655162E-16
3.978263E+03	1.326753E-14	1.641345E-16
3.988208E+03	1.319185E-14	1.624323E-16
3.998154E+03	1.310026E-14	1.605462E-16
4.008100E+03	1.300301E-14	1.586044E-16
4.018045E+03	1.290954E-14	1.567223E-16
4.027991E+03	1.282824E-14	1.550008E-16
4.037937E+03	1.276605E-14	1.535215E-16
4.047882E+03	1.272840E-14	1.523463E-16
4.057828E+03	1.271957E-14	1.515220E-16
4.067774E+03	1.274198E-14	1.510728E-16
4.077719E+03	1.279678E-14	1.510071E-16
4.087665E+03	1.288354E-14	1.513147E-16
4.097611E+03	1.300031E-14	1.519678E-16
4.107556E+03	1.314404E-14	1.529265E-16
4.117502E+03	1.331013E-14	1.541332E-16
4.127448E+03	1.349287E-14	1.555192E-16
4.137393E+03	1.368570E-14	1.570068E-16
4.147339E+03	1.388123E-14	1.585108E-16
4.157285E+03	1.407174E-14	1.599432E-16
4.167230E+03	1.424960E-14	1.612195E-16
4.177176E+03	1.440738E-14	1.622584E-16
4.187122E+03	1.453867E-14	1.629916E-16
4.197067E+03	1.463769E-14	1.633594E-16
4.207013E+03	1.470005E-14	1.633186E-16
4.216959E+03	1.472220E-14	1.628357E-16
4.226904E+03	1.470225E-14	1.618964E-16
4.236850E+03	1.463932E-14	1.604975E-16
4.246796E+03	1.453415E-14	1.586537E-16
4.256741E+03	1.438917E-14	1.563975E-16
4.266687E+03	1.420889E-14	1.537834E-16
4.276632E+03	1.399957E-14	1.508836E-16
4.286578E+03	1.376907E-14	1.477866E-16
4.296524E+03	1.352687E-14	1.445960E-16
4.306469E+03	1.328298E-14	1.414201E-16
4.316415E+03	1.304745E-14	1.383652E-16
4.326361E+03	1.282937E-14	1.355260E-16
4.336306E+03	1.263615E-14	1.329781E-16
4.346252E+03	1.247498E-14	1.307937E-16
4.356198E+03	1.235443E-14	1.290586E-16
4.366143E+03	1.227874E-14	1.278117E-16
4.376089E+03	1.224457E-14	1.270133E-16
4.386035E+03	1.224417E-14	1.265786E-16
4.395980E+03	1.227304E-14	1.264577E-16
4.405926E+03	1.234403E-14	1.267795E-16
4.415872E+03	1.247746E-14	1.277478E-16
4.425817E+03	1.269246E-14	1.295517E-16
4.435763E+03	1.300400E-14	1.323361E-16
4.445709E+03	1.342219E-14	1.361950E-16
4.455654E+03	1.395207E-14	1.411704E-16
4.465600E+03	1.459266E-14	1.472434E-16
4.475546E+03	1.533748E-14	1.543405E-16
4.485491E+03	1.617318E-14	1.623199E-16
4.495437E+03	1.707911E-14	1.709689E-16
4.505383E+03	1.802761E-14	1.800066E-16
4.515328E+03	1.898423E-14	1.890879E-16
4.525274E+03	1.990963E-14	1.978218E-16
4.535220E+03	2.076157E-14	2.057927E-16
4.545165E+03	2.149921E-14	2.126023E-16
4.555111E+03	2.208585E-14	2.178967E-16
4.565057E+03	2.249353E-14	2.214110E-16
4.575002E+03	2.270437E-14	2.229813E-16
4.584948E+03	2.271376E-14	2.225747E-16
4.594894E+03	2.252829E-14	2.202684E-16
4.604839E+03	2.216587E-14	2.162489E-16
4.614785E+03	2.165256E-14	2.107802E-16
4.624730E+03	2.101928E-14	2.041713E-16
4.634676E+03	2.029858E-14	1.967444E-16
4.644622E+03	1.952269E-14	1.888157E-16
4.654567E+03	1.872041E-14	1.806661E-16
4.664513E+03	1.791753E-14	1.725446E-16
4.674459E+03	1.713438E-14	1.646464E-16
4.684404E+03	1.638763E-14	1.571294E-16
4.694350E+03	1.568931E-14	1.501062E-16
4.704296E+03	1.504760E-14	1.436514E-16
4.714241E+03	1.446728E-14	1.378069E-16
4.724187E+03	1.395041E-14	1.325883E-16
4.734133E+03	1.349666E-14	1.279883E-16
4.744078E+03	1.310396E-14	1.239832E-16
4.754024E+03	1.276920E-14	1.205396E-16
4.763970E+03	1.248840E-14	1.176164E-16
4.773915E+03	1.225716E-14	1.151685E-16
4.783861E+03	1.207083E-14	1.131491E-16
4.793807E+03	1.192464E-14	1.115106E-16
4.803752E+03	1.181384E-14	1.102060E-16
4.813698E+03	1.173335E-14	1.091854E-16
4.823644E+03	1.167810E-14	1.083996E-16
4.833589E+03	1.164259E-14	1.077961E-16
4.843535E+03	1.162131E-14	1.073224E-16
4.853481E+03	1.160851E-14	1.069246E-16
4.863426E+03	1.159847E-14	1.065494E-16
4.873372E+03	1.158617E-14	1.061507E-16
4.883318E+03	1.156718E-14	1.056881E-16
4.893263E+03	1.153851E-14	1.051350E-16
4.903209E+03	1.149801E-14	1.044727E-16
4.913155E+03	1.144523E-14	1.036980E-16
4.923100E+03	1.138099E-14	1.028193E-16
4.933046E+03	1.130739E-14	1.018569E-16
4.942991E+03	1.122768E-14	1.008404E-16
4.952937E+03	1.114590E-14	9.980701E-17
4.962883E+03	1.106707E-14	9.880184E-17
4.972828E+03	1.099621E-14	9.786954E-17
4.982774E+03	1.093880E-14	9.705822E-17
4.992720E+03	1.090009E-14	9.641353E-17
5.002665E+03	1.088508E-14	9.597824E-17
5.012611E+03	1.089843E-14	9.579148E-17
5.022557E+03	1.094432E-14	9.588783E-17
5.032502E+03	1.102682E-14	9.630027E-17
5.042448E+03	1.114957E-14	9.705773E-17
5.052394E+03	1.131576E-14	9.818477E-17
5.062339E+03	1.152843E-14	9.970428E-17
5.072285E+03	1.178988E-14	1.016325E-16
5.082231E+03	1.210191E-14	1.039812E-16
5.092176E+03	1.246505E-14	1.067512E-16
5.102122E+03	1.287869E-14	1.099334E-16
5.112068E+03	1.334004E-14	1.135006E-16
5.122013E+03	1.384456E-14	1.174110E-16
5.131959E+03	1.438464E-14	1.215976E-16
5.141905E+03	1.495044E-14	1.259757E-16
5.151850E+03	1.552891E-14	1.304346E-16
5.161796E+03	1.610498E-14	1.348486E-16
5.171742E+03	1.666166E-14	1.390774E-16
5.181687E+03	1.718159E-14	1.429794E-16
5.191633E+03	1.764790E-14	1.464193E-16
5.201579E+03	1.804547E-14	1.492777E-16
5.211524E+03	1.836335E-14	1.514708E-16
5.221470E+03	1.859454E-14	1.529484E-16
5.231416E+03	1.873707E-14	1.537016E-16
5.241361E+03	1.879428E-14	1.537653E-16
5.251307E+03	1.877359E-14	1.532067E-16
5.261253E+03	1.868557E-14	1.521176E-16
5.271198E+03	1.854200E-14	1.505987E-16
5.281144E+03	1.835552E-14	1.487560E-16
5.291089E+03	1.813683E-14	1.466789E-16
5.301035E+03	1.789435E-14	1.444374E-16
5.310981E+03	1.763333E-14	1.420751E-16
5.320926E+03	1.735627E-14	1.396130E-16
5.330872E+03	1.706261E-14	1.370471E-16
5.340818E+03	1.675030E-14	1.343616E-16
5.350763E+03	1.641630E-14	1.315322E-16
5.360709E+03	1.605909E-14	1.285468E-16
5.370655E+03	1.567962E-14	1.254128E-16
5.380600E+03	1.528279E-14	1.221690E-16
5.390546E+03	1.487874E-14	1.188945E-16
5.400492E+03	1.448274E-14	1.157091E-16
5.410437E+03	1.411270E-14	1.127533E-16
5.420383E+03	1.378461E-14	1.101525E-16
5.430329E+03	1.350171E-14	1.079308E-16
5.440274E+03	1.325870E-14	1.060443E-16
5.450220E+03	1.305066E-14	1.044526E-16
5.460166E+03	1.287375E-14	1.031240E-16
5.470111E+03	1.272406E-14	1.020265E-16
5.480057E+03	1.259793E-14	1.011303E-16
5.490003E+03	1.249141E-14	1.004031E-16
5.499948E+03	1.239964E-14	9.980541E-17
5.509894E+03	1.231762E-14	9.929669E-17
5.519840E+03	1.223999E-14	9.883302E-17
5.529785E+03	1.216149E-14	9.837129E-17
5.539731E+03	1.207724E-14	9.787109E-17
5.549677E+03	1.198342E-14	9.730048E-17
5.559622E+03	1.187746E-14	9.663723E-17
5.569568E+03	1.175837E-14	9.587198E-17
5.579514E+03	1.162627E-14	9.500418E-17
5.589459E+03	1.148308E-14	9.404821E-17
5.599405E+03	1.133136E-14	9.302368E-17
5.609351E+03	1.117473E-14	9.195914E-17
5.619296E+03	1.101756E-14	9.088971E-17
5.629242E+03	1.086404E-14	8.984930E-17
5.639187E+03	1.071873E-14	8.887556E-17
5.649133E+03	1.058589E-14	8.800366E-17
5.659079E+03	1.046967E-14	8.726866E-17
5.669024E+03	1.037405E-14	8.670435E-17
5.678970E+03	1.030254E-14	8.634122E-17
5.688916E+03	1.025817E-14	8.620608E-17
5.698861E+03	1.024363E-14	8.632309E-17
5.708807E+03	1.026121E-14	8.671353E-17
5.718753E+03	1.031238E-14	8.739184E-17
5.728698E+03	1.039809E-14	8.836846E-17
5.738644E+03	1.051834E-14	8.964560E-17
5.748590E+03	1.067199E-14	9.121602E-17
5.758535E+03	1.085698E-14	9.306447E-17
5.768481E+03	1.106993E-14	9.516410E-17
5.778427E+03	1.130613E-14	9.747647E-17
5.788372E+03	1.155965E-14	9.995189E-17
5.798318E+03	1.182339E-14	1.025302E-16
5.808264E+03	1.208933E-14	1.051425E-16
5.818209E+03	1.234899E-14	1.077149E-16
5.828155E+03	1.259338E-14	1.101685E-16
5.838101E+03	1.281399E-14	1.124275E-16
5.848046E+03	1.300275E-14	1.144191E-16
5.857992E+03	1.315255E-14	1.160782E-16
5.867938E+03	1.325759E-14	1.173507E-16
5.877883E+03	1.331309E-14	1.181905E-16
5.887829E+03	1.331646E-14	1.185710E-16
5.897775E+03	1.326600E-14	1.184729E-16
5.907720E+03	1.316136E-14	1.178891E-16
5.917666E+03	1.300404E-14	1.168285E-16
5.927612E+03	1.279572E-14	1.153024E-16
5.937557E+03	1.253941E-14	1.133338E-16
5.947503E+03	1.223874E-14	1.109518E-16
5.957449E+03	1.189779E-14	1.081898E-16
5.967394E+03	1.152120E-14	1.050867E-16
5.977340E+03	1.111423E-14	1.016877E-16
5.987285E+03	1.068305E-14	9.804679E-17
5.997231E+03	1.023419E-14	9.422174E-17
6.007177E+03	9.775166E-15	9.028024E-17
6.017122E+03	9.314119E-15	8.629667E-17
6.027068E+03	8.859524E-15	8.234932E-17
6.037014E+03	8.420120E-15	7.851995E-17
6.046959E+03	8.004510E-15	7.489008E-17
6.056905E+03	7.620602E-15	7.153581E-17
6.066851E+03	7.275993E-15	6.853135E-17
6.076796E+03	6.977041E-15	6.594018E-17
6.086742E+03	6.729590E-15	6.382189E-17
6.096688E+03	6.538386E-15	6.222647E-17
6.106633E+03	6.407496E-15	6.119826E-17
6.116579E+03	6.340265E-15	6.077543E-17
6.126525E+03	6.339421E-15	6.099088E-17
6.136470E+03	6.406472E-15	6.186640E-17
6.146416E+03	6.541982E-15	6.341515E-17
6.156362E+03	6.744946E-15	6.563538E-17
6.166307E+03	7.012869E-15	6.851100E-17
6.176253E+03	7.340972E-15	7.200349E-17
6.186199E+03	7.721578E-15	7.604535E-17
6.196144E+03	8.143804E-15	8.053650E-17
6.206090E+03	8.594159E-15	8.534948E-17
6.216036E+03	9.056350E-15	9.032684E-17
6.225981E+03	9.512940E-15	9.529703E-17
6.235927E+03	9.946550E-15	1.000858E-16
6.245873E+03	1.034057E-14	1.045231E-16
6.255818E+03	1.068139E-14	1.084661E-16
6.265764E+03	1.095807E-14	1.117961E-16
6.275710E+03	1.116379E-14	1.144344E-16
6.285655E+03	1.129513E-14	1.163356E-16
6.295601E+03	1.135224E-14	1.174902E-16
6.305546E+03	1.133815E-14	1.179181E-16
6.315492E+03	1.125815E-14	1.176635E-16
6.325438E+03	1.111934E-14	1.167901E-16
6.335383E+03	1.093006E-14	1.153762E-16
6.345329E+03	1.069991E-14	1.135147E-16
6.355275E+03	1.043913E-14	1.113078E-16
6.365220E+03	1.015892E-14	1.088697E-16
6.375166E+03	9.870673E-15	1.063190E-16
6.385112E+03	9.585875E-15	1.037781E-16
6.395057E+03	9.315689E-15	1.013685E-16
6.405003E+03	9.070976E-15	9.921050E-17
6.414949E+03	8.861460E-15	9.741486E-17
6.424894E+03	8.694331E-15	9.606640E-17
6.434840E+03	8.570873E-15	9.518607E-17
6.444786E+03	8.484089E-15	9.470282E-17
6.454731E+03	8.425435E-15	9.452666E-17
6.464677E+03	8.386681E-15	9.456927E-17
6.474623E+03	8.360136E-15	9.474661E-17
6.484568E+03	8.338804E-15	9.498080E-17
6.494514E+03	8.317119E-15	9.520875E-17
6.504460E+03	8.290490E-15	9.537732E-17
6.514405E+03	8.255407E-15	9.544485E-17
6.524351E+03	8.209113E-15	9.537760E-17
6.534297E+03	8.150341E-15	9.515864E-17
6.544242E+03	8.078130E-15	9.477436E-17
6.554188E+03	7.992639E-15	9.422414E-17
6.564134E+03	7.894355E-15	9.351132E-17
6.574079E+03	7.784355E-15	9.264640E-17
6.584025E+03	7.664177E-15	9.164567E-17
6.593971E+03	7.535332E-15	9.052544E-17
6.603916E+03	7.399448E-15	8.930386E-17
6.613862E+03	7.258567E-15	8.800444E-17
6.623808E+03	7.114201E-15	8.664473E-17
6.633753E+03	6.968014E-15	8.524450E-17
6.643699E+03	6.821779E-15	8.382523E-17
6.653644E+03	6.676659E-15	8.240130E-17
6.663590E+03	6.533983E-15	8.098942E-17
6.673536E+03	6.394688E-15	7.960164E-17
6.683481E+03	6.259745E-15	7.825075E-17
6.693427E+03	6.129747E-15	7.694491E-17
6.703373E+03	6.005329E-15	7.569300E-17
6.713318E+03	5.886771E-15	7.449948E-17
6.723264E+03	5.774415E-15	7.336968E-17
6.733210E+03	5.668279E-15	7.230488E-17
6.743155E+03	5.568469E-15	7.130743E-17
6.753101E+03	5.474896E-15	7.037722E-17
6.763047E+03	5.387295E-15	6.951184E-17
6.772992E+03	5.305531E-15	6.871045E-17
6.782938E+03	5.229229E-15	6.796914E-17
6.792884E+03	5.158172E-15	6.728588E-17
6.802829E+03	5.092026E-15	6.665713E-17
6.812775E+03	5.030366E-15	6.607805E-17
6.822721E+03	4.972948E-15	6.554609E-17
6.832666E+03	4.919453E-15	6.505767E-17
6.842612E+03	4.869580E-15	6.460938E-17
6.852558E+03	4.822965E-15	6.419690E-17
6.862503E+03	4.779531E-15	6.381966E-17
6.872449E+03	4.738876E-15	6.347275E-17
6.882395E+03	4.700886E-15	6.315501E-17
6.892340E+03	4.665377E-15	6.286436E-17
6.902286E+03	4.632192E-15	6.259900E-17
6.912232E+03	4.601186E-15	6.235730E-17
6.922177E+03	4.572232E-15	6.213782E-17
6.932123E+03	4.545217E-15	6.193931E-17
6.942069E+03	4.520127E-15	6.176181E-17
6.952014E+03	4.496698E-15	6.160198E-17
6.961960E+03	4.475018E-15	6.146121E-17
6.971906E+03	4.454918E-15	6.133743E-17
6.981851E+03	4.436319E-15	6.122973E-17
6.991797E+03	4.419138E-15	6.113715E-17
7.001742E+03	4.403371E-15	6.105982E-17
7.011688E+03	4.388838E-15	6.099538E-17
7.021634E+03	4.375517E-15	6.094369E-17
7.031579E+03	4.363204E-15	6.090206E-17
7.041525E+03	4.351856E-15	6.086998E-17
7.051471E+03	4.341244E-15	6.084438E-17
7.061416E+03	4.331301E-15	6.082442E-17
7.071362E+03	4.321859E-15	6.080779E-17
7.081308E+03	4.312737E-15	6.079207E-17
7.091253E+03	4.303744E-15	6.077457E-17
7.101199E+03	4.294584E-15	6.075119E-17
7.111145E+03	4.285214E-15	6.072132E-17
7.121090E+03	4.275317E-15	6.068050E-17
7.131036E+03	4.264652E-15	6.062533E-17
7.140982E+03	4.252970E-15	6.055224E-17
7.150927E+03	4.240103E-15	6.045882E-17
7.160873E+03	4.225791E-15	6.034136E-17
7.170819E+03	4.209688E-15	6.019487E-17
7.180764E+03	4.191629E-15	6.001696E-17
7.190710E+03	4.171285E-15	5.980288E-17
7.200656E+03	4.148615E-15	5.955198E-17
7.210601E+03	4.123254E-15	5.925898E-17
7.220547E+03	4.095224E-15	5.892416E-17
7.230493E+03	4.064241E-15	5.854337E-17
7.240438E+03	4.030423E-15	5.811830E-17
7.250384E+03	3.993681E-15	5.764763E-17
7.260330E+03	3.954074E-15	5.713220E-17
7.270275E+03	3.911725E-15	5.657379E-17
7.280221E+03	3.866816E-15	5.597506E-17
7.290167E+03	3.819595E-15	5.533960E-17
7.300112E+03	3.770279E-15	5.467065E-17
7.310058E+03	3.719228E-15	5.397344E-17
7.320004E+03	3.666842E-15	5.325390E-17
7.329949E+03	3.613563E-15	5.251853E-17
7.339895E+03	3.559617E-15	5.177070E-17
7.349840E+03	3.505655E-15	5.102005E-17
7.359786E+03	3.451939E-15	5.027050E-17
7.369732E+03	3.398970E-15	4.952950E-17
7.379677E+03	3.347158E-15	4.880315E-17
7.389623E+03	3.296964E-15	4.809837E-17
7.399569E+03	3.248741E-15	4.742045E-17
7.409514E+03	3.203166E-15	4.677946E-17
7.419460E+03	3.160487E-15	4.617918E-17
7.429406E+03	3.121040E-15	4.562470E-17
7.439351E+03	3.085174E-15	4.512129E-17
7.449297E+03	3.053030E-15	4.467119E-17
7.459243E+03	3.024765E-15	4.427687E-17
7.469188E+03	3.000411E-15	4.393896E-17
7.479134E+03	2.979948E-15	4.365735E-17
7.489080E+03	2.963459E-15	4.343337E-17
7.499025E+03	2.950698E-15	4.326363E-17
7.508971E+03	2.941679E-15	4.314843E-17
7.518917E+03	2.936169E-15	4.308454E-17
7.528862E+03	2.933922E-15	4.306846E-17
7.538808E+03	2.934891E-15	4.309968E-17
7.548754E+03	2.938808E-15	4.317439E-17
7.558699E+03	2.945472E-15	4.328978E-17
7.568645E+03	2.954609E-15	4.344195E-17
7.578591E+03	2.966171E-15	4.363038E-17
7.588536E+03	2.979824E-15	4.385026E-17
7.598482E+03	2.995390E-15	4.409913E-17
7.608428E+03	3.012785E-15	4.437590E-17
7.618373E+03	3.031857E-15	4.467849E-17
7.628319E+03	3.052388E-15	4.500385E-17
7.638265E+03	3.074323E-15	4.535131E-17
7.648210E+03	3.097447E-15	4.571788E-17
7.658156E+03	3.121623E-15	4.610169E-17
7.668101E+03	3.146787E-15	4.650200E-17
7.678047E+03	3.172702E-15	4.691545E-17
7.687993E+03	3.199278E-15	4.734089E-17
7.697938E+03	3.226238E-15	4.777443E-17
7.707884E+03	3.253454E-15	4.821434E-17
7.717830E+03	3.280690E-15	4.865731E-17
