#wls	flux	fluxerr
1.591305E+03	9.513644E-16	2.926420E-17
1.631088E+03	8.766976E-16	2.668288E-17
1.670870E+03	7.982489E-16	2.403366E-17
1.710653E+03	7.177457E-16	2.137258E-17
1.750436E+03	6.371472E-16	1.876019E-17
1.790218E+03	5.579170E-16	1.623999E-17
1.830001E+03	4.814466E-16	1.385133E-17
1.869784E+03	4.090679E-16	1.162991E-17
1.909566E+03	3.420094E-16	9.606582E-18
1.949349E+03	2.815179E-16	7.810904E-18
1.989131E+03	2.287428E-16	6.267939E-18
2.028914E+03	1.846613E-16	4.996386E-18
2.068697E+03	1.499225E-16	4.004743E-18
2.108479E+03	1.247781E-16	3.290053E-18
2.148262E+03	1.090441E-16	2.837639E-18
2.188045E+03	1.018116E-16	2.614465E-18
2.227827E+03	1.021758E-16	2.588868E-18
2.267610E+03	1.098805E-16	2.746704E-18
2.307392E+03	1.253934E-16	3.092112E-18
2.347175E+03	1.499939E-16	3.648470E-18
2.386958E+03	1.859375E-16	4.460943E-18
2.426740E+03	2.365254E-16	5.596558E-18
2.466523E+03	3.057992E-16	7.135407E-18
2.506306E+03	3.982200E-16	9.162108E-18
2.546088E+03	5.176889E-16	1.174295E-17
2.585871E+03	6.664580E-16	1.490248E-17
2.625653E+03	8.436114E-16	1.859270E-17
2.665436E+03	1.045302E-15	2.270333E-17
2.705219E+03	1.265051E-15	2.707283E-17
2.745001E+03	1.493997E-15	3.149781E-17
2.784784E+03	1.721620E-15	3.575185E-17
2.824567E+03	1.937607E-15	3.962612E-17
2.864349E+03	2.132910E-15	4.295043E-17
2.904132E+03	2.301695E-15	4.562962E-17
2.943914E+03	2.441781E-15	4.764716E-17
2.983697E+03	2.554848E-15	4.906334E-17
2.993643E+03	2.579413E-15	4.933645E-17
3.003588E+03	2.602587E-15	4.957966E-17
3.013534E+03	2.624518E-15	4.979609E-17
3.023480E+03	2.645398E-15	4.998966E-17
3.033425E+03	2.665477E-15	5.016536E-17
3.043371E+03	2.684924E-15	5.032656E-17
3.053317E+03	2.704074E-15	5.047969E-17
3.063262E+03	2.722904E-15	5.062443E-17
3.073208E+03	2.741471E-15	5.076189E-17
3.083154E+03	2.759973E-15	5.089585E-17
3.093099E+03	2.778478E-15	5.102757E-17
3.103045E+03	2.797126E-15	5.115967E-17
3.112991E+03	2.815865E-15	5.129117E-17
3.122936E+03	2.835041E-15	5.142836E-17
3.132882E+03	2.854611E-15	5.157038E-17
3.142828E+03	2.874733E-15	5.171997E-17
3.152773E+03	2.895568E-15	5.187989E-17
3.162719E+03	2.917214E-15	5.205176E-17
3.172665E+03	2.939838E-15	5.223835E-17
3.182610E+03	2.963545E-15	5.244132E-17
3.192556E+03	2.988506E-15	5.266345E-17
3.202502E+03	3.014833E-15	5.290644E-17
3.212447E+03	3.042702E-15	5.317308E-17
3.222393E+03	3.072231E-15	5.346507E-17
3.232339E+03	3.103541E-15	5.378420E-17
3.242284E+03	3.136818E-15	5.413328E-17
3.252230E+03	3.172191E-15	5.451409E-17
3.262175E+03	3.209850E-15	5.492949E-17
3.272121E+03	3.249932E-15	5.538132E-17
3.282067E+03	3.292580E-15	5.587150E-17
3.292012E+03	3.337942E-15	5.640200E-17
3.301958E+03	3.386229E-15	5.697582E-17
3.311904E+03	3.437600E-15	5.759504E-17
3.321849E+03	3.492225E-15	5.826183E-17
3.331795E+03	3.550276E-15	5.897841E-17
3.341741E+03	3.611876E-15	5.974613E-17
3.351686E+03	3.677257E-15	6.056807E-17
3.361632E+03	3.746519E-15	6.144515E-17
3.371578E+03	3.819828E-15	6.237927E-17
3.381523E+03	3.897146E-15	6.336904E-17
3.391469E+03	3.978246E-15	6.440999E-17
3.401415E+03	4.062958E-15	6.549865E-17
3.411360E+03	4.150615E-15	6.662360E-17
3.421306E+03	4.240487E-15	6.777265E-17
3.431252E+03	4.331538E-15	6.892892E-17
3.441197E+03	4.422516E-15	7.007241E-17
3.451143E+03	4.512059E-15	7.118170E-17
3.461089E+03	4.599241E-15	7.224266E-17
3.471034E+03	4.684072E-15	7.325597E-17
3.480980E+03	4.767315E-15	7.423408E-17
3.490926E+03	4.849696E-15	7.518866E-17
3.500871E+03	4.931881E-15	7.613026E-17
3.510817E+03	5.014457E-15	7.706802E-17
3.520763E+03	5.097689E-15	7.800600E-17
3.530708E+03	5.181792E-15	7.894743E-17
3.540654E+03	5.266818E-15	7.989301E-17
3.550600E+03	5.352599E-15	8.084001E-17
3.560545E+03	5.438819E-15	8.178353E-17
3.570491E+03	5.524979E-15	8.271600E-17
3.580436E+03	5.610653E-15	8.363110E-17
3.590382E+03	5.695074E-15	8.451754E-17
3.600328E+03	5.777524E-15	8.536492E-17
3.610273E+03	5.857250E-15	8.616256E-17
3.620219E+03	5.933524E-15	8.690031E-17
3.630165E+03	6.005771E-15	8.757044E-17
3.640110E+03	6.073703E-15	8.816953E-17
3.650056E+03	6.137452E-15	8.870030E-17
3.660002E+03	6.197544E-15	8.917112E-17
3.669947E+03	6.254946E-15	8.959652E-17
3.679893E+03	6.311423E-15	9.000215E-17
3.689839E+03	6.369072E-15	9.041792E-17
3.699784E+03	6.430731E-15	9.088374E-17
3.709730E+03	6.499731E-15	9.144565E-17
3.719676E+03	6.579950E-15	9.215658E-17
3.729621E+03	6.675559E-15	9.307253E-17
3.739567E+03	6.791093E-15	9.425351E-17
3.749513E+03	6.931271E-15	9.576093E-17
3.759458E+03	7.100555E-15	9.765151E-17
3.769404E+03	7.303201E-15	9.997802E-17
3.779350E+03	7.542856E-15	1.027839E-16
3.789295E+03	7.822273E-15	1.060995E-16
3.799241E+03	8.142884E-15	1.099367E-16
3.809187E+03	8.504542E-15	1.142859E-16
3.819132E+03	8.905230E-15	1.191125E-16
3.829078E+03	9.340545E-15	1.243505E-16
3.839024E+03	9.803968E-15	1.299073E-16
3.848969E+03	1.028665E-14	1.356610E-16
3.858915E+03	1.077763E-14	1.414642E-16
3.868861E+03	1.126456E-14	1.471543E-16
3.878806E+03	1.173424E-14	1.525606E-16
3.888752E+03	1.217346E-14	1.575155E-16
3.898698E+03	1.257016E-14	1.618697E-16
3.908643E+03	1.291389E-14	1.654972E-16
3.918589E+03	1.319712E-14	1.683122E-16
3.928534E+03	1.341544E-14	1.702699E-16
3.938480E+03	1.356773E-14	1.713687E-16
3.948426E+03	1.365663E-14	1.716538E-16
3.958371E+03	1.368801E-14	1.712105E-16
3.968317E+03	1.367034E-14	1.701552E-16
3.978263E+03	1.361367E-14	1.686212E-16
3.988208E+03	1.352923E-14	1.667544E-16
3.998154E+03	1.342842E-14	1.646996E-16
4.008100E+03	1.332209E-14	1.625926E-16
4.018045E+03	1.322016E-14	1.605547E-16
4.027991E+03	1.313142E-14	1.586916E-16
4.037937E+03	1.306316E-14	1.570886E-16
4.047882E+03	1.302102E-14	1.558100E-16
4.057828E+03	1.300945E-14	1.549040E-16
4.067774E+03	1.303097E-14	1.543955E-16
4.077719E+03	1.308673E-14	1.542924E-16
4.087665E+03	1.317624E-14	1.545834E-16
4.097611E+03	1.329741E-14	1.552383E-16
4.107556E+03	1.344702E-14	1.562148E-16
4.117502E+03	1.362016E-14	1.574519E-16
4.127448E+03	1.381081E-14	1.588765E-16
4.137393E+03	1.401198E-14	1.604065E-16
4.147339E+03	1.421585E-14	1.619515E-16
4.157285E+03	1.441419E-14	1.634185E-16
4.167230E+03	1.459897E-14	1.647183E-16
4.177176E+03	1.476232E-14	1.657655E-16
4.187122E+03	1.489751E-14	1.664891E-16
4.197067E+03	1.499850E-14	1.668268E-16
4.207013E+03	1.506072E-14	1.667344E-16
4.216959E+03	1.508046E-14	1.661774E-16
4.226904E+03	1.505570E-14	1.651407E-16
4.236850E+03	1.498545E-14	1.636206E-16
4.246796E+03	1.487036E-14	1.616313E-16
4.256741E+03	1.471286E-14	1.592059E-16
4.266687E+03	1.451754E-14	1.564000E-16
4.276632E+03	1.429087E-14	1.532885E-16
4.286578E+03	1.404114E-14	1.499642E-16
4.296524E+03	1.377841E-14	1.465369E-16
4.306469E+03	1.351347E-14	1.431224E-16
4.316415E+03	1.325723E-14	1.398358E-16
4.326361E+03	1.301965E-14	1.367802E-16
4.336306E+03	1.280892E-14	1.340386E-16
4.346252E+03	1.263319E-14	1.316925E-16
4.356198E+03	1.250178E-14	1.298341E-16
4.366143E+03	1.241922E-14	1.285048E-16
4.376089E+03	1.238128E-14	1.276553E-16
4.386035E+03	1.237832E-14	1.271813E-16
4.395980E+03	1.240482E-14	1.270224E-16
4.405926E+03	1.247397E-14	1.273105E-16
4.415872E+03	1.260782E-14	1.282653E-16
4.425817E+03	1.282685E-14	1.300882E-16
4.435763E+03	1.314686E-14	1.329308E-16
4.445709E+03	1.357852E-14	1.368919E-16
4.455654E+03	1.412724E-14	1.420164E-16
4.465600E+03	1.479222E-14	1.482869E-16
4.475546E+03	1.556689E-14	1.556290E-16
4.485491E+03	1.643749E-14	1.638976E-16
4.495437E+03	1.738258E-14	1.728730E-16
4.505383E+03	1.837320E-14	1.822634E-16
4.515328E+03	1.937316E-14	1.917083E-16
4.525274E+03	2.034092E-14	2.007979E-16
4.535220E+03	2.123184E-14	2.090956E-16
4.545165E+03	2.200261E-14	2.161817E-16
4.555111E+03	2.261441E-14	2.216841E-16
4.565057E+03	2.303773E-14	2.253249E-16
4.575002E+03	2.325386E-14	2.269334E-16
4.584948E+03	2.325821E-14	2.264776E-16
4.594894E+03	2.305820E-14	2.240427E-16
4.604839E+03	2.267322E-14	2.198282E-16
4.614785E+03	2.213124E-14	2.141154E-16
4.624730E+03	2.146521E-14	2.072310E-16
4.634676E+03	2.070962E-14	1.995139E-16
4.644622E+03	1.989838E-14	1.912946E-16
4.654567E+03	1.906160E-14	1.828645E-16
4.664513E+03	1.822605E-14	1.744805E-16
4.674459E+03	1.741276E-14	1.663429E-16
4.684404E+03	1.663883E-14	1.586130E-16
4.694350E+03	1.591653E-14	1.514045E-16
4.704296E+03	1.525408E-14	1.447923E-16
4.714241E+03	1.465622E-14	1.388170E-16
4.724187E+03	1.412482E-14	1.334926E-16
4.734133E+03	1.365927E-14	1.288088E-16
4.744078E+03	1.325719E-14	1.247393E-16
4.754024E+03	1.291516E-14	1.212477E-16
4.763970E+03	1.262891E-14	1.182903E-16
4.773915E+03	1.239375E-14	1.158197E-16
4.783861E+03	1.220482E-14	1.137871E-16
4.793807E+03	1.205717E-14	1.121435E-16
4.803752E+03	1.194590E-14	1.108406E-16
4.813698E+03	1.186577E-14	1.098275E-16
4.823644E+03	1.181160E-14	1.090541E-16
4.833589E+03	1.177771E-14	1.084663E-16
4.843535E+03	1.175839E-14	1.080100E-16
4.853481E+03	1.174762E-14	1.076292E-16
4.863426E+03	1.173936E-14	1.072681E-16
4.873372E+03	1.172831E-14	1.068780E-16
4.883318E+03	1.170981E-14	1.064167E-16
4.893263E+03	1.168067E-14	1.058562E-16
4.903209E+03	1.163865E-14	1.051767E-16
4.913155E+03	1.158327E-14	1.043753E-16
4.923100E+03	1.151539E-14	1.034608E-16
4.933046E+03	1.143722E-14	1.024541E-16
4.942991E+03	1.135218E-14	1.013866E-16
4.952937E+03	1.126450E-14	1.002970E-16
4.962883E+03	1.117946E-14	9.923242E-17
4.972828E+03	1.110231E-14	9.823938E-17
4.982774E+03	1.103876E-14	9.736779E-17
4.992720E+03	1.099427E-14	9.666483E-17
5.002665E+03	1.097400E-14	9.617430E-17
5.012611E+03	1.098273E-14	9.593607E-17
5.022557E+03	1.102473E-14	9.598514E-17
5.032502E+03	1.110414E-14	9.635489E-17
5.042448E+03	1.122470E-14	9.707450E-17
5.052394E+03	1.138967E-14	9.816895E-17
5.062339E+03	1.160222E-14	9.966169E-17
5.072285E+03	1.186475E-14	1.015696E-16
5.082231E+03	1.217920E-14	1.039052E-16
5.092176E+03	1.254626E-14	1.066701E-16
5.102122E+03	1.296541E-14	1.098560E-16
5.112068E+03	1.343392E-14	1.134359E-16
5.122013E+03	1.394721E-14	1.173675E-16
5.131959E+03	1.449751E-14	1.215829E-16
5.141905E+03	1.507468E-14	1.259950E-16
5.151850E+03	1.566520E-14	1.304900E-16
5.161796E+03	1.625341E-14	1.349381E-16
5.171742E+03	1.682155E-14	1.391940E-16
5.181687E+03	1.735148E-14	1.431111E-16
5.191633E+03	1.782553E-14	1.465492E-16
5.201579E+03	1.822794E-14	1.493848E-16
5.211524E+03	1.854732E-14	1.515324E-16
5.221470E+03	1.877657E-14	1.529419E-16
5.231416E+03	1.891390E-14	1.536071E-16
5.241361E+03	1.896320E-14	1.535675E-16
5.251307E+03	1.893277E-14	1.528974E-16
5.261253E+03	1.883411E-14	1.516959E-16
5.271198E+03	1.868010E-14	1.500716E-16
5.281144E+03	1.848434E-14	1.481378E-16
5.291089E+03	1.825835E-14	1.459894E-16
5.301035E+03	1.801110E-14	1.437001E-16
5.310981E+03	1.774806E-14	1.413149E-16
5.320926E+03	1.747166E-14	1.388539E-16
5.330872E+03	1.718092E-14	1.363099E-16
5.340818E+03	1.687311E-14	1.336619E-16
5.350763E+03	1.654432E-14	1.308791E-16
5.360709E+03	1.619203E-14	1.279420E-16
5.370655E+03	1.581625E-14	1.248506E-16
5.380600E+03	1.542126E-14	1.216383E-16
5.390546E+03	1.501702E-14	1.183819E-16
5.400492E+03	1.461916E-14	1.152022E-16
5.410437E+03	1.424627E-14	1.122432E-16
5.420383E+03	1.391492E-14	1.096328E-16
5.430329E+03	1.362869E-14	1.073970E-16
5.440274E+03	1.338223E-14	1.054920E-16
5.450220E+03	1.317063E-14	1.038778E-16
5.460166E+03	1.299034E-14	1.025251E-16
5.470111E+03	1.283783E-14	1.014052E-16
5.480057E+03	1.270968E-14	1.004905E-16
5.490003E+03	1.260205E-14	9.974991E-17
5.499948E+03	1.251002E-14	9.914407E-17
5.509894E+03	1.242844E-14	9.863155E-17
5.519840E+03	1.235165E-14	9.816691E-17
5.529785E+03	1.227406E-14	9.770485E-17
5.539731E+03	1.219047E-14	9.720317E-17
5.549677E+03	1.209675E-14	9.662781E-17
5.559622E+03	1.199011E-14	9.595523E-17
5.569568E+03	1.186946E-14	9.517518E-17
5.579514E+03	1.173487E-14	9.428699E-17
5.589459E+03	1.158834E-14	9.330519E-17
5.599405E+03	1.143252E-14	9.224990E-17
5.609351E+03	1.127121E-14	9.115049E-17
5.619296E+03	1.110893E-14	9.004273E-17
5.629242E+03	1.095003E-14	8.896124E-17
5.639187E+03	1.079924E-14	8.794419E-17
5.649133E+03	1.066097E-14	8.702731E-17
5.659079E+03	1.053948E-14	8.624595E-17
5.669024E+03	1.043889E-14	8.563426E-17
5.678970E+03	1.036283E-14	8.522315E-17
5.688916E+03	1.031446E-14	8.503965E-17
5.698861E+03	1.029658E-14	8.510848E-17
5.708807E+03	1.031161E-14	8.545135E-17
5.718753E+03	1.036113E-14	8.608328E-17
5.728698E+03	1.044622E-14	8.701526E-17
5.738644E+03	1.056696E-14	8.825009E-17
5.748590E+03	1.072228E-14	8.978105E-17
5.758535E+03	1.091014E-14	9.159324E-17
5.768481E+03	1.112713E-14	9.365997E-17
5.778427E+03	1.136846E-14	9.594274E-17
5.788372E+03	1.162804E-14	9.839158E-17
5.798318E+03	1.189857E-14	1.009457E-16
5.808264E+03	1.217178E-14	1.035356E-16
5.818209E+03	1.243888E-14	1.060866E-16
5.828155E+03	1.269060E-14	1.085190E-16
5.838101E+03	1.291816E-14	1.107565E-16
5.848046E+03	1.311322E-14	1.127260E-16
5.857992E+03	1.326846E-14	1.143621E-16
5.867938E+03	1.337795E-14	1.156112E-16
5.877883E+03	1.343677E-14	1.164276E-16
5.887829E+03	1.344230E-14	1.167852E-16
5.897775E+03	1.339283E-14	1.166657E-16
5.907720E+03	1.328805E-14	1.160626E-16
5.917666E+03	1.312949E-14	1.149856E-16
5.927612E+03	1.291890E-14	1.134465E-16
5.937557E+03	1.265928E-14	1.114682E-16
5.947503E+03	1.235432E-14	1.090797E-16
5.957449E+03	1.200806E-14	1.063137E-16
5.967394E+03	1.162511E-14	1.032082E-16
5.977340E+03	1.121071E-14	9.980700E-17
5.987285E+03	1.077102E-14	9.616286E-17
5.997231E+03	1.031260E-14	9.233233E-17
6.007177E+03	9.843052E-15	8.838211E-17
6.017122E+03	9.370705E-15	8.438612E-17
6.027068E+03	8.904264E-15	8.042250E-17
6.037014E+03	8.452773E-15	7.657330E-17
6.046959E+03	8.025133E-15	7.292027E-17
6.056905E+03	7.629569E-15	6.953999E-17
6.066851E+03	7.273972E-15	6.650693E-17
6.076796E+03	6.964920E-15	6.388452E-17
6.086742E+03	6.708471E-15	6.173226E-17
6.096688E+03	6.509555E-15	6.010014E-17
6.106633E+03	6.372418E-15	5.903259E-17
6.116579E+03	6.300595E-15	5.856819E-17
6.126525E+03	6.296995E-15	5.874041E-17
6.136470E+03	6.363286E-15	5.957178E-17
6.146416E+03	6.500197E-15	6.107657E-17
6.156362E+03	6.706899E-15	6.325483E-17
6.166307E+03	6.981040E-15	6.609247E-17
6.176253E+03	7.317926E-15	6.955324E-17
6.186199E+03	7.709829E-15	7.357160E-17
6.196144E+03	8.145631E-15	7.804880E-17
6.206090E+03	8.611406E-15	8.285764E-17
6.216036E+03	9.090277E-15	8.784049E-17
6.225981E+03	9.564190E-15	9.282567E-17
6.235927E+03	1.001514E-14	9.763873E-17
6.245873E+03	1.042594E-14	1.021095E-16
6.255818E+03	1.078255E-14	1.060954E-16
6.265764E+03	1.107372E-14	1.094783E-16
6.275710E+03	1.129246E-14	1.121801E-16
6.285655E+03	1.143528E-14	1.141559E-16
6.295601E+03	1.150239E-14	1.153962E-16
6.305546E+03	1.149683E-14	1.159203E-16
6.315492E+03	1.142392E-14	1.157705E-16
6.325438E+03	1.129078E-14	1.150085E-16
6.335383E+03	1.110574E-14	1.137092E-16
6.345329E+03	1.087843E-14	1.119626E-16
6.355275E+03	1.061917E-14	1.098678E-16
6.365220E+03	1.033923E-14	1.075361E-16
6.375166E+03	1.005019E-14	1.050841E-16
6.385112E+03	9.763730E-15	1.026321E-16
6.395057E+03	9.491280E-15	1.003006E-16
6.405003E+03	9.244088E-15	9.821074E-17
6.414949E+03	9.032365E-15	9.647511E-17
6.424894E+03	8.863701E-15	9.518069E-17
6.434840E+03	8.739445E-15	9.434892E-17
6.444786E+03	8.652454E-15	9.390949E-17
6.454731E+03	8.593793E-15	9.377095E-17
6.464677E+03	8.554988E-15	9.384490E-17
6.474623E+03	8.528215E-15	9.404820E-17
6.484568E+03	8.506346E-15	9.430359E-17
6.494514E+03	8.483751E-15	9.454889E-17
6.504460E+03	8.455790E-15	9.473167E-17
6.514405E+03	8.418912E-15	9.481073E-17
6.524351E+03	8.370349E-15	9.475286E-17
6.534297E+03	8.308862E-15	9.454166E-17
6.544242E+03	8.233523E-15	9.416402E-17
6.554188E+03	8.144542E-15	9.361968E-17
6.564134E+03	8.042478E-15	9.291251E-17
6.574079E+03	7.928469E-15	9.205328E-17
6.584025E+03	7.804134E-15	9.105864E-17
6.593971E+03	7.671048E-15	8.994513E-17
6.603916E+03	7.530898E-15	8.873106E-17
6.613862E+03	7.385778E-15	8.743989E-17
6.623808E+03	7.237260E-15	8.608944E-17
6.633753E+03	7.087039E-15	8.469935E-17
6.643699E+03	6.936938E-15	8.329124E-17
6.653644E+03	6.788132E-15	8.187930E-17
6.663590E+03	6.641978E-15	8.048020E-17
6.673536E+03	6.499419E-15	7.910593E-17
6.683481E+03	6.361442E-15	7.776917E-17
6.693427E+03	6.228637E-15	7.647799E-17
6.703373E+03	6.101643E-15	7.524116E-17
6.713318E+03	5.980731E-15	7.406305E-17
6.723264E+03	5.866239E-15	7.294890E-17
6.733210E+03	5.758175E-15	7.189988E-17
6.743155E+03	5.656632E-15	7.091824E-17
6.753101E+03	5.561505E-15	7.000374E-17
6.763047E+03	5.472515E-15	6.915388E-17
6.772992E+03	5.389506E-15	6.836770E-17
6.782938E+03	5.312087E-15	6.764116E-17
6.792884E+03	5.240022E-15	6.697215E-17
6.802829E+03	5.172960E-15	6.635698E-17
6.812775E+03	5.110458E-15	6.579073E-17
6.822721E+03	5.052260E-15	6.527078E-17
6.832666E+03	4.998032E-15	6.479347E-17
6.842612E+03	4.947463E-15	6.435535E-17
6.852558E+03	4.900179E-15	6.395206E-17
6.862503E+03	4.856097E-15	6.358302E-17
6.872449E+03	4.814809E-15	6.324331E-17
6.882395E+03	4.776195E-15	6.293178E-17
6.892340E+03	4.740072E-15	6.264637E-17
6.902286E+03	4.706277E-15	6.238527E-17
6.912232E+03	4.674665E-15	6.214688E-17
6.922177E+03	4.645108E-15	6.192980E-17
6.932123E+03	4.617491E-15	6.173278E-17
6.942069E+03	4.591803E-15	6.155589E-17
6.952014E+03	4.567778E-15	6.139584E-17
6.961960E+03	4.545504E-15	6.125404E-17
6.971906E+03	4.524815E-15	6.112844E-17
6.981851E+03	4.505633E-15	6.101821E-17
6.991797E+03	4.487875E-15	6.092239E-17
7.001742E+03	4.471538E-15	6.084113E-17
7.011688E+03	4.456441E-15	6.077213E-17
7.021634E+03	4.442565E-15	6.071526E-17
7.031579E+03	4.429703E-15	6.066785E-17
7.041525E+03	4.417809E-15	6.062940E-17
7.051471E+03	4.406655E-15	6.059687E-17
7.061416E+03	4.396171E-15	6.056939E-17
7.071362E+03	4.386186E-15	6.054470E-17
7.081308E+03	4.376518E-15	6.052037E-17
7.091253E+03	4.366970E-15	6.049372E-17
7.101199E+03	4.357244E-15	6.046066E-17
7.111145E+03	4.347294E-15	6.042058E-17
7.121090E+03	4.336796E-15	6.036903E-17
7.131036E+03	4.325505E-15	6.030258E-17
7.140982E+03	4.313168E-15	6.021772E-17
7.150927E+03	4.299611E-15	6.011199E-17
7.160873E+03	4.284567E-15	5.998168E-17
7.170819E+03	4.267683E-15	5.982179E-17
7.180764E+03	4.248787E-15	5.962991E-17
7.190710E+03	4.227542E-15	5.940129E-17
7.200656E+03	4.203903E-15	5.913524E-17
7.210601E+03	4.177496E-15	5.882648E-17
7.220547E+03	4.148339E-15	5.847526E-17
7.230493E+03	4.116143E-15	5.807748E-17
7.240438E+03	4.081025E-15	5.763481E-17
7.250384E+03	4.042896E-15	5.714596E-17
7.260330E+03	4.001816E-15	5.661184E-17
7.270275E+03	3.957911E-15	5.603425E-17
7.280221E+03	3.911371E-15	5.541593E-17
7.290167E+03	3.862451E-15	5.476056E-17
7.300112E+03	3.811379E-15	5.407146E-17
7.310058E+03	3.758523E-15	5.335395E-17
7.320004E+03	3.704299E-15	5.261404E-17
7.329949E+03	3.649162E-15	5.185832E-17
7.339895E+03	3.593350E-15	5.109033E-17
7.349840E+03	3.537535E-15	5.031974E-17
7.359786E+03	3.481989E-15	4.955058E-17
7.369732E+03	3.427229E-15	4.879039E-17
7.379677E+03	3.373680E-15	4.804537E-17
7.389623E+03	3.321819E-15	4.732247E-17
7.399569E+03	3.272010E-15	4.662705E-17
7.409514E+03	3.224944E-15	4.596911E-17
7.419460E+03	3.180874E-15	4.535244E-17
7.429406E+03	3.140144E-15	4.478208E-17
7.439351E+03	3.103105E-15	4.426320E-17
7.449297E+03	3.069898E-15	4.379796E-17
7.459243E+03	3.040681E-15	4.338875E-17
7.469188E+03	3.015481E-15	4.303609E-17
7.479134E+03	2.994273E-15	4.273976E-17
7.489080E+03	2.977136E-15	4.250100E-17
7.499025E+03	2.963815E-15	4.231630E-17
7.508971E+03	2.954316E-15	4.218587E-17
7.518917E+03	2.948401E-15	4.210641E-17
7.528862E+03	2.945811E-15	4.207434E-17
7.538808E+03	2.946495E-15	4.208904E-17
7.548754E+03	2.950176E-15	4.214669E-17
7.558699E+03	2.956646E-15	4.224441E-17
7.568645E+03	2.965621E-15	4.237829E-17
7.578591E+03	2.977052E-15	4.254773E-17
7.588536E+03	2.990596E-15	4.274796E-17
7.598482E+03	3.006072E-15	4.297652E-17
7.608428E+03	3.023391E-15	4.323230E-17
7.618373E+03	3.042402E-15	4.351327E-17
7.628319E+03	3.062886E-15	4.381644E-17
7.638265E+03	3.084786E-15	4.414116E-17
7.648210E+03	3.107889E-15	4.448455E-17
7.658156E+03	3.132058E-15	4.484481E-17
7.668101E+03	3.157230E-15	4.522124E-17
7.678047E+03	3.183168E-15	4.561060E-17
7.687993E+03	3.209783E-15	4.601182E-17
7.697938E+03	3.236797E-15	4.642112E-17
7.707884E+03	3.264082E-15	4.683685E-17
7.717830E+03	3.291401E-15	4.725582E-17
