#wls	flux	fluxerr
1.591305E+03	5.968789E-16	2.596813E-17
1.631088E+03	5.411931E-16	2.331185E-17
1.670870E+03	4.853863E-16	2.069604E-17
1.710653E+03	4.308643E-16	1.818111E-17
1.750436E+03	3.785672E-16	1.580547E-17
1.790218E+03	3.292344E-16	1.359749E-17
1.830001E+03	2.833316E-16	1.157289E-17
1.869784E+03	2.412350E-16	9.742838E-18
1.909566E+03	2.032083E-16	8.113162E-18
1.949349E+03	1.694835E-16	6.687839E-18
1.989131E+03	1.403038E-16	5.470721E-18
2.028914E+03	1.159599E-16	4.466920E-18
2.068697E+03	9.686160E-17	3.685427E-18
2.108479E+03	8.325187E-17	3.128084E-18
2.148262E+03	7.513946E-17	2.787506E-18
2.188045E+03	7.217032E-17	2.642942E-18
2.227827E+03	7.390936E-17	2.671351E-18
2.267610E+03	8.019575E-17	2.860292E-18
2.307392E+03	9.126108E-17	3.211451E-18
2.347175E+03	1.077756E-16	3.741296E-18
2.386958E+03	1.308820E-16	4.481182E-18
2.426740E+03	1.621245E-16	5.473864E-18
2.466523E+03	2.032903E-16	6.767254E-18
2.506306E+03	2.561031E-16	8.403786E-18
2.546088E+03	3.216766E-16	1.040290E-17
2.585871E+03	3.997495E-16	1.273811E-17
2.625653E+03	4.884142E-16	1.533176E-17
2.665436E+03	5.846931E-16	1.807676E-17
2.705219E+03	6.855998E-16	2.087144E-17
2.745001E+03	7.878320E-16	2.361040E-17
2.784784E+03	8.879576E-16	2.619079E-17
2.824567E+03	9.827194E-16	2.852142E-17
2.864349E+03	1.069541E-15	3.053682E-17
2.904132E+03	1.146706E-15	3.220070E-17
2.943914E+03	1.213797E-15	3.351593E-17
2.983697E+03	1.271637E-15	3.451988E-17
2.993643E+03	1.284875E-15	3.472992E-17
3.003588E+03	1.297674E-15	3.492527E-17
3.013534E+03	1.310110E-15	3.510819E-17
3.023480E+03	1.322285E-15	3.528149E-17
3.033425E+03	1.334219E-15	3.544584E-17
3.043371E+03	1.346131E-15	3.560714E-17
3.053317E+03	1.358063E-15	3.576652E-17
3.063262E+03	1.370031E-15	3.592441E-17
3.073208E+03	1.382055E-15	3.608134E-17
3.083154E+03	1.394253E-15	3.624035E-17
3.093099E+03	1.406649E-15	3.640208E-17
3.103045E+03	1.419227E-15	3.656605E-17
3.112991E+03	1.432112E-15	3.673540E-17
3.122936E+03	1.445340E-15	3.691092E-17
3.132882E+03	1.458947E-15	3.709347E-17
3.142828E+03	1.472976E-15	3.728395E-17
3.152773E+03	1.487556E-15	3.748554E-17
3.162719E+03	1.502645E-15	3.769695E-17
3.172665E+03	1.518421E-15	3.792248E-17
3.182610E+03	1.534886E-15	3.816197E-17
3.192556E+03	1.552133E-15	3.841746E-17
3.202502E+03	1.570255E-15	3.869100E-17
3.212447E+03	1.589256E-15	3.898243E-17
3.222393E+03	1.609228E-15	3.929371E-17
3.232339E+03	1.630221E-15	3.962571E-17
3.242284E+03	1.652366E-15	3.998126E-17
3.252230E+03	1.675662E-15	4.036002E-17
3.262175E+03	1.700193E-15	4.076359E-17
3.272121E+03	1.725994E-15	4.119244E-17
3.282067E+03	1.753135E-15	4.164782E-17
3.292012E+03	1.781638E-15	4.212981E-17
3.301958E+03	1.811514E-15	4.263826E-17
3.311904E+03	1.842763E-15	4.317273E-17
3.321849E+03	1.875413E-15	4.373343E-17
3.331795E+03	1.909433E-15	4.431924E-17
3.341741E+03	1.944775E-15	4.492861E-17
3.351686E+03	1.981332E-15	4.555865E-17
3.361632E+03	2.019095E-15	4.620882E-17
3.371578E+03	2.057872E-15	4.687437E-17
3.381523E+03	2.097528E-15	4.755196E-17
3.391469E+03	2.137953E-15	4.823884E-17
3.401415E+03	2.178895E-15	4.892913E-17
3.411360E+03	2.220175E-15	4.961869E-17
3.421306E+03	2.261611E-15	5.030345E-17
3.431252E+03	2.302950E-15	5.097776E-17
3.441197E+03	2.344003E-15	5.163753E-17
3.451143E+03	2.384654E-15	5.228037E-17
3.461089E+03	2.424741E-15	5.290289E-17
3.471034E+03	2.464119E-15	5.350218E-17
3.480980E+03	2.502724E-15	5.407712E-17
3.490926E+03	2.540541E-15	5.462769E-17
3.500871E+03	2.577562E-15	5.515400E-17
3.510817E+03	2.613817E-15	5.565701E-17
3.520763E+03	2.649371E-15	5.613835E-17
3.530708E+03	2.684352E-15	5.660101E-17
3.540654E+03	2.718786E-15	5.704574E-17
3.550600E+03	2.752874E-15	5.747690E-17
3.560545E+03	2.786703E-15	5.789639E-17
3.570491E+03	2.820452E-15	5.830795E-17
3.580436E+03	2.854261E-15	5.871454E-17
3.590382E+03	2.888283E-15	5.911923E-17
3.600328E+03	2.922719E-15	5.952601E-17
3.610273E+03	2.957740E-15	5.993827E-17
3.620219E+03	2.993572E-15	6.036036E-17
3.630165E+03	3.030420E-15	6.079610E-17
3.640110E+03	3.068621E-15	6.125195E-17
3.650056E+03	3.108378E-15	6.173151E-17
3.660002E+03	3.150068E-15	6.224175E-17
3.669947E+03	3.194048E-15	6.278912E-17
3.679893E+03	3.240614E-15	6.337867E-17
3.689839E+03	3.290186E-15	6.401787E-17
3.699784E+03	3.343157E-15	6.471335E-17
3.709730E+03	3.399872E-15	6.547078E-17
3.719676E+03	3.460746E-15	6.629701E-17
3.729621E+03	3.526131E-15	6.719748E-17
3.739567E+03	3.596342E-15	6.817686E-17
3.749513E+03	3.671646E-15	6.923872E-17
3.759458E+03	3.752240E-15	7.038532E-17
3.769404E+03	3.838289E-15	7.161814E-17
3.779350E+03	3.929819E-15	7.293610E-17
3.789295E+03	4.026789E-15	7.433687E-17
3.799241E+03	4.128912E-15	7.581357E-17
3.809187E+03	4.235987E-15	7.736111E-17
3.819132E+03	4.347508E-15	7.896886E-17
3.829078E+03	4.462875E-15	8.062477E-17
3.839024E+03	4.581411E-15	8.231557E-17
3.848969E+03	4.702329E-15	8.402641E-17
3.858915E+03	4.824649E-15	8.573924E-17
3.868861E+03	4.947414E-15	8.743685E-17
3.878806E+03	5.069653E-15	8.910218E-17
3.888752E+03	5.190267E-15	9.071630E-17
3.898698E+03	5.308325E-15	9.226365E-17
3.908643E+03	5.422902E-15	9.372913E-17
3.918589E+03	5.533253E-15	9.510112E-17
3.928534E+03	5.638735E-15	9.637003E-17
3.938480E+03	5.738927E-15	9.753030E-17
3.948426E+03	5.833489E-15	9.857789E-17
3.958371E+03	5.922345E-15	9.951337E-17
3.968317E+03	6.005783E-15	1.003434E-16
3.978263E+03	6.083930E-15	1.010718E-16
3.988208E+03	6.157380E-15	1.017102E-16
3.998154E+03	6.226738E-15	1.022700E-16
4.008100E+03	6.292783E-15	1.027654E-16
4.018045E+03	6.356235E-15	1.032093E-16
4.027991E+03	6.417907E-15	1.036157E-16
4.037937E+03	6.478678E-15	1.039997E-16
4.047882E+03	6.539374E-15	1.043748E-16
4.057828E+03	6.600576E-15	1.047507E-16
4.067774E+03	6.663012E-15	1.051390E-16
4.077719E+03	6.727095E-15	1.055462E-16
4.087665E+03	6.793230E-15	1.059786E-16
4.097611E+03	6.861550E-15	1.064380E-16
4.107556E+03	6.932145E-15	1.069257E-16
4.117502E+03	7.004881E-15	1.074395E-16
4.127448E+03	7.079478E-15	1.079749E-16
4.137393E+03	7.155423E-15	1.085243E-16
4.147339E+03	7.232192E-15	1.090798E-16
4.157285E+03	7.309023E-15	1.096304E-16
4.167230E+03	7.385157E-15	1.101653E-16
4.177176E+03	7.459572E-15	1.106701E-16
4.187122E+03	7.531381E-15	1.111326E-16
4.197067E+03	7.599546E-15	1.115389E-16
4.207013E+03	7.663102E-15	1.118763E-16
4.216959E+03	7.721046E-15	1.121320E-16
4.226904E+03	7.772469E-15	1.122948E-16
4.236850E+03	7.816628E-15	1.123559E-16
4.246796E+03	7.852785E-15	1.123070E-16
4.256741E+03	7.880464E-15	1.121437E-16
4.266687E+03	7.899393E-15	1.118645E-16
4.276632E+03	7.909425E-15	1.114695E-16
4.286578E+03	7.910905E-15	1.109660E-16
4.296524E+03	7.904384E-15	1.103636E-16
4.306469E+03	7.890671E-15	1.096756E-16
4.316415E+03	7.871305E-15	1.089250E-16
4.326361E+03	7.848181E-15	1.081392E-16
4.336306E+03	7.823743E-15	1.073528E-16
4.346252E+03	7.801128E-15	1.066089E-16
4.356198E+03	7.784173E-15	1.059600E-16
4.366143E+03	7.776963E-15	1.054606E-16
4.376089E+03	7.783787E-15	1.051676E-16
4.386035E+03	7.808741E-15	1.051343E-16
4.395980E+03	7.854669E-15	1.053960E-16
4.405926E+03	7.922904E-15	1.059676E-16
4.415872E+03	8.013293E-15	1.068441E-16
4.425817E+03	8.125043E-15	1.080123E-16
4.435763E+03	8.256889E-15	1.094531E-16
4.445709E+03	8.407174E-15	1.111426E-16
4.455654E+03	8.573953E-15	1.130531E-16
4.465600E+03	8.754964E-15	1.151537E-16
4.475546E+03	8.947728E-15	1.174104E-16
4.485491E+03	9.149088E-15	1.197812E-16
4.495437E+03	9.355739E-15	1.222224E-16
4.505383E+03	9.563791E-15	1.246828E-16
4.515328E+03	9.769424E-15	1.271129E-16
4.525274E+03	9.968385E-15	1.294577E-16
4.535220E+03	1.015629E-14	1.316607E-16
4.545165E+03	1.032906E-14	1.336699E-16
4.555111E+03	1.048296E-14	1.354378E-16
4.565057E+03	1.061437E-14	1.369186E-16
4.575002E+03	1.072070E-14	1.380802E-16
4.584948E+03	1.079965E-14	1.388937E-16
4.594894E+03	1.084999E-14	1.393444E-16
4.604839E+03	1.087146E-14	1.394301E-16
4.614785E+03	1.086439E-14	1.391556E-16
4.624730E+03	1.083007E-14	1.385386E-16
4.634676E+03	1.077054E-14	1.376054E-16
4.644622E+03	1.068853E-14	1.363914E-16
4.654567E+03	1.058689E-14	1.349334E-16
4.664513E+03	1.046919E-14	1.332772E-16
4.674459E+03	1.033896E-14	1.314673E-16
4.684404E+03	1.019930E-14	1.295435E-16
4.694350E+03	1.005336E-14	1.275454E-16
4.704296E+03	9.904074E-15	1.255098E-16
4.714241E+03	9.754093E-15	1.234701E-16
4.724187E+03	9.605840E-15	1.214565E-16
4.734133E+03	9.461367E-15	1.194945E-16
4.744078E+03	9.322346E-15	1.176046E-16
4.754024E+03	9.190093E-15	1.158029E-16
4.763970E+03	9.065710E-15	1.141027E-16
4.773915E+03	8.949654E-15	1.125092E-16
4.783861E+03	8.842563E-15	1.110298E-16
4.793807E+03	8.744412E-15	1.096636E-16
4.803752E+03	8.655176E-15	1.084098E-16
4.813698E+03	8.574579E-15	1.072644E-16
4.823644E+03	8.502280E-15	1.062225E-16
4.833589E+03	8.437679E-15	1.052764E-16
4.843535E+03	8.380262E-15	1.044190E-16
4.853481E+03	8.329436E-15	1.036426E-16
4.863426E+03	8.284681E-15	1.029404E-16
4.873372E+03	8.245463E-15	1.023053E-16
4.883318E+03	8.211304E-15	1.017313E-16
4.893263E+03	8.181855E-15	1.012137E-16
4.903209E+03	8.157034E-15	1.007512E-16
4.913155E+03	8.136580E-15	1.003405E-16
4.923100E+03	8.120699E-15	9.998386E-17
4.933046E+03	8.109590E-15	9.968353E-17
4.942991E+03	8.103505E-15	9.944242E-17
4.952937E+03	8.103001E-15	9.926714E-17
4.962883E+03	8.108661E-15	9.916461E-17
4.972828E+03	8.121256E-15	9.914398E-17
4.982774E+03	8.141472E-15	9.921331E-17
4.992720E+03	8.170125E-15	9.938221E-17
5.002665E+03	8.208118E-15	9.966125E-17
5.012611E+03	8.256274E-15	1.000600E-16
5.022557E+03	8.315300E-15	1.005865E-16
5.032502E+03	8.385998E-15	1.012500E-16
5.042448E+03	8.468979E-15	1.020573E-16
5.052394E+03	8.564649E-15	1.030128E-16
5.062339E+03	8.673411E-15	1.041207E-16
5.072285E+03	8.795407E-15	1.053822E-16
5.082231E+03	8.930562E-15	1.067959E-16
5.092176E+03	9.078470E-15	1.083565E-16
5.102122E+03	9.238551E-15	1.100567E-16
5.112068E+03	9.410024E-15	1.118870E-16
5.122013E+03	9.591742E-15	1.138337E-16
5.131959E+03	9.782178E-15	1.158786E-16
5.141905E+03	9.979593E-15	1.180015E-16
5.151850E+03	1.018200E-14	1.201792E-16
5.161796E+03	1.038714E-14	1.223859E-16
5.171742E+03	1.059251E-14	1.245929E-16
5.181687E+03	1.079572E-14	1.267732E-16
5.191633E+03	1.099390E-14	1.288946E-16
5.201579E+03	1.118449E-14	1.309285E-16
5.211524E+03	1.136475E-14	1.328446E-16
5.221470E+03	1.153217E-14	1.346156E-16
5.231416E+03	1.168444E-14	1.362165E-16
5.241361E+03	1.181936E-14	1.376238E-16
5.251307E+03	1.193526E-14	1.388201E-16
5.261253E+03	1.203066E-14	1.397905E-16
5.271198E+03	1.210418E-14	1.405211E-16
5.281144E+03	1.215525E-14	1.410072E-16
5.291089E+03	1.218317E-14	1.412425E-16
5.301035E+03	1.218789E-14	1.412281E-16
5.310981E+03	1.216940E-14	1.409654E-16
5.320926E+03	1.212808E-14	1.404600E-16
5.330872E+03	1.206442E-14	1.397186E-16
5.340818E+03	1.197950E-14	1.387541E-16
5.350763E+03	1.187397E-14	1.375748E-16
5.360709E+03	1.174924E-14	1.361971E-16
5.370655E+03	1.160695E-14	1.346397E-16
5.380600E+03	1.144921E-14	1.329268E-16
5.390546E+03	1.127878E-14	1.310896E-16
5.400492E+03	1.109951E-14	1.291721E-16
5.410437E+03	1.091688E-14	1.272358E-16
5.420383E+03	1.073891E-14	1.253723E-16
5.430329E+03	1.057107E-14	1.236442E-16
5.440274E+03	1.041539E-14	1.220739E-16
5.450220E+03	1.027217E-14	1.206643E-16
5.460166E+03	1.014102E-14	1.194101E-16
5.470111E+03	1.002143E-14	1.183049E-16
5.480057E+03	9.912143E-15	1.173334E-16
5.490003E+03	9.812232E-15	1.164844E-16
5.499948E+03	9.720301E-15	1.157410E-16
5.509894E+03	9.635254E-15	1.150898E-16
5.519840E+03	9.556031E-15	1.145179E-16
5.529785E+03	9.481424E-15	1.140103E-16
5.539731E+03	9.410681E-15	1.135575E-16
5.549677E+03	9.343252E-15	1.131526E-16
5.559622E+03	9.278515E-15	1.127874E-16
5.569568E+03	9.216378E-15	1.124603E-16
5.579514E+03	9.156974E-15	1.121725E-16
5.589459E+03	9.100373E-15	1.119245E-16
5.599405E+03	9.047200E-15	1.117237E-16
5.609351E+03	8.998066E-15	1.115774E-16
5.619296E+03	8.953497E-15	1.114922E-16
5.629242E+03	8.914502E-15	1.114808E-16
5.639187E+03	8.881912E-15	1.115538E-16
5.649133E+03	8.856485E-15	1.117214E-16
5.659079E+03	8.839109E-15	1.119954E-16
5.669024E+03	8.830402E-15	1.123847E-16
5.678970E+03	8.831044E-15	1.128989E-16
5.688916E+03	8.841484E-15	1.135451E-16
5.698861E+03	8.861970E-15	1.143277E-16
5.708807E+03	8.892542E-15	1.152487E-16
5.718753E+03	8.933108E-15	1.163086E-16
5.728698E+03	8.983039E-15	1.175004E-16
5.738644E+03	9.041833E-15	1.188192E-16
5.748590E+03	9.108408E-15	1.202519E-16
5.758535E+03	9.181531E-15	1.217836E-16
5.768481E+03	9.259783E-15	1.233963E-16
5.778427E+03	9.341431E-15	1.250676E-16
5.788372E+03	9.424480E-15	1.267712E-16
5.798318E+03	9.506790E-15	1.284783E-16
5.808264E+03	9.586043E-15	1.301571E-16
5.818209E+03	9.659876E-15	1.317747E-16
5.828155E+03	9.725973E-15	1.332982E-16
5.838101E+03	9.782006E-15	1.346940E-16
5.848046E+03	9.825640E-15	1.359277E-16
5.857992E+03	9.854966E-15	1.369703E-16
5.867938E+03	9.868241E-15	1.377946E-16
5.877883E+03	9.864178E-15	1.383794E-16
5.887829E+03	9.841642E-15	1.387051E-16
5.897775E+03	9.800186E-15	1.387618E-16
5.907720E+03	9.739687E-15	1.385440E-16
5.917666E+03	9.660485E-15	1.380526E-16
5.927612E+03	9.563493E-15	1.372971E-16
5.937557E+03	9.449950E-15	1.362918E-16
5.947503E+03	9.321349E-15	1.350550E-16
5.957449E+03	9.179884E-15	1.336155E-16
5.967394E+03	9.027652E-15	1.320014E-16
5.977340E+03	8.867196E-15	1.302479E-16
5.987285E+03	8.701078E-15	1.283912E-16
5.997231E+03	8.531915E-15	1.264688E-16
6.007177E+03	8.362418E-15	1.245204E-16
6.017122E+03	8.195223E-15	1.225855E-16
6.027068E+03	8.032550E-15	1.206978E-16
6.037014E+03	7.876836E-15	1.188950E-16
6.046959E+03	7.730080E-15	1.172088E-16
6.056905E+03	7.594166E-15	1.156698E-16
6.066851E+03	7.470581E-15	1.143029E-16
6.076796E+03	7.360629E-15	1.131308E-16
6.086742E+03	7.265130E-15	1.121690E-16
6.096688E+03	7.184953E-15	1.114340E-16
6.106633E+03	7.120380E-15	1.109334E-16
6.116579E+03	7.071394E-15	1.106704E-16
6.126525E+03	7.037937E-15	1.106474E-16
6.136470E+03	7.019266E-15	1.108562E-16
6.146416E+03	7.014639E-15	1.112882E-16
6.156362E+03	7.022553E-15	1.119227E-16
6.166307E+03	7.041608E-15	1.127401E-16
6.176253E+03	7.069956E-15	1.137134E-16
6.186199E+03	7.105561E-15	1.148119E-16
6.196144E+03	7.146177E-15	1.160009E-16
6.206090E+03	7.189483E-15	1.172441E-16
6.216036E+03	7.233070E-15	1.185027E-16
6.225981E+03	7.274867E-15	1.197429E-16
6.235927E+03	7.312432E-15	1.209242E-16
6.245873E+03	7.343884E-15	1.220143E-16
6.255818E+03	7.367426E-15	1.229814E-16
6.265764E+03	7.381809E-15	1.238026E-16
6.275710E+03	7.385963E-15	1.244574E-16
6.285655E+03	7.379247E-15	1.249322E-16
6.295601E+03	7.361771E-15	1.252261E-16
6.305546E+03	7.333675E-15	1.253385E-16
6.315492E+03	7.295700E-15	1.252793E-16
6.325438E+03	7.249118E-15	1.250678E-16
6.335383E+03	7.195093E-15	1.247217E-16
6.345329E+03	7.135256E-15	1.242674E-16
6.355275E+03	7.071128E-15	1.237296E-16
6.365220E+03	7.004512E-15	1.231389E-16
6.375166E+03	6.936698E-15	1.225170E-16
6.385112E+03	6.869054E-15	1.218877E-16
6.395057E+03	6.802573E-15	1.212684E-16
6.405003E+03	6.737744E-15	1.206681E-16
6.414949E+03	6.675143E-15	1.200972E-16
6.424894E+03	6.614829E-15	1.195572E-16
6.434840E+03	6.557056E-15	1.190530E-16
6.444786E+03	6.502221E-15	1.185923E-16
6.454731E+03	6.450723E-15	1.181830E-16
6.464677E+03	6.402495E-15	1.178244E-16
6.474623E+03	6.357361E-15	1.175140E-16
6.484568E+03	6.314602E-15	1.172391E-16
6.494514E+03	6.273660E-15	1.169895E-16
6.504460E+03	6.233562E-15	1.167475E-16
6.514405E+03	6.193270E-15	1.164936E-16
6.524351E+03	6.151930E-15	1.162114E-16
6.534297E+03	6.108561E-15	1.158821E-16
6.544242E+03	6.062464E-15	1.154916E-16
6.554188E+03	6.012890E-15	1.150249E-16
6.564134E+03	5.959338E-15	1.144715E-16
6.574079E+03	5.901560E-15	1.138256E-16
6.584025E+03	5.839209E-15	1.130794E-16
6.593971E+03	5.772457E-15	1.122352E-16
6.603916E+03	5.701361E-15	1.112929E-16
6.613862E+03	5.626197E-15	1.102570E-16
6.623808E+03	5.547358E-15	1.091344E-16
6.633753E+03	5.465410E-15	1.079353E-16
6.643699E+03	5.380732E-15	1.066666E-16
6.653644E+03	5.294003E-15	1.053413E-16
6.663590E+03	5.205917E-15	1.039728E-16
6.673536E+03	5.117008E-15	1.025716E-16
6.683481E+03	5.027801E-15	1.011482E-16
6.693427E+03	4.939026E-15	9.971736E-17
6.703373E+03	4.851217E-15	9.829005E-17
6.713318E+03	4.764702E-15	9.687332E-17
6.723264E+03	4.680067E-15	9.547947E-17
6.733210E+03	4.597611E-15	9.411515E-17
6.743155E+03	4.517651E-15	9.278744E-17
6.753101E+03	4.440521E-15	9.150385E-17
6.763047E+03	4.366352E-15	9.026781E-17
6.772992E+03	4.295372E-15	8.908473E-17
6.782938E+03	4.227618E-15	8.795616E-17
6.792884E+03	4.163224E-15	8.688563E-17
6.802829E+03	4.102150E-15	8.587307E-17
6.812775E+03	4.044461E-15	8.492061E-17
6.822721E+03	3.990124E-15	8.402828E-17
6.832666E+03	3.939018E-15	8.319428E-17
6.842612E+03	3.891137E-15	8.241915E-17
6.852558E+03	3.846327E-15	8.170032E-17
6.862503E+03	3.804622E-15	8.103914E-17
6.872449E+03	3.765785E-15	8.043119E-17
6.882395E+03	3.729769E-15	7.987608E-17
6.892340E+03	3.696460E-15	7.937187E-17
6.902286E+03	3.665744E-15	7.891667E-17
6.912232E+03	3.637506E-15	7.850850E-17
6.922177E+03	3.611633E-15	7.814536E-17
6.932123E+03	3.588015E-15	7.782536E-17
6.942069E+03	3.566545E-15	7.754654E-17
6.952014E+03	3.547055E-15	7.730566E-17
6.961960E+03	3.529570E-15	7.710364E-17
6.971906E+03	3.513930E-15	7.693728E-17
6.981851E+03	3.500037E-15	7.680480E-17
6.991797E+03	3.487861E-15	7.670580E-17
7.001742E+03	3.477181E-15	7.663575E-17
7.011688E+03	3.468032E-15	7.659562E-17
7.021634E+03	3.460257E-15	7.658219E-17
7.031579E+03	3.453759E-15	7.659358E-17
7.041525E+03	3.448442E-15	7.662783E-17
7.051471E+03	3.444269E-15	7.668431E-17
7.061416E+03	3.441073E-15	7.675947E-17
7.071362E+03	3.438811E-15	7.685251E-17
7.081308E+03	3.437306E-15	7.695961E-17
7.091253E+03	3.436441E-15	7.707827E-17
7.101199E+03	3.436160E-15	7.720736E-17
7.111145E+03	3.436339E-15	7.734415E-17
7.121090E+03	3.436783E-15	7.748438E-17
7.131036E+03	3.437427E-15	7.762661E-17
7.140982E+03	3.438071E-15	7.776638E-17
7.150927E+03	3.438647E-15	7.790220E-17
7.160873E+03	3.439022E-15	7.803109E-17
7.170819E+03	3.439068E-15	7.815013E-17
7.180764E+03	3.438658E-15	7.825647E-17
7.190710E+03	3.437673E-15	7.834738E-17
7.200656E+03	3.435933E-15	7.841878E-17
7.210601E+03	3.433477E-15	7.847148E-17
7.220547E+03	3.430148E-15	7.850194E-17
7.230493E+03	3.425873E-15	7.850844E-17
7.240438E+03	3.420665E-15	7.849127E-17
7.250384E+03	3.414417E-15	7.844793E-17
7.260330E+03	3.407179E-15	7.837957E-17
7.270275E+03	3.398954E-15	7.828622E-17
7.280221E+03	3.389761E-15	7.816836E-17
7.290167E+03	3.379642E-15	7.802694E-17
7.300112E+03	3.368732E-15	7.786504E-17
7.310058E+03	3.357040E-15	7.768297E-17
7.320004E+03	3.344810E-15	7.748635E-17
7.329949E+03	3.332229E-15	7.727959E-17
7.339895E+03	3.319288E-15	7.706251E-17
7.349840E+03	3.306344E-15	7.684353E-17
7.359786E+03	3.293553E-15	7.662633E-17
7.369732E+03	3.281151E-15	7.641651E-17
7.379677E+03	3.269306E-15	7.621813E-17
7.389623E+03	3.258262E-15	7.603699E-17
7.399569E+03	3.248119E-15	7.587558E-17
7.409514E+03	3.238903E-15	7.573467E-17
7.419460E+03	3.230851E-15	7.562000E-17
7.429406E+03	3.223980E-15	7.553207E-17
7.439351E+03	3.218437E-15	7.547456E-17
7.449297E+03	3.214219E-15	7.544754E-17
7.459243E+03	3.211522E-15	7.545583E-17
7.469188E+03	3.210460E-15	7.550231E-17
7.479134E+03	3.210984E-15	7.558603E-17
7.489080E+03	3.213250E-15	7.571086E-17
7.499025E+03	3.217250E-15	7.587681E-17
7.508971E+03	3.223030E-15	7.608524E-17
7.518917E+03	3.230697E-15	7.633885E-17
7.528862E+03	3.240190E-15	7.663647E-17
7.538808E+03	3.251506E-15	7.697827E-17
7.548754E+03	3.264626E-15	7.736401E-17
7.558699E+03	3.279515E-15	7.779310E-17
7.568645E+03	3.296118E-15	7.826454E-17
7.578591E+03	3.314370E-15	7.877699E-17
7.588536E+03	3.334187E-15	7.932872E-17
7.598482E+03	3.355473E-15	7.991770E-17
7.608428E+03	3.378115E-15	8.054150E-17
7.618373E+03	3.401990E-15	8.119743E-17
7.628319E+03	3.426958E-15	8.188241E-17
7.638265E+03	3.452950E-15	8.259503E-17
7.648210E+03	3.479637E-15	8.332768E-17
7.658156E+03	3.507007E-15	8.408031E-17
7.668101E+03	3.534703E-15	8.484460E-17
7.678047E+03	3.562691E-15	8.561997E-17
7.687993E+03	3.590672E-15	8.639942E-17
7.697938E+03	3.618508E-15	8.717981E-17
7.707884E+03	3.645870E-15	8.795347E-17
7.717830E+03	3.672505E-15	8.871443E-17
