#wls	flux	fluxerr
1.591305E+03	3.102343E-16	3.716771E-17
1.631088E+03	2.800133E-16	3.324582E-17
1.670870E+03	2.507401E-16	2.949756E-17
1.710653E+03	2.228716E-16	2.597422E-17
1.750436E+03	1.967462E-16	2.271130E-17
1.790218E+03	1.725617E-16	1.972656E-17
1.830001E+03	1.503437E-16	1.701720E-17
1.869784E+03	1.301726E-16	1.458625E-17
1.909566E+03	1.120120E-16	1.242331E-17
1.949349E+03	9.590083E-17	1.052623E-17
1.989131E+03	8.197866E-17	8.903497E-18
2.028914E+03	7.046736E-17	7.571656E-18
2.068697E+03	6.168375E-17	6.556217E-18
2.108479E+03	5.593028E-17	5.879614E-18
2.148262E+03	5.330526E-17	5.541589E-18
2.188045E+03	5.369746E-17	5.519849E-18
2.227827E+03	5.686536E-17	5.779380E-18
2.267610E+03	6.260061E-17	6.289659E-18
2.307392E+03	7.077882E-17	7.029488E-18
2.347175E+03	8.144549E-17	7.994897E-18
2.386958E+03	9.481588E-17	9.198152E-18
2.426740E+03	1.111534E-16	1.065511E-17
2.466523E+03	1.307650E-16	1.238453E-17
2.506306E+03	1.538817E-16	1.439652E-17
2.546088E+03	1.805974E-16	1.668743E-17
2.585871E+03	2.108149E-16	1.923554E-17
2.625653E+03	2.442221E-16	2.200014E-17
2.665436E+03	2.802368E-16	2.491775E-17
2.705219E+03	3.179691E-16	2.790048E-17
2.745001E+03	3.564636E-16	3.085881E-17
2.784784E+03	3.947266E-16	3.370434E-17
2.824567E+03	4.318274E-16	3.635865E-17
2.864349E+03	4.669776E-16	3.875958E-17
2.904132E+03	4.995863E-16	4.086498E-17
2.943914E+03	5.294816E-16	4.266943E-17
2.983697E+03	5.566491E-16	4.418100E-17
2.993643E+03	5.630694E-16	4.451855E-17
3.003588E+03	5.693678E-16	4.484234E-17
3.013534E+03	5.755126E-16	4.514996E-17
3.023480E+03	5.815588E-16	4.544588E-17
3.033425E+03	5.875508E-16	4.573361E-17
3.043371E+03	5.934753E-16	4.601218E-17
3.053317E+03	5.994429E-16	4.629017E-17
3.063262E+03	6.053732E-16	4.656138E-17
3.073208E+03	6.113441E-16	4.683179E-17
3.083154E+03	6.172789E-16	4.709551E-17
3.093099E+03	6.232572E-16	4.735860E-17
3.103045E+03	6.292816E-16	4.762121E-17
3.112991E+03	6.353171E-16	4.788064E-17
3.122936E+03	6.413685E-16	4.813722E-17
3.132882E+03	6.474793E-16	4.839416E-17
3.142828E+03	6.536555E-16	4.865185E-17
3.152773E+03	6.599041E-16	4.891071E-17
3.162719E+03	6.662322E-16	4.917120E-17
3.172665E+03	6.726469E-16	4.943374E-17
3.182610E+03	6.791569E-16	4.969888E-17
3.192556E+03	6.858093E-16	4.996991E-17
3.202502E+03	6.925749E-16	5.024459E-17
3.212447E+03	6.995409E-16	5.052908E-17
3.222393E+03	7.066397E-16	5.081831E-17
3.232339E+03	7.139592E-16	5.111845E-17
3.242284E+03	7.214342E-16	5.142459E-17
3.252230E+03	7.291921E-16	5.174564E-17
3.262175E+03	7.371686E-16	5.207674E-17
3.272121E+03	7.454155E-16	5.242130E-17
3.282067E+03	7.539467E-16	5.278005E-17
3.292012E+03	7.628150E-16	5.315635E-17
3.301958E+03	7.719968E-16	5.354822E-17
3.311904E+03	7.815441E-16	5.395894E-17
3.321849E+03	7.915084E-16	5.439167E-17
3.331795E+03	8.018636E-16	5.484419E-17
3.341741E+03	8.126575E-16	5.531937E-17
3.351686E+03	8.238995E-16	5.581740E-17
3.361632E+03	8.356354E-16	5.634090E-17
3.371578E+03	8.478719E-16	5.688982E-17
3.381523E+03	8.606152E-16	5.746406E-17
3.391469E+03	8.739109E-16	5.806614E-17
3.401415E+03	8.877648E-16	5.869587E-17
3.411360E+03	9.022235E-16	5.935575E-17
3.421306E+03	9.172937E-16	6.004560E-17
3.431252E+03	9.330210E-16	6.076776E-17
3.441197E+03	9.494512E-16	6.152452E-17
3.451143E+03	9.665902E-16	6.231556E-17
3.461089E+03	9.844822E-16	6.314297E-17
3.471034E+03	1.003135E-15	6.400650E-17
3.480980E+03	1.022637E-15	6.491094E-17
3.490926E+03	1.042995E-15	6.585585E-17
3.500871E+03	1.064252E-15	6.684310E-17
3.510817E+03	1.086409E-15	6.787183E-17
3.520763E+03	1.109501E-15	6.894321E-17
3.530708E+03	1.133473E-15	7.005298E-17
3.540654E+03	1.158345E-15	7.120138E-17
3.550600E+03	1.184003E-15	7.238054E-17
3.560545E+03	1.210405E-15	7.358706E-17
3.570491E+03	1.237455E-15	7.481432E-17
3.580436E+03	1.265126E-15	7.606000E-17
3.590382E+03	1.293215E-15	7.731121E-17
3.600328E+03	1.321706E-15	7.856662E-17
3.610273E+03	1.350365E-15	7.981190E-17
3.620219E+03	1.379108E-15	8.104193E-17
3.630165E+03	1.407720E-15	8.224390E-17
3.640110E+03	1.436062E-15	8.340993E-17
3.650056E+03	1.463966E-15	8.453053E-17
3.660002E+03	1.491370E-15	8.560251E-17
3.669947E+03	1.518087E-15	8.661570E-17
3.679893E+03	1.544159E-15	8.757309E-17
3.689839E+03	1.569625E-15	8.847758E-17
3.699784E+03	1.594621E-15	8.933739E-17
3.709730E+03	1.619434E-15	9.016889E-17
3.719676E+03	1.644460E-15	9.099421E-17
3.729621E+03	1.670160E-15	9.183846E-17
3.739567E+03	1.697090E-15	9.273127E-17
3.749513E+03	1.725919E-15	9.370770E-17
3.759458E+03	1.757404E-15	9.480652E-17
3.769404E+03	1.792147E-15	9.605736E-17
3.779350E+03	1.830898E-15	9.749659E-17
3.789295E+03	1.874305E-15	9.915440E-17
3.799241E+03	1.922883E-15	1.010529E-16
3.809187E+03	1.977057E-15	1.032089E-16
3.819132E+03	2.037050E-15	1.056281E-16
3.829078E+03	2.102933E-15	1.083080E-16
3.839024E+03	2.174508E-15	1.112323E-16
3.848969E+03	2.251429E-15	1.143775E-16
3.858915E+03	2.332962E-15	1.177009E-16
3.868861E+03	2.418255E-15	1.211549E-16
3.878806E+03	2.506123E-15	1.246769E-16
3.888752E+03	2.595217E-15	1.281974E-16
3.898698E+03	2.683973E-15	1.316385E-16
3.908643E+03	2.770763E-15	1.349215E-16
3.918589E+03	2.853875E-15	1.379658E-16
3.928534E+03	2.931755E-15	1.407007E-16
3.938480E+03	3.002826E-15	1.430569E-16
3.948426E+03	3.065958E-15	1.449884E-16
3.958371E+03	3.120059E-15	1.464523E-16
3.968317E+03	3.164619E-15	1.474347E-16
3.978263E+03	3.199416E-15	1.479356E-16
3.988208E+03	3.224685E-15	1.479762E-16
3.998154E+03	3.241031E-15	1.475943E-16
4.008100E+03	3.249386E-15	1.468418E-16
4.018045E+03	3.250830E-15	1.457755E-16
4.027991E+03	3.246789E-15	1.444664E-16
4.037937E+03	3.238690E-15	1.429835E-16
4.047882E+03	3.228053E-15	1.413978E-16
4.057828E+03	3.216325E-15	1.397750E-16
4.067774E+03	3.204982E-15	1.381801E-16
4.077719E+03	3.195241E-15	1.366652E-16
4.087665E+03	3.188331E-15	1.352808E-16
4.097611E+03	3.185229E-15	1.340655E-16
4.107556E+03	3.186739E-15	1.330493E-16
4.117502E+03	3.193589E-15	1.322579E-16
4.127448E+03	3.206266E-15	1.317064E-16
4.137393E+03	3.224980E-15	1.313978E-16
4.147339E+03	3.249843E-15	1.313309E-16
4.157285E+03	3.280828E-15	1.314993E-16
4.167230E+03	3.317634E-15	1.318852E-16
4.177176E+03	3.359830E-15	1.324667E-16
4.187122E+03	3.406813E-15	1.332155E-16
4.197067E+03	3.457771E-15	1.340963E-16
4.207013E+03	3.511830E-15	1.350723E-16
4.216959E+03	3.567917E-15	1.361007E-16
4.226904E+03	3.624774E-15	1.371327E-16
4.236850E+03	3.681060E-15	1.381182E-16
4.246796E+03	3.735381E-15	1.390071E-16
4.256741E+03	3.786270E-15	1.397478E-16
4.266687E+03	3.832136E-15	1.402863E-16
4.276632E+03	3.871474E-15	1.405736E-16
4.286578E+03	3.903055E-15	1.405721E-16
4.296524E+03	3.925608E-15	1.402442E-16
4.306469E+03	3.938435E-15	1.395738E-16
4.316415E+03	3.941104E-15	1.385549E-16
4.326361E+03	3.933796E-15	1.372030E-16
4.336306E+03	3.917172E-15	1.355497E-16
4.346252E+03	3.892759E-15	1.336556E-16
4.356198E+03	3.862792E-15	1.316032E-16
4.366143E+03	3.830101E-15	1.294929E-16
4.376089E+03	3.797652E-15	1.274263E-16
4.386035E+03	3.768372E-15	1.255008E-16
4.395980E+03	3.745198E-15	1.238113E-16
4.405926E+03	3.731488E-15	1.224633E-16
4.415872E+03	3.730265E-15	1.215485E-16
4.425817E+03	3.744218E-15	1.211451E-16
4.435763E+03	3.775567E-15	1.213142E-16
4.445709E+03	3.826053E-15	1.221002E-16
4.455654E+03	3.896849E-15	1.235286E-16
4.465600E+03	3.988724E-15	1.256118E-16
4.475546E+03	4.101863E-15	1.283437E-16
4.485491E+03	4.235843E-15	1.316995E-16
4.495437E+03	4.389644E-15	1.356363E-16
4.505383E+03	4.561183E-15	1.400798E-16
4.515328E+03	4.747795E-15	1.449398E-16
4.525274E+03	4.945596E-15	1.500915E-16
4.535220E+03	5.149981E-15	1.553910E-16
4.545165E+03	5.355323E-15	1.606671E-16
4.555111E+03	5.555406E-15	1.657346E-16
4.565057E+03	5.743679E-15	1.704024E-16
4.575002E+03	5.913718E-15	1.744872E-16
4.584948E+03	6.059559E-15	1.778225E-16
4.594894E+03	6.176134E-15	1.802718E-16
4.604839E+03	6.259942E-15	1.817465E-16
4.614785E+03	6.308943E-15	1.822018E-16
4.624730E+03	6.322949E-15	1.816470E-16
4.634676E+03	6.303599E-15	1.801435E-16
4.644622E+03	6.254041E-15	1.777942E-16
4.654567E+03	6.178838E-15	1.747401E-16
4.664513E+03	6.083203E-15	1.711376E-16
4.674459E+03	5.973008E-15	1.671584E-16
4.684404E+03	5.854088E-15	1.629702E-16
4.694350E+03	5.731972E-15	1.587284E-16
4.704296E+03	5.611738E-15	1.545731E-16
4.714241E+03	5.497540E-15	1.506164E-16
4.724187E+03	5.393015E-15	1.469536E-16
4.734133E+03	5.300681E-15	1.436479E-16
4.744078E+03	5.222521E-15	1.407465E-16
4.754024E+03	5.159606E-15	1.382710E-16
4.763970E+03	5.112639E-15	1.362326E-16
4.773915E+03	5.081605E-15	1.346229E-16
4.783861E+03	5.066177E-15	1.334252E-16
4.793807E+03	5.065566E-15	1.326110E-16
4.803752E+03	5.078779E-15	1.321466E-16
4.813698E+03	5.104433E-15	1.319889E-16
4.823644E+03	5.140973E-15	1.320910E-16
4.833589E+03	5.186460E-15	1.323973E-16
4.843535E+03	5.238711E-15	1.328468E-16
4.853481E+03	5.295298E-15	1.333742E-16
4.863426E+03	5.353333E-15	1.339039E-16
4.873372E+03	5.409904E-15	1.343620E-16
4.883318E+03	5.461715E-15	1.346669E-16
4.893263E+03	5.505695E-15	1.347452E-16
4.903209E+03	5.538844E-15	1.345277E-16
4.913155E+03	5.558439E-15	1.339541E-16
4.923100E+03	5.562508E-15	1.329844E-16
4.933046E+03	5.549818E-15	1.315982E-16
4.942991E+03	5.519904E-15	1.297942E-16
4.952937E+03	5.473054E-15	1.275896E-16
4.962883E+03	5.410678E-15	1.250275E-16
4.972828E+03	5.334647E-15	1.221611E-16
4.982774E+03	5.247566E-15	1.190586E-16
4.992720E+03	5.152588E-15	1.157989E-16
5.002665E+03	5.052913E-15	1.124594E-16
5.012611E+03	4.951975E-15	1.091199E-16
5.022557E+03	4.853109E-15	1.058552E-16
5.032502E+03	4.759282E-15	1.027292E-16
5.042448E+03	4.673302E-15	9.979961E-17
5.052394E+03	4.597636E-15	9.711431E-17
5.062339E+03	4.534303E-15	9.470939E-17
5.072285E+03	4.485038E-15	9.261302E-17
5.082231E+03	4.451319E-15	9.084628E-17
5.092176E+03	4.434258E-15	8.942127E-17
5.102122E+03	4.434765E-15	8.834483E-17
5.112068E+03	4.453564E-15	8.761909E-17
5.122013E+03	4.491060E-15	8.723909E-17
5.131959E+03	4.547506E-15	8.719650E-17
5.141905E+03	4.622798E-15	8.747592E-17
5.151850E+03	4.716618E-15	8.805803E-17
5.161796E+03	4.828198E-15	8.891564E-17
5.171742E+03	4.956459E-15	9.001682E-17
5.181687E+03	5.099775E-15	9.132109E-17
5.191633E+03	5.256139E-15	9.278324E-17
5.201579E+03	5.422960E-15	9.435027E-17
5.211524E+03	5.597246E-15	9.596533E-17
5.221470E+03	5.775625E-15	9.756867E-17
5.231416E+03	5.954527E-15	9.910116E-17
5.241361E+03	6.130177E-15	1.005044E-16
5.251307E+03	6.298978E-15	1.017270E-16
5.261253E+03	6.457700E-15	1.027275E-16
5.271198E+03	6.603743E-15	1.034780E-16
5.281144E+03	6.735389E-15	1.039665E-16
5.291089E+03	6.852008E-15	1.041999E-16
5.301035E+03	6.954154E-15	1.042030E-16
5.310981E+03	7.043778E-15	1.040210E-16
5.320926E+03	7.123959E-15	1.037139E-16
5.330872E+03	7.199001E-15	1.033564E-16
5.340818E+03	7.273917E-15	1.030301E-16
5.350763E+03	7.354321E-15	1.028213E-16
5.360709E+03	7.446309E-15	1.028195E-16
5.370655E+03	7.555773E-15	1.031080E-16
5.380600E+03	7.688345E-15	1.037642E-16
5.390546E+03	7.849318E-15	1.048597E-16
5.400492E+03	8.043041E-15	1.064525E-16
5.410437E+03	8.272727E-15	1.085870E-16
5.420383E+03	8.539410E-15	1.112808E-16
5.430329E+03	8.838592E-15	1.144829E-16
5.440274E+03	9.160410E-15	1.180783E-16
5.450220E+03	9.492625E-15	1.219249E-16
5.460166E+03	9.822158E-15	1.258678E-16
5.470111E+03	1.013551E-14	1.297428E-16
5.480057E+03	1.042011E-14	1.333956E-16
5.490003E+03	1.066446E-14	1.366819E-16
5.499948E+03	1.085914E-14	1.394787E-16
5.509894E+03	1.099711E-14	1.416881E-16
5.519840E+03	1.107405E-14	1.432414E-16
5.529785E+03	1.108803E-14	1.440957E-16
5.539731E+03	1.103982E-14	1.442386E-16
5.549677E+03	1.093217E-14	1.436814E-16
5.559622E+03	1.076998E-14	1.424617E-16
5.569568E+03	1.055963E-14	1.406373E-16
5.579514E+03	1.030887E-14	1.382854E-16
5.589459E+03	1.002600E-14	1.354940E-16
5.599405E+03	9.720330E-15	1.323681E-16
5.609351E+03	9.401112E-15	1.290170E-16
5.619296E+03	9.077435E-15	1.255524E-16
5.629242E+03	8.757781E-15	1.220831E-16
5.639187E+03	8.450047E-15	1.187143E-16
5.649133E+03	8.161117E-15	1.155418E-16
5.659079E+03	7.896491E-15	1.126456E-16
5.669024E+03	7.660859E-15	1.100973E-16
5.678970E+03	7.457559E-15	1.079515E-16
5.688916E+03	7.288798E-15	1.062481E-16
5.698861E+03	7.155918E-15	1.050152E-16
5.708807E+03	7.059242E-15	1.042663E-16
5.718753E+03	6.998411E-15	1.040047E-16
5.728698E+03	6.972327E-15	1.042219E-16
5.738644E+03	6.979002E-15	1.048950E-16
5.748590E+03	7.015994E-15	1.059929E-16
5.758535E+03	7.080143E-15	1.074722E-16
5.768481E+03	7.167618E-15	1.092775E-16
5.778427E+03	7.273949E-15	1.113419E-16
5.788372E+03	7.394133E-15	1.135889E-16
5.798318E+03	7.522391E-15	1.159281E-16
5.808264E+03	7.652898E-15	1.182672E-16
5.818209E+03	7.779356E-15	1.205054E-16
5.828155E+03	7.895595E-15	1.225434E-16
5.838101E+03	7.995847E-15	1.242876E-16
5.848046E+03	8.074656E-15	1.256495E-16
5.857992E+03	8.127777E-15	1.265599E-16
5.867938E+03	8.151713E-15	1.269623E-16
5.877883E+03	8.144557E-15	1.268262E-16
5.887829E+03	8.105408E-15	1.261383E-16
5.897775E+03	8.034966E-15	1.249112E-16
5.907720E+03	7.935095E-15	1.231775E-16
5.917666E+03	7.808745E-15	1.209875E-16
5.927612E+03	7.659607E-15	1.184037E-16
5.937557E+03	7.491989E-15	1.154988E-16
5.947503E+03	7.310461E-15	1.123496E-16
5.957449E+03	7.119587E-15	1.090325E-16
5.967394E+03	6.923433E-15	1.056160E-16
5.977340E+03	6.725788E-15	1.021632E-16
5.987285E+03	6.529768E-15	9.872657E-17
5.997231E+03	6.337771E-15	9.534665E-17
6.007177E+03	6.151694E-15	9.205568E-17
6.017122E+03	5.972658E-15	8.887354E-17
6.027068E+03	5.801509E-15	8.581545E-17
6.037014E+03	5.638720E-15	8.289058E-17
6.046959E+03	5.484350E-15	8.010161E-17
6.056905E+03	5.338520E-15	7.745192E-17
6.066851E+03	5.201280E-15	7.494353E-17
6.076796E+03	5.072803E-15	7.258005E-17
6.086742E+03	4.953273E-15	7.036498E-17
6.096688E+03	4.843131E-15	6.830523E-17
6.106633E+03	4.742912E-15	6.640875E-17
6.116579E+03	4.653374E-15	6.468632E-17
6.126525E+03	4.575299E-15	6.314872E-17
6.136470E+03	4.509380E-15	6.180530E-17
6.146416E+03	4.456364E-15	6.066600E-17
6.156362E+03	4.416920E-15	5.973973E-17
6.166307E+03	4.391345E-15	5.903047E-17
6.176253E+03	4.379870E-15	5.854173E-17
6.186199E+03	4.382399E-15	5.827321E-17
6.196144E+03	4.398608E-15	5.822237E-17
6.206090E+03	4.428024E-15	5.838553E-17
6.216036E+03	4.470052E-15	5.875848E-17
6.225981E+03	4.523821E-15	5.933443E-17
6.235927E+03	4.588523E-15	6.010851E-17
6.245873E+03	4.663195E-15	6.107491E-17
6.255818E+03	4.746944E-15	6.222973E-17
6.265764E+03	4.838756E-15	6.356833E-17
6.275710E+03	4.937699E-15	6.508795E-17
6.285655E+03	5.042699E-15	6.678448E-17
6.295601E+03	5.152694E-15	6.865419E-17
6.305546E+03	5.266636E-15	7.069078E-17
6.315492E+03	5.383267E-15	7.288179E-17
6.325438E+03	5.501584E-15	7.521715E-17
6.335383E+03	5.620422E-15	7.768360E-17
6.345329E+03	5.738938E-15	8.027109E-17
6.355275E+03	5.856564E-15	8.297237E-17
6.365220E+03	5.973307E-15	8.578739E-17
6.375166E+03	6.089713E-15	8.872340E-17
6.385112E+03	6.207360E-15	9.180289E-17
6.395057E+03	6.328384E-15	9.505777E-17
6.405003E+03	6.456198E-15	9.854124E-17
6.414949E+03	6.594623E-15	1.023162E-16
6.424894E+03	6.747777E-15	1.064543E-16
6.434840E+03	6.916419E-15	1.109779E-16
6.444786E+03	7.095956E-15	1.158235E-16
6.454731E+03	7.280296E-15	1.208977E-16
6.464677E+03	7.463068E-15	1.260954E-16
6.474623E+03	7.637708E-15	1.313008E-16
6.484568E+03	7.798001E-15	1.363956E-16
6.494514E+03	7.938254E-15	1.412634E-16
6.504460E+03	8.053548E-15	1.457937E-16
6.514405E+03	8.139809E-15	1.498853E-16
6.524351E+03	8.194208E-15	1.534548E-16
6.534297E+03	8.214837E-15	1.564323E-16
6.544242E+03	8.200955E-15	1.587677E-16
6.554188E+03	8.152946E-15	1.604322E-16
6.564134E+03	8.072443E-15	1.614223E-16
6.574079E+03	7.961665E-15	1.617488E-16
6.584025E+03	7.823720E-15	1.614437E-16
6.593971E+03	7.662370E-15	1.605573E-16
6.603916E+03	7.481667E-15	1.591510E-16
6.613862E+03	7.285834E-15	1.572956E-16
6.623808E+03	7.079201E-15	1.550702E-16
6.633753E+03	6.865652E-15	1.525496E-16
6.643699E+03	6.649156E-15	1.498161E-16
6.653644E+03	6.433108E-15	1.469440E-16
6.663590E+03	6.220444E-15	1.440015E-16
6.673536E+03	6.013534E-15	1.410477E-16
6.683481E+03	5.814421E-15	1.381366E-16
6.693427E+03	5.624594E-15	1.353116E-16
6.703373E+03	5.445102E-15	1.326074E-16
6.713318E+03	5.276613E-15	1.300503E-16
6.723264E+03	5.119533E-15	1.276608E-16
6.733210E+03	4.973785E-15	1.254479E-16
6.743155E+03	4.839350E-15	1.234217E-16
6.753101E+03	4.715765E-15	1.215805E-16
6.763047E+03	4.602707E-15	1.199259E-16
6.772992E+03	4.499620E-15	1.184528E-16
6.782938E+03	4.405766E-15	1.171502E-16
6.792884E+03	4.320613E-15	1.160120E-16
6.802829E+03	4.243422E-15	1.150257E-16
6.812775E+03	4.173572E-15	1.141808E-16
6.822721E+03	4.110327E-15	1.134634E-16
6.832666E+03	4.053029E-15	1.128604E-16
6.842612E+03	4.001048E-15	1.123588E-16
6.852558E+03	3.953838E-15	1.119476E-16
6.862503E+03	3.910781E-15	1.116127E-16
6.872449E+03	3.871355E-15	1.113423E-16
6.882395E+03	3.835086E-15	1.111254E-16
6.892340E+03	3.801603E-15	1.109536E-16
6.902286E+03	3.770421E-15	1.108146E-16
6.912232E+03	3.741335E-15	1.107041E-16
6.922177E+03	3.714028E-15	1.106141E-16
6.932123E+03	3.688303E-15	1.105401E-16
6.942069E+03	3.664075E-15	1.104805E-16
6.952014E+03	3.641159E-15	1.104309E-16
6.961960E+03	3.619591E-15	1.103933E-16
6.971906E+03	3.599410E-15	1.103697E-16
6.981851E+03	3.580703E-15	1.103638E-16
6.991797E+03	3.563598E-15	1.103804E-16
7.001742E+03	3.548203E-15	1.104239E-16
7.011688E+03	3.534811E-15	1.105042E-16
7.021634E+03	3.523510E-15	1.106252E-16
7.031579E+03	3.514555E-15	1.107959E-16
7.041525E+03	3.508084E-15	1.110216E-16
7.051471E+03	3.504326E-15	1.113106E-16
7.061416E+03	3.503382E-15	1.116670E-16
7.071362E+03	3.505426E-15	1.120973E-16
7.081308E+03	3.510546E-15	1.126053E-16
7.091253E+03	3.518675E-15	1.131896E-16
7.101199E+03	3.529979E-15	1.138562E-16
7.111145E+03	3.544244E-15	1.145987E-16
7.121090E+03	3.561485E-15	1.154182E-16
7.131036E+03	3.581445E-15	1.163067E-16
7.140982E+03	3.604048E-15	1.172618E-16
7.150927E+03	3.629012E-15	1.182746E-16
7.160873E+03	3.656076E-15	1.193365E-16
7.170819E+03	3.685016E-15	1.204401E-16
7.180764E+03	3.715417E-15	1.215717E-16
7.190710E+03	3.747037E-15	1.227229E-16
7.200656E+03	3.779515E-15	1.238817E-16
7.210601E+03	3.812682E-15	1.250421E-16
7.220547E+03	3.846139E-15	1.261907E-16
7.230493E+03	3.879748E-15	1.273224E-16
7.240438E+03	3.913069E-15	1.284225E-16
7.250384E+03	3.946056E-15	1.294889E-16
7.260330E+03	3.978345E-15	1.305096E-16
7.270275E+03	4.009772E-15	1.314788E-16
7.280221E+03	4.040040E-15	1.323864E-16
7.290167E+03	4.068980E-15	1.332269E-16
7.300112E+03	4.096284E-15	1.339900E-16
7.310058E+03	4.121782E-15	1.346703E-16
7.320004E+03	4.145235E-15	1.352601E-16
7.329949E+03	4.166278E-15	1.357477E-16
7.339895E+03	4.184911E-15	1.361336E-16
7.349840E+03	4.200746E-15	1.364056E-16
7.359786E+03	4.213862E-15	1.365671E-16
7.369732E+03	4.224035E-15	1.366115E-16
7.379677E+03	4.231325E-15	1.365418E-16
7.389623E+03	4.235724E-15	1.363587E-16
7.399569E+03	4.237527E-15	1.360728E-16
7.409514E+03	4.236829E-15	1.356885E-16
7.419460E+03	4.233957E-15	1.352173E-16
7.429406E+03	4.229399E-15	1.346762E-16
7.439351E+03	4.223569E-15	1.340794E-16
7.449297E+03	4.217092E-15	1.334478E-16
7.459243E+03	4.210413E-15	1.327966E-16
7.469188E+03	4.204292E-15	1.321505E-16
7.479134E+03	4.199189E-15	1.315246E-16
7.489080E+03	4.195761E-15	1.309400E-16
7.499025E+03	4.194534E-15	1.304134E-16
7.508971E+03	4.195961E-15	1.299590E-16
7.518917E+03	4.200401E-15	1.295880E-16
7.528862E+03	4.208028E-15	1.293054E-16
7.538808E+03	4.219047E-15	1.291176E-16
7.548754E+03	4.233463E-15	1.290244E-16
7.558699E+03	4.251158E-15	1.290221E-16
7.568645E+03	4.271895E-15	1.291035E-16
7.578591E+03	4.295253E-15	1.292560E-16
7.588536E+03	4.320866E-15	1.294688E-16
7.598482E+03	4.348209E-15	1.297270E-16
7.608428E+03	4.376618E-15	1.300116E-16
7.618373E+03	4.405618E-15	1.303098E-16
7.628319E+03	4.434394E-15	1.305989E-16
7.638265E+03	4.462360E-15	1.308638E-16
7.648210E+03	4.488782E-15	1.310852E-16
7.658156E+03	4.513198E-15	1.312523E-16
7.668101E+03	4.534864E-15	1.313462E-16
7.678047E+03	4.553336E-15	1.313574E-16
7.687993E+03	4.568157E-15	1.312761E-16
7.697938E+03	4.578863E-15	1.310924E-16
7.707884E+03	4.585239E-15	1.308039E-16
7.717830E+03	4.587071E-15	1.304081E-16
