#wls	flux	fluxerr
1.591305E+03	5.478433E-16	2.637754E-17
1.631088E+03	4.957802E-16	2.360354E-17
1.670870E+03	4.440096E-16	2.089735E-17
1.710653E+03	3.936058E-16	1.830934E-17
1.750436E+03	3.455136E-16	1.588149E-17
1.790218E+03	3.003150E-16	1.363709E-17
1.830001E+03	2.583926E-16	1.158909E-17
1.869784E+03	2.200759E-16	9.747071E-18
1.909566E+03	1.855307E-16	8.112613E-18
1.949349E+03	1.549437E-16	6.687688E-18
1.989131E+03	1.285258E-16	5.474787E-18
2.028914E+03	1.065704E-16	4.479307E-18
2.068697E+03	8.941062E-17	3.707555E-18
2.108479E+03	7.731189E-17	3.162295E-18
2.148262E+03	7.023218E-17	2.833280E-18
2.188045E+03	6.786923E-17	2.700042E-18
2.227827E+03	6.981929E-17	2.738875E-18
2.267610E+03	7.593809E-17	2.937105E-18
2.307392E+03	8.640992E-17	3.295030E-18
2.347175E+03	1.018326E-16	3.828200E-18
2.386958E+03	1.231843E-16	4.565075E-18
2.426740E+03	1.518138E-16	5.545703E-18
2.466523E+03	1.892224E-16	6.812950E-18
2.506306E+03	2.368134E-16	8.403238E-18
2.546088E+03	2.954686E-16	1.033205E-17
2.585871E+03	3.649202E-16	1.257368E-17
2.625653E+03	4.436312E-16	1.506010E-17
2.665436E+03	5.291334E-16	1.769548E-17
2.705219E+03	6.187163E-16	2.038119E-17
2.745001E+03	7.094156E-16	2.301596E-17
2.784784E+03	7.983319E-16	2.550663E-17
2.824567E+03	8.827678E-16	2.777220E-17
2.864349E+03	9.604553E-16	2.975036E-17
2.904132E+03	1.029894E-15	3.140661E-17
2.943914E+03	1.090757E-15	3.274450E-17
2.983697E+03	1.143785E-15	3.379982E-17
2.993643E+03	1.155993E-15	3.402614E-17
3.003588E+03	1.167871E-15	3.424042E-17
3.013534E+03	1.179443E-15	3.444353E-17
3.023480E+03	1.190755E-15	3.463692E-17
3.033425E+03	1.201910E-15	3.482371E-17
3.043371E+03	1.213024E-15	3.500729E-17
3.053317E+03	1.224173E-15	3.518997E-17
3.063262E+03	1.235418E-15	3.537343E-17
3.073208E+03	1.246727E-15	3.555682E-17
3.083154E+03	1.258167E-15	3.574200E-17
3.093099E+03	1.269803E-15	3.593086E-17
3.103045E+03	1.281617E-15	3.612280E-17
3.112991E+03	1.293679E-15	3.631980E-17
3.122936E+03	1.306064E-15	3.652385E-17
3.132882E+03	1.318760E-15	3.673451E-17
3.142828E+03	1.331888E-15	3.695508E-17
3.152773E+03	1.345483E-15	3.718637E-17
3.162719E+03	1.359538E-15	3.742808E-17
3.172665E+03	1.374179E-15	3.768347E-17
3.182610E+03	1.389443E-15	3.795345E-17
3.192556E+03	1.405371E-15	3.823888E-17
3.202502E+03	1.422002E-15	3.854065E-17
3.212447E+03	1.439460E-15	3.886191E-17
3.222393E+03	1.457783E-15	3.920345E-17
3.232339E+03	1.476968E-15	3.956489E-17
3.242284E+03	1.497132E-15	3.994914E-17
3.252230E+03	1.518309E-15	4.035681E-17
3.262175E+03	1.540528E-15	4.078836E-17
3.272121E+03	1.563813E-15	4.124412E-17
3.282067E+03	1.588264E-15	4.172648E-17
3.292012E+03	1.613854E-15	4.223432E-17
3.301958E+03	1.640625E-15	4.276847E-17
3.311904E+03	1.668572E-15	4.332846E-17
3.321849E+03	1.697718E-15	4.391459E-17
3.331795E+03	1.727994E-15	4.452470E-17
3.341741E+03	1.759398E-15	4.515846E-17
3.351686E+03	1.791830E-15	4.581305E-17
3.361632E+03	1.825302E-15	4.648848E-17
3.371578E+03	1.859686E-15	4.718125E-17
3.381523E+03	1.894884E-15	4.788864E-17
3.391469E+03	1.930742E-15	4.860664E-17
3.401415E+03	1.967187E-15	4.933322E-17
3.411360E+03	2.004056E-15	5.006422E-17
3.421306E+03	2.041195E-15	5.079571E-17
3.431252E+03	2.078498E-15	5.152508E-17
3.441197E+03	2.115881E-15	5.225026E-17
3.451143E+03	2.153160E-15	5.296675E-17
3.461089E+03	2.190287E-15	5.367346E-17
3.471034E+03	2.227170E-15	5.436825E-17
3.480980E+03	2.263689E-15	5.504835E-17
3.490926E+03	2.299797E-15	5.571278E-17
3.500871E+03	2.335399E-15	5.635942E-17
3.510817E+03	2.370555E-15	5.698993E-17
3.520763E+03	2.405231E-15	5.760367E-17
3.530708E+03	2.439498E-15	5.820256E-17
3.540654E+03	2.473409E-15	5.878799E-17
3.550600E+03	2.506993E-15	5.936073E-17
3.560545E+03	2.540373E-15	5.992375E-17
3.570491E+03	2.573642E-15	6.047928E-17
3.580436E+03	2.606866E-15	6.102888E-17
3.590382E+03	2.640200E-15	6.157616E-17
3.600328E+03	2.673771E-15	6.212402E-17
3.610273E+03	2.707758E-15	6.267652E-17
3.620219E+03	2.742389E-15	6.323880E-17
3.630165E+03	2.777871E-15	6.381539E-17
3.640110E+03	2.814422E-15	6.441104E-17
3.650056E+03	2.852353E-15	6.503258E-17
3.660002E+03	2.891952E-15	6.568615E-17
3.669947E+03	2.933482E-15	6.637722E-17
3.679893E+03	2.977253E-15	6.711228E-17
3.689839E+03	3.023583E-15	6.789788E-17
3.699784E+03	3.072834E-15	6.874144E-17
3.709730E+03	3.125284E-15	6.964836E-17
3.719676E+03	3.181240E-15	7.062465E-17
3.729621E+03	3.241030E-15	7.167663E-17
3.739567E+03	3.304913E-15	7.280901E-17
3.749513E+03	3.373067E-15	7.402467E-17
3.759458E+03	3.445704E-15	7.532713E-17
3.769404E+03	3.522932E-15	7.671755E-17
3.779350E+03	3.604828E-15	7.819649E-17
3.789295E+03	3.691260E-15	7.975987E-17
3.799241E+03	3.782175E-15	8.140540E-17
3.809187E+03	3.877337E-15	8.312688E-17
3.819132E+03	3.976362E-15	8.491503E-17
3.829078E+03	4.078898E-15	8.676139E-17
3.839024E+03	4.184360E-15	8.865269E-17
3.848969E+03	4.292065E-15	9.057379E-17
3.858915E+03	4.401449E-15	9.251224E-17
3.868861E+03	4.511645E-15	9.444951E-17
3.878806E+03	4.621943E-15	9.637062E-17
3.888752E+03	4.731425E-15	9.825649E-17
3.898698E+03	4.839387E-15	1.000928E-16
3.908643E+03	4.945026E-15	1.018634E-16
3.918589E+03	5.047761E-15	1.035571E-16
3.928534E+03	5.146909E-15	1.051606E-16
3.938480E+03	5.242059E-15	1.066665E-16
3.948426E+03	5.332959E-15	1.080709E-16
3.958371E+03	5.419432E-15	1.093712E-16
3.968317E+03	5.501416E-15	1.105675E-16
3.978263E+03	5.579102E-15	1.116647E-16
3.988208E+03	5.652823E-15	1.126707E-16
3.998154E+03	5.722924E-15	1.135934E-16
4.008100E+03	5.789897E-15	1.144436E-16
4.018045E+03	5.854373E-15	1.152346E-16
4.027991E+03	5.916982E-15	1.159795E-16
4.037937E+03	5.978355E-15	1.166912E-16
4.047882E+03	6.039134E-15	1.173827E-16
4.057828E+03	6.099963E-15	1.180667E-16
4.067774E+03	6.161331E-15	1.187529E-16
4.077719E+03	6.223690E-15	1.194500E-16
4.087665E+03	6.287459E-15	1.201659E-16
4.097611E+03	6.352830E-15	1.209043E-16
4.107556E+03	6.419990E-15	1.216685E-16
4.117502E+03	6.488865E-15	1.224569E-16
4.127448E+03	6.559390E-15	1.232682E-16
4.137393E+03	6.631239E-15	1.240962E-16
4.147339E+03	6.704007E-15	1.249334E-16
4.157285E+03	6.777192E-15	1.257705E-16
4.167230E+03	6.850173E-15	1.265963E-16
4.177176E+03	6.922243E-15	1.273982E-16
4.187122E+03	6.992495E-15	1.281602E-16
4.197067E+03	7.060165E-15	1.288691E-16
4.207013E+03	7.124269E-15	1.295081E-16
4.216959E+03	7.183967E-15	1.300631E-16
4.226904E+03	7.238394E-15	1.305199E-16
4.236850E+03	7.286814E-15	1.308669E-16
4.246796E+03	7.328421E-15	1.310913E-16
4.256741E+03	7.362674E-15	1.311855E-16
4.266687E+03	7.389244E-15	1.311454E-16
4.276632E+03	7.408045E-15	1.309717E-16
4.286578E+03	7.419068E-15	1.306660E-16
4.296524E+03	7.422906E-15	1.302408E-16
4.306469E+03	7.420351E-15	1.297115E-16
4.316415E+03	7.412731E-15	1.291030E-16
4.326361E+03	7.401685E-15	1.284450E-16
4.336306E+03	7.389410E-15	1.277762E-16
4.346252E+03	7.378574E-15	1.271433E-16
4.356198E+03	7.372240E-15	1.265988E-16
4.366143E+03	7.373498E-15	1.261952E-16
4.376089E+03	7.385720E-15	1.259888E-16
4.386035E+03	7.411656E-15	1.260250E-16
4.395980E+03	7.453553E-15	1.263396E-16
4.405926E+03	7.512806E-15	1.269533E-16
4.415872E+03	7.589975E-15	1.278727E-16
4.425817E+03	7.684760E-15	1.290900E-16
4.435763E+03	7.796634E-15	1.305936E-16
4.445709E+03	7.924545E-15	1.323636E-16
4.455654E+03	8.066942E-15	1.343719E-16
4.465600E+03	8.222180E-15	1.365890E-16
4.475546E+03	8.388123E-15	1.389778E-16
4.485491E+03	8.562275E-15	1.414957E-16
4.495437E+03	8.741967E-15	1.440975E-16
4.505383E+03	8.924184E-15	1.467328E-16
4.515328E+03	9.105600E-15	1.493468E-16
4.525274E+03	9.282827E-15	1.518839E-16
4.535220E+03	9.452337E-15	1.542869E-16
4.545165E+03	9.610737E-15	1.565011E-16
4.555111E+03	9.754637E-15	1.584725E-16
4.565057E+03	9.881233E-15	1.601569E-16
4.575002E+03	9.987774E-15	1.615115E-16
4.584948E+03	1.007252E-14	1.625100E-16
4.594894E+03	1.013378E-14	1.631272E-16
4.604839E+03	1.017109E-14	1.633577E-16
4.614785E+03	1.018424E-14	1.632002E-16
4.624730E+03	1.017402E-14	1.626695E-16
4.634676E+03	1.014149E-14	1.617848E-16
4.644622E+03	1.008861E-14	1.605789E-16
4.654567E+03	1.001760E-14	1.590891E-16
4.664513E+03	9.930903E-15	1.573554E-16
4.674459E+03	9.831265E-15	1.554226E-16
4.684404E+03	9.721424E-15	1.533350E-16
4.694350E+03	9.604024E-15	1.511350E-16
4.704296E+03	9.481775E-15	1.488656E-16
4.714241E+03	9.356947E-15	1.465627E-16
4.724187E+03	9.231930E-15	1.442638E-16
4.734133E+03	9.108473E-15	1.419960E-16
4.744078E+03	8.988376E-15	1.397870E-16
4.754024E+03	8.873034E-15	1.376578E-16
4.763970E+03	8.763462E-15	1.356238E-16
4.773915E+03	8.660527E-15	1.336974E-16
4.783861E+03	8.564749E-15	1.318859E-16
4.793807E+03	8.476474E-15	1.301938E-16
4.803752E+03	8.395672E-15	1.286197E-16
4.813698E+03	8.322293E-15	1.271621E-16
4.823644E+03	8.256070E-15	1.258160E-16
4.833589E+03	8.196758E-15	1.245768E-16
4.843535E+03	8.143757E-15	1.234346E-16
4.853481E+03	8.096779E-15	1.223845E-16
4.863426E+03	8.055176E-15	1.214160E-16
4.873372E+03	8.018612E-15	1.205234E-16
4.883318E+03	7.986586E-15	1.196987E-16
4.893263E+03	7.958898E-15	1.189385E-16
4.903209E+03	7.935151E-15	1.182365E-16
4.913155E+03	7.915420E-15	1.175933E-16
4.923100E+03	7.899471E-15	1.170053E-16
4.933046E+03	7.887645E-15	1.164771E-16
4.942991E+03	7.880111E-15	1.160109E-16
4.952937E+03	7.877309E-15	1.156129E-16
4.962883E+03	7.879567E-15	1.152873E-16
4.972828E+03	7.887605E-15	1.150444E-16
4.982774E+03	7.902066E-15	1.148929E-16
4.992720E+03	7.923592E-15	1.148417E-16
5.002665E+03	7.952987E-15	1.149017E-16
5.012611E+03	7.990909E-15	1.150817E-16
5.022557E+03	8.038166E-15	1.153925E-16
5.032502E+03	8.095430E-15	1.158429E-16
5.042448E+03	8.163291E-15	1.164405E-16
5.052394E+03	8.242183E-15	1.171904E-16
5.062339E+03	8.332545E-15	1.180980E-16
5.072285E+03	8.434613E-15	1.191658E-16
5.082231E+03	8.548357E-15	1.203924E-16
5.092176E+03	8.673701E-15	1.217760E-16
5.102122E+03	8.810137E-15	1.233088E-16
5.112068E+03	8.957330E-15	1.249856E-16
5.122013E+03	9.114198E-15	1.267912E-16
5.131959E+03	9.279853E-15	1.287130E-16
5.141905E+03	9.452894E-15	1.307320E-16
5.151850E+03	9.631688E-15	1.328260E-16
5.161796E+03	9.814670E-15	1.349744E-16
5.171742E+03	9.999711E-15	1.371491E-16
5.181687E+03	1.018470E-14	1.393226E-16
5.191633E+03	1.036755E-14	1.414683E-16
5.201579E+03	1.054590E-14	1.435562E-16
5.211524E+03	1.071747E-14	1.455578E-16
5.221470E+03	1.088009E-14	1.474462E-16
5.231416E+03	1.103162E-14	1.491956E-16
5.241361E+03	1.117005E-14	1.507817E-16
5.251307E+03	1.129375E-14	1.521858E-16
5.261253E+03	1.140112E-14	1.533895E-16
5.271198E+03	1.149096E-14	1.543796E-16
5.281144E+03	1.156222E-14	1.551453E-16
5.291089E+03	1.161435E-14	1.556821E-16
5.301035E+03	1.164699E-14	1.559875E-16
5.310981E+03	1.165980E-14	1.560595E-16
5.320926E+03	1.165301E-14	1.559030E-16
5.330872E+03	1.162696E-14	1.555244E-16
5.340818E+03	1.158206E-14	1.549303E-16
5.350763E+03	1.151915E-14	1.541328E-16
5.360709E+03	1.143890E-14	1.531414E-16
5.370655E+03	1.134258E-14	1.519732E-16
5.380600E+03	1.123150E-14	1.506455E-16
5.390546E+03	1.110758E-14	1.491833E-16
5.400492E+03	1.097298E-14	1.476145E-16
5.410437E+03	1.083177E-14	1.459917E-16
5.420383E+03	1.068948E-14	1.443865E-16
5.430329E+03	1.055122E-14	1.428655E-16
5.440274E+03	1.041984E-14	1.414654E-16
5.450220E+03	1.029679E-14	1.402047E-16
5.460166E+03	1.018244E-14	1.390867E-16
5.470111E+03	1.007659E-14	1.381081E-16
5.480057E+03	9.978707E-15	1.372608E-16
5.490003E+03	9.887738E-15	1.365292E-16
5.499948E+03	9.802797E-15	1.359006E-16
5.509894E+03	9.722859E-15	1.353599E-16
5.519840E+03	9.646953E-15	1.348928E-16
5.529785E+03	9.574222E-15	1.344865E-16
5.539731E+03	9.504072E-15	1.341315E-16
5.549677E+03	9.435895E-15	1.338184E-16
5.559622E+03	9.369324E-15	1.335409E-16
5.569568E+03	9.304579E-15	1.333011E-16
5.579514E+03	9.241525E-15	1.330961E-16
5.589459E+03	9.180820E-15	1.329347E-16
5.599405E+03	9.122810E-15	1.328211E-16
5.609351E+03	9.068185E-15	1.327649E-16
5.619296E+03	9.017831E-15	1.327790E-16
5.629242E+03	8.972609E-15	1.328760E-16
5.639187E+03	8.933419E-15	1.330697E-16
5.649133E+03	8.901131E-15	1.333737E-16
5.659079E+03	8.876560E-15	1.338014E-16
5.669024E+03	8.860446E-15	1.343652E-16
5.678970E+03	8.853369E-15	1.350755E-16
5.688916E+03	8.855793E-15	1.359412E-16
5.698861E+03	8.868042E-15	1.369695E-16
5.708807E+03	8.890186E-15	1.381636E-16
5.718753E+03	8.921936E-15	1.395214E-16
5.728698E+03	8.962866E-15	1.410384E-16
5.738644E+03	9.012493E-15	1.427093E-16
5.748590E+03	9.069686E-15	1.445183E-16
5.758535E+03	9.133464E-15	1.464514E-16
5.768481E+03	9.202171E-15	1.484837E-16
5.778427E+03	9.274356E-15	1.505927E-16
5.788372E+03	9.348035E-15	1.527467E-16
5.798318E+03	9.421279E-15	1.549143E-16
5.808264E+03	9.491919E-15	1.570591E-16
5.818209E+03	9.557606E-15	1.591409E-16
5.828155E+03	9.616210E-15	1.611222E-16
5.838101E+03	9.665632E-15	1.629651E-16
5.848046E+03	9.703589E-15	1.646277E-16
5.857992E+03	9.728538E-15	1.660798E-16
5.867938E+03	9.738643E-15	1.672854E-16
5.877883E+03	9.732614E-15	1.682173E-16
5.887829E+03	9.709737E-15	1.688575E-16
5.897775E+03	9.669389E-15	1.691897E-16
5.907720E+03	9.611454E-15	1.692058E-16
5.917666E+03	9.536386E-15	1.689080E-16
5.927612E+03	9.444826E-15	1.683021E-16
5.937557E+03	9.338013E-15	1.674046E-16
5.947503E+03	9.217546E-15	1.662394E-16
5.957449E+03	9.084989E-15	1.648301E-16
5.967394E+03	8.942593E-15	1.632138E-16
5.977340E+03	8.792436E-15	1.614253E-16
5.987285E+03	8.637037E-15	1.595085E-16
5.997231E+03	8.478434E-15	1.574993E-16
6.007177E+03	8.319250E-15	1.554458E-16
6.017122E+03	8.161634E-15	1.533879E-16
6.027068E+03	8.007721E-15	1.513665E-16
6.037014E+03	7.859460E-15	1.494198E-16
6.046959E+03	7.718622E-15	1.475834E-16
6.056905E+03	7.586833E-15	1.458910E-16
6.066851E+03	7.465382E-15	1.443705E-16
6.076796E+03	7.355399E-15	1.430473E-16
6.086742E+03	7.257563E-15	1.419383E-16
6.096688E+03	7.172575E-15	1.410613E-16
6.106633E+03	7.100847E-15	1.404287E-16
6.116579E+03	7.042458E-15	1.400465E-16
6.126525E+03	6.997491E-15	1.399208E-16
6.136470E+03	6.965701E-15	1.400511E-16
6.146416E+03	6.946088E-15	1.404215E-16
6.156362E+03	6.937607E-15	1.410150E-16
6.166307E+03	6.938843E-15	1.418062E-16
6.176253E+03	6.948282E-15	1.427676E-16
6.186199E+03	6.964258E-15	1.438673E-16
6.196144E+03	6.985254E-15	1.450763E-16
6.206090E+03	7.009409E-15	1.463574E-16
6.216036E+03	7.035102E-15	1.476777E-16
6.225981E+03	7.060558E-15	1.490004E-16
6.235927E+03	7.084268E-15	1.502935E-16
6.245873E+03	7.104674E-15	1.515232E-16
6.255818E+03	7.120500E-15	1.526606E-16
6.265764E+03	7.130706E-15	1.536817E-16
6.275710E+03	7.134619E-15	1.545698E-16
6.285655E+03	7.131770E-15	1.553122E-16
6.295601E+03	7.121901E-15	1.559008E-16
6.305546E+03	7.105241E-15	1.563381E-16
6.315492E+03	7.082200E-15	1.566305E-16
6.325438E+03	7.053424E-15	1.567901E-16
6.335383E+03	7.019743E-15	1.568332E-16
6.345329E+03	6.982204E-15	1.567815E-16
6.355275E+03	6.941711E-15	1.566540E-16
6.365220E+03	6.899245E-15	1.564715E-16
6.375166E+03	6.855692E-15	1.562536E-16
6.385112E+03	6.811882E-15	1.560186E-16
6.395057E+03	6.768164E-15	1.557745E-16
6.405003E+03	6.724955E-15	1.555306E-16
6.414949E+03	6.682382E-15	1.552900E-16
6.424894E+03	6.640466E-15	1.550532E-16
6.434840E+03	6.599162E-15	1.548193E-16
6.444786E+03	6.558974E-15	1.546002E-16
6.454731E+03	6.519972E-15	1.543979E-16
6.464677E+03	6.482225E-15	1.542143E-16
6.474623E+03	6.445665E-15	1.540480E-16
6.484568E+03	6.409743E-15	1.538862E-16
6.494514E+03	6.374004E-15	1.537180E-16
6.504460E+03	6.337776E-15	1.535271E-16
6.514405E+03	6.300129E-15	1.532906E-16
6.524351E+03	6.260481E-15	1.529939E-16
6.534297E+03	6.217912E-15	1.526136E-16
6.544242E+03	6.171943E-15	1.521369E-16
6.554188E+03	6.121835E-15	1.515445E-16
6.564134E+03	6.067258E-15	1.508267E-16
6.574079E+03	6.007938E-15	1.499755E-16
6.584025E+03	5.943755E-15	1.489862E-16
6.593971E+03	5.874744E-15	1.478583E-16
6.603916E+03	5.800997E-15	1.465927E-16
6.613862E+03	5.722912E-15	1.451982E-16
6.623808E+03	5.640997E-15	1.436863E-16
6.633753E+03	5.555591E-15	1.420647E-16
6.643699E+03	5.467362E-15	1.403497E-16
6.653644E+03	5.376933E-15	1.385565E-16
6.663590E+03	5.284953E-15	1.367015E-16
6.673536E+03	5.192152E-15	1.348033E-16
6.683481E+03	5.099005E-15	1.328741E-16
6.693427E+03	5.006275E-15	1.309341E-16
6.703373E+03	4.914448E-15	1.289962E-16
6.713318E+03	4.824112E-15	1.270764E-16
6.723264E+03	4.735647E-15	1.251854E-16
6.733210E+03	4.649451E-15	1.233343E-16
6.743155E+03	4.565933E-15	1.215348E-16
6.753101E+03	4.485367E-15	1.197952E-16
6.763047E+03	4.407899E-15	1.181204E-16
6.772992E+03	4.333763E-15	1.165176E-16
6.782938E+03	4.263002E-15	1.149891E-16
6.792884E+03	4.195823E-15	1.135416E-16
6.802829E+03	4.132117E-15	1.121731E-16
6.812775E+03	4.071946E-15	1.108863E-16
6.822721E+03	4.015210E-15	1.096797E-16
6.832666E+03	3.961978E-15	1.085560E-16
6.842612E+03	3.912108E-15	1.075124E-16
6.852558E+03	3.865439E-15	1.065455E-16
6.862503E+03	3.821994E-15	1.056567E-16
6.872449E+03	3.781530E-15	1.048402E-16
6.882395E+03	3.744057E-15	1.040970E-16
6.892340E+03	3.709324E-15	1.034211E-16
6.902286E+03	3.677338E-15	1.028134E-16
6.912232E+03	3.647913E-15	1.022693E-16
6.922177E+03	3.620869E-15	1.017844E-16
6.932123E+03	3.596279E-15	1.013615E-16
6.942069E+03	3.573845E-15	1.009927E-16
6.952014E+03	3.553523E-15	1.006774E-16
6.961960E+03	3.535275E-15	1.004149E-16
6.971906E+03	3.518877E-15	1.001995E-16
6.981851E+03	3.504359E-15	1.000324E-16
6.991797E+03	3.491571E-15	9.990971E-17
7.001742E+03	3.480483E-15	9.983113E-17
7.011688E+03	3.470947E-15	9.979271E-17
7.021634E+03	3.462877E-15	9.979234E-17
7.031579E+03	3.456183E-15	9.982780E-17
7.041525E+03	3.450777E-15	9.989680E-17
7.051471E+03	3.446630E-15	9.999885E-17
7.061416E+03	3.443648E-15	1.001314E-16
7.071362E+03	3.441669E-15	1.002901E-16
7.081308E+03	3.440588E-15	1.004721E-16
7.091253E+03	3.440299E-15	1.006744E-16
7.101199E+03	3.440816E-15	1.008978E-16
7.111145E+03	3.441829E-15	1.011331E-16
7.121090E+03	3.443346E-15	1.013808E-16
7.131036E+03	3.445239E-15	1.016373E-16
7.140982E+03	3.447383E-15	1.018989E-16
7.150927E+03	3.449579E-15	1.021599E-16
7.160873E+03	3.451764E-15	1.024183E-16
7.170819E+03	3.453807E-15	1.026705E-16
7.180764E+03	3.455583E-15	1.029126E-16
7.190710E+03	3.456901E-15	1.031390E-16
7.200656E+03	3.457780E-15	1.033502E-16
7.210601E+03	3.458048E-15	1.035411E-16
7.220547E+03	3.457674E-15	1.037106E-16
7.230493E+03	3.456508E-15	1.038543E-16
7.240438E+03	3.454478E-15	1.039698E-16
7.250384E+03	3.451669E-15	1.040597E-16
7.260330E+03	3.447904E-15	1.041186E-16
7.270275E+03	3.443305E-15	1.041502E-16
7.280221E+03	3.437798E-15	1.041520E-16
7.290167E+03	3.431475E-15	1.041269E-16
7.300112E+03	3.424444E-15	1.040781E-16
7.310058E+03	3.416690E-15	1.040051E-16
7.320004E+03	3.408430E-15	1.039144E-16
7.329949E+03	3.399684E-15	1.038069E-16
7.339895E+03	3.390633E-15	1.036878E-16
7.349840E+03	3.381469E-15	1.035633E-16
7.359786E+03	3.372326E-15	1.034375E-16
7.369732E+03	3.363421E-15	1.033171E-16
7.379677E+03	3.354909E-15	1.032069E-16
7.389623E+03	3.347018E-15	1.031143E-16
7.399569E+03	3.339769E-15	1.030400E-16
7.409514E+03	3.333324E-15	1.029892E-16
7.419460E+03	3.327846E-15	1.029671E-16
7.429406E+03	3.323423E-15	1.029767E-16
7.439351E+03	3.320136E-15	1.030206E-16
7.449297E+03	3.318055E-15	1.031014E-16
7.459243E+03	3.317318E-15	1.032236E-16
7.469188E+03	3.318048E-15	1.033912E-16
7.479134E+03	3.320358E-15	1.036080E-16
7.489080E+03	3.324194E-15	1.038728E-16
7.499025E+03	3.329712E-15	1.041907E-16
7.508971E+03	3.336975E-15	1.045639E-16
7.518917E+03	3.345955E-15	1.049918E-16
7.528862E+03	3.356680E-15	1.054758E-16
7.538808E+03	3.369158E-15	1.060164E-16
7.548754E+03	3.383457E-15	1.066161E-16
7.558699E+03	3.399396E-15	1.072695E-16
7.568645E+03	3.417005E-15	1.079780E-16
7.578591E+03	3.436142E-15	1.087373E-16
7.588536E+03	3.456881E-15	1.095501E-16
7.598482E+03	3.478966E-15	1.104086E-16
7.608428E+03	3.502358E-15	1.113121E-16
7.618373E+03	3.526845E-15	1.122539E-16
7.628319E+03	3.552361E-15	1.132324E-16
7.638265E+03	3.578744E-15	1.142425E-16
7.648210E+03	3.605817E-15	1.152791E-16
7.658156E+03	3.633308E-15	1.163336E-16
7.668101E+03	3.661098E-15	1.174024E-16
7.678047E+03	3.688974E-15	1.184789E-16
7.687993E+03	3.716711E-15	1.195560E-16
7.697938E+03	3.744072E-15	1.206264E-16
7.707884E+03	3.770722E-15	1.216792E-16
7.717830E+03	3.796581E-15	1.227121E-16
