#wls	flux	fluxerr
1.591305E+03	6.477097E-16	2.760787E-17
1.631088E+03	5.879913E-16	2.480473E-17
1.670870E+03	5.278742E-16	2.203452E-17
1.710653E+03	4.689067E-16	1.936274E-17
1.750436E+03	4.121444E-16	1.683194E-17
1.790218E+03	3.584351E-16	1.447425E-17
1.830001E+03	3.083345E-16	1.230850E-17
1.869784E+03	2.623009E-16	1.034848E-17
1.909566E+03	2.206652E-16	8.602024E-18
1.949349E+03	1.837109E-16	7.074393E-18
1.989131E+03	1.517146E-16	5.769884E-18
2.028914E+03	1.249817E-16	4.693213E-18
2.068697E+03	1.039282E-16	3.852495E-18
2.108479E+03	8.880647E-17	3.248930E-18
2.148262E+03	7.964263E-17	2.874968E-18
2.188045E+03	7.604693E-17	2.708120E-18
2.227827E+03	7.753289E-17	2.723211E-18
2.267610E+03	8.392665E-17	2.906818E-18
2.307392E+03	9.548570E-17	3.260592E-18
2.347175E+03	1.129494E-16	3.801886E-18
2.386958E+03	1.375925E-16	4.564361E-18
2.426740E+03	1.711603E-16	5.594576E-18
2.466523E+03	2.157042E-16	6.945562E-18
2.506306E+03	2.732506E-16	8.665548E-18
2.546088E+03	3.451744E-16	1.077849E-17
2.585871E+03	4.312537E-16	1.325659E-17
2.625653E+03	5.291709E-16	1.600910E-17
2.665436E+03	6.355125E-16	1.891723E-17
2.705219E+03	7.470448E-16	2.187414E-17
2.745001E+03	8.600591E-16	2.476572E-17
2.784784E+03	9.706081E-16	2.747844E-17
2.824567E+03	1.074902E-15	2.991095E-17
2.864349E+03	1.169915E-15	3.199026E-17
2.904132E+03	1.253624E-15	3.367628E-17
2.943914E+03	1.325501E-15	3.497236E-17
2.983697E+03	1.386453E-15	3.592006E-17
2.993643E+03	1.400236E-15	3.611104E-17
3.003588E+03	1.413493E-15	3.628553E-17
3.013534E+03	1.426312E-15	3.644596E-17
3.023480E+03	1.438802E-15	3.659532E-17
3.033425E+03	1.450989E-15	3.673437E-17
3.043371E+03	1.463113E-15	3.686931E-17
3.053317E+03	1.475221E-15	3.700136E-17
3.063262E+03	1.487332E-15	3.713104E-17
3.073208E+03	1.499472E-15	3.725896E-17
3.083154E+03	1.511766E-15	3.738831E-17
3.093099E+03	1.524248E-15	3.751980E-17
3.103045E+03	1.536900E-15	3.765300E-17
3.112991E+03	1.549861E-15	3.779119E-17
3.122936E+03	1.563169E-15	3.793523E-17
3.132882E+03	1.576870E-15	3.808607E-17
3.142828E+03	1.591010E-15	3.824468E-17
3.152773E+03	1.605735E-15	3.841438E-17
3.162719E+03	1.620998E-15	3.859390E-17
3.172665E+03	1.636997E-15	3.878769E-17
3.182610E+03	1.653739E-15	3.899568E-17
3.192556E+03	1.671327E-15	3.922002E-17
3.202502E+03	1.689865E-15	3.946285E-17
3.212447E+03	1.709363E-15	3.972411E-17
3.222393E+03	1.729928E-15	4.000588E-17
3.232339E+03	1.751616E-15	4.030914E-17
3.242284E+03	1.774577E-15	4.063689E-17
3.252230E+03	1.798818E-15	4.098892E-17
3.262175E+03	1.824438E-15	4.136698E-17
3.272121E+03	1.851482E-15	4.177167E-17
3.282067E+03	1.880038E-15	4.220444E-17
3.292012E+03	1.910137E-15	4.266550E-17
3.301958E+03	1.941804E-15	4.315487E-17
3.311904E+03	1.975046E-15	4.367221E-17
3.321849E+03	2.009905E-15	4.421788E-17
3.331795E+03	2.046355E-15	4.479077E-17
3.341741E+03	2.084349E-15	4.538937E-17
3.351686E+03	2.123772E-15	4.601063E-17
3.361632E+03	2.164612E-15	4.665384E-17
3.371578E+03	2.206651E-15	4.731384E-17
3.381523E+03	2.249725E-15	4.798675E-17
3.391469E+03	2.293685E-15	4.866907E-17
3.401415E+03	2.338219E-15	4.935393E-17
3.411360E+03	2.383080E-15	5.003593E-17
3.421306E+03	2.428004E-15	5.070949E-17
3.431252E+03	2.472639E-15	5.136727E-17
3.441197E+03	2.516697E-15	5.200343E-17
3.451143E+03	2.559982E-15	5.261415E-17
3.461089E+03	2.602273E-15	5.319519E-17
3.471034E+03	2.643416E-15	5.374374E-17
3.480980E+03	2.683378E-15	5.425954E-17
3.490926E+03	2.722203E-15	5.474385E-17
3.500871E+03	2.759946E-15	5.519822E-17
3.510817E+03	2.796706E-15	5.562497E-17
3.520763E+03	2.832608E-15	5.602690E-17
3.530708E+03	2.867838E-15	5.640799E-17
3.540654E+03	2.902464E-15	5.676974E-17
3.550600E+03	2.936727E-15	5.711706E-17
3.560545E+03	2.970744E-15	5.745225E-17
3.570491E+03	3.004714E-15	5.777922E-17
3.580436E+03	3.038797E-15	5.810100E-17
3.590382E+03	3.073154E-15	5.842059E-17
3.600328E+03	3.107999E-15	5.874189E-17
3.610273E+03	3.143513E-15	5.906813E-17
3.620219E+03	3.179935E-15	5.940352E-17
3.630165E+03	3.217486E-15	5.975183E-17
3.640110E+03	3.256535E-15	6.011948E-17
3.650056E+03	3.297313E-15	6.051018E-17
3.660002E+03	3.340246E-15	6.093112E-17
3.669947E+03	3.385750E-15	6.138906E-17
3.679893E+03	3.434180E-15	6.188958E-17
3.689839E+03	3.486041E-15	6.244071E-17
3.699784E+03	3.541812E-15	6.304980E-17
3.709730E+03	3.601930E-15	6.372331E-17
3.719676E+03	3.666913E-15	6.446887E-17
3.729621E+03	3.737212E-15	6.529274E-17
3.739567E+03	3.813239E-15	6.620030E-17
3.749513E+03	3.895348E-15	6.719573E-17
3.759458E+03	3.983812E-15	6.828169E-17
3.769404E+03	4.078851E-15	6.945980E-17
3.779350E+03	4.180515E-15	7.072876E-17
3.789295E+03	4.288765E-15	7.208568E-17
3.799241E+03	4.403261E-15	7.352272E-17
3.809187E+03	4.523728E-15	7.503325E-17
3.819132E+03	4.649524E-15	7.660472E-17
3.829078E+03	4.779875E-15	7.822273E-17
3.839024E+03	4.913884E-15	7.987122E-17
3.848969E+03	5.050517E-15	8.153232E-17
3.858915E+03	5.188490E-15	8.318464E-17
3.868861E+03	5.326560E-15	8.480804E-17
3.878806E+03	5.463427E-15	8.638198E-17
3.888752E+03	5.597710E-15	8.788530E-17
3.898698E+03	5.728190E-15	8.929998E-17
3.908643E+03	5.853716E-15	9.060959E-17
3.918589E+03	5.973383E-15	9.180202E-17
3.928534E+03	6.086423E-15	9.286767E-17
3.938480E+03	6.192400E-15	9.380229E-17
3.948426E+03	6.290998E-15	9.460370E-17
3.958371E+03	6.382262E-15	9.527521E-17
3.968317E+03	6.466665E-15	9.582645E-17
3.978263E+03	6.544564E-15	9.626521E-17
3.988208E+03	6.616818E-15	9.660642E-17
3.998154E+03	6.684331E-15	9.686530E-17
4.008100E+03	6.748192E-15	9.705934E-17
4.018045E+03	6.809420E-15	9.720462E-17
4.027991E+03	6.869102E-15	9.731768E-17
4.037937E+03	6.928366E-15	9.741527E-17
4.047882E+03	6.988249E-15	9.751232E-17
4.057828E+03	7.049484E-15	9.761919E-17
4.067774E+03	7.112911E-15	9.774742E-17
4.077719E+03	7.178994E-15	9.790307E-17
4.087665E+03	7.248142E-15	9.809132E-17
4.097611E+03	7.320429E-15	9.831271E-17
4.107556E+03	7.395845E-15	9.856669E-17
4.117502E+03	7.474119E-15	9.884928E-17
4.127448E+03	7.554782E-15	9.915406E-17
4.137393E+03	7.637104E-15	9.947144E-17
4.147339E+03	7.720349E-15	9.979213E-17
4.157285E+03	7.803491E-15	1.001034E-16
4.167230E+03	7.885550E-15	1.003936E-16
4.177176E+03	7.965267E-15	1.006478E-16
4.187122E+03	8.041551E-15	1.008539E-16
4.197067E+03	8.113188E-15	1.009986E-16
4.207013E+03	8.179073E-15	1.010703E-16
4.216959E+03	8.238122E-15	1.010582E-16
4.226904E+03	8.289370E-15	1.009533E-16
4.236850E+03	8.332079E-15	1.007495E-16
4.246796E+03	8.365555E-15	1.004414E-16
4.256741E+03	8.389396E-15	1.000276E-16
4.266687E+03	8.403429E-15	9.950901E-17
4.276632E+03	8.407597E-15	9.888819E-17
4.286578E+03	8.402346E-15	9.817332E-17
4.296524E+03	8.388272E-15	9.737413E-17
4.306469E+03	8.366166E-15	9.650229E-17
4.316415E+03	8.337529E-15	9.557727E-17
4.326361E+03	8.304257E-15	9.462249E-17
4.336306E+03	8.268924E-15	9.366849E-17
4.346252E+03	8.235017E-15	9.275528E-17
4.356198E+03	8.206888E-15	9.193169E-17
4.366143E+03	8.189434E-15	9.125156E-17
4.376089E+03	8.188209E-15	9.077501E-17
4.386035E+03	8.209182E-15	9.056537E-17
4.395980E+03	8.256793E-15	9.066788E-17
4.405926E+03	8.331897E-15	9.108804E-17
4.415872E+03	8.433231E-15	9.180849E-17
4.425817E+03	8.559444E-15	9.281161E-17
4.435763E+03	8.708993E-15	9.407824E-17
4.445709E+03	8.880047E-15	9.558647E-17
4.455654E+03	9.070436E-15	9.731098E-17
4.465600E+03	9.277555E-15	9.922224E-17
4.475546E+03	9.498488E-15	1.012879E-16
4.485491E+03	9.729450E-15	1.034669E-16
4.495437E+03	9.966395E-15	1.057157E-16
4.505383E+03	1.020453E-14	1.079835E-16
4.515328E+03	1.043903E-14	1.102196E-16
4.525274E+03	1.066459E-14	1.123682E-16
4.535220E+03	1.087574E-14	1.143724E-16
4.545165E+03	1.106736E-14	1.161792E-16
4.555111E+03	1.123486E-14	1.177411E-16
4.565057E+03	1.137388E-14	1.190133E-16
4.575002E+03	1.148138E-14	1.199648E-16
4.584948E+03	1.155485E-14	1.205699E-16
4.594894E+03	1.159315E-14	1.208172E-16
4.604839E+03	1.159642E-14	1.207083E-16
4.614785E+03	1.156555E-14	1.202530E-16
4.624730E+03	1.150267E-14	1.194732E-16
4.634676E+03	1.141077E-14	1.183997E-16
4.644622E+03	1.129358E-14	1.170712E-16
4.654567E+03	1.115503E-14	1.155276E-16
4.664513E+03	1.099966E-14	1.138158E-16
4.674459E+03	1.083192E-14	1.119809E-16
4.684404E+03	1.065570E-14	1.100627E-16
4.694350E+03	1.047480E-14	1.080996E-16
4.704296E+03	1.029265E-14	1.061264E-16
4.714241E+03	1.011228E-14	1.041737E-16
4.724187E+03	9.936356E-15	1.022681E-16
4.734133E+03	9.767051E-15	1.004314E-16
4.744078E+03	9.606063E-15	9.868037E-17
4.754024E+03	9.454634E-15	9.702707E-17
4.763970E+03	9.313761E-15	9.548107E-17
4.773915E+03	9.183699E-15	9.404436E-17
4.783861E+03	9.064891E-15	9.272083E-17
4.793807E+03	8.957056E-15	9.150698E-17
4.803752E+03	8.859938E-15	9.039961E-17
4.813698E+03	8.772999E-15	8.939264E-17
4.823644E+03	8.695650E-15	8.847952E-17
4.833589E+03	8.627044E-15	8.765111E-17
4.843535E+03	8.566462E-15	8.689960E-17
4.853481E+03	8.513100E-15	8.621639E-17
4.863426E+03	8.466264E-15	8.559403E-17
4.873372E+03	8.425286E-15	8.502538E-17
4.883318E+03	8.389593E-15	8.450429E-17
4.893263E+03	8.358758E-15	8.402616E-17
4.903209E+03	8.332674E-15	8.358962E-17
4.913155E+03	8.311093E-15	8.319189E-17
4.923100E+03	8.294281E-15	8.283536E-17
4.933046E+03	8.282505E-15	8.252242E-17
4.942991E+03	8.276148E-15	8.225656E-17
4.952937E+03	8.275905E-15	8.204434E-17
4.962883E+03	8.282514E-15	8.189268E-17
4.972828E+03	8.296927E-15	8.181053E-17
4.982774E+03	8.320003E-15	8.180578E-17
4.992720E+03	8.352735E-15	8.188755E-17
5.002665E+03	8.396210E-15	8.206576E-17
5.012611E+03	8.451418E-15	8.234921E-17
5.022557E+03	8.519205E-15	8.274519E-17
5.032502E+03	8.600487E-15	8.326151E-17
5.042448E+03	8.695988E-15	8.390405E-17
5.052394E+03	8.806165E-15	8.467595E-17
5.062339E+03	8.931451E-15	8.558010E-17
5.072285E+03	9.071953E-15	8.661622E-17
5.082231E+03	9.227522E-15	8.778155E-17
5.092176E+03	9.397594E-15	8.906947E-17
5.102122E+03	9.581387E-15	9.047139E-17
5.112068E+03	9.777842E-15	9.197629E-17
5.122013E+03	9.985440E-15	9.356904E-17
5.131959E+03	1.020223E-14	9.523077E-17
5.141905E+03	1.042597E-14	9.694023E-17
5.151850E+03	1.065410E-14	9.867375E-17
5.161796E+03	1.088380E-14	1.004055E-16
5.171742E+03	1.111190E-14	1.021074E-16
5.181687E+03	1.133543E-14	1.037532E-16
5.191633E+03	1.155091E-14	1.053131E-16
5.201579E+03	1.175525E-14	1.067610E-16
5.211524E+03	1.194527E-14	1.080706E-16
5.221470E+03	1.211809E-14	1.092191E-16
5.231416E+03	1.227115E-14	1.101868E-16
5.241361E+03	1.240214E-14	1.109564E-16
5.251307E+03	1.250937E-14	1.115168E-16
5.261253E+03	1.259146E-14	1.118597E-16
5.271198E+03	1.264722E-14	1.119784E-16
5.281144E+03	1.267637E-14	1.118744E-16
5.291089E+03	1.267852E-14	1.115481E-16
5.301035E+03	1.265401E-14	1.110063E-16
5.310981E+03	1.260328E-14	1.102559E-16
5.320926E+03	1.252716E-14	1.093075E-16
5.330872E+03	1.242663E-14	1.081722E-16
5.340818E+03	1.230325E-14	1.068661E-16
5.350763E+03	1.215818E-14	1.054013E-16
5.360709E+03	1.199330E-14	1.037954E-16
5.370655E+03	1.181062E-14	1.020670E-16
5.380600E+03	1.161258E-14	1.002377E-16
5.390546E+03	1.140230E-14	9.833483E-17
5.400492E+03	1.118466E-14	9.639968E-17
5.410437E+03	1.096752E-14	9.449796E-17
5.420383E+03	1.076102E-14	9.271434E-17
5.430329E+03	1.057069E-14	9.109409E-17
5.440274E+03	1.039697E-14	8.963880E-17
5.450220E+03	1.023911E-14	8.834012E-17
5.460166E+03	1.009629E-14	8.718914E-17
5.470111E+03	9.967656E-15	8.617711E-17
5.480057E+03	9.851631E-15	8.528902E-17
5.490003E+03	9.746941E-15	8.451266E-17
5.499948E+03	9.651841E-15	8.383185E-17
5.509894E+03	9.564899E-15	8.323313E-17
5.519840E+03	9.484787E-15	8.270399E-17
5.529785E+03	9.410046E-15	8.223079E-17
5.539731E+03	9.339718E-15	8.180426E-17
5.549677E+03	9.273085E-15	8.141723E-17
5.559622E+03	9.209415E-15	8.106242E-17
5.569568E+03	9.148511E-15	8.073728E-17
5.579514E+03	9.090465E-15	8.044184E-17
5.589459E+03	9.035305E-15	8.017567E-17
5.599405E+03	8.983669E-15	7.994377E-17
5.609351E+03	8.936192E-15	7.975130E-17
5.619296E+03	8.893457E-15	7.960304E-17
5.629242E+03	8.856511E-15	7.950805E-17
5.639187E+03	8.826285E-15	7.947453E-17
5.649133E+03	8.803608E-15	7.950990E-17
5.659079E+03	8.789454E-15	7.962306E-17
5.669024E+03	8.784538E-15	7.982066E-17
5.678970E+03	8.789620E-15	8.010994E-17
5.688916E+03	8.805215E-15	8.049599E-17
5.698861E+03	8.831647E-15	8.098225E-17
5.708807E+03	8.869013E-15	8.157013E-17
5.718753E+03	8.917254E-15	8.225965E-17
5.728698E+03	8.975757E-15	8.304570E-17
5.738644E+03	9.043987E-15	8.392389E-17
5.748590E+03	9.120845E-15	8.488449E-17
5.758535E+03	9.205015E-15	8.591567E-17
5.768481E+03	9.294966E-15	8.700348E-17
5.778427E+03	9.388827E-15	8.813061E-17
5.788372E+03	9.484435E-15	8.927683E-17
5.798318E+03	9.579430E-15	9.041986E-17
5.808264E+03	9.671280E-15	9.153560E-17
5.818209E+03	9.757354E-15	9.259876E-17
5.828155E+03	9.835092E-15	9.358452E-17
5.838101E+03	9.901880E-15	9.446730E-17
5.848046E+03	9.955131E-15	9.522164E-17
5.857992E+03	9.992685E-15	9.582590E-17
5.867938E+03	1.001258E-14	9.626028E-17
5.877883E+03	1.001335E-14	9.650949E-17
5.887829E+03	9.993723E-15	9.656016E-17
5.897775E+03	9.953133E-15	9.640564E-17
5.907720E+03	9.891417E-15	9.604317E-17
5.917666E+03	9.808922E-15	9.547500E-17
5.927612E+03	9.706632E-15	9.470965E-17
5.937557E+03	9.585877E-15	9.375911E-17
5.947503E+03	9.448344E-15	9.263905E-17
5.957449E+03	9.296409E-15	9.137204E-17
5.967394E+03	9.132452E-15	8.998089E-17
5.977340E+03	8.959307E-15	8.849314E-17
5.987285E+03	8.779862E-15	8.693711E-17
5.997231E+03	8.597097E-15	8.534226E-17
6.007177E+03	8.414100E-15	8.373942E-17
6.017122E+03	8.233896E-15	8.215907E-17
6.027068E+03	8.059074E-15	8.062760E-17
6.037014E+03	7.892444E-15	7.917392E-17
6.046959E+03	7.736388E-15	7.782287E-17
6.056905E+03	7.593095E-15	7.659767E-17
6.066851E+03	7.464379E-15	7.551799E-17
6.076796E+03	7.351787E-15	7.460107E-17
6.086742E+03	7.256371E-15	7.385932E-17
6.096688E+03	7.179173E-15	7.330528E-17
6.106633E+03	7.120585E-15	7.294506E-17
6.116579E+03	7.080654E-15	7.278137E-17
6.126525E+03	7.059293E-15	7.281571E-17
6.136470E+03	7.055687E-15	7.304210E-17
6.146416E+03	7.068892E-15	7.345331E-17
6.156362E+03	7.097148E-15	7.403358E-17
6.166307E+03	7.138669E-15	7.476672E-17
6.176253E+03	7.191144E-15	7.563091E-17
6.186199E+03	7.251933E-15	7.660054E-17
6.196144E+03	7.318161E-15	7.764715E-17
6.206090E+03	7.386728E-15	7.873939E-17
6.216036E+03	7.454453E-15	7.984451E-17
6.225981E+03	7.518475E-15	8.093257E-17
6.235927E+03	7.575546E-15	8.196847E-17
6.245873E+03	7.623095E-15	8.292302E-17
6.255818E+03	7.658696E-15	8.376773E-17
6.265764E+03	7.680624E-15	8.448112E-17
6.275710E+03	7.687491E-15	8.504479E-17
6.285655E+03	7.678510E-15	8.544657E-17
6.295601E+03	7.653862E-15	8.568469E-17
6.305546E+03	7.613909E-15	8.575933E-17
6.315492E+03	7.559794E-15	8.567950E-17
6.325438E+03	7.493361E-15	8.546236E-17
6.335383E+03	7.416439E-15	8.512538E-17
6.345329E+03	7.331440E-15	8.469320E-17
6.355275E+03	7.240726E-15	8.419057E-17
6.365220E+03	7.146958E-15	8.364644E-17
6.375166E+03	7.052264E-15	8.308430E-17
6.385112E+03	6.958785E-15	8.252846E-17
6.395057E+03	6.868161E-15	8.199798E-17
6.405003E+03	6.781348E-15	8.150428E-17
6.414949E+03	6.699228E-15	8.105820E-17
6.424894E+03	6.622086E-15	8.066368E-17
6.434840E+03	6.550285E-15	8.032575E-17
6.444786E+03	6.484142E-15	8.004904E-17
6.454731E+03	6.423955E-15	7.983809E-17
6.464677E+03	6.369444E-15	7.969035E-17
6.474623E+03	6.320109E-15	7.960045E-17
6.484568E+03	6.274843E-15	7.955517E-17
6.494514E+03	6.232688E-15	7.954289E-17
6.504460E+03	6.192305E-15	7.954676E-17
6.514405E+03	6.152342E-15	7.954934E-17
6.524351E+03	6.111690E-15	7.953593E-17
6.534297E+03	6.069176E-15	7.949063E-17
6.544242E+03	6.023963E-15	7.940162E-17
6.554188E+03	5.975217E-15	7.925682E-17
6.564134E+03	5.922387E-15	7.904773E-17
6.574079E+03	5.865211E-15	7.876951E-17
6.584025E+03	5.803349E-15	7.841626E-17
6.593971E+03	5.736999E-15	7.798930E-17
6.603916E+03	5.666250E-15	7.748854E-17
6.613862E+03	5.591421E-15	7.691713E-17
6.623808E+03	5.512940E-15	7.627988E-17
6.633753E+03	5.431408E-15	7.558418E-17
6.643699E+03	5.347236E-15	7.483494E-17
6.653644E+03	5.261123E-15	7.404135E-17
6.663590E+03	5.173781E-15	7.321299E-17
6.673536E+03	5.085752E-15	7.235727E-17
6.683481E+03	4.997560E-15	7.148159E-17
6.693427E+03	4.909935E-15	7.059640E-17
6.703373E+03	4.823395E-15	6.970941E-17
6.713318E+03	4.738259E-15	6.882555E-17
6.723264E+03	4.655096E-15	6.795352E-17
6.733210E+03	4.574185E-15	6.709794E-17
6.743155E+03	4.495825E-15	6.626380E-17
6.753101E+03	4.420330E-15	6.545641E-17
6.763047E+03	4.347815E-15	6.467818E-17
6.772992E+03	4.278486E-15	6.393293E-17
6.782938E+03	4.212366E-15	6.322176E-17
6.792884E+03	4.149573E-15	6.254722E-17
6.802829E+03	4.090057E-15	6.190931E-17
6.812775E+03	4.033871E-15	6.130957E-17
6.822721E+03	3.980973E-15	6.074811E-17
6.832666E+03	3.931235E-15	6.022371E-17
6.842612E+03	3.884648E-15	5.973686E-17
6.852558E+03	3.841054E-15	5.928582E-17
6.862503E+03	3.800484E-15	5.887168E-17
6.872449E+03	3.762702E-15	5.849135E-17
6.882395E+03	3.727662E-15	5.814470E-17
6.892340E+03	3.695252E-15	5.783045E-17
6.902286E+03	3.665356E-15	5.754734E-17
6.912232E+03	3.637865E-15	5.729405E-17
6.922177E+03	3.612666E-15	5.706926E-17
6.932123E+03	3.589654E-15	5.687167E-17
6.942069E+03	3.568720E-15	5.669995E-17
6.952014E+03	3.549699E-15	5.655178E-17
6.961960E+03	3.532617E-15	5.642789E-17
6.971906E+03	3.517314E-15	5.632599E-17
6.981851E+03	3.503689E-15	5.624476E-17
6.991797E+03	3.491711E-15	5.618392E-17
7.001742E+03	3.481157E-15	5.614008E-17
7.011688E+03	3.472058E-15	5.611396E-17
7.021634E+03	3.464252E-15	5.610309E-17
7.031579E+03	3.457637E-15	5.610601E-17
7.041525E+03	3.452112E-15	5.612119E-17
7.051471E+03	3.447634E-15	5.614805E-17
7.061416E+03	3.444027E-15	5.618387E-17
7.071362E+03	3.441242E-15	5.622791E-17
7.081308E+03	3.439094E-15	5.627725E-17
7.091253E+03	3.437459E-15	5.632991E-17
7.101199E+03	3.436273E-15	5.638493E-17
7.111145E+03	3.435404E-15	5.644016E-17
7.121090E+03	3.434652E-15	5.649238E-17
7.131036E+03	3.433942E-15	5.654039E-17
7.140982E+03	3.433071E-15	5.658088E-17
7.150927E+03	3.431964E-15	5.661263E-17
7.160873E+03	3.430484E-15	5.663343E-17
7.170819E+03	3.428500E-15	5.664114E-17
7.180764E+03	3.425883E-15	5.663365E-17
7.190710E+03	3.422514E-15	5.660905E-17
7.200656E+03	3.418215E-15	5.656444E-17
7.210601E+03	3.413028E-15	5.650053E-17
7.220547E+03	3.406802E-15	5.641493E-17
7.230493E+03	3.399473E-15	5.630661E-17
7.240438E+03	3.391066E-15	5.617607E-17
7.250384E+03	3.381484E-15	5.602184E-17
7.260330E+03	3.370795E-15	5.584510E-17
7.270275E+03	3.359017E-15	5.564628E-17
7.280221E+03	3.346193E-15	5.542621E-17
7.290167E+03	3.332385E-15	5.518608E-17
7.300112E+03	3.317751E-15	5.492862E-17
7.310058E+03	3.302325E-15	5.465455E-17
7.320004E+03	3.286375E-15	5.436847E-17
7.329949E+03	3.270111E-15	5.407401E-17
7.339895E+03	3.253551E-15	5.377164E-17
7.349840E+03	3.237073E-15	5.346774E-17
7.359786E+03	3.220855E-15	5.316543E-17
7.369732E+03	3.205151E-15	5.286902E-17
7.379677E+03	3.190145E-15	5.258172E-17
7.389623E+03	3.176095E-15	5.230790E-17
7.399569E+03	3.163115E-15	5.204953E-17
7.409514E+03	3.151245E-15	5.180742E-17
7.419460E+03	3.140724E-15	5.158559E-17
7.429406E+03	3.131575E-15	5.138451E-17
7.439351E+03	3.123946E-15	5.120671E-17
7.449297E+03	3.117834E-15	5.105222E-17
7.459243E+03	3.113427E-15	5.092420E-17
7.469188E+03	3.110832E-15	5.082446E-17
7.479134E+03	3.109994E-15	5.075219E-17
7.489080E+03	3.111053E-15	5.070970E-17
7.499025E+03	3.113992E-15	5.069680E-17
7.508971E+03	3.118843E-15	5.071409E-17
7.518917E+03	3.125698E-15	5.076309E-17
7.528862E+03	3.134485E-15	5.084272E-17
7.538808E+03	3.145190E-15	5.095283E-17
7.548754E+03	3.157782E-15	5.109298E-17
7.558699E+03	3.172215E-15	5.126254E-17
7.568645E+03	3.188430E-15	5.146066E-17
7.578591E+03	3.206356E-15	5.168628E-17
7.588536E+03	3.225905E-15	5.193815E-17
7.598482E+03	3.246980E-15	5.221486E-17
7.608428E+03	3.269471E-15	5.251480E-17
7.618373E+03	3.293254E-15	5.283620E-17
7.628319E+03	3.318198E-15	5.317715E-17
7.638265E+03	3.344236E-15	5.353682E-17
7.648210E+03	3.371052E-15	5.391044E-17
7.658156E+03	3.398636E-15	5.429813E-17
7.668101E+03	3.426645E-15	5.469473E-17
7.678047E+03	3.455049E-15	5.510010E-17
7.687993E+03	3.483557E-15	5.550998E-17
7.697938E+03	3.512036E-15	5.592263E-17
7.707884E+03	3.540165E-15	5.633336E-17
7.717830E+03	3.567696E-15	5.673866E-17
