#wls	flux	fluxerr
1.591305E+03	2.150042E-16	1.055327E-17
1.631088E+03	1.995584E-16	9.741744E-18
1.670870E+03	1.844894E-16	8.955996E-18
1.710653E+03	1.700615E-16	8.208668E-18
1.750436E+03	1.563420E-16	7.502650E-18
1.790218E+03	1.433991E-16	6.840781E-18
1.830001E+03	1.311920E-16	6.220623E-18
1.869784E+03	1.196588E-16	5.638783E-18
1.909566E+03	1.087813E-16	5.093967E-18
1.949349E+03	9.850535E-17	4.583198E-18
1.989131E+03	8.899924E-17	4.113849E-18
2.028914E+03	8.057652E-17	3.699728E-18
2.068697E+03	7.377346E-17	3.364393E-18
2.108479E+03	6.929250E-17	3.138224E-18
2.148262E+03	6.763026E-17	3.041416E-18
2.188045E+03	6.894220E-17	3.078244E-18
2.227827E+03	7.298182E-17	3.234906E-18
2.267610E+03	7.926645E-17	3.487468E-18
2.307392E+03	8.734396E-17	3.813916E-18
2.347175E+03	9.683320E-17	4.195876E-18
2.386958E+03	1.075454E-16	4.623726E-18
2.426740E+03	1.193692E-16	5.091380E-18
2.466523E+03	1.322557E-16	5.595522E-18
2.506306E+03	1.461215E-16	6.131450E-18
2.546088E+03	1.608613E-16	6.693640E-18
2.585871E+03	1.762433E-16	7.271501E-18
2.625653E+03	1.919078E-16	7.849519E-18
2.665436E+03	2.076752E-16	8.420010E-18
2.705219E+03	2.234627E-16	8.979434E-18
2.745001E+03	2.392263E-16	9.525941E-18
2.784784E+03	2.549261E-16	1.005791E-17
2.824567E+03	2.705391E-16	1.057445E-17
2.864349E+03	2.860001E-16	1.107311E-17
2.904132E+03	3.013896E-16	1.155713E-17
2.943914E+03	3.168019E-16	1.203016E-17
2.983697E+03	3.324590E-16	1.250054E-17
2.993643E+03	3.364397E-16	1.261873E-17
3.003588E+03	3.404739E-16	1.273816E-17
3.013534E+03	3.445655E-16	1.285896E-17
3.023480E+03	3.486831E-16	1.297993E-17
3.033425E+03	3.528522E-16	1.310202E-17
3.043371E+03	3.571690E-16	1.322878E-17
3.053317E+03	3.615700E-16	1.335781E-17
3.063262E+03	3.661360E-16	1.349207E-17
3.073208E+03	3.707829E-16	1.362842E-17
3.083154E+03	3.755517E-16	1.376835E-17
3.093099E+03	3.804422E-16	1.391180E-17
3.103045E+03	3.854547E-16	1.405877E-17
3.112991E+03	3.905902E-16	1.420923E-17
3.122936E+03	3.958929E-16	1.436478E-17
3.132882E+03	4.012782E-16	1.452229E-17
3.142828E+03	4.068343E-16	1.468493E-17
3.152773E+03	4.125638E-16	1.485275E-17
3.162719E+03	4.184252E-16	1.502419E-17
3.172665E+03	4.244653E-16	1.520091E-17
3.182610E+03	4.306419E-16	1.538134E-17
3.192556E+03	4.370474E-16	1.556874E-17
3.202502E+03	4.435941E-16	1.575993E-17
3.212447E+03	4.503294E-16	1.595655E-17
3.222393E+03	4.572550E-16	1.615859E-17
3.232339E+03	4.644191E-16	1.636772E-17
3.242284E+03	4.717765E-16	1.658227E-17
3.252230E+03	4.793267E-16	1.680217E-17
3.262175E+03	4.871172E-16	1.702903E-17
3.272121E+03	4.951463E-16	1.726272E-17
3.282067E+03	5.034127E-16	1.750314E-17
3.292012E+03	5.119118E-16	1.775004E-17
3.301958E+03	5.206883E-16	1.800493E-17
3.311904E+03	5.296866E-16	1.826579E-17
3.321849E+03	5.388978E-16	1.853227E-17
3.331795E+03	5.483614E-16	1.880566E-17
3.341741E+03	5.581157E-16	1.908720E-17
3.351686E+03	5.680454E-16	1.937288E-17
3.361632E+03	5.782360E-16	1.966555E-17
3.371578E+03	5.886159E-16	1.996273E-17
3.381523E+03	5.992686E-16	2.026718E-17
3.391469E+03	6.100662E-16	2.057452E-17
3.401415E+03	6.210872E-16	2.088734E-17
3.411360E+03	6.322523E-16	2.120295E-17
3.421306E+03	6.435844E-16	2.152204E-17
3.431252E+03	6.550533E-16	2.184359E-17
3.441197E+03	6.666282E-16	2.216654E-17
3.451143E+03	6.783333E-16	2.249165E-17
3.461089E+03	6.900876E-16	2.281623E-17
3.471034E+03	7.019276E-16	2.314147E-17
3.480980E+03	7.138407E-16	2.346694E-17
3.490926E+03	7.258719E-16	2.379410E-17
3.500871E+03	7.379577E-16	2.412084E-17
3.510817E+03	7.501453E-16	2.444870E-17
3.520763E+03	7.624274E-16	2.477743E-17
3.530708E+03	7.747971E-16	2.510677E-17
3.540654E+03	7.873012E-16	2.543823E-17
3.550600E+03	7.998781E-16	2.576980E-17
3.560545E+03	8.125772E-16	2.610303E-17
3.570491E+03	8.253378E-16	2.643595E-17
3.580436E+03	8.382659E-16	2.677194E-17
3.590382E+03	8.513053E-16	2.710917E-17
3.600328E+03	8.644587E-16	2.744769E-17
3.610273E+03	8.777337E-16	2.778771E-17
3.620219E+03	8.911977E-16	2.813133E-17
3.630165E+03	9.048202E-16	2.847754E-17
3.640110E+03	9.186345E-16	2.882736E-17
3.650056E+03	9.327941E-16	2.918552E-17
3.660002E+03	9.472558E-16	2.955061E-17
3.669947E+03	9.621040E-16	2.992515E-17
3.679893E+03	9.775483E-16	3.031555E-17
3.689839E+03	9.936145E-16	3.072245E-17
3.699784E+03	1.010514E-15	3.115219E-17
3.709730E+03	1.028381E-15	3.160869E-17
3.719676E+03	1.047485E-15	3.209995E-17
3.729621E+03	1.068073E-15	3.263316E-17
3.739567E+03	1.090422E-15	3.321637E-17
3.749513E+03	1.114782E-15	3.385672E-17
3.759458E+03	1.141523E-15	3.456486E-17
3.769404E+03	1.170895E-15	3.534771E-17
3.779350E+03	1.203205E-15	3.621377E-17
3.789295E+03	1.238605E-15	3.716682E-17
3.799241E+03	1.277228E-15	3.821006E-17
3.809187E+03	1.319098E-15	3.934333E-17
3.819132E+03	1.364129E-15	4.056317E-17
3.829078E+03	1.412106E-15	4.186245E-17
3.839024E+03	1.462600E-15	4.322766E-17
3.848969E+03	1.515190E-15	4.464574E-17
3.858915E+03	1.569033E-15	4.609141E-17
3.868861E+03	1.623435E-15	4.754404E-17
3.878806E+03	1.677405E-15	4.897458E-17
3.888752E+03	1.729857E-15	5.035156E-17
3.898698E+03	1.779835E-15	5.164771E-17
3.908643E+03	1.826069E-15	5.282691E-17
3.918589E+03	1.867639E-15	5.386376E-17
3.928534E+03	1.903588E-15	5.473195E-17
3.938480E+03	1.933184E-15	5.541201E-17
3.948426E+03	1.955847E-15	5.588915E-17
3.958371E+03	1.971345E-15	5.615856E-17
3.968317E+03	1.979770E-15	5.622479E-17
3.978263E+03	1.981295E-15	5.609462E-17
3.988208E+03	1.976478E-15	5.578561E-17
3.998154E+03	1.966142E-15	5.532261E-17
4.008100E+03	1.951138E-15	5.473093E-17
4.018045E+03	1.932479E-15	5.404014E-17
4.027991E+03	1.911177E-15	5.327936E-17
4.037937E+03	1.888288E-15	5.247865E-17
4.047882E+03	1.864812E-15	5.166614E-17
4.057828E+03	1.841683E-15	5.086775E-17
4.067774E+03	1.819698E-15	5.010535E-17
4.077719E+03	1.799593E-15	4.939880E-17
4.087665E+03	1.781994E-15	4.876482E-17
4.097611E+03	1.767371E-15	4.821554E-17
4.107556E+03	1.756136E-15	4.776146E-17
4.117502E+03	1.748504E-15	4.740755E-17
4.127448E+03	1.744587E-15	4.715590E-17
4.137393E+03	1.744449E-15	4.700737E-17
4.147339E+03	1.747980E-15	4.695807E-17
4.157285E+03	1.755056E-15	4.700378E-17
4.167230E+03	1.765341E-15	4.713470E-17
4.177176E+03	1.778530E-15	4.734195E-17
4.187122E+03	1.794168E-15	4.761278E-17
4.197067E+03	1.811806E-15	4.793475E-17
4.207013E+03	1.830812E-15	4.829073E-17
4.216959E+03	1.850638E-15	4.866608E-17
4.226904E+03	1.870528E-15	4.904079E-17
4.236850E+03	1.889788E-15	4.939680E-17
4.246796E+03	1.907657E-15	4.971442E-17
4.256741E+03	1.923292E-15	4.997218E-17
4.266687E+03	1.936024E-15	5.015326E-17
4.276632E+03	1.945186E-15	5.024122E-17
4.286578E+03	1.950181E-15	5.022151E-17
4.296524E+03	1.950687E-15	5.008684E-17
4.306469E+03	1.946565E-15	4.983470E-17
4.316415E+03	1.937919E-15	4.946885E-17
4.326361E+03	1.925200E-15	4.900175E-17
4.336306E+03	1.909102E-15	4.845195E-17
4.346252E+03	1.890684E-15	4.784699E-17
4.356198E+03	1.871510E-15	4.722678E-17
4.366143E+03	1.853283E-15	4.663441E-17
4.376089E+03	1.837742E-15	4.611321E-17
4.386035E+03	1.826435E-15	4.570135E-17
4.395980E+03	1.820877E-15	4.543568E-17
4.405926E+03	1.822419E-15	4.534859E-17
4.415872E+03	1.832304E-15	4.546940E-17
4.425817E+03	1.851616E-15	4.582327E-17
4.435763E+03	1.881114E-15	4.642699E-17
4.445709E+03	1.921441E-15	4.729438E-17
4.455654E+03	1.973031E-15	4.843400E-17
4.465600E+03	2.035884E-15	4.984362E-17
4.475546E+03	2.109785E-15	5.151588E-17
4.485491E+03	2.194012E-15	5.343115E-17
4.495437E+03	2.287408E-15	5.555938E-17
4.505383E+03	2.388218E-15	5.785643E-17
4.515328E+03	2.494098E-15	6.026436E-17
4.525274E+03	2.602163E-15	6.271281E-17
4.535220E+03	2.708989E-15	6.511918E-17
4.545165E+03	2.810790E-15	6.739297E-17
4.555111E+03	2.903631E-15	6.944118E-17
4.565057E+03	2.983721E-15	7.117504E-17
4.575002E+03	3.047520E-15	7.251277E-17
4.584948E+03	3.092436E-15	7.339578E-17
4.594894E+03	3.116580E-15	7.378279E-17
4.604839E+03	3.119405E-15	7.366462E-17
4.614785E+03	3.101413E-15	7.305685E-17
4.624730E+03	3.064342E-15	7.200392E-17
4.634676E+03	3.010903E-15	7.057270E-17
4.644622E+03	2.944344E-15	6.884190E-17
4.654567E+03	2.868465E-15	6.690234E-17
4.664513E+03	2.787092E-15	6.484453E-17
4.674459E+03	2.703728E-15	6.275068E-17
4.684404E+03	2.621618E-15	6.069612E-17
4.694350E+03	2.543544E-15	5.874481E-17
4.704296E+03	2.471624E-15	5.694478E-17
4.714241E+03	2.407542E-15	5.533362E-17
4.724187E+03	2.352484E-15	5.393717E-17
4.734133E+03	2.307147E-15	5.276976E-17
4.744078E+03	2.271878E-15	5.183768E-17
4.754024E+03	2.246788E-15	5.114172E-17
4.763970E+03	2.231603E-15	5.067400E-17
4.773915E+03	2.225846E-15	5.042203E-17
4.783861E+03	2.228911E-15	5.037058E-17
4.793807E+03	2.240121E-15	5.050295E-17
4.803752E+03	2.258653E-15	5.079932E-17
4.813698E+03	2.283682E-15	5.123999E-17
4.823644E+03	2.314132E-15	5.179984E-17
4.833589E+03	2.348808E-15	5.245139E-17
4.843535E+03	2.386325E-15	5.316309E-17
4.853481E+03	2.424864E-15	5.389411E-17
4.863426E+03	2.462422E-15	5.459988E-17
4.873372E+03	2.496959E-15	5.523547E-17
4.883318E+03	2.526384E-15	5.575527E-17
4.893263E+03	2.548749E-15	5.611719E-17
4.903209E+03	2.562421E-15	5.628648E-17
4.913155E+03	2.566215E-15	5.623852E-17
4.923100E+03	2.559418E-15	5.595929E-17
4.933046E+03	2.541987E-15	5.544945E-17
4.942991E+03	2.514512E-15	5.472346E-17
4.952937E+03	2.478108E-15	5.380706E-17
4.962883E+03	2.434356E-15	5.273579E-17
4.972828E+03	2.385141E-15	5.155153E-17
4.982774E+03	2.332553E-15	5.030010E-17
4.992720E+03	2.278648E-15	4.902621E-17
5.002665E+03	2.225334E-15	4.777100E-17
5.012611E+03	2.174435E-15	4.657340E-17
5.022557E+03	2.127438E-15	4.546485E-17
5.032502E+03	2.085615E-15	4.447185E-17
5.042448E+03	2.049968E-15	4.361499E-17
5.052394E+03	2.021315E-15	4.291074E-17
5.062339E+03	2.000360E-15	4.237300E-17
5.072285E+03	1.987696E-15	4.201328E-17
5.082231E+03	1.983766E-15	4.183976E-17
5.092176E+03	1.988984E-15	4.186000E-17
5.102122E+03	2.003628E-15	4.207863E-17
5.112068E+03	2.027929E-15	4.249931E-17
5.122013E+03	2.061935E-15	4.312180E-17
5.131959E+03	2.105607E-15	4.394409E-17
5.141905E+03	2.158723E-15	4.496045E-17
5.151850E+03	2.220816E-15	4.616008E-17
5.161796E+03	2.291173E-15	4.752717E-17
5.171742E+03	2.368828E-15	4.904089E-17
5.181687E+03	2.452523E-15	5.067455E-17
5.191633E+03	2.540708E-15	5.239561E-17
5.201579E+03	2.631622E-15	5.416755E-17
5.211524E+03	2.723270E-15	5.594930E-17
5.221470E+03	2.813642E-15	5.769979E-17
5.231416E+03	2.900685E-15	5.937739E-17
5.241361E+03	2.982497E-15	6.094392E-17
5.251307E+03	3.057580E-15	6.236956E-17
5.261253E+03	3.124840E-15	6.363307E-17
5.271198E+03	3.183886E-15	6.472754E-17
5.281144E+03	3.235049E-15	6.566074E-17
5.291089E+03	3.279393E-15	6.645523E-17
5.301035E+03	3.318740E-15	6.714873E-17
5.310981E+03	3.355613E-15	6.779288E-17
5.320926E+03	3.392908E-15	6.844654E-17
5.330872E+03	3.433965E-15	6.917712E-17
5.340818E+03	3.482265E-15	7.005458E-17
5.350763E+03	3.541328E-15	7.114925E-17
5.360709E+03	3.614366E-15	7.252504E-17
5.370655E+03	3.704444E-15	7.424262E-17
5.380600E+03	3.814335E-15	7.635669E-17
5.390546E+03	3.946339E-15	7.891233E-17
5.400492E+03	4.102202E-15	8.194351E-17
5.410437E+03	4.282613E-15	8.546315E-17
5.420383E+03	4.486664E-15	8.945249E-17
5.430329E+03	4.710670E-15	9.383771E-17
5.440274E+03	4.948630E-15	9.849928E-17
5.450220E+03	5.193194E-15	1.032914E-16
5.460166E+03	5.435399E-15	1.080367E-16
5.470111E+03	5.665497E-15	1.125427E-16
5.480057E+03	5.873891E-15	1.166200E-16
5.490003E+03	6.051489E-15	1.200896E-16
5.499948E+03	6.190220E-15	1.227927E-16
5.509894E+03	6.284233E-15	1.246146E-16
5.519840E+03	6.329861E-15	1.254837E-16
5.529785E+03	6.326141E-15	1.253817E-16
5.539731E+03	6.274458E-15	1.243366E-16
5.549677E+03	6.178901E-15	1.224294E-16
5.559622E+03	6.045331E-15	1.197762E-16
5.569568E+03	5.881301E-15	1.165261E-16
5.579514E+03	5.695125E-15	1.128431E-16
5.589459E+03	5.495371E-15	1.088962E-16
5.599405E+03	5.290111E-15	1.048447E-16
5.609351E+03	5.086832E-15	1.008360E-16
5.619296E+03	4.891883E-15	9.699543E-17
5.629242E+03	4.710457E-15	9.342543E-17
5.639187E+03	4.546589E-15	9.020564E-17
5.649133E+03	4.403423E-15	8.739829E-17
5.659079E+03	4.283041E-15	8.504472E-17
5.669024E+03	4.186693E-15	8.316990E-17
5.678970E+03	4.115026E-15	8.178703E-17
5.688916E+03	4.067455E-15	8.088498E-17
5.698861E+03	4.042961E-15	8.044397E-17
5.708807E+03	4.039925E-15	8.043246E-17
5.718753E+03	4.055995E-15	8.080425E-17
5.728698E+03	4.088313E-15	8.150303E-17
5.738644E+03	4.133589E-15	8.246383E-17
5.748590E+03	4.188113E-15	8.361308E-17
5.758535E+03	4.247623E-15	8.486608E-17
5.768481E+03	4.307848E-15	8.613764E-17
5.778427E+03	4.364486E-15	8.734174E-17
5.788372E+03	4.413348E-15	8.839429E-17
5.798318E+03	4.450738E-15	8.922081E-17
5.808264E+03	4.473560E-15	8.975856E-17
5.818209E+03	4.479591E-15	8.996206E-17
5.828155E+03	4.467390E-15	8.980135E-17
5.838101E+03	4.436551E-15	8.926713E-17
5.848046E+03	4.387609E-15	8.836899E-17
5.857992E+03	4.321854E-15	8.713175E-17
5.867938E+03	4.241166E-15	8.559215E-17
5.877883E+03	4.147942E-15	8.379757E-17
5.887829E+03	4.044851E-15	8.180102E-17
5.897775E+03	3.934693E-15	7.965840E-17
5.907720E+03	3.820269E-15	7.742586E-17
5.917666E+03	3.704149E-15	7.515511E-17
5.927612E+03	3.588800E-15	7.289596E-17
5.937557E+03	3.476178E-15	7.068810E-17
5.947503E+03	3.368013E-15	6.856683E-17
5.957449E+03	3.265545E-15	6.655756E-17
5.967394E+03	3.169655E-15	6.467859E-17
5.977340E+03	3.080820E-15	6.294003E-17
5.987285E+03	2.999234E-15	6.134624E-17
5.997231E+03	2.924747E-15	5.989458E-17
6.007177E+03	2.857035E-15	5.857889E-17
6.017122E+03	2.795626E-15	5.738992E-17
6.027068E+03	2.739963E-15	5.631660E-17
6.037014E+03	2.689467E-15	5.534743E-17
6.046959E+03	2.643652E-15	5.447274E-17
6.056905E+03	2.602018E-15	5.368252E-17
6.066851E+03	2.564261E-15	5.297080E-17
6.076796E+03	2.530280E-15	5.233575E-17
6.086742E+03	2.500107E-15	5.177830E-17
6.096688E+03	2.473920E-15	5.130245E-17
6.106633E+03	2.452108E-15	5.091655E-17
6.116579E+03	2.435131E-15	5.063051E-17
6.126525E+03	2.423431E-15	5.045394E-17
6.136470E+03	2.417346E-15	5.039430E-17
6.146416E+03	2.417159E-15	5.045796E-17
6.156362E+03	2.423006E-15	5.064827E-17
6.166307E+03	2.434848E-15	5.096491E-17
6.176253E+03	2.452471E-15	5.140394E-17
6.186199E+03	2.475661E-15	5.196138E-17
6.196144E+03	2.504150E-15	5.263210E-17
6.206090E+03	2.537646E-15	5.341043E-17
6.216036E+03	2.575943E-15	5.429252E-17
6.225981E+03	2.618985E-15	5.527767E-17
6.235927E+03	2.666806E-15	5.636702E-17
6.245873E+03	2.719432E-15	5.756163E-17
6.255818E+03	2.777049E-15	5.886591E-17
6.265764E+03	2.839739E-15	6.028213E-17
6.275710E+03	2.907519E-15	6.181120E-17
6.285655E+03	2.980311E-15	6.345198E-17
6.295601E+03	3.057801E-15	6.519836E-17
6.305546E+03	3.139630E-15	6.704315E-17
6.315492E+03	3.225186E-15	6.897382E-17
6.325438E+03	3.313798E-15	7.097643E-17
6.335383E+03	3.404779E-15	7.303664E-17
6.345329E+03	3.497475E-15	7.514066E-17
6.355275E+03	3.591399E-15	7.727816E-17
6.365220E+03	3.686361E-15	7.944516E-17
6.375166E+03	3.782695E-15	8.164896E-17
6.385112E+03	3.881106E-15	8.390492E-17
6.395057E+03	3.982751E-15	8.623823E-17
6.405003E+03	4.089336E-15	8.868621E-17
6.414949E+03	4.202657E-15	9.128832E-17
6.424894E+03	4.323892E-15	9.407085E-17
6.434840E+03	4.452629E-15	9.702554E-17
6.444786E+03	4.585672E-15	1.000834E-16
6.454731E+03	4.718291E-15	1.031413E-16
6.464677E+03	4.845352E-15	1.060868E-16
6.474623E+03	4.961401E-15	1.087996E-16
6.484568E+03	5.061104E-15	1.111613E-16
6.494514E+03	5.140027E-15	1.130725E-16
6.504460E+03	5.194456E-15	1.144492E-16
6.514405E+03	5.221607E-15	1.152272E-16
6.524351E+03	5.220154E-15	1.153743E-16
6.534297E+03	5.189796E-15	1.148808E-16
6.544242E+03	5.131380E-15	1.137625E-16
6.554188E+03	5.046866E-15	1.120599E-16
6.564134E+03	4.939147E-15	1.098346E-16
6.574079E+03	4.811700E-15	1.071619E-16
6.584025E+03	4.668494E-15	1.041280E-16
6.593971E+03	4.513766E-15	1.008263E-16
6.603916E+03	4.351574E-15	9.734622E-17
6.613862E+03	4.186019E-15	9.377910E-17
6.623808E+03	4.020631E-15	9.020384E-17
6.633753E+03	3.858615E-15	8.669254E-17
6.643699E+03	3.702602E-15	8.330483E-17
6.653644E+03	3.554628E-15	8.008721E-17
6.663590E+03	3.416264E-15	7.707601E-17
6.673536E+03	3.288408E-15	7.429248E-17
6.683481E+03	3.171652E-15	7.175108E-17
6.693427E+03	3.066113E-15	6.945556E-17
6.703373E+03	2.971551E-15	6.740160E-17
6.713318E+03	2.887510E-15	6.557984E-17
6.723264E+03	2.813418E-15	6.397830E-17
6.733210E+03	2.748508E-15	6.258044E-17
6.743155E+03	2.691915E-15	6.136738E-17
6.753101E+03	2.642867E-15	6.032221E-17
6.763047E+03	2.600485E-15	5.942556E-17
6.772992E+03	2.563916E-15	5.865846E-17
6.782938E+03	2.532479E-15	5.800581E-17
6.792884E+03	2.505366E-15	5.744952E-17
6.802829E+03	2.481977E-15	5.697619E-17
6.812775E+03	2.461679E-15	5.657152E-17
6.822721E+03	2.443993E-15	5.622480E-17
6.832666E+03	2.428350E-15	5.592308E-17
6.842612E+03	2.414401E-15	5.565851E-17
6.852558E+03	2.401711E-15	5.542114E-17
6.862503E+03	2.389972E-15	5.520400E-17
6.872449E+03	2.378892E-15	5.500039E-17
6.882395E+03	2.368196E-15	5.480397E-17
6.892340E+03	2.357732E-15	5.461131E-17
6.902286E+03	2.347281E-15	5.441732E-17
6.912232E+03	2.336760E-15	5.422011E-17
6.922177E+03	2.326103E-15	5.401814E-17
6.932123E+03	2.315304E-15	5.381128E-17
6.942069E+03	2.304422E-15	5.360091E-17
6.952014E+03	2.293545E-15	5.338911E-17
6.961960E+03	2.282870E-15	5.318046E-17
6.971906E+03	2.272614E-15	5.298008E-17
6.981851E+03	2.263035E-15	5.279403E-17
6.991797E+03	2.254382E-15	5.262813E-17
7.001742E+03	2.246939E-15	5.248913E-17
7.011688E+03	2.241024E-15	5.238450E-17
7.021634E+03	2.236887E-15	5.232021E-17
7.031579E+03	2.234780E-15	5.230223E-17
7.041525E+03	2.234931E-15	5.233602E-17
7.051471E+03	2.237526E-15	5.242599E-17
7.061416E+03	2.242678E-15	5.257496E-17
7.071362E+03	2.250449E-15	5.278445E-17
7.081308E+03	2.260817E-15	5.305405E-17
7.091253E+03	2.273708E-15	5.338214E-17
7.101199E+03	2.288992E-15	5.376570E-17
7.111145E+03	2.306526E-15	5.420150E-17
7.121090E+03	2.325995E-15	5.468219E-17
7.131036E+03	2.347227E-15	5.520376E-17
7.140982E+03	2.369860E-15	5.575778E-17
7.150927E+03	2.393647E-15	5.633844E-17
7.160873E+03	2.418313E-15	5.693930E-17
7.170819E+03	2.443570E-15	5.755362E-17
7.180764E+03	2.469196E-15	5.817617E-17
7.190710E+03	2.494998E-15	5.880241E-17
7.200656E+03	2.520783E-15	5.942783E-17
7.210601E+03	2.546429E-15	6.004953E-17
7.220547E+03	2.571815E-15	6.066468E-17
7.230493E+03	2.596907E-15	6.127250E-17
7.240438E+03	2.621593E-15	6.187036E-17
7.250384E+03	2.645840E-15	6.245747E-17
7.260330E+03	2.669608E-15	6.303294E-17
7.270275E+03	2.692835E-15	6.359528E-17
7.280221E+03	2.715367E-15	6.414095E-17
7.290167E+03	2.737094E-15	6.466731E-17
7.300112E+03	2.757851E-15	6.517054E-17
7.310058E+03	2.777409E-15	6.564520E-17
7.320004E+03	2.795550E-15	6.608622E-17
7.329949E+03	2.811988E-15	6.648685E-17
7.339895E+03	2.826431E-15	6.684023E-17
7.349840E+03	2.838645E-15	6.714084E-17
7.359786E+03	2.848431E-15	6.738401E-17
7.369732E+03	2.855570E-15	6.756461E-17
7.379677E+03	2.860038E-15	6.768209E-17
7.389623E+03	2.861831E-15	6.773637E-17
7.399569E+03	2.861160E-15	6.773251E-17
7.409514E+03	2.858328E-15	6.767773E-17
7.419460E+03	2.853840E-15	6.758403E-17
7.429406E+03	2.848246E-15	6.746444E-17
7.439351E+03	2.842256E-15	6.733592E-17
7.449297E+03	2.836689E-15	6.721787E-17
7.459243E+03	2.832375E-15	6.713009E-17
7.469188E+03	2.830185E-15	6.709331E-17
7.479134E+03	2.830921E-15	6.712665E-17
7.489080E+03	2.835344E-15	6.724829E-17
7.499025E+03	2.844177E-15	6.747554E-17
7.508971E+03	2.857894E-15	6.781985E-17
7.518917E+03	2.876797E-15	6.828855E-17
7.528862E+03	2.901146E-15	6.888807E-17
7.538808E+03	2.930869E-15	6.961691E-17
7.548754E+03	2.965839E-15	7.047234E-17
7.558699E+03	3.005661E-15	7.144521E-17
7.568645E+03	3.049801E-15	7.252316E-17
7.578591E+03	3.097473E-15	7.368776E-17
7.588536E+03	3.147857E-15	7.491980E-17
7.598482E+03	3.199865E-15	7.619365E-17
7.608428E+03	3.252214E-15	7.747903E-17
7.618373E+03	3.303574E-15	7.874443E-17
7.628319E+03	3.352645E-15	7.995908E-17
7.638265E+03	3.397960E-15	8.108810E-17
7.648210E+03	3.438111E-15	8.209791E-17
7.658156E+03	3.471771E-15	8.295682E-17
7.668101E+03	3.497755E-15	8.363640E-17
7.678047E+03	3.514947E-15	8.410973E-17
7.687993E+03	3.522528E-15	8.435692E-17
7.697938E+03	3.519962E-15	8.436474E-17
7.707884E+03	3.506883E-15	8.412392E-17
7.717830E+03	3.483307E-15	8.363427E-17
