#wls	flux	fluxerr
1.591305E+03	2.877258E-16	2.255282E-17
1.631088E+03	2.612974E-16	2.027238E-17
1.670870E+03	2.358555E-16	1.810748E-17
1.710653E+03	2.117076E-16	1.607997E-17
1.750436E+03	1.891393E-16	1.420894E-17
1.790218E+03	1.682165E-16	1.249608E-17
1.830001E+03	1.489693E-16	1.094013E-17
1.869784E+03	1.313816E-16	9.536231E-18
1.909566E+03	1.154023E-16	8.276949E-18
1.949349E+03	1.010534E-16	7.160095E-18
1.989131E+03	8.841044E-17	6.187055E-18
2.028914E+03	7.771915E-17	5.370617E-18
2.068697E+03	6.938455E-17	4.733482E-18
2.108479E+03	6.383355E-17	4.298316E-18
2.148262E+03	6.140670E-17	4.080469E-18
2.188045E+03	6.209585E-17	4.071178E-18
2.227827E+03	6.564809E-17	4.245858E-18
2.267610E+03	7.166489E-17	4.571488E-18
2.307392E+03	7.982029E-17	5.020993E-18
2.347175E+03	8.992570E-17	5.576960E-18
2.386958E+03	1.019492E-16	6.232208E-18
2.426740E+03	1.159001E-16	6.982131E-18
2.466523E+03	1.318449E-16	7.825480E-18
2.506306E+03	1.497888E-16	8.757156E-18
2.546088E+03	1.696956E-16	9.769667E-18
2.585871E+03	1.915039E-16	1.085422E-17
2.625653E+03	2.150397E-16	1.199596E-17
2.665436E+03	2.399990E-16	1.317358E-17
2.705219E+03	2.657972E-16	1.435175E-17
2.745001E+03	2.919302E-16	1.550160E-17
2.784784E+03	3.178641E-16	1.659461E-17
2.824567E+03	3.432210E-16	1.761233E-17
2.864349E+03	3.675469E-16	1.853390E-17
2.904132E+03	3.906534E-16	1.935343E-17
2.943914E+03	4.123565E-16	2.006604E-17
2.983697E+03	4.328664E-16	2.068646E-17
2.993643E+03	4.378276E-16	2.082862E-17
3.003588E+03	4.427049E-16	2.096490E-17
3.013534E+03	4.475788E-16	2.109918E-17
3.023480E+03	4.523857E-16	2.122848E-17
3.033425E+03	4.571976E-16	2.135624E-17
3.043371E+03	4.620343E-16	2.148337E-17
3.053317E+03	4.669199E-16	2.161098E-17
3.063262E+03	4.718142E-16	2.173719E-17
3.073208E+03	4.767927E-16	2.186547E-17
3.083154E+03	4.818181E-16	2.199406E-17
3.093099E+03	4.868906E-16	2.212295E-17
3.103045E+03	4.920122E-16	2.225221E-17
3.112991E+03	4.972239E-16	2.238366E-17
3.122936E+03	5.024522E-16	2.251395E-17
3.132882E+03	5.078165E-16	2.264841E-17
3.142828E+03	5.132060E-16	2.278205E-17
3.152773E+03	5.187420E-16	2.292020E-17
3.162719E+03	5.243534E-16	2.305968E-17
3.172665E+03	5.300465E-16	2.320070E-17
3.182610E+03	5.359068E-16	2.334696E-17
3.192556E+03	5.419032E-16	2.349702E-17
3.202502E+03	5.480447E-16	2.365119E-17
3.212447E+03	5.543405E-16	2.380978E-17
3.222393E+03	5.608006E-16	2.397315E-17
3.232339E+03	5.674751E-16	2.414334E-17
3.242284E+03	5.743361E-16	2.431904E-17
3.252230E+03	5.814744E-16	2.450400E-17
3.262175E+03	5.888234E-16	2.469526E-17
3.272121E+03	5.964763E-16	2.489661E-17
3.282067E+03	6.044062E-16	2.510676E-17
3.292012E+03	6.126673E-16	2.532780E-17
3.301958E+03	6.212321E-16	2.555843E-17
3.311904E+03	6.301938E-16	2.580231E-17
3.321849E+03	6.395233E-16	2.605804E-17
3.331795E+03	6.492287E-16	2.632575E-17
3.341741E+03	6.593988E-16	2.660884E-17
3.351686E+03	6.699965E-16	2.690557E-17
3.361632E+03	6.810211E-16	2.721569E-17
3.371578E+03	6.925107E-16	2.754051E-17
3.381523E+03	7.045002E-16	2.788117E-17
3.391469E+03	7.169769E-16	2.823691E-17
3.401415E+03	7.299234E-16	2.860683E-17
3.411360E+03	7.433581E-16	2.899140E-17
3.421306E+03	7.572489E-16	2.938916E-17
3.431252E+03	7.715981E-16	2.979997E-17
3.441197E+03	7.864010E-16	3.022346E-17
3.451143E+03	8.015577E-16	3.065559E-17
3.458105E+03	7.863874E-16	2.997255E-17
3.459567E+03	7.834826E-16	2.984036E-17
3.461029E+03	7.804496E-16	2.970346E-17
3.462491E+03	7.765825E-16	2.953503E-17
3.463953E+03	7.789779E-16	2.960482E-17
3.465415E+03	7.791989E-16	2.959193E-17
3.466877E+03	7.765671E-16	2.947077E-17
3.468339E+03	7.765942E-16	2.945060E-17
3.469801E+03	7.749561E-16	2.936735E-17
3.471263E+03	7.754528E-16	2.936504E-17
3.472725E+03	7.730897E-16	2.925450E-17
3.474187E+03	7.770084E-16	2.938165E-17
3.475649E+03	7.833095E-16	2.959862E-17
3.477111E+03	7.865610E-16	2.970011E-17
3.478573E+03	7.896808E-16	2.979648E-17
3.480035E+03	7.916401E-16	2.984893E-17
3.481497E+03	7.936916E-16	2.990477E-17
3.482959E+03	7.958805E-16	2.996569E-17
3.484421E+03	8.000513E-16	3.010107E-17
3.485883E+03	8.008983E-16	3.011128E-17
3.487345E+03	8.012582E-16	3.010316E-17
3.488807E+03	8.048938E-16	3.021802E-17
3.490269E+03	8.052889E-16	3.021112E-17
3.491731E+03	8.111318E-16	3.040846E-17
3.493193E+03	8.201273E-16	3.072360E-17
3.494655E+03	8.250423E-16	3.088552E-17
3.496117E+03	8.308834E-16	3.108184E-17
3.497579E+03	8.350811E-16	3.121643E-17
3.499041E+03	8.356510E-16	3.121530E-17
3.500503E+03	8.366198E-16	3.122904E-17
3.501965E+03	8.415790E-16	3.139160E-17
3.503427E+03	8.458475E-16	3.152816E-17
3.504889E+03	8.527349E-16	3.176206E-17
3.506351E+03	8.632388E-16	3.213022E-17
3.507813E+03	8.711724E-16	3.240224E-17
3.509275E+03	8.747576E-16	3.251224E-17
3.510737E+03	8.817682E-16	3.274929E-17
3.512199E+03	8.871952E-16	3.292721E-17
3.513661E+03	8.933154E-16	3.313057E-17
3.515123E+03	9.019414E-16	3.342649E-17
3.516585E+03	9.117475E-16	3.376567E-17
3.518047E+03	9.201531E-16	3.405253E-17
3.519509E+03	9.311065E-16	3.443318E-17
3.520971E+03	9.407165E-16	3.476363E-17
3.522433E+03	9.485438E-16	3.502776E-17
3.523895E+03	9.574265E-16	3.533044E-17
3.525357E+03	9.668377E-16	3.565217E-17
3.526819E+03	9.768357E-16	3.599504E-17
3.528281E+03	9.825798E-16	3.618077E-17
3.529743E+03	9.939707E-16	3.657399E-17
3.531205E+03	1.007164E-15	3.703291E-17
3.532668E+03	1.017508E-15	3.738648E-17
3.534130E+03	1.027471E-15	3.772553E-17
3.535592E+03	1.035757E-15	3.800255E-17
3.537054E+03	1.047547E-15	3.840763E-17
3.538516E+03	1.059084E-15	3.880285E-17
3.539978E+03	1.067378E-15	3.907878E-17
3.541440E+03	1.075114E-15	3.933387E-17
3.542902E+03	1.081119E-15	3.952528E-17
3.544364E+03	1.086932E-15	3.970941E-17
3.545826E+03	1.091277E-15	3.983966E-17
3.547288E+03	1.102668E-15	4.022677E-17
3.548750E+03	1.113038E-15	4.057606E-17
3.550212E+03	1.117846E-15	4.072223E-17
3.551674E+03	1.119748E-15	4.076241E-17
3.553136E+03	1.121349E-15	4.079156E-17
3.554598E+03	1.124874E-15	4.089058E-17
3.556060E+03	1.125697E-15	4.089129E-17
3.557522E+03	1.127185E-15	4.091613E-17
3.558984E+03	1.126455E-15	4.086046E-17
3.560446E+03	1.126740E-15	4.084165E-17
3.561908E+03	1.130403E-15	4.094520E-17
3.563370E+03	1.128127E-15	4.083361E-17
3.564832E+03	1.123552E-15	4.063905E-17
3.566294E+03	1.118234E-15	4.041786E-17
3.567756E+03	1.114244E-15	4.024495E-17
3.569218E+03	1.116570E-15	4.030019E-17
3.570680E+03	1.114297E-15	4.018951E-17
3.572142E+03	1.105998E-15	3.986176E-17
3.573604E+03	1.105993E-15	3.983320E-17
3.575066E+03	1.102591E-15	3.968239E-17
3.576528E+03	1.090621E-15	3.922362E-17
3.577990E+03	1.081460E-15	3.886646E-17
3.579452E+03	1.077999E-15	3.871449E-17
3.580914E+03	1.077597E-15	3.867248E-17
3.582376E+03	1.075460E-15	3.856831E-17
3.583838E+03	1.071409E-15	3.839567E-17
3.585300E+03	1.068827E-15	3.827589E-17
3.586762E+03	1.062828E-15	3.803398E-17
3.588224E+03	1.058440E-15	3.784999E-17
3.589686E+03	1.054437E-15	3.767998E-17
3.591148E+03	1.057326E-15	3.775635E-17
3.592610E+03	1.062527E-15	3.791506E-17
3.594072E+03	1.057699E-15	3.771592E-17
3.595534E+03	1.055211E-15	3.760044E-17
3.596996E+03	1.055697E-15	3.759098E-17
3.598458E+03	1.055933E-15	3.757265E-17
3.599920E+03	1.054898E-15	3.750913E-17
3.601382E+03	1.058317E-15	3.760393E-17
3.602844E+03	1.065865E-15	3.784517E-17
3.604306E+03	1.066712E-15	3.784829E-17
3.605768E+03	1.060178E-15	3.758973E-17
3.607230E+03	1.061319E-15	3.760340E-17
3.608692E+03	1.066870E-15	3.777318E-17
3.610154E+03	1.069731E-15	3.784755E-17
3.611616E+03	1.076043E-15	3.804380E-17
3.613078E+03	1.087090E-15	3.840702E-17
3.614540E+03	1.093370E-15	3.860144E-17
3.616002E+03	1.094040E-15	3.859761E-17
3.617464E+03	1.098668E-15	3.873332E-17
3.618926E+03	1.104103E-15	3.889724E-17
3.620388E+03	1.110310E-15	3.908807E-17
3.621850E+03	1.123747E-15	3.953299E-17
3.623312E+03	1.143446E-15	4.019737E-17
3.624774E+03	1.161320E-15	4.079666E-17
3.626236E+03	1.174425E-15	4.122770E-17
3.627698E+03	1.189971E-15	4.174371E-17
3.629160E+03	1.209174E-15	4.238719E-17
3.630622E+03	1.222749E-15	4.283255E-17
3.632084E+03	1.241753E-15	4.346729E-17
3.633546E+03	1.259815E-15	4.406818E-17
3.635008E+03	1.276332E-15	4.461416E-17
3.636470E+03	1.297085E-15	4.530732E-17
3.637932E+03	1.319309E-15	4.605081E-17
3.639394E+03	1.346143E-15	4.695400E-17
3.640856E+03	1.368299E-15	4.769283E-17
3.642318E+03	1.393621E-15	4.854087E-17
3.643780E+03	1.422960E-15	4.952748E-17
3.645242E+03	1.447011E-15	5.032875E-17
3.646704E+03	1.464555E-15	5.090269E-17
3.648166E+03	1.489505E-15	5.173297E-17
3.649628E+03	1.518480E-15	5.270178E-17
3.651090E+03	1.542882E-15	5.351055E-17
3.652552E+03	1.570951E-15	5.444521E-17
3.654014E+03	1.595773E-15	5.526611E-17
3.655476E+03	1.618682E-15	5.601954E-17
3.656938E+03	1.647448E-15	5.697445E-17
3.658400E+03	1.684513E-15	5.821479E-17
3.659863E+03	1.713471E-15	5.917331E-17
3.661325E+03	1.742948E-15	6.014837E-17
3.662787E+03	1.777451E-15	6.129532E-17
3.664249E+03	1.807119E-15	6.227399E-17
3.665711E+03	1.834992E-15	6.318939E-17
3.667173E+03	1.865823E-15	6.420527E-17
3.668635E+03	1.894859E-15	6.515790E-17
3.670097E+03	1.927102E-15	6.621936E-17
3.671559E+03	1.959871E-15	6.729729E-17
3.673021E+03	1.998423E-15	6.857212E-17
3.674483E+03	2.026742E-15	6.949416E-17
3.675945E+03	2.050440E-15	7.025654E-17
3.677407E+03	2.077471E-15	7.113192E-17
3.678869E+03	2.101714E-15	7.191058E-17
3.680331E+03	2.125983E-15	7.268899E-17
3.681793E+03	2.149175E-15	7.342943E-17
3.683255E+03	2.171410E-15	7.413610E-17
3.684717E+03	2.190107E-15	7.472101E-17
3.686179E+03	2.211897E-15	7.541048E-17
3.687641E+03	2.233219E-15	7.608297E-17
3.689103E+03	2.251857E-15	7.666308E-17
3.690565E+03	2.272116E-15	7.729745E-17
3.692027E+03	2.282541E-15	7.759655E-17
3.693489E+03	2.288169E-15	7.773220E-17
3.694951E+03	2.294419E-15	7.788872E-17
3.696413E+03	2.295245E-15	7.786096E-17
3.697875E+03	2.296934E-15	7.786247E-17
3.699337E+03	2.305419E-15	7.809414E-17
3.700799E+03	2.313543E-15	7.831316E-17
3.702261E+03	2.312026E-15	7.820573E-17
3.703723E+03	2.311743E-15	7.814011E-17
3.705185E+03	2.310716E-15	7.804939E-17
3.706647E+03	2.299402E-15	7.761154E-17
3.708109E+03	2.291297E-15	7.728249E-17
3.709571E+03	2.286903E-15	7.707894E-17
3.711033E+03	2.275676E-15	7.664549E-17
3.712495E+03	2.266670E-15	7.628738E-17
3.713957E+03	2.256783E-15	7.590006E-17
3.715419E+03	2.242531E-15	7.536658E-17
3.716881E+03	2.223410E-15	7.467029E-17
3.718343E+03	2.203270E-15	7.394074E-17
3.719805E+03	2.182857E-15	7.320302E-17
3.721267E+03	2.162544E-15	7.246966E-17
3.722729E+03	2.140086E-15	7.166551E-17
3.724191E+03	2.118725E-15	7.089914E-17
3.725653E+03	2.094342E-15	7.003277E-17
3.727115E+03	2.067932E-15	6.909986E-17
3.728577E+03	2.048489E-15	6.840089E-17
3.730039E+03	2.024896E-15	6.756440E-17
3.731501E+03	1.996896E-15	6.658213E-17
3.732963E+03	1.966609E-15	6.552504E-17
3.734425E+03	1.938041E-15	6.452663E-17
3.735887E+03	1.909941E-15	6.354517E-17
3.737349E+03	1.880929E-15	6.253480E-17
3.738811E+03	1.850504E-15	6.147886E-17
3.740273E+03	1.823683E-15	6.054408E-17
3.741735E+03	1.797460E-15	5.963041E-17
3.743197E+03	1.769320E-15	5.865448E-17
3.744659E+03	1.736494E-15	5.752469E-17
3.746121E+03	1.706776E-15	5.649935E-17
3.747583E+03	1.668587E-15	5.519527E-17
3.749045E+03	1.632748E-15	5.397068E-17
3.750507E+03	1.598884E-15	5.281308E-17
3.751969E+03	1.567630E-15	5.174323E-17
3.753431E+03	1.536591E-15	5.068202E-17
3.754893E+03	1.505643E-15	4.962528E-17
3.756355E+03	1.475416E-15	4.859381E-17
3.757817E+03	1.441490E-15	4.744201E-17
3.759279E+03	1.410053E-15	4.637375E-17
3.760741E+03	1.373645E-15	4.514361E-17
3.762203E+03	1.337575E-15	4.392631E-17
3.763665E+03	1.305898E-15	4.285490E-17
3.765127E+03	1.267327E-15	4.155894E-17
3.766589E+03	1.233353E-15	4.041549E-17
3.768051E+03	1.204797E-15	3.945106E-17
3.769513E+03	1.176653E-15	3.850149E-17
3.770975E+03	1.152439E-15	3.768179E-17
3.772437E+03	1.129737E-15	3.691262E-17
3.773899E+03	1.098728E-15	3.587333E-17
3.775361E+03	1.070420E-15	3.492364E-17
3.776823E+03	1.050954E-15	3.426359E-17
3.778285E+03	1.038779E-15	3.384200E-17
3.779747E+03	1.018406E-15	3.315409E-17
3.781209E+03	9.995011E-16	3.251494E-17
3.782671E+03	9.852969E-16	3.202949E-17
3.784133E+03	9.723656E-16	3.158608E-17
3.785596E+03	9.541682E-16	3.097235E-17
3.787058E+03	9.436455E-16	3.060842E-17
3.788520E+03	9.349524E-16	3.030431E-17
3.789982E+03	9.229344E-16	2.989293E-17
3.791444E+03	9.107874E-16	2.947794E-17
3.792906E+03	9.018804E-16	2.916833E-17
3.794368E+03	8.970777E-16	2.899179E-17
3.795830E+03	8.930901E-16	2.884180E-17
3.797292E+03	8.894310E-16	2.870262E-17
3.798754E+03	8.827499E-16	2.846616E-17
3.800216E+03	8.792215E-16	2.833162E-17
3.801678E+03	8.773857E-16	2.825175E-17
3.803140E+03	8.753796E-16	2.816649E-17
3.804602E+03	8.825726E-16	2.837712E-17
3.806064E+03	8.923489E-16	2.867041E-17
3.807526E+03	9.012587E-16	2.893543E-17
3.808988E+03	9.133882E-16	2.930333E-17
3.810450E+03	9.242536E-16	2.963014E-17
3.811912E+03	9.316594E-16	2.984561E-17
3.813374E+03	9.407641E-16	3.011513E-17
3.814836E+03	9.526820E-16	3.047422E-17
3.816298E+03	9.711407E-16	3.104183E-17
3.817760E+03	9.966296E-16	3.183312E-17
3.819222E+03	1.023479E-15	3.266665E-17
3.820684E+03	1.053892E-15	3.361259E-17
3.822146E+03	1.081813E-15	3.447767E-17
3.823608E+03	1.103684E-15	3.514879E-17
3.825070E+03	1.129651E-15	3.594924E-17
3.826532E+03	1.161902E-15	3.694830E-17
3.827994E+03	1.191721E-15	3.786856E-17
3.829456E+03	1.219207E-15	3.871338E-17
3.830918E+03	1.255302E-15	3.983007E-17
3.832380E+03	1.289512E-15	4.088530E-17
3.833842E+03	1.321195E-15	4.185889E-17
3.835304E+03	1.355256E-15	4.290628E-17
3.836766E+03	1.389614E-15	4.396150E-17
3.838228E+03	1.424662E-15	4.503691E-17
3.839690E+03	1.459877E-15	4.611600E-17
3.841152E+03	1.497741E-15	4.727702E-17
3.842614E+03	1.531728E-15	4.831405E-17
3.844076E+03	1.565230E-15	4.933416E-17
3.845538E+03	1.595761E-15	5.025918E-17
3.847000E+03	1.631818E-15	5.135668E-17
3.848462E+03	1.668175E-15	5.246196E-17
3.849924E+03	1.705094E-15	5.358323E-17
3.851386E+03	1.748996E-15	5.492205E-17
3.852848E+03	1.789669E-15	5.615751E-17
3.854310E+03	1.826319E-15	5.726496E-17
3.855772E+03	1.862353E-15	5.835142E-17
3.857234E+03	1.899739E-15	5.947850E-17
3.858696E+03	1.937295E-15	6.060921E-17
3.860158E+03	1.977257E-15	6.181342E-17
3.861620E+03	2.015290E-15	6.295547E-17
3.863082E+03	2.052047E-15	6.405598E-17
3.864544E+03	2.085157E-15	6.504102E-17
3.866006E+03	2.121858E-15	6.613648E-17
3.867468E+03	2.157017E-15	6.718221E-17
3.868930E+03	2.191949E-15	6.821927E-17
3.870392E+03	2.228105E-15	6.929279E-17
3.871854E+03	2.259944E-15	7.023049E-17
3.873316E+03	2.287986E-15	7.104881E-17
3.874778E+03	2.320682E-15	7.201027E-17
3.876240E+03	2.355660E-15	7.304099E-17
3.877702E+03	2.392527E-15	7.412862E-17
3.879164E+03	2.427976E-15	7.517069E-17
3.880626E+03	2.458827E-15	7.606887E-17
3.882088E+03	2.493156E-15	7.707316E-17
3.883550E+03	2.524471E-15	7.798279E-17
3.885012E+03	2.557941E-15	7.895749E-17
3.886474E+03	2.590782E-15	7.991128E-17
3.887936E+03	2.622063E-15	8.081550E-17
3.889398E+03	2.648594E-15	8.157199E-17
3.890860E+03	2.673424E-15	8.227492E-17
3.892322E+03	2.700407E-15	8.304295E-17
3.893784E+03	2.726619E-15	8.378607E-17
3.895246E+03	2.757784E-15	8.468009E-17
3.896708E+03	2.788849E-15	8.556960E-17
3.898170E+03	2.817812E-15	8.639327E-17
3.899632E+03	2.845738E-15	8.718386E-17
3.901094E+03	2.874626E-15	8.800266E-17
3.902556E+03	2.907415E-15	8.893949E-17
3.904018E+03	2.936765E-15	8.976969E-17
3.905480E+03	2.961466E-15	9.045658E-17
3.906942E+03	2.989536E-15	9.124518E-17
3.908404E+03	3.012550E-15	9.187830E-17
3.909866E+03	3.032373E-15	9.241317E-17
3.911329E+03	3.057841E-15	9.311906E-17
3.912791E+03	3.081593E-15	9.377158E-17
3.914253E+03	3.105233E-15	9.441966E-17
3.915715E+03	3.130239E-15	9.510816E-17
3.917177E+03	3.156210E-15	9.582484E-17
3.918639E+03	3.185831E-15	9.665112E-17
3.920101E+03	3.210780E-15	9.733442E-17
3.921563E+03	3.234813E-15	9.798885E-17
3.923025E+03	3.262634E-15	9.875691E-17
3.924487E+03	3.287523E-15	9.943503E-17
3.925949E+03	3.316207E-15	1.002267E-16
3.927411E+03	3.345592E-15	1.010383E-16
3.928873E+03	3.371502E-15	1.017438E-16
3.930335E+03	3.394875E-15	1.023715E-16
3.931797E+03	3.418135E-15	1.029949E-16
3.933259E+03	3.445199E-15	1.037317E-16
3.934721E+03	3.469317E-15	1.043787E-16
3.936183E+03	3.494539E-15	1.050579E-16
3.937645E+03	3.515458E-15	1.056067E-16
3.939107E+03	3.536262E-15	1.061511E-16
3.940569E+03	3.555868E-15	1.066586E-16
3.942031E+03	3.572918E-15	1.070887E-16
3.943493E+03	3.590119E-15	1.075226E-16
3.944955E+03	3.611539E-15	1.080820E-16
3.946417E+03	3.631487E-15	1.085965E-16
3.947879E+03	3.651319E-15	1.091065E-16
3.949341E+03	3.664378E-15	1.094136E-16
3.950803E+03	3.681253E-15	1.098339E-16
3.952265E+03	3.696647E-15	1.102094E-16
3.953727E+03	3.711376E-15	1.105644E-16
3.955189E+03	3.720265E-15	1.107449E-16
3.956651E+03	3.726030E-15	1.108322E-16
3.958113E+03	3.732479E-15	1.109395E-16
3.959575E+03	3.734162E-15	1.109051E-16
3.961037E+03	3.735708E-15	1.108665E-16
3.962499E+03	3.734933E-15	1.107591E-16
3.963961E+03	3.736066E-15	1.107084E-16
3.965423E+03	3.736650E-15	1.106414E-16
3.966885E+03	3.738327E-15	1.106067E-16
3.968347E+03	3.733713E-15	1.103860E-16
3.969809E+03	3.728681E-15	1.101532E-16
3.971271E+03	3.719808E-15	1.098074E-16
3.972733E+03	3.709006E-15	1.094050E-16
3.974195E+03	3.697506E-15	1.089827E-16
3.975657E+03	3.685442E-15	1.085443E-16
3.977119E+03	3.673912E-15	1.081222E-16
3.978581E+03	3.658525E-15	1.075872E-16
3.980043E+03	3.641060E-15	1.069919E-16
3.981505E+03	3.627146E-15	1.065017E-16
3.982967E+03	3.609778E-15	1.059109E-16
3.984429E+03	3.587578E-15	1.051792E-16
3.985891E+03	3.567828E-15	1.045204E-16
3.987353E+03	3.547091E-15	1.038336E-16
3.988815E+03	3.524265E-15	1.030866E-16
3.990277E+03	3.502102E-15	1.023601E-16
3.991739E+03	3.480327E-15	1.016460E-16
3.993201E+03	3.455078E-15	1.008315E-16
3.994663E+03	3.428973E-15	9.999328E-17
3.996125E+03	3.399525E-15	9.905882E-17
3.997587E+03	3.373911E-15	9.823739E-17
3.999049E+03	3.350343E-15	9.747664E-17
4.000511E+03	3.323844E-15	9.663179E-17
4.001973E+03	3.297038E-15	9.577928E-17
4.003435E+03	3.268542E-15	9.487891E-17
4.004897E+03	3.236551E-15	9.387853E-17
4.006359E+03	3.202447E-15	9.281834E-17
4.007821E+03	3.168167E-15	9.175463E-17
4.009283E+03	3.134266E-15	9.070345E-17
4.010745E+03	3.099772E-15	8.963670E-17
4.012207E+03	3.070796E-15	8.873094E-17
4.013669E+03	3.043733E-15	8.788176E-17
4.015131E+03	3.019003E-15	8.710114E-17
4.016593E+03	2.991603E-15	8.624469E-17
4.018055E+03	2.960416E-15	8.528042E-17
4.019517E+03	2.931702E-15	8.438873E-17
4.020979E+03	2.903931E-15	8.352551E-17
4.022441E+03	2.879893E-15	8.277082E-17
4.023903E+03	2.859174E-15	8.211257E-17
4.025365E+03	2.833131E-15	8.130251E-17
4.026827E+03	2.807199E-15	8.049684E-17
4.028289E+03	2.785288E-15	7.980756E-17
4.029751E+03	2.765310E-15	7.917460E-17
4.031213E+03	2.740556E-15	7.840598E-17
4.032675E+03	2.717454E-15	7.768569E-17
4.034137E+03	2.697124E-15	7.704567E-17
4.035599E+03	2.676493E-15	7.639796E-17
4.037061E+03	2.659900E-15	7.586640E-17
4.038524E+03	2.640626E-15	7.525920E-17
4.039986E+03	2.618947E-15	7.458442E-17
4.041448E+03	2.602995E-15	7.407360E-17
4.042910E+03	2.588008E-15	7.359095E-17
4.044372E+03	2.572161E-15	7.308458E-17
4.045834E+03	2.562758E-15	7.276190E-17
4.047296E+03	2.552359E-15	7.241144E-17
4.048758E+03	2.542792E-15	7.208506E-17
4.050220E+03	2.532229E-15	7.173092E-17
4.051682E+03	2.517853E-15	7.126938E-17
4.053144E+03	2.505573E-15	7.086779E-17
4.054606E+03	2.500464E-15	7.066944E-17
4.056068E+03	2.495347E-15	7.047118E-17
4.057530E+03	2.488673E-15	7.022921E-17
4.058992E+03	2.479591E-15	6.991971E-17
4.060454E+03	2.471063E-15	6.962626E-17
4.061916E+03	2.463089E-15	6.934884E-17
4.063378E+03	2.456235E-15	6.910333E-17
4.064840E+03	2.450504E-15	6.888973E-17
4.066302E+03	2.441230E-15	6.857689E-17
4.067764E+03	2.435623E-15	6.836745E-17
4.069226E+03	2.432132E-15	6.821768E-17
4.070688E+03	2.425803E-15	6.798855E-17
4.072150E+03	2.421450E-15	6.781508E-17
4.073612E+03	2.420635E-15	6.774087E-17
4.075074E+03	2.418398E-15	6.762701E-17
4.076536E+03	2.414170E-15	6.745767E-17
4.077998E+03	2.404683E-15	6.714172E-17
4.079460E+03	2.397600E-15	6.689329E-17
4.080922E+03	2.395055E-15	6.677177E-17
4.082384E+03	2.388383E-15	6.653541E-17
4.083846E+03	2.384689E-15	6.638232E-17
