#wls	flux	fluxerr
1.591305E+03	1.583296E-16	8.130191E-18
1.631088E+03	1.491011E-16	7.624361E-18
1.670870E+03	1.400097E-16	7.128938E-18
1.710653E+03	1.311402E-16	6.648222E-18
1.750436E+03	1.225933E-16	6.187254E-18
1.790218E+03	1.143726E-16	5.746094E-18
1.830001E+03	1.064263E-16	5.322028E-18
1.869784E+03	9.867167E-17	4.910831E-18
1.909566E+03	9.109342E-17	4.511701E-18
1.949349E+03	8.368680E-17	4.124366E-18
1.989131E+03	7.657134E-17	3.754646E-18
2.028914E+03	7.006943E-17	3.418133E-18
2.068697E+03	6.475400E-17	3.142240E-18
2.108479E+03	6.126105E-17	2.956812E-18
2.148262E+03	6.009649E-17	2.884755E-18
2.188045E+03	6.140001E-17	2.930909E-18
2.227827E+03	6.497459E-17	3.083930E-18
2.267610E+03	7.036432E-17	3.320412E-18
2.307392E+03	7.709428E-17	3.616518E-18
2.347175E+03	8.479028E-17	3.953599E-18
2.386958E+03	9.321313E-17	4.319660E-18
2.426740E+03	1.022305E-16	4.707878E-18
2.466523E+03	1.117863E-16	5.115064E-18
2.506306E+03	1.217828E-16	5.536181E-18
2.546088E+03	1.321581E-16	5.967921E-18
2.585871E+03	1.428022E-16	6.404875E-18
2.625653E+03	1.535612E-16	6.839817E-18
2.665436E+03	1.644091E-16	7.271357E-18
2.705219E+03	1.752917E-16	7.696905E-18
2.745001E+03	1.862571E-16	8.118400E-18
2.784784E+03	1.973199E-16	8.536268E-18
2.824567E+03	2.085649E-16	8.953926E-18
2.864349E+03	2.200942E-16	9.375428E-18
2.904132E+03	2.319639E-16	9.802740E-18
2.943914E+03	2.443700E-16	1.024361E-17
2.983697E+03	2.574638E-16	1.070366E-17
2.993643E+03	2.608406E-16	1.082139E-17
3.003588E+03	2.643171E-16	1.094261E-17
3.013534E+03	2.678277E-16	1.106456E-17
3.023480E+03	2.714122E-16	1.118889E-17
3.033425E+03	2.750901E-16	1.131636E-17
3.043371E+03	2.788719E-16	1.144739E-17
3.053317E+03	2.827707E-16	1.158247E-17
3.063262E+03	2.868196E-16	1.172293E-17
3.073208E+03	2.909450E-16	1.186573E-17
3.083154E+03	2.951803E-16	1.201220E-17
3.093099E+03	2.995602E-16	1.216372E-17
3.103045E+03	3.040467E-16	1.231870E-17
3.112991E+03	3.086384E-16	1.247706E-17
3.122936E+03	3.133709E-16	1.264019E-17
3.132882E+03	3.182057E-16	1.280652E-17
3.142828E+03	3.231792E-16	1.297747E-17
3.152773E+03	3.282522E-16	1.315143E-17
3.162719E+03	3.335002E-16	1.333138E-17
3.172665E+03	3.388449E-16	1.351415E-17
3.182610E+03	3.442839E-16	1.369962E-17
3.192556E+03	3.498941E-16	1.389081E-17
3.202502E+03	3.556342E-16	1.408603E-17
3.212447E+03	3.615019E-16	1.428516E-17
3.222393E+03	3.674944E-16	1.448804E-17
3.232339E+03	3.736494E-16	1.469611E-17
3.242284E+03	3.799226E-16	1.490759E-17
3.252230E+03	3.863512E-16	1.512390E-17
3.262175E+03	3.928890E-16	1.534319E-17
3.272121E+03	3.996150E-16	1.556850E-17
3.282067E+03	4.064392E-16	1.579627E-17
3.292012E+03	4.133975E-16	1.602786E-17
3.301958E+03	4.204829E-16	1.626297E-17
3.311904E+03	4.277308E-16	1.650292E-17
3.321849E+03	4.350902E-16	1.674568E-17
3.331795E+03	4.425955E-16	1.699256E-17
3.341741E+03	4.501939E-16	1.724147E-17
3.351686E+03	4.579190E-16	1.749368E-17
3.361632E+03	4.657605E-16	1.774875E-17
3.371578E+03	4.737526E-16	1.800794E-17
3.381523E+03	4.818404E-16	1.826913E-17
3.391469E+03	4.900118E-16	1.853181E-17
3.401415E+03	4.983019E-16	1.879730E-17
3.411360E+03	5.066540E-16	1.906340E-17
3.421306E+03	5.151496E-16	1.933318E-17
3.431252E+03	5.237328E-16	1.960447E-17
3.441197E+03	5.323942E-16	1.987692E-17
3.451143E+03	5.411248E-16	2.015014E-17
3.461089E+03	5.500080E-16	2.042721E-17
3.471034E+03	5.589416E-16	2.070431E-17
3.480980E+03	5.679637E-16	2.098281E-17
3.490926E+03	5.770652E-16	2.126236E-17
3.500871E+03	5.862397E-16	2.154270E-17
3.510817E+03	5.955283E-16	2.182529E-17
3.520763E+03	6.049270E-16	2.210996E-17
3.530708E+03	6.143883E-16	2.239495E-17
3.540654E+03	6.240063E-16	2.268364E-17
3.550600E+03	6.336922E-16	2.297278E-17
3.560545E+03	6.435449E-16	2.326590E-17
3.570491E+03	6.535737E-16	2.356330E-17
3.580436E+03	6.637461E-16	2.386374E-17
3.590382E+03	6.741242E-16	2.416940E-17
3.600328E+03	6.847286E-16	2.448095E-17
3.610273E+03	6.955375E-16	2.479755E-17
3.620219E+03	7.067171E-16	2.512502E-17
3.630165E+03	7.181620E-16	2.545953E-17
3.640110E+03	7.300014E-16	2.580556E-17
3.650056E+03	7.422741E-16	2.616433E-17
3.660002E+03	7.549755E-16	2.653556E-17
3.669947E+03	7.682407E-16	2.692384E-17
3.679893E+03	7.820253E-16	2.732745E-17
3.689839E+03	7.964265E-16	2.774961E-17
3.699784E+03	8.115439E-16	2.819359E-17
3.709730E+03	8.273929E-16	2.865968E-17
3.719676E+03	8.440392E-16	2.914994E-17
3.729621E+03	8.615987E-16	2.966810E-17
3.739567E+03	8.800979E-16	3.021478E-17
3.749513E+03	8.996554E-16	3.079376E-17
3.759458E+03	9.202960E-16	3.140553E-17
3.769404E+03	9.421241E-16	3.205331E-17
3.779350E+03	9.651806E-16	3.273812E-17
3.789295E+03	9.894868E-16	3.346029E-17
3.799241E+03	1.014990E-15	3.421762E-17
3.809187E+03	1.041733E-15	3.501122E-17
3.819132E+03	1.069540E-15	3.583478E-17
3.829078E+03	1.098334E-15	3.668540E-17
3.839024E+03	1.127948E-15	3.755716E-17
3.848969E+03	1.158123E-15	3.844128E-17
3.858915E+03	1.188701E-15	3.933227E-17
3.868861E+03	1.219284E-15	4.021691E-17
3.878806E+03	1.249577E-15	4.108550E-17
3.888752E+03	1.279209E-15	4.192594E-17
3.898698E+03	1.307736E-15	4.272397E-17
3.908643E+03	1.334800E-15	4.346825E-17
3.918589E+03	1.359957E-15	4.414480E-17
3.928534E+03	1.382879E-15	4.474367E-17
3.938480E+03	1.403184E-15	4.525318E-17
3.948426E+03	1.420595E-15	4.566530E-17
3.958371E+03	1.434922E-15	4.597482E-17
3.968317E+03	1.446059E-15	4.617938E-17
3.978263E+03	1.454008E-15	4.628000E-17
3.988208E+03	1.458853E-15	4.628044E-17
3.998154E+03	1.460876E-15	4.619053E-17
4.008100E+03	1.460302E-15	4.601831E-17
4.018045E+03	1.457613E-15	4.577973E-17
4.027991E+03	1.453208E-15	4.548796E-17
4.037937E+03	1.447507E-15	4.515664E-17
4.047882E+03	1.441015E-15	4.480192E-17
4.057828E+03	1.434148E-15	4.443695E-17
4.067774E+03	1.427340E-15	4.407525E-17
4.077719E+03	1.420991E-15	4.372913E-17
4.087665E+03	1.415432E-15	4.340858E-17
4.097611E+03	1.410989E-15	4.312337E-17
4.107556E+03	1.407941E-15	4.288161E-17
4.117502E+03	1.406488E-15	4.268898E-17
4.127448E+03	1.406851E-15	4.255162E-17
4.137393E+03	1.409118E-15	4.247167E-17
4.147339E+03	1.413330E-15	4.244976E-17
4.157285E+03	1.419543E-15	4.248695E-17
4.167230E+03	1.427680E-15	4.258033E-17
4.177176E+03	1.437617E-15	4.272564E-17
4.187122E+03	1.449262E-15	4.291959E-17
4.197067E+03	1.462396E-15	4.315520E-17
4.207013E+03	1.476867E-15	4.342757E-17
4.216959E+03	1.492447E-15	4.372959E-17
4.226904E+03	1.508891E-15	4.405378E-17
4.236850E+03	1.526005E-15	4.439427E-17
4.246796E+03	1.543534E-15	4.474346E-17
4.256741E+03	1.561254E-15	4.509482E-17
4.266687E+03	1.578889E-15	4.544035E-17
4.276632E+03	1.596266E-15	4.577510E-17
4.286578E+03	1.613162E-15	4.609289E-17
4.296524E+03	1.629408E-15	4.638901E-17
4.306469E+03	1.644834E-15	4.665893E-17
4.316415E+03	1.659376E-15	4.690107E-17
4.326361E+03	1.672894E-15	4.711183E-17
4.336306E+03	1.685458E-15	4.729351E-17
4.346252E+03	1.697170E-15	4.744929E-17
4.356198E+03	1.708275E-15	4.758625E-17
4.366143E+03	1.719217E-15	4.771699E-17
4.376089E+03	1.730396E-15	4.785263E-17
4.386035E+03	1.742276E-15	4.800588E-17
4.395980E+03	1.755423E-15	4.819215E-17
4.405926E+03	1.770481E-15	4.842861E-17
4.415872E+03	1.788147E-15	4.873377E-17
4.425817E+03	1.809080E-15	4.912468E-17
4.435763E+03	1.833911E-15	4.961750E-17
4.445709E+03	1.863021E-15	5.022133E-17
4.455654E+03	1.896764E-15	5.094446E-17
4.465600E+03	1.935238E-15	5.178816E-17
4.475546E+03	1.978425E-15	5.275060E-17
4.485491E+03	2.026037E-15	5.382276E-17
4.495437E+03	2.077603E-15	5.499091E-17
4.505383E+03	2.132467E-15	5.623662E-17
4.515328E+03	2.189653E-15	5.753337E-17
4.525274E+03	2.248035E-15	5.885100E-17
4.535220E+03	2.306171E-15	6.015162E-17
4.545165E+03	2.362462E-15	6.139378E-17
4.555111E+03	2.415221E-15	6.253436E-17
4.565057E+03	2.462753E-15	6.353068E-17
4.575002E+03	2.503387E-15	6.434132E-17
4.584948E+03	2.535707E-15	6.493201E-17
4.594894E+03	2.558563E-15	6.527577E-17
4.604839E+03	2.571186E-15	6.535579E-17
4.614785E+03	2.573324E-15	6.516852E-17
4.624730E+03	2.565169E-15	6.472179E-17
4.634676E+03	2.547284E-15	6.403265E-17
4.644622E+03	2.520832E-15	6.313291E-17
4.654567E+03	2.487191E-15	6.205933E-17
4.664513E+03	2.447935E-15	6.085303E-17
4.674459E+03	2.404861E-15	5.956005E-17
4.684404E+03	2.359721E-15	5.822463E-17
4.694350E+03	2.314188E-15	5.688843E-17
4.704296E+03	2.269769E-15	5.558848E-17
4.714241E+03	2.227751E-15	5.435579E-17
4.724187E+03	2.189197E-15	5.321554E-17
4.734133E+03	2.154878E-15	5.218545E-17
4.744078E+03	2.125363E-15	5.127806E-17
4.754024E+03	2.100968E-15	5.049964E-17
4.763970E+03	2.081814E-15	4.985167E-17
4.773915E+03	2.067886E-15	4.933242E-17
4.783861E+03	2.058990E-15	4.893584E-17
4.793807E+03	2.054829E-15	4.865353E-17
4.803752E+03	2.054996E-15	4.847468E-17
4.813698E+03	2.058967E-15	4.838581E-17
4.823644E+03	2.066192E-15	4.837303E-17
4.833589E+03	2.076083E-15	4.842182E-17
4.843535E+03	2.087925E-15	4.851489E-17
4.853481E+03	2.100991E-15	4.863490E-17
4.863426E+03	2.114475E-15	4.876302E-17
4.873372E+03	2.127571E-15	4.888061E-17
4.883318E+03	2.139302E-15	4.896546E-17
4.893263E+03	2.148777E-15	4.899767E-17
4.903209E+03	2.155144E-15	4.895849E-17
4.913155E+03	2.157630E-15	4.883125E-17
4.923100E+03	2.155629E-15	4.860330E-17
4.933046E+03	2.148810E-15	4.826840E-17
4.942991E+03	2.137075E-15	4.782561E-17
4.952937E+03	2.120628E-15	4.728069E-17
4.962883E+03	2.099884E-15	4.664406E-17
4.972828E+03	2.075536E-15	4.593215E-17
4.982774E+03	2.048447E-15	4.516485E-17
4.992720E+03	2.019598E-15	4.436442E-17
5.002665E+03	1.990036E-15	4.355415E-17
5.012611E+03	1.960810E-15	4.275711E-17
5.022557E+03	1.932900E-15	4.199449E-17
5.032502E+03	1.907179E-15	4.128483E-17
5.042448E+03	1.884435E-15	4.064467E-17
5.052394E+03	1.865325E-15	4.008738E-17
5.062339E+03	1.850362E-15	3.962309E-17
5.072285E+03	1.840002E-15	3.926061E-17
5.082231E+03	1.834604E-15	3.900656E-17
5.092176E+03	1.834448E-15	3.886572E-17
5.102122E+03	1.839750E-15	3.884155E-17
5.112068E+03	1.850649E-15	3.893582E-17
5.122013E+03	1.867205E-15	3.914864E-17
5.131959E+03	1.889341E-15	3.947726E-17
5.141905E+03	1.917005E-15	3.991948E-17
5.151850E+03	1.949913E-15	4.046840E-17
5.161796E+03	1.987800E-15	4.111754E-17
5.171742E+03	2.030268E-15	4.185786E-17
5.181687E+03	2.076780E-15	4.267758E-17
5.191633E+03	2.126724E-15	4.356354E-17
5.201579E+03	2.179427E-15	4.450154E-17
5.211524E+03	2.234077E-15	4.547475E-17
5.221470E+03	2.289850E-15	4.646633E-17
5.231416E+03	2.345881E-15	4.745885E-17
5.241361E+03	2.401279E-15	4.843454E-17
5.251307E+03	2.455326E-15	4.937938E-17
5.261253E+03	2.507299E-15	5.027938E-17
5.271198E+03	2.556723E-15	5.112567E-17
5.281144E+03	2.603324E-15	5.191352E-17
5.291089E+03	2.647141E-15	5.264445E-17
5.301035E+03	2.688583E-15	5.332730E-17
5.310981E+03	2.728329E-15	5.397613E-17
5.320926E+03	2.767471E-15	5.461303E-17
5.330872E+03	2.807394E-15	5.526561E-17
5.340818E+03	2.849780E-15	5.596709E-17
5.350763E+03	2.896556E-15	5.675516E-17
5.360709E+03	2.949836E-15	5.767093E-17
5.370655E+03	3.011887E-15	5.875809E-17
5.380600E+03	3.085097E-15	6.006245E-17
5.390546E+03	3.171684E-15	6.162628E-17
5.400492E+03	3.273688E-15	6.348812E-17
5.410437E+03	3.392688E-15	6.567750E-17
5.420383E+03	3.529451E-15	6.820822E-17
5.430329E+03	3.683251E-15	7.106540E-17
5.440274E+03	3.851671E-15	7.420186E-17
5.450220E+03	4.030843E-15	7.754295E-17
5.460166E+03	4.215417E-15	8.098619E-17
5.470111E+03	4.399231E-15	8.441394E-17
5.480057E+03	4.575593E-15	8.769894E-17
5.490003E+03	4.737457E-15	9.070761E-17
5.499948E+03	4.878123E-15	9.331340E-17
5.509894E+03	4.992001E-15	9.541119E-17
5.519840E+03	5.074626E-15	9.691744E-17
5.529785E+03	5.123043E-15	9.777739E-17
5.539731E+03	5.136170E-15	9.797174E-17
5.549677E+03	5.114737E-15	9.751546E-17
5.559622E+03	5.060964E-15	9.645152E-17
5.569568E+03	4.978569E-15	9.485106E-17
5.579514E+03	4.872329E-15	9.280501E-17
5.589459E+03	4.747658E-15	9.041615E-17
5.599405E+03	4.610287E-15	8.779303E-17
5.609351E+03	4.465918E-15	8.504354E-17
5.619296E+03	4.319862E-15	8.226800E-17
5.629242E+03	4.176743E-15	7.955374E-17
5.639187E+03	4.040672E-15	7.697837E-17
5.649133E+03	3.914775E-15	7.460086E-17
5.659079E+03	3.801499E-15	7.246737E-17
5.669024E+03	3.702468E-15	7.060859E-17
5.678970E+03	3.618815E-15	6.904595E-17
5.688916E+03	3.550976E-15	6.778780E-17
5.698861E+03	3.499040E-15	6.683596E-17
5.708807E+03	3.462632E-15	6.618349E-17
5.718753E+03	3.440779E-15	6.581214E-17
5.728698E+03	3.432201E-15	6.569782E-17
5.738644E+03	3.435375E-15	6.581180E-17
5.748590E+03	3.448280E-15	6.611576E-17
5.758535E+03	3.468774E-15	6.656900E-17
5.768481E+03	3.494422E-15	6.712510E-17
5.778427E+03	3.522673E-15	6.773527E-17
5.788372E+03	3.550962E-15	6.835024E-17
5.798318E+03	3.576625E-15	6.891864E-17
5.808264E+03	3.597367E-15	6.939600E-17
5.818209E+03	3.611020E-15	6.974011E-17
5.828155E+03	3.615778E-15	6.991548E-17
5.838101E+03	3.610428E-15	6.989793E-17
5.848046E+03	3.594188E-15	6.967149E-17
5.857992E+03	3.566718E-15	6.922864E-17
5.867938E+03	3.528273E-15	6.857333E-17
5.877883E+03	3.479527E-15	6.771770E-17
5.887829E+03	3.421453E-15	6.667972E-17
5.897775E+03	3.355420E-15	6.548519E-17
5.907720E+03	3.282905E-15	6.416213E-17
5.917666E+03	3.205517E-15	6.274129E-17
5.927612E+03	3.124801E-15	6.125239E-17
5.937557E+03	3.042339E-15	5.972600E-17
5.947503E+03	2.959531E-15	5.818931E-17
5.957449E+03	2.877697E-15	5.666813E-17
5.967394E+03	2.797932E-15	5.518398E-17
5.977340E+03	2.721160E-15	5.375516E-17
5.987285E+03	2.648095E-15	5.239594E-17
5.997231E+03	2.579294E-15	5.111760E-17
6.007177E+03	2.515064E-15	4.992653E-17
6.017122E+03	2.455604E-15	4.882700E-17
6.027068E+03	2.400963E-15	4.782041E-17
6.037014E+03	2.351099E-15	4.690630E-17
6.046959E+03	2.305878E-15	4.608237E-17
6.056905E+03	2.265159E-15	4.534622E-17
6.066851E+03	2.228691E-15	4.469324E-17
6.076796E+03	2.196293E-15	4.412017E-17
6.086742E+03	2.167741E-15	4.362285E-17
6.096688E+03	2.142851E-15	4.319799E-17
6.106633E+03	2.121429E-15	4.284200E-17
6.116579E+03	2.103351E-15	4.255270E-17
6.126525E+03	2.088529E-15	4.232865E-17
6.136470E+03	2.076844E-15	4.216780E-17
6.146416E+03	2.068291E-15	4.207032E-17
6.156362E+03	2.062806E-15	4.203526E-17
6.166307E+03	2.060379E-15	4.206276E-17
6.176253E+03	2.061012E-15	4.215317E-17
6.186199E+03	2.064604E-15	4.230479E-17
6.196144E+03	2.071016E-15	4.251508E-17
6.206090E+03	2.080068E-15	4.278066E-17
6.216036E+03	2.091573E-15	4.309803E-17
6.225981E+03	2.105307E-15	4.346280E-17
6.235927E+03	2.121137E-15	4.387253E-17
6.245873E+03	2.138890E-15	4.432386E-17
6.255818E+03	2.158503E-15	4.481574E-17
6.265764E+03	2.179985E-15	4.534862E-17
6.275710E+03	2.203339E-15	4.592277E-17
6.285655E+03	2.228619E-15	4.653958E-17
6.295601E+03	2.255909E-15	4.720106E-17
6.305546E+03	2.285307E-15	4.790955E-17
6.315492E+03	2.316835E-15	4.866574E-17
6.325438E+03	2.350559E-15	4.947127E-17
6.335383E+03	2.386546E-15	5.032777E-17
6.345329E+03	2.424885E-15	5.123735E-17
6.355275E+03	2.465719E-15	5.220330E-17
6.365220E+03	2.509318E-15	5.323164E-17
6.375166E+03	2.556028E-15	5.433001E-17
6.385112E+03	2.606329E-15	5.550894E-17
6.395057E+03	2.660842E-15	5.678214E-17
6.405003E+03	2.720161E-15	5.816277E-17
6.414949E+03	2.784774E-15	5.966181E-17
6.424894E+03	2.854713E-15	6.128058E-17
6.434840E+03	2.929525E-15	6.300993E-17
6.444786E+03	3.007864E-15	6.482140E-17
6.454731E+03	3.087675E-15	6.667100E-17
6.464677E+03	3.166660E-15	6.850906E-17
6.474623E+03	3.242090E-15	7.027627E-17
6.484568E+03	3.311359E-15	7.191551E-17
6.494514E+03	3.371937E-15	7.337082E-17
6.504460E+03	3.421684E-15	7.459439E-17
6.514405E+03	3.458712E-15	7.554355E-17
6.524351E+03	3.481757E-15	7.618899E-17
6.534297E+03	3.489904E-15	7.650888E-17
6.544242E+03	3.482936E-15	7.649655E-17
6.554188E+03	3.461047E-15	7.615438E-17
6.564134E+03	3.424936E-15	7.549599E-17
6.574079E+03	3.375773E-15	7.454546E-17
6.584025E+03	3.314982E-15	7.333275E-17
6.593971E+03	3.244292E-15	7.189485E-17
6.603916E+03	3.165532E-15	7.027117E-17
6.613862E+03	3.080638E-15	6.850393E-17
6.623808E+03	2.991484E-15	6.663420E-17
6.633753E+03	2.899841E-15	6.470108E-17
6.643699E+03	2.807376E-15	6.274161E-17
6.653644E+03	2.715508E-15	6.078756E-17
6.663590E+03	2.625479E-15	5.886693E-17
6.673536E+03	2.538373E-15	5.700433E-17
6.683481E+03	2.454977E-15	5.521786E-17
6.693427E+03	2.375902E-15	5.352179E-17
6.703373E+03	2.301575E-15	5.192626E-17
6.713318E+03	2.232286E-15	5.043842E-17
6.723264E+03	2.168160E-15	4.906167E-17
6.733210E+03	2.109173E-15	4.779607E-17
6.743155E+03	2.055258E-15	4.664067E-17
6.753101E+03	2.006229E-15	4.559183E-17
6.763047E+03	1.961909E-15	4.464598E-17
6.772992E+03	1.922010E-15	4.379714E-17
6.782938E+03	1.886227E-15	4.303874E-17
6.792884E+03	1.854301E-15	4.236533E-17
6.802829E+03	1.825903E-15	4.176976E-17
6.812775E+03	1.800733E-15	4.124549E-17
6.822721E+03	1.778497E-15	4.078608E-17
6.832666E+03	1.758914E-15	4.038539E-17
6.842612E+03	1.741721E-15	4.003760E-17
6.852558E+03	1.726696E-15	3.973780E-17
6.862503E+03	1.713596E-15	3.948063E-17
6.872449E+03	1.702220E-15	3.926160E-17
6.882395E+03	1.692393E-15	3.907681E-17
6.892340E+03	1.683958E-15	3.892276E-17
6.902286E+03	1.676782E-15	3.879651E-17
6.912232E+03	1.670752E-15	3.869551E-17
6.922177E+03	1.665776E-15	3.861775E-17
6.932123E+03	1.661780E-15	3.856159E-17
6.942069E+03	1.658732E-15	3.852637E-17
6.952014E+03	1.656538E-15	3.850994E-17
6.961960E+03	1.655238E-15	3.851331E-17
6.971906E+03	1.654790E-15	3.853558E-17
6.981851E+03	1.655227E-15	3.857756E-17
6.991797E+03	1.656571E-15	3.863981E-17
7.001742E+03	1.658833E-15	3.872269E-17
7.011688E+03	1.662054E-15	3.882717E-17
7.021634E+03	1.666271E-15	3.895418E-17
7.031579E+03	1.671524E-15	3.910471E-17
7.041525E+03	1.677848E-15	3.927965E-17
7.051471E+03	1.685269E-15	3.947965E-17
7.061416E+03	1.693805E-15	3.970517E-17
7.071362E+03	1.703418E-15	3.995542E-17
7.081308E+03	1.714161E-15	4.023164E-17
7.091253E+03	1.725951E-15	4.053195E-17
7.101199E+03	1.738768E-15	4.085594E-17
7.111145E+03	1.752541E-15	4.120198E-17
7.121090E+03	1.767249E-15	4.156956E-17
7.131036E+03	1.782748E-15	4.195541E-17
7.140982E+03	1.798974E-15	4.235799E-17
7.150927E+03	1.815852E-15	4.277562E-17
7.160873E+03	1.833216E-15	4.320434E-17
7.170819E+03	1.851027E-15	4.364330E-17
7.180764E+03	1.869110E-15	4.408841E-17
7.190710E+03	1.887382E-15	4.453768E-17
7.200656E+03	1.905715E-15	4.498813E-17
7.210601E+03	1.924034E-15	4.543800E-17
7.220547E+03	1.942199E-15	4.588399E-17
7.230493E+03	1.960168E-15	4.632512E-17
7.240438E+03	1.977789E-15	4.675783E-17
7.250384E+03	1.995037E-15	4.718153E-17
7.260330E+03	2.011820E-15	4.759406E-17
7.270275E+03	2.028078E-15	4.799401E-17
7.280221E+03	2.043710E-15	4.837902E-17
7.290167E+03	2.058720E-15	4.874919E-17
7.300112E+03	2.073046E-15	4.910308E-17
7.310058E+03	2.086661E-15	4.944007E-17
7.320004E+03	2.099522E-15	4.975917E-17
7.329949E+03	2.111623E-15	5.006027E-17
7.339895E+03	2.123000E-15	5.034423E-17
7.349840E+03	2.133651E-15	5.061107E-17
7.359786E+03	2.143622E-15	5.086191E-17
7.369732E+03	2.152980E-15	5.109834E-17
7.379677E+03	2.161813E-15	5.132255E-17
7.389623E+03	2.170234E-15	5.153723E-17
7.399569E+03	2.178380E-15	5.174568E-17
7.409514E+03	2.186403E-15	5.195159E-17
7.419460E+03	2.194470E-15	5.215895E-17
7.429406E+03	2.202756E-15	5.237204E-17
7.439351E+03	2.211445E-15	5.259528E-17
7.449297E+03	2.220721E-15	5.283311E-17
7.459243E+03	2.230761E-15	5.308984E-17
7.469188E+03	2.241706E-15	5.336891E-17
7.479134E+03	2.253761E-15	5.367531E-17
7.489080E+03	2.266994E-15	5.401076E-17
7.499025E+03	2.281555E-15	5.437897E-17
7.508971E+03	2.297471E-15	5.478071E-17
7.518917E+03	2.314758E-15	5.521646E-17
7.528862E+03	2.333410E-15	5.568622E-17
7.538808E+03	2.353312E-15	5.618743E-17
7.548754E+03	2.374357E-15	5.671765E-17
7.558699E+03	2.396353E-15	5.727245E-17
7.568645E+03	2.419054E-15	5.784612E-17
7.578591E+03	2.442164E-15	5.843168E-17
7.588536E+03	2.465337E-15	5.902105E-17
7.598482E+03	2.488223E-15	5.960594E-17
7.608428E+03	2.510370E-15	6.017565E-17
7.618373E+03	2.531370E-15	6.072050E-17
7.628319E+03	2.550738E-15	6.122892E-17
7.638265E+03	2.568089E-15	6.169173E-17
7.648210E+03	2.582920E-15	6.209686E-17
7.658156E+03	2.594856E-15	6.243529E-17
7.668101E+03	2.603568E-15	6.269901E-17
7.678047E+03	2.608678E-15	6.287888E-17
7.687993E+03	2.610013E-15	6.297055E-17
7.697938E+03	2.607373E-15	6.296907E-17
7.707884E+03	2.600677E-15	6.287227E-17
7.717830E+03	2.589928E-15	6.267999E-17
