#wls	flux	fluxerr
1.591305E+03	1.579078E-16	8.273702E-18
1.631088E+03	1.485764E-16	7.750995E-18
1.670870E+03	1.393934E-16	7.239683E-18
1.710653E+03	1.304447E-16	6.744208E-18
1.750436E+03	1.218317E-16	6.269735E-18
1.790218E+03	1.135589E-16	5.816354E-18
1.830001E+03	1.055757E-16	5.381336E-18
1.869784E+03	9.780010E-17	4.960412E-18
1.909566E+03	9.021726E-17	4.552764E-18
1.949349E+03	8.282212E-17	4.158085E-18
1.989131E+03	7.573212E-17	3.782185E-18
2.028914E+03	6.926468E-17	3.440675E-18
2.068697E+03	6.398417E-17	3.161015E-18
2.108479E+03	6.051610E-17	2.973035E-18
2.148262E+03	5.935760E-17	2.899564E-18
2.188045E+03	6.064491E-17	2.945304E-18
2.227827E+03	6.418377E-17	3.098787E-18
2.267610E+03	6.952561E-17	3.336508E-18
2.307392E+03	7.620417E-17	3.634592E-18
2.347175E+03	8.385271E-17	3.974396E-18
2.386958E+03	9.223780E-17	4.343963E-18
2.426740E+03	1.012308E-16	4.736504E-18
2.466523E+03	1.107776E-16	5.148831E-18
2.506306E+03	1.207808E-16	5.575816E-18
2.546088E+03	1.311758E-16	6.013942E-18
2.585871E+03	1.418467E-16	6.457425E-18
2.625653E+03	1.526338E-16	6.898653E-18
2.665436E+03	1.635060E-16	7.335978E-18
2.705219E+03	1.744077E-16	7.766722E-18
2.745001E+03	1.853877E-16	8.192867E-18
2.784784E+03	1.964600E-16	8.614836E-18
2.824567E+03	2.077083E-16	9.036042E-18
2.864349E+03	2.192333E-16	9.460530E-18
2.904132E+03	2.310903E-16	9.890260E-18
2.943914E+03	2.434749E-16	1.033306E-17
2.983697E+03	2.565394E-16	1.079464E-17
2.993643E+03	2.599079E-16	1.091270E-17
3.003588E+03	2.633756E-16	1.103425E-17
3.013534E+03	2.668772E-16	1.115651E-17
3.023480E+03	2.704526E-16	1.128115E-17
3.033425E+03	2.741210E-16	1.140894E-17
3.043371E+03	2.778932E-16	1.154030E-17
3.053317E+03	2.817822E-16	1.167573E-17
3.063262E+03	2.858210E-16	1.181658E-17
3.073208E+03	2.899367E-16	1.195977E-17
3.083154E+03	2.941624E-16	1.210666E-17
3.093099E+03	2.985329E-16	1.225863E-17
3.103045E+03	3.030105E-16	1.241410E-17
3.112991E+03	3.075938E-16	1.257298E-17
3.122936E+03	3.123185E-16	1.273668E-17
3.132882E+03	3.171464E-16	1.290363E-17
3.142828E+03	3.221139E-16	1.307525E-17
3.152773E+03	3.271822E-16	1.324993E-17
3.162719E+03	3.324265E-16	1.343068E-17
3.172665E+03	3.377690E-16	1.361432E-17
3.182610E+03	3.432076E-16	1.380071E-17
3.192556E+03	3.488189E-16	1.399292E-17
3.202502E+03	3.545622E-16	1.418924E-17
3.212447E+03	3.604352E-16	1.438955E-17
3.222393E+03	3.664352E-16	1.459371E-17
3.232339E+03	3.725999E-16	1.480316E-17
3.242284E+03	3.788855E-16	1.501611E-17
3.252230E+03	3.853289E-16	1.523400E-17
3.262175E+03	3.918846E-16	1.545497E-17
3.272121E+03	3.986310E-16	1.568208E-17
3.282067E+03	4.054786E-16	1.591174E-17
3.292012E+03	4.124635E-16	1.614534E-17
3.301958E+03	4.195779E-16	1.638254E-17
3.311904E+03	4.268582E-16	1.662469E-17
3.321849E+03	4.342523E-16	1.686973E-17
3.331795E+03	4.417955E-16	1.711899E-17
3.341741E+03	4.494337E-16	1.737033E-17
3.351686E+03	4.572008E-16	1.762501E-17
3.361632E+03	4.650865E-16	1.788261E-17
3.371578E+03	4.731248E-16	1.814439E-17
3.381523E+03	4.812593E-16	1.840813E-17
3.391469E+03	4.894787E-16	1.867338E-17
3.401415E+03	4.978171E-16	1.894141E-17
3.411360E+03	5.062175E-16	1.921000E-17
3.421306E+03	5.147602E-16	1.948218E-17
3.431252E+03	5.233906E-16	1.975583E-17
3.441197E+03	5.320978E-16	2.003053E-17
3.451143E+03	5.408734E-16	2.030591E-17
3.461089E+03	5.498003E-16	2.058507E-17
3.471034E+03	5.587756E-16	2.086412E-17
3.480980E+03	5.678367E-16	2.114441E-17
3.490926E+03	5.769739E-16	2.142558E-17
3.500871E+03	5.861801E-16	2.170732E-17
3.510817E+03	5.954960E-16	2.199112E-17
3.520763E+03	6.049168E-16	2.227675E-17
3.530708E+03	6.143955E-16	2.256247E-17
3.540654E+03	6.240252E-16	2.285165E-17
3.550600E+03	6.337167E-16	2.314100E-17
3.560545E+03	6.435693E-16	2.343410E-17
3.570491E+03	6.535920E-16	2.373122E-17
3.580436E+03	6.637522E-16	2.403112E-17
3.590382E+03	6.741126E-16	2.433603E-17
3.600328E+03	6.846934E-16	2.464660E-17
3.610273E+03	6.954732E-16	2.496199E-17
3.620219E+03	7.066189E-16	2.528811E-17
3.630165E+03	7.180268E-16	2.562113E-17
3.640110E+03	7.298258E-16	2.596555E-17
3.650056E+03	7.420561E-16	2.632268E-17
3.660002E+03	7.547171E-16	2.669235E-17
3.669947E+03	7.679454E-16	2.707924E-17
3.679893E+03	7.817017E-16	2.748178E-17
3.689839E+03	7.960872E-16	2.790334E-17
3.699784E+03	8.112067E-16	2.834738E-17
3.709730E+03	8.270816E-16	2.881442E-17
3.719676E+03	8.437834E-16	2.930668E-17
3.729621E+03	8.614320E-16	2.982806E-17
3.739567E+03	8.800617E-16	3.037942E-17
3.749513E+03	8.997942E-16	3.096464E-17
3.759458E+03	9.206594E-16	3.158438E-17
3.769404E+03	9.427639E-16	3.224192E-17
3.779350E+03	9.661530E-16	3.293840E-17
3.789295E+03	9.908488E-16	3.367416E-17
3.799241E+03	1.016797E-15	3.444693E-17
3.809187E+03	1.044044E-15	3.525786E-17
3.819132E+03	1.072411E-15	3.610050E-17
3.829078E+03	1.101815E-15	3.697172E-17
3.839024E+03	1.132082E-15	3.786535E-17
3.848969E+03	1.162943E-15	3.877217E-17
3.858915E+03	1.194226E-15	3.968620E-17
3.868861E+03	1.225519E-15	4.059367E-17
3.878806E+03	1.256512E-15	4.148438E-17
3.888752E+03	1.286815E-15	4.234558E-17
3.898698E+03	1.315968E-15	4.316239E-17
3.908643E+03	1.343597E-15	4.392294E-17
3.918589E+03	1.369241E-15	4.461275E-17
3.928534E+03	1.392562E-15	4.522146E-17
3.938480E+03	1.413168E-15	4.573715E-17
3.948426E+03	1.430781E-15	4.615173E-17
3.958371E+03	1.445208E-15	4.646001E-17
3.968317E+03	1.456351E-15	4.665986E-17
3.978263E+03	1.464223E-15	4.675280E-17
3.988208E+03	1.468914E-15	4.674276E-17
3.998154E+03	1.470712E-15	4.663991E-17
4.008100E+03	1.469858E-15	4.645284E-17
4.018045E+03	1.466845E-15	4.619796E-17
4.027991E+03	1.462083E-15	4.588885E-17
4.037937E+03	1.456007E-15	4.553968E-17
4.047882E+03	1.449140E-15	4.516717E-17
4.057828E+03	1.441910E-15	4.478495E-17
4.067774E+03	1.434764E-15	4.440696E-17
4.077719E+03	1.428117E-15	4.404595E-17
4.087665E+03	1.422306E-15	4.371215E-17
4.097611E+03	1.417665E-15	4.341551E-17
4.107556E+03	1.414476E-15	4.316431E-17
4.117502E+03	1.412942E-15	4.296421E-17
4.127448E+03	1.413279E-15	4.282127E-17
4.137393E+03	1.415576E-15	4.273758E-17
4.147339E+03	1.419872E-15	4.271366E-17
4.157285E+03	1.426214E-15	4.275028E-17
4.167230E+03	1.434523E-15	4.284448E-17
4.177176E+03	1.444673E-15	4.299188E-17
4.187122E+03	1.456566E-15	4.318897E-17
4.197067E+03	1.469973E-15	4.342844E-17
4.207013E+03	1.484734E-15	4.370517E-17
4.216959E+03	1.500608E-15	4.401161E-17
4.226904E+03	1.517336E-15	4.433990E-17
4.236850E+03	1.534712E-15	4.468382E-17
4.246796E+03	1.552467E-15	4.503534E-17
4.256741E+03	1.570366E-15	4.538757E-17
4.266687E+03	1.588119E-15	4.573217E-17
4.276632E+03	1.605543E-15	4.606398E-17
4.286578E+03	1.622412E-15	4.637667E-17
4.296524E+03	1.638557E-15	4.666563E-17
4.306469E+03	1.653817E-15	4.692655E-17
4.316415E+03	1.668137E-15	4.715817E-17
4.326361E+03	1.681397E-15	4.735750E-17
4.336306E+03	1.693699E-15	4.752771E-17
4.346252E+03	1.705166E-15	4.767263E-17
4.356198E+03	1.716036E-15	4.779913E-17
4.366143E+03	1.726738E-15	4.791936E-17
4.376089E+03	1.737659E-15	4.804409E-17
4.386035E+03	1.749244E-15	4.818558E-17
4.395980E+03	1.762065E-15	4.835932E-17
4.405926E+03	1.776809E-15	4.858373E-17
4.415872E+03	1.794234E-15	4.887890E-17
4.425817E+03	1.815048E-15	4.926319E-17
4.435763E+03	1.839935E-15	4.975416E-17
4.445709E+03	1.869303E-15	5.036155E-17
4.455654E+03	1.903511E-15	5.109368E-17
4.465600E+03	1.942666E-15	5.195202E-17
4.475546E+03	1.986743E-15	5.293442E-17
4.485491E+03	2.035419E-15	5.403091E-17
4.495437E+03	2.088199E-15	5.522707E-17
4.505383E+03	2.144382E-15	5.650326E-17
4.515328E+03	2.202930E-15	5.783126E-17
4.525274E+03	2.262667E-15	5.917967E-17
4.535220E+03	2.322099E-15	6.050926E-17
4.545165E+03	2.379559E-15	6.177688E-17
4.555111E+03	2.433303E-15	6.293803E-17
4.565057E+03	2.481594E-15	6.394908E-17
4.575002E+03	2.522728E-15	6.476783E-17
4.584948E+03	2.555250E-15	6.535919E-17
4.594894E+03	2.578009E-15	6.569625E-17
4.604839E+03	2.590261E-15	6.576299E-17
4.614785E+03	2.591757E-15	6.555605E-17
4.624730E+03	2.582730E-15	6.508435E-17
4.634676E+03	2.563811E-15	6.436669E-17
4.644622E+03	2.536203E-15	6.343594E-17
4.654567E+03	2.501335E-15	6.233013E-17
4.664513E+03	2.460855E-15	6.109214E-17
4.674459E+03	2.416599E-15	5.976893E-17
4.684404E+03	2.370348E-15	5.840543E-17
4.694350E+03	2.323812E-15	5.704408E-17
4.704296E+03	2.278526E-15	5.572249E-17
4.714241E+03	2.235785E-15	5.447184E-17
4.724187E+03	2.196657E-15	5.331729E-17
4.734133E+03	2.161934E-15	5.227701E-17
4.744078E+03	2.132194E-15	5.136367E-17
4.754024E+03	2.107743E-15	5.058325E-17
4.763970E+03	2.088709E-15	4.993733E-17
4.773915E+03	2.075074E-15	4.942402E-17
4.783861E+03	2.066625E-15	4.903679E-17
4.793807E+03	2.063058E-15	4.876705E-17
4.803752E+03	2.063957E-15	4.860373E-17
4.813698E+03	2.068774E-15	4.853277E-17
4.823644E+03	2.076931E-15	4.853961E-17
4.833589E+03	2.087805E-15	4.860893E-17
4.843535E+03	2.100643E-15	4.872250E-17
4.853481E+03	2.114672E-15	4.886202E-17
4.863426E+03	2.129040E-15	4.900760E-17
4.873372E+03	2.142893E-15	4.913956E-17
4.883318E+03	2.155228E-15	4.923518E-17
4.893263E+03	2.165142E-15	4.927436E-17
4.903209E+03	2.171776E-15	4.923824E-17
4.913155E+03	2.174345E-15	4.911002E-17
4.923100E+03	2.172261E-15	4.887755E-17
4.933046E+03	2.165221E-15	4.853521E-17
4.942991E+03	2.153134E-15	4.808227E-17
4.952937E+03	2.136225E-15	4.752505E-17
4.962883E+03	2.114955E-15	4.687498E-17
4.972828E+03	2.090031E-15	4.614877E-17
4.982774E+03	2.062339E-15	4.536684E-17
4.992720E+03	2.032901E-15	4.455222E-17
5.002665E+03	2.002779E-15	4.372858E-17
5.012611E+03	1.973039E-15	4.291922E-17
5.022557E+03	1.944679E-15	4.214571E-17
5.032502E+03	1.918600E-15	4.142712E-17
5.042448E+03	1.895611E-15	4.078031E-17
5.052394E+03	1.876384E-15	4.021898E-17
5.062339E+03	1.861452E-15	3.975360E-17
5.072285E+03	1.851289E-15	3.939326E-17
5.082231E+03	1.846261E-15	3.914464E-17
5.092176E+03	1.846652E-15	3.901262E-17
5.102122E+03	1.852673E-15	3.900045E-17
5.112068E+03	1.864458E-15	3.910970E-17
5.122013E+03	1.882066E-15	3.934041E-17
5.131959E+03	1.905411E-15	3.968960E-17
5.141905E+03	1.934422E-15	4.015464E-17
5.151850E+03	1.968803E-15	4.072835E-17
5.161796E+03	2.008265E-15	4.140375E-17
5.171742E+03	2.052377E-15	4.217108E-17
5.181687E+03	2.100570E-15	4.301794E-17
5.191633E+03	2.152196E-15	4.393043E-17
5.201579E+03	2.206531E-15	4.489340E-17
5.211524E+03	2.262722E-15	4.588922E-17
5.221470E+03	2.319903E-15	4.690030E-17
5.231416E+03	2.377168E-15	4.790846E-17
5.241361E+03	2.433586E-15	4.889523E-17
5.251307E+03	2.488420E-15	4.984631E-17
5.261253E+03	2.540936E-15	5.074763E-17
5.271198E+03	2.590651E-15	5.159024E-17
5.281144E+03	2.637316E-15	5.236998E-17
5.291089E+03	2.681013E-15	5.308928E-17
5.301035E+03	2.722166E-15	5.375726E-17
5.310981E+03	2.761482E-15	5.438857E-17
5.320926E+03	2.800118E-15	5.500645E-17
5.330872E+03	2.839480E-15	5.563887E-17
5.340818E+03	2.881284E-15	5.631953E-17
5.350763E+03	2.927512E-15	5.708701E-17
5.360709E+03	2.980305E-15	5.798271E-17
5.370655E+03	3.041959E-15	5.905066E-17
5.380600E+03	3.114938E-15	6.033786E-17
5.390546E+03	3.201601E-15	6.188899E-17
5.400492E+03	3.304194E-15	6.374633E-17
5.410437E+03	3.424552E-15	6.594402E-17
5.420383E+03	3.563598E-15	6.849870E-17
5.430329E+03	3.720632E-15	7.139584E-17
5.440274E+03	3.893073E-15	7.458528E-17
5.450220E+03	4.076756E-15	7.798702E-17
5.460166E+03	4.266067E-15	8.149410E-17
5.470111E+03	4.454620E-15	8.498527E-17
5.480057E+03	4.635430E-15	8.832847E-17
5.490003E+03	4.801249E-15	9.138716E-17
5.499948E+03	4.945260E-15	9.403343E-17
5.509894E+03	5.061650E-15	9.615870E-17
5.519840E+03	5.145843E-15	9.767801E-17
5.529785E+03	5.194919E-15	9.853772E-17
5.539731E+03	5.207751E-15	9.871802E-17
5.549677E+03	5.185146E-15	9.823536E-17
5.559622E+03	5.129521E-15	9.713630E-17
5.569568E+03	5.044724E-15	9.549413E-17
5.579514E+03	4.935717E-15	9.340275E-17
5.589459E+03	4.808154E-15	9.096888E-17
5.599405E+03	4.667907E-15	8.830306E-17
5.609351E+03	4.520803E-15	8.551481E-17
5.619296E+03	4.372282E-15	8.270629E-17
5.629242E+03	4.227050E-15	7.996568E-17
5.639187E+03	4.089245E-15	7.737061E-17
5.649133E+03	3.962014E-15	7.497994E-17
5.659079E+03	3.847840E-15	7.284022E-17
5.669024E+03	3.748340E-15	7.098169E-17
5.678970E+03	3.664604E-15	6.942480E-17
5.688916E+03	3.597064E-15	6.817768E-17
5.698861E+03	3.545746E-15	6.724093E-17
5.708807E+03	3.510184E-15	6.660587E-17
5.718753E+03	3.489399E-15	6.625423E-17
5.728698E+03	3.482070E-15	6.616127E-17
5.738644E+03	3.486585E-15	6.629675E-17
5.748590E+03	3.500889E-15	6.662193E-17
5.758535E+03	3.522791E-15	6.709549E-17
5.768481E+03	3.549771E-15	6.766968E-17
5.778427E+03	3.579219E-15	6.829495E-17
5.788372E+03	3.608524E-15	6.892152E-17
5.798318E+03	3.634967E-15	6.949737E-17
5.808264E+03	3.656189E-15	6.997712E-17
5.818209E+03	3.669991E-15	7.031830E-17
5.828155E+03	3.674562E-15	7.048562E-17
5.838101E+03	3.668657E-15	7.045447E-17
5.848046E+03	3.651501E-15	7.020917E-17
5.857992E+03	3.622801E-15	6.974315E-17
5.867938E+03	3.582830E-15	6.906075E-17
5.877883E+03	3.532311E-15	6.817492E-17
5.887829E+03	3.472295E-15	6.710503E-17
5.897775E+03	3.404201E-15	6.587761E-17
5.907720E+03	3.329563E-15	6.452162E-17
5.917666E+03	3.250060E-15	6.306891E-17
5.927612E+03	3.167285E-15	6.154988E-17
5.937557E+03	3.082860E-15	5.999564E-17
5.947503E+03	2.998223E-15	5.843389E-17
5.957449E+03	2.914711E-15	5.689058E-17
5.967394E+03	2.833427E-15	5.538717E-17
5.977340E+03	2.755291E-15	5.394177E-17
5.987285E+03	2.681019E-15	5.256853E-17
5.997231E+03	2.611155E-15	5.127840E-17
6.007177E+03	2.545991E-15	5.007737E-17
6.017122E+03	2.485721E-15	4.896961E-17
6.027068E+03	2.430386E-15	4.795633E-17
6.037014E+03	2.379930E-15	4.703676E-17
6.046959E+03	2.334214E-15	4.620857E-17
6.056905E+03	2.293096E-15	4.546935E-17
6.066851E+03	2.256318E-15	4.481436E-17
6.076796E+03	2.223702E-15	4.424040E-17
6.086742E+03	2.195026E-15	4.374347E-17
6.096688E+03	2.170111E-15	4.332033E-17
6.106633E+03	2.148766E-15	4.296751E-17
6.116579E+03	2.130872E-15	4.268296E-17
6.126525E+03	2.116348E-15	4.246540E-17
6.136470E+03	2.105071E-15	4.231268E-17
6.146416E+03	2.097027E-15	4.222484E-17
6.156362E+03	2.092145E-15	4.220079E-17
6.166307E+03	2.090410E-15	4.224057E-17
6.176253E+03	2.091812E-15	4.234425E-17
6.186199E+03	2.096238E-15	4.250996E-17
6.196144E+03	2.103550E-15	4.273517E-17
6.206090E+03	2.113574E-15	4.301668E-17
6.216036E+03	2.126120E-15	4.335095E-17
6.225981E+03	2.140960E-15	4.373358E-17
6.235927E+03	2.157963E-15	4.416218E-17
6.245873E+03	2.176947E-15	4.463329E-17
6.255818E+03	2.197829E-15	4.514545E-17
6.265764E+03	2.220595E-15	4.569861E-17
6.275710E+03	2.245222E-15	4.629253E-17
6.285655E+03	2.271737E-15	4.692803E-17
6.295601E+03	2.300184E-15	4.760627E-17
6.305546E+03	2.330627E-15	4.832885E-17
6.315492E+03	2.363070E-15	4.909606E-17
6.325438E+03	2.397560E-15	4.990912E-17
6.335383E+03	2.434148E-15	5.076928E-17
6.345329E+03	2.472921E-15	5.167856E-17
6.355275E+03	2.514036E-15	5.264048E-17
6.365220E+03	2.557790E-15	5.366151E-17
6.375166E+03	2.604570E-15	5.475008E-17
6.385112E+03	2.654939E-15	5.591832E-17
6.395057E+03	2.709655E-15	5.718265E-17
6.405003E+03	2.769488E-15	5.855981E-17
6.414949E+03	2.835163E-15	6.006575E-17
6.424894E+03	2.906938E-15	6.170660E-17
6.434840E+03	2.984408E-15	6.347441E-17
6.444786E+03	3.066107E-15	6.533858E-17
6.454731E+03	3.149763E-15	6.725101E-17
6.464677E+03	3.232797E-15	6.915673E-17
6.474623E+03	3.312249E-15	7.099206E-17
6.484568E+03	3.385329E-15	7.269659E-17
6.494514E+03	3.449310E-15	7.421072E-17
6.504460E+03	3.501910E-15	7.548408E-17
6.514405E+03	3.541143E-15	7.647228E-17
6.524351E+03	3.565657E-15	7.714434E-17
6.534297E+03	3.574495E-15	7.747770E-17
6.544242E+03	3.567456E-15	7.746600E-17
6.554188E+03	3.544754E-15	7.711202E-17
6.564134E+03	3.507154E-15	7.643047E-17
6.574079E+03	3.455930E-15	7.544743E-17
6.584025E+03	3.392601E-15	7.419456E-17
6.593971E+03	3.319013E-15	7.271089E-17
6.603916E+03	3.237118E-15	7.103812E-17
6.613862E+03	3.148962E-15	6.922032E-17
6.623808E+03	3.056516E-15	6.730029E-17
6.633753E+03	2.961645E-15	6.531874E-17
6.643699E+03	2.866087E-15	6.331387E-17
6.653644E+03	2.771313E-15	6.131826E-17
6.663590E+03	2.678607E-15	5.936051E-17
6.673536E+03	2.589079E-15	5.746560E-17
6.683481E+03	2.503526E-15	5.565164E-17
6.693427E+03	2.422561E-15	5.393282E-17
6.703373E+03	2.346602E-15	5.231901E-17
6.713318E+03	2.275930E-15	5.081702E-17
6.723264E+03	2.210647E-15	4.942981E-17
6.733210E+03	2.150712E-15	4.815699E-17
6.743155E+03	2.096036E-15	4.699718E-17
6.753101E+03	2.046407E-15	4.594618E-17
6.763047E+03	2.001627E-15	4.500007E-17
6.772992E+03	1.961389E-15	4.415241E-17
6.782938E+03	1.925363E-15	4.339622E-17
6.792884E+03	1.893274E-15	4.272570E-17
6.802829E+03	1.864774E-15	4.213338E-17
6.812775E+03	1.839545E-15	4.161238E-17
6.822721E+03	1.817277E-15	4.115601E-17
6.832666E+03	1.797679E-15	4.075790E-17
6.842612E+03	1.780474E-15	4.041202E-17
6.852558E+03	1.765429E-15	4.011327E-17
6.862503E+03	1.752293E-15	3.985613E-17
6.872449E+03	1.740859E-15	3.963602E-17
6.882395E+03	1.730943E-15	3.944890E-17
6.892340E+03	1.722385E-15	3.929124E-17
6.902286E+03	1.715049E-15	3.916003E-17
6.912232E+03	1.708820E-15	3.905276E-17
6.922177E+03	1.703608E-15	3.896741E-17
6.932123E+03	1.699342E-15	3.890245E-17
6.942069E+03	1.695993E-15	3.885727E-17
6.952014E+03	1.693471E-15	3.882988E-17
6.961960E+03	1.691823E-15	3.882141E-17
6.971906E+03	1.691015E-15	3.883110E-17
6.981851E+03	1.691085E-15	3.885995E-17
6.991797E+03	1.692065E-15	3.890867E-17
7.001742E+03	1.693976E-15	3.897781E-17
7.011688E+03	1.696861E-15	3.906843E-17
7.021634E+03	1.700768E-15	3.918168E-17
7.031579E+03	1.705744E-15	3.931868E-17
7.041525E+03	1.711828E-15	3.948036E-17
7.051471E+03	1.719051E-15	3.966751E-17
7.061416E+03	1.727434E-15	3.988064E-17
7.071362E+03	1.736943E-15	4.011899E-17
7.081308E+03	1.747630E-15	4.038384E-17
7.091253E+03	1.759412E-15	4.067326E-17
7.101199E+03	1.772268E-15	4.098684E-17
7.111145E+03	1.786123E-15	4.132285E-17
7.121090E+03	1.800952E-15	4.168075E-17
7.131036E+03	1.816609E-15	4.205716E-17
7.140982E+03	1.833021E-15	4.245046E-17
7.150927E+03	1.850113E-15	4.285886E-17
7.160873E+03	1.867710E-15	4.327838E-17
7.170819E+03	1.885768E-15	4.370800E-17
7.180764E+03	1.904110E-15	4.414360E-17
7.190710E+03	1.922645E-15	4.458313E-17
7.200656E+03	1.941244E-15	4.502359E-17
7.210601E+03	1.959828E-15	4.546313E-17
7.220547E+03	1.978251E-15	4.589844E-17
7.230493E+03	1.996473E-15	4.632855E-17
7.240438E+03	2.014337E-15	4.674985E-17
7.250384E+03	2.031814E-15	4.716172E-17
7.260330E+03	2.048812E-15	4.756199E-17
7.270275E+03	2.065266E-15	4.794922E-17
7.280221E+03	2.081070E-15	4.832098E-17
7.290167E+03	2.096226E-15	4.867730E-17
7.300112E+03	2.110666E-15	4.901668E-17
7.310058E+03	2.124359E-15	4.933843E-17
7.320004E+03	2.137254E-15	4.964141E-17
7.329949E+03	2.149342E-15	4.992543E-17
7.339895E+03	2.160655E-15	5.019129E-17
7.349840E+03	2.171187E-15	5.043892E-17
7.359786E+03	2.180982E-15	5.066937E-17
7.369732E+03	2.190106E-15	5.088426E-17
7.379677E+03	2.198650E-15	5.108572E-17
7.389623E+03	2.206732E-15	5.127657E-17
7.399569E+03	2.214493E-15	5.146016E-17
7.409514E+03	2.222095E-15	5.164033E-17
7.419460E+03	2.229717E-15	5.182129E-17
7.429406E+03	2.237553E-15	5.200762E-17
7.439351E+03	2.245801E-15	5.220401E-17
7.449297E+03	2.254665E-15	5.241527E-17
7.459243E+03	2.264343E-15	5.264611E-17
7.469188E+03	2.274995E-15	5.290031E-17
7.479134E+03	2.286846E-15	5.318320E-17
7.489080E+03	2.299982E-15	5.349691E-17
7.499025E+03	2.314570E-15	5.384542E-17
7.508971E+03	2.330651E-15	5.422981E-17
7.518917E+03	2.348247E-15	5.465069E-17
7.528862E+03	2.367361E-15	5.510827E-17
7.538808E+03	2.387878E-15	5.560004E-17
7.548754E+03	2.409686E-15	5.612352E-17
7.558699E+03	2.432585E-15	5.667421E-17
7.568645E+03	2.456315E-15	5.724620E-17
7.578591E+03	2.480558E-15	5.783226E-17
7.588536E+03	2.504947E-15	5.842396E-17
7.598482E+03	2.529100E-15	5.901258E-17
7.608428E+03	2.552533E-15	5.958697E-17
7.618373E+03	2.574804E-15	6.013690E-17
7.628319E+03	2.595386E-15	6.065024E-17
7.638265E+03	2.613859E-15	6.111723E-17
7.648210E+03	2.629681E-15	6.152526E-17
7.658156E+03	2.642441E-15	6.186476E-17
7.668101E+03	2.651777E-15	6.212725E-17
7.678047E+03	2.657284E-15	6.230322E-17
7.687993E+03	2.658767E-15	6.238803E-17
7.697938E+03	2.656016E-15	6.237659E-17
7.707884E+03	2.648940E-15	6.226667E-17
7.717830E+03	2.637548E-15	6.205825E-17
