#wls	flux	fluxerr
1.591305E+03	9.259301E-17	8.455044E-18
1.631088E+03	9.104121E-17	8.298801E-18
1.670870E+03	8.923956E-17	8.119934E-18
1.710653E+03	8.718603E-17	7.918396E-18
1.750436E+03	8.491604E-17	7.697543E-18
1.790218E+03	8.234628E-17	7.449974E-18
1.830001E+03	7.944118E-17	7.172665E-18
1.869784E+03	7.612776E-17	6.859257E-18
1.909566E+03	7.234846E-17	6.504845E-18
1.949349E+03	6.808959E-17	6.108516E-18
1.989131E+03	6.349850E-17	5.683803E-18
2.028914E+03	5.887798E-17	5.258009E-18
2.068697E+03	5.476821E-17	4.879347E-18
2.108479E+03	5.179621E-17	4.603275E-18
2.148262E+03	5.044728E-17	4.472114E-18
2.188045E+03	5.086166E-17	4.497192E-18
2.227827E+03	5.279422E-17	4.655668E-18
2.267610E+03	5.577211E-17	4.904848E-18
2.307392E+03	5.934453E-17	5.204385E-18
2.347175E+03	6.312550E-17	5.520018E-18
2.386958E+03	6.691615E-17	5.834173E-18
2.426740E+03	7.061864E-17	6.138264E-18
2.466523E+03	7.421404E-17	6.430642E-18
2.506306E+03	7.773921E-17	6.714503E-18
2.546088E+03	8.125168E-17	6.994783E-18
2.585871E+03	8.480193E-17	7.275747E-18
2.625653E+03	8.846566E-17	7.563755E-18
2.665436E+03	9.229308E-17	7.862901E-18
2.705219E+03	9.634688E-17	8.178272E-18
2.745001E+03	1.007008E-16	8.515802E-18
2.784784E+03	1.053982E-16	8.878748E-18
2.824567E+03	1.105109E-16	9.272704E-18
2.864349E+03	1.161144E-16	9.703448E-18
2.904132E+03	1.222744E-16	1.017581E-17
2.943914E+03	1.290793E-16	1.069640E-17
2.983697E+03	1.366610E-16	1.127524E-17
2.993643E+03	1.386844E-16	1.142949E-17
3.003588E+03	1.407701E-16	1.158842E-17
3.013534E+03	1.429029E-16	1.175078E-17
3.023480E+03	1.451029E-16	1.191819E-17
3.033425E+03	1.473811E-16	1.209154E-17
3.043371E+03	1.497438E-16	1.227132E-17
3.053317E+03	1.521988E-16	1.245813E-17
3.063262E+03	1.547284E-16	1.265051E-17
3.073208E+03	1.573668E-16	1.285122E-17
3.083154E+03	1.600970E-16	1.305884E-17
3.093099E+03	1.629194E-16	1.327337E-17
3.103045E+03	1.658344E-16	1.349482E-17
3.112991E+03	1.688431E-16	1.372323E-17
3.122936E+03	1.719463E-16	1.395865E-17
3.132882E+03	1.751636E-16	1.420263E-17
3.142828E+03	1.784787E-16	1.445381E-17
3.152773E+03	1.819118E-16	1.471379E-17
3.162719E+03	1.854467E-16	1.498123E-17
3.172665E+03	1.891045E-16	1.525779E-17
3.182610E+03	1.928693E-16	1.554214E-17
3.192556E+03	1.967629E-16	1.583601E-17
3.202502E+03	2.007889E-16	1.613964E-17
3.212447E+03	2.049511E-16	1.645328E-17
3.222393E+03	2.092340E-16	1.677566E-17
3.232339E+03	2.136811E-16	1.711020E-17
3.242284E+03	2.182577E-16	1.745406E-17
3.252230E+03	2.230085E-16	1.781080E-17
3.262175E+03	2.279192E-16	1.817918E-17
3.272121E+03	2.329953E-16	1.855960E-17
3.282067E+03	2.382637E-16	1.895414E-17
3.292012E+03	2.437103E-16	1.936160E-17
3.301958E+03	2.493630E-16	1.978414E-17
3.311904E+03	2.552079E-16	2.022059E-17
3.321849E+03	2.612956E-16	2.067487E-17
3.331795E+03	2.675913E-16	2.114414E-17
3.341741E+03	2.741027E-16	2.162895E-17
3.351686E+03	2.808823E-16	2.213334E-17
3.361632E+03	2.879397E-16	2.265798E-17
3.371578E+03	2.952389E-16	2.319993E-17
3.381523E+03	3.028339E-16	2.376334E-17
3.391469E+03	3.107109E-16	2.434703E-17
3.401415E+03	3.188782E-16	2.495154E-17
3.411360E+03	3.273917E-16	2.558111E-17
3.421306E+03	3.362118E-16	2.623255E-17
3.431252E+03	3.453697E-16	2.690815E-17
3.441197E+03	3.548718E-16	2.760830E-17
3.451143E+03	3.647233E-16	2.833327E-17
3.459099E+03	4.614170E-16	3.580274E-17
3.460561E+03	4.591028E-16	3.561545E-17
3.462024E+03	4.556532E-16	3.534019E-17
3.463486E+03	4.521350E-16	3.505971E-17
3.464948E+03	4.489438E-16	3.480469E-17
3.466410E+03	4.456392E-16	3.454099E-17
3.467872E+03	4.409742E-16	3.417198E-17
3.469334E+03	4.369869E-16	3.385563E-17
3.470796E+03	4.335582E-16	3.358267E-17
3.472258E+03	4.278795E-16	3.313558E-17
3.473720E+03	4.231475E-16	3.276198E-17
3.475182E+03	4.209471E-16	3.258449E-17
3.476644E+03	4.192763E-16	3.244807E-17
3.478106E+03	4.173282E-16	3.229024E-17
3.479568E+03	4.142128E-16	3.204217E-17
3.481030E+03	4.109540E-16	3.178311E-17
3.482492E+03	4.074546E-16	3.150556E-17
3.483954E+03	4.050161E-16	3.131013E-17
3.485416E+03	4.015739E-16	3.103721E-17
3.486878E+03	3.983026E-16	3.077761E-17
3.488340E+03	3.973426E-16	3.069667E-17
3.489802E+03	3.959479E-16	3.058219E-17
3.491264E+03	3.932948E-16	3.037057E-17
3.492726E+03	3.907829E-16	3.016994E-17
3.494188E+03	3.891987E-16	3.004101E-17
3.495650E+03	3.869396E-16	2.986003E-17
3.497112E+03	3.874140E-16	2.989004E-17
3.498574E+03	3.900614E-16	3.008763E-17
3.500036E+03	3.904237E-16	3.010891E-17
3.501498E+03	3.893994E-16	3.002325E-17
3.502960E+03	3.893341E-16	3.001156E-17
3.504422E+03	3.905582E-16	3.009923E-17
3.505884E+03	3.933272E-16	3.030590E-17
3.507346E+03	3.967495E-16	3.056279E-17
3.508808E+03	3.984624E-16	3.068791E-17
3.510270E+03	3.986227E-16	3.069341E-17
3.511732E+03	3.992180E-16	3.073240E-17
3.513194E+03	3.997159E-16	3.076386E-17
3.514656E+03	4.023604E-16	3.096048E-17
3.516118E+03	4.050431E-16	3.115994E-17
3.517580E+03	4.059921E-16	3.122596E-17
3.519042E+03	4.081803E-16	3.138723E-17
3.520504E+03	4.127574E-16	3.173208E-17
3.521966E+03	4.165545E-16	3.201682E-17
3.523428E+03	4.205179E-16	3.231419E-17
3.524890E+03	4.246177E-16	3.262191E-17
3.526352E+03	4.288388E-16	3.293879E-17
3.527814E+03	4.331738E-16	3.326427E-17
3.529276E+03	4.376001E-16	3.359662E-17
3.530738E+03	4.420954E-16	3.393409E-17
3.532200E+03	4.476746E-16	3.435459E-17
3.533662E+03	4.528118E-16	3.474098E-17
3.535124E+03	4.562729E-16	3.499861E-17
3.536586E+03	4.600058E-16	3.527697E-17
3.538048E+03	4.631903E-16	3.551315E-17
3.539510E+03	4.670078E-16	3.579773E-17
3.540972E+03	4.721059E-16	3.618032E-17
3.542434E+03	4.776946E-16	3.660031E-17
3.543896E+03	4.824494E-16	3.695623E-17
3.545358E+03	4.863842E-16	3.724918E-17
3.546820E+03	4.902527E-16	3.753690E-17
3.548282E+03	4.936174E-16	3.778592E-17
3.549744E+03	4.968701E-16	3.802626E-17
3.551206E+03	5.011179E-16	3.834261E-17
3.552668E+03	5.043423E-16	3.858052E-17
3.554130E+03	5.081702E-16	3.886446E-17
3.555592E+03	5.117357E-16	3.912821E-17
3.557054E+03	5.142915E-16	3.931464E-17
3.558516E+03	5.165618E-16	3.947916E-17
3.559978E+03	5.169546E-16	3.950013E-17
3.561440E+03	5.156279E-16	3.938973E-17
3.562902E+03	5.170158E-16	3.948670E-17
3.564364E+03	5.178162E-16	3.953875E-17
3.565826E+03	5.167076E-16	3.944503E-17
3.567288E+03	5.190623E-16	3.961568E-17
3.568750E+03	5.223837E-16	3.986000E-17
3.570212E+03	5.253286E-16	4.007547E-17
3.571674E+03	5.270286E-16	4.019589E-17
3.573136E+03	5.307146E-16	4.046769E-17
3.574598E+03	5.339564E-16	4.070548E-17
3.576060E+03	5.365191E-16	4.089139E-17
3.577522E+03	5.376014E-16	4.096440E-17
3.578984E+03	5.362137E-16	4.084921E-17
3.580446E+03	5.373039E-16	4.092278E-17
3.581908E+03	5.391502E-16	4.105389E-17
3.583370E+03	5.418285E-16	4.124826E-17
3.584832E+03	5.397903E-16	4.108355E-17
3.586294E+03	5.359062E-16	4.077845E-17
3.587756E+03	5.347054E-16	4.067762E-17
3.589219E+03	5.343439E-16	4.064066E-17
3.590681E+03	5.326885E-16	4.050532E-17
3.592143E+03	5.297845E-16	4.027512E-17
3.593605E+03	5.271747E-16	4.006736E-17
3.595067E+03	5.250709E-16	3.989815E-17
3.596529E+03	5.232466E-16	3.975024E-17
3.597991E+03	5.230644E-16	3.972711E-17
3.599453E+03	5.238130E-16	3.977465E-17
3.600915E+03	5.240473E-16	3.978312E-17
3.602377E+03	5.230697E-16	3.969960E-17
3.603839E+03	5.219326E-16	3.960401E-17
3.605301E+03	5.214243E-16	3.955615E-17
3.606763E+03	5.208926E-16	3.950653E-17
3.608225E+03	5.185122E-16	3.931675E-17
3.609687E+03	5.171921E-16	3.920742E-17
3.611149E+03	5.170006E-16	3.918367E-17
3.612611E+03	5.136251E-16	3.891866E-17
3.614073E+03	5.096120E-16	3.860547E-17
3.615535E+03	5.065761E-16	3.836643E-17
3.616997E+03	5.055182E-16	3.827726E-17
3.618459E+03	5.053858E-16	3.825819E-17
3.619921E+03	5.048054E-16	3.820521E-17
3.621383E+03	5.028593E-16	3.804891E-17
3.622845E+03	5.000474E-16	3.782718E-17
3.624307E+03	4.979712E-16	3.766118E-17
3.625769E+03	4.988088E-16	3.771558E-17
3.627231E+03	5.014759E-16	3.790823E-17
3.628693E+03	5.045387E-16	3.813069E-17
3.630155E+03	5.040109E-16	3.808174E-17
3.631617E+03	5.044394E-16	3.810504E-17
3.633079E+03	5.060838E-16	3.822015E-17
3.634541E+03	5.067866E-16	3.826410E-17
3.636003E+03	5.086441E-16	3.839518E-17
3.637465E+03	5.089674E-16	3.841041E-17
3.638927E+03	5.119358E-16	3.862518E-17
3.640389E+03	5.146310E-16	3.881924E-17
3.641851E+03	5.186423E-16	3.911245E-17
3.643313E+03	5.224873E-16	3.939298E-17
3.644775E+03	5.254211E-16	3.960467E-17
3.646237E+03	5.309571E-16	4.001235E-17
3.647699E+03	5.372320E-16	4.047549E-17
3.649161E+03	5.419571E-16	4.082167E-17
3.650623E+03	5.460972E-16	4.112362E-17
3.652085E+03	5.524305E-16	4.159054E-17
3.653547E+03	5.605162E-16	4.218911E-17
3.655009E+03	5.682460E-16	4.276061E-17
3.656471E+03	5.760011E-16	4.333372E-17
3.657933E+03	5.856469E-16	4.404875E-17
3.659395E+03	5.955314E-16	4.478137E-17
3.660857E+03	6.037360E-16	4.538734E-17
3.662319E+03	6.132296E-16	4.608988E-17
3.663781E+03	6.232674E-16	4.683297E-17
3.665243E+03	6.338489E-16	4.761653E-17
3.666705E+03	6.434961E-16	4.832953E-17
3.668167E+03	6.548688E-16	4.917172E-17
3.669629E+03	6.669991E-16	5.007037E-17
3.671091E+03	6.790492E-16	5.096255E-17
3.672553E+03	6.942367E-16	5.208969E-17
3.674015E+03	7.093298E-16	5.320918E-17
3.675477E+03	7.227034E-16	5.419916E-17
3.676939E+03	7.359355E-16	5.517804E-17
3.678401E+03	7.487524E-16	5.612530E-17
3.679863E+03	7.624045E-16	5.713468E-17
3.681325E+03	7.769001E-16	5.820674E-17
3.682787E+03	7.919725E-16	5.932147E-17
3.684249E+03	8.059040E-16	6.035021E-17
3.685711E+03	8.216722E-16	6.151593E-17
3.687173E+03	8.372927E-16	6.267000E-17
3.688635E+03	8.505499E-16	6.364666E-17
3.690097E+03	8.635818E-16	6.460596E-17
3.691559E+03	8.771524E-16	6.560507E-17
3.693021E+03	8.913380E-16	6.664964E-17
3.694483E+03	9.054516E-16	6.768832E-17
3.695945E+03	9.217097E-16	6.888673E-17
3.697407E+03	9.361374E-16	6.994778E-17
3.698869E+03	9.473593E-16	7.076880E-17
3.700331E+03	9.588900E-16	7.161247E-17
3.701793E+03	9.709597E-16	7.249594E-17
3.703255E+03	9.824206E-16	7.333351E-17
3.704717E+03	9.924321E-16	7.406248E-17
3.706179E+03	9.995393E-16	7.457439E-17
3.707641E+03	1.004506E-15	7.492639E-17
3.709103E+03	1.010393E-15	7.534680E-17
3.710565E+03	1.017506E-15	7.585840E-17
3.712027E+03	1.023627E-15	7.629575E-17
3.713489E+03	1.030285E-15	7.677292E-17
3.714952E+03	1.034955E-15	7.710169E-17
3.716414E+03	1.037482E-15	7.727068E-17
3.717876E+03	1.041082E-15	7.751947E-17
3.719338E+03	1.043917E-15	7.771116E-17
3.720800E+03	1.043152E-15	7.763483E-17
3.722262E+03	1.042540E-15	7.756991E-17
3.723724E+03	1.041008E-15	7.743660E-17
3.725186E+03	1.037790E-15	7.717787E-17
3.726648E+03	1.034034E-15	7.687932E-17
3.728110E+03	1.029511E-15	7.652384E-17
3.729572E+03	1.023453E-15	7.605445E-17
3.731034E+03	1.016703E-15	7.553386E-17
3.732496E+03	1.008110E-15	7.487666E-17
3.733958E+03	9.978264E-16	7.409424E-17
3.735420E+03	9.880771E-16	7.335184E-17
3.736882E+03	9.776345E-16	7.255834E-17
3.738344E+03	9.680331E-16	7.182764E-17
3.739806E+03	9.581989E-16	7.108002E-17
3.741268E+03	9.452141E-16	7.009910E-17
3.742730E+03	9.304589E-16	6.898740E-17
3.744192E+03	9.162372E-16	6.791579E-17
3.745654E+03	9.013202E-16	6.679317E-17
3.747116E+03	8.854770E-16	6.560249E-17
3.748578E+03	8.702440E-16	6.445759E-17
3.750040E+03	8.546988E-16	6.329014E-17
3.751502E+03	8.390723E-16	6.211724E-17
3.752964E+03	8.229032E-16	6.090476E-17
3.754426E+03	8.052684E-16	5.958443E-17
3.755888E+03	7.860138E-16	5.814493E-17
3.757350E+03	7.666224E-16	5.669604E-17
3.758812E+03	7.466409E-16	5.520423E-17
3.760274E+03	7.278609E-16	5.380199E-17
3.761736E+03	7.101607E-16	5.248024E-17
3.763198E+03	6.924548E-16	5.115873E-17
3.764660E+03	6.727273E-16	4.968856E-17
3.766122E+03	6.536404E-16	4.826644E-17
3.767584E+03	6.345479E-16	4.684461E-17
3.769046E+03	6.143175E-16	4.533952E-17
3.770508E+03	5.937190E-16	4.380804E-17
3.771970E+03	5.735608E-16	4.230980E-17
3.773432E+03	5.537052E-16	4.083463E-17
3.774894E+03	5.359389E-16	3.951426E-17
3.776356E+03	5.191922E-16	3.826971E-17
3.777818E+03	5.012687E-16	3.693906E-17
3.779280E+03	4.830624E-16	3.558827E-17
3.780742E+03	4.658374E-16	3.431042E-17
3.782204E+03	4.492316E-16	3.307882E-17
3.783666E+03	4.336310E-16	3.192185E-17
3.785128E+03	4.190823E-16	3.084289E-17
3.786590E+03	4.052312E-16	2.981579E-17
3.788052E+03	3.911365E-16	2.877131E-17
3.789514E+03	3.774929E-16	2.776053E-17
3.790976E+03	3.652343E-16	2.685209E-17
3.792438E+03	3.537052E-16	2.599773E-17
3.793900E+03	3.420568E-16	2.513504E-17
3.795362E+03	3.305205E-16	2.428104E-17
3.796824E+03	3.206720E-16	2.355142E-17
3.798286E+03	3.112453E-16	2.285315E-17
3.799748E+03	3.012440E-16	2.211305E-17
3.801210E+03	2.938666E-16	2.156589E-17
3.802672E+03	2.883725E-16	2.115719E-17
3.804134E+03	2.825599E-16	2.072533E-17
3.805596E+03	2.765057E-16	2.027598E-17
3.807058E+03	2.713389E-16	1.989191E-17
3.808520E+03	2.686295E-16	1.968814E-17
3.809982E+03	2.669866E-16	1.956261E-17
3.811444E+03	2.644149E-16	1.936912E-17
3.812906E+03	2.629875E-16	1.925952E-17
3.814368E+03	2.643762E-16	1.935615E-17
3.815830E+03	2.669882E-16	1.954226E-17
3.817292E+03	2.709712E-16	1.982859E-17
3.818754E+03	2.753193E-16	2.014148E-17
3.820216E+03	2.796457E-16	2.045261E-17
3.821678E+03	2.839812E-16	2.076425E-17
3.823140E+03	2.899758E-16	2.119698E-17
3.824602E+03	2.979942E-16	2.177738E-17
3.826064E+03	3.048066E-16	2.226937E-17
3.827526E+03	3.125201E-16	2.282691E-17
3.828988E+03	3.182678E-16	2.324059E-17
3.830450E+03	3.250017E-16	2.372605E-17
3.831912E+03	3.333816E-16	2.433138E-17
3.833374E+03	3.422451E-16	2.497166E-17
3.834836E+03	3.500413E-16	2.553375E-17
3.836298E+03	3.569171E-16	2.602841E-17
3.837760E+03	3.667355E-16	2.673734E-17
3.839222E+03	3.772788E-16	2.749872E-17
3.840684E+03	3.905497E-16	2.845845E-17
3.842147E+03	4.015664E-16	2.925343E-17
3.843609E+03	4.109022E-16	2.992558E-17
3.845071E+03	4.226325E-16	3.077171E-17
3.846533E+03	4.335516E-16	3.155831E-17
3.847995E+03	4.444976E-16	3.234647E-17
3.849457E+03	4.560300E-16	3.317685E-17
3.850919E+03	4.693612E-16	3.413760E-17
3.852381E+03	4.829300E-16	3.511512E-17
3.853843E+03	4.967522E-16	3.611052E-17
3.855305E+03	5.103691E-16	3.709046E-17
3.856767E+03	5.247763E-16	3.812729E-17
3.858229E+03	5.395382E-16	3.918932E-17
3.859691E+03	5.545695E-16	4.027033E-17
3.861153E+03	5.703372E-16	4.140421E-17
3.862615E+03	5.850059E-16	4.245771E-17
3.864077E+03	5.992126E-16	4.347711E-17
3.865539E+03	6.131130E-16	4.447374E-17
3.867001E+03	6.287385E-16	4.559491E-17
3.868463E+03	6.455604E-16	4.680221E-17
3.869925E+03	6.619288E-16	4.797599E-17
3.871387E+03	6.777576E-16	4.911001E-17
3.872849E+03	6.937173E-16	5.025290E-17
3.874311E+03	7.109285E-16	5.148579E-17
3.875773E+03	7.278887E-16	5.269982E-17
3.877235E+03	7.449017E-16	5.391702E-17
3.878697E+03	7.618196E-16	5.512666E-17
3.880159E+03	7.788290E-16	5.634225E-17
3.881621E+03	7.964214E-16	5.759932E-17
3.883083E+03	8.130138E-16	5.878341E-17
3.884545E+03	8.300026E-16	5.999549E-17
3.886007E+03	8.468411E-16	6.119603E-17
3.887469E+03	8.638414E-16	6.240759E-17
3.888931E+03	8.810825E-16	6.363588E-17
3.890393E+03	8.982516E-16	6.485828E-17
3.891855E+03	9.164416E-16	6.615369E-17
3.893317E+03	9.354970E-16	6.751083E-17
3.894779E+03	9.540124E-16	6.882826E-17
3.896241E+03	9.711286E-16	7.004403E-17
3.897703E+03	9.880949E-16	7.124831E-17
3.899165E+03	1.004598E-15	7.241855E-17
3.900627E+03	1.021577E-15	7.362237E-17
3.902089E+03	1.039343E-15	7.488227E-17
3.903551E+03	1.056022E-15	7.606312E-17
3.905013E+03	1.071455E-15	7.715363E-17
3.906475E+03	1.087911E-15	7.831711E-17
3.907937E+03	1.104372E-15	7.948036E-17
3.909399E+03	1.120292E-15	8.060399E-17
3.910861E+03	1.135827E-15	8.169930E-17
3.912323E+03	1.152542E-15	8.287878E-17
3.913785E+03	1.168401E-15	8.399615E-17
3.915247E+03	1.182544E-15	8.498950E-17
3.916709E+03	1.197867E-15	8.606707E-17
3.918171E+03	1.212882E-15	8.712192E-17
3.919633E+03	1.227120E-15	8.812030E-17
3.921095E+03	1.242146E-15	8.917478E-17
3.922557E+03	1.257257E-15	9.023467E-17
3.924019E+03	1.271589E-15	9.123811E-17
3.925481E+03	1.286162E-15	9.225821E-17
3.926943E+03	1.299799E-15	9.321067E-17
3.928405E+03	1.313050E-15	9.413486E-17
3.929867E+03	1.327796E-15	9.516566E-17
3.931329E+03	1.343489E-15	9.626371E-17
3.932791E+03	1.356598E-15	9.717609E-17
3.934253E+03	1.370341E-15	9.813325E-17
3.935715E+03	1.384637E-15	9.912954E-17
3.937177E+03	1.397449E-15	1.000189E-16
3.938639E+03	1.409715E-15	1.008688E-16
3.940101E+03	1.421672E-15	1.016960E-16
3.941563E+03	1.433869E-15	1.025400E-16
3.943025E+03	1.446228E-15	1.033950E-16
3.944487E+03	1.457177E-15	1.041488E-16
3.945949E+03	1.468996E-15	1.049642E-16
3.947411E+03	1.481605E-15	1.058356E-16
3.948873E+03	1.493039E-15	1.066226E-16
3.950335E+03	1.504163E-15	1.073870E-16
3.951797E+03	1.513090E-15	1.079941E-16
3.953259E+03	1.521785E-15	1.085842E-16
3.954721E+03	1.529303E-15	1.090901E-16
3.956183E+03	1.537138E-15	1.096183E-16
3.957645E+03	1.544269E-15	1.100959E-16
3.959107E+03	1.552268E-15	1.106351E-16
3.960569E+03	1.559405E-15	1.111126E-16
3.962031E+03	1.564576E-15	1.114497E-16
3.963493E+03	1.568489E-15	1.116970E-16
3.964955E+03	1.572876E-15	1.119779E-16
3.966417E+03	1.577344E-15	1.122644E-16
3.967880E+03	1.581341E-15	1.125171E-16
3.969342E+03	1.584000E-15	1.126746E-16
3.970804E+03	1.586581E-15	1.128263E-16
3.972266E+03	1.589243E-15	1.129837E-16
3.973728E+03	1.590801E-15	1.130626E-16
3.975190E+03	1.589994E-15	1.129733E-16
3.976652E+03	1.589661E-15	1.129176E-16
3.978114E+03	1.589644E-15	1.128844E-16
3.979576E+03	1.588600E-15	1.127784E-16
3.981038E+03	1.585347E-15	1.125155E-16
3.982500E+03	1.581382E-15	1.122023E-16
3.983962E+03	1.575757E-15	1.117714E-16
3.985424E+03	1.570841E-15	1.113911E-16
3.986886E+03	1.565845E-15	1.110053E-16
3.988348E+03	1.558872E-15	1.104795E-16
3.989810E+03	1.551975E-15	1.099595E-16
3.991272E+03	1.544365E-15	1.093891E-16
3.992734E+03	1.535250E-15	1.087125E-16
3.994196E+03	1.525816E-15	1.080136E-16
3.995658E+03	1.517090E-15	1.073653E-16
3.997120E+03	1.507570E-15	1.066611E-16
3.998582E+03	1.497809E-15	1.059403E-16
4.000044E+03	1.488520E-15	1.052531E-16
4.001506E+03	1.477565E-15	1.044486E-16
4.002968E+03	1.464390E-15	1.034876E-16
4.004430E+03	1.450655E-15	1.024877E-16
4.005892E+03	1.438104E-15	1.015718E-16
4.007354E+03	1.425785E-15	1.006729E-16
4.008816E+03	1.412829E-15	9.972943E-17
4.010278E+03	1.399075E-15	9.873022E-17
4.011740E+03	1.385316E-15	9.773118E-17
4.013202E+03	1.372820E-15	9.682178E-17
4.014664E+03	1.358973E-15	9.581756E-17
4.016126E+03	1.343771E-15	9.471847E-17
4.017588E+03	1.329278E-15	9.366992E-17
4.019050E+03	1.315256E-15	9.265507E-17
4.020512E+03	1.300831E-15	9.161249E-17
4.021974E+03	1.287275E-15	9.063159E-17
4.023436E+03	1.273157E-15	8.961172E-17
4.024898E+03	1.258240E-15	8.853622E-17
4.026360E+03	1.243953E-15	8.750559E-17
4.027822E+03	1.229502E-15	8.646400E-17
4.029284E+03	1.215283E-15	8.543935E-17
4.030746E+03	1.200900E-15	8.440373E-17
4.032208E+03	1.186592E-15	8.337388E-17
4.033670E+03	1.172595E-15	8.236656E-17
4.035132E+03	1.158196E-15	8.133152E-17
4.036594E+03	1.144190E-15	8.032459E-17
4.038056E+03	1.130178E-15	7.931787E-17
4.039518E+03	1.117035E-15	7.837268E-17
4.040980E+03	1.103092E-15	7.737191E-17
4.042442E+03	1.089541E-15	7.639920E-17
4.043904E+03	1.077816E-15	7.555504E-17
4.045366E+03	1.065609E-15	7.467752E-17
4.046828E+03	1.054034E-15	7.384482E-17
4.048290E+03	1.043330E-15	7.307359E-17
4.049752E+03	1.033021E-15	7.233042E-17
4.051214E+03	1.022071E-15	7.154281E-17
4.052676E+03	1.011993E-15	7.081662E-17
4.054138E+03	1.003027E-15	7.016868E-17
4.055600E+03	9.953330E-16	6.961005E-17
4.057062E+03	9.873170E-16	6.902921E-17
4.058524E+03	9.772246E-16	6.830357E-17
4.059986E+03	9.677665E-16	6.762265E-17
4.061448E+03	9.578260E-16	6.690842E-17
4.062910E+03	9.489186E-16	6.626673E-17
4.064372E+03	9.423231E-16	6.578680E-17
4.065834E+03	9.365229E-16	6.536265E-17
4.067296E+03	9.301613E-16	6.489956E-17
4.068758E+03	9.233983E-16	6.440872E-17
4.070220E+03	9.167126E-16	6.392354E-17
4.071682E+03	9.113030E-16	6.352760E-17
4.073144E+03	9.066100E-16	6.318181E-17
4.074606E+03	9.016756E-16	6.281939E-17
4.076068E+03	8.973786E-16	6.250156E-17
4.077530E+03	8.919607E-16	6.210586E-17
4.078992E+03	8.873407E-16	6.176591E-17
4.080454E+03	8.834382E-16	6.147608E-17
4.081916E+03	8.792148E-16	6.116407E-17
4.083378E+03	8.761102E-16	6.093004E-17
4.084840E+03	8.737243E-16	6.074611E-17
