#wls	flux	fluxerr
1.591305E+03	5.354031E-17	8.523788E-18
1.631088E+03	5.306513E-17	8.437042E-18
1.670870E+03	5.240142E-17	8.320339E-18
1.710653E+03	5.156302E-17	8.175999E-18
1.750436E+03	5.055692E-17	8.005252E-18
1.790218E+03	4.934093E-17	7.801548E-18
1.830001E+03	4.788137E-17	7.559727E-18
1.869784E+03	4.613273E-17	7.272801E-18
1.909566E+03	4.405149E-17	6.934143E-18
1.949349E+03	4.165247E-17	6.546347E-18
1.989131E+03	3.900238E-17	6.120146E-18
2.028914E+03	3.630420E-17	5.687562E-18
2.068697E+03	3.388848E-17	5.300367E-18
2.108479E+03	3.215676E-17	5.021074E-18
2.148262E+03	3.140964E-17	4.896023E-18
2.188045E+03	3.175576E-17	4.941340E-18
2.227827E+03	3.304614E-17	5.132987E-18
2.267610E+03	3.500307E-17	5.427104E-18
2.307392E+03	3.732391E-17	5.776260E-18
2.347175E+03	3.979754E-17	6.147503E-18
2.386958E+03	4.227401E-17	6.517540E-18
2.426740E+03	4.470353E-17	6.878675E-18
2.466523E+03	4.707439E-17	7.229119E-18
2.506306E+03	4.940288E-17	7.571385E-18
2.546088E+03	5.174137E-17	7.913493E-18
2.585871E+03	5.411112E-17	8.258645E-18
2.625653E+03	5.657226E-17	8.615937E-18
2.665436E+03	5.915555E-17	8.989923E-18
2.705219E+03	6.192408E-17	9.390015E-18
2.745001E+03	6.491769E-17	9.822020E-18
2.784784E+03	6.818552E-17	1.029309E-17
2.824567E+03	7.178816E-17	1.081204E-17
2.864349E+03	7.577299E-17	1.138559E-17
2.904132E+03	8.022898E-17	1.202662E-17
2.943914E+03	8.521664E-17	1.274364E-17
2.983697E+03	9.082337E-17	1.354906E-17
2.993643E+03	9.232976E-17	1.376533E-17
3.003588E+03	9.388660E-17	1.398882E-17
3.013534E+03	9.549541E-17	1.421974E-17
3.023480E+03	9.714884E-17	1.445698E-17
3.033425E+03	9.886467E-17	1.470317E-17
3.043371E+03	1.006476E-16	1.495900E-17
3.053317E+03	1.025034E-16	1.522529E-17
3.063262E+03	1.044217E-16	1.550049E-17
3.073208E+03	1.064240E-16	1.578775E-17
3.083154E+03	1.084894E-16	1.608399E-17
3.093099E+03	1.106293E-16	1.639085E-17
3.103045E+03	1.128444E-16	1.670842E-17
3.112991E+03	1.151468E-16	1.703845E-17
3.122936E+03	1.175155E-16	1.737783E-17
3.132882E+03	1.199739E-16	1.773000E-17
3.142828E+03	1.225009E-16	1.809180E-17
3.152773E+03	1.251207E-16	1.846678E-17
3.162719E+03	1.278351E-16	1.885521E-17
3.172665E+03	1.306226E-16	1.925385E-17
3.182610E+03	1.335085E-16	1.966642E-17
3.192556E+03	1.364949E-16	2.009321E-17
3.202502E+03	1.395720E-16	2.053275E-17
3.212447E+03	1.427419E-16	2.098530E-17
3.222393E+03	1.460191E-16	2.145298E-17
3.232339E+03	1.494064E-16	2.193615E-17
3.242284E+03	1.528936E-16	2.243330E-17
3.252230E+03	1.565090E-16	2.294854E-17
3.262175E+03	1.602298E-16	2.347848E-17
3.272121E+03	1.640716E-16	2.402540E-17
3.282067E+03	1.680375E-16	2.458969E-17
3.292012E+03	1.721307E-16	2.517177E-17
3.301958E+03	1.763540E-16	2.577206E-17
3.311904E+03	1.807109E-16	2.639097E-17
3.321849E+03	1.852185E-16	2.703101E-17
3.331795E+03	1.898520E-16	2.768848E-17
3.341741E+03	1.946431E-16	2.836797E-17
3.351686E+03	1.995956E-16	2.906998E-17
3.361632E+03	2.046984E-16	2.979286E-17
3.371578E+03	2.099697E-16	3.053921E-17
3.381523E+03	2.153981E-16	3.130730E-17
3.391469E+03	2.210022E-16	3.209979E-17
3.401415E+03	2.267854E-16	3.291715E-17
3.411360E+03	2.327516E-16	3.375984E-17
3.421306E+03	2.389040E-16	3.462831E-17
3.431252E+03	2.452460E-16	3.552297E-17
3.441197E+03	2.517807E-16	3.644421E-17
3.451143E+03	2.585108E-16	3.739239E-17
3.461089E+03	2.654560E-16	3.837026E-17
3.471034E+03	2.726018E-16	3.937569E-17
3.480980E+03	2.799500E-16	4.040885E-17
3.490926E+03	2.875370E-16	4.147495E-17
3.500871E+03	2.953115E-16	4.256650E-17
3.510817E+03	3.033271E-16	4.369119E-17
3.520763E+03	3.115664E-16	4.484643E-17
3.530708E+03	3.200106E-16	4.602943E-17
3.540654E+03	3.286952E-16	4.724525E-17
3.550600E+03	3.375999E-16	4.849091E-17
3.560545E+03	3.467221E-16	4.976593E-17
3.570491E+03	3.560579E-16	5.106972E-17
3.580436E+03	3.656224E-16	5.240436E-17
3.590382E+03	3.754107E-16	5.376909E-17
3.600328E+03	3.853968E-16	5.516012E-17
3.610273E+03	3.955938E-16	5.657924E-17
3.620219E+03	4.059939E-16	5.802530E-17
3.630165E+03	4.165890E-16	5.949707E-17
3.640110E+03	4.273701E-16	6.099322E-17
3.650056E+03	4.383279E-16	6.251233E-17
3.660002E+03	4.494747E-16	6.405614E-17
3.669947E+03	4.607800E-16	6.562023E-17
3.679893E+03	4.722564E-16	6.720634E-17
3.689839E+03	4.838750E-16	6.881032E-17
3.699784E+03	4.956497E-16	7.043411E-17
3.709730E+03	5.075976E-16	7.208008E-17
3.719676E+03	5.196690E-16	7.374115E-17
3.729621E+03	5.318833E-16	7.542000E-17
3.739567E+03	5.442371E-16	7.711613E-17
3.749513E+03	5.567507E-16	7.883237E-17
3.759458E+03	5.693984E-16	8.056505E-17
3.769404E+03	5.821992E-16	8.231680E-17
3.779350E+03	5.951242E-16	8.408350E-17
3.789295E+03	6.081869E-16	8.586703E-17
3.799241E+03	6.213734E-16	8.766539E-17
3.809187E+03	6.346630E-16	8.947562E-17
3.819132E+03	6.480297E-16	9.129405E-17
3.829078E+03	6.614369E-16	9.311549E-17
3.839024E+03	6.748640E-16	9.493705E-17
3.848969E+03	6.882076E-16	9.674421E-17
3.858915E+03	7.014507E-16	9.853457E-17
3.868861E+03	7.145179E-16	1.002976E-16
3.878806E+03	7.272998E-16	1.020181E-16
3.888752E+03	7.397273E-16	1.036864E-16
3.898698E+03	7.516769E-16	1.052852E-16
3.908643E+03	7.630948E-16	1.068074E-16
3.918589E+03	7.738294E-16	1.082318E-16
3.928534E+03	7.838047E-16	1.095479E-16
3.938480E+03	7.929053E-16	1.107400E-16
3.948426E+03	8.010976E-16	1.118037E-16
3.958371E+03	8.082909E-16	1.127265E-16
3.968317E+03	8.144131E-16	1.134987E-16
3.978263E+03	8.194831E-16	1.141233E-16
3.988208E+03	8.234714E-16	1.145965E-16
3.998154E+03	8.263703E-16	1.149176E-16
4.008100E+03	8.282645E-16	1.150986E-16
4.018045E+03	8.291672E-16	1.151417E-16
4.027991E+03	8.291783E-16	1.150611E-16
4.037937E+03	8.283908E-16	1.148700E-16
4.047882E+03	8.269086E-16	1.145829E-16
4.057828E+03	8.248239E-16	1.142129E-16
4.067774E+03	8.222544E-16	1.137765E-16
4.077719E+03	8.193391E-16	1.132929E-16
4.087665E+03	8.161741E-16	1.127756E-16
4.097611E+03	8.128893E-16	1.122426E-16
4.107556E+03	8.095304E-16	1.117003E-16
4.117502E+03	8.062483E-16	1.111695E-16
4.127448E+03	8.030880E-16	1.106563E-16
4.137393E+03	8.001203E-16	1.101705E-16
4.147339E+03	7.974049E-16	1.097202E-16
4.157285E+03	7.949697E-16	1.093092E-16
4.167230E+03	7.928512E-16	1.089425E-16
4.177176E+03	7.910891E-16	1.086255E-16
4.187122E+03	7.896645E-16	1.083553E-16
4.197067E+03	7.885664E-16	1.081305E-16
4.207013E+03	7.878255E-16	1.079552E-16
4.216959E+03	7.873879E-16	1.078218E-16
4.226904E+03	7.872588E-16	1.077311E-16
4.236850E+03	7.874116E-16	1.076792E-16
4.246796E+03	7.878345E-16	1.076646E-16
4.256741E+03	7.885041E-16	1.076839E-16
4.266687E+03	7.894026E-16	1.077347E-16
4.276632E+03	7.905182E-16	1.078154E-16
4.286578E+03	7.918758E-16	1.079291E-16
4.296524E+03	7.934829E-16	1.080770E-16
4.306469E+03	7.953442E-16	1.082597E-16
4.316415E+03	7.975073E-16	1.084834E-16
4.326361E+03	8.000177E-16	1.087544E-16
4.336306E+03	8.029510E-16	1.090828E-16
4.346252E+03	8.063854E-16	1.094792E-16
4.356198E+03	8.104261E-16	1.099577E-16
4.366143E+03	8.151643E-16	1.105306E-16
4.376089E+03	8.207118E-16	1.112127E-16
4.386035E+03	8.272242E-16	1.120251E-16
4.395980E+03	8.347780E-16	1.129779E-16
4.405926E+03	8.435227E-16	1.140909E-16
4.415872E+03	8.535468E-16	1.153759E-16
4.425817E+03	8.649507E-16	1.168461E-16
4.435763E+03	8.778168E-16	1.185125E-16
4.445709E+03	8.921924E-16	1.203809E-16
4.455654E+03	9.081083E-16	1.224553E-16
4.465600E+03	9.255510E-16	1.247335E-16
4.475546E+03	9.444826E-16	1.272100E-16
4.485491E+03	9.648084E-16	1.298718E-16
4.495437E+03	9.864292E-16	1.327052E-16
4.505383E+03	1.009142E-15	1.356828E-16
4.515328E+03	1.032720E-15	1.387737E-16
4.525274E+03	1.056897E-15	1.419423E-16
4.535220E+03	1.081318E-15	1.451405E-16
4.545165E+03	1.105639E-15	1.483224E-16
4.555111E+03	1.129436E-15	1.514314E-16
4.565057E+03	1.152263E-15	1.544074E-16
4.575002E+03	1.173705E-15	1.571955E-16
4.584948E+03	1.193308E-15	1.597351E-16
4.594894E+03	1.210658E-15	1.619713E-16
4.604839E+03	1.225366E-15	1.638528E-16
4.614785E+03	1.237153E-15	1.653426E-16
4.624730E+03	1.245766E-15	1.664076E-16
4.634676E+03	1.251039E-15	1.670265E-16
4.644622E+03	1.252948E-15	1.671967E-16
4.654567E+03	1.251519E-15	1.669224E-16
4.664513E+03	1.246884E-15	1.662218E-16
4.674459E+03	1.239261E-15	1.651247E-16
4.684404E+03	1.228938E-15	1.636699E-16
4.694350E+03	1.216275E-15	1.619059E-16
4.704296E+03	1.201639E-15	1.598820E-16
4.714241E+03	1.185433E-15	1.576521E-16
4.724187E+03	1.168065E-15	1.552707E-16
4.734133E+03	1.149959E-15	1.527943E-16
4.744078E+03	1.131459E-15	1.502686E-16
4.754024E+03	1.112917E-15	1.477406E-16
4.763970E+03	1.094646E-15	1.452516E-16
4.773915E+03	1.076873E-15	1.428317E-16
4.783861E+03	1.059846E-15	1.405137E-16
4.793807E+03	1.043715E-15	1.383173E-16
4.803752E+03	1.028598E-15	1.362578E-16
4.813698E+03	1.014584E-15	1.343471E-16
4.823644E+03	1.001713E-15	1.325899E-16
4.833589E+03	9.900011E-16	1.309884E-16
4.843535E+03	9.794120E-16	1.295376E-16
4.853481E+03	9.699182E-16	1.282335E-16
4.863426E+03	9.614469E-16	1.270665E-16
4.873372E+03	9.538992E-16	1.260232E-16
4.883318E+03	9.472060E-16	1.250944E-16
4.893263E+03	9.412365E-16	1.242627E-16
4.903209E+03	9.359004E-16	1.235161E-16
4.913155E+03	9.310770E-16	1.228385E-16
4.923100E+03	9.266738E-16	1.222178E-16
4.933046E+03	9.226073E-16	1.216427E-16
4.942991E+03	9.187993E-16	1.211031E-16
4.952937E+03	9.151893E-16	1.205908E-16
4.962883E+03	9.117482E-16	1.201020E-16
4.972828E+03	9.084459E-16	1.196328E-16
4.982774E+03	9.052970E-16	1.191850E-16
4.992720E+03	9.023353E-16	1.187631E-16
5.002665E+03	8.995947E-16	1.183714E-16
5.012611E+03	8.971456E-16	1.180194E-16
5.022557E+03	8.950624E-16	1.177166E-16
5.032502E+03	8.934402E-16	1.174757E-16
5.042448E+03	8.923594E-16	1.173070E-16
5.052394E+03	8.919142E-16	1.172231E-16
5.062339E+03	8.922096E-16	1.172375E-16
5.072285E+03	8.933354E-16	1.173621E-16
5.082231E+03	8.953780E-16	1.176082E-16
5.092176E+03	8.984236E-16	1.179870E-16
5.102122E+03	9.025198E-16	1.185048E-16
5.112068E+03	9.077425E-16	1.191714E-16
5.122013E+03	9.141251E-16	1.199912E-16
5.131959E+03	9.217075E-16	1.209695E-16
5.141905E+03	9.304930E-16	1.221066E-16
5.151850E+03	9.404812E-16	1.234024E-16
5.161796E+03	9.516631E-16	1.248558E-16
5.171742E+03	9.639932E-16	1.264609E-16
5.181687E+03	9.774285E-16	1.282119E-16
5.191633E+03	9.918866E-16	1.300981E-16
5.201579E+03	1.007277E-15	1.321078E-16
5.211524E+03	1.023491E-15	1.342267E-16
5.221470E+03	1.040417E-15	1.364401E-16
5.231416E+03	1.057890E-15	1.387266E-16
5.241361E+03	1.075769E-15	1.410679E-16
5.251307E+03	1.093879E-15	1.434409E-16
5.261253E+03	1.112059E-15	1.458247E-16
5.271198E+03	1.130111E-15	1.481935E-16
5.281144E+03	1.147885E-15	1.505276E-16
5.291089E+03	1.165173E-15	1.527998E-16
5.301035E+03	1.181837E-15	1.549922E-16
5.310981E+03	1.197713E-15	1.570835E-16
5.320926E+03	1.212652E-15	1.590540E-16
5.330872E+03	1.226533E-15	1.608879E-16
5.340818E+03	1.239252E-15	1.625718E-16
5.350763E+03	1.250711E-15	1.640927E-16
5.360709E+03	1.260839E-15	1.654414E-16
5.370655E+03	1.269552E-15	1.666068E-16
5.380600E+03	1.276831E-15	1.675866E-16
5.390546E+03	1.282621E-15	1.683733E-16
5.400492E+03	1.286857E-15	1.689585E-16
5.410437E+03	1.289509E-15	1.693381E-16
5.420383E+03	1.290510E-15	1.695033E-16
5.430329E+03	1.289817E-15	1.694481E-16
5.440274E+03	1.287347E-15	1.691614E-16
5.450220E+03	1.283063E-15	1.686384E-16
5.460166E+03	1.276927E-15	1.678738E-16
5.470111E+03	1.268917E-15	1.668644E-16
5.480057E+03	1.259037E-15	1.656105E-16
5.490003E+03	1.247329E-15	1.641173E-16
5.499948E+03	1.233841E-15	1.623908E-16
5.509894E+03	1.218681E-15	1.604451E-16
5.519840E+03	1.201982E-15	1.582973E-16
5.529785E+03	1.183923E-15	1.559708E-16
5.539731E+03	1.164721E-15	1.534937E-16
5.549677E+03	1.144598E-15	1.508951E-16
5.559622E+03	1.123837E-15	1.482121E-16
5.569568E+03	1.102721E-15	1.454819E-16
5.579514E+03	1.081545E-15	1.427432E-16
5.589459E+03	1.060633E-15	1.400386E-16
5.599405E+03	1.040274E-15	1.374064E-16
5.609351E+03	1.020760E-15	1.348850E-16
5.619296E+03	1.002390E-15	1.325139E-16
5.629242E+03	9.854210E-16	1.303274E-16
5.639187E+03	9.700822E-16	1.283559E-16
5.649133E+03	9.565875E-16	1.266279E-16
5.659079E+03	9.450980E-16	1.251649E-16
5.669024E+03	9.357623E-16	1.239871E-16
5.678970E+03	9.286841E-16	1.231086E-16
5.688916E+03	9.239436E-16	1.225402E-16
5.698861E+03	9.215745E-16	1.222870E-16
5.708807E+03	9.215742E-16	1.223489E-16
5.718753E+03	9.239023E-16	1.227213E-16
5.728698E+03	9.284710E-16	1.233927E-16
5.738644E+03	9.351929E-16	1.243521E-16
5.748590E+03	9.438806E-16	1.255750E-16
5.758535E+03	9.543554E-16	1.270380E-16
5.768481E+03	9.663797E-16	1.287100E-16
5.778427E+03	9.796663E-16	1.305529E-16
5.788372E+03	9.939016E-16	1.325253E-16
5.798318E+03	1.008764E-15	1.345846E-16
5.808264E+03	1.023854E-15	1.366774E-16
5.818209E+03	1.038808E-15	1.387555E-16
5.828155E+03	1.053241E-15	1.407672E-16
5.838101E+03	1.066746E-15	1.426582E-16
5.848046E+03	1.078986E-15	1.443830E-16
5.857992E+03	1.089633E-15	1.458974E-16
5.867938E+03	1.098376E-15	1.471596E-16
5.877883E+03	1.105000E-15	1.481399E-16
5.887829E+03	1.109337E-15	1.488155E-16
5.897775E+03	1.111278E-15	1.491712E-16
5.907720E+03	1.110806E-15	1.492039E-16
5.917666E+03	1.107950E-15	1.489170E-16
5.927612E+03	1.102816E-15	1.483241E-16
5.937557E+03	1.095565E-15	1.474462E-16
5.947503E+03	1.086407E-15	1.463109E-16
5.957449E+03	1.075573E-15	1.449489E-16
5.967394E+03	1.063331E-15	1.433959E-16
5.977340E+03	1.049955E-15	1.416882E-16
5.987285E+03	1.035748E-15	1.398667E-16
5.997231E+03	1.020963E-15	1.379651E-16
6.007177E+03	1.005860E-15	1.360183E-16
6.017122E+03	9.906652E-16	1.340570E-16
6.027068E+03	9.756105E-16	1.321123E-16
6.037014E+03	9.608451E-16	1.302045E-16
6.046959E+03	9.465415E-16	1.283572E-16
6.056905E+03	9.328094E-16	1.265851E-16
6.066851E+03	9.197292E-16	1.248994E-16
6.076796E+03	9.073660E-16	1.233091E-16
6.086742E+03	8.957713E-16	1.218214E-16
6.096688E+03	8.849432E-16	1.204362E-16
6.106633E+03	8.748933E-16	1.191553E-16
6.116579E+03	8.656096E-16	1.179772E-16
6.126525E+03	8.570667E-16	1.168987E-16
6.136470E+03	8.492230E-16	1.159144E-16
6.146416E+03	8.420410E-16	1.150192E-16
6.156362E+03	8.354808E-16	1.142079E-16
6.166307E+03	8.295019E-16	1.134752E-16
6.176253E+03	8.240759E-16	1.128173E-16
6.186199E+03	8.191504E-16	1.122271E-16
6.196144E+03	8.147136E-16	1.117032E-16
6.206090E+03	8.107246E-16	1.112402E-16
6.216036E+03	8.071852E-16	1.108384E-16
6.225981E+03	8.040762E-16	1.104953E-16
6.235927E+03	8.014037E-16	1.102118E-16
6.245873E+03	7.991507E-16	1.099858E-16
6.255818E+03	7.973426E-16	1.098208E-16
6.265764E+03	7.959774E-16	1.097167E-16
6.275710E+03	7.950730E-16	1.096761E-16
6.285655E+03	7.946360E-16	1.097001E-16
6.295601E+03	7.946582E-16	1.097876E-16
6.305546E+03	7.951426E-16	1.099393E-16
6.315492E+03	7.960729E-16	1.101529E-16
6.325438E+03	7.974098E-16	1.104232E-16
6.335383E+03	7.991276E-16	1.107468E-16
6.345329E+03	8.011552E-16	1.111139E-16
6.355275E+03	8.034122E-16	1.115134E-16
6.365220E+03	8.057979E-16	1.119315E-16
6.375166E+03	8.081945E-16	1.123517E-16
6.385112E+03	8.104718E-16	1.127560E-16
6.395057E+03	8.124656E-16	1.131215E-16
6.405003E+03	8.140057E-16	1.134243E-16
6.414949E+03	8.149193E-16	1.136401E-16
6.424894E+03	8.150202E-16	1.137429E-16
6.434840E+03	8.141185E-16	1.137058E-16
6.444786E+03	8.120221E-16	1.135015E-16
6.454731E+03	8.085773E-16	1.131083E-16
6.464677E+03	8.036223E-16	1.125030E-16
6.474623E+03	7.970279E-16	1.116670E-16
6.484568E+03	7.887088E-16	1.105878E-16
6.494514E+03	7.785951E-16	1.092549E-16
6.504460E+03	7.666766E-16	1.076665E-16
6.514405E+03	7.529870E-16	1.058266E-16
6.524351E+03	7.375824E-16	1.037425E-16
6.534297E+03	7.205816E-16	1.014304E-16
6.544242E+03	7.021315E-16	9.891041E-17
6.554188E+03	6.824110E-16	9.620729E-17
6.564134E+03	6.616281E-16	9.334995E-17
6.574079E+03	6.400260E-16	9.037238E-17
6.584025E+03	6.178262E-16	8.730559E-17
6.593971E+03	5.952872E-16	8.418597E-17
6.603916E+03	5.726469E-16	8.104705E-17
6.613862E+03	5.501263E-16	7.792011E-17
6.623808E+03	5.279516E-16	7.483724E-17
6.633753E+03	5.063077E-16	7.182478E-17
6.643699E+03	4.853636E-16	6.890689E-17
6.653644E+03	4.652749E-16	6.610593E-17
6.663590E+03	4.461534E-16	6.343807E-17
6.673536E+03	4.280977E-16	6.091766E-17
6.683481E+03	4.111719E-16	5.855415E-17
6.693427E+03	3.954292E-16	5.635554E-17
6.703373E+03	3.808985E-16	5.432632E-17
6.713318E+03	3.675972E-16	5.246935E-17
6.723264E+03	3.555141E-16	5.078348E-17
6.733210E+03	3.446509E-16	4.926932E-17
6.743155E+03	3.349814E-16	4.792352E-17
6.753101E+03	3.264736E-16	4.674191E-17
6.763047E+03	3.190993E-16	4.572082E-17
6.772992E+03	3.128271E-16	4.485614E-17
6.782938E+03	3.076157E-16	4.414225E-17
6.792884E+03	3.034310E-16	4.357465E-17
6.802829E+03	3.002312E-16	4.314765E-17
6.812775E+03	2.979831E-16	4.285678E-17
6.822721E+03	2.966503E-16	4.269713E-17
6.832666E+03	2.961981E-16	4.266398E-17
6.842612E+03	2.965886E-16	4.275218E-17
6.852558E+03	2.977978E-16	4.295849E-17
6.862503E+03	2.997865E-16	4.327756E-17
6.872449E+03	3.025328E-16	4.370645E-17
6.882395E+03	3.060040E-16	4.424069E-17
6.892340E+03	3.101721E-16	4.487643E-17
6.902286E+03	3.150098E-16	4.560998E-17
6.912232E+03	3.204906E-16	4.643766E-17
6.922177E+03	3.265883E-16	4.735591E-17
6.932123E+03	3.332819E-16	4.836186E-17
6.942069E+03	3.405420E-16	4.945142E-17
6.952014E+03	3.483390E-16	5.062048E-17
6.961960E+03	3.566580E-16	5.186703E-17
6.971906E+03	3.654704E-16	5.318706E-17
6.981851E+03	3.747524E-16	5.457726E-17
6.991797E+03	3.844804E-16	5.603434E-17
7.001742E+03	3.946311E-16	5.755500E-17
7.011688E+03	4.051806E-16	5.913591E-17
7.021634E+03	4.160990E-16	6.077281E-17
7.031579E+03	4.273669E-16	6.246297E-17
7.041525E+03	4.389582E-16	6.420268E-17
7.051471E+03	4.508396E-16	6.598714E-17
7.061416E+03	4.629879E-16	6.781304E-17
7.071362E+03	4.753588E-16	6.967396E-17
7.081308E+03	4.879314E-16	7.156690E-17
7.091253E+03	5.006630E-16	7.348564E-17
7.101199E+03	5.135078E-16	7.542349E-17
7.111145E+03	5.264309E-16	7.737534E-17
7.121090E+03	5.393886E-16	7.933478E-17
7.131036E+03	5.523197E-16	8.129280E-17
7.140982E+03	5.651909E-16	8.324447E-17
7.150927E+03	5.779371E-16	8.518018E-17
7.160873E+03	5.905239E-16	8.709479E-17
7.170819E+03	6.028765E-16	8.897721E-17
7.180764E+03	6.149613E-16	9.082240E-17
7.190710E+03	6.267131E-16	9.262062E-17
7.200656E+03	6.380944E-16	9.436623E-17
7.210601E+03	6.490527E-16	9.605132E-17
7.220547E+03	6.595589E-16	9.767146E-17
7.230493E+03	6.695594E-16	9.921854E-17
7.240438E+03	6.790257E-16	1.006882E-16
7.250384E+03	6.879417E-16	1.020779E-16
7.260330E+03	6.962720E-16	1.033821E-16
7.270275E+03	7.040040E-16	1.045989E-16
7.280221E+03	7.111406E-16	1.057285E-16
7.290167E+03	7.176731E-16	1.067694E-16
7.300112E+03	7.235947E-16	1.077204E-16
7.310058E+03	7.289163E-16	1.085829E-16
7.320004E+03	7.336510E-16	1.093588E-16
7.329949E+03	7.378161E-16	1.100504E-16
7.339895E+03	7.414208E-16	1.106589E-16
7.349840E+03	7.444971E-16	1.111890E-16
7.359786E+03	7.470460E-16	1.116406E-16
7.369732E+03	7.491016E-16	1.120187E-16
7.379677E+03	7.506856E-16	1.123264E-16
7.389623E+03	7.518215E-16	1.125670E-16
7.399569E+03	7.525185E-16	1.127419E-16
7.409514E+03	7.528074E-16	1.128555E-16
7.419460E+03	7.527065E-16	1.129105E-16
7.429406E+03	7.522220E-16	1.129076E-16
7.439351E+03	7.513809E-16	1.128508E-16
7.449297E+03	7.501971E-16	1.127422E-16
7.459243E+03	7.486825E-16	1.125833E-16
7.469188E+03	7.468604E-16	1.123776E-16
7.479134E+03	7.447293E-16	1.121249E-16
7.489080E+03	7.423000E-16	1.118266E-16
7.499025E+03	7.396009E-16	1.114870E-16
7.508971E+03	7.366286E-16	1.111054E-16
7.518917E+03	7.333900E-16	1.106828E-16
7.528862E+03	7.298996E-16	1.102215E-16
7.538808E+03	7.261534E-16	1.097206E-16
7.548754E+03	7.221640E-16	1.091820E-16
7.558699E+03	7.179453E-16	1.086078E-16
7.568645E+03	7.134888E-16	1.079966E-16
7.578591E+03	7.088071E-16	1.073503E-16
7.588536E+03	7.039008E-16	1.066689E-16
7.598482E+03	6.987606E-16	1.059510E-16
7.608428E+03	6.934070E-16	1.051995E-16
7.618373E+03	6.878199E-16	1.044115E-16
7.628319E+03	6.820197E-16	1.035898E-16
7.638265E+03	6.760049E-16	1.027344E-16
7.648210E+03	6.697663E-16	1.018437E-16
7.658156E+03	6.633046E-16	1.009177E-16
7.668101E+03	6.566380E-16	9.995919E-17
7.678047E+03	6.497396E-16	9.896405E-17
7.687993E+03	6.426394E-16	9.793676E-17
7.697938E+03	6.353198E-16	9.687463E-17
7.707884E+03	6.277935E-16	9.577952E-17
7.717830E+03	6.200639E-16	9.465190E-17
