#wls	flux	fluxerr
1.591305E+03	5.194117E-17	8.710066E-18
1.631088E+03	5.154672E-17	8.609123E-18
1.670870E+03	5.097206E-17	8.478064E-18
1.710653E+03	5.023916E-17	8.320916E-18
1.750436E+03	4.933556E-17	8.135978E-18
1.790218E+03	4.822819E-17	7.918215E-18
1.830001E+03	4.688271E-17	7.662501E-18
1.869784E+03	4.524471E-17	7.360560E-18
1.909566E+03	4.329329E-17	7.009739E-18
1.949349E+03	4.101649E-17	6.608911E-18
1.989131E+03	3.848544E-17	6.170338E-18
2.028914E+03	3.589864E-17	5.726397E-18
2.068697E+03	3.358257E-17	5.329141E-18
2.108479E+03	3.193180E-17	5.040277E-18
2.148262E+03	3.126051E-17	4.907515E-18
2.188045E+03	3.167781E-17	4.945396E-18
2.227827E+03	3.304200E-17	5.129056E-18
2.267610E+03	3.507561E-17	5.413089E-18
2.307392E+03	3.749635E-17	5.752285E-18
2.347175E+03	4.007076E-17	6.109870E-18
2.386958E+03	4.266627E-17	6.465211E-18
2.426740E+03	4.522642E-17	6.809627E-18
2.466523E+03	4.773866E-17	7.141226E-18
2.506306E+03	5.022672E-17	7.463562E-18
2.546088E+03	5.272243E-17	7.781294E-18
2.585871E+03	5.528103E-17	8.102387E-18
2.625653E+03	5.794625E-17	8.432899E-18
2.665436E+03	6.076573E-17	8.779266E-18
2.705219E+03	6.379265E-17	9.148510E-18
2.745001E+03	6.706565E-17	9.545343E-18
2.784784E+03	7.063503E-17	9.975934E-18
2.824567E+03	7.457392E-17	1.044942E-17
2.864349E+03	7.894378E-17	1.097295E-17
2.904132E+03	8.381283E-17	1.155432E-17
2.943914E+03	8.926804E-17	1.220353E-17
2.983697E+03	9.540793E-17	1.293172E-17
2.993643E+03	9.707349E-17	1.312899E-17
3.003588E+03	9.878387E-17	1.333126E-17
3.013534E+03	1.005405E-16	1.353867E-17
3.023480E+03	1.023682E-16	1.375450E-17
3.033425E+03	1.042535E-16	1.397690E-17
3.043371E+03	1.062124E-16	1.420794E-17
3.053317E+03	1.082513E-16	1.444841E-17
3.063262E+03	1.103706E-16	1.469829E-17
3.073208E+03	1.125711E-16	1.495760E-17
3.083154E+03	1.148535E-16	1.522636E-17
3.093099E+03	1.172189E-16	1.550464E-17
3.103045E+03	1.196685E-16	1.579251E-17
3.112991E+03	1.222155E-16	1.609163E-17
3.122936E+03	1.248377E-16	1.639901E-17
3.132882E+03	1.275608E-16	1.671791E-17
3.142828E+03	1.303869E-16	1.704853E-17
3.152773E+03	1.332935E-16	1.738783E-17
3.162719E+03	1.363075E-16	1.773923E-17
3.172665E+03	1.394315E-16	1.810295E-17
3.182610E+03	1.426553E-16	1.847760E-17
3.192556E+03	1.459947E-16	1.886508E-17
3.202502E+03	1.494392E-16	1.926396E-17
3.212447E+03	1.530186E-16	1.967794E-17
3.222393E+03	1.567095E-16	2.010389E-17
3.232339E+03	1.605285E-16	2.054385E-17
3.242284E+03	1.644653E-16	2.099635E-17
3.252230E+03	1.685512E-16	2.146526E-17
3.262175E+03	1.727762E-16	2.194918E-17
3.272121E+03	1.771441E-16	2.244844E-17
3.282067E+03	1.816735E-16	2.296526E-17
3.292012E+03	1.863391E-16	2.349628E-17
3.301958E+03	1.911745E-16	2.404561E-17
3.311904E+03	1.961691E-16	2.461172E-17
3.321849E+03	2.013423E-16	2.519691E-17
3.331795E+03	2.066988E-16	2.580157E-17
3.341741E+03	2.122273E-16	2.642411E-17
3.351686E+03	2.179478E-16	2.706686E-17
3.361632E+03	2.238649E-16	2.773017E-17
3.371578E+03	2.299663E-16	2.841235E-17
3.381523E+03	2.362891E-16	2.911777E-17
3.391469E+03	2.428210E-16	2.984471E-17
3.401415E+03	2.495660E-16	3.059344E-17
3.411360E+03	2.565450E-16	3.136631E-17
3.421306E+03	2.637265E-16	3.215925E-17
3.431252E+03	2.711666E-16	3.297887E-17
3.441197E+03	2.788330E-16	3.382098E-17
3.451143E+03	2.867278E-16	3.468563E-17
3.461089E+03	2.948904E-16	3.557734E-17
3.471034E+03	3.032863E-16	3.649167E-17
3.480980E+03	3.119362E-16	3.743089E-17
3.490926E+03	3.208421E-16	3.839499E-17
3.500871E+03	3.300253E-16	3.938623E-17
3.510817E+03	3.394672E-16	4.040214E-17
3.520763E+03	3.491677E-16	4.144243E-17
3.530708E+03	3.591458E-16	4.250911E-17
3.540654E+03	3.693993E-16	4.360162E-17
3.550600E+03	3.799030E-16	4.471673E-17
3.560545E+03	3.906932E-16	4.585845E-17
3.570491E+03	4.017196E-16	4.702060E-17
3.580436E+03	4.129942E-16	4.820436E-17
3.590382E+03	4.245285E-16	4.941079E-17
3.600328E+03	4.362885E-16	5.063570E-17
3.610273E+03	4.482830E-16	5.187988E-17
3.620219E+03	4.604737E-16	5.313868E-17
3.630165E+03	4.728654E-16	5.441243E-17
3.640110E+03	4.854375E-16	5.569859E-17
3.650056E+03	4.981655E-16	5.699417E-17
3.660002E+03	5.110471E-16	5.829874E-17
3.669947E+03	5.240037E-16	5.960321E-17
3.679893E+03	5.370529E-16	6.090951E-17
3.689839E+03	5.501645E-16	6.221412E-17
3.699784E+03	5.632881E-16	6.351131E-17
3.709730E+03	5.764336E-16	6.480217E-17
3.719676E+03	5.895996E-16	6.608654E-17
3.729621E+03	6.028020E-16	6.736617E-17
3.739567E+03	6.160733E-16	6.864464E-17
3.749513E+03	6.294612E-16	6.992721E-17
3.759458E+03	6.430531E-16	7.122344E-17
3.769404E+03	6.569182E-16	7.254078E-17
3.779350E+03	6.711027E-16	7.388404E-17
3.789295E+03	6.857281E-16	7.526626E-17
3.799241E+03	7.008073E-16	7.668844E-17
3.809187E+03	7.164193E-16	7.815873E-17
3.819132E+03	7.326029E-16	7.968086E-17
3.829078E+03	7.494075E-16	8.125960E-17
3.839024E+03	7.668064E-16	8.289150E-17
3.848969E+03	7.847975E-16	8.457575E-17
3.858915E+03	8.033146E-16	8.630465E-17
3.868861E+03	8.222175E-16	8.806272E-17
3.878806E+03	8.413685E-16	8.983488E-17
3.888752E+03	8.605503E-16	9.159778E-17
3.898698E+03	8.794904E-16	9.332250E-17
3.908643E+03	8.978708E-16	9.497569E-17
3.918589E+03	9.153411E-16	9.652100E-17
3.928534E+03	9.315614E-16	9.792362E-17
3.938480E+03	9.461427E-16	9.914408E-17
3.948426E+03	9.587509E-16	1.001491E-16
3.958371E+03	9.691332E-16	1.009144E-16
3.968317E+03	9.770527E-16	1.014177E-16
3.978263E+03	9.823840E-16	1.016483E-16
3.988208E+03	9.851260E-16	1.016088E-16
3.998154E+03	9.853432E-16	1.013083E-16
4.008100E+03	9.831619E-16	1.007624E-16
4.018045E+03	9.788132E-16	9.999706E-17
4.027991E+03	9.726136E-16	9.904659E-17
4.037937E+03	9.648696E-16	9.794397E-17
4.047882E+03	9.559363E-16	9.672665E-17
4.057828E+03	9.461949E-16	9.543424E-17
4.067774E+03	9.359660E-16	9.409979E-17
4.077719E+03	9.255447E-16	9.275335E-17
4.087665E+03	9.152585E-16	9.142782E-17
4.097611E+03	9.053112E-16	9.014338E-17
4.107556E+03	8.959313E-16	8.892238E-17
4.117502E+03	8.872685E-16	8.777911E-17
4.127448E+03	8.794563E-16	8.672603E-17
4.137393E+03	8.725921E-16	8.577194E-17
4.147339E+03	8.667175E-16	8.492001E-17
4.157285E+03	8.618762E-16	8.417359E-17
4.167230E+03	8.580209E-16	8.352711E-17
4.177176E+03	8.551248E-16	8.297707E-17
4.187122E+03	8.530967E-16	8.251377E-17
4.197067E+03	8.518223E-16	8.212539E-17
4.207013E+03	8.511991E-16	8.180142E-17
4.216959E+03	8.510657E-16	8.152583E-17
4.226904E+03	8.512883E-16	8.128542E-17
4.236850E+03	8.517324E-16	8.106710E-17
4.246796E+03	8.522394E-16	8.085566E-17
4.256741E+03	8.526914E-16	8.063993E-17
4.266687E+03	8.529691E-16	8.040875E-17
4.276632E+03	8.529834E-16	8.015397E-17
4.286578E+03	8.526395E-16	7.986696E-17
4.296524E+03	8.518968E-16	7.954430E-17
4.306469E+03	8.507223E-16	7.918331E-17
4.316415E+03	8.491532E-16	7.878787E-17
4.326361E+03	8.472469E-16	7.836366E-17
4.336306E+03	8.451294E-16	7.792262E-17
4.346252E+03	8.430074E-16	7.748398E-17
4.356198E+03	8.411296E-16	7.707055E-17
4.366143E+03	8.398215E-16	7.671190E-17
4.376089E+03	8.394520E-16	7.644113E-17
4.386035E+03	8.403703E-16	7.628916E-17
4.395980E+03	8.429781E-16	7.629126E-17
4.405926E+03	8.476232E-16	7.647741E-17
4.415872E+03	8.546632E-16	7.687811E-17
4.425817E+03	8.644570E-16	7.752361E-17
4.435763E+03	8.772885E-16	7.843712E-17
4.445709E+03	8.934710E-16	7.964417E-17
4.455654E+03	9.132497E-16	8.116393E-17
4.465600E+03	9.368241E-16	8.301134E-17
4.475546E+03	9.643654E-16	8.519866E-17
4.485491E+03	9.959735E-16	8.773172E-17
4.495437E+03	1.031620E-15	9.060509E-17
4.505383E+03	1.071182E-15	9.380501E-17
4.515328E+03	1.114356E-15	9.730222E-17
4.525274E+03	1.160709E-15	1.010566E-16
4.535220E+03	1.209536E-15	1.050048E-16
4.545165E+03	1.259966E-15	1.090699E-16
4.555111E+03	1.310922E-15	1.131579E-16
4.565057E+03	1.361106E-15	1.171572E-16
4.575002E+03	1.409129E-15	1.209494E-16
4.584948E+03	1.453496E-15	1.244085E-16
4.594894E+03	1.492693E-15	1.274080E-16
4.604839E+03	1.525342E-15	1.298348E-16
4.614785E+03	1.550275E-15	1.315944E-16
4.624730E+03	1.566600E-15	1.326172E-16
4.634676E+03	1.573788E-15	1.328645E-16
4.644622E+03	1.571780E-15	1.323376E-16
4.654567E+03	1.560929E-15	1.310725E-16
4.664513E+03	1.541958E-15	1.291357E-16
4.674459E+03	1.515939E-15	1.266221E-16
4.684404E+03	1.484191E-15	1.236462E-16
4.694350E+03	1.448099E-15	1.203265E-16
4.704296E+03	1.409123E-15	1.167867E-16
4.714241E+03	1.368614E-15	1.131401E-16
4.724187E+03	1.327824E-15	1.094907E-16
4.734133E+03	1.287845E-15	1.059281E-16
4.744078E+03	1.249542E-15	1.025227E-16
4.754024E+03	1.213593E-15	9.932856E-17
4.763970E+03	1.180492E-15	9.638447E-17
4.773915E+03	1.150538E-15	9.371288E-17
4.783861E+03	1.123934E-15	9.132828E-17
4.793807E+03	1.100748E-15	8.923397E-17
4.803752E+03	1.080961E-15	8.742635E-17
4.813698E+03	1.064516E-15	8.589877E-17
4.823644E+03	1.051276E-15	8.463835E-17
4.833589E+03	1.041087E-15	8.363079E-17
4.843535E+03	1.033732E-15	8.285704E-17
4.853481E+03	1.028955E-15	8.229517E-17
4.863426E+03	1.026473E-15	8.192124E-17
4.873372E+03	1.025976E-15	8.170942E-17
4.883318E+03	1.027064E-15	8.162695E-17
4.893263E+03	1.029341E-15	8.164170E-17
4.903209E+03	1.032344E-15	8.171661E-17
4.913155E+03	1.035591E-15	8.181324E-17
4.923100E+03	1.038569E-15	8.189122E-17
4.933046E+03	1.040821E-15	8.191475E-17
4.942991E+03	1.041958E-15	8.185371E-17
4.952937E+03	1.041655E-15	8.168313E-17
4.962883E+03	1.039760E-15	8.139190E-17
4.972828E+03	1.036208E-15	8.097550E-17
4.982774E+03	1.031094E-15	8.044219E-17
4.992720E+03	1.024621E-15	7.980836E-17
5.002665E+03	1.017102E-15	7.909875E-17
5.012611E+03	1.008892E-15	7.834145E-17
5.022557E+03	1.000402E-15	7.756853E-17
5.032502E+03	9.920396E-16	7.681156E-17
5.042448E+03	9.841979E-16	7.610088E-17
5.052394E+03	9.772390E-16	7.546429E-17
5.062339E+03	9.714854E-16	7.492637E-17
5.072285E+03	9.672162E-16	7.450828E-17
5.082231E+03	9.646778E-16	7.422861E-17
5.092176E+03	9.640675E-16	7.410210E-17
5.102122E+03	9.655449E-16	7.414061E-17
5.112068E+03	9.692346E-16	7.435332E-17
5.122013E+03	9.752578E-16	7.474918E-17
5.131959E+03	9.837133E-16	7.533546E-17
5.141905E+03	9.946517E-16	7.611578E-17
5.151850E+03	1.008129E-15	7.709430E-17
5.161796E+03	1.024177E-15	7.827329E-17
5.171742E+03	1.042778E-15	7.965135E-17
5.181687E+03	1.063882E-15	8.122487E-17
5.191633E+03	1.087399E-15	8.298709E-17
5.201579E+03	1.113201E-15	8.492857E-17
5.211524E+03	1.141068E-15	8.703287E-17
5.221470E+03	1.170773E-15	8.928308E-17
5.231416E+03	1.201996E-15	9.165547E-17
5.241361E+03	1.234393E-15	9.412441E-17
5.251307E+03	1.267540E-15	9.665834E-17
5.261253E+03	1.301025E-15	9.922643E-17
5.271198E+03	1.334406E-15	1.017959E-16
5.281144E+03	1.367249E-15	1.043342E-16
5.291089E+03	1.399134E-15	1.068102E-16
5.301035E+03	1.429671E-15	1.091946E-16
5.310981E+03	1.458533E-15	1.114631E-16
5.320926E+03	1.485479E-15	1.135977E-16
5.330872E+03	1.510301E-15	1.155828E-16
5.340818E+03	1.532930E-15	1.174136E-16
5.350763E+03	1.553295E-15	1.190847E-16
5.360709E+03	1.571465E-15	1.206016E-16
5.370655E+03	1.587518E-15	1.219701E-16
5.380600E+03	1.601547E-15	1.231973E-16
5.390546E+03	1.613724E-15	1.242965E-16
5.400492E+03	1.624141E-15	1.252745E-16
5.410437E+03	1.632860E-15	1.261358E-16
5.420383E+03	1.639756E-15	1.268705E-16
5.430329E+03	1.644609E-15	1.274606E-16
5.440274E+03	1.647118E-15	1.278821E-16
5.450220E+03	1.646979E-15	1.281100E-16
5.460166E+03	1.643873E-15	1.281183E-16
5.470111E+03	1.637449E-15	1.278780E-16
5.480057E+03	1.627383E-15	1.273618E-16
5.490003E+03	1.613423E-15	1.265478E-16
5.499948E+03	1.595303E-15	1.254124E-16
5.509894E+03	1.572872E-15	1.239412E-16
5.519840E+03	1.546095E-15	1.221283E-16
5.529785E+03	1.515068E-15	1.199780E-16
5.539731E+03	1.480037E-15	1.175068E-16
5.549677E+03	1.441435E-15	1.147457E-16
5.559622E+03	1.399864E-15	1.117397E-16
5.569568E+03	1.356014E-15	1.085412E-16
5.579514E+03	1.310742E-15	1.052165E-16
5.589459E+03	1.264948E-15	1.018362E-16
5.599405E+03	1.219555E-15	9.847369E-17
5.609351E+03	1.175511E-15	9.520493E-17
5.619296E+03	1.133662E-15	9.209894E-17
5.629242E+03	1.094792E-15	8.922039E-17
5.639187E+03	1.059565E-15	8.662517E-17
5.649133E+03	1.028529E-15	8.436039E-17
5.659079E+03	1.002112E-15	8.246409E-17
5.669024E+03	9.806802E-16	8.096969E-17
5.678970E+03	9.644946E-16	7.990256E-17
5.688916E+03	9.537712E-16	7.928470E-17
5.698861E+03	9.486466E-16	7.913190E-17
5.708807E+03	9.491990E-16	7.945538E-17
5.718753E+03	9.554290E-16	8.026007E-17
5.728698E+03	9.672412E-16	8.154296E-17
5.738644E+03	9.844723E-16	8.329529E-17
5.748590E+03	1.006851E-15	8.549907E-17
5.758535E+03	1.033983E-15	8.812558E-17
5.768481E+03	1.065365E-15	9.113649E-17
5.778427E+03	1.100337E-15	9.447933E-17
5.788372E+03	1.138074E-15	9.808664E-17
5.798318E+03	1.177625E-15	1.018792E-16
5.808264E+03	1.217889E-15	1.057634E-16
5.818209E+03	1.257690E-15	1.096377E-16
5.828155E+03	1.295788E-15	1.133933E-16
5.838101E+03	1.330941E-15	1.169197E-16
5.848046E+03	1.361987E-15	1.201116E-16
5.857992E+03	1.387908E-15	1.228749E-16
5.867938E+03	1.407841E-15	1.251276E-16
5.877883E+03	1.421209E-15	1.268120E-16
5.887829E+03	1.427642E-15	1.278880E-16
5.897775E+03	1.427092E-15	1.283441E-16
5.907720E+03	1.419768E-15	1.281915E-16
5.917666E+03	1.406111E-15	1.274628E-16
5.927612E+03	1.386793E-15	1.262121E-16
5.937557E+03	1.362647E-15	1.245092E-16
5.947503E+03	1.334615E-15	1.224349E-16
5.957449E+03	1.303673E-15	1.200747E-16
5.967394E+03	1.270815E-15	1.175170E-16
5.977340E+03	1.236978E-15	1.148464E-16
5.987285E+03	1.203017E-15	1.121411E-16
5.997231E+03	1.169651E-15	1.094683E-16
6.007177E+03	1.137523E-15	1.068886E-16
6.017122E+03	1.107083E-15	1.044457E-16
6.027068E+03	1.078715E-15	1.021776E-16
6.037014E+03	1.052626E-15	1.001062E-16
6.046959E+03	1.028971E-15	9.824879E-17
6.056905E+03	1.007768E-15	9.660961E-17
6.066851E+03	9.889690E-16	9.518682E-17
6.076796E+03	9.724832E-16	9.397420E-17
6.086742E+03	9.581391E-16	9.295770E-17
6.096688E+03	9.457556E-16	9.212204E-17
6.106633E+03	9.351296E-16	9.144956E-17
6.116579E+03	9.260370E-16	9.092021E-17
6.126525E+03	9.182529E-16	9.051354E-17
6.136470E+03	9.115822E-16	9.021169E-17
6.146416E+03	9.058099E-16	8.999455E-17
6.156362E+03	9.007315E-16	8.984273E-17
6.166307E+03	8.961762E-16	8.973985E-17
6.176253E+03	8.919805E-16	8.967007E-17
6.186199E+03	8.880040E-16	8.961958E-17
6.196144E+03	8.841312E-16	8.957688E-17
6.206090E+03	8.802876E-16	8.953448E-17
6.216036E+03	8.764371E-16	8.948868E-17
6.225981E+03	8.725665E-16	8.943807E-17
6.235927E+03	8.687357E-16	8.938876E-17
6.245873E+03	8.650202E-16	8.934855E-17
6.255818E+03	8.615470E-16	8.933070E-17
6.265764E+03	8.585050E-16	8.935513E-17
6.275710E+03	8.560528E-16	8.943888E-17
6.285655E+03	8.544087E-16	8.960551E-17
6.295601E+03	8.537759E-16	8.987735E-17
6.305546E+03	8.543456E-16	9.027575E-17
6.315492E+03	8.562881E-16	9.082020E-17
6.325438E+03	8.597326E-16	9.152603E-17
6.335383E+03	8.647917E-16	9.240703E-17
6.345329E+03	8.714993E-16	9.346874E-17
6.355275E+03	8.798385E-16	9.471125E-17
6.365220E+03	8.897305E-16	9.612795E-17
6.375166E+03	9.010124E-16	9.770299E-17
6.385112E+03	9.134789E-16	9.941564E-17
6.395057E+03	9.268146E-16	1.012328E-16
6.405003E+03	9.406511E-16	1.031151E-16
6.414949E+03	9.545536E-16	1.050152E-16
6.424894E+03	9.680421E-16	1.068803E-16
6.434840E+03	9.805701E-16	1.086491E-16
6.444786E+03	9.915593E-16	1.102563E-16
6.454731E+03	1.000443E-15	1.116367E-16
6.464677E+03	1.006659E-15	1.127247E-16
6.474623E+03	1.009676E-15	1.134579E-16
6.484568E+03	1.009032E-15	1.137798E-16
6.494514E+03	1.004349E-15	1.136438E-16
6.504460E+03	9.953731E-16	1.130161E-16
6.514405E+03	9.819703E-16	1.118765E-16
6.524351E+03	9.641503E-16	1.102208E-16
6.534297E+03	9.420910E-16	1.080645E-16
6.544242E+03	9.160894E-16	1.054366E-16
6.554188E+03	8.865618E-16	1.023809E-16
6.564134E+03	8.540668E-16	9.895785E-17
6.574079E+03	8.191950E-16	9.523285E-17
6.584025E+03	7.825915E-16	9.127843E-17
6.593971E+03	7.449305E-16	8.717157E-17
6.603916E+03	7.068352E-16	8.298428E-17
6.613862E+03	6.689323E-16	7.878993E-17
6.623808E+03	6.317622E-16	7.465272E-17
6.633753E+03	5.957827E-16	7.062780E-17
6.643699E+03	5.613757E-16	6.676207E-17
6.653644E+03	5.288577E-16	6.309511E-17
6.663590E+03	4.984224E-16	5.965236E-17
6.673536E+03	4.702254E-16	5.645492E-17
6.683481E+03	4.443332E-16	5.351340E-17
6.693427E+03	4.207646E-16	5.083275E-17
6.703373E+03	3.995007E-16	4.841333E-17
6.713318E+03	3.804860E-16	4.625105E-17
6.723264E+03	3.636434E-16	4.433909E-17
6.733210E+03	3.488817E-16	4.266873E-17
6.743155E+03	3.361059E-16	4.123070E-17
6.753101E+03	3.252088E-16	4.001405E-17
6.763047E+03	3.160908E-16	3.900858E-17
6.772992E+03	3.086499E-16	3.820368E-17
6.782938E+03	3.027849E-16	3.758863E-17
6.792884E+03	2.984094E-16	3.715444E-17
6.802829E+03	2.954317E-16	3.689128E-17
6.812775E+03	2.937689E-16	3.679033E-17
6.822721E+03	2.933472E-16	3.684373E-17
6.832666E+03	2.940897E-16	3.704316E-17
6.842612E+03	2.959313E-16	3.738163E-17
6.852558E+03	2.988021E-16	3.785148E-17
6.862503E+03	3.026383E-16	3.844570E-17
6.872449E+03	3.073846E-16	3.915826E-17
6.882395E+03	3.129716E-16	3.998126E-17
6.892340E+03	3.193411E-16	4.090811E-17
6.902286E+03	3.264275E-16	4.193119E-17
6.912232E+03	3.341733E-16	4.304384E-17
6.922177E+03	3.425181E-16	4.423892E-17
6.932123E+03	3.514030E-16	4.550939E-17
6.942069E+03	3.607719E-16	4.684852E-17
6.952014E+03	3.705681E-16	4.824939E-17
6.961960E+03	3.807494E-16	4.970688E-17
6.971906E+03	3.912712E-16	5.121553E-17
6.981851E+03	4.021113E-16	5.277277E-17
6.991797E+03	4.132358E-16	5.437438E-17
7.001742E+03	4.246280E-16	5.601842E-17
7.011688E+03	4.362835E-16	5.770456E-17
7.021634E+03	4.481974E-16	5.943236E-17
7.031579E+03	4.603615E-16	6.120093E-17
7.041525E+03	4.727731E-16	6.301016E-17
7.051471E+03	4.854278E-16	6.485963E-17
7.061416E+03	4.983233E-16	6.674925E-17
7.071362E+03	5.114396E-16	6.867651E-17
7.081308E+03	5.247555E-16	7.063874E-17
7.091253E+03	5.382358E-16	7.263133E-17
7.101199E+03	5.518575E-16	7.465128E-17
7.111145E+03	5.655621E-16	7.669075E-17
7.121090E+03	5.792971E-16	7.874263E-17
7.131036E+03	5.930095E-16	8.079969E-17
7.140982E+03	6.066341E-16	8.285293E-17
7.150927E+03	6.200824E-16	8.489011E-17
7.160873E+03	6.332866E-16	8.690169E-17
7.170819E+03	6.461590E-16	8.887534E-17
7.180764E+03	6.586370E-16	9.080204E-17
7.190710E+03	6.706171E-16	9.266708E-17
7.200656E+03	6.820336E-16	9.446083E-17
7.210601E+03	6.928192E-16	9.617336E-17
7.220547E+03	7.029049E-16	9.779446E-17
7.230493E+03	7.122502E-16	9.931775E-17
7.240438E+03	7.207989E-16	1.007347E-16
7.250384E+03	7.285262E-16	1.020410E-16
7.260330E+03	7.354196E-16	1.032341E-16
7.270275E+03	7.414810E-16	1.043134E-16
7.280221E+03	7.467159E-16	1.052791E-16
7.290167E+03	7.511422E-16	1.061328E-16
7.300112E+03	7.548003E-16	1.068794E-16
7.310058E+03	7.577303E-16	1.075240E-16
7.320004E+03	7.599910E-16	1.080742E-16
7.329949E+03	7.616362E-16	1.085371E-16
7.339895E+03	7.627330E-16	1.089218E-16
7.349840E+03	7.633258E-16	1.092340E-16
7.359786E+03	7.634747E-16	1.094819E-16
7.369732E+03	7.632212E-16	1.096712E-16
7.379677E+03	7.626141E-16	1.098084E-16
7.389623E+03	7.616625E-16	1.098946E-16
7.399569E+03	7.603920E-16	1.099332E-16
7.409514E+03	7.588160E-16	1.099258E-16
7.419460E+03	7.569448E-16	1.098737E-16
7.429406E+03	7.547961E-16	1.097792E-16
7.439351E+03	7.523795E-16	1.096435E-16
7.449297E+03	7.497140E-16	1.094691E-16
7.459243E+03	7.468166E-16	1.092584E-16
7.469188E+03	7.436947E-16	1.090121E-16
7.479134E+03	7.403661E-16	1.087328E-16
7.489080E+03	7.368364E-16	1.084211E-16
7.499025E+03	7.331106E-16	1.080776E-16
7.508971E+03	7.292037E-16	1.077044E-16
7.518917E+03	7.251290E-16	1.073033E-16
7.528862E+03	7.208795E-16	1.068731E-16
7.538808E+03	7.164663E-16	1.064153E-16
7.548754E+03	7.119009E-16	1.059316E-16
7.558699E+03	7.071731E-16	1.054204E-16
7.568645E+03	7.023021E-16	1.048843E-16
7.578591E+03	6.972673E-16	1.043202E-16
7.588536E+03	6.920770E-16	1.037292E-16
7.598482E+03	6.867379E-16	1.031122E-16
7.608428E+03	6.812478E-16	1.024689E-16
7.618373E+03	6.755937E-16	1.017971E-16
7.628319E+03	6.697830E-16	1.010979E-16
7.638265E+03	6.638118E-16	1.003705E-16
7.648210E+03	6.576776E-16	9.961450E-17
7.658156E+03	6.513777E-16	9.882937E-17
7.668101E+03	6.449096E-16	9.801461E-17
7.678047E+03	6.382798E-16	9.717114E-17
7.687993E+03	6.314700E-16	9.629604E-17
7.697938E+03	6.244961E-16	9.539163E-17
7.707884E+03	6.173500E-16	9.445658E-17
7.717830E+03	6.100313E-16	9.349073E-17
