#wls	flux	fluxerr
1.591305E+03	4.738684E-17	6.591349E-18
1.631088E+03	4.702238E-17	6.533415E-18
1.670870E+03	4.648815E-17	6.451893E-18
1.710653E+03	4.580388E-17	6.349600E-18
1.750436E+03	4.495885E-17	6.225127E-18
1.790218E+03	4.392356E-17	6.074480E-18
1.830001E+03	4.266748E-17	5.893547E-18
1.869784E+03	4.114965E-17	5.676797E-18
1.909566E+03	3.933762E-17	5.419909E-18
1.949349E+03	3.722992E-17	5.122854E-18
1.989131E+03	3.489898E-17	4.795760E-18
2.028914E+03	3.251382E-17	4.461969E-18
2.068697E+03	3.037724E-17	4.163029E-18
2.108479E+03	2.884560E-17	3.947589E-18
2.148262E+03	2.820511E-17	3.854429E-18
2.188045E+03	2.853669E-17	3.894075E-18
2.227827E+03	2.972316E-17	4.049977E-18
2.267610E+03	3.150730E-17	4.286611E-18
2.307392E+03	3.362811E-17	4.568133E-18
2.347175E+03	3.588587E-17	4.867225E-18
2.386958E+03	3.815096E-17	5.166227E-18
2.426740E+03	4.037846E-17	5.459033E-18
2.466523E+03	4.255126E-17	5.743340E-18
2.506306E+03	4.469596E-17	6.022748E-18
2.546088E+03	4.684592E-17	6.301742E-18
2.585871E+03	4.902597E-17	6.583632E-18
2.625653E+03	5.127548E-17	6.873656E-18
2.665436E+03	5.365050E-17	7.179242E-18
2.705219E+03	5.617351E-17	7.503286E-18
2.745001E+03	5.890366E-17	7.853544E-18
2.784784E+03	6.187943E-17	8.234960E-18
2.824567E+03	6.516450E-17	8.655788E-18
2.864349E+03	6.878669E-17	9.119456E-18
2.904132E+03	7.283384E-17	9.637306E-18
2.943914E+03	7.735136E-17	1.021497E-17
2.983697E+03	8.241575E-17	1.086214E-17
2.993643E+03	8.378365E-17	1.103690E-17
3.003588E+03	8.518828E-17	1.121629E-17
3.013534E+03	8.663076E-17	1.140046E-17
3.023480E+03	8.812259E-17	1.159092E-17
3.033425E+03	8.967070E-17	1.178857E-17
3.043371E+03	9.127000E-17	1.199272E-17
3.053317E+03	9.293476E-17	1.220524E-17
3.063262E+03	9.466509E-17	1.242613E-17
3.073208E+03	9.645161E-17	1.265414E-17
3.083154E+03	9.830415E-17	1.289055E-17
3.093099E+03	1.002232E-16	1.313541E-17
3.103045E+03	1.021994E-16	1.338748E-17
3.112991E+03	1.042532E-16	1.364945E-17
3.122936E+03	1.063657E-16	1.391878E-17
3.132882E+03	1.085475E-16	1.419688E-17
3.142828E+03	1.108101E-16	1.448522E-17
3.152773E+03	1.131341E-16	1.478126E-17
3.162719E+03	1.155309E-16	1.508647E-17
3.172665E+03	1.180125E-16	1.540241E-17
3.182610E+03	1.205591E-16	1.572646E-17
3.192556E+03	1.231937E-16	1.606162E-17
3.202502E+03	1.259072E-16	1.640668E-17
3.212447E+03	1.287011E-16	1.676183E-17
3.222393E+03	1.315887E-16	1.712876E-17
3.232339E+03	1.345607E-16	1.750624E-17
3.242284E+03	1.376189E-16	1.789451E-17
3.252230E+03	1.407770E-16	1.829532E-17
3.262175E+03	1.440376E-16	1.870898E-17
3.272121E+03	1.473910E-16	1.913421E-17
3.282067E+03	1.508395E-16	1.957129E-17
3.292012E+03	1.543976E-16	2.002209E-17
3.301958E+03	1.580681E-16	2.048693E-17
3.311904E+03	1.618538E-16	2.096616E-17
3.321849E+03	1.657574E-16	2.146010E-17
3.331795E+03	1.697691E-16	2.196745E-17
3.341741E+03	1.739176E-16	2.249191E-17
3.351686E+03	1.781797E-16	2.303045E-17
3.361632E+03	1.825851E-16	2.358687E-17
3.371578E+03	1.871100E-16	2.415809E-17
3.381523E+03	1.917848E-16	2.474798E-17
3.391469E+03	1.965992E-16	2.535518E-17
3.401415E+03	2.015705E-16	2.598191E-17
3.411360E+03	2.066881E-16	2.662675E-17
3.421306E+03	2.119553E-16	2.729011E-17
3.431252E+03	2.173899E-16	2.797422E-17
3.441197E+03	2.229806E-16	2.867762E-17
3.451143E+03	2.287454E-16	2.940258E-17
3.461089E+03	2.346878E-16	3.014950E-17
3.471034E+03	2.408108E-16	3.091874E-17
3.480980E+03	2.471018E-16	3.170864E-17
3.490926E+03	2.535788E-16	3.252146E-17
3.500871E+03	2.602603E-16	3.335956E-17
3.510817E+03	2.671166E-16	3.421905E-17
3.520763E+03	2.741820E-16	3.510432E-17
3.530708E+03	2.814422E-16	3.601347E-17
3.540654E+03	2.888985E-16	3.694663E-17
3.550600E+03	2.965690E-16	3.790608E-17
3.560545E+03	3.044376E-16	3.888971E-17
3.570491E+03	3.125046E-16	3.989752E-17
3.580436E+03	3.207877E-16	4.093171E-17
3.590382E+03	3.292870E-16	4.199226E-17
3.600328E+03	3.380020E-16	4.307906E-17
3.610273E+03	3.469131E-16	4.418956E-17
3.620219E+03	3.560557E-16	4.532823E-17
3.630165E+03	3.653904E-16	4.649000E-17
3.640110E+03	3.749522E-16	4.767928E-17
3.650056E+03	3.846992E-16	4.889072E-17
3.660002E+03	3.946661E-16	5.012865E-17
3.669947E+03	4.048483E-16	5.139245E-17
3.679893E+03	4.152202E-16	5.267884E-17
3.689839E+03	4.257747E-16	5.398688E-17
3.699784E+03	4.365239E-16	5.531806E-17
3.709730E+03	4.474383E-16	5.666861E-17
3.719676E+03	4.585279E-16	5.803973E-17
3.729621E+03	4.697798E-16	5.942979E-17
3.739567E+03	4.811810E-16	6.083709E-17
3.749513E+03	4.927142E-16	6.225943E-17
3.759458E+03	5.043618E-16	6.369457E-17
3.769404E+03	5.161029E-16	6.513982E-17
3.779350E+03	5.279135E-16	6.659215E-17
3.789295E+03	5.397673E-16	6.804824E-17
3.799241E+03	5.516581E-16	6.950730E-17
3.809187E+03	5.635313E-16	7.096243E-17
3.819132E+03	5.753735E-16	7.241199E-17
3.829078E+03	5.871022E-16	7.384559E-17
3.839024E+03	5.987445E-16	7.526667E-17
3.848969E+03	6.102115E-16	7.666408E-17
3.858915E+03	6.214816E-16	7.803517E-17
3.868861E+03	6.324839E-16	7.937107E-17
3.878806E+03	6.431950E-16	8.066891E-17
3.888752E+03	6.535669E-16	8.192276E-17
3.898698E+03	6.635528E-16	8.312683E-17
3.908643E+03	6.730840E-16	8.427259E-17
3.918589E+03	6.821416E-16	8.535781E-17
3.928534E+03	6.906866E-16	8.637770E-17
3.938480E+03	6.986840E-16	8.732799E-17
3.948426E+03	7.061055E-16	8.820530E-17
3.958371E+03	7.129060E-16	8.900412E-17
3.968317E+03	7.190921E-16	8.972539E-17
3.978263E+03	7.246561E-16	9.036831E-17
3.988208E+03	7.295976E-16	9.093297E-17
3.998154E+03	7.339239E-16	9.142040E-17
4.008100E+03	7.376283E-16	9.182991E-17
4.018045E+03	7.407562E-16	9.216730E-17
4.027991E+03	7.433148E-16	9.243358E-17
4.037937E+03	7.453420E-16	9.263358E-17
4.047882E+03	7.468998E-16	9.277513E-17
4.057828E+03	7.480344E-16	9.286406E-17
4.067774E+03	7.487545E-16	9.290156E-17
4.077719E+03	7.491337E-16	9.289684E-17
4.087665E+03	7.492266E-16	9.285672E-17
4.097611E+03	7.490877E-16	9.278804E-17
4.107556E+03	7.487524E-16	9.269524E-17
4.117502E+03	7.482940E-16	9.258741E-17
4.127448E+03	7.477455E-16	9.246868E-17
4.137393E+03	7.471388E-16	9.234302E-17
4.147339E+03	7.465585E-16	9.222088E-17
4.157285E+03	7.460129E-16	9.210329E-17
4.167230E+03	7.455440E-16	9.199543E-17
4.177176E+03	7.451734E-16	9.189995E-17
4.187122E+03	7.449726E-16	9.182567E-17
4.197067E+03	7.449406E-16	9.177241E-17
4.207013E+03	7.451079E-16	9.174391E-17
4.216959E+03	7.455051E-16	9.174391E-17
4.226904E+03	7.461427E-16	9.177365E-17
4.236850E+03	7.470479E-16	9.183644E-17
4.246796E+03	7.482300E-16	9.193337E-17
4.256741E+03	7.497312E-16	9.206958E-17
4.266687E+03	7.515600E-16	9.224606E-17
4.276632E+03	7.537433E-16	9.246605E-17
4.286578E+03	7.562757E-16	9.272884E-17
4.296524E+03	7.592165E-16	9.304163E-17
4.306469E+03	7.625487E-16	9.340225E-17
4.316415E+03	7.663337E-16	9.381820E-17
4.326361E+03	7.705749E-16	9.428979E-17
4.336306E+03	7.753090E-16	9.482144E-17
4.346252E+03	7.805760E-16	9.541797E-17
4.356198E+03	7.864040E-16	9.608272E-17
4.366143E+03	7.928385E-16	9.682115E-17
4.376089E+03	7.999086E-16	9.763674E-17
4.386035E+03	8.076571E-16	9.853459E-17
4.395980E+03	8.161225E-16	9.951930E-17
4.405926E+03	8.253220E-16	1.005928E-16
4.415872E+03	8.352935E-16	1.017597E-16
4.425817E+03	8.460081E-16	1.030163E-16
4.435763E+03	8.574967E-16	1.043662E-16
4.445709E+03	8.697341E-16	1.058064E-16
4.455654E+03	8.826945E-16	1.073334E-16
4.465600E+03	8.963062E-16	1.089385E-16
4.475546E+03	9.105408E-16	1.106182E-16
4.485491E+03	9.253057E-16	1.123612E-16
4.495437E+03	9.404914E-16	1.141541E-16
4.505383E+03	9.559842E-16	1.159830E-16
4.515328E+03	9.716682E-16	1.178339E-16
4.525274E+03	9.873645E-16	1.196851E-16
4.535220E+03	1.002926E-15	1.215188E-16
4.545165E+03	1.018180E-15	1.233141E-16
4.555111E+03	1.032927E-15	1.250469E-16
4.565057E+03	1.046980E-15	1.266948E-16
4.575002E+03	1.060151E-15	1.282351E-16
4.584948E+03	1.072275E-15	1.296479E-16
4.594894E+03	1.083163E-15	1.309108E-16
4.604839E+03	1.092642E-15	1.320029E-16
4.614785E+03	1.100608E-15	1.329119E-16
4.624730E+03	1.106916E-15	1.336206E-16
4.634676E+03	1.111498E-15	1.341211E-16
4.644622E+03	1.114303E-15	1.344074E-16
4.654567E+03	1.115309E-15	1.344770E-16
4.664513E+03	1.114511E-15	1.343298E-16
4.674459E+03	1.111987E-15	1.339753E-16
4.684404E+03	1.107778E-15	1.334187E-16
4.694350E+03	1.102018E-15	1.326763E-16
4.704296E+03	1.094798E-15	1.317595E-16
4.714241E+03	1.086294E-15	1.306893E-16
4.724187E+03	1.076647E-15	1.294831E-16
4.734133E+03	1.066023E-15	1.281608E-16
4.744078E+03	1.054594E-15	1.267434E-16
4.754024E+03	1.042559E-15	1.252546E-16
4.763970E+03	1.030057E-15	1.237114E-16
4.773915E+03	1.017259E-15	1.221343E-16
4.783861E+03	1.004316E-15	1.205414E-16
4.793807E+03	9.913634E-16	1.189490E-16
4.803752E+03	9.785368E-16	1.173733E-16
4.813698E+03	9.659307E-16	1.158256E-16
4.823644E+03	9.536495E-16	1.143184E-16
4.833589E+03	9.417833E-16	1.128624E-16
4.843535E+03	9.303695E-16	1.114621E-16
4.853481E+03	9.194827E-16	1.101263E-16
4.863426E+03	9.091586E-16	1.088593E-16
4.873372E+03	8.994230E-16	1.076640E-16
4.883318E+03	8.902929E-16	1.065424E-16
4.893263E+03	8.817874E-16	1.054968E-16
4.903209E+03	8.738971E-16	1.045259E-16
4.913155E+03	8.666301E-16	1.036306E-16
4.923100E+03	8.599912E-16	1.028115E-16
4.933046E+03	8.539489E-16	1.020647E-16
4.942991E+03	8.485267E-16	1.013929E-16
4.952937E+03	8.436925E-16	1.007923E-16
4.962883E+03	8.394472E-16	1.002630E-16
4.972828E+03	8.357844E-16	9.980409E-17
4.982774E+03	8.327086E-16	9.941607E-17
4.992720E+03	8.302047E-16	9.909713E-17
5.002665E+03	8.282939E-16	9.884973E-17
5.012611E+03	8.269559E-16	9.867143E-17
5.022557E+03	8.262038E-16	9.856376E-17
5.032502E+03	8.260440E-16	9.852743E-17
5.042448E+03	8.264918E-16	9.856424E-17
5.052394E+03	8.275557E-16	9.867519E-17
5.062339E+03	8.292307E-16	9.885964E-17
5.072285E+03	8.315246E-16	9.911851E-17
5.082231E+03	8.344630E-16	9.945484E-17
5.092176E+03	8.380271E-16	9.986635E-17
5.102122E+03	8.422384E-16	1.003556E-16
5.112068E+03	8.470727E-16	1.009197E-16
5.122013E+03	8.525307E-16	1.015587E-16
5.131959E+03	8.586116E-16	1.022726E-16
5.141905E+03	8.652740E-16	1.030564E-16
5.151850E+03	8.725143E-16	1.039096E-16
5.161796E+03	8.802897E-16	1.048272E-16
5.171742E+03	8.885516E-16	1.058035E-16
5.181687E+03	8.972746E-16	1.068354E-16
5.191633E+03	9.063848E-16	1.079141E-16
5.201579E+03	9.158432E-16	1.090350E-16
5.211524E+03	9.255607E-16	1.101876E-16
5.221470E+03	9.354635E-16	1.113631E-16
5.231416E+03	9.454958E-16	1.125549E-16
5.241361E+03	9.555392E-16	1.137490E-16
5.251307E+03	9.655285E-16	1.149375E-16
5.261253E+03	9.753618E-16	1.161085E-16
5.271198E+03	9.849584E-16	1.172523E-16
5.281144E+03	9.942026E-16	1.183553E-16
5.291089E+03	1.003003E-15	1.194066E-16
5.301035E+03	1.011297E-15	1.203987E-16
5.310981E+03	1.018964E-15	1.213174E-16
5.320926E+03	1.025951E-15	1.221562E-16
5.330872E+03	1.032174E-15	1.229055E-16
5.340818E+03	1.037572E-15	1.235576E-16
5.350763E+03	1.042077E-15	1.241048E-16
5.360709E+03	1.045670E-15	1.245447E-16
5.370655E+03	1.048280E-15	1.248686E-16
5.380600E+03	1.049902E-15	1.250763E-16
5.390546E+03	1.050508E-15	1.251641E-16
5.400492E+03	1.050085E-15	1.251305E-16
5.410437E+03	1.048625E-15	1.249747E-16
5.420383E+03	1.046127E-15	1.246963E-16
5.430329E+03	1.042594E-15	1.242955E-16
5.440274E+03	1.038024E-15	1.237723E-16
5.450220E+03	1.032465E-15	1.231319E-16
5.460166E+03	1.025924E-15	1.223754E-16
5.470111E+03	1.018458E-15	1.215093E-16
5.480057E+03	1.010126E-15	1.205407E-16
5.490003E+03	1.001000E-15	1.194779E-16
5.499948E+03	9.911620E-16	1.183307E-16
5.509894E+03	9.807197E-16	1.171118E-16
5.519840E+03	9.697652E-16	1.158321E-16
5.529785E+03	9.584116E-16	1.145051E-16
5.539731E+03	9.467915E-16	1.131465E-16
5.549677E+03	9.350285E-16	1.117710E-16
5.559622E+03	9.232604E-16	1.103950E-16
5.569568E+03	9.115928E-16	1.090312E-16
5.579514E+03	9.001842E-16	1.076984E-16
5.589459E+03	8.891351E-16	1.064087E-16
5.599405E+03	8.785726E-16	1.051772E-16
5.609351E+03	8.686063E-16	1.040171E-16
5.619296E+03	8.593477E-16	1.029418E-16
5.629242E+03	8.508770E-16	1.019610E-16
5.639187E+03	8.432845E-16	1.010854E-16
5.649133E+03	8.366470E-16	1.003246E-16
5.659079E+03	8.310103E-16	9.968385E-17
5.669024E+03	8.264143E-16	9.916825E-17
5.678970E+03	8.228975E-16	9.878248E-17
5.688916E+03	8.204720E-16	9.852810E-17
5.698861E+03	8.191366E-16	9.840512E-17
5.708807E+03	8.188741E-16	9.841159E-17
5.718753E+03	8.196623E-16	9.854499E-17
5.728698E+03	8.214441E-16	9.879860E-17
5.738644E+03	8.241579E-16	9.916513E-17
5.748590E+03	8.277353E-16	9.963647E-17
5.758535E+03	8.320951E-16	1.002030E-16
5.768481E+03	8.371025E-16	1.008486E-16
5.778427E+03	8.426697E-16	1.015627E-16
5.788372E+03	8.486580E-16	1.023288E-16
5.798318E+03	8.549296E-16	1.031302E-16
5.808264E+03	8.613396E-16	1.039496E-16
5.818209E+03	8.677383E-16	1.047689E-16
5.828155E+03	8.739767E-16	1.055700E-16
5.838101E+03	8.799063E-16	1.063351E-16
5.848046E+03	8.853853E-16	1.070469E-16
5.857992E+03	8.902912E-16	1.076906E-16
5.867938E+03	8.944811E-16	1.082486E-16
5.877883E+03	8.978621E-16	1.087098E-16
5.887829E+03	9.003471E-16	1.090633E-16
5.897775E+03	9.018699E-16	1.093010E-16
5.907720E+03	9.023757E-16	1.094160E-16
5.917666E+03	9.018534E-16	1.094069E-16
5.927612E+03	9.003047E-16	1.092736E-16
5.937557E+03	8.977400E-16	1.090172E-16
5.947503E+03	8.942015E-16	1.086426E-16
5.957449E+03	8.897610E-16	1.081584E-16
5.967394E+03	8.844816E-16	1.075721E-16
5.977340E+03	8.784517E-16	1.068942E-16
5.987285E+03	8.717676E-16	1.061362E-16
5.997231E+03	8.645203E-16	1.053093E-16
6.007177E+03	8.568357E-16	1.044284E-16
6.017122E+03	8.487871E-16	1.035026E-16
6.027068E+03	8.405089E-16	1.025481E-16
6.037014E+03	8.320661E-16	1.015727E-16
6.046959E+03	8.235709E-16	1.005902E-16
6.056905E+03	8.150962E-16	9.960935E-17
6.066851E+03	8.067166E-16	9.863933E-17
6.076796E+03	7.984970E-16	9.768807E-17
6.086742E+03	7.904944E-16	9.676255E-17
6.096688E+03	7.827446E-16	9.586719E-17
6.106633E+03	7.752970E-16	9.500810E-17
6.116579E+03	7.681710E-16	9.418766E-17
6.126525E+03	7.613993E-16	9.340998E-17
6.136470E+03	7.549875E-16	9.267577E-17
6.146416E+03	7.489553E-16	9.198755E-17
6.156362E+03	7.432983E-16	9.134482E-17
6.166307E+03	7.380165E-16	9.074764E-17
6.176253E+03	7.331072E-16	9.019576E-17
6.186199E+03	7.285639E-16	8.968847E-17
6.196144E+03	7.243886E-16	8.922604E-17
6.206090E+03	7.205503E-16	8.880476E-17
6.216036E+03	7.170571E-16	8.842566E-17
6.225981E+03	7.138838E-16	8.808571E-17
6.235927E+03	7.110057E-16	8.778193E-17
6.245873E+03	7.084240E-16	8.751450E-17
6.255818E+03	7.061089E-16	8.727982E-17
6.265764E+03	7.040370E-16	8.707505E-17
6.275710E+03	7.021837E-16	8.689716E-17
6.285655E+03	7.005279E-16	8.674361E-17
6.295601E+03	6.990194E-16	8.660819E-17
6.305546E+03	6.976369E-16	8.648832E-17
6.315492E+03	6.963301E-16	8.637775E-17
6.325438E+03	6.950597E-16	8.627163E-17
6.335383E+03	6.937639E-16	8.616228E-17
6.345329E+03	6.923838E-16	8.604239E-17
6.355275E+03	6.908645E-16	8.590508E-17
6.365220E+03	6.891289E-16	8.574074E-17
6.375166E+03	6.871218E-16	8.554244E-17
6.385112E+03	6.847499E-16	8.529847E-17
6.395057E+03	6.819446E-16	8.500023E-17
6.405003E+03	6.786280E-16	8.463788E-17
6.414949E+03	6.747147E-16	8.420064E-17
6.424894E+03	6.701592E-16	8.368269E-17
6.434840E+03	6.648677E-16	8.307217E-17
6.444786E+03	6.587991E-16	8.236376E-17
6.454731E+03	6.518953E-16	8.155000E-17
6.464677E+03	6.441282E-16	8.062720E-17
6.474623E+03	6.354747E-16	7.959225E-17
6.484568E+03	6.259182E-16	7.844286E-17
6.494514E+03	6.154848E-16	7.718210E-17
6.504460E+03	6.041831E-16	7.581083E-17
6.514405E+03	5.920799E-16	7.433726E-17
6.524351E+03	5.792093E-16	7.276546E-17
6.534297E+03	5.656607E-16	7.110650E-17
6.544242E+03	5.515205E-16	6.937108E-17
6.554188E+03	5.368860E-16	6.757131E-17
6.564134E+03	5.218633E-16	6.572044E-17
6.574079E+03	5.065713E-16	6.383334E-17
6.584025E+03	4.911107E-16	6.192267E-17
6.593971E+03	4.756175E-16	6.000552E-17
6.603916E+03	4.601905E-16	5.809437E-17
6.613862E+03	4.449445E-16	5.620372E-17
6.623808E+03	4.299808E-16	5.434643E-17
6.633753E+03	4.153925E-16	5.253432E-17
6.643699E+03	4.012689E-16	5.077878E-17
6.653644E+03	3.876775E-16	4.908848E-17
6.663590E+03	3.746867E-16	4.747218E-17
6.673536E+03	3.623485E-16	4.593662E-17
6.683481E+03	3.507047E-16	4.448725E-17
6.693427E+03	3.397875E-16	4.312832E-17
6.703373E+03	3.296202E-16	4.186296E-17
6.713318E+03	3.202227E-16	4.069385E-17
6.723264E+03	3.115985E-16	3.962163E-17
6.733210E+03	3.037543E-16	3.864732E-17
6.743155E+03	2.966825E-16	3.777014E-17
6.753101E+03	2.903807E-16	3.698995E-17
6.763047E+03	2.848425E-16	3.630610E-17
6.772992E+03	2.800466E-16	3.571608E-17
6.782938E+03	2.759826E-16	3.521871E-17
6.792884E+03	2.726388E-16	3.481265E-17
6.802829E+03	2.699944E-16	3.449544E-17
6.812775E+03	2.680328E-16	3.426508E-17
6.822721E+03	2.667408E-16	3.412007E-17
6.832666E+03	2.660979E-16	3.405792E-17
6.842612E+03	2.660918E-16	3.407719E-17
6.852558E+03	2.667026E-16	3.417548E-17
6.862503E+03	2.679187E-16	3.435146E-17
6.872449E+03	2.697252E-16	3.460334E-17
6.882395E+03	2.721036E-16	3.492887E-17
6.892340E+03	2.750394E-16	3.532632E-17
6.902286E+03	2.785269E-16	3.579509E-17
6.912232E+03	2.825437E-16	3.633241E-17
6.922177E+03	2.870802E-16	3.693716E-17
6.932123E+03	2.921178E-16	3.760706E-17
6.942069E+03	2.976463E-16	3.834093E-17
6.952014E+03	3.036509E-16	3.913693E-17
6.961960E+03	3.101114E-16	3.999258E-17
6.971906E+03	3.170163E-16	4.090649E-17
6.981851E+03	3.243435E-16	4.187590E-17
6.991797E+03	3.320796E-16	4.289919E-17
7.001742E+03	3.401955E-16	4.397264E-17
7.011688E+03	3.486856E-16	4.509565E-17
7.021634E+03	3.575124E-16	4.626341E-17
7.031579E+03	3.666630E-16	4.747435E-17
7.041525E+03	3.761071E-16	4.872459E-17
7.051471E+03	3.858118E-16	5.000993E-17
7.061416E+03	3.957604E-16	5.132827E-17
7.071362E+03	4.059108E-16	5.267417E-17
7.081308E+03	4.162370E-16	5.404431E-17
7.091253E+03	4.266991E-16	5.543353E-17
7.101199E+03	4.372682E-16	5.683810E-17
7.111145E+03	4.479010E-16	5.825241E-17
7.121090E+03	4.585664E-16	5.967242E-17
7.131036E+03	4.692114E-16	6.109122E-17
7.140982E+03	4.798029E-16	6.250450E-17
7.150927E+03	4.903007E-16	6.390700E-17
7.160873E+03	5.006570E-16	6.529245E-17
7.170819E+03	5.108391E-16	6.665656E-17
7.180764E+03	5.207920E-16	6.799211E-17
7.190710E+03	5.304934E-16	6.929611E-17
7.200656E+03	5.398989E-16	7.056271E-17
7.210601E+03	5.489657E-16	7.178625E-17
7.220547E+03	5.576702E-16	7.296355E-17
7.230493E+03	5.659835E-16	7.409078E-17
7.240438E+03	5.738625E-16	7.516216E-17
7.250384E+03	5.813024E-16	7.617700E-17
7.260330E+03	5.882666E-16	7.713040E-17
7.270275E+03	5.947496E-16	7.802151E-17
7.280221E+03	6.007404E-16	7.884881E-17
7.290167E+03	6.062229E-16	7.961006E-17
7.300112E+03	6.111936E-16	8.030472E-17
7.310058E+03	6.156530E-16	8.093272E-17
7.320004E+03	6.196048E-16	8.149444E-17
7.329949E+03	6.230558E-16	8.199067E-17
7.339895E+03	6.260156E-16	8.242259E-17
7.349840E+03	6.284867E-16	8.279040E-17
7.359786E+03	6.304928E-16	8.309713E-17
7.369732E+03	6.320398E-16	8.334348E-17
7.379677E+03	6.331548E-16	8.353290E-17
7.389623E+03	6.338461E-16	8.366642E-17
7.399569E+03	6.341322E-16	8.374639E-17
7.409514E+03	6.340422E-16	8.377658E-17
7.419460E+03	6.335756E-16	8.375683E-17
7.429406E+03	6.327711E-16	8.369221E-17
7.439351E+03	6.316377E-16	8.358382E-17
7.449297E+03	6.302033E-16	8.343531E-17
7.459243E+03	6.284658E-16	8.324633E-17
7.469188E+03	6.264616E-16	8.302163E-17
7.479134E+03	6.241967E-16	8.276198E-17
7.489080E+03	6.216858E-16	8.246929E-17
7.499025E+03	6.189526E-16	8.214662E-17
7.508971E+03	6.159998E-16	8.179431E-17
7.518917E+03	6.128484E-16	8.141511E-17
7.528862E+03	6.094987E-16	8.100902E-17
7.538808E+03	6.059690E-16	8.057844E-17
7.548754E+03	6.022665E-16	8.012429E-17
7.558699E+03	5.983875E-16	7.964604E-17
7.568645E+03	5.943457E-16	7.914551E-17
7.578591E+03	5.901441E-16	7.862303E-17
7.588536E+03	5.857839E-16	7.807877E-17
7.598482E+03	5.812650E-16	7.751269E-17
7.608428E+03	5.765863E-16	7.692458E-17
7.618373E+03	5.717451E-16	7.631407E-17
7.628319E+03	5.667378E-16	7.568067E-17
7.638265E+03	5.615600E-16	7.502374E-17
7.648210E+03	5.562152E-16	7.434375E-17
7.658156E+03	5.506803E-16	7.363754E-17
7.668101E+03	5.449670E-16	7.290667E-17
7.678047E+03	5.390609E-16	7.214919E-17
7.687993E+03	5.329653E-16	7.136550E-17
7.697938E+03	5.266584E-16	7.055265E-17
7.707884E+03	5.201538E-16	6.971243E-17
7.717830E+03	5.134405E-16	6.884334E-17
