#wls	flux	fluxerr
1.591305E+03	4.050516E-17	7.759295E-18
1.631088E+03	4.024811E-17	7.701824E-18
1.670870E+03	3.985083E-17	7.617494E-18
1.710653E+03	3.931533E-17	7.506783E-18
1.750436E+03	3.864589E-17	7.370598E-18
1.790218E+03	3.780311E-17	7.201527E-18
1.830001E+03	3.676693E-17	6.995876E-18
1.869784E+03	3.550152E-17	6.746979E-18
1.909566E+03	3.397818E-17	6.449558E-18
1.949349E+03	3.218959E-17	6.102427E-18
1.989131E+03	3.020378E-17	5.718672E-18
2.028914E+03	2.816689E-17	5.326097E-18
2.068697E+03	2.634145E-17	4.974340E-18
2.108479E+03	2.503743E-17	4.721724E-18
2.148262E+03	2.450114E-17	4.614251E-18
2.188045E+03	2.480919E-17	4.665744E-18
2.227827E+03	2.585748E-17	4.855980E-18
2.267610E+03	2.742765E-17	5.143404E-18
2.307392E+03	2.929327E-17	5.485169E-18
2.347175E+03	3.127119E-17	5.846766E-18
2.386958E+03	3.325722E-17	6.208620E-18
2.426740E+03	3.520675E-17	6.562385E-18
2.466523E+03	3.710981E-17	6.906211E-18
2.506306E+03	3.898411E-17	7.243407E-18
2.546088E+03	4.084750E-17	7.577282E-18
2.585871E+03	4.274526E-17	7.916214E-18
2.625653E+03	4.469566E-17	8.263521E-18
2.665436E+03	4.674075E-17	8.626895E-18
2.705219E+03	4.891716E-17	9.012972E-18
2.745001E+03	5.125600E-17	9.427322E-18
2.784784E+03	5.380226E-17	9.878021E-18
2.824567E+03	5.658306E-17	1.036981E-17
2.864349E+03	5.965482E-17	1.091274E-17
2.904132E+03	6.305697E-17	1.151370E-17
2.943914E+03	6.683222E-17	1.218010E-17
2.983697E+03	7.105016E-17	1.292417E-17
2.993643E+03	7.218530E-17	1.312436E-17
3.003588E+03	7.334344E-17	1.332851E-17
3.013534E+03	7.454128E-17	1.353965E-17
3.023480E+03	7.577283E-17	1.375668E-17
3.033425E+03	7.704388E-17	1.398065E-17
3.043371E+03	7.836591E-17	1.421363E-17
3.053317E+03	7.973496E-17	1.445488E-17
3.063262E+03	8.115080E-17	1.470435E-17
3.073208E+03	8.261328E-17	1.496200E-17
3.083154E+03	8.413091E-17	1.522935E-17
3.093099E+03	8.569541E-17	1.550489E-17
3.103045E+03	8.731555E-17	1.579020E-17
3.112991E+03	8.898314E-17	1.608378E-17
3.122936E+03	9.069848E-17	1.638566E-17
3.132882E+03	9.247092E-17	1.669753E-17
3.142828E+03	9.430122E-17	1.701951E-17
3.152773E+03	9.618108E-17	1.735007E-17
3.162719E+03	9.811103E-17	1.768931E-17
3.172665E+03	1.001106E-16	1.804072E-17
3.182610E+03	1.021525E-16	1.839939E-17
3.192556E+03	1.042662E-16	1.877058E-17
3.202502E+03	1.064338E-16	1.915105E-17
3.212447E+03	1.086658E-16	1.954271E-17
3.222393E+03	1.109537E-16	1.994397E-17
3.232339E+03	1.133186E-16	2.035864E-17
3.242284E+03	1.157418E-16	2.078332E-17
3.252230E+03	1.182348E-16	2.122005E-17
3.262175E+03	1.207886E-16	2.166722E-17
3.272121E+03	1.234256E-16	2.212880E-17
3.282067E+03	1.261369E-16	2.260321E-17
3.292012E+03	1.289135E-16	2.308877E-17
3.301958E+03	1.317786E-16	2.358963E-17
3.311904E+03	1.347120E-16	2.410218E-17
3.321849E+03	1.377377E-16	2.463066E-17
3.331795E+03	1.408466E-16	2.517342E-17
3.341741E+03	1.440406E-16	2.573078E-17
3.351686E+03	1.473100E-16	2.630099E-17
3.361632E+03	1.506919E-16	2.689063E-17
3.371578E+03	1.541534E-16	2.749381E-17
3.381523E+03	1.577206E-16	2.811516E-17
3.391469E+03	1.613839E-16	2.875295E-17
3.401415E+03	1.651458E-16	2.940758E-17
3.411360E+03	1.690088E-16	3.007949E-17
3.421306E+03	1.729886E-16	3.077140E-17
3.431252E+03	1.770882E-16	3.148387E-17
3.441197E+03	1.812983E-16	3.221515E-17
3.451143E+03	1.856219E-16	3.296578E-17
3.461089E+03	1.900758E-16	3.373870E-17
3.471034E+03	1.946640E-16	3.453457E-17
3.480980E+03	1.993768E-16	3.535165E-17
3.490926E+03	2.042320E-16	3.619304E-17
3.500871E+03	2.092198E-16	3.705698E-17
3.510817E+03	2.143727E-16	3.794919E-17
3.520763E+03	2.196669E-16	3.886539E-17
3.530708E+03	2.251064E-16	3.980625E-17
3.540654E+03	2.307249E-16	4.077770E-17
3.550600E+03	2.365125E-16	4.177794E-17
3.560545E+03	2.424583E-16	4.280497E-17
3.570491E+03	2.485971E-16	4.386490E-17
3.580436E+03	2.549020E-16	4.495296E-17
3.590382E+03	2.614085E-16	4.607531E-17
3.600328E+03	2.680886E-16	4.722699E-17
3.610273E+03	2.749778E-16	4.841420E-17
3.620219E+03	2.820638E-16	4.963470E-17
3.630165E+03	2.893495E-16	5.088896E-17
3.640110E+03	2.968382E-16	5.217751E-17
3.650056E+03	3.045502E-16	5.350383E-17
3.660002E+03	3.124719E-16	5.486548E-17
3.669947E+03	3.206066E-16	5.626301E-17
3.679893E+03	3.289583E-16	5.769701E-17
3.689839E+03	3.375495E-16	5.917142E-17
3.699784E+03	3.463677E-16	6.068393E-17
3.709730E+03	3.554375E-16	6.223881E-17
3.719676E+03	3.647470E-16	6.383392E-17
3.729621E+03	3.743231E-16	6.547387E-17
3.739567E+03	3.841544E-16	6.715660E-17
3.749513E+03	3.942485E-16	6.888340E-17
3.759458E+03	4.046525E-16	7.066238E-17
3.769404E+03	4.153121E-16	7.248399E-17
3.779350E+03	4.262912E-16	7.435932E-17
3.789295E+03	4.375482E-16	7.628102E-17
3.799241E+03	4.490987E-16	7.825174E-17
3.809187E+03	4.609077E-16	8.026530E-17
3.819132E+03	4.729771E-16	8.232195E-17
3.829078E+03	4.852533E-16	8.441232E-17
3.839024E+03	4.977397E-16	8.653693E-17
3.848969E+03	5.103372E-16	8.867853E-17
3.858915E+03	5.229780E-16	9.082529E-17
3.868861E+03	5.356268E-16	9.297109E-17
3.878806E+03	5.481432E-16	9.509160E-17
3.888752E+03	5.604198E-16	9.716820E-17
3.898698E+03	5.723631E-16	9.918480E-17
3.908643E+03	5.838482E-16	1.011199E-16
3.918589E+03	5.947469E-16	1.029514E-16
3.928534E+03	6.049063E-16	1.046530E-16
3.938480E+03	6.142290E-16	1.062081E-16
3.948426E+03	6.225794E-16	1.075935E-16
3.958371E+03	6.298877E-16	1.087975E-16
3.968317E+03	6.360560E-16	1.098034E-16
3.978263E+03	6.410633E-16	1.106080E-16
3.988208E+03	6.448668E-16	1.112041E-16
3.998154E+03	6.474796E-16	1.115945E-16
4.008100E+03	6.489698E-16	1.117911E-16
4.018045E+03	6.493850E-16	1.118026E-16
4.027991E+03	6.488245E-16	1.116462E-16
4.037937E+03	6.474307E-16	1.113467E-16
4.047882E+03	6.452949E-16	1.109202E-16
4.057828E+03	6.425874E-16	1.103959E-16
4.067774E+03	6.394593E-16	1.098001E-16
4.077719E+03	6.360619E-16	1.091589E-16
4.087665E+03	6.325398E-16	1.084970E-16
4.097611E+03	6.290069E-16	1.078341E-16
4.107556E+03	6.256030E-16	1.071941E-16
4.117502E+03	6.224319E-16	1.065948E-16
4.127448E+03	6.195359E-16	1.060434E-16
4.137393E+03	6.170197E-16	1.055576E-16
4.147339E+03	6.149053E-16	1.051412E-16
4.157285E+03	6.132153E-16	1.047979E-16
4.167230E+03	6.119335E-16	1.045249E-16
4.177176E+03	6.110818E-16	1.043257E-16
4.187122E+03	6.105723E-16	1.041853E-16
4.197067E+03	6.104136E-16	1.041050E-16
4.207013E+03	6.104942E-16	1.040658E-16
4.216959E+03	6.107842E-16	1.040625E-16
4.226904E+03	6.111961E-16	1.040801E-16
4.236850E+03	6.116584E-16	1.041065E-16
4.246796E+03	6.120866E-16	1.041273E-16
4.256741E+03	6.124379E-16	1.041352E-16
4.266687E+03	6.126473E-16	1.041192E-16
4.276632E+03	6.126811E-16	1.040737E-16
4.286578E+03	6.125419E-16	1.039990E-16
4.296524E+03	6.122043E-16	1.038910E-16
4.306469E+03	6.117160E-16	1.037578E-16
4.316415E+03	6.111338E-16	1.036090E-16
4.326361E+03	6.105238E-16	1.034560E-16
4.336306E+03	6.099941E-16	1.033169E-16
4.346252E+03	6.096753E-16	1.032140E-16
4.356198E+03	6.097202E-16	1.031730E-16
4.366143E+03	6.103001E-16	1.032228E-16
4.376089E+03	6.115855E-16	1.033922E-16
4.386035E+03	6.137741E-16	1.037143E-16
4.395980E+03	6.170834E-16	1.042257E-16
4.405926E+03	6.217056E-16	1.049586E-16
4.415872E+03	6.278469E-16	1.059475E-16
4.425817E+03	6.356945E-16	1.072237E-16
4.435763E+03	6.454555E-16	1.088217E-16
4.445709E+03	6.572951E-16	1.107689E-16
4.455654E+03	6.713899E-16	1.130946E-16
4.465600E+03	6.878614E-16	1.158188E-16
4.475546E+03	7.068153E-16	1.189589E-16
4.485491E+03	7.282981E-16	1.225221E-16
4.495437E+03	7.523537E-16	1.265153E-16
4.505383E+03	7.788991E-16	1.309240E-16
4.515328E+03	8.078041E-16	1.357261E-16
4.525274E+03	8.388687E-16	1.408872E-16
4.535220E+03	8.717573E-16	1.463509E-16
4.545165E+03	9.060422E-16	1.520449E-16
4.555111E+03	9.411836E-16	1.578786E-16
4.565057E+03	9.765523E-16	1.637463E-16
4.575002E+03	1.011363E-15	1.695164E-16
4.584948E+03	1.044816E-15	1.750552E-16
4.594894E+03	1.076050E-15	1.802186E-16
4.604839E+03	1.104180E-15	1.848592E-16
4.614785E+03	1.128413E-15	1.888448E-16
4.624730E+03	1.148030E-15	1.920558E-16
4.634676E+03	1.162430E-15	1.943928E-16
4.644622E+03	1.171240E-15	1.957944E-16
4.654567E+03	1.174249E-15	1.962262E-16
4.664513E+03	1.171505E-15	1.956978E-16
4.674459E+03	1.163226E-15	1.942462E-16
4.684404E+03	1.149841E-15	1.919439E-16
4.694350E+03	1.131954E-15	1.888930E-16
4.704296E+03	1.110244E-15	1.852071E-16
4.714241E+03	1.085497E-15	1.810181E-16
4.724187E+03	1.058486E-15	1.764553E-16
4.734133E+03	1.029991E-15	1.716490E-16
4.744078E+03	1.000763E-15	1.667245E-16
4.754024E+03	9.714501E-16	1.617897E-16
4.763970E+03	9.426492E-16	1.569440E-16
4.773915E+03	9.148316E-16	1.522658E-16
4.783861E+03	8.883939E-16	1.478207E-16
4.793807E+03	8.636742E-16	1.436648E-16
4.803752E+03	8.408454E-16	1.398265E-16
4.813698E+03	8.201018E-16	1.363377E-16
4.823644E+03	8.014926E-16	1.332064E-16
4.833589E+03	7.850550E-16	1.304383E-16
4.843535E+03	7.707619E-16	1.280286E-16
4.853481E+03	7.585448E-16	1.259657E-16
4.863426E+03	7.482864E-16	1.242297E-16
4.873372E+03	7.398788E-16	1.228024E-16
4.883318E+03	7.331372E-16	1.216529E-16
4.893263E+03	7.279096E-16	1.207559E-16
4.903209E+03	7.239897E-16	1.200768E-16
4.913155E+03	7.211753E-16	1.195821E-16
4.923100E+03	7.192611E-16	1.192375E-16
4.933046E+03	7.180566E-16	1.190113E-16
4.942991E+03	7.173564E-16	1.188696E-16
4.952937E+03	7.169979E-16	1.187852E-16
4.962883E+03	7.168165E-16	1.187308E-16
4.972828E+03	7.167031E-16	1.186885E-16
4.982774E+03	7.165693E-16	1.186435E-16
4.992720E+03	7.163519E-16	1.185855E-16
5.002665E+03	7.160503E-16	1.185142E-16
5.012611E+03	7.156851E-16	1.184333E-16
5.022557E+03	7.153117E-16	1.183517E-16
5.032502E+03	7.150104E-16	1.182829E-16
5.042448E+03	7.148715E-16	1.182417E-16
5.052394E+03	7.150351E-16	1.182514E-16
5.062339E+03	7.156124E-16	1.183302E-16
5.072285E+03	7.167281E-16	1.184988E-16
5.082231E+03	7.185031E-16	1.187773E-16
5.092176E+03	7.210483E-16	1.191837E-16
5.102122E+03	7.244745E-16	1.197366E-16
5.112068E+03	7.288543E-16	1.204477E-16
5.122013E+03	7.342536E-16	1.213280E-16
5.131959E+03	7.407207E-16	1.223855E-16
5.141905E+03	7.482975E-16	1.236270E-16
5.151850E+03	7.569797E-16	1.250518E-16
5.161796E+03	7.667569E-16	1.266583E-16
5.171742E+03	7.776104E-16	1.284432E-16
5.181687E+03	7.894737E-16	1.303958E-16
5.191633E+03	8.022725E-16	1.325036E-16
5.201579E+03	8.159247E-16	1.347533E-16
5.211524E+03	8.302988E-16	1.371231E-16
5.221470E+03	8.452704E-16	1.395925E-16
5.231416E+03	8.606512E-16	1.421306E-16
5.241361E+03	8.763058E-16	1.447150E-16
5.251307E+03	8.919967E-16	1.473065E-16
5.261253E+03	9.075447E-16	1.498757E-16
5.271198E+03	9.227196E-16	1.523847E-16
5.281144E+03	9.373004E-16	1.547969E-16
5.291089E+03	9.510866E-16	1.570794E-16
5.301035E+03	9.638525E-16	1.591949E-16
5.310981E+03	9.754205E-16	1.611141E-16
5.320926E+03	9.855841E-16	1.628030E-16
5.330872E+03	9.942275E-16	1.642424E-16
5.340818E+03	1.001215E-15	1.654100E-16
5.350763E+03	1.006476E-15	1.662940E-16
5.360709E+03	1.009924E-15	1.668799E-16
5.370655E+03	1.011566E-15	1.671692E-16
5.380600E+03	1.011392E-15	1.671601E-16
5.390546E+03	1.009433E-15	1.668574E-16
5.400492E+03	1.005753E-15	1.662715E-16
5.410437E+03	1.000394E-15	1.654096E-16
5.420383E+03	9.934245E-16	1.642824E-16
5.430329E+03	9.849085E-16	1.629006E-16
5.440274E+03	9.749281E-16	1.612775E-16
5.450220E+03	9.635252E-16	1.594200E-16
5.460166E+03	9.507531E-16	1.573365E-16
5.470111E+03	9.366757E-16	1.550375E-16
5.480057E+03	9.213232E-16	1.525278E-16
5.490003E+03	9.047554E-16	1.498170E-16
5.499948E+03	8.869962E-16	1.469089E-16
5.509894E+03	8.681567E-16	1.438218E-16
5.519840E+03	8.482941E-16	1.405648E-16
5.529785E+03	8.275208E-16	1.371563E-16
5.539731E+03	8.059957E-16	1.336226E-16
5.549677E+03	7.838955E-16	1.299927E-16
5.559622E+03	7.614303E-16	1.263013E-16
5.569568E+03	7.388297E-16	1.225864E-16
5.579514E+03	7.163706E-16	1.188937E-16
5.589459E+03	6.943353E-16	1.152701E-16
5.599405E+03	6.730032E-16	1.117620E-16
5.609351E+03	6.526846E-16	1.084209E-16
5.619296E+03	6.336470E-16	1.052913E-16
5.629242E+03	6.161507E-16	1.024166E-16
5.639187E+03	6.004350E-16	9.983680E-17
5.649133E+03	5.867112E-16	9.758727E-17
5.659079E+03	5.751735E-16	9.570059E-17
5.669024E+03	5.659693E-16	9.420160E-17
5.678970E+03	5.592290E-16	9.311239E-17
5.688916E+03	5.550670E-16	9.245241E-17
5.698861E+03	5.535550E-16	9.223406E-17
5.708807E+03	5.547591E-16	9.246880E-17
5.718753E+03	5.587014E-16	9.316083E-17
5.728698E+03	5.653941E-16	9.431268E-17
5.738644E+03	5.748065E-16	9.591978E-17
5.748590E+03	5.868680E-16	9.797088E-17
5.758535E+03	6.014494E-16	1.004449E-16
5.768481E+03	6.183823E-16	1.033144E-16
5.778427E+03	6.374222E-16	1.065388E-16
5.788372E+03	6.582483E-16	1.100651E-16
5.798318E+03	6.804599E-16	1.138266E-16
5.808264E+03	7.035746E-16	1.177430E-16
5.818209E+03	7.270212E-16	1.217188E-16
5.828155E+03	7.502007E-16	1.256538E-16
5.838101E+03	7.724348E-16	1.294344E-16
5.848046E+03	7.930405E-16	1.329459E-16
5.857992E+03	8.113532E-16	1.360765E-16
5.867938E+03	8.267638E-16	1.387235E-16
5.877883E+03	8.387550E-16	1.407995E-16
5.887829E+03	8.469524E-16	1.422408E-16
5.897775E+03	8.510926E-16	1.430023E-16
5.907720E+03	8.511371E-16	1.430765E-16
5.917666E+03	8.471794E-16	1.424783E-16
5.927612E+03	8.394884E-16	1.412518E-16
5.937557E+03	8.284754E-16	1.394655E-16
5.947503E+03	8.146602E-16	1.372059E-16
5.957449E+03	7.986367E-16	1.345725E-16
5.967394E+03	7.810472E-16	1.316730E-16
5.977340E+03	7.624932E-16	1.286084E-16
5.987285E+03	7.435953E-16	1.254831E-16
5.997231E+03	7.248791E-16	1.223857E-16
6.007177E+03	7.067960E-16	1.193926E-16
6.017122E+03	6.897515E-16	1.165723E-16
6.027068E+03	6.740363E-16	1.139742E-16
6.037014E+03	6.598344E-16	1.116298E-16
6.046959E+03	6.472849E-16	1.095630E-16
6.056905E+03	6.364414E-16	1.077832E-16
6.066851E+03	6.272931E-16	1.062891E-16
6.076796E+03	6.197873E-16	1.050722E-16
6.086742E+03	6.137928E-16	1.041105E-16
6.096688E+03	6.091744E-16	1.033816E-16
6.106633E+03	6.057679E-16	1.028580E-16
6.116579E+03	6.033583E-16	1.025033E-16
6.126525E+03	6.017479E-16	1.022843E-16
6.136470E+03	6.007230E-16	1.021649E-16
6.146416E+03	6.000803E-16	1.021105E-16
6.156362E+03	5.995937E-16	1.020829E-16
6.166307E+03	5.990815E-16	1.020510E-16
6.176253E+03	5.983721E-16	1.019856E-16
6.186199E+03	5.973201E-16	1.018619E-16
6.196144E+03	5.958117E-16	1.016604E-16
6.206090E+03	5.937692E-16	1.013676E-16
6.216036E+03	5.911539E-16	1.009768E-16
6.225981E+03	5.879685E-16	1.004882E-16
6.235927E+03	5.842561E-16	9.990908E-17
6.245873E+03	5.800989E-16	9.925334E-17
6.255818E+03	5.756136E-16	9.854081E-17
6.265764E+03	5.709455E-16	9.779628E-17
6.275710E+03	5.662611E-16	9.704822E-17
6.285655E+03	5.617398E-16	9.632737E-17
6.295601E+03	5.575744E-16	9.566688E-17
6.305546E+03	5.539235E-16	9.509402E-17
6.315492E+03	5.509710E-16	9.464057E-17
6.325438E+03	5.488409E-16	9.432801E-17
6.335383E+03	5.476681E-16	9.417978E-17
6.345329E+03	5.475249E-16	9.420858E-17
6.355275E+03	5.484646E-16	9.442391E-17
6.365220E+03	5.504789E-16	9.482463E-17
6.375166E+03	5.535235E-16	9.540344E-17
6.385112E+03	5.575059E-16	9.614465E-17
6.395057E+03	5.622939E-16	9.702577E-17
6.405003E+03	5.676955E-16	9.801385E-17
6.414949E+03	5.734494E-16	9.906396E-17
6.424894E+03	5.793002E-16	1.001320E-16
6.434840E+03	5.849021E-16	1.011583E-16
6.444786E+03	5.899107E-16	1.020830E-16
6.454731E+03	5.939432E-16	1.028399E-16
6.464677E+03	5.966371E-16	1.033656E-16
6.474623E+03	5.976354E-16	1.035981E-16
6.484568E+03	5.966176E-16	1.034811E-16
6.494514E+03	5.933187E-16	1.029681E-16
6.504460E+03	5.875465E-16	1.020251E-16
6.514405E+03	5.791850E-16	1.006310E-16
6.524351E+03	5.682458E-16	9.878718E-17
6.534297E+03	5.548061E-16	9.650623E-17
6.544242E+03	5.390470E-16	9.381897E-17
6.554188E+03	5.212423E-16	9.077234E-17
6.564134E+03	5.017127E-16	8.742159E-17
6.574079E+03	4.808361E-16	8.383211E-17
6.584025E+03	4.590162E-16	8.007391E-17
6.593971E+03	4.366701E-16	7.621949E-17
6.603916E+03	4.141908E-16	7.233732E-17
6.613862E+03	3.919338E-16	6.848950E-17
6.623808E+03	3.702281E-16	6.473362E-17
6.633753E+03	3.493386E-16	6.111618E-17
6.643699E+03	3.294973E-16	5.767801E-17
6.653644E+03	3.108574E-16	5.444629E-17
6.663590E+03	2.935420E-16	5.144295E-17
6.673536E+03	2.776236E-16	4.868109E-17
6.683481E+03	2.631366E-16	4.616718E-17
6.693427E+03	2.500848E-16	4.390228E-17
6.703373E+03	2.384432E-16	4.188248E-17
6.713318E+03	2.281873E-16	4.010386E-17
6.723264E+03	2.192533E-16	3.855565E-17
6.733210E+03	2.115882E-16	3.722889E-17
6.743155E+03	2.051346E-16	3.611387E-17
6.753101E+03	1.998265E-16	3.519933E-17
6.763047E+03	1.956032E-16	3.447490E-17
6.772992E+03	1.924066E-16	3.393068E-17
6.782938E+03	1.901856E-16	3.355795E-17
6.792884E+03	1.888849E-16	3.334723E-17
6.802829E+03	1.884602E-16	3.329099E-17
6.812775E+03	1.888626E-16	3.338081E-17
6.822721E+03	1.900489E-16	3.360933E-17
6.832666E+03	1.919810E-16	3.397005E-17
6.842612E+03	1.946178E-16	3.445588E-17
6.852558E+03	1.979141E-16	3.505904E-17
6.862503E+03	2.018273E-16	3.577215E-17
6.872449E+03	2.063172E-16	3.658829E-17
6.882395E+03	2.113341E-16	3.749881E-17
6.892340E+03	2.168345E-16	3.849612E-17
6.902286E+03	2.227697E-16	3.957171E-17
6.912232E+03	2.290856E-16	4.071610E-17
6.922177E+03	2.357325E-16	4.192056E-17
6.932123E+03	2.426670E-16	4.317746E-17
6.942069E+03	2.498397E-16	4.447807E-17
6.952014E+03	2.572148E-16	4.581612E-17
6.961960E+03	2.647534E-16	4.718468E-17
6.971906E+03	2.724332E-16	4.857986E-17
6.981851E+03	2.802301E-16	4.999737E-17
6.991797E+03	2.881331E-16	5.143528E-17
7.001742E+03	2.961451E-16	5.289415E-17
7.011688E+03	3.042648E-16	5.437375E-17
7.021634E+03	3.125020E-16	5.587586E-17
7.031579E+03	3.208763E-16	5.740405E-17
7.041525E+03	3.293899E-16	5.895872E-17
7.051471E+03	3.380692E-16	6.054461E-17
7.061416E+03	3.469175E-16	6.216240E-17
7.071362E+03	3.559388E-16	6.381282E-17
7.081308E+03	3.651288E-16	6.549514E-17
7.091253E+03	3.744738E-16	6.720698E-17
7.101199E+03	3.839499E-16	6.894404E-17
7.111145E+03	3.935222E-16	7.070008E-17
7.121090E+03	4.031365E-16	7.246543E-17
7.131036E+03	4.127450E-16	7.423145E-17
7.140982E+03	4.222828E-16	7.598646E-17
7.150927E+03	4.316778E-16	7.771747E-17
7.160873E+03	4.408436E-16	7.940885E-17
7.170819E+03	4.497077E-16	8.104748E-17
7.180764E+03	4.581791E-16	8.261684E-17
7.190710E+03	4.661857E-16	8.410382E-17
7.200656E+03	4.736313E-16	8.549094E-17
7.210601E+03	4.804733E-16	8.677030E-17
7.220547E+03	4.866195E-16	8.792509E-17
7.230493E+03	4.920362E-16	8.894904E-17
7.240438E+03	4.966630E-16	8.983097E-17
7.250384E+03	5.004925E-16	9.056938E-17
7.260330E+03	5.035027E-16	9.116001E-17
7.270275E+03	5.056869E-16	9.160146E-17
7.280221E+03	5.070853E-16	9.190075E-17
7.290167E+03	5.077126E-16	9.206037E-17
7.300112E+03	5.076291E-16	9.209102E-17
7.310058E+03	5.068972E-16	9.200385E-17
7.320004E+03	5.055898E-16	9.181190E-17
7.329949E+03	5.037757E-16	9.152755E-17
7.339895E+03	5.015377E-16	9.116567E-17
7.349840E+03	4.989676E-16	9.074289E-17
7.359786E+03	4.961422E-16	9.027307E-17
7.369732E+03	4.931196E-16	8.976671E-17
7.379677E+03	4.899666E-16	8.923595E-17
7.389623E+03	4.867163E-16	8.868678E-17
7.399569E+03	4.833973E-16	8.812437E-17
7.409514E+03	4.800231E-16	8.755120E-17
7.419460E+03	4.766034E-16	8.696901E-17
7.429406E+03	4.731171E-16	8.637393E-17
7.439351E+03	4.695440E-16	8.576229E-17
7.449297E+03	4.658596E-16	8.512955E-17
7.459243E+03	4.620481E-16	8.447281E-17
7.469188E+03	4.580683E-16	8.378451E-17
7.479134E+03	4.539242E-16	8.306533E-17
7.489080E+03	4.496016E-16	8.231264E-17
7.499025E+03	4.450987E-16	8.152608E-17
7.508971E+03	4.404550E-16	8.071284E-17
7.518917E+03	4.356957E-16	7.987748E-17
7.528862E+03	4.308670E-16	7.902847E-17
7.538808E+03	4.260250E-16	7.817610E-17
7.548754E+03	4.212322E-16	7.733182E-17
7.558699E+03	4.165451E-16	7.650604E-17
7.568645E+03	4.120452E-16	7.571376E-17
7.578591E+03	4.077825E-16	7.496423E-17
7.588536E+03	4.038068E-16	7.426667E-17
7.598482E+03	4.001475E-16	7.362654E-17
7.608428E+03	3.968443E-16	7.305127E-17
7.618373E+03	3.938872E-16	7.253907E-17
7.628319E+03	3.912735E-16	7.208955E-17
7.638265E+03	3.889826E-16	7.169899E-17
7.648210E+03	3.869523E-16	7.135601E-17
7.658156E+03	3.851210E-16	7.104931E-17
7.668101E+03	3.834297E-16	7.076804E-17
7.678047E+03	3.817840E-16	7.049481E-17
7.687993E+03	3.800821E-16	7.021081E-17
7.697938E+03	3.782426E-16	6.990103E-17
7.707884E+03	3.761524E-16	6.954449E-17
7.717830E+03	3.737194E-16	6.912409E-17
