#wls	flux	fluxerr
1.591305E+03	3.047898E-17	7.947994E-18
1.631088E+03	3.033251E-17	7.909746E-18
1.670870E+03	3.007528E-17	7.842617E-18
1.710653E+03	2.971339E-17	7.748196E-18
1.750436E+03	2.923925E-17	7.624505E-18
1.790218E+03	2.863300E-17	7.466363E-18
1.830001E+03	2.786915E-17	7.267127E-18
1.869784E+03	2.692087E-17	7.019802E-18
1.909566E+03	2.577144E-17	6.720028E-18
1.949349E+03	2.441975E-17	6.367519E-18
1.989131E+03	2.290572E-17	5.972681E-18
2.028914E+03	2.134968E-17	5.566899E-18
2.068697E+03	1.994477E-17	5.200526E-18
2.108479E+03	1.893328E-17	4.936740E-18
2.148262E+03	1.849413E-17	4.822192E-18
2.188045E+03	1.868564E-17	4.872083E-18
2.227827E+03	1.942207E-17	5.064054E-18
2.267610E+03	2.053426E-17	5.353993E-18
2.307392E+03	2.184796E-17	5.696463E-18
2.347175E+03	2.322271E-17	6.054847E-18
2.386958E+03	2.457483E-17	6.407319E-18
2.426740E+03	2.586946E-17	6.744798E-18
2.466523E+03	2.709382E-17	7.063945E-18
2.506306E+03	2.825971E-17	7.367839E-18
2.546088E+03	2.938302E-17	7.660624E-18
2.585871E+03	3.047806E-17	7.946032E-18
2.625653E+03	3.157315E-17	8.231445E-18
2.665436E+03	3.268268E-17	8.520614E-18
2.705219E+03	3.382467E-17	8.818237E-18
2.745001E+03	3.501646E-17	9.128837E-18
2.784784E+03	3.628018E-17	9.458177E-18
2.824567E+03	3.762796E-17	9.809423E-18
2.864349E+03	3.908266E-17	1.018853E-17
2.904132E+03	4.066307E-17	1.060040E-17
2.943914E+03	4.238374E-17	1.104882E-17
2.983697E+03	4.427794E-17	1.154246E-17
2.993643E+03	4.477831E-17	1.167286E-17
3.003588E+03	4.528962E-17	1.180612E-17
3.013534E+03	4.581825E-17	1.194388E-17
3.023480E+03	4.635933E-17	1.208489E-17
3.033425E+03	4.691617E-17	1.223001E-17
3.043371E+03	4.749678E-17	1.238132E-17
3.053317E+03	4.809736E-17	1.253784E-17
3.063262E+03	4.871752E-17	1.269945E-17
3.073208E+03	4.935698E-17	1.286610E-17
3.083154E+03	5.002196E-17	1.303940E-17
3.093099E+03	5.070606E-17	1.321769E-17
3.103045E+03	5.140912E-17	1.340091E-17
3.112991E+03	5.213121E-17	1.358910E-17
3.122936E+03	5.287905E-17	1.378399E-17
3.132882E+03	5.364624E-17	1.398393E-17
3.142828E+03	5.443296E-17	1.418895E-17
3.152773E+03	5.523946E-17	1.439913E-17
3.162719E+03	5.607303E-17	1.461637E-17
3.172665E+03	5.692722E-17	1.483898E-17
3.182610E+03	5.780244E-17	1.506707E-17
3.192556E+03	5.870642E-17	1.530265E-17
3.202502E+03	5.963262E-17	1.554403E-17
3.212447E+03	6.058167E-17	1.579135E-17
3.222393E+03	6.155412E-17	1.604478E-17
3.232339E+03	6.255837E-17	1.630650E-17
3.242284E+03	6.358769E-17	1.657474E-17
3.252230E+03	6.464298E-17	1.684975E-17
3.262175E+03	6.573296E-17	1.713381E-17
3.272121E+03	6.685083E-17	1.742513E-17
3.282067E+03	6.799767E-17	1.772400E-17
3.292012E+03	6.917446E-17	1.803068E-17
3.301958E+03	7.039065E-17	1.834762E-17
3.311904E+03	7.163935E-17	1.867304E-17
3.321849E+03	7.292172E-17	1.900722E-17
3.331795E+03	7.424778E-17	1.935280E-17
3.341741E+03	7.561053E-17	1.970793E-17
3.351686E+03	7.701129E-17	2.007297E-17
3.361632E+03	7.845169E-17	2.044834E-17
3.371578E+03	7.994242E-17	2.083682E-17
3.381523E+03	8.147629E-17	2.123655E-17
3.391469E+03	8.305499E-17	2.164796E-17
3.401415E+03	8.468994E-17	2.207402E-17
3.411360E+03	8.636405E-17	2.251029E-17
3.421306E+03	8.810860E-17	2.296492E-17
3.431252E+03	8.989632E-17	2.343079E-17
3.441197E+03	9.174949E-17	2.391372E-17
3.451143E+03	9.366045E-17	2.441171E-17
3.461089E+03	9.563160E-17	2.492539E-17
3.471034E+03	9.766549E-17	2.545541E-17
3.480980E+03	9.977562E-17	2.600530E-17
3.490926E+03	1.019542E-16	2.657303E-17
3.500871E+03	1.042154E-16	2.716228E-17
3.510817E+03	1.065398E-16	2.776800E-17
3.520763E+03	1.089534E-16	2.839696E-17
3.530708E+03	1.114481E-16	2.904708E-17
3.540654E+03	1.140396E-16	2.972240E-17
3.550600E+03	1.167197E-16	3.042082E-17
3.560545E+03	1.194922E-16	3.114331E-17
3.570491E+03	1.223611E-16	3.189092E-17
3.580436E+03	1.253304E-16	3.266470E-17
3.590382E+03	1.284180E-16	3.346929E-17
3.600328E+03	1.316154E-16	3.430249E-17
3.610273E+03	1.349413E-16	3.516919E-17
3.620219E+03	1.383731E-16	3.606347E-17
3.630165E+03	1.419441E-16	3.699405E-17
3.640110E+03	1.456460E-16	3.795871E-17
3.650056E+03	1.494997E-16	3.896293E-17
3.660002E+03	1.534810E-16	4.000041E-17
3.669947E+03	1.576271E-16	4.108082E-17
3.679893E+03	1.619294E-16	4.220193E-17
3.689839E+03	1.663948E-16	4.336557E-17
3.699784E+03	1.710478E-16	4.457806E-17
3.709730E+03	1.758798E-16	4.583721E-17
3.719676E+03	1.808990E-16	4.714513E-17
3.729621E+03	1.861139E-16	4.850404E-17
3.739567E+03	1.915523E-16	4.992119E-17
3.749513E+03	1.971867E-16	5.138940E-17
3.759458E+03	2.030650E-16	5.292117E-17
3.769404E+03	2.091789E-16	5.451436E-17
3.779350E+03	2.155605E-16	5.617727E-17
3.789295E+03	2.221803E-16	5.790226E-17
3.799241E+03	2.290924E-16	5.970341E-17
3.809187E+03	2.362881E-16	6.157847E-17
3.819132E+03	2.437787E-16	6.353033E-17
3.829078E+03	2.515959E-16	6.556732E-17
3.839024E+03	2.596968E-16	6.767823E-17
3.848969E+03	2.681266E-16	6.987485E-17
3.858915E+03	2.768508E-16	7.214815E-17
3.868861E+03	2.858471E-16	7.449236E-17
3.878806E+03	2.950797E-16	7.689812E-17
3.888752E+03	3.044949E-16	7.935147E-17
3.898698E+03	3.140465E-16	8.184035E-17
3.908643E+03	3.236100E-16	8.433230E-17
3.918589E+03	3.330356E-16	8.678831E-17
3.928534E+03	3.422420E-16	8.918718E-17
3.938480E+03	3.510445E-16	9.148077E-17
3.948426E+03	3.593169E-16	9.363622E-17
3.958371E+03	3.668465E-16	9.559807E-17
3.968317E+03	3.735654E-16	9.734865E-17
3.978263E+03	3.793033E-16	9.884358E-17
3.988208E+03	3.840590E-16	1.000825E-16
3.998154E+03	3.877719E-16	1.010498E-16
4.008100E+03	3.904228E-16	1.017402E-16
4.018045E+03	3.921384E-16	1.021870E-16
4.027991E+03	3.929846E-16	1.024072E-16
4.037937E+03	3.931302E-16	1.024448E-16
4.047882E+03	3.926739E-16	1.023255E-16
4.057828E+03	3.918369E-16	1.021071E-16
4.067774E+03	3.908155E-16	1.018406E-16
4.077719E+03	3.898381E-16	1.015856E-16
4.087665E+03	3.890241E-16	1.013732E-16
4.097611E+03	3.885693E-16	1.012543E-16
4.107556E+03	3.886381E-16	1.012719E-16
4.117502E+03	3.892668E-16	1.014355E-16
4.127448E+03	3.905904E-16	1.017800E-16
4.137393E+03	3.925816E-16	1.022986E-16
4.147339E+03	3.953135E-16	1.030102E-16
4.157285E+03	3.987044E-16	1.038934E-16
4.167230E+03	4.027429E-16	1.049455E-16
4.177176E+03	4.073936E-16	1.061570E-16
4.187122E+03	4.124986E-16	1.074869E-16
4.197067E+03	4.180062E-16	1.089218E-16
4.207013E+03	4.237119E-16	1.104082E-16
4.216959E+03	4.294984E-16	1.119157E-16
4.226904E+03	4.352087E-16	1.134033E-16
4.236850E+03	4.406852E-16	1.148300E-16
4.246796E+03	4.457753E-16	1.161560E-16
4.256741E+03	4.503387E-16	1.173448E-16
4.266687E+03	4.542465E-16	1.183627E-16
4.276632E+03	4.573813E-16	1.191792E-16
4.286578E+03	4.596398E-16	1.197674E-16
4.296524E+03	4.609015E-16	1.200958E-16
4.306469E+03	4.611441E-16	1.201587E-16
4.316415E+03	4.603806E-16	1.199595E-16
4.326361E+03	4.585562E-16	1.194838E-16
4.336306E+03	4.557663E-16	1.187565E-16
4.346252E+03	4.521198E-16	1.178061E-16
4.356198E+03	4.477414E-16	1.166649E-16
4.366143E+03	4.429097E-16	1.154057E-16
4.376089E+03	4.378240E-16	1.140803E-16
4.386035E+03	4.328297E-16	1.127787E-16
4.395980E+03	4.282765E-16	1.115920E-16
4.405926E+03	4.245461E-16	1.106198E-16
4.415872E+03	4.220338E-16	1.099649E-16
4.425817E+03	4.210945E-16	1.097199E-16
4.435763E+03	4.221247E-16	1.099881E-16
4.445709E+03	4.254701E-16	1.108595E-16
4.455654E+03	4.314529E-16	1.124181E-16
4.465600E+03	4.403698E-16	1.147412E-16
4.475546E+03	4.524705E-16	1.178939E-16
4.485491E+03	4.680588E-16	1.219553E-16
4.495437E+03	4.873916E-16	1.269923E-16
4.505383E+03	5.106712E-16	1.330577E-16
4.515328E+03	5.381362E-16	1.402135E-16
4.525274E+03	5.699241E-16	1.484957E-16
4.535220E+03	6.060695E-16	1.579132E-16
4.545165E+03	6.463994E-16	1.684210E-16
4.555111E+03	6.906415E-16	1.799480E-16
4.565057E+03	7.380088E-16	1.922893E-16
4.575002E+03	7.877087E-16	2.052383E-16
4.584948E+03	8.383840E-16	2.184415E-16
4.594894E+03	8.885480E-16	2.315113E-16
4.604839E+03	9.364507E-16	2.439920E-16
4.614785E+03	9.801791E-16	2.553850E-16
4.624730E+03	1.017972E-15	2.652315E-16
4.634676E+03	1.048110E-15	2.730834E-16
4.644622E+03	1.069426E-15	2.786368E-16
4.654567E+03	1.080897E-15	2.816253E-16
4.664513E+03	1.082150E-15	2.819513E-16
4.674459E+03	1.073500E-15	2.796972E-16
4.684404E+03	1.055394E-15	2.749795E-16
4.694350E+03	1.029131E-15	2.681364E-16
4.704296E+03	9.959723E-16	2.594965E-16
4.714241E+03	9.575758E-16	2.494922E-16
4.724187E+03	9.155208E-16	2.385346E-16
4.734133E+03	8.714642E-16	2.270556E-16
4.744078E+03	8.268487E-16	2.154310E-16
4.754024E+03	7.828477E-16	2.039666E-16
4.763970E+03	7.404987E-16	1.929326E-16
4.773915E+03	7.005519E-16	1.825245E-16
4.783861E+03	6.635054E-16	1.728721E-16
4.793807E+03	6.297714E-16	1.640827E-16
4.803752E+03	5.995252E-16	1.562021E-16
4.813698E+03	5.728941E-16	1.492635E-16
4.823644E+03	5.498538E-16	1.432603E-16
4.833589E+03	5.302638E-16	1.381562E-16
4.843535E+03	5.139945E-16	1.339173E-16
4.853481E+03	5.007948E-16	1.304781E-16
4.863426E+03	4.904546E-16	1.277839E-16
4.873372E+03	4.827219E-16	1.257692E-16
4.883318E+03	4.773102E-16	1.243591E-16
4.893263E+03	4.739875E-16	1.234933E-16
4.903209E+03	4.724397E-16	1.230900E-16
4.913155E+03	4.723800E-16	1.230744E-16
4.923100E+03	4.734293E-16	1.233477E-16
4.933046E+03	4.752447E-16	1.238206E-16
4.942991E+03	4.774372E-16	1.243918E-16
4.952937E+03	4.795988E-16	1.249549E-16
4.962883E+03	4.814391E-16	1.254344E-16
4.972828E+03	4.827012E-16	1.257632E-16
4.982774E+03	4.832925E-16	1.259172E-16
4.992720E+03	4.832013E-16	1.258934E-16
5.002665E+03	4.824998E-16	1.257106E-16
5.012611E+03	4.814065E-16	1.254258E-16
5.022557E+03	4.801233E-16	1.250914E-16
5.032502E+03	4.789331E-16	1.247813E-16
5.042448E+03	4.780935E-16	1.245626E-16
5.052394E+03	4.778272E-16	1.244932E-16
5.062339E+03	4.783737E-16	1.246356E-16
5.072285E+03	4.799771E-16	1.250534E-16
5.082231E+03	4.828066E-16	1.257906E-16
5.092176E+03	4.869422E-16	1.268681E-16
5.102122E+03	4.924687E-16	1.283080E-16
5.112068E+03	4.993906E-16	1.301115E-16
5.122013E+03	5.076302E-16	1.322583E-16
5.131959E+03	5.171291E-16	1.347332E-16
5.141905E+03	5.277328E-16	1.374960E-16
5.151850E+03	5.393226E-16	1.405156E-16
5.161796E+03	5.516929E-16	1.437387E-16
5.171742E+03	5.646929E-16	1.471258E-16
5.181687E+03	5.781350E-16	1.506281E-16
5.191633E+03	5.917947E-16	1.541871E-16
5.201579E+03	6.055213E-16	1.577636E-16
5.211524E+03	6.191015E-16	1.613019E-16
5.221470E+03	6.324010E-16	1.647671E-16
5.231416E+03	6.452535E-16	1.681159E-16
5.241361E+03	6.574520E-16	1.712943E-16
5.251307E+03	6.688682E-16	1.742689E-16
5.261253E+03	6.792856E-16	1.769832E-16
5.271198E+03	6.885623E-16	1.794004E-16
5.281144E+03	6.965067E-16	1.814705E-16
5.291089E+03	7.028821E-16	1.831317E-16
5.301035E+03	7.075365E-16	1.843446E-16
5.310981E+03	7.102408E-16	1.850495E-16
5.320926E+03	7.109204E-16	1.852268E-16
5.330872E+03	7.093163E-16	1.848091E-16
5.340818E+03	7.054718E-16	1.838077E-16
5.350763E+03	6.992269E-16	1.821809E-16
5.360709E+03	6.907382E-16	1.799694E-16
5.370655E+03	6.800130E-16	1.771753E-16
5.380600E+03	6.672548E-16	1.738515E-16
5.390546E+03	6.526492E-16	1.700463E-16
5.400492E+03	6.365508E-16	1.658522E-16
5.410437E+03	6.191514E-16	1.613191E-16
5.420383E+03	6.008885E-16	1.565610E-16
5.430329E+03	5.820095E-16	1.516424E-16
5.440274E+03	5.628164E-16	1.466419E-16
5.450220E+03	5.436411E-16	1.416460E-16
5.460166E+03	5.245977E-16	1.366845E-16
5.470111E+03	5.059282E-16	1.318204E-16
5.480057E+03	4.876373E-16	1.270550E-16
5.490003E+03	4.697540E-16	1.223957E-16
5.499948E+03	4.522138E-16	1.178258E-16
5.509894E+03	4.348745E-16	1.133083E-16
5.519840E+03	4.176278E-16	1.088148E-16
5.529785E+03	4.003516E-16	1.043136E-16
5.539731E+03	3.829403E-16	9.977729E-17
5.549677E+03	3.653948E-16	9.520593E-17
5.559622E+03	3.477510E-16	9.060894E-17
5.569568E+03	3.301949E-16	8.603479E-17
5.579514E+03	3.128946E-16	8.152727E-17
5.589459E+03	2.961074E-16	7.715343E-17
5.599405E+03	2.801503E-16	7.299585E-17
5.609351E+03	2.652617E-16	6.911666E-17
5.619296E+03	2.516958E-16	6.558210E-17
5.629242E+03	2.396294E-16	6.243822E-17
5.639187E+03	2.292220E-16	5.972662E-17
5.649133E+03	2.205724E-16	5.747300E-17
5.659079E+03	2.137432E-16	5.569374E-17
5.669024E+03	2.087690E-16	5.439777E-17
5.678970E+03	2.057106E-16	5.360102E-17
5.688916E+03	2.046272E-16	5.331889E-17
5.698861E+03	2.055799E-16	5.356727E-17
5.708807E+03	2.086721E-16	5.437316E-17
5.718753E+03	2.139561E-16	5.575017E-17
5.728698E+03	2.215141E-16	5.771971E-17
5.738644E+03	2.314692E-16	6.031387E-17
5.748590E+03	2.439008E-16	6.355337E-17
5.758535E+03	2.589251E-16	6.746847E-17
5.768481E+03	2.765962E-16	7.207328E-17
5.778427E+03	2.969474E-16	7.737647E-17
5.788372E+03	3.198463E-16	8.334358E-17
5.798318E+03	3.450864E-16	8.992076E-17
5.808264E+03	3.722890E-16	9.700937E-17
5.818209E+03	4.008783E-16	1.044594E-16
5.828155E+03	4.301534E-16	1.120882E-16
5.838101E+03	4.592429E-16	1.196686E-16
5.848046E+03	4.871502E-16	1.269410E-16
5.857992E+03	5.128010E-16	1.336255E-16
5.867938E+03	5.350824E-16	1.394321E-16
5.877883E+03	5.530149E-16	1.441054E-16
5.887829E+03	5.657567E-16	1.474262E-16
5.897775E+03	5.727283E-16	1.492434E-16
5.907720E+03	5.736354E-16	1.494803E-16
5.917666E+03	5.686460E-16	1.481806E-16
5.927612E+03	5.581564E-16	1.454477E-16
5.937557E+03	5.429674E-16	1.414901E-16
5.947503E+03	5.240291E-16	1.365555E-16
5.957449E+03	5.025144E-16	1.309495E-16
5.967394E+03	4.794892E-16	1.249499E-16
5.977340E+03	4.560384E-16	1.188393E-16
5.987285E+03	4.330837E-16	1.128579E-16
5.997231E+03	4.113756E-16	1.072013E-16
6.007177E+03	3.914700E-16	1.020144E-16
6.017122E+03	3.737111E-16	9.738694E-17
6.027068E+03	3.583533E-16	9.338512E-17
6.037014E+03	3.454279E-16	9.001716E-17
6.046959E+03	3.349205E-16	8.727927E-17
6.056905E+03	3.267153E-16	8.514134E-17
6.066851E+03	3.206185E-16	8.355283E-17
6.076796E+03	3.164416E-16	8.246465E-17
6.086742E+03	3.138845E-16	8.179855E-17
6.096688E+03	3.126838E-16	8.148595E-17
6.106633E+03	3.125406E-16	8.144895E-17
6.116579E+03	3.131473E-16	8.160734E-17
6.126525E+03	3.141986E-16	8.188163E-17
6.136470E+03	3.154008E-16	8.219523E-17
6.146416E+03	3.164580E-16	8.247106E-17
6.156362E+03	3.171588E-16	8.265401E-17
6.166307E+03	3.172529E-16	8.267882E-17
6.176253E+03	3.165856E-16	8.250524E-17
6.186199E+03	3.150239E-16	8.209855E-17
6.196144E+03	3.124794E-16	8.143574E-17
6.206090E+03	3.089106E-16	8.050597E-17
6.216036E+03	3.043268E-16	7.931169E-17
6.225981E+03	2.987747E-16	7.786503E-17
6.235927E+03	2.924084E-16	7.620615E-17
6.245873E+03	2.853612E-16	7.436984E-17
6.255818E+03	2.778688E-16	7.241748E-17
6.265764E+03	2.701777E-16	7.041329E-17
6.275710E+03	2.625607E-16	6.842843E-17
6.285655E+03	2.552416E-16	6.652118E-17
6.295601E+03	2.484656E-16	6.475548E-17
6.305546E+03	2.424873E-16	6.319763E-17
6.315492E+03	2.374921E-16	6.189601E-17
6.325438E+03	2.336565E-16	6.089660E-17
6.335383E+03	2.311139E-16	6.023416E-17
6.345329E+03	2.300091E-16	5.994645E-17
6.355275E+03	2.304043E-16	6.004970E-17
6.365220E+03	2.323750E-16	6.056354E-17
6.375166E+03	2.359607E-16	6.149832E-17
6.385112E+03	2.411201E-16	6.284325E-17
6.395057E+03	2.478051E-16	6.458580E-17
6.405003E+03	2.558861E-16	6.669224E-17
6.414949E+03	2.651636E-16	6.911051E-17
6.424894E+03	2.753681E-16	7.177042E-17
6.434840E+03	2.861579E-16	7.458290E-17
6.444786E+03	2.971044E-16	7.743626E-17
6.454731E+03	3.077804E-16	8.021913E-17
6.464677E+03	3.176736E-16	8.279797E-17
6.474623E+03	3.262597E-16	8.503617E-17
6.484568E+03	3.330985E-16	8.681897E-17
6.494514E+03	3.377316E-16	8.802689E-17
6.504460E+03	3.398733E-16	8.858545E-17
6.514405E+03	3.392745E-16	8.842970E-17
6.524351E+03	3.359113E-16	8.755344E-17
6.534297E+03	3.298183E-16	8.596567E-17
6.544242E+03	3.212233E-16	8.372574E-17
6.554188E+03	3.104652E-16	8.092198E-17
6.564134E+03	2.978997E-16	7.764711E-17
6.574079E+03	2.839759E-16	7.401819E-17
6.584025E+03	2.691278E-16	7.014828E-17
6.593971E+03	2.537727E-16	6.614622E-17
6.603916E+03	2.382992E-16	6.211327E-17
6.613862E+03	2.230563E-16	5.814040E-17
6.623808E+03	2.083408E-16	5.430495E-17
6.633753E+03	1.943870E-16	5.066804E-17
6.643699E+03	1.813674E-16	4.727457E-17
6.653644E+03	1.693956E-16	4.415423E-17
6.663590E+03	1.585334E-16	4.132308E-17
6.673536E+03	1.487984E-16	3.878571E-17
6.683481E+03	1.401772E-16	3.653865E-17
6.693427E+03	1.326355E-16	3.457295E-17
6.703373E+03	1.261173E-16	3.287403E-17
6.713318E+03	1.205842E-16	3.143186E-17
6.723264E+03	1.159708E-16	3.022945E-17
6.733210E+03	1.122130E-16	2.925004E-17
6.743155E+03	1.092714E-16	2.848336E-17
6.753101E+03	1.070898E-16	2.791480E-17
6.763047E+03	1.056185E-16	2.753139E-17
6.772992E+03	1.048337E-16	2.732692E-17
6.782938E+03	1.046982E-16	2.729169E-17
6.792884E+03	1.051803E-16	2.741747E-17
6.802829E+03	1.062730E-16	2.770240E-17
6.812775E+03	1.079461E-16	2.813862E-17
6.822721E+03	1.101979E-16	2.872571E-17
6.832666E+03	1.129996E-16	2.945615E-17
6.842612E+03	1.163494E-16	3.032948E-17
6.852558E+03	1.202138E-16	3.133693E-17
6.862503E+03	1.245842E-16	3.247632E-17
6.872449E+03	1.294166E-16	3.373613E-17
6.882395E+03	1.346832E-16	3.510916E-17
6.892340E+03	1.403510E-16	3.658677E-17
6.902286E+03	1.463541E-16	3.815179E-17
6.912232E+03	1.526473E-16	3.979245E-17
6.922177E+03	1.591817E-16	4.149602E-17
6.932123E+03	1.658759E-16	4.324122E-17
6.942069E+03	1.726770E-16	4.501432E-17
6.952014E+03	1.795256E-16	4.679982E-17
6.961960E+03	1.863708E-16	4.858444E-17
6.971906E+03	1.931759E-16	5.035862E-17
6.981851E+03	1.999212E-16	5.211721E-17
6.991797E+03	2.066185E-16	5.386331E-17
7.001742E+03	2.132605E-16	5.559501E-17
7.011688E+03	2.198941E-16	5.732451E-17
7.021634E+03	2.265456E-16	5.905872E-17
7.031579E+03	2.332843E-16	6.081565E-17
7.041525E+03	2.401311E-16	6.260077E-17
7.051471E+03	2.471089E-16	6.442007E-17
7.061416E+03	2.542226E-16	6.627481E-17
7.071362E+03	2.614579E-16	6.816124E-17
7.081308E+03	2.687636E-16	7.006606E-17
7.091253E+03	2.761193E-16	7.198391E-17
7.101199E+03	2.834358E-16	7.389157E-17
7.111145E+03	2.906092E-16	7.576191E-17
7.121090E+03	2.975817E-16	7.757991E-17
7.131036E+03	3.042158E-16	7.930968E-17
7.140982E+03	3.104302E-16	8.093007E-17
7.150927E+03	3.161503E-16	8.242159E-17
7.160873E+03	3.212486E-16	8.375100E-17
7.170819E+03	3.256692E-16	8.490375E-17
7.180764E+03	3.293520E-16	8.586415E-17
7.190710E+03	3.322752E-16	8.662654E-17
7.200656E+03	3.343716E-16	8.717335E-17
7.210601E+03	3.356580E-16	8.750903E-17
7.220547E+03	3.361483E-16	8.763712E-17
7.230493E+03	3.358480E-16	8.755910E-17
7.240438E+03	3.348395E-16	8.729646E-17
7.250384E+03	3.331472E-16	8.685555E-17
7.260330E+03	3.308000E-16	8.624387E-17
7.270275E+03	3.278930E-16	8.548626E-17
7.280221E+03	3.244373E-16	8.458556E-17
7.290167E+03	3.205320E-16	8.356766E-17
7.300112E+03	3.161954E-16	8.243728E-17
7.310058E+03	3.115136E-16	8.121691E-17
7.320004E+03	3.065576E-16	7.992505E-17
7.329949E+03	3.014042E-16	7.858171E-17
7.339895E+03	2.961331E-16	7.720766E-17
7.349840E+03	2.908212E-16	7.582298E-17
7.359786E+03	2.855398E-16	7.444624E-17
7.369732E+03	2.803317E-16	7.308859E-17
7.379677E+03	2.752805E-16	7.177185E-17
7.389623E+03	2.703775E-16	7.049374E-17
7.399569E+03	2.656685E-16	6.926620E-17
7.409514E+03	2.611094E-16	6.807773E-17
7.419460E+03	2.566908E-16	6.692589E-17
7.429406E+03	2.523721E-16	6.580009E-17
7.439351E+03	2.481055E-16	6.468785E-17
7.449297E+03	2.438398E-16	6.357586E-17
7.459243E+03	2.395107E-16	6.244732E-17
7.469188E+03	2.351114E-16	6.130048E-17
7.479134E+03	2.305861E-16	6.012078E-17
7.489080E+03	2.259425E-16	5.891021E-17
7.499025E+03	2.211909E-16	5.767148E-17
7.508971E+03	2.163613E-16	5.641242E-17
7.518917E+03	2.114993E-16	5.514490E-17
7.528862E+03	2.066613E-16	5.388362E-17
7.538808E+03	2.019116E-16	5.264535E-17
7.548754E+03	1.973036E-16	5.144404E-17
7.558699E+03	1.929285E-16	5.030341E-17
7.568645E+03	1.888188E-16	4.923202E-17
7.578591E+03	1.850399E-16	4.824685E-17
7.588536E+03	1.816352E-16	4.735923E-17
7.598482E+03	1.786384E-16	4.657797E-17
7.608428E+03	1.760613E-16	4.590617E-17
7.618373E+03	1.739387E-16	4.535283E-17
7.628319E+03	1.722427E-16	4.491073E-17
7.638265E+03	1.709661E-16	4.457798E-17
7.648210E+03	1.700731E-16	4.434528E-17
7.658156E+03	1.695106E-16	4.419872E-17
7.668101E+03	1.692111E-16	4.412074E-17
7.678047E+03	1.690870E-16	4.408850E-17
7.687993E+03	1.690799E-16	4.408675E-17
7.697938E+03	1.690836E-16	4.408784E-17
7.707884E+03	1.690294E-16	4.407380E-17
7.717830E+03	1.688434E-16	4.402541E-17
