#wls	flux	fluxerr
1.600000E+03	2.001606E-14	1.191740E-15
1.640000E+03	1.735907E-14	1.010032E-15
1.680000E+03	1.491245E-14	8.473092E-16
1.720000E+03	1.268278E-14	7.031725E-16
1.760000E+03	1.067374E-14	5.770068E-16
1.800000E+03	8.885052E-15	4.679472E-16
1.840000E+03	7.309121E-15	3.747349E-16
1.880000E+03	5.938439E-15	2.961406E-16
1.920000E+03	4.759935E-15	2.306930E-16
1.960000E+03	3.758211E-15	1.768732E-16
2.000000E+03	2.916074E-15	1.331579E-16
2.040000E+03	2.217081E-15	9.814800E-17
2.080000E+03	1.648288E-15	7.068302E-17
2.120000E+03	1.208721E-15	5.017090E-17
2.160000E+03	9.052124E-16	3.634109E-17
2.200000E+03	7.227901E-16	2.804665E-17
2.240000E+03	6.395138E-16	2.397002E-17
2.280000E+03	6.447707E-16	2.333125E-17
2.320000E+03	7.452819E-16	2.602420E-17
2.360000E+03	9.742984E-16	3.281991E-17
2.400000E+03	1.409221E-15	4.578699E-17
2.440000E+03	2.195935E-15	6.881839E-17
2.480000E+03	3.578511E-15	1.081924E-16
2.520000E+03	5.903983E-15	1.722563E-16
2.560000E+03	9.526527E-15	2.682876E-16
2.600000E+03	1.449904E-14	3.941877E-16
2.640000E+03	2.019852E-14	5.301480E-16
2.680000E+03	2.574146E-14	6.522149E-16
2.720000E+03	3.071488E-14	7.511032E-16
2.760000E+03	3.521655E-14	8.309062E-16
2.800000E+03	3.975341E-14	9.045772E-16
2.840000E+03	4.492170E-14	9.852857E-16
2.880000E+03	5.100948E-14	1.077775E-15
2.920000E+03	5.812046E-14	1.182214E-15
2.960000E+03	6.623347E-14	1.296149E-15
3.000000E+03	7.493605E-14	1.410027E-15
3.010000E+03	7.709197E-14	1.436325E-15
3.020000E+03	7.919106E-14	1.460885E-15
3.030000E+03	8.120388E-14	1.483213E-15
3.040000E+03	8.310312E-14	1.502876E-15
3.050000E+03	8.485586E-14	1.519362E-15
3.060000E+03	8.643035E-14	1.532200E-15
3.070000E+03	8.779839E-14	1.541005E-15
3.080000E+03	8.893686E-14	1.545495E-15
3.090000E+03	8.982810E-14	1.545490E-15
3.100000E+03	9.046399E-14	1.540983E-15
3.110000E+03	9.084673E-14	1.532142E-15
3.120000E+03	9.099061E-14	1.519336E-15
3.130000E+03	9.091280E-14	1.502969E-15
3.140000E+03	9.065635E-14	1.483856E-15
3.150000E+03	9.025872E-14	1.462690E-15
3.160000E+03	8.976577E-14	1.440276E-15
3.170000E+03	8.922717E-14	1.417448E-15
3.180000E+03	8.869086E-14	1.394983E-15
3.190000E+03	8.819866E-14	1.373531E-15
3.200000E+03	8.779344E-14	1.353735E-15
3.210000E+03	8.750755E-14	1.336051E-15
3.220000E+03	8.737489E-14	1.320941E-15
3.230000E+03	8.741511E-14	1.308638E-15
3.240000E+03	8.764868E-14	1.299376E-15
3.250000E+03	8.809325E-14	1.293339E-15
3.260000E+03	8.875872E-14	1.290593E-15
3.270000E+03	8.965256E-14	1.291168E-15
3.280000E+03	9.078461E-14	1.295126E-15
3.290000E+03	9.215652E-14	1.302416E-15
3.300000E+03	9.376719E-14	1.312951E-15
3.310000E+03	9.561760E-14	1.326680E-15
3.320000E+03	9.769975E-14	1.343434E-15
3.330000E+03	1.000064E-13	1.363065E-15
3.340000E+03	1.025274E-13	1.385397E-15
3.350000E+03	1.052584E-13	1.410344E-15
3.360000E+03	1.081950E-13	1.437827E-15
3.370000E+03	1.113323E-13	1.467771E-15
3.380000E+03	1.146677E-13	1.500143E-15
3.390000E+03	1.181961E-13	1.534885E-15
3.400000E+03	1.219099E-13	1.571917E-15
3.410000E+03	1.257817E-13	1.610920E-15
3.420000E+03	1.297817E-13	1.651560E-15
3.430000E+03	1.338665E-13	1.693351E-15
3.440000E+03	1.379982E-13	1.735892E-15
3.450000E+03	1.421282E-13	1.778666E-15
3.460000E+03	1.461997E-13	1.821070E-15
3.470000E+03	1.501801E-13	1.862815E-15
3.480000E+03	1.539958E-13	1.903111E-15
3.490000E+03	1.575212E-13	1.940535E-15
3.500000E+03	1.606452E-13	1.973850E-15
3.510000E+03	1.632341E-13	2.001504E-15
3.520000E+03	1.651434E-13	2.021763E-15
3.530000E+03	1.662486E-13	2.033120E-15
3.540000E+03	1.664337E-13	2.034142E-15
3.550000E+03	1.655942E-13	2.023511E-15
3.560000E+03	1.637107E-13	2.000922E-15
3.570000E+03	1.607871E-13	1.966319E-15
3.580000E+03	1.568635E-13	1.920071E-15
3.590000E+03	1.520905E-13	1.863881E-15
3.600000E+03	1.466338E-13	1.799633E-15
3.610000E+03	1.406801E-13	1.729479E-15
3.620000E+03	1.344798E-13	1.656371E-15
3.630000E+03	1.282659E-13	1.583069E-15
3.640000E+03	1.222407E-13	1.511993E-15
3.650000E+03	1.166062E-13	1.445590E-15
3.660000E+03	1.115201E-13	1.385789E-15
3.670000E+03	1.070943E-13	1.333983E-15
3.680000E+03	1.033986E-13	1.291059E-15
3.690000E+03	1.004741E-13	1.257563E-15
3.700000E+03	9.833312E-14	1.233688E-15
3.710000E+03	9.696021E-14	1.219284E-15
3.720000E+03	9.632461E-14	1.214007E-15
3.730000E+03	9.639071E-14	1.217446E-15
3.740000E+03	9.711576E-14	1.229091E-15
3.750000E+03	9.845359E-14	1.248381E-15
3.760000E+03	1.003552E-13	1.274710E-15
3.770000E+03	1.027767E-13	1.307523E-15
3.780000E+03	1.056686E-13	1.346186E-15
3.790000E+03	1.089785E-13	1.390016E-15
3.800000E+03	1.126725E-13	1.438554E-15
3.810000E+03	1.167057E-13	1.491195E-15
3.820000E+03	1.210266E-13	1.547238E-15
3.830000E+03	1.255875E-13	1.606023E-15
3.840000E+03	1.303230E-13	1.666661E-15
3.850000E+03	1.351534E-13	1.728071E-15
3.860000E+03	1.399939E-13	1.789108E-15
3.870000E+03	1.447440E-13	1.848427E-15
3.880000E+03	1.492930E-13	1.904555E-15
3.890000E+03	1.535402E-13	1.956161E-15
3.900000E+03	1.573898E-13	2.001987E-15
3.910000E+03	1.607534E-13	2.040885E-15
3.920000E+03	1.635784E-13	2.072183E-15
3.930000E+03	1.658310E-13	2.095461E-15
3.940000E+03	1.674982E-13	2.110586E-15
3.950000E+03	1.686159E-13	2.118051E-15
3.960000E+03	1.692351E-13	2.118550E-15
3.970000E+03	1.694144E-13	2.112874E-15
3.980000E+03	1.692383E-13	2.102141E-15
3.990000E+03	1.687831E-13	2.087356E-15
4.000000E+03	1.681123E-13	2.069361E-15
4.010000E+03	1.672721E-13	2.048780E-15
4.020000E+03	1.662827E-13	2.025912E-15
4.030000E+03	1.651421E-13	2.000789E-15
4.040000E+03	1.638226E-13	1.973135E-15
4.050000E+03	1.622808E-13	1.942502E-15
4.060000E+03	1.604647E-13	1.908359E-15
4.070000E+03	1.583326E-13	1.870314E-15
4.080000E+03	1.558501E-13	1.828085E-15
4.090000E+03	1.529990E-13	1.781595E-15
4.100000E+03	1.497883E-13	1.731088E-15
4.110000E+03	1.462431E-13	1.677004E-15
4.120000E+03	1.424038E-13	1.619942E-15
4.130000E+03	1.383239E-13	1.560644E-15
4.140000E+03	1.340663E-13	1.499934E-15
4.150000E+03	1.296959E-13	1.438637E-15
4.160000E+03	1.252867E-13	1.377648E-15
4.170000E+03	1.209104E-13	1.317808E-15
4.180000E+03	1.166358E-13	1.259896E-15
4.190000E+03	1.125381E-13	1.204729E-15
4.200000E+03	1.086853E-13	1.153014E-15
4.210000E+03	1.051357E-13	1.105327E-15
4.220000E+03	1.019462E-13	1.062205E-15
4.230000E+03	9.916024E-14	1.024025E-15
4.240000E+03	9.680643E-14	9.909948E-16
4.250000E+03	9.490415E-14	9.632229E-16
4.260000E+03	9.345565E-14	9.406420E-16
4.270000E+03	9.244418E-14	9.230012E-16
4.280000E+03	9.183958E-14	9.099304E-16
4.290000E+03	9.159402E-14	9.009045E-16
4.300000E+03	9.164286E-14	8.952569E-16
4.310000E+03	9.190584E-14	8.921935E-16
4.320000E+03	9.229295E-14	8.908534E-16
4.330000E+03	9.271614E-14	8.904199E-16
4.340000E+03	9.309160E-14	8.901365E-16
4.350000E+03	9.335485E-14	8.894435E-16
4.360000E+03	9.346534E-14	8.880120E-16
4.370000E+03	9.341861E-14	8.858514E-16
4.380000E+03	9.324426E-14	8.832839E-16
4.390000E+03	9.299666E-14	8.808536E-16
4.400000E+03	9.273912E-14	8.791523E-16
4.410000E+03	9.253764E-14	8.787604E-16
4.420000E+03	9.244757E-14	8.801584E-16
4.430000E+03	9.250310E-14	8.836328E-16
4.440000E+03	9.272666E-14	8.893653E-16
4.450000E+03	9.312806E-14	8.974246E-16
4.460000E+03	9.370184E-14	9.077387E-16
4.470000E+03	9.443139E-14	9.201300E-16
4.480000E+03	9.527977E-14	9.342220E-16
4.490000E+03	9.618504E-14	9.493845E-16
4.500000E+03	9.706977E-14	9.648182E-16
4.510000E+03	9.785921E-14	9.797285E-16
4.520000E+03	9.849186E-14	9.934310E-16
4.530000E+03	9.892474E-14	1.005409E-15
4.540000E+03	9.912912E-14	1.015277E-15
4.550000E+03	9.908088E-14	1.022687E-15
4.560000E+03	9.876658E-14	1.027394E-15
4.570000E+03	9.818548E-14	1.029283E-15
4.580000E+03	9.734614E-14	1.028339E-15
4.590000E+03	9.627032E-14	1.024695E-15
4.600000E+03	9.499995E-14	1.018709E-15
4.610000E+03	9.359002E-14	1.010899E-15
4.620000E+03	9.210568E-14	1.001916E-15
4.630000E+03	9.061376E-14	9.924530E-16
4.640000E+03	8.918214E-14	9.832381E-16
4.650000E+03	8.786267E-14	9.748448E-16
4.660000E+03	8.669678E-14	9.677456E-16
4.670000E+03	8.570318E-14	9.621699E-16
4.680000E+03	8.488376E-14	9.581615E-16
4.690000E+03	8.422636E-14	9.556034E-16
4.700000E+03	8.370474E-14	9.542146E-16
4.710000E+03	8.328616E-14	9.536317E-16
4.720000E+03	8.292956E-14	9.533882E-16
4.730000E+03	8.258792E-14	9.529409E-16
4.740000E+03	8.221365E-14	9.517322E-16
4.750000E+03	8.175774E-14	9.491828E-16
4.760000E+03	8.117533E-14	9.447577E-16
4.770000E+03	8.042515E-14	9.379627E-16
4.780000E+03	7.948367E-14	9.285130E-16
4.790000E+03	7.834135E-14	9.162914E-16
4.800000E+03	7.700531E-14	9.013826E-16
4.810000E+03	7.550349E-14	8.841220E-16
4.820000E+03	7.387967E-14	8.650379E-16
4.830000E+03	7.218655E-14	8.447677E-16
4.840000E+03	7.048458E-14	8.240421E-16
4.850000E+03	6.883352E-14	8.035827E-16
4.860000E+03	6.728732E-14	7.840396E-16
4.870000E+03	6.588991E-14	7.659391E-16
4.880000E+03	6.467014E-14	7.496246E-16
4.890000E+03	6.364459E-14	7.352889E-16
4.900000E+03	6.282269E-14	7.230346E-16
4.910000E+03	6.220332E-14	7.128355E-16
4.920000E+03	6.178366E-14	7.046399E-16
4.930000E+03	6.155871E-14	6.983666E-16
4.940000E+03	6.152070E-14	6.938977E-16
4.950000E+03	6.166313E-14	6.911265E-16
4.960000E+03	6.197762E-14	6.899217E-16
4.970000E+03	6.245285E-14	6.901171E-16
4.980000E+03	6.307408E-14	6.915080E-16
4.990000E+03	6.382425E-14	6.938662E-16
5.000000E+03	6.467967E-14	6.968945E-16
5.010000E+03	6.561544E-14	7.002898E-16
5.020000E+03	6.660159E-14	7.037039E-16
5.030000E+03	6.760469E-14	7.067648E-16
5.040000E+03	6.859311E-14	7.091346E-16
5.050000E+03	6.953734E-14	7.105133E-16
5.060000E+03	7.041007E-14	7.106397E-16
5.070000E+03	7.119099E-14	7.093397E-16
5.080000E+03	7.186692E-14	7.065231E-16
5.090000E+03	7.242482E-14	7.021129E-16
5.100000E+03	7.285819E-14	6.961058E-16
5.110000E+03	7.316491E-14	6.885481E-16
5.120000E+03	7.333588E-14	6.794274E-16
5.130000E+03	7.336432E-14	6.687620E-16
5.140000E+03	7.323715E-14	6.565223E-16
5.150000E+03	7.293581E-14	6.426423E-16
5.160000E+03	7.244144E-14	6.270695E-16
5.170000E+03	7.174344E-14	6.098363E-16
5.180000E+03	7.083610E-14	5.910258E-16
5.190000E+03	6.972984E-14	5.708594E-16
5.200000E+03	6.845622E-14	5.497224E-16
5.210000E+03	6.706123E-14	5.280946E-16
5.220000E+03	6.560638E-14	5.065464E-16
5.230000E+03	6.415640E-14	4.856337E-16
5.240000E+03	6.277647E-14	4.658759E-16
5.250000E+03	6.152441E-14	4.477004E-16
5.260000E+03	6.044520E-14	4.314114E-16
5.270000E+03	5.956254E-14	4.171432E-16
5.280000E+03	5.888574E-14	4.049243E-16
5.290000E+03	5.840728E-14	3.946728E-16
5.300000E+03	5.810332E-14	3.862115E-16
5.310000E+03	5.793946E-14	3.793141E-16
5.320000E+03	5.787798E-14	3.737552E-16
5.330000E+03	5.787697E-14	3.693032E-16
5.340000E+03	5.790007E-14	3.657776E-16
5.350000E+03	5.791660E-14	3.630424E-16
5.360000E+03	5.789831E-14	3.609781E-16
5.370000E+03	5.782378E-14	3.595027E-16
5.380000E+03	5.768337E-14	3.585770E-16
5.390000E+03	5.746996E-14	3.581232E-16
5.400000E+03	5.718141E-14	3.580745E-16
5.410000E+03	5.681703E-14	3.583592E-16
5.420000E+03	5.637810E-14	3.589016E-16
5.430000E+03	5.588173E-14	3.597181E-16
5.440000E+03	5.535843E-14	3.609126E-16
5.450000E+03	5.484190E-14	3.626189E-16
5.460000E+03	5.435810E-14	3.649340E-16
5.470000E+03	5.392390E-14	3.679082E-16
5.480000E+03	5.354770E-14	3.715468E-16
5.490000E+03	5.322722E-14	3.757902E-16
5.500000E+03	5.295890E-14	3.805746E-16
5.510000E+03	5.274025E-14	3.858482E-16
5.520000E+03	5.257116E-14	3.915811E-16
5.530000E+03	5.244935E-14	3.977314E-16
5.540000E+03	5.237609E-14	4.042877E-16
5.550000E+03	5.235015E-14	4.112235E-16
5.560000E+03	5.236894E-14	4.185035E-16
5.570000E+03	5.242524E-14	4.260568E-16
5.580000E+03	5.250918E-14	4.337884E-16
5.590000E+03	5.260657E-14	4.415640E-16
5.600000E+03	5.270178E-14	4.492313E-16
5.610000E+03	5.277619E-14	4.566060E-16
5.620000E+03	5.281256E-14	4.635081E-16
5.630000E+03	5.279571E-14	4.697700E-16
5.640000E+03	5.271311E-14	4.752426E-16
5.650000E+03	5.255734E-14	4.798211E-16
5.660000E+03	5.232691E-14	4.834547E-16
5.670000E+03	5.202636E-14	4.861519E-16
5.680000E+03	5.166471E-14	4.879688E-16
5.690000E+03	5.125571E-14	4.890129E-16
5.700000E+03	5.081577E-14	4.894259E-16
5.710000E+03	5.036253E-14	4.893693E-16
5.720000E+03	4.991537E-14	4.890297E-16
5.730000E+03	4.949021E-14	4.885666E-16
5.740000E+03	4.910251E-14	4.881401E-16
5.750000E+03	4.876398E-14	4.878768E-16
5.760000E+03	4.848164E-14	4.878586E-16
5.770000E+03	4.825921E-14	4.881342E-16
5.780000E+03	4.809709E-14	4.887183E-16
5.790000E+03	4.799009E-14	4.895668E-16
5.800000E+03	4.792922E-14	4.905947E-16
5.810000E+03	4.790383E-14	4.916977E-16
5.820000E+03	4.789894E-14	4.927245E-16
5.830000E+03	4.790045E-14	4.935312E-16
5.840000E+03	4.789524E-14	4.939838E-16
5.850000E+03	4.787192E-14	4.939655E-16
5.860000E+03	4.782204E-14	4.933913E-16
5.870000E+03	4.773918E-14	4.921981E-16
5.880000E+03	4.762132E-14	4.903705E-16
5.890000E+03	4.746704E-14	4.879004E-16
5.900000E+03	4.727873E-14	4.848215E-16
5.910000E+03	4.705953E-14	4.811761E-16
5.920000E+03	4.681189E-14	4.770010E-16
5.930000E+03	4.653736E-14	4.723251E-16
5.940000E+03	4.623375E-14	4.671408E-16
5.950000E+03	4.589746E-14	4.614279E-16
5.960000E+03	4.552285E-14	4.551484E-16
5.970000E+03	4.510156E-14	4.482401E-16
5.980000E+03	4.462284E-14	4.406208E-16
5.990000E+03	4.407769E-14	4.322303E-16
6.000000E+03	4.345535E-14	4.229957E-16
6.010000E+03	4.275034E-14	4.129007E-16
6.020000E+03	4.195833E-14	4.019431E-16
6.030000E+03	4.108260E-14	3.901968E-16
6.040000E+03	4.013504E-14	3.778166E-16
6.050000E+03	3.913568E-14	3.650309E-16
6.060000E+03	3.811343E-14	3.521432E-16
6.070000E+03	3.710293E-14	3.394991E-16
6.080000E+03	3.614472E-14	3.274853E-16
6.090000E+03	3.527758E-14	3.164567E-16
6.100000E+03	3.453918E-14	3.067442E-16
6.110000E+03	3.395993E-14	2.986014E-16
6.120000E+03	3.356220E-14	2.922013E-16
6.130000E+03	3.335902E-14	2.876314E-16
6.140000E+03	3.335369E-14	2.848947E-16
6.150000E+03	3.353908E-14	2.839100E-16
6.160000E+03	3.390004E-14	2.845372E-16
6.170000E+03	3.441496E-14	2.865942E-16
6.180000E+03	3.505431E-14	2.898471E-16
6.190000E+03	3.578516E-14	2.940497E-16
6.200000E+03	3.657174E-14	2.989465E-16
6.210000E+03	3.737715E-14	3.042856E-16
6.220000E+03	3.816456E-14	3.098251E-16
6.230000E+03	3.890090E-14	3.153585E-16
6.240000E+03	3.955854E-14	3.207235E-16
6.250000E+03	4.011496E-14	3.257944E-16
6.260000E+03	4.055569E-14	3.305022E-16
6.270000E+03	4.087304E-14	3.348205E-16
6.280000E+03	4.106668E-14	3.387606E-16
6.290000E+03	4.114165E-14	3.423383E-16
6.300000E+03	4.110748E-14	3.455898E-16
6.310000E+03	4.097695E-14	3.485695E-16
6.320000E+03	4.076402E-14	3.513368E-16
6.330000E+03	4.048198E-14	3.539435E-16
6.340000E+03	4.014556E-14	3.564551E-16
6.350000E+03	3.977003E-14	3.589456E-16
6.360000E+03	3.937094E-14	3.614988E-16
6.370000E+03	3.896812E-14	3.642480E-16
6.380000E+03	3.858321E-14	3.673573E-16
6.390000E+03	3.823968E-14	3.710265E-16
6.400000E+03	3.796005E-14	3.754660E-16
6.410000E+03	3.775408E-14	3.807792E-16
6.420000E+03	3.760428E-14	3.868005E-16
6.430000E+03	3.748932E-14	3.933142E-16
6.440000E+03	3.738971E-14	4.001094E-16
6.450000E+03	3.729096E-14	4.070155E-16
6.460000E+03	3.718425E-14	4.139141E-16
6.470000E+03	3.706489E-14	4.207273E-16
6.480000E+03	3.693224E-14	4.274210E-16
6.490000E+03	3.678608E-14	4.339666E-16
6.500000E+03	3.662936E-14	4.403746E-16
6.510000E+03	3.646401E-14	4.466466E-16
6.520000E+03	3.629098E-14	4.527749E-16
6.530000E+03	3.611176E-14	4.587603E-16
6.540000E+03	3.592669E-14	4.645914E-16
6.550000E+03	3.573590E-14	4.702549E-16
6.560000E+03	3.553952E-14	4.757389E-16
6.570000E+03	3.533848E-14	4.810429E-16
6.580000E+03	3.513286E-14	4.861567E-16
6.590000E+03	3.492364E-14	4.910833E-16
6.600000E+03	3.471254E-14	4.958379E-16
6.610000E+03	3.450067E-14	5.004293E-16
6.620000E+03	3.428832E-14	5.048552E-16
6.630000E+03	3.407657E-14	5.091264E-16
6.640000E+03	3.386493E-14	5.132313E-16
6.650000E+03	3.365419E-14	5.171778E-16
6.660000E+03	3.344260E-14	5.209356E-16
6.670000E+03	3.322941E-14	5.244890E-16
6.680000E+03	3.301456E-14	5.278328E-16
6.690000E+03	3.279754E-14	5.309556E-16
6.700000E+03	3.257756E-14	5.338406E-16
6.710000E+03	3.235476E-14	5.364865E-16
6.720000E+03	3.213002E-14	5.389052E-16
6.730000E+03	3.190328E-14	5.410928E-16
6.740000E+03	3.167565E-14	5.430668E-16
6.750000E+03	3.144658E-14	5.448159E-16
6.760000E+03	3.121770E-14	5.463679E-16
6.770000E+03	3.098843E-14	5.477122E-16
6.780000E+03	3.076047E-14	5.488788E-16
6.790000E+03	3.053335E-14	5.498604E-16
6.800000E+03	3.030848E-14	5.506830E-16
6.810000E+03	3.008679E-14	5.513654E-16
6.820000E+03	2.986865E-14	5.519166E-16
6.830000E+03	2.965555E-14	5.523665E-16
6.840000E+03	2.944773E-14	5.527228E-16
6.850000E+03	2.924633E-14	5.530103E-16
6.860000E+03	2.905068E-14	5.532196E-16
6.870000E+03	2.886195E-14	5.533768E-16
6.880000E+03	2.867937E-14	5.534703E-16
6.890000E+03	2.850241E-14	5.534934E-16
6.900000E+03	2.832989E-14	5.534260E-16
6.910000E+03	2.816234E-14	5.532811E-16
6.920000E+03	2.799797E-14	5.530264E-16
6.930000E+03	2.783856E-14	5.526991E-16
6.940000E+03	2.768347E-14	5.522893E-16
6.950000E+03	2.753343E-14	5.518138E-16
6.960000E+03	2.738976E-14	5.513019E-16
6.970000E+03	2.725271E-14	5.507615E-16
6.980000E+03	2.712297E-14	5.502091E-16
6.990000E+03	2.700099E-14	5.496570E-16
7.000000E+03	2.688704E-14	5.491129E-16
7.010000E+03	2.678109E-14	5.485792E-16
7.020000E+03	2.668235E-14	5.480417E-16
7.030000E+03	2.659126E-14	5.475118E-16
7.040000E+03	2.650543E-14	5.469418E-16
7.050000E+03	2.642531E-14	5.463424E-16
7.060000E+03	2.634792E-14	5.456537E-16
7.070000E+03	2.627268E-14	5.448643E-16
7.080000E+03	2.619725E-14	5.439266E-16
7.090000E+03	2.611969E-14	5.428011E-16
7.100000E+03	2.603859E-14	5.414591E-16
7.110000E+03	2.595100E-14	5.398402E-16
7.120000E+03	2.585568E-14	5.379192E-16
7.130000E+03	2.575049E-14	5.356533E-16
7.140000E+03	2.563469E-14	5.330282E-16
7.150000E+03	2.550743E-14	5.300286E-16
7.160000E+03	2.536788E-14	5.266396E-16
7.170000E+03	2.521690E-14	5.228817E-16
7.180000E+03	2.505438E-14	5.187560E-16
7.190000E+03	2.488291E-14	5.143196E-16
7.200000E+03	2.470400E-14	5.096077E-16
7.210000E+03	2.451942E-14	5.046606E-16
7.220000E+03	2.433209E-14	4.995421E-16
7.230000E+03	2.414422E-14	4.943008E-16
7.240000E+03	2.395722E-14	4.889694E-16
7.250000E+03	2.377252E-14	4.835799E-16
7.260000E+03	2.359104E-14	4.781536E-16
7.270000E+03	2.341313E-14	4.727004E-16
7.280000E+03	2.323872E-14	4.672213E-16
7.290000E+03	2.306651E-14	4.616927E-16
7.300000E+03	2.289701E-14	4.561273E-16
7.310000E+03	2.272937E-14	4.505111E-16
7.320000E+03	2.256276E-14	4.448302E-16
7.330000E+03	2.239721E-14	4.390885E-16
7.340000E+03	2.223118E-14	4.332586E-16
7.350000E+03	2.206369E-14	4.273255E-16
7.360000E+03	2.189338E-14	4.212671E-16
7.370000E+03	2.171799E-14	4.150447E-16
7.380000E+03	2.153603E-14	4.086359E-16
7.390000E+03	2.134437E-14	4.019885E-16
7.400000E+03	2.114277E-14	3.951057E-16
7.410000E+03	2.093000E-14	3.879741E-16
7.420000E+03	2.070737E-14	3.806268E-16
7.430000E+03	2.047649E-14	3.731029E-16
7.440000E+03	2.024061E-14	3.654697E-16
7.450000E+03	2.000426E-14	3.578156E-16
7.460000E+03	1.977164E-14	3.502209E-16
7.470000E+03	1.954889E-14	3.427957E-16
7.480000E+03	1.933966E-14	3.356038E-16
7.490000E+03	1.914868E-14	3.287236E-16
7.500000E+03	1.897848E-14	3.221929E-16
7.510000E+03	1.883205E-14	3.160546E-16
7.520000E+03	1.870947E-14	3.103008E-16
7.530000E+03	1.861011E-14	3.049113E-16
7.540000E+03	1.853285E-14	2.998584E-16
7.550000E+03	1.847555E-14	2.950991E-16
7.560000E+03	1.843660E-14	2.905998E-16
7.570000E+03	1.841275E-14	2.863027E-16
7.580000E+03	1.840218E-14	2.821754E-16
7.590000E+03	1.840339E-14	2.781916E-16
7.600000E+03	1.841434E-14	2.743183E-16
7.610000E+03	1.843407E-14	2.705410E-16
7.620000E+03	1.846106E-14	2.668382E-16
7.630000E+03	1.849521E-14	2.632103E-16
7.640000E+03	1.853488E-14	2.596371E-16
7.650000E+03	1.858019E-14	2.561245E-16
7.660000E+03	1.862951E-14	2.526555E-16
7.670000E+03	1.868273E-14	2.492356E-16
7.680000E+03	1.873753E-14	2.458426E-16
7.690000E+03	1.879261E-14	2.424700E-16
7.700000E+03	1.884442E-14	2.390853E-16
7.710000E+03	1.888895E-14	2.356545E-16
7.720000E+03	1.892159E-14	2.321403E-16
7.730000E+03	1.893737E-14	2.285058E-16
7.740000E+03	1.893142E-14	2.247205E-16
7.750000E+03	1.889915E-14	2.207609E-16
7.760000E+03	1.883827E-14	2.166333E-16
