#wls	flux	fluxerr
1.600000E+03	4.535262E-14	1.134011E-15
1.640000E+03	3.926772E-14	9.694731E-16
1.680000E+03	3.351710E-14	8.168663E-16
1.720000E+03	2.816584E-14	6.774749E-16
1.760000E+03	2.326778E-14	5.522251E-16
1.800000E+03	1.886914E-14	4.417870E-16
1.840000E+03	1.500077E-14	3.464077E-16
1.880000E+03	1.168058E-14	2.659931E-16
1.920000E+03	8.906319E-15	1.999686E-16
1.960000E+03	6.656518E-15	1.473333E-16
2.000000E+03	4.893493E-15	1.067589E-16
2.040000E+03	3.562997E-15	7.660951E-17
2.080000E+03	2.599832E-15	5.508786E-17
2.120000E+03	1.933407E-15	4.036925E-17
2.160000E+03	1.494745E-15	3.075373E-17
2.200000E+03	1.229499E-15	2.492659E-17
2.240000E+03	1.102097E-15	2.201785E-17
2.280000E+03	1.096713E-15	2.159247E-17
2.320000E+03	1.216015E-15	2.359686E-17
2.360000E+03	1.485964E-15	2.842483E-17
2.400000E+03	1.967062E-15	3.709856E-17
2.440000E+03	2.764499E-15	5.141431E-17
2.480000E+03	4.038887E-15	7.408528E-17
2.520000E+03	6.011568E-15	1.087744E-16
2.560000E+03	8.958336E-15	1.599162E-16
2.600000E+03	1.319523E-14	2.324114E-16
2.640000E+03	1.904723E-14	3.310460E-16
2.680000E+03	2.671347E-14	4.581793E-16
2.720000E+03	3.612376E-14	6.114651E-16
2.760000E+03	4.694721E-14	7.842963E-16
2.800000E+03	5.865436E-14	9.671062E-16
2.840000E+03	7.060613E-14	1.149018E-15
2.880000E+03	8.212659E-14	1.319112E-15
2.920000E+03	9.254643E-14	1.467139E-15
2.960000E+03	1.012552E-13	1.584318E-15
3.000000E+03	1.077544E-13	1.664077E-15
3.010000E+03	1.089912E-13	1.677678E-15
3.020000E+03	1.100663E-13	1.688690E-15
3.030000E+03	1.109798E-13	1.697144E-15
3.040000E+03	1.117311E-13	1.703052E-15
3.050000E+03	1.123202E-13	1.706442E-15
3.060000E+03	1.127514E-13	1.707402E-15
3.070000E+03	1.130250E-13	1.705960E-15
3.080000E+03	1.131501E-13	1.702276E-15
3.090000E+03	1.131294E-13	1.696413E-15
3.100000E+03	1.129717E-13	1.688524E-15
3.110000E+03	1.126846E-13	1.678740E-15
3.120000E+03	1.122786E-13	1.667237E-15
3.130000E+03	1.117629E-13	1.654169E-15
3.140000E+03	1.111473E-13	1.639691E-15
3.150000E+03	1.104441E-13	1.624005E-15
3.160000E+03	1.096619E-13	1.607245E-15
3.170000E+03	1.088158E-13	1.589642E-15
3.180000E+03	1.079146E-13	1.571335E-15
3.190000E+03	1.069710E-13	1.552514E-15
3.200000E+03	1.059957E-13	1.533341E-15
3.210000E+03	1.049992E-13	1.513970E-15
3.220000E+03	1.039933E-13	1.494574E-15
3.230000E+03	1.029874E-13	1.475289E-15
3.240000E+03	1.019890E-13	1.456220E-15
3.250000E+03	1.010118E-13	1.437561E-15
3.260000E+03	1.000587E-13	1.419352E-15
3.270000E+03	9.914237E-14	1.401765E-15
3.280000E+03	9.826658E-14	1.384851E-15
3.290000E+03	9.743960E-14	1.368719E-15
3.300000E+03	9.666914E-14	1.353469E-15
3.310000E+03	9.595819E-14	1.339137E-15
3.320000E+03	9.531534E-14	1.325833E-15
3.330000E+03	9.474587E-14	1.313620E-15
3.340000E+03	9.425381E-14	1.302546E-15
3.350000E+03	9.384441E-14	1.292671E-15
3.360000E+03	9.352279E-14	1.284055E-15
3.370000E+03	9.329548E-14	1.276775E-15
3.380000E+03	9.316520E-14	1.270858E-15
3.390000E+03	9.313983E-14	1.266396E-15
3.400000E+03	9.322222E-14	1.263416E-15
3.410000E+03	9.341770E-14	1.261975E-15
3.420000E+03	9.373268E-14	1.262145E-15
3.430000E+03	9.416855E-14	1.263931E-15
3.440000E+03	9.473213E-14	1.267408E-15
3.450000E+03	9.542582E-14	1.272593E-15
3.460000E+03	9.624860E-14	1.279457E-15
3.470000E+03	9.720249E-14	1.288011E-15
3.480000E+03	9.827850E-14	1.298121E-15
3.490000E+03	9.946280E-14	1.309591E-15
3.500000E+03	1.007343E-13	1.322130E-15
3.510000E+03	1.020650E-13	1.335362E-15
3.520000E+03	1.034301E-13	1.348955E-15
3.530000E+03	1.048005E-13	1.362525E-15
3.540000E+03	1.061475E-13	1.375700E-15
3.550000E+03	1.074445E-13	1.388137E-15
3.560000E+03	1.086648E-13	1.399500E-15
3.570000E+03	1.097859E-13	1.409508E-15
3.580000E+03	1.107879E-13	1.417915E-15
3.590000E+03	1.116576E-13	1.424569E-15
3.600000E+03	1.123860E-13	1.429369E-15
3.610000E+03	1.129685E-13	1.432274E-15
3.620000E+03	1.134085E-13	1.433341E-15
3.630000E+03	1.137152E-13	1.432704E-15
3.640000E+03	1.139012E-13	1.430534E-15
3.650000E+03	1.139893E-13	1.427132E-15
3.660000E+03	1.140019E-13	1.422786E-15
3.670000E+03	1.139693E-13	1.417882E-15
3.680000E+03	1.139239E-13	1.412825E-15
3.690000E+03	1.139000E-13	1.408042E-15
3.700000E+03	1.139346E-13	1.403982E-15
3.710000E+03	1.140657E-13	1.401106E-15
3.720000E+03	1.143275E-13	1.399820E-15
3.730000E+03	1.147588E-13	1.400582E-15
3.740000E+03	1.153918E-13	1.403762E-15
3.750000E+03	1.162594E-13	1.409735E-15
3.760000E+03	1.173912E-13	1.418829E-15
3.770000E+03	1.188103E-13	1.431291E-15
3.780000E+03	1.205400E-13	1.447367E-15
3.790000E+03	1.225946E-13	1.467189E-15
3.800000E+03	1.249838E-13	1.490835E-15
3.810000E+03	1.277096E-13	1.518287E-15
3.820000E+03	1.307662E-13	1.549436E-15
3.830000E+03	1.341387E-13	1.584066E-15
3.840000E+03	1.378032E-13	1.621856E-15
3.850000E+03	1.417252E-13	1.662367E-15
3.860000E+03	1.458632E-13	1.705082E-15
3.870000E+03	1.501647E-13	1.749362E-15
3.880000E+03	1.545695E-13	1.794489E-15
3.890000E+03	1.590137E-13	1.839708E-15
3.900000E+03	1.634288E-13	1.884227E-15
3.910000E+03	1.677486E-13	1.927286E-15
3.920000E+03	1.719075E-13	1.968146E-15
3.930000E+03	1.758463E-13	2.006151E-15
3.940000E+03	1.795128E-13	2.040735E-15
3.950000E+03	1.828646E-13	2.071448E-15
3.960000E+03	1.858744E-13	2.098022E-15
3.970000E+03	1.885192E-13	2.120242E-15
3.980000E+03	1.907933E-13	2.138085E-15
3.990000E+03	1.926970E-13	2.151605E-15
4.000000E+03	1.942412E-13	2.160966E-15
4.010000E+03	1.954423E-13	2.166397E-15
4.020000E+03	1.963188E-13	2.168143E-15
4.030000E+03	1.968953E-13	2.166518E-15
4.040000E+03	1.971945E-13	2.161808E-15
4.050000E+03	1.972398E-13	2.154304E-15
4.060000E+03	1.970514E-13	2.144259E-15
4.070000E+03	1.966468E-13	2.131894E-15
4.080000E+03	1.960444E-13	2.117435E-15
4.090000E+03	1.952550E-13	2.101023E-15
4.100000E+03	1.942897E-13	2.082805E-15
4.110000E+03	1.931576E-13	2.062898E-15
4.120000E+03	1.918626E-13	2.041368E-15
4.130000E+03	1.904119E-13	2.018313E-15
4.140000E+03	1.888072E-13	1.993773E-15
4.150000E+03	1.870536E-13	1.967818E-15
4.160000E+03	1.851568E-13	1.940531E-15
4.170000E+03	1.831216E-13	1.911981E-15
4.180000E+03	1.809605E-13	1.882314E-15
4.190000E+03	1.786843E-13	1.851660E-15
4.200000E+03	1.763160E-13	1.820271E-15
4.210000E+03	1.738774E-13	1.788384E-15
4.220000E+03	1.714002E-13	1.756332E-15
4.230000E+03	1.689200E-13	1.724485E-15
4.240000E+03	1.664773E-13	1.693256E-15
4.250000E+03	1.641105E-13	1.663030E-15
4.260000E+03	1.618623E-13	1.634232E-15
4.270000E+03	1.597674E-13	1.607196E-15
4.280000E+03	1.578535E-13	1.582187E-15
4.290000E+03	1.561404E-13	1.559381E-15
4.300000E+03	1.546341E-13	1.538818E-15
4.310000E+03	1.533228E-13	1.520361E-15
4.320000E+03	1.521824E-13	1.503751E-15
4.330000E+03	1.511728E-13	1.488577E-15
4.340000E+03	1.502421E-13	1.474318E-15
4.350000E+03	1.493340E-13	1.460413E-15
4.360000E+03	1.484049E-13	1.446433E-15
4.370000E+03	1.474504E-13	1.432335E-15
4.380000E+03	1.465216E-13	1.418614E-15
4.390000E+03	1.457065E-13	1.406115E-15
4.400000E+03	1.450964E-13	1.395704E-15
4.410000E+03	1.447780E-13	1.388190E-15
4.420000E+03	1.448293E-13	1.384292E-15
4.430000E+03	1.453171E-13	1.384611E-15
4.440000E+03	1.462972E-13	1.389636E-15
4.450000E+03	1.478179E-13	1.399781E-15
4.460000E+03	1.499135E-13	1.415317E-15
4.470000E+03	1.525985E-13	1.436330E-15
4.480000E+03	1.558434E-13	1.462491E-15
4.490000E+03	1.595453E-13	1.492788E-15
4.500000E+03	1.635452E-13	1.525697E-15
4.510000E+03	1.676507E-13	1.559403E-15
4.520000E+03	1.716621E-13	1.592042E-15
4.530000E+03	1.753889E-13	1.621858E-15
4.540000E+03	1.786573E-13	1.647268E-15
4.550000E+03	1.813229E-13	1.666979E-15
4.560000E+03	1.832733E-13	1.680003E-15
4.570000E+03	1.844281E-13	1.685660E-15
4.580000E+03	1.847395E-13	1.683572E-15
4.590000E+03	1.841964E-13	1.673703E-15
4.600000E+03	1.828179E-13	1.656289E-15
4.610000E+03	1.806529E-13	1.631833E-15
4.620000E+03	1.777776E-13	1.601084E-15
4.630000E+03	1.742861E-13	1.564938E-15
4.640000E+03	1.702904E-13	1.524447E-15
4.650000E+03	1.659095E-13	1.480711E-15
4.660000E+03	1.612630E-13	1.434823E-15
4.670000E+03	1.564661E-13	1.387828E-15
4.680000E+03	1.516240E-13	1.340667E-15
4.690000E+03	1.468285E-13	1.294154E-15
4.700000E+03	1.421593E-13	1.248985E-15
4.710000E+03	1.376771E-13	1.205683E-15
4.720000E+03	1.334280E-13	1.164636E-15
4.730000E+03	1.294463E-13	1.126122E-15
4.740000E+03	1.257502E-13	1.090279E-15
4.750000E+03	1.223491E-13	1.057164E-15
4.760000E+03	1.192449E-13	1.026770E-15
4.770000E+03	1.164318E-13	9.990209E-16
4.780000E+03	1.138991E-13	9.738010E-16
4.790000E+03	1.116354E-13	9.509894E-16
4.800000E+03	1.096274E-13	9.304496E-16
4.810000E+03	1.078605E-13	9.120348E-16
4.820000E+03	1.063221E-13	8.956185E-16
4.830000E+03	1.049981E-13	8.810611E-16
4.840000E+03	1.038725E-13	8.682101E-16
4.850000E+03	1.029267E-13	8.568909E-16
4.860000E+03	1.021369E-13	8.468892E-16
4.870000E+03	1.014779E-13	8.379829E-16
4.880000E+03	1.009171E-13	8.298921E-16
4.890000E+03	1.004231E-13	8.223493E-16
4.900000E+03	9.996730E-14	8.151163E-16
4.910000E+03	9.952684E-14	8.080038E-16
4.920000E+03	9.908905E-14	8.009094E-16
4.930000E+03	9.865295E-14	7.938261E-16
4.940000E+03	9.823623E-14	7.868969E-16
4.950000E+03	9.786822E-14	7.803549E-16
4.960000E+03	9.759136E-14	7.745331E-16
4.970000E+03	9.745600E-14	7.698209E-16
4.980000E+03	9.751554E-14	7.666236E-16
4.990000E+03	9.782073E-14	7.653181E-16
5.000000E+03	9.841629E-14	7.662261E-16
5.010000E+03	9.933780E-14	7.695914E-16
5.020000E+03	1.006053E-13	7.755324E-16
5.030000E+03	1.022231E-13	7.840446E-16
5.040000E+03	1.041818E-13	7.950156E-16
5.050000E+03	1.064486E-13	8.081603E-16
5.060000E+03	1.089784E-13	8.231018E-16
5.070000E+03	1.117066E-13	8.393282E-16
5.080000E+03	1.145499E-13	8.561957E-16
5.090000E+03	1.174189E-13	8.730292E-16
5.100000E+03	1.202096E-13	8.890611E-16
5.110000E+03	1.228164E-13	9.035271E-16
5.120000E+03	1.251357E-13	9.156963E-16
5.130000E+03	1.270669E-13	9.248762E-16
5.140000E+03	1.285236E-13	9.304916E-16
5.150000E+03	1.294364E-13	9.321046E-16
5.160000E+03	1.297539E-13	9.294165E-16
5.170000E+03	1.294493E-13	9.223099E-16
5.180000E+03	1.285207E-13	9.108490E-16
5.190000E+03	1.269963E-13	8.953078E-16
5.200000E+03	1.249282E-13	8.761227E-16
5.210000E+03	1.223992E-13	8.539349E-16
5.220000E+03	1.195101E-13	8.294973E-16
5.230000E+03	1.163778E-13	8.036568E-16
5.240000E+03	1.131280E-13	7.773026E-16
5.250000E+03	1.098868E-13	7.513108E-16
5.260000E+03	1.067690E-13	7.264588E-16
5.270000E+03	1.038774E-13	7.034303E-16
5.280000E+03	1.012954E-13	6.827647E-16
5.290000E+03	9.908059E-14	6.648172E-16
5.300000E+03	9.727352E-14	6.498254E-16
5.310000E+03	9.588651E-14	6.378355E-16
5.320000E+03	9.491604E-14	6.287897E-16
5.330000E+03	9.433296E-14	6.224638E-16
5.340000E+03	9.409462E-14	6.185509E-16
5.350000E+03	9.414054E-14	6.166338E-16
5.360000E+03	9.439609E-14	6.162112E-16
5.370000E+03	9.477966E-14	6.167445E-16
5.380000E+03	9.519970E-14	6.176390E-16
5.390000E+03	9.557089E-14	6.183477E-16
5.400000E+03	9.581305E-14	6.183595E-16
5.410000E+03	9.586671E-14	6.172983E-16
5.420000E+03	9.570878E-14	6.150229E-16
5.430000E+03	9.536968E-14	6.117324E-16
5.440000E+03	9.492792E-14	6.079298E-16
5.450000E+03	9.448609E-14	6.042673E-16
5.460000E+03	9.414412E-14	6.013766E-16
5.470000E+03	9.398303E-14	5.997660E-16
5.480000E+03	9.405716E-14	5.997732E-16
5.490000E+03	9.439361E-14	6.015624E-16
5.500000E+03	9.499556E-14	6.051471E-16
5.510000E+03	9.584097E-14	6.103815E-16
5.520000E+03	9.688762E-14	6.169934E-16
5.530000E+03	9.807702E-14	6.246079E-16
5.540000E+03	9.934084E-14	6.327881E-16
5.550000E+03	1.006016E-13	6.410386E-16
5.560000E+03	1.017847E-13	6.488831E-16
5.570000E+03	1.028187E-13	6.558615E-16
5.580000E+03	1.036451E-13	6.615974E-16
5.590000E+03	1.042213E-13	6.658117E-16
5.600000E+03	1.045180E-13	6.683109E-16
5.610000E+03	1.045263E-13	6.690278E-16
5.620000E+03	1.042518E-13	6.679899E-16
5.630000E+03	1.037133E-13	6.653068E-16
5.640000E+03	1.029419E-13	6.611671E-16
5.650000E+03	1.019783E-13	6.558233E-16
5.660000E+03	1.008683E-13	6.495604E-16
5.670000E+03	9.965987E-14	6.426792E-16
5.680000E+03	9.840388E-14	6.355021E-16
5.690000E+03	9.715039E-14	6.283473E-16
5.700000E+03	9.594348E-14	6.214968E-16
5.710000E+03	9.482566E-14	6.152247E-16
5.720000E+03	9.383370E-14	6.097699E-16
5.730000E+03	9.299624E-14	6.053203E-16
5.740000E+03	9.233396E-14	6.020136E-16
5.750000E+03	9.185888E-14	5.999325E-16
5.760000E+03	9.157399E-14	5.991015E-16
5.770000E+03	9.147436E-14	5.994936E-16
5.780000E+03	9.154462E-14	6.010137E-16
5.790000E+03	9.176490E-14	6.035366E-16
5.800000E+03	9.210653E-14	6.068787E-16
5.810000E+03	9.253789E-14	6.108356E-16
5.820000E+03	9.302781E-14	6.152051E-16
5.830000E+03	9.354193E-14	6.197622E-16
5.840000E+03	9.405179E-14	6.243198E-16
5.850000E+03	9.453329E-14	6.287188E-16
5.860000E+03	9.496544E-14	6.328196E-16
5.870000E+03	9.533426E-14	6.365283E-16
5.880000E+03	9.562786E-14	6.397647E-16
5.890000E+03	9.584008E-14	6.424866E-16
5.900000E+03	9.596235E-14	6.446349E-16
5.910000E+03	9.598544E-14	6.461462E-16
5.920000E+03	9.589720E-14	6.469366E-16
5.930000E+03	9.567693E-14	6.468637E-16
5.940000E+03	9.529764E-14	6.457411E-16
5.950000E+03	9.472057E-14	6.433009E-16
5.960000E+03	9.389961E-14	6.392222E-16
5.970000E+03	9.278006E-14	6.331221E-16
5.980000E+03	9.130391E-14	6.245907E-16
5.990000E+03	8.941530E-14	6.132279E-16
6.000000E+03	8.707209E-14	5.987227E-16
6.010000E+03	8.425217E-14	5.808975E-16
6.020000E+03	8.096234E-14	5.597708E-16
6.030000E+03	7.724769E-14	5.356251E-16
6.040000E+03	7.318922E-14	5.089938E-16
6.050000E+03	6.890163E-14	4.806499E-16
6.060000E+03	6.452570E-14	4.515568E-16
6.070000E+03	6.020876E-14	4.227350E-16
6.080000E+03	5.609594E-14	3.952027E-16
6.090000E+03	5.231344E-14	3.698578E-16
6.100000E+03	4.896492E-14	3.474522E-16
6.110000E+03	4.612535E-14	3.285457E-16
6.120000E+03	4.384462E-14	3.135294E-16
6.130000E+03	4.215098E-14	3.026477E-16
6.140000E+03	4.105559E-14	2.960284E-16
6.150000E+03	4.055755E-14	2.937177E-16
6.160000E+03	4.064597E-14	2.956926E-16
6.170000E+03	4.130014E-14	3.018619E-16
6.180000E+03	4.248830E-14	3.120545E-16
6.190000E+03	4.416418E-14	3.259926E-16
6.200000E+03	4.626544E-14	3.432765E-16
6.210000E+03	4.870984E-14	3.633501E-16
6.220000E+03	5.139575E-14	3.855001E-16
6.230000E+03	5.420623E-14	4.088827E-16
6.240000E+03	5.701506E-14	4.325646E-16
6.250000E+03	5.969610E-14	4.555906E-16
6.260000E+03	6.213336E-14	4.770597E-16
6.270000E+03	6.423024E-14	4.961972E-16
6.280000E+03	6.591697E-14	5.124161E-16
6.290000E+03	6.715035E-14	5.253210E-16
6.300000E+03	6.792097E-14	5.347709E-16
6.310000E+03	6.824175E-14	5.407971E-16
6.320000E+03	6.815107E-14	5.436337E-16
6.330000E+03	6.770414E-14	5.436563E-16
6.340000E+03	6.696885E-14	5.413523E-16
6.350000E+03	6.601995E-14	5.372787E-16
6.360000E+03	6.493659E-14	5.320438E-16
6.370000E+03	6.379725E-14	5.262675E-16
6.380000E+03	6.267500E-14	5.205421E-16
6.390000E+03	6.163409E-14	5.154030E-16
6.400000E+03	6.072471E-14	5.112821E-16
6.410000E+03	5.996998E-14	5.083940E-16
6.420000E+03	5.936766E-14	5.067429E-16
6.430000E+03	5.889792E-14	5.061817E-16
6.440000E+03	5.853342E-14	5.064939E-16
6.450000E+03	5.824796E-14	5.074672E-16
6.460000E+03	5.801384E-14	5.088700E-16
6.470000E+03	5.780856E-14	5.105104E-16
6.480000E+03	5.761201E-14	5.122121E-16
6.490000E+03	5.740668E-14	5.138179E-16
6.500000E+03	5.717941E-14	5.152056E-16
6.510000E+03	5.692027E-14	5.162787E-16
6.520000E+03	5.662236E-14	5.169667E-16
6.530000E+03	5.628140E-14	5.172215E-16
6.540000E+03	5.589641E-14	5.170242E-16
6.550000E+03	5.546667E-14	5.163587E-16
6.560000E+03	5.499320E-14	5.152249E-16
6.570000E+03	5.448102E-14	5.136609E-16
6.580000E+03	5.393274E-14	5.116831E-16
6.590000E+03	5.335432E-14	5.093409E-16
6.600000E+03	5.275133E-14	5.066813E-16
6.610000E+03	5.212947E-14	5.037543E-16
6.620000E+03	5.149443E-14	5.006108E-16
6.630000E+03	5.085077E-14	4.972928E-16
6.640000E+03	5.020439E-14	4.938559E-16
6.650000E+03	4.955897E-14	4.903357E-16
6.660000E+03	4.891930E-14	4.867798E-16
6.670000E+03	4.828795E-14	4.832144E-16
6.680000E+03	4.766766E-14	4.796683E-16
6.690000E+03	4.706139E-14	4.761732E-16
6.700000E+03	4.647069E-14	4.727472E-16
6.710000E+03	4.589499E-14	4.693870E-16
6.720000E+03	4.533635E-14	4.661163E-16
6.730000E+03	4.479323E-14	4.629219E-16
6.740000E+03	4.426674E-14	4.598181E-16
6.750000E+03	4.375531E-14	4.567912E-16
6.760000E+03	4.325708E-14	4.538245E-16
6.770000E+03	4.277224E-14	4.509220E-16
6.780000E+03	4.229778E-14	4.480545E-16
6.790000E+03	4.183297E-14	4.452157E-16
6.800000E+03	4.137630E-14	4.423916E-16
6.810000E+03	4.092646E-14	4.395696E-16
6.820000E+03	4.048157E-14	4.367308E-16
6.830000E+03	4.004151E-14	4.338752E-16
6.840000E+03	3.960499E-14	4.309898E-16
6.850000E+03	3.917250E-14	4.280810E-16
6.860000E+03	3.874341E-14	4.251430E-16
6.870000E+03	3.831812E-14	4.221812E-16
6.880000E+03	3.789799E-14	4.192119E-16
6.890000E+03	3.748248E-14	4.162303E-16
6.900000E+03	3.707401E-14	4.132647E-16
6.910000E+03	3.667299E-14	4.103213E-16
6.920000E+03	3.628055E-14	4.074141E-16
6.930000E+03	3.589774E-14	4.045571E-16
6.940000E+03	3.552554E-14	4.017631E-16
6.950000E+03	3.516410E-14	3.990356E-16
6.960000E+03	3.481471E-14	3.963914E-16
6.970000E+03	3.447783E-14	3.938378E-16
6.980000E+03	3.415366E-14	3.913792E-16
6.990000E+03	3.384096E-14	3.890033E-16
7.000000E+03	3.354153E-14	3.867329E-16
7.010000E+03	3.325310E-14	3.845437E-16
7.020000E+03	3.297652E-14	3.824474E-16
7.030000E+03	3.271048E-14	3.804306E-16
7.040000E+03	3.245423E-14	3.784862E-16
7.050000E+03	3.220686E-14	3.766051E-16
7.060000E+03	3.196732E-14	3.747766E-16
7.070000E+03	3.173380E-14	3.729807E-16
7.080000E+03	3.150568E-14	3.712111E-16
7.090000E+03	3.128161E-14	3.694530E-16
7.100000E+03	3.105954E-14	3.676834E-16
7.110000E+03	3.083870E-14	3.658935E-16
7.120000E+03	3.061701E-14	3.640598E-16
7.130000E+03	3.039309E-14	3.621661E-16
7.140000E+03	3.016558E-14	3.601967E-16
7.150000E+03	2.993372E-14	3.581431E-16
7.160000E+03	2.969497E-14	3.559751E-16
7.170000E+03	2.944801E-14	3.536772E-16
7.180000E+03	2.919273E-14	3.512482E-16
7.190000E+03	2.892663E-14	3.486583E-16
7.200000E+03	2.864843E-14	3.458921E-16
7.210000E+03	2.835755E-14	3.429426E-16
7.220000E+03	2.805229E-14	3.397896E-16
7.230000E+03	2.773176E-14	3.364221E-16
7.240000E+03	2.739530E-14	3.328321E-16
7.250000E+03	2.704248E-14	3.290148E-16
7.260000E+03	2.667382E-14	3.249764E-16
7.270000E+03	2.628842E-14	3.207064E-16
7.280000E+03	2.588807E-14	3.162265E-16
7.290000E+03	2.547316E-14	3.115420E-16
7.300000E+03	2.504496E-14	3.066690E-16
7.310000E+03	2.460559E-14	3.016338E-16
7.320000E+03	2.415633E-14	2.964527E-16
7.330000E+03	2.369967E-14	2.911572E-16
7.340000E+03	2.323776E-14	2.857743E-16
7.350000E+03	2.277333E-14	2.803385E-16
7.360000E+03	2.230862E-14	2.748783E-16
7.370000E+03	2.184640E-14	2.694290E-16
7.380000E+03	2.138842E-14	2.640134E-16
7.390000E+03	2.093839E-14	2.586782E-16
7.400000E+03	2.049853E-14	2.534520E-16
7.410000E+03	2.007058E-14	2.483577E-16
7.420000E+03	1.965817E-14	2.434414E-16
7.430000E+03	1.926310E-14	2.387268E-16
7.440000E+03	1.888805E-14	2.342482E-16
7.450000E+03	1.853474E-14	2.300284E-16
7.460000E+03	1.820572E-14	2.261000E-16
7.470000E+03	1.790159E-14	2.224722E-16
7.480000E+03	1.762486E-14	2.191772E-16
7.490000E+03	1.737562E-14	2.162174E-16
7.500000E+03	1.715522E-14	2.136109E-16
7.510000E+03	1.696380E-14	2.113607E-16
7.520000E+03	1.680110E-14	2.094646E-16
7.530000E+03	1.666725E-14	2.079255E-16
7.540000E+03	1.656046E-14	2.067225E-16
7.550000E+03	1.648072E-14	2.058560E-16
7.560000E+03	1.642659E-14	2.053096E-16
7.570000E+03	1.639697E-14	2.050706E-16
7.580000E+03	1.639033E-14	2.051208E-16
7.590000E+03	1.640600E-14	2.054530E-16
7.600000E+03	1.644265E-14	2.060517E-16
7.610000E+03	1.649953E-14	2.069084E-16
7.620000E+03	1.657650E-14	2.080227E-16
7.630000E+03	1.667290E-14	2.093873E-16
7.640000E+03	1.678915E-14	2.110089E-16
7.650000E+03	1.692466E-14	2.128811E-16
7.660000E+03	1.708074E-14	2.150220E-16
7.670000E+03	1.725759E-14	2.174354E-16
7.680000E+03	1.745625E-14	2.201360E-16
7.690000E+03	1.767680E-14	2.231267E-16
7.700000E+03	1.791947E-14	2.264119E-16
7.710000E+03	1.818405E-14	2.299910E-16
7.720000E+03	1.847068E-14	2.338679E-16
7.730000E+03	1.877641E-14	2.380072E-16
7.740000E+03	1.910032E-14	2.423994E-16
7.750000E+03	1.943813E-14	2.469926E-16
7.760000E+03	1.978612E-14	2.517413E-16
