#wls	flux	fluxerr
1.600000E+03	4.657750E-14	1.447973E-15
1.640000E+03	4.031712E-14	1.229901E-15
1.680000E+03	3.448788E-14	1.031902E-15
1.720000E+03	2.912588E-14	8.543557E-16
1.760000E+03	2.425958E-14	6.973152E-16
1.800000E+03	1.990688E-14	5.604508E-16
1.840000E+03	1.606717E-14	4.428635E-16
1.880000E+03	1.273780E-14	3.435865E-16
1.920000E+03	9.901228E-15	2.612563E-16
1.960000E+03	7.532401E-15	1.943498E-16
2.000000E+03	5.600070E-15	1.412438E-16
2.040000E+03	4.073198E-15	1.003940E-16
2.080000E+03	2.915089E-15	7.019625E-17
2.120000E+03	2.084633E-15	4.903450E-17
2.160000E+03	1.536108E-15	3.529034E-17
2.200000E+03	1.211152E-15	2.717581E-17
2.240000E+03	1.059185E-15	2.321324E-17
2.280000E+03	1.054905E-15	2.258576E-17
2.320000E+03	1.203784E-15	2.518589E-17
2.360000E+03	1.553986E-15	3.178573E-17
2.400000E+03	2.220361E-15	4.442596E-17
2.440000E+03	3.418398E-15	6.695432E-17
2.480000E+03	5.506331E-15	1.056601E-16
2.520000E+03	9.000103E-15	1.693354E-16
2.560000E+03	1.448753E-14	2.674855E-16
2.600000E+03	2.235615E-14	4.053737E-16
2.640000E+03	3.243551E-14	5.780560E-16
2.680000E+03	4.403991E-14	7.719953E-16
2.720000E+03	5.641195E-14	9.733675E-16
2.760000E+03	6.905753E-14	1.173717E-15
2.800000E+03	8.185965E-14	1.371420E-15
2.840000E+03	9.494340E-14	1.568951E-15
2.880000E+03	1.084377E-13	1.768731E-15
2.920000E+03	1.222456E-13	1.969448E-15
2.960000E+03	1.358717E-13	2.163547E-15
3.000000E+03	1.483190E-13	2.335948E-15
3.010000E+03	1.510959E-13	2.373420E-15
3.020000E+03	1.536905E-13	2.407933E-15
3.030000E+03	1.560817E-13	2.439185E-15
3.040000E+03	1.582569E-13	2.467009E-15
3.050000E+03	1.601959E-13	2.491123E-15
3.060000E+03	1.618854E-13	2.511348E-15
3.070000E+03	1.633199E-13	2.527627E-15
3.080000E+03	1.644917E-13	2.539864E-15
3.090000E+03	1.654019E-13	2.548104E-15
3.100000E+03	1.660636E-13	2.552571E-15
3.110000E+03	1.664821E-13	2.553368E-15
3.120000E+03	1.666777E-13	2.550827E-15
3.130000E+03	1.666693E-13	2.545254E-15
3.140000E+03	1.664929E-13	2.537211E-15
3.150000E+03	1.661682E-13	2.527011E-15
3.160000E+03	1.657306E-13	2.515197E-15
3.170000E+03	1.652168E-13	2.502334E-15
3.180000E+03	1.646609E-13	2.488935E-15
3.190000E+03	1.640905E-13	2.475418E-15
3.200000E+03	1.635477E-13	2.462413E-15
3.210000E+03	1.630574E-13	2.450287E-15
3.220000E+03	1.626512E-13	2.439504E-15
3.230000E+03	1.623525E-13	2.430403E-15
3.240000E+03	1.621871E-13	2.423357E-15
3.250000E+03	1.621753E-13	2.418654E-15
3.260000E+03	1.623338E-13	2.416526E-15
3.270000E+03	1.626740E-13	2.417125E-15
3.280000E+03	1.632097E-13	2.420637E-15
3.290000E+03	1.639490E-13	2.427166E-15
3.300000E+03	1.648950E-13	2.436735E-15
3.310000E+03	1.660535E-13	2.449412E-15
3.320000E+03	1.674227E-13	2.465154E-15
3.330000E+03	1.690044E-13	2.483964E-15
3.340000E+03	1.707926E-13	2.505739E-15
3.350000E+03	1.727827E-13	2.530391E-15
3.360000E+03	1.749677E-13	2.557802E-15
3.370000E+03	1.773392E-13	2.587832E-15
3.380000E+03	1.798871E-13	2.620316E-15
3.390000E+03	1.825967E-13	2.655027E-15
3.400000E+03	1.854565E-13	2.691784E-15
3.410000E+03	1.884450E-13	2.730262E-15
3.420000E+03	1.915489E-13	2.770256E-15
3.430000E+03	1.947413E-13	2.811369E-15
3.440000E+03	1.979968E-13	2.853226E-15
3.450000E+03	2.012858E-13	2.895397E-15
3.460000E+03	2.045703E-13	2.937331E-15
3.470000E+03	2.078109E-13	2.978464E-15
3.480000E+03	2.109514E-13	3.017992E-15
3.490000E+03	2.139169E-13	3.054854E-15
3.500000E+03	2.166236E-13	3.087866E-15
3.510000E+03	2.189809E-13	3.115750E-15
3.520000E+03	2.209036E-13	3.137319E-15
3.530000E+03	2.223008E-13	3.151308E-15
3.540000E+03	2.231032E-13	3.156774E-15
3.550000E+03	2.232517E-13	3.152922E-15
3.560000E+03	2.227110E-13	3.139300E-15
3.570000E+03	2.214654E-13	3.115738E-15
3.580000E+03	2.195298E-13	3.082497E-15
3.590000E+03	2.169531E-13	3.040315E-15
3.600000E+03	2.138016E-13	2.990171E-15
3.610000E+03	2.101763E-13	2.933520E-15
3.620000E+03	2.061922E-13	2.872003E-15
3.630000E+03	2.019749E-13	2.807397E-15
3.640000E+03	1.976582E-13	2.741578E-15
3.650000E+03	1.933766E-13	2.676419E-15
3.660000E+03	1.892529E-13	2.613614E-15
3.670000E+03	1.854036E-13	2.554755E-15
3.680000E+03	1.819209E-13	2.501089E-15
3.690000E+03	1.788863E-13	2.453699E-15
3.700000E+03	1.763610E-13	2.413384E-15
3.710000E+03	1.743919E-13	2.380735E-15
3.720000E+03	1.730072E-13	2.356085E-15
3.730000E+03	1.722258E-13	2.339628E-15
3.740000E+03	1.720544E-13	2.331397E-15
3.750000E+03	1.724926E-13	2.331321E-15
3.760000E+03	1.735314E-13	2.339214E-15
3.770000E+03	1.751578E-13	2.354834E-15
3.780000E+03	1.773517E-13	2.377842E-15
3.790000E+03	1.800870E-13	2.407827E-15
3.800000E+03	1.833374E-13	2.444369E-15
3.810000E+03	1.870608E-13	2.486843E-15
3.820000E+03	1.912134E-13	2.534611E-15
3.830000E+03	1.957432E-13	2.586926E-15
3.840000E+03	2.005824E-13	2.642843E-15
3.850000E+03	2.056571E-13	2.701347E-15
3.860000E+03	2.108865E-13	2.761342E-15
3.870000E+03	2.161810E-13	2.821630E-15
3.880000E+03	2.214457E-13	2.880965E-15
3.890000E+03	2.265831E-13	2.938077E-15
3.900000E+03	2.315025E-13	2.991803E-15
3.910000E+03	2.361178E-13	3.041058E-15
3.920000E+03	2.403541E-13	3.084916E-15
3.930000E+03	2.441500E-13	3.122638E-15
3.940000E+03	2.474602E-13	3.153705E-15
3.950000E+03	2.502579E-13	3.177843E-15
3.960000E+03	2.525295E-13	3.194949E-15
3.970000E+03	2.542726E-13	3.205068E-15
3.980000E+03	2.555008E-13	3.208450E-15
3.990000E+03	2.562275E-13	3.205337E-15
4.000000E+03	2.564716E-13	3.196043E-15
4.010000E+03	2.562485E-13	3.180834E-15
4.020000E+03	2.555666E-13	3.159890E-15
4.030000E+03	2.544356E-13	3.133404E-15
4.040000E+03	2.528532E-13	3.101422E-15
4.050000E+03	2.508186E-13	3.064010E-15
4.060000E+03	2.483281E-13	3.021200E-15
4.070000E+03	2.453820E-13	2.973074E-15
4.080000E+03	2.419870E-13	2.919790E-15
4.090000E+03	2.381621E-13	2.861656E-15
4.100000E+03	2.339336E-13	2.799058E-15
4.110000E+03	2.293423E-13	2.732555E-15
4.120000E+03	2.244446E-13	2.662880E-15
4.130000E+03	2.192996E-13	2.590788E-15
4.140000E+03	2.139812E-13	2.517192E-15
4.150000E+03	2.085674E-13	2.443039E-15
4.160000E+03	2.031397E-13	2.369304E-15
4.170000E+03	1.977812E-13	2.296957E-15
4.180000E+03	1.925739E-13	2.226943E-15
4.190000E+03	1.875964E-13	2.160150E-15
4.200000E+03	1.829229E-13	2.097397E-15
4.210000E+03	1.786214E-13	2.039423E-15
4.220000E+03	1.747538E-13	1.986878E-15
4.230000E+03	1.713710E-13	1.940282E-15
4.240000E+03	1.685151E-13	1.900042E-15
4.250000E+03	1.662170E-13	1.866436E-15
4.260000E+03	1.644916E-13	1.839557E-15
4.270000E+03	1.633332E-13	1.819270E-15
4.280000E+03	1.627215E-13	1.805277E-15
4.290000E+03	1.626138E-13	1.797044E-15
4.300000E+03	1.629461E-13	1.793808E-15
4.310000E+03	1.636339E-13	1.794597E-15
4.320000E+03	1.645728E-13	1.798235E-15
4.330000E+03	1.656509E-13	1.803482E-15
4.340000E+03	1.667466E-13	1.809008E-15
4.350000E+03	1.677484E-13	1.813615E-15
4.360000E+03	1.685599E-13	1.816281E-15
4.370000E+03	1.691255E-13	1.816435E-15
4.380000E+03	1.694539E-13	1.814204E-15
4.390000E+03	1.695965E-13	1.810164E-15
4.400000E+03	1.696344E-13	1.805201E-15
4.410000E+03	1.696715E-13	1.800429E-15
4.420000E+03	1.698167E-13	1.796993E-15
4.430000E+03	1.701783E-13	1.796016E-15
4.440000E+03	1.708590E-13	1.798551E-15
4.450000E+03	1.719421E-13	1.805437E-15
4.460000E+03	1.734886E-13	1.817270E-15
4.470000E+03	1.755292E-13	1.834330E-15
4.480000E+03	1.780444E-13	1.856368E-15
4.490000E+03	1.809001E-13	1.881948E-15
4.500000E+03	1.838894E-13	1.908892E-15
4.510000E+03	1.867918E-13	1.934898E-15
4.520000E+03	1.894049E-13	1.957874E-15
4.530000E+03	1.915537E-13	1.976021E-15
4.540000E+03	1.930961E-13	1.987895E-15
4.550000E+03	1.939307E-13	1.992483E-15
4.560000E+03	1.939952E-13	1.989177E-15
4.570000E+03	1.932661E-13	1.977770E-15
4.580000E+03	1.917662E-13	1.958533E-15
4.590000E+03	1.895466E-13	1.932019E-15
4.600000E+03	1.866936E-13	1.899141E-15
4.610000E+03	1.833275E-13	1.861146E-15
4.620000E+03	1.795838E-13	1.819432E-15
4.630000E+03	1.755981E-13	1.775384E-15
4.640000E+03	1.715123E-13	1.730444E-15
4.650000E+03	1.674423E-13	1.685776E-15
4.660000E+03	1.634912E-13	1.642415E-15
4.670000E+03	1.597317E-13	1.601076E-15
4.680000E+03	1.562102E-13	1.562210E-15
4.690000E+03	1.529477E-13	1.526008E-15
4.700000E+03	1.499440E-13	1.492447E-15
4.710000E+03	1.471827E-13	1.461346E-15
4.720000E+03	1.446301E-13	1.432352E-15
4.730000E+03	1.422447E-13	1.405042E-15
4.740000E+03	1.399807E-13	1.378948E-15
4.750000E+03	1.377848E-13	1.353540E-15
4.760000E+03	1.356122E-13	1.328374E-15
4.770000E+03	1.334147E-13	1.302978E-15
4.780000E+03	1.311599E-13	1.277041E-15
4.790000E+03	1.288261E-13	1.250361E-15
4.800000E+03	1.264045E-13	1.222863E-15
4.810000E+03	1.239080E-13	1.194685E-15
4.820000E+03	1.213677E-13	1.166136E-15
4.830000E+03	1.188236E-13	1.137610E-15
4.840000E+03	1.163256E-13	1.109589E-15
4.850000E+03	1.139237E-13	1.082550E-15
4.860000E+03	1.116636E-13	1.056921E-15
4.870000E+03	1.095845E-13	1.033061E-15
4.880000E+03	1.077178E-13	1.011252E-15
4.890000E+03	1.060836E-13	9.916606E-16
4.900000E+03	1.046973E-13	9.744085E-16
4.910000E+03	1.035655E-13	9.595311E-16
4.920000E+03	1.026949E-13	9.470619E-16
4.930000E+03	1.020898E-13	9.370114E-16
4.940000E+03	1.017544E-13	9.293855E-16
4.950000E+03	1.016951E-13	9.242097E-16
4.960000E+03	1.019161E-13	9.214873E-16
4.970000E+03	1.024229E-13	9.212295E-16
4.980000E+03	1.032161E-13	9.234032E-16
4.990000E+03	1.042926E-13	9.279416E-16
5.000000E+03	1.056420E-13	9.347120E-16
5.010000E+03	1.072493E-13	9.435427E-16
5.020000E+03	1.090856E-13	9.541433E-16
5.030000E+03	1.111142E-13	9.661624E-16
5.040000E+03	1.132889E-13	9.791707E-16
5.050000E+03	1.155515E-13	9.926494E-16
5.060000E+03	1.178365E-13	1.006027E-15
5.070000E+03	1.200718E-13	1.018694E-15
5.080000E+03	1.221815E-13	1.030023E-15
5.090000E+03	1.240876E-13	1.039386E-15
5.100000E+03	1.257155E-13	1.046205E-15
5.110000E+03	1.269969E-13	1.049966E-15
5.120000E+03	1.278668E-13	1.050204E-15
5.130000E+03	1.282755E-13	1.046590E-15
5.140000E+03	1.281787E-13	1.038851E-15
5.150000E+03	1.275529E-13	1.026892E-15
5.160000E+03	1.263881E-13	1.010730E-15
5.170000E+03	1.246965E-13	9.905597E-16
5.180000E+03	1.225139E-13	9.667587E-16
5.190000E+03	1.198988E-13	9.398721E-16
5.200000E+03	1.169358E-13	9.106354E-16
5.210000E+03	1.137306E-13	8.799247E-16
5.220000E+03	1.104059E-13	8.487258E-16
5.230000E+03	1.070844E-13	8.179971E-16
5.240000E+03	1.038914E-13	7.886909E-16
5.250000E+03	1.009396E-13	7.616414E-16
5.260000E+03	9.832365E-14	7.375249E-16
5.270000E+03	9.611263E-14	7.168135E-16
5.280000E+03	9.435479E-14	6.998148E-16
5.290000E+03	9.307077E-14	6.866283E-16
5.300000E+03	9.225590E-14	6.771692E-16
5.310000E+03	9.188110E-14	6.711798E-16
5.320000E+03	9.189746E-14	6.682680E-16
5.330000E+03	9.223242E-14	6.678821E-16
5.340000E+03	9.279813E-14	6.693739E-16
5.350000E+03	9.349445E-14	6.720204E-16
5.360000E+03	9.421717E-14	6.750825E-16
5.370000E+03	9.485930E-14	6.778117E-16
5.380000E+03	9.532869E-14	6.795725E-16
5.390000E+03	9.555201E-14	6.798604E-16
5.400000E+03	9.547975E-14	6.783309E-16
5.410000E+03	9.508393E-14	6.747885E-16
5.420000E+03	9.436721E-14	6.692485E-16
5.430000E+03	9.340769E-14	6.622524E-16
5.440000E+03	9.233926E-14	6.547315E-16
5.450000E+03	9.130554E-14	6.476841E-16
5.460000E+03	9.042859E-14	6.419575E-16
5.470000E+03	8.979553E-14	6.381552E-16
5.480000E+03	8.945237E-14	6.365940E-16
5.490000E+03	8.940376E-14	6.373014E-16
5.500000E+03	8.963245E-14	6.401523E-16
5.510000E+03	9.010139E-14	6.448822E-16
5.520000E+03	9.076531E-14	6.511675E-16
5.530000E+03	9.157125E-14	6.586287E-16
5.540000E+03	9.247128E-14	6.669196E-16
5.550000E+03	9.341902E-14	6.757020E-16
5.560000E+03	9.437409E-14	6.846779E-16
5.570000E+03	9.529620E-14	6.935465E-16
5.580000E+03	9.615109E-14	7.020469E-16
5.590000E+03	9.690761E-14	7.099376E-16
5.600000E+03	9.754088E-14	7.170199E-16
5.610000E+03	9.802795E-14	7.231064E-16
5.620000E+03	9.835306E-14	7.280604E-16
5.630000E+03	9.850576E-14	7.317831E-16
5.640000E+03	9.848053E-14	7.342113E-16
5.650000E+03	9.827914E-14	7.353359E-16
5.660000E+03	9.790755E-14	7.351798E-16
5.670000E+03	9.737975E-14	7.338277E-16
5.680000E+03	9.671535E-14	7.314088E-16
5.690000E+03	9.593785E-14	7.280845E-16
5.700000E+03	9.507455E-14	7.240487E-16
5.710000E+03	9.415548E-14	7.195194E-16
5.720000E+03	9.321405E-14	7.147447E-16
5.730000E+03	9.227942E-14	7.099440E-16
5.740000E+03	9.138258E-14	7.053547E-16
5.750000E+03	9.054906E-14	7.011752E-16
5.760000E+03	8.979883E-14	6.975639E-16
5.770000E+03	8.914853E-14	6.946556E-16
5.780000E+03	8.860891E-14	6.925406E-16
5.790000E+03	8.818335E-14	6.912529E-16
5.800000E+03	8.787131E-14	6.907960E-16
5.810000E+03	8.766985E-14	6.911545E-16
5.820000E+03	8.756907E-14	6.922580E-16
5.830000E+03	8.755999E-14	6.940424E-16
5.840000E+03	8.763153E-14	6.964262E-16
5.850000E+03	8.777188E-14	6.993215E-16
5.860000E+03	8.796955E-14	7.026424E-16
5.870000E+03	8.820924E-14	7.062713E-16
5.880000E+03	8.847816E-14	7.101102E-16
5.890000E+03	8.875848E-14	7.140199E-16
5.900000E+03	8.903020E-14	7.178425E-16
5.910000E+03	8.926942E-14	7.213879E-16
5.920000E+03	8.944738E-14	7.244250E-16
5.930000E+03	8.953051E-14	7.266821E-16
5.940000E+03	8.947594E-14	7.278101E-16
5.950000E+03	8.923649E-14	7.274222E-16
5.960000E+03	8.876060E-14	7.250927E-16
5.970000E+03	8.799332E-14	7.203650E-16
5.980000E+03	8.687977E-14	7.127790E-16
5.990000E+03	8.537662E-14	7.019660E-16
6.000000E+03	8.344916E-14	6.876242E-16
6.010000E+03	8.108853E-14	6.696624E-16
6.020000E+03	7.830539E-14	6.481485E-16
6.030000E+03	7.514217E-14	6.234137E-16
6.040000E+03	7.167226E-14	5.960476E-16
6.050000E+03	6.799412E-14	5.668527E-16
6.060000E+03	6.422583E-14	5.368017E-16
6.070000E+03	6.049338E-14	5.069416E-16
6.080000E+03	5.692525E-14	4.783501E-16
6.090000E+03	5.363493E-14	4.519903E-16
6.100000E+03	5.072071E-14	4.287075E-16
6.110000E+03	4.825765E-14	4.091615E-16
6.120000E+03	4.629903E-14	3.938365E-16
6.130000E+03	4.487751E-14	3.830500E-16
6.140000E+03	4.400784E-14	3.769732E-16
6.150000E+03	4.368939E-14	3.756519E-16
6.160000E+03	4.390905E-14	3.790287E-16
6.170000E+03	4.464072E-14	3.869376E-16
6.180000E+03	4.584244E-14	3.990761E-16
6.190000E+03	4.746020E-14	4.150362E-16
6.200000E+03	4.942456E-14	4.342711E-16
6.210000E+03	5.165059E-14	4.560908E-16
6.220000E+03	5.403985E-14	4.796746E-16
6.230000E+03	5.648766E-14	5.041278E-16
6.240000E+03	5.888856E-14	5.285241E-16
6.250000E+03	6.114090E-14	5.519494E-16
6.260000E+03	6.315769E-14	5.735986E-16
6.270000E+03	6.486921E-14	5.928025E-16
6.280000E+03	6.622687E-14	6.090662E-16
6.290000E+03	6.720274E-14	6.220706E-16
6.300000E+03	6.778992E-14	6.316815E-16
6.310000E+03	6.800135E-14	6.379450E-16
6.320000E+03	6.786600E-14	6.410579E-16
6.330000E+03	6.742409E-14	6.413290E-16
6.340000E+03	6.672793E-14	6.391905E-16
6.350000E+03	6.583688E-14	6.351550E-16
6.360000E+03	6.481233E-14	6.297701E-16
6.370000E+03	6.371944E-14	6.236366E-16
6.380000E+03	6.261915E-14	6.173317E-16
6.390000E+03	6.156549E-14	6.113823E-16
6.400000E+03	6.060125E-14	6.062183E-16
6.410000E+03	5.975241E-14	6.021139E-16
6.420000E+03	5.901727E-14	5.990707E-16
6.430000E+03	5.838489E-14	5.969960E-16
6.440000E+03	5.783729E-14	5.957218E-16
6.450000E+03	5.735512E-14	5.950613E-16
6.460000E+03	5.692096E-14	5.948421E-16
6.470000E+03	5.651902E-14	5.949043E-16
6.480000E+03	5.613742E-14	5.951250E-16
6.490000E+03	5.576456E-14	5.953805E-16
6.500000E+03	5.539482E-14	5.956087E-16
6.510000E+03	5.502299E-14	5.957501E-16
6.520000E+03	5.464462E-14	5.957521E-16
6.530000E+03	5.425827E-14	5.955941E-16
6.540000E+03	5.386252E-14	5.952556E-16
6.550000E+03	5.345677E-14	5.947248E-16
6.560000E+03	5.304096E-14	5.939962E-16
6.570000E+03	5.261640E-14	5.930798E-16
6.580000E+03	5.218305E-14	5.919709E-16
6.590000E+03	5.174196E-14	5.906776E-16
6.600000E+03	5.129517E-14	5.892198E-16
6.610000E+03	5.084400E-14	5.876096E-16
6.620000E+03	5.038883E-14	5.858492E-16
6.630000E+03	4.993166E-14	5.839598E-16
6.640000E+03	4.947265E-14	5.819416E-16
6.650000E+03	4.901431E-14	5.798230E-16
6.660000E+03	4.855564E-14	5.775914E-16
6.670000E+03	4.809723E-14	5.752531E-16
6.680000E+03	4.764043E-14	5.728237E-16
6.690000E+03	4.718575E-14	5.703095E-16
6.700000E+03	4.673292E-14	5.677071E-16
6.710000E+03	4.628252E-14	5.650239E-16
6.720000E+03	4.583601E-14	5.622781E-16
6.730000E+03	4.539323E-14	5.594686E-16
6.740000E+03	4.495564E-14	5.566144E-16
6.750000E+03	4.452231E-14	5.537048E-16
6.760000E+03	4.409545E-14	5.507686E-16
6.770000E+03	4.367407E-14	5.477949E-16
6.780000E+03	4.326031E-14	5.448121E-16
6.790000E+03	4.285322E-14	5.418097E-16
6.800000E+03	4.245415E-14	5.388066E-16
6.810000E+03	4.206375E-14	5.358129E-16
6.820000E+03	4.168185E-14	5.328285E-16
6.830000E+03	4.130992E-14	5.298740E-16
6.840000E+03	4.094779E-14	5.269495E-16
6.850000E+03	4.059681E-14	5.240743E-16
6.860000E+03	4.025596E-14	5.212375E-16
6.870000E+03	3.992710E-14	5.184655E-16
6.880000E+03	3.960975E-14	5.157539E-16
6.890000E+03	3.930405E-14	5.131068E-16
6.900000E+03	3.900926E-14	5.105167E-16
6.910000E+03	3.872680E-14	5.080042E-16
6.920000E+03	3.845435E-14	5.055405E-16
6.930000E+03	3.819396E-14	5.031546E-16
6.940000E+03	3.794396E-14	5.008262E-16
6.950000E+03	3.770418E-14	4.985548E-16
6.960000E+03	3.747520E-14	4.963495E-16
6.970000E+03	3.725608E-14	4.941996E-16
6.980000E+03	3.704663E-14	4.921038E-16
6.990000E+03	3.684655E-14	4.900596E-16
7.000000E+03	3.665548E-14	4.880633E-16
7.010000E+03	3.647288E-14	4.861090E-16
7.020000E+03	3.629734E-14	4.841791E-16
7.030000E+03	3.612939E-14	4.822814E-16
7.040000E+03	3.596573E-14	4.803732E-16
7.050000E+03	3.580713E-14	4.784655E-16
7.060000E+03	3.564986E-14	4.765093E-16
7.070000E+03	3.549356E-14	4.745007E-16
7.080000E+03	3.533559E-14	4.724052E-16
7.090000E+03	3.517397E-14	4.701971E-16
7.100000E+03	3.500740E-14	4.678603E-16
7.110000E+03	3.483263E-14	4.653522E-16
7.120000E+03	3.464871E-14	4.626614E-16
7.130000E+03	3.445367E-14	4.597629E-16
7.140000E+03	3.424727E-14	4.566551E-16
7.150000E+03	3.402904E-14	4.533335E-16
7.160000E+03	3.379829E-14	4.497906E-16
7.170000E+03	3.355613E-14	4.460433E-16
7.180000E+03	3.330201E-14	4.420865E-16
7.190000E+03	3.303850E-14	4.379565E-16
7.200000E+03	3.276632E-14	4.336653E-16
7.210000E+03	3.248636E-14	4.292271E-16
7.220000E+03	3.220091E-14	4.246743E-16
7.230000E+03	3.191148E-14	4.200293E-16
7.240000E+03	3.161882E-14	4.153043E-16
7.250000E+03	3.132410E-14	4.105170E-16
7.260000E+03	3.102827E-14	4.056819E-16
7.270000E+03	3.073200E-14	4.008101E-16
7.280000E+03	3.043569E-14	3.959090E-16
7.290000E+03	3.013827E-14	3.909668E-16
7.300000E+03	2.984095E-14	3.860014E-16
7.310000E+03	2.954287E-14	3.810041E-16
7.320000E+03	2.924304E-14	3.759642E-16
7.330000E+03	2.894155E-14	3.708856E-16
7.340000E+03	2.863667E-14	3.657483E-16
7.350000E+03	2.832783E-14	3.605480E-16
7.360000E+03	2.801450E-14	3.552809E-16
7.370000E+03	2.769572E-14	3.499376E-16
7.380000E+03	2.737189E-14	3.445264E-16
7.390000E+03	2.704148E-14	3.390312E-16
7.400000E+03	2.670635E-14	3.334785E-16
7.410000E+03	2.636663E-14	3.278733E-16
7.420000E+03	2.602484E-14	3.222498E-16
7.430000E+03	2.568306E-14	3.166366E-16
7.440000E+03	2.534456E-14	3.110761E-16
7.450000E+03	2.501360E-14	3.056222E-16
7.460000E+03	2.469364E-14	3.003183E-16
7.470000E+03	2.439029E-14	2.952327E-16
7.480000E+03	2.410626E-14	2.903975E-16
7.490000E+03	2.384584E-14	2.858630E-16
7.500000E+03	2.361107E-14	2.816519E-16
7.510000E+03	2.340522E-14	2.778002E-16
7.520000E+03	2.322857E-14	2.743085E-16
7.530000E+03	2.308110E-14	2.711734E-16
7.540000E+03	2.296254E-14	2.683885E-16
7.550000E+03	2.287156E-14	2.659353E-16
7.560000E+03	2.280738E-14	2.638020E-16
7.570000E+03	2.276702E-14	2.619516E-16
7.580000E+03	2.274891E-14	2.603641E-16
7.590000E+03	2.275162E-14	2.590217E-16
7.600000E+03	2.277292E-14	2.578979E-16
7.610000E+03	2.281191E-14	2.569817E-16
7.620000E+03	2.286706E-14	2.562556E-16
7.630000E+03	2.293875E-14	2.557241E-16
7.640000E+03	2.302566E-14	2.553727E-16
7.650000E+03	2.312882E-14	2.552133E-16
7.660000E+03	2.324734E-14	2.552369E-16
7.670000E+03	2.338236E-14	2.554573E-16
7.680000E+03	2.353279E-14	2.558636E-16
7.690000E+03	2.369920E-14	2.564640E-16
7.700000E+03	2.388001E-14	2.572432E-16
7.710000E+03	2.407335E-14	2.581840E-16
7.720000E+03	2.427658E-14	2.592612E-16
7.730000E+03	2.448602E-14	2.604395E-16
7.740000E+03	2.469712E-14	2.616756E-16
7.750000E+03	2.490401E-14	2.629129E-16
7.760000E+03	2.510190E-14	2.641074E-16
