#wls	flux	fluxerr
1.600000E+03	1.178214E-14	1.076241E-15
1.640000E+03	9.440052E-15	8.497796E-16
1.680000E+03	7.486560E-15	6.640905E-16
1.720000E+03	5.883716E-15	5.142710E-16
1.760000E+03	4.586820E-15	3.950457E-16
1.800000E+03	3.552416E-15	3.014912E-16
1.840000E+03	2.739943E-15	2.291655E-16
1.880000E+03	2.109349E-15	1.738915E-16
1.920000E+03	1.625683E-15	1.321233E-16
1.960000E+03	1.259597E-15	1.009504E-16
2.000000E+03	9.849505E-16	7.787030E-17
2.040000E+03	7.814610E-16	6.097134E-17
2.080000E+03	6.329369E-16	4.875865E-17
2.120000E+03	5.269791E-16	4.010533E-17
2.160000E+03	4.549023E-16	3.422245E-17
2.200000E+03	4.107008E-16	3.056130E-17
2.240000E+03	3.906739E-16	2.877276E-17
2.280000E+03	3.934907E-16	2.870035E-17
2.320000E+03	4.196978E-16	3.033436E-17
2.360000E+03	4.721609E-16	3.383596E-17
2.400000E+03	5.563940E-16	3.955313E-17
2.440000E+03	6.806479E-16	4.802015E-17
2.480000E+03	8.558377E-16	5.994598E-17
2.520000E+03	1.094129E-15	7.611003E-17
2.560000E+03	1.406814E-15	9.721301E-17
2.600000E+03	1.800835E-15	1.236396E-16
2.640000E+03	2.274990E-15	1.552082E-16
2.680000E+03	2.819044E-15	1.911250E-16
2.720000E+03	3.415935E-15	2.301496E-16
2.760000E+03	4.040385E-15	2.705137E-16
2.800000E+03	4.663341E-15	3.102330E-16
2.840000E+03	5.251906E-15	3.471121E-16
2.880000E+03	5.776229E-15	3.792075E-16
2.920000E+03	6.210442E-15	4.048875E-16
2.960000E+03	6.538832E-15	4.232275E-16
3.000000E+03	6.755952E-15	4.339990E-16
3.010000E+03	6.793729E-15	4.355821E-16
3.020000E+03	6.824416E-15	4.366942E-16
3.030000E+03	6.849220E-15	4.374148E-16
3.040000E+03	6.867849E-15	4.377273E-16
3.050000E+03	6.880556E-15	4.376499E-16
3.060000E+03	6.888099E-15	4.372329E-16
3.070000E+03	6.890281E-15	4.364655E-16
3.080000E+03	6.887890E-15	4.353993E-16
3.090000E+03	6.880760E-15	4.340253E-16
3.100000E+03	6.869712E-15	4.323966E-16
3.110000E+03	6.855070E-15	4.305348E-16
3.120000E+03	6.837177E-15	4.284626E-16
3.130000E+03	6.816370E-15	4.262021E-16
3.140000E+03	6.792555E-15	4.237485E-16
3.150000E+03	6.766967E-15	4.211795E-16
3.160000E+03	6.739501E-15	4.184893E-16
3.170000E+03	6.710493E-15	4.156993E-16
3.180000E+03	6.680685E-15	4.128558E-16
3.190000E+03	6.649981E-15	4.099531E-16
3.200000E+03	6.619092E-15	4.070352E-16
3.210000E+03	6.588307E-15	4.041197E-16
3.220000E+03	6.557908E-15	4.012237E-16
3.230000E+03	6.527763E-15	3.983389E-16
3.240000E+03	6.498912E-15	3.955284E-16
3.250000E+03	6.471580E-15	3.928052E-16
3.260000E+03	6.445601E-15	3.901581E-16
3.270000E+03	6.421561E-15	3.876220E-16
3.280000E+03	6.399277E-15	3.851847E-16
3.290000E+03	6.379659E-15	3.828998E-16
3.300000E+03	6.362497E-15	3.807533E-16
3.310000E+03	6.348287E-15	3.787733E-16
3.320000E+03	6.336804E-15	3.769448E-16
3.330000E+03	6.328855E-15	3.753140E-16
3.340000E+03	6.324186E-15	3.738637E-16
3.350000E+03	6.322883E-15	3.725971E-16
3.360000E+03	6.325682E-15	3.715553E-16
3.370000E+03	6.332298E-15	3.707190E-16
3.380000E+03	6.342776E-15	3.700884E-16
3.390000E+03	6.357791E-15	3.697001E-16
3.400000E+03	6.377031E-15	3.695332E-16
3.410000E+03	6.400507E-15	3.695853E-16
3.420000E+03	6.429156E-15	3.699074E-16
3.430000E+03	6.462330E-15	3.704587E-16
3.440000E+03	6.500629E-15	3.712702E-16
3.450000E+03	6.543712E-15	3.723188E-16
3.460000E+03	6.592457E-15	3.736505E-16
3.470000E+03	6.646515E-15	3.752415E-16
3.480000E+03	6.706442E-15	3.771187E-16
3.490000E+03	6.771891E-15	3.792583E-16
3.500000E+03	6.843710E-15	3.817031E-16
3.510000E+03	6.921558E-15	3.844288E-16
3.520000E+03	7.005990E-15	3.874613E-16
3.530000E+03	7.096974E-15	3.907931E-16
3.540000E+03	7.194785E-15	3.944338E-16
3.550000E+03	7.299130E-15	3.983614E-16
3.560000E+03	7.410307E-15	4.025864E-16
3.570000E+03	7.528067E-15	4.070889E-16
3.580000E+03	7.652182E-15	4.118507E-16
3.590000E+03	7.783006E-15	4.168846E-16
3.600000E+03	7.920086E-15	4.221601E-16
3.610000E+03	8.063539E-15	4.276771E-16
3.620000E+03	8.213249E-15	4.334233E-16
3.630000E+03	8.369396E-15	4.394015E-16
3.640000E+03	8.531917E-15	4.456019E-16
3.650000E+03	8.701046E-15	4.520298E-16
3.660000E+03	8.876492E-15	4.586634E-16
3.670000E+03	9.059124E-15	4.655402E-16
3.680000E+03	9.248395E-15	4.726247E-16
3.690000E+03	9.444930E-15	4.799412E-16
3.700000E+03	9.648500E-15	4.874702E-16
3.710000E+03	9.859763E-15	4.952368E-16
3.720000E+03	1.007877E-14	5.032352E-16
3.730000E+03	1.030533E-14	5.114464E-16
3.740000E+03	1.054033E-14	5.199064E-16
3.750000E+03	1.078383E-14	5.286077E-16
3.760000E+03	1.103552E-14	5.375258E-16
3.770000E+03	1.129564E-14	5.466628E-16
3.780000E+03	1.156469E-14	5.560330E-16
3.790000E+03	1.184221E-14	5.656031E-16
3.800000E+03	1.212857E-14	5.753810E-16
3.810000E+03	1.242314E-14	5.853266E-16
3.820000E+03	1.272613E-14	5.954393E-16
3.830000E+03	1.303703E-14	6.056849E-16
3.840000E+03	1.335524E-14	6.160259E-16
3.850000E+03	1.368033E-14	6.264333E-16
3.860000E+03	1.401181E-14	6.368760E-16
3.870000E+03	1.434905E-14	6.473165E-16
3.880000E+03	1.469069E-14	6.576864E-16
3.890000E+03	1.503623E-14	6.679568E-16
3.900000E+03	1.538441E-14	6.780664E-16
3.910000E+03	1.573425E-14	6.879678E-16
3.920000E+03	1.608467E-14	6.976104E-16
3.930000E+03	1.643387E-14	7.069150E-16
3.940000E+03	1.678100E-14	7.158454E-16
3.950000E+03	1.712453E-14	7.243371E-16
3.960000E+03	1.746291E-14	7.323281E-16
3.970000E+03	1.779559E-14	7.398004E-16
3.980000E+03	1.812035E-14	7.466681E-16
3.990000E+03	1.843605E-14	7.528924E-16
4.000000E+03	1.874192E-14	7.584518E-16
4.010000E+03	1.903657E-14	7.633015E-16
4.020000E+03	1.931834E-14	7.673879E-16
4.030000E+03	1.958702E-14	7.707180E-16
4.040000E+03	1.984149E-14	7.732629E-16
4.050000E+03	2.008035E-14	7.749854E-16
4.060000E+03	2.030369E-14	7.759080E-16
4.070000E+03	2.051031E-14	7.760045E-16
4.080000E+03	2.069985E-14	7.752813E-16
4.090000E+03	2.087167E-14	7.737364E-16
4.100000E+03	2.102596E-14	7.713992E-16
4.110000E+03	2.116232E-14	7.682770E-16
4.120000E+03	2.128046E-14	7.643833E-16
4.130000E+03	2.138091E-14	7.597599E-16
4.140000E+03	2.146327E-14	7.544166E-16
4.150000E+03	2.152865E-14	7.484157E-16
4.160000E+03	2.157657E-14	7.417634E-16
4.170000E+03	2.160837E-14	7.345291E-16
4.180000E+03	2.162418E-14	7.267395E-16
4.190000E+03	2.162559E-14	7.184692E-16
4.200000E+03	2.161267E-14	7.097414E-16
4.210000E+03	2.158729E-14	7.006370E-16
4.220000E+03	2.155075E-14	6.912161E-16
4.230000E+03	2.150418E-14	6.815317E-16
4.240000E+03	2.144917E-14	6.716490E-16
4.250000E+03	2.138740E-14	6.616340E-16
4.260000E+03	2.132128E-14	6.515727E-16
4.270000E+03	2.125206E-14	6.415121E-16
4.280000E+03	2.118202E-14	6.315282E-16
4.290000E+03	2.111347E-14	6.216948E-16
4.300000E+03	2.104876E-14	6.120835E-16
4.310000E+03	2.098967E-14	6.027463E-16
4.320000E+03	2.093889E-14	5.937583E-16
4.330000E+03	2.089878E-14	5.851822E-16
4.340000E+03	2.087169E-14	5.770772E-16
4.350000E+03	2.085962E-14	5.694898E-16
4.360000E+03	2.086535E-14	5.624862E-16
4.370000E+03	2.089105E-14	5.561119E-16
4.380000E+03	2.093877E-14	5.504082E-16
4.390000E+03	2.101073E-14	5.454183E-16
4.400000E+03	2.110875E-14	5.411732E-16
4.410000E+03	2.123474E-14	5.377056E-16
4.420000E+03	2.139013E-14	5.350345E-16
4.430000E+03	2.157612E-14	5.331732E-16
4.440000E+03	2.179309E-14	5.321147E-16
4.450000E+03	2.204193E-14	5.318664E-16
4.460000E+03	2.232177E-14	5.323934E-16
4.470000E+03	2.263268E-14	5.336870E-16
4.480000E+03	2.297275E-14	5.356933E-16
4.490000E+03	2.333973E-14	5.383549E-16
4.500000E+03	2.373116E-14	5.416137E-16
4.510000E+03	2.414283E-14	5.453767E-16
4.520000E+03	2.457094E-14	5.495645E-16
4.530000E+03	2.501095E-14	5.540871E-16
4.540000E+03	2.545765E-14	5.588442E-16
4.550000E+03	2.590622E-14	5.637488E-16
4.560000E+03	2.635106E-14	5.687009E-16
4.570000E+03	2.678721E-14	5.736112E-16
4.580000E+03	2.720917E-14	5.783709E-16
4.590000E+03	2.761234E-14	5.828905E-16
4.600000E+03	2.799224E-14	5.870831E-16
4.610000E+03	2.834485E-14	5.908714E-16
4.620000E+03	2.866712E-14	5.941977E-16
4.630000E+03	2.895602E-14	5.970035E-16
4.640000E+03	2.920995E-14	5.992582E-16
4.650000E+03	2.942773E-14	6.009384E-16
4.660000E+03	2.960933E-14	6.020420E-16
4.670000E+03	2.975542E-14	6.025793E-16
4.680000E+03	2.986708E-14	6.025667E-16
4.690000E+03	2.994661E-14	6.020440E-16
4.700000E+03	2.999656E-14	6.010535E-16
4.710000E+03	3.001982E-14	5.996434E-16
4.720000E+03	3.001995E-14	5.978738E-16
4.730000E+03	3.000033E-14	5.958004E-16
4.740000E+03	2.996543E-14	5.934993E-16
4.750000E+03	2.991867E-14	5.910255E-16
4.760000E+03	2.986432E-14	5.884504E-16
4.770000E+03	2.980551E-14	5.858221E-16
4.780000E+03	2.974604E-14	5.832025E-16
4.790000E+03	2.968851E-14	5.806291E-16
4.800000E+03	2.963446E-14	5.781195E-16
4.810000E+03	2.958585E-14	5.756992E-16
4.820000E+03	2.954460E-14	5.733938E-16
4.830000E+03	2.951170E-14	5.712106E-16
4.840000E+03	2.948754E-14	5.691455E-16
4.850000E+03	2.947321E-14	5.672086E-16
4.860000E+03	2.946895E-14	5.653940E-16
4.870000E+03	2.947517E-14	5.636990E-16
4.880000E+03	2.949244E-14	5.621246E-16
4.890000E+03	2.952031E-14	5.606524E-16
4.900000E+03	2.955925E-14	5.592819E-16
4.910000E+03	2.960908E-14	5.580006E-16
4.920000E+03	2.967062E-14	5.568146E-16
4.930000E+03	2.974348E-14	5.557082E-16
4.940000E+03	2.982801E-14	5.546790E-16
4.950000E+03	2.992531E-14	5.537390E-16
4.960000E+03	3.003565E-14	5.528846E-16
4.970000E+03	3.015971E-14	5.521195E-16
4.980000E+03	3.029834E-14	5.514505E-16
4.990000E+03	3.045277E-14	5.508910E-16
5.000000E+03	3.062367E-14	5.504440E-16
5.010000E+03	3.081213E-14	5.501194E-16
5.020000E+03	3.101954E-14	5.499320E-16
5.030000E+03	3.124730E-14	5.498964E-16
5.040000E+03	3.149582E-14	5.500085E-16
5.050000E+03	3.176633E-14	5.502789E-16
5.060000E+03	3.205967E-14	5.507103E-16
5.070000E+03	3.237649E-14	5.513021E-16
5.080000E+03	3.271760E-14	5.520560E-16
5.090000E+03	3.308323E-14	5.529632E-16
5.100000E+03	3.347306E-14	5.540062E-16
5.110000E+03	3.388678E-14	5.551681E-16
5.120000E+03	3.432415E-14	5.564340E-16
5.130000E+03	3.478430E-14	5.577792E-16
5.140000E+03	3.526603E-14	5.591753E-16
5.150000E+03	3.576752E-14	5.605856E-16
5.160000E+03	3.628768E-14	5.619876E-16
5.170000E+03	3.682375E-14	5.633347E-16
5.180000E+03	3.737380E-14	5.645968E-16
5.190000E+03	3.793531E-14	5.657379E-16
5.200000E+03	3.850599E-14	5.667294E-16
5.210000E+03	3.908225E-14	5.675277E-16
5.220000E+03	3.966162E-14	5.681100E-16
5.230000E+03	4.024113E-14	5.684516E-16
5.240000E+03	4.081833E-14	5.685394E-16
5.250000E+03	4.138956E-14	5.683490E-16
5.260000E+03	4.195249E-14	5.678797E-16
5.270000E+03	4.250451E-14	5.671321E-16
5.280000E+03	4.304320E-14	5.661143E-16
5.290000E+03	4.356584E-14	5.648358E-16
5.300000E+03	4.407122E-14	5.633303E-16
5.310000E+03	4.455654E-14	5.616155E-16
5.320000E+03	4.501999E-14	5.597263E-16
5.330000E+03	4.546037E-14	5.577084E-16
5.340000E+03	4.587612E-14	5.556068E-16
5.350000E+03	4.626530E-14	5.534640E-16
5.360000E+03	4.662653E-14	5.513314E-16
5.370000E+03	4.695857E-14	5.492636E-16
5.380000E+03	4.726091E-14	5.473230E-16
5.390000E+03	4.753196E-14	5.455592E-16
5.400000E+03	4.777219E-14	5.440428E-16
5.410000E+03	4.798215E-14	5.428418E-16
5.420000E+03	4.816248E-14	5.420203E-16
5.430000E+03	4.831211E-14	5.416178E-16
5.440000E+03	4.842988E-14	5.416623E-16
5.450000E+03	4.851389E-14	5.421266E-16
5.460000E+03	4.856348E-14	5.429648E-16
5.470000E+03	4.857857E-14	5.441299E-16
5.480000E+03	4.856009E-14	5.455796E-16
5.490000E+03	4.850834E-14	5.472598E-16
5.500000E+03	4.842439E-14	5.491209E-16
5.510000E+03	4.831006E-14	5.511195E-16
5.520000E+03	4.816595E-14	5.531972E-16
5.530000E+03	4.799486E-14	5.553205E-16
5.540000E+03	4.779890E-14	5.574492E-16
5.550000E+03	4.757996E-14	5.595423E-16
5.560000E+03	4.734070E-14	5.615704E-16
5.570000E+03	4.708496E-14	5.635221E-16
5.580000E+03	4.681494E-14	5.653698E-16
5.590000E+03	4.653487E-14	5.671151E-16
5.600000E+03	4.624767E-14	5.687485E-16
5.610000E+03	4.595680E-14	5.702712E-16
5.620000E+03	4.566610E-14	5.716947E-16
5.630000E+03	4.537886E-14	5.730277E-16
5.640000E+03	4.509812E-14	5.742803E-16
5.650000E+03	4.482667E-14	5.754637E-16
5.660000E+03	4.456690E-14	5.765873E-16
5.670000E+03	4.432081E-14	5.776587E-16
5.680000E+03	4.408990E-14	5.786818E-16
5.690000E+03	4.387557E-14	5.796617E-16
5.700000E+03	4.367827E-14	5.805924E-16
5.710000E+03	4.349737E-14	5.814555E-16
5.720000E+03	4.333258E-14	5.822379E-16
5.730000E+03	4.318262E-14	5.829139E-16
5.740000E+03	4.304565E-14	5.834511E-16
5.750000E+03	4.291932E-14	5.838104E-16
5.760000E+03	4.280044E-14	5.839418E-16
5.770000E+03	4.268673E-14	5.838080E-16
5.780000E+03	4.257431E-14	5.833503E-16
5.790000E+03	4.245951E-14	5.825137E-16
5.800000E+03	4.233856E-14	5.812427E-16
5.810000E+03	4.220815E-14	5.794890E-16
5.820000E+03	4.206369E-14	5.771888E-16
5.830000E+03	4.190260E-14	5.743068E-16
5.840000E+03	4.172080E-14	5.707899E-16
5.850000E+03	4.151637E-14	5.666164E-16
5.860000E+03	4.128652E-14	5.617554E-16
5.870000E+03	4.102907E-14	5.561868E-16
5.880000E+03	4.074362E-14	5.499174E-16
5.890000E+03	4.042875E-14	5.429426E-16
5.900000E+03	4.008488E-14	5.352858E-16
5.910000E+03	3.971268E-14	5.269751E-16
5.920000E+03	3.931297E-14	5.180434E-16
5.930000E+03	3.888798E-14	5.085438E-16
5.940000E+03	3.843961E-14	4.985266E-16
5.950000E+03	3.797023E-14	4.880490E-16
5.960000E+03	3.748373E-14	4.771887E-16
5.970000E+03	3.698314E-14	4.660125E-16
5.980000E+03	3.647132E-14	4.545846E-16
5.990000E+03	3.595315E-14	4.429944E-16
6.000000E+03	3.543133E-14	4.313031E-16
6.010000E+03	3.491039E-14	4.195934E-16
6.020000E+03	3.439333E-14	4.079280E-16
6.030000E+03	3.388406E-14	3.963795E-16
6.040000E+03	3.338564E-14	3.850090E-16
6.050000E+03	3.290161E-14	3.738819E-16
6.060000E+03	3.243451E-14	3.630513E-16
6.070000E+03	3.198734E-14	3.525743E-16
6.080000E+03	3.156175E-14	3.424930E-16
6.090000E+03	3.116081E-14	3.328647E-16
6.100000E+03	3.078558E-14	3.237254E-16
6.110000E+03	3.043750E-14	3.151162E-16
6.120000E+03	3.011871E-14	3.070867E-16
6.130000E+03	2.982940E-14	2.996681E-16
6.140000E+03	2.957084E-14	2.929046E-16
6.150000E+03	2.934338E-14	2.868341E-16
6.160000E+03	2.914747E-14	2.814982E-16
6.170000E+03	2.898338E-14	2.769391E-16
6.180000E+03	2.885113E-14	2.731998E-16
6.190000E+03	2.875003E-14	2.703188E-16
6.200000E+03	2.868015E-14	2.683436E-16
6.210000E+03	2.864018E-14	2.673101E-16
6.220000E+03	2.862902E-14	2.672562E-16
6.230000E+03	2.864608E-14	2.682238E-16
6.240000E+03	2.869004E-14	2.702459E-16
6.250000E+03	2.875946E-14	2.733387E-16
6.260000E+03	2.885279E-14	2.774803E-16
6.270000E+03	2.896929E-14	2.826463E-16
6.280000E+03	2.910650E-14	2.887920E-16
6.290000E+03	2.926337E-14	2.958842E-16
6.300000E+03	2.943774E-14	3.038758E-16
6.310000E+03	2.962760E-14	3.127195E-16
6.320000E+03	2.983075E-14	3.223643E-16
6.330000E+03	3.004448E-14	3.327520E-16
6.340000E+03	3.026658E-14	3.438283E-16
6.350000E+03	3.049407E-14	3.555288E-16
6.360000E+03	3.072461E-14	3.677948E-16
6.370000E+03	3.095495E-14	3.805547E-16
6.380000E+03	3.118312E-14	3.937507E-16
6.390000E+03	3.140644E-14	4.073144E-16
6.400000E+03	3.162340E-14	4.211910E-16
6.410000E+03	3.183093E-14	4.353034E-16
6.420000E+03	3.202450E-14	4.495510E-16
6.430000E+03	3.219915E-14	4.638221E-16
6.440000E+03	3.235027E-14	4.780036E-16
6.450000E+03	3.247384E-14	4.919853E-16
6.460000E+03	3.256667E-14	5.056655E-16
6.470000E+03	3.262530E-14	5.189340E-16
6.480000E+03	3.264897E-14	5.317204E-16
6.490000E+03	3.263577E-14	5.439355E-16
6.500000E+03	3.258456E-14	5.555008E-16
6.510000E+03	3.249577E-14	5.663652E-16
6.520000E+03	3.236790E-14	5.764449E-16
6.530000E+03	3.220181E-14	5.856982E-16
6.540000E+03	3.199804E-14	5.940804E-16
6.550000E+03	3.175718E-14	6.015492E-16
6.560000E+03	3.148024E-14	6.080735E-16
6.570000E+03	3.116905E-14	6.136412E-16
6.580000E+03	3.082584E-14	6.182519E-16
6.590000E+03	3.045243E-14	6.219021E-16
6.600000E+03	3.005209E-14	6.246224E-16
6.610000E+03	2.962720E-14	6.264305E-16
6.620000E+03	2.918072E-14	6.273616E-16
6.630000E+03	2.871649E-14	6.274754E-16
6.640000E+03	2.823696E-14	6.268071E-16
6.650000E+03	2.774600E-14	6.254291E-16
6.660000E+03	2.724643E-14	6.233950E-16
6.670000E+03	2.674163E-14	6.207769E-16
6.680000E+03	2.623449E-14	6.176404E-16
6.690000E+03	2.572741E-14	6.140438E-16
6.700000E+03	2.522358E-14	6.100679E-16
6.710000E+03	2.472465E-14	6.057608E-16
6.720000E+03	2.423332E-14	6.011984E-16
6.730000E+03	2.375109E-14	5.964306E-16
6.740000E+03	2.327985E-14	5.915184E-16
6.750000E+03	2.282031E-14	5.864954E-16
6.760000E+03	2.237449E-14	5.814296E-16
6.770000E+03	2.194267E-14	5.763456E-16
6.780000E+03	2.152552E-14	5.712786E-16
6.790000E+03	2.112414E-14	5.662753E-16
6.800000E+03	2.073798E-14	5.613393E-16
6.810000E+03	2.036808E-14	5.565161E-16
6.820000E+03	2.001395E-14	5.518097E-16
6.830000E+03	1.967605E-14	5.472503E-16
6.840000E+03	1.935345E-14	5.428281E-16
6.850000E+03	1.904671E-14	5.385750E-16
6.860000E+03	1.875530E-14	5.344913E-16
6.870000E+03	1.847860E-14	5.305740E-16
6.880000E+03	1.821652E-14	5.268344E-16
6.890000E+03	1.796866E-14	5.232741E-16
6.900000E+03	1.773436E-14	5.198863E-16
6.910000E+03	1.751369E-14	5.166852E-16
6.920000E+03	1.730574E-14	5.136545E-16
6.930000E+03	1.711033E-14	5.107993E-16
6.940000E+03	1.692679E-14	5.081095E-16
6.950000E+03	1.675497E-14	5.055894E-16
6.960000E+03	1.659445E-14	5.032345E-16
6.970000E+03	1.644483E-14	5.010407E-16
6.980000E+03	1.630551E-14	4.989965E-16
6.990000E+03	1.617608E-14	4.970964E-16
7.000000E+03	1.605641E-14	4.953420E-16
7.010000E+03	1.594614E-14	4.937273E-16
7.020000E+03	1.584464E-14	4.922386E-16
7.030000E+03	1.575157E-14	4.908689E-16
7.040000E+03	1.566676E-14	4.896174E-16
7.050000E+03	1.558961E-14	4.884689E-16
7.060000E+03	1.551973E-14	4.874138E-16
7.070000E+03	1.545670E-14	4.864424E-16
7.080000E+03	1.540015E-14	4.855443E-16
7.090000E+03	1.534986E-14	4.847153E-16
7.100000E+03	1.530496E-14	4.839295E-16
7.110000E+03	1.526523E-14	4.831806E-16
7.120000E+03	1.523022E-14	4.824564E-16
7.130000E+03	1.519947E-14	4.817424E-16
7.140000E+03	1.517253E-14	4.810249E-16
7.150000E+03	1.514869E-14	4.802821E-16
7.160000E+03	1.512771E-14	4.795068E-16
7.170000E+03	1.510891E-14	4.786770E-16
7.180000E+03	1.509205E-14	4.777861E-16
7.190000E+03	1.507650E-14	4.768132E-16
7.200000E+03	1.506179E-14	4.757442E-16
7.210000E+03	1.504755E-14	4.745671E-16
7.220000E+03	1.503363E-14	4.732778E-16
7.230000E+03	1.501925E-14	4.718512E-16
7.240000E+03	1.500457E-14	4.702929E-16
7.250000E+03	1.498886E-14	4.685809E-16
7.260000E+03	1.497215E-14	4.667161E-16
7.270000E+03	1.495406E-14	4.646873E-16
7.280000E+03	1.493470E-14	4.624992E-16
7.290000E+03	1.491404E-14	4.601512E-16
7.300000E+03	1.489159E-14	4.576298E-16
7.310000E+03	1.486791E-14	4.549532E-16
7.320000E+03	1.484312E-14	4.521262E-16
7.330000E+03	1.481691E-14	4.491406E-16
7.340000E+03	1.478976E-14	4.460124E-16
7.350000E+03	1.476196E-14	4.427514E-16
7.360000E+03	1.473384E-14	4.393687E-16
7.370000E+03	1.470555E-14	4.358701E-16
7.380000E+03	1.467776E-14	4.322762E-16
7.390000E+03	1.465090E-14	4.286006E-16
7.400000E+03	1.462525E-14	4.248518E-16
7.410000E+03	1.460133E-14	4.210450E-16
7.420000E+03	1.457965E-14	4.171948E-16
7.430000E+03	1.456054E-14	4.133102E-16
7.440000E+03	1.454479E-14	4.094126E-16
7.450000E+03	1.453268E-14	4.055088E-16
7.460000E+03	1.452525E-14	4.016256E-16
7.470000E+03	1.452252E-14	3.977612E-16
7.480000E+03	1.452548E-14	3.939394E-16
7.490000E+03	1.453408E-14	3.901553E-16
7.500000E+03	1.454924E-14	3.864294E-16
7.510000E+03	1.457131E-14	3.827664E-16
7.520000E+03	1.460038E-14	3.791628E-16
7.530000E+03	1.463669E-14	3.756198E-16
7.540000E+03	1.468068E-14	3.721420E-16
7.550000E+03	1.473221E-14	3.687195E-16
7.560000E+03	1.479159E-14	3.653534E-16
7.570000E+03	1.485851E-14	3.620289E-16
7.580000E+03	1.493309E-14	3.587425E-16
7.590000E+03	1.501489E-14	3.554763E-16
7.600000E+03	1.510412E-14	3.522286E-16
7.610000E+03	1.519987E-14	3.489718E-16
7.620000E+03	1.530194E-14	3.456954E-16
7.630000E+03	1.540950E-14	3.423758E-16
7.640000E+03	1.552245E-14	3.390062E-16
7.650000E+03	1.563951E-14	3.355555E-16
7.660000E+03	1.576042E-14	3.320164E-16
7.670000E+03	1.588379E-14	3.283583E-16
7.680000E+03	1.600892E-14	3.245685E-16
7.690000E+03	1.613480E-14	3.206294E-16
7.700000E+03	1.626067E-14	3.165308E-16
7.710000E+03	1.638485E-14	3.122471E-16
7.720000E+03	1.650648E-14	3.077720E-16
7.730000E+03	1.662439E-14	3.030962E-16
7.740000E+03	1.673738E-14	2.982132E-16
7.750000E+03	1.684454E-14	2.931250E-16
7.760000E+03	1.694406E-14	2.878219E-16
