#wls	flux	fluxerr
1.600000E+03	6.122681E-15	7.782264E-16
1.640000E+03	4.910427E-15	6.186207E-16
1.680000E+03	3.916922E-15	4.890623E-16
1.720000E+03	3.112047E-15	3.850865E-16
1.760000E+03	2.466455E-15	3.024565E-16
1.800000E+03	1.953757E-15	2.374265E-16
1.840000E+03	1.549674E-15	1.866236E-16
1.880000E+03	1.234111E-15	1.472834E-16
1.920000E+03	9.891691E-16	1.169925E-16
1.960000E+03	8.006070E-16	9.384625E-17
2.000000E+03	6.564350E-16	7.626600E-17
2.040000E+03	5.471194E-16	6.300920E-17
2.080000E+03	4.653120E-16	5.312500E-17
2.120000E+03	4.053844E-16	4.588921E-17
2.160000E+03	3.634157E-16	4.079367E-17
2.200000E+03	3.366766E-16	3.748037E-17
2.240000E+03	3.232754E-16	3.569619E-17
2.280000E+03	3.224959E-16	3.532539E-17
2.320000E+03	3.338678E-16	3.628274E-17
2.360000E+03	3.577765E-16	3.857780E-17
2.400000E+03	3.950722E-16	4.226953E-17
2.440000E+03	4.470705E-16	4.746405E-17
2.480000E+03	5.155115E-16	5.430811E-17
2.520000E+03	6.015646E-16	6.288291E-17
2.560000E+03	7.060880E-16	7.323298E-17
2.600000E+03	8.285579E-16	8.525666E-17
2.640000E+03	9.666065E-16	9.866419E-17
2.680000E+03	1.117160E-15	1.131001E-16
2.720000E+03	1.275900E-15	1.280923E-16
2.760000E+03	1.437947E-15	1.431247E-16
2.800000E+03	1.597870E-15	1.576424E-16
2.840000E+03	1.750566E-15	1.711398E-16
2.880000E+03	1.891830E-15	1.832164E-16
2.920000E+03	2.017812E-15	1.935211E-16
2.960000E+03	2.127018E-15	2.019422E-16
3.000000E+03	2.219501E-15	2.085214E-16
3.010000E+03	2.240091E-15	2.098906E-16
3.020000E+03	2.259580E-15	2.111423E-16
3.030000E+03	2.278548E-15	2.123314E-16
3.040000E+03	2.296483E-15	2.134106E-16
3.050000E+03	2.313699E-15	2.144096E-16
3.060000E+03	2.330243E-15	2.153331E-16
3.070000E+03	2.345883E-15	2.161601E-16
3.080000E+03	2.361222E-15	2.169468E-16
3.090000E+03	2.375762E-15	2.176473E-16
3.100000E+03	2.390110E-15	2.183179E-16
3.110000E+03	2.403771E-15	2.189133E-16
3.120000E+03	2.417357E-15	2.194895E-16
3.130000E+03	2.430651E-15	2.200269E-16
3.140000E+03	2.443716E-15	2.205312E-16
3.150000E+03	2.456614E-15	2.210081E-16
3.160000E+03	2.469685E-15	2.214880E-16
3.170000E+03	2.482991E-15	2.219762E-16
3.180000E+03	2.496323E-15	2.224538E-16
3.190000E+03	2.509744E-15	2.229262E-16
3.200000E+03	2.523868E-15	2.234474E-16
3.210000E+03	2.538211E-15	2.239742E-16
3.220000E+03	2.553111E-15	2.245358E-16
3.230000E+03	2.568631E-15	2.251371E-16
3.240000E+03	2.585105E-15	2.258068E-16
3.250000E+03	2.602325E-15	2.265255E-16
3.260000E+03	2.620354E-15	2.272979E-16
3.270000E+03	2.639255E-15	2.281285E-16
3.280000E+03	2.659624E-15	2.290679E-16
3.290000E+03	2.680987E-15	2.300736E-16
3.300000E+03	2.703671E-15	2.311726E-16
3.310000E+03	2.727735E-15	2.323685E-16
3.320000E+03	2.753505E-15	2.336874E-16
3.330000E+03	2.780771E-15	2.351097E-16
3.340000E+03	2.809589E-15	2.366386E-16
3.350000E+03	2.840282E-15	2.382993E-16
3.360000E+03	2.872905E-15	2.400942E-16
3.370000E+03	2.907778E-15	2.420481E-16
3.380000E+03	2.944416E-15	2.441181E-16
3.390000E+03	2.983404E-15	2.463505E-16
3.400000E+03	3.024792E-15	2.487467E-16
3.410000E+03	3.068351E-15	2.512852E-16
3.420000E+03	3.114665E-15	2.540111E-16
3.430000E+03	3.163498E-15	2.569022E-16
3.440000E+03	3.214880E-15	2.599578E-16
3.450000E+03	3.269384E-15	2.632210E-16
3.460000E+03	3.326481E-15	2.666456E-16
3.470000E+03	3.386450E-15	2.702510E-16
3.480000E+03	3.449286E-15	2.740331E-16
3.490000E+03	3.515248E-15	2.780089E-16
3.500000E+03	3.584303E-15	2.821720E-16
3.510000E+03	3.656394E-15	2.865140E-16
3.520000E+03	3.731442E-15	2.910250E-16
3.530000E+03	3.809344E-15	2.956931E-16
3.540000E+03	3.890256E-15	3.005269E-16
3.550000E+03	3.973748E-15	3.054891E-16
3.560000E+03	4.060222E-15	3.106072E-16
3.570000E+03	4.148923E-15	3.158197E-16
3.580000E+03	4.240225E-15	3.211518E-16
3.590000E+03	4.333626E-15	3.265620E-16
3.600000E+03	4.429191E-15	3.320523E-16
3.610000E+03	4.526391E-15	3.375800E-16
3.620000E+03	4.625268E-15	3.431457E-16
3.630000E+03	4.725564E-15	3.487279E-16
3.640000E+03	4.827019E-15	3.543049E-16
3.650000E+03	4.929669E-15	3.598776E-16
3.660000E+03	5.032680E-15	3.653833E-16
3.670000E+03	5.136438E-15	3.708489E-16
3.680000E+03	5.240492E-15	3.762404E-16
3.690000E+03	5.345071E-15	3.815733E-16
3.700000E+03	5.449905E-15	3.868271E-16
3.710000E+03	5.555153E-15	3.920123E-16
3.720000E+03	5.661414E-15	3.971697E-16
3.730000E+03	5.769131E-15	4.023286E-16
3.740000E+03	5.878896E-15	4.075275E-16
3.750000E+03	5.991127E-15	4.127922E-16
3.760000E+03	6.106642E-15	4.181751E-16
3.770000E+03	6.226610E-15	4.237512E-16
3.780000E+03	6.351914E-15	4.295739E-16
3.790000E+03	6.483394E-15	4.356923E-16
3.800000E+03	6.621190E-15	4.421073E-16
3.810000E+03	6.766755E-15	4.489068E-16
3.820000E+03	6.919549E-15	4.560444E-16
3.830000E+03	7.080235E-15	4.635537E-16
3.840000E+03	7.248572E-15	4.714082E-16
3.850000E+03	7.423385E-15	4.795213E-16
3.860000E+03	7.604042E-15	4.878435E-16
3.870000E+03	7.789582E-15	4.963052E-16
3.880000E+03	7.977838E-15	5.047626E-16
3.890000E+03	8.166989E-15	5.130970E-16
3.900000E+03	8.355637E-15	5.212197E-16
3.910000E+03	8.540744E-15	5.289429E-16
3.920000E+03	8.720758E-15	5.361756E-16
3.930000E+03	8.893253E-15	5.427766E-16
3.940000E+03	9.056230E-15	5.486347E-16
3.950000E+03	9.207589E-15	5.536365E-16
3.960000E+03	9.346100E-15	5.577248E-16
3.970000E+03	9.470249E-15	5.608273E-16
3.980000E+03	9.579497E-15	5.629325E-16
3.990000E+03	9.672837E-15	5.640023E-16
4.000000E+03	9.750257E-15	5.640584E-16
4.010000E+03	9.812476E-15	5.631645E-16
4.020000E+03	9.859995E-15	5.613708E-16
4.030000E+03	9.893957E-15	5.587626E-16
4.040000E+03	9.915770E-15	5.554386E-16
4.050000E+03	9.926777E-15	5.514907E-16
4.060000E+03	9.929019E-15	5.470474E-16
4.070000E+03	9.923744E-15	5.421899E-16
4.080000E+03	9.912800E-15	5.370297E-16
4.090000E+03	9.898165E-15	5.316819E-16
4.100000E+03	9.881475E-15	5.262399E-16
4.110000E+03	9.863686E-15	5.207580E-16
4.120000E+03	9.846092E-15	5.153065E-16
4.130000E+03	9.829984E-15	5.099534E-16
4.140000E+03	9.815920E-15	5.047264E-16
4.150000E+03	9.804243E-15	4.996413E-16
4.160000E+03	9.795481E-15	4.947230E-16
4.170000E+03	9.789704E-15	4.899721E-16
4.180000E+03	9.786334E-15	4.853573E-16
4.190000E+03	9.785248E-15	4.808705E-16
4.200000E+03	9.785954E-15	4.764862E-16
4.210000E+03	9.787437E-15	4.721545E-16
4.220000E+03	9.789412E-15	4.678621E-16
4.230000E+03	9.790935E-15	4.635653E-16
4.240000E+03	9.791048E-15	4.592214E-16
4.250000E+03	9.789246E-15	4.548104E-16
4.260000E+03	9.784480E-15	4.502883E-16
4.270000E+03	9.776648E-15	4.456559E-16
4.280000E+03	9.765022E-15	4.408863E-16
4.290000E+03	9.749572E-15	4.359845E-16
4.300000E+03	9.730765E-15	4.309781E-16
4.310000E+03	9.709129E-15	4.258961E-16
4.320000E+03	9.685856E-15	4.207957E-16
4.330000E+03	9.662647E-15	4.157539E-16
4.340000E+03	9.641566E-15	4.108601E-16
4.350000E+03	9.625321E-15	4.062279E-16
4.360000E+03	9.617074E-15	4.019854E-16
4.370000E+03	9.620589E-15	3.982805E-16
4.380000E+03	9.639488E-15	3.952500E-16
4.390000E+03	9.678513E-15	3.930705E-16
4.400000E+03	9.741505E-15	3.918759E-16
4.410000E+03	9.832237E-15	3.917919E-16
4.420000E+03	9.954574E-15	3.929435E-16
4.430000E+03	1.011126E-14	3.954068E-16
4.440000E+03	1.030486E-14	3.992484E-16
4.450000E+03	1.053710E-14	4.045003E-16
4.460000E+03	1.080865E-14	4.111533E-16
4.470000E+03	1.111919E-14	4.191622E-16
4.480000E+03	1.146793E-14	4.284661E-16
4.490000E+03	1.185341E-14	4.389823E-16
4.500000E+03	1.227375E-14	4.506165E-16
4.510000E+03	1.272575E-14	4.632312E-16
4.520000E+03	1.320395E-14	4.766123E-16
4.530000E+03	1.370180E-14	4.905153E-16
4.540000E+03	1.420984E-14	5.046020E-16
4.550000E+03	1.471810E-14	5.185271E-16
4.560000E+03	1.521385E-14	5.318613E-16
4.570000E+03	1.568421E-14	5.441832E-16
4.580000E+03	1.611552E-14	5.550564E-16
4.590000E+03	1.649504E-14	5.640829E-16
4.600000E+03	1.681119E-14	5.709116E-16
4.610000E+03	1.705414E-14	5.752590E-16
4.620000E+03	1.721782E-14	5.769714E-16
4.630000E+03	1.729929E-14	5.760023E-16
4.640000E+03	1.729998E-14	5.724474E-16
4.650000E+03	1.722451E-14	5.665028E-16
4.660000E+03	1.708187E-14	5.585010E-16
4.670000E+03	1.688295E-14	5.488259E-16
4.680000E+03	1.664105E-14	5.379303E-16
4.690000E+03	1.637062E-14	5.262921E-16
4.700000E+03	1.608577E-14	5.143681E-16
4.710000E+03	1.580010E-14	5.025880E-16
4.720000E+03	1.552581E-14	4.913296E-16
4.730000E+03	1.527339E-14	4.809086E-16
4.740000E+03	1.505116E-14	4.715671E-16
4.750000E+03	1.486601E-14	4.634981E-16
4.760000E+03	1.472245E-14	4.568187E-16
4.770000E+03	1.462308E-14	4.515840E-16
4.780000E+03	1.456922E-14	4.478100E-16
4.790000E+03	1.456063E-14	4.454640E-16
4.800000E+03	1.459585E-14	4.444784E-16
4.810000E+03	1.467247E-14	4.447569E-16
4.820000E+03	1.478722E-14	4.461796E-16
4.830000E+03	1.493623E-14	4.486107E-16
4.840000E+03	1.511434E-14	4.518776E-16
4.850000E+03	1.531588E-14	4.557962E-16
4.860000E+03	1.553464E-14	4.601692E-16
4.870000E+03	1.576269E-14	4.647518E-16
4.880000E+03	1.599148E-14	4.692852E-16
4.890000E+03	1.621190E-14	4.734995E-16
4.900000E+03	1.641373E-14	4.770971E-16
4.910000E+03	1.658684E-14	4.797888E-16
4.920000E+03	1.672175E-14	4.813111E-16
4.930000E+03	1.680995E-14	4.814323E-16
4.940000E+03	1.684526E-14	4.799942E-16
4.950000E+03	1.682416E-14	4.769169E-16
4.960000E+03	1.674579E-14	4.721994E-16
4.970000E+03	1.661282E-14	4.659403E-16
4.980000E+03	1.643043E-14	4.583084E-16
4.990000E+03	1.620673E-14	4.495507E-16
5.000000E+03	1.595119E-14	4.399480E-16
5.010000E+03	1.567408E-14	4.297974E-16
5.020000E+03	1.538631E-14	4.194081E-16
5.030000E+03	1.509848E-14	4.090742E-16
5.040000E+03	1.481999E-14	3.990502E-16
5.050000E+03	1.456004E-14	3.895797E-16
5.060000E+03	1.432584E-14	3.808468E-16
5.070000E+03	1.412394E-14	3.730134E-16
5.080000E+03	1.395962E-14	3.662031E-16
5.090000E+03	1.383723E-14	3.605109E-16
5.100000E+03	1.376041E-14	3.560106E-16
5.110000E+03	1.373178E-14	3.527460E-16
5.120000E+03	1.375362E-14	3.507506E-16
5.130000E+03	1.382747E-14	3.500364E-16
5.140000E+03	1.395419E-14	3.505973E-16
5.150000E+03	1.413453E-14	3.524231E-16
5.160000E+03	1.436817E-14	3.554769E-16
5.170000E+03	1.465433E-14	3.597104E-16
5.180000E+03	1.499150E-14	3.650577E-16
5.190000E+03	1.537759E-14	3.714413E-16
5.200000E+03	1.580924E-14	3.787543E-16
5.210000E+03	1.628315E-14	3.868950E-16
5.220000E+03	1.679446E-14	3.957279E-16
5.230000E+03	1.733798E-14	4.051147E-16
5.240000E+03	1.790819E-14	4.149145E-16
5.250000E+03	1.849909E-14	4.249812E-16
5.260000E+03	1.910448E-14	4.351693E-16
5.270000E+03	1.971878E-14	4.453546E-16
5.280000E+03	2.033667E-14	4.554235E-16
5.290000E+03	2.095445E-14	4.653049E-16
5.300000E+03	2.156899E-14	4.749437E-16
5.310000E+03	2.217926E-14	4.843352E-16
5.320000E+03	2.278665E-14	4.935285E-16
5.330000E+03	2.339365E-14	5.025974E-16
5.340000E+03	2.400543E-14	5.116729E-16
5.350000E+03	2.462845E-14	5.209112E-16
5.360000E+03	2.527113E-14	5.305074E-16
5.370000E+03	2.594290E-14	5.406747E-16
5.380000E+03	2.665267E-14	5.516125E-16
5.390000E+03	2.741087E-14	5.635495E-16
5.400000E+03	2.822593E-14	5.766720E-16
5.410000E+03	2.910612E-14	5.911632E-16
5.420000E+03	3.005611E-14	6.071344E-16
5.430000E+03	3.107526E-14	6.245944E-16
5.440000E+03	3.215325E-14	6.433645E-16
5.450000E+03	3.327136E-14	6.631077E-16
5.460000E+03	3.440556E-14	6.833932E-16
5.470000E+03	3.552725E-14	7.037081E-16
5.480000E+03	3.660432E-14	7.234774E-16
5.490000E+03	3.760392E-14	7.420992E-16
5.500000E+03	3.849326E-14	7.589562E-16
5.510000E+03	3.924189E-14	7.734657E-16
5.520000E+03	3.982421E-14	7.851290E-16
5.530000E+03	4.021951E-14	7.935312E-16
5.540000E+03	4.041622E-14	7.984233E-16
5.550000E+03	4.041014E-14	7.996885E-16
5.560000E+03	4.020464E-14	7.973474E-16
5.570000E+03	3.981259E-14	7.916001E-16
5.580000E+03	3.925256E-14	7.827546E-16
5.590000E+03	3.854915E-14	7.712374E-16
5.600000E+03	3.773101E-14	7.575579E-16
5.610000E+03	3.682948E-14	7.422864E-16
5.620000E+03	3.587601E-14	7.260035E-16
5.630000E+03	3.490202E-14	7.093011E-16
5.640000E+03	3.393630E-14	6.927298E-16
5.650000E+03	3.300540E-14	6.768071E-16
5.660000E+03	3.213147E-14	6.619736E-16
5.670000E+03	3.133283E-14	6.486018E-16
5.680000E+03	3.062369E-14	6.369897E-16
5.690000E+03	3.001342E-14	6.273426E-16
5.700000E+03	2.950638E-14	6.197671E-16
5.710000E+03	2.910390E-14	6.143097E-16
5.720000E+03	2.880233E-14	6.109142E-16
5.730000E+03	2.859495E-14	6.094580E-16
5.740000E+03	2.847077E-14	6.097257E-16
5.750000E+03	2.841702E-14	6.114593E-16
5.760000E+03	2.841762E-14	6.143252E-16
5.770000E+03	2.845502E-14	6.179510E-16
5.780000E+03	2.851033E-14	6.219289E-16
5.790000E+03	2.856529E-14	6.258580E-16
5.800000E+03	2.860122E-14	6.293214E-16
5.810000E+03	2.860184E-14	6.319492E-16
5.820000E+03	2.855278E-14	6.334089E-16
5.830000E+03	2.844324E-14	6.334438E-16
5.840000E+03	2.826545E-14	6.318627E-16
5.850000E+03	2.801588E-14	6.285682E-16
5.860000E+03	2.769376E-14	6.235261E-16
5.870000E+03	2.730267E-14	6.168017E-16
5.880000E+03	2.684781E-14	6.085003E-16
5.890000E+03	2.633733E-14	5.987968E-16
5.900000E+03	2.578055E-14	5.878968E-16
5.910000E+03	2.518751E-14	5.760264E-16
5.920000E+03	2.456917E-14	5.634360E-16
5.930000E+03	2.393581E-14	5.503643E-16
5.940000E+03	2.329839E-14	5.370683E-16
5.950000E+03	2.266641E-14	5.237743E-16
5.960000E+03	2.204930E-14	5.107089E-16
5.970000E+03	2.145508E-14	4.980681E-16
5.980000E+03	2.089085E-14	4.860283E-16
5.990000E+03	2.036249E-14	4.747379E-16
6.000000E+03	1.987451E-14	4.643144E-16
6.010000E+03	1.942992E-14	4.548406E-16
6.020000E+03	1.903060E-14	4.463732E-16
6.030000E+03	1.867723E-14	4.389401E-16
6.040000E+03	1.836944E-14	4.325454E-16
6.050000E+03	1.810577E-14	4.271663E-16
6.060000E+03	1.788422E-14	4.227671E-16
6.070000E+03	1.770213E-14	4.192971E-16
6.080000E+03	1.755623E-14	4.166895E-16
6.090000E+03	1.744306E-14	4.148732E-16
6.100000E+03	1.735869E-14	4.137660E-16
6.110000E+03	1.729940E-14	4.132895E-16
6.120000E+03	1.726082E-14	4.133498E-16
6.130000E+03	1.723920E-14	4.138671E-16
6.140000E+03	1.723008E-14	4.147445E-16
6.150000E+03	1.722956E-14	4.158974E-16
6.160000E+03	1.723370E-14	4.172396E-16
6.170000E+03	1.723881E-14	4.186905E-16
6.180000E+03	1.724200E-14	4.201870E-16
6.190000E+03	1.724069E-14	4.216737E-16
6.200000E+03	1.723289E-14	4.231080E-16
6.210000E+03	1.721796E-14	4.244798E-16
6.220000E+03	1.719683E-14	4.258167E-16
6.230000E+03	1.717173E-14	4.271795E-16
6.240000E+03	1.714654E-14	4.286703E-16
6.250000E+03	1.712661E-14	4.304295E-16
6.260000E+03	1.711788E-14	4.326160E-16
6.270000E+03	1.712735E-14	4.354185E-16
6.280000E+03	1.716170E-14	4.390181E-16
6.290000E+03	1.722762E-14	4.435947E-16
6.300000E+03	1.733122E-14	4.493181E-16
6.310000E+03	1.747756E-14	4.563370E-16
6.320000E+03	1.767092E-14	4.647842E-16
6.330000E+03	1.791411E-14	4.747592E-16
6.340000E+03	1.820959E-14	4.863556E-16
6.350000E+03	1.855782E-14	4.996173E-16
6.360000E+03	1.895914E-14	5.145865E-16
6.370000E+03	1.941191E-14	5.312531E-16
6.380000E+03	1.991403E-14	5.495940E-16
6.390000E+03	2.046249E-14	5.695593E-16
6.400000E+03	2.105250E-14	5.910475E-16
6.410000E+03	2.167711E-14	6.138913E-16
6.420000E+03	2.232461E-14	6.377807E-16
6.430000E+03	2.298151E-14	6.623429E-16
6.440000E+03	2.363295E-14	6.871508E-16
6.450000E+03	2.426367E-14	7.117494E-16
6.460000E+03	2.485777E-14	7.356484E-16
6.470000E+03	2.540037E-14	7.583695E-16
6.480000E+03	2.587724E-14	7.794386E-16
6.490000E+03	2.627544E-14	7.984033E-16
6.500000E+03	2.658474E-14	8.148804E-16
6.510000E+03	2.679641E-14	8.285206E-16
6.520000E+03	2.690506E-14	8.390703E-16
6.530000E+03	2.690719E-14	8.463282E-16
6.540000E+03	2.680261E-14	8.501948E-16
6.550000E+03	2.659350E-14	8.506472E-16
6.560000E+03	2.628463E-14	8.477483E-16
6.570000E+03	2.588328E-14	8.416488E-16
6.580000E+03	2.539840E-14	8.325638E-16
6.590000E+03	2.484024E-14	8.207614E-16
6.600000E+03	2.422070E-14	8.065774E-16
6.610000E+03	2.355237E-14	7.903841E-16
6.620000E+03	2.284724E-14	7.725485E-16
6.630000E+03	2.211819E-14	7.534807E-16
6.640000E+03	2.137692E-14	7.335654E-16
6.650000E+03	2.063427E-14	7.131701E-16
6.660000E+03	1.989994E-14	6.926337E-16
6.670000E+03	1.918228E-14	6.722584E-16
6.680000E+03	1.848824E-14	6.523056E-16
6.690000E+03	1.782357E-14	6.329999E-16
6.700000E+03	1.719238E-14	6.145136E-16
6.710000E+03	1.659731E-14	5.969686E-16
6.720000E+03	1.604038E-14	5.804682E-16
6.730000E+03	1.552206E-14	5.650584E-16
6.740000E+03	1.504212E-14	5.507609E-16
6.750000E+03	1.459983E-14	5.375776E-16
6.760000E+03	1.419375E-14	5.254826E-16
6.770000E+03	1.382190E-14	5.144277E-16
6.780000E+03	1.348233E-14	5.043648E-16
6.790000E+03	1.317282E-14	4.952320E-16
6.800000E+03	1.289106E-14	4.869623E-16
6.810000E+03	1.263492E-14	4.794925E-16
6.820000E+03	1.240198E-14	4.727474E-16
6.830000E+03	1.219014E-14	4.666602E-16
6.840000E+03	1.199739E-14	4.611665E-16
6.850000E+03	1.182197E-14	4.562100E-16
6.860000E+03	1.166217E-14	4.517340E-16
6.870000E+03	1.151627E-14	4.476801E-16
6.880000E+03	1.138296E-14	4.440052E-16
6.890000E+03	1.126097E-14	4.406653E-16
6.900000E+03	1.114901E-14	4.376158E-16
6.910000E+03	1.104624E-14	4.348289E-16
6.920000E+03	1.095183E-14	4.322755E-16
6.930000E+03	1.086499E-14	4.299282E-16
6.940000E+03	1.078537E-14	4.277765E-16
6.950000E+03	1.071268E-14	4.258116E-16
6.960000E+03	1.064679E-14	4.240309E-16
6.970000E+03	1.058776E-14	4.224390E-16
6.980000E+03	1.053569E-14	4.210422E-16
6.990000E+03	1.049097E-14	4.198578E-16
7.000000E+03	1.045434E-14	4.189171E-16
7.010000E+03	1.042613E-14	4.182349E-16
7.020000E+03	1.040701E-14	4.178392E-16
7.030000E+03	1.039763E-14	4.177569E-16
7.040000E+03	1.039880E-14	4.180211E-16
7.050000E+03	1.041097E-14	4.186500E-16
7.060000E+03	1.043467E-14	4.196651E-16
7.070000E+03	1.047031E-14	4.210818E-16
7.080000E+03	1.051813E-14	4.229087E-16
7.090000E+03	1.057824E-14	4.251487E-16
7.100000E+03	1.065042E-14	4.277902E-16
7.110000E+03	1.073440E-14	4.308196E-16
7.120000E+03	1.082981E-14	4.342192E-16
7.130000E+03	1.093574E-14	4.379482E-16
7.140000E+03	1.105157E-14	4.419781E-16
7.150000E+03	1.117604E-14	4.462539E-16
7.160000E+03	1.130796E-14	4.507237E-16
7.170000E+03	1.144609E-14	4.553332E-16
7.180000E+03	1.158924E-14	4.600305E-16
7.190000E+03	1.173575E-14	4.647455E-16
7.200000E+03	1.188431E-14	4.694214E-16
7.210000E+03	1.203363E-14	4.740040E-16
7.220000E+03	1.218252E-14	4.784431E-16
7.230000E+03	1.232978E-14	4.826877E-16
7.240000E+03	1.247449E-14	4.867002E-16
7.250000E+03	1.261588E-14	4.904479E-16
7.260000E+03	1.275337E-14	4.939066E-16
7.270000E+03	1.288615E-14	4.970447E-16
7.280000E+03	1.301389E-14	4.998487E-16
7.290000E+03	1.313649E-14	5.023143E-16
7.300000E+03	1.325342E-14	5.044223E-16
7.310000E+03	1.336447E-14	5.061656E-16
7.320000E+03	1.346943E-14	5.075373E-16
7.330000E+03	1.356802E-14	5.085293E-16
7.340000E+03	1.365956E-14	5.091183E-16
7.350000E+03	1.374364E-14	5.092923E-16
7.360000E+03	1.381977E-14	5.090378E-16
7.370000E+03	1.388746E-14	5.083407E-16
7.380000E+03	1.394608E-14	5.071840E-16
7.390000E+03	1.399506E-14	5.055534E-16
7.400000E+03	1.403417E-14	5.034483E-16
7.410000E+03	1.406342E-14	5.008770E-16
7.420000E+03	1.408313E-14	4.978591E-16
7.430000E+03	1.409378E-14	4.944206E-16
7.440000E+03	1.409628E-14	4.906017E-16
7.450000E+03	1.409245E-14	4.864742E-16
7.460000E+03	1.408402E-14	4.821049E-16
7.470000E+03	1.407342E-14	4.775826E-16
7.480000E+03	1.406321E-14	4.729977E-16
7.490000E+03	1.405617E-14	4.684451E-16
7.500000E+03	1.405535E-14	4.640258E-16
7.510000E+03	1.406361E-14	4.598301E-16
7.520000E+03	1.408368E-14	4.559410E-16
7.530000E+03	1.411821E-14	4.524351E-16
7.540000E+03	1.416930E-14	4.493675E-16
7.550000E+03	1.423876E-14	4.467822E-16
7.560000E+03	1.432747E-14	4.446907E-16
7.570000E+03	1.443625E-14	4.431027E-16
7.580000E+03	1.456471E-14	4.419887E-16
7.590000E+03	1.471214E-14	4.413114E-16
7.600000E+03	1.487701E-14	4.410101E-16
7.610000E+03	1.505732E-14	4.410123E-16
7.620000E+03	1.525012E-14	4.412218E-16
7.630000E+03	1.545203E-14	4.415355E-16
7.640000E+03	1.565963E-14	4.418540E-16
7.650000E+03	1.586849E-14	4.420559E-16
7.660000E+03	1.607424E-14	4.420290E-16
7.670000E+03	1.627169E-14	4.416463E-16
7.680000E+03	1.645663E-14	4.408152E-16
7.690000E+03	1.662385E-14	4.394243E-16
7.700000E+03	1.676898E-14	4.373919E-16
7.710000E+03	1.688778E-14	4.346476E-16
7.720000E+03	1.697630E-14	4.311342E-16
7.730000E+03	1.703190E-14	4.268333E-16
7.740000E+03	1.705180E-14	4.217267E-16
7.750000E+03	1.703498E-14	4.158428E-16
7.760000E+03	1.698044E-14	4.092105E-16
