#wls	flux	fluxerr
1.600000E+03	6.144351E-15	3.809653E-16
1.640000E+03	4.982576E-15	3.054382E-16
1.680000E+03	4.014897E-15	2.432969E-16
1.720000E+03	3.219035E-15	1.928046E-16
1.760000E+03	2.571777E-15	1.522285E-16
1.800000E+03	2.051294E-15	1.199799E-16
1.840000E+03	1.636820E-15	9.459156E-17
1.880000E+03	1.310001E-15	7.479176E-17
1.920000E+03	1.054489E-15	5.947328E-17
1.960000E+03	8.565636E-16	4.772133E-17
2.000000E+03	7.046307E-16	3.877675E-17
2.040000E+03	5.894804E-16	3.204274E-17
2.080000E+03	5.035247E-16	2.703554E-17
2.120000E+03	4.414143E-16	2.341150E-17
2.160000E+03	3.991105E-16	2.091078E-17
2.200000E+03	3.741634E-16	1.936705E-17
2.240000E+03	3.651427E-16	1.867327E-17
2.280000E+03	3.718386E-16	1.878871E-17
2.320000E+03	3.949073E-16	1.971745E-17
2.360000E+03	4.359369E-16	2.150879E-17
2.400000E+03	4.976484E-16	2.426430E-17
2.440000E+03	5.836183E-16	2.812129E-17
2.480000E+03	6.984051E-16	3.325643E-17
2.520000E+03	8.461858E-16	3.981889E-17
2.560000E+03	1.030175E-15	4.790438E-17
2.600000E+03	1.251262E-15	5.749514E-17
2.640000E+03	1.506287E-15	6.838821E-17
2.680000E+03	1.789906E-15	8.028957E-17
2.720000E+03	2.094319E-15	9.280812E-17
2.760000E+03	2.409272E-15	1.054622E-16
2.800000E+03	2.723284E-15	1.177390E-16
2.840000E+03	3.024587E-15	1.291380E-16
2.880000E+03	3.301595E-15	1.391919E-16
2.920000E+03	3.545541E-15	1.475752E-16
2.960000E+03	3.750821E-15	1.541115E-16
3.000000E+03	3.916211E-15	1.588140E-16
3.010000E+03	3.951479E-15	1.597169E-16
3.020000E+03	3.984181E-15	1.605073E-16
3.030000E+03	4.014814E-15	1.612062E-16
3.040000E+03	4.043014E-15	1.617999E-16
3.050000E+03	4.069736E-15	1.623275E-16
3.060000E+03	4.093756E-15	1.627409E-16
3.070000E+03	4.116485E-15	1.630972E-16
3.080000E+03	4.137153E-15	1.633664E-16
3.090000E+03	4.156307E-15	1.635708E-16
3.100000E+03	4.174063E-15	1.637157E-16
3.110000E+03	4.190542E-15	1.638060E-16
3.120000E+03	4.205868E-15	1.638472E-16
3.130000E+03	4.220166E-15	1.638444E-16
3.140000E+03	4.233135E-15	1.637863E-16
3.150000E+03	4.246195E-15	1.637281E-16
3.160000E+03	4.258185E-15	1.636252E-16
3.170000E+03	4.270093E-15	1.635156E-16
3.180000E+03	4.281621E-15	1.633880E-16
3.190000E+03	4.292899E-15	1.632474E-16
3.200000E+03	4.304892E-15	1.631303E-16
3.210000E+03	4.316883E-15	1.630095E-16
3.220000E+03	4.329413E-15	1.629051E-16
3.230000E+03	4.342184E-15	1.628056E-16
3.240000E+03	4.356139E-15	1.627463E-16
3.250000E+03	4.370976E-15	1.627152E-16
3.260000E+03	4.387210E-15	1.627310E-16
3.270000E+03	4.404535E-15	1.627819E-16
3.280000E+03	4.423053E-15	1.628711E-16
3.290000E+03	4.443669E-15	1.630311E-16
3.300000E+03	4.465666E-15	1.632350E-16
3.310000E+03	4.489933E-15	1.635144E-16
3.320000E+03	4.515752E-15	1.638424E-16
3.330000E+03	4.544396E-15	1.642642E-16
3.340000E+03	4.575141E-15	1.647525E-16
3.350000E+03	4.608451E-15	1.653232E-16
3.360000E+03	4.644389E-15	1.659772E-16
3.370000E+03	4.683404E-15	1.667295E-16
3.380000E+03	4.725545E-15	1.675805E-16
3.390000E+03	4.770465E-15	1.685165E-16
3.400000E+03	4.818985E-15	1.695652E-16
3.410000E+03	4.870745E-15	1.707124E-16
3.420000E+03	4.925768E-15	1.719576E-16
3.430000E+03	4.984849E-15	1.733269E-16
3.440000E+03	5.047992E-15	1.748187E-16
3.450000E+03	5.114801E-15	1.764176E-16
3.460000E+03	5.185257E-15	1.781212E-16
3.470000E+03	5.260505E-15	1.799673E-16
3.480000E+03	5.339328E-15	1.819120E-16
3.490000E+03	5.422845E-15	1.839920E-16
3.500000E+03	5.510595E-15	1.861895E-16
3.510000E+03	5.602493E-15	1.884998E-16
3.520000E+03	5.698830E-15	1.909307E-16
3.530000E+03	5.799484E-15	1.934763E-16
3.540000E+03	5.904318E-15	1.961300E-16
3.550000E+03	6.013574E-15	1.988980E-16
3.560000E+03	6.126688E-15	2.017595E-16
3.570000E+03	6.243870E-15	2.047198E-16
3.580000E+03	6.364929E-15	2.077705E-16
3.590000E+03	6.490057E-15	2.109160E-16
3.600000E+03	6.618255E-15	2.141219E-16
3.610000E+03	6.749709E-15	2.173928E-16
3.620000E+03	6.884616E-15	2.207333E-16
3.630000E+03	7.022387E-15	2.241228E-16
3.640000E+03	7.162848E-15	2.275543E-16
3.650000E+03	7.306254E-15	2.310345E-16
3.660000E+03	7.452100E-15	2.345458E-16
3.670000E+03	7.600328E-15	2.380852E-16
3.680000E+03	7.750941E-15	2.416515E-16
3.690000E+03	7.904406E-15	2.452578E-16
3.700000E+03	8.060471E-15	2.488949E-16
3.710000E+03	8.219363E-15	2.525682E-16
3.720000E+03	8.381389E-15	2.562857E-16
3.730000E+03	8.547329E-15	2.600695E-16
3.740000E+03	8.716440E-15	2.638950E-16
3.750000E+03	8.890413E-15	2.678116E-16
3.760000E+03	9.068977E-15	2.718086E-16
3.770000E+03	9.253053E-15	2.759112E-16
3.780000E+03	9.442730E-15	2.801194E-16
3.790000E+03	9.638823E-15	2.844543E-16
3.800000E+03	9.840850E-15	2.888987E-16
3.810000E+03	1.004977E-14	2.934776E-16
3.820000E+03	1.026438E-14	2.981528E-16
3.830000E+03	1.048566E-14	3.029494E-16
3.840000E+03	1.071235E-14	3.078285E-16
3.850000E+03	1.094337E-14	3.127563E-16
3.860000E+03	1.117856E-14	3.177261E-16
3.870000E+03	1.141596E-14	3.226803E-16
3.880000E+03	1.165415E-14	3.275783E-16
3.890000E+03	1.189195E-14	3.323863E-16
3.900000E+03	1.212720E-14	3.370446E-16
3.910000E+03	1.235729E-14	3.414822E-16
3.920000E+03	1.258150E-14	3.456823E-16
3.930000E+03	1.279680E-14	3.495646E-16
3.940000E+03	1.300180E-14	3.530961E-16
3.950000E+03	1.319448E-14	3.562270E-16
3.960000E+03	1.337382E-14	3.589364E-16
3.970000E+03	1.353784E-14	3.611784E-16
3.980000E+03	1.368607E-14	3.629477E-16
3.990000E+03	1.381755E-14	3.642275E-16
4.000000E+03	1.393208E-14	3.650207E-16
4.010000E+03	1.402937E-14	3.653286E-16
4.020000E+03	1.411025E-14	3.651812E-16
4.030000E+03	1.417468E-14	3.645866E-16
4.040000E+03	1.422405E-14	3.635880E-16
4.050000E+03	1.425917E-14	3.622144E-16
4.060000E+03	1.428140E-14	3.605077E-16
4.070000E+03	1.429222E-14	3.585113E-16
4.080000E+03	1.429279E-14	3.562609E-16
4.090000E+03	1.428498E-14	3.538082E-16
4.100000E+03	1.426927E-14	3.511696E-16
4.110000E+03	1.424804E-14	3.484081E-16
4.120000E+03	1.422158E-14	3.455340E-16
4.130000E+03	1.419168E-14	3.425937E-16
4.140000E+03	1.415866E-14	3.395975E-16
4.150000E+03	1.412363E-14	3.365740E-16
4.160000E+03	1.408690E-14	3.335325E-16
4.170000E+03	1.404863E-14	3.304784E-16
4.180000E+03	1.400973E-14	3.274344E-16
4.190000E+03	1.397004E-14	3.243982E-16
4.200000E+03	1.392935E-14	3.213661E-16
4.210000E+03	1.388793E-14	3.183456E-16
4.220000E+03	1.384544E-14	3.153302E-16
4.230000E+03	1.380179E-14	3.123197E-16
4.240000E+03	1.375722E-14	3.093205E-16
4.250000E+03	1.371124E-14	3.063232E-16
4.260000E+03	1.366450E-14	3.033437E-16
4.270000E+03	1.361727E-14	3.003894E-16
4.280000E+03	1.356953E-14	2.974612E-16
4.290000E+03	1.352246E-14	2.945855E-16
4.300000E+03	1.347696E-14	2.917830E-16
4.310000E+03	1.343397E-14	2.890737E-16
4.320000E+03	1.339488E-14	2.864881E-16
4.330000E+03	1.336162E-14	2.840661E-16
4.340000E+03	1.333606E-14	2.818462E-16
4.350000E+03	1.332008E-14	2.798662E-16
4.360000E+03	1.331642E-14	2.781810E-16
4.370000E+03	1.332718E-14	2.768311E-16
4.380000E+03	1.335541E-14	2.758753E-16
4.390000E+03	1.340368E-14	2.753626E-16
4.400000E+03	1.347517E-14	2.753523E-16
4.410000E+03	1.357181E-14	2.758780E-16
4.420000E+03	1.369568E-14	2.769747E-16
4.430000E+03	1.384831E-14	2.786656E-16
4.440000E+03	1.403065E-14	2.809628E-16
4.450000E+03	1.424293E-14	2.838639E-16
4.460000E+03	1.448440E-14	2.873474E-16
4.470000E+03	1.475405E-14	2.913875E-16
4.480000E+03	1.504980E-14	2.959382E-16
4.490000E+03	1.536958E-14	3.009550E-16
4.500000E+03	1.571057E-14	3.063800E-16
4.510000E+03	1.606869E-14	3.121316E-16
4.520000E+03	1.643988E-14	3.181307E-16
4.530000E+03	1.681843E-14	3.242676E-16
4.540000E+03	1.719802E-14	3.304225E-16
4.550000E+03	1.757162E-14	3.364637E-16
4.560000E+03	1.793165E-14	3.422488E-16
4.570000E+03	1.827004E-14	3.476281E-16
4.580000E+03	1.857918E-14	3.524614E-16
4.590000E+03	1.885203E-14	3.566203E-16
4.600000E+03	1.908226E-14	3.599912E-16
4.610000E+03	1.926539E-14	3.624955E-16
4.620000E+03	1.939813E-14	3.640770E-16
4.630000E+03	1.947924E-14	3.647183E-16
4.640000E+03	1.950923E-14	3.644337E-16
4.650000E+03	1.949101E-14	3.632818E-16
4.660000E+03	1.942850E-14	3.613391E-16
4.670000E+03	1.932811E-14	3.587272E-16
4.680000E+03	1.919638E-14	3.555688E-16
4.690000E+03	1.904137E-14	3.520133E-16
4.700000E+03	1.887094E-14	3.482059E-16
4.710000E+03	1.869318E-14	3.442940E-16
4.720000E+03	1.851578E-14	3.404172E-16
4.730000E+03	1.834601E-14	3.367063E-16
4.740000E+03	1.818955E-14	3.332626E-16
4.750000E+03	1.805182E-14	3.301812E-16
4.760000E+03	1.793666E-14	3.275287E-16
4.770000E+03	1.784706E-14	3.253554E-16
4.780000E+03	1.778491E-14	3.236917E-16
4.790000E+03	1.775103E-14	3.225482E-16
4.800000E+03	1.774506E-14	3.219142E-16
4.810000E+03	1.776611E-14	3.217695E-16
4.820000E+03	1.781197E-14	3.220705E-16
4.830000E+03	1.788009E-14	3.227672E-16
4.840000E+03	1.796694E-14	3.237926E-16
4.850000E+03	1.806833E-14	3.250683E-16
4.860000E+03	1.817970E-14	3.265098E-16
4.870000E+03	1.829541E-14	3.280135E-16
4.880000E+03	1.841036E-14	3.294865E-16
4.890000E+03	1.851887E-14	3.308261E-16
4.900000E+03	1.861515E-14	3.319286E-16
4.910000E+03	1.869416E-14	3.327043E-16
4.920000E+03	1.875123E-14	3.330711E-16
4.930000E+03	1.878277E-14	3.329666E-16
4.940000E+03	1.878584E-14	3.323408E-16
4.950000E+03	1.875897E-14	3.311701E-16
4.960000E+03	1.870226E-14	3.294593E-16
4.970000E+03	1.861700E-14	3.272339E-16
4.980000E+03	1.850557E-14	3.245391E-16
4.990000E+03	1.837220E-14	3.214519E-16
5.000000E+03	1.822142E-14	3.180541E-16
5.010000E+03	1.805872E-14	3.144439E-16
5.020000E+03	1.789024E-14	3.107299E-16
5.030000E+03	1.772213E-14	3.070198E-16
5.040000E+03	1.756028E-14	3.034161E-16
5.050000E+03	1.741081E-14	3.000237E-16
5.060000E+03	1.727922E-14	2.969362E-16
5.070000E+03	1.717072E-14	2.942411E-16
5.080000E+03	1.708961E-14	2.920092E-16
5.090000E+03	1.703981E-14	2.903037E-16
5.100000E+03	1.702478E-14	2.891797E-16
5.110000E+03	1.704707E-14	2.886751E-16
5.120000E+03	1.710916E-14	2.888273E-16
5.130000E+03	1.721224E-14	2.896501E-16
5.140000E+03	1.735751E-14	2.911580E-16
5.150000E+03	1.754541E-14	2.933521E-16
5.160000E+03	1.777603E-14	2.962275E-16
5.170000E+03	1.804854E-14	2.997642E-16
5.180000E+03	1.836177E-14	3.039365E-16
5.190000E+03	1.871401E-14	3.087102E-16
5.200000E+03	1.910345E-14	3.140502E-16
5.210000E+03	1.952684E-14	3.198980E-16
5.220000E+03	1.998150E-14	3.262054E-16
5.230000E+03	2.046407E-14	3.329140E-16
5.240000E+03	2.097097E-14	3.399628E-16
5.250000E+03	2.149853E-14	3.472905E-16
5.260000E+03	2.204296E-14	3.548352E-16
5.270000E+03	2.260114E-14	3.625465E-16
5.280000E+03	2.317014E-14	3.703783E-16
5.290000E+03	2.374740E-14	3.782914E-16
5.300000E+03	2.433177E-14	3.862702E-16
5.310000E+03	2.492224E-14	3.943013E-16
5.320000E+03	2.551868E-14	4.023863E-16
5.330000E+03	2.612265E-14	4.105540E-16
5.340000E+03	2.673559E-14	4.188307E-16
5.350000E+03	2.736051E-14	4.272677E-16
5.360000E+03	2.800107E-14	4.359268E-16
5.370000E+03	2.866059E-14	4.448633E-16
5.380000E+03	2.934333E-14	4.541480E-16
5.390000E+03	3.005355E-14	4.638510E-16
5.400000E+03	3.079402E-14	4.740196E-16
5.410000E+03	3.156738E-14	4.846995E-16
5.420000E+03	3.237417E-14	4.959043E-16
5.430000E+03	3.321217E-14	5.076069E-16
5.440000E+03	3.407412E-14	5.197039E-16
5.450000E+03	3.494970E-14	5.320473E-16
5.460000E+03	3.582395E-14	5.444205E-16
5.470000E+03	3.668022E-14	5.565832E-16
5.480000E+03	3.749974E-14	5.682644E-16
5.490000E+03	3.826380E-14	5.791915E-16
5.500000E+03	3.895444E-14	5.890994E-16
5.510000E+03	3.955476E-14	5.977377E-16
5.520000E+03	4.005020E-14	6.048896E-16
5.530000E+03	4.042888E-14	6.103778E-16
5.540000E+03	4.068345E-14	6.140916E-16
5.550000E+03	4.080995E-14	6.159694E-16
5.560000E+03	4.081040E-14	6.160379E-16
5.570000E+03	4.068856E-14	6.143485E-16
5.580000E+03	4.045420E-14	6.110415E-16
5.590000E+03	4.011877E-14	6.062820E-16
5.600000E+03	3.969845E-14	6.003054E-16
5.610000E+03	3.920883E-14	5.933387E-16
5.620000E+03	3.866855E-14	5.856547E-16
5.630000E+03	3.809563E-14	5.775178E-16
5.640000E+03	3.750681E-14	5.691741E-16
5.650000E+03	3.691915E-14	5.608757E-16
5.660000E+03	3.634720E-14	5.528380E-16
5.670000E+03	3.580304E-14	5.452402E-16
5.680000E+03	3.529670E-14	5.382315E-16
5.690000E+03	3.483597E-14	5.319287E-16
5.700000E+03	3.442565E-14	5.264038E-16
5.710000E+03	3.406763E-14	5.216848E-16
5.720000E+03	3.376160E-14	5.177674E-16
5.730000E+03	3.350531E-14	5.146170E-16
5.740000E+03	3.329401E-14	5.121616E-16
5.750000E+03	3.312084E-14	5.102961E-16
5.760000E+03	3.297811E-14	5.089022E-16
5.770000E+03	3.285666E-14	5.078386E-16
5.780000E+03	3.274635E-14	5.069479E-16
5.790000E+03	3.263707E-14	5.060728E-16
5.800000E+03	3.251922E-14	5.050626E-16
5.810000E+03	3.238320E-14	5.037661E-16
5.820000E+03	3.222107E-14	5.020571E-16
5.830000E+03	3.202594E-14	4.998252E-16
5.840000E+03	3.179226E-14	4.969802E-16
5.850000E+03	3.151655E-14	4.934644E-16
5.860000E+03	3.119726E-14	4.892498E-16
5.870000E+03	3.083467E-14	4.843372E-16
5.880000E+03	3.043104E-14	4.787591E-16
5.890000E+03	2.998960E-14	4.725632E-16
5.900000E+03	2.951483E-14	4.658177E-16
5.910000E+03	2.901308E-14	4.586208E-16
5.920000E+03	2.849027E-14	4.510651E-16
5.930000E+03	2.795356E-14	4.432628E-16
5.940000E+03	2.740998E-14	4.353253E-16
5.950000E+03	2.686592E-14	4.273547E-16
5.960000E+03	2.632853E-14	4.194655E-16
5.970000E+03	2.580392E-14	4.117568E-16
5.980000E+03	2.529706E-14	4.043098E-16
5.990000E+03	2.481273E-14	3.972033E-16
6.000000E+03	2.435540E-14	3.905117E-16
6.010000E+03	2.392750E-14	3.842769E-16
6.020000E+03	2.353160E-14	3.785439E-16
6.030000E+03	2.316926E-14	3.733413E-16
6.040000E+03	2.284106E-14	3.686820E-16
6.050000E+03	2.254711E-14	3.645721E-16
6.060000E+03	2.228694E-14	3.610077E-16
6.070000E+03	2.205908E-14	3.579695E-16
6.080000E+03	2.186230E-14	3.554412E-16
6.090000E+03	2.169433E-14	3.533903E-16
6.100000E+03	2.155326E-14	3.517898E-16
6.110000E+03	2.143611E-14	3.505948E-16
6.120000E+03	2.134042E-14	3.497693E-16
6.130000E+03	2.126368E-14	3.492757E-16
6.140000E+03	2.120275E-14	3.490664E-16
6.150000E+03	2.115506E-14	3.491022E-16
6.160000E+03	2.111843E-14	3.493509E-16
6.170000E+03	2.109038E-14	3.497744E-16
6.180000E+03	2.106923E-14	3.503477E-16
6.190000E+03	2.105397E-14	3.510573E-16
6.200000E+03	2.104418E-14	3.518985E-16
6.210000E+03	2.103999E-14	3.528769E-16
6.220000E+03	2.104304E-14	3.540226E-16
6.230000E+03	2.105457E-14	3.553600E-16
6.240000E+03	2.107697E-14	3.569331E-16
6.250000E+03	2.111318E-14	3.587959E-16
6.260000E+03	2.116605E-14	3.610017E-16
6.270000E+03	2.123894E-14	3.636133E-16
6.280000E+03	2.133544E-14	3.666987E-16
6.290000E+03	2.145869E-14	3.703161E-16
6.300000E+03	2.161161E-14	3.745200E-16
6.310000E+03	2.179720E-14	3.793671E-16
6.320000E+03	2.201758E-14	3.849008E-16
6.330000E+03	2.227457E-14	3.911592E-16
6.340000E+03	2.256893E-14	3.981636E-16
6.350000E+03	2.290149E-14	4.059361E-16
6.360000E+03	2.327196E-14	4.144799E-16
6.370000E+03	2.367964E-14	4.237911E-16
6.380000E+03	2.412268E-14	4.338447E-16
6.390000E+03	2.459909E-14	4.446128E-16
6.400000E+03	2.510490E-14	4.560310E-16
6.410000E+03	2.563472E-14	4.680070E-16
6.420000E+03	2.617972E-14	4.803838E-16
6.430000E+03	2.672963E-14	4.929745E-16
6.440000E+03	2.727288E-14	5.055636E-16
6.450000E+03	2.779804E-14	5.179341E-16
6.460000E+03	2.829247E-14	5.298412E-16
6.470000E+03	2.874504E-14	5.410640E-16
6.480000E+03	2.914472E-14	5.513786E-16
6.490000E+03	2.948148E-14	5.605760E-16
6.500000E+03	2.974665E-14	5.684687E-16
6.510000E+03	2.993379E-14	5.749090E-16
6.520000E+03	3.003696E-14	5.797565E-16
6.530000E+03	3.005320E-14	5.829263E-16
6.540000E+03	2.998119E-14	5.843645E-16
6.550000E+03	2.982169E-14	5.840580E-16
6.560000E+03	2.957733E-14	5.820312E-16
6.570000E+03	2.925290E-14	5.783524E-16
6.580000E+03	2.885375E-14	5.731034E-16
6.590000E+03	2.838748E-14	5.664142E-16
6.600000E+03	2.786275E-14	5.584382E-16
6.610000E+03	2.728820E-14	5.493335E-16
6.620000E+03	2.667323E-14	5.392759E-16
6.630000E+03	2.602757E-14	5.284530E-16
6.640000E+03	2.536046E-14	5.170455E-16
6.650000E+03	2.468042E-14	5.052231E-16
6.660000E+03	2.399619E-14	4.931636E-16
6.670000E+03	2.331457E-14	4.810075E-16
6.680000E+03	2.264261E-14	4.689034E-16
6.690000E+03	2.198557E-14	4.569648E-16
6.700000E+03	2.134834E-14	4.452989E-16
6.710000E+03	2.073429E-14	4.339828E-16
6.720000E+03	2.014669E-14	4.230926E-16
6.730000E+03	1.958699E-14	4.126668E-16
6.740000E+03	1.905687E-14	4.027488E-16
6.750000E+03	1.855667E-14	3.933540E-16
6.760000E+03	1.808663E-14	3.844951E-16
6.770000E+03	1.764609E-14	3.761663E-16
6.780000E+03	1.723451E-14	3.683629E-16
6.790000E+03	1.685059E-14	3.610644E-16
6.800000E+03	1.649351E-14	3.542592E-16
6.810000E+03	1.616161E-14	3.479180E-16
6.820000E+03	1.585346E-14	3.420150E-16
6.830000E+03	1.556751E-14	3.365221E-16
6.840000E+03	1.530247E-14	3.314154E-16
6.850000E+03	1.505666E-14	3.266627E-16
6.860000E+03	1.482869E-14	3.222373E-16
6.870000E+03	1.461759E-14	3.181213E-16
6.880000E+03	1.442159E-14	3.142790E-16
6.890000E+03	1.424012E-14	3.107005E-16
6.900000E+03	1.407182E-14	3.073579E-16
6.910000E+03	1.391599E-14	3.042384E-16
6.920000E+03	1.377188E-14	3.013271E-16
6.930000E+03	1.363890E-14	2.986123E-16
6.940000E+03	1.351657E-14	2.960849E-16
6.950000E+03	1.340435E-14	2.937343E-16
6.960000E+03	1.330236E-14	2.915640E-16
6.970000E+03	1.321016E-14	2.895647E-16
6.980000E+03	1.312790E-14	2.877408E-16
6.990000E+03	1.305565E-14	2.860939E-16
7.000000E+03	1.299357E-14	2.846279E-16
7.010000E+03	1.294168E-14	2.833434E-16
7.020000E+03	1.290039E-14	2.822490E-16
7.030000E+03	1.286991E-14	2.813491E-16
7.040000E+03	1.285032E-14	2.806449E-16
7.050000E+03	1.284196E-14	2.801430E-16
7.060000E+03	1.284496E-14	2.798456E-16
7.070000E+03	1.285905E-14	2.797453E-16
7.080000E+03	1.288453E-14	2.798473E-16
7.090000E+03	1.292112E-14	2.801439E-16
7.100000E+03	1.296855E-14	2.806277E-16
7.110000E+03	1.302649E-14	2.812890E-16
7.120000E+03	1.309429E-14	2.821123E-16
7.130000E+03	1.317153E-14	2.830860E-16
7.140000E+03	1.325754E-14	2.841933E-16
7.150000E+03	1.335134E-14	2.854110E-16
7.160000E+03	1.345191E-14	2.867148E-16
7.170000E+03	1.355848E-14	2.880861E-16
7.180000E+03	1.367010E-14	2.895023E-16
7.190000E+03	1.378558E-14	2.909363E-16
7.200000E+03	1.390393E-14	2.923652E-16
7.210000E+03	1.402419E-14	2.937669E-16
7.220000E+03	1.414522E-14	2.951161E-16
7.230000E+03	1.426634E-14	2.963973E-16
7.240000E+03	1.438635E-14	2.975848E-16
7.250000E+03	1.450452E-14	2.986621E-16
7.260000E+03	1.462018E-14	2.996157E-16
7.270000E+03	1.473272E-14	3.004327E-16
7.280000E+03	1.484130E-14	3.010957E-16
7.290000E+03	1.494581E-14	3.016035E-16
7.300000E+03	1.504531E-14	3.019376E-16
7.310000E+03	1.513967E-14	3.020963E-16
7.320000E+03	1.522840E-14	3.020713E-16
7.330000E+03	1.531108E-14	3.018557E-16
7.340000E+03	1.538751E-14	3.014475E-16
7.350000E+03	1.545737E-14	3.008425E-16
7.360000E+03	1.552057E-14	3.000418E-16
7.370000E+03	1.557693E-14	2.990441E-16
7.380000E+03	1.562634E-14	2.978504E-16
7.390000E+03	1.566882E-14	2.964644E-16
7.400000E+03	1.570475E-14	2.948961E-16
7.410000E+03	1.573464E-14	2.931589E-16
7.420000E+03	1.575882E-14	2.912617E-16
7.430000E+03	1.577814E-14	2.892239E-16
7.440000E+03	1.579373E-14	2.870687E-16
7.450000E+03	1.580683E-14	2.848216E-16
7.460000E+03	1.581911E-14	2.825144E-16
7.470000E+03	1.583210E-14	2.801760E-16
7.480000E+03	1.584749E-14	2.778367E-16
7.490000E+03	1.586737E-14	2.755335E-16
7.500000E+03	1.589344E-14	2.732944E-16
7.510000E+03	1.592733E-14	2.711459E-16
7.520000E+03	1.597096E-14	2.691178E-16
7.530000E+03	1.602564E-14	2.672285E-16
7.540000E+03	1.609243E-14	2.654917E-16
7.550000E+03	1.617231E-14	2.639190E-16
7.560000E+03	1.626575E-14	2.625127E-16
7.570000E+03	1.637322E-14	2.612755E-16
7.580000E+03	1.649396E-14	2.601902E-16
7.590000E+03	1.662790E-14	2.592510E-16
7.600000E+03	1.677364E-14	2.584323E-16
7.610000E+03	1.692963E-14	2.577069E-16
7.620000E+03	1.709412E-14	2.570465E-16
7.630000E+03	1.726453E-14	2.564124E-16
7.640000E+03	1.743892E-14	2.557770E-16
7.650000E+03	1.761365E-14	2.550905E-16
7.660000E+03	1.778604E-14	2.543196E-16
7.670000E+03	1.795304E-14	2.534290E-16
7.680000E+03	1.811058E-14	2.523713E-16
7.690000E+03	1.825610E-14	2.511235E-16
7.700000E+03	1.838641E-14	2.496565E-16
7.710000E+03	1.849801E-14	2.479399E-16
7.720000E+03	1.858852E-14	2.459604E-16
7.730000E+03	1.865593E-14	2.437121E-16
7.740000E+03	1.869817E-14	2.411893E-16
7.750000E+03	1.871397E-14	2.383983E-16
7.760000E+03	1.870263E-14	2.353528E-16
