#wls	flux	fluxerr
1.600000E+03	2.105791E-15	4.468826E-16
1.640000E+03	1.871825E-15	3.971920E-16
1.680000E+03	1.666596E-15	3.536079E-16
1.720000E+03	1.487572E-15	3.155912E-16
1.760000E+03	1.332235E-15	2.826063E-16
1.800000E+03	1.197500E-15	2.539977E-16
1.840000E+03	1.081682E-15	2.294065E-16
1.880000E+03	9.819868E-16	2.082394E-16
1.920000E+03	8.970504E-16	1.902060E-16
1.960000E+03	8.249394E-16	1.748953E-16
2.000000E+03	7.642717E-16	1.620137E-16
2.040000E+03	7.134426E-16	1.512201E-16
2.080000E+03	6.717029E-16	1.423551E-16
2.120000E+03	6.379271E-16	1.351796E-16
2.160000E+03	6.112810E-16	1.295162E-16
2.200000E+03	5.912682E-16	1.252592E-16
2.240000E+03	5.770848E-16	1.222377E-16
2.280000E+03	5.683429E-16	1.203692E-16
2.320000E+03	5.648197E-16	1.196060E-16
2.360000E+03	5.660698E-16	1.198533E-16
2.400000E+03	5.718927E-16	1.210682E-16
2.440000E+03	5.820322E-16	1.231961E-16
2.480000E+03	5.963528E-16	1.262078E-16
2.520000E+03	6.147366E-16	1.300779E-16
2.560000E+03	6.369804E-16	1.347630E-16
2.600000E+03	6.629781E-16	1.402403E-16
2.640000E+03	6.927264E-16	1.465085E-16
2.680000E+03	7.259202E-16	1.535028E-16
2.720000E+03	7.625556E-16	1.612217E-16
2.760000E+03	8.026441E-16	1.696674E-16
2.800000E+03	8.459927E-16	1.787986E-16
2.840000E+03	8.926441E-16	1.886237E-16
2.880000E+03	9.426742E-16	1.991584E-16
2.920000E+03	9.960790E-16	2.104013E-16
2.960000E+03	1.053014E-15	2.223849E-16
3.000000E+03	1.113815E-15	2.351792E-16
3.010000E+03	1.129760E-15	2.385342E-16
3.020000E+03	1.145749E-15	2.418979E-16
3.030000E+03	1.162167E-15	2.453519E-16
3.040000E+03	1.178886E-15	2.488691E-16
3.050000E+03	1.195780E-15	2.524227E-16
3.060000E+03	1.212978E-15	2.560403E-16
3.070000E+03	1.230484E-15	2.597222E-16
3.080000E+03	1.248299E-15	2.634690E-16
3.090000E+03	1.266559E-15	2.673093E-16
3.100000E+03	1.285001E-15	2.711876E-16
3.110000E+03	1.303760E-15	2.751324E-16
3.120000E+03	1.322974E-15	2.791726E-16
3.130000E+03	1.342512E-15	2.832808E-16
3.140000E+03	1.362377E-15	2.874573E-16
3.150000E+03	1.382708E-15	2.917319E-16
3.160000E+03	1.403374E-15	2.960765E-16
3.170000E+03	1.424378E-15	3.004919E-16
3.180000E+03	1.445862E-15	3.050080E-16
3.190000E+03	1.467828E-15	3.096254E-16
3.200000E+03	1.490147E-15	3.143165E-16
3.210000E+03	1.512957E-15	3.191107E-16
3.220000E+03	1.536266E-15	3.240096E-16
3.230000E+03	1.559938E-15	3.289844E-16
3.240000E+03	1.584259E-15	3.340955E-16
3.250000E+03	1.608951E-15	3.392841E-16
3.260000E+03	1.634303E-15	3.446113E-16
3.270000E+03	1.660176E-15	3.500476E-16
3.280000E+03	1.686577E-15	3.555946E-16
3.290000E+03	1.713508E-15	3.612527E-16
3.300000E+03	1.741118E-15	3.670532E-16
3.310000E+03	1.769266E-15	3.729665E-16
3.320000E+03	1.798103E-15	3.790243E-16
3.330000E+03	1.827485E-15	3.851961E-16
3.340000E+03	1.857561E-15	3.915135E-16
3.350000E+03	1.888336E-15	3.979772E-16
3.360000E+03	1.919662E-15	4.045564E-16
3.370000E+03	1.951838E-15	4.113139E-16
3.380000E+03	1.984716E-15	4.182184E-16
3.390000E+03	2.018297E-15	4.252702E-16
3.400000E+03	2.052582E-15	4.324694E-16
3.410000E+03	2.087717E-15	4.398467E-16
3.420000E+03	2.123551E-15	4.473705E-16
3.430000E+03	2.160233E-15	4.550719E-16
3.440000E+03	2.197606E-15	4.629179E-16
3.450000E+03	2.235818E-15	4.709395E-16
3.460000E+03	2.274862E-15	4.791354E-16
3.470000E+03	2.314732E-15	4.875040E-16
3.480000E+03	2.355570E-15	4.960756E-16
3.490000E+03	2.397061E-15	5.047836E-16
3.500000E+03	2.439501E-15	5.136903E-16
3.510000E+03	2.482724E-15	5.227605E-16
3.520000E+03	2.526867E-15	5.320235E-16
3.530000E+03	2.571918E-15	5.414763E-16
3.540000E+03	2.617701E-15	5.510820E-16
3.550000E+03	2.664509E-15	5.609022E-16
3.560000E+03	2.712011E-15	5.708673E-16
3.570000E+03	2.760494E-15	5.810374E-16
3.580000E+03	2.809779E-15	5.913749E-16
3.590000E+03	2.859995E-15	6.019070E-16
3.600000E+03	2.910958E-15	6.125951E-16
3.610000E+03	2.962795E-15	6.234655E-16
3.620000E+03	3.015473E-15	6.345116E-16
3.630000E+03	3.068959E-15	6.457259E-16
3.640000E+03	3.123217E-15	6.571014E-16
3.650000E+03	3.178209E-15	6.686297E-16
3.660000E+03	3.234052E-15	6.803354E-16
3.670000E+03	3.290547E-15	6.921768E-16
3.680000E+03	3.347807E-15	7.041773E-16
3.690000E+03	3.405785E-15	7.163275E-16
3.700000E+03	3.464435E-15	7.286171E-16
3.710000E+03	3.523703E-15	7.410351E-16
3.720000E+03	3.583537E-15	7.535704E-16
3.730000E+03	3.644039E-15	7.662444E-16
3.740000E+03	3.704993E-15	7.790119E-16
3.750000E+03	3.766499E-15	7.918934E-16
3.760000E+03	3.828334E-15	8.048425E-16
3.770000E+03	3.890749E-15	8.179117E-16
3.780000E+03	3.953364E-15	8.310211E-16
3.790000E+03	4.016423E-15	8.442221E-16
3.800000E+03	4.079700E-15	8.574668E-16
3.810000E+03	4.143121E-15	8.707402E-16
3.820000E+03	4.206771E-15	8.840597E-16
3.830000E+03	4.270416E-15	8.973764E-16
3.840000E+03	4.334294E-15	9.107401E-16
3.850000E+03	4.398017E-15	9.240694E-16
3.860000E+03	4.461513E-15	9.373490E-16
3.870000E+03	4.525011E-15	9.506273E-16
3.880000E+03	4.588284E-15	9.638565E-16
3.890000E+03	4.651261E-15	9.770215E-16
3.900000E+03	4.714021E-15	9.901392E-16
3.910000E+03	4.776197E-15	1.003132E-15
3.920000E+03	4.838025E-15	1.016050E-15
3.930000E+03	4.899296E-15	1.028850E-15
3.940000E+03	4.960104E-15	1.041550E-15
3.950000E+03	5.020251E-15	1.054109E-15
3.960000E+03	5.079695E-15	1.066520E-15
3.970000E+03	5.138548E-15	1.078804E-15
3.980000E+03	5.196633E-15	1.090925E-15
3.990000E+03	5.254073E-15	1.102909E-15
4.000000E+03	5.310714E-15	1.114724E-15
4.010000E+03	5.366550E-15	1.126368E-15
4.020000E+03	5.421587E-15	1.137843E-15
4.030000E+03	5.475841E-15	1.149152E-15
4.040000E+03	5.529473E-15	1.160328E-15
4.050000E+03	5.582238E-15	1.171321E-15
4.060000E+03	5.634319E-15	1.182169E-15
4.070000E+03	5.685630E-15	1.192853E-15
4.080000E+03	5.736370E-15	1.203417E-15
4.090000E+03	5.786475E-15	1.213845E-15
4.100000E+03	5.836023E-15	1.224155E-15
4.110000E+03	5.885104E-15	1.234366E-15
4.120000E+03	5.933813E-15	1.244497E-15
4.130000E+03	5.982000E-15	1.254517E-15
4.140000E+03	6.030032E-15	1.264503E-15
4.150000E+03	6.077775E-15	1.274428E-15
4.160000E+03	6.125358E-15	1.284317E-15
4.170000E+03	6.172913E-15	1.294199E-15
4.180000E+03	6.220579E-15	1.304102E-15
4.190000E+03	6.268377E-15	1.314032E-15
4.200000E+03	6.316456E-15	1.324019E-15
4.210000E+03	6.364848E-15	1.334071E-15
4.220000E+03	6.413708E-15	1.344219E-15
4.230000E+03	6.463076E-15	1.354472E-15
4.240000E+03	6.512996E-15	1.364839E-15
4.250000E+03	6.563746E-15	1.375379E-15
4.260000E+03	6.615257E-15	1.386076E-15
4.270000E+03	6.667686E-15	1.396965E-15
4.280000E+03	6.721193E-15	1.408077E-15
4.290000E+03	6.775705E-15	1.419399E-15
4.300000E+03	6.831372E-15	1.430961E-15
4.310000E+03	6.888228E-15	1.442770E-15
4.320000E+03	6.946298E-15	1.454832E-15
4.330000E+03	7.005713E-15	1.467174E-15
4.340000E+03	7.066369E-15	1.479774E-15
4.350000E+03	7.128375E-15	1.492655E-15
4.360000E+03	7.191716E-15	1.505814E-15
4.370000E+03	7.256362E-15	1.519244E-15
4.380000E+03	7.322269E-15	1.532936E-15
4.390000E+03	7.389374E-15	1.546877E-15
4.400000E+03	7.457705E-15	1.561073E-15
4.410000E+03	7.526946E-15	1.575457E-15
4.420000E+03	7.597194E-15	1.590050E-15
4.430000E+03	7.668304E-15	1.604822E-15
4.440000E+03	7.740115E-15	1.619738E-15
4.450000E+03	7.812439E-15	1.634759E-15
4.460000E+03	7.885179E-15	1.649866E-15
4.470000E+03	7.958210E-15	1.665031E-15
4.480000E+03	8.031287E-15	1.680204E-15
4.490000E+03	8.104141E-15	1.695329E-15
4.500000E+03	8.176596E-15	1.710368E-15
4.510000E+03	8.248563E-15	1.725302E-15
4.520000E+03	8.319734E-15	1.740069E-15
4.530000E+03	8.389891E-15	1.754621E-15
4.540000E+03	8.458703E-15	1.768890E-15
4.550000E+03	8.526160E-15	1.782874E-15
4.560000E+03	8.591818E-15	1.796480E-15
4.570000E+03	8.655556E-15	1.809684E-15
4.580000E+03	8.717156E-15	1.822438E-15
4.590000E+03	8.776404E-15	1.834699E-15
4.600000E+03	8.832994E-15	1.846403E-15
4.610000E+03	8.886845E-15	1.857533E-15
4.620000E+03	8.937787E-15	1.868054E-15
4.630000E+03	8.985562E-15	1.877911E-15
4.640000E+03	9.030145E-15	1.887100E-15
4.650000E+03	9.071535E-15	1.895621E-15
4.660000E+03	9.109431E-15	1.903412E-15
4.670000E+03	9.143984E-15	1.910502E-15
4.680000E+03	9.175045E-15	1.916863E-15
4.690000E+03	9.202808E-15	1.922533E-15
4.700000E+03	9.227380E-15	1.927537E-15
4.710000E+03	9.248677E-15	1.931856E-15
4.720000E+03	9.267055E-15	1.935565E-15
4.730000E+03	9.282675E-15	1.938698E-15
4.740000E+03	9.295919E-15	1.941335E-15
4.750000E+03	9.306972E-15	1.943514E-15
4.760000E+03	9.316547E-15	1.945384E-15
4.770000E+03	9.324841E-15	1.946987E-15
4.780000E+03	9.332468E-15	1.948450E-15
4.790000E+03	9.339221E-15	1.949732E-15
4.800000E+03	9.344998E-15	1.950809E-15
4.810000E+03	9.349603E-15	1.951643E-15
4.820000E+03	9.352642E-15	1.952149E-15
4.830000E+03	9.354342E-15	1.952376E-15
4.840000E+03	9.354421E-15	1.952266E-15
4.850000E+03	9.352907E-15	1.951823E-15
4.860000E+03	9.349933E-15	1.951076E-15
4.870000E+03	9.345632E-15	1.950053E-15
4.880000E+03	9.339940E-15	1.948739E-15
4.890000E+03	9.333193E-15	1.947207E-15
4.900000E+03	9.325330E-15	1.945442E-15
4.910000E+03	9.316592E-15	1.943495E-15
4.920000E+03	9.307120E-15	1.941395E-15
4.930000E+03	9.297154E-15	1.939194E-15
4.940000E+03	9.286742E-15	1.936900E-15
4.950000E+03	9.276224E-15	1.934584E-15
4.960000E+03	9.265646E-15	1.932257E-15
4.970000E+03	9.255350E-15	1.929989E-15
4.980000E+03	9.245288E-15	1.927771E-15
4.990000E+03	9.235891E-15	1.925692E-15
5.000000E+03	9.227109E-15	1.923742E-15
5.010000E+03	9.219271E-15	1.921990E-15
5.020000E+03	9.212511E-15	1.920463E-15
5.030000E+03	9.206953E-15	1.919188E-15
5.040000E+03	9.202815E-15	1.918209E-15
5.050000E+03	9.200112E-15	1.917530E-15
5.060000E+03	9.199135E-15	1.917211E-15
5.070000E+03	9.199878E-15	1.917251E-15
5.080000E+03	9.202421E-15	1.917666E-15
5.090000E+03	9.207014E-15	1.918510E-15
5.100000E+03	9.213520E-15	1.919752E-15
5.110000E+03	9.222159E-15	1.921440E-15
5.120000E+03	9.232950E-15	1.923576E-15
5.130000E+03	9.245798E-15	1.926141E-15
5.140000E+03	9.260780E-15	1.929151E-15
5.150000E+03	9.277862E-15	1.932598E-15
5.160000E+03	9.296993E-15	1.936473E-15
5.170000E+03	9.318102E-15	1.940760E-15
5.180000E+03	9.341199E-15	1.945461E-15
5.190000E+03	9.366085E-15	1.950535E-15
5.200000E+03	9.392644E-15	1.955957E-15
5.210000E+03	9.420836E-15	1.961719E-15
5.220000E+03	9.450513E-15	1.967791E-15
5.230000E+03	9.481421E-15	1.974119E-15
5.240000E+03	9.513485E-15	1.980688E-15
5.250000E+03	9.546425E-15	1.987439E-15
5.260000E+03	9.580148E-15	1.994354E-15
5.270000E+03	9.614456E-15	2.001390E-15
5.280000E+03	9.649144E-15	2.008506E-15
5.290000E+03	9.684004E-15	2.015657E-15
5.300000E+03	9.718725E-15	2.022780E-15
5.310000E+03	9.753288E-15	2.029869E-15
5.320000E+03	9.787283E-15	2.036841E-15
5.330000E+03	9.820691E-15	2.043691E-15
5.340000E+03	9.853201E-15	2.050354E-15
5.350000E+03	9.884603E-15	2.056787E-15
5.360000E+03	9.914792E-15	2.062968E-15
5.370000E+03	9.943570E-15	2.068856E-15
5.380000E+03	9.970743E-15	2.074410E-15
5.390000E+03	9.996127E-15	2.079593E-15
5.400000E+03	1.001965E-14	2.084389E-15
5.410000E+03	1.004125E-14	2.088785E-15
5.420000E+03	1.006066E-14	2.092728E-15
5.430000E+03	1.007797E-14	2.096233E-15
5.440000E+03	1.009305E-14	2.099275E-15
5.450000E+03	1.010588E-14	2.101851E-15
5.460000E+03	1.011628E-14	2.103923E-15
5.470000E+03	1.012449E-14	2.105539E-15
5.480000E+03	1.013025E-14	2.106645E-15
5.490000E+03	1.013372E-14	2.107279E-15
5.500000E+03	1.013490E-14	2.107436E-15
5.510000E+03	1.013359E-14	2.107077E-15
5.520000E+03	1.013002E-14	2.106249E-15
5.530000E+03	1.012414E-14	2.104941E-15
5.540000E+03	1.011601E-14	2.103167E-15
5.550000E+03	1.010561E-14	2.100924E-15
5.560000E+03	1.009296E-14	2.098211E-15
5.570000E+03	1.007825E-14	2.095074E-15
5.580000E+03	1.006142E-14	2.091497E-15
5.590000E+03	1.004272E-14	2.087531E-15
5.600000E+03	1.002218E-14	2.083185E-15
5.610000E+03	9.999855E-15	2.078469E-15
5.620000E+03	9.976003E-15	2.073437E-15
5.630000E+03	9.950675E-15	2.068100E-15
5.640000E+03	9.924021E-15	2.062489E-15
5.650000E+03	9.896086E-15	2.056613E-15
5.660000E+03	9.867102E-15	2.050520E-15
5.670000E+03	9.837097E-15	2.044217E-15
5.680000E+03	9.806277E-15	2.037745E-15
5.690000E+03	9.774642E-15	2.031106E-15
5.700000E+03	9.742275E-15	2.024316E-15
5.710000E+03	9.709244E-15	2.017389E-15
5.720000E+03	9.675693E-15	2.010356E-15
5.730000E+03	9.641563E-15	2.003204E-15
5.740000E+03	9.606874E-15	1.995937E-15
5.750000E+03	9.571636E-15	1.988558E-15
5.760000E+03	9.535843E-15	1.981065E-15
5.770000E+03	9.499484E-15	1.973455E-15
5.780000E+03	9.462535E-15	1.965725E-15
5.790000E+03	9.424968E-15	1.957867E-15
5.800000E+03	9.386847E-15	1.949896E-15
5.810000E+03	9.347951E-15	1.941765E-15
5.820000E+03	9.308346E-15	1.933488E-15
5.830000E+03	9.268092E-15	1.925078E-15
5.840000E+03	9.226986E-15	1.916492E-15
5.850000E+03	9.185191E-15	1.907765E-15
5.860000E+03	9.142522E-15	1.898857E-15
5.870000E+03	9.099070E-15	1.889788E-15
5.880000E+03	9.054848E-15	1.880561E-15
5.890000E+03	9.009879E-15	1.871180E-15
5.900000E+03	8.964198E-15	1.861652E-15
5.910000E+03	8.917849E-15	1.851987E-15
5.920000E+03	8.870799E-15	1.842178E-15
5.930000E+03	8.823200E-15	1.832256E-15
5.940000E+03	8.775039E-15	1.822218E-15
5.950000E+03	8.726483E-15	1.812100E-15
5.960000E+03	8.677529E-15	1.801901E-15
5.970000E+03	8.628353E-15	1.791657E-15
5.980000E+03	8.578962E-15	1.781369E-15
5.990000E+03	8.529448E-15	1.771058E-15
6.000000E+03	8.479904E-15	1.760741E-15
6.010000E+03	8.430419E-15	1.750438E-15
6.020000E+03	8.381081E-15	1.740167E-15
6.030000E+03	8.331886E-15	1.729926E-15
6.040000E+03	8.282997E-15	1.719751E-15
6.050000E+03	8.234398E-15	1.709636E-15
6.060000E+03	8.186232E-15	1.699613E-15
6.070000E+03	8.138395E-15	1.689660E-15
6.080000E+03	8.090931E-15	1.679785E-15
6.090000E+03	8.043960E-15	1.670013E-15
6.100000E+03	7.997430E-15	1.660334E-15
6.110000E+03	7.951366E-15	1.650753E-15
6.120000E+03	7.905779E-15	1.641273E-15
6.130000E+03	7.860597E-15	1.631877E-15
6.140000E+03	7.815897E-15	1.622582E-15
6.150000E+03	7.771667E-15	1.613387E-15
6.160000E+03	7.727814E-15	1.604270E-15
6.170000E+03	7.684315E-15	1.595228E-15
6.180000E+03	7.640987E-15	1.586223E-15
6.190000E+03	7.597872E-15	1.577263E-15
6.200000E+03	7.555002E-15	1.568355E-15
6.210000E+03	7.512403E-15	1.559504E-15
6.220000E+03	7.469945E-15	1.550683E-15
6.230000E+03	7.427637E-15	1.541894E-15
6.240000E+03	7.385410E-15	1.533124E-15
6.250000E+03	7.343261E-15	1.524370E-15
6.260000E+03	7.300958E-15	1.515586E-15
6.270000E+03	7.258487E-15	1.506767E-15
6.280000E+03	7.215823E-15	1.497909E-15
6.290000E+03	7.172788E-15	1.488975E-15
6.300000E+03	7.129419E-15	1.479972E-15
6.310000E+03	7.085454E-15	1.470847E-15
6.320000E+03	7.040845E-15	1.461589E-15
6.330000E+03	6.995468E-15	1.452172E-15
6.340000E+03	6.949194E-15	1.442569E-15
6.350000E+03	6.901893E-15	1.432754E-15
6.360000E+03	6.853505E-15	1.422714E-15
6.370000E+03	6.803763E-15	1.412394E-15
6.380000E+03	6.752679E-15	1.401795E-15
6.390000E+03	6.700065E-15	1.390880E-15
6.400000E+03	6.645877E-15	1.379638E-15
6.410000E+03	6.589875E-15	1.368020E-15
6.420000E+03	6.532039E-15	1.356022E-15
6.430000E+03	6.472359E-15	1.343642E-15
6.440000E+03	6.410575E-15	1.330826E-15
6.450000E+03	6.346844E-15	1.317605E-15
6.460000E+03	6.281009E-15	1.303948E-15
6.470000E+03	6.213070E-15	1.289855E-15
6.480000E+03	6.143046E-15	1.275329E-15
6.490000E+03	6.070979E-15	1.260380E-15
6.500000E+03	5.996934E-15	1.245020E-15
6.510000E+03	5.920995E-15	1.229267E-15
6.520000E+03	5.843210E-15	1.213130E-15
6.530000E+03	5.763830E-15	1.196663E-15
6.540000E+03	5.683003E-15	1.179896E-15
6.550000E+03	5.600831E-15	1.162849E-15
6.560000E+03	5.517672E-15	1.145598E-15
6.570000E+03	5.433600E-15	1.128157E-15
6.580000E+03	5.348932E-15	1.110592E-15
6.590000E+03	5.263876E-15	1.092946E-15
6.600000E+03	5.178647E-15	1.075265E-15
6.610000E+03	5.093518E-15	1.057604E-15
6.620000E+03	5.008650E-15	1.039997E-15
6.630000E+03	4.924421E-15	1.022523E-15
6.640000E+03	4.840879E-15	1.005192E-15
6.650000E+03	4.758388E-15	9.880780E-16
6.660000E+03	4.677090E-15	9.712120E-16
6.670000E+03	4.597221E-15	9.546425E-16
6.680000E+03	4.518904E-15	9.383949E-16
6.690000E+03	4.442401E-15	9.225239E-16
6.700000E+03	4.367762E-15	9.070397E-16
6.710000E+03	4.295266E-15	8.920003E-16
6.720000E+03	4.224889E-15	8.774009E-16
6.730000E+03	4.156882E-15	8.632933E-16
6.740000E+03	4.091288E-15	8.496865E-16
6.750000E+03	4.028138E-15	8.365872E-16
6.760000E+03	3.967636E-15	8.240374E-16
6.770000E+03	3.909696E-15	8.120197E-16
6.780000E+03	3.854493E-15	8.005701E-16
6.790000E+03	3.801965E-15	7.896759E-16
6.800000E+03	3.752172E-15	7.793498E-16
6.810000E+03	3.705123E-15	7.695932E-16
6.820000E+03	3.660858E-15	7.604147E-16
6.830000E+03	3.619279E-15	7.517941E-16
6.840000E+03	3.580457E-15	7.437460E-16
6.850000E+03	3.544363E-15	7.362644E-16
6.860000E+03	3.510927E-15	7.293349E-16
6.870000E+03	3.480113E-15	7.229500E-16
6.880000E+03	3.451964E-15	7.171184E-16
6.890000E+03	3.426350E-15	7.118137E-16
6.900000E+03	3.403229E-15	7.070267E-16
6.910000E+03	3.382628E-15	7.027631E-16
6.920000E+03	3.364454E-15	6.990040E-16
6.930000E+03	3.348614E-15	6.957296E-16
6.940000E+03	3.335130E-15	6.929449E-16
6.950000E+03	3.323864E-15	6.906209E-16
6.960000E+03	3.314798E-15	6.887541E-16
6.970000E+03	3.307911E-15	6.873403E-16
6.980000E+03	3.303063E-15	6.863502E-16
6.990000E+03	3.300271E-15	6.857876E-16
7.000000E+03	3.299394E-15	6.856230E-16
7.010000E+03	3.300409E-15	6.858516E-16
7.020000E+03	3.303293E-15	6.864690E-16
7.030000E+03	3.307903E-15	6.874452E-16
7.040000E+03	3.314212E-15	6.887747E-16
7.050000E+03	3.322158E-15	6.904447E-16
7.060000E+03	3.331633E-15	6.924327E-16
7.070000E+03	3.342613E-15	6.947338E-16
7.080000E+03	3.355032E-15	6.973342E-16
7.090000E+03	3.368822E-15	7.002200E-16
7.100000E+03	3.383874E-15	7.033684E-16
7.110000E+03	3.400163E-15	7.067743E-16
7.120000E+03	3.417533E-15	7.104052E-16
7.130000E+03	3.436045E-15	7.142741E-16
7.140000E+03	3.455500E-15	7.183392E-16
7.150000E+03	3.475869E-15	7.225948E-16
7.160000E+03	3.497128E-15	7.270359E-16
7.170000E+03	3.519119E-15	7.316295E-16
7.180000E+03	3.541813E-15	7.363698E-16
7.190000E+03	3.565141E-15	7.412423E-16
7.200000E+03	3.588987E-15	7.462232E-16
7.210000E+03	3.613282E-15	7.512977E-16
7.220000E+03	3.638001E-15	7.564610E-16
7.230000E+03	3.663028E-15	7.616889E-16
7.240000E+03	3.688299E-15	7.669679E-16
7.250000E+03	3.713745E-15	7.722838E-16
7.260000E+03	3.739299E-15	7.776230E-16
7.270000E+03	3.764899E-15	7.829721E-16
7.280000E+03	3.790435E-15	7.883083E-16
7.290000E+03	3.815894E-15	7.936292E-16
7.300000E+03	3.841217E-15	7.989223E-16
7.310000E+03	3.866248E-15	8.041553E-16
7.320000E+03	3.891084E-15	8.093481E-16
7.330000E+03	3.915519E-15	8.144582E-16
7.340000E+03	3.939655E-15	8.195068E-16
7.350000E+03	3.963345E-15	8.244630E-16
7.360000E+03	3.986540E-15	8.293168E-16
7.370000E+03	4.009301E-15	8.340810E-16
7.380000E+03	4.031484E-15	8.387252E-16
7.390000E+03	4.053098E-15	8.432519E-16
7.400000E+03	4.074215E-15	8.476755E-16
7.410000E+03	4.094635E-15	8.519549E-16
7.420000E+03	4.114488E-15	8.561166E-16
7.430000E+03	4.133684E-15	8.601422E-16
7.440000E+03	4.152134E-15	8.640133E-16
7.450000E+03	4.169860E-15	8.677342E-16
7.460000E+03	4.186718E-15	8.712749E-16
7.470000E+03	4.202674E-15	8.746283E-16
7.480000E+03	4.217690E-15	8.777867E-16
7.490000E+03	4.231674E-15	8.807309E-16
7.500000E+03	4.244588E-15	8.834527E-16
7.510000E+03	4.256391E-15	8.859437E-16
7.520000E+03	4.267040E-15	8.881951E-16
7.530000E+03	4.276437E-15	8.901862E-16
7.540000E+03	4.284593E-15	8.919196E-16
7.550000E+03	4.291462E-15	8.933853E-16
7.560000E+03	4.296938E-15	8.945616E-16
7.570000E+03	4.301029E-15	8.954498E-16
7.580000E+03	4.303627E-15	8.960276E-16
7.590000E+03	4.304737E-15	8.962958E-16
7.600000E+03	4.304307E-15	8.962436E-16
7.610000E+03	4.302284E-15	8.958602E-16
7.620000E+03	4.298558E-15	8.951222E-16
7.630000E+03	4.293193E-15	8.940433E-16
7.640000E+03	4.286022E-15	8.925884E-16
7.650000E+03	4.277113E-15	8.907718E-16
7.660000E+03	4.266362E-15	8.885717E-16
7.670000E+03	4.253726E-15	8.859791E-16
7.680000E+03	4.239222E-15	8.829974E-16
7.690000E+03	4.222760E-15	8.796080E-16
7.700000E+03	4.204364E-15	8.758158E-16
7.710000E+03	4.183957E-15	8.716044E-16
7.720000E+03	4.161575E-15	8.669818E-16
7.730000E+03	4.137207E-15	8.619451E-16
7.740000E+03	4.110792E-15	8.564820E-16
7.750000E+03	4.082391E-15	8.506047E-16
7.760000E+03	4.052013E-15	8.443154E-16
