#wls	flux	fluxerr
1.600000E+03	7.414393E-17	3.122839E-17
1.640000E+03	7.429271E-17	3.129105E-17
1.680000E+03	7.447635E-17	3.136840E-17
1.720000E+03	7.470966E-17	3.146667E-17
1.760000E+03	7.496734E-17	3.157519E-17
1.800000E+03	7.526415E-17	3.170021E-17
1.840000E+03	7.560150E-17	3.184230E-17
1.880000E+03	7.599447E-17	3.200781E-17
1.920000E+03	7.641728E-17	3.218589E-17
1.960000E+03	7.689871E-17	3.238866E-17
2.000000E+03	7.742658E-17	3.261099E-17
2.040000E+03	7.798841E-17	3.284763E-17
2.080000E+03	7.861337E-17	3.311085E-17
2.120000E+03	7.928910E-17	3.339546E-17
2.160000E+03	8.001704E-17	3.370206E-17
2.200000E+03	8.079859E-17	3.403124E-17
2.240000E+03	8.163521E-17	3.438361E-17
2.280000E+03	8.252833E-17	3.475977E-17
2.320000E+03	8.347926E-17	3.516029E-17
2.360000E+03	8.450448E-17	3.559210E-17
2.400000E+03	8.557538E-17	3.604315E-17
2.440000E+03	8.672358E-17	3.652676E-17
2.480000E+03	8.791967E-17	3.703053E-17
2.520000E+03	8.919595E-17	3.756808E-17
2.560000E+03	9.052202E-17	3.812660E-17
2.600000E+03	9.193091E-17	3.872001E-17
2.640000E+03	9.340776E-17	3.934204E-17
2.680000E+03	9.495343E-17	3.999305E-17
2.720000E+03	9.656867E-17	4.067337E-17
2.760000E+03	9.825409E-17	4.138324E-17
2.800000E+03	1.000100E-16	4.212281E-17
2.840000E+03	1.018368E-16	4.289222E-17
2.880000E+03	1.037343E-16	4.369144E-17
2.920000E+03	1.057024E-16	4.452037E-17
2.960000E+03	1.077595E-16	4.538678E-17
3.000000E+03	1.098670E-16	4.627445E-17
3.010000E+03	1.104046E-16	4.650087E-17
3.020000E+03	1.109464E-16	4.672905E-17
3.030000E+03	1.115120E-16	4.696728E-17
3.040000E+03	1.120623E-16	4.719905E-17
3.050000E+03	1.126167E-16	4.743256E-17
3.060000E+03	1.131752E-16	4.766780E-17
3.070000E+03	1.137378E-16	4.790476E-17
3.080000E+03	1.143045E-16	4.814343E-17
3.090000E+03	1.148751E-16	4.838379E-17
3.100000E+03	1.154498E-16	4.862584E-17
3.110000E+03	1.160488E-16	4.887812E-17
3.120000E+03	1.166314E-16	4.912352E-17
3.130000E+03	1.172179E-16	4.937054E-17
3.140000E+03	1.178082E-16	4.961916E-17
3.150000E+03	1.184023E-16	4.986938E-17
3.160000E+03	1.190001E-16	5.012116E-17
3.170000E+03	1.196016E-16	5.037450E-17
3.180000E+03	1.202277E-16	5.063822E-17
3.190000E+03	1.208365E-16	5.089463E-17
3.200000E+03	1.214488E-16	5.115251E-17
3.210000E+03	1.220645E-16	5.141183E-17
3.220000E+03	1.226836E-16	5.167259E-17
3.230000E+03	1.233060E-16	5.193474E-17
3.240000E+03	1.239534E-16	5.220740E-17
3.250000E+03	1.245823E-16	5.247231E-17
3.260000E+03	1.252144E-16	5.273853E-17
3.270000E+03	1.258494E-16	5.300601E-17
3.280000E+03	1.264875E-16	5.327476E-17
3.290000E+03	1.271284E-16	5.354471E-17
3.300000E+03	1.277945E-16	5.382524E-17
3.310000E+03	1.284410E-16	5.409754E-17
3.320000E+03	1.290902E-16	5.437096E-17
3.330000E+03	1.297418E-16	5.464543E-17
3.340000E+03	1.303959E-16	5.492091E-17
3.350000E+03	1.310752E-16	5.520704E-17
3.360000E+03	1.317340E-16	5.548450E-17
3.370000E+03	1.323948E-16	5.576283E-17
3.380000E+03	1.330577E-16	5.604203E-17
3.390000E+03	1.337225E-16	5.632201E-17
3.400000E+03	1.344125E-16	5.661264E-17
3.410000E+03	1.350808E-16	5.689412E-17
3.420000E+03	1.357507E-16	5.717626E-17
3.430000E+03	1.364220E-16	5.745901E-17
3.440000E+03	1.370945E-16	5.774227E-17
3.450000E+03	1.377923E-16	5.803616E-17
3.460000E+03	1.384671E-16	5.832039E-17
3.470000E+03	1.391428E-16	5.860500E-17
3.480000E+03	1.398193E-16	5.888991E-17
3.490000E+03	1.405208E-16	5.918539E-17
3.500000E+03	1.411984E-16	5.947078E-17
3.510000E+03	1.418763E-16	5.975628E-17
3.520000E+03	1.425542E-16	6.004184E-17
3.530000E+03	1.432322E-16	6.032737E-17
3.540000E+03	1.439350E-16	6.062337E-17
3.550000E+03	1.446124E-16	6.090871E-17
3.560000E+03	1.452893E-16	6.119380E-17
3.570000E+03	1.459654E-16	6.147858E-17
3.580000E+03	1.466661E-16	6.177370E-17
3.590000E+03	1.473404E-16	6.205768E-17
3.600000E+03	1.480133E-16	6.234109E-17
3.610000E+03	1.486847E-16	6.262388E-17
3.620000E+03	1.493544E-16	6.290594E-17
3.630000E+03	1.500482E-16	6.319819E-17
3.640000E+03	1.507140E-16	6.347861E-17
3.650000E+03	1.513774E-16	6.375803E-17
3.660000E+03	1.520383E-16	6.403640E-17
3.670000E+03	1.527229E-16	6.432474E-17
3.680000E+03	1.533782E-16	6.460071E-17
3.690000E+03	1.540302E-16	6.487533E-17
3.700000E+03	1.546787E-16	6.514847E-17
3.710000E+03	1.553504E-16	6.543140E-17
3.720000E+03	1.559914E-16	6.570136E-17
3.730000E+03	1.566281E-16	6.596955E-17
3.740000E+03	1.572604E-16	6.623587E-17
3.750000E+03	1.578880E-16	6.650018E-17
3.760000E+03	1.585381E-16	6.677399E-17
3.770000E+03	1.591555E-16	6.703405E-17
3.780000E+03	1.597675E-16	6.729180E-17
3.790000E+03	1.603736E-16	6.754710E-17
3.800000E+03	1.610016E-16	6.781158E-17
3.810000E+03	1.615954E-16	6.806170E-17
3.820000E+03	1.621826E-16	6.830901E-17
3.830000E+03	1.627628E-16	6.855340E-17
3.840000E+03	1.633359E-16	6.879476E-17
3.850000E+03	1.639297E-16	6.904487E-17
3.860000E+03	1.644875E-16	6.927979E-17
3.870000E+03	1.650371E-16	6.951130E-17
3.880000E+03	1.655783E-16	6.973923E-17
3.890000E+03	1.661394E-16	6.997556E-17
3.900000E+03	1.666629E-16	7.019603E-17
3.910000E+03	1.671769E-16	7.041254E-17
3.920000E+03	1.676812E-16	7.062493E-17
3.930000E+03	1.681755E-16	7.083312E-17
3.940000E+03	1.686884E-16	7.104917E-17
3.950000E+03	1.691617E-16	7.124850E-17
3.960000E+03	1.696238E-16	7.144315E-17
3.970000E+03	1.700747E-16	7.163303E-17
3.980000E+03	1.705137E-16	7.181796E-17
3.990000E+03	1.709701E-16	7.201020E-17
4.000000E+03	1.713848E-16	7.218485E-17
4.010000E+03	1.717867E-16	7.235411E-17
4.020000E+03	1.721754E-16	7.251785E-17
4.030000E+03	1.725508E-16	7.267595E-17
4.040000E+03	1.729421E-16	7.284074E-17
4.050000E+03	1.732895E-16	7.298707E-17
4.060000E+03	1.736223E-16	7.312726E-17
4.070000E+03	1.739404E-16	7.326122E-17
4.080000E+03	1.742432E-16	7.338875E-17
4.090000E+03	1.745604E-16	7.352238E-17
4.100000E+03	1.748318E-16	7.363669E-17
4.110000E+03	1.750870E-16	7.374414E-17
4.120000E+03	1.753255E-16	7.384459E-17
4.130000E+03	1.755470E-16	7.393790E-17
4.140000E+03	1.757513E-16	7.402396E-17
4.150000E+03	1.759682E-16	7.411530E-17
4.160000E+03	1.761369E-16	7.418636E-17
4.170000E+03	1.762873E-16	7.424972E-17
4.180000E+03	1.764192E-16	7.430526E-17
4.190000E+03	1.765321E-16	7.435282E-17
4.200000E+03	1.766258E-16	7.439229E-17
4.210000E+03	1.767000E-16	7.442355E-17
4.220000E+03	1.767848E-16	7.445924E-17
4.230000E+03	1.768191E-16	7.447368E-17
4.240000E+03	1.768330E-16	7.447956E-17
4.250000E+03	1.768264E-16	7.447678E-17
4.260000E+03	1.767990E-16	7.446522E-17
4.270000E+03	1.767506E-16	7.444482E-17
4.280000E+03	1.766809E-16	7.441547E-17
4.290000E+03	1.766200E-16	7.438984E-17
4.300000E+03	1.765074E-16	7.434241E-17
4.310000E+03	1.763731E-16	7.428584E-17
4.320000E+03	1.762170E-16	7.422011E-17
4.330000E+03	1.760392E-16	7.414520E-17
4.340000E+03	1.758395E-16	7.406108E-17
4.350000E+03	1.756179E-16	7.396774E-17
4.360000E+03	1.753745E-16	7.386524E-17
4.370000E+03	1.751094E-16	7.375358E-17
4.380000E+03	1.748227E-16	7.363282E-17
4.390000E+03	1.745443E-16	7.351557E-17
4.400000E+03	1.742147E-16	7.337675E-17
4.410000E+03	1.738640E-16	7.322903E-17
4.420000E+03	1.734924E-16	7.307253E-17
4.430000E+03	1.731002E-16	7.290732E-17
4.440000E+03	1.726876E-16	7.273355E-17
4.450000E+03	1.722550E-16	7.255136E-17
4.460000E+03	1.718027E-16	7.236085E-17
4.470000E+03	1.713311E-16	7.216221E-17
4.480000E+03	1.708404E-16	7.195556E-17
4.490000E+03	1.703312E-16	7.174108E-17
4.500000E+03	1.698038E-16	7.151892E-17
4.510000E+03	1.692585E-16	7.128926E-17
4.520000E+03	1.686958E-16	7.105227E-17
4.530000E+03	1.681161E-16	7.080810E-17
4.540000E+03	1.675198E-16	7.055697E-17
4.550000E+03	1.669074E-16	7.029904E-17
4.560000E+03	1.662793E-16	7.003449E-17
4.570000E+03	1.656360E-16	6.976351E-17
4.580000E+03	1.649777E-16	6.948627E-17
4.590000E+03	1.643051E-16	6.920295E-17
4.600000E+03	1.636184E-16	6.891375E-17
4.610000E+03	1.629183E-16	6.861886E-17
4.620000E+03	1.622050E-16	6.831843E-17
4.630000E+03	1.614790E-16	6.801265E-17
4.640000E+03	1.607408E-16	6.770173E-17
4.650000E+03	1.599908E-16	6.738583E-17
4.660000E+03	1.592293E-16	6.706512E-17
4.670000E+03	1.584569E-16	6.673979E-17
4.680000E+03	1.576739E-16	6.641000E-17
4.690000E+03	1.568808E-16	6.607595E-17
4.700000E+03	1.560779E-16	6.573780E-17
4.710000E+03	1.552657E-16	6.539569E-17
4.720000E+03	1.544445E-16	6.504983E-17
4.730000E+03	1.535887E-16	6.468938E-17
4.740000E+03	1.527510E-16	6.433654E-17
4.750000E+03	1.519055E-16	6.398043E-17
4.760000E+03	1.510526E-16	6.362122E-17
4.770000E+03	1.501927E-16	6.325903E-17
4.780000E+03	1.493262E-16	6.289405E-17
4.790000E+03	1.484534E-16	6.252643E-17
4.800000E+03	1.475746E-16	6.215631E-17
4.810000E+03	1.466902E-16	6.178382E-17
4.820000E+03	1.457758E-16	6.139870E-17
4.830000E+03	1.448815E-16	6.102201E-17
4.840000E+03	1.439825E-16	6.064339E-17
4.850000E+03	1.430794E-16	6.026299E-17
4.860000E+03	1.421723E-16	5.988094E-17
4.870000E+03	1.412616E-16	5.949737E-17
4.880000E+03	1.403237E-16	5.910235E-17
4.890000E+03	1.394069E-16	5.871619E-17
4.900000E+03	1.384873E-16	5.832888E-17
4.910000E+03	1.375653E-16	5.794054E-17
4.920000E+03	1.366412E-16	5.755132E-17
4.930000E+03	1.356922E-16	5.715160E-17
4.940000E+03	1.347648E-16	5.676099E-17
4.950000E+03	1.338360E-16	5.636980E-17
4.960000E+03	1.329061E-16	5.597817E-17
4.970000E+03	1.319755E-16	5.558619E-17
4.980000E+03	1.310221E-16	5.518462E-17
4.990000E+03	1.300906E-16	5.479232E-17
5.000000E+03	1.291591E-16	5.439997E-17
5.010000E+03	1.282277E-16	5.400768E-17
5.020000E+03	1.272751E-16	5.360646E-17
5.030000E+03	1.263448E-16	5.321461E-17
5.040000E+03	1.254152E-16	5.282310E-17
5.050000E+03	1.244866E-16	5.243199E-17
5.060000E+03	1.235383E-16	5.203256E-17
5.070000E+03	1.226124E-16	5.164259E-17
5.080000E+03	1.216880E-16	5.125326E-17
5.090000E+03	1.207449E-16	5.085605E-17
5.100000E+03	1.198244E-16	5.046833E-17
5.110000E+03	1.189059E-16	5.008147E-17
5.120000E+03	1.179697E-16	4.968717E-17
5.130000E+03	1.170560E-16	4.930233E-17
5.140000E+03	1.161449E-16	4.891858E-17
5.150000E+03	1.152170E-16	4.852775E-17
5.160000E+03	1.143116E-16	4.814642E-17
5.170000E+03	1.134092E-16	4.776633E-17
5.180000E+03	1.124909E-16	4.737954E-17
5.190000E+03	1.115950E-16	4.700221E-17
5.200000E+03	1.107025E-16	4.662630E-17
5.210000E+03	1.097949E-16	4.624405E-17
5.220000E+03	1.089097E-16	4.587121E-17
5.230000E+03	1.080100E-16	4.549225E-17
5.240000E+03	1.071325E-16	4.512266E-17
5.250000E+03	1.062589E-16	4.475473E-17
5.260000E+03	1.053716E-16	4.438100E-17
5.270000E+03	1.045063E-16	4.401658E-17
5.280000E+03	1.036278E-16	4.364656E-17
5.290000E+03	1.027713E-16	4.328580E-17
5.300000E+03	1.019020E-16	4.291965E-17
5.310000E+03	1.010545E-16	4.256270E-17
5.320000E+03	1.001946E-16	4.220053E-17
5.330000E+03	9.935641E-17	4.184750E-17
5.340000E+03	9.852293E-17	4.149645E-17
5.350000E+03	9.767770E-17	4.114045E-17
5.360000E+03	9.685395E-17	4.079350E-17
5.370000E+03	9.601890E-17	4.044179E-17
5.380000E+03	9.520513E-17	4.009904E-17
5.390000E+03	9.438040E-17	3.975167E-17
5.400000E+03	9.357676E-17	3.941319E-17
5.410000E+03	9.276261E-17	3.907028E-17
5.420000E+03	9.196933E-17	3.873617E-17
5.430000E+03	9.116587E-17	3.839776E-17
5.440000E+03	9.036788E-17	3.806166E-17
5.450000E+03	8.959053E-17	3.773425E-17
5.460000E+03	8.880345E-17	3.740274E-17
5.470000E+03	8.803680E-17	3.707984E-17
5.480000E+03	8.726080E-17	3.675300E-17
5.490000E+03	8.650497E-17	3.643465E-17
5.500000E+03	8.574005E-17	3.611248E-17
5.510000E+03	8.499517E-17	3.579875E-17
5.520000E+03	8.424146E-17	3.548130E-17
5.530000E+03	8.349348E-17	3.516626E-17
5.540000E+03	8.276512E-17	3.485948E-17
5.550000E+03	8.202843E-17	3.454920E-17
5.560000E+03	8.131114E-17	3.424709E-17
5.570000E+03	8.058575E-17	3.394156E-17
5.580000E+03	7.986608E-17	3.363845E-17
5.590000E+03	7.916552E-17	3.334338E-17
5.600000E+03	7.845723E-17	3.304506E-17
5.610000E+03	7.775463E-17	3.274914E-17
5.620000E+03	7.707075E-17	3.246110E-17
5.630000E+03	7.637953E-17	3.216997E-17
5.640000E+03	7.569400E-17	3.188123E-17
5.650000E+03	7.502684E-17	3.160023E-17
5.660000E+03	7.435264E-17	3.131627E-17
5.670000E+03	7.368409E-17	3.103468E-17
5.680000E+03	7.303353E-17	3.076068E-17
5.690000E+03	7.237627E-17	3.048385E-17
5.700000E+03	7.172466E-17	3.020940E-17
5.710000E+03	7.109061E-17	2.994235E-17
5.720000E+03	7.045012E-17	2.967258E-17
5.730000E+03	6.981527E-17	2.940519E-17
5.740000E+03	6.918598E-17	2.914015E-17
5.750000E+03	6.857380E-17	2.888231E-17
5.760000E+03	6.795555E-17	2.862191E-17
5.770000E+03	6.734278E-17	2.836382E-17
5.780000E+03	6.673557E-17	2.810807E-17
5.790000E+03	6.614491E-17	2.785929E-17
5.800000E+03	6.554852E-17	2.760810E-17
5.810000E+03	6.495753E-17	2.735918E-17
5.820000E+03	6.437196E-17	2.711255E-17
5.830000E+03	6.380253E-17	2.687271E-17
5.840000E+03	6.322758E-17	2.663055E-17
5.850000E+03	6.265798E-17	2.639064E-17
5.860000E+03	6.209364E-17	2.615295E-17
5.870000E+03	6.153461E-17	2.591750E-17
5.880000E+03	6.099107E-17	2.568857E-17
5.890000E+03	6.044240E-17	2.545747E-17
5.900000E+03	5.989886E-17	2.522854E-17
5.910000E+03	5.936050E-17	2.500179E-17
5.920000E+03	5.882724E-17	2.477719E-17
5.930000E+03	5.829907E-17	2.455473E-17
5.940000E+03	5.778567E-17	2.433850E-17
5.950000E+03	5.726748E-17	2.412024E-17
5.960000E+03	5.675429E-17	2.390410E-17
5.970000E+03	5.624603E-17	2.369002E-17
5.980000E+03	5.574269E-17	2.347803E-17
5.990000E+03	5.524424E-17	2.326808E-17
6.000000E+03	5.475067E-17	2.306020E-17
6.010000E+03	5.427102E-17	2.285818E-17
6.020000E+03	5.378691E-17	2.265428E-17
6.030000E+03	5.330760E-17	2.245240E-17
6.040000E+03	5.283296E-17	2.225249E-17
6.050000E+03	5.236299E-17	2.205454E-17
6.060000E+03	5.189769E-17	2.185856E-17
6.070000E+03	5.143702E-17	2.166454E-17
6.080000E+03	5.098084E-17	2.147240E-17
6.090000E+03	5.052925E-17	2.128220E-17
6.100000E+03	5.008216E-17	2.109389E-17
6.110000E+03	4.963949E-17	2.090744E-17
6.120000E+03	4.920127E-17	2.072287E-17
6.130000E+03	4.876747E-17	2.054016E-17
6.140000E+03	4.833795E-17	2.035925E-17
6.150000E+03	4.792088E-17	2.018359E-17
6.160000E+03	4.749989E-17	2.000628E-17
6.170000E+03	4.708320E-17	1.983077E-17
6.180000E+03	4.667071E-17	1.965703E-17
6.190000E+03	4.626237E-17	1.948505E-17
6.200000E+03	4.585820E-17	1.931482E-17
6.210000E+03	4.545810E-17	1.914630E-17
6.220000E+03	4.506208E-17	1.897951E-17
6.230000E+03	4.467009E-17	1.881441E-17
6.240000E+03	4.428205E-17	1.865097E-17
6.250000E+03	4.389805E-17	1.848923E-17
6.260000E+03	4.351790E-17	1.832912E-17
6.270000E+03	4.313440E-17	1.816759E-17
6.280000E+03	4.276207E-17	1.801077E-17
6.290000E+03	4.239357E-17	1.785557E-17
6.300000E+03	4.202884E-17	1.770195E-17
6.310000E+03	4.166786E-17	1.754991E-17
6.320000E+03	4.131058E-17	1.739943E-17
6.330000E+03	4.095698E-17	1.725050E-17
6.340000E+03	4.060702E-17	1.710310E-17
6.350000E+03	4.026067E-17	1.695722E-17
6.360000E+03	3.991789E-17	1.681285E-17
6.370000E+03	3.957865E-17	1.666996E-17
6.380000E+03	3.924291E-17	1.652855E-17
6.390000E+03	3.891064E-17	1.638861E-17
6.400000E+03	3.858181E-17	1.625011E-17
6.410000E+03	3.825638E-17	1.611304E-17
6.420000E+03	3.792794E-17	1.597471E-17
6.430000E+03	3.760928E-17	1.584049E-17
6.440000E+03	3.729392E-17	1.570767E-17
6.450000E+03	3.698182E-17	1.557622E-17
6.460000E+03	3.667298E-17	1.544613E-17
6.470000E+03	3.636733E-17	1.531740E-17
6.480000E+03	3.606487E-17	1.519001E-17
6.490000E+03	3.576554E-17	1.506394E-17
6.500000E+03	3.546337E-17	1.493666E-17
6.510000E+03	3.517028E-17	1.481322E-17
6.520000E+03	3.488025E-17	1.469106E-17
6.530000E+03	3.459324E-17	1.457018E-17
6.540000E+03	3.430922E-17	1.445055E-17
6.550000E+03	3.402815E-17	1.433217E-17
6.560000E+03	3.374434E-17	1.421263E-17
6.570000E+03	3.346914E-17	1.409673E-17
6.580000E+03	3.319682E-17	1.398203E-17
6.590000E+03	3.292733E-17	1.386852E-17
6.600000E+03	3.266066E-17	1.375620E-17
6.610000E+03	3.239131E-17	1.364276E-17
6.620000E+03	3.213021E-17	1.353279E-17
6.630000E+03	3.187183E-17	1.342396E-17
6.640000E+03	3.161615E-17	1.331627E-17
6.650000E+03	3.136314E-17	1.320971E-17
6.660000E+03	3.110752E-17	1.310205E-17
6.670000E+03	3.085980E-17	1.299771E-17
6.680000E+03	3.061466E-17	1.289446E-17
6.690000E+03	3.037208E-17	1.279229E-17
6.700000E+03	3.012696E-17	1.268904E-17
6.710000E+03	2.988945E-17	1.258901E-17
6.720000E+03	2.965442E-17	1.249002E-17
6.730000E+03	2.942184E-17	1.239206E-17
6.740000E+03	2.918678E-17	1.229305E-17
6.750000E+03	2.895906E-17	1.219714E-17
6.760000E+03	2.873372E-17	1.210223E-17
6.770000E+03	2.851073E-17	1.200831E-17
6.780000E+03	2.828530E-17	1.191337E-17
6.790000E+03	2.806697E-17	1.182141E-17
6.800000E+03	2.785091E-17	1.173041E-17
6.810000E+03	2.763711E-17	1.164036E-17
6.820000E+03	2.742091E-17	1.154930E-17
6.830000E+03	2.721158E-17	1.146113E-17
6.840000E+03	2.700442E-17	1.137388E-17
6.850000E+03	2.679491E-17	1.128563E-17
6.860000E+03	2.659207E-17	1.120020E-17
6.870000E+03	2.639135E-17	1.111566E-17
6.880000E+03	2.618830E-17	1.103014E-17
6.890000E+03	2.599177E-17	1.094736E-17
6.900000E+03	2.579728E-17	1.086545E-17
6.910000E+03	2.560050E-17	1.078257E-17
6.920000E+03	2.541007E-17	1.070236E-17
6.930000E+03	2.522161E-17	1.062298E-17
6.940000E+03	2.503090E-17	1.054266E-17
6.950000E+03	2.484637E-17	1.046494E-17
6.960000E+03	2.466376E-17	1.038802E-17
6.970000E+03	2.447892E-17	1.031017E-17
6.980000E+03	2.430011E-17	1.023486E-17
6.990000E+03	2.412315E-17	1.016033E-17
7.000000E+03	2.394400E-17	1.008487E-17
7.010000E+03	2.377073E-17	1.001189E-17
7.020000E+03	2.359528E-17	9.937995E-18
7.030000E+03	2.342561E-17	9.866534E-18
7.040000E+03	2.325770E-17	9.795813E-18
7.050000E+03	2.308764E-17	9.724186E-18
7.060000E+03	2.292322E-17	9.654936E-18
7.070000E+03	2.276051E-17	9.586404E-18
7.080000E+03	2.259567E-17	9.516976E-18
7.090000E+03	2.243634E-17	9.449866E-18
7.100000E+03	2.227490E-17	9.381870E-18
7.110000E+03	2.211887E-17	9.316156E-18
7.120000E+03	2.196076E-17	9.249560E-18
7.130000E+03	2.180798E-17	9.185209E-18
7.140000E+03	2.165677E-17	9.121526E-18
7.150000E+03	2.150351E-17	9.056973E-18
7.160000E+03	2.135545E-17	8.994611E-18
7.170000E+03	2.120534E-17	8.931387E-18
7.180000E+03	2.106035E-17	8.870319E-18
7.190000E+03	2.091333E-17	8.808397E-18
7.200000E+03	2.077135E-17	8.748597E-18
7.210000E+03	2.063084E-17	8.689415E-18
7.220000E+03	2.048832E-17	8.629390E-18
7.230000E+03	2.035073E-17	8.571437E-18
7.240000E+03	2.021114E-17	8.512647E-18
7.250000E+03	2.007641E-17	8.455899E-18
7.260000E+03	1.993970E-17	8.398318E-18
7.270000E+03	1.980776E-17	8.342748E-18
7.280000E+03	1.967386E-17	8.286352E-18
7.290000E+03	1.954467E-17	8.231937E-18
7.300000E+03	1.941353E-17	8.176704E-18
7.310000E+03	1.928702E-17	8.123419E-18
7.320000E+03	1.915858E-17	8.069323E-18
7.330000E+03	1.903470E-17	8.017146E-18
7.340000E+03	1.890891E-17	7.964166E-18
7.350000E+03	1.878761E-17	7.913075E-18
7.360000E+03	1.866441E-17	7.861186E-18
7.370000E+03	1.854564E-17	7.811161E-18
7.380000E+03	1.842499E-17	7.760344E-18
7.390000E+03	1.830869E-17	7.711361E-18
7.400000E+03	1.819053E-17	7.661593E-18
7.410000E+03	1.807666E-17	7.613633E-18
7.420000E+03	1.796094E-17	7.564895E-18
7.430000E+03	1.784644E-17	7.516666E-18
7.440000E+03	1.773613E-17	7.470208E-18
7.450000E+03	1.762400E-17	7.422979E-18
7.460000E+03	1.751601E-17	7.377493E-18
7.470000E+03	1.740620E-17	7.331244E-18
7.480000E+03	1.730048E-17	7.286715E-18
7.490000E+03	1.719295E-17	7.241428E-18
7.500000E+03	1.708945E-17	7.197836E-18
7.510000E+03	1.698417E-17	7.153491E-18
7.520000E+03	1.687999E-17	7.109614E-18
7.530000E+03	1.677976E-17	7.067397E-18
7.540000E+03	1.667776E-17	7.024438E-18
7.550000E+03	1.657966E-17	6.983116E-18
7.560000E+03	1.647979E-17	6.941054E-18
7.570000E+03	1.638099E-17	6.899441E-18
7.580000E+03	1.628600E-17	6.859432E-18
7.590000E+03	1.618928E-17	6.818694E-18
7.600000E+03	1.609631E-17	6.779537E-18
7.610000E+03	1.600162E-17	6.739657E-18
7.620000E+03	1.590795E-17	6.700204E-18
7.630000E+03	1.581797E-17	6.662304E-18
7.640000E+03	1.572628E-17	6.623686E-18
7.650000E+03	1.563558E-17	6.585485E-18
7.660000E+03	1.554850E-17	6.548807E-18
7.670000E+03	1.545973E-17	6.511419E-18
7.680000E+03	1.537453E-17	6.475534E-18
7.690000E+03	1.528766E-17	6.438947E-18
7.700000E+03	1.520174E-17	6.402757E-18
7.710000E+03	1.511932E-17	6.368042E-18
7.720000E+03	1.503525E-17	6.332633E-18
7.730000E+03	1.495210E-17	6.297611E-18
7.740000E+03	1.487238E-17	6.264035E-18
7.750000E+03	1.479103E-17	6.229772E-18
7.760000E+03	1.471058E-17	6.195888E-18
