#wls	flux	fluxerr
1.598715E+03	1.567783E-04	1.237254E-05
1.638682E+03	1.905813E-04	1.450246E-05
1.678650E+03	2.323828E-04	1.702563E-05
1.718618E+03	2.841321E-04	2.001137E-05
1.758586E+03	3.482755E-04	2.354106E-05
1.798554E+03	4.275712E-04	2.768966E-05
1.838522E+03	5.239191E-04	3.244969E-05
1.878490E+03	6.367888E-04	3.765163E-05
1.918458E+03	7.605870E-04	4.285109E-05
1.958425E+03	8.825314E-04	4.728620E-05
1.998393E+03	9.812376E-04	4.990334E-05
2.038361E+03	1.029088E-03	4.958221E-05
2.078329E+03	1.004158E-03	4.574938E-05
2.118297E+03	9.153357E-04	3.936554E-05
2.158265E+03	8.099714E-04	3.283124E-05
2.198233E+03	7.292841E-04	2.782637E-05
2.238200E+03	6.913147E-04	2.481007E-05
2.278168E+03	7.004587E-04	2.363952E-05
2.318136E+03	7.616676E-04	2.418695E-05
2.358104E+03	8.825939E-04	2.641344E-05
2.398072E+03	1.073758E-03	3.036567E-05
2.438040E+03	1.360659E-03	3.647995E-05
2.478008E+03	1.795601E-03	4.580150E-05
2.517976E+03	2.437569E-03	5.937602E-05
2.557943E+03	3.262431E-03	7.618252E-05
2.597911E+03	4.025415E-03	9.046888E-05
2.637879E+03	4.351474E-03	9.450256E-05
2.677847E+03	4.358961E-03	9.181470E-05
2.717815E+03	4.469518E-03	9.156056E-05
2.757783E+03	4.874187E-03	9.728782E-05
2.797751E+03	5.587802E-03	1.087813E-04
2.837718E+03	6.555410E-03	1.245310E-04
2.877686E+03	7.650087E-03	1.418411E-04
2.917654E+03	8.637427E-03	1.563543E-04
2.957622E+03	9.268870E-03	1.639367E-04
2.997590E+03	9.475529E-03	1.640155E-04
3.007582E+03	9.476193E-03	1.632086E-04
3.017574E+03	9.463262E-03	1.622049E-04
3.027566E+03	9.440473E-03	1.610747E-04
3.037558E+03	9.411799E-03	1.598906E-04
3.047550E+03	9.380228E-03	1.587074E-04
3.057542E+03	9.348516E-03	1.575751E-04
3.067534E+03	9.319083E-03	1.565346E-04
3.077526E+03	9.293361E-03	1.556057E-04
3.087518E+03	9.272400E-03	1.548010E-04
3.097510E+03	9.257050E-03	1.541296E-04
3.107502E+03	9.246845E-03	1.535792E-04
3.117494E+03	9.241420E-03	1.531390E-04
3.127486E+03	9.239642E-03	1.527862E-04
3.137477E+03	9.240828E-03	1.525055E-04
3.147469E+03	9.243049E-03	1.522615E-04
3.157461E+03	9.245109E-03	1.520314E-04
3.167453E+03	9.245953E-03	1.517949E-04
3.177445E+03	9.244666E-03	1.515344E-04
3.187437E+03	9.240454E-03	1.512347E-04
3.197429E+03	9.233989E-03	1.509048E-04
3.207421E+03	9.225775E-03	1.505514E-04
3.217413E+03	9.217579E-03	1.502017E-04
3.227405E+03	9.211560E-03	1.498898E-04
3.237397E+03	9.210856E-03	1.496656E-04
3.247389E+03	9.218966E-03	1.495851E-04
3.257381E+03	9.239771E-03	1.497105E-04
3.267373E+03	9.277219E-03	1.501050E-04
3.277365E+03	9.335677E-03	1.508389E-04
3.287357E+03	9.419366E-03	1.519800E-04
3.297349E+03	9.532330E-03	1.535933E-04
3.307341E+03	9.678920E-03	1.557491E-04
3.317333E+03	9.863182E-03	1.585133E-04
3.327325E+03	1.008946E-02	1.619566E-04
3.337317E+03	1.036169E-02	1.661446E-04
3.347309E+03	1.068383E-02	1.711435E-04
3.357301E+03	1.105955E-02	1.770167E-04
3.367293E+03	1.149208E-02	1.838222E-04
3.377285E+03	1.198388E-02	1.916079E-04
3.387277E+03	1.253613E-02	2.004039E-04
3.397269E+03	1.314871E-02	2.102229E-04
3.407261E+03	1.381857E-02	2.210343E-04
3.417253E+03	1.454020E-02	2.327722E-04
3.427244E+03	1.530309E-02	2.452949E-04
3.437236E+03	1.609209E-02	2.583895E-04
3.447228E+03	1.688653E-02	2.717574E-04
3.457220E+03	1.766062E-02	2.850171E-04
3.467212E+03	1.838638E-02	2.977499E-04
3.477204E+03	1.903948E-02	3.095899E-04
3.487196E+03	1.961021E-02	3.204020E-04
3.497188E+03	2.009954E-02	3.302200E-04
3.507180E+03	2.051355E-02	3.391574E-04
3.517172E+03	2.086169E-02	3.473816E-04
3.527164E+03	2.115326E-02	3.550566E-04
3.537156E+03	2.139866E-02	3.623645E-04
3.547148E+03	2.160710E-02	3.694688E-04
3.557140E+03	2.178696E-02	3.765179E-04
3.567132E+03	2.194500E-02	3.836178E-04
3.577124E+03	2.208709E-02	3.908534E-04
3.587116E+03	2.221838E-02	3.982986E-04
3.597108E+03	2.234140E-02	4.059825E-04
3.607100E+03	2.245774E-02	4.139171E-04
3.617092E+03	2.256612E-02	4.220614E-04
3.627084E+03	2.266307E-02	4.303302E-04
3.637076E+03	2.274405E-02	4.386125E-04
3.647068E+03	2.280405E-02	4.467815E-04
3.657060E+03	2.283754E-02	4.546928E-04
3.667052E+03	2.284048E-02	4.622234E-04
3.677044E+03	2.280932E-02	4.692540E-04
3.687036E+03	2.274331E-02	4.757177E-04
3.697028E+03	2.264405E-02	4.815956E-04
3.707020E+03	2.251642E-02	4.869411E-04
3.717012E+03	2.236789E-02	4.918711E-04
3.727003E+03	2.220933E-02	4.965893E-04
3.736995E+03	2.205404E-02	5.013718E-04
3.746987E+03	2.191738E-02	5.065623E-04
3.756979E+03	2.181528E-02	5.125425E-04
3.766971E+03	2.176395E-02	5.197271E-04
3.776963E+03	2.177871E-02	5.285347E-04
3.786955E+03	2.187341E-02	5.393739E-04
3.796947E+03	2.206041E-02	5.526385E-04
3.806939E+03	2.234802E-02	5.686401E-04
3.816931E+03	2.274143E-02	5.876230E-04
3.826923E+03	2.324080E-02	6.097086E-04
3.836915E+03	2.384009E-02	6.348539E-04
3.846907E+03	2.452781E-02	6.628579E-04
3.856899E+03	2.528662E-02	6.933412E-04
3.866891E+03	2.609335E-02	7.257334E-04
3.876883E+03	2.692026E-02	7.592983E-04
3.886875E+03	2.773626E-02	7.931598E-04
3.896867E+03	2.850951E-02	8.263702E-04
3.906859E+03	2.920888E-02	8.579531E-04
3.916851E+03	2.980635E-02	8.869770E-04
3.926843E+03	3.027898E-02	9.126208E-04
3.936835E+03	3.061046E-02	9.342336E-04
3.946827E+03	3.079247E-02	9.513871E-04
3.956819E+03	3.082422E-02	9.638793E-04
3.966811E+03	3.071206E-02	9.717369E-04
3.976803E+03	3.046962E-02	9.752307E-04
3.986795E+03	3.011467E-02	9.747900E-04
3.996787E+03	2.966879E-02	9.709976E-04
4.006779E+03	2.915492E-02	9.645145E-04
4.016771E+03	2.859587E-02	9.560329E-04
4.026762E+03	2.801404E-02	9.462644E-04
4.036754E+03	2.742899E-02	9.358571E-04
4.046746E+03	2.685823E-02	9.254150E-04
4.056738E+03	2.631620E-02	9.154591E-04
4.066730E+03	2.581445E-02	9.064281E-04
4.076722E+03	2.536178E-02	8.986776E-04
4.086714E+03	2.496455E-02	8.924869E-04
4.096706E+03	2.462615E-02	8.880337E-04
4.106698E+03	2.434772E-02	8.854168E-04
4.116690E+03	2.412833E-02	8.846593E-04
4.126682E+03	2.396376E-02	8.856596E-04
4.136674E+03	2.384812E-02	8.882471E-04
4.146666E+03	2.377323E-02	8.921569E-04
4.156658E+03	2.372910E-02	8.970447E-04
4.166650E+03	2.370441E-02	9.025038E-04
4.176642E+03	2.368699E-02	9.080825E-04
4.186634E+03	2.366447E-02	9.133072E-04
4.196626E+03	2.362477E-02	9.177034E-04
4.206618E+03	2.355672E-02	9.208207E-04
4.216610E+03	2.345048E-02	9.222511E-04
4.226602E+03	2.329774E-02	9.216390E-04
4.236594E+03	2.309237E-02	9.187105E-04
4.246586E+03	2.283062E-02	9.132822E-04
4.256578E+03	2.251084E-02	9.052552E-04
4.266570E+03	2.213331E-02	8.946092E-04
4.276562E+03	2.170137E-02	8.814510E-04
4.286554E+03	2.122051E-02	8.659800E-04
4.296546E+03	2.069852E-02	8.484969E-04
4.306538E+03	2.014545E-02	8.294019E-04
4.316530E+03	1.957306E-02	8.091763E-04
4.326521E+03	1.899528E-02	7.883994E-04
4.336513E+03	1.842655E-02	7.676811E-04
4.346505E+03	1.788264E-02	7.476972E-04
4.356497E+03	1.737907E-02	7.291211E-04
4.366489E+03	1.693107E-02	7.126204E-04
4.376481E+03	1.655265E-02	6.988186E-04
4.386473E+03	1.625675E-02	6.882980E-04
4.396465E+03	1.605474E-02	6.815773E-04
4.406457E+03	1.595691E-02	6.791306E-04
4.416449E+03	1.597191E-02	6.813621E-04
4.426441E+03	1.610715E-02	6.886215E-04
4.436433E+03	1.636919E-02	7.012203E-04
4.446425E+03	1.676312E-02	7.194036E-04
4.456417E+03	1.729280E-02	7.433588E-04
4.466409E+03	1.796042E-02	7.731982E-04
4.476401E+03	1.876527E-02	8.089019E-04
4.486393E+03	1.970377E-02	8.503222E-04
4.496385E+03	2.076785E-02	8.971081E-04
4.506377E+03	2.194373E-02	9.486579E-04
4.516369E+03	2.321134E-02	1.004089E-03
4.526361E+03	2.454335E-02	1.062198E-03
4.536353E+03	2.590512E-02	1.121461E-03
4.546345E+03	2.725523E-02	1.180057E-03
4.556337E+03	2.854698E-02	1.235934E-03
4.566329E+03	2.973123E-02	1.286938E-03
4.576321E+03	3.076088E-02	1.331010E-03
4.586313E+03	3.159294E-02	1.366277E-03
4.596305E+03	3.219388E-02	1.391286E-03
4.606297E+03	3.254312E-02	1.405157E-03
4.616289E+03	3.263401E-02	1.407626E-03
4.626280E+03	3.247347E-02	1.399025E-03
4.636272E+03	3.208345E-02	1.380342E-03
4.646264E+03	3.149426E-02	1.352928E-03
4.656256E+03	3.074522E-02	1.318522E-03
4.666248E+03	2.987825E-02	1.278971E-03
4.676240E+03	2.893547E-02	1.236121E-03
4.686232E+03	2.795641E-02	1.191698E-03
4.696224E+03	2.697616E-02	1.147225E-03
4.706216E+03	2.602470E-02	1.103995E-03
4.716208E+03	2.512529E-02	1.063004E-03
4.726200E+03	2.429556E-02	1.024998E-03
4.736192E+03	2.354816E-02	9.905011E-04
4.746184E+03	2.289042E-02	9.598058E-04
4.756176E+03	2.232701E-02	9.330859E-04
4.766168E+03	2.185819E-02	9.103253E-04
4.776160E+03	2.148290E-02	8.914494E-04
4.786152E+03	2.119782E-02	8.762875E-04
4.796144E+03	2.099783E-02	8.645924E-04
4.806136E+03	2.087741E-02	8.561023E-04
4.816128E+03	2.083025E-02	8.505228E-04
4.826120E+03	2.084867E-02	8.475059E-04
4.836112E+03	2.092488E-02	8.467028E-04
4.846104E+03	2.105004E-02	8.477259E-04
4.856096E+03	2.121407E-02	8.501432E-04
4.866088E+03	2.140605E-02	8.534959E-04
4.876080E+03	2.161419E-02	8.572987E-04
4.886072E+03	2.182547E-02	8.610269E-04
4.896064E+03	2.202701E-02	8.641726E-04
4.906056E+03	2.220551E-02	8.662234E-04
4.916047E+03	2.234949E-02	8.667495E-04
4.926039E+03	2.244913E-02	8.653966E-04
4.936031E+03	2.249709E-02	8.619164E-04
4.946023E+03	2.248973E-02	8.562098E-04
4.956015E+03	2.242669E-02	8.483058E-04
4.966007E+03	2.231185E-02	8.383964E-04
4.975999E+03	2.215227E-02	8.267878E-04
4.985991E+03	2.195828E-02	8.139025E-04
4.995983E+03	2.174238E-02	8.002329E-04
5.005975E+03	2.151915E-02	7.863350E-04
5.015967E+03	2.130284E-02	7.727371E-04
5.025959E+03	2.110788E-02	7.599599E-04
5.035951E+03	2.094821E-02	7.484891E-04
5.045943E+03	2.083637E-02	7.387462E-04
5.055935E+03	2.078406E-02	7.311081E-04
5.065927E+03	2.080206E-02	7.259061E-04
5.075919E+03	2.090037E-02	7.234313E-04
5.085911E+03	2.108812E-02	7.239326E-04
5.095903E+03	2.137386E-02	7.276294E-04
5.105895E+03	2.176548E-02	7.347073E-04
5.115887E+03	2.226883E-02	7.452740E-04
5.125879E+03	2.288858E-02	7.593923E-04
5.135871E+03	2.362536E-02	7.769858E-04
5.145863E+03	2.447702E-02	7.978877E-04
5.155855E+03	2.543581E-02	8.217537E-04
5.165847E+03	2.648849E-02	8.480730E-04
5.175839E+03	2.761550E-02	8.761515E-04
5.185831E+03	2.879055E-02	9.051084E-04
5.195823E+03	2.998191E-02	9.339243E-04
5.205815E+03	3.115317E-02	9.614752E-04
5.215806E+03	3.226678E-02	9.866446E-04
5.225798E+03	3.328427E-02	1.008333E-03
5.235790E+03	3.417248E-02	1.025642E-03
5.245782E+03	3.490470E-02	1.037906E-03
5.255774E+03	3.546337E-02	1.044753E-03
5.265766E+03	3.584062E-02	1.046116E-03
5.275758E+03	3.604006E-02	1.042263E-03
5.285750E+03	3.607380E-02	1.033698E-03
5.295742E+03	3.596144E-02	1.021123E-03
5.305734E+03	3.572680E-02	1.005332E-03
5.315726E+03	3.539614E-02	9.871624E-04
5.325718E+03	3.499381E-02	9.673655E-04
5.335710E+03	3.454222E-02	9.466144E-04
5.345702E+03	3.405950E-02	9.254410E-04
5.355694E+03	3.356000E-02	9.042567E-04
5.365686E+03	3.305270E-02	8.833149E-04
5.375678E+03	3.254499E-02	8.628170E-04
5.385670E+03	3.204181E-02	8.428930E-04
5.395662E+03	3.154763E-02	8.236561E-04
5.405654E+03	3.106707E-02	8.052181E-04
5.415646E+03	3.060640E-02	7.877298E-04
5.425638E+03	3.017166E-02	7.713218E-04
5.435630E+03	2.976391E-02	7.559832E-04
5.445622E+03	2.937635E-02	7.415062E-04
5.455614E+03	2.899798E-02	7.275823E-04
5.465606E+03	2.861875E-02	7.139355E-04
5.475598E+03	2.823177E-02	7.003736E-04
5.485590E+03	2.783081E-02	6.867254E-04
5.495582E+03	2.741231E-02	6.728889E-04
5.505574E+03	2.697321E-02	6.587761E-04
5.515565E+03	2.651217E-02	6.443430E-04
5.525557E+03	2.602716E-02	6.295297E-04
5.535549E+03	2.551775E-02	6.143167E-04
5.545541E+03	2.498389E-02	5.986944E-04
5.555533E+03	2.442765E-02	5.827043E-04
5.565525E+03	2.385171E-02	5.664031E-04
5.575517E+03	2.326108E-02	5.499020E-04
5.585509E+03	2.266240E-02	5.333496E-04
5.595501E+03	2.206466E-02	5.169486E-04
5.605493E+03	2.147765E-02	5.009178E-04
5.615485E+03	2.091293E-02	4.855136E-04
5.625477E+03	2.038286E-02	4.710080E-04
5.635469E+03	1.990007E-02	4.576740E-04
5.645461E+03	1.947739E-02	4.457854E-04
5.655453E+03	1.912705E-02	4.355959E-04
5.665445E+03	1.886109E-02	4.273498E-04
5.675437E+03	1.869062E-02	4.212649E-04
5.685429E+03	1.862561E-02	4.175260E-04
5.695421E+03	1.867479E-02	4.162853E-04
5.705413E+03	1.884556E-02	4.176585E-04
5.715405E+03	1.914419E-02	4.217304E-04
5.725397E+03	1.957435E-02	4.285228E-04
5.735389E+03	2.013833E-02	4.380228E-04
5.745381E+03	2.083514E-02	4.501420E-04
5.755373E+03	2.165999E-02	4.647074E-04
5.765365E+03	2.260391E-02	4.814568E-04
5.775357E+03	2.365233E-02	5.000122E-04
5.785349E+03	2.478378E-02	5.198570E-04
5.795341E+03	2.597011E-02	5.403486E-04
5.805333E+03	2.717706E-02	5.607356E-04
5.815324E+03	2.836347E-02	5.801500E-04
5.825316E+03	2.948545E-02	5.976988E-04
5.835308E+03	3.049809E-02	6.125040E-04
5.845300E+03	3.135945E-02	6.237848E-04
5.855292E+03	3.203481E-02	6.309400E-04
5.865284E+03	3.249870E-02	6.335822E-04
5.875276E+03	3.273940E-02	6.316169E-04
5.885268E+03	3.275712E-02	6.251930E-04
5.895260E+03	3.256434E-02	6.146979E-04
5.905252E+03	3.218298E-02	6.006888E-04
5.915244E+03	3.164078E-02	5.838170E-04
5.925236E+03	3.096825E-02	5.647631E-04
5.935228E+03	3.019397E-02	5.441484E-04
5.945220E+03	2.934398E-02	5.225253E-04
5.955212E+03	2.843989E-02	5.003453E-04
5.965204E+03	2.749780E-02	4.779450E-04
5.975196E+03	2.652836E-02	4.555521E-04
5.985188E+03	2.553948E-02	4.333374E-04
5.995180E+03	2.453488E-02	4.113920E-04
6.005172E+03	2.351876E-02	3.898094E-04
6.015164E+03	2.249378E-02	3.686509E-04
6.025156E+03	2.146501E-02	3.480111E-04
6.035148E+03	2.044044E-02	3.280235E-04
6.045140E+03	1.943080E-02	3.088552E-04
6.055132E+03	1.844988E-02	2.907109E-04
6.065124E+03	1.751327E-02	2.738118E-04
6.075116E+03	1.663876E-02	2.584037E-04
6.085108E+03	1.584333E-02	2.447125E-04
6.095100E+03	1.514429E-02	2.329660E-04
6.105092E+03	1.455724E-02	2.233672E-04
6.115083E+03	1.409629E-02	2.161038E-04
6.125075E+03	1.377423E-02	2.113562E-04
6.135067E+03	1.360255E-02	2.093035E-04
6.145059E+03	1.359095E-02	2.101205E-04
6.155051E+03	1.374717E-02	2.139809E-04
6.165043E+03	1.407635E-02	2.210500E-04
6.175035E+03	1.457914E-02	2.314509E-04
6.185027E+03	1.525112E-02	2.452444E-04
6.195019E+03	1.608005E-02	2.623870E-04
6.205011E+03	1.704377E-02	2.826846E-04
6.215003E+03	1.810860E-02	3.057457E-04
6.224995E+03	1.923043E-02	3.309723E-04
6.234987E+03	2.035878E-02	3.576022E-04
6.244979E+03	2.144648E-02	3.848588E-04
6.254971E+03	2.245980E-02	4.121291E-04
6.264963E+03	2.337534E-02	4.389255E-04
6.274955E+03	2.417923E-02	4.648861E-04
6.284947E+03	2.486510E-02	4.897533E-04
6.294939E+03	2.543289E-02	5.133689E-04
6.304931E+03	2.588767E-02	5.356651E-04
6.314923E+03	2.623785E-02	5.566416E-04
6.324915E+03	2.649324E-02	5.763355E-04
6.334907E+03	2.666542E-02	5.948354E-04
6.344899E+03	2.676612E-02	6.122526E-04
6.354891E+03	2.680592E-02	6.286927E-04
6.364883E+03	2.679554E-02	6.442859E-04
6.374875E+03	2.674364E-02	6.591340E-04
6.384867E+03	2.665727E-02	6.733185E-04
6.394859E+03	2.654185E-02	6.868946E-04
6.404851E+03	2.640181E-02	6.999053E-04
6.414842E+03	2.623883E-02	7.123294E-04
6.424834E+03	2.605427E-02	7.241421E-04
6.434826E+03	2.584749E-02	7.352652E-04
6.444818E+03	2.561685E-02	7.455905E-04
6.454810E+03	2.536045E-02	7.549977E-04
6.464802E+03	2.507565E-02	7.633400E-04
6.474794E+03	2.476023E-02	7.704759E-04
6.484786E+03	2.441109E-02	7.762304E-04
6.494778E+03	2.402726E-02	7.804901E-04
6.504770E+03	2.360783E-02	7.831403E-04
6.514762E+03	2.315254E-02	7.840863E-04
6.524754E+03	2.266301E-02	7.832975E-04
6.534746E+03	2.214157E-02	7.807734E-04
6.544738E+03	2.159167E-02	7.765604E-04
6.554730E+03	2.101770E-02	7.707496E-04
6.564722E+03	2.042514E-02	7.634850E-04
6.574714E+03	1.981927E-02	7.549202E-04
6.584706E+03	1.920603E-02	7.452488E-04
6.594698E+03	1.859165E-02	7.346941E-04
6.604690E+03	1.798180E-02	7.234746E-04
6.614682E+03	1.738145E-02	7.117980E-04
6.624674E+03	1.679566E-02	6.998892E-04
6.634666E+03	1.622823E-02	6.879367E-04
6.644658E+03	1.568310E-02	6.761451E-04
6.654650E+03	1.516245E-02	6.646548E-04
6.664642E+03	1.466834E-02	6.536064E-04
6.674634E+03	1.420245E-02	6.431312E-04
6.684626E+03	1.376561E-02	6.333259E-04
6.694618E+03	1.335795E-02	6.242578E-04
6.704609E+03	1.297944E-02	6.159866E-04
6.714601E+03	1.262989E-02	6.085646E-04
6.724593E+03	1.230837E-02	6.020083E-04
6.734585E+03	1.201418E-02	5.963427E-04
6.744577E+03	1.174578E-02	5.915483E-04
6.754569E+03	1.150234E-02	5.876389E-04
6.764561E+03	1.128212E-02	5.845761E-04
6.774553E+03	1.108406E-02	5.823559E-04
6.784545E+03	1.090629E-02	5.809247E-04
6.794537E+03	1.074746E-02	5.802540E-04
6.804529E+03	1.060601E-02	5.802990E-04
6.814521E+03	1.048017E-02	5.809988E-04
6.824513E+03	1.036857E-02	5.823099E-04
6.834505E+03	1.026948E-02	5.841643E-04
6.844497E+03	1.018160E-02	5.865139E-04
6.854489E+03	1.010314E-02	5.892776E-04
6.864481E+03	1.003314E-02	5.924198E-04
6.874473E+03	9.970222E-03	5.958751E-04
6.884465E+03	9.913299E-03	5.995932E-04
6.894457E+03	9.861255E-03	6.035182E-04
6.904449E+03	9.813682E-03	6.076352E-04
6.914441E+03	9.769384E-03	6.118785E-04
6.924433E+03	9.728432E-03	6.162593E-04
6.934425E+03	9.690096E-03	6.207377E-04
6.944417E+03	9.654135E-03	6.253036E-04
6.954409E+03	9.620594E-03	6.299646E-04
6.964401E+03	9.589221E-03	6.347090E-04
6.974393E+03	9.559996E-03	6.395398E-04
6.984385E+03	9.532922E-03	6.444616E-04
6.994377E+03	9.507999E-03	6.494787E-04
7.004368E+03	9.485194E-03	6.545932E-04
7.014360E+03	9.464231E-03	6.597900E-04
7.024352E+03	9.445325E-03	6.650881E-04
7.034344E+03	9.427676E-03	6.704346E-04
7.044336E+03	9.411516E-03	6.758486E-04
7.054328E+03	9.395876E-03	6.812628E-04
7.064320E+03	9.380657E-03	6.866709E-04
7.074312E+03	9.365157E-03	6.920217E-04
7.084304E+03	9.348844E-03	6.972747E-04
7.094296E+03	9.331393E-03	7.024037E-04
7.104288E+03	9.311962E-03	7.073422E-04
7.114280E+03	9.290353E-03	7.120708E-04
7.124272E+03	9.266081E-03	7.165476E-04
7.134264E+03	9.239142E-03	7.207666E-04
7.144256E+03	9.209442E-03	7.247148E-04
7.154248E+03	9.176785E-03	7.283711E-04
7.164240E+03	9.141404E-03	7.317482E-04
7.174232E+03	9.103009E-03	7.348171E-04
7.184224E+03	9.062053E-03	7.376087E-04
7.194216E+03	9.018411E-03	7.401075E-04
7.204208E+03	8.971916E-03	7.422945E-04
7.214200E+03	8.922711E-03	7.441760E-04
7.224192E+03	8.870699E-03	7.457385E-04
7.234184E+03	8.815549E-03	7.469486E-04
7.244176E+03	8.757074E-03	7.477842E-04
7.254168E+03	8.695071E-03	7.482215E-04
7.264160E+03	8.629342E-03	7.482366E-04
7.274152E+03	8.559714E-03	7.478075E-04
7.284144E+03	8.485723E-03	7.468856E-04
7.294136E+03	8.407686E-03	7.454912E-04
7.304127E+03	8.325483E-03	7.436059E-04
7.314119E+03	8.239114E-03	7.412220E-04
7.324111E+03	8.149041E-03	7.383737E-04
7.334103E+03	8.055334E-03	7.350608E-04
7.344095E+03	7.958525E-03	7.313256E-04
7.354087E+03	7.859257E-03	7.272222E-04
7.364079E+03	7.758096E-03	7.227991E-04
7.374071E+03	7.656015E-03	7.181447E-04
7.384063E+03	7.553389E-03	7.132930E-04
7.394055E+03	7.451426E-03	7.083587E-04
7.404047E+03	7.350701E-03	7.033985E-04
7.414039E+03	7.252246E-03	6.985147E-04
7.424031E+03	7.156732E-03	6.937773E-04
7.434023E+03	7.064928E-03	6.892673E-04
7.444015E+03	6.977675E-03	6.850748E-04
7.454007E+03	6.895419E-03	6.812528E-04
7.463999E+03	6.819098E-03	6.779044E-04
7.473991E+03	6.748799E-03	6.750495E-04
7.483983E+03	6.685084E-03	6.727565E-04
7.493975E+03	6.627968E-03	6.710390E-04
7.503967E+03	6.577928E-03	6.699582E-04
7.513959E+03	6.534767E-03	6.695069E-04
7.523951E+03	6.498334E-03	6.696824E-04
7.533943E+03	6.468539E-03	6.704878E-04
7.543935E+03	6.445083E-03	6.719038E-04
7.553927E+03	6.427891E-03	6.739341E-04
7.563919E+03	6.416283E-03	6.765184E-04
7.573911E+03	6.409975E-03	6.796365E-04
7.583903E+03	6.408674E-03	6.832665E-04
7.593895E+03	6.411802E-03	6.873553E-04
7.603886E+03	6.419082E-03	6.918809E-04
7.613878E+03	6.429972E-03	6.967916E-04
7.623870E+03	6.444390E-03	7.020847E-04
7.633862E+03	6.461710E-03	7.076978E-04
7.643854E+03	6.481919E-03	7.136343E-04
7.653846E+03	6.504449E-03	7.198360E-04
7.663838E+03	6.529344E-03	7.263118E-04
7.673830E+03	6.556068E-03	7.330056E-04
7.683822E+03	6.584686E-03	7.399276E-04
7.693814E+03	6.614807E-03	7.470367E-04
7.703806E+03	6.646165E-03	7.543050E-04
7.713798E+03	6.678463E-03	7.617005E-04
7.723790E+03	6.711359E-03	7.691854E-04
7.733782E+03	6.744460E-03	7.767152E-04
7.743774E+03	6.777169E-03	7.842208E-04
7.753766E+03	6.809309E-03	7.916810E-04
