#wls	flux	fluxerr
1.598715E+03	1.649602E-04	1.409974E-05
1.638682E+03	1.958110E-04	1.618118E-05
1.678650E+03	2.329431E-04	1.858672E-05
1.718618E+03	2.776246E-04	2.136028E-05
1.758586E+03	3.312776E-04	2.454328E-05
1.798554E+03	3.951836E-04	2.815181E-05
1.838522E+03	4.695768E-04	3.211724E-05
1.878490E+03	5.527287E-04	3.624181E-05
1.918458E+03	6.392432E-04	4.012007E-05
1.958425E+03	7.189637E-04	4.312480E-05
1.998393E+03	7.769788E-04	4.447184E-05
2.038361E+03	7.968263E-04	4.345525E-05
2.078329E+03	7.683091E-04	3.986534E-05
2.118297E+03	7.000243E-04	3.451307E-05
2.158265E+03	6.214591E-04	2.908048E-05
2.198233E+03	5.589287E-04	2.480173E-05
2.238200E+03	5.260086E-04	2.212192E-05
2.278168E+03	5.284575E-04	2.106246E-05
2.318136E+03	5.698596E-04	2.153520E-05
2.358104E+03	6.556025E-04	2.351903E-05
2.398072E+03	7.958747E-04	2.715370E-05
2.438040E+03	1.008729E-03	3.280114E-05
2.478008E+03	1.320596E-03	4.102025E-05
2.517976E+03	1.752403E-03	5.211948E-05
2.557943E+03	2.280078E-03	6.508858E-05
2.597911E+03	2.787354E-03	7.656088E-05
2.637879E+03	3.113842E-03	8.250111E-05
2.677847E+03	3.266370E-03	8.368322E-05
2.717815E+03	3.404068E-03	8.448363E-05
2.757783E+03	3.644265E-03	8.770472E-05
2.797751E+03	4.021153E-03	9.386386E-05
2.837718E+03	4.509650E-03	1.020507E-04
2.877686E+03	5.039730E-03	1.104449E-04
2.917654E+03	5.508953E-03	1.167442E-04
2.957622E+03	5.824694E-03	1.191637E-04
2.997590E+03	5.957457E-03	1.174725E-04
3.007582E+03	5.966447E-03	1.165460E-04
3.017574E+03	5.967874E-03	1.154719E-04
3.027566E+03	5.963031E-03	1.142804E-04
3.037558E+03	5.953475E-03	1.130060E-04
3.047550E+03	5.940294E-03	1.116730E-04
3.057542E+03	5.924613E-03	1.103061E-04
3.067534E+03	5.907553E-03	1.089288E-04
3.077526E+03	5.889829E-03	1.075565E-04
3.087518E+03	5.872126E-03	1.062038E-04
3.097510E+03	5.855216E-03	1.048860E-04
3.107502E+03	5.839238E-03	1.036071E-04
3.117494E+03	5.824578E-03	1.023752E-04
3.127486E+03	5.811293E-03	1.011921E-04
3.137477E+03	5.799848E-03	1.000650E-04
3.147469E+03	5.789994E-03	9.898589E-05
3.157461E+03	5.781972E-03	9.795545E-05
3.167453E+03	5.776103E-03	9.697544E-05
3.177445E+03	5.772717E-03	9.604775E-05
3.187437E+03	5.772104E-03	9.517346E-05
3.197429E+03	5.775299E-03	9.436582E-05
3.207421E+03	5.783029E-03	9.363261E-05
3.217413E+03	5.796602E-03	9.299061E-05
3.227405E+03	5.817377E-03	9.245682E-05
3.237397E+03	5.847181E-03	9.205493E-05
3.247389E+03	5.887964E-03	9.180961E-05
3.257381E+03	5.941880E-03	9.174763E-05
3.267373E+03	6.011171E-03	9.189595E-05
3.277365E+03	6.098442E-03	9.228575E-05
3.287357E+03	6.206311E-03	9.294691E-05
3.297349E+03	6.337478E-03	9.390902E-05
3.307341E+03	6.495078E-03	9.520649E-05
3.317333E+03	6.682272E-03	9.687230E-05
3.327325E+03	6.902651E-03	9.894383E-05
3.337317E+03	7.159639E-03	1.014541E-04
3.347309E+03	7.456608E-03	1.044339E-04
3.357301E+03	7.796800E-03	1.079105E-04
3.367293E+03	8.183299E-03	1.119084E-04
3.377285E+03	8.618857E-03	1.164467E-04
3.387277E+03	9.105596E-03	1.215366E-04
3.397269E+03	9.645064E-03	1.271832E-04
3.407261E+03	1.023696E-02	1.333695E-04
3.417253E+03	1.087931E-02	1.400617E-04
3.427244E+03	1.156563E-02	1.471749E-04
3.437236E+03	1.228383E-02	1.545636E-04
3.447228E+03	1.301517E-02	1.620128E-04
3.457220E+03	1.373323E-02	1.692292E-04
3.467212E+03	1.440513E-02	1.758599E-04
3.477204E+03	1.500120E-02	1.816095E-04
3.487196E+03	1.551173E-02	1.864351E-04
3.497188E+03	1.594031E-02	1.904541E-04
3.507180E+03	1.629545E-02	1.938375E-04
3.517172E+03	1.658877E-02	1.967864E-04
3.527164E+03	1.683174E-02	1.994929E-04
3.537156E+03	1.703665E-02	2.021522E-04
3.547148E+03	1.721469E-02	2.049414E-04
3.557140E+03	1.737585E-02	2.080186E-04
3.567132E+03	1.752834E-02	2.115186E-04
3.577124E+03	1.767932E-02	2.155609E-04
3.587116E+03	1.783473E-02	2.202324E-04
3.597108E+03	1.799793E-02	2.255702E-04
3.607100E+03	1.817080E-02	2.315911E-04
3.617092E+03	1.835177E-02	2.382667E-04
3.627084E+03	1.853660E-02	2.455299E-04
3.637076E+03	1.871953E-02	2.532882E-04
3.647068E+03	1.889370E-02	2.614246E-04
3.657060E+03	1.905112E-02	2.697966E-04
3.667052E+03	1.918473E-02	2.782627E-04
3.677044E+03	1.928768E-02	2.866726E-04
3.687036E+03	1.935533E-02	2.948979E-04
3.697028E+03	1.938534E-02	3.028368E-04
3.707020E+03	1.937890E-02	3.104392E-04
3.717012E+03	1.934035E-02	3.177077E-04
3.727003E+03	1.927869E-02	3.247298E-04
3.736995E+03	1.920762E-02	3.316900E-04
3.746987E+03	1.914436E-02	3.388588E-04
3.756979E+03	1.910752E-02	3.465640E-04
3.766971E+03	1.911673E-02	3.551868E-04
3.776963E+03	1.919189E-02	3.651507E-04
3.786955E+03	1.935275E-02	3.769145E-04
3.796947E+03	1.961928E-02	3.909789E-04
3.806939E+03	2.000908E-02	4.078346E-04
3.816931E+03	2.053599E-02	4.279273E-04
3.826923E+03	2.120610E-02	4.515633E-04
3.836915E+03	2.201703E-02	4.788761E-04
3.846907E+03	2.295778E-02	5.098029E-04
3.856899E+03	2.400556E-02	5.439919E-04
3.866891E+03	2.512625E-02	5.807870E-04
3.876883E+03	2.627834E-02	6.192937E-04
3.886875E+03	2.741577E-02	6.584316E-04
3.896867E+03	2.849074E-02	6.969938E-04
3.906859E+03	2.945708E-02	7.337283E-04
3.916851E+03	3.027578E-02	7.674834E-04
3.926843E+03	3.091640E-02	7.972614E-04
3.936835E+03	3.135866E-02	8.222806E-04
3.946827E+03	3.159487E-02	8.420646E-04
3.956819E+03	3.162843E-02	8.564285E-04
3.966811E+03	3.147228E-02	8.654608E-04
3.976803E+03	3.114922E-02	8.695534E-04
3.986795E+03	3.068730E-02	8.692899E-04
3.996787E+03	3.011832E-02	8.654133E-04
4.006779E+03	2.947507E-02	8.587518E-04
4.016771E+03	2.878919E-02	8.501547E-04
4.026762E+03	2.808997E-02	8.404546E-04
4.036754E+03	2.740175E-02	8.303806E-04
4.046746E+03	2.674522E-02	8.205885E-04
4.056738E+03	2.613689E-02	8.116341E-04
4.066730E+03	2.558940E-02	8.039765E-04
4.076722E+03	2.511256E-02	7.980006E-04
4.086714E+03	2.471430E-02	7.940432E-04
4.096706E+03	2.440030E-02	7.923767E-04
4.106698E+03	2.417441E-02	7.932177E-04
4.116690E+03	2.403741E-02	7.966842E-04
4.126682E+03	2.398467E-02	8.027087E-04
4.136674E+03	2.400831E-02	8.111060E-04
4.146666E+03	2.409679E-02	8.215519E-04
4.156658E+03	2.423471E-02	8.335728E-04
4.166650E+03	2.440391E-02	8.465781E-04
4.176642E+03	2.458504E-02	8.599128E-04
4.186634E+03	2.475856E-02	8.728914E-04
4.196626E+03	2.490536E-02	8.848232E-04
4.206618E+03	2.500815E-02	8.950615E-04
4.216610E+03	2.505272E-02	9.030558E-04
4.226602E+03	2.502740E-02	9.083345E-04
4.236594E+03	2.492333E-02	9.105209E-04
4.246586E+03	2.473466E-02	9.093450E-04
4.256578E+03	2.445789E-02	9.046215E-04
4.266570E+03	2.409164E-02	8.962454E-04
4.276562E+03	2.363796E-02	8.842437E-04
4.286554E+03	2.310134E-02	8.687413E-04
4.296546E+03	2.248922E-02	8.499829E-04
4.306538E+03	2.181241E-02	8.283500E-04
4.316530E+03	2.108441E-02	8.043392E-04
4.326521E+03	2.032249E-02	7.786036E-04
4.336513E+03	1.954666E-02	7.519151E-04
4.346505E+03	1.877965E-02	7.251642E-04
4.356497E+03	1.804542E-02	6.993023E-04
4.366489E+03	1.736949E-02	6.753541E-04
4.376481E+03	1.677620E-02	6.543084E-04
4.386473E+03	1.628672E-02	6.370382E-04
4.396465E+03	1.591849E-02	6.242745E-04
4.406457E+03	1.568640E-02	6.166493E-04
4.416449E+03	1.560233E-02	6.146749E-04
4.426441E+03	1.567535E-02	6.187489E-04
4.436433E+03	1.591377E-02	6.292338E-04
4.446425E+03	1.632503E-02	6.464505E-04
4.456417E+03	1.691517E-02	6.706582E-04
4.466409E+03	1.768934E-02	7.020718E-04
4.476401E+03	1.865065E-02	7.408158E-04
4.486393E+03	1.979893E-02	7.868754E-04
4.496385E+03	2.112882E-02	8.400194E-04
4.506377E+03	2.262786E-02	8.997239E-04
4.516369E+03	2.427404E-02	9.650754E-04
4.526361E+03	2.603351E-02	1.034683E-03
4.536353E+03	2.785941E-02	1.106633E-03
4.546345E+03	2.969132E-02	1.178475E-03
4.556337E+03	3.145629E-02	1.247266E-03
4.566329E+03	3.307400E-02	1.309787E-03
4.576321E+03	3.446506E-02	1.362877E-03
4.586313E+03	3.555572E-02	1.403628E-03
4.596305E+03	3.628917E-02	1.429834E-03
4.606297E+03	3.663568E-02	1.440387E-03
4.616289E+03	3.659218E-02	1.435259E-03
4.626280E+03	3.617958E-02	1.415378E-03
4.636272E+03	3.544383E-02	1.382662E-03
4.646264E+03	3.444393E-02	1.339534E-03
4.656256E+03	3.324863E-02	1.288782E-03
4.666248E+03	3.192758E-02	1.233203E-03
4.676240E+03	3.054656E-02	1.175415E-03
4.686232E+03	2.916269E-02	1.117671E-03
4.696224E+03	2.782225E-02	1.061776E-03
4.706216E+03	2.656144E-02	1.009119E-03
4.716208E+03	2.540546E-02	9.606455E-04
4.726200E+03	2.437045E-02	9.169368E-04
4.736192E+03	2.346576E-02	8.783025E-04
4.746184E+03	2.269459E-02	8.448088E-04
4.756176E+03	2.205657E-02	8.163810E-04
4.766168E+03	2.154703E-02	7.927793E-04
4.776160E+03	2.116011E-02	7.737190E-04
4.786152E+03	2.088729E-02	7.588177E-04
4.796144E+03	2.071864E-02	7.476443E-04
4.806136E+03	2.064480E-02	7.397935E-04
4.816128E+03	2.065653E-02	7.348688E-04
4.826120E+03	2.074415E-02	7.324637E-04
4.836112E+03	2.089862E-02	7.322009E-04
4.846104E+03	2.111024E-02	7.336881E-04
4.856096E+03	2.136797E-02	7.364942E-04
4.866088E+03	2.165834E-02	7.401163E-04
4.876080E+03	2.196424E-02	7.439426E-04
4.886072E+03	2.226527E-02	7.472716E-04
4.896064E+03	2.254066E-02	7.494135E-04
4.906056E+03	2.276947E-02	7.497018E-04
4.916047E+03	2.293310E-02	7.475739E-04
4.926039E+03	2.301576E-02	7.425850E-04
4.936031E+03	2.300610E-02	7.344563E-04
4.946023E+03	2.289829E-02	7.231018E-04
4.956015E+03	2.269183E-02	7.086141E-04
4.966007E+03	2.239336E-02	6.913096E-04
4.975999E+03	2.201495E-02	6.716642E-04
4.985991E+03	2.157448E-02	6.503140E-04
4.995983E+03	2.109481E-02	6.280190E-04
5.005975E+03	2.060147E-02	6.055856E-04
5.015967E+03	2.011776E-02	5.837164E-04
5.025959E+03	1.966417E-02	5.629985E-04
5.035951E+03	1.925828E-02	5.439042E-04
5.045943E+03	1.891428E-02	5.267832E-04
5.055935E+03	1.864384E-02	5.118924E-04
5.065927E+03	1.845702E-02	4.994254E-04
5.075919E+03	1.836372E-02	4.895541E-04
5.085911E+03	1.837427E-02	4.824440E-04
5.095903E+03	1.850002E-02	4.782710E-04
5.105895E+03	1.875337E-02	4.772168E-04
5.115887E+03	1.914666E-02	4.794426E-04
5.125879E+03	1.969295E-02	4.851066E-04
5.135871E+03	2.040180E-02	4.942622E-04
5.145863E+03	2.127817E-02	5.068392E-04
5.155855E+03	2.232047E-02	5.226085E-04
5.165847E+03	2.352019E-02	5.411881E-04
5.175839E+03	2.485882E-02	5.619881E-04
5.185831E+03	2.630657E-02	5.842038E-04
5.195823E+03	2.782314E-02	6.068550E-04
5.205815E+03	2.935756E-02	6.288035E-04
5.215806E+03	3.085146E-02	6.488413E-04
5.225798E+03	3.224269E-02	6.657780E-04
5.235790E+03	3.347598E-02	6.786613E-04
5.245782E+03	3.450510E-02	6.868014E-04
5.255774E+03	3.529761E-02	6.898438E-04
5.265766E+03	3.583948E-02	6.878279E-04
5.275758E+03	3.613569E-02	6.811623E-04
5.285750E+03	3.620542E-02	6.704991E-04
5.295742E+03	3.608092E-02	6.566905E-04
5.305734E+03	3.580186E-02	6.406664E-04
5.315726E+03	3.541047E-02	6.233398E-04
5.325718E+03	3.494470E-02	6.054896E-04
5.335710E+03	3.443825E-02	5.877699E-04
5.345702E+03	3.391630E-02	5.706495E-04
5.355694E+03	3.339363E-02	5.543944E-04
5.365686E+03	3.287563E-02	5.390999E-04
5.375678E+03	3.236409E-02	5.247949E-04
5.385670E+03	3.185679E-02	5.114392E-04
5.395662E+03	3.135139E-02	4.989882E-04
5.405654E+03	3.085144E-02	4.874870E-04
5.415646E+03	3.037249E-02	4.771537E-04
5.425638E+03	2.992933E-02	4.681552E-04
5.435630E+03	2.952163E-02	4.604142E-04
5.445622E+03	2.913300E-02	4.536074E-04
5.455614E+03	2.873489E-02	4.472262E-04
5.465606E+03	2.830136E-02	4.408042E-04
5.475598E+03	2.781941E-02	4.340739E-04
5.485590E+03	2.728434E-02	4.268934E-04
5.495582E+03	2.669786E-02	4.192195E-04
5.505574E+03	2.606461E-02	4.110543E-04
5.515565E+03	2.539167E-02	4.024406E-04
5.525557E+03	2.468465E-02	3.934022E-04
5.535549E+03	2.394890E-02	3.839632E-04
5.545541E+03	2.318863E-02	3.741355E-04
5.555533E+03	2.240922E-02	3.639557E-04
5.565525E+03	2.161614E-02	3.534688E-04
5.575517E+03	2.081646E-02	3.427534E-04
5.585509E+03	2.001860E-02	3.319187E-04
5.595501E+03	1.923327E-02	3.211202E-04
5.605493E+03	1.847165E-02	3.105312E-04
5.615485E+03	1.774619E-02	3.003558E-04
5.625477E+03	1.707023E-02	2.908219E-04
5.635469E+03	1.645689E-02	2.821627E-04
5.645461E+03	1.591935E-02	2.746200E-04
5.655453E+03	1.547042E-02	2.684358E-04
5.665445E+03	1.512265E-02	2.638523E-04
5.675437E+03	1.488716E-02	2.610906E-04
5.685429E+03	1.477348E-02	2.603460E-04
5.695421E+03	1.479027E-02	2.617975E-04
5.705413E+03	1.494498E-02	2.656021E-04
5.715405E+03	1.524361E-02	2.718876E-04
5.725397E+03	1.569049E-02	2.807480E-04
5.735389E+03	1.628949E-02	2.922634E-04
5.745381E+03	1.704165E-02	3.064572E-04
5.755373E+03	1.794470E-02	3.232860E-04
5.765365E+03	1.899189E-02	3.426180E-04
5.775357E+03	2.016886E-02	3.641765E-04
5.785349E+03	2.145194E-02	3.875090E-04
5.795341E+03	2.280778E-02	4.119824E-04
5.805333E+03	2.419287E-02	4.367769E-04
5.815324E+03	2.555262E-02	4.608732E-04
5.825316E+03	2.682596E-02	4.831412E-04
5.835308E+03	2.794932E-02	5.024167E-04
5.845300E+03	2.886235E-02	5.176110E-04
5.855292E+03	2.951732E-02	5.278820E-04
5.865284E+03	2.988672E-02	5.327709E-04
5.875276E+03	2.996656E-02	5.322574E-04
5.885268E+03	2.977326E-02	5.266981E-04
5.895260E+03	2.934373E-02	5.168178E-04
5.905252E+03	2.872731E-02	5.035590E-04
5.915244E+03	2.797694E-02	4.879179E-04
5.925236E+03	2.714340E-02	4.708398E-04
5.935228E+03	2.627019E-02	4.531280E-04
5.945220E+03	2.539087E-02	4.353989E-04
5.955212E+03	2.452634E-02	4.180397E-04
5.965204E+03	2.368756E-02	4.012590E-04
5.975196E+03	2.287765E-02	3.851275E-04
5.985188E+03	2.209382E-02	3.696144E-04
5.995180E+03	2.132831E-02	3.546057E-04
6.005172E+03	2.057301E-02	3.399834E-04
6.015164E+03	1.981707E-02	3.255859E-04
6.025156E+03	1.905187E-02	3.112899E-04
6.035148E+03	1.827346E-02	2.970479E-04
6.045140E+03	1.748330E-02	2.828979E-04
6.055132E+03	1.668796E-02	2.689554E-04
6.065124E+03	1.589817E-02	2.553961E-04
6.075116E+03	1.513007E-02	2.424759E-04
6.085108E+03	1.440087E-02	2.304620E-04
6.095100E+03	1.372947E-02	2.196450E-04
6.105092E+03	1.313498E-02	2.103185E-04
6.115083E+03	1.263564E-02	2.027672E-04
6.125075E+03	1.224837E-02	1.972635E-04
6.135067E+03	1.198915E-02	1.940793E-04
6.145059E+03	1.187231E-02	1.934800E-04
6.155051E+03	1.190888E-02	1.957017E-04
6.165043E+03	1.210418E-02	2.009151E-04
6.175035E+03	1.245918E-02	2.092450E-04
6.185027E+03	1.297039E-02	2.207567E-04
6.195019E+03	1.362471E-02	2.353659E-04
6.205011E+03	1.439949E-02	2.528304E-04
6.215003E+03	1.526250E-02	2.727290E-04
6.224995E+03	1.617249E-02	2.944481E-04
6.234987E+03	1.708495E-02	3.172626E-04
6.244979E+03	1.796164E-02	3.405005E-04
6.254971E+03	1.877806E-02	3.636883E-04
6.264963E+03	1.952173E-02	3.865388E-04
6.274955E+03	2.018876E-02	4.089054E-04
6.284947E+03	2.077929E-02	4.307049E-04
6.294939E+03	2.129628E-02	4.519033E-04
6.304931E+03	2.174465E-02	4.725047E-04
6.314923E+03	2.212952E-02	4.925192E-04
6.324915E+03	2.245581E-02	5.119557E-04
6.334907E+03	2.272943E-02	5.308507E-04
6.344899E+03	2.295612E-02	5.492455E-04
6.354891E+03	2.314108E-02	5.671767E-04
6.364883E+03	2.329021E-02	5.847078E-04
6.374875E+03	2.340775E-02	6.018719E-04
6.384867E+03	2.349722E-02	6.186911E-04
6.394859E+03	2.356105E-02	6.351663E-04
6.404851E+03	2.360072E-02	6.512768E-04
6.414842E+03	2.361542E-02	6.669407E-04
6.424834E+03	2.360430E-02	6.820722E-04
6.434826E+03	2.356441E-02	6.965213E-04
6.444818E+03	2.349199E-02	7.101039E-04
6.454810E+03	2.338321E-02	7.226249E-04
6.464802E+03	2.323356E-02	7.338550E-04
6.474794E+03	2.303903E-02	7.435694E-04
6.484786E+03	2.279522E-02	7.515181E-04
6.494778E+03	2.250008E-02	7.575169E-04
6.504770E+03	2.215202E-02	7.613919E-04
6.514762E+03	2.175072E-02	7.630082E-04
6.524754E+03	2.129829E-02	7.623155E-04
6.534746E+03	2.079817E-02	7.593193E-04
6.544738E+03	2.025545E-02	7.540946E-04
6.554730E+03	1.967675E-02	7.467900E-04
6.564722E+03	1.907007E-02	7.376261E-04
6.574714E+03	1.844334E-02	7.268446E-04
6.584706E+03	1.780510E-02	7.147348E-04
6.594698E+03	1.716395E-02	7.016144E-04
6.604690E+03	1.652765E-02	6.877918E-04
6.614682E+03	1.590282E-02	6.735506E-04
6.624674E+03	1.529574E-02	6.591802E-04
6.634666E+03	1.471108E-02	6.449193E-04
6.644658E+03	1.415318E-02	6.310048E-04
6.654650E+03	1.362434E-02	6.175976E-04
6.664642E+03	1.312660E-02	6.048508E-04
6.674634E+03	1.266130E-02	5.928940E-04
6.684626E+03	1.222889E-02	5.818188E-04
6.694618E+03	1.182914E-02	5.716840E-04
6.704609E+03	1.146150E-02	5.625344E-04
6.714601E+03	1.112530E-02	5.544064E-04
6.724593E+03	1.081924E-02	5.473039E-04
6.734585E+03	1.054219E-02	5.412345E-04
6.744577E+03	1.029232E-02	5.361678E-04
6.754569E+03	1.006851E-02	5.321048E-04
6.764561E+03	9.868823E-03	5.289987E-04
6.774553E+03	9.692002E-03	5.268355E-04
6.784545E+03	9.536069E-03	5.255569E-04
6.794537E+03	9.399503E-03	5.251244E-04
6.804529E+03	9.280580E-03	5.254835E-04
6.814521E+03	9.177395E-03	5.265642E-04
6.824513E+03	9.088328E-03	5.283074E-04
6.834505E+03	9.011438E-03	5.306300E-04
6.844497E+03	8.945177E-03	5.334669E-04
6.854489E+03	8.887563E-03	5.367217E-04
6.864481E+03	8.837392E-03	5.403401E-04
6.874473E+03	8.793127E-03	5.442430E-04
6.884465E+03	8.753575E-03	5.483687E-04
6.894457E+03	8.717573E-03	5.526537E-04
6.904449E+03	8.684671E-03	5.570767E-04
6.914441E+03	8.653797E-03	5.615746E-04
6.924433E+03	8.625072E-03	5.661597E-04
6.934425E+03	8.597972E-03	5.708016E-04
6.944417E+03	8.572459E-03	5.755010E-04
6.954409E+03	8.548790E-03	5.802787E-04
6.964401E+03	8.526988E-03	5.851399E-04
6.974393E+03	8.507298E-03	5.901056E-04
6.984385E+03	8.489998E-03	5.951996E-04
6.994377E+03	8.475339E-03	6.004448E-04
7.004368E+03	8.463500E-03	6.058595E-04
7.014360E+03	8.454408E-03	6.114445E-04
7.024352E+03	8.448372E-03	6.172281E-04
7.034344E+03	8.444687E-03	6.231648E-04
7.044336E+03	8.443506E-03	6.292708E-04
7.054328E+03	8.443838E-03	6.354769E-04
7.064320E+03	8.445358E-03	6.417612E-04
7.074312E+03	8.447132E-03	6.480547E-04
7.084304E+03	8.448367E-03	6.542959E-04
7.094296E+03	8.448426E-03	6.604339E-04
7.104288E+03	8.446233E-03	6.663809E-04
7.114280E+03	8.441384E-03	6.720994E-04
7.124272E+03	8.433355E-03	6.775416E-04
7.134264E+03	8.422175E-03	6.827027E-04
7.144256E+03	8.407896E-03	6.875799E-04
7.154248E+03	8.390572E-03	6.921711E-04
7.164240E+03	8.370726E-03	6.965129E-04
7.174232E+03	8.348399E-03	7.006033E-04
7.184224E+03	8.324270E-03	7.044944E-04
7.194216E+03	8.298446E-03	7.081916E-04
7.204208E+03	8.270918E-03	7.116903E-04
7.214200E+03	8.241827E-03	7.149991E-04
7.224192E+03	8.211005E-03	7.181002E-04
7.234184E+03	8.178003E-03	7.209501E-04
7.244176E+03	8.142418E-03	7.235086E-04
7.254168E+03	8.103779E-03	7.257282E-04
7.264160E+03	8.061611E-03	7.275595E-04
7.274152E+03	8.015434E-03	7.289519E-04
7.284144E+03	7.964495E-03	7.298280E-04
7.294136E+03	7.908793E-03	7.301779E-04
7.304127E+03	7.847953E-03	7.299574E-04
7.314119E+03	7.781745E-03	7.291345E-04
7.324111E+03	7.710428E-03	7.277226E-04
7.334103E+03	7.633960E-03	7.257079E-04
7.344095E+03	7.552796E-03	7.231237E-04
7.354087E+03	7.467551E-03	7.200201E-04
7.364079E+03	7.378832E-03	7.164483E-04
7.374071E+03	7.287681E-03	7.125035E-04
7.384063E+03	7.194605E-03	7.082311E-04
7.394055E+03	7.100931E-03	7.037594E-04
7.404047E+03	7.007402E-03	6.991618E-04
7.414039E+03	6.915198E-03	6.945578E-04
7.424031E+03	6.825145E-03	6.900339E-04
7.434023E+03	6.738162E-03	6.856884E-04
7.444015E+03	6.655222E-03	6.816276E-04
7.454007E+03	6.576887E-03	6.779179E-04
7.463999E+03	6.504173E-03	6.746742E-04
7.473991E+03	6.437262E-03	6.719269E-04
7.483983E+03	6.376729E-03	6.697482E-04
7.493975E+03	6.322598E-03	6.681535E-04
7.503967E+03	6.275308E-03	6.672020E-04
7.513959E+03	6.234587E-03	6.668782E-04
7.523951E+03	6.200181E-03	6.671676E-04
7.533943E+03	6.171883E-03	6.680603E-04
7.543935E+03	6.149247E-03	6.695195E-04
7.553927E+03	6.132040E-03	6.715306E-04
7.563919E+03	6.119455E-03	6.740150E-04
7.573911E+03	6.111060E-03	6.769338E-04
7.583903E+03	6.106424E-03	6.802469E-04
7.593895E+03	6.104874E-03	6.838859E-04
7.603886E+03	6.106048E-03	6.878159E-04
7.613878E+03	6.109368E-03	6.919763E-04
7.623870E+03	6.114728E-03	6.963591E-04
7.633862E+03	6.121537E-03	7.009004E-04
7.643854E+03	6.129828E-03	7.056066E-04
7.653846E+03	6.139156E-03	7.104287E-04
7.663838E+03	6.149685E-03	7.153877E-04
7.673830E+03	6.161073E-03	7.204458E-04
7.683822E+03	6.173566E-03	7.256332E-04
7.693814E+03	6.186985E-03	7.309307E-04
7.703806E+03	6.201269E-03	7.363327E-04
7.713798E+03	6.216306E-03	7.418272E-04
7.723790E+03	6.231892E-03	7.473911E-04
7.733782E+03	6.247744E-03	7.529910E-04
7.743774E+03	6.263366E-03	7.585672E-04
7.753766E+03	6.278607E-03	7.641009E-04
