#wls	flux	fluxerr
1.598715E+03	1.712466E-04	1.245672E-05
1.638682E+03	1.972976E-04	1.389085E-05
1.678650E+03	2.273932E-04	1.547643E-05
1.718618E+03	2.619379E-04	1.721145E-05
1.758586E+03	3.011534E-04	1.907881E-05
1.798554E+03	3.448177E-04	2.103272E-05
1.838522E+03	3.917089E-04	2.297162E-05
1.878490E+03	4.393696E-04	2.473680E-05
1.918458E+03	4.835040E-04	2.609455E-05
1.958425E+03	5.181495E-04	2.676607E-05
1.998393E+03	5.366393E-04	2.649325E-05
2.038361E+03	5.338437E-04	2.515036E-05
2.078329E+03	5.090310E-04	2.285227E-05
2.118297E+03	4.686074E-04	2.002024E-05
2.158265E+03	4.249683E-04	1.725746E-05
2.198233E+03	3.898727E-04	1.503431E-05
2.238200E+03	3.713912E-04	1.359082E-05
2.278168E+03	3.749939E-04	1.301911E-05
2.318136E+03	4.038733E-04	1.330649E-05
2.358104E+03	4.614664E-04	1.444184E-05
2.398072E+03	5.537791E-04	1.648773E-05
2.438040E+03	6.888913E-04	1.955184E-05
2.478008E+03	8.744551E-04	2.371665E-05
2.517976E+03	1.111251E-03	2.888541E-05
2.557943E+03	1.384751E-03	3.461573E-05
2.597911E+03	1.664053E-03	4.016060E-05
2.637879E+03	1.921619E-03	4.496952E-05
2.677847E+03	2.142720E-03	4.882663E-05
2.717815E+03	2.333719E-03	5.195803E-05
2.757783E+03	2.516940E-03	5.488643E-05
2.797751E+03	2.707634E-03	5.792232E-05
2.837718E+03	2.903769E-03	6.097971E-05
2.877686E+03	3.087676E-03	6.365049E-05
2.917654E+03	3.234252E-03	6.540479E-05
2.957622E+03	3.323567E-03	6.586278E-05
2.997590E+03	3.350192E-03	6.497392E-05
3.007582E+03	3.348195E-03	6.457242E-05
3.017574E+03	3.343215E-03	6.411093E-05
3.027566E+03	3.335595E-03	6.359728E-05
3.037558E+03	3.325855E-03	6.304250E-05
3.047550E+03	3.314299E-03	6.245345E-05
3.057542E+03	3.301315E-03	6.183845E-05
3.067534E+03	3.287364E-03	6.120706E-05
3.077526E+03	3.272757E-03	6.056594E-05
3.087518E+03	3.257874E-03	5.992286E-05
3.097510E+03	3.243223E-03	5.928786E-05
3.107502E+03	3.229037E-03	5.866575E-05
3.117494E+03	3.215750E-03	5.806492E-05
3.127486E+03	3.203667E-03	5.749128E-05
3.137477E+03	3.193356E-03	5.695532E-05
3.147469E+03	3.185019E-03	5.646084E-05
3.157461E+03	3.179131E-03	5.601639E-05
3.167453E+03	3.176192E-03	5.563045E-05
3.177445E+03	3.176673E-03	5.531001E-05
3.187437E+03	3.180965E-03	5.506042E-05
3.197429E+03	3.189811E-03	5.489300E-05
3.207421E+03	3.203719E-03	5.481480E-05
3.217413E+03	3.223437E-03	5.483685E-05
3.227405E+03	3.249668E-03	5.496925E-05
3.237397E+03	3.283311E-03	5.522517E-05
3.247389E+03	3.325281E-03	5.561784E-05
3.257381E+03	3.376580E-03	5.616176E-05
3.267373E+03	3.438233E-03	5.687151E-05
3.277365E+03	3.511464E-03	5.776478E-05
3.287357E+03	3.597529E-03	5.885951E-05
3.297349E+03	3.697699E-03	6.017369E-05
3.307341E+03	3.813441E-03	6.172826E-05
3.317333E+03	3.946155E-03	6.354291E-05
3.327325E+03	4.097395E-03	6.563970E-05
3.337317E+03	4.268587E-03	6.803859E-05
3.347309E+03	4.461155E-03	7.075961E-05
3.357301E+03	4.676410E-03	7.382114E-05
3.367293E+03	4.915453E-03	7.723868E-05
3.377285E+03	5.179062E-03	8.102328E-05
3.387277E+03	5.467459E-03	8.517806E-05
3.397269E+03	5.780328E-03	8.969902E-05
3.407261E+03	6.116151E-03	9.456488E-05
3.417253E+03	6.472481E-03	9.974195E-05
3.427244E+03	6.844954E-03	1.051690E-04
3.437236E+03	7.227559E-03	1.107622E-04
3.447228E+03	7.612443E-03	1.164115E-04
3.457220E+03	7.990129E-03	1.219848E-04
3.467212E+03	8.350744E-03	1.273457E-04
3.477204E+03	8.685386E-03	1.323736E-04
3.487196E+03	8.988880E-03	1.370048E-04
3.497188E+03	9.259467E-03	1.412269E-04
3.507180E+03	9.497689E-03	1.450618E-04
3.517172E+03	9.706041E-03	1.485593E-04
3.527164E+03	9.887574E-03	1.517770E-04
3.537156E+03	1.004651E-02	1.547892E-04
3.547148E+03	1.018715E-02	1.576709E-04
3.557140E+03	1.031386E-02	1.604977E-04
3.567132E+03	1.043053E-02	1.633380E-04
3.577124E+03	1.054076E-02	1.662561E-04
3.587116E+03	1.064782E-02	1.693114E-04
3.597108E+03	1.075381E-02	1.725410E-04
3.607100E+03	1.086056E-02	1.759725E-04
3.617092E+03	1.096867E-02	1.796136E-04
3.627084E+03	1.107780E-02	1.834568E-04
3.637076E+03	1.118713E-02	1.874853E-04
3.647068E+03	1.129536E-02	1.916733E-04
3.657060E+03	1.140068E-02	1.959849E-04
3.667052E+03	1.150173E-02	2.003893E-04
3.677044E+03	1.159699E-02	2.048519E-04
3.687036E+03	1.168591E-02	2.093531E-04
3.697028E+03	1.176870E-02	2.138860E-04
3.707020E+03	1.184692E-02	2.184686E-04
3.717012E+03	1.192311E-02	2.231388E-04
3.727003E+03	1.200138E-02	2.279665E-04
3.736995E+03	1.208707E-02	2.330506E-04
3.746987E+03	1.218678E-02	2.385207E-04
3.756979E+03	1.230783E-02	2.445286E-04
3.766971E+03	1.245819E-02	2.512492E-04
3.776963E+03	1.264599E-02	2.588696E-04
3.786955E+03	1.287910E-02	2.675832E-04
3.796947E+03	1.316496E-02	2.775839E-04
3.806939E+03	1.350917E-02	2.890359E-04
3.816931E+03	1.391592E-02	3.020806E-04
3.826923E+03	1.438653E-02	3.168011E-04
3.836915E+03	1.491866E-02	3.332010E-04
3.846907E+03	1.550660E-02	3.512036E-04
3.856899E+03	1.614054E-02	3.706309E-04
3.866891E+03	1.680661E-02	3.911974E-04
3.876883E+03	1.748756E-02	4.125198E-04
3.886875E+03	1.816333E-02	4.341253E-04
3.896867E+03	1.881289E-02	4.554918E-04
3.906859E+03	1.941513E-02	4.760693E-04
3.916851E+03	1.995058E-02	4.953216E-04
3.926843E+03	2.040275E-02	5.127647E-04
3.936835E+03	2.075936E-02	5.280017E-04
3.946827E+03	2.101331E-02	5.407557E-04
3.956819E+03	2.116253E-02	5.508738E-04
3.966811E+03	2.120986E-02	5.583314E-04
3.976803E+03	2.116339E-02	5.632495E-04
3.986795E+03	2.103432E-02	5.658440E-04
3.996787E+03	2.083689E-02	5.664282E-04
4.006779E+03	2.058672E-02	5.653717E-04
4.016771E+03	2.029974E-02	5.630717E-04
4.026762E+03	1.999211E-02	5.599505E-04
4.036754E+03	1.967810E-02	5.563958E-04
4.046746E+03	1.937090E-02	5.527802E-04
4.056738E+03	1.908186E-02	5.494371E-04
4.066730E+03	1.882016E-02	5.466486E-04
4.076722E+03	1.859328E-02	5.446560E-04
4.086714E+03	1.840711E-02	5.436605E-04
4.096706E+03	1.826525E-02	5.437986E-04
4.106698E+03	1.816969E-02	5.451625E-04
4.116690E+03	1.812095E-02	5.477992E-04
4.126682E+03	1.811660E-02	5.516656E-04
4.136674E+03	1.815288E-02	5.566737E-04
4.146666E+03	1.822405E-02	5.626704E-04
4.156658E+03	1.832231E-02	5.694323E-04
4.166650E+03	1.843859E-02	5.766888E-04
4.176642E+03	1.856289E-02	5.841322E-04
4.186634E+03	1.868441E-02	5.914215E-04
4.196626E+03	1.879235E-02	5.982079E-04
4.206618E+03	1.887648E-02	6.041533E-04
4.216610E+03	1.892715E-02	6.089321E-04
4.226602E+03	1.893588E-02	6.122506E-04
4.236594E+03	1.889592E-02	6.138686E-04
4.246586E+03	1.880210E-02	6.135940E-04
4.256578E+03	1.865106E-02	6.112940E-04
4.266570E+03	1.844125E-02	6.068953E-04
4.276562E+03	1.817351E-02	6.004050E-04
4.286554E+03	1.785087E-02	5.919061E-04
4.296546E+03	1.747883E-02	5.815668E-04
4.306538E+03	1.706520E-02	5.696386E-04
4.316530E+03	1.661992E-02	5.564477E-04
4.326521E+03	1.615542E-02	5.424109E-04
4.336513E+03	1.568523E-02	5.279871E-04
4.346505E+03	1.522454E-02	5.136969E-04
4.356497E+03	1.478880E-02	5.000735E-04
4.366489E+03	1.439333E-02	4.876505E-04
4.376481E+03	1.405271E-02	4.769386E-04
4.386473E+03	1.378046E-02	4.684140E-04
4.396465E+03	1.358829E-02	4.624908E-04
4.406457E+03	1.348677E-02	4.595442E-04
4.416449E+03	1.348500E-02	4.598961E-04
4.426441E+03	1.359047E-02	4.638116E-04
4.436433E+03	1.381002E-02	4.715287E-04
4.446425E+03	1.414948E-02	4.832472E-04
4.456417E+03	1.461323E-02	4.991128E-04
4.466409E+03	1.520459E-02	5.192289E-04
4.476401E+03	1.592462E-02	5.436164E-04
4.486393E+03	1.677141E-02	5.721902E-04
4.496385E+03	1.773908E-02	6.047233E-04
4.506377E+03	1.881673E-02	6.408132E-04
4.516369E+03	1.998666E-02	6.798236E-04
4.526361E+03	2.122404E-02	7.208736E-04
4.536353E+03	2.249653E-02	7.628300E-04
4.546345E+03	2.376430E-02	8.043110E-04
4.556337E+03	2.498148E-02	8.437405E-04
4.566329E+03	2.609906E-02	8.794521E-04
4.576321E+03	2.706947E-02	9.098453E-04
4.586313E+03	2.784883E-02	9.334668E-04
4.596305E+03	2.840259E-02	9.491976E-04
4.606297E+03	2.870997E-02	9.564023E-04
4.616289E+03	2.876457E-02	9.549403E-04
4.626280E+03	2.857402E-02	9.451506E-04
4.636272E+03	2.816192E-02	9.279041E-04
4.646264E+03	2.756057E-02	9.043557E-04
4.656256E+03	2.681075E-02	8.759282E-04
4.666248E+03	2.595600E-02	8.441177E-04
4.676240E+03	2.503945E-02	8.103858E-04
4.686232E+03	2.410083E-02	7.760616E-04
4.696224E+03	2.317427E-02	7.422693E-04
4.706216E+03	2.228845E-02	7.099368E-04
4.716208E+03	2.146504E-02	6.797474E-04
4.726200E+03	2.071888E-02	6.521519E-04
4.736192E+03	2.006009E-02	6.274385E-04
4.746184E+03	1.949402E-02	6.057362E-04
4.756176E+03	1.902229E-02	5.870502E-04
4.766168E+03	1.864294E-02	5.712707E-04
4.776160E+03	1.835313E-02	5.582597E-04
4.786152E+03	1.814732E-02	5.477963E-04
4.796144E+03	1.801868E-02	5.396228E-04
4.806136E+03	1.796044E-02	5.334865E-04
4.816128E+03	1.796513E-02	5.291178E-04
4.826120E+03	1.802426E-02	5.262231E-04
4.836112E+03	1.812940E-02	5.245163E-04
4.846104E+03	1.827093E-02	5.236848E-04
4.856096E+03	1.843806E-02	5.233921E-04
4.866088E+03	1.861881E-02	5.232782E-04
4.876080E+03	1.879944E-02	5.229484E-04
4.886072E+03	1.896470E-02	5.219811E-04
4.896064E+03	1.909927E-02	5.199723E-04
4.906056E+03	1.918774E-02	5.165335E-04
4.916047E+03	1.921642E-02	5.113437E-04
4.926039E+03	1.917410E-02	5.041654E-04
4.936031E+03	1.905397E-02	4.948914E-04
4.946023E+03	1.885363E-02	4.835397E-04
4.956015E+03	1.857483E-02	4.702384E-04
4.966007E+03	1.822559E-02	4.552725E-04
4.975999E+03	1.781746E-02	4.390048E-04
4.985991E+03	1.736502E-02	4.218587E-04
4.995983E+03	1.688566E-02	4.043050E-04
5.005975E+03	1.639784E-02	3.868167E-04
5.015967E+03	1.591851E-02	3.698055E-04
5.025959E+03	1.546336E-02	3.536297E-04
5.035951E+03	1.504637E-02	3.385863E-04
5.045943E+03	1.467929E-02	3.249005E-04
5.055935E+03	1.437190E-02	3.127374E-04
5.065927E+03	1.413283E-02	3.022207E-04
5.075919E+03	1.396993E-02	2.934438E-04
5.085911E+03	1.389015E-02	2.864686E-04
5.095903E+03	1.390072E-02	2.813504E-04
5.105895E+03	1.400909E-02	2.781376E-04
5.115887E+03	1.422174E-02	2.768466E-04
5.125879E+03	1.454581E-02	2.774958E-04
5.135871E+03	1.498720E-02	2.800695E-04
5.145863E+03	1.554967E-02	2.845038E-04
5.155855E+03	1.623473E-02	2.906893E-04
5.165847E+03	1.704119E-02	2.984681E-04
5.175839E+03	1.796146E-02	3.075770E-04
5.185831E+03	1.898263E-02	3.176779E-04
5.195823E+03	2.008639E-02	3.283683E-04
5.205815E+03	2.124647E-02	3.391511E-04
5.215806E+03	2.243136E-02	3.494927E-04
5.225798E+03	2.360471E-02	3.588386E-04
5.235790E+03	2.472931E-02	3.666816E-04
5.245782E+03	2.576849E-02	3.725815E-04
5.255774E+03	2.668980E-02	3.762150E-04
5.265766E+03	2.746970E-02	3.774294E-04
5.275758E+03	2.809414E-02	3.762322E-04
5.285750E+03	2.855841E-02	3.727704E-04
5.295742E+03	2.887227E-02	3.673771E-04
5.305734E+03	2.905348E-02	3.604668E-04
5.315726E+03	2.912625E-02	3.525032E-04
5.325718E+03	2.912120E-02	3.439902E-04
5.335710E+03	2.907077E-02	3.354115E-04
5.345702E+03	2.900382E-02	3.271715E-04
5.355694E+03	2.894215E-02	3.195644E-04
5.365686E+03	2.890169E-02	3.128000E-04
5.375678E+03	2.889272E-02	3.070153E-04
5.385670E+03	2.890871E-02	3.021653E-04
5.395662E+03	2.893754E-02	2.981533E-04
5.405654E+03	2.896533E-02	2.948707E-04
5.415646E+03	2.897726E-02	2.922015E-04
5.425638E+03	2.895281E-02	2.899682E-04
5.435630E+03	2.886646E-02	2.879075E-04
5.445622E+03	2.870318E-02	2.858295E-04
5.455614E+03	2.844506E-02	2.835000E-04
5.465606E+03	2.807631E-02	2.806893E-04
5.475598E+03	2.759773E-02	2.773173E-04
5.485590E+03	2.701631E-02	2.733544E-04
5.495582E+03	2.634376E-02	2.688133E-04
5.505574E+03	2.559467E-02	2.637358E-04
5.515565E+03	2.478551E-02	2.581890E-04
5.525557E+03	2.393087E-02	2.522303E-04
5.535549E+03	2.304420E-02	2.459174E-04
5.545541E+03	2.213727E-02	2.393032E-04
5.555533E+03	2.122162E-02	2.324526E-04
5.565525E+03	2.030725E-02	2.254274E-04
5.575517E+03	1.940423E-02	2.183037E-04
5.585509E+03	1.852251E-02	2.111701E-04
5.595501E+03	1.767344E-02	2.041433E-04
5.605493E+03	1.686774E-02	1.973456E-04
5.615485E+03	1.611619E-02	1.909111E-04
5.625477E+03	1.542975E-02	1.849862E-04
5.635469E+03	1.481873E-02	1.797186E-04
5.645461E+03	1.429281E-02	1.752547E-04
5.655453E+03	1.386051E-02	1.717328E-04
5.665445E+03	1.353013E-02	1.692915E-04
5.675437E+03	1.330905E-02	1.680601E-04
5.685429E+03	1.320218E-02	1.681369E-04
5.695421E+03	1.321401E-02	1.696127E-04
5.705413E+03	1.334862E-02	1.725702E-04
5.715405E+03	1.360870E-02	1.770704E-04
5.725397E+03	1.399540E-02	1.831486E-04
5.735389E+03	1.450919E-02	1.908250E-04
5.745381E+03	1.514742E-02	2.000720E-04
5.755373E+03	1.590387E-02	2.108068E-04
5.765365E+03	1.676820E-02	2.228842E-04
5.775357E+03	1.772449E-02	2.360762E-04
5.785349E+03	1.874940E-02	2.500484E-04
5.795341E+03	1.981233E-02	2.643640E-04
5.805333E+03	2.087767E-02	2.785155E-04
5.815324E+03	2.190282E-02	2.919023E-04
5.825316E+03	2.284208E-02	3.038873E-04
5.835308E+03	2.365137E-02	3.138639E-04
5.845300E+03	2.429069E-02	3.212934E-04
5.855292E+03	2.472939E-02	3.257776E-04
5.865284E+03	2.495281E-02	3.271474E-04
5.875276E+03	2.496192E-02	3.254536E-04
5.885268E+03	2.477054E-02	3.209275E-04
5.895260E+03	2.440775E-02	3.140044E-04
5.905252E+03	2.391027E-02	3.052171E-04
5.915244E+03	2.331664E-02	2.951153E-04
5.925236E+03	2.266242E-02	2.842005E-04
5.935228E+03	2.197829E-02	2.729009E-04
5.945220E+03	2.128940E-02	2.615635E-04
5.955212E+03	2.061245E-02	2.504199E-04
5.965204E+03	1.995776E-02	2.396162E-04
5.975196E+03	1.933021E-02	2.292266E-04
5.985188E+03	1.873045E-02	2.192724E-04
5.995180E+03	1.815505E-02	2.097263E-04
6.005172E+03	1.760006E-02	2.005563E-04
6.015164E+03	1.705850E-02	1.916983E-04
6.025156E+03	1.652426E-02	1.831017E-04
6.035148E+03	1.599299E-02	1.747386E-04
6.045140E+03	1.546227E-02	1.666032E-04
6.055132E+03	1.493224E-02	1.587178E-04
6.065124E+03	1.440560E-02	1.511298E-04
6.075116E+03	1.388993E-02	1.439335E-04
6.085108E+03	1.339393E-02	1.372294E-04
6.095100E+03	1.292900E-02	1.311392E-04
6.105092E+03	1.250861E-02	1.258002E-04
6.115083E+03	1.214657E-02	1.213491E-04
6.125075E+03	1.185622E-02	1.179166E-04
6.135067E+03	1.165057E-02	1.156328E-04
6.145059E+03	1.154123E-02	1.146218E-04
6.155051E+03	1.153768E-02	1.149975E-04
6.165043E+03	1.164439E-02	1.168404E-04
6.175035E+03	1.186227E-02	1.202136E-04
6.185027E+03	1.218898E-02	1.251625E-04
6.195019E+03	1.261667E-02	1.316778E-04
6.205011E+03	1.313203E-02	1.396996E-04
6.215003E+03	1.371666E-02	1.491146E-04
6.224995E+03	1.434898E-02	1.597658E-04
6.234987E+03	1.500719E-02	1.714753E-04
6.244979E+03	1.567217E-02	1.840715E-04
6.254971E+03	1.633039E-02	1.974230E-04
6.264963E+03	1.697336E-02	2.114384E-04
6.274955E+03	1.759628E-02	2.260551E-04
6.284947E+03	1.819564E-02	2.412149E-04
6.294939E+03	1.876759E-02	2.568438E-04
6.304931E+03	1.930821E-02	2.728558E-04
6.314923E+03	1.981575E-02	2.891847E-04
6.324915E+03	2.028757E-02	3.057439E-04
6.334907E+03	2.072119E-02	3.224404E-04
6.344899E+03	2.111578E-02	3.392000E-04
6.354891E+03	2.146989E-02	3.559334E-04
6.364883E+03	2.178285E-02	3.725592E-04
6.374875E+03	2.205443E-02	3.890005E-04
6.384867E+03	2.228425E-02	4.051748E-04
6.394859E+03	2.247142E-02	4.209883E-04
6.404851E+03	2.261629E-02	4.363671E-04
6.414842E+03	2.271773E-02	4.512077E-04
6.424834E+03	2.277500E-02	4.654115E-04
6.434826E+03	2.278664E-02	4.788613E-04
6.444818E+03	2.275076E-02	4.914268E-04
6.454810E+03	2.266551E-02	5.029737E-04
6.464802E+03	2.252877E-02	5.133559E-04
6.474794E+03	2.233887E-02	5.224325E-04
6.484786E+03	2.209352E-02	5.300429E-04
6.494778E+03	2.179280E-02	5.360789E-04
6.504770E+03	2.143699E-02	5.404370E-04
6.514762E+03	2.102712E-02	5.430333E-04
6.524754E+03	2.056665E-02	5.438504E-04
6.534746E+03	2.005985E-02	5.429015E-04
6.544738E+03	1.951225E-02	5.402443E-04
6.554730E+03	1.893081E-02	5.359921E-04
6.564722E+03	1.832354E-02	5.303054E-04
6.574714E+03	1.769818E-02	5.233569E-04
6.584706E+03	1.706301E-02	5.153559E-04
6.594698E+03	1.642633E-02	5.065339E-04
6.604690E+03	1.579543E-02	4.971119E-04
6.614682E+03	1.517660E-02	4.872972E-04
6.624674E+03	1.457568E-02	4.772997E-04
6.634666E+03	1.399701E-02	4.672946E-04
6.644658E+03	1.344460E-02	4.574577E-04
6.654650E+03	1.292061E-02	4.479106E-04
6.664642E+03	1.242688E-02	4.387700E-04
6.674634E+03	1.196459E-02	4.301348E-04
6.684626E+03	1.153416E-02	4.220784E-04
6.694618E+03	1.113530E-02	4.146496E-04
6.704609E+03	1.076748E-02	4.078882E-04
6.714601E+03	1.043009E-02	4.018283E-04
6.724593E+03	1.012186E-02	3.964788E-04
6.734585E+03	9.841707E-03	3.918516E-04
6.744577E+03	9.587903E-03	3.879301E-04
6.754569E+03	9.359344E-03	3.847192E-04
6.764561E+03	9.154180E-03	3.821899E-04
6.774553E+03	8.971209E-03	3.803359E-04
6.784545E+03	8.808549E-03	3.791187E-04
6.794537E+03	8.664782E-03	3.785151E-04
6.804529E+03	8.538313E-03	3.784905E-04
6.814521E+03	8.427402E-03	3.789998E-04
6.824513E+03	8.330629E-03	3.800078E-04
6.834505E+03	8.246284E-03	3.814625E-04
6.844497E+03	8.173016E-03	3.833241E-04
6.854489E+03	8.109125E-03	3.855329E-04
6.864481E+03	8.053590E-03	3.880575E-04
6.874473E+03	8.005051E-03	3.908472E-04
6.884465E+03	7.962493E-03	3.938651E-04
6.894457E+03	7.924884E-03	3.970706E-04
6.904449E+03	7.891777E-03	4.004504E-04
6.914441E+03	7.862206E-03	4.039631E-04
6.924433E+03	7.836235E-03	4.076187E-04
6.934425E+03	7.813301E-03	4.113941E-04
6.944417E+03	7.793313E-03	4.152902E-04
6.954409E+03	7.776421E-03	4.193202E-04
6.964401E+03	7.762521E-03	4.234843E-04
6.974393E+03	7.751720E-03	4.277938E-04
6.984385E+03	7.744127E-03	4.322604E-04
6.994377E+03	7.739818E-03	4.368944E-04
7.004368E+03	7.738822E-03	4.417033E-04
7.014360E+03	7.740942E-03	4.466818E-04
7.024352E+03	7.746343E-03	4.518452E-04
7.034344E+03	7.754327E-03	4.571582E-04
7.044336E+03	7.765005E-03	4.626321E-04
7.054328E+03	7.777468E-03	4.682169E-04
7.064320E+03	7.791498E-03	4.739025E-04
7.074312E+03	7.806343E-03	4.796453E-04
7.084304E+03	7.821364E-03	4.854070E-04
7.094296E+03	7.836120E-03	4.911600E-04
7.104288E+03	7.849717E-03	4.968470E-04
7.114280E+03	7.861803E-03	5.024431E-04
7.124272E+03	7.871885E-03	5.079135E-04
7.134264E+03	7.879888E-03	5.132495E-04
7.144256E+03	7.885682E-03	5.184385E-04
7.154248E+03	7.889166E-03	5.234695E-04
7.164240E+03	7.890618E-03	5.283569E-04
7.174232E+03	7.889855E-03	5.330843E-04
7.184224E+03	7.887386E-03	5.376824E-04
7.194216E+03	7.883191E-03	5.421465E-04
7.204208E+03	7.877153E-03	5.464653E-04
7.214200E+03	7.869428E-03	5.506463E-04
7.224192E+03	7.859894E-03	5.546777E-04
7.234184E+03	7.848148E-03	5.585276E-04
7.244176E+03	7.833898E-03	5.621711E-04
7.254168E+03	7.816767E-03	5.655762E-04
7.264160E+03	7.796317E-03	5.687060E-04
7.274152E+03	7.772166E-03	5.715264E-04
7.284144E+03	7.743605E-03	5.739783E-04
7.294136E+03	7.710601E-03	5.760517E-04
7.304127E+03	7.672783E-03	5.777107E-04
7.314119E+03	7.629856E-03	5.789247E-04
7.324111E+03	7.581948E-03	5.796948E-04
7.334103E+03	7.528924E-03	5.800018E-04
7.344095E+03	7.471080E-03	5.798603E-04
7.354087E+03	7.408823E-03	5.792937E-04
7.364079E+03	7.342581E-03	5.783286E-04
7.374071E+03	7.273177E-03	5.770235E-04
7.384063E+03	7.200872E-03	5.753944E-04
7.394055E+03	7.126810E-03	5.735284E-04
7.404047E+03	7.051532E-03	5.714669E-04
7.414039E+03	6.976022E-03	5.692886E-04
7.424031E+03	6.900988E-03	5.670513E-04
7.434023E+03	6.827222E-03	5.648219E-04
7.444015E+03	6.755581E-03	5.626743E-04
7.454007E+03	6.686569E-03	5.606546E-04
7.463999E+03	6.621148E-03	5.588487E-04
7.473991E+03	6.559430E-03	5.572726E-04
7.483983E+03	6.501997E-03	5.559823E-04
7.493975E+03	6.448863E-03	5.549865E-04
7.503967E+03	6.400468E-03	5.543307E-04
7.513959E+03	6.356582E-03	5.540028E-04
7.523951E+03	6.316993E-03	5.539918E-04
7.533943E+03	6.281526E-03	5.542895E-04
7.543935E+03	6.249829E-03	5.548716E-04
7.553927E+03	6.221753E-03	5.557311E-04
7.563919E+03	6.196554E-03	5.568069E-04
7.573911E+03	6.173933E-03	5.580770E-04
7.583903E+03	6.153579E-03	5.595171E-04
7.593895E+03	6.134901E-03	5.610770E-04
7.603886E+03	6.117674E-03	5.627389E-04
7.613878E+03	6.101415E-03	5.644602E-04
7.623870E+03	6.086081E-03	5.662388E-04
7.633862E+03	6.071178E-03	5.680298E-04
7.643854E+03	6.056790E-03	5.698420E-04
7.653846E+03	6.042486E-03	5.716353E-04
7.663838E+03	6.028462E-03	5.734287E-04
7.673830E+03	6.014382E-03	5.751906E-04
7.683822E+03	6.000463E-03	5.769418E-04
7.693814E+03	5.986540E-03	5.786666E-04
7.703806E+03	5.972560E-03	5.803600E-04
7.713798E+03	5.958431E-03	5.820130E-04
7.723790E+03	5.944038E-03	5.836141E-04
7.733782E+03	5.929207E-03	5.851458E-04
7.743774E+03	5.913575E-03	5.865716E-04
7.753766E+03	5.897157E-03	5.878918E-04
