#wls	flux	fluxerr
1.598715E+03	1.103518E-04	8.730480E-06
1.638682E+03	1.095083E-04	8.568042E-06
1.678650E+03	1.081416E-04	8.365476E-06
1.718618E+03	1.062455E-04	8.123759E-06
1.758586E+03	1.038403E-04	7.845962E-06
1.798554E+03	1.009737E-04	7.537119E-06
1.838522E+03	9.767918E-05	7.201105E-06
1.878490E+03	9.405489E-05	6.846374E-06
1.918458E+03	9.019563E-05	6.480799E-06
1.958425E+03	8.621912E-05	6.113530E-06
1.998393E+03	8.225939E-05	5.754415E-06
2.038361E+03	7.847779E-05	5.414669E-06
2.078329E+03	7.504872E-05	5.105767E-06
2.118297E+03	7.219110E-05	4.841483E-06
2.158265E+03	7.021405E-05	4.640684E-06
2.198233E+03	6.943038E-05	4.521256E-06
2.238200E+03	7.014916E-05	4.499609E-06
2.278168E+03	7.267579E-05	4.590706E-06
2.318136E+03	7.730011E-05	4.807349E-06
2.358104E+03	8.431856E-05	5.161636E-06
2.398072E+03	9.405817E-05	5.666350E-06
2.438040E+03	1.068726E-04	6.334610E-06
2.478008E+03	1.231276E-04	7.178933E-06
2.517976E+03	1.431217E-04	8.206650E-06
2.557943E+03	1.670445E-04	9.417874E-06
2.597911E+03	1.948905E-04	1.080117E-05
2.637879E+03	2.264476E-04	1.233389E-05
2.677847E+03	2.612647E-04	1.398149E-05
2.717815E+03	2.987031E-04	1.570130E-05
2.757783E+03	3.380120E-04	1.744738E-05
2.797751E+03	3.783890E-04	1.917411E-05
2.837718E+03	4.190532E-04	2.084005E-05
2.877686E+03	4.593299E-04	2.241203E-05
2.917654E+03	4.986530E-04	2.386475E-05
2.957622E+03	5.366851E-04	2.518597E-05
2.997590E+03	5.732355E-04	2.637160E-05
3.007582E+03	5.821563E-04	2.664813E-05
3.017574E+03	5.909790E-04	2.691636E-05
3.027566E+03	5.997048E-04	2.717644E-05
3.037558E+03	6.083628E-04	2.742976E-05
3.047550E+03	6.169421E-04	2.767593E-05
3.057542E+03	6.254459E-04	2.791515E-05
3.067534E+03	6.338918E-04	2.814829E-05
3.077526E+03	6.422701E-04	2.837500E-05
3.087518E+03	6.505860E-04	2.859557E-05
3.097510E+03	6.588714E-04	2.881149E-05
3.107502E+03	6.671051E-04	2.902189E-05
3.117494E+03	6.753067E-04	2.922769E-05
3.127486E+03	6.834690E-04	2.942863E-05
3.137477E+03	6.916399E-04	2.962683E-05
3.147469E+03	6.997857E-04	2.982090E-05
3.157461E+03	7.079275E-04	3.001178E-05
3.167453E+03	7.160868E-04	3.020044E-05
3.177445E+03	7.242717E-04	3.038725E-05
3.187437E+03	7.324635E-04	3.057145E-05
3.197429E+03	7.407115E-04	3.075513E-05
3.207421E+03	7.489973E-04	3.093756E-05
3.217413E+03	7.573439E-04	3.111969E-05
3.227405E+03	7.657472E-04	3.130137E-05
3.237397E+03	7.742302E-04	3.148356E-05
3.247389E+03	7.828030E-04	3.166667E-05
3.257381E+03	7.914756E-04	3.185111E-05
3.267373E+03	8.002452E-04	3.203676E-05
3.277365E+03	8.091359E-04	3.222458E-05
3.287357E+03	8.181587E-04	3.241501E-05
3.297349E+03	8.273114E-04	3.260794E-05
3.307341E+03	8.366193E-04	3.280435E-05
3.317333E+03	8.460808E-04	3.300416E-05
3.327325E+03	8.557219E-04	3.320837E-05
3.337317E+03	8.655419E-04	3.341692E-05
3.347309E+03	8.755543E-04	3.363030E-05
3.357301E+03	8.857728E-04	3.384901E-05
3.367293E+03	8.962118E-04	3.407357E-05
3.377285E+03	9.068861E-04	3.430450E-05
3.387277E+03	9.177983E-04	3.454186E-05
3.397269E+03	9.289777E-04	3.478672E-05
3.407261E+03	9.404144E-04	3.503865E-05
3.417253E+03	9.521525E-04	3.529926E-05
3.427244E+03	9.641833E-04	3.556817E-05
3.437236E+03	9.765247E-04	3.584600E-05
3.447228E+03	9.891953E-04	3.613337E-05
3.457220E+03	1.002199E-03	3.643040E-05
3.467212E+03	1.015568E-03	3.673817E-05
3.477204E+03	1.029304E-03	3.705672E-05
3.487196E+03	1.043410E-03	3.738609E-05
3.497188E+03	1.057899E-03	3.772670E-05
3.507180E+03	1.072770E-03	3.807850E-05
3.517172E+03	1.088051E-03	3.844242E-05
3.527164E+03	1.103711E-03	3.881735E-05
3.537156E+03	1.119776E-03	3.920418E-05
3.547148E+03	1.136243E-03	3.960279E-05
3.557140E+03	1.153125E-03	4.001351E-05
3.567132E+03	1.170405E-03	4.043565E-05
3.577124E+03	1.188083E-03	4.086901E-05
3.587116E+03	1.206184E-03	4.131441E-05
3.597108E+03	1.224676E-03	4.177062E-05
3.607100E+03	1.243589E-03	4.223847E-05
3.617092E+03	1.262921E-03	4.271780E-05
3.627084E+03	1.282654E-03	4.320788E-05
3.637076E+03	1.302787E-03	4.370855E-05
3.647068E+03	1.323333E-03	4.422015E-05
3.657060E+03	1.344275E-03	4.474194E-05
3.667052E+03	1.365639E-03	4.527472E-05
3.677044E+03	1.387394E-03	4.581728E-05
3.687036E+03	1.409549E-03	4.636986E-05
3.697028E+03	1.432104E-03	4.693228E-05
3.707020E+03	1.455065E-03	4.750469E-05
3.717012E+03	1.478414E-03	4.808631E-05
3.727003E+03	1.502160E-03	4.867740E-05
3.736995E+03	1.526298E-03	4.927759E-05
3.746987E+03	1.550833E-03	4.988700E-05
3.756979E+03	1.575759E-03	5.050531E-05
3.766971E+03	1.601082E-03	5.113257E-05
3.776963E+03	1.626793E-03	5.176840E-05
3.786955E+03	1.652879E-03	5.241227E-05
3.796947E+03	1.679379E-03	5.306530E-05
3.806939E+03	1.706246E-03	5.372589E-05
3.816931E+03	1.733500E-03	5.439458E-05
3.826923E+03	1.761157E-03	5.507177E-05
3.836915E+03	1.789187E-03	5.575637E-05
3.846907E+03	1.817587E-03	5.644822E-05
3.856899E+03	1.846374E-03	5.714775E-05
3.866891E+03	1.875546E-03	5.785474E-05
3.876883E+03	1.905099E-03	5.856902E-05
3.886875E+03	1.935010E-03	5.928980E-05
3.896867E+03	1.965292E-03	6.001735E-05
3.906859E+03	1.995938E-03	6.075135E-05
3.916851E+03	2.026940E-03	6.149150E-05
3.926843E+03	2.058287E-03	6.223741E-05
3.936835E+03	2.089971E-03	6.298870E-05
3.946827E+03	2.121996E-03	6.374547E-05
3.956819E+03	2.154350E-03	6.450728E-05
3.966811E+03	2.186999E-03	6.527306E-05
3.976803E+03	2.219966E-03	6.604346E-05
3.986795E+03	2.253213E-03	6.681727E-05
3.996787E+03	2.286740E-03	6.759450E-05
4.006779E+03	2.320529E-03	6.837454E-05
4.016771E+03	2.354534E-03	6.915609E-05
4.026762E+03	2.388775E-03	6.993966E-05
4.036754E+03	2.423204E-03	7.072393E-05
4.046746E+03	2.457815E-03	7.150870E-05
4.056738E+03	2.492579E-03	7.229318E-05
4.066730E+03	2.527466E-03	7.307652E-05
4.076722E+03	2.562442E-03	7.385786E-05
4.086714E+03	2.597495E-03	7.463689E-05
4.096706E+03	2.632567E-03	7.541203E-05
4.106698E+03	2.667620E-03	7.618234E-05
4.116690E+03	2.702659E-03	7.694807E-05
4.126682E+03	2.737597E-03	7.770688E-05
4.136674E+03	2.772413E-03	7.845836E-05
4.146666E+03	2.807062E-03	7.920145E-05
4.156658E+03	2.841497E-03	7.993497E-05
4.166650E+03	2.875668E-03	8.065779E-05
4.176642E+03	2.909526E-03	8.136878E-05
4.186634E+03	2.943020E-03	8.206673E-05
4.196626E+03	2.976094E-03	8.275046E-05
4.206618E+03	3.008697E-03	8.341878E-05
4.216610E+03	3.040773E-03	8.407049E-05
4.226602E+03	3.072239E-03	8.470367E-05
4.236594E+03	3.103040E-03	8.531715E-05
4.246586E+03	3.133145E-03	8.591051E-05
4.256578E+03	3.162501E-03	8.648267E-05
4.266570E+03	3.190997E-03	8.703101E-05
4.276562E+03	3.218607E-03	8.755532E-05
4.286554E+03	3.245282E-03	8.805469E-05
4.296546E+03	3.270974E-03	8.852829E-05
4.306538E+03	3.295641E-03	8.897545E-05
4.316530E+03	3.319215E-03	8.939486E-05
4.326521E+03	3.341721E-03	8.978768E-05
4.336513E+03	3.363073E-03	9.015204E-05
4.346505E+03	3.383303E-03	9.048937E-05
4.356497E+03	3.402387E-03	9.079949E-05
4.366489E+03	3.420327E-03	9.108291E-05
4.376481E+03	3.437088E-03	9.133922E-05
4.386473E+03	3.452663E-03	9.156873E-05
4.396465E+03	3.467019E-03	9.177095E-05
4.406457E+03	3.480184E-03	9.194712E-05
4.416449E+03	3.492137E-03	9.209668E-05
4.426441E+03	3.502858E-03	9.221904E-05
4.436433E+03	3.512399E-03	9.231547E-05
4.446425E+03	3.520757E-03	9.238571E-05
4.456417E+03	3.527962E-03	9.243040E-05
4.466409E+03	3.534084E-03	9.245121E-05
4.476401E+03	3.539101E-03	9.244736E-05
4.486393E+03	3.543090E-03	9.242068E-05
4.496385E+03	3.546097E-03	9.237217E-05
4.506377E+03	3.548146E-03	9.230219E-05
4.516369E+03	3.549287E-03	9.221182E-05
4.526361E+03	3.549577E-03	9.210235E-05
4.536353E+03	3.549075E-03	9.197505E-05
4.546345E+03	3.547841E-03	9.183122E-05
4.556337E+03	3.545902E-03	9.167130E-05
4.566329E+03	3.543286E-03	9.149583E-05
4.576321E+03	3.540126E-03	9.130795E-05
4.586313E+03	3.536416E-03	9.110729E-05
4.596305E+03	3.532188E-03	9.089444E-05
4.606297E+03	3.527541E-03	9.067169E-05
4.616289E+03	3.522541E-03	9.044055E-05
4.626280E+03	3.517150E-03	9.019982E-05
4.636272E+03	3.511537E-03	8.995357E-05
4.646264E+03	3.505633E-03	8.969988E-05
4.656256E+03	3.499569E-03	8.944189E-05
4.666248E+03	3.493378E-03	8.918024E-05
4.676240E+03	3.487091E-03	8.891556E-05
4.686232E+03	3.480741E-03	8.864849E-05
4.696224E+03	3.474356E-03	8.837958E-05
4.706216E+03	3.468035E-03	8.811121E-05
4.716208E+03	3.461775E-03	8.784315E-05
4.726200E+03	3.455602E-03	8.757594E-05
4.736192E+03	3.449584E-03	8.731113E-05
4.746184E+03	3.443677E-03	8.704754E-05
4.756176E+03	3.438012E-03	8.678836E-05
4.766168E+03	3.432515E-03	8.653159E-05
4.776160E+03	3.427280E-03	8.627955E-05
4.786152E+03	3.422333E-03	8.603281E-05
4.796144E+03	3.417631E-03	8.579023E-05
4.806136E+03	3.413234E-03	8.555324E-05
4.816128E+03	3.409200E-03	8.532328E-05
4.826120E+03	3.405484E-03	8.509917E-05
4.836112E+03	3.402145E-03	8.488235E-05
4.846104E+03	3.399204E-03	8.467335E-05
4.856096E+03	3.396649E-03	8.447185E-05
4.866088E+03	3.394502E-03	8.427844E-05
4.876080E+03	3.392817E-03	8.409447E-05
4.886072E+03	3.391582E-03	8.391966E-05
4.896064E+03	3.390851E-03	8.375539E-05
4.906056E+03	3.390573E-03	8.360047E-05
4.916047E+03	3.390801E-03	8.345628E-05
4.926039E+03	3.391555E-03	8.332341E-05
4.936031E+03	3.392816E-03	8.320146E-05
4.946023E+03	3.394636E-03	8.309183E-05
4.956015E+03	3.396998E-03	8.299425E-05
4.966007E+03	3.399953E-03	8.291005E-05
4.975999E+03	3.403479E-03	8.283893E-05
4.985991E+03	3.407594E-03	8.278144E-05
4.995983E+03	3.412275E-03	8.273726E-05
5.005975E+03	3.417607E-03	8.270863E-05
5.015967E+03	3.423534E-03	8.269444E-05
5.025959E+03	3.430066E-03	8.269518E-05
5.035951E+03	3.437254E-03	8.271235E-05
5.045943E+03	3.445073E-03	8.274566E-05
5.055935E+03	3.453532E-03	8.279566E-05
5.065927E+03	3.462645E-03	8.286297E-05
5.075919E+03	3.472419E-03	8.294821E-05
5.085911E+03	3.482831E-03	8.305114E-05
5.095903E+03	3.493888E-03	8.317244E-05
5.105895E+03	3.505634E-03	8.331359E-05
5.115887E+03	3.518007E-03	8.347356E-05
5.125879E+03	3.531084E-03	8.365474E-05
5.135871E+03	3.544765E-03	8.385532E-05
5.145863E+03	3.559128E-03	8.407770E-05
5.155855E+03	3.574141E-03	8.432180E-05
5.165847E+03	3.589810E-03	8.458839E-05
5.175839E+03	3.606139E-03	8.487826E-05
5.185831E+03	3.623093E-03	8.519132E-05
5.195823E+03	3.640676E-03	8.552848E-05
5.205815E+03	3.658852E-03	8.588965E-05
5.215806E+03	3.677693E-03	8.627746E-05
5.225798E+03	3.697090E-03	8.669016E-05
5.235790E+03	3.717076E-03	8.712954E-05
5.245782E+03	3.737647E-03	8.759646E-05
5.255774E+03	3.758799E-03	8.809185E-05
5.265766E+03	3.780447E-03	8.861478E-05
5.275758E+03	3.802620E-03	8.916702E-05
5.285750E+03	3.825268E-03	8.974853E-05
5.295742E+03	3.848373E-03	9.036011E-05
5.305734E+03	3.871875E-03	9.100151E-05
5.315726E+03	3.895791E-03	9.167438E-05
5.325718E+03	3.920008E-03	9.237734E-05
5.335710E+03	3.944490E-03	9.311082E-05
5.345702E+03	3.969150E-03	9.387407E-05
5.355694E+03	3.993973E-03	9.466807E-05
5.365686E+03	4.018772E-03	9.548967E-05
5.375678E+03	4.043508E-03	9.633927E-05
5.385670E+03	4.068050E-03	9.721502E-05
5.395662E+03	4.092256E-03	9.811478E-05
5.405654E+03	4.115894E-03	9.903419E-05
5.415646E+03	4.138814E-03	9.997079E-05
5.425638E+03	4.160891E-03	1.009226E-04
5.435630E+03	4.181864E-03	1.018841E-04
5.445622E+03	4.201683E-03	1.028551E-04
5.455614E+03	4.220209E-03	1.038326E-04
5.465606E+03	4.237411E-03	1.048154E-04
5.475598E+03	4.253474E-03	1.058077E-04
5.485590E+03	4.268418E-03	1.068090E-04
5.495582E+03	4.282424E-03	1.078233E-04
5.505574E+03	4.295579E-03	1.088519E-04
5.515565E+03	4.308097E-03	1.098996E-04
5.525557E+03	4.319959E-03	1.109651E-04
5.535549E+03	4.331278E-03	1.120506E-04
5.545541E+03	4.342068E-03	1.131556E-04
5.555533E+03	4.352473E-03	1.142831E-04
5.565525E+03	4.362454E-03	1.154313E-04
5.575517E+03	4.372058E-03	1.166006E-04
5.585509E+03	4.381287E-03	1.177903E-04
5.595501E+03	4.390224E-03	1.190018E-04
5.605493E+03	4.398823E-03	1.202330E-04
5.615485E+03	4.407123E-03	1.214843E-04
5.625477E+03	4.415163E-03	1.227557E-04
5.635469E+03	4.422933E-03	1.240463E-04
5.645461E+03	4.430473E-03	1.253563E-04
5.655453E+03	4.437728E-03	1.266835E-04
5.665445E+03	4.444734E-03	1.280279E-04
5.675437E+03	4.451530E-03	1.293899E-04
5.685429E+03	4.458106E-03	1.307684E-04
5.695421E+03	4.464452E-03	1.321624E-04
5.705413E+03	4.470561E-03	1.335707E-04
5.715405E+03	4.476517E-03	1.349952E-04
5.725397E+03	4.482216E-03	1.364320E-04
5.735389E+03	4.487744E-03	1.378829E-04
5.745381E+03	4.493095E-03	1.393470E-04
5.755373E+03	4.498209E-03	1.408216E-04
5.765365E+03	4.503127E-03	1.423074E-04
5.775357E+03	4.507890E-03	1.438048E-04
5.785349E+03	4.512439E-03	1.453114E-04
5.795341E+03	4.516769E-03	1.468261E-04
5.805333E+03	4.520967E-03	1.483513E-04
5.815324E+03	4.524928E-03	1.498827E-04
5.825316E+03	4.528692E-03	1.514209E-04
5.835308E+03	4.532252E-03	1.529652E-04
5.845300E+03	4.535599E-03	1.545144E-04
5.855292E+03	4.538776E-03	1.560694E-04
5.865284E+03	4.541674E-03	1.576258E-04
5.875276E+03	4.544385E-03	1.591862E-04
5.885268E+03	4.546851E-03	1.607478E-04
5.895260E+03	4.549063E-03	1.623097E-04
5.905252E+03	4.551012E-03	1.638709E-04
5.915244E+03	4.552691E-03	1.654304E-04
5.925236E+03	4.554141E-03	1.669892E-04
5.935228E+03	4.555249E-03	1.685425E-04
5.945220E+03	4.556008E-03	1.700892E-04
5.955212E+03	4.556459E-03	1.716302E-04
5.965204E+03	4.556592E-03	1.731645E-04
5.975196E+03	4.556293E-03	1.746871E-04
5.985188E+03	4.555657E-03	1.762008E-04
5.995180E+03	4.554515E-03	1.776984E-04
6.005172E+03	4.553014E-03	1.791849E-04
6.015164E+03	4.550985E-03	1.806528E-04
6.025156E+03	4.548417E-03	1.821010E-04
6.035148E+03	4.545351E-03	1.835302E-04
6.045140E+03	4.541721E-03	1.849369E-04
6.055132E+03	4.537517E-03	1.863199E-04
6.065124E+03	4.532617E-03	1.876734E-04
6.075116E+03	4.527117E-03	1.890003E-04
6.085108E+03	4.520844E-03	1.902924E-04
6.095100E+03	4.513893E-03	1.915528E-04
6.105092E+03	4.506194E-03	1.927777E-04
6.115083E+03	4.497685E-03	1.939632E-04
6.125075E+03	4.488348E-03	1.951075E-04
6.135067E+03	4.478231E-03	1.962118E-04
6.145059E+03	4.467263E-03	1.972718E-04
6.155051E+03	4.455435E-03	1.982861E-04
6.165043E+03	4.442845E-03	1.992581E-04
6.175035E+03	4.429372E-03	2.001812E-04
6.185027E+03	4.415062E-03	2.010565E-04
6.195019E+03	4.399962E-03	2.018852E-04
6.205011E+03	4.384117E-03	2.026683E-04
6.215003E+03	4.367465E-03	2.034020E-04
6.224995E+03	4.349997E-03	2.040850E-04
6.234987E+03	4.331763E-03	2.047186E-04
6.244979E+03	4.312701E-03	2.052991E-04
6.254971E+03	4.292861E-03	2.058277E-04
6.264963E+03	4.272240E-03	2.063034E-04
6.274955E+03	4.250888E-03	2.067279E-04
6.284947E+03	4.228805E-03	2.071002E-04
6.294939E+03	4.205986E-03	2.074192E-04
6.304931E+03	4.182490E-03	2.076871E-04
6.314923E+03	4.158370E-03	2.079057E-04
6.324915E+03	4.133574E-03	2.080718E-04
6.334907E+03	4.108157E-03	2.081872E-04
6.344899E+03	4.082178E-03	2.082546E-04
6.354891E+03	4.055586E-03	2.082704E-04
6.364883E+03	4.028498E-03	2.082401E-04
6.374875E+03	4.000918E-03	2.081635E-04
6.384867E+03	3.972852E-03	2.080402E-04
6.394859E+03	3.944309E-03	2.078702E-04
6.404851E+03	3.915406E-03	2.076594E-04
6.414842E+03	3.886097E-03	2.074048E-04
6.424834E+03	3.856505E-03	2.071125E-04
6.434826E+03	3.826636E-03	2.067827E-04
6.444818E+03	3.796502E-03	2.064158E-04
6.454810E+03	3.766171E-03	2.060152E-04
6.464802E+03	3.735652E-03	2.055812E-04
6.474794E+03	3.705013E-03	2.051173E-04
6.484786E+03	3.674153E-03	2.046180E-04
6.494778E+03	3.643196E-03	2.040899E-04
6.504770E+03	3.612156E-03	2.035337E-04
6.514762E+03	3.580989E-03	2.029469E-04
6.524754E+03	3.549763E-03	2.023334E-04
6.534746E+03	3.518492E-03	2.016938E-04
6.544738E+03	3.487191E-03	2.010290E-04
6.554730E+03	3.455870E-03	2.003398E-04
6.564722E+03	3.424602E-03	1.996302E-04
6.574714E+03	3.393342E-03	1.988978E-04
6.584706E+03	3.362106E-03	1.981436E-04
6.594698E+03	3.330961E-03	1.973716E-04
6.604690E+03	3.299922E-03	1.965829E-04
6.614682E+03	3.268948E-03	1.957752E-04
6.624674E+03	3.238106E-03	1.949525E-04
6.634666E+03	3.207355E-03	1.941128E-04
6.644658E+03	3.176817E-03	1.932634E-04
6.654650E+03	3.146398E-03	1.923990E-04
6.664642E+03	3.116107E-03	1.915202E-04
6.674634E+03	3.086014E-03	1.906316E-04
6.684626E+03	3.056128E-03	1.897340E-04
6.694618E+03	3.026410E-03	1.888252E-04
6.704609E+03	2.996871E-03	1.879061E-04
6.714601E+03	2.967574E-03	1.869811E-04
6.724593E+03	2.938478E-03	1.860476E-04
6.734585E+03	2.909646E-03	1.851100E-04
6.744577E+03	2.880983E-03	1.841626E-04
6.754569E+03	2.852604E-03	1.832129E-04
6.764561E+03	2.824414E-03	1.822553E-04
6.774553E+03	2.796525E-03	1.812971E-04
6.784545E+03	2.768843E-03	1.803326E-04
6.794537E+03	2.741428E-03	1.793661E-04
6.804529E+03	2.714286E-03	1.783981E-04
6.814521E+03	2.687376E-03	1.774263E-04
6.824513E+03	2.660752E-03	1.764547E-04
6.834505E+03	2.634374E-03	1.754808E-04
6.844497E+03	2.608294E-03	1.745084E-04
6.854489E+03	2.582423E-03	1.735320E-04
6.864481E+03	2.556861E-03	1.725584E-04
6.874473E+03	2.531566E-03	1.715852E-04
6.884465E+03	2.506540E-03	1.706130E-04
6.894457E+03	2.481743E-03	1.696391E-04
6.904449E+03	2.457270E-03	1.686703E-04
6.914441E+03	2.432985E-03	1.676979E-04
6.924433E+03	2.409031E-03	1.667318E-04
6.934425E+03	2.385317E-03	1.657659E-04
6.944417E+03	2.361845E-03	1.648010E-04
6.954409E+03	2.338662E-03	1.638404E-04
6.964401E+03	2.315727E-03	1.628815E-04
6.974393E+03	2.293039E-03	1.619247E-04
6.984385E+03	2.270599E-03	1.609703E-04
6.994377E+03	2.248409E-03	1.600186E-04
7.004368E+03	2.226469E-03	1.590699E-04
7.014360E+03	2.204735E-03	1.581215E-04
7.024352E+03	2.183294E-03	1.571798E-04
7.034344E+03	2.162017E-03	1.562357E-04
7.044336E+03	2.141033E-03	1.552989E-04
7.054328E+03	2.120213E-03	1.543603E-04
7.064320E+03	2.099642E-03	1.534262E-04
7.074312E+03	2.079275E-03	1.524937E-04
7.084304E+03	2.059115E-03	1.515631E-04
7.094296E+03	2.039199E-03	1.506375E-04
7.104288E+03	2.019446E-03	1.497112E-04
7.114280E+03	1.999895E-03	1.487872E-04
7.124272E+03	1.980506E-03	1.478627E-04
7.134264E+03	1.961316E-03	1.469408E-04
7.144256E+03	1.942326E-03	1.460217E-04
7.154248E+03	1.923494E-03	1.451025E-04
7.164240E+03	1.904859E-03	1.441863E-04
7.174232E+03	1.886343E-03	1.432673E-04
7.184224E+03	1.868021E-03	1.423516E-04
7.194216E+03	1.849855E-03	1.414364E-04
7.204208E+03	1.831805E-03	1.405188E-04
7.214200E+03	1.813910E-03	1.396019E-04
7.224192E+03	1.796168E-03	1.386859E-04
7.234184E+03	1.778543E-03	1.377679E-04
7.244176E+03	1.761034E-03	1.368482E-04
7.254168E+03	1.743640E-03	1.359270E-04
7.264160E+03	1.726365E-03	1.350043E-04
7.274152E+03	1.709206E-03	1.340804E-04
7.284144E+03	1.692093E-03	1.331499E-04
7.294136E+03	1.675101E-03	1.322186E-04
7.304127E+03	1.658192E-03	1.312839E-04
7.314119E+03	1.641335E-03	1.303432E-04
7.324111E+03	1.624566E-03	1.293997E-04
7.334103E+03	1.607820E-03	1.284482E-04
7.344095E+03	1.591099E-03	1.274889E-04
7.354087E+03	1.574406E-03	1.265223E-04
7.364079E+03	1.557715E-03	1.255461E-04
7.374071E+03	1.541058E-03	1.245633E-04
7.384063E+03	1.524345E-03	1.235664E-04
7.394055E+03	1.507646E-03	1.225612E-04
7.404047E+03	1.490901E-03	1.215429E-04
7.414039E+03	1.474148E-03	1.205146E-04
7.424031E+03	1.457361E-03	1.194743E-04
7.434023E+03	1.440548E-03	1.184225E-04
7.444015E+03	1.423743E-03	1.173623E-04
7.454007E+03	1.406924E-03	1.162918E-04
7.463999E+03	1.390187E-03	1.152190E-04
7.473991E+03	1.373473E-03	1.141391E-04
7.483983E+03	1.356850E-03	1.130580E-04
7.493975E+03	1.340292E-03	1.119734E-04
7.503967E+03	1.323889E-03	1.108931E-04
7.513959E+03	1.307614E-03	1.098150E-04
7.523951E+03	1.291473E-03	1.087397E-04
7.533943E+03	1.275495E-03	1.076697E-04
7.543935E+03	1.259682E-03	1.066055E-04
7.553927E+03	1.244092E-03	1.055521E-04
7.563919E+03	1.228672E-03	1.045051E-04
7.573911E+03	1.213449E-03	1.034671E-04
7.583903E+03	1.198453E-03	1.024408E-04
7.593895E+03	1.183659E-03	1.014242E-04
7.603886E+03	1.169092E-03	1.004197E-04
7.613878E+03	1.154729E-03	9.942550E-05
7.623870E+03	1.140620E-03	9.844611E-05
7.633862E+03	1.126718E-03	9.747759E-05
7.643854E+03	1.113073E-03	9.652443E-05
7.653846E+03	1.099634E-03	9.558256E-05
7.663838E+03	1.086454E-03	9.465658E-05
7.673830E+03	1.073481E-03	9.374231E-05
7.683822E+03	1.060769E-03	9.284453E-05
7.693814E+03	1.048291E-03	9.196109E-05
7.703806E+03	1.036048E-03	9.109228E-05
7.713798E+03	1.024041E-03	9.023848E-05
7.723790E+03	1.012271E-03	8.939972E-05
7.733782E+03	1.000737E-03	8.857630E-05
7.743774E+03	9.894194E-04	8.776654E-05
7.753766E+03	9.783623E-04	8.697457E-05
