#wls	flux	fluxerr
1.598715E+03	2.697815E-05	2.518322E-06
1.638682E+03	2.664170E-05	2.458818E-06
1.678650E+03	2.630085E-05	2.399198E-06
1.718618E+03	2.596075E-05	2.339961E-06
1.758586E+03	2.562994E-05	2.281886E-06
1.798554E+03	2.532005E-05	2.225986E-06
1.838522E+03	2.503543E-05	2.172592E-06
1.878490E+03	2.479290E-05	2.123076E-06
1.918458E+03	2.460513E-05	2.078385E-06
1.958425E+03	2.448810E-05	2.039677E-06
1.998393E+03	2.446034E-05	2.008240E-06
2.038361E+03	2.454794E-05	1.985876E-06
2.078329E+03	2.478174E-05	1.974638E-06
2.118297E+03	2.520371E-05	1.977291E-06
2.158265E+03	2.588122E-05	1.998344E-06
2.198233E+03	2.689374E-05	2.042880E-06
2.238200E+03	2.833774E-05	2.116835E-06
2.278168E+03	3.032288E-05	2.226612E-06
2.318136E+03	3.295755E-05	2.377943E-06
2.358104E+03	3.634848E-05	2.575873E-06
2.398072E+03	4.060515E-05	2.825060E-06
2.438040E+03	4.583977E-05	3.129755E-06
2.478008E+03	5.216821E-05	3.493848E-06
2.517976E+03	5.968891E-05	3.919468E-06
2.557943E+03	6.847973E-05	4.406895E-06
2.597911E+03	7.857358E-05	4.953169E-06
2.637879E+03	8.996410E-05	5.552752E-06
2.677847E+03	1.026145E-04	6.198335E-06
2.717815E+03	1.164731E-04	6.881981E-06
2.757783E+03	1.314700E-04	7.595046E-06
2.797751E+03	1.475148E-04	8.328202E-06
2.837718E+03	1.645061E-04	9.072117E-06
2.877686E+03	1.823498E-04	9.818433E-06
2.917654E+03	2.009498E-04	1.055923E-05
2.957622E+03	2.202511E-04	1.128935E-05
2.997590E+03	2.402097E-04	1.200461E-05
3.007582E+03	2.453083E-04	1.218122E-05
3.017574E+03	2.504448E-04	1.235662E-05
3.027566E+03	2.556194E-04	1.253079E-05
3.037558E+03	2.608435E-04	1.270428E-05
3.047550E+03	2.661120E-04	1.287681E-05
3.057542E+03	2.714253E-04	1.304838E-05
3.067534E+03	2.767903E-04	1.321929E-05
3.077526E+03	2.822019E-04	1.338927E-05
3.087518E+03	2.876614E-04	1.355838E-05
3.097510E+03	2.931821E-04	1.372721E-05
3.107502E+03	2.987536E-04	1.389524E-05
3.117494E+03	3.043838E-04	1.406282E-05
3.127486E+03	3.100687E-04	1.422975E-05
3.137477E+03	3.158290E-04	1.439694E-05
3.147469E+03	3.216487E-04	1.456363E-05
3.157461E+03	3.275369E-04	1.473021E-05
3.167453E+03	3.335028E-04	1.489706E-05
3.177445E+03	3.395498E-04	1.506431E-05
3.187437E+03	3.456688E-04	1.523151E-05
3.197429E+03	3.518829E-04	1.539965E-05
3.207421E+03	3.581835E-04	1.556831E-05
3.217413E+03	3.645815E-04	1.573794E-05
3.227405E+03	3.710754E-04	1.590842E-05
3.237397E+03	3.776766E-04	1.608021E-05
3.247389E+03	3.843909E-04	1.625350E-05
3.257381E+03	3.912240E-04	1.642850E-05
3.267373E+03	3.981756E-04	1.660514E-05
3.277365E+03	4.052590E-04	1.678393E-05
3.287357E+03	4.124812E-04	1.696510E-05
3.297349E+03	4.198428E-04	1.714863E-05
3.307341E+03	4.273582E-04	1.733505E-05
3.317333E+03	4.350291E-04	1.752437E-05
3.327325E+03	4.428708E-04	1.771715E-05
3.337317E+03	4.508853E-04	1.791339E-05
3.347309E+03	4.590820E-04	1.811342E-05
3.357301E+03	4.674707E-04	1.831756E-05
3.367293E+03	4.760614E-04	1.852612E-05
3.377285E+03	4.848645E-04	1.873943E-05
3.387277E+03	4.938835E-04	1.895755E-05
3.397269E+03	5.031364E-04	1.918110E-05
3.407261E+03	5.126195E-04	1.940987E-05
3.417253E+03	5.223587E-04	1.964473E-05
3.427244E+03	5.323497E-04	1.988547E-05
3.437236E+03	5.426036E-04	2.013241E-05
3.447228E+03	5.531305E-04	2.038585E-05
3.457220E+03	5.639335E-04	2.064584E-05
3.467212E+03	5.750306E-04	2.091295E-05
3.477204E+03	5.864252E-04	2.118724E-05
3.487196E+03	5.981214E-04	2.146879E-05
3.497188E+03	6.101308E-04	2.175796E-05
3.507180E+03	6.224583E-04	2.205485E-05
3.517172E+03	6.351239E-04	2.236013E-05
3.527164E+03	6.481154E-04	2.267330E-05
3.537156E+03	6.614522E-04	2.299500E-05
3.547148E+03	6.751369E-04	2.332529E-05
3.557140E+03	6.891800E-04	2.366449E-05
3.567132E+03	7.035754E-04	2.401237E-05
3.577124E+03	7.183238E-04	2.436892E-05
3.587116E+03	7.334437E-04	2.473468E-05
3.597108E+03	7.489186E-04	2.510895E-05
3.607100E+03	7.647659E-04	2.549221E-05
3.617092E+03	7.809857E-04	2.588433E-05
3.627084E+03	7.975686E-04	2.628488E-05
3.637076E+03	8.145134E-04	2.669371E-05
3.647068E+03	8.318273E-04	2.711093E-05
3.657060E+03	8.494991E-04	2.753606E-05
3.667052E+03	8.675447E-04	2.796950E-05
3.677044E+03	8.859424E-04	2.841044E-05
3.687036E+03	9.046977E-04	2.885894E-05
3.697028E+03	9.238064E-04	2.931476E-05
3.707020E+03	9.432733E-04	2.977793E-05
3.717012E+03	9.630831E-04	3.024786E-05
3.727003E+03	9.832395E-04	3.072457E-05
3.736995E+03	1.003736E-03	3.120772E-05
3.746987E+03	1.024574E-03	3.169730E-05
3.756979E+03	1.045747E-03	3.219295E-05
3.766971E+03	1.067257E-03	3.269462E-05
3.776963E+03	1.089092E-03	3.320191E-05
3.786955E+03	1.111244E-03	3.371440E-05
3.796947E+03	1.133734E-03	3.423264E-05
3.806939E+03	1.156528E-03	3.475553E-05
3.816931E+03	1.179636E-03	3.528325E-05
3.826923E+03	1.203067E-03	3.581597E-05
3.836915E+03	1.226797E-03	3.635290E-05
3.846907E+03	1.250821E-03	3.689375E-05
3.856899E+03	1.275147E-03	3.743874E-05
3.866891E+03	1.299772E-03	3.798763E-05
3.876883E+03	1.324690E-03	3.854019E-05
3.886875E+03	1.349883E-03	3.909580E-05
3.896867E+03	1.375357E-03	3.965458E-05
3.906859E+03	1.401105E-03	4.021622E-05
3.916851E+03	1.427120E-03	4.078046E-05
3.926843E+03	1.453391E-03	4.134694E-05
3.936835E+03	1.479910E-03	4.191539E-05
3.946827E+03	1.506680E-03	4.248584E-05
3.956819E+03	1.533690E-03	4.305791E-05
3.966811E+03	1.560915E-03	4.363088E-05
3.976803E+03	1.588370E-03	4.420517E-05
3.986795E+03	1.616027E-03	4.477999E-05
3.996787E+03	1.643887E-03	4.535534E-05
4.006779E+03	1.671934E-03	4.593082E-05
4.016771E+03	1.700139E-03	4.650561E-05
4.026762E+03	1.728513E-03	4.708008E-05
4.036754E+03	1.757023E-03	4.765339E-05
4.046746E+03	1.785667E-03	4.822556E-05
4.056738E+03	1.814425E-03	4.879609E-05
4.066730E+03	1.843275E-03	4.936456E-05
4.076722E+03	1.872196E-03	4.993045E-05
4.086714E+03	1.901183E-03	5.049381E-05
4.096706E+03	1.930192E-03	5.105363E-05
4.106698E+03	1.959203E-03	5.160953E-05
4.116690E+03	1.988219E-03	5.216183E-05
4.126682E+03	2.017183E-03	5.270921E-05
4.136674E+03	2.046082E-03	5.325161E-05
4.146666E+03	2.074886E-03	5.378854E-05
4.156658E+03	2.103567E-03	5.431949E-05
4.166650E+03	2.132091E-03	5.484399E-05
4.176642E+03	2.160428E-03	5.536154E-05
4.186634E+03	2.188542E-03	5.587162E-05
4.196626E+03	2.216399E-03	5.637374E-05
4.206618E+03	2.243964E-03	5.686742E-05
4.216610E+03	2.271196E-03	5.735211E-05
4.226602E+03	2.298038E-03	5.782679E-05
4.236594E+03	2.324450E-03	5.829095E-05
4.246586E+03	2.350407E-03	5.874450E-05
4.256578E+03	2.375868E-03	5.918694E-05
4.266570E+03	2.400743E-03	5.961660E-05
4.276562E+03	2.425007E-03	6.003339E-05
4.286554E+03	2.448607E-03	6.043667E-05
4.296546E+03	2.471491E-03	6.082572E-05
4.306538E+03	2.493604E-03	6.119983E-05
4.316530E+03	2.514866E-03	6.155768E-05
4.326521E+03	2.535261E-03	6.189950E-05
4.336513E+03	2.554686E-03	6.222346E-05
4.346505E+03	2.573129E-03	6.252992E-05
4.356497E+03	2.590544E-03	6.281840E-05
4.366489E+03	2.606918E-03	6.308921E-05
4.376481E+03	2.622230E-03	6.334248E-05
4.386473E+03	2.636496E-03	6.357921E-05
4.396465E+03	2.649716E-03	6.379999E-05
4.406457E+03	2.661944E-03	6.400664E-05
4.416449E+03	2.673188E-03	6.419975E-05
4.426441E+03	2.683457E-03	6.437941E-05
4.436433E+03	2.692809E-03	6.454674E-05
4.446425E+03	2.701254E-03	6.470170E-05
4.456417E+03	2.708823E-03	6.484464E-05
4.466409E+03	2.715574E-03	6.497667E-05
4.476401E+03	2.721491E-03	6.509695E-05
4.486393E+03	2.726630E-03	6.520645E-05
4.496385E+03	2.731023E-03	6.530552E-05
4.506377E+03	2.734680E-03	6.539392E-05
4.516369E+03	2.737632E-03	6.547199E-05
4.526361E+03	2.739913E-03	6.554005E-05
4.536353E+03	2.741557E-03	6.559847E-05
4.546345E+03	2.742599E-03	6.564763E-05
4.556337E+03	2.743048E-03	6.568727E-05
4.566329E+03	2.742913E-03	6.571712E-05
4.576321E+03	2.742282E-03	6.573887E-05
4.586313E+03	2.741138E-03	6.575166E-05
4.596305E+03	2.739491E-03	6.575529E-05
4.606297E+03	2.737406E-03	6.575085E-05
4.616289E+03	2.734919E-03	6.573882E-05
4.626280E+03	2.731988E-03	6.571778E-05
4.636272E+03	2.728730E-03	6.569015E-05
4.646264E+03	2.725078E-03	6.565393E-05
4.656256E+03	2.721122E-03	6.561094E-05
4.666248E+03	2.716875E-03	6.556113E-05
4.676240E+03	2.712346E-03	6.550444E-05
4.686232E+03	2.707550E-03	6.544088E-05
4.696224E+03	2.702496E-03	6.537038E-05
4.706216E+03	2.697253E-03	6.529434E-05
4.716208E+03	2.691801E-03	6.521205E-05
4.726200E+03	2.686156E-03	6.512364E-05
4.736192E+03	2.680354E-03	6.502977E-05
4.746184E+03	2.674354E-03	6.492926E-05
4.756176E+03	2.668246E-03	6.482414E-05
4.766168E+03	2.661963E-03	6.471261E-05
4.776160E+03	2.655569E-03	6.459607E-05
4.786152E+03	2.649076E-03	6.447472E-05
4.796144E+03	2.642440E-03	6.434739E-05
4.806136E+03	2.635698E-03	6.421491E-05
4.816128E+03	2.628890E-03	6.407816E-05
4.826120E+03	2.621972E-03	6.393607E-05
4.836112E+03	2.614981E-03	6.378951E-05
4.846104E+03	2.607927E-03	6.363870E-05
4.856096E+03	2.600794E-03	6.348328E-05
4.866088E+03	2.593593E-03	6.332355E-05
4.876080E+03	2.586359E-03	6.316044E-05
4.886072E+03	2.579076E-03	6.299359E-05
4.896064E+03	2.571780E-03	6.282399E-05
4.906056E+03	2.564429E-03	6.265071E-05
4.916047E+03	2.557058E-03	6.247472E-05
4.926039E+03	2.549676E-03	6.229643E-05
4.936031E+03	2.542268E-03	6.211555E-05
4.946023E+03	2.534867E-03	6.193312E-05
4.956015E+03	2.527457E-03	6.174890E-05
4.966007E+03	2.520073E-03	6.156400E-05
4.975999E+03	2.512700E-03	6.137822E-05
4.985991E+03	2.505343E-03	6.119197E-05
4.995983E+03	2.497989E-03	6.100515E-05
5.005975E+03	2.490696E-03	6.081947E-05
5.015967E+03	2.483422E-03	6.063417E-05
5.025959E+03	2.476178E-03	6.044982E-05
5.035951E+03	2.468994E-03	6.026750E-05
5.045943E+03	2.461856E-03	6.008715E-05
5.055935E+03	2.454773E-03	5.990937E-05
5.065927E+03	2.447752E-03	5.973469E-05
5.075919E+03	2.440803E-03	5.956370E-05
5.085911E+03	2.433909E-03	5.939640E-05
5.095903E+03	2.427080E-03	5.923341E-05
5.105895E+03	2.420348E-03	5.907593E-05
5.115887E+03	2.413674E-03	5.892343E-05
5.125879E+03	2.407114E-03	5.877776E-05
5.135871E+03	2.400606E-03	5.863778E-05
5.145863E+03	2.394205E-03	5.850536E-05
5.155855E+03	2.387897E-03	5.838059E-05
5.165847E+03	2.381691E-03	5.826418E-05
5.175839E+03	2.375596E-03	5.815686E-05
5.185831E+03	2.369598E-03	5.805877E-05
5.195823E+03	2.363704E-03	5.797058E-05
5.205815E+03	2.357900E-03	5.789250E-05
5.215806E+03	2.352243E-03	5.782642E-05
5.225798E+03	2.346669E-03	5.777134E-05
5.235790E+03	2.341213E-03	5.772859E-05
5.245782E+03	2.335882E-03	5.769894E-05
5.255774E+03	2.330684E-03	5.768311E-05
5.265766E+03	2.325581E-03	5.768070E-05
5.275758E+03	2.320603E-03	5.769298E-05
5.285750E+03	2.315733E-03	5.772013E-05
5.295742E+03	2.310978E-03	5.776280E-05
5.305734E+03	2.306320E-03	5.782111E-05
5.315726E+03	2.301787E-03	5.789627E-05
5.325718E+03	2.297333E-03	5.798770E-05
5.335710E+03	2.292959E-03	5.809590E-05
5.345702E+03	2.288643E-03	5.822079E-05
5.355694E+03	2.284403E-03	5.836336E-05
5.365686E+03	2.280164E-03	5.852211E-05
5.375678E+03	2.275938E-03	5.869783E-05
5.385670E+03	2.271689E-03	5.888998E-05
5.395662E+03	2.267377E-03	5.909792E-05
5.405654E+03	2.262918E-03	5.931975E-05
5.415646E+03	2.258268E-03	5.955463E-05
5.425638E+03	2.253397E-03	5.980162E-05
5.435630E+03	2.248189E-03	6.005710E-05
5.445622E+03	2.242631E-03	6.032010E-05
5.455614E+03	2.236658E-03	6.058813E-05
5.465606E+03	2.230250E-03	6.085993E-05
5.475598E+03	2.223503E-03	6.113733E-05
5.485590E+03	2.216420E-03	6.141966E-05
5.495582E+03	2.209089E-03	6.170859E-05
5.505574E+03	2.201549E-03	6.200452E-05
5.515565E+03	2.193901E-03	6.230959E-05
5.525557E+03	2.186134E-03	6.262281E-05
5.535549E+03	2.178296E-03	6.294494E-05
5.545541E+03	2.170393E-03	6.327550E-05
5.555533E+03	2.162491E-03	6.361584E-05
5.565525E+03	2.154569E-03	6.396478E-05
5.575517E+03	2.146644E-03	6.432227E-05
5.585509E+03	2.138717E-03	6.468774E-05
5.595501E+03	2.130826E-03	6.506188E-05
5.605493E+03	2.122944E-03	6.544330E-05
5.615485E+03	2.115089E-03	6.583209E-05
5.625477E+03	2.107276E-03	6.622821E-05
5.635469E+03	2.099498E-03	6.663105E-05
5.645461E+03	2.091771E-03	6.704061E-05
5.655453E+03	2.084067E-03	6.745559E-05
5.665445E+03	2.076401E-03	6.787601E-05
5.675437E+03	2.068786E-03	6.830195E-05
5.685429E+03	2.061215E-03	6.873278E-05
5.695421E+03	2.053682E-03	6.916791E-05
5.705413E+03	2.046181E-03	6.960673E-05
5.715405E+03	2.038746E-03	7.005012E-05
5.725397E+03	2.031328E-03	7.049601E-05
5.735389E+03	2.023962E-03	7.094534E-05
5.745381E+03	2.016643E-03	7.139753E-05
5.755373E+03	2.009342E-03	7.185136E-05
5.765365E+03	2.002074E-03	7.230695E-05
5.775357E+03	1.994855E-03	7.276467E-05
5.785349E+03	1.987655E-03	7.322315E-05
5.795341E+03	1.980471E-03	7.368195E-05
5.805333E+03	1.973338E-03	7.414216E-05
5.815324E+03	1.966208E-03	7.460171E-05
5.825316E+03	1.959096E-03	7.506092E-05
5.835308E+03	1.951997E-03	7.551935E-05
5.845300E+03	1.944905E-03	7.597655E-05
5.855292E+03	1.937838E-03	7.643297E-05
5.865284E+03	1.930748E-03	7.688649E-05
5.875276E+03	1.923670E-03	7.733831E-05
5.885268E+03	1.916582E-03	7.778726E-05
5.895260E+03	1.909476E-03	7.823286E-05
5.905252E+03	1.902349E-03	7.867475E-05
5.915244E+03	1.895197E-03	7.911254E-05
5.925236E+03	1.888037E-03	7.954672E-05
5.935228E+03	1.880822E-03	7.997511E-05
5.945220E+03	1.873548E-03	8.039731E-05
5.955212E+03	1.866233E-03	8.081384E-05
5.965204E+03	1.858872E-03	8.122432E-05
5.975196E+03	1.851420E-03	8.162655E-05
5.985188E+03	1.843918E-03	8.202204E-05
5.995180E+03	1.836296E-03	8.240753E-05
6.005172E+03	1.828616E-03	8.278553E-05
6.015164E+03	1.820811E-03	8.315275E-05
6.025156E+03	1.812878E-03	8.350879E-05
6.035148E+03	1.804836E-03	8.385426E-05
6.045140E+03	1.796660E-03	8.418779E-05
6.055132E+03	1.788350E-03	8.450905E-05
6.065124E+03	1.779860E-03	8.481560E-05
6.075116E+03	1.771230E-03	8.510908E-05
6.085108E+03	1.762394E-03	8.538600E-05
6.095100E+03	1.753394E-03	8.564811E-05
6.105092E+03	1.744206E-03	8.589390E-05
6.115083E+03	1.734808E-03	8.612201E-05
6.125075E+03	1.725199E-03	8.633199E-05
6.135067E+03	1.715399E-03	8.652465E-05
6.145059E+03	1.705385E-03	8.669838E-05
6.155051E+03	1.695158E-03	8.685302E-05
6.165043E+03	1.684757E-03	8.699022E-05
6.175035E+03	1.674143E-03	8.710767E-05
6.185027E+03	1.663333E-03	8.720600E-05
6.195019E+03	1.652351E-03	8.728613E-05
6.205011E+03	1.641216E-03	8.734886E-05
6.215003E+03	1.629907E-03	8.739288E-05
6.224995E+03	1.618427E-03	8.741799E-05
6.234987E+03	1.606793E-03	8.742501E-05
6.244979E+03	1.594988E-03	8.741267E-05
6.254971E+03	1.583032E-03	8.738195E-05
6.264963E+03	1.570926E-03	8.733262E-05
6.274955E+03	1.558693E-03	8.726578E-05
6.284947E+03	1.546333E-03	8.718124E-05
6.294939E+03	1.533846E-03	8.707887E-05
6.304931E+03	1.521256E-03	8.695990E-05
6.314923E+03	1.508582E-03	8.682528E-05
6.324915E+03	1.495809E-03	8.667391E-05
6.334907E+03	1.482956E-03	8.650697E-05
6.344899E+03	1.470045E-03	8.632550E-05
6.354891E+03	1.457059E-03	8.612844E-05
6.364883E+03	1.444040E-03	8.591826E-05
6.374875E+03	1.430987E-03	8.569489E-05
6.384867E+03	1.417905E-03	8.545848E-05
6.394859E+03	1.404794E-03	8.520907E-05
6.404851E+03	1.391695E-03	8.494919E-05
6.414842E+03	1.378593E-03	8.467781E-05
6.424834E+03	1.365528E-03	8.439749E-05
6.434826E+03	1.352501E-03	8.410835E-05
6.444818E+03	1.339515E-03	8.381057E-05
6.454810E+03	1.326589E-03	8.350553E-05
6.464802E+03	1.313728E-03	8.319349E-05
6.474794E+03	1.300950E-03	8.287581E-05
6.484786E+03	1.288219E-03	8.255019E-05
6.494778E+03	1.275575E-03	8.221936E-05
6.504770E+03	1.263019E-03	8.188347E-05
6.514762E+03	1.250535E-03	8.154158E-05
6.524754E+03	1.238141E-03	8.119501E-05
6.534746E+03	1.225840E-03	8.084407E-05
6.544738E+03	1.213633E-03	8.048891E-05
6.554730E+03	1.201521E-03	8.012979E-05
6.564722E+03	1.189526E-03	7.976827E-05
6.574714E+03	1.177627E-03	7.940313E-05
6.584706E+03	1.165828E-03	7.903475E-05
6.594698E+03	1.154148E-03	7.866459E-05
6.604690E+03	1.142587E-03	7.829278E-05
6.614682E+03	1.131129E-03	7.791834E-05
6.624674E+03	1.119794E-03	7.754284E-05
6.634666E+03	1.108562E-03	7.716508E-05
6.644658E+03	1.097472E-03	7.678787E-05
6.654650E+03	1.086489E-03	7.640893E-05
6.664642E+03	1.075612E-03	7.602844E-05
6.674634E+03	1.064862E-03	7.564792E-05
6.684626E+03	1.054238E-03	7.526748E-05
6.694618E+03	1.043724E-03	7.488613E-05
6.704609E+03	1.033320E-03	7.450406E-05
6.714601E+03	1.023044E-03	7.412273E-05
6.724593E+03	1.012880E-03	7.374113E-05
6.734585E+03	1.002846E-03	7.336065E-05
6.744577E+03	9.929049E-04	7.297885E-05
6.754569E+03	9.830963E-04	7.259871E-05
6.764561E+03	9.733826E-04	7.221761E-05
6.774553E+03	9.638009E-04	7.183846E-05
6.784545E+03	9.543161E-04	7.145880E-05
6.794537E+03	9.449461E-04	7.108010E-05
6.804529E+03	9.356914E-04	7.070255E-05
6.814521E+03	9.265350E-04	7.032501E-05
6.824513E+03	9.174945E-04	6.994894E-05
6.834505E+03	9.085531E-04	6.957322E-05
6.844497E+03	8.997282E-04	6.919930E-05
6.854489E+03	8.909864E-04	6.882477E-05
6.864481E+03	8.823615E-04	6.845234E-05
6.874473E+03	8.738369E-04	6.808089E-05
6.884465E+03	8.654130E-04	6.771056E-05
6.894457E+03	8.570737E-04	6.734023E-05
6.904449E+03	8.488518E-04	6.697259E-05
6.914441E+03	8.406988E-04	6.660395E-05
6.924433E+03	8.326635E-04	6.623827E-05
6.934425E+03	8.247137E-04	6.587315E-05
6.944417E+03	8.168499E-04	6.550873E-05
6.954409E+03	8.090878E-04	6.514639E-05
6.964401E+03	8.014119E-04	6.478499E-05
6.974393E+03	7.938224E-04	6.442467E-05
6.984385E+03	7.863194E-04	6.406555E-05
6.994377E+03	7.789031E-04	6.370776E-05
7.004368E+03	7.715736E-04	6.335140E-05
7.014360E+03	7.643158E-04	6.299535E-05
7.024352E+03	7.571601E-04	6.264221E-05
7.034344E+03	7.500615E-04	6.228838E-05
7.044336E+03	7.430649E-04	6.193768E-05
7.054328E+03	7.361260E-04	6.158652E-05
7.064320E+03	7.292743E-04	6.123746E-05
7.074312E+03	7.224955E-04	6.088939E-05
7.084304E+03	7.157896E-04	6.054242E-05
7.094296E+03	7.091710E-04	6.019786E-05
7.104288E+03	7.026113E-04	5.985339E-05
7.114280E+03	6.961248E-04	5.951032E-05
7.124272E+03	6.896977E-04	5.916755E-05
7.134264E+03	6.833443E-04	5.882639E-05
7.144256E+03	6.770645E-04	5.848693E-05
7.154248E+03	6.708447E-04	5.814808E-05
7.164240E+03	6.646988E-04	5.781112E-05
7.174232E+03	6.585999E-04	5.747379E-05
7.184224E+03	6.525750E-04	5.713854E-05
7.194216E+03	6.466111E-04	5.680429E-05
7.204208E+03	6.406952E-04	5.646998E-05
7.214200E+03	6.348407E-04	5.613687E-05
7.224192E+03	6.290478E-04	5.580504E-05
7.234184E+03	6.233040E-04	5.547347E-05
7.244176E+03	6.176095E-04	5.514223E-05
7.254168E+03	6.119649E-04	5.481143E-05
7.264160E+03	6.063704E-04	5.448118E-05
7.274152E+03	6.008266E-04	5.415158E-05
7.284144E+03	5.953091E-04	5.382049E-05
7.294136E+03	5.898432E-04	5.349025E-05
7.304127E+03	5.844173E-04	5.315987E-05
7.314119E+03	5.790197E-04	5.282834E-05
7.324111E+03	5.736633E-04	5.249688E-05
7.334103E+03	5.683248E-04	5.216342E-05
7.344095E+03	5.630054E-04	5.182809E-05
7.354087E+03	5.577061E-04	5.149103E-05
7.364079E+03	5.524165E-04	5.115130E-05
7.374071E+03	5.471491E-04	5.081011E-05
7.384063E+03	5.418706E-04	5.046438E-05
7.394055E+03	5.366058E-04	5.011645E-05
7.404047E+03	5.313329E-04	4.976431E-05
7.414039E+03	5.260651E-04	4.940920E-05
7.424031E+03	5.207925E-04	4.905023E-05
7.434023E+03	5.155169E-04	4.868758E-05
7.444015E+03	5.102506E-04	4.832243E-05
7.454007E+03	5.049841E-04	4.795392E-05
7.463999E+03	4.997513E-04	4.758527E-05
7.473991E+03	4.945313E-04	4.721456E-05
7.483983E+03	4.893467E-04	4.684398E-05
7.493975E+03	4.841875E-04	4.647260E-05
7.503967E+03	4.790860E-04	4.610358E-05
7.513959E+03	4.740318E-04	4.573599E-05
7.523951E+03	4.690254E-04	4.536991E-05
7.533943E+03	4.640773E-04	4.500643E-05
7.543935E+03	4.591875E-04	4.464560E-05
7.553927E+03	4.543761E-04	4.428946E-05
7.563919E+03	4.496228E-04	4.393609E-05
7.573911E+03	4.449376E-04	4.358654E-05
7.583903E+03	4.403300E-04	4.324180E-05
7.593895E+03	4.357898E-04	4.290094E-05
7.603886E+03	4.313266E-04	4.256499E-05
7.613878E+03	4.269302E-04	4.223299E-05
7.623870E+03	4.226194E-04	4.190689E-05
7.633862E+03	4.183748E-04	4.158482E-05
7.643854E+03	4.142148E-04	4.126869E-05
7.653846E+03	4.101200E-04	4.095664E-05
7.663838E+03	4.061088E-04	4.065057E-05
7.673830E+03	4.021621E-04	4.034863E-05
7.683822E+03	3.982979E-04	4.005270E-05
7.693814E+03	3.945064E-04	3.976187E-05
7.703806E+03	3.907873E-04	3.947615E-05
7.713798E+03	3.871399E-04	3.919555E-05
7.723790E+03	3.835639E-04	3.892010E-05
7.733782E+03	3.800588E-04	3.864981E-05
7.743774E+03	3.766154E-04	3.838381E-05
7.753766E+03	3.732508E-04	3.812388E-05
