#wls	flux	fluxerr
1.598715E+03	1.564038E-05	5.994133E-07
1.638682E+03	1.557208E-05	5.942935E-07
1.678650E+03	1.552595E-05	5.899803E-07
1.718618E+03	1.549987E-05	5.863826E-07
1.758586E+03	1.550069E-05	5.837471E-07
1.798554E+03	1.552347E-05	5.818746E-07
1.838522E+03	1.557815E-05	5.811221E-07
1.878490E+03	1.565701E-05	5.811848E-07
1.918458E+03	1.577018E-05	5.824213E-07
1.958425E+03	1.591311E-05	5.846430E-07
1.998393E+03	1.609328E-05	5.881036E-07
2.038361E+03	1.630942E-05	5.927313E-07
2.078329E+03	1.656338E-05	5.985678E-07
2.118297E+03	1.686333E-05	6.058794E-07
2.158265E+03	1.720549E-05	6.144972E-07
2.198233E+03	1.760182E-05	6.248133E-07
2.238200E+03	1.804579E-05	6.365555E-07
2.278168E+03	1.855021E-05	6.501347E-07
2.318136E+03	1.911889E-05	6.656339E-07
2.358104E+03	1.975264E-05	6.830285E-07
2.398072E+03	2.045936E-05	7.025333E-07
2.438040E+03	2.125131E-05	7.245032E-07
2.478008E+03	2.212727E-05	7.488222E-07
2.517976E+03	2.310099E-05	7.758757E-07
2.557943E+03	2.418374E-05	8.059498E-07
2.597911E+03	2.537999E-05	8.390915E-07
2.637879E+03	2.671103E-05	8.758911E-07
2.677847E+03	2.818357E-05	9.164380E-07
2.717815E+03	2.981798E-05	9.612513E-07
2.757783E+03	3.163240E-05	1.010752E-06
2.797751E+03	3.364687E-05	1.065394E-06
2.837718E+03	3.588347E-05	1.125669E-06
2.877686E+03	3.837172E-05	1.192268E-06
2.917654E+03	4.114437E-05	1.265939E-06
2.957622E+03	4.423775E-05	1.347494E-06
2.997590E+03	4.769203E-05	1.437808E-06
3.007582E+03	4.862105E-05	1.461982E-06
3.017574E+03	4.957266E-05	1.486674E-06
3.027566E+03	5.054730E-05	1.511890E-06
3.037558E+03	5.155762E-05	1.538001E-06
3.047550E+03	5.259214E-05	1.564657E-06
3.057542E+03	5.365759E-05	1.592050E-06
3.067534E+03	5.474835E-05	1.620007E-06
3.077526E+03	5.587763E-05	1.648909E-06
3.087518E+03	5.703992E-05	1.678585E-06
3.097510E+03	5.822941E-05	1.708855E-06
3.107502E+03	5.945978E-05	1.740113E-06
3.117494E+03	6.072534E-05	1.772181E-06
3.127486E+03	6.202684E-05	1.805071E-06
3.137477E+03	6.336502E-05	1.838796E-06
3.147469E+03	6.474752E-05	1.873567E-06
3.157461E+03	6.616149E-05	1.909000E-06
3.167453E+03	6.762852E-05	1.945708E-06
3.177445E+03	6.912857E-05	1.983102E-06
3.187437E+03	7.068378E-05	2.021807E-06
3.197429E+03	7.227365E-05	2.061222E-06
3.207421E+03	7.392078E-05	2.101982E-06
3.217413E+03	7.561167E-05	2.143686E-06
3.227405E+03	7.735464E-05	2.186560E-06
3.237397E+03	7.915081E-05	2.230619E-06
3.247389E+03	8.100130E-05	2.275881E-06
3.257381E+03	8.290720E-05	2.322362E-06
3.267373E+03	8.486964E-05	2.370077E-06
3.277365E+03	8.688979E-05	2.419045E-06
3.287357E+03	8.897680E-05	2.469503E-06
3.297349E+03	9.112396E-05	2.521246E-06
3.307341E+03	9.333243E-05	2.574292E-06
3.317333E+03	9.561169E-05	2.628882E-06
3.327325E+03	9.795474E-05	2.684806E-06
3.337317E+03	1.003713E-04	2.742312E-06
3.347309E+03	1.028627E-04	2.801417E-06
3.357301E+03	1.054305E-04	2.862141E-06
3.367293E+03	1.080762E-04	2.924502E-06
3.377285E+03	1.108099E-04	2.988757E-06
3.387277E+03	1.136156E-04	3.054445E-06
3.397269E+03	1.165034E-04	3.121821E-06
3.407261E+03	1.194932E-04	3.191390E-06
3.417253E+03	1.225591E-04	3.262437E-06
3.427244E+03	1.257303E-04	3.335719E-06
3.437236E+03	1.289900E-04	3.410756E-06
3.447228E+03	1.323490E-04	3.487814E-06
3.457220E+03	1.358091E-04	3.566910E-06
3.467212E+03	1.393719E-04	3.648057E-06
3.477204E+03	1.430390E-04	3.731272E-06
3.487196E+03	1.468221E-04	3.816831E-06
3.497188E+03	1.507128E-04	3.904480E-06
3.507180E+03	1.547232E-04	3.994504E-06
3.517172E+03	1.588445E-04	4.086646E-06
3.527164E+03	1.630990E-04	4.181447E-06
3.537156E+03	1.674784E-04	4.278659E-06
3.547148E+03	1.719738E-04	4.378017E-06
3.557140E+03	1.766078E-04	4.480069E-06
3.567132E+03	1.813826E-04	4.584828E-06
3.577124E+03	1.862889E-04	4.692027E-06
3.587116E+03	1.913392E-04	4.801942E-06
3.597108E+03	1.965353E-04	4.914578E-06
3.607100E+03	2.018675E-04	5.029658E-06
3.617092E+03	2.073600E-04	5.147743E-06
3.627084E+03	2.130030E-04	5.268551E-06
3.637076E+03	2.188095E-04	5.392359E-06
3.647068E+03	2.247694E-04	5.518881E-06
3.657060E+03	2.308956E-04	5.648389E-06
3.667052E+03	2.371898E-04	5.780881E-06
3.677044E+03	2.436531E-04	5.916343E-06
3.687036E+03	2.502866E-04	6.054755E-06
3.697028E+03	2.571039E-04	6.196404E-06
3.707020E+03	2.640810E-04	6.340667E-06
3.717012E+03	2.712565E-04	6.488423E-06
3.727003E+03	2.786058E-04	6.639042E-06
3.736995E+03	2.861553E-04	6.793102E-06
3.746987E+03	2.938801E-04	6.949967E-06
3.756979E+03	3.017932E-04	7.109902E-06
3.766971E+03	3.099082E-04	7.273180E-06
3.776963E+03	3.182124E-04	7.439453E-06
3.786955E+03	3.267190E-04	7.608987E-06
3.796947E+03	3.354147E-04	7.781424E-06
3.806939E+03	3.443127E-04	7.957026E-06
3.816931E+03	3.534127E-04	8.135739E-06
3.826923E+03	3.627142E-04	8.317509E-06
3.836915E+03	3.722170E-04	8.502282E-06
3.846907E+03	3.819199E-04	8.689991E-06
3.856899E+03	3.918221E-04	8.880573E-06
3.866891E+03	4.019365E-04	9.074280E-06
3.876883E+03	4.122481E-04	9.270728E-06
3.886875E+03	4.227554E-04	9.469845E-06
3.896867E+03	4.334710E-04	9.671872E-06
3.906859E+03	4.443790E-04	9.876421E-06
3.916851E+03	4.554922E-04	1.008373E-05
3.926843E+03	4.667940E-04	1.029341E-05
3.936835E+03	4.782823E-04	1.050538E-05
3.946827E+03	4.899695E-04	1.071987E-05
3.956819E+03	5.018388E-04	1.093649E-05
3.966811E+03	5.139024E-04	1.115548E-05
3.976803E+03	5.261282E-04	1.137611E-05
3.986795E+03	5.385433E-04	1.159896E-05
3.996787E+03	5.511301E-04	1.182361E-05
4.006779E+03	5.638706E-04	1.204966E-05
4.016771E+03	5.767772E-04	1.227738E-05
4.026762E+03	5.898316E-04	1.250635E-05
4.036754E+03	6.030306E-04	1.273650E-05
4.046746E+03	6.163869E-04	1.296808E-05
4.056738E+03	6.298661E-04	1.320039E-05
4.066730E+03	6.434651E-04	1.343334E-05
4.076722E+03	6.571959E-04	1.366719E-05
4.086714E+03	6.710239E-04	1.390124E-05
4.096706E+03	6.849452E-04	1.413542E-05
4.106698E+03	6.989716E-04	1.436997E-05
4.116690E+03	7.130674E-04	1.460420E-05
4.126682E+03	7.272281E-04	1.483803E-05
4.136674E+03	7.414325E-04	1.507105E-05
4.146666E+03	7.556911E-04	1.530352E-05
4.156658E+03	7.699658E-04	1.553470E-05
4.166650E+03	7.842495E-04	1.576449E-05
4.176642E+03	7.985341E-04	1.599277E-05
4.186634E+03	8.127780E-04	1.621876E-05
4.196626E+03	8.269707E-04	1.644232E-05
4.206618E+03	8.410994E-04	1.666325E-05
4.216610E+03	8.551339E-04	1.688103E-05
4.226602E+03	8.690411E-04	1.709507E-05
4.236594E+03	8.827853E-04	1.730477E-05
4.246586E+03	8.963447E-04	1.750978E-05
4.256578E+03	9.096936E-04	1.770970E-05
4.266570E+03	9.227709E-04	1.790345E-05
4.276562E+03	9.355415E-04	1.809045E-05
4.286554E+03	9.480276E-04	1.827127E-05
4.296546E+03	9.602210E-04	1.844584E-05
4.306538E+03	9.721122E-04	1.861411E-05
4.316530E+03	9.836899E-04	1.877597E-05
4.326521E+03	9.949738E-04	1.893193E-05
4.336513E+03	1.005950E-03	1.908182E-05
4.346505E+03	1.016619E-03	1.922577E-05
4.356497E+03	1.026980E-03	1.936388E-05
4.366489E+03	1.037031E-03	1.949625E-05
4.376481E+03	1.046771E-03	1.962291E-05
4.386473E+03	1.056212E-03	1.974420E-05
4.396465E+03	1.065366E-03	1.986042E-05
4.406457E+03	1.074228E-03	1.997154E-05
4.416449E+03	1.082810E-03	2.007785E-05
4.426441E+03	1.091138E-03	2.017989E-05
4.436433E+03	1.099190E-03	2.027732E-05
4.446425E+03	1.106991E-03	2.037066E-05
4.456417E+03	1.114521E-03	2.045957E-05
4.466409E+03	1.121755E-03	2.054369E-05
4.476401E+03	1.128673E-03	2.062268E-05
4.486393E+03	1.135270E-03	2.069649E-05
4.496385E+03	1.141477E-03	2.076396E-05
4.506377E+03	1.147321E-03	2.082561E-05
4.516369E+03	1.152736E-03	2.088031E-05
4.526361E+03	1.157734E-03	2.092834E-05
4.536353E+03	1.162267E-03	2.096887E-05
4.546345E+03	1.166348E-03	2.100220E-05
4.556337E+03	1.169945E-03	2.102782E-05
4.566329E+03	1.173074E-03	2.104604E-05
4.576321E+03	1.175703E-03	2.105637E-05
4.586313E+03	1.177835E-03	2.105889E-05
4.596305E+03	1.179472E-03	2.105368E-05
4.606297E+03	1.180615E-03	2.104081E-05
4.616289E+03	1.181268E-03	2.102039E-05
4.626280E+03	1.181420E-03	2.099226E-05
4.636272E+03	1.181091E-03	2.095680E-05
4.646264E+03	1.180286E-03	2.091412E-05
4.656256E+03	1.178996E-03	2.086411E-05
4.666248E+03	1.177227E-03	2.080689E-05
4.676240E+03	1.175002E-03	2.074288E-05
4.686232E+03	1.172313E-03	2.067197E-05
4.696224E+03	1.169183E-03	2.059457E-05
4.706216E+03	1.165620E-03	2.051083E-05
4.716208E+03	1.161620E-03	2.042070E-05
4.726200E+03	1.157192E-03	2.032434E-05
4.736192E+03	1.152360E-03	2.022216E-05
4.746184E+03	1.147120E-03	2.011414E-05
4.756176E+03	1.141485E-03	2.000044E-05
4.766168E+03	1.135491E-03	1.988172E-05
4.776160E+03	1.129122E-03	1.975772E-05
4.786152E+03	1.122417E-03	1.962906E-05
4.796144E+03	1.115375E-03	1.949574E-05
4.806136E+03	1.108019E-03	1.935815E-05
4.816128E+03	1.100360E-03	1.921648E-05
4.826120E+03	1.092412E-03	1.907093E-05
4.836112E+03	1.084198E-03	1.892190E-05
4.846104E+03	1.075742E-03	1.876977E-05
4.856096E+03	1.067066E-03	1.861494E-05
4.866088E+03	1.058170E-03	1.845736E-05
4.876080E+03	1.049099E-03	1.829780E-05
4.886072E+03	1.039842E-03	1.813604E-05
4.896064E+03	1.030432E-03	1.797262E-05
4.906056E+03	1.020878E-03	1.780770E-05
4.916047E+03	1.011202E-03	1.764161E-05
4.926039E+03	1.001413E-03	1.747450E-05
4.936031E+03	9.915321E-04	1.730668E-05
4.946023E+03	9.815567E-04	1.713811E-05
4.956015E+03	9.715067E-04	1.696910E-05
4.966007E+03	9.614013E-04	1.679994E-05
4.975999E+03	9.512383E-04	1.663059E-05
4.985991E+03	9.410363E-04	1.646133E-05
4.995983E+03	9.308031E-04	1.629227E-05
5.005975E+03	9.205462E-04	1.612352E-05
5.015967E+03	9.102830E-04	1.595535E-05
5.025959E+03	9.000106E-04	1.578769E-05
5.035951E+03	8.897364E-04	1.562063E-05
5.045943E+03	8.794764E-04	1.545443E-05
5.055935E+03	8.692460E-04	1.528934E-05
5.065927E+03	8.590329E-04	1.512511E-05
5.075919E+03	8.488436E-04	1.496183E-05
5.085911E+03	8.387013E-04	1.479989E-05
5.095903E+03	8.286111E-04	1.463934E-05
5.105895E+03	8.185608E-04	1.447996E-05
5.115887E+03	8.085725E-04	1.432210E-05
5.125879E+03	7.986422E-04	1.416567E-05
5.135871E+03	7.887824E-04	1.401087E-05
5.145863E+03	7.789890E-04	1.385761E-05
5.155855E+03	7.692655E-04	1.370593E-05
5.165847E+03	7.596315E-04	1.355615E-05
5.175839E+03	7.500738E-04	1.340803E-05
5.185831E+03	7.406033E-04	1.326172E-05
5.195823E+03	7.312219E-04	1.311726E-05
5.205815E+03	7.219246E-04	1.297453E-05
5.215806E+03	7.127278E-04	1.283380E-05
5.225798E+03	7.036254E-04	1.269496E-05
5.235790E+03	6.946182E-04	1.255800E-05
5.245782E+03	6.857071E-04	1.242291E-05
5.255774E+03	6.768992E-04	1.228981E-05
5.265766E+03	6.681873E-04	1.215854E-05
5.275758E+03	6.595774E-04	1.202918E-05
5.285750E+03	6.510616E-04	1.190154E-05
5.295742E+03	6.426451E-04	1.177569E-05
5.305734E+03	6.343196E-04	1.165145E-05
5.315726E+03	6.260956E-04	1.152898E-05
5.325718E+03	6.179577E-04	1.140797E-05
5.335710E+03	6.099096E-04	1.128846E-05
5.345702E+03	6.019479E-04	1.117036E-05
5.355694E+03	5.940753E-04	1.105370E-05
5.365686E+03	5.862760E-04	1.093816E-05
5.375678E+03	5.785622E-04	1.082395E-05
5.385670E+03	5.709386E-04	1.071112E-05
5.395662E+03	5.633981E-04	1.059954E-05
5.405654E+03	5.559558E-04	1.048946E-05
5.415646E+03	5.486093E-04	1.038082E-05
5.425638E+03	5.413667E-04	1.027377E-05
5.435630E+03	5.342243E-04	1.016821E-05
5.445622E+03	5.271893E-04	1.006429E-05
5.455614E+03	5.202572E-04	9.961894E-06
5.465606E+03	5.134288E-04	9.861041E-06
5.475598E+03	5.067098E-04	9.761829E-06
5.485590E+03	5.000948E-04	9.664151E-06
5.495582E+03	4.935884E-04	9.568093E-06
5.505574E+03	4.871806E-04	9.473453E-06
5.515565E+03	4.808802E-04	9.380403E-06
5.525557E+03	4.746815E-04	9.288828E-06
5.535549E+03	4.685881E-04	9.198799E-06
5.545541E+03	4.625894E-04	9.110109E-06
5.555533E+03	4.566935E-04	9.022916E-06
5.565525E+03	4.508942E-04	8.937099E-06
5.575517E+03	4.451901E-04	8.852634E-06
5.585509E+03	4.395798E-04	8.769493E-06
5.595501E+03	4.340616E-04	8.687647E-06
5.605493E+03	4.286342E-04	8.607069E-06
5.615485E+03	4.232959E-04	8.527733E-06
5.625477E+03	4.180450E-04	8.449608E-06
5.635469E+03	4.128802E-04	8.372669E-06
5.645461E+03	4.077957E-04	8.296808E-06
5.655453E+03	4.027903E-04	8.221999E-06
5.665445E+03	3.978664E-04	8.148300E-06
5.675437E+03	3.930187E-04	8.075609E-06
5.685429E+03	3.882498E-04	8.003981E-06
5.695421E+03	3.835507E-04	7.933238E-06
5.705413E+03	3.789239E-04	7.863437E-06
5.715405E+03	3.743682E-04	7.794559E-06
5.725397E+03	3.698788E-04	7.726510E-06
5.735389E+03	3.654546E-04	7.659275E-06
5.745381E+03	3.610984E-04	7.592914E-06
5.755373E+03	3.568018E-04	7.527260E-06
5.765365E+03	3.525709E-04	7.462448E-06
5.775357E+03	3.483979E-04	7.398320E-06
5.785349E+03	3.442855E-04	7.334936E-06
5.795341E+03	3.402293E-04	7.272213E-06
5.805333E+03	3.362320E-04	7.210212E-06
5.815324E+03	3.322861E-04	7.148783E-06
5.825316E+03	3.283976E-04	7.088058E-06
5.835308E+03	3.245593E-04	7.027889E-06
5.845300E+03	3.207738E-04	6.968340E-06
5.855292E+03	3.170373E-04	6.909334E-06
5.865284E+03	3.133524E-04	6.850937E-06
5.875276E+03	3.097154E-04	6.793073E-06
5.885268E+03	3.061259E-04	6.735740E-06
5.895260E+03	3.025832E-04	6.678931E-06
5.905252E+03	2.990870E-04	6.622644E-06
5.915244E+03	2.956339E-04	6.566814E-06
5.925236E+03	2.922263E-04	6.511499E-06
5.935228E+03	2.888638E-04	6.456698E-06
5.945220E+03	2.855431E-04	6.402344E-06
5.955212E+03	2.822639E-04	6.348438E-06
5.965204E+03	2.790287E-04	6.295041E-06
5.975196E+03	2.758367E-04	6.242148E-06
5.985188E+03	2.726824E-04	6.189636E-06
5.995180E+03	2.695707E-04	6.137625E-06
6.005172E+03	2.665012E-04	6.086115E-06
6.015164E+03	2.634708E-04	6.035043E-06
6.025156E+03	2.604818E-04	5.984468E-06
6.035148E+03	2.575338E-04	5.934389E-06
6.045140E+03	2.546262E-04	5.884800E-06
6.055132E+03	2.517612E-04	5.835761E-06
6.065124E+03	2.489383E-04	5.787267E-06
6.075116E+03	2.461544E-04	5.739256E-06
6.085108E+03	2.434166E-04	5.691899E-06
6.095100E+03	2.407191E-04	5.645073E-06
6.105092E+03	2.380665E-04	5.598891E-06
6.115083E+03	2.354555E-04	5.553288E-06
6.125075E+03	2.328881E-04	5.508317E-06
6.135067E+03	2.303636E-04	5.463971E-06
6.145059E+03	2.278813E-04	5.420244E-06
6.155051E+03	2.254386E-04	5.377077E-06
6.165043E+03	2.230345E-04	5.334461E-06
6.175035E+03	2.206643E-04	5.292288E-06
6.185027E+03	2.183341E-04	5.250710E-06
6.195019E+03	2.160388E-04	5.209615E-06
6.205011E+03	2.137825E-04	5.169105E-06
6.215003E+03	2.115643E-04	5.129172E-06
6.224995E+03	2.093816E-04	5.089758E-06
6.234987E+03	2.072360E-04	5.050907E-06
6.244979E+03	2.051248E-04	5.012565E-06
6.254971E+03	2.030454E-04	4.974670E-06
6.264963E+03	2.009972E-04	4.937222E-06
6.274955E+03	1.989818E-04	4.900258E-06
6.284947E+03	1.969927E-04	4.863630E-06
6.294939E+03	1.950333E-04	4.827430E-06
6.304931E+03	1.931013E-04	4.791600E-06
6.314923E+03	1.911942E-04	4.756090E-06
6.324915E+03	1.893135E-04	4.720940E-06
6.334907E+03	1.874585E-04	4.686142E-06
6.344899E+03	1.856271E-04	4.651644E-06
6.354891E+03	1.838186E-04	4.617434E-06
6.364883E+03	1.820364E-04	4.583606E-06
6.374875E+03	1.802759E-04	4.550050E-06
6.384867E+03	1.785387E-04	4.516809E-06
6.394859E+03	1.768257E-04	4.483914E-06
6.404851E+03	1.751349E-04	4.451315E-06
6.414842E+03	1.734691E-04	4.419095E-06
6.424834E+03	1.718284E-04	4.387255E-06
6.434826E+03	1.702140E-04	4.355836E-06
6.444818E+03	1.686241E-04	4.324795E-06
6.454810E+03	1.670634E-04	4.294258E-06
6.464802E+03	1.655314E-04	4.264222E-06
6.474794E+03	1.640295E-04	4.234727E-06
6.484786E+03	1.625587E-04	4.205805E-06
6.494778E+03	1.611204E-04	4.177498E-06
6.504770E+03	1.597103E-04	4.149703E-06
6.514762E+03	1.583315E-04	4.122505E-06
6.524754E+03	1.569781E-04	4.095758E-06
6.534746E+03	1.556531E-04	4.069544E-06
6.544738E+03	1.543510E-04	4.043723E-06
6.554730E+03	1.530728E-04	4.018330E-06
6.564722E+03	1.518148E-04	3.993271E-06
6.574714E+03	1.505797E-04	3.968623E-06
6.584706E+03	1.493639E-04	3.944294E-06
6.594698E+03	1.481686E-04	3.920318E-06
6.604690E+03	1.469915E-04	3.896644E-06
6.614682E+03	1.458324E-04	3.873266E-06
6.624674E+03	1.446909E-04	3.850179E-06
6.634666E+03	1.435681E-04	3.827414E-06
6.644658E+03	1.424619E-04	3.804923E-06
6.654650E+03	1.413719E-04	3.782697E-06
6.664642E+03	1.402994E-04	3.760774E-06
6.674634E+03	1.392439E-04	3.739143E-06
6.684626E+03	1.382035E-04	3.717758E-06
6.694618E+03	1.371808E-04	3.696694E-06
6.704609E+03	1.361724E-04	3.675861E-06
6.714601E+03	1.351795E-04	3.655294E-06
6.724593E+03	1.342031E-04	3.635025E-06
6.734585E+03	1.332414E-04	3.615008E-06
6.744577E+03	1.322955E-04	3.595275E-06
6.754569E+03	1.313650E-04	3.575822E-06
6.764561E+03	1.304482E-04	3.556600E-06
6.774553E+03	1.295475E-04	3.537684E-06
6.784545E+03	1.286612E-04	3.519025E-06
6.794537E+03	1.277889E-04	3.500618E-06
6.804529E+03	1.269303E-04	3.482456E-06
6.814521E+03	1.260865E-04	3.464575E-06
6.824513E+03	1.252572E-04	3.446966E-06
6.834505E+03	1.244405E-04	3.429582E-06
6.844497E+03	1.236391E-04	3.412501E-06
6.854489E+03	1.228498E-04	3.395635E-06
6.864481E+03	1.220737E-04	3.379018E-06
6.874473E+03	1.213119E-04	3.362683E-06
6.884465E+03	1.205613E-04	3.346547E-06
6.894457E+03	1.198246E-04	3.330685E-06
6.904449E+03	1.191012E-04	3.315086E-06
6.914441E+03	1.183896E-04	3.299711E-06
6.924433E+03	1.176894E-04	3.284550E-06
6.934425E+03	1.170020E-04	3.269643E-06
6.944417E+03	1.163269E-04	3.254980E-06
6.954409E+03	1.156625E-04	3.240519E-06
6.964401E+03	1.150100E-04	3.226293E-06
6.974393E+03	1.143691E-04	3.212299E-06
6.984385E+03	1.137382E-04	3.198495E-06
6.994377E+03	1.131198E-04	3.184949E-06
7.004368E+03	1.125111E-04	3.171585E-06
7.014360E+03	1.119131E-04	3.158435E-06
7.024352E+03	1.113269E-04	3.145533E-06
7.034344E+03	1.107496E-04	3.132798E-06
7.044336E+03	1.101838E-04	3.120305E-06
7.054328E+03	1.096266E-04	3.107970E-06
7.064320E+03	1.090804E-04	3.095869E-06
7.074312E+03	1.085437E-04	3.083959E-06
7.084304E+03	1.080163E-04	3.072236E-06
7.094296E+03	1.074980E-04	3.060698E-06
7.104288E+03	1.069901E-04	3.049378E-06
7.114280E+03	1.064910E-04	3.038236E-06
7.124272E+03	1.060005E-04	3.027269E-06
7.134264E+03	1.055198E-04	3.016511E-06
7.144256E+03	1.050474E-04	3.005921E-06
7.154248E+03	1.045845E-04	2.995534E-06
7.164240E+03	1.041309E-04	2.985349E-06
7.174232E+03	1.036852E-04	2.975323E-06
7.184224E+03	1.032486E-04	2.965492E-06
7.194216E+03	1.028195E-04	2.955816E-06
7.204208E+03	1.024005E-04	2.946368E-06
7.214200E+03	1.019888E-04	2.937069E-06
7.224192E+03	1.015869E-04	2.927993E-06
7.234184E+03	1.011934E-04	2.919100E-06
7.244176E+03	1.008081E-04	2.910387E-06
7.254168E+03	1.004309E-04	2.901853E-06
7.264160E+03	1.000630E-04	2.893532E-06
7.274152E+03	9.970302E-05	2.885385E-06
7.284144E+03	9.935079E-05	2.877410E-06
7.294136E+03	9.900882E-05	2.869680E-06
7.304127E+03	9.867438E-05	2.862118E-06
7.314119E+03	9.834740E-05	2.854722E-06
7.324111E+03	9.803034E-05	2.847566E-06
7.334103E+03	9.772052E-05	2.840572E-06
7.344095E+03	9.741783E-05	2.833739E-06
7.354087E+03	9.712349E-05	2.827102E-06
7.364079E+03	9.683611E-05	2.820624E-06
7.374071E+03	9.655688E-05	2.814338E-06
7.384063E+03	9.628316E-05	2.808171E-06
7.394055E+03	9.601484E-05	2.802118E-06
7.404047E+03	9.575316E-05	2.796218E-06
7.414039E+03	9.549548E-05	2.790394E-06
7.424031E+03	9.524300E-05	2.784682E-06
7.434023E+03	9.499311E-05	2.779007E-06
7.444015E+03	9.474955E-05	2.773478E-06
7.454007E+03	9.450973E-05	2.768021E-06
7.463999E+03	9.427484E-05	2.762672E-06
7.473991E+03	9.404485E-05	2.757430E-06
7.483983E+03	9.382094E-05	2.752331E-06
7.493975E+03	9.360304E-05	2.747374E-06
7.503967E+03	9.338983E-05	2.742521E-06
7.513959E+03	9.318253E-05	2.737808E-06
7.523951E+03	9.297981E-05	2.733198E-06
7.533943E+03	9.278161E-05	2.728689E-06
7.543935E+03	9.258914E-05	2.724317E-06
7.553927E+03	9.240110E-05	2.720046E-06
7.563919E+03	9.221868E-05	2.715910E-06
7.573911E+03	9.203934E-05	2.711836E-06
7.583903E+03	9.186425E-05	2.707860E-06
7.593895E+03	9.169341E-05	2.703981E-06
7.603886E+03	9.152675E-05	2.700199E-06
7.613878E+03	9.136298E-05	2.696476E-06
7.623870E+03	9.120207E-05	2.692812E-06
7.633862E+03	9.104520E-05	2.689243E-06
7.643854E+03	9.089113E-05	2.685732E-06
7.653846E+03	9.073978E-05	2.682278E-06
7.663838E+03	9.059238E-05	2.678918E-06
7.673830E+03	9.044641E-05	2.675578E-06
7.683822E+03	9.030307E-05	2.672294E-06
7.693814E+03	9.016357E-05	2.669103E-06
7.703806E+03	9.002540E-05	2.665932E-06
7.713798E+03	8.988978E-05	2.662815E-06
7.723790E+03	8.975666E-05	2.659754E-06
7.733782E+03	8.962603E-05	2.656749E-06
7.743774E+03	8.949910E-05	2.653835E-06
7.753766E+03	8.937334E-05	2.650939E-06
