#wls	flux	fluxerr
1.598715E+03	1.418166E-05	8.456389E-07
1.638682E+03	1.422226E-05	8.443801E-07
1.678650E+03	1.428214E-05	8.441560E-07
1.718618E+03	1.436224E-05	8.450046E-07
1.758586E+03	1.446355E-05	8.469643E-07
1.798554E+03	1.458977E-05	8.502305E-07
1.838522E+03	1.473946E-05	8.546938E-07
1.878490E+03	1.491384E-05	8.604011E-07
1.918458E+03	1.511969E-05	8.677147E-07
1.958425E+03	1.535588E-05	8.765363E-07
1.998393E+03	1.562410E-05	8.869277E-07
2.038361E+03	1.592898E-05	8.991132E-07
2.078329E+03	1.627261E-05	9.131676E-07
2.118297E+03	1.666021E-05	9.293349E-07
2.158265E+03	1.708854E-05	9.473829E-07
2.198233E+03	1.756917E-05	9.678970E-07
2.238200E+03	1.810242E-05	9.908280E-07
2.278168E+03	1.869174E-05	1.016295E-06
2.318136E+03	1.934411E-05	1.044600E-06
2.358104E+03	2.006714E-05	1.076066E-06
2.398072E+03	2.086580E-05	1.110861E-06
2.438040E+03	2.174899E-05	1.149349E-06
2.478008E+03	2.271939E-05	1.191551E-06
2.517976E+03	2.379434E-05	1.238242E-06
2.557943E+03	2.497809E-05	1.289490E-06
2.597911E+03	2.628283E-05	1.345757E-06
2.637879E+03	2.772194E-05	1.407540E-06
2.677847E+03	2.931423E-05	1.475580E-06
2.717815E+03	3.107195E-05	1.550253E-06
2.757783E+03	3.301273E-05	1.632172E-06
2.797751E+03	3.516505E-05	1.722441E-06
2.837718E+03	3.754142E-05	1.821333E-06
2.877686E+03	4.017464E-05	1.930058E-06
2.917654E+03	4.309581E-05	2.049679E-06
2.957622E+03	4.633361E-05	2.181073E-06
2.997590E+03	4.992447E-05	2.325411E-06
3.007582E+03	5.088480E-05	2.363795E-06
3.017574E+03	5.187232E-05	2.403177E-06
3.027566E+03	5.288181E-05	2.443306E-06
3.037558E+03	5.391945E-05	2.484455E-06
3.047550E+03	5.498578E-05	2.526639E-06
3.057542E+03	5.608137E-05	2.569871E-06
3.067534E+03	5.720679E-05	2.614165E-06
3.077526E+03	5.835654E-05	2.659259E-06
3.087518E+03	5.954323E-05	2.705713E-06
3.097510E+03	6.076145E-05	2.753269E-06
3.107502E+03	6.201178E-05	2.801938E-06
3.117494E+03	6.329482E-05	2.851735E-06
3.127486E+03	6.461113E-05	2.902669E-06
3.137477E+03	6.596776E-05	2.955044E-06
3.147469E+03	6.735898E-05	3.008585E-06
3.157461E+03	6.878539E-05	3.063306E-06
3.167453E+03	7.025422E-05	3.119511E-06
3.177445E+03	7.175958E-05	3.176923E-06
3.187437E+03	7.330883E-05	3.235849E-06
3.197429E+03	7.490278E-05	3.296308E-06
3.207421E+03	7.653531E-05	3.358012E-06
3.217413E+03	7.821403E-05	3.421276E-06
3.227405E+03	7.993266E-05	3.485807E-06
3.237397E+03	8.170607E-05	3.552236E-06
3.247389E+03	8.352087E-05	3.619956E-06
3.257381E+03	8.539220E-05	3.689606E-06
3.267373E+03	8.730637E-05	3.760571E-06
3.277365E+03	8.927882E-05	3.833496E-06
3.287357E+03	9.130304E-05	3.908077E-06
3.297349E+03	9.337982E-05	3.984325E-06
3.307341E+03	9.551760E-05	4.062578E-06
3.317333E+03	9.770963E-05	4.142521E-06
3.327325E+03	9.996448E-05	4.224496E-06
3.337317E+03	1.022752E-04	4.308182E-06
3.347309E+03	1.046506E-04	4.393921E-06
3.357301E+03	1.070915E-04	4.481726E-06
3.367293E+03	1.095907E-04	4.571266E-06
3.377285E+03	1.121654E-04	4.663230E-06
3.387277E+03	1.148083E-04	4.757288E-06
3.397269E+03	1.175205E-04	4.853447E-06
3.407261E+03	1.203026E-04	4.951711E-06
3.417253E+03	1.231556E-04	5.052086E-06
3.427244E+03	1.260889E-04	5.154928E-06
3.437236E+03	1.290946E-04	5.259882E-06
3.447228E+03	1.321826E-04	5.367315E-06
3.457220E+03	1.353535E-04	5.477225E-06
3.467212E+03	1.386085E-04	5.589614E-06
3.477204E+03	1.419393E-04	5.704123E-06
3.487196E+03	1.453645E-04	5.821461E-06
3.497188E+03	1.488764E-04	5.941281E-06
3.507180E+03	1.524754E-04	6.063558E-06
3.517172E+03	1.561716E-04	6.188667E-06
3.527164E+03	1.599565E-04	6.316222E-06
3.537156E+03	1.638307E-04	6.446213E-06
3.547148E+03	1.678139E-04	6.579379E-06
3.557140E+03	1.718877E-04	6.714949E-06
3.567132E+03	1.760720E-04	6.853667E-06
3.577124E+03	1.803479E-04	6.994752E-06
3.587116E+03	1.847355E-04	7.138946E-06
3.597108E+03	1.892256E-04	7.285847E-06
3.607100E+03	1.938283E-04	7.435804E-06
3.617092E+03	1.985342E-04	7.588409E-06
3.627084E+03	2.033536E-04	7.744019E-06
3.637076E+03	2.082869E-04	7.902599E-06
3.647068E+03	2.133343E-04	8.064114E-06
3.657060E+03	2.184957E-04	8.228516E-06
3.667052E+03	2.237820E-04	8.396169E-06
3.677044E+03	2.291824E-04	8.566623E-06
3.687036E+03	2.346967E-04	8.739830E-06
3.697028E+03	2.403356E-04	8.916138E-06
3.707020E+03	2.460987E-04	9.095491E-06
3.717012E+03	2.519856E-04	9.277828E-06
3.727003E+03	2.579959E-04	9.463089E-06
3.736995E+03	2.641401E-04	9.651614E-06
3.746987E+03	2.704066E-04	9.842929E-06
3.756979E+03	2.767942E-04	1.003696E-05
3.766971E+03	2.833135E-04	1.023403E-05
3.776963E+03	2.899518E-04	1.043365E-05
3.786955E+03	2.967312E-04	1.063658E-05
3.796947E+03	3.036389E-04	1.084230E-05
3.806939E+03	3.106734E-04	1.105072E-05
3.816931E+03	3.178333E-04	1.126176E-05
3.826923E+03	3.251167E-04	1.147531E-05
3.836915E+03	3.325338E-04	1.169169E-05
3.846907E+03	3.400826E-04	1.191079E-05
3.856899E+03	3.477493E-04	1.213210E-05
3.866891E+03	3.555556E-04	1.235634E-05
3.876883E+03	3.634752E-04	1.258256E-05
3.886875E+03	3.715179E-04	1.281107E-05
3.896867E+03	3.796930E-04	1.304216E-05
3.906859E+03	3.879737E-04	1.327489E-05
3.916851E+03	3.963817E-04	1.350998E-05
3.926843E+03	4.049140E-04	1.374729E-05
3.936835E+03	4.135555E-04	1.398629E-05
3.946827E+03	4.223030E-04	1.422686E-05
3.956819E+03	4.311660E-04	1.446930E-05
3.966811E+03	4.401284E-04	1.471307E-05
3.976803E+03	4.491998E-04	1.495847E-05
3.986795E+03	4.583767E-04	1.520537E-05
3.996787E+03	4.676557E-04	1.545366E-05
4.006779E+03	4.770212E-04	1.570281E-05
4.016771E+03	4.864696E-04	1.595273E-05
4.026762E+03	4.960229E-04	1.620411E-05
4.036754E+03	5.056526E-04	1.645606E-05
4.046746E+03	5.153556E-04	1.670847E-05
4.056738E+03	5.251416E-04	1.696167E-05
4.066730E+03	5.349951E-04	1.721518E-05
4.076722E+03	5.449263E-04	1.746935E-05
4.086714E+03	5.549200E-04	1.772371E-05
4.096706E+03	5.649618E-04	1.797783E-05
4.106698E+03	5.750754E-04	1.823250E-05
4.116690E+03	5.852342E-04	1.848691E-05
4.126682E+03	5.954504E-04	1.874146E-05
4.136674E+03	6.057114E-04	1.899582E-05
4.146666E+03	6.160180E-04	1.925004E-05
4.156658E+03	6.263715E-04	1.950422E-05
4.166650E+03	6.367746E-04	1.975847E-05
4.176642E+03	6.472051E-04	2.001216E-05
4.186634E+03	6.576803E-04	2.026589E-05
4.196626E+03	6.682059E-04	2.051987E-05
4.206618E+03	6.787758E-04	2.077398E-05
4.216610E+03	6.893852E-04	2.102812E-05
4.226602E+03	7.000432E-04	2.128264E-05
4.236594E+03	7.107594E-04	2.153787E-05
4.246586E+03	7.215302E-04	2.179379E-05
4.256578E+03	7.323515E-04	2.205031E-05
4.266570E+03	7.432287E-04	2.230767E-05
4.276562E+03	7.541506E-04	2.256561E-05
4.286554E+03	7.651135E-04	2.282407E-05
4.296546E+03	7.760715E-04	2.308178E-05
4.306538E+03	7.870388E-04	2.333924E-05
4.316530E+03	7.979515E-04	2.359465E-05
4.326521E+03	8.088209E-04	2.384845E-05
4.336513E+03	8.195942E-04	2.409919E-05
4.346505E+03	8.302444E-04	2.434618E-05
4.356497E+03	8.407567E-04	2.458913E-05
4.366489E+03	8.510918E-04	2.482701E-05
4.376481E+03	8.612107E-04	2.505881E-05
4.386473E+03	8.710878E-04	2.528388E-05
4.396465E+03	8.806983E-04	2.550160E-05
4.406457E+03	8.900055E-04	2.571101E-05
4.416449E+03	8.989606E-04	2.591081E-05
4.426441E+03	9.075535E-04	2.610082E-05
4.436433E+03	9.157498E-04	2.628015E-05
4.446425E+03	9.235160E-04	2.644796E-05
4.456417E+03	9.308442E-04	2.660411E-05
4.466409E+03	9.377399E-04	2.674888E-05
4.476401E+03	9.441846E-04	2.688183E-05
4.486393E+03	9.501971E-04	2.700359E-05
4.496385E+03	9.557604E-04	2.711377E-05
4.506377E+03	9.608948E-04	2.721301E-05
4.516369E+03	9.655841E-04	2.730095E-05
4.526361E+03	9.698378E-04	2.737791E-05
4.536353E+03	9.736533E-04	2.744390E-05
4.546345E+03	9.770409E-04	2.749925E-05
4.556337E+03	9.799994E-04	2.754400E-05
4.566329E+03	9.825399E-04	2.757850E-05
4.576321E+03	9.846623E-04	2.760281E-05
4.586313E+03	9.863669E-04	2.761695E-05
4.596305E+03	9.876663E-04	2.762133E-05
4.606297E+03	9.885618E-04	2.761602E-05
4.616289E+03	9.890670E-04	2.760141E-05
4.626280E+03	9.891720E-04	2.757726E-05
4.636272E+03	9.889032E-04	2.754431E-05
4.646264E+03	9.882632E-04	2.750266E-05
4.656256E+03	9.872667E-04	2.745273E-05
4.666248E+03	9.859061E-04	2.739430E-05
4.676240E+03	9.842079E-04	2.732812E-05
4.686232E+03	9.821653E-04	2.725400E-05
4.696224E+03	9.797938E-04	2.717235E-05
4.706216E+03	9.770985E-04	2.708333E-05
4.716208E+03	9.740955E-04	2.698736E-05
4.726200E+03	9.707683E-04	2.688397E-05
4.736192E+03	9.671337E-04	2.677362E-05
4.746184E+03	9.631766E-04	2.665586E-05
4.756176E+03	9.588824E-04	2.653028E-05
4.766168E+03	9.542379E-04	2.639648E-05
4.776160E+03	9.492099E-04	2.625353E-05
4.786152E+03	9.438396E-04	2.610254E-05
4.796144E+03	9.381568E-04	2.594429E-05
4.806136E+03	9.322113E-04	2.578015E-05
4.816128E+03	9.260012E-04	2.561002E-05
4.826120E+03	9.195749E-04	2.543521E-05
4.836112E+03	9.129402E-04	2.525589E-05
4.846104E+03	9.061045E-04	2.507223E-05
4.856096E+03	8.990755E-04	2.488442E-05
4.866088E+03	8.918805E-04	2.469315E-05
4.876080E+03	8.845076E-04	2.449808E-05
4.886072E+03	8.769742E-04	2.429963E-05
4.896064E+03	8.692880E-04	2.409798E-05
4.906056E+03	8.614658E-04	2.389355E-05
4.916047E+03	8.534971E-04	2.368601E-05
4.926039E+03	8.454076E-04	2.347604E-05
4.936031E+03	8.371962E-04	2.326356E-05
4.946023E+03	8.288703E-04	2.304872E-05
4.956015E+03	8.204465E-04	2.283196E-05
4.966007E+03	8.119234E-04	2.261319E-05
4.975999E+03	8.033256E-04	2.239306E-05
4.985991E+03	7.946433E-04	2.217124E-05
4.995983E+03	7.858924E-04	2.194814E-05
5.005975E+03	7.770882E-04	2.172415E-05
5.015967E+03	7.682292E-04	2.149918E-05
5.025959E+03	7.593305E-04	2.127363E-05
5.035951E+03	7.503987E-04	2.104762E-05
5.045943E+03	7.414404E-04	2.082132E-05
5.055935E+03	7.324620E-04	2.059485E-05
5.065927E+03	7.234700E-04	2.036837E-05
5.075919E+03	7.144781E-04	2.014223E-05
5.085911E+03	7.054922E-04	1.991656E-05
5.095903E+03	6.965183E-04	1.969148E-05
5.105895E+03	6.875622E-04	1.946715E-05
5.115887E+03	6.786295E-04	1.924367E-05
5.125879E+03	6.697330E-04	1.902138E-05
5.135871E+03	6.608643E-04	1.880002E-05
5.145863E+03	6.520494E-04	1.858028E-05
5.155855E+03	6.432802E-04	1.836193E-05
5.165847E+03	6.345683E-04	1.814525E-05
5.175839E+03	6.259130E-04	1.793021E-05
5.185831E+03	6.173321E-04	1.771729E-05
5.195823E+03	6.088180E-04	1.750625E-05
5.205815E+03	6.003822E-04	1.729740E-05
5.215806E+03	5.920301E-04	1.709087E-05
5.225798E+03	5.837666E-04	1.688679E-05
5.235790E+03	5.755970E-04	1.668529E-05
5.245782E+03	5.675263E-04	1.648652E-05
5.255774E+03	5.595600E-04	1.629060E-05
5.265766E+03	5.516976E-04	1.609748E-05
5.275758E+03	5.439499E-04	1.590746E-05
5.285750E+03	5.363223E-04	1.572067E-05
5.295742E+03	5.288146E-04	1.553707E-05
5.305734E+03	5.214377E-04	1.535697E-05
5.315726E+03	5.141911E-04	1.518032E-05
5.325718E+03	5.070853E-04	1.500743E-05
5.335710E+03	5.001144E-04	1.483811E-05
5.345702E+03	4.932923E-04	1.467275E-05
5.355694E+03	4.866114E-04	1.451113E-05
5.365686E+03	4.800768E-04	1.435339E-05
5.375678E+03	4.736816E-04	1.419933E-05
5.385670E+03	4.674259E-04	1.404894E-05
5.395662E+03	4.612989E-04	1.390190E-05
5.405654E+03	4.552890E-04	1.375786E-05
5.415646E+03	4.493979E-04	1.361686E-05
5.425638E+03	4.436094E-04	1.347841E-05
5.435630E+03	4.379213E-04	1.334244E-05
5.445622E+03	4.323275E-04	1.320876E-05
5.455614E+03	4.268176E-04	1.307706E-05
5.465606E+03	4.213996E-04	1.294756E-05
5.475598E+03	4.160683E-04	1.282011E-05
5.485590E+03	4.108395E-04	1.269521E-05
5.495582E+03	4.057126E-04	1.257282E-05
5.505574E+03	4.006787E-04	1.245269E-05
5.515565E+03	3.957145E-04	1.233408E-05
5.525557E+03	3.908204E-04	1.221702E-05
5.535549E+03	3.859904E-04	1.210131E-05
5.545541E+03	3.812216E-04	1.198686E-05
5.555533E+03	3.765123E-04	1.187361E-05
5.565525E+03	3.718608E-04	1.176152E-05
5.575517E+03	3.672614E-04	1.165039E-05
5.585509E+03	3.627204E-04	1.154043E-05
5.595501E+03	3.582362E-04	1.143159E-05
5.605493E+03	3.538041E-04	1.132373E-05
5.615485E+03	3.494230E-04	1.121680E-05
5.625477E+03	3.450957E-04	1.111089E-05
5.635469E+03	3.408211E-04	1.100599E-05
5.645461E+03	3.366019E-04	1.090216E-05
5.655453E+03	3.324304E-04	1.079918E-05
5.665445E+03	3.283129E-04	1.069725E-05
5.675437E+03	3.242484E-04	1.059634E-05
5.685429E+03	3.202333E-04	1.049634E-05
5.695421E+03	3.162700E-04	1.039733E-05
5.705413E+03	3.123551E-04	1.029921E-05
5.715405E+03	3.084942E-04	1.020216E-05
5.725397E+03	3.046805E-04	1.010598E-05
5.735389E+03	3.009199E-04	1.001086E-05
5.745381E+03	2.972056E-04	9.916589E-06
5.755373E+03	2.935434E-04	9.823362E-06
5.765365E+03	2.899327E-04	9.731170E-06
5.775357E+03	2.863673E-04	9.639812E-06
5.785349E+03	2.828526E-04	9.549482E-06
5.795341E+03	2.793880E-04	9.460167E-06
5.805333E+03	2.759677E-04	9.371682E-06
5.815324E+03	2.725968E-04	9.284207E-06
5.825316E+03	2.692747E-04	9.197735E-06
5.835308E+03	2.659987E-04	9.112179E-06
5.845300E+03	2.627682E-04	9.027532E-06
5.855292E+03	2.595854E-04	8.943880E-06
5.865284E+03	2.564475E-04	8.861138E-06
5.875276E+03	2.533565E-04	8.779384E-06
5.885268E+03	2.503097E-04	8.698534E-06
5.895260E+03	2.473066E-04	8.618586E-06
5.905252E+03	2.443447E-04	8.539456E-06
5.915244E+03	2.414282E-04	8.461310E-06
5.925236E+03	2.385546E-04	8.384067E-06
5.935228E+03	2.357235E-04	8.307726E-06
5.945220E+03	2.329322E-04	8.232199E-06
5.955212E+03	2.301829E-04	8.157576E-06
5.965204E+03	2.274728E-04	8.083772E-06
5.975196E+03	2.248019E-04	8.010794E-06
5.985188E+03	2.221698E-04	7.938641E-06
5.995180E+03	2.195762E-04	7.867311E-06
6.005172E+03	2.170188E-04	7.796735E-06
6.015164E+03	2.144976E-04	7.726917E-06
6.025156E+03	2.120122E-04	7.657857E-06
6.035148E+03	2.095624E-04	7.589561E-06
6.045140E+03	2.071442E-04	7.521887E-06
6.055132E+03	2.047613E-04	7.454985E-06
6.065124E+03	2.024097E-04	7.388716E-06
6.075116E+03	2.000913E-04	7.323162E-06
6.085108E+03	1.978021E-04	7.258185E-06
6.095100E+03	1.955421E-04	7.193789E-06
6.105092E+03	1.933113E-04	7.129990E-06
6.115083E+03	1.911098E-04	7.066795E-06
6.125075E+03	1.889337E-04	7.004073E-06
6.135067E+03	1.867832E-04	6.941836E-06
6.145059E+03	1.846549E-04	6.879963E-06
6.155051E+03	1.825470E-04	6.818399E-06
6.165043E+03	1.804561E-04	6.757017E-06
6.175035E+03	1.783774E-04	6.695643E-06
6.185027E+03	1.763148E-04	6.634429E-06
6.195019E+03	1.742759E-04	6.573664E-06
6.205011E+03	1.722606E-04	6.513356E-06
6.215003E+03	1.702711E-04	6.453593E-06
6.224995E+03	1.683125E-04	6.394571E-06
6.234987E+03	1.663813E-04	6.336175E-06
6.244979E+03	1.644811E-04	6.278543E-06
6.254971E+03	1.626118E-04	6.221687E-06
6.264963E+03	1.607752E-04	6.165679E-06
6.274955E+03	1.589694E-04	6.110464E-06
6.284947E+03	1.571946E-04	6.056048E-06
6.294939E+03	1.554525E-04	6.002514E-06
6.304931E+03	1.537445E-04	5.949923E-06
6.314923E+03	1.520674E-04	5.898164E-06
6.324915E+03	1.504247E-04	5.847378E-06
6.334907E+03	1.488146E-04	5.797506E-06
6.344899E+03	1.472386E-04	5.748618E-06
6.354891E+03	1.456938E-04	5.700609E-06
6.364883E+03	1.441845E-04	5.653660E-06
6.374875E+03	1.427064E-04	5.607608E-06
6.384867E+03	1.412621E-04	5.562563E-06
6.394859E+03	1.398497E-04	5.518466E-06
6.404851E+03	1.384673E-04	5.475252E-06
6.414842E+03	1.371173E-04	5.433018E-06
6.424834E+03	1.357957E-04	5.391614E-06
6.434826E+03	1.345028E-04	5.351069E-06
6.444818E+03	1.332349E-04	5.311236E-06
6.454810E+03	1.319935E-04	5.272187E-06
6.464802E+03	1.307747E-04	5.233772E-06
6.474794E+03	1.295775E-04	5.195958E-06
6.484786E+03	1.284008E-04	5.158704E-06
6.494778E+03	1.272437E-04	5.121982E-06
6.504770E+03	1.261036E-04	5.085696E-06
6.514762E+03	1.249813E-04	5.049880E-06
6.524754E+03	1.238757E-04	5.014496E-06
6.534746E+03	1.227875E-04	4.979578E-06
6.544738E+03	1.217169E-04	4.945141E-06
6.554730E+03	1.206635E-04	4.911169E-06
6.564722E+03	1.196274E-04	4.877680E-06
6.574714E+03	1.186083E-04	4.844659E-06
6.584706E+03	1.176067E-04	4.812133E-06
6.594698E+03	1.166217E-04	4.780077E-06
6.604690E+03	1.156554E-04	4.748574E-06
6.614682E+03	1.147060E-04	4.717558E-06
6.624674E+03	1.137740E-04	4.687053E-06
6.634666E+03	1.128589E-04	4.657048E-06
6.644658E+03	1.119614E-04	4.627575E-06
6.654650E+03	1.110808E-04	4.598610E-06
6.664642E+03	1.102181E-04	4.570196E-06
6.674634E+03	1.093726E-04	4.542315E-06
6.684626E+03	1.085428E-04	4.514902E-06
6.694618E+03	1.077304E-04	4.488040E-06
6.704609E+03	1.069351E-04	4.461715E-06
6.714601E+03	1.061566E-04	4.435923E-06
6.724593E+03	1.053942E-04	4.410637E-06
6.734585E+03	1.046478E-04	4.385858E-06
6.744577E+03	1.039180E-04	4.361615E-06
6.754569E+03	1.032045E-04	4.337902E-06
6.764561E+03	1.025057E-04	4.314654E-06
6.774553E+03	1.018237E-04	4.291963E-06
6.784545E+03	1.011569E-04	4.269768E-06
6.794537E+03	1.005062E-04	4.248110E-06
6.804529E+03	9.986898E-05	4.226877E-06
6.814521E+03	9.924837E-05	4.206213E-06
6.824513E+03	9.864176E-05	4.186007E-06
6.834505E+03	9.805002E-05	4.166301E-06
6.844497E+03	9.747289E-05	4.147087E-06
6.854489E+03	9.691008E-05	4.128356E-06
6.864481E+03	9.636135E-05	4.110101E-06
6.874473E+03	9.582759E-05	4.092365E-06
6.884465E+03	9.530623E-05	4.075040E-06
6.894457E+03	9.479822E-05	4.058170E-06
6.904449E+03	9.430444E-05	4.041796E-06
6.914441E+03	9.382356E-05	4.025863E-06
6.924433E+03	9.335647E-05	4.010415E-06
6.934425E+03	9.290071E-05	3.995346E-06
6.944417E+03	9.245834E-05	3.980750E-06
6.954409E+03	9.202915E-05	3.966620E-06
6.964401E+03	9.161070E-05	3.952852E-06
6.974393E+03	9.120507E-05	3.939540E-06
6.984385E+03	9.081205E-05	3.926678E-06
6.994377E+03	9.042925E-05	3.914164E-06
7.004368E+03	9.005874E-05	3.902090E-06
7.014360E+03	8.969922E-05	3.890404E-06
7.024352E+03	8.935166E-05	3.879147E-06
7.034344E+03	8.901368E-05	3.868221E-06
7.044336E+03	8.868735E-05	3.857717E-06
7.054328E+03	8.837141E-05	3.847582E-06
7.064320E+03	8.806574E-05	3.837814E-06
7.074312E+03	8.777018E-05	3.828407E-06
7.084304E+03	8.748462E-05	3.819359E-06
7.094296E+03	8.720782E-05	3.810617E-06
7.104288E+03	8.694076E-05	3.802225E-06
7.114280E+03	8.668332E-05	3.794182E-06
7.124272E+03	8.643539E-05	3.786484E-06
7.134264E+03	8.619576E-05	3.779078E-06
7.144256E+03	8.596540E-05	3.772010E-06
7.154248E+03	8.574314E-05	3.765230E-06
7.164240E+03	8.552887E-05	3.758735E-06
7.174232E+03	8.532248E-05	3.752521E-06
7.184224E+03	8.512388E-05	3.746585E-06
7.194216E+03	8.493299E-05	3.740926E-06
7.204208E+03	8.474863E-05	3.735494E-06
7.214200E+03	8.457179E-05	3.730333E-06
7.224192E+03	8.440132E-05	3.725393E-06
7.234184E+03	8.423821E-05	3.720720E-06
7.244176E+03	8.408022E-05	3.716216E-06
7.254168E+03	8.392944E-05	3.711975E-06
7.264160E+03	8.378257E-05	3.707852E-06
7.274152E+03	8.364169E-05	3.703939E-06
7.284144E+03	8.350673E-05	3.700236E-06
7.294136E+03	8.337441E-05	3.696596E-06
7.304127E+03	8.324788E-05	3.693163E-06
7.314119E+03	8.312387E-05	3.689790E-06
7.324111E+03	8.300340E-05	3.686525E-06
7.334103E+03	8.288533E-05	3.683317E-06
7.344095E+03	8.276964E-05	3.680167E-06
7.354087E+03	8.265412E-05	3.676977E-06
7.364079E+03	8.253980E-05	3.673793E-06
7.374071E+03	8.242557E-05	3.670568E-06
7.384063E+03	8.230927E-05	3.667204E-06
7.394055E+03	8.219086E-05	3.663702E-06
7.404047E+03	8.207030E-05	3.660059E-06
7.414039E+03	8.194544E-05	3.656181E-06
7.424031E+03	8.181625E-05	3.652066E-06
7.434023E+03	8.168268E-05	3.647714E-06
7.444015E+03	8.154577E-05	3.643170E-06
7.454007E+03	8.140443E-05	3.638386E-06
7.463999E+03	8.126178E-05	3.633503E-06
7.473991E+03	8.111569E-05	3.628426E-06
7.483983E+03	8.096928E-05	3.623296E-06
7.493975E+03	8.082145E-05	3.618062E-06
7.503967E+03	8.067426E-05	3.612820E-06
7.513959E+03	8.052664E-05	3.607521E-06
7.523951E+03	8.037958E-05	3.602211E-06
7.533943E+03	8.023306E-05	3.596890E-06
7.543935E+03	8.008913E-05	3.591649E-06
7.553927E+03	7.994566E-05	3.586396E-06
7.563919E+03	7.980469E-05	3.581222E-06
7.573911E+03	7.966515E-05	3.576079E-06
7.583903E+03	7.952804E-05	3.571015E-06
7.593895E+03	7.939333E-05	3.566028E-06
7.603886E+03	7.926098E-05	3.561117E-06
7.613878E+03	7.913095E-05	3.556282E-06
7.623870E+03	7.900321E-05	3.551522E-06
7.633862E+03	7.887878E-05	3.546884E-06
7.643854E+03	7.875759E-05	3.542366E-06
7.653846E+03	7.863860E-05	3.537921E-06
7.663838E+03	7.852176E-05	3.533549E-06
7.673830E+03	7.840912E-05	3.529343E-06
7.683822E+03	7.829961E-05	3.525255E-06
7.693814E+03	7.819216E-05	3.521238E-06
7.703806E+03	7.808778E-05	3.517340E-06
7.713798E+03	7.798644E-05	3.513558E-06
7.723790E+03	7.788915E-05	3.509940E-06
7.733782E+03	7.779379E-05	3.506392E-06
7.743774E+03	7.770140E-05	3.502960E-06
7.753766E+03	7.761297E-05	3.499690E-06
