#wls	flux	fluxerr
1.600000E+03	-3.229665E-14	-0.000000E+00
1.640000E+03	-2.470130E-14	-0.000000E+00
1.680000E+03	-1.860595E-14	-0.000000E+00
1.720000E+03	-1.379653E-14	-0.000000E+00
1.760000E+03	-1.006929E-14	-0.000000E+00
1.800000E+03	-7.234584E-15	-0.000000E+00
1.840000E+03	-5.118336E-15	-0.000000E+00
1.880000E+03	-3.570569E-15	-0.000000E+00
1.920000E+03	-2.461352E-15	-0.000000E+00
1.960000E+03	-1.682825E-15	-0.000000E+00
2.000000E+03	-1.147702E-15	-0.000000E+00
2.040000E+03	-7.874844E-16	-0.000000E+00
2.080000E+03	-5.497766E-16	-0.000000E+00
2.120000E+03	-3.958975E-16	-0.000000E+00
2.160000E+03	-2.985822E-16	-0.000000E+00
2.200000E+03	-2.394813E-16	-0.000000E+00
2.240000E+03	-2.070855E-16	-0.000000E+00
2.280000E+03	-1.948776E-16	-0.000000E+00
2.320000E+03	-2.001017E-16	-0.000000E+00
2.360000E+03	-2.231951E-16	-0.000000E+00
2.400000E+03	-2.676993E-16	-0.000000E+00
2.440000E+03	-3.404643E-16	-0.000000E+00
2.480000E+03	-4.519302E-16	-0.000000E+00
2.520000E+03	-6.158444E-16	-0.000000E+00
2.560000E+03	-8.480750E-16	-0.000000E+00
2.600000E+03	-1.163591E-15	-0.000000E+00
2.640000E+03	-1.571898E-15	-0.000000E+00
2.680000E+03	-2.071354E-15	-0.000000E+00
2.720000E+03	-2.644978E-15	-0.000000E+00
2.760000E+03	-3.260022E-15	-0.000000E+00
2.800000E+03	-3.872096E-15	-0.000000E+00
2.840000E+03	-4.432840E-15	-0.000000E+00
2.880000E+03	-4.898741E-15	-0.000000E+00
2.920000E+03	-5.237602E-15	-0.000000E+00
2.960000E+03	-5.433142E-15	-0.000000E+00
3.000000E+03	-5.484066E-15	-0.000000E+00
3.010000E+03	-5.475496E-15	-0.000000E+00
3.020000E+03	-5.458778E-15	-0.000000E+00
3.030000E+03	-5.434210E-15	-0.000000E+00
3.040000E+03	-5.402361E-15	-0.000000E+00
3.050000E+03	-5.363448E-15	-0.000000E+00
3.060000E+03	-5.317826E-15	-0.000000E+00
3.070000E+03	-5.265980E-15	-0.000000E+00
3.080000E+03	-5.208173E-15	-0.000000E+00
3.090000E+03	-5.144784E-15	-0.000000E+00
3.100000E+03	-5.076415E-15	-0.000000E+00
3.110000E+03	-5.003226E-15	-0.000000E+00
3.120000E+03	-4.925704E-15	-0.000000E+00
3.130000E+03	-4.844120E-15	-0.000000E+00
3.140000E+03	-4.759128E-15	-0.000000E+00
3.150000E+03	-4.670791E-15	-0.000000E+00
3.160000E+03	-4.579549E-15	-0.000000E+00
3.170000E+03	-4.485825E-15	-0.000000E+00
3.180000E+03	-4.389927E-15	-0.000000E+00
3.190000E+03	-4.292002E-15	-0.000000E+00
3.200000E+03	-4.192586E-15	-0.000000E+00
3.210000E+03	-4.091799E-15	-0.000000E+00
3.220000E+03	-3.989989E-15	-0.000000E+00
3.230000E+03	-3.887340E-15	-0.000000E+00
3.240000E+03	-3.784169E-15	-0.000000E+00
3.250000E+03	-3.680711E-15	-0.000000E+00
3.260000E+03	-3.577186E-15	-0.000000E+00
3.270000E+03	-3.473750E-15	-0.000000E+00
3.280000E+03	-3.370673E-15	-0.000000E+00
3.290000E+03	-3.268150E-15	-0.000000E+00
3.300000E+03	-3.166320E-15	-0.000000E+00
3.310000E+03	-3.065423E-15	-0.000000E+00
3.320000E+03	-2.965592E-15	-0.000000E+00
3.330000E+03	-2.867050E-15	-0.000000E+00
3.340000E+03	-2.769927E-15	-0.000000E+00
3.350000E+03	-2.674393E-15	-0.000000E+00
3.360000E+03	-2.580620E-15	-0.000000E+00
3.370000E+03	-2.488773E-15	-0.000000E+00
3.380000E+03	-2.399021E-15	-0.000000E+00
3.390000E+03	-2.311491E-15	-0.000000E+00
3.400000E+03	-2.226385E-15	-0.000000E+00
3.410000E+03	-2.143805E-15	-0.000000E+00
3.420000E+03	-2.063981E-15	-0.000000E+00
3.430000E+03	-1.987020E-15	-0.000000E+00
3.440000E+03	-1.913089E-15	-0.000000E+00
3.450000E+03	-1.842358E-15	-0.000000E+00
3.460000E+03	-1.774967E-15	-0.000000E+00
3.470000E+03	-1.711104E-15	-0.000000E+00
3.480000E+03	-1.650905E-15	-0.000000E+00
3.490000E+03	-1.594503E-15	-0.000000E+00
3.500000E+03	-1.542050E-15	-0.000000E+00
3.510000E+03	-1.493670E-15	-0.000000E+00
3.520000E+03	-1.449516E-15	-0.000000E+00
3.530000E+03	-1.409664E-15	-0.000000E+00
3.540000E+03	-1.374250E-15	-0.000000E+00
3.550000E+03	-1.343368E-15	-0.000000E+00
3.560000E+03	-1.317118E-15	-0.000000E+00
3.570000E+03	-1.295555E-15	-0.000000E+00
3.580000E+03	-1.278744E-15	-0.000000E+00
3.590000E+03	-1.266767E-15	-0.000000E+00
3.600000E+03	-1.259633E-15	-0.000000E+00
3.610000E+03	-1.257398E-15	-0.000000E+00
3.620000E+03	-1.260071E-15	-0.000000E+00
3.630000E+03	-1.267629E-15	-0.000000E+00
3.640000E+03	-1.280042E-15	-0.000000E+00
3.650000E+03	-1.297264E-15	-0.000000E+00
3.660000E+03	-1.319188E-15	-0.000000E+00
3.670000E+03	-1.345711E-15	-0.000000E+00
3.680000E+03	-1.376631E-15	-0.000000E+00
3.690000E+03	-1.411740E-15	-0.000000E+00
3.700000E+03	-1.450768E-15	-0.000000E+00
3.710000E+03	-1.493411E-15	-0.000000E+00
3.720000E+03	-1.539286E-15	-0.000000E+00
3.730000E+03	-1.587994E-15	-0.000000E+00
3.740000E+03	-1.639082E-15	-0.000000E+00
3.750000E+03	-1.692089E-15	-0.000000E+00
3.760000E+03	-1.746524E-15	-0.000000E+00
3.770000E+03	-1.801917E-15	-0.000000E+00
3.780000E+03	-1.857804E-15	-0.000000E+00
3.790000E+03	-1.913750E-15	-0.000000E+00
3.800000E+03	-1.969425E-15	-0.000000E+00
3.810000E+03	-2.024450E-15	-0.000000E+00
3.820000E+03	-2.078577E-15	-0.000000E+00
3.830000E+03	-2.131606E-15	-0.000000E+00
3.840000E+03	-2.183319E-15	-0.000000E+00
3.850000E+03	-2.233559E-15	-0.000000E+00
3.860000E+03	-2.282206E-15	-0.000000E+00
3.870000E+03	-2.329111E-15	-0.000000E+00
3.880000E+03	-2.374114E-15	-0.000000E+00
3.890000E+03	-2.417001E-15	-0.000000E+00
3.900000E+03	-2.457568E-15	-0.000000E+00
3.910000E+03	-2.495544E-15	-0.000000E+00
3.920000E+03	-2.530613E-15	-0.000000E+00
3.930000E+03	-2.562423E-15	-0.000000E+00
3.940000E+03	-2.590582E-15	-0.000000E+00
3.950000E+03	-2.614695E-15	-0.000000E+00
3.960000E+03	-2.634331E-15	-0.000000E+00
3.970000E+03	-2.649045E-15	-0.000000E+00
3.980000E+03	-2.658478E-15	-0.000000E+00
3.990000E+03	-2.662259E-15	-0.000000E+00
4.000000E+03	-2.660120E-15	-0.000000E+00
4.010000E+03	-2.651871E-15	-0.000000E+00
4.020000E+03	-2.637409E-15	-0.000000E+00
4.030000E+03	-2.616835E-15	-0.000000E+00
4.040000E+03	-2.590342E-15	-0.000000E+00
4.050000E+03	-2.558328E-15	-0.000000E+00
4.060000E+03	-2.521341E-15	-0.000000E+00
4.070000E+03	-2.480095E-15	-0.000000E+00
4.080000E+03	-2.435458E-15	-0.000000E+00
4.090000E+03	-2.388448E-15	-0.000000E+00
4.100000E+03	-2.340139E-15	-0.000000E+00
4.110000E+03	-2.291682E-15	-0.000000E+00
4.120000E+03	-2.244288E-15	-0.000000E+00
4.130000E+03	-2.199057E-15	-0.000000E+00
4.140000E+03	-2.157076E-15	-0.000000E+00
4.150000E+03	-2.119308E-15	-0.000000E+00
4.160000E+03	-2.086580E-15	-0.000000E+00
4.170000E+03	-2.059558E-15	-0.000000E+00
4.180000E+03	-2.038742E-15	-0.000000E+00
4.190000E+03	-2.024456E-15	-0.000000E+00
4.200000E+03	-2.016846E-15	-0.000000E+00
4.210000E+03	-2.015887E-15	-0.000000E+00
4.220000E+03	-2.021385E-15	-0.000000E+00
4.230000E+03	-2.032974E-15	-0.000000E+00
4.240000E+03	-2.050161E-15	-0.000000E+00
4.250000E+03	-2.072347E-15	-0.000000E+00
4.260000E+03	-2.098814E-15	-0.000000E+00
4.270000E+03	-2.128733E-15	-0.000000E+00
4.280000E+03	-2.161283E-15	-0.000000E+00
4.290000E+03	-2.195608E-15	-0.000000E+00
4.300000E+03	-2.230864E-15	-0.000000E+00
4.310000E+03	-2.266230E-15	-0.000000E+00
4.320000E+03	-2.300907E-15	-0.000000E+00
4.330000E+03	-2.334204E-15	-0.000000E+00
4.340000E+03	-2.365402E-15	-0.000000E+00
4.350000E+03	-2.393907E-15	-0.000000E+00
4.360000E+03	-2.419137E-15	-0.000000E+00
4.370000E+03	-2.440594E-15	-0.000000E+00
4.380000E+03	-2.457817E-15	-0.000000E+00
4.390000E+03	-2.470453E-15	-0.000000E+00
4.400000E+03	-2.478220E-15	-0.000000E+00
4.410000E+03	-2.480992E-15	-0.000000E+00
4.420000E+03	-2.478718E-15	-0.000000E+00
4.430000E+03	-2.471467E-15	-0.000000E+00
4.440000E+03	-2.459477E-15	-0.000000E+00
4.450000E+03	-2.443039E-15	-0.000000E+00
4.460000E+03	-2.422550E-15	-0.000000E+00
4.470000E+03	-2.398496E-15	-0.000000E+00
4.480000E+03	-2.371321E-15	-0.000000E+00
4.490000E+03	-2.341554E-15	-0.000000E+00
4.500000E+03	-2.309692E-15	-0.000000E+00
4.510000E+03	-2.276186E-15	-0.000000E+00
4.520000E+03	-2.241484E-15	-0.000000E+00
4.530000E+03	-2.205988E-15	-0.000000E+00
4.540000E+03	-2.170069E-15	-0.000000E+00
4.550000E+03	-2.134058E-15	-0.000000E+00
4.560000E+03	-2.098237E-15	-0.000000E+00
4.570000E+03	-2.062859E-15	-0.000000E+00
4.580000E+03	-2.028213E-15	-0.000000E+00
4.590000E+03	-1.994491E-15	-0.000000E+00
4.600000E+03	-1.961890E-15	-0.000000E+00
4.610000E+03	-1.930630E-15	-0.000000E+00
4.620000E+03	-1.900905E-15	-0.000000E+00
4.630000E+03	-1.872846E-15	-0.000000E+00
4.640000E+03	-1.846691E-15	-0.000000E+00
4.650000E+03	-1.822550E-15	-0.000000E+00
4.660000E+03	-1.800641E-15	-0.000000E+00
4.670000E+03	-1.781132E-15	-0.000000E+00
4.680000E+03	-1.764197E-15	-0.000000E+00
4.690000E+03	-1.750008E-15	-0.000000E+00
4.700000E+03	-1.738739E-15	-0.000000E+00
4.710000E+03	-1.730594E-15	-0.000000E+00
4.720000E+03	-1.725713E-15	-0.000000E+00
4.730000E+03	-1.724239E-15	-0.000000E+00
4.740000E+03	-1.726315E-15	-0.000000E+00
4.750000E+03	-1.732007E-15	-0.000000E+00
4.760000E+03	-1.741442E-15	-0.000000E+00
4.770000E+03	-1.754620E-15	-0.000000E+00
4.780000E+03	-1.771600E-15	-0.000000E+00
4.790000E+03	-1.792384E-15	-0.000000E+00
4.800000E+03	-1.816914E-15	-0.000000E+00
4.810000E+03	-1.845162E-15	-0.000000E+00
4.820000E+03	-1.877075E-15	-0.000000E+00
4.830000E+03	-1.912519E-15	-0.000000E+00
4.840000E+03	-1.951379E-15	-0.000000E+00
4.850000E+03	-1.993483E-15	-0.000000E+00
4.860000E+03	-2.038592E-15	-0.000000E+00
4.870000E+03	-2.086427E-15	-0.000000E+00
4.880000E+03	-2.136668E-15	-0.000000E+00
4.890000E+03	-2.188882E-15	-0.000000E+00
4.900000E+03	-2.242607E-15	-0.000000E+00
4.910000E+03	-2.297240E-15	-0.000000E+00
4.920000E+03	-2.352183E-15	-0.000000E+00
4.930000E+03	-2.406758E-15	-0.000000E+00
4.940000E+03	-2.460226E-15	-0.000000E+00
4.950000E+03	-2.511874E-15	-0.000000E+00
4.960000E+03	-2.560950E-15	-0.000000E+00
4.970000E+03	-2.606787E-15	-0.000000E+00
4.980000E+03	-2.648717E-15	-0.000000E+00
4.990000E+03	-2.686177E-15	-0.000000E+00
5.000000E+03	-2.718672E-15	-0.000000E+00
5.010000E+03	-2.745902E-15	-0.000000E+00
5.020000E+03	-2.767579E-15	-0.000000E+00
5.030000E+03	-2.783589E-15	-0.000000E+00
5.040000E+03	-2.793980E-15	-0.000000E+00
5.050000E+03	-2.798858E-15	-0.000000E+00
5.060000E+03	-2.798470E-15	-0.000000E+00
5.070000E+03	-2.793163E-15	-0.000000E+00
5.080000E+03	-2.783358E-15	-0.000000E+00
5.090000E+03	-2.769504E-15	-0.000000E+00
5.100000E+03	-2.752110E-15	-0.000000E+00
5.110000E+03	-2.731718E-15	-0.000000E+00
5.120000E+03	-2.708778E-15	-0.000000E+00
5.130000E+03	-2.683813E-15	-0.000000E+00
5.140000E+03	-2.657170E-15	-0.000000E+00
5.150000E+03	-2.629292E-15	-0.000000E+00
5.160000E+03	-2.600489E-15	-0.000000E+00
5.170000E+03	-2.571067E-15	-0.000000E+00
5.180000E+03	-2.541298E-15	-0.000000E+00
5.190000E+03	-2.511410E-15	-0.000000E+00
5.200000E+03	-2.481649E-15	-0.000000E+00
5.210000E+03	-2.452234E-15	-0.000000E+00
5.220000E+03	-2.423452E-15	-0.000000E+00
5.230000E+03	-2.395468E-15	-0.000000E+00
5.240000E+03	-2.368529E-15	-0.000000E+00
5.250000E+03	-2.342846E-15	-0.000000E+00
5.260000E+03	-2.318594E-15	-0.000000E+00
5.270000E+03	-2.295865E-15	-0.000000E+00
5.280000E+03	-2.274771E-15	-0.000000E+00
5.290000E+03	-2.255326E-15	-0.000000E+00
5.300000E+03	-2.237506E-15	-0.000000E+00
5.310000E+03	-2.221211E-15	-0.000000E+00
5.320000E+03	-2.206335E-15	-0.000000E+00
5.330000E+03	-2.192669E-15	-0.000000E+00
5.340000E+03	-2.180029E-15	-0.000000E+00
5.350000E+03	-2.168203E-15	-0.000000E+00
5.360000E+03	-2.157044E-15	-0.000000E+00
5.370000E+03	-2.146350E-15	-0.000000E+00
5.380000E+03	-2.136057E-15	-0.000000E+00
5.390000E+03	-2.126114E-15	-0.000000E+00
5.400000E+03	-2.116528E-15	-0.000000E+00
5.410000E+03	-2.107312E-15	-0.000000E+00
5.420000E+03	-2.098563E-15	-0.000000E+00
5.430000E+03	-2.090391E-15	-0.000000E+00
5.440000E+03	-2.082820E-15	-0.000000E+00
5.450000E+03	-2.075934E-15	-0.000000E+00
5.460000E+03	-2.069707E-15	-0.000000E+00
5.470000E+03	-2.064091E-15	-0.000000E+00
5.480000E+03	-2.059075E-15	-0.000000E+00
5.490000E+03	-2.054480E-15	-0.000000E+00
5.500000E+03	-2.050141E-15	-0.000000E+00
5.510000E+03	-2.045781E-15	-0.000000E+00
5.520000E+03	-2.041129E-15	-0.000000E+00
5.530000E+03	-2.035777E-15	-0.000000E+00
5.540000E+03	-2.029361E-15	-0.000000E+00
5.550000E+03	-2.021483E-15	-0.000000E+00
5.560000E+03	-2.011829E-15	-0.000000E+00
5.570000E+03	-2.000047E-15	-0.000000E+00
5.580000E+03	-1.985882E-15	-0.000000E+00
5.590000E+03	-1.969121E-15	-0.000000E+00
5.600000E+03	-1.949658E-15	-0.000000E+00
5.610000E+03	-1.927390E-15	-0.000000E+00
5.620000E+03	-1.902306E-15	-0.000000E+00
5.630000E+03	-1.874445E-15	-0.000000E+00
5.640000E+03	-1.843856E-15	-0.000000E+00
5.650000E+03	-1.810638E-15	-0.000000E+00
5.660000E+03	-1.774868E-15	-0.000000E+00
5.670000E+03	-1.736677E-15	-0.000000E+00
5.680000E+03	-1.696210E-15	-0.000000E+00
5.690000E+03	-1.653612E-15	-0.000000E+00
5.700000E+03	-1.609050E-15	-0.000000E+00
5.710000E+03	-1.562718E-15	-0.000000E+00
5.720000E+03	-1.514879E-15	-0.000000E+00
5.730000E+03	-1.465770E-15	-0.000000E+00
5.740000E+03	-1.415731E-15	-0.000000E+00
5.750000E+03	-1.365116E-15	-0.000000E+00
5.760000E+03	-1.314301E-15	-0.000000E+00
5.770000E+03	-1.263728E-15	-0.000000E+00
5.780000E+03	-1.213858E-15	-0.000000E+00
5.790000E+03	-1.165146E-15	-0.000000E+00
5.800000E+03	-1.118061E-15	-0.000000E+00
5.810000E+03	-1.073088E-15	-0.000000E+00
5.820000E+03	-1.030644E-15	-0.000000E+00
5.830000E+03	-9.911539E-16	-0.000000E+00
5.840000E+03	-9.549897E-16	-0.000000E+00
5.850000E+03	-9.224801E-16	-0.000000E+00
5.860000E+03	-8.939144E-16	-0.000000E+00
5.870000E+03	-8.695041E-16	-0.000000E+00
5.880000E+03	-8.494542E-16	-0.000000E+00
5.890000E+03	-8.338971E-16	-0.000000E+00
5.900000E+03	-8.229392E-16	-0.000000E+00
5.910000E+03	-8.166541E-16	-0.000000E+00
5.920000E+03	-8.150879E-16	-0.000000E+00
5.930000E+03	-8.182718E-16	-0.000000E+00
5.940000E+03	-8.261848E-16	-0.000000E+00
5.950000E+03	-8.388002E-16	-0.000000E+00
5.960000E+03	-8.560726E-16	-0.000000E+00
5.970000E+03	-8.779146E-16	-0.000000E+00
5.980000E+03	-9.041795E-16	-0.000000E+00
5.990000E+03	-9.347159E-16	-0.000000E+00
6.000000E+03	-9.692673E-16	-0.000000E+00
6.010000E+03	-1.007588E-15	-0.000000E+00
6.020000E+03	-1.049307E-15	-0.000000E+00
6.030000E+03	-1.094034E-15	-0.000000E+00
6.040000E+03	-1.141340E-15	-0.000000E+00
6.050000E+03	-1.190733E-15	-0.000000E+00
6.060000E+03	-1.241703E-15	-0.000000E+00
6.070000E+03	-1.293694E-15	-0.000000E+00
6.080000E+03	-1.346203E-15	-0.000000E+00
6.090000E+03	-1.398661E-15	-0.000000E+00
6.100000E+03	-1.450596E-15	-0.000000E+00
6.110000E+03	-1.501515E-15	-0.000000E+00
6.120000E+03	-1.550960E-15	-0.000000E+00
6.130000E+03	-1.598528E-15	-0.000000E+00
6.140000E+03	-1.643885E-15	-0.000000E+00
6.150000E+03	-1.686704E-15	-0.000000E+00
6.160000E+03	-1.726730E-15	-0.000000E+00
6.170000E+03	-1.763804E-15	-0.000000E+00
6.180000E+03	-1.797736E-15	-0.000000E+00
6.190000E+03	-1.828453E-15	-0.000000E+00
6.200000E+03	-1.855937E-15	-0.000000E+00
6.210000E+03	-1.880216E-15	-0.000000E+00
6.220000E+03	-1.901314E-15	-0.000000E+00
6.230000E+03	-1.919307E-15	-0.000000E+00
6.240000E+03	-1.934324E-15	-0.000000E+00
6.250000E+03	-1.946458E-15	-0.000000E+00
6.260000E+03	-1.955858E-15	-0.000000E+00
6.270000E+03	-1.962648E-15	-0.000000E+00
6.280000E+03	-1.966973E-15	-0.000000E+00
6.290000E+03	-1.968941E-15	-0.000000E+00
6.300000E+03	-1.968648E-15	-0.000000E+00
6.310000E+03	-1.966207E-15	-0.000000E+00
6.320000E+03	-1.961724E-15	-0.000000E+00
6.330000E+03	-1.955246E-15	-0.000000E+00
6.340000E+03	-1.946879E-15	-0.000000E+00
6.350000E+03	-1.936735E-15	-0.000000E+00
6.360000E+03	-1.924887E-15	-0.000000E+00
6.370000E+03	-1.911503E-15	-0.000000E+00
6.380000E+03	-1.896718E-15	-0.000000E+00
6.390000E+03	-1.880681E-15	-0.000000E+00
6.400000E+03	-1.863555E-15	-0.000000E+00
6.410000E+03	-1.845568E-15	-0.000000E+00
6.420000E+03	-1.826867E-15	-0.000000E+00
6.430000E+03	-1.807680E-15	-0.000000E+00
6.440000E+03	-1.788167E-15	-0.000000E+00
6.450000E+03	-1.768472E-15	-0.000000E+00
6.460000E+03	-1.748747E-15	-0.000000E+00
6.470000E+03	-1.729089E-15	-0.000000E+00
6.480000E+03	-1.709600E-15	-0.000000E+00
6.490000E+03	-1.690276E-15	-0.000000E+00
6.500000E+03	-1.671196E-15	-0.000000E+00
6.510000E+03	-1.652370E-15	-0.000000E+00
6.520000E+03	-1.633767E-15	-0.000000E+00
6.530000E+03	-1.615399E-15	-0.000000E+00
6.540000E+03	-1.597251E-15	-0.000000E+00
6.550000E+03	-1.579306E-15	-0.000000E+00
6.560000E+03	-1.561551E-15	-0.000000E+00
6.570000E+03	-1.544007E-15	-0.000000E+00
6.580000E+03	-1.526647E-15	-0.000000E+00
6.590000E+03	-1.509477E-15	-0.000000E+00
6.600000E+03	-1.492536E-15	-0.000000E+00
6.610000E+03	-1.475837E-15	-0.000000E+00
6.620000E+03	-1.459376E-15	-0.000000E+00
6.630000E+03	-1.443198E-15	-0.000000E+00
6.640000E+03	-1.427300E-15	-0.000000E+00
6.650000E+03	-1.411748E-15	-0.000000E+00
6.660000E+03	-1.396515E-15	-0.000000E+00
6.670000E+03	-1.381618E-15	-0.000000E+00
6.680000E+03	-1.367097E-15	-0.000000E+00
6.690000E+03	-1.352966E-15	-0.000000E+00
6.700000E+03	-1.339215E-15	-0.000000E+00
6.710000E+03	-1.325856E-15	-0.000000E+00
6.720000E+03	-1.312925E-15	-0.000000E+00
6.730000E+03	-1.300408E-15	-0.000000E+00
6.740000E+03	-1.288336E-15	-0.000000E+00
6.750000E+03	-1.276669E-15	-0.000000E+00
6.760000E+03	-1.265457E-15	-0.000000E+00
6.770000E+03	-1.254656E-15	-0.000000E+00
6.780000E+03	-1.244312E-15	-0.000000E+00
6.790000E+03	-1.234373E-15	-0.000000E+00
6.800000E+03	-1.224856E-15	-0.000000E+00
6.810000E+03	-1.215750E-15	-0.000000E+00
6.820000E+03	-1.207018E-15	-0.000000E+00
6.830000E+03	-1.198666E-15	-0.000000E+00
6.840000E+03	-1.190654E-15	-0.000000E+00
6.850000E+03	-1.182984E-15	-0.000000E+00
6.860000E+03	-1.175592E-15	-0.000000E+00
6.870000E+03	-1.168505E-15	-0.000000E+00
6.880000E+03	-1.161684E-15	-0.000000E+00
6.890000E+03	-1.155113E-15	-0.000000E+00
6.900000E+03	-1.148757E-15	-0.000000E+00
6.910000E+03	-1.142645E-15	-0.000000E+00
6.920000E+03	-1.136694E-15	-0.000000E+00
6.930000E+03	-1.130950E-15	-0.000000E+00
6.940000E+03	-1.125343E-15	-0.000000E+00
6.950000E+03	-1.119841E-15	-0.000000E+00
6.960000E+03	-1.114424E-15	-0.000000E+00
6.970000E+03	-1.109021E-15	-0.000000E+00
6.980000E+03	-1.103576E-15	-0.000000E+00
6.990000E+03	-1.098024E-15	-0.000000E+00
7.000000E+03	-1.092296E-15	-0.000000E+00
7.010000E+03	-1.086319E-15	-0.000000E+00
7.020000E+03	-1.080000E-15	-0.000000E+00
7.030000E+03	-1.073310E-15	-0.000000E+00
7.040000E+03	-1.066122E-15	-0.000000E+00
7.050000E+03	-1.058443E-15	-0.000000E+00
7.060000E+03	-1.050168E-15	-0.000000E+00
7.070000E+03	-1.041309E-15	-0.000000E+00
7.080000E+03	-1.031832E-15	-0.000000E+00
7.090000E+03	-1.021739E-15	-0.000000E+00
7.100000E+03	-1.011067E-15	-0.000000E+00
7.110000E+03	-9.998070E-16	-0.000000E+00
7.120000E+03	-9.880179E-16	-0.000000E+00
7.130000E+03	-9.757269E-16	-0.000000E+00
7.140000E+03	-9.630037E-16	-0.000000E+00
7.150000E+03	-9.498987E-16	-0.000000E+00
7.160000E+03	-9.364407E-16	-0.000000E+00
7.170000E+03	-9.226920E-16	-0.000000E+00
7.180000E+03	-9.086531E-16	-0.000000E+00
7.190000E+03	-8.943924E-16	-0.000000E+00
7.200000E+03	-8.799143E-16	-0.000000E+00
7.210000E+03	-8.652172E-16	-0.000000E+00
7.220000E+03	-8.503271E-16	-0.000000E+00
7.230000E+03	-8.352459E-16	-0.000000E+00
7.240000E+03	-8.199524E-16	-0.000000E+00
7.250000E+03	-8.044381E-16	-0.000000E+00
7.260000E+03	-7.886924E-16	-0.000000E+00
7.270000E+03	-7.727027E-16	-0.000000E+00
7.280000E+03	-7.564568E-16	-0.000000E+00
7.290000E+03	-7.399131E-16	-0.000000E+00
7.300000E+03	-7.230960E-16	-0.000000E+00
7.310000E+03	-7.059864E-16	-0.000000E+00
7.320000E+03	-6.885727E-16	-0.000000E+00
7.330000E+03	-6.708770E-16	-0.000000E+00
7.340000E+03	-6.528867E-16	-0.000000E+00
7.350000E+03	-6.346254E-16	-0.000000E+00
7.360000E+03	-6.161243E-16	-0.000000E+00
7.370000E+03	-5.974105E-16	-0.000000E+00
7.380000E+03	-5.785438E-16	-0.000000E+00
7.390000E+03	-5.595424E-16	-0.000000E+00
7.400000E+03	-5.404923E-16	-0.000000E+00
7.410000E+03	-5.214346E-16	-0.000000E+00
7.420000E+03	-5.024473E-16	-0.000000E+00
7.430000E+03	-4.835835E-16	-0.000000E+00
7.440000E+03	-4.649035E-16	-0.000000E+00
7.450000E+03	-4.464702E-16	-0.000000E+00
7.460000E+03	-4.283186E-16	-0.000000E+00
7.470000E+03	-4.105121E-16	-0.000000E+00
7.480000E+03	-3.930607E-16	-0.000000E+00
7.490000E+03	-3.760043E-16	-0.000000E+00
7.500000E+03	-3.593545E-16	-0.000000E+00
7.510000E+03	-3.431551E-16	-0.000000E+00
