#wls	flux	fluxerr
1.600000E+03	1.131005E-14	3.634269E-16
1.640000E+03	1.025225E-14	3.205246E-16
1.680000E+03	9.083140E-15	2.760347E-16
1.720000E+03	7.867378E-15	2.321829E-16
1.760000E+03	6.667061E-15	1.908915E-16
1.800000E+03	5.531419E-15	1.535023E-16
1.840000E+03	4.499044E-15	1.208917E-16
1.880000E+03	3.595661E-15	9.346011E-17
1.920000E+03	2.832458E-15	7.114796E-17
1.960000E+03	2.210265E-15	5.360288E-17
2.000000E+03	1.719570E-15	4.022757E-17
2.040000E+03	1.345842E-15	3.034631E-17
2.080000E+03	1.071621E-15	2.327305E-17
2.120000E+03	8.786033E-16	1.836791E-17
2.160000E+03	7.513637E-16	1.511494E-17
2.200000E+03	6.780668E-16	1.312368E-17
2.240000E+03	6.526558E-16	1.215518E-17
2.280000E+03	6.753886E-16	1.211015E-17
2.320000E+03	7.525402E-16	1.300341E-17
2.360000E+03	8.985953E-16	1.498492E-17
2.400000E+03	1.139344E-15	1.837313E-17
2.440000E+03	1.515447E-15	2.369415E-17
2.480000E+03	2.086144E-15	3.172142E-17
2.520000E+03	2.930713E-15	4.348171E-17
2.560000E+03	4.148803E-15	6.024489E-17
2.600000E+03	5.859182E-15	8.350273E-17
2.640000E+03	8.188569E-15	1.148076E-16
2.680000E+03	1.121198E-14	1.549485E-16
2.720000E+03	1.488131E-14	2.030177E-16
2.760000E+03	1.900888E-14	2.562637E-16
2.800000E+03	2.329169E-14	3.104805E-16
2.840000E+03	2.736948E-14	3.608287E-16
2.880000E+03	3.090385E-14	4.029035E-16
2.920000E+03	3.364292E-14	4.335794E-16
2.960000E+03	3.546027E-14	4.514839E-16
3.000000E+03	3.637191E-14	4.571552E-16
3.010000E+03	3.647315E-14	4.568922E-16
3.020000E+03	3.652812E-14	4.560236E-16
3.030000E+03	3.654159E-14	4.546145E-16
3.040000E+03	3.651606E-14	4.527016E-16
3.050000E+03	3.645587E-14	4.503437E-16
3.060000E+03	3.636542E-14	4.476000E-16
3.070000E+03	3.624689E-14	4.445019E-16
3.080000E+03	3.610637E-14	4.411285E-16
3.090000E+03	3.594620E-14	4.375120E-16
3.100000E+03	3.577168E-14	4.337205E-16
3.110000E+03	3.558591E-14	4.297946E-16
3.120000E+03	3.539271E-14	4.257830E-16
3.130000E+03	3.519723E-14	4.217496E-16
3.140000E+03	3.500179E-14	4.177239E-16
3.150000E+03	3.481206E-14	4.137747E-16
3.160000E+03	3.462963E-14	4.099206E-16
3.170000E+03	3.446001E-14	4.062252E-16
3.180000E+03	3.430540E-14	4.027129E-16
3.190000E+03	3.417055E-14	3.994367E-16
3.200000E+03	3.405831E-14	3.964272E-16
3.210000E+03	3.397279E-14	3.937288E-16
3.220000E+03	3.391749E-14	3.913782E-16
3.230000E+03	3.389602E-14	3.894125E-16
3.240000E+03	3.391150E-14	3.878629E-16
3.250000E+03	3.396891E-14	3.867806E-16
3.260000E+03	3.407163E-14	3.861984E-16
3.270000E+03	3.422446E-14	3.861638E-16
3.280000E+03	3.443127E-14	3.867133E-16
3.290000E+03	3.469683E-14	3.878926E-16
3.300000E+03	3.502679E-14	3.897561E-16
3.310000E+03	3.542610E-14	3.923499E-16
3.320000E+03	3.590128E-14	3.957358E-16
3.330000E+03	3.645882E-14	3.999743E-16
3.340000E+03	3.710470E-14	4.051195E-16
3.350000E+03	3.784768E-14	4.112541E-16
3.360000E+03	3.869556E-14	4.184490E-16
3.370000E+03	3.965735E-14	4.267871E-16
3.380000E+03	4.074275E-14	4.363568E-16
3.390000E+03	4.196093E-14	4.472394E-16
3.400000E+03	4.332375E-14	4.595436E-16
3.410000E+03	4.484165E-14	4.733611E-16
3.420000E+03	4.652489E-14	4.887802E-16
3.430000E+03	4.838353E-14	5.058863E-16
3.440000E+03	5.042607E-14	5.247471E-16
3.450000E+03	5.265690E-14	5.453875E-16
3.460000E+03	5.507781E-14	5.678062E-16
3.470000E+03	5.768150E-14	5.919094E-16
3.480000E+03	6.044728E-14	6.174695E-16
3.490000E+03	6.332710E-14	6.439862E-16
3.500000E+03	6.624995E-14	6.707371E-16
3.510000E+03	6.912800E-14	6.968440E-16
3.520000E+03	7.186038E-14	7.213140E-16
3.530000E+03	7.433791E-14	7.430882E-16
3.540000E+03	7.645135E-14	7.611248E-16
3.550000E+03	7.810171E-14	7.744986E-16
3.560000E+03	7.920877E-14	7.824754E-16
3.570000E+03	7.972187E-14	7.846137E-16
3.580000E+03	7.962422E-14	7.808070E-16
3.590000E+03	7.893915E-14	7.713395E-16
3.600000E+03	7.772606E-14	7.568402E-16
3.610000E+03	7.607701E-14	7.382449E-16
3.620000E+03	7.410392E-14	7.166678E-16
3.630000E+03	7.193187E-14	6.933350E-16
3.640000E+03	6.968524E-14	6.694500E-16
3.650000E+03	6.748337E-14	6.461529E-16
3.660000E+03	6.543164E-14	6.244367E-16
3.670000E+03	6.361897E-14	6.051254E-16
3.680000E+03	6.211759E-14	5.888746E-16
3.690000E+03	6.098364E-14	5.761794E-16
3.700000E+03	6.025894E-14	5.673930E-16
3.710000E+03	5.997553E-14	5.627719E-16
3.720000E+03	6.015635E-14	5.624821E-16
3.730000E+03	6.082045E-14	5.666497E-16
3.740000E+03	6.198212E-14	5.753524E-16
3.750000E+03	6.365322E-14	5.886415E-16
3.760000E+03	6.584406E-14	6.065504E-16
3.770000E+03	6.856322E-14	6.290919E-16
3.780000E+03	7.181469E-14	6.562328E-16
3.790000E+03	7.559835E-14	6.878986E-16
3.800000E+03	7.990484E-14	7.239273E-16
3.810000E+03	8.471384E-14	7.640559E-16
3.820000E+03	8.999000E-14	8.078858E-16
3.830000E+03	9.567812E-14	8.548433E-16
3.840000E+03	1.016978E-13	9.041370E-16
3.850000E+03	1.079457E-13	9.547829E-16
3.860000E+03	1.142901E-13	1.005564E-15
3.870000E+03	1.205830E-13	1.055148E-15
3.880000E+03	1.266594E-13	1.102079E-15
3.890000E+03	1.323585E-13	1.144971E-15
3.900000E+03	1.375270E-13	1.182543E-15
3.910000E+03	1.420400E-13	1.213789E-15
3.920000E+03	1.458082E-13	1.238039E-15
3.930000E+03	1.487873E-13	1.255030E-15
3.940000E+03	1.509783E-13	1.264895E-15
3.950000E+03	1.524273E-13	1.268147E-15
3.960000E+03	1.532112E-13	1.265552E-15
3.970000E+03	1.534320E-13	1.258069E-15
3.980000E+03	1.532003E-13	1.246710E-15
3.990000E+03	1.526274E-13	1.232465E-15
4.000000E+03	1.518096E-13	1.216182E-15
4.010000E+03	1.508238E-13	1.198533E-15
4.020000E+03	1.497233E-13	1.179987E-15
4.030000E+03	1.485402E-13	1.160834E-15
4.040000E+03	1.472811E-13	1.141159E-15
4.050000E+03	1.459397E-13	1.120945E-15
4.060000E+03	1.444944E-13	1.100068E-15
4.070000E+03	1.429215E-13	1.078388E-15
4.080000E+03	1.411968E-13	1.055772E-15
4.090000E+03	1.392988E-13	1.032113E-15
4.100000E+03	1.372118E-13	1.007354E-15
4.110000E+03	1.349266E-13	9.814870E-16
4.120000E+03	1.324408E-13	9.545579E-16
4.130000E+03	1.297529E-13	9.266164E-16
4.140000E+03	1.268660E-13	8.977447E-16
4.150000E+03	1.237840E-13	8.680279E-16
4.160000E+03	1.205164E-13	8.375846E-16
4.170000E+03	1.170781E-13	8.065669E-16
4.180000E+03	1.134909E-13	7.751656E-16
4.190000E+03	1.097902E-13	7.436537E-16
4.200000E+03	1.060225E-13	7.123679E-16
4.210000E+03	1.022504E-13	6.817357E-16
4.220000E+03	9.854693E-14	6.522390E-16
4.230000E+03	9.499605E-14	6.244124E-16
4.240000E+03	9.168459E-14	5.987937E-16
4.250000E+03	8.869954E-14	5.759075E-16
4.260000E+03	8.612117E-14	5.562246E-16
4.270000E+03	8.402022E-14	5.401497E-16
4.280000E+03	8.245109E-14	5.279830E-16
4.290000E+03	8.144999E-14	5.199144E-16
4.300000E+03	8.102970E-14	5.159911E-16
4.310000E+03	8.117628E-14	5.160949E-16
4.320000E+03	8.184565E-14	5.199181E-16
4.330000E+03	8.295872E-14	5.269440E-16
4.340000E+03	8.439776E-14	5.364216E-16
4.350000E+03	8.600851E-14	5.473740E-16
4.360000E+03	8.760972E-14	5.586506E-16
4.370000E+03	8.904927E-14	5.692778E-16
4.380000E+03	9.027010E-14	5.788771E-16
4.390000E+03	9.127970E-14	5.874754E-16
4.400000E+03	9.212182E-14	5.953293E-16
4.410000E+03	9.284575E-14	6.027317E-16
4.420000E+03	9.348976E-14	6.099067E-16
4.430000E+03	9.407778E-14	6.169876E-16
4.440000E+03	9.461414E-14	6.239808E-16
4.450000E+03	9.508848E-14	6.307952E-16
4.460000E+03	9.547937E-14	6.372641E-16
4.470000E+03	9.575752E-14	6.431640E-16
4.480000E+03	9.589205E-14	6.482552E-16
4.490000E+03	9.585387E-14	6.523046E-16
4.500000E+03	9.562219E-14	6.551303E-16
4.510000E+03	9.518303E-14	6.565933E-16
4.520000E+03	9.453305E-14	6.566260E-16
4.530000E+03	9.367852E-14	6.552275E-16
4.540000E+03	9.263227E-14	6.524448E-16
4.550000E+03	9.141616E-14	6.483922E-16
4.560000E+03	9.005501E-14	6.432104E-16
4.570000E+03	8.857643E-14	6.370662E-16
4.580000E+03	8.700640E-14	6.301212E-16
4.590000E+03	8.537160E-14	6.225484E-16
4.600000E+03	8.369331E-14	6.144878E-16
4.610000E+03	8.199134E-14	6.060737E-16
4.620000E+03	8.027978E-14	5.974030E-16
4.630000E+03	7.857120E-14	5.885648E-16
4.640000E+03	7.687513E-14	5.796284E-16
4.650000E+03	7.520047E-14	5.706564E-16
4.660000E+03	7.355244E-14	5.616826E-16
4.670000E+03	7.193724E-14	5.527507E-16
4.680000E+03	7.035988E-14	5.438975E-16
4.690000E+03	6.882619E-14	5.351683E-16
4.700000E+03	6.734439E-14	5.266291E-16
4.710000E+03	6.592207E-14	5.183432E-16
4.720000E+03	6.456881E-14	5.103917E-16
4.730000E+03	6.329306E-14	5.028487E-16
4.740000E+03	6.210339E-14	4.957911E-16
4.750000E+03	6.100455E-14	4.892664E-16
4.760000E+03	6.000047E-14	4.833162E-16
4.770000E+03	5.909166E-14	4.779547E-16
4.780000E+03	5.827684E-14	4.731811E-16
4.790000E+03	5.755103E-14	4.689641E-16
4.800000E+03	5.690813E-14	4.652619E-16
4.810000E+03	5.634117E-14	4.620243E-16
4.820000E+03	5.584259E-14	4.591952E-16
4.830000E+03	5.540376E-14	4.567083E-16
4.840000E+03	5.501342E-14	4.544744E-16
4.850000E+03	5.465806E-14	4.523849E-16
4.860000E+03	5.431946E-14	4.502905E-16
4.870000E+03	5.397455E-14	4.480012E-16
4.880000E+03	5.359776E-14	4.453055E-16
4.890000E+03	5.316422E-14	4.419972E-16
4.900000E+03	5.265203E-14	4.378956E-16
4.910000E+03	5.205027E-14	4.329126E-16
4.920000E+03	5.135908E-14	4.270534E-16
4.930000E+03	5.059327E-14	4.204470E-16
4.940000E+03	4.978313E-14	4.133519E-16
4.950000E+03	4.897057E-14	4.061233E-16
4.960000E+03	4.820518E-14	3.991789E-16
4.970000E+03	4.754116E-14	3.929717E-16
4.980000E+03	4.703061E-14	3.879331E-16
4.990000E+03	4.672312E-14	3.844684E-16
5.000000E+03	4.665981E-14	3.829069E-16
5.010000E+03	4.687281E-14	3.834977E-16
5.020000E+03	4.738498E-14	3.864074E-16
5.030000E+03	4.820719E-14	3.916990E-16
5.040000E+03	4.933941E-14	3.993424E-16
5.050000E+03	5.077008E-14	4.092110E-16
5.060000E+03	5.247593E-14	4.210823E-16
5.070000E+03	5.442133E-14	4.346359E-16
5.080000E+03	5.656003E-14	4.494702E-16
5.090000E+03	5.883375E-14	4.650948E-16
5.100000E+03	6.117491E-14	4.809550E-16
5.110000E+03	6.350753E-14	4.964429E-16
5.120000E+03	6.575181E-14	5.109358E-16
5.130000E+03	6.782457E-14	5.238018E-16
5.140000E+03	6.964797E-14	5.344689E-16
5.150000E+03	7.114932E-14	5.424223E-16
5.160000E+03	7.227090E-14	5.472793E-16
5.170000E+03	7.297196E-14	5.487998E-16
5.180000E+03	7.323475E-14	5.469271E-16
5.190000E+03	7.306921E-14	5.418162E-16
5.200000E+03	7.251113E-14	5.338121E-16
5.210000E+03	7.162227E-14	5.234433E-16
5.220000E+03	7.048430E-14	5.113699E-16
5.230000E+03	6.919042E-14	4.983168E-16
5.240000E+03	6.783756E-14	4.850156E-16
5.250000E+03	6.651573E-14	4.721275E-16
5.260000E+03	6.530204E-14	4.602034E-16
5.270000E+03	6.425311E-14	4.496352E-16
5.280000E+03	6.340508E-14	4.406616E-16
5.290000E+03	6.277331E-14	4.333723E-16
5.300000E+03	6.235342E-14	4.277204E-16
5.310000E+03	6.212499E-14	4.235529E-16
5.320000E+03	6.205361E-14	4.206277E-16
5.330000E+03	6.209361E-14	4.186352E-16
5.340000E+03	6.219016E-14	4.172128E-16
5.350000E+03	6.228446E-14	4.159801E-16
5.360000E+03	6.231629E-14	4.145547E-16
5.370000E+03	6.223169E-14	4.126008E-16
5.380000E+03	6.200289E-14	4.099559E-16
5.390000E+03	6.165331E-14	4.067871E-16
5.400000E+03	6.122823E-14	4.033985E-16
5.410000E+03	6.077773E-14	4.001205E-16
5.420000E+03	6.034660E-14	3.972460E-16
5.430000E+03	5.997521E-14	3.950367E-16
5.440000E+03	5.969759E-14	3.937051E-16
5.450000E+03	5.954546E-14	3.934452E-16
5.460000E+03	5.954179E-14	3.943973E-16
5.470000E+03	5.969893E-14	3.966354E-16
5.480000E+03	6.001592E-14	4.001490E-16
5.490000E+03	6.047987E-14	4.048501E-16
5.500000E+03	6.106453E-14	4.105623E-16
5.510000E+03	6.173450E-14	4.170457E-16
5.520000E+03	6.244804E-14	4.240138E-16
5.530000E+03	6.316125E-14	4.311603E-16
5.540000E+03	6.383219E-14	4.381853E-16
5.550000E+03	6.442473E-14	4.448224E-16
5.560000E+03	6.490951E-14	4.508454E-16
5.570000E+03	6.526707E-14	4.560919E-16
5.580000E+03	6.548465E-14	4.604425E-16
5.590000E+03	6.555992E-14	4.638492E-16
5.600000E+03	6.549433E-14	4.662903E-16
5.610000E+03	6.529623E-14	4.677941E-16
5.620000E+03	6.497737E-14	4.684157E-16
5.630000E+03	6.454980E-14	4.682147E-16
5.640000E+03	6.403057E-14	4.672908E-16
5.650000E+03	6.343557E-14	4.657391E-16
5.660000E+03	6.278229E-14	4.636707E-16
5.670000E+03	6.209242E-14	4.612318E-16
5.680000E+03	6.138605E-14	4.585619E-16
5.690000E+03	6.068647E-14	4.558286E-16
5.700000E+03	6.001749E-14	4.532084E-16
5.710000E+03	5.940179E-14	4.508737E-16
5.720000E+03	5.886025E-14	4.489872E-16
5.730000E+03	5.841051E-14	4.476903E-16
5.740000E+03	5.806627E-14	4.470963E-16
5.750000E+03	5.783548E-14	4.472762E-16
5.760000E+03	5.771791E-14	4.482379E-16
5.770000E+03	5.770971E-14	4.499612E-16
5.780000E+03	5.779763E-14	4.523506E-16
5.790000E+03	5.796536E-14	4.552852E-16
5.800000E+03	5.819053E-14	4.585940E-16
5.810000E+03	5.844946E-14	4.620931E-16
5.820000E+03	5.871702E-14	4.655853E-16
5.830000E+03	5.896977E-14	4.688843E-16
5.840000E+03	5.918565E-14	4.718135E-16
5.850000E+03	5.934709E-14	4.742312E-16
5.860000E+03	5.944171E-14	4.760369E-16
5.870000E+03	5.946193E-14	4.771685E-16
5.880000E+03	5.940240E-14	4.775828E-16
5.890000E+03	5.926363E-14	4.772843E-16
5.900000E+03	5.904612E-14	4.762784E-16
5.910000E+03	5.875218E-14	4.745865E-16
5.920000E+03	5.838276E-14	4.722195E-16
5.930000E+03	5.793619E-14	4.691683E-16
5.940000E+03	5.740959E-14	4.654145E-16
5.950000E+03	5.679660E-14	4.609119E-16
5.960000E+03	5.608763E-14	4.555886E-16
5.970000E+03	5.527343E-14	4.493752E-16
5.980000E+03	5.434212E-14	4.421814E-16
5.990000E+03	5.328575E-14	4.339482E-16
6.000000E+03	5.210038E-14	4.246494E-16
6.010000E+03	5.078869E-14	4.143121E-16
6.020000E+03	4.936389E-14	4.030489E-16
6.030000E+03	4.784774E-14	3.910420E-16
6.040000E+03	4.627428E-14	3.785736E-16
6.050000E+03	4.468335E-14	3.659735E-16
6.060000E+03	4.312094E-14	3.536224E-16
6.070000E+03	4.163267E-14	3.418988E-16
6.080000E+03	4.026158E-14	3.311617E-16
6.090000E+03	3.904457E-14	3.217216E-16
6.100000E+03	3.801119E-14	3.138309E-16
6.110000E+03	3.718397E-14	3.076869E-16
6.120000E+03	3.657601E-14	3.034118E-16
6.130000E+03	3.619520E-14	3.010866E-16
6.140000E+03	3.604188E-14	3.007330E-16
6.150000E+03	3.611155E-14	3.023352E-16
6.160000E+03	3.639237E-14	3.058190E-16
6.170000E+03	3.686900E-14	3.110822E-16
6.180000E+03	3.751810E-14	3.179574E-16
6.190000E+03	3.831075E-14	3.262289E-16
6.200000E+03	3.921104E-14	3.356203E-16
6.210000E+03	4.017945E-14	3.458201E-16
6.220000E+03	4.117338E-14	3.564846E-16
6.230000E+03	4.214943E-14	3.672505E-16
6.240000E+03	4.306621E-14	3.777569E-16
6.250000E+03	4.388372E-14	3.876428E-16
6.260000E+03	4.457037E-14	3.966100E-16
6.270000E+03	4.510131E-14	4.044094E-16
6.280000E+03	4.546516E-14	4.109035E-16
6.290000E+03	4.566053E-14	4.160395E-16
6.300000E+03	4.569309E-14	4.198260E-16
6.310000E+03	4.557677E-14	4.223474E-16
6.320000E+03	4.532893E-14	4.237222E-16
6.330000E+03	4.496871E-14	4.240895E-16
6.340000E+03	4.451389E-14	4.235810E-16
6.350000E+03	4.398214E-14	4.223325E-16
6.360000E+03	4.338863E-14	4.204610E-16
6.370000E+03	4.274655E-14	4.180697E-16
6.380000E+03	4.206694E-14	4.152452E-16
6.390000E+03	4.135998E-14	4.120698E-16
6.400000E+03	4.063574E-14	4.086289E-16
6.410000E+03	3.990539E-14	4.050232E-16
6.420000E+03	3.918038E-14	4.013609E-16
6.430000E+03	3.847189E-14	3.977527E-16
6.440000E+03	3.779498E-14	3.943542E-16
6.450000E+03	3.716268E-14	3.913060E-16
6.460000E+03	3.658694E-14	3.887430E-16
6.470000E+03	3.607248E-14	3.867274E-16
6.480000E+03	3.561106E-14	3.851837E-16
6.490000E+03	3.519334E-14	3.840212E-16
6.500000E+03	3.480903E-14	3.831359E-16
6.510000E+03	3.444920E-14	3.824351E-16
6.520000E+03	3.410466E-14	3.818198E-16
6.530000E+03	3.377031E-14	3.812342E-16
6.540000E+03	3.343988E-14	3.806074E-16
6.550000E+03	3.311008E-14	3.799006E-16
6.560000E+03	3.277827E-14	3.790817E-16
6.570000E+03	3.244231E-14	3.781231E-16
6.580000E+03	3.210185E-14	3.770186E-16
6.590000E+03	3.175662E-14	3.757624E-16
6.600000E+03	3.140621E-14	3.743474E-16
6.610000E+03	3.105104E-14	3.727763E-16
6.620000E+03	3.069164E-14	3.710540E-16
6.630000E+03	3.032923E-14	3.691939E-16
6.640000E+03	2.996366E-14	3.671929E-16
6.650000E+03	2.959635E-14	3.650682E-16
6.660000E+03	2.922844E-14	3.628333E-16
6.670000E+03	2.886066E-14	3.604979E-16
6.680000E+03	2.849489E-14	3.580857E-16
6.690000E+03	2.813198E-14	3.556088E-16
6.700000E+03	2.777372E-14	3.530912E-16
6.710000E+03	2.742026E-14	3.505368E-16
6.720000E+03	2.707287E-14	3.479637E-16
6.730000E+03	2.673238E-14	3.453849E-16
6.740000E+03	2.639772E-14	3.427890E-16
6.750000E+03	2.606872E-14	3.401761E-16
6.760000E+03	2.574377E-14	3.375273E-16
6.770000E+03	2.542183E-14	3.348308E-16
6.780000E+03	2.510066E-14	3.320592E-16
6.790000E+03	2.477844E-14	3.291894E-16
6.800000E+03	2.445389E-14	3.262061E-16
6.810000E+03	2.412476E-14	3.230800E-16
6.820000E+03	2.379092E-14	3.198104E-16
6.830000E+03	2.345109E-14	3.163811E-16
6.840000E+03	2.310621E-14	3.128058E-16
6.850000E+03	2.275608E-14	3.090829E-16
6.860000E+03	2.240175E-14	3.052282E-16
6.870000E+03	2.204509E-14	3.012686E-16
6.880000E+03	2.168776E-14	2.972285E-16
6.890000E+03	2.133073E-14	2.931239E-16
6.900000E+03	2.097668E-14	2.889935E-16
6.910000E+03	2.062701E-14	2.848592E-16
6.920000E+03	2.028381E-14	2.807527E-16
6.930000E+03	1.994787E-14	2.766878E-16
6.940000E+03	1.962098E-14	2.726920E-16
6.950000E+03	1.930435E-14	2.687852E-16
6.960000E+03	1.899858E-14	2.649788E-16
6.970000E+03	1.870484E-14	2.612917E-16
6.980000E+03	1.842366E-14	2.577340E-16
6.990000E+03	1.815495E-14	2.543077E-16
7.000000E+03	1.789877E-14	2.510156E-16
7.010000E+03	1.765489E-14	2.478573E-16
7.020000E+03	1.742323E-14	2.448339E-16
7.030000E+03	1.720247E-14	2.419289E-16
7.040000E+03	1.699253E-14	2.391433E-16
7.050000E+03	1.679189E-14	2.364576E-16
7.060000E+03	1.660001E-14	2.338662E-16
7.070000E+03	1.641577E-14	2.313548E-16
7.080000E+03	1.623879E-14	2.289195E-16
7.090000E+03	1.606851E-14	2.265543E-16
7.100000E+03	1.590425E-14	2.242509E-16
7.110000E+03	1.574554E-14	2.220041E-16
7.120000E+03	1.559302E-14	2.198242E-16
7.130000E+03	1.544648E-14	2.177097E-16
7.140000E+03	1.530603E-14	2.156634E-16
7.150000E+03	1.517175E-14	2.136876E-16
7.160000E+03	1.504320E-14	2.117774E-16
7.170000E+03	1.492039E-14	2.099338E-16
7.180000E+03	1.480243E-14	2.081458E-16
7.190000E+03	1.468852E-14	2.064029E-16
7.200000E+03	1.457793E-14	2.046962E-16
7.210000E+03	1.446915E-14	2.030053E-16
7.220000E+03	1.436115E-14	2.013171E-16
7.230000E+03	1.425198E-14	1.996054E-16
7.240000E+03	1.414057E-14	1.978565E-16
7.250000E+03	1.402576E-14	1.960552E-16
7.260000E+03	1.390650E-14	1.941884E-16
7.270000E+03	1.378206E-14	1.922471E-16
7.280000E+03	1.365199E-14	1.902266E-16
7.290000E+03	1.351593E-14	1.881229E-16
7.300000E+03	1.337439E-14	1.859447E-16
7.310000E+03	1.322789E-14	1.837005E-16
7.320000E+03	1.307723E-14	1.814027E-16
7.330000E+03	1.292310E-14	1.790621E-16
7.340000E+03	1.276693E-14	1.766995E-16
7.350000E+03	1.261028E-14	1.743375E-16
7.360000E+03	1.245399E-14	1.719886E-16
7.370000E+03	1.229985E-14	1.696785E-16
7.380000E+03	1.214949E-14	1.674301E-16
7.390000E+03	1.200495E-14	1.652721E-16
7.400000E+03	1.186781E-14	1.632268E-16
7.410000E+03	1.174024E-14	1.613243E-16
7.420000E+03	1.162435E-14	1.595937E-16
7.430000E+03	1.152155E-14	1.580549E-16
7.440000E+03	1.143370E-14	1.567333E-16
7.450000E+03	1.136112E-14	1.556325E-16
7.460000E+03	1.130418E-14	1.547565E-16
7.470000E+03	1.126196E-14	1.540912E-16
7.480000E+03	1.123304E-14	1.536161E-16
7.490000E+03	1.121423E-14	1.532862E-16
7.500000E+03	1.120206E-14	1.530533E-16
7.510000E+03	1.119179E-14	1.528516E-16
7.520000E+03	1.117765E-14	1.526015E-16
7.530000E+03	1.115429E-14	1.522292E-16
7.540000E+03	1.111674E-14	1.516663E-16
7.550000E+03	1.106558E-14	1.509199E-16
7.560000E+03	1.100393E-14	1.500321E-16
7.570000E+03	1.093580E-14	1.490568E-16
7.580000E+03	1.086429E-14	1.480355E-16
7.590000E+03	1.079246E-14	1.470093E-16
7.600000E+03	1.072235E-14	1.460053E-16
7.610000E+03	1.065574E-14	1.450471E-16
7.620000E+03	1.059428E-14	1.441563E-16
7.630000E+03	1.053878E-14	1.433432E-16
7.640000E+03	1.049001E-14	1.426178E-16
7.650000E+03	1.044881E-14	1.419909E-16
7.660000E+03	1.041537E-14	1.414641E-16
7.670000E+03	1.039017E-14	1.410433E-16
7.680000E+03	1.037274E-14	1.407216E-16
7.690000E+03	1.036344E-14	1.405033E-16
7.700000E+03	1.036192E-14	1.403825E-16
7.710000E+03	1.036726E-14	1.403465E-16
7.720000E+03	1.037886E-14	1.403864E-16
7.730000E+03	1.039536E-14	1.404830E-16
7.740000E+03	1.041541E-14	1.406174E-16
7.750000E+03	1.043775E-14	1.407723E-16
7.760000E+03	1.046070E-14	1.409245E-16
