#wls	flux	fluxerr
1.600000E+03	1.285789E-14	4.756703E-16
1.640000E+03	1.059193E-14	3.814724E-16
1.680000E+03	8.624031E-15	3.020660E-16
1.720000E+03	6.936544E-15	2.360321E-16
1.760000E+03	5.509080E-15	1.819097E-16
1.800000E+03	4.318728E-15	1.382209E-16
1.840000E+03	3.339438E-15	1.034675E-16
1.880000E+03	2.546495E-15	7.628462E-17
1.920000E+03	1.914428E-15	5.537686E-17
1.960000E+03	1.419112E-15	3.958344E-17
2.000000E+03	1.038261E-15	2.788734E-17
2.040000E+03	7.523991E-16	1.943274E-17
2.080000E+03	5.440882E-16	1.349315E-17
2.120000E+03	3.979035E-16	9.461267E-18
2.160000E+03	3.023410E-16	6.882894E-18
2.200000E+03	2.460336E-16	5.355043E-18
2.240000E+03	2.206476E-16	4.585509E-18
2.280000E+03	2.228592E-16	4.416903E-18
2.320000E+03	2.551774E-16	4.818236E-18
2.360000E+03	3.284719E-16	5.904430E-18
2.400000E+03	4.675395E-16	7.997691E-18
2.440000E+03	7.203156E-16	1.172675E-17
2.480000E+03	1.172556E-15	1.818053E-17
2.520000E+03	1.965728E-15	2.907075E-17
2.560000E+03	3.308537E-15	4.677986E-17
2.600000E+03	5.458954E-15	7.403667E-17
2.640000E+03	8.645228E-15	1.129375E-16
2.680000E+03	1.300268E-14	1.643866E-16
2.720000E+03	1.852480E-14	2.277057E-16
2.760000E+03	2.500892E-14	3.001872E-16
2.800000E+03	3.207538E-14	3.774461E-16
2.840000E+03	3.923227E-14	4.541600E-16
2.880000E+03	4.597340E-14	5.250857E-16
2.920000E+03	5.187248E-14	5.859863E-16
2.960000E+03	5.666311E-14	6.344090E-16
3.000000E+03	6.025435E-14	6.697783E-16
3.010000E+03	6.097241E-14	6.767075E-16
3.020000E+03	6.162152E-14	6.829128E-16
3.030000E+03	6.220459E-14	6.884306E-16
3.040000E+03	6.272774E-14	6.933323E-16
3.050000E+03	6.319326E-14	6.976461E-16
3.060000E+03	6.360509E-14	7.014187E-16
3.070000E+03	6.396887E-14	7.047151E-16
3.080000E+03	6.428770E-14	7.075722E-16
3.090000E+03	6.456624E-14	7.100435E-16
3.100000E+03	6.481195E-14	7.122135E-16
3.110000E+03	6.502695E-14	7.141078E-16
3.120000E+03	6.521748E-14	7.157972E-16
3.130000E+03	6.538719E-14	7.173238E-16
3.140000E+03	6.554500E-14	7.187861E-16
3.150000E+03	6.569205E-14	7.201924E-16
3.160000E+03	6.583466E-14	7.216074E-16
3.170000E+03	6.597904E-14	7.230944E-16
3.180000E+03	6.613009E-14	7.247024E-16
3.190000E+03	6.629014E-14	7.264525E-16
3.200000E+03	6.646764E-14	7.284331E-16
3.210000E+03	6.666479E-14	7.306646E-16
3.220000E+03	6.688742E-14	7.332068E-16
3.230000E+03	6.713885E-14	7.360929E-16
3.240000E+03	6.742474E-14	7.393818E-16
3.250000E+03	6.774945E-14	7.431185E-16
3.260000E+03	6.811732E-14	7.473480E-16
3.270000E+03	6.853143E-14	7.521019E-16
3.280000E+03	6.899713E-14	7.574368E-16
3.290000E+03	6.951848E-14	7.633958E-16
3.300000E+03	7.009833E-14	7.700087E-16
3.310000E+03	7.074159E-14	7.773284E-16
3.320000E+03	7.145063E-14	7.853799E-16
3.330000E+03	7.222971E-14	7.942095E-16
3.340000E+03	7.308011E-14	8.038308E-16
3.350000E+03	7.400324E-14	8.142592E-16
3.360000E+03	7.499900E-14	8.254936E-16
3.370000E+03	7.606544E-14	8.375128E-16
3.380000E+03	7.719906E-14	8.502787E-16
3.390000E+03	7.839483E-14	8.637365E-16
3.400000E+03	7.965192E-14	8.778776E-16
3.410000E+03	8.097085E-14	8.927088E-16
3.420000E+03	8.236448E-14	9.083732E-16
3.430000E+03	8.385023E-14	9.250644E-16
3.440000E+03	8.545694E-14	9.431028E-16
3.450000E+03	8.722124E-14	9.628953E-16
3.460000E+03	8.918001E-14	9.848524E-16
3.470000E+03	9.135934E-14	1.009266E-15
3.480000E+03	9.373743E-14	1.035901E-15
3.490000E+03	9.618643E-14	1.063347E-15
3.500000E+03	9.851194E-14	1.089456E-15
3.510000E+03	1.004875E-13	1.111716E-15
3.520000E+03	1.018814E-13	1.127547E-15
3.530000E+03	1.024727E-13	1.134485E-15
3.540000E+03	1.020894E-13	1.130611E-15
3.550000E+03	1.006284E-13	1.114759E-15
3.560000E+03	9.807699E-14	1.086773E-15
3.570000E+03	9.451565E-14	1.047531E-15
3.580000E+03	9.011619E-14	9.989278E-16
3.590000E+03	8.512237E-14	9.436626E-16
3.600000E+03	7.981056E-14	8.848015E-16
3.610000E+03	7.446714E-14	8.255252E-16
3.620000E+03	6.935569E-14	7.687635E-16
3.630000E+03	6.469074E-14	7.169022E-16
3.640000E+03	6.062550E-14	6.716450E-16
3.650000E+03	5.725544E-14	6.340519E-16
3.660000E+03	5.462923E-14	6.046600E-16
3.670000E+03	5.276563E-14	5.836705E-16
3.680000E+03	5.166160E-14	5.710378E-16
3.690000E+03	5.130687E-14	5.666317E-16
3.700000E+03	5.168719E-14	5.702725E-16
3.710000E+03	5.278694E-14	5.817605E-16
3.720000E+03	5.458910E-14	6.008751E-16
3.730000E+03	5.707741E-14	6.273986E-16
3.740000E+03	6.023214E-14	6.610703E-16
3.750000E+03	6.402845E-14	7.015682E-16
3.760000E+03	6.843348E-14	7.484785E-16
3.770000E+03	7.340613E-14	8.012941E-16
3.780000E+03	7.889359E-14	8.593776E-16
3.790000E+03	8.483099E-14	9.219609E-16
3.800000E+03	9.114495E-14	9.881850E-16
3.810000E+03	9.774622E-14	1.057024E-15
3.820000E+03	1.045375E-13	1.127371E-15
3.830000E+03	1.114122E-13	1.198029E-15
3.840000E+03	1.182509E-13	1.267678E-15
3.850000E+03	1.249268E-13	1.334933E-15
3.860000E+03	1.313081E-13	1.398379E-15
3.870000E+03	1.372618E-13	1.456606E-15
3.880000E+03	1.426642E-13	1.508331E-15
3.890000E+03	1.474115E-13	1.552505E-15
3.900000E+03	1.514330E-13	1.588448E-15
3.910000E+03	1.546960E-13	1.615900E-15
3.920000E+03	1.572145E-13	1.635098E-15
3.930000E+03	1.590465E-13	1.646742E-15
3.940000E+03	1.602885E-13	1.651922E-15
3.950000E+03	1.610678E-13	1.652033E-15
3.960000E+03	1.615250E-13	1.648589E-15
3.970000E+03	1.617984E-13	1.643049E-15
3.980000E+03	1.620127E-13	1.636715E-15
3.990000E+03	1.622561E-13	1.630495E-15
4.000000E+03	1.625713E-13	1.624824E-15
4.010000E+03	1.629411E-13	1.619535E-15
4.020000E+03	1.632893E-13	1.613880E-15
4.030000E+03	1.634983E-13	1.606726E-15
4.040000E+03	1.634170E-13	1.596637E-15
4.050000E+03	1.628919E-13	1.582190E-15
4.060000E+03	1.618006E-13	1.562302E-15
4.070000E+03	1.600834E-13	1.536520E-15
4.080000E+03	1.577393E-13	1.504963E-15
4.090000E+03	1.548145E-13	1.468199E-15
4.100000E+03	1.513882E-13	1.427097E-15
4.110000E+03	1.475512E-13	1.382613E-15
4.120000E+03	1.433849E-13	1.335591E-15
4.130000E+03	1.389453E-13	1.286621E-15
4.140000E+03	1.342720E-13	1.236124E-15
4.150000E+03	1.293917E-13	1.184391E-15
4.160000E+03	1.243290E-13	1.131684E-15
4.170000E+03	1.191177E-13	1.078340E-15
4.180000E+03	1.138095E-13	1.024843E-15
4.190000E+03	1.084810E-13	9.718848E-16
4.200000E+03	1.032291E-13	9.203240E-16
4.210000E+03	9.816845E-14	8.711519E-16
4.220000E+03	9.342595E-14	8.254492E-16
4.230000E+03	8.912474E-14	7.842437E-16
4.240000E+03	8.537314E-14	7.484189E-16
4.250000E+03	8.225972E-14	7.186770E-16
4.260000E+03	7.985002E-14	6.955178E-16
4.270000E+03	7.818487E-14	6.792308E-16
4.280000E+03	7.728433E-14	6.699355E-16
4.290000E+03	7.714548E-14	6.675638E-16
4.300000E+03	7.773935E-14	6.718319E-16
4.310000E+03	7.900513E-14	6.821884E-16
4.320000E+03	8.084709E-14	6.977938E-16
4.330000E+03	8.313601E-14	7.175326E-16
4.340000E+03	8.570221E-14	7.399488E-16
4.350000E+03	8.834699E-14	7.633378E-16
4.360000E+03	9.085510E-14	7.858476E-16
4.370000E+03	9.303013E-14	8.057785E-16
4.380000E+03	9.473530E-14	8.219319E-16
4.390000E+03	9.591942E-14	8.338376E-16
4.400000E+03	9.662658E-14	8.418434E-16
4.410000E+03	9.694609E-14	8.466886E-16
4.420000E+03	9.697580E-14	8.491892E-16
4.430000E+03	9.680194E-14	8.500648E-16
4.440000E+03	9.649095E-14	8.498675E-16
4.450000E+03	9.608189E-14	8.489134E-16
4.460000E+03	9.559027E-14	8.473136E-16
4.470000E+03	9.501788E-14	8.450597E-16
4.480000E+03	9.436300E-14	8.421120E-16
4.490000E+03	9.363492E-14	8.385301E-16
4.500000E+03	9.285191E-14	8.344558E-16
4.510000E+03	9.203939E-14	8.300987E-16
4.520000E+03	9.122561E-14	8.256978E-16
4.530000E+03	9.043321E-14	8.214463E-16
4.540000E+03	8.966808E-14	8.173882E-16
4.550000E+03	8.891289E-14	8.133567E-16
4.560000E+03	8.813096E-14	8.090064E-16
4.570000E+03	8.727575E-14	8.038969E-16
4.580000E+03	8.630148E-14	7.975903E-16
4.590000E+03	8.516837E-14	7.896996E-16
4.600000E+03	8.385872E-14	7.800398E-16
4.610000E+03	8.238375E-14	7.686955E-16
4.620000E+03	8.077749E-14	7.559673E-16
4.630000E+03	7.908690E-14	7.422815E-16
4.640000E+03	7.737026E-14	7.281749E-16
4.650000E+03	7.567903E-14	7.141269E-16
4.660000E+03	7.405964E-14	7.005759E-16
4.670000E+03	7.254162E-14	6.878048E-16
4.680000E+03	7.114024E-14	6.759641E-16
4.690000E+03	6.985837E-14	6.650874E-16
4.700000E+03	6.868897E-14	6.551136E-16
4.710000E+03	6.762095E-14	6.459423E-16
4.720000E+03	6.664031E-14	6.374440E-16
4.730000E+03	6.573478E-14	6.295047E-16
4.740000E+03	6.489322E-14	6.220206E-16
4.750000E+03	6.410017E-14	6.148452E-16
4.760000E+03	6.333566E-14	6.077889E-16
4.770000E+03	6.256465E-14	6.005169E-16
4.780000E+03	6.175443E-14	5.927165E-16
4.790000E+03	6.087732E-14	5.841250E-16
4.800000E+03	5.991772E-14	5.745964E-16
4.810000E+03	5.888133E-14	5.641914E-16
4.820000E+03	5.779473E-14	5.531718E-16
4.830000E+03	5.669758E-14	5.419245E-16
4.840000E+03	5.563688E-14	5.309054E-16
4.850000E+03	5.465641E-14	5.205368E-16
4.860000E+03	5.379059E-14	5.111480E-16
4.870000E+03	5.306006E-14	5.029335E-16
4.880000E+03	5.246944E-14	4.959325E-16
4.890000E+03	5.200899E-14	4.900467E-16
4.900000E+03	5.166190E-14	4.851100E-16
4.910000E+03	5.140628E-14	4.809100E-16
4.920000E+03	5.122460E-14	4.772762E-16
4.930000E+03	5.110813E-14	4.741212E-16
4.940000E+03	5.106076E-14	4.714749E-16
4.950000E+03	5.110058E-14	4.694962E-16
4.960000E+03	5.125539E-14	4.684281E-16
4.970000E+03	5.156135E-14	4.685830E-16
4.980000E+03	5.205652E-14	4.702811E-16
4.990000E+03	5.277628E-14	4.738081E-16
5.000000E+03	5.374668E-14	4.793556E-16
5.010000E+03	5.498308E-14	4.870110E-16
5.020000E+03	5.648202E-14	4.966896E-16
5.030000E+03	5.821990E-14	5.081287E-16
5.040000E+03	6.015190E-14	5.208854E-16
5.050000E+03	6.221103E-14	5.343368E-16
5.060000E+03	6.431199E-14	5.477223E-16
5.070000E+03	6.635777E-14	5.602075E-16
5.080000E+03	6.825126E-14	5.709876E-16
5.090000E+03	6.990604E-14	5.793789E-16
5.100000E+03	7.125602E-14	5.848952E-16
5.110000E+03	7.226089E-14	5.872850E-16
5.120000E+03	7.290414E-14	5.865055E-16
5.130000E+03	7.319193E-14	5.827040E-16
5.140000E+03	7.313509E-14	5.760661E-16
5.150000E+03	7.274698E-14	5.667966E-16
5.160000E+03	7.203374E-14	5.550425E-16
5.170000E+03	7.099660E-14	5.409127E-16
5.180000E+03	6.963541E-14	5.245065E-16
5.190000E+03	6.796079E-14	5.060039E-16
5.200000E+03	6.601124E-14	4.857859E-16
5.210000E+03	6.385857E-14	4.644607E-16
5.220000E+03	6.160409E-14	4.428227E-16
5.230000E+03	5.936243E-14	4.217239E-16
5.240000E+03	5.725498E-14	4.020236E-16
5.250000E+03	5.539053E-14	3.844525E-16
5.260000E+03	5.385193E-14	3.695287E-16
5.270000E+03	5.268944E-14	3.575251E-16
5.280000E+03	5.192615E-14	3.485211E-16
5.290000E+03	5.155851E-14	3.424180E-16
5.300000E+03	5.156014E-14	3.389752E-16
5.310000E+03	5.188431E-14	3.378349E-16
5.320000E+03	5.246750E-14	3.385514E-16
5.330000E+03	5.322765E-14	3.405832E-16
5.340000E+03	5.407207E-14	3.433463E-16
5.350000E+03	5.490419E-14	3.462544E-16
5.360000E+03	5.563456E-14	3.487821E-16
5.370000E+03	5.618819E-14	3.505031E-16
5.380000E+03	5.652884E-14	3.512351E-16
5.390000E+03	5.668356E-14	3.511833E-16
5.400000E+03	5.670320E-14	3.506890E-16
5.410000E+03	5.662341E-14	3.499901E-16
5.420000E+03	5.644976E-14	3.491279E-16
5.430000E+03	5.616737E-14	3.479950E-16
5.440000E+03	5.578094E-14	3.465932E-16
5.450000E+03	5.538721E-14	3.454937E-16
5.460000E+03	5.509852E-14	3.453727E-16
5.470000E+03	5.500024E-14	3.467520E-16
5.480000E+03	5.513795E-14	3.499188E-16
5.490000E+03	5.551547E-14	3.549075E-16
5.500000E+03	5.610582E-14	3.615617E-16
5.510000E+03	5.685281E-14	3.695349E-16
5.520000E+03	5.768402E-14	3.783655E-16
5.530000E+03	5.852021E-14	3.875313E-16
5.540000E+03	5.929124E-14	3.965511E-16
5.550000E+03	5.993809E-14	4.049992E-16
5.560000E+03	6.041932E-14	4.125519E-16
5.570000E+03	6.070966E-14	4.189830E-16
5.580000E+03	6.080249E-14	4.241874E-16
5.590000E+03	6.070528E-14	4.281560E-16
5.600000E+03	6.043870E-14	4.309756E-16
5.610000E+03	6.002891E-14	4.327784E-16
5.620000E+03	5.950522E-14	4.337288E-16
5.630000E+03	5.889481E-14	4.339852E-16
5.640000E+03	5.821988E-14	4.336793E-16
5.650000E+03	5.749727E-14	4.329104E-16
5.660000E+03	5.673615E-14	4.317265E-16
5.670000E+03	5.594303E-14	4.301593E-16
5.680000E+03	5.512375E-14	4.282390E-16
5.690000E+03	5.428507E-14	4.260058E-16
5.700000E+03	5.343704E-14	4.235296E-16
5.710000E+03	5.259396E-14	4.209186E-16
5.720000E+03	5.177499E-14	4.183256E-16
5.730000E+03	5.099870E-14	4.159055E-16
5.740000E+03	5.028457E-14	4.138267E-16
5.750000E+03	4.964703E-14	4.122219E-16
5.760000E+03	4.909464E-14	4.111793E-16
5.770000E+03	4.863027E-14	4.107414E-16
5.780000E+03	4.824927E-14	4.108874E-16
5.790000E+03	4.793967E-14	4.115324E-16
5.800000E+03	4.768535E-14	4.125521E-16
5.810000E+03	4.746795E-14	4.137983E-16
5.820000E+03	4.726622E-14	4.150927E-16
5.830000E+03	4.706179E-14	4.162774E-16
5.840000E+03	4.683888E-14	4.172128E-16
5.850000E+03	4.658616E-14	4.177964E-16
5.860000E+03	4.629796E-14	4.179740E-16
5.870000E+03	4.597201E-14	4.177219E-16
5.880000E+03	4.561247E-14	4.170749E-16
5.890000E+03	4.522491E-14	4.160824E-16
5.900000E+03	4.481651E-14	4.148103E-16
5.910000E+03	4.439419E-14	4.133241E-16
5.920000E+03	4.396285E-14	4.116720E-16
5.930000E+03	4.352406E-14	4.098724E-16
5.940000E+03	4.307320E-14	4.078851E-16
5.950000E+03	4.260101E-14	4.056254E-16
5.960000E+03	4.209247E-14	4.029513E-16
5.970000E+03	4.152686E-14	3.996630E-16
5.980000E+03	4.087886E-14	3.955122E-16
5.990000E+03	4.012358E-14	3.902494E-16
6.000000E+03	3.923653E-14	3.836239E-16
6.010000E+03	3.820337E-14	3.754796E-16
6.020000E+03	3.701855E-14	3.657434E-16
6.030000E+03	3.569281E-14	3.545027E-16
6.040000E+03	3.425448E-14	3.420209E-16
6.050000E+03	3.274728E-14	3.287216E-16
6.060000E+03	3.122684E-14	3.151562E-16
6.070000E+03	2.975388E-14	3.019390E-16
6.080000E+03	2.839072E-14	2.897134E-16
6.090000E+03	2.719147E-14	2.790528E-16
6.100000E+03	2.620059E-14	2.704435E-16
6.110000E+03	2.544856E-14	2.642386E-16
6.120000E+03	2.495447E-14	2.606814E-16
6.130000E+03	2.472768E-14	2.599194E-16
6.140000E+03	2.476874E-14	2.620105E-16
6.150000E+03	2.507047E-14	2.669333E-16
6.160000E+03	2.561901E-14	2.745965E-16
6.170000E+03	2.639268E-14	2.848231E-16
6.180000E+03	2.735956E-14	2.973217E-16
6.190000E+03	2.847964E-14	3.117056E-16
6.200000E+03	2.970462E-14	3.274865E-16
6.210000E+03	3.098174E-14	3.441130E-16
6.220000E+03	3.226097E-14	3.610479E-16
6.230000E+03	3.350372E-14	3.778664E-16
6.240000E+03	3.468271E-14	3.942589E-16
6.250000E+03	3.576456E-14	4.098353E-16
6.260000E+03	3.671039E-14	4.241285E-16
6.270000E+03	3.749189E-14	4.367766E-16
6.280000E+03	3.809570E-14	4.475767E-16
6.290000E+03	3.852229E-14	4.564810E-16
6.300000E+03	3.878325E-14	4.635729E-16
6.310000E+03	3.889789E-14	4.690307E-16
6.320000E+03	3.888939E-14	4.730866E-16
6.330000E+03	3.878050E-14	4.759754E-16
6.340000E+03	3.859323E-14	4.779320E-16
6.350000E+03	3.834654E-14	4.791621E-16
6.360000E+03	3.805456E-14	4.798182E-16
6.370000E+03	3.772933E-14	4.800328E-16
6.380000E+03	3.737885E-14	4.798916E-16
6.390000E+03	3.700849E-14	4.794502E-16
6.400000E+03	3.662170E-14	4.787417E-16
6.410000E+03	3.622197E-14	4.778013E-16
6.420000E+03	3.581016E-14	4.766312E-16
6.430000E+03	3.538797E-14	4.752454E-16
6.440000E+03	3.495564E-14	4.736392E-16
6.450000E+03	3.451290E-14	4.718012E-16
6.460000E+03	3.405990E-14	4.697258E-16
6.470000E+03	3.359809E-14	4.674261E-16
6.480000E+03	3.313236E-14	4.649641E-16
6.490000E+03	3.266621E-14	4.623850E-16
6.500000E+03	3.220463E-14	4.597569E-16
6.510000E+03	3.175076E-14	4.571242E-16
6.520000E+03	3.130652E-14	4.545153E-16
6.530000E+03	3.087441E-14	4.519681E-16
6.540000E+03	3.045592E-14	4.495069E-16
6.550000E+03	3.005203E-14	4.471497E-16
6.560000E+03	2.966336E-14	4.449094E-16
6.570000E+03	2.929054E-14	4.427994E-16
6.580000E+03	2.893268E-14	4.408106E-16
6.590000E+03	2.858890E-14	4.389338E-16
6.600000E+03	2.825836E-14	4.371597E-16
6.610000E+03	2.793926E-14	4.354642E-16
6.620000E+03	2.762919E-14	4.338123E-16
6.630000E+03	2.732648E-14	4.321804E-16
6.640000E+03	2.702861E-14	4.305301E-16
6.650000E+03	2.673478E-14	4.288496E-16
6.660000E+03	2.644273E-14	4.271037E-16
6.670000E+03	2.615169E-14	4.252798E-16
6.680000E+03	2.586196E-14	4.233830E-16
6.690000E+03	2.557393E-14	4.214203E-16
6.700000E+03	2.528798E-14	4.193982E-16
6.710000E+03	2.500526E-14	4.173369E-16
6.720000E+03	2.472748E-14	4.152662E-16
6.730000E+03	2.445536E-14	4.131999E-16
6.740000E+03	2.419032E-14	4.111642E-16
6.750000E+03	2.393217E-14	4.091583E-16
6.760000E+03	2.368207E-14	4.072044E-16
6.770000E+03	2.343909E-14	4.052895E-16
6.780000E+03	2.320376E-14	4.034250E-16
6.790000E+03	2.297469E-14	4.015893E-16
6.800000E+03	2.275174E-14	3.997822E-16
6.810000E+03	2.253439E-14	3.979965E-16
6.820000E+03	2.232175E-14	3.962187E-16
6.830000E+03	2.211401E-14	3.944538E-16
6.840000E+03	2.191062E-14	3.926938E-16
6.850000E+03	2.171194E-14	3.909471E-16
6.860000E+03	2.151724E-14	3.892018E-16
6.870000E+03	2.132743E-14	3.874763E-16
6.880000E+03	2.114224E-14	3.857677E-16
6.890000E+03	2.096190E-14	3.840816E-16
6.900000E+03	2.078630E-14	3.824179E-16
6.910000E+03	2.061656E-14	3.807989E-16
6.920000E+03	2.045193E-14	3.792128E-16
6.930000E+03	2.029403E-14	3.776914E-16
6.940000E+03	2.014258E-14	3.762315E-16
6.950000E+03	1.999809E-14	3.748447E-16
6.960000E+03	1.986140E-14	3.735486E-16
6.970000E+03	1.973248E-14	3.723451E-16
6.980000E+03	1.961160E-14	3.712410E-16
6.990000E+03	1.949880E-14	3.702393E-16
7.000000E+03	1.939399E-14	3.693400E-16
7.010000E+03	1.929683E-14	3.685387E-16
7.020000E+03	1.920643E-14	3.678201E-16
7.030000E+03	1.912283E-14	3.671864E-16
7.040000E+03	1.904404E-14	3.666007E-16
7.050000E+03	1.897016E-14	3.660661E-16
7.060000E+03	1.889895E-14	3.655407E-16
7.070000E+03	1.883004E-14	3.650176E-16
7.080000E+03	1.876188E-14	3.644680E-16
7.090000E+03	1.869344E-14	3.638720E-16
7.100000E+03	1.862414E-14	3.632188E-16
7.110000E+03	1.855245E-14	3.624791E-16
7.120000E+03	1.847813E-14	3.616480E-16
7.130000E+03	1.840028E-14	3.607086E-16
7.140000E+03	1.831884E-14	3.596597E-16
7.150000E+03	1.823333E-14	3.584921E-16
7.160000E+03	1.814278E-14	3.571872E-16
7.170000E+03	1.804688E-14	3.557390E-16
7.180000E+03	1.794410E-14	3.541178E-16
7.190000E+03	1.783437E-14	3.523223E-16
7.200000E+03	1.771650E-14	3.503295E-16
7.210000E+03	1.758943E-14	3.481189E-16
7.220000E+03	1.745304E-14	3.456881E-16
7.230000E+03	1.730706E-14	3.430328E-16
7.240000E+03	1.715121E-14	3.401480E-16
7.250000E+03	1.698599E-14	3.370440E-16
7.260000E+03	1.681230E-14	3.337398E-16
7.270000E+03	1.663146E-14	3.302627E-16
7.280000E+03	1.644515E-14	3.266467E-16
7.290000E+03	1.625461E-14	3.229181E-16
7.300000E+03	1.606255E-14	3.191314E-16
7.310000E+03	1.587057E-14	3.153200E-16
7.320000E+03	1.568007E-14	3.115130E-16
7.330000E+03	1.549281E-14	3.077463E-16
7.340000E+03	1.530905E-14	3.040265E-16
7.350000E+03	1.512935E-14	3.003656E-16
7.360000E+03	1.495387E-14	2.967682E-16
7.370000E+03	1.478220E-14	2.932268E-16
7.380000E+03	1.461448E-14	2.897457E-16
7.390000E+03	1.444984E-14	2.863080E-16
7.400000E+03	1.428931E-14	2.829357E-16
7.410000E+03	1.413320E-14	2.796352E-16
7.420000E+03	1.398325E-14	2.764423E-16
7.430000E+03	1.384116E-14	2.733907E-16
7.440000E+03	1.370919E-14	2.705258E-16
7.450000E+03	1.358990E-14	2.678980E-16
7.460000E+03	1.348502E-14	2.655412E-16
7.470000E+03	1.339689E-14	2.635004E-16
7.480000E+03	1.332565E-14	2.617773E-16
7.490000E+03	1.327161E-14	2.603770E-16
7.500000E+03	1.323326E-14	2.592684E-16
7.510000E+03	1.320938E-14	2.584264E-16
7.520000E+03	1.319682E-14	2.577883E-16
7.530000E+03	1.319232E-14	2.572888E-16
7.540000E+03	1.319307E-14	2.568728E-16
7.550000E+03	1.319757E-14	2.565101E-16
7.560000E+03	1.320596E-14	2.562033E-16
7.570000E+03	1.321749E-14	2.559366E-16
7.580000E+03	1.323242E-14	2.557151E-16
7.590000E+03	1.325106E-14	2.555437E-16
7.600000E+03	1.327302E-14	2.554144E-16
7.610000E+03	1.329830E-14	2.553266E-16
7.620000E+03	1.332614E-14	2.552653E-16
7.630000E+03	1.335642E-14	2.552273E-16
7.640000E+03	1.338746E-14	2.551800E-16
7.650000E+03	1.341851E-14	2.551093E-16
7.660000E+03	1.344745E-14	2.549744E-16
7.670000E+03	1.347311E-14	2.547534E-16
7.680000E+03	1.349285E-14	2.543971E-16
7.690000E+03	1.350506E-14	2.538762E-16
7.700000E+03	1.350687E-14	2.531377E-16
7.710000E+03	1.349529E-14	2.521280E-16
7.720000E+03	1.346700E-14	2.507875E-16
7.730000E+03	1.341826E-14	2.490504E-16
7.740000E+03	1.334531E-14	2.468510E-16
7.750000E+03	1.324433E-14	2.441240E-16
7.760000E+03	1.311308E-14	2.408344E-16
