#wls	flux	fluxerr
1.600000E+03	1.310992E-14	4.401426E-16
1.640000E+03	1.130148E-14	3.687565E-16
1.680000E+03	9.600645E-15	3.041267E-16
1.720000E+03	8.032227E-15	2.467530E-16
1.760000E+03	6.612243E-15	1.967680E-16
1.800000E+03	5.353705E-15	1.541459E-16
1.840000E+03	4.263855E-15	1.186402E-16
1.880000E+03	3.342520E-15	8.976885E-17
1.920000E+03	2.583773E-15	6.689479E-17
1.960000E+03	1.976088E-15	4.925992E-17
2.000000E+03	1.503102E-15	3.603260E-17
2.040000E+03	1.146140E-15	2.639066E-17
2.080000E+03	8.858056E-16	1.956913E-17
2.120000E+03	7.037691E-16	1.490197E-17
2.160000E+03	5.835437E-16	1.183296E-17
2.200000E+03	5.131513E-16	9.958434E-18
2.240000E+03	4.859326E-16	9.021762E-18
2.280000E+03	5.013627E-16	8.905244E-18
2.320000E+03	5.651110E-16	9.607815E-18
2.360000E+03	6.920441E-16	1.127458E-17
2.400000E+03	9.108290E-16	1.424524E-17
2.440000E+03	1.269876E-15	1.911652E-17
2.480000E+03	1.844922E-15	2.682741E-17
2.520000E+03	2.745839E-15	3.873567E-17
2.560000E+03	4.118687E-15	5.664187E-17
2.600000E+03	6.132351E-15	8.260730E-17
2.640000E+03	8.946072E-15	1.185594E-16
2.680000E+03	1.265532E-14	1.656368E-16
2.720000E+03	1.723181E-14	2.234564E-16
2.760000E+03	2.247987E-14	2.895671E-16
2.800000E+03	2.804171E-14	3.594941E-16
2.840000E+03	3.346377E-14	4.275422E-16
2.880000E+03	3.829372E-14	4.879916E-16
2.920000E+03	4.217572E-14	5.363028E-16
2.960000E+03	4.491091E-14	5.699050E-16
3.000000E+03	4.648084E-14	5.885271E-16
3.010000E+03	4.670431E-14	5.910063E-16
3.020000E+03	4.686645E-14	5.926950E-16
3.030000E+03	4.697084E-14	5.936390E-16
3.040000E+03	4.702235E-14	5.939008E-16
3.050000E+03	4.702407E-14	5.935200E-16
3.060000E+03	4.698032E-14	5.925525E-16
3.070000E+03	4.689754E-14	5.910808E-16
3.080000E+03	4.677832E-14	5.891385E-16
3.090000E+03	4.662921E-14	5.868096E-16
3.100000E+03	4.645390E-14	5.841420E-16
3.110000E+03	4.625704E-14	5.811957E-16
3.120000E+03	4.604512E-14	5.780535E-16
3.130000E+03	4.582086E-14	5.747509E-16
3.140000E+03	4.558970E-14	5.713577E-16
3.150000E+03	4.535609E-14	5.679298E-16
3.160000E+03	4.512529E-14	5.645315E-16
3.170000E+03	4.490075E-14	5.612045E-16
3.180000E+03	4.468757E-14	5.580111E-16
3.190000E+03	4.448992E-14	5.550017E-16
3.200000E+03	4.431117E-14	5.522167E-16
3.210000E+03	4.415628E-14	5.497164E-16
3.220000E+03	4.403015E-14	5.475598E-16
3.230000E+03	4.393544E-14	5.457784E-16
3.240000E+03	4.387798E-14	5.444422E-16
3.250000E+03	4.386064E-14	5.435851E-16
3.260000E+03	4.389021E-14	5.432885E-16
3.270000E+03	4.396932E-14	5.435824E-16
3.280000E+03	4.410380E-14	5.445362E-16
3.290000E+03	4.429983E-14	5.462229E-16
3.300000E+03	4.456263E-14	5.487036E-16
3.310000E+03	4.489944E-14	5.520632E-16
3.320000E+03	4.531604E-14	5.563687E-16
3.330000E+03	4.582116E-14	5.617221E-16
3.340000E+03	4.642377E-14	5.682283E-16
3.350000E+03	4.713402E-14	5.760053E-16
3.360000E+03	4.796342E-14	5.851867E-16
3.370000E+03	4.892438E-14	5.959163E-16
3.380000E+03	5.003181E-14	6.083671E-16
3.390000E+03	5.130278E-14	6.227364E-16
3.400000E+03	5.275669E-14	6.392488E-16
3.410000E+03	5.441479E-14	6.581492E-16
3.420000E+03	5.630169E-14	6.797206E-16
3.430000E+03	5.844443E-14	7.042736E-16
3.440000E+03	6.087096E-14	7.321268E-16
3.450000E+03	6.361013E-14	7.636069E-16
3.460000E+03	6.668755E-14	7.989996E-16
3.470000E+03	7.011662E-14	8.384416E-16
3.480000E+03	7.388287E-14	8.817363E-16
3.490000E+03	7.790511E-14	9.278941E-16
3.500000E+03	8.204585E-14	9.752640E-16
3.510000E+03	8.612746E-14	1.021733E-15
3.520000E+03	8.994244E-14	1.064851E-15
3.530000E+03	9.327378E-14	1.102077E-15
3.540000E+03	9.591119E-14	1.130968E-15
3.550000E+03	9.767445E-14	1.149446E-15
3.560000E+03	9.843565E-14	1.156064E-15
3.570000E+03	9.813480E-14	1.150183E-15
3.580000E+03	9.678750E-14	1.132056E-15
3.590000E+03	9.448816E-14	1.102854E-15
3.600000E+03	9.139469E-14	1.064483E-15
3.610000E+03	8.771577E-14	1.019424E-15
3.620000E+03	8.368478E-14	9.704272E-16
3.630000E+03	7.953995E-14	9.202766E-16
3.640000E+03	7.549455E-14	8.714453E-16
3.650000E+03	7.173231E-14	8.260442E-16
3.660000E+03	6.839685E-14	7.857034E-16
3.670000E+03	6.559348E-14	7.515970E-16
3.680000E+03	6.338976E-14	7.244542E-16
3.690000E+03	6.182835E-14	7.047098E-16
3.700000E+03	6.092803E-14	6.925192E-16
3.710000E+03	6.068866E-14	6.878180E-16
3.720000E+03	6.109927E-14	6.904155E-16
3.730000E+03	6.214850E-14	7.001144E-16
3.740000E+03	6.382191E-14	7.166802E-16
3.750000E+03	6.610809E-14	7.399106E-16
3.760000E+03	6.899566E-14	7.696008E-16
3.770000E+03	7.247364E-14	8.055478E-16
3.780000E+03	7.652815E-14	8.475143E-16
3.790000E+03	8.114228E-14	8.952268E-16
3.800000E+03	8.628970E-14	9.483076E-16
3.810000E+03	9.193527E-14	1.006282E-15
3.820000E+03	9.802680E-14	1.068493E-15
3.830000E+03	1.044903E-13	1.134053E-15
3.840000E+03	1.112277E-13	1.201824E-15
3.850000E+03	1.181141E-13	1.270396E-15
3.860000E+03	1.250017E-13	1.338141E-15
3.870000E+03	1.317223E-13	1.403241E-15
3.880000E+03	1.381010E-13	1.463842E-15
3.890000E+03	1.439741E-13	1.518252E-15
3.900000E+03	1.491995E-13	1.565045E-15
3.910000E+03	1.536748E-13	1.603244E-15
3.920000E+03	1.573448E-13	1.632394E-15
3.930000E+03	1.602096E-13	1.652628E-15
3.940000E+03	1.623106E-13	1.664511E-15
3.950000E+03	1.637328E-13	1.669047E-15
3.960000E+03	1.645831E-13	1.667449E-15
3.970000E+03	1.649803E-13	1.661025E-15
3.980000E+03	1.650424E-13	1.651051E-15
3.990000E+03	1.648699E-13	1.638600E-15
4.000000E+03	1.645405E-13	1.624499E-15
4.010000E+03	1.640959E-13	1.609199E-15
4.020000E+03	1.635447E-13	1.592821E-15
4.030000E+03	1.628606E-13	1.575148E-15
4.040000E+03	1.619855E-13	1.555666E-15
4.050000E+03	1.608473E-13	1.533741E-15
4.060000E+03	1.593821E-13	1.508842E-15
4.070000E+03	1.575496E-13	1.480676E-15
4.080000E+03	1.553437E-13	1.449279E-15
4.090000E+03	1.527785E-13	1.414880E-15
4.100000E+03	1.499010E-13	1.378001E-15
4.110000E+03	1.467670E-13	1.339233E-15
4.120000E+03	1.434272E-13	1.299105E-15
4.130000E+03	1.399104E-13	1.257933E-15
4.140000E+03	1.362289E-13	1.215877E-15
4.150000E+03	1.323794E-13	1.172949E-15
4.160000E+03	1.283424E-13	1.129022E-15
4.170000E+03	1.241021E-13	1.084000E-15
4.180000E+03	1.196624E-13	1.037959E-15
4.190000E+03	1.150561E-13	9.912190E-16
4.200000E+03	1.103461E-13	9.443432E-16
4.210000E+03	1.056246E-13	8.981276E-16
4.220000E+03	1.010097E-13	8.535607E-16
4.230000E+03	9.662838E-14	8.116811E-16
4.240000E+03	9.260802E-14	7.735016E-16
4.250000E+03	8.906812E-14	7.399491E-16
4.260000E+03	8.611453E-14	7.118201E-16
4.270000E+03	8.382993E-14	6.897105E-16
4.280000E+03	8.227392E-14	6.740245E-16
4.290000E+03	8.148143E-14	6.649678E-16
4.300000E+03	8.145414E-14	6.624791E-16
4.310000E+03	8.215633E-14	6.662001E-16
4.320000E+03	8.351112E-14	6.754525E-16
4.330000E+03	8.539915E-14	6.892348E-16
4.340000E+03	8.764769E-14	7.061337E-16
4.350000E+03	9.004629E-14	7.244490E-16
4.360000E+03	9.236386E-14	7.423264E-16
4.370000E+03	9.440539E-14	7.582074E-16
4.380000E+03	9.608166E-14	7.713825E-16
4.390000E+03	9.738462E-14	7.817884E-16
4.400000E+03	9.835366E-14	7.897366E-16
4.410000E+03	9.904959E-14	7.957055E-16
4.420000E+03	9.953587E-14	8.001918E-16
4.430000E+03	9.984931E-14	8.034764E-16
4.440000E+03	1.000091E-13	8.056968E-16
4.450000E+03	1.000141E-13	8.068277E-16
4.460000E+03	9.984649E-14	8.067053E-16
4.470000E+03	9.948191E-14	8.051128E-16
4.480000E+03	9.889994E-14	8.018629E-16
4.490000E+03	9.810418E-14	7.969612E-16
4.500000E+03	9.711074E-14	7.905153E-16
4.510000E+03	9.595765E-14	7.828122E-16
4.520000E+03	9.469838E-14	7.742679E-16
4.530000E+03	9.339206E-14	7.653494E-16
4.540000E+03	9.208793E-14	7.564475E-16
4.550000E+03	9.081503E-14	7.477918E-16
4.560000E+03	8.958696E-14	7.394871E-16
4.570000E+03	8.839397E-14	7.314477E-16
4.580000E+03	8.720892E-14	7.234432E-16
4.590000E+03	8.599540E-14	7.151650E-16
4.600000E+03	8.471999E-14	7.063269E-16
4.610000E+03	8.336019E-14	6.967320E-16
4.620000E+03	8.190613E-14	6.862877E-16
4.630000E+03	8.036391E-14	6.750356E-16
4.640000E+03	7.875675E-14	6.631581E-16
4.650000E+03	7.711581E-14	6.509030E-16
4.660000E+03	7.547010E-14	6.385040E-16
4.670000E+03	7.384685E-14	6.261830E-16
4.680000E+03	7.226601E-14	6.141036E-16
4.690000E+03	7.074156E-14	6.023807E-16
4.700000E+03	6.928335E-14	5.910964E-16
4.710000E+03	6.789745E-14	5.803015E-16
4.720000E+03	6.659047E-14	5.700526E-16
4.730000E+03	6.537243E-14	5.604362E-16
4.740000E+03	6.425413E-14	5.515463E-16
4.750000E+03	6.324312E-14	5.434494E-16
4.760000E+03	6.233672E-14	5.361240E-16
4.770000E+03	6.151383E-14	5.293897E-16
4.780000E+03	6.074685E-14	5.230093E-16
4.790000E+03	6.000989E-14	5.167600E-16
4.800000E+03	5.928083E-14	5.104510E-16
4.810000E+03	5.855138E-14	5.040115E-16
4.820000E+03	5.782564E-14	4.974774E-16
4.830000E+03	5.711927E-14	4.909849E-16
4.840000E+03	5.645023E-14	4.846892E-16
4.850000E+03	5.583268E-14	4.787129E-16
4.860000E+03	5.527597E-14	4.731359E-16
4.870000E+03	5.477597E-14	4.679224E-16
4.880000E+03	5.431612E-14	4.629302E-16
4.890000E+03	5.386926E-14	4.579282E-16
4.900000E+03	5.341071E-14	4.527085E-16
4.910000E+03	5.291854E-14	4.470896E-16
4.920000E+03	5.238225E-14	4.409889E-16
4.930000E+03	5.180560E-14	4.344459E-16
4.940000E+03	5.121206E-14	4.276653E-16
4.950000E+03	5.063851E-14	4.209605E-16
4.960000E+03	5.013502E-14	4.147485E-16
4.970000E+03	4.976158E-14	4.095194E-16
4.980000E+03	4.957974E-14	4.057643E-16
4.990000E+03	4.964729E-14	4.039302E-16
5.000000E+03	5.001295E-14	4.043764E-16
5.010000E+03	5.071440E-14	4.073600E-16
5.020000E+03	5.177307E-14	4.129960E-16
5.030000E+03	5.319022E-14	4.212307E-16
5.040000E+03	5.494594E-14	4.318391E-16
5.050000E+03	5.699870E-14	4.444289E-16
5.060000E+03	5.928057E-14	4.584108E-16
5.070000E+03	6.170146E-14	4.730408E-16
5.080000E+03	6.415989E-14	4.875120E-16
5.090000E+03	6.655247E-14	5.010313E-16
5.100000E+03	6.878156E-14	5.128795E-16
5.110000E+03	7.076099E-14	5.224529E-16
5.120000E+03	7.243036E-14	5.293657E-16
5.130000E+03	7.375147E-14	5.334145E-16
5.140000E+03	7.470155E-14	5.345227E-16
5.150000E+03	7.526898E-14	5.327031E-16
5.160000E+03	7.545034E-14	5.280335E-16
5.170000E+03	7.524115E-14	5.205884E-16
5.180000E+03	7.464004E-14	5.104673E-16
5.190000E+03	7.365410E-14	4.978289E-16
5.200000E+03	7.231637E-14	4.830035E-16
5.210000E+03	7.069370E-14	4.665339E-16
5.220000E+03	6.887990E-14	4.491164E-16
5.230000E+03	6.698430E-14	4.315159E-16
5.240000E+03	6.512623E-14	4.145254E-16
5.250000E+03	6.341390E-14	3.988295E-16
5.260000E+03	6.193589E-14	3.849582E-16
5.270000E+03	6.074868E-14	3.732189E-16
5.280000E+03	5.988436E-14	3.637571E-16
5.290000E+03	5.935177E-14	3.565739E-16
5.300000E+03	5.914003E-14	3.515555E-16
5.310000E+03	5.922365E-14	3.485114E-16
5.320000E+03	5.956065E-14	3.471674E-16
5.330000E+03	6.009483E-14	3.471835E-16
5.340000E+03	6.075356E-14	3.481434E-16
5.350000E+03	6.144232E-14	3.495245E-16
5.360000E+03	6.204017E-14	3.506730E-16
5.370000E+03	6.242312E-14	3.509337E-16
5.380000E+03	6.251418E-14	3.499200E-16
5.390000E+03	6.234563E-14	3.478393E-16
5.400000E+03	6.200132E-14	3.451687E-16
5.410000E+03	6.156259E-14	3.423588E-16
5.420000E+03	6.108602E-14	3.397147E-16
5.430000E+03	6.061174E-14	3.374458E-16
5.440000E+03	6.018838E-14	3.358016E-16
5.450000E+03	5.988641E-14	3.351480E-16
5.460000E+03	5.978207E-14	3.358907E-16
5.470000E+03	5.992906E-14	3.383195E-16
5.480000E+03	6.034770E-14	3.425465E-16
5.490000E+03	6.103201E-14	3.485421E-16
5.500000E+03	6.195259E-14	3.561464E-16
5.510000E+03	6.305638E-14	3.650619E-16
5.520000E+03	6.426973E-14	3.748649E-16
5.530000E+03	6.551801E-14	3.851138E-16
5.540000E+03	6.672792E-14	3.953614E-16
5.550000E+03	6.783704E-14	4.052106E-16
5.560000E+03	6.879359E-14	4.143150E-16
5.570000E+03	6.955777E-14	4.223898E-16
5.580000E+03	7.010283E-14	4.292216E-16
5.590000E+03	7.041822E-14	4.346915E-16
5.600000E+03	7.050612E-14	4.387583E-16
5.610000E+03	7.037998E-14	4.414536E-16
5.620000E+03	7.006261E-14	4.428723E-16
5.630000E+03	6.958350E-14	4.431589E-16
5.640000E+03	6.897267E-14	4.424695E-16
5.650000E+03	6.826223E-14	4.409814E-16
5.660000E+03	6.748232E-14	4.388678E-16
5.670000E+03	6.666135E-14	4.362979E-16
5.680000E+03	6.582503E-14	4.334301E-16
5.690000E+03	6.499800E-14	4.304211E-16
5.700000E+03	6.420320E-14	4.274215E-16
5.710000E+03	6.346247E-14	4.245787E-16
5.720000E+03	6.279735E-14	4.220414E-16
5.730000E+03	6.222777E-14	4.199501E-16
5.740000E+03	6.176768E-14	4.184065E-16
5.750000E+03	6.142605E-14	4.174792E-16
5.760000E+03	6.120602E-14	4.171967E-16
5.770000E+03	6.109912E-14	4.175073E-16
5.780000E+03	6.109068E-14	4.183149E-16
5.790000E+03	6.115643E-14	4.194557E-16
5.800000E+03	6.126840E-14	4.207384E-16
5.810000E+03	6.139594E-14	4.219524E-16
5.820000E+03	6.150819E-14	4.228849E-16
5.830000E+03	6.157938E-14	4.233585E-16
5.840000E+03	6.159217E-14	4.232552E-16
5.850000E+03	6.153856E-14	4.225228E-16
5.860000E+03	6.141764E-14	4.211596E-16
5.870000E+03	6.123705E-14	4.192243E-16
5.880000E+03	6.101145E-14	4.168251E-16
5.890000E+03	6.075315E-14	4.140544E-16
5.900000E+03	6.047515E-14	4.110102E-16
5.910000E+03	6.018472E-14	4.077513E-16
5.920000E+03	5.988413E-14	4.043032E-16
5.930000E+03	5.956916E-14	4.006485E-16
5.940000E+03	5.922649E-14	3.967096E-16
5.950000E+03	5.883766E-14	3.923778E-16
5.960000E+03	5.837712E-14	3.875000E-16
5.970000E+03	5.781169E-14	3.818771E-16
5.980000E+03	5.710688E-14	3.753073E-16
5.990000E+03	5.622739E-14	3.675893E-16
6.000000E+03	5.514095E-14	3.585474E-16
6.010000E+03	5.382628E-14	3.480825E-16
6.020000E+03	5.227894E-14	3.362070E-16
6.030000E+03	5.051183E-14	3.230442E-16
6.040000E+03	4.856176E-14	3.088666E-16
6.050000E+03	4.649282E-14	2.941119E-16
6.060000E+03	4.438126E-14	2.792831E-16
6.070000E+03	4.231372E-14	2.649353E-16
6.080000E+03	4.037982E-14	2.516291E-16
6.090000E+03	3.866276E-14	2.398732E-16
6.100000E+03	3.722049E-14	2.300117E-16
6.110000E+03	3.608641E-14	2.222337E-16
6.120000E+03	3.527596E-14	2.166186E-16
6.130000E+03	3.479612E-14	2.131981E-16
6.140000E+03	3.464431E-14	2.119514E-16
6.150000E+03	3.481338E-14	2.128387E-16
6.160000E+03	3.529194E-14	2.158036E-16
6.170000E+03	3.605871E-14	2.207392E-16
6.180000E+03	3.708512E-14	2.275045E-16
6.190000E+03	3.833077E-14	2.358944E-16
6.200000E+03	3.973855E-14	2.456076E-16
6.210000E+03	4.123746E-14	2.562589E-16
6.220000E+03	4.275291E-14	2.674365E-16
6.230000E+03	4.421406E-14	2.787363E-16
6.240000E+03	4.555634E-14	2.897641E-16
6.250000E+03	4.672158E-14	3.001432E-16
6.260000E+03	4.766988E-14	3.095917E-16
6.270000E+03	4.837957E-14	3.179254E-16
6.280000E+03	4.884746E-14	3.250656E-16
6.290000E+03	4.908819E-14	3.310426E-16
6.300000E+03	4.912687E-14	3.359542E-16
6.310000E+03	4.899286E-14	3.399301E-16
6.320000E+03	4.871692E-14	3.431159E-16
6.330000E+03	4.832936E-14	3.456628E-16
6.340000E+03	4.785396E-14	3.476854E-16
6.350000E+03	4.730968E-14	3.492719E-16
6.360000E+03	4.670937E-14	3.504733E-16
6.370000E+03	4.606182E-14	3.513153E-16
6.380000E+03	4.537294E-14	3.518062E-16
6.390000E+03	4.464721E-14	3.519468E-16
6.400000E+03	4.389000E-14	3.517479E-16
6.410000E+03	4.310866E-14	3.512404E-16
6.420000E+03	4.231436E-14	3.504914E-16
6.430000E+03	4.152097E-14	3.495983E-16
6.440000E+03	4.074715E-14	3.487081E-16
6.450000E+03	4.001369E-14	3.479981E-16
6.460000E+03	3.934018E-14	3.476476E-16
6.470000E+03	3.873601E-14	3.477570E-16
6.480000E+03	3.818696E-14	3.482173E-16
6.490000E+03	3.767744E-14	3.489004E-16
6.500000E+03	3.719507E-14	3.496998E-16
6.510000E+03	3.673250E-14	3.505511E-16
6.520000E+03	3.628278E-14	3.513899E-16
6.530000E+03	3.584253E-14	3.521838E-16
6.540000E+03	3.540868E-14	3.529019E-16
6.550000E+03	3.498006E-14	3.535314E-16
6.560000E+03	3.455617E-14	3.540660E-16
6.570000E+03	3.413555E-14	3.544894E-16
6.580000E+03	3.371874E-14	3.548064E-16
6.590000E+03	3.330635E-14	3.550229E-16
6.600000E+03	3.289773E-14	3.551316E-16
6.610000E+03	3.249434E-14	3.551488E-16
6.620000E+03	3.209484E-14	3.550603E-16
6.630000E+03	3.170002E-14	3.548757E-16
6.640000E+03	3.130851E-14	3.545806E-16
6.650000E+03	3.091996E-14	3.541717E-16
6.660000E+03	3.053366E-14	3.536418E-16
6.670000E+03	3.014884E-14	3.529826E-16
6.680000E+03	2.976566E-14	3.521967E-16
6.690000E+03	2.938376E-14	3.512806E-16
6.700000E+03	2.900378E-14	3.502433E-16
6.710000E+03	2.862679E-14	3.490988E-16
6.720000E+03	2.825308E-14	3.478529E-16
6.730000E+03	2.788291E-14	3.465106E-16
6.740000E+03	2.751725E-14	3.450864E-16
6.750000E+03	2.715479E-14	3.435666E-16
6.760000E+03	2.679534E-14	3.419507E-16
6.770000E+03	2.643741E-14	3.402222E-16
6.780000E+03	2.607893E-14	3.383560E-16
6.790000E+03	2.571850E-14	3.363353E-16
6.800000E+03	2.535489E-14	3.341447E-16
6.810000E+03	2.498789E-14	3.317823E-16
6.820000E+03	2.461720E-14	3.292449E-16
6.830000E+03	2.424316E-14	3.265380E-16
6.840000E+03	2.386763E-14	3.236880E-16
6.850000E+03	2.349247E-14	3.207217E-16
6.860000E+03	2.311970E-14	3.176695E-16
6.870000E+03	2.275092E-14	3.145563E-16
6.880000E+03	2.238797E-14	3.114109E-16
6.890000E+03	2.203279E-14	3.082641E-16
6.900000E+03	2.168609E-14	3.051301E-16
6.910000E+03	2.134871E-14	3.020252E-16
6.920000E+03	2.102130E-14	2.989629E-16
6.930000E+03	2.070425E-14	2.959532E-16
6.940000E+03	2.039785E-14	2.930047E-16
6.950000E+03	2.010247E-14	2.901271E-16
6.960000E+03	1.981803E-14	2.873235E-16
6.970000E+03	1.954489E-14	2.846034E-16
6.980000E+03	1.928383E-14	2.819822E-16
6.990000E+03	1.903522E-14	2.794696E-16
7.000000E+03	1.879854E-14	2.770617E-16
7.010000E+03	1.857461E-14	2.747749E-16
7.020000E+03	1.836296E-14	2.726055E-16
7.030000E+03	1.816322E-14	2.705519E-16
7.040000E+03	1.797443E-14	2.686030E-16
7.050000E+03	1.779613E-14	2.667550E-16
7.060000E+03	1.762732E-14	2.649958E-16
7.070000E+03	1.746681E-14	2.633100E-16
7.080000E+03	1.731305E-14	2.616767E-16
7.090000E+03	1.716493E-14	2.600813E-16
7.100000E+03	1.702171E-14	2.585142E-16
7.110000E+03	1.688224E-14	2.569599E-16
7.120000E+03	1.674562E-14	2.554064E-16
7.130000E+03	1.661217E-14	2.538598E-16
7.140000E+03	1.648133E-14	2.523134E-16
7.150000E+03	1.635306E-14	2.507677E-16
7.160000E+03	1.622676E-14	2.492151E-16
7.170000E+03	1.610244E-14	2.476572E-16
7.180000E+03	1.597970E-14	2.460889E-16
7.190000E+03	1.585736E-14	2.444935E-16
7.200000E+03	1.573450E-14	2.428579E-16
7.210000E+03	1.561038E-14	2.411719E-16
7.220000E+03	1.548333E-14	2.394107E-16
7.230000E+03	1.535203E-14	2.375552E-16
7.240000E+03	1.521537E-14	2.355890E-16
7.250000E+03	1.507234E-14	2.334979E-16
7.260000E+03	1.492202E-14	2.312684E-16
7.270000E+03	1.476499E-14	2.289109E-16
7.280000E+03	1.460144E-14	2.264294E-16
7.290000E+03	1.443184E-14	2.238325E-16
7.300000E+03	1.425866E-14	2.211598E-16
7.310000E+03	1.408290E-14	2.184281E-16
7.320000E+03	1.390724E-14	2.156803E-16
7.330000E+03	1.373342E-14	2.129446E-16
7.340000E+03	1.356314E-14	2.102488E-16
7.350000E+03	1.339755E-14	2.076116E-16
7.360000E+03	1.323775E-14	2.050514E-16
7.370000E+03	1.308447E-14	2.025804E-16
7.380000E+03	1.293824E-14	2.002078E-16
7.390000E+03	1.279911E-14	1.979352E-16
7.400000E+03	1.266819E-14	1.957804E-16
7.410000E+03	1.254601E-14	1.937526E-16
7.420000E+03	1.243385E-14	1.918719E-16
7.430000E+03	1.233346E-14	1.901659E-16
7.440000E+03	1.224730E-14	1.886730E-16
7.450000E+03	1.217733E-14	1.874231E-16
7.460000E+03	1.212540E-14	1.864441E-16
7.470000E+03	1.209263E-14	1.857518E-16
7.480000E+03	1.207825E-14	1.853331E-16
7.490000E+03	1.208061E-14	1.851611E-16
7.500000E+03	1.209709E-14	1.851941E-16
7.510000E+03	1.212282E-14	1.853564E-16
7.520000E+03	1.215295E-14	1.855727E-16
7.530000E+03	1.218167E-14	1.857534E-16
7.540000E+03	1.220407E-14	1.858229E-16
7.550000E+03	1.221829E-14	1.857529E-16
7.560000E+03	1.222460E-14	1.855474E-16
7.570000E+03	1.222436E-14	1.852269E-16
7.580000E+03	1.221868E-14	1.848082E-16
7.590000E+03	1.220921E-14	1.843161E-16
7.600000E+03	1.219688E-14	1.837641E-16
7.610000E+03	1.218308E-14	1.831733E-16
7.620000E+03	1.216864E-14	1.825556E-16
7.630000E+03	1.215407E-14	1.819182E-16
7.640000E+03	1.214074E-14	1.812811E-16
7.650000E+03	1.212964E-14	1.806587E-16
7.660000E+03	1.212124E-14	1.800570E-16
7.670000E+03	1.211667E-14	1.794922E-16
7.680000E+03	1.211615E-14	1.789665E-16
7.690000E+03	1.212024E-14	1.784874E-16
7.700000E+03	1.212817E-14	1.780425E-16
7.710000E+03	1.213942E-14	1.776232E-16
7.720000E+03	1.215230E-14	1.772039E-16
7.730000E+03	1.216531E-14	1.767622E-16
7.740000E+03	1.217613E-14	1.762640E-16
7.750000E+03	1.218193E-14	1.756685E-16
7.760000E+03	1.217941E-14	1.749291E-16
