#wls	flux	fluxerr
1.600000E+03	9.212742E-15	2.662555E-16
1.640000E+03	7.820731E-15	2.207988E-16
1.680000E+03	6.560047E-15	1.808223E-16
1.720000E+03	5.440568E-15	1.463352E-16
1.760000E+03	4.467433E-15	1.171917E-16
1.800000E+03	3.638187E-15	9.303523E-17
1.840000E+03	2.944892E-15	7.337780E-17
1.880000E+03	2.375587E-15	5.765447E-17
1.920000E+03	1.915610E-15	4.526902E-17
1.960000E+03	1.549678E-15	3.565091E-17
2.000000E+03	1.262211E-15	2.826482E-17
2.040000E+03	1.038141E-15	2.262876E-17
2.080000E+03	8.651837E-16	1.836007E-17
2.120000E+03	7.356202E-16	1.520297E-17
2.160000E+03	6.455055E-16	1.299924E-17
2.200000E+03	5.924679E-16	1.163481E-17
2.240000E+03	5.756989E-16	1.103591E-17
2.280000E+03	5.971499E-16	1.118853E-17
2.320000E+03	6.618734E-16	1.214014E-17
2.360000E+03	7.798299E-16	1.402863E-17
2.400000E+03	9.683097E-16	1.712060E-17
2.440000E+03	1.253815E-15	2.183581E-17
2.480000E+03	1.671772E-15	2.873636E-17
2.520000E+03	2.264383E-15	3.848928E-17
2.560000E+03	3.070412E-15	5.169564E-17
2.600000E+03	4.107959E-15	6.861039E-17
2.640000E+03	5.356848E-15	8.886296E-17
2.680000E+03	6.762605E-15	1.115360E-16
2.720000E+03	8.250793E-15	1.354035E-16
2.760000E+03	9.733417E-15	1.590313E-16
2.800000E+03	1.111345E-14	1.808468E-16
2.840000E+03	1.230226E-14	1.994217E-16
2.880000E+03	1.323297E-14	2.136869E-16
2.920000E+03	1.387639E-14	2.231891E-16
2.960000E+03	1.424249E-14	2.281102E-16
3.000000E+03	1.437627E-14	2.291951E-16
3.010000E+03	1.438134E-14	2.289963E-16
3.020000E+03	1.437699E-14	2.286407E-16
3.030000E+03	1.436474E-14	2.281531E-16
3.040000E+03	1.434614E-14	2.275580E-16
3.050000E+03	1.432236E-14	2.268744E-16
3.060000E+03	1.429458E-14	2.261211E-16
3.070000E+03	1.426476E-14	2.253290E-16
3.080000E+03	1.423369E-14	2.245109E-16
3.090000E+03	1.420260E-14	2.236858E-16
3.100000E+03	1.417339E-14	2.228836E-16
3.110000E+03	1.414723E-14	2.221226E-16
3.120000E+03	1.412562E-14	2.214259E-16
3.130000E+03	1.410908E-14	2.208012E-16
3.140000E+03	1.410009E-14	2.202871E-16
3.150000E+03	1.409916E-14	2.198904E-16
3.160000E+03	1.410778E-14	2.196339E-16
3.170000E+03	1.412743E-14	2.195394E-16
3.180000E+03	1.415930E-14	2.196241E-16
3.190000E+03	1.420488E-14	2.199096E-16
3.200000E+03	1.426540E-14	2.204135E-16
3.210000E+03	1.434241E-14	2.211580E-16
3.220000E+03	1.443721E-14	2.221611E-16
3.230000E+03	1.455142E-14	2.234455E-16
3.240000E+03	1.468646E-14	2.250307E-16
3.250000E+03	1.484378E-14	2.269362E-16
3.260000E+03	1.502522E-14	2.291874E-16
3.270000E+03	1.523241E-14	2.318058E-16
3.280000E+03	1.546735E-14	2.348184E-16
3.290000E+03	1.573185E-14	2.382491E-16
3.300000E+03	1.602786E-14	2.421229E-16
3.310000E+03	1.635741E-14	2.464663E-16
3.320000E+03	1.672295E-14	2.513111E-16
3.330000E+03	1.712675E-14	2.566862E-16
3.340000E+03	1.757120E-14	2.626214E-16
3.350000E+03	1.805881E-14	2.691478E-16
3.360000E+03	1.859186E-14	2.762927E-16
3.370000E+03	1.917325E-14	2.840917E-16
3.380000E+03	1.980527E-14	2.925708E-16
3.390000E+03	2.049058E-14	3.017607E-16
3.400000E+03	2.123072E-14	3.116752E-16
3.410000E+03	2.202608E-14	3.223100E-16
3.420000E+03	2.287718E-14	3.336634E-16
3.430000E+03	2.378164E-14	3.456903E-16
3.440000E+03	2.473629E-14	3.583347E-16
3.450000E+03	2.573568E-14	3.715084E-16
3.460000E+03	2.677207E-14	3.850907E-16
3.470000E+03	2.783502E-14	3.989236E-16
3.480000E+03	2.891230E-14	4.128262E-16
3.490000E+03	2.998948E-14	4.265882E-16
3.500000E+03	3.105178E-14	4.399979E-16
3.510000E+03	3.208229E-14	4.528169E-16
3.520000E+03	3.306350E-14	4.648021E-16
3.530000E+03	3.397823E-14	4.757194E-16
3.540000E+03	3.480888E-14	4.853326E-16
3.550000E+03	3.554019E-14	4.934436E-16
3.560000E+03	3.615963E-14	4.998949E-16
3.570000E+03	3.665806E-14	5.045799E-16
3.580000E+03	3.703143E-14	5.074639E-16
3.590000E+03	3.728124E-14	5.085890E-16
3.600000E+03	3.741612E-14	5.080939E-16
3.610000E+03	3.744778E-14	5.061578E-16
3.620000E+03	3.739284E-14	5.030232E-16
3.630000E+03	3.727064E-14	4.989654E-16
3.640000E+03	3.710223E-14	4.942776E-16
3.650000E+03	3.690952E-14	4.892596E-16
3.660000E+03	3.671500E-14	4.842128E-16
3.670000E+03	3.654109E-14	4.794321E-16
3.680000E+03	3.640923E-14	4.751930E-16
3.690000E+03	3.633944E-14	4.717471E-16
3.700000E+03	3.635196E-14	4.693425E-16
3.710000E+03	3.646443E-14	4.681883E-16
3.720000E+03	3.669420E-14	4.684839E-16
3.730000E+03	3.705692E-14	4.704021E-16
3.740000E+03	3.756721E-14	4.740969E-16
3.750000E+03	3.823773E-14	4.796935E-16
3.760000E+03	3.908057E-14	4.873046E-16
3.770000E+03	4.010676E-14	4.970259E-16
3.780000E+03	4.132457E-14	5.089145E-16
3.790000E+03	4.274053E-14	5.230028E-16
3.800000E+03	4.435767E-14	5.392779E-16
3.810000E+03	4.617408E-14	5.576652E-16
3.820000E+03	4.818039E-14	5.780006E-16
3.830000E+03	5.035832E-14	6.000157E-16
3.840000E+03	5.267987E-14	6.233327E-16
3.850000E+03	5.510546E-14	6.474462E-16
3.860000E+03	5.758677E-14	6.717621E-16
3.870000E+03	6.006619E-14	6.955948E-16
3.880000E+03	6.247928E-14	7.181995E-16
3.890000E+03	6.475910E-14	7.388261E-16
3.900000E+03	6.683994E-14	7.567618E-16
3.910000E+03	6.866190E-14	7.713832E-16
3.920000E+03	7.017789E-14	7.822320E-16
3.930000E+03	7.135418E-14	7.890154E-16
3.940000E+03	7.217641E-14	7.916669E-16
3.950000E+03	7.264877E-14	7.903278E-16
3.960000E+03	7.279219E-14	7.853205E-16
3.970000E+03	7.264413E-14	7.771375E-16
3.980000E+03	7.225421E-14	7.663877E-16
3.990000E+03	7.167937E-14	7.537398E-16
4.000000E+03	7.097741E-14	7.398509E-16
4.010000E+03	7.020471E-14	7.253429E-16
4.020000E+03	6.941134E-14	7.107524E-16
4.030000E+03	6.863682E-14	6.964905E-16
4.040000E+03	6.790879E-14	6.828343E-16
4.050000E+03	6.724527E-14	6.699553E-16
4.060000E+03	6.665640E-14	6.579398E-16
4.070000E+03	6.614630E-14	6.468121E-16
4.080000E+03	6.571627E-14	6.365679E-16
4.090000E+03	6.536263E-14	6.271544E-16
4.100000E+03	6.507955E-14	6.185003E-16
4.110000E+03	6.485777E-14	6.105044E-16
4.120000E+03	6.468444E-14	6.030354E-16
4.130000E+03	6.454506E-14	5.959521E-16
4.140000E+03	6.442097E-14	5.890807E-16
4.150000E+03	6.429197E-14	5.822401E-16
4.160000E+03	6.413731E-14	5.752519E-16
4.170000E+03	6.393695E-14	5.679511E-16
4.180000E+03	6.367504E-14	5.602166E-16
4.190000E+03	6.334259E-14	5.519918E-16
4.200000E+03	6.293582E-14	5.432678E-16
4.210000E+03	6.245775E-14	5.340948E-16
4.220000E+03	6.191464E-14	5.245484E-16
4.230000E+03	6.131799E-14	5.147456E-16
4.240000E+03	6.068077E-14	5.048114E-16
4.250000E+03	6.002003E-14	4.948996E-16
4.260000E+03	5.935264E-14	4.851573E-16
4.270000E+03	5.869640E-14	4.757336E-16
4.280000E+03	5.806889E-14	4.667707E-16
4.290000E+03	5.748771E-14	4.584064E-16
4.300000E+03	5.696832E-14	4.507571E-16
4.310000E+03	5.652315E-14	4.439124E-16
4.320000E+03	5.616109E-14	4.379319E-16
4.330000E+03	5.588317E-14	4.328137E-16
4.340000E+03	5.568207E-14	4.284922E-16
4.350000E+03	5.554403E-14	4.248543E-16
4.360000E+03	5.545112E-14	4.217558E-16
4.370000E+03	5.538581E-14	4.190532E-16
4.380000E+03	5.533769E-14	4.166578E-16
4.390000E+03	5.531393E-14	4.146145E-16
4.400000E+03	5.533574E-14	4.130722E-16
4.410000E+03	5.543618E-14	4.122660E-16
4.420000E+03	5.565003E-14	4.124405E-16
4.430000E+03	5.601051E-14	4.138272E-16
4.440000E+03	5.654599E-14	4.166200E-16
4.450000E+03	5.727867E-14	4.209677E-16
4.460000E+03	5.822283E-14	4.269613E-16
4.470000E+03	5.938327E-14	4.346237E-16
4.480000E+03	6.075216E-14	4.438874E-16
4.490000E+03	6.230368E-14	4.545557E-16
4.500000E+03	6.399869E-14	4.663372E-16
4.510000E+03	6.578274E-14	4.788315E-16
4.520000E+03	6.758790E-14	4.915419E-16
4.530000E+03	6.933641E-14	5.039017E-16
4.540000E+03	7.094236E-14	5.152859E-16
4.550000E+03	7.231723E-14	5.250507E-16
4.560000E+03	7.337415E-14	5.325637E-16
4.570000E+03	7.403881E-14	5.372828E-16
4.580000E+03	7.425346E-14	5.387845E-16
4.590000E+03	7.398640E-14	5.368333E-16
4.600000E+03	7.323218E-14	5.313828E-16
4.610000E+03	7.201876E-14	5.226280E-16
4.620000E+03	7.039621E-14	5.109241E-16
4.630000E+03	6.843387E-14	4.967664E-16
4.640000E+03	6.621108E-14	4.807236E-16
4.650000E+03	6.380953E-14	4.633822E-16
4.660000E+03	6.130717E-14	4.453033E-16
4.670000E+03	5.877614E-14	4.270066E-16
4.680000E+03	5.627700E-14	4.089292E-16
4.690000E+03	5.386240E-14	3.914519E-16
4.700000E+03	5.157175E-14	3.748599E-16
4.710000E+03	4.943733E-14	3.593875E-16
4.720000E+03	4.748185E-14	3.451990E-16
4.730000E+03	4.572073E-14	3.324043E-16
4.740000E+03	4.416335E-14	3.210695E-16
4.750000E+03	4.281382E-14	3.112223E-16
4.760000E+03	4.167003E-14	3.028454E-16
4.770000E+03	4.072440E-14	2.958818E-16
4.780000E+03	3.996598E-14	2.902493E-16
4.790000E+03	3.938138E-14	2.858480E-16
4.800000E+03	3.895578E-14	2.825671E-16
4.810000E+03	3.867292E-14	2.802850E-16
4.820000E+03	3.851486E-14	2.788678E-16
4.830000E+03	3.846235E-14	2.781719E-16
4.840000E+03	3.849400E-14	2.780384E-16
4.850000E+03	3.858770E-14	2.783033E-16
4.860000E+03	3.871916E-14	2.787881E-16
4.870000E+03	3.886325E-14	2.793086E-16
4.880000E+03	3.899322E-14	2.796706E-16
4.890000E+03	3.908150E-14	2.796758E-16
4.900000E+03	3.910215E-14	2.791399E-16
4.910000E+03	3.903135E-14	2.778959E-16
4.920000E+03	3.885255E-14	2.758315E-16
4.930000E+03	3.855822E-14	2.729004E-16
4.940000E+03	3.815496E-14	2.691580E-16
4.950000E+03	3.766096E-14	2.647416E-16
4.960000E+03	3.710393E-14	2.598545E-16
4.970000E+03	3.651866E-14	2.547472E-16
4.980000E+03	3.594316E-14	2.496895E-16
4.990000E+03	3.541660E-14	2.449545E-16
5.000000E+03	3.497489E-14	2.407885E-16
5.010000E+03	3.465196E-14	2.374187E-16
5.020000E+03	3.447798E-14	2.350418E-16
5.030000E+03	3.447960E-14	2.338255E-16
5.040000E+03	3.468016E-14	2.339103E-16
5.050000E+03	3.509917E-14	2.354066E-16
5.060000E+03	3.575315E-14	2.384005E-16
5.070000E+03	3.665493E-14	2.429502E-16
5.080000E+03	3.781378E-14	2.490874E-16
5.090000E+03	3.923558E-14	2.568193E-16
5.100000E+03	4.092053E-14	2.661147E-16
5.110000E+03	4.286294E-14	2.769039E-16
5.120000E+03	4.504747E-14	2.890561E-16
5.130000E+03	4.744852E-14	3.023787E-16
5.140000E+03	5.002603E-14	3.165925E-16
5.150000E+03	5.272638E-14	3.313415E-16
5.160000E+03	5.547754E-14	3.461658E-16
5.170000E+03	5.819320E-14	3.605317E-16
5.180000E+03	6.077143E-14	3.738267E-16
5.190000E+03	6.310618E-14	3.854328E-16
5.200000E+03	6.509762E-14	3.947897E-16
5.210000E+03	6.666772E-14	4.014861E-16
5.220000E+03	6.776604E-14	4.052890E-16
5.230000E+03	6.837345E-14	4.061586E-16
5.240000E+03	6.850744E-14	4.042720E-16
5.250000E+03	6.821126E-14	3.999516E-16
5.260000E+03	6.754555E-14	3.936110E-16
5.270000E+03	6.658042E-14	3.857060E-16
5.280000E+03	6.538587E-14	3.766781E-16
5.290000E+03	6.402542E-14	3.669187E-16
5.300000E+03	6.255075E-14	3.567409E-16
5.310000E+03	6.100645E-14	3.464084E-16
5.320000E+03	5.942830E-14	3.361281E-16
5.330000E+03	5.784831E-14	3.260804E-16
5.340000E+03	5.629708E-14	3.164334E-16
5.350000E+03	5.480980E-14	3.073779E-16
5.360000E+03	5.342409E-14	2.991139E-16
5.370000E+03	5.217460E-14	2.918148E-16
5.380000E+03	5.107930E-14	2.855595E-16
5.390000E+03	5.013847E-14	2.803310E-16
5.400000E+03	4.933892E-14	2.760397E-16
5.410000E+03	4.866376E-14	2.725773E-16
5.420000E+03	4.809936E-14	2.698538E-16
5.430000E+03	4.763549E-14	2.678001E-16
5.440000E+03	4.726013E-14	2.663385E-16
5.450000E+03	4.696119E-14	2.653915E-16
5.460000E+03	4.672270E-14	2.648603E-16
5.470000E+03	4.652472E-14	2.646235E-16
5.480000E+03	4.634335E-14	2.645362E-16
5.490000E+03	4.615292E-14	2.644421E-16
5.500000E+03	4.592606E-14	2.641732E-16
5.510000E+03	4.563869E-14	2.635784E-16
5.520000E+03	4.527125E-14	2.625308E-16
5.530000E+03	4.480863E-14	2.609277E-16
5.540000E+03	4.424416E-14	2.587152E-16
5.550000E+03	4.357788E-14	2.558781E-16
5.560000E+03	4.281676E-14	2.524434E-16
5.570000E+03	4.197382E-14	2.484749E-16
5.580000E+03	4.106756E-14	2.440717E-16
5.590000E+03	4.011998E-14	2.393563E-16
5.600000E+03	3.915558E-14	2.344690E-16
5.610000E+03	3.819805E-14	2.295486E-16
5.620000E+03	3.727134E-14	2.247381E-16
5.630000E+03	3.639548E-14	2.201593E-16
5.640000E+03	3.558815E-14	2.159218E-16
5.650000E+03	3.486395E-14	2.121177E-16
5.660000E+03	3.423196E-14	2.088068E-16
5.670000E+03	3.369908E-14	2.060354E-16
5.680000E+03	3.326898E-14	2.038304E-16
5.690000E+03	3.294385E-14	2.022091E-16
5.700000E+03	3.272522E-14	2.011844E-16
5.710000E+03	3.261413E-14	2.007654E-16
5.720000E+03	3.261159E-14	2.009604E-16
5.730000E+03	3.271918E-14	2.017804E-16
5.740000E+03	3.293854E-14	2.032360E-16
5.750000E+03	3.326989E-14	2.053282E-16
5.760000E+03	3.371261E-14	2.080520E-16
5.770000E+03	3.426299E-14	2.113821E-16
5.780000E+03	3.491310E-14	2.152671E-16
5.790000E+03	3.565144E-14	2.196323E-16
5.800000E+03	3.646132E-14	2.243712E-16
5.810000E+03	3.732101E-14	2.293465E-16
5.820000E+03	3.820452E-14	2.343951E-16
5.830000E+03	3.908335E-14	2.393400E-16
5.840000E+03	3.992809E-14	2.440005E-16
5.850000E+03	4.071030E-14	2.482040E-16
5.860000E+03	4.140269E-14	2.517877E-16
5.870000E+03	4.198231E-14	2.546179E-16
5.880000E+03	4.242968E-14	2.565850E-16
5.890000E+03	4.272907E-14	2.576046E-16
5.900000E+03	4.286920E-14	2.576219E-16
5.910000E+03	4.284126E-14	2.565987E-16
5.920000E+03	4.264293E-14	2.545377E-16
5.930000E+03	4.227406E-14	2.514556E-16
5.940000E+03	4.173874E-14	2.473948E-16
5.950000E+03	4.104750E-14	2.424356E-16
5.960000E+03	4.021260E-14	2.366680E-16
5.970000E+03	3.925117E-14	2.302087E-16
5.980000E+03	3.818258E-14	2.231860E-16
5.990000E+03	3.702708E-14	2.157305E-16
6.000000E+03	3.580551E-14	2.079739E-16
6.010000E+03	3.453886E-14	2.000458E-16
6.020000E+03	3.324865E-14	1.920762E-16
6.030000E+03	3.195494E-14	1.841842E-16
6.040000E+03	3.067881E-14	1.764922E-16
6.050000E+03	2.944155E-14	1.691222E-16
6.060000E+03	2.826405E-14	1.621919E-16
6.070000E+03	2.716729E-14	1.558190E-16
6.080000E+03	2.617142E-14	1.501160E-16
6.090000E+03	2.529314E-14	1.451764E-16
6.100000E+03	2.454542E-14	1.410736E-16
6.110000E+03	2.393406E-14	1.378422E-16
6.120000E+03	2.346158E-14	1.355002E-16
6.130000E+03	2.312597E-14	1.340404E-16
6.140000E+03	2.292310E-14	1.334443E-16
6.150000E+03	2.284734E-14	1.336875E-16
6.160000E+03	2.289249E-14	1.347449E-16
6.170000E+03	2.304991E-14	1.365793E-16
6.180000E+03	2.330985E-14	1.391485E-16
6.190000E+03	2.365974E-14	1.423942E-16
6.200000E+03	2.408571E-14	1.462505E-16
6.210000E+03	2.457205E-14	1.506393E-16
6.220000E+03	2.510158E-14	1.554712E-16
6.230000E+03	2.565638E-14	1.606480E-16
6.240000E+03	2.621862E-14	1.660646E-16
6.250000E+03	2.676662E-14	1.715855E-16
6.260000E+03	2.727774E-14	1.770616E-16
6.270000E+03	2.773054E-14	1.823431E-16
6.280000E+03	2.810583E-14	1.872864E-16
6.290000E+03	2.839140E-14	1.917862E-16
6.300000E+03	2.857950E-14	1.957616E-16
6.310000E+03	2.866969E-14	1.991775E-16
6.320000E+03	2.866648E-14	2.020317E-16
6.330000E+03	2.857941E-14	2.043587E-16
6.340000E+03	2.842087E-14	2.062160E-16
6.350000E+03	2.820461E-14	2.076758E-16
6.360000E+03	2.794474E-14	2.088183E-16
6.370000E+03	2.765442E-14	2.097226E-16
6.380000E+03	2.734591E-14	2.104665E-16
6.390000E+03	2.702952E-14	2.111184E-16
6.400000E+03	2.671451E-14	2.117434E-16
6.410000E+03	2.640782E-14	2.123926E-16
6.420000E+03	2.611443E-14	2.131048E-16
6.430000E+03	2.583730E-14	2.139044E-16
6.440000E+03	2.557851E-14	2.148108E-16
6.450000E+03	2.533857E-14	2.158311E-16
6.460000E+03	2.511543E-14	2.169509E-16
6.470000E+03	2.490729E-14	2.181571E-16
6.480000E+03	2.471010E-14	2.194165E-16
6.490000E+03	2.451912E-14	2.206876E-16
6.500000E+03	2.432998E-14	2.219303E-16
6.510000E+03	2.413781E-14	2.230979E-16
6.520000E+03	2.393713E-14	2.241359E-16
6.530000E+03	2.372411E-14	2.250029E-16
6.540000E+03	2.349518E-14	2.256584E-16
6.550000E+03	2.324756E-14	2.260681E-16
6.560000E+03	2.297865E-14	2.261982E-16
6.570000E+03	2.268824E-14	2.260378E-16
6.580000E+03	2.237547E-14	2.255694E-16
6.590000E+03	2.204140E-14	2.247952E-16
6.600000E+03	2.168705E-14	2.237175E-16
6.610000E+03	2.131440E-14	2.223494E-16
6.620000E+03	2.092624E-14	2.207136E-16
6.630000E+03	2.052506E-14	2.188312E-16
6.640000E+03	2.011368E-14	2.167283E-16
6.650000E+03	1.969613E-14	2.144454E-16
6.660000E+03	1.927528E-14	2.120124E-16
6.670000E+03	1.885467E-14	2.094680E-16
6.680000E+03	1.843838E-14	2.068589E-16
6.690000E+03	1.802920E-14	2.042184E-16
6.700000E+03	1.763057E-14	2.015892E-16
6.710000E+03	1.724516E-14	1.990063E-16
6.720000E+03	1.687593E-14	1.965090E-16
6.730000E+03	1.652485E-14	1.941266E-16
6.740000E+03	1.619406E-14	1.918910E-16
6.750000E+03	1.588470E-14	1.898227E-16
6.760000E+03	1.559790E-14	1.879428E-16
6.770000E+03	1.533372E-14	1.862594E-16
6.780000E+03	1.509217E-14	1.847800E-16
6.790000E+03	1.487246E-14	1.835022E-16
6.800000E+03	1.467300E-14	1.824129E-16
6.810000E+03	1.449223E-14	1.814991E-16
6.820000E+03	1.432769E-14	1.807354E-16
6.830000E+03	1.417711E-14	1.800977E-16
6.840000E+03	1.403779E-14	1.795558E-16
6.850000E+03	1.390681E-14	1.790754E-16
6.860000E+03	1.378185E-14	1.786291E-16
6.870000E+03	1.366055E-14	1.781880E-16
6.880000E+03	1.354076E-14	1.777251E-16
6.890000E+03	1.342037E-14	1.772134E-16
6.900000E+03	1.329827E-14	1.766384E-16
6.910000E+03	1.317277E-14	1.759778E-16
6.920000E+03	1.304333E-14	1.752239E-16
6.930000E+03	1.290961E-14	1.743719E-16
6.940000E+03	1.277174E-14	1.734229E-16
6.950000E+03	1.263030E-14	1.723847E-16
6.960000E+03	1.248615E-14	1.712692E-16
6.970000E+03	1.234041E-14	1.700916E-16
6.980000E+03	1.219444E-14	1.688712E-16
6.990000E+03	1.204884E-14	1.676171E-16
7.000000E+03	1.190508E-14	1.663505E-16
7.010000E+03	1.176371E-14	1.650804E-16
7.020000E+03	1.162535E-14	1.638164E-16
7.030000E+03	1.149042E-14	1.625656E-16
7.040000E+03	1.135934E-14	1.613356E-16
7.050000E+03	1.123194E-14	1.601250E-16
7.060000E+03	1.110841E-14	1.589378E-16
7.070000E+03	1.098848E-14	1.577715E-16
7.080000E+03	1.087234E-14	1.566297E-16
7.090000E+03	1.075983E-14	1.555116E-16
7.100000E+03	1.065139E-14	1.544248E-16
7.110000E+03	1.054739E-14	1.533754E-16
7.120000E+03	1.044836E-14	1.523724E-16
7.130000E+03	1.035490E-14	1.514261E-16
7.140000E+03	1.026753E-14	1.505448E-16
7.150000E+03	1.018729E-14	1.497454E-16
7.160000E+03	1.011448E-14	1.490335E-16
7.170000E+03	1.004939E-14	1.484143E-16
7.180000E+03	9.991947E-15	1.478885E-16
7.190000E+03	9.941923E-15	1.474534E-16
7.200000E+03	9.898456E-15	1.470973E-16
7.210000E+03	9.860085E-15	1.467994E-16
7.220000E+03	9.825376E-15	1.465390E-16
7.230000E+03	9.792161E-15	1.462842E-16
7.240000E+03	9.758660E-15	1.460089E-16
7.250000E+03	9.722118E-15	1.456720E-16
7.260000E+03	9.680570E-15	1.452442E-16
7.270000E+03	9.631327E-15	1.446850E-16
7.280000E+03	9.572764E-15	1.439699E-16
7.290000E+03	9.502970E-15	1.430702E-16
7.300000E+03	9.420694E-15	1.419668E-16
7.310000E+03	9.325242E-15	1.406493E-16
7.320000E+03	9.216500E-15	1.391159E-16
7.330000E+03	9.094953E-15	1.373742E-16
7.340000E+03	8.961504E-15	1.354380E-16
7.350000E+03	8.817759E-15	1.333321E-16
7.360000E+03	8.665713E-15	1.310870E-16
7.370000E+03	8.507654E-15	1.287380E-16
7.380000E+03	8.345483E-15	1.263146E-16
7.390000E+03	8.182121E-15	1.238617E-16
7.400000E+03	8.019545E-15	1.214099E-16
7.410000E+03	7.860186E-15	1.189969E-16
7.420000E+03	7.706089E-15	1.166544E-16
7.430000E+03	7.559194E-15	1.144122E-16
7.440000E+03	7.420905E-15	1.122919E-16
7.450000E+03	7.293028E-15	1.103212E-16
7.460000E+03	7.175982E-15	1.085066E-16
7.470000E+03	7.070026E-15	1.068520E-16
7.480000E+03	6.975060E-15	1.053562E-16
7.490000E+03	6.890144E-15	1.040047E-16
7.500000E+03	6.814106E-15	1.027799E-16
7.510000E+03	6.745322E-15	1.016571E-16
7.520000E+03	6.681986E-15	1.006091E-16
7.530000E+03	6.622630E-15	9.961375E-17
7.540000E+03	6.565370E-15	9.864268E-17
7.550000E+03	6.509365E-15	9.768330E-17
7.560000E+03	6.453720E-15	9.672229E-17
7.570000E+03	6.397858E-15	9.575114E-17
7.580000E+03	6.341864E-15	9.477130E-17
7.590000E+03	6.285504E-15	9.377946E-17
7.600000E+03	6.228866E-15	9.277711E-17
7.610000E+03	6.172043E-15	9.176586E-17
7.620000E+03	6.115741E-15	9.075641E-17
7.630000E+03	6.060179E-15	8.975213E-17
7.640000E+03	6.006009E-15	8.876278E-17
7.650000E+03	5.954143E-15	8.780190E-17
7.660000E+03	5.905435E-15	8.688204E-17
7.670000E+03	5.860667E-15	8.601451E-17
7.680000E+03	5.820933E-15	8.521509E-17
7.690000E+03	5.786945E-15	8.449380E-17
7.700000E+03	5.759418E-15	8.386050E-17
7.710000E+03	5.739058E-15	8.332479E-17
7.720000E+03	5.726094E-15	8.288918E-17
7.730000E+03	5.720867E-15	8.255771E-17
7.740000E+03	5.723255E-15	8.232761E-17
7.750000E+03	5.733308E-15	8.219856E-17
7.760000E+03	5.750806E-15	8.216629E-17
