#wls	flux	fluxerr
1.600000E+03	6.497073E-15	2.030453E-16
1.640000E+03	5.440235E-15	1.665553E-16
1.680000E+03	4.514894E-15	1.353491E-16
1.720000E+03	3.716870E-15	1.090586E-16
1.760000E+03	3.039581E-15	8.725443E-17
1.800000E+03	2.472797E-15	6.941933E-17
1.840000E+03	2.005035E-15	5.502661E-17
1.880000E+03	1.623909E-15	4.355415E-17
1.920000E+03	1.316813E-15	3.450549E-17
1.960000E+03	1.072338E-15	2.744713E-17
2.000000E+03	8.792980E-16	2.198047E-17
2.040000E+03	7.285501E-16	1.778553E-17
2.080000E+03	6.122041E-16	1.459561E-17
2.120000E+03	5.249459E-16	1.222416E-17
2.160000E+03	4.644121E-16	1.056576E-17
2.200000E+03	4.292011E-16	9.543892E-18
2.240000E+03	4.190553E-16	9.112661E-18
2.280000E+03	4.355975E-16	9.270068E-18
2.320000E+03	4.825744E-16	1.005952E-17
2.360000E+03	5.666014E-16	1.158186E-17
2.400000E+03	6.987865E-16	1.402434E-17
2.440000E+03	8.949286E-16	1.765774E-17
2.480000E+03	1.175419E-15	2.282899E-17
2.520000E+03	1.562509E-15	2.990588E-17
2.560000E+03	2.074931E-15	3.917581E-17
2.600000E+03	2.720204E-15	5.070822E-17
2.640000E+03	3.486669E-15	6.422007E-17
2.680000E+03	4.343113E-15	7.908638E-17
2.720000E+03	5.241422E-15	9.440253E-17
2.760000E+03	6.126273E-15	1.091681E-16
2.800000E+03	6.943545E-15	1.224379E-16
2.840000E+03	7.648305E-15	1.334591E-16
2.880000E+03	8.212774E-15	1.418016E-16
2.920000E+03	8.628537E-15	1.473831E-16
2.960000E+03	8.906791E-15	1.504590E-16
3.000000E+03	9.074508E-15	1.515428E-16
3.010000E+03	9.103738E-15	1.515845E-16
3.020000E+03	9.128728E-15	1.515497E-16
3.030000E+03	9.150375E-15	1.514537E-16
3.040000E+03	9.169891E-15	1.513168E-16
3.050000E+03	9.187594E-15	1.511444E-16
3.060000E+03	9.204135E-15	1.509474E-16
3.070000E+03	9.220710E-15	1.507455E-16
3.080000E+03	9.237411E-15	1.505400E-16
3.090000E+03	9.255741E-15	1.503553E-16
3.100000E+03	9.276062E-15	1.501969E-16
3.110000E+03	9.299056E-15	1.500753E-16
3.120000E+03	9.325922E-15	1.500095E-16
3.130000E+03	9.357060E-15	1.500052E-16
3.140000E+03	9.393682E-15	1.500808E-16
3.150000E+03	9.436220E-15	1.502425E-16
3.160000E+03	9.485384E-15	1.505004E-16
3.170000E+03	9.542639E-15	1.508766E-16
3.180000E+03	9.608221E-15	1.513733E-16
3.190000E+03	9.683381E-15	1.520088E-16
3.200000E+03	9.768897E-15	1.527935E-16
3.210000E+03	9.865586E-15	1.537381E-16
3.220000E+03	9.974529E-15	1.548575E-16
3.230000E+03	1.009660E-14	1.561627E-16
3.240000E+03	1.023320E-14	1.576730E-16
3.250000E+03	1.038483E-14	1.593931E-16
3.260000E+03	1.055297E-14	1.613428E-16
3.270000E+03	1.073871E-14	1.635355E-16
3.280000E+03	1.094339E-14	1.659882E-16
3.290000E+03	1.116796E-14	1.687115E-16
3.300000E+03	1.141390E-14	1.717235E-16
3.310000E+03	1.168249E-14	1.750395E-16
3.320000E+03	1.197528E-14	1.786780E-16
3.330000E+03	1.229365E-14	1.826544E-16
3.340000E+03	1.263873E-14	1.869806E-16
3.350000E+03	1.301215E-14	1.916748E-16
3.360000E+03	1.341500E-14	1.967475E-16
3.370000E+03	1.384883E-14	2.022150E-16
3.380000E+03	1.431456E-14	2.080846E-16
3.390000E+03	1.481326E-14	2.143650E-16
3.400000E+03	1.534551E-14	2.210574E-16
3.410000E+03	1.591185E-14	2.281631E-16
3.420000E+03	1.651215E-14	2.356725E-16
3.430000E+03	1.714569E-14	2.435686E-16
3.440000E+03	1.780975E-14	2.518056E-16
3.450000E+03	1.850144E-14	2.603367E-16
3.460000E+03	1.921560E-14	2.690833E-16
3.470000E+03	1.994531E-14	2.779444E-16
3.480000E+03	2.068316E-14	2.868137E-16
3.490000E+03	2.142176E-14	2.955875E-16
3.500000E+03	2.215355E-14	3.041616E-16
3.510000E+03	2.287085E-14	3.124325E-16
3.520000E+03	2.356434E-14	3.202767E-16
3.530000E+03	2.422582E-14	3.275884E-16
3.540000E+03	2.484619E-14	3.342519E-16
3.550000E+03	2.541860E-14	3.401845E-16
3.560000E+03	2.593619E-14	3.453052E-16
3.570000E+03	2.639485E-14	3.495717E-16
3.580000E+03	2.679219E-14	3.529650E-16
3.590000E+03	2.712818E-14	3.554978E-16
3.600000E+03	2.740468E-14	3.572061E-16
3.610000E+03	2.762529E-14	3.581481E-16
3.620000E+03	2.779644E-14	3.584176E-16
3.630000E+03	2.792487E-14	3.581106E-16
3.640000E+03	2.801975E-14	3.573520E-16
3.650000E+03	2.809065E-14	3.562696E-16
3.660000E+03	2.814895E-14	3.550112E-16
3.670000E+03	2.820575E-14	3.537176E-16
3.680000E+03	2.827324E-14	3.525406E-16
3.690000E+03	2.836415E-14	3.516349E-16
3.700000E+03	2.849069E-14	3.511452E-16
3.710000E+03	2.866577E-14	3.512212E-16
3.720000E+03	2.890115E-14	3.519946E-16
3.730000E+03	2.920886E-14	3.535970E-16
3.740000E+03	2.959979E-14	3.561426E-16
3.750000E+03	3.008379E-14	3.597296E-16
3.760000E+03	3.067055E-14	3.644515E-16
3.770000E+03	3.136866E-14	3.703851E-16
3.780000E+03	3.218609E-14	3.775975E-16
3.790000E+03	3.312931E-14	3.861351E-16
3.800000E+03	3.420316E-14	3.960238E-16
3.810000E+03	3.540903E-14	4.072474E-16
3.820000E+03	3.674450E-14	4.197453E-16
3.830000E+03	3.819778E-14	4.333514E-16
3.840000E+03	3.975136E-14	4.478383E-16
3.850000E+03	4.137976E-14	4.628947E-16
3.860000E+03	4.305231E-14	4.781595E-16
3.870000E+03	4.473161E-14	4.932075E-16
3.880000E+03	4.637740E-14	5.075940E-16
3.890000E+03	4.794619E-14	5.208525E-16
3.900000E+03	4.939417E-14	5.325276E-16
3.910000E+03	5.068076E-14	5.422138E-16
3.920000E+03	5.176964E-14	5.495643E-16
3.930000E+03	5.263187E-14	5.543231E-16
3.940000E+03	5.324865E-14	5.563507E-16
3.950000E+03	5.361274E-14	5.556343E-16
3.960000E+03	5.372825E-14	5.522813E-16
3.970000E+03	5.361147E-14	5.465224E-16
3.980000E+03	5.329005E-14	5.386984E-16
3.990000E+03	5.280087E-14	5.292338E-16
4.000000E+03	5.218426E-14	5.185748E-16
4.010000E+03	5.148167E-14	5.071653E-16
4.020000E+03	5.073295E-14	4.954197E-16
4.030000E+03	4.997337E-14	4.836942E-16
4.040000E+03	4.923243E-14	4.722773E-16
4.050000E+03	4.853215E-14	4.613768E-16
4.060000E+03	4.789228E-14	4.511712E-16
4.070000E+03	4.732631E-14	4.417737E-16
4.080000E+03	4.684703E-14	4.332870E-16
4.090000E+03	4.646283E-14	4.257686E-16
4.100000E+03	4.617976E-14	4.192528E-16
4.110000E+03	4.600106E-14	4.137465E-16
4.120000E+03	4.592593E-14	4.092201E-16
4.130000E+03	4.594904E-14	4.056046E-16
4.140000E+03	4.606064E-14	4.027953E-16
4.150000E+03	4.624747E-14	4.006602E-16
4.160000E+03	4.649358E-14	3.990499E-16
4.170000E+03	4.678155E-14	3.978079E-16
4.180000E+03	4.709317E-14	3.967774E-16
4.190000E+03	4.741068E-14	3.958117E-16
4.200000E+03	4.771670E-14	3.947731E-16
4.210000E+03	4.799515E-14	3.935400E-16
4.220000E+03	4.823149E-14	3.920083E-16
4.230000E+03	4.841185E-14	3.900834E-16
4.240000E+03	4.852248E-14	3.876751E-16
4.250000E+03	4.855258E-14	3.847199E-16
4.260000E+03	4.849001E-14	3.811457E-16
4.270000E+03	4.832561E-14	3.769056E-16
4.280000E+03	4.805192E-14	3.719666E-16
4.290000E+03	4.766288E-14	3.663063E-16
4.300000E+03	4.715726E-14	3.599385E-16
4.310000E+03	4.653768E-14	3.529042E-16
4.320000E+03	4.581202E-14	3.452808E-16
4.330000E+03	4.499320E-14	3.371794E-16
4.340000E+03	4.409789E-14	3.287342E-16
4.350000E+03	4.314548E-14	3.200947E-16
4.360000E+03	4.215496E-14	3.114018E-16
4.370000E+03	4.114480E-14	3.027869E-16
4.380000E+03	4.013401E-14	2.943767E-16
4.390000E+03	3.916908E-14	2.864949E-16
4.400000E+03	3.834070E-14	2.797848E-16
4.410000E+03	3.772245E-14	2.747612E-16
4.420000E+03	3.736670E-14	2.717850E-16
4.430000E+03	3.730372E-14	2.710589E-16
4.440000E+03	3.755001E-14	2.726902E-16
4.450000E+03	3.811543E-14	2.767431E-16
4.460000E+03	3.900309E-14	2.832374E-16
4.470000E+03	4.021207E-14	2.921688E-16
4.480000E+03	4.173355E-14	3.034794E-16
4.490000E+03	4.354854E-14	3.170407E-16
4.500000E+03	4.562638E-14	3.326417E-16
4.510000E+03	4.792246E-14	3.499705E-16
4.520000E+03	5.037846E-14	3.686140E-16
4.530000E+03	5.291880E-14	3.880302E-16
4.540000E+03	5.545309E-14	4.075635E-16
4.550000E+03	5.787750E-14	4.264516E-16
4.560000E+03	6.007907E-14	4.438560E-16
4.570000E+03	6.194244E-14	4.589091E-16
4.580000E+03	6.336050E-14	4.707922E-16
4.590000E+03	6.424392E-14	4.788072E-16
4.600000E+03	6.453483E-14	4.824804E-16
4.610000E+03	6.421670E-14	4.816403E-16
4.620000E+03	6.331247E-14	4.764087E-16
4.630000E+03	6.188116E-14	4.671810E-16
4.640000E+03	6.001249E-14	4.545901E-16
4.650000E+03	5.781240E-14	4.394013E-16
4.660000E+03	5.539235E-14	4.224331E-16
4.670000E+03	5.285692E-14	4.044636E-16
4.680000E+03	5.029978E-14	3.861989E-16
4.690000E+03	4.779622E-14	3.682137E-16
4.700000E+03	4.540246E-14	3.509443E-16
4.710000E+03	4.315743E-14	3.346994E-16
4.720000E+03	4.108849E-14	3.197022E-16
4.730000E+03	3.921088E-14	3.060843E-16
4.740000E+03	3.753216E-14	2.939192E-16
4.750000E+03	3.605337E-14	2.832282E-16
4.760000E+03	3.477260E-14	2.740097E-16
4.770000E+03	3.368362E-14	2.662276E-16
4.780000E+03	3.277919E-14	2.598373E-16
4.790000E+03	3.204905E-14	2.547692E-16
4.800000E+03	3.148153E-14	2.509412E-16
4.810000E+03	3.106325E-14	2.482563E-16
4.820000E+03	3.077977E-14	2.466070E-16
4.830000E+03	3.061546E-14	2.458749E-16
4.840000E+03	3.055331E-14	2.459288E-16
4.850000E+03	3.057552E-14	2.466292E-16
4.860000E+03	3.066250E-14	2.478206E-16
4.870000E+03	3.079131E-14	2.493188E-16
4.880000E+03	3.093684E-14	2.509206E-16
4.890000E+03	3.107182E-14	2.524033E-16
4.900000E+03	3.116755E-14	2.535317E-16
4.910000E+03	3.119633E-14	2.540781E-16
4.920000E+03	3.113509E-14	2.538511E-16
4.930000E+03	3.096859E-14	2.527241E-16
4.940000E+03	3.069378E-14	2.506700E-16
4.950000E+03	3.031986E-14	2.477627E-16
4.960000E+03	2.986387E-14	2.441415E-16
4.970000E+03	2.935143E-14	2.400167E-16
4.980000E+03	2.881247E-14	2.356350E-16
4.990000E+03	2.827837E-14	2.312552E-16
5.000000E+03	2.778014E-14	2.271331E-16
5.010000E+03	2.734625E-14	2.235038E-16
5.020000E+03	2.700262E-14	2.205805E-16
5.030000E+03	2.677117E-14	2.185430E-16
5.040000E+03	2.667126E-14	2.175489E-16
5.050000E+03	2.671919E-14	2.177296E-16
5.060000E+03	2.692845E-14	2.191922E-16
5.070000E+03	2.731127E-14	2.220320E-16
5.080000E+03	2.787858E-14	2.263326E-16
5.090000E+03	2.863904E-14	2.321574E-16
5.100000E+03	2.960070E-14	2.395637E-16
5.110000E+03	3.076922E-14	2.485882E-16
5.120000E+03	3.214656E-14	2.592366E-16
5.130000E+03	3.373130E-14	2.714868E-16
5.140000E+03	3.551524E-14	2.852617E-16
5.150000E+03	3.748347E-14	3.004307E-16
5.160000E+03	3.961112E-14	3.167844E-16
5.170000E+03	4.186273E-14	3.340310E-16
5.180000E+03	4.418894E-14	3.517708E-16
5.190000E+03	4.652897E-14	3.695179E-16
5.200000E+03	4.881252E-14	3.867165E-16
5.210000E+03	5.096480E-14	4.027814E-16
5.220000E+03	5.291247E-14	4.171458E-16
5.230000E+03	5.458666E-14	4.292849E-16
5.240000E+03	5.593065E-14	4.387751E-16
5.250000E+03	5.690482E-14	4.453317E-16
5.260000E+03	5.748804E-14	4.488173E-16
5.270000E+03	5.768259E-14	4.492784E-16
5.280000E+03	5.750933E-14	4.469047E-16
5.290000E+03	5.700817E-14	4.420311E-16
5.300000E+03	5.623291E-14	4.350959E-16
5.310000E+03	5.524545E-14	4.265950E-16
5.320000E+03	5.410901E-14	4.170287E-16
5.330000E+03	5.288777E-14	4.068999E-16
5.340000E+03	5.164011E-14	3.966621E-16
5.350000E+03	5.041992E-14	3.867307E-16
5.360000E+03	4.927868E-14	3.774995E-16
5.370000E+03	4.826325E-14	3.693240E-16
5.380000E+03	4.740371E-14	3.624268E-16
5.390000E+03	4.665541E-14	3.564600E-16
5.400000E+03	4.596722E-14	3.510277E-16
5.410000E+03	4.530482E-14	3.458626E-16
5.420000E+03	4.465293E-14	3.408408E-16
5.430000E+03	4.401257E-14	3.359624E-16
5.440000E+03	4.338847E-14	3.312562E-16
5.450000E+03	4.276293E-14	3.265802E-16
5.460000E+03	4.211923E-14	3.217998E-16
5.470000E+03	4.144478E-14	3.168121E-16
5.480000E+03	4.073090E-14	3.115442E-16
5.490000E+03	3.997183E-14	3.059456E-16
5.500000E+03	3.916334E-14	2.999774E-16
5.510000E+03	3.830452E-14	2.936266E-16
5.520000E+03	3.739509E-14	2.868854E-16
5.530000E+03	3.643822E-14	2.797726E-16
5.540000E+03	3.544057E-14	2.723347E-16
5.550000E+03	3.441037E-14	2.646307E-16
5.560000E+03	3.336014E-14	2.567534E-16
5.570000E+03	3.230250E-14	2.487973E-16
5.580000E+03	3.125277E-14	2.408784E-16
5.590000E+03	3.022635E-14	2.331143E-16
5.600000E+03	2.923857E-14	2.256225E-16
5.610000E+03	2.830397E-14	2.185152E-16
5.620000E+03	2.743602E-14	2.118967E-16
5.630000E+03	2.664577E-14	2.058531E-16
5.640000E+03	2.594347E-14	2.004640E-16
5.650000E+03	2.533727E-14	1.957932E-16
5.660000E+03	2.483340E-14	1.918890E-16
5.670000E+03	2.443748E-14	1.887950E-16
5.680000E+03	2.415325E-14	1.865396E-16
5.690000E+03	2.398377E-14	1.851455E-16
5.700000E+03	2.393150E-14	1.846301E-16
5.710000E+03	2.399847E-14	1.850070E-16
5.720000E+03	2.418626E-14	1.862852E-16
5.730000E+03	2.449599E-14	1.884696E-16
5.740000E+03	2.492813E-14	1.915593E-16
5.750000E+03	2.548225E-14	1.955457E-16
5.760000E+03	2.615593E-14	2.004041E-16
5.770000E+03	2.694485E-14	2.060948E-16
5.780000E+03	2.784201E-14	2.125570E-16
5.790000E+03	2.883640E-14	2.196991E-16
5.800000E+03	2.991394E-14	2.274064E-16
5.810000E+03	3.105474E-14	2.355207E-16
5.820000E+03	3.223497E-14	2.438552E-16
5.830000E+03	3.342760E-14	2.522010E-16
5.840000E+03	3.460141E-14	2.603197E-16
5.850000E+03	3.572383E-14	2.679663E-16
5.860000E+03	3.676107E-14	2.748902E-16
5.870000E+03	3.768134E-14	2.808597E-16
5.880000E+03	3.845656E-14	2.856749E-16
5.890000E+03	3.906124E-14	2.891591E-16
5.900000E+03	3.947743E-14	2.911949E-16
5.910000E+03	3.969242E-14	2.917070E-16
5.920000E+03	3.969930E-14	2.906645E-16
5.930000E+03	3.949842E-14	2.880915E-16
5.940000E+03	3.909625E-14	2.840572E-16
5.950000E+03	3.850409E-14	2.786654E-16
5.960000E+03	3.773990E-14	2.720671E-16
5.970000E+03	3.682460E-14	2.644321E-16
5.980000E+03	3.578304E-14	2.559563E-16
5.990000E+03	3.464348E-14	2.468558E-16
6.000000E+03	3.343428E-14	2.373443E-16
6.010000E+03	3.218338E-14	2.276282E-16
6.020000E+03	3.091771E-14	2.179034E-16
6.030000E+03	2.966204E-14	2.083470E-16
6.040000E+03	2.843814E-14	1.991118E-16
6.050000E+03	2.726496E-14	1.903287E-16
6.060000E+03	2.615932E-14	1.821116E-16
6.070000E+03	2.513486E-14	1.745510E-16
6.080000E+03	2.420336E-14	1.677236E-16
6.090000E+03	2.337392E-14	1.616873E-16
6.100000E+03	2.265375E-14	1.564873E-16
6.110000E+03	2.204666E-14	1.521461E-16
6.120000E+03	2.155483E-14	1.486763E-16
6.130000E+03	2.117902E-14	1.460823E-16
6.140000E+03	2.091718E-14	1.443507E-16
6.150000E+03	2.076569E-14	1.434595E-16
6.160000E+03	2.072053E-14	1.433861E-16
6.170000E+03	2.077693E-14	1.441049E-16
6.180000E+03	2.092845E-14	1.455808E-16
6.190000E+03	2.116836E-14	1.477791E-16
6.200000E+03	2.148594E-14	1.506383E-16
6.210000E+03	2.186919E-14	1.540894E-16
6.220000E+03	2.230471E-14	1.580539E-16
6.230000E+03	2.277736E-14	1.624382E-16
6.240000E+03	2.327105E-14	1.671367E-16
6.250000E+03	2.376750E-14	1.720241E-16
6.260000E+03	2.424585E-14	1.769519E-16
6.270000E+03	2.468569E-14	1.817693E-16
6.280000E+03	2.506807E-14	1.863293E-16
6.290000E+03	2.537715E-14	1.905012E-16
6.300000E+03	2.559953E-14	1.941663E-16
6.310000E+03	2.572804E-14	1.972468E-16
6.320000E+03	2.575961E-14	1.996923E-16
6.330000E+03	2.569624E-14	2.014888E-16
6.340000E+03	2.554455E-14	2.026578E-16
6.350000E+03	2.531369E-14	2.032417E-16
6.360000E+03	2.501581E-14	2.033097E-16
6.370000E+03	2.466385E-14	2.029410E-16
6.380000E+03	2.427201E-14	2.022302E-16
6.390000E+03	2.385369E-14	2.012706E-16
6.400000E+03	2.342261E-14	2.001642E-16
6.410000E+03	2.299152E-14	1.990101E-16
6.420000E+03	2.257312E-14	1.979134E-16
6.430000E+03	2.218010E-14	1.969852E-16
6.440000E+03	2.182607E-14	1.963512E-16
6.450000E+03	2.152459E-14	1.961436E-16
6.460000E+03	2.129091E-14	1.965171E-16
6.470000E+03	2.112913E-14	1.975303E-16
6.480000E+03	2.102077E-14	1.990302E-16
6.490000E+03	2.094749E-14	2.008573E-16
6.500000E+03	2.089270E-14	2.028603E-16
6.510000E+03	2.084317E-14	2.049133E-16
6.520000E+03	2.078625E-14	2.068898E-16
6.530000E+03	2.071257E-14	2.086905E-16
6.540000E+03	2.061358E-14	2.102195E-16
6.550000E+03	2.048241E-14	2.113948E-16
6.560000E+03	2.031477E-14	2.121577E-16
6.570000E+03	2.010775E-14	2.124619E-16
6.580000E+03	1.985975E-14	2.122744E-16
6.590000E+03	1.957148E-14	2.115862E-16
6.600000E+03	1.924413E-14	2.103941E-16
6.610000E+03	1.888118E-14	2.087213E-16
6.620000E+03	1.848594E-14	2.065908E-16
6.630000E+03	1.806358E-14	2.040484E-16
6.640000E+03	1.761867E-14	2.011362E-16
6.650000E+03	1.715711E-14	1.979137E-16
6.660000E+03	1.668437E-14	1.944386E-16
6.670000E+03	1.620645E-14	1.907776E-16
6.680000E+03	1.572861E-14	1.869918E-16
6.690000E+03	1.525606E-14	1.831440E-16
6.700000E+03	1.479376E-14	1.792967E-16
6.710000E+03	1.434564E-14	1.755022E-16
6.720000E+03	1.391529E-14	1.718103E-16
6.730000E+03	1.350583E-14	1.682667E-16
6.740000E+03	1.311927E-14	1.649044E-16
6.750000E+03	1.275720E-14	1.617519E-16
6.760000E+03	1.242057E-14	1.588304E-16
6.770000E+03	1.210975E-14	1.561535E-16
6.780000E+03	1.182479E-14	1.537309E-16
6.790000E+03	1.156490E-14	1.515613E-16
6.800000E+03	1.132930E-14	1.496428E-16
6.810000E+03	1.111632E-14	1.479615E-16
6.820000E+03	1.092487E-14	1.465099E-16
6.830000E+03	1.075326E-14	1.452723E-16
6.840000E+03	1.059933E-14	1.442258E-16
6.850000E+03	1.046182E-14	1.433585E-16
6.860000E+03	1.033832E-14	1.426425E-16
6.870000E+03	1.022755E-14	1.420640E-16
6.880000E+03	1.012723E-14	1.415952E-16
6.890000E+03	1.003624E-14	1.412234E-16
6.900000E+03	9.952685E-15	1.409242E-16
6.910000E+03	9.875169E-15	1.406803E-16
6.920000E+03	9.802639E-15	1.404782E-16
6.930000E+03	9.734024E-15	1.403039E-16
6.940000E+03	9.668415E-15	1.401454E-16
6.950000E+03	9.605070E-15	1.399928E-16
6.960000E+03	9.543221E-15	1.398356E-16
6.970000E+03	9.482749E-15	1.396725E-16
6.980000E+03	9.422971E-15	1.394939E-16
6.990000E+03	9.363822E-15	1.392992E-16
7.000000E+03	9.305142E-15	1.390864E-16
7.010000E+03	9.247014E-15	1.388570E-16
7.020000E+03	9.189053E-15	1.386054E-16
7.030000E+03	9.131563E-15	1.383367E-16
7.040000E+03	9.074355E-15	1.380481E-16
7.050000E+03	9.017405E-15	1.377397E-16
7.060000E+03	8.960692E-15	1.374114E-16
7.070000E+03	8.904372E-15	1.370658E-16
7.080000E+03	8.848274E-15	1.367007E-16
7.090000E+03	8.792589E-15	1.363194E-16
7.100000E+03	8.737200E-15	1.359202E-16
7.110000E+03	8.682354E-15	1.355074E-16
7.120000E+03	8.628155E-15	1.350829E-16
7.130000E+03	8.574573E-15	1.346467E-16
7.140000E+03	8.521924E-15	1.342041E-16
7.150000E+03	8.470334E-15	1.337574E-16
7.160000E+03	8.419904E-15	1.333087E-16
7.170000E+03	8.370843E-15	1.328617E-16
7.180000E+03	8.322762E-15	1.324106E-16
7.190000E+03	8.275667E-15	1.319558E-16
7.200000E+03	8.229431E-15	1.314958E-16
7.210000E+03	8.183466E-15	1.310215E-16
7.220000E+03	8.137219E-15	1.305242E-16
7.230000E+03	8.090199E-15	1.299963E-16
7.240000E+03	8.041505E-15	1.294236E-16
7.250000E+03	7.990538E-15	1.287965E-16
7.260000E+03	7.936368E-15	1.281002E-16
7.270000E+03	7.878451E-15	1.273259E-16
7.280000E+03	7.816178E-15	1.264639E-16
7.290000E+03	7.749079E-15	1.255068E-16
7.300000E+03	7.676687E-15	1.244472E-16
7.310000E+03	7.599236E-15	1.232889E-16
7.320000E+03	7.516512E-15	1.220290E-16
7.330000E+03	7.429004E-15	1.206755E-16
7.340000E+03	7.337252E-15	1.192377E-16
7.350000E+03	7.241975E-15	1.177277E-16
7.360000E+03	7.144035E-15	1.161601E-16
7.370000E+03	7.044409E-15	1.145513E-16
7.380000E+03	6.944129E-15	1.129186E-16
7.390000E+03	6.844382E-15	1.112820E-16
7.400000E+03	6.745844E-15	1.096530E-16
7.410000E+03	6.649712E-15	1.080517E-16
7.420000E+03	6.556736E-15	1.064908E-16
7.430000E+03	6.467496E-15	1.049801E-16
7.440000E+03	6.382244E-15	1.035242E-16
7.450000E+03	6.301192E-15	1.021266E-16
7.460000E+03	6.224354E-15	1.007878E-16
7.470000E+03	6.151560E-15	9.950528E-17
7.480000E+03	6.082479E-15	9.827380E-17
7.490000E+03	6.016633E-15	9.708575E-17
7.500000E+03	5.953432E-15	9.593177E-17
7.510000E+03	5.892211E-15	9.480127E-17
7.520000E+03	5.832138E-15	9.368104E-17
7.530000E+03	5.772809E-15	9.256478E-17
7.540000E+03	5.713382E-15	9.143928E-17
7.550000E+03	5.653927E-15	9.030596E-17
7.560000E+03	5.594660E-15	8.916856E-17
7.570000E+03	5.536006E-15	8.803413E-17
7.580000E+03	5.478064E-15	8.690448E-17
7.590000E+03	5.421376E-15	8.578842E-17
7.600000E+03	5.366505E-15	8.469497E-17
7.610000E+03	5.313623E-15	8.362691E-17
7.620000E+03	5.263414E-15	8.259503E-17
7.630000E+03	5.216022E-15	8.160146E-17
7.640000E+03	5.172061E-15	8.065565E-17
7.650000E+03	5.131722E-15	7.976030E-17
7.660000E+03	5.095282E-15	7.891936E-17
7.670000E+03	5.062966E-15	7.813587E-17
7.680000E+03	5.034832E-15	7.741026E-17
7.690000E+03	5.011422E-15	7.675023E-17
7.700000E+03	4.992508E-15	7.615159E-17
7.710000E+03	4.978339E-15	7.561745E-17
7.720000E+03	4.969138E-15	7.515033E-17
7.730000E+03	4.964717E-15	7.474652E-17
7.740000E+03	4.965351E-15	7.440916E-17
7.750000E+03	4.971003E-15	7.413670E-17
7.760000E+03	4.981323E-15	7.392285E-17
