#wls	flux	fluxerr
1.600000E+03	5.045405E-15	1.625036E-16
1.640000E+03	4.193121E-15	1.325163E-16
1.680000E+03	3.459603E-15	1.072404E-16
1.720000E+03	2.836129E-15	8.619871E-17
1.760000E+03	2.312905E-15	6.890117E-17
1.800000E+03	1.879079E-15	5.484924E-17
1.840000E+03	1.523204E-15	4.355288E-17
1.880000E+03	1.234487E-15	3.456787E-17
1.920000E+03	1.002363E-15	2.748225E-17
1.960000E+03	8.175562E-16	2.194439E-17
2.000000E+03	6.719028E-16	1.765454E-17
2.040000E+03	5.584621E-16	1.436433E-17
2.080000E+03	4.716948E-16	1.187761E-17
2.120000E+03	4.078790E-16	1.005660E-17
2.160000E+03	3.641305E-16	8.793285E-18
2.200000E+03	3.391557E-16	8.024925E-18
2.240000E+03	3.328348E-16	7.720542E-18
2.280000E+03	3.466972E-16	7.889248E-18
2.320000E+03	3.834480E-16	8.566635E-18
2.360000E+03	4.477595E-16	9.830699E-18
2.400000E+03	5.470137E-16	1.181537E-17
2.440000E+03	6.917802E-16	1.471650E-17
2.480000E+03	8.949722E-16	1.877068E-17
2.520000E+03	1.170132E-15	2.421863E-17
2.560000E+03	1.527879E-15	3.123308E-17
2.600000E+03	1.970315E-15	3.981022E-17
2.640000E+03	2.488075E-15	4.971967E-17
2.680000E+03	3.059187E-15	6.049234E-17
2.720000E+03	3.653577E-15	7.151814E-17
2.760000E+03	4.237339E-15	8.213342E-17
2.800000E+03	4.778397E-15	9.173091E-17
2.840000E+03	5.250665E-15	9.983616E-17
2.880000E+03	5.637299E-15	1.061638E-16
2.920000E+03	5.932905E-15	1.106516E-16
2.960000E+03	6.144652E-15	1.134726E-16
3.000000E+03	6.289508E-15	1.149747E-16
3.010000E+03	6.317929E-15	1.151960E-16
3.020000E+03	6.344181E-15	1.153736E-16
3.030000E+03	6.368630E-15	1.155143E-16
3.040000E+03	6.391653E-15	1.156251E-16
3.050000E+03	6.413640E-15	1.157131E-16
3.060000E+03	6.435232E-15	1.157900E-16
3.070000E+03	6.456828E-15	1.158628E-16
3.080000E+03	6.479070E-15	1.159430E-16
3.090000E+03	6.502127E-15	1.160336E-16
3.100000E+03	6.526650E-15	1.161457E-16
3.110000E+03	6.553289E-15	1.162908E-16
3.120000E+03	6.582229E-15	1.164717E-16
3.130000E+03	6.614129E-15	1.166997E-16
3.140000E+03	6.649644E-15	1.169857E-16
3.150000E+03	6.688988E-15	1.173329E-16
3.160000E+03	6.733051E-15	1.177563E-16
3.170000E+03	6.782286E-15	1.182629E-16
3.180000E+03	6.836941E-15	1.188563E-16
3.190000E+03	6.897933E-15	1.195513E-16
3.200000E+03	6.965758E-15	1.203556E-16
3.210000E+03	7.040928E-15	1.212767E-16
3.220000E+03	7.123983E-15	1.223228E-16
3.230000E+03	7.215904E-15	1.235092E-16
3.240000E+03	7.317275E-15	1.248443E-16
3.250000E+03	7.428499E-15	1.263332E-16
3.260000E+03	7.550638E-15	1.279921E-16
3.270000E+03	7.684367E-15	1.298305E-16
3.280000E+03	7.830392E-15	1.318582E-16
3.290000E+03	7.989453E-15	1.340853E-16
3.300000E+03	8.162745E-15	1.365294E-16
3.310000E+03	8.350862E-15	1.391977E-16
3.320000E+03	8.554844E-15	1.421048E-16
3.330000E+03	8.775550E-15	1.452620E-16
3.340000E+03	9.014055E-15	1.486837E-16
3.350000E+03	9.271009E-15	1.523773E-16
3.360000E+03	9.547464E-15	1.563565E-16
3.370000E+03	9.844016E-15	1.606273E-16
3.380000E+03	1.016181E-14	1.652044E-16
3.390000E+03	1.050121E-14	1.700898E-16
3.400000E+03	1.086264E-14	1.752858E-16
3.410000E+03	1.124598E-14	1.807863E-16
3.420000E+03	1.165125E-14	1.865873E-16
3.430000E+03	1.207753E-14	1.926697E-16
3.440000E+03	1.252335E-14	1.990061E-16
3.450000E+03	1.298692E-14	2.055640E-16
3.460000E+03	1.346580E-14	2.123015E-16
3.470000E+03	1.395621E-14	2.191560E-16
3.480000E+03	1.445461E-14	2.260695E-16
3.490000E+03	1.495669E-14	2.329734E-16
3.500000E+03	1.545742E-14	2.397886E-16
3.510000E+03	1.595166E-14	2.464358E-16
3.520000E+03	1.643371E-14	2.528283E-16
3.530000E+03	1.689900E-14	2.588985E-16
3.540000E+03	1.734243E-14	2.645718E-16
3.550000E+03	1.775997E-14	2.697911E-16
3.560000E+03	1.814806E-14	2.745077E-16
3.570000E+03	1.850364E-14	2.786813E-16
3.580000E+03	1.882521E-14	2.822959E-16
3.590000E+03	1.911229E-14	2.853513E-16
3.600000E+03	1.936529E-14	2.878595E-16
3.610000E+03	1.958638E-14	2.898591E-16
3.620000E+03	1.977877E-14	2.914032E-16
3.630000E+03	1.994696E-14	2.925628E-16
3.640000E+03	2.009634E-14	2.934209E-16
3.650000E+03	2.023244E-14	2.940613E-16
3.660000E+03	2.036121E-14	2.945720E-16
3.670000E+03	2.048951E-14	2.950531E-16
3.680000E+03	2.062444E-14	2.956057E-16
3.690000E+03	2.077318E-14	2.963305E-16
3.700000E+03	2.094365E-14	2.973369E-16
3.710000E+03	2.114429E-14	2.987391E-16
3.720000E+03	2.138403E-14	3.006559E-16
3.730000E+03	2.167111E-14	3.031942E-16
3.740000E+03	2.201363E-14	3.064563E-16
3.750000E+03	2.241956E-14	3.105403E-16
3.760000E+03	2.289603E-14	3.155308E-16
3.770000E+03	2.344926E-14	3.214971E-16
3.780000E+03	2.408519E-14	3.285033E-16
3.790000E+03	2.480841E-14	3.365932E-16
3.800000E+03	2.562241E-14	3.457942E-16
3.810000E+03	2.652766E-14	3.560917E-16
3.820000E+03	2.752280E-14	3.674468E-16
3.830000E+03	2.860189E-14	3.797597E-16
3.840000E+03	2.975411E-14	3.928679E-16
3.850000E+03	3.096471E-14	4.065602E-16
3.860000E+03	3.221269E-14	4.205480E-16
3.870000E+03	3.347204E-14	4.344844E-16
3.880000E+03	3.471446E-14	4.480000E-16
3.890000E+03	3.590733E-14	4.606794E-16
3.900000E+03	3.701850E-14	4.721226E-16
3.910000E+03	3.801514E-14	4.819315E-16
3.920000E+03	3.886953E-14	4.897825E-16
3.930000E+03	3.955752E-14	4.954058E-16
3.940000E+03	4.006272E-14	4.986360E-16
3.950000E+03	4.037529E-14	4.993941E-16
3.960000E+03	4.049531E-14	4.977267E-16
3.970000E+03	4.043199E-14	4.937920E-16
3.980000E+03	4.020344E-14	4.878541E-16
3.990000E+03	3.983435E-14	4.802507E-16
4.000000E+03	3.935464E-14	4.713747E-16
4.010000E+03	3.879661E-14	4.616380E-16
4.020000E+03	3.819166E-14	4.514320E-16
4.030000E+03	3.756896E-14	4.411117E-16
4.040000E+03	3.695394E-14	4.309796E-16
4.050000E+03	3.636763E-14	4.212790E-16
4.060000E+03	3.582749E-14	4.122055E-16
4.070000E+03	3.534769E-14	4.039119E-16
4.080000E+03	3.493983E-14	3.965169E-16
4.090000E+03	3.461216E-14	3.900985E-16
4.100000E+03	3.437083E-14	3.847082E-16
4.110000E+03	3.421967E-14	3.803705E-16
4.120000E+03	3.415890E-14	3.770686E-16
4.130000E+03	3.418600E-14	3.747564E-16
4.140000E+03	3.429482E-14	3.733490E-16
4.150000E+03	3.447717E-14	3.727417E-16
4.160000E+03	3.472170E-14	3.727990E-16
4.170000E+03	3.501535E-14	3.733708E-16
4.180000E+03	3.534368E-14	3.742969E-16
4.190000E+03	3.569150E-14	3.754134E-16
4.200000E+03	3.604284E-14	3.765533E-16
4.210000E+03	3.638048E-14	3.775409E-16
4.220000E+03	3.668784E-14	3.782127E-16
4.230000E+03	3.694700E-14	3.783957E-16
4.240000E+03	3.714036E-14	3.779248E-16
4.250000E+03	3.724991E-14	3.766350E-16
4.260000E+03	3.725837E-14	3.743727E-16
4.270000E+03	3.714843E-14	3.709880E-16
4.280000E+03	3.690540E-14	3.663594E-16
4.290000E+03	3.651780E-14	3.603998E-16
4.300000E+03	3.597935E-14	3.530741E-16
4.310000E+03	3.528983E-14	3.444055E-16
4.320000E+03	3.445909E-14	3.345131E-16
4.330000E+03	3.350758E-14	3.236144E-16
4.340000E+03	3.246951E-14	3.120529E-16
4.350000E+03	3.138762E-14	3.002453E-16
4.360000E+03	3.030940E-14	2.886450E-16
4.370000E+03	2.928372E-14	2.777091E-16
4.380000E+03	2.835860E-14	2.678781E-16
4.390000E+03	2.757610E-14	2.595288E-16
4.400000E+03	2.697102E-14	2.529648E-16
4.410000E+03	2.657032E-14	2.484141E-16
4.420000E+03	2.639487E-14	2.460478E-16
4.430000E+03	2.645816E-14	2.459692E-16
4.440000E+03	2.676922E-14	2.482418E-16
4.450000E+03	2.733438E-14	2.529065E-16
4.460000E+03	2.815894E-14	2.599971E-16
4.470000E+03	2.924560E-14	2.695255E-16
4.480000E+03	3.059342E-14	2.814729E-16
4.490000E+03	3.219708E-14	2.957823E-16
4.500000E+03	3.404328E-14	3.123259E-16
4.510000E+03	3.610824E-14	3.308826E-16
4.520000E+03	3.835569E-14	3.511188E-16
4.530000E+03	4.073368E-14	3.725601E-16
4.540000E+03	4.317343E-14	3.945805E-16
4.550000E+03	4.559041E-14	4.164114E-16
4.560000E+03	4.788599E-14	4.371570E-16
4.570000E+03	4.995453E-14	4.558583E-16
4.580000E+03	5.169094E-14	4.715609E-16
4.590000E+03	5.300172E-14	4.834155E-16
4.600000E+03	5.381304E-14	4.907503E-16
4.610000E+03	5.408577E-14	4.932083E-16
4.620000E+03	5.381345E-14	4.907285E-16
4.630000E+03	5.303001E-14	4.836161E-16
4.640000E+03	5.180270E-14	4.724791E-16
4.650000E+03	5.022382E-14	4.581534E-16
4.660000E+03	4.839208E-14	4.415334E-16
4.670000E+03	4.640617E-14	4.235140E-16
4.680000E+03	4.435432E-14	4.048956E-16
4.690000E+03	4.230883E-14	3.863342E-16
4.700000E+03	4.032430E-14	3.683259E-16
4.710000E+03	3.843977E-14	3.512250E-16
4.720000E+03	3.668200E-14	3.352752E-16
4.730000E+03	3.506873E-14	3.206381E-16
4.740000E+03	3.360961E-14	3.074019E-16
4.750000E+03	3.231083E-14	2.956239E-16
4.760000E+03	3.117382E-14	2.853176E-16
4.770000E+03	3.019853E-14	2.764836E-16
4.780000E+03	2.938180E-14	2.690934E-16
4.790000E+03	2.871748E-14	2.630906E-16
4.800000E+03	2.819800E-14	2.584057E-16
4.810000E+03	2.781357E-14	2.549489E-16
4.820000E+03	2.755230E-14	2.526112E-16
4.830000E+03	2.740032E-14	2.512650E-16
4.840000E+03	2.734341E-14	2.507793E-16
4.850000E+03	2.736609E-14	2.510117E-16
4.860000E+03	2.745184E-14	2.518096E-16
4.870000E+03	2.758001E-14	2.529826E-16
4.880000E+03	2.772698E-14	2.543133E-16
4.890000E+03	2.786468E-14	2.555430E-16
4.900000E+03	2.796441E-14	2.564077E-16
4.910000E+03	2.799657E-14	2.566358E-16
4.920000E+03	2.793565E-14	2.559933E-16
4.930000E+03	2.776357E-14	2.543154E-16
4.940000E+03	2.747590E-14	2.515626E-16
4.950000E+03	2.707787E-14	2.477850E-16
4.960000E+03	2.658601E-14	2.431361E-16
4.970000E+03	2.602418E-14	2.378365E-16
4.980000E+03	2.542172E-14	2.321568E-16
4.990000E+03	2.480883E-14	2.263749E-16
5.000000E+03	2.421604E-14	2.207707E-16
5.010000E+03	2.367115E-14	2.155986E-16
5.020000E+03	2.319789E-14	2.110748E-16
5.030000E+03	2.281595E-14	2.073777E-16
5.040000E+03	2.254101E-14	2.046483E-16
5.050000E+03	2.238653E-14	2.030068E-16
5.060000E+03	2.236367E-14	2.025512E-16
5.070000E+03	2.248223E-14	2.033672E-16
5.080000E+03	2.275089E-14	2.055290E-16
5.090000E+03	2.317791E-14	2.091069E-16
5.100000E+03	2.377078E-14	2.141638E-16
5.110000E+03	2.453637E-14	2.207563E-16
5.120000E+03	2.548114E-14	2.289375E-16
5.130000E+03	2.660932E-14	2.387402E-16
5.140000E+03	2.792369E-14	2.501842E-16
5.150000E+03	2.942105E-14	2.632366E-16
5.160000E+03	3.109357E-14	2.778238E-16
5.170000E+03	3.292440E-14	2.937928E-16
5.180000E+03	3.488625E-14	3.108996E-16
5.190000E+03	3.694190E-14	3.288143E-16
5.200000E+03	3.904348E-14	3.471146E-16
5.210000E+03	4.113663E-14	3.653242E-16
5.220000E+03	4.316245E-14	3.829295E-16
5.230000E+03	4.505993E-14	3.994010E-16
5.240000E+03	4.677212E-14	4.142473E-16
5.250000E+03	4.824950E-14	4.270445E-16
5.260000E+03	4.945401E-14	4.374706E-16
5.270000E+03	5.036254E-14	4.453353E-16
5.280000E+03	5.096981E-14	4.506044E-16
5.290000E+03	5.128675E-14	4.533850E-16
5.300000E+03	5.134121E-14	4.539311E-16
5.310000E+03	5.117208E-14	4.525920E-16
5.320000E+03	5.082340E-14	4.497606E-16
5.330000E+03	5.033677E-14	4.458065E-16
5.340000E+03	4.974837E-14	4.410503E-16
5.350000E+03	4.908876E-14	4.357626E-16
5.360000E+03	4.837821E-14	4.301220E-16
5.370000E+03	4.762753E-14	4.242225E-16
5.380000E+03	4.684258E-14	4.181111E-16
5.390000E+03	4.602438E-14	4.117899E-16
5.400000E+03	4.517341E-14	4.052558E-16
5.410000E+03	4.429125E-14	3.985142E-16
5.420000E+03	4.338520E-14	3.916187E-16
5.430000E+03	4.246272E-14	3.846244E-16
5.440000E+03	4.153073E-14	3.775823E-16
5.450000E+03	4.059155E-14	3.705022E-16
5.460000E+03	3.964533E-14	3.633750E-16
5.470000E+03	3.868830E-14	3.561553E-16
5.480000E+03	3.771524E-14	3.487842E-16
5.490000E+03	3.672048E-14	3.411978E-16
5.500000E+03	3.569990E-14	3.333459E-16
5.510000E+03	3.465150E-14	3.251975E-16
5.520000E+03	3.357473E-14	3.167354E-16
5.530000E+03	3.247310E-14	3.079804E-16
5.540000E+03	3.135268E-14	2.989791E-16
5.550000E+03	3.022209E-14	2.898037E-16
5.560000E+03	2.909203E-14	2.805491E-16
5.570000E+03	2.797509E-14	2.713308E-16
5.580000E+03	2.688403E-14	2.622696E-16
5.590000E+03	2.583173E-14	2.534908E-16
5.600000E+03	2.483165E-14	2.451289E-16
5.610000E+03	2.389473E-14	2.372972E-16
5.620000E+03	2.303188E-14	2.301122E-16
5.630000E+03	2.225111E-14	2.236641E-16
5.640000E+03	2.155935E-14	2.180350E-16
5.650000E+03	2.096233E-14	2.132970E-16
5.660000E+03	2.046421E-14	2.095081E-16
5.670000E+03	2.006821E-14	2.067181E-16
5.680000E+03	1.977694E-14	2.049718E-16
5.690000E+03	1.959248E-14	2.043096E-16
5.700000E+03	1.951672E-14	2.047705E-16
5.710000E+03	1.955156E-14	2.063948E-16
5.720000E+03	1.969894E-14	2.092234E-16
5.730000E+03	1.996089E-14	2.132995E-16
5.740000E+03	2.033888E-14	2.186604E-16
5.750000E+03	2.083319E-14	2.253315E-16
5.760000E+03	2.144305E-14	2.333268E-16
5.770000E+03	2.216632E-14	2.426450E-16
5.780000E+03	2.299716E-14	2.532440E-16
5.790000E+03	2.392741E-14	2.650538E-16
5.800000E+03	2.494389E-14	2.779472E-16
5.810000E+03	2.602975E-14	2.917518E-16
5.820000E+03	2.716252E-14	3.062277E-16
5.830000E+03	2.831592E-14	3.210860E-16
5.840000E+03	2.945995E-14	3.359885E-16
5.850000E+03	3.056181E-14	3.505569E-16
5.860000E+03	3.158877E-14	3.644053E-16
5.870000E+03	3.250997E-14	3.771611E-16
5.880000E+03	3.329655E-14	3.884670E-16
5.890000E+03	3.392575E-14	3.980295E-16
5.900000E+03	3.437853E-14	4.055936E-16
5.910000E+03	3.464280E-14	4.109815E-16
5.920000E+03	3.471360E-14	4.140974E-16
5.930000E+03	3.459104E-14	4.149052E-16
5.940000E+03	3.428178E-14	4.134476E-16
5.950000E+03	3.379851E-14	4.098423E-16
5.960000E+03	3.315812E-14	4.042616E-16
5.970000E+03	3.238212E-14	3.969383E-16
5.980000E+03	3.149475E-14	3.881451E-16
5.990000E+03	3.052068E-14	3.781656E-16
6.000000E+03	2.948639E-14	3.673128E-16
6.010000E+03	2.841656E-14	3.558841E-16
6.020000E+03	2.733535E-14	3.441764E-16
6.030000E+03	2.626314E-14	3.324454E-16
6.040000E+03	2.521981E-14	3.209458E-16
6.050000E+03	2.422131E-14	3.098874E-16
6.060000E+03	2.328134E-14	2.994551E-16
6.070000E+03	2.241101E-14	2.898044E-16
6.080000E+03	2.161909E-14	2.810634E-16
6.090000E+03	2.091240E-14	2.733371E-16
6.100000E+03	2.029548E-14	2.667026E-16
6.110000E+03	1.977119E-14	2.612167E-16
6.120000E+03	1.934042E-14	2.569107E-16
6.130000E+03	1.900347E-14	2.538084E-16
6.140000E+03	1.875952E-14	2.519195E-16
6.150000E+03	1.860657E-14	2.512374E-16
6.160000E+03	1.854251E-14	2.517537E-16
6.170000E+03	1.856415E-14	2.534450E-16
6.180000E+03	1.866605E-14	2.562565E-16
6.190000E+03	1.884220E-14	2.601244E-16
6.200000E+03	1.908480E-14	2.649582E-16
6.210000E+03	1.938500E-14	2.706509E-16
6.220000E+03	1.973266E-14	2.770751E-16
6.230000E+03	2.011724E-14	2.840948E-16
6.240000E+03	2.052633E-14	2.915438E-16
6.250000E+03	2.094742E-14	2.992508E-16
6.260000E+03	2.136696E-14	3.070237E-16
6.270000E+03	2.177179E-14	3.146725E-16
6.280000E+03	2.214864E-14	3.220000E-16
6.290000E+03	2.248547E-14	3.288230E-16
6.300000E+03	2.277205E-14	3.349805E-16
6.310000E+03	2.300086E-14	3.403472E-16
6.320000E+03	2.316708E-14	3.448359E-16
6.330000E+03	2.326870E-14	3.483993E-16
6.340000E+03	2.330744E-14	3.510450E-16
6.350000E+03	2.328749E-14	3.528188E-16
6.360000E+03	2.321541E-14	3.538036E-16
6.370000E+03	2.309931E-14	3.541089E-16
6.380000E+03	2.294846E-14	3.538644E-16
6.390000E+03	2.277206E-14	3.532020E-16
6.400000E+03	2.257980E-14	3.522650E-16
6.410000E+03	2.238107E-14	3.511952E-16
6.420000E+03	2.218496E-14	3.501333E-16
6.430000E+03	2.199863E-14	3.491923E-16
6.440000E+03	2.182862E-14	3.484787E-16
6.450000E+03	2.167921E-14	3.480644E-16
6.460000E+03	2.155232E-14	3.479851E-16
6.470000E+03	2.144672E-14	3.482262E-16
6.480000E+03	2.135981E-14	3.487502E-16
6.490000E+03	2.128555E-14	3.494622E-16
6.500000E+03	2.121680E-14	3.502469E-16
6.510000E+03	2.114565E-14	3.509736E-16
6.520000E+03	2.106291E-14	3.514877E-16
6.530000E+03	2.096046E-14	3.516489E-16
6.540000E+03	2.083055E-14	3.513210E-16
6.550000E+03	2.066595E-14	3.503730E-16
6.560000E+03	2.046204E-14	3.487168E-16
6.570000E+03	2.021461E-14	3.462693E-16
6.580000E+03	1.992232E-14	3.429957E-16
6.590000E+03	1.958439E-14	3.388706E-16
6.600000E+03	1.920253E-14	3.339120E-16
6.610000E+03	1.877962E-14	3.281586E-16
6.620000E+03	1.831975E-14	3.216724E-16
6.630000E+03	1.782812E-14	3.145357E-16
6.640000E+03	1.731038E-14	3.068413E-16
6.650000E+03	1.677328E-14	2.987036E-16
6.660000E+03	1.622380E-14	2.902436E-16
6.670000E+03	1.566823E-14	2.815715E-16
6.680000E+03	1.511334E-14	2.728096E-16
6.690000E+03	1.456530E-14	2.640707E-16
6.700000E+03	1.402973E-14	2.554596E-16
6.710000E+03	1.351174E-14	2.470740E-16
6.720000E+03	1.301508E-14	2.389879E-16
6.730000E+03	1.254353E-14	2.312768E-16
6.740000E+03	1.209940E-14	2.239903E-16
6.750000E+03	1.168459E-14	2.171709E-16
6.760000E+03	1.129990E-14	2.108411E-16
6.770000E+03	1.094564E-14	2.050141E-16
6.780000E+03	1.062174E-14	1.996959E-16
6.790000E+03	1.032743E-14	1.948793E-16
6.800000E+03	1.006143E-14	1.905471E-16
6.810000E+03	9.822481E-15	1.866816E-16
6.820000E+03	9.608800E-15	1.832551E-16
6.830000E+03	9.418919E-15	1.802450E-16
6.840000E+03	9.250669E-15	1.776148E-16
6.850000E+03	9.102313E-15	1.753356E-16
6.860000E+03	8.971808E-15	1.733720E-16
6.870000E+03	8.857592E-15	1.716974E-16
6.880000E+03	8.757718E-15	1.702772E-16
6.890000E+03	8.670318E-15	1.690776E-16
6.900000E+03	8.594053E-15	1.680749E-16
6.910000E+03	8.527106E-15	1.672355E-16
6.920000E+03	8.468342E-15	1.665388E-16
6.930000E+03	8.416170E-15	1.659548E-16
6.940000E+03	8.369699E-15	1.654670E-16
6.950000E+03	8.327735E-15	1.650528E-16
6.960000E+03	8.289215E-15	1.646918E-16
6.970000E+03	8.253777E-15	1.643774E-16
6.980000E+03	8.220325E-15	1.640881E-16
6.990000E+03	8.188457E-15	1.638162E-16
7.000000E+03	8.157887E-15	1.635564E-16
7.010000E+03	8.127999E-15	1.632964E-16
7.020000E+03	8.098825E-15	1.630370E-16
7.030000E+03	8.069995E-15	1.627709E-16
7.040000E+03	8.041415E-15	1.624963E-16
7.050000E+03	8.012705E-15	1.622056E-16
7.060000E+03	7.983669E-15	1.618949E-16
7.070000E+03	7.954149E-15	1.615610E-16
7.080000E+03	7.924032E-15	1.612017E-16
7.090000E+03	7.893395E-15	1.608185E-16
7.100000E+03	7.862211E-15	1.604110E-16
7.110000E+03	7.830342E-15	1.599763E-16
7.120000E+03	7.797810E-15	1.595151E-16
7.130000E+03	7.764638E-15	1.590277E-16
7.140000E+03	7.731155E-15	1.585211E-16
7.150000E+03	7.697007E-15	1.579881E-16
7.160000E+03	7.662609E-15	1.574372E-16
7.170000E+03	7.628108E-15	1.568717E-16
7.180000E+03	7.593650E-15	1.562947E-16
7.190000E+03	7.559188E-15	1.557052E-16
7.200000E+03	7.524919E-15	1.551077E-16
7.210000E+03	7.490795E-15	1.545011E-16
7.220000E+03	7.456637E-15	1.538821E-16
7.230000E+03	7.422025E-15	1.532420E-16
7.240000E+03	7.386898E-15	1.525797E-16
7.250000E+03	7.350675E-15	1.518834E-16
7.260000E+03	7.313041E-15	1.511467E-16
7.270000E+03	7.273403E-15	1.503576E-16
7.280000E+03	7.231350E-15	1.495077E-16
7.290000E+03	7.186828E-15	1.485960E-16
7.300000E+03	7.139303E-15	1.476118E-16
7.310000E+03	7.088923E-15	1.465583E-16
7.320000E+03	7.035530E-15	1.454325E-16
7.330000E+03	6.979374E-15	1.442398E-16
7.340000E+03	6.920819E-15	1.429882E-16
7.350000E+03	6.860053E-15	1.416818E-16
7.360000E+03	6.797787E-15	1.403357E-16
7.370000E+03	6.734362E-15	1.389572E-16
7.380000E+03	6.670453E-15	1.375606E-16
7.390000E+03	6.606742E-15	1.361603E-16
7.400000E+03	6.543735E-15	1.347670E-16
7.410000E+03	6.482034E-15	1.333933E-16
7.420000E+03	6.422037E-15	1.320479E-16
7.430000E+03	6.364179E-15	1.307396E-16
7.440000E+03	6.308388E-15	1.294674E-16
7.450000E+03	6.254780E-15	1.282336E-16
7.460000E+03	6.203351E-15	1.270384E-16
7.470000E+03	6.153881E-15	1.258772E-16
7.480000E+03	6.106083E-15	1.247444E-16
7.490000E+03	6.059606E-15	1.236327E-16
7.500000E+03	6.014204E-15	1.225374E-16
7.510000E+03	5.969634E-15	1.214536E-16
7.520000E+03	5.925663E-15	1.203766E-16
7.530000E+03	5.881846E-15	1.192977E-16
7.540000E+03	5.838199E-15	1.182173E-16
7.550000E+03	5.794679E-15	1.171347E-16
7.560000E+03	5.751191E-15	1.160483E-16
7.570000E+03	5.707846E-15	1.149605E-16
7.580000E+03	5.664813E-15	1.138748E-16
7.590000E+03	5.622435E-15	1.127985E-16
7.600000E+03	5.580716E-15	1.117315E-16
7.610000E+03	5.540058E-15	1.106823E-16
7.620000E+03	5.500623E-15	1.096539E-16
7.630000E+03	5.462946E-15	1.086572E-16
7.640000E+03	5.427040E-15	1.076923E-16
7.650000E+03	5.393278E-15	1.067667E-16
7.660000E+03	5.361757E-15	1.058821E-16
7.670000E+03	5.332796E-15	1.050446E-16
7.680000E+03	5.306562E-15	1.042574E-16
7.690000E+03	5.283208E-15	1.035231E-16
7.700000E+03	5.262733E-15	1.028416E-16
7.710000E+03	5.245364E-15	1.022169E-16
7.720000E+03	5.231185E-15	1.016504E-16
7.730000E+03	5.220242E-15	1.011425E-16
7.740000E+03	5.212551E-15	1.006931E-16
7.750000E+03	5.207970E-15	1.002990E-16
7.760000E+03	5.206670E-15	9.996327E-17
