#wls	flux	fluxerr
1.600000E+03	9.079873E-17	1.796795E-17
1.640000E+03	8.914241E-17	1.761784E-17
1.680000E+03	8.768239E-17	1.730727E-17
1.720000E+03	8.644972E-17	1.704224E-17
1.760000E+03	8.541609E-17	1.681702E-17
1.800000E+03	8.459941E-17	1.663501E-17
1.840000E+03	8.401819E-17	1.649971E-17
1.880000E+03	8.364922E-17	1.640642E-17
1.920000E+03	8.351452E-17	1.635932E-17
1.960000E+03	8.362335E-17	1.636006E-17
2.000000E+03	8.400144E-17	1.641354E-17
2.040000E+03	8.463471E-17	1.651683E-17
2.080000E+03	8.556923E-17	1.667877E-17
2.120000E+03	8.681231E-17	1.690061E-17
2.160000E+03	8.839058E-17	1.718734E-17
2.200000E+03	9.033527E-17	1.754486E-17
2.240000E+03	9.269635E-17	1.798267E-17
2.280000E+03	9.551159E-17	1.850786E-17
2.320000E+03	9.878655E-17	1.912131E-17
2.360000E+03	1.026044E-16	1.983884E-17
2.400000E+03	1.069707E-16	2.066120E-17
2.440000E+03	1.119252E-16	2.159578E-17
2.480000E+03	1.175297E-16	2.265418E-17
2.520000E+03	1.238348E-16	2.384578E-17
2.560000E+03	1.308759E-16	2.517701E-17
2.600000E+03	1.387539E-16	2.666688E-17
2.640000E+03	1.474939E-16	2.831979E-17
2.680000E+03	1.571898E-16	3.015330E-17
2.720000E+03	1.679216E-16	3.218226E-17
2.760000E+03	1.797760E-16	3.442272E-17
2.800000E+03	1.928465E-16	3.689204E-17
2.840000E+03	2.072025E-16	3.960283E-17
2.880000E+03	2.230422E-16	4.259232E-17
2.920000E+03	2.403865E-16	4.586372E-17
2.960000E+03	2.593841E-16	4.944466E-17
3.000000E+03	2.801983E-16	5.336538E-17
3.010000E+03	2.856621E-16	5.439406E-17
3.020000E+03	2.912824E-16	5.545207E-17
3.030000E+03	2.970209E-16	5.653213E-17
3.040000E+03	3.028795E-16	5.763456E-17
3.050000E+03	3.088600E-16	5.875969E-17
3.060000E+03	3.150083E-16	5.991627E-17
3.070000E+03	3.212385E-16	6.108790E-17
3.080000E+03	3.276417E-16	6.229193E-17
3.090000E+03	3.341755E-16	6.352023E-17
3.100000E+03	3.408416E-16	6.477316E-17
3.110000E+03	3.476419E-16	6.605103E-17
3.120000E+03	3.545781E-16	6.735414E-17
3.130000E+03	3.617020E-16	6.869234E-17
3.140000E+03	3.689162E-16	7.004710E-17
3.150000E+03	3.763232E-16	7.143786E-17
3.160000E+03	3.838750E-16	7.285549E-17
3.170000E+03	3.915732E-16	7.430027E-17
3.180000E+03	3.994196E-16	7.577252E-17
3.190000E+03	4.074156E-16	7.727251E-17
3.200000E+03	4.155632E-16	7.880058E-17
3.210000E+03	4.239212E-16	8.036787E-17
3.220000E+03	4.323775E-16	8.195308E-17
3.230000E+03	4.410494E-16	8.357845E-17
3.240000E+03	4.498810E-16	8.523335E-17
3.250000E+03	4.588739E-16	8.691809E-17
3.260000E+03	4.680296E-16	8.863289E-17
3.270000E+03	4.774130E-16	9.039005E-17
3.280000E+03	4.868995E-16	9.216595E-17
3.290000E+03	4.966186E-16	9.398508E-17
3.300000E+03	5.065080E-16	9.583563E-17
3.310000E+03	5.165691E-16	9.771783E-17
3.320000E+03	5.268031E-16	9.963188E-17
3.330000E+03	5.372110E-16	1.015780E-16
3.340000E+03	5.477939E-16	1.035563E-16
3.350000E+03	5.586255E-16	1.055807E-16
3.360000E+03	5.695625E-16	1.076242E-16
3.370000E+03	5.807525E-16	1.097145E-16
3.380000E+03	5.921234E-16	1.118381E-16
3.390000E+03	6.036762E-16	1.139951E-16
3.400000E+03	6.154114E-16	1.161855E-16
3.410000E+03	6.273295E-16	1.184095E-16
3.420000E+03	6.394310E-16	1.206671E-16
3.430000E+03	6.517992E-16	1.229741E-16
3.440000E+03	6.643543E-16	1.253152E-16
3.450000E+03	6.770107E-16	1.276745E-16
3.460000E+03	6.899386E-16	1.300839E-16
3.470000E+03	7.030536E-16	1.325274E-16
3.480000E+03	7.163557E-16	1.350052E-16
3.490000E+03	7.299360E-16	1.375343E-16
3.500000E+03	7.436132E-16	1.400805E-16
3.510000E+03	7.575709E-16	1.426784E-16
3.520000E+03	7.716218E-16	1.452928E-16
3.530000E+03	7.859552E-16	1.479591E-16
3.540000E+03	8.004759E-16	1.506596E-16
3.550000E+03	8.151836E-16	1.533940E-16
3.560000E+03	8.300770E-16	1.561622E-16
3.570000E+03	8.451554E-16	1.589640E-16
3.580000E+03	8.605220E-16	1.618187E-16
3.590000E+03	8.759677E-16	1.646871E-16
3.600000E+03	8.917022E-16	1.676085E-16
3.610000E+03	9.075095E-16	1.705423E-16
3.620000E+03	9.236055E-16	1.735292E-16
3.630000E+03	9.398802E-16	1.765482E-16
3.640000E+03	9.563318E-16	1.795993E-16
3.650000E+03	9.729576E-16	1.826817E-16
3.660000E+03	9.897560E-16	1.857951E-16
3.670000E+03	1.006844E-15	1.889616E-16
3.680000E+03	1.023980E-15	1.921359E-16
3.690000E+03	1.041404E-15	1.953627E-16
3.700000E+03	1.058867E-15	1.985955E-16
3.710000E+03	1.076615E-15	2.018804E-16
3.720000E+03	1.094520E-15	2.051934E-16
3.730000E+03	1.112580E-15	2.085340E-16
3.740000E+03	1.130790E-15	2.119014E-16
3.750000E+03	1.149147E-15	2.152948E-16
3.760000E+03	1.167646E-15	2.187136E-16
3.770000E+03	1.186284E-15	2.221568E-16
3.780000E+03	1.205194E-15	2.256496E-16
3.790000E+03	1.224095E-15	2.291394E-16
3.800000E+03	1.243121E-15	2.326511E-16
3.810000E+03	1.262409E-15	2.362105E-16
3.820000E+03	1.281668E-15	2.397631E-16
3.830000E+03	1.301183E-15	2.433620E-16
3.840000E+03	1.320803E-15	2.469792E-16
3.850000E+03	1.340523E-15	2.506136E-16
3.860000E+03	1.360336E-15	2.542642E-16
3.870000E+03	1.380236E-15	2.579295E-16
3.880000E+03	1.400217E-15	2.616087E-16
3.890000E+03	1.420272E-15	2.653001E-16
3.900000E+03	1.440393E-15	2.690026E-16
3.910000E+03	1.460573E-15	2.727148E-16
3.920000E+03	1.480805E-15	2.764353E-16
3.930000E+03	1.501082E-15	2.801629E-16
3.940000E+03	1.521395E-15	2.838957E-16
3.950000E+03	1.541904E-15	2.876640E-16
3.960000E+03	1.562267E-15	2.914037E-16
3.970000E+03	1.582641E-15	2.951442E-16
3.980000E+03	1.603192E-15	2.989163E-16
3.990000E+03	1.623565E-15	3.026540E-16
4.000000E+03	1.644099E-15	3.064207E-16
4.010000E+03	1.664434E-15	3.101490E-16
4.020000E+03	1.684915E-15	3.139032E-16
4.030000E+03	1.705175E-15	3.176152E-16
4.040000E+03	1.725565E-15	3.213501E-16
4.050000E+03	1.745709E-15	3.250384E-16
4.060000E+03	1.765966E-15	3.287465E-16
4.070000E+03	1.785955E-15	3.324036E-16
4.080000E+03	1.806039E-15	3.360775E-16
4.090000E+03	1.825831E-15	3.396960E-16
4.100000E+03	1.845700E-15	3.433279E-16
4.110000E+03	1.865251E-15	3.468998E-16
4.120000E+03	1.884860E-15	3.504816E-16
4.130000E+03	1.904127E-15	3.539991E-16
4.140000E+03	1.923433E-15	3.575230E-16
4.150000E+03	1.942372E-15	3.609778E-16
4.160000E+03	1.961329E-15	3.644354E-16
4.170000E+03	1.979893E-15	3.678192E-16
4.180000E+03	1.998456E-15	3.712023E-16
4.190000E+03	2.016600E-15	3.745070E-16
4.200000E+03	2.034517E-15	3.777692E-16
4.210000E+03	2.052194E-15	3.809861E-16
4.220000E+03	2.069831E-15	3.841952E-16
4.230000E+03	2.086997E-15	3.873166E-16
4.240000E+03	2.103890E-15	3.903870E-16
4.250000E+03	2.120499E-15	3.934044E-16
4.260000E+03	2.136812E-15	3.963668E-16
4.270000E+03	2.152819E-15	3.992722E-16
4.280000E+03	2.168509E-15	4.021187E-16
4.290000E+03	2.183871E-15	4.049044E-16
4.300000E+03	2.198679E-15	4.075874E-16
4.310000E+03	2.213355E-15	4.102459E-16
4.320000E+03	2.227674E-15	4.128386E-16
4.330000E+03	2.241408E-15	4.153228E-16
4.340000E+03	2.254985E-15	4.177784E-16
4.350000E+03	2.267960E-15	4.201226E-16
4.360000E+03	2.280544E-15	4.223948E-16
4.370000E+03	2.292731E-15	4.245941E-16
4.380000E+03	2.304517E-15	4.267194E-16
4.390000E+03	2.315896E-15	4.287701E-16
4.400000E+03	2.326865E-15	4.307453E-16
4.410000E+03	2.337421E-15	4.326448E-16
4.420000E+03	2.347563E-15	4.344684E-16
4.430000E+03	2.357063E-15	4.361740E-16
4.440000E+03	2.366371E-15	4.378449E-16
4.450000E+03	2.375037E-15	4.393976E-16
4.460000E+03	2.383285E-15	4.408740E-16
4.470000E+03	2.391119E-15	4.422745E-16
4.480000E+03	2.398536E-15	4.435990E-16
4.490000E+03	2.405540E-15	4.448479E-16
4.500000E+03	2.412134E-15	4.460218E-16
4.510000E+03	2.418318E-15	4.471211E-16
4.520000E+03	2.423870E-15	4.481045E-16
4.530000E+03	2.429019E-15	4.490144E-16
4.540000E+03	2.433995E-15	4.498934E-16
4.550000E+03	2.438350E-15	4.506586E-16
4.560000E+03	2.442086E-15	4.513106E-16
4.570000E+03	2.445662E-15	4.519340E-16
4.580000E+03	2.448856E-15	4.524880E-16
4.590000E+03	2.451445E-15	4.529314E-16
4.600000E+03	2.453888E-15	4.533490E-16
4.610000E+03	2.455738E-15	4.536580E-16
4.620000E+03	2.457226E-15	4.539016E-16
4.630000E+03	2.458357E-15	4.540804E-16
4.640000E+03	2.458915E-15	4.541545E-16
4.650000E+03	2.459352E-15	4.542076E-16
4.660000E+03	2.459228E-15	4.541582E-16
4.670000E+03	2.458772E-15	4.540489E-16
4.680000E+03	2.457991E-15	4.538808E-16
4.690000E+03	2.456891E-15	4.536550E-16
4.700000E+03	2.455480E-15	4.533732E-16
4.710000E+03	2.453542E-15	4.529953E-16
4.720000E+03	2.451306E-15	4.525638E-16
4.730000E+03	2.448999E-15	4.521203E-16
4.740000E+03	2.446188E-15	4.515852E-16
4.750000E+03	2.442882E-15	4.509599E-16
4.760000E+03	2.439524E-15	4.503264E-16
4.770000E+03	2.435687E-15	4.496058E-16
4.780000E+03	2.431594E-15	4.488394E-16
4.790000E+03	2.427253E-15	4.480284E-16
4.800000E+03	2.422671E-15	4.471744E-16
4.810000E+03	2.417856E-15	4.462786E-16
4.820000E+03	2.412601E-15	4.453029E-16
4.830000E+03	2.407339E-15	4.443272E-16
4.840000E+03	2.401651E-15	4.432744E-16
4.850000E+03	2.395551E-15	4.421466E-16
4.860000E+03	2.389463E-15	4.410226E-16
4.870000E+03	2.383183E-15	4.398645E-16
4.880000E+03	2.376512E-15	4.386354E-16
4.890000E+03	2.369666E-15	4.373753E-16
4.900000E+03	2.362650E-15	4.360852E-16
4.910000E+03	2.355267E-15	4.347287E-16
4.920000E+03	2.347933E-15	4.333826E-16
4.930000E+03	2.340248E-15	4.319728E-16
4.940000E+03	2.332419E-15	4.305380E-16
4.950000E+03	2.324457E-15	4.290797E-16
4.960000E+03	2.316165E-15	4.275619E-16
4.970000E+03	2.307952E-15	4.260600E-16
4.980000E+03	2.299424E-15	4.245010E-16
4.990000E+03	2.290787E-15	4.229233E-16
5.000000E+03	2.282046E-15	4.213277E-16
5.010000E+03	2.273014E-15	4.196795E-16
5.020000E+03	2.264085E-15	4.180516E-16
5.030000E+03	2.254878E-15	4.163736E-16
5.040000E+03	2.245591E-15	4.146821E-16
5.050000E+03	2.236231E-15	4.129783E-16
5.060000E+03	2.226613E-15	4.112280E-16
5.070000E+03	2.217122E-15	4.095023E-16
5.080000E+03	2.207384E-15	4.077324E-16
5.090000E+03	2.197596E-15	4.059543E-16
5.100000E+03	2.187576E-15	4.041344E-16
5.110000E+03	2.177700E-15	4.023423E-16
5.120000E+03	2.167602E-15	4.005105E-16
5.130000E+03	2.157474E-15	3.986741E-16
5.140000E+03	2.147319E-15	3.968339E-16
5.150000E+03	2.137141E-15	3.949906E-16
5.160000E+03	2.126766E-15	3.931119E-16
5.170000E+03	2.116378E-15	3.912319E-16
5.180000E+03	2.105980E-15	3.893513E-16
5.190000E+03	2.095577E-15	3.874707E-16
5.200000E+03	2.085173E-15	3.855910E-16
5.210000E+03	2.074597E-15	3.836806E-16
5.220000E+03	2.064201E-15	3.818044E-16
5.230000E+03	2.053642E-15	3.798992E-16
5.240000E+03	2.042927E-15	3.779659E-16
5.250000E+03	2.032399E-15	3.760685E-16
5.260000E+03	2.021723E-15	3.741445E-16
5.270000E+03	2.011071E-15	3.722260E-16
5.280000E+03	2.000446E-15	3.703135E-16
5.290000E+03	1.989850E-15	3.684073E-16
5.300000E+03	1.979286E-15	3.665080E-16
5.310000E+03	1.968593E-15	3.645858E-16
5.320000E+03	1.957941E-15	3.626719E-16
5.330000E+03	1.947328E-15	3.607663E-16
5.340000E+03	1.936757E-15	3.588694E-16
5.350000E+03	1.926232E-15	3.569818E-16
5.360000E+03	1.915595E-15	3.550744E-16
5.370000E+03	1.905008E-15	3.531771E-16
5.380000E+03	1.894473E-15	3.512902E-16
5.390000E+03	1.883992E-15	3.494141E-16
5.400000E+03	1.873565E-15	3.475490E-16
5.410000E+03	1.863041E-15	3.456667E-16
5.420000E+03	1.852728E-15	3.438244E-16
5.430000E+03	1.842323E-15	3.419657E-16
5.440000E+03	1.831830E-15	3.400912E-16
5.450000E+03	1.821550E-15	3.382570E-16
5.460000E+03	1.811335E-15	3.364355E-16
5.470000E+03	1.801038E-15	3.345993E-16
5.480000E+03	1.790808E-15	3.327760E-16
5.490000E+03	1.780647E-15	3.309662E-16
5.500000E+03	1.770557E-15	3.291699E-16
5.510000E+03	1.760394E-15	3.273604E-16
5.520000E+03	1.750448E-15	3.255915E-16
5.530000E+03	1.740432E-15	3.238101E-16
5.540000E+03	1.730490E-15	3.220427E-16
5.550000E+03	1.720624E-15	3.202898E-16
5.560000E+03	1.710834E-15	3.185511E-16
5.570000E+03	1.700981E-15	3.168009E-16
5.580000E+03	1.691345E-15	3.150913E-16
5.590000E+03	1.681648E-15	3.133704E-16
5.600000E+03	1.672030E-15	3.116643E-16
5.610000E+03	1.662491E-15	3.099731E-16
5.620000E+03	1.652898E-15	3.082716E-16
5.630000E+03	1.643517E-15	3.066099E-16
5.640000E+03	1.634084E-15	3.049383E-16
5.650000E+03	1.624864E-15	3.033066E-16
5.660000E+03	1.615592E-15	3.016649E-16
5.670000E+03	1.606401E-15	3.000382E-16
5.680000E+03	1.597160E-15	2.984021E-16
5.690000E+03	1.588129E-15	2.968052E-16
5.700000E+03	1.579052E-15	2.951993E-16
5.710000E+03	1.570184E-15	2.936323E-16
5.720000E+03	1.561268E-15	2.920562E-16
5.730000E+03	1.552433E-15	2.904949E-16
5.740000E+03	1.543678E-15	2.889484E-16
5.750000E+03	1.534880E-15	2.873935E-16
5.760000E+03	1.526288E-15	2.858767E-16
5.770000E+03	1.517651E-15	2.843513E-16
5.780000E+03	1.509218E-15	2.828637E-16
5.790000E+03	1.500741E-15	2.813676E-16
5.800000E+03	1.492344E-15	2.798861E-16
5.810000E+03	1.484027E-15	2.784190E-16
5.820000E+03	1.475668E-15	2.769437E-16
5.830000E+03	1.467509E-15	2.755055E-16
5.840000E+03	1.459427E-15	2.740812E-16
5.850000E+03	1.451304E-15	2.726490E-16
5.860000E+03	1.443261E-15	2.712310E-16
5.870000E+03	1.435293E-15	2.698269E-16
5.880000E+03	1.427403E-15	2.684368E-16
5.890000E+03	1.419590E-15	2.670606E-16
5.900000E+03	1.411851E-15	2.656979E-16
5.910000E+03	1.404075E-15	2.643276E-16
5.920000E+03	1.396487E-15	2.629922E-16
5.930000E+03	1.388860E-15	2.616487E-16
5.940000E+03	1.381309E-15	2.603190E-16
5.950000E+03	1.373830E-15	2.590023E-16
5.960000E+03	1.366425E-15	2.576990E-16
5.970000E+03	1.359092E-15	2.564088E-16
5.980000E+03	1.351832E-15	2.551315E-16
5.990000E+03	1.344643E-15	2.538670E-16
6.000000E+03	1.337415E-15	2.525946E-16
6.010000E+03	1.330367E-15	2.513555E-16
6.020000E+03	1.323280E-15	2.501083E-16
6.030000E+03	1.316370E-15	2.488940E-16
6.040000E+03	1.309423E-15	2.476719E-16
6.050000E+03	1.302543E-15	2.464618E-16
6.060000E+03	1.295730E-15	2.452638E-16
6.070000E+03	1.288984E-15	2.440779E-16
6.080000E+03	1.282200E-15	2.428840E-16
6.090000E+03	1.275588E-15	2.417218E-16
6.100000E+03	1.269040E-15	2.405712E-16
6.110000E+03	1.262453E-15	2.394124E-16
6.120000E+03	1.256033E-15	2.382847E-16
6.130000E+03	1.249574E-15	2.371488E-16
6.140000E+03	1.243179E-15	2.360243E-16
6.150000E+03	1.236845E-15	2.349108E-16
6.160000E+03	1.230575E-15	2.338085E-16
6.170000E+03	1.224364E-15	2.327168E-16
6.180000E+03	1.218215E-15	2.316361E-16
6.190000E+03	1.212125E-15	2.305659E-16
6.200000E+03	1.206095E-15	2.295063E-16
6.210000E+03	1.200024E-15	2.284382E-16
6.220000E+03	1.194110E-15	2.273992E-16
6.230000E+03	1.188156E-15	2.263519E-16
6.240000E+03	1.182357E-15	2.253334E-16
6.250000E+03	1.176516E-15	2.243061E-16
6.260000E+03	1.170732E-15	2.232890E-16
6.270000E+03	1.165098E-15	2.222997E-16
6.280000E+03	1.159424E-15	2.213021E-16
6.290000E+03	1.153804E-15	2.203138E-16
6.300000E+03	1.148237E-15	2.193350E-16
6.310000E+03	1.142723E-15	2.183656E-16
6.320000E+03	1.137261E-15	2.174054E-16
6.330000E+03	1.131850E-15	2.164542E-16
6.340000E+03	1.126400E-15	2.154946E-16
6.350000E+03	1.121091E-15	2.145613E-16
6.360000E+03	1.115833E-15	2.136371E-16
6.370000E+03	1.110532E-15	2.127039E-16
6.380000E+03	1.105372E-15	2.117968E-16
6.390000E+03	1.100168E-15	2.108808E-16
6.400000E+03	1.095104E-15	2.099906E-16
6.410000E+03	1.089996E-15	2.090914E-16
6.420000E+03	1.084936E-15	2.082005E-16
6.430000E+03	1.079922E-15	2.073178E-16
6.440000E+03	1.075043E-15	2.064602E-16
6.450000E+03	1.070120E-15	2.055934E-16
6.460000E+03	1.065242E-15	2.047344E-16
6.470000E+03	1.060408E-15	2.038832E-16
6.480000E+03	1.055618E-15	2.030398E-16
6.490000E+03	1.050870E-15	2.022038E-16
6.500000E+03	1.046166E-15	2.013753E-16
6.510000E+03	1.041418E-15	2.005376E-16
6.520000E+03	1.036797E-15	1.997238E-16
6.530000E+03	1.032218E-15	1.989172E-16
6.540000E+03	1.027679E-15	1.981177E-16
6.550000E+03	1.023096E-15	1.973089E-16
6.560000E+03	1.018638E-15	1.965233E-16
6.570000E+03	1.014218E-15	1.957447E-16
6.580000E+03	1.009754E-15	1.949566E-16
6.590000E+03	1.005412E-15	1.941913E-16
6.600000E+03	1.001024E-15	1.934166E-16
6.610000E+03	9.966748E-16	1.926485E-16
6.620000E+03	9.924450E-16	1.919029E-16
6.630000E+03	9.881697E-16	1.911477E-16
6.640000E+03	9.839308E-16	1.903989E-16
6.650000E+03	9.798096E-16	1.896721E-16
6.660000E+03	9.756422E-16	1.889357E-16
6.670000E+03	9.715103E-16	1.882055E-16
6.680000E+03	9.674132E-16	1.874813E-16
6.690000E+03	9.633505E-16	1.867631E-16
6.700000E+03	9.593219E-16	1.860507E-16
6.710000E+03	9.553269E-16	1.853442E-16
6.720000E+03	9.513651E-16	1.846435E-16
6.730000E+03	9.474363E-16	1.839485E-16
6.740000E+03	9.435398E-16	1.832591E-16
6.750000E+03	9.396756E-16	1.825752E-16
6.760000E+03	9.358430E-16	1.818969E-16
6.770000E+03	9.320418E-16	1.812240E-16
6.780000E+03	9.282717E-16	1.805564E-16
6.790000E+03	9.245321E-16	1.798941E-16
6.800000E+03	9.207458E-16	1.792221E-16
6.810000E+03	9.170669E-16	1.785703E-16
6.820000E+03	9.134176E-16	1.779236E-16
6.830000E+03	9.097212E-16	1.772671E-16
6.840000E+03	9.061305E-16	1.766306E-16
6.850000E+03	9.024926E-16	1.759842E-16
6.860000E+03	8.989591E-16	1.753575E-16
6.870000E+03	8.953784E-16	1.747209E-16
6.880000E+03	8.919009E-16	1.741039E-16
6.890000E+03	8.883761E-16	1.734770E-16
6.900000E+03	8.849533E-16	1.728694E-16
6.910000E+03	8.814833E-16	1.722519E-16
6.920000E+03	8.780402E-16	1.716391E-16
6.930000E+03	8.746977E-16	1.710453E-16
6.940000E+03	8.713077E-16	1.704416E-16
6.950000E+03	8.679438E-16	1.698424E-16
6.960000E+03	8.646060E-16	1.692477E-16
6.970000E+03	8.613666E-16	1.686717E-16
6.980000E+03	8.580796E-16	1.680857E-16
6.990000E+03	8.548177E-16	1.675040E-16
7.000000E+03	8.515807E-16	1.669267E-16
7.010000E+03	8.483685E-16	1.663536E-16
7.020000E+03	8.451805E-16	1.657846E-16
7.030000E+03	8.420169E-16	1.652199E-16
7.040000E+03	8.388771E-16	1.646593E-16
7.050000E+03	8.357611E-16	1.641027E-16
7.060000E+03	8.325978E-16	1.635362E-16
7.070000E+03	8.295287E-16	1.629878E-16
7.080000E+03	8.264826E-16	1.624432E-16
7.090000E+03	8.234595E-16	1.619026E-16
7.100000E+03	8.203890E-16	1.613521E-16
7.110000E+03	8.174110E-16	1.608193E-16
7.120000E+03	8.144552E-16	1.602903E-16
7.130000E+03	8.114522E-16	1.597514E-16
7.140000E+03	8.085405E-16	1.592299E-16
7.150000E+03	8.055815E-16	1.586986E-16
7.160000E+03	8.027130E-16	1.581846E-16
7.170000E+03	7.997973E-16	1.576607E-16
7.180000E+03	7.969029E-16	1.571405E-16
7.190000E+03	7.940980E-16	1.566374E-16
7.200000E+03	7.912458E-16	1.561245E-16
7.210000E+03	7.884147E-16	1.556152E-16
7.220000E+03	7.856041E-16	1.551094E-16
7.230000E+03	7.828142E-16	1.546072E-16
7.240000E+03	7.800446E-16	1.541085E-16
7.250000E+03	7.772954E-16	1.536132E-16
7.260000E+03	7.745661E-16	1.531215E-16
7.270000E+03	7.718567E-16	1.526331E-16
7.280000E+03	7.691671E-16	1.521482E-16
7.290000E+03	7.664971E-16	1.516666E-16
7.300000E+03	7.638464E-16	1.511883E-16
7.310000E+03	7.611493E-16	1.507004E-16
7.320000E+03	7.585372E-16	1.502288E-16
7.330000E+03	7.559442E-16	1.497605E-16
7.340000E+03	7.533048E-16	1.492826E-16
7.350000E+03	7.507495E-16	1.488208E-16
7.360000E+03	7.481478E-16	1.483493E-16
7.370000E+03	7.455650E-16	1.478812E-16
7.380000E+03	7.430652E-16	1.474290E-16
7.390000E+03	7.405194E-16	1.469672E-16
7.400000E+03	7.379918E-16	1.465085E-16
7.410000E+03	7.354825E-16	1.460531E-16
7.420000E+03	7.329913E-16	1.456007E-16
7.430000E+03	7.305181E-16	1.451515E-16
7.440000E+03	7.280627E-16	1.447054E-16
7.450000E+03	7.256251E-16	1.442623E-16
7.460000E+03	7.232050E-16	1.438223E-16
7.470000E+03	7.208024E-16	1.433854E-16
7.480000E+03	7.183544E-16	1.429389E-16
7.490000E+03	7.159866E-16	1.425080E-16
7.500000E+03	7.135734E-16	1.420676E-16
7.510000E+03	7.112399E-16	1.416426E-16
7.520000E+03	7.088610E-16	1.412082E-16
7.530000E+03	7.065614E-16	1.407891E-16
7.540000E+03	7.042165E-16	1.403606E-16
7.550000E+03	7.018884E-16	1.399350E-16
7.560000E+03	6.995772E-16	1.395124E-16
7.570000E+03	6.972826E-16	1.390926E-16
7.580000E+03	6.950046E-16	1.386758E-16
7.590000E+03	6.927429E-16	1.382618E-16
7.600000E+03	6.904976E-16	1.378507E-16
7.610000E+03	6.882687E-16	1.374424E-16
7.620000E+03	6.859950E-16	1.370248E-16
7.630000E+03	6.837983E-16	1.366222E-16
7.640000E+03	6.815570E-16	1.362103E-16
7.650000E+03	6.793922E-16	1.358132E-16
7.660000E+03	6.771829E-16	1.354069E-16
7.670000E+03	6.749896E-16	1.350034E-16
7.680000E+03	6.728720E-16	1.346147E-16
7.690000E+03	6.707101E-16	1.342167E-16
7.700000E+03	6.685637E-16	1.338214E-16
7.710000E+03	6.664330E-16	1.334289E-16
7.720000E+03	6.643176E-16	1.330391E-16
7.730000E+03	6.621583E-16	1.326401E-16
7.740000E+03	6.600737E-16	1.322558E-16
7.750000E+03	6.580042E-16	1.318740E-16
7.760000E+03	6.558909E-16	1.314832E-16
