#wls	flux	fluxerr
1.600000E+03	1.214809E-14	3.505310E-15
1.640000E+03	1.008199E-14	2.740763E-15
1.680000E+03	8.306532E-15	2.121980E-15
1.720000E+03	6.799108E-15	1.628305E-15
1.760000E+03	5.535051E-15	1.240168E-15
1.800000E+03	4.488250E-15	9.394473E-16
1.840000E+03	3.630570E-15	7.094942E-16
1.880000E+03	2.936480E-15	5.361300E-16
1.920000E+03	2.380774E-15	4.070553E-16
1.960000E+03	1.940505E-15	3.120769E-16
2.000000E+03	1.595186E-15	2.429189E-16
2.040000E+03	1.327225E-15	1.930484E-16
2.080000E+03	1.121573E-15	1.573806E-16
2.120000E+03	9.657460E-16	1.320616E-16
2.160000E+03	8.499004E-16	1.142791E-16
2.200000E+03	7.660882E-16	1.019849E-16
2.240000E+03	7.082469E-16	9.374753E-17
2.280000E+03	6.718374E-16	8.858157E-17
2.320000E+03	6.534672E-16	8.580754E-17
2.360000E+03	6.505781E-16	8.494934E-17
2.400000E+03	6.610600E-16	8.564914E-17
2.440000E+03	6.829228E-16	8.761117E-17
2.480000E+03	7.141057E-16	9.057809E-17
2.520000E+03	7.520745E-16	9.428461E-17
2.560000E+03	7.938461E-16	9.845852E-17
2.600000E+03	8.358674E-16	1.027840E-16
2.640000E+03	8.743494E-16	1.069009E-16
2.680000E+03	9.055625E-16	1.103903E-16
2.720000E+03	9.263847E-16	1.128098E-16
2.760000E+03	9.347623E-16	1.137537E-16
2.800000E+03	9.299814E-16	1.129282E-16
2.840000E+03	9.127534E-16	1.102213E-16
2.880000E+03	8.850657E-16	1.057345E-16
2.920000E+03	8.497033E-16	9.974863E-17
2.960000E+03	8.099725E-16	9.268373E-17
3.000000E+03	7.691218E-16	8.500175E-17
3.010000E+03	7.591191E-16	8.304094E-17
3.020000E+03	7.492704E-16	8.107513E-17
3.030000E+03	7.396170E-16	7.911041E-17
3.040000E+03	7.302310E-16	7.715600E-17
3.050000E+03	7.211325E-16	7.521530E-17
3.060000E+03	7.123571E-16	7.329322E-17
3.070000E+03	7.039544E-16	7.139582E-17
3.080000E+03	6.959415E-16	6.952563E-17
3.090000E+03	6.883506E-16	6.768646E-17
3.100000E+03	6.812406E-16	6.588447E-17
3.110000E+03	6.746123E-16	6.411983E-17
3.120000E+03	6.685085E-16	6.239654E-17
3.130000E+03	6.629438E-16	6.071566E-17
3.140000E+03	6.579856E-16	5.908279E-17
3.150000E+03	6.536213E-16	5.749598E-17
3.160000E+03	6.498915E-16	5.595787E-17
3.170000E+03	6.468358E-16	5.447066E-17
3.180000E+03	6.444809E-16	5.303520E-17
3.190000E+03	6.428303E-16	5.165026E-17
3.200000E+03	6.419479E-16	5.031934E-17
3.210000E+03	6.418380E-16	4.904098E-17
3.220000E+03	6.425410E-16	4.781647E-17
3.230000E+03	6.440746E-16	4.664528E-17
3.240000E+03	6.464792E-16	4.552855E-17
3.250000E+03	6.497838E-16	4.446661E-17
3.260000E+03	6.540170E-16	4.345981E-17
3.270000E+03	6.591950E-16	4.250788E-17
3.280000E+03	6.653546E-16	4.161213E-17
3.290000E+03	6.725181E-16	4.077321E-17
3.300000E+03	6.806923E-16	3.999117E-17
3.310000E+03	6.898994E-16	3.926740E-17
3.320000E+03	7.001305E-16	3.860192E-17
3.330000E+03	7.113867E-16	3.799575E-17
3.340000E+03	7.236317E-16	3.744836E-17
3.350000E+03	7.368216E-16	3.695931E-17
3.360000E+03	7.508909E-16	3.652751E-17
3.370000E+03	7.657495E-16	3.615117E-17
3.380000E+03	7.812808E-16	3.582765E-17
3.390000E+03	7.973287E-16	3.555294E-17
3.400000E+03	8.137321E-16	3.532321E-17
3.410000E+03	8.302680E-16	3.513223E-17
3.420000E+03	8.467365E-16	3.497498E-17
3.430000E+03	8.628720E-16	3.484377E-17
3.440000E+03	8.784209E-16	3.473140E-17
3.450000E+03	8.931282E-16	3.463039E-17
3.460000E+03	9.067367E-16	3.453288E-17
3.470000E+03	9.190369E-16	3.443234E-17
3.480000E+03	9.298327E-16	3.432217E-17
3.490000E+03	9.389792E-16	3.419704E-17
3.500000E+03	9.464083E-16	3.405372E-17
3.510000E+03	9.521141E-16	3.389054E-17
3.520000E+03	9.561961E-16	3.370887E-17
3.530000E+03	9.587899E-16	3.351074E-17
3.540000E+03	9.601614E-16	3.330221E-17
3.550000E+03	9.606292E-16	3.309068E-17
3.560000E+03	9.605903E-16	3.288594E-17
3.570000E+03	9.604742E-16	3.269863E-17
3.580000E+03	9.607645E-16	3.254111E-17
3.590000E+03	9.619967E-16	3.242746E-17
3.600000E+03	9.646793E-16	3.237085E-17
3.610000E+03	9.693744E-16	3.238631E-17
3.620000E+03	9.766238E-16	3.248831E-17
3.630000E+03	9.869569E-16	3.269097E-17
3.640000E+03	1.000911E-15	3.300883E-17
3.650000E+03	1.019034E-15	3.345679E-17
3.660000E+03	1.041849E-15	3.404906E-17
3.670000E+03	1.069916E-15	3.480102E-17
3.680000E+03	1.103755E-15	3.572665E-17
3.690000E+03	1.143918E-15	3.684102E-17
3.700000E+03	1.190952E-15	3.815874E-17
3.710000E+03	1.245407E-15	3.969448E-17
3.720000E+03	1.307793E-15	4.146147E-17
3.730000E+03	1.378619E-15	4.347266E-17
3.740000E+03	1.458331E-15	4.573900E-17
3.750000E+03	1.547322E-15	4.826961E-17
3.760000E+03	1.645872E-15	5.107013E-17
3.770000E+03	1.754154E-15	5.414287E-17
3.780000E+03	1.872168E-15	5.748495E-17
3.790000E+03	1.999726E-15	6.108797E-17
3.800000E+03	2.136489E-15	6.493920E-17
3.810000E+03	2.281790E-15	6.901631E-17
3.820000E+03	2.434800E-15	7.329263E-17
3.830000E+03	2.594458E-15	7.773511E-17
3.840000E+03	2.759409E-15	8.230252E-17
3.850000E+03	2.928151E-15	8.695003E-17
3.860000E+03	3.099065E-15	9.163005E-17
3.870000E+03	3.270417E-15	9.629234E-17
3.880000E+03	3.440446E-15	1.008865E-16
3.890000E+03	3.607401E-15	1.053631E-16
3.900000E+03	3.769702E-15	1.096780E-16
3.910000E+03	3.925906E-15	1.137911E-16
3.920000E+03	4.074779E-15	1.176686E-16
3.930000E+03	4.215329E-15	1.212836E-16
3.940000E+03	4.346815E-15	1.246162E-16
3.950000E+03	4.468783E-15	1.276547E-16
3.960000E+03	4.580964E-15	1.303927E-16
3.970000E+03	4.683228E-15	1.328279E-16
3.980000E+03	4.775710E-15	1.349657E-16
3.990000E+03	4.858502E-15	1.368109E-16
4.000000E+03	4.931812E-15	1.383722E-16
4.010000E+03	4.995784E-15	1.396572E-16
4.020000E+03	5.050458E-15	1.406710E-16
4.030000E+03	5.095921E-15	1.414209E-16
4.040000E+03	5.132022E-15	1.419079E-16
4.050000E+03	5.158605E-15	1.421330E-16
4.060000E+03	5.175390E-15	1.420940E-16
4.070000E+03	5.182052E-15	1.417870E-16
4.080000E+03	5.178268E-15	1.412077E-16
4.090000E+03	5.163805E-15	1.403537E-16
4.100000E+03	5.138442E-15	1.392216E-16
4.110000E+03	5.102148E-15	1.378125E-16
4.120000E+03	5.055169E-15	1.361337E-16
4.130000E+03	4.997788E-15	1.341928E-16
4.140000E+03	4.930657E-15	1.320070E-16
4.150000E+03	4.854623E-15	1.295983E-16
4.160000E+03	4.770767E-15	1.269953E-16
4.170000E+03	4.680386E-15	1.242328E-16
4.180000E+03	4.584965E-15	1.213511E-16
4.190000E+03	4.486133E-15	1.183950E-16
4.200000E+03	4.385623E-15	1.154124E-16
4.210000E+03	4.285221E-15	1.124524E-16
4.220000E+03	4.186705E-15	1.095635E-16
4.230000E+03	4.091766E-15	1.067907E-16
4.240000E+03	4.002025E-15	1.041761E-16
4.250000E+03	3.918991E-15	1.017570E-16
4.260000E+03	3.843951E-15	9.956318E-17
4.270000E+03	3.777917E-15	9.761601E-17
4.280000E+03	3.721782E-15	9.593234E-17
4.290000E+03	3.676173E-15	9.452145E-17
4.300000E+03	3.641487E-15	9.338652E-17
4.310000E+03	3.617903E-15	9.252544E-17
4.320000E+03	3.605352E-15	9.193086E-17
4.330000E+03	3.603664E-15	9.159435E-17
4.340000E+03	3.612352E-15	9.150145E-17
4.350000E+03	3.630880E-15	9.163887E-17
4.360000E+03	3.658479E-15	9.198998E-17
4.370000E+03	3.694255E-15	9.253746E-17
4.380000E+03	3.737130E-15	9.326153E-17
4.390000E+03	3.785919E-15	9.414125E-17
4.400000E+03	3.839278E-15	9.515225E-17
4.410000E+03	3.895815E-15	9.626856E-17
4.420000E+03	3.953976E-15	9.745796E-17
4.430000E+03	4.012122E-15	9.868276E-17
4.440000E+03	4.068656E-15	9.990302E-17
4.450000E+03	4.121929E-15	1.010752E-16
4.460000E+03	4.170406E-15	1.021571E-16
4.470000E+03	4.212721E-15	1.031096E-16
4.480000E+03	4.247580E-15	1.038953E-16
4.490000E+03	4.274033E-15	1.044852E-16
4.500000E+03	4.291356E-15	1.048571E-16
4.510000E+03	4.299073E-15	1.049953E-16
4.520000E+03	4.297033E-15	1.048941E-16
4.530000E+03	4.285366E-15	1.045555E-16
4.540000E+03	4.264451E-15	1.039890E-16
4.550000E+03	4.234881E-15	1.032103E-16
4.560000E+03	4.197381E-15	1.022388E-16
4.570000E+03	4.152804E-15	1.010976E-16
4.580000E+03	4.102203E-15	9.981416E-17
4.590000E+03	4.046514E-15	9.841315E-17
4.600000E+03	3.986724E-15	9.692000E-17
4.610000E+03	3.923874E-15	9.536111E-17
4.620000E+03	3.858920E-15	9.376058E-17
4.630000E+03	3.792644E-15	9.213807E-17
4.640000E+03	3.725971E-15	9.051664E-17
4.650000E+03	3.659477E-15	8.891082E-17
4.660000E+03	3.593860E-15	8.733781E-17
4.670000E+03	3.529604E-15	8.580927E-17
4.680000E+03	3.467086E-15	8.433375E-17
4.690000E+03	3.406580E-15	8.291660E-17
4.700000E+03	3.348259E-15	8.156002E-17
4.710000E+03	3.292274E-15	8.026491E-17
4.720000E+03	3.238602E-15	7.902735E-17
4.730000E+03	3.187200E-15	7.784256E-17
4.740000E+03	3.138024E-15	7.670563E-17
4.750000E+03	3.090929E-15	7.560934E-17
4.760000E+03	3.045947E-15	7.455119E-17
4.770000E+03	3.002971E-15	7.352585E-17
4.780000E+03	2.962113E-15	7.253411E-17
4.790000E+03	2.923509E-15	7.157813E-17
4.800000E+03	2.887327E-15	7.066181E-17
4.810000E+03	2.853915E-15	6.979438E-17
4.820000E+03	2.823705E-15	6.898793E-17
4.830000E+03	2.797102E-15	6.825476E-17
4.840000E+03	2.774642E-15	6.761084E-17
4.850000E+03	2.756838E-15	6.707194E-17
4.860000E+03	2.744155E-15	6.665267E-17
4.870000E+03	2.737035E-15	6.636681E-17
4.880000E+03	2.735872E-15	6.622645E-17
4.890000E+03	2.740908E-15	6.623944E-17
4.900000E+03	2.752331E-15	6.641172E-17
4.910000E+03	2.770132E-15	6.674387E-17
4.920000E+03	2.794271E-15	6.723528E-17
4.930000E+03	2.824575E-15	6.788165E-17
4.940000E+03	2.860739E-15	6.867527E-17
4.950000E+03	2.902432E-15	6.960742E-17
4.960000E+03	2.949182E-15	7.066585E-17
4.970000E+03	3.000510E-15	7.183792E-17
4.980000E+03	3.055817E-15	7.310792E-17
4.990000E+03	3.114476E-15	7.445948E-17
5.000000E+03	3.175779E-15	7.587423E-17
5.010000E+03	3.239065E-15	7.733521E-17
5.020000E+03	3.303498E-15	7.882158E-17
5.030000E+03	3.368264E-15	8.031361E-17
5.040000E+03	3.432550E-15	8.179219E-17
5.050000E+03	3.495446E-15	8.323660E-17
5.060000E+03	3.556067E-15	8.462725E-17
5.070000E+03	3.613530E-15	8.594509E-17
5.080000E+03	3.666978E-15	8.717187E-17
5.090000E+03	3.715566E-15	8.828953E-17
5.100000E+03	3.758557E-15	8.928224E-17
5.110000E+03	3.795349E-15	9.013674E-17
5.120000E+03	3.825336E-15	9.083896E-17
5.130000E+03	3.848195E-15	9.138062E-17
5.140000E+03	3.863544E-15	9.175115E-17
5.150000E+03	3.871333E-15	9.194711E-17
5.160000E+03	3.871535E-15	9.196486E-17
5.170000E+03	3.864292E-15	9.180445E-17
5.180000E+03	3.849878E-15	9.146879E-17
5.190000E+03	3.828648E-15	9.096277E-17
5.200000E+03	3.801110E-15	9.029518E-17
5.210000E+03	3.767838E-15	8.947675E-17
5.220000E+03	3.729610E-15	8.852366E-17
5.230000E+03	3.687083E-15	8.744981E-17
5.240000E+03	3.641111E-15	8.627462E-17
5.250000E+03	3.592525E-15	8.501781E-17
5.260000E+03	3.542138E-15	8.369954E-17
5.270000E+03	3.490642E-15	8.233791E-17
5.280000E+03	3.438759E-15	8.095233E-17
5.290000E+03	3.387037E-15	7.955851E-17
5.300000E+03	3.335949E-15	7.817039E-17
5.310000E+03	3.285812E-15	7.679832E-17
5.320000E+03	3.236905E-15	7.545143E-17
5.330000E+03	3.189310E-15	7.413429E-17
5.340000E+03	3.143109E-15	7.285147E-17
5.350000E+03	3.098307E-15	7.160617E-17
5.360000E+03	3.054958E-15	7.040339E-17
5.370000E+03	3.013001E-15	6.924648E-17
5.380000E+03	2.972526E-15	6.814354E-17
5.390000E+03	2.933608E-15	6.710353E-17
5.400000E+03	2.896366E-15	6.613770E-17
5.410000E+03	2.860906E-15	6.525794E-17
5.420000E+03	2.827428E-15	6.447869E-17
5.430000E+03	2.796148E-15	6.381439E-17
5.440000E+03	2.767169E-15	6.327526E-17
5.450000E+03	2.740674E-15	6.286907E-17
5.460000E+03	2.716702E-15	6.259209E-17
5.470000E+03	2.695266E-15	6.243325E-17
5.480000E+03	2.676441E-15	6.238039E-17
5.490000E+03	2.660115E-15	6.241679E-17
5.500000E+03	2.646207E-15	6.252694E-17
5.510000E+03	2.634502E-15	6.269313E-17
5.520000E+03	2.624796E-15	6.289869E-17
5.530000E+03	2.616692E-15	6.312312E-17
5.540000E+03	2.609823E-15	6.334745E-17
5.550000E+03	2.603734E-15	6.355164E-17
5.560000E+03	2.598031E-15	6.371861E-17
5.570000E+03	2.592209E-15	6.383064E-17
5.580000E+03	2.585830E-15	6.387421E-17
5.590000E+03	2.578459E-15	6.383872E-17
5.600000E+03	2.569756E-15	6.371892E-17
5.610000E+03	2.559361E-15	6.351166E-17
5.620000E+03	2.547035E-15	6.321885E-17
5.630000E+03	2.532612E-15	6.284559E-17
5.640000E+03	2.515980E-15	6.239869E-17
5.650000E+03	2.497135E-15	6.188717E-17
5.660000E+03	2.476089E-15	6.131953E-17
5.670000E+03	2.452979E-15	6.070569E-17
5.680000E+03	2.427991E-15	6.005523E-17
5.690000E+03	2.401330E-15	5.937649E-17
5.700000E+03	2.373230E-15	5.867694E-17
5.710000E+03	2.343935E-15	5.796318E-17
5.720000E+03	2.313737E-15	5.724198E-17
5.730000E+03	2.282809E-15	5.651659E-17
5.740000E+03	2.251388E-15	5.579153E-17
5.750000E+03	2.219612E-15	5.506880E-17
5.760000E+03	2.187538E-15	5.434839E-17
5.770000E+03	2.155199E-15	5.362987E-17
5.780000E+03	2.122555E-15	5.291105E-17
5.790000E+03	2.089449E-15	5.218677E-17
5.800000E+03	2.055683E-15	5.145061E-17
5.810000E+03	2.021050E-15	5.069567E-17
5.820000E+03	1.985226E-15	4.991149E-17
5.830000E+03	1.947943E-15	4.908863E-17
5.840000E+03	1.908933E-15	4.821709E-17
5.850000E+03	1.867976E-15	4.728787E-17
5.860000E+03	1.824947E-15	4.629438E-17
5.870000E+03	1.779756E-15	4.523133E-17
5.880000E+03	1.732511E-15	4.409913E-17
5.890000E+03	1.683380E-15	4.290079E-17
5.900000E+03	1.632677E-15	4.164417E-17
5.910000E+03	1.580828E-15	4.034122E-17
5.920000E+03	1.528356E-15	3.900743E-17
5.930000E+03	1.475878E-15	3.766134E-17
5.940000E+03	1.424002E-15	3.632176E-17
5.950000E+03	1.373390E-15	3.500886E-17
5.960000E+03	1.324705E-15	3.374260E-17
5.970000E+03	1.278555E-15	3.254105E-17
5.980000E+03	1.235458E-15	3.141946E-17
5.990000E+03	1.195918E-15	3.039210E-17
6.000000E+03	1.160285E-15	2.946888E-17
6.010000E+03	1.128912E-15	2.865926E-17
6.020000E+03	1.101992E-15	2.796839E-17
6.030000E+03	1.079692E-15	2.740046E-17
6.040000E+03	1.062136E-15	2.695839E-17
6.050000E+03	1.049377E-15	2.664322E-17
6.060000E+03	1.041449E-15	2.645542E-17
6.070000E+03	1.038342E-15	2.639428E-17
6.080000E+03	1.040081E-15	2.645997E-17
6.090000E+03	1.046620E-15	2.665089E-17
6.100000E+03	1.057973E-15	2.696692E-17
6.110000E+03	1.074105E-15	2.740687E-17
6.120000E+03	1.094974E-15	2.796938E-17
6.130000E+03	1.120529E-15	2.865310E-17
6.140000E+03	1.150707E-15	2.945657E-17
6.150000E+03	1.185377E-15	3.037682E-17
6.160000E+03	1.224370E-15	3.141017E-17
6.170000E+03	1.267483E-15	3.255228E-17
6.180000E+03	1.314377E-15	3.379541E-17
6.190000E+03	1.364677E-15	3.513090E-17
6.200000E+03	1.417921E-15	3.654769E-17
6.210000E+03	1.473566E-15	3.803227E-17
6.220000E+03	1.530951E-15	3.956763E-17
6.230000E+03	1.589367E-15	4.113491E-17
6.240000E+03	1.648079E-15	4.271386E-17
6.250000E+03	1.706284E-15	4.428187E-17
6.260000E+03	1.763222E-15	4.581697E-17
6.270000E+03	1.818139E-15	4.729699E-17
6.280000E+03	1.870354E-15	4.870173E-17
6.290000E+03	1.919240E-15	5.001258E-17
6.300000E+03	1.964258E-15	5.121378E-17
6.310000E+03	2.005004E-15	5.229369E-17
6.320000E+03	2.041185E-15	5.324447E-17
6.330000E+03	2.072574E-15	5.406060E-17
6.340000E+03	2.099107E-15	5.474163E-17
6.350000E+03	2.120832E-15	5.529051E-17
6.360000E+03	2.137830E-15	5.571159E-17
6.370000E+03	2.150359E-15	5.601406E-17
6.380000E+03	2.158683E-15	5.620754E-17
6.390000E+03	2.163127E-15	5.630319E-17
6.400000E+03	2.164051E-15	5.631322E-17
6.410000E+03	2.161908E-15	5.625208E-17
6.420000E+03	2.157071E-15	5.613193E-17
6.430000E+03	2.150005E-15	5.596709E-17
6.440000E+03	2.141098E-15	5.576940E-17
6.450000E+03	2.130708E-15	5.554941E-17
6.460000E+03	2.119187E-15	5.531657E-17
6.470000E+03	2.106792E-15	5.507688E-17
6.480000E+03	2.093752E-15	5.483440E-17
6.490000E+03	2.080147E-15	5.458872E-17
6.500000E+03	2.066139E-15	5.434141E-17
6.510000E+03	2.051790E-15	5.409155E-17
6.520000E+03	2.037102E-15	5.383692E-17
6.530000E+03	2.022117E-15	5.357677E-17
6.540000E+03	2.006834E-15	5.330953E-17
6.550000E+03	1.991241E-15	5.303378E-17
6.560000E+03	1.975325E-15	5.274830E-17
6.570000E+03	1.959105E-15	5.245301E-17
6.580000E+03	1.942542E-15	5.214639E-17
6.590000E+03	1.925635E-15	5.182809E-17
6.600000E+03	1.908423E-15	5.149890E-17
6.610000E+03	1.890919E-15	5.115905E-17
6.620000E+03	1.873115E-15	5.080816E-17
6.630000E+03	1.855070E-15	5.044779E-17
6.640000E+03	1.836788E-15	5.007797E-17
6.650000E+03	1.818366E-15	4.970145E-17
6.660000E+03	1.799781E-15	4.931773E-17
6.670000E+03	1.781075E-15	4.892813E-17
6.680000E+03	1.762320E-15	4.853488E-17
6.690000E+03	1.743558E-15	4.813946E-17
6.700000E+03	1.724803E-15	4.774258E-17
6.710000E+03	1.706100E-15	4.734581E-17
6.720000E+03	1.687525E-15	4.695157E-17
6.730000E+03	1.669097E-15	4.656060E-17
6.740000E+03	1.650893E-15	4.617524E-17
6.750000E+03	1.632903E-15	4.579526E-17
6.760000E+03	1.615233E-15	4.542360E-17
6.770000E+03	1.597871E-15	4.505970E-17
6.780000E+03	1.580917E-15	4.470607E-17
6.790000E+03	1.564353E-15	4.436165E-17
6.800000E+03	1.548243E-15	4.402757E-17
6.810000E+03	1.532618E-15	4.370382E-17
6.820000E+03	1.517476E-15	4.338933E-17
6.830000E+03	1.502867E-15	4.308442E-17
6.840000E+03	1.488779E-15	4.278766E-17
6.850000E+03	1.475254E-15	4.249917E-17
6.860000E+03	1.462245E-15	4.221669E-17
6.870000E+03	1.449808E-15	4.194126E-17
6.880000E+03	1.437916E-15	4.167168E-17
6.890000E+03	1.426562E-15	4.140775E-17
6.900000E+03	1.415706E-15	4.114865E-17
6.910000E+03	1.405388E-15	4.089605E-17
6.920000E+03	1.395504E-15	4.064782E-17
6.930000E+03	1.386112E-15	4.040653E-17
6.940000E+03	1.377129E-15	4.017089E-17
6.950000E+03	1.368527E-15	3.994113E-17
6.960000E+03	1.360301E-15	3.971820E-17
6.970000E+03	1.352394E-15	3.950148E-17
6.980000E+03	1.344776E-15	3.929105E-17
6.990000E+03	1.337415E-15	3.908689E-17
7.000000E+03	1.330281E-15	3.888892E-17
7.010000E+03	1.323343E-15	3.869690E-17
7.020000E+03	1.316540E-15	3.850972E-17
7.030000E+03	1.309891E-15	3.832838E-17
7.040000E+03	1.303280E-15	3.814992E-17
7.050000E+03	1.296745E-15	3.797576E-17
7.060000E+03	1.290171E-15	3.780264E-17
7.070000E+03	1.283567E-15	3.763094E-17
7.080000E+03	1.276867E-15	3.745868E-17
7.090000E+03	1.270035E-15	3.728458E-17
7.100000E+03	1.263062E-15	3.710807E-17
7.110000E+03	1.255868E-15	3.692637E-17
7.120000E+03	1.248456E-15	3.673902E-17
7.130000E+03	1.240788E-15	3.654417E-17
7.140000E+03	1.232883E-15	3.634162E-17
7.150000E+03	1.224742E-15	3.613066E-17
7.160000E+03	1.216353E-15	3.591006E-17
7.170000E+03	1.207757E-15	3.568039E-17
7.180000E+03	1.198929E-15	3.544029E-17
7.190000E+03	1.189947E-15	3.519163E-17
7.200000E+03	1.180818E-15	3.493440E-17
7.210000E+03	1.171551E-15	3.466884E-17
7.220000E+03	1.162204E-15	3.439680E-17
7.230000E+03	1.152807E-15	3.411957E-17
7.240000E+03	1.143367E-15	3.383781E-17
7.250000E+03	1.133908E-15	3.355291E-17
7.260000E+03	1.124454E-15	3.326620E-17
7.270000E+03	1.115024E-15	3.297894E-17
7.280000E+03	1.105634E-15	3.269228E-17
7.290000E+03	1.096249E-15	3.240587E-17
7.300000E+03	1.086925E-15	3.212196E-17
7.310000E+03	1.077646E-15	3.184060E-17
7.320000E+03	1.068393E-15	3.156175E-17
7.330000E+03	1.059190E-15	3.128658E-17
7.340000E+03	1.049995E-15	3.101418E-17
7.350000E+03	1.040805E-15	3.074492E-17
7.360000E+03	1.031619E-15	3.047909E-17
7.370000E+03	1.022410E-15	3.021630E-17
7.380000E+03	1.013194E-15	2.995739E-17
7.390000E+03	1.003900E-15	2.970065E-17
7.400000E+03	9.945620E-16	2.944746E-17
7.410000E+03	9.851302E-16	2.919664E-17
7.420000E+03	9.756165E-16	2.894879E-17
7.430000E+03	9.659914E-16	2.870317E-17
7.440000E+03	9.562474E-16	2.845954E-17
7.450000E+03	9.463981E-16	2.821810E-17
7.460000E+03	9.364176E-16	2.797769E-17
7.470000E+03	9.263610E-16	2.773933E-17
7.480000E+03	9.161823E-16	2.750084E-17
7.490000E+03	9.059140E-16	2.726212E-17
7.500000E+03	8.955254E-16	2.702100E-17
7.510000E+03	8.850590E-16	2.677726E-17
7.520000E+03	8.744718E-16	2.652790E-17
7.530000E+03	8.637324E-16	2.627001E-17
7.540000E+03	8.528185E-16	2.600082E-17
7.550000E+03	8.416780E-16	2.571652E-17
7.560000E+03	8.302843E-16	2.541414E-17
7.570000E+03	8.185253E-16	2.508824E-17
7.580000E+03	8.063332E-16	2.473514E-17
7.590000E+03	7.936289E-16	2.435130E-17
7.600000E+03	7.802883E-16	2.393248E-17
7.610000E+03	7.662153E-16	2.347608E-17
7.620000E+03	7.512746E-16	2.297904E-17
7.630000E+03	7.353808E-16	2.244064E-17
7.640000E+03	7.183852E-16	2.185886E-17
7.650000E+03	7.002156E-16	2.123454E-17
7.660000E+03	6.807527E-16	2.056742E-17
7.670000E+03	6.599671E-16	1.986008E-17
7.680000E+03	6.378033E-16	1.911423E-17
7.690000E+03	6.143099E-16	1.833445E-17
7.700000E+03	5.895418E-16	1.752504E-17
7.710000E+03	5.636239E-16	1.669180E-17
7.720000E+03	5.367361E-16	1.584151E-17
7.730000E+03	5.091094E-16	1.498171E-17
7.740000E+03	4.810174E-16	1.412053E-17
7.750000E+03	4.527541E-16	1.326607E-17
7.760000E+03	4.246621E-16	1.242732E-17
