#wls	flux	fluxerr
1.600000E+03	2.871388E-14	6.897235E-15
1.640000E+03	2.393156E-14	5.295517E-15
1.680000E+03	1.972643E-14	3.993793E-15
1.720000E+03	1.608198E-14	2.956192E-15
1.760000E+03	1.297152E-14	2.146112E-15
1.800000E+03	1.035885E-14	1.527441E-15
1.840000E+03	8.196703E-15	1.065418E-15
1.880000E+03	6.437812E-15	7.289980E-16
1.920000E+03	5.030285E-15	4.905309E-16
1.960000E+03	3.923083E-15	3.266445E-16
2.000000E+03	3.067642E-15	2.182478E-16
2.040000E+03	2.419930E-15	1.502241E-16
2.080000E+03	1.940673E-15	1.105406E-16
2.120000E+03	1.595631E-15	8.921827E-17
2.160000E+03	1.356375E-15	7.840456E-17
2.200000E+03	1.201141E-15	7.329264E-17
2.240000E+03	1.115272E-15	7.170775E-17
2.280000E+03	1.090285E-15	7.290601E-17
2.320000E+03	1.123136E-15	7.673185E-17
2.360000E+03	1.215734E-15	8.320517E-17
2.400000E+03	1.374136E-15	9.230082E-17
2.440000E+03	1.607136E-15	1.038073E-16
2.480000E+03	1.923887E-15	1.173121E-16
2.520000E+03	2.329288E-15	1.324616E-16
2.560000E+03	2.819016E-15	1.498544E-16
2.600000E+03	3.374726E-15	1.722051E-16
2.640000E+03	3.963545E-15	2.038786E-16
2.680000E+03	4.539720E-15	2.467511E-16
2.720000E+03	5.053453E-15	2.972390E-16
2.760000E+03	5.463368E-15	3.481015E-16
2.800000E+03	5.744294E-15	3.916033E-16
2.840000E+03	5.890284E-15	4.218131E-16
2.880000E+03	5.913307E-15	4.356977E-16
2.920000E+03	5.837851E-15	4.331154E-16
2.960000E+03	5.696127E-15	4.162411E-16
3.000000E+03	5.521557E-15	3.885224E-16
3.010000E+03	5.476738E-15	3.803645E-16
3.020000E+03	5.432258E-15	3.718264E-16
3.030000E+03	5.388559E-15	3.629660E-16
3.040000E+03	5.346308E-15	3.538550E-16
3.050000E+03	5.305789E-15	3.445383E-16
3.060000E+03	5.267399E-15	3.350667E-16
3.070000E+03	5.231635E-15	3.254957E-16
3.080000E+03	5.198757E-15	3.158637E-16
3.090000E+03	5.169135E-15	3.062141E-16
3.100000E+03	5.143347E-15	2.966003E-16
3.110000E+03	5.121537E-15	2.870476E-16
3.120000E+03	5.104172E-15	2.775977E-16
3.130000E+03	5.091520E-15	2.682786E-16
3.140000E+03	5.084261E-15	2.591371E-16
3.150000E+03	5.082482E-15	2.501861E-16
3.160000E+03	5.086698E-15	2.414575E-16
3.170000E+03	5.097444E-15	2.329802E-16
3.180000E+03	5.115186E-15	2.247756E-16
3.190000E+03	5.140242E-15	2.168547E-16
3.200000E+03	5.173453E-15	2.092469E-16
3.210000E+03	5.215236E-15	2.019583E-16
3.220000E+03	5.266353E-15	1.950044E-16
3.230000E+03	5.327448E-15	1.883909E-16
3.240000E+03	5.399430E-15	1.821282E-16
3.250000E+03	5.483198E-15	1.762217E-16
3.260000E+03	5.579746E-15	1.706758E-16
3.270000E+03	5.690081E-15	1.654927E-16
3.280000E+03	5.815510E-15	1.606821E-16
3.290000E+03	5.957380E-15	1.562548E-16
3.300000E+03	6.117073E-15	1.522247E-16
3.310000E+03	4.602267E-15	4.016446E-16
3.311000E+03	4.602833E-15	4.015233E-16
3.312000E+03	4.601291E-15	4.013150E-16
3.313000E+03	4.601282E-15	4.011701E-16
3.314000E+03	4.602805E-15	4.010883E-16
3.315000E+03	4.607202E-15	4.011246E-16
3.316000E+03	4.614088E-15	4.012631E-16
3.317000E+03	4.621357E-15	4.014169E-16
3.318000E+03	4.629008E-15	4.015861E-16
3.319000E+03	4.637616E-15	4.017943E-16
3.320000E+03	4.646607E-15	4.020178E-16
3.321000E+03	4.652723E-15	4.021229E-16
3.322000E+03	4.656158E-15	4.021176E-16
3.323000E+03	4.658634E-15	4.020728E-16
3.324000E+03	4.660344E-15	4.019964E-16
3.325000E+03	4.666076E-15	4.020847E-16
3.326000E+03	4.674870E-15	4.022981E-16
3.327000E+03	4.684429E-15	4.025425E-16
3.328000E+03	4.694179E-15	4.027943E-16
3.329000E+03	4.702779E-15	4.029987E-16
3.330000E+03	4.710613E-15	4.031713E-16
3.331000E+03	4.716722E-15	4.032729E-16
3.332000E+03	4.721108E-15	4.033038E-16
3.333000E+03	4.724728E-15	4.033031E-16
3.334000E+03	4.727773E-15	4.032787E-16
3.335000E+03	4.730818E-15	4.032541E-16
3.336000E+03	4.733862E-15	4.097003E-16
3.337000E+03	4.737097E-15	4.111284E-16
3.338000E+03	4.740715E-15	4.075694E-16
3.339000E+03	4.743949E-15	4.079005E-16
3.340000E+03	4.746992E-15	4.053553E-16
3.341000E+03	4.749268E-15	4.002877E-16
3.342000E+03	4.750971E-15	3.968169E-16
3.343000E+03	4.753247E-15	3.964328E-16
3.344000E+03	4.755905E-15	3.988472E-16
3.345000E+03	4.758946E-15	4.026840E-16
3.346000E+03	4.762560E-15	4.080708E-16
3.347000E+03	4.763878E-15	4.098236E-16
3.348000E+03	4.763474E-15	4.098002E-16
3.349000E+03	4.764409E-15	4.092827E-16
3.350000E+03	4.766300E-15	4.079068E-16
3.351000E+03	4.772591E-15	4.042613E-16
3.352000E+03	4.782514E-15	3.983972E-16
3.353000E+03	4.789567E-15	3.934411E-16
3.354000E+03	4.794325E-15	3.893252E-16
3.355000E+03	4.800421E-15	3.859600E-16
3.356000E+03	4.807855E-15	3.833023E-16
3.357000E+03	4.817774E-15	3.844690E-16
3.358000E+03	4.829986E-15	3.913361E-16
3.359000E+03	4.844683E-15	3.967560E-16
3.360000E+03	4.861482E-15	4.010166E-16
3.361000E+03	4.875793E-15	4.027653E-16
3.362000E+03	4.888000E-15	4.032556E-16
3.363000E+03	4.901353E-15	4.036011E-16
3.364000E+03	4.915851E-15	4.029471E-16
3.365000E+03	4.928436E-15	4.028286E-16
3.366000E+03	4.939491E-15	4.031625E-16
3.367000E+03	4.950163E-15	4.037101E-16
3.368000E+03	4.960642E-15	4.058346E-16
3.369000E+03	4.970929E-15	4.062567E-16
3.370000E+03	4.981406E-15	4.048989E-16
3.371000E+03	4.994367E-15	4.031004E-16
3.372000E+03	5.009428E-15	4.024320E-16
3.373000E+03	5.025442E-15	4.091571E-16
3.374000E+03	5.042220E-15	4.211038E-16
3.375000E+03	5.061862E-15	4.348927E-16
3.376000E+03	5.084177E-15	4.500162E-16
3.377000E+03	5.106489E-15	4.521038E-16
3.378000E+03	5.129181E-15	4.541315E-16
3.379000E+03	5.150725E-15	4.567583E-16
3.380000E+03	5.171121E-15	4.600611E-16
3.381000E+03	5.190178E-15	4.580499E-16
3.382000E+03	5.208278E-15	4.569486E-16
3.383000E+03	5.231341E-15	4.527949E-16
3.384000E+03	5.258796E-15	4.458396E-16
3.385000E+03	5.287966E-15	4.364443E-16
3.386000E+03	5.318279E-15	4.317172E-16
3.387000E+03	5.344579E-15	4.337949E-16
3.388000E+03	5.367631E-15	4.453445E-16
3.389000E+03	5.391826E-15	4.542748E-16
3.390000E+03	5.417546E-15	4.582015E-16
3.391000E+03	5.443836E-15	4.605219E-16
3.392000E+03	5.471078E-15	4.599741E-16
3.393000E+03	5.501945E-15	4.582130E-16
3.394000E+03	5.536245E-15	4.549460E-16
3.395000E+03	5.574168E-15	4.510899E-16
3.396000E+03	5.615715E-15	4.470758E-16
3.397000E+03	5.660311E-15	4.442736E-16
3.398000E+03	5.707958E-15	4.447532E-16
3.399000E+03	5.758271E-15	4.464350E-16
3.400000E+03	5.810870E-15	4.498656E-16
3.401000E+03	5.864800E-15	4.513994E-16
3.402000E+03	5.920060E-15	4.573129E-16
3.403000E+03	5.974170E-15	4.652586E-16
3.404000E+03	6.027130E-15	4.754432E-16
3.405000E+03	6.081611E-15	4.844134E-16
3.406000E+03	6.137232E-15	4.922439E-16
3.407000E+03	6.195519E-15	4.967041E-16
3.408000E+03	6.256089E-15	4.969887E-16
3.409000E+03	6.323140E-15	4.979235E-16
3.410000E+03	6.396097E-15	4.994953E-16
3.411000E+03	6.470001E-15	5.022036E-16
3.412000E+03	6.543327E-15	5.050309E-16
3.413000E+03	6.617026E-15	5.075799E-16
3.414000E+03	6.697394E-15	5.096821E-16
3.415000E+03	6.784238E-15	5.127841E-16
3.416000E+03	6.872790E-15	5.163191E-16
3.417000E+03	6.957139E-15	5.184310E-16
3.418000E+03	7.037284E-15	5.181836E-16
3.419000E+03	7.117803E-15	5.198136E-16
3.420000E+03	7.199459E-15	5.226700E-16
3.421000E+03	7.284347E-15	5.259099E-16
3.422000E+03	7.372469E-15	5.277942E-16
3.423000E+03	7.460010E-15	5.291666E-16
3.424000E+03	7.548496E-15	5.325717E-16
3.425000E+03	7.637546E-15	5.344146E-16
3.426000E+03	7.727921E-15	5.345684E-16
3.427000E+03	7.824386E-15	5.384755E-16
3.428000E+03	7.924655E-15	5.411263E-16
3.429000E+03	8.027963E-15	5.413517E-16
3.430000E+03	8.134310E-15	5.421860E-16
3.431000E+03	8.239695E-15	5.472980E-16
3.432000E+03	8.344497E-15	5.517355E-16
3.433000E+03	8.447575E-15	5.559881E-16
3.434000E+03	8.549499E-15	5.614243E-16
3.435000E+03	8.653509E-15	5.705984E-16
3.436000E+03	8.759796E-15	5.858065E-16
3.437000E+03	8.866072E-15	5.927914E-16
3.438000E+03	8.972528E-15	5.899558E-16
3.439000E+03	9.081641E-15	5.900138E-16
3.440000E+03	9.196077E-15	5.930806E-16
3.441000E+03	9.309359E-15	5.970099E-16
3.442000E+03	9.420916E-15	6.016613E-16
3.443000E+03	9.534938E-15	6.065755E-16
3.444000E+03	9.652758E-15	6.119876E-16
3.445000E+03	9.776090E-15	6.178449E-16
3.446000E+03	9.903980E-15	6.237232E-16
3.447000E+03	1.003376E-14	6.297039E-16
3.448000E+03	1.016239E-14	6.341102E-16
3.449000E+03	1.029062E-14	6.370550E-16
3.450000E+03	1.041865E-14	6.379064E-16
3.451000E+03	1.054819E-14	6.446072E-16
3.452000E+03	1.067905E-14	6.539520E-16
3.453000E+03	1.080895E-14	6.621682E-16
3.454000E+03	1.093807E-14	6.690723E-16
3.455000E+03	1.107137E-14	6.742095E-16
3.456000E+03	1.120808E-14	6.785918E-16
3.457000E+03	1.134535E-14	6.840108E-16
3.458000E+03	1.148298E-14	6.918529E-16
3.459000E+03	1.161699E-14	6.978196E-16
3.460000E+03	1.174736E-14	7.061018E-16
3.461000E+03	1.188363E-14	7.155742E-16
3.462000E+03	1.202501E-14	7.263470E-16
3.463000E+03	1.216544E-14	7.325793E-16
3.464000E+03	1.230642E-14	7.424488E-16
3.465000E+03	1.244643E-14	7.532750E-16
3.466000E+03	1.258053E-14	7.648938E-16
3.467000E+03	1.270948E-14	7.792897E-16
3.468000E+03	1.283481E-14	7.968103E-16
3.469000E+03	1.296126E-14	8.110739E-16
3.470000E+03	1.308846E-14	8.226773E-16
3.471000E+03	1.321147E-14	8.314213E-16
3.472000E+03	1.333294E-14	8.381956E-16
3.473000E+03	1.345554E-14	8.428323E-16
3.474000E+03	1.357794E-14	8.438741E-16
3.475000E+03	1.370108E-14	8.451100E-16
3.476000E+03	1.382650E-14	8.468250E-16
3.477000E+03	1.394962E-14	8.517533E-16
3.478000E+03	1.406969E-14	8.564985E-16
3.479000E+03	1.418651E-14	8.615179E-16
3.480000E+03	1.430028E-14	8.665158E-16
3.481000E+03	1.441384E-14	8.732366E-16
3.482000E+03	1.452968E-14	8.816907E-16
3.483000E+03	1.464627E-14	8.903658E-16
3.484000E+03	1.476094E-14	8.978886E-16
3.485000E+03	1.487332E-14	8.999100E-16
3.486000E+03	1.498265E-14	9.005140E-16
3.487000E+03	1.508759E-14	9.044444E-16
3.488000E+03	1.518872E-14	9.106537E-16
3.489000E+03	1.528890E-14	9.185834E-16
3.490000E+03	1.538944E-14	9.288698E-16
3.491000E+03	1.548864E-14	9.439064E-16
3.492000E+03	1.558384E-14	9.626915E-16
3.493000E+03	1.567581E-14	9.711835E-16
3.494000E+03	1.576719E-14	9.749315E-16
3.495000E+03	1.585913E-14	9.781858E-16
3.496000E+03	1.595220E-14	9.808379E-16
3.497000E+03	1.604679E-14	9.850738E-16
3.498000E+03	1.614212E-14	9.912014E-16
3.499000E+03	1.623535E-14	9.959153E-16
3.500000E+03	1.632573E-14	9.996747E-16
3.501000E+03	1.641704E-14	1.002345E-15
3.502000E+03	1.650360E-14	1.003476E-15
3.503000E+03	1.658464E-14	1.003476E-15
3.504000E+03	1.666397E-14	1.003692E-15
3.505000E+03	1.673835E-14	1.006559E-15
3.506000E+03	1.681234E-14	1.012348E-15
3.507000E+03	1.688575E-14	1.016428E-15
3.508000E+03	1.695441E-14	1.018006E-15
3.509000E+03	1.702249E-14	1.020620E-15
3.510000E+03	1.709038E-14	1.023337E-15
3.511000E+03	1.715939E-14	1.024635E-15
3.512000E+03	1.723182E-14	1.024431E-15
3.513000E+03	1.730386E-14	1.029271E-15
3.514000E+03	1.737247E-14	1.033959E-15
3.515000E+03	1.743728E-14	1.034800E-15
3.516000E+03	1.749696E-14	1.033366E-15
3.517000E+03	1.755322E-14	1.031040E-15
3.518000E+03	1.760757E-14	1.030354E-15
3.519000E+03	1.765907E-14	1.030690E-15
3.520000E+03	1.770734E-14	1.031800E-15
3.521000E+03	1.775105E-14	1.032218E-15
3.522000E+03	1.779419E-14	1.032477E-15
3.523000E+03	1.783998E-14	1.034704E-15
3.524000E+03	1.788728E-14	1.038585E-15
3.525000E+03	1.793476E-14	1.044298E-15
3.526000E+03	1.797712E-14	1.051572E-15
3.527000E+03	1.801378E-14	1.057299E-15
3.528000E+03	1.804665E-14	1.061607E-15
3.529000E+03	1.807457E-14	1.067729E-15
3.530000E+03	1.809852E-14	1.074537E-15
3.531000E+03	1.811487E-14	1.074801E-15
3.532000E+03	1.812515E-14	1.071872E-15
3.533000E+03	1.813449E-14	1.069240E-15
3.534000E+03	1.814173E-14	1.067486E-15
3.535000E+03	1.814898E-14	1.067260E-15
3.536000E+03	1.815546E-14	1.064505E-15
3.537000E+03	1.815664E-14	1.063581E-15
3.538000E+03	1.815231E-14	1.070934E-15
3.539000E+03	1.814553E-14	1.074406E-15
3.540000E+03	1.813665E-14	1.073484E-15
3.541000E+03	1.812494E-14	1.065500E-15
3.542000E+03	1.811095E-14	1.051019E-15
3.543000E+03	1.809468E-14	1.044430E-15
3.544000E+03	1.807463E-14	1.042082E-15
3.545000E+03	1.804889E-14	1.041166E-15
3.546000E+03	1.801747E-14	1.043551E-15
3.547000E+03	1.798340E-14	1.042334E-15
3.548000E+03	1.794933E-14	1.037517E-15
3.549000E+03	1.791508E-14	1.034937E-15
3.550000E+03	1.787798E-14	1.034321E-15
3.551000E+03	1.783673E-14	1.037877E-15
3.552000E+03	1.778827E-14	1.045451E-15
3.553000E+03	1.773130E-14	1.049364E-15
3.554000E+03	1.767262E-14	1.049968E-15
3.555000E+03	1.761452E-14	1.047295E-15
3.556000E+03	1.755340E-14	1.041098E-15
3.557000E+03	1.748584E-14	1.037864E-15
3.558000E+03	1.741090E-14	1.037277E-15
3.559000E+03	1.733047E-14	1.036679E-15
3.560000E+03	1.724361E-14	1.033806E-15
3.561000E+03	1.715165E-14	1.030151E-15
3.562000E+03	1.705894E-14	1.026068E-15
3.563000E+03	1.696378E-14	1.019002E-15
3.564000E+03	1.686295E-14	1.008874E-15
3.565000E+03	1.675626E-14	1.002188E-15
3.566000E+03	1.664712E-14	9.977510E-16
3.567000E+03	1.653666E-14	9.898777E-16
3.568000E+03	1.642451E-14	9.754087E-16
3.569000E+03	1.630953E-14	9.614412E-16
3.570000E+03	1.619229E-14	9.481634E-16
3.571000E+03	1.607260E-14	9.378643E-16
3.572000E+03	1.594801E-14	9.298423E-16
3.573000E+03	1.582115E-14	9.203078E-16
3.574000E+03	1.569261E-14	9.088862E-16
3.575000E+03	1.556105E-14	8.937847E-16
3.576000E+03	1.542439E-14	8.760349E-16
3.577000E+03	1.528112E-14	8.582969E-16
3.578000E+03	1.513314E-14	8.408767E-16
3.579000E+03	1.498215E-14	8.181268E-16
3.580000E+03	1.482985E-14	7.892459E-16
3.581000E+03	1.467548E-14	7.718144E-16
3.582000E+03	1.452018E-14	7.636585E-16
3.583000E+03	1.436527E-14	7.625728E-16
3.584000E+03	1.420490E-14	7.697803E-16
3.585000E+03	1.403849E-14	7.726579E-16
3.586000E+03	1.386831E-14	7.710078E-16
3.587000E+03	1.369361E-14	7.668392E-16
3.588000E+03	1.352101E-14	7.527387E-16
3.589000E+03	1.335013E-14	7.409609E-16
3.590000E+03	1.317776E-14	7.319396E-16
3.591000E+03	1.300786E-14	7.298259E-16
3.592000E+03	1.284138E-14	7.338609E-16
3.593000E+03	1.267737E-14	7.369836E-16
3.594000E+03	1.251338E-14	7.386407E-16
3.595000E+03	1.234808E-14	7.401273E-16
3.596000E+03	1.218148E-14	7.382559E-16
3.597000E+03	1.201168E-14	7.406563E-16
3.598000E+03	1.183944E-14	7.469368E-16
3.599000E+03	1.166685E-14	7.461935E-16
3.600000E+03	1.149426E-14	7.400933E-16
3.601000E+03	1.132113E-14	7.278665E-16
3.602000E+03	1.114821E-14	7.072204E-16
3.603000E+03	1.097360E-14	6.897331E-16
3.604000E+03	1.080071E-14	6.757332E-16
3.605000E+03	1.063294E-14	6.650859E-16
3.606000E+03	1.046840E-14	6.569803E-16
3.607000E+03	1.030860E-14	6.476912E-16
3.608000E+03	1.015259E-14	6.408540E-16
3.609000E+03	9.998493E-15	6.319519E-16
3.610000E+03	9.841951E-15	6.210716E-16
3.611000E+03	9.681459E-15	6.073128E-16
3.612000E+03	9.520984E-15	5.940164E-16
3.613000E+03	9.361469E-15	5.834716E-16
3.614000E+03	9.201027E-15	5.757940E-16
3.615000E+03	9.039846E-15	5.654687E-16
3.616000E+03	8.878115E-15	5.526586E-16
3.617000E+03	8.715645E-15	5.428232E-16
3.618000E+03	8.558479E-15	5.364677E-16
3.619000E+03	8.407937E-15	5.322660E-16
3.620000E+03	8.260242E-15	5.301702E-16
3.621000E+03	8.115205E-15	5.241710E-16
3.622000E+03	7.970183E-15	5.151351E-16
3.623000E+03	7.824233E-15	5.057149E-16
3.624000E+03	7.680940E-15	4.965634E-16
3.625000E+03	7.540682E-15	4.948942E-16
3.626000E+03	7.404779E-15	4.977148E-16
3.627000E+03	7.272098E-15	4.993965E-16
3.628000E+03	7.138865E-15	4.995638E-16
3.629000E+03	7.005835E-15	4.959985E-16
3.630000E+03	6.873196E-15	4.881373E-16
3.631000E+03	6.741514E-15	4.857577E-16
3.632000E+03	6.613996E-15	4.878783E-16
3.633000E+03	6.491019E-15	4.852869E-16
3.634000E+03	6.374281E-15	4.760709E-16
3.635000E+03	6.263025E-15	4.688950E-16
3.636000E+03	6.154421E-15	4.634353E-16
3.637000E+03	6.049601E-15	4.605938E-16
3.638000E+03	5.950639E-15	4.588041E-16
3.639000E+03	5.855648E-15	4.572680E-16
3.640000E+03	5.760289E-15	4.544446E-16
3.641000E+03	5.666449E-15	4.486773E-16
3.642000E+03	5.580538E-15	4.383945E-16
3.643000E+03	5.504253E-15	4.291970E-16
3.644000E+03	5.433066E-15	4.209267E-16
3.645000E+03	5.363961E-15	4.117301E-16
3.646000E+03	5.295616E-15	4.014823E-16
3.647000E+03	5.226714E-15	3.859712E-16
3.648000E+03	5.160646E-15	3.637251E-16
3.649000E+03	5.101182E-15	3.507207E-16
3.650000E+03	5.048699E-15	3.470286E-16
3.651000E+03	5.003006E-15	3.467283E-16
3.652000E+03	4.961652E-15	3.491932E-16
3.653000E+03	4.921810E-15	3.506460E-16
3.654000E+03	4.885929E-15	3.509497E-16
3.655000E+03	4.856459E-15	3.524249E-16
3.656000E+03	4.827934E-15	3.550193E-16
3.657000E+03	4.800920E-15	3.517313E-16
3.658000E+03	4.776734E-15	3.317637E-16
3.659000E+03	4.754434E-15	3.132943E-16
3.660000E+03	4.737600E-15	2.962972E-16
3.661000E+03	4.724723E-15	2.898429E-16
3.662000E+03	4.708645E-15	2.891556E-16
3.663000E+03	4.688613E-15	2.844703E-16
3.664000E+03	4.670090E-15	2.740114E-16
3.665000E+03	4.652699E-15	2.700509E-16
3.666000E+03	4.638888E-15	2.743285E-16
3.667000E+03	4.629974E-15	2.751346E-16
3.668000E+03	4.625580E-15	2.748325E-16
3.669000E+03	4.624576E-15	2.747342E-16
3.670000E+03	4.622253E-15	2.750151E-16
3.671000E+03	4.618801E-15	2.757835E-16
3.672000E+03	4.618738E-15	2.746307E-16
3.673000E+03	4.623381E-15	2.746171E-16
3.674000E+03	4.630282E-15	2.764768E-16
3.675000E+03	4.637183E-15	2.761282E-16
3.676000E+03	4.642388E-15	2.739403E-16
3.677000E+03	4.645899E-15	2.720614E-16
3.678000E+03	4.651479E-15	2.707107E-16
3.679000E+03	4.660258E-15	2.718211E-16
3.680000E+03	4.672423E-15	2.779498E-16
3.681000E+03	4.687597E-15	2.816585E-16
3.682000E+03	4.702581E-15	2.822508E-16
3.683000E+03	4.716811E-15	2.826664E-16
3.684000E+03	4.731791E-15	2.817052E-16
3.685000E+03	4.746393E-15	2.805207E-16
3.686000E+03	4.760806E-15	2.789730E-16
3.687000E+03	4.776345E-15	2.788900E-16
3.688000E+03	4.794140E-15	2.793560E-16
3.689000E+03	4.813249E-15	2.797846E-16
3.690000E+03	4.831415E-15	2.799279E-16
3.691000E+03	4.849203E-15	2.795546E-16
3.692000E+03	4.868870E-15	2.784340E-16
3.693000E+03	4.890415E-15	2.781997E-16
3.694000E+03	4.913461E-15	2.785535E-16
3.695000E+03	4.938385E-15	2.788397E-16
3.696000E+03	4.964058E-15	2.792131E-16
3.697000E+03	4.986343E-15	2.787897E-16
3.698000E+03	5.005243E-15	2.771788E-16
3.699000E+03	5.020756E-15	2.774916E-16
3.700000E+03	5.036832E-15	2.771798E-16
3.701000E+03	5.058920E-15	2.763112E-16
3.702000E+03	5.083825E-15	2.744265E-16
3.703000E+03	5.109666E-15	2.750759E-16
3.704000E+03	5.135693E-15	2.795565E-16
3.705000E+03	5.162468E-15	2.838944E-16
3.706000E+03	5.192622E-15	2.878016E-16
3.707000E+03	5.229537E-15	2.921001E-16
3.708000E+03	5.273963E-15	2.967187E-16
3.709000E+03	5.321202E-15	3.002795E-16
3.710000E+03	5.367872E-15	3.026967E-16
3.711000E+03	5.411531E-15	3.062191E-16
3.712000E+03	5.451428E-15	3.110160E-16
3.713000E+03	5.492259E-15	3.146240E-16
3.714000E+03	5.537594E-15	3.175019E-16
3.715000E+03	5.587243E-15	3.234390E-16
3.716000E+03	5.641205E-15	3.315162E-16
3.717000E+03	5.697791E-15	3.391646E-16
3.718000E+03	5.754745E-15	3.440261E-16
3.719000E+03	5.814510E-15	3.444268E-16
3.720000E+03	5.877272E-15	3.426396E-16
3.721000E+03	5.939838E-15	3.412076E-16
3.722000E+03	6.003336E-15	3.407519E-16
3.723000E+03	6.070394E-15	3.459656E-16
3.724000E+03	6.137068E-15	3.577504E-16
3.725000E+03	6.203172E-15	3.645311E-16
3.726000E+03	6.269456E-15	3.674388E-16
3.727000E+03	6.338172E-15	3.687172E-16
3.728000E+03	6.408944E-15	3.693217E-16
3.729000E+03	6.478958E-15	3.723992E-16
3.730000E+03	6.549713E-15	3.776415E-16
3.731000E+03	6.619148E-15	3.823270E-16
3.732000E+03	6.691951E-15	3.864982E-16
3.733000E+03	6.771126E-15	3.885115E-16
3.734000E+03	6.852167E-15	3.879655E-16
3.735000E+03	6.936013E-15	3.878981E-16
3.736000E+03	7.020036E-15	3.889674E-16
3.737000E+03	7.103487E-15	3.908362E-16
3.738000E+03	7.190493E-15	3.933582E-16
3.739000E+03	7.281989E-15	3.957793E-16
3.740000E+03	7.374975E-15	3.981125E-16
3.741000E+03	7.467763E-15	3.997203E-16
3.742000E+03	7.560915E-15	4.009310E-16
3.743000E+03	7.656307E-15	4.026067E-16
3.744000E+03	7.753937E-15	4.049987E-16
3.745000E+03	7.851369E-15	4.060874E-16
3.746000E+03	7.951414E-15	4.059331E-16
3.747000E+03	8.055009E-15	4.055380E-16
3.748000E+03	8.159154E-15	4.047832E-16
3.749000E+03	8.263850E-15	4.064704E-16
3.750000E+03	8.369096E-15	4.116555E-16
3.751000E+03	8.473954E-15	4.166350E-16
3.752000E+03	8.579363E-15	4.214615E-16
3.753000E+03	8.688695E-15	4.280008E-16
3.754000E+03	8.801949E-15	4.348756E-16
3.755000E+03	8.914815E-15	4.437269E-16
