#wls	flux	fluxerr
1.600000E+03	5.925994E-14	1.259298E-14
1.640000E+03	5.014838E-14	9.684907E-15
1.680000E+03	4.190283E-14	7.285606E-15
1.720000E+03	3.455066E-14	5.348438E-15
1.760000E+03	2.809806E-14	3.821085E-15
1.800000E+03	2.252841E-14	2.647747E-15
1.840000E+03	1.779611E-14	1.771055E-15
1.880000E+03	1.384829E-14	1.136855E-15
1.920000E+03	1.061337E-14	6.944773E-16
1.960000E+03	8.012206E-15	3.992153E-16
2.000000E+03	5.961830E-15	2.134816E-16
2.040000E+03	4.380967E-15	1.079504E-16
2.080000E+03	3.193314E-15	6.114112E-17
2.120000E+03	2.334913E-15	4.860957E-17
2.160000E+03	1.753063E-15	4.438629E-17
2.200000E+03	1.390854E-15	4.101603E-17
2.240000E+03	1.199229E-15	3.942298E-17
2.280000E+03	1.147940E-15	4.116582E-17
2.320000E+03	1.224939E-15	4.709553E-17
2.360000E+03	1.441220E-15	5.783690E-17
2.400000E+03	1.837736E-15	7.417474E-17
2.440000E+03	2.488874E-15	9.643445E-17
2.480000E+03	3.503656E-15	1.230449E-16
2.520000E+03	5.013189E-15	1.486447E-16
2.560000E+03	7.129966E-15	1.652901E-16
2.600000E+03	9.865588E-15	1.806242E-16
2.640000E+03	1.304679E-14	2.565466E-16
2.680000E+03	1.637029E-14	4.376574E-16
2.720000E+03	1.951758E-14	6.908756E-16
2.760000E+03	2.220694E-14	9.681855E-16
2.800000E+03	2.424338E-14	1.224569E-15
2.840000E+03	2.554656E-14	1.424257E-15
2.880000E+03	2.614935E-14	1.546169E-15
2.920000E+03	2.616863E-14	1.585060E-15
2.960000E+03	2.577321E-14	1.548995E-15
3.000000E+03	2.514367E-14	1.453991E-15
3.010000E+03	2.497091E-14	1.423306E-15
3.020000E+03	2.479642E-14	1.390418E-15
3.030000E+03	2.462253E-14	1.355624E-15
3.040000E+03	2.445253E-14	1.319270E-15
3.050000E+03	2.428795E-14	1.281602E-15
3.060000E+03	2.413077E-14	1.242889E-15
3.070000E+03	2.398338E-14	1.203417E-15
3.080000E+03	2.384701E-14	1.163408E-15
3.090000E+03	2.372338E-14	1.123105E-15
3.100000E+03	2.361504E-14	1.082790E-15
3.110000E+03	2.352252E-14	1.042642E-15
3.120000E+03	2.344775E-14	1.002910E-15
3.130000E+03	2.339162E-14	9.637924E-16
3.140000E+03	2.335685E-14	9.255670E-16
3.150000E+03	2.334333E-14	8.883931E-16
3.160000E+03	2.335278E-14	8.525065E-16
3.170000E+03	2.338689E-14	8.181360E-16
3.180000E+03	2.344689E-14	7.854868E-16
3.190000E+03	2.353319E-14	7.547257E-16
3.200000E+03	2.364841E-14	7.260740E-16
3.210000E+03	2.379302E-14	6.996558E-16
3.220000E+03	2.396890E-14	6.756012E-16
3.230000E+03	2.417707E-14	6.539709E-16
3.240000E+03	2.441947E-14	6.347975E-16
3.250000E+03	2.469761E-14	6.180430E-16
3.260000E+03	2.501295E-14	6.036089E-16
3.270000E+03	2.536648E-14	5.913262E-16
3.280000E+03	2.575989E-14	5.809903E-16
3.290000E+03	2.619428E-14	5.723358E-16
3.300000E+03	2.667015E-14	5.650472E-16
3.310000E+03	2.718863E-14	5.587966E-16
3.320000E+03	2.774977E-14	5.532184E-16
3.330000E+03	2.835427E-14	5.479579E-16
3.340000E+03	2.900173E-14	5.426500E-16
3.350000E+03	2.969196E-14	5.369621E-16
3.360000E+03	3.042451E-14	5.306045E-16
3.370000E+03	3.119860E-14	5.233541E-16
3.380000E+03	3.201308E-14	5.150822E-16
3.390000E+03	3.286573E-14	5.057779E-16
3.400000E+03	3.375461E-14	4.955652E-16
3.410000E+03	3.467537E-14	4.846139E-16
3.420000E+03	3.562432E-14	4.733147E-16
3.430000E+03	3.659417E-14	4.622672E-16
3.440000E+03	3.757650E-14	4.522495E-16
3.450000E+03	3.856000E-14	4.442738E-16
3.460000E+03	3.952921E-14	4.394887E-16
3.470000E+03	4.046549E-14	4.388898E-16
3.480000E+03	4.134166E-14	4.429519E-16
3.490000E+03	4.211930E-14	4.511402E-16
3.500000E+03	4.275467E-14	4.620773E-16
3.510000E+03	4.320167E-14	4.740628E-16
3.520000E+03	4.341792E-14	4.853757E-16
3.530000E+03	4.336757E-14	4.943050E-16
3.540000E+03	4.302740E-14	4.995503E-16
3.550000E+03	4.238669E-14	5.002821E-16
3.560000E+03	4.145273E-14	4.960207E-16
3.570000E+03	4.024731E-14	4.867879E-16
3.580000E+03	3.880675E-14	4.731088E-16
3.590000E+03	3.718119E-14	4.558403E-16
3.600000E+03	3.542626E-14	4.360920E-16
3.610000E+03	3.360304E-14	4.151108E-16
3.620000E+03	3.177359E-14	3.940259E-16
3.630000E+03	2.999494E-14	3.738815E-16
3.640000E+03	2.831701E-14	3.555346E-16
3.650000E+03	2.678289E-14	3.394672E-16
3.660000E+03	2.542593E-14	3.260074E-16
3.670000E+03	2.426940E-14	3.153271E-16
3.680000E+03	2.332230E-14	3.072067E-16
3.690000E+03	2.258890E-14	3.014011E-16
3.700000E+03	2.207073E-14	2.977344E-16
3.710000E+03	2.176677E-14	2.960448E-16
3.720000E+03	2.167552E-14	2.962169E-16
3.730000E+03	2.179671E-14	2.981842E-16
3.740000E+03	2.212977E-14	3.018662E-16
3.750000E+03	2.267536E-14	3.072087E-16
3.760000E+03	2.343483E-14	3.141629E-16
3.770000E+03	2.440934E-14	3.226205E-16
3.780000E+03	2.559921E-14	3.324830E-16
3.790000E+03	2.700370E-14	3.436866E-16
3.800000E+03	2.862108E-14	3.561624E-16
3.810000E+03	3.044504E-14	3.699061E-16
3.820000E+03	3.246581E-14	3.850255E-16
3.830000E+03	3.466869E-14	4.016145E-16
3.840000E+03	3.703141E-14	4.198745E-16
3.850000E+03	3.952462E-14	4.400460E-16
3.860000E+03	4.211139E-14	4.619936E-16
3.870000E+03	4.474651E-14	4.854827E-16
3.880000E+03	4.737831E-14	5.102678E-16
3.890000E+03	4.995151E-14	5.358295E-16
3.900000E+03	5.240978E-14	5.616549E-16
3.910000E+03	5.469826E-14	5.872006E-16
3.920000E+03	5.677104E-14	6.114776E-16
3.930000E+03	5.859098E-14	6.334853E-16
3.940000E+03	6.013212E-14	6.523487E-16
3.950000E+03	6.138565E-14	6.670526E-16
3.960000E+03	6.235553E-14	6.768393E-16
3.970000E+03	6.305672E-14	6.813507E-16
3.980000E+03	6.351767E-14	6.804725E-16
3.990000E+03	6.377255E-14	6.745030E-16
4.000000E+03	6.386035E-14	6.641724E-16
4.010000E+03	6.382050E-14	6.503912E-16
4.020000E+03	6.369006E-14	6.343546E-16
4.030000E+03	6.350141E-14	6.173156E-16
4.040000E+03	6.327221E-14	5.999720E-16
4.050000E+03	6.301273E-14	5.830438E-16
4.060000E+03	6.272336E-14	5.672209E-16
4.070000E+03	6.238915E-14	5.525524E-16
4.080000E+03	6.198789E-14	5.391538E-16
4.090000E+03	6.149583E-14	5.271849E-16
4.100000E+03	6.088872E-14	5.161180E-16
4.110000E+03	6.014473E-14	5.055498E-16
4.120000E+03	5.924857E-14	4.952328E-16
4.130000E+03	5.819409E-14	4.843583E-16
4.140000E+03	5.698411E-14	4.724227E-16
4.150000E+03	5.562722E-14	4.593626E-16
4.160000E+03	5.413947E-14	4.450703E-16
4.170000E+03	5.254228E-14	4.298320E-16
4.180000E+03	5.086108E-14	4.141161E-16
4.190000E+03	4.912456E-14	3.978587E-16
4.200000E+03	4.736334E-14	3.811609E-16
4.210000E+03	4.560905E-14	3.643206E-16
4.220000E+03	4.389370E-14	3.473286E-16
4.230000E+03	4.224782E-14	3.304039E-16
4.240000E+03	4.070048E-14	3.140181E-16
4.250000E+03	3.927936E-14	2.985051E-16
4.260000E+03	3.800856E-14	2.843808E-16
4.270000E+03	3.690743E-14	2.721864E-16
4.280000E+03	3.599151E-14	2.619816E-16
4.290000E+03	3.527201E-14	2.538535E-16
4.300000E+03	3.475390E-14	2.478216E-16
4.310000E+03	3.443072E-14	2.432282E-16
4.320000E+03	3.429046E-14	2.394953E-16
4.330000E+03	3.431701E-14	2.363471E-16
4.340000E+03	3.448304E-14	2.334806E-16
4.350000E+03	3.475808E-14	2.309709E-16
4.360000E+03	3.510840E-14	2.291606E-16
4.370000E+03	3.549895E-14	2.279994E-16
4.380000E+03	3.590508E-14	2.274509E-16
4.390000E+03	3.630983E-14	2.279210E-16
4.400000E+03	3.670067E-14	2.300854E-16
4.410000E+03	3.707045E-14	2.350486E-16
4.420000E+03	3.741734E-14	2.436128E-16
4.430000E+03	3.774727E-14	2.549467E-16
4.440000E+03	3.807203E-14	2.675831E-16
4.450000E+03	3.840255E-14	2.802014E-16
4.460000E+03	3.874312E-14	2.915388E-16
4.470000E+03	3.909484E-14	3.008073E-16
4.480000E+03	3.945411E-14	3.077049E-16
4.490000E+03	3.981116E-14	3.120991E-16
4.500000E+03	4.015167E-14	3.142506E-16
4.510000E+03	4.045879E-14	3.146819E-16
4.520000E+03	4.071462E-14	3.136738E-16
4.530000E+03	4.090076E-14	3.117206E-16
4.540000E+03	4.100089E-14	3.094727E-16
4.550000E+03	4.100508E-14	3.071409E-16
4.560000E+03	4.090671E-14	3.051092E-16
4.570000E+03	4.070238E-14	3.039183E-16
4.580000E+03	4.039465E-14	3.036060E-16
4.590000E+03	3.998767E-14	3.043257E-16
4.600000E+03	3.948861E-14	3.062199E-16
4.610000E+03	3.890842E-14	3.085893E-16
4.620000E+03	3.825944E-14	3.107918E-16
4.630000E+03	3.755423E-14	3.125017E-16
4.640000E+03	3.680913E-14	3.133725E-16
4.650000E+03	3.603814E-14	3.133403E-16
4.660000E+03	3.525664E-14	3.126079E-16
4.670000E+03	3.447755E-14	3.112325E-16
4.680000E+03	3.371225E-14	3.094132E-16
4.690000E+03	3.296959E-14	3.074100E-16
4.700000E+03	3.225403E-14	3.051605E-16
4.710000E+03	3.156836E-14	3.026499E-16
4.720000E+03	3.091273E-14	2.999580E-16
4.730000E+03	3.028539E-14	2.970654E-16
4.740000E+03	2.968377E-14	2.940270E-16
4.750000E+03	2.910363E-14	2.908806E-16
4.760000E+03	2.854119E-14	2.873845E-16
4.770000E+03	2.799079E-14	2.833012E-16
4.780000E+03	2.744855E-14	2.785040E-16
4.790000E+03	2.691043E-14	2.728120E-16
4.800000E+03	2.637274E-14	2.661752E-16
4.810000E+03	2.583400E-14	2.587221E-16
4.820000E+03	2.529462E-14	2.506476E-16
4.830000E+03	2.475577E-14	2.422619E-16
4.840000E+03	2.422188E-14	2.338733E-16
4.850000E+03	2.370186E-14	2.254991E-16
4.860000E+03	2.320584E-14	2.171549E-16
4.870000E+03	2.274399E-14	2.089298E-16
4.880000E+03	2.232628E-14	2.008536E-16
4.890000E+03	2.196133E-14	1.930612E-16
4.900000E+03	2.165618E-14	1.857785E-16
4.910000E+03	2.141295E-14	1.791220E-16
4.920000E+03	2.123261E-14	1.733280E-16
4.930000E+03	2.111428E-14	1.686702E-16
4.940000E+03	2.105322E-14	1.651153E-16
4.950000E+03	2.104391E-14	1.626914E-16
4.960000E+03	2.108101E-14	1.614472E-16
4.970000E+03	2.116173E-14	1.610463E-16
4.980000E+03	2.128367E-14	1.612142E-16
4.990000E+03	2.144528E-14	1.618432E-16
5.000000E+03	2.164618E-14	1.627119E-16
5.010000E+03	2.188718E-14	1.638004E-16
5.020000E+03	2.216787E-14	1.652584E-16
5.030000E+03	2.248693E-14	1.670487E-16
5.040000E+03	2.284246E-14	1.692864E-16
5.050000E+03	2.323055E-14	1.721758E-16
5.060000E+03	2.364383E-14	1.755241E-16
5.070000E+03	2.407282E-14	1.791976E-16
5.080000E+03	2.450649E-14	1.831877E-16
5.090000E+03	2.493133E-14	1.872189E-16
5.100000E+03	2.533276E-14	1.911360E-16
5.110000E+03	2.569636E-14	1.949047E-16
5.120000E+03	2.600818E-14	1.981791E-16
5.130000E+03	2.625641E-14	2.007458E-16
5.140000E+03	2.642952E-14	2.025761E-16
5.150000E+03	2.652044E-14	2.035146E-16
5.160000E+03	2.652386E-14	2.036322E-16
5.170000E+03	2.643701E-14	2.032541E-16
5.180000E+03	2.625917E-14	2.026059E-16
5.190000E+03	2.599194E-14	2.020610E-16
5.200000E+03	2.564017E-14	2.019068E-16
5.210000E+03	2.521183E-14	2.017017E-16
5.220000E+03	2.471833E-14	2.009585E-16
5.230000E+03	2.417261E-14	1.994006E-16
5.240000E+03	2.359230E-14	1.968336E-16
5.250000E+03	2.299604E-14	1.932997E-16
5.260000E+03	2.240274E-14	1.890431E-16
5.270000E+03	2.183117E-14	1.843095E-16
5.280000E+03	2.129939E-14	1.794439E-16
5.290000E+03	2.082187E-14	1.747419E-16
5.300000E+03	2.040818E-14	1.701378E-16
5.310000E+03	2.006437E-14	1.655360E-16
5.320000E+03	1.979348E-14	1.609060E-16
5.330000E+03	1.959263E-14	1.561433E-16
5.340000E+03	1.945623E-14	1.512312E-16
5.350000E+03	1.937564E-14	1.462109E-16
5.360000E+03	1.933848E-14	1.410003E-16
5.370000E+03	1.932937E-14	1.356055E-16
5.380000E+03	1.933276E-14	1.301129E-16
5.390000E+03	1.933258E-14	1.244319E-16
5.400000E+03	1.931355E-14	1.186700E-16
5.410000E+03	1.926239E-14	1.131880E-16
5.420000E+03	1.917113E-14	1.083168E-16
5.430000E+03	1.903661E-14	1.047100E-16
5.440000E+03	1.886037E-14	1.031534E-16
5.450000E+03	1.865181E-14	1.037988E-16
5.460000E+03	1.843095E-14	1.060501E-16
5.470000E+03	1.822410E-14	1.090250E-16
5.480000E+03	1.805450E-14	1.120097E-16
5.490000E+03	1.794143E-14	1.147468E-16
5.500000E+03	1.789936E-14	1.173145E-16
5.510000E+03	1.793082E-14	1.197310E-16
5.520000E+03	1.803283E-14	1.221801E-16
5.530000E+03	1.819766E-14	1.249264E-16
5.540000E+03	1.841336E-14	1.279466E-16
5.550000E+03	1.866435E-14	1.312315E-16
5.560000E+03	1.893518E-14	1.347716E-16
5.570000E+03	1.921349E-14	1.381828E-16
5.580000E+03	1.948839E-14	1.411060E-16
5.590000E+03	1.974945E-14	1.433460E-16
5.600000E+03	1.998928E-14	1.447201E-16
5.610000E+03	2.020131E-14	1.452683E-16
5.620000E+03	2.038038E-14	1.452188E-16
5.630000E+03	2.052299E-14	1.446703E-16
5.640000E+03	2.062649E-14	1.438817E-16
5.650000E+03	2.068910E-14	1.431846E-16
5.660000E+03	2.070896E-14	1.425025E-16
5.670000E+03	2.068524E-14	1.418297E-16
5.680000E+03	2.061802E-14	1.412715E-16
5.690000E+03	2.050857E-14	1.406412E-16
5.700000E+03	2.035909E-14	1.398994E-16
5.710000E+03	2.017309E-14	1.391675E-16
5.720000E+03	1.995702E-14	1.383326E-16
5.730000E+03	1.971744E-14	1.374252E-16
5.740000E+03	1.946270E-14	1.365906E-16
5.750000E+03	1.920303E-14	1.356579E-16
5.760000E+03	1.894871E-14	1.345712E-16
5.770000E+03	1.870960E-14	1.334493E-16
5.780000E+03	1.849455E-14	1.322847E-16
5.790000E+03	1.831082E-14	1.312278E-16
5.800000E+03	1.816393E-14	1.305321E-16
5.810000E+03	1.805647E-14	1.301831E-16
5.820000E+03	1.798834E-14	1.302500E-16
5.830000E+03	1.795858E-14	1.308961E-16
5.840000E+03	1.796410E-14	1.320233E-16
5.850000E+03	1.800042E-14	1.335966E-16
5.860000E+03	1.806250E-14	1.356094E-16
5.870000E+03	1.814485E-14	1.376938E-16
5.880000E+03	1.824216E-14	1.395150E-16
5.890000E+03	1.834780E-14	1.408730E-16
5.900000E+03	1.845520E-14	1.415273E-16
5.910000E+03	1.855725E-14	1.414044E-16
5.920000E+03	1.864628E-14	1.406003E-16
5.930000E+03	1.871467E-14	1.391692E-16
5.940000E+03	1.875386E-14	1.373281E-16
5.950000E+03	1.875563E-14	1.353704E-16
5.960000E+03	1.871247E-14	1.332697E-16
5.970000E+03	1.861704E-14	1.310657E-16
5.980000E+03	1.846212E-14	1.288719E-16
5.990000E+03	1.824239E-14	1.265141E-16
6.000000E+03	1.795274E-14	1.239253E-16
6.010000E+03	1.759089E-14	1.211696E-16
6.020000E+03	1.715536E-14	1.180612E-16
6.030000E+03	1.664761E-14	1.145626E-16
6.040000E+03	1.607242E-14	1.107756E-16
6.050000E+03	1.543826E-14	1.066013E-16
6.060000E+03	1.475650E-14	1.020821E-16
6.070000E+03	1.404115E-14	9.738968E-17
6.080000E+03	1.331141E-14	9.255897E-17
6.090000E+03	1.258612E-14	8.772407E-17
6.100000E+03	1.188462E-14	8.308732E-17
6.110000E+03	1.122716E-14	7.867539E-17
6.120000E+03	1.063144E-14	7.457806E-17
6.130000E+03	1.011155E-14	7.094904E-17
6.140000E+03	9.678789E-15	6.784257E-17
6.150000E+03	9.341528E-15	6.536777E-17
6.160000E+03	9.105166E-15	6.365813E-17
6.170000E+03	8.970953E-15	6.269707E-17
6.180000E+03	8.938480E-15	6.250667E-17
6.190000E+03	9.006565E-15	6.315057E-17
6.200000E+03	9.170105E-15	6.454901E-17
6.210000E+03	9.422265E-15	6.665405E-17
6.220000E+03	9.754833E-15	6.946160E-17
6.230000E+03	1.015799E-14	7.284876E-17
6.240000E+03	1.061959E-14	7.670490E-17
6.250000E+03	1.112506E-14	8.093593E-17
6.260000E+03	1.165966E-14	8.531701E-17
6.270000E+03	1.220689E-14	8.962858E-17
6.280000E+03	1.274909E-14	9.371131E-17
6.290000E+03	1.326900E-14	9.738429E-17
6.300000E+03	1.374981E-14	1.005691E-16
6.310000E+03	1.417615E-14	1.032891E-16
6.320000E+03	1.453586E-14	1.055046E-16
6.330000E+03	1.481931E-14	1.072603E-16
6.340000E+03	1.502062E-14	1.086455E-16
6.350000E+03	1.513853E-14	1.095281E-16
6.360000E+03	1.517494E-14	1.098014E-16
6.370000E+03	1.513543E-14	1.094226E-16
6.380000E+03	1.502827E-14	1.081974E-16
6.390000E+03	1.486367E-14	1.060406E-16
6.400000E+03	1.465327E-14	1.030110E-16
6.410000E+03	1.441036E-14	9.913932E-17
6.420000E+03	1.414763E-14	9.465148E-17
6.430000E+03	1.387797E-14	9.002075E-17
6.440000E+03	1.361362E-14	8.581343E-17
6.450000E+03	1.336522E-14	8.277580E-17
6.460000E+03	1.314123E-14	8.163509E-17
6.470000E+03	1.294610E-14	8.247750E-17
6.480000E+03	1.277877E-14	8.476317E-17
6.490000E+03	1.263545E-14	8.785833E-17
6.500000E+03	1.251311E-14	9.117180E-17
6.510000E+03	1.240797E-14	9.433652E-17
6.520000E+03	1.231583E-14	9.718449E-17
6.530000E+03	1.223348E-14	9.957830E-17
6.540000E+03	1.215771E-14	1.015052E-16
6.550000E+03	1.208559E-14	1.030395E-16
6.560000E+03	1.201491E-14	1.041769E-16
6.570000E+03	1.194403E-14	1.049688E-16
6.580000E+03	1.187125E-14	1.055141E-16
6.590000E+03	1.179555E-14	1.058292E-16
6.600000E+03	1.171643E-14	1.059746E-16
6.610000E+03	1.163341E-14	1.060449E-16
6.620000E+03	1.154609E-14	1.060334E-16
6.630000E+03	1.145462E-14	1.059712E-16
6.640000E+03	1.135883E-14	1.059171E-16
6.650000E+03	1.125910E-14	1.058368E-16
6.660000E+03	1.115506E-14	1.057229E-16
6.670000E+03	1.104672E-14	1.056105E-16
6.680000E+03	1.093421E-14	1.054596E-16
6.690000E+03	1.081744E-14	1.052688E-16
6.700000E+03	1.069617E-14	1.050764E-16
6.710000E+03	1.057046E-14	1.048582E-16
6.720000E+03	1.044057E-14	1.046310E-16
6.730000E+03	1.030652E-14	1.044451E-16
6.740000E+03	1.016896E-14	1.042932E-16
6.750000E+03	1.002809E-14	1.041943E-16
6.760000E+03	9.884905E-15	1.042030E-16
6.770000E+03	9.739955E-15	1.043039E-16
6.780000E+03	9.594540E-15	1.045097E-16
6.790000E+03	9.449288E-15	1.048464E-16
6.800000E+03	9.305453E-15	1.052905E-16
6.810000E+03	9.164116E-15	1.058269E-16
6.820000E+03	9.026181E-15	1.064360E-16
6.830000E+03	8.892964E-15	1.070178E-16
6.840000E+03	8.765418E-15	1.074732E-16
6.850000E+03	8.644717E-15	1.077404E-16
6.860000E+03	8.531357E-15	1.077580E-16
6.870000E+03	8.426379E-15	1.075083E-16
6.880000E+03	8.330244E-15	1.070082E-16
6.890000E+03	8.243397E-15	1.062987E-16
6.900000E+03	8.166043E-15	1.054483E-16
6.910000E+03	8.098626E-15	1.045321E-16
6.920000E+03	8.040199E-15	1.035528E-16
6.930000E+03	7.990556E-15	1.025225E-16
6.940000E+03	7.948684E-15	1.014546E-16
6.950000E+03	7.913740E-15	1.003495E-16
6.960000E+03	7.885026E-15	9.922421E-17
6.970000E+03	7.861554E-15	9.810698E-17
6.980000E+03	7.842441E-15	9.701287E-17
6.990000E+03	7.826848E-15	9.597411E-17
7.000000E+03	7.813978E-15	9.503433E-17
7.010000E+03	7.803008E-15	9.420513E-17
7.020000E+03	7.793018E-15	9.350857E-17
7.030000E+03	7.783622E-15	9.297891E-17
7.040000E+03	7.773670E-15	9.259305E-17
7.050000E+03	7.763011E-15	9.234753E-17
7.060000E+03	7.750644E-15	9.223861E-17
7.070000E+03	7.736371E-15	9.223004E-17
7.080000E+03	7.719603E-15	9.229382E-17
7.090000E+03	7.699990E-15	9.242256E-17
7.100000E+03	7.677383E-15	9.258471E-17
7.110000E+03	7.651252E-15	9.276080E-17
7.120000E+03	7.621639E-15	9.295089E-17
7.130000E+03	7.588429E-15	9.311560E-17
7.140000E+03	7.551910E-15	9.323114E-17
7.150000E+03	7.512295E-15	9.328465E-17
7.160000E+03	7.469725E-15	9.323023E-17
7.170000E+03	7.424697E-15	9.304071E-17
7.180000E+03	7.377271E-15	9.270470E-17
7.190000E+03	7.328082E-15	9.220818E-17
7.200000E+03	7.277308E-15	9.155466E-17
7.210000E+03	7.225112E-15	9.077187E-17
7.220000E+03	7.171894E-15	8.988501E-17
7.230000E+03	7.117871E-15	8.893848E-17
7.240000E+03	7.063098E-15	8.798591E-17
7.250000E+03	7.007747E-15	8.704856E-17
7.260000E+03	6.951965E-15	8.615539E-17
7.270000E+03	6.895863E-15	8.534030E-17
7.280000E+03	6.839506E-15	8.459684E-17
7.290000E+03	6.782644E-15	8.392084E-17
7.300000E+03	6.725558E-15	8.332333E-17
7.310000E+03	6.668044E-15	8.277933E-17
7.320000E+03	6.609879E-15	8.227414E-17
7.330000E+03	6.551132E-15	8.180793E-17
7.340000E+03	6.491500E-15	8.135089E-17
7.350000E+03	6.430984E-15	8.089010E-17
7.360000E+03	6.369625E-15	8.042948E-17
7.370000E+03	6.307401E-15	7.995866E-17
7.380000E+03	6.244601E-15	7.948822E-17
7.390000E+03	6.181013E-15	7.903919E-17
7.400000E+03	6.117098E-15	7.862894E-17
7.410000E+03	6.052820E-15	7.828359E-17
7.420000E+03	5.988553E-15	7.804630E-17
7.430000E+03	5.924391E-15	7.793699E-17
7.440000E+03	5.860573E-15	7.798537E-17
7.450000E+03	5.797516E-15	7.822621E-17
7.460000E+03	5.735448E-15	7.865941E-17
7.470000E+03	5.675135E-15	7.929148E-17
7.480000E+03	5.616771E-15	8.011922E-17
7.490000E+03	5.561123E-15	8.111419E-17
7.500000E+03	5.508617E-15	8.224192E-17
7.510000E+03	5.460150E-15	8.348263E-17
7.520000E+03	5.416088E-15	8.480402E-17
7.530000E+03	5.376893E-15	8.618043E-17
7.540000E+03	5.343141E-15	8.758353E-17
7.550000E+03	5.315331E-15	8.895085E-17
7.560000E+03	5.294179E-15	9.022135E-17
7.570000E+03	5.279880E-15	9.133676E-17
7.580000E+03	5.272924E-15	9.225285E-17
7.590000E+03	5.273730E-15	9.293774E-17
7.600000E+03	5.282411E-15	9.336903E-17
7.610000E+03	5.299212E-15	9.354096E-17
7.620000E+03	5.324041E-15	9.345662E-17
7.630000E+03	5.357036E-15	9.313771E-17
7.640000E+03	5.397677E-15	9.260799E-17
7.650000E+03	5.445763E-15	9.191142E-17
7.660000E+03	5.500378E-15	9.109088E-17
7.670000E+03	5.560725E-15	9.019359E-17
7.680000E+03	5.625253E-15	8.926434E-17
7.690000E+03	5.692725E-15	8.836072E-17
7.700000E+03	5.761362E-15	8.752575E-17
7.710000E+03	5.829354E-15	8.680387E-17
7.720000E+03	5.894786E-15	8.622795E-17
7.730000E+03	5.955749E-15	8.578862E-17
7.740000E+03	6.010323E-15	8.546160E-17
7.750000E+03	6.056451E-15	8.521309E-17
7.760000E+03	6.092523E-15	8.499289E-17
