#wls	flux	fluxerr
1.600000E+03	2.733590E-14	6.628894E-15
1.640000E+03	2.276864E-14	5.092332E-15
1.680000E+03	1.875943E-14	3.844388E-15
1.720000E+03	1.529042E-14	2.850081E-15
1.760000E+03	1.233417E-14	2.073901E-15
1.800000E+03	9.854455E-15	1.480974E-15
1.840000E+03	7.804816E-15	1.037850E-15
1.880000E+03	6.139104E-15	7.147576E-16
1.920000E+03	4.807116E-15	4.852439E-16
1.960000E+03	3.759762E-15	3.269850E-16
2.000000E+03	2.950566E-15	2.217423E-16
2.040000E+03	2.337554E-15	1.550389E-16
2.080000E+03	1.883372E-15	1.153486E-16
2.120000E+03	1.555633E-15	9.328221E-17
2.160000E+03	1.327758E-15	8.162367E-17
2.200000E+03	1.179325E-15	7.586475E-17
2.240000E+03	1.096482E-15	7.382892E-17
2.280000E+03	1.071092E-15	7.467818E-17
2.320000E+03	1.099980E-15	7.816931E-17
2.360000E+03	1.184382E-15	8.426284E-17
2.400000E+03	1.329087E-15	9.290813E-17
2.440000E+03	1.541055E-15	1.039164E-16
2.480000E+03	1.827250E-15	1.169624E-16
2.520000E+03	2.190624E-15	1.318137E-16
2.560000E+03	2.626076E-15	1.490434E-16
2.600000E+03	3.116597E-15	1.708184E-16
2.640000E+03	3.632937E-15	2.003543E-16
2.680000E+03	4.135320E-15	2.388324E-16
2.720000E+03	4.580873E-15	2.831721E-16
2.760000E+03	4.933915E-15	3.272696E-16
2.800000E+03	5.172831E-15	3.645400E-16
2.840000E+03	5.292748E-15	3.899135E-16
2.880000E+03	5.304413E-15	4.008246E-16
2.920000E+03	5.229471E-15	3.972247E-16
2.960000E+03	5.096315E-15	3.810900E-16
3.000000E+03	4.934369E-15	3.555044E-16
3.010000E+03	4.892870E-15	3.480471E-16
3.020000E+03	4.851677E-15	3.402640E-16
3.030000E+03	4.811179E-15	3.322065E-16
3.040000E+03	4.771966E-15	3.239389E-16
3.050000E+03	4.734288E-15	3.155004E-16
3.060000E+03	4.698494E-15	3.069361E-16
3.070000E+03	4.665024E-15	2.982953E-16
3.080000E+03	4.634106E-15	2.896114E-16
3.090000E+03	4.606066E-15	2.809226E-16
3.100000E+03	4.581416E-15	2.722759E-16
3.110000E+03	4.560283E-15	2.636926E-16
3.120000E+03	4.543080E-15	2.552090E-16
3.130000E+03	4.530044E-15	2.468483E-16
3.140000E+03	4.521779E-15	2.386515E-16
3.150000E+03	4.518360E-15	2.306276E-16
3.160000E+03	4.520245E-15	2.228032E-16
3.170000E+03	4.527907E-15	2.152021E-16
3.180000E+03	4.541760E-15	2.078412E-16
3.190000E+03	4.562082E-15	2.007278E-16
3.200000E+03	4.589619E-15	1.938861E-16
3.210000E+03	4.624737E-15	1.873196E-16
3.220000E+03	4.668109E-15	1.810404E-16
3.230000E+03	4.720303E-15	1.750523E-16
3.240000E+03	4.782119E-15	1.693641E-16
3.250000E+03	4.854354E-15	1.639806E-16
3.260000E+03	4.937885E-15	1.589063E-16
3.270000E+03	5.033604E-15	1.541440E-16
3.280000E+03	5.142671E-15	1.497043E-16
3.290000E+03	5.266276E-15	1.455983E-16
3.300000E+03	5.405646E-15	1.418397E-16
3.310000E+03	5.562303E-15	1.384533E-16
3.320000E+03	5.737723E-15	1.354664E-16
3.330000E+03	5.933658E-15	1.329168E-16
3.340000E+03	6.151670E-15	1.308366E-16
3.350000E+03	6.393244E-15	1.292485E-16
3.360000E+03	6.659685E-15	1.281688E-16
3.370000E+03	6.951979E-15	1.276055E-16
3.380000E+03	7.270505E-15	1.275500E-16
3.390000E+03	7.614843E-15	1.279817E-16
3.400000E+03	7.983856E-15	1.288740E-16
3.410000E+03	8.374713E-15	1.301783E-16
3.420000E+03	8.783529E-15	1.318435E-16
3.430000E+03	9.204152E-15	1.338002E-16
3.440000E+03	9.628475E-15	1.359613E-16
3.450000E+03	1.004624E-14	1.382270E-16
3.460000E+03	1.044508E-14	1.404823E-16
3.470000E+03	1.081115E-14	1.425913E-16
3.480000E+03	1.112934E-14	1.444047E-16
3.490000E+03	1.138453E-14	1.457725E-16
3.500000E+03	1.156311E-14	1.465448E-16
3.510000E+03	1.165375E-14	1.465899E-16
3.520000E+03	1.164914E-14	1.458143E-16
3.530000E+03	1.154630E-14	1.441521E-16
3.540000E+03	1.134799E-14	1.415956E-16
3.550000E+03	1.106193E-14	1.381865E-16
3.560000E+03	1.070098E-14	1.340096E-16
3.570000E+03	1.028132E-14	1.291892E-16
3.580000E+03	9.821504E-15	1.238834E-16
3.590000E+03	9.341323E-15	1.182667E-16
3.600000E+03	8.859450E-15	1.125177E-16
3.610000E+03	8.393141E-15	1.068198E-16
3.620000E+03	7.957010E-15	1.013367E-16
3.630000E+03	7.562864E-15	9.621515E-17
3.640000E+03	7.219869E-15	9.158231E-17
3.650000E+03	6.934831E-15	8.753821E-17
3.660000E+03	6.712585E-15	8.416142E-17
3.670000E+03	6.556820E-15	8.151400E-17
3.680000E+03	6.469914E-15	7.963124E-17
3.690000E+03	6.454178E-15	7.854380E-17
3.700000E+03	6.511965E-15	7.827840E-17
3.710000E+03	6.645834E-15	7.885336E-17
3.720000E+03	6.858661E-15	8.028747E-17
3.730000E+03	7.153930E-15	8.260358E-17
3.740000E+03	7.535190E-15	8.581472E-17
3.750000E+03	8.006037E-15	8.993178E-17
3.760000E+03	8.569679E-15	9.495746E-17
3.770000E+03	9.228552E-15	1.008703E-16
3.780000E+03	9.983573E-15	1.076302E-16
3.790000E+03	1.083368E-14	1.151809E-16
3.800000E+03	1.177567E-14	1.234415E-16
3.810000E+03	1.280266E-14	1.323082E-16
3.820000E+03	1.390464E-14	1.416655E-16
3.830000E+03	1.506802E-14	1.513672E-16
3.840000E+03	1.627511E-14	1.612528E-16
3.850000E+03	1.750510E-14	1.711606E-16
3.860000E+03	1.873497E-14	1.809097E-16
3.870000E+03	1.994005E-14	1.903296E-16
3.880000E+03	2.109550E-14	1.992712E-16
3.890000E+03	2.217789E-14	2.075752E-16
3.900000E+03	2.316701E-14	2.151166E-16
3.910000E+03	2.404657E-14	2.218003E-16
3.920000E+03	2.480556E-14	2.275181E-16
3.930000E+03	2.543871E-14	2.321934E-16
3.940000E+03	2.594660E-14	2.357836E-16
3.950000E+03	2.633579E-14	2.382372E-16
3.960000E+03	2.661743E-14	2.395477E-16
3.970000E+03	2.680609E-14	2.397635E-16
3.980000E+03	2.691948E-14	2.389524E-16
3.990000E+03	2.697557E-14	2.372489E-16
4.000000E+03	2.699211E-14	2.348731E-16
4.010000E+03	2.698440E-14	2.320642E-16
4.020000E+03	2.696440E-14	2.290963E-16
4.030000E+03	2.694036E-14	2.262257E-16
4.040000E+03	2.691424E-14	2.235809E-16
4.050000E+03	2.688363E-14	2.212402E-16
4.060000E+03	2.684176E-14	2.192337E-16
4.070000E+03	2.677809E-14	2.174861E-16
4.080000E+03	2.667991E-14	2.158979E-16
4.090000E+03	2.653446E-14	2.143546E-16
4.100000E+03	2.632959E-14	2.126585E-16
4.110000E+03	2.605543E-14	2.106215E-16
4.120000E+03	2.570543E-14	2.080899E-16
4.130000E+03	2.527567E-14	2.048870E-16
4.140000E+03	2.476644E-14	2.008957E-16
4.150000E+03	2.418132E-14	1.960520E-16
4.160000E+03	2.352708E-14	1.902920E-16
4.170000E+03	2.281341E-14	1.836327E-16
4.180000E+03	2.205247E-14	1.761931E-16
4.190000E+03	2.125845E-14	1.681492E-16
4.200000E+03	2.044685E-14	1.597716E-16
4.210000E+03	1.963402E-14	1.513978E-16
4.220000E+03	1.883664E-14	1.433562E-16
4.230000E+03	1.807066E-14	1.359784E-16
4.240000E+03	1.735094E-14	1.295476E-16
4.250000E+03	1.669077E-14	1.242176E-16
4.260000E+03	1.610107E-14	1.200625E-16
4.270000E+03	1.558970E-14	1.170672E-16
4.280000E+03	1.516196E-14	1.150884E-16
4.290000E+03	1.482049E-14	1.139390E-16
4.300000E+03	1.456558E-14	1.134263E-16
4.310000E+03	1.439525E-14	1.133274E-16
4.320000E+03	1.430563E-14	1.134446E-16
4.330000E+03	1.429193E-14	1.136343E-16
4.340000E+03	1.434745E-14	1.137827E-16
4.350000E+03	1.446500E-14	1.138397E-16
4.360000E+03	1.463643E-14	1.138124E-16
4.370000E+03	1.485314E-14	1.137461E-16
4.380000E+03	1.510602E-14	1.137593E-16
4.390000E+03	1.538605E-14	1.140270E-16
4.400000E+03	1.568445E-14	1.147086E-16
4.410000E+03	1.599320E-14	1.159600E-16
4.420000E+03	1.630477E-14	1.178481E-16
4.430000E+03	1.661284E-14	1.202229E-16
4.440000E+03	1.691214E-14	1.228171E-16
4.450000E+03	1.719681E-14	1.253592E-16
4.460000E+03	1.746025E-14	1.276026E-16
4.470000E+03	1.769539E-14	1.293922E-16
4.480000E+03	1.789452E-14	1.306435E-16
4.490000E+03	1.805073E-14	1.312763E-16
4.500000E+03	1.815787E-14	1.312721E-16
4.510000E+03	1.821138E-14	1.306852E-16
4.520000E+03	1.820927E-14	1.295921E-16
4.530000E+03	1.815185E-14	1.281398E-16
4.540000E+03	1.804153E-14	1.265154E-16
4.550000E+03	1.788261E-14	1.248542E-16
4.560000E+03	1.768054E-14	1.232944E-16
4.570000E+03	1.744137E-14	1.219465E-16
4.580000E+03	1.717155E-14	1.207977E-16
4.590000E+03	1.687679E-14	1.197879E-16
4.600000E+03	1.656280E-14	1.188343E-16
4.610000E+03	1.623533E-14	1.177840E-16
4.620000E+03	1.589975E-14	1.165105E-16
4.630000E+03	1.556087E-14	1.149614E-16
4.640000E+03	1.522435E-14	1.131451E-16
4.650000E+03	1.489450E-14	1.111524E-16
4.660000E+03	1.457608E-14	1.091516E-16
4.670000E+03	1.427270E-14	1.073117E-16
4.680000E+03	1.398708E-14	1.058007E-16
4.690000E+03	1.372066E-14	1.047174E-16
4.700000E+03	1.347322E-14	1.040090E-16
4.710000E+03	1.324353E-14	1.035621E-16
4.720000E+03	1.302889E-14	1.032589E-16
4.730000E+03	1.282581E-14	1.029741E-16
4.740000E+03	1.263033E-14	1.026135E-16
4.750000E+03	1.243791E-14	1.021065E-16
4.760000E+03	1.224476E-14	1.013794E-16
4.770000E+03	1.204681E-14	1.003686E-16
4.780000E+03	1.184165E-14	9.902730E-17
4.790000E+03	1.162796E-14	9.729277E-17
4.800000E+03	1.140569E-14	9.513171E-17
4.810000E+03	1.117678E-14	9.256605E-17
4.820000E+03	1.094497E-14	8.965587E-17
4.830000E+03	1.071508E-14	8.651631E-17
4.840000E+03	1.049330E-14	8.331055E-17
4.850000E+03	1.028665E-14	8.020691E-17
4.860000E+03	1.010217E-14	7.737584E-17
4.870000E+03	9.946298E-15	7.495076E-17
4.880000E+03	9.824390E-15	7.298098E-17
4.890000E+03	9.740228E-15	7.148198E-17
4.900000E+03	9.696033E-15	7.046255E-17
4.910000E+03	9.691582E-15	6.990425E-17
4.920000E+03	9.725326E-15	6.980340E-17
4.930000E+03	9.794493E-15	7.015737E-17
4.940000E+03	9.895287E-15	7.091805E-17
4.950000E+03	1.002355E-14	7.203369E-17
4.960000E+03	1.017486E-14	7.345403E-17
4.970000E+03	1.034539E-14	7.509909E-17
4.980000E+03	1.053146E-14	7.688838E-17
4.990000E+03	1.072989E-14	7.874297E-17
5.000000E+03	1.093803E-14	8.055000E-17
5.010000E+03	1.115387E-14	8.221235E-17
5.020000E+03	1.137503E-14	8.366808E-17
5.030000E+03	1.159927E-14	8.488089E-17
5.040000E+03	1.182418E-14	8.587047E-17
5.050000E+03	1.204666E-14	8.669866E-17
5.060000E+03	1.226312E-14	8.742291E-17
5.070000E+03	1.246940E-14	8.811881E-17
5.080000E+03	1.266091E-14	8.885014E-17
5.090000E+03	1.283279E-14	8.959971E-17
5.100000E+03	1.298036E-14	9.032966E-17
5.110000E+03	1.309964E-14	9.100336E-17
5.120000E+03	1.318734E-14	9.154634E-17
5.130000E+03	1.324174E-14	9.191235E-17
5.140000E+03	1.326137E-14	9.208793E-17
5.150000E+03	1.324637E-14	9.206170E-17
5.160000E+03	1.319714E-14	9.185456E-17
5.170000E+03	1.311446E-14	9.150401E-17
5.180000E+03	1.299905E-14	9.099943E-17
5.190000E+03	1.285174E-14	9.033629E-17
5.200000E+03	1.267404E-14	8.952507E-17
5.210000E+03	1.246809E-14	8.854403E-17
5.220000E+03	1.223750E-14	8.738555E-17
5.230000E+03	1.198676E-14	8.603685E-17
5.240000E+03	1.172278E-14	8.444120E-17
5.250000E+03	1.145335E-14	8.257479E-17
5.260000E+03	1.118649E-14	8.048299E-17
5.270000E+03	1.092981E-14	7.824385E-17
5.280000E+03	1.069032E-14	7.597618E-17
5.290000E+03	1.047311E-14	7.378869E-17
5.300000E+03	1.028116E-14	7.172147E-17
5.310000E+03	1.011537E-14	6.979090E-17
5.320000E+03	9.974886E-15	6.799883E-17
5.330000E+03	9.856464E-15	6.629668E-17
5.340000E+03	9.755709E-15	6.465145E-17
5.350000E+03	9.667466E-15	6.305381E-17
5.360000E+03	9.586556E-15	6.148128E-17
5.370000E+03	9.507659E-15	5.994020E-17
5.380000E+03	9.426764E-15	5.846409E-17
5.390000E+03	9.341170E-15	5.706298E-17
5.400000E+03	9.249658E-15	5.577702E-17
5.410000E+03	9.152380E-15	5.467604E-17
5.420000E+03	9.051350E-15	5.381513E-17
5.430000E+03	8.949658E-15	5.328429E-17
5.440000E+03	8.850446E-15	5.318699E-17
5.450000E+03	8.757591E-15	5.353512E-17
5.460000E+03	8.675755E-15	5.421783E-17
5.470000E+03	8.610088E-15	5.506122E-17
5.480000E+03	8.564947E-15	5.590734E-17
5.490000E+03	8.542844E-15	5.668369E-17
5.500000E+03	8.545079E-15	5.740822E-17
5.510000E+03	8.571071E-15	5.813643E-17
5.520000E+03	8.619198E-15	5.895315E-17
5.530000E+03	8.686502E-15	5.990474E-17
5.540000E+03	8.769587E-15	6.092687E-17
5.550000E+03	8.864371E-15	6.190561E-17
5.560000E+03	8.966756E-15	6.273833E-17
5.570000E+03	9.072188E-15	6.333497E-17
5.580000E+03	9.176259E-15	6.366137E-17
5.590000E+03	9.274522E-15	6.373505E-17
5.600000E+03	9.362923E-15	6.358996E-17
5.610000E+03	9.437435E-15	6.329488E-17
5.620000E+03	9.494732E-15	6.292918E-17
5.630000E+03	9.532227E-15	6.252192E-17
5.640000E+03	9.548040E-15	6.210034E-17
5.650000E+03	9.541301E-15	6.169659E-17
5.660000E+03	9.512003E-15	6.130167E-17
5.670000E+03	9.461267E-15	6.092156E-17
5.680000E+03	9.390976E-15	6.057428E-17
5.690000E+03	9.303595E-15	6.023706E-17
5.700000E+03	9.202190E-15	5.989913E-17
5.710000E+03	9.090388E-15	5.956401E-17
5.720000E+03	8.972495E-15	5.920384E-17
5.730000E+03	8.852736E-15	5.880566E-17
5.740000E+03	8.735798E-15	5.837878E-17
5.750000E+03	8.626042E-15	5.790721E-17
5.760000E+03	8.527407E-15	5.739538E-17
5.770000E+03	8.443323E-15	5.687418E-17
5.780000E+03	8.376168E-15	5.636191E-17
5.790000E+03	8.327120E-15	5.589666E-17
5.800000E+03	8.296154E-15	5.552915E-17
5.810000E+03	8.281728E-15	5.527846E-17
5.820000E+03	8.280633E-15	5.516786E-17
5.830000E+03	8.288763E-15	5.522062E-17
5.840000E+03	8.300624E-15	5.540682E-17
5.850000E+03	8.310017E-15	5.568784E-17
5.860000E+03	8.310681E-15	5.601762E-17
5.870000E+03	8.296237E-15	5.629712E-17
5.880000E+03	8.261347E-15	5.642932E-17
5.890000E+03	8.201572E-15	5.633170E-17
5.900000E+03	8.114080E-15	5.591449E-17
5.910000E+03	7.997705E-15	5.512975E-17
5.920000E+03	7.852991E-15	5.398613E-17
5.930000E+03	7.682233E-15	5.252160E-17
5.940000E+03	7.488899E-15	5.082096E-17
5.950000E+03	7.277719E-15	4.899194E-17
5.960000E+03	7.054179E-15	4.711134E-17
5.970000E+03	6.824012E-15	4.525440E-17
5.980000E+03	6.592599E-15	4.348537E-17
5.990000E+03	6.364917E-15	4.182357E-17
6.000000E+03	6.144841E-15	4.028189E-17
6.010000E+03	5.935749E-15	3.887684E-17
6.020000E+03	5.739366E-15	3.759458E-17
6.030000E+03	5.556844E-15	3.643164E-17
6.040000E+03	5.388856E-15	3.539444E-17
6.050000E+03	5.235429E-15	3.446947E-17
6.060000E+03	5.096566E-15	3.365333E-17
6.070000E+03	4.972402E-15	3.295188E-17
6.080000E+03	4.863686E-15	3.235806E-17
6.090000E+03	4.771313E-15	3.187233E-17
6.100000E+03	4.696941E-15	3.150699E-17
6.110000E+03	4.642498E-15	3.126210E-17
6.120000E+03	4.610227E-15	3.114767E-17
6.130000E+03	4.602474E-15	3.118070E-17
6.140000E+03	4.621443E-15	3.136169E-17
6.150000E+03	4.669009E-15	3.169720E-17
6.160000E+03	4.746624E-15	3.220187E-17
6.170000E+03	4.854947E-15	3.287527E-17
6.180000E+03	4.993577E-15	3.372110E-17
6.190000E+03	5.161383E-15	3.475139E-17
6.200000E+03	5.355987E-15	3.596154E-17
6.210000E+03	5.573836E-15	3.734973E-17
6.220000E+03	5.810221E-15	3.891262E-17
6.230000E+03	6.059562E-15	4.061646E-17
6.240000E+03	6.315592E-15	4.242034E-17
6.250000E+03	6.571483E-15	4.427718E-17
6.260000E+03	6.820629E-15	4.611044E-17
6.270000E+03	7.056609E-15	4.784699E-17
6.280000E+03	7.273643E-15	4.943134E-17
6.290000E+03	7.466800E-15	5.080352E-17
6.300000E+03	7.632194E-15	5.193614E-17
6.310000E+03	7.767200E-15	5.283728E-17
6.320000E+03	7.870499E-15	5.351106E-17
6.330000E+03	7.941761E-15	5.397806E-17
6.340000E+03	7.981896E-15	5.426336E-17
6.350000E+03	7.992673E-15	5.435038E-17
6.360000E+03	7.976351E-15	5.421940E-17
6.370000E+03	7.936022E-15	5.386511E-17
6.380000E+03	7.874857E-15	5.326868E-17
6.390000E+03	7.796274E-15	5.243727E-17
6.400000E+03	7.703920E-15	5.140547E-17
6.410000E+03	7.601839E-15	5.020715E-17
6.420000E+03	7.493885E-15	4.891121E-17
6.430000E+03	7.384427E-15	4.763092E-17
6.440000E+03	7.277771E-15	4.648725E-17
6.450000E+03	7.177944E-15	4.562621E-17
6.460000E+03	7.088199E-15	4.517539E-17
6.470000E+03	7.009896E-15	4.513952E-17
6.480000E+03	6.942379E-15	4.541734E-17
6.490000E+03	6.883626E-15	4.587487E-17
6.500000E+03	6.831897E-15	4.638081E-17
6.510000E+03	6.785343E-15	4.684931E-17
6.520000E+03	6.742194E-15	4.724031E-17
6.530000E+03	6.701165E-15	4.752801E-17
6.540000E+03	6.661076E-15	4.771359E-17
6.550000E+03	6.620926E-15	4.781658E-17
6.560000E+03	6.579938E-15	4.784388E-17
6.570000E+03	6.537597E-15	4.781232E-17
6.580000E+03	6.493335E-15	4.774416E-17
6.590000E+03	6.446905E-15	4.764363E-17
6.600000E+03	6.398313E-15	4.752154E-17
6.610000E+03	6.347600E-15	4.739309E-17
6.620000E+03	6.294883E-15	4.725344E-17
6.630000E+03	6.240573E-15	4.710460E-17
6.640000E+03	6.184890E-15	4.695307E-17
6.650000E+03	6.128380E-15	4.679135E-17
6.660000E+03	6.071119E-15	4.661633E-17
6.670000E+03	6.013314E-15	4.643486E-17
6.680000E+03	5.955199E-15	4.624118E-17
6.690000E+03	5.896834E-15	4.603685E-17
6.700000E+03	5.838144E-15	4.583025E-17
6.710000E+03	5.779185E-15	4.561714E-17
6.720000E+03	5.720136E-15	4.540141E-17
6.730000E+03	5.661029E-15	4.519303E-17
6.740000E+03	5.602212E-15	4.499196E-17
6.750000E+03	5.543794E-15	4.480387E-17
6.760000E+03	5.486320E-15	4.464583E-17
6.770000E+03	5.429993E-15	4.452079E-17
6.780000E+03	5.375389E-15	4.444105E-17
6.790000E+03	5.322628E-15	4.442007E-17
6.800000E+03	5.272056E-15	4.445831E-17
6.810000E+03	5.223826E-15	4.455494E-17
6.820000E+03	5.177901E-15	4.470559E-17
6.830000E+03	5.134378E-15	4.488754E-17
6.840000E+03	5.093088E-15	4.507555E-17
6.850000E+03	5.054011E-15	4.524948E-17
6.860000E+03	5.016856E-15	4.537817E-17
6.870000E+03	4.981701E-15	4.544439E-17
6.880000E+03	4.948358E-15	4.544229E-17
6.890000E+03	4.916814E-15	4.536758E-17
6.900000E+03	4.886976E-15	4.522839E-17
6.910000E+03	4.859019E-15	4.504525E-17
6.920000E+03	4.832673E-15	4.482680E-17
6.930000E+03	4.808180E-15	4.459062E-17
6.940000E+03	4.785260E-15	4.435114E-17
6.950000E+03	4.763813E-15	4.411079E-17
6.960000E+03	4.743790E-15	4.387411E-17
6.970000E+03	4.724961E-15	4.364835E-17
6.980000E+03	4.707253E-15	4.343510E-17
6.990000E+03	4.690618E-15	4.324216E-17
7.000000E+03	4.675020E-15	4.308240E-17
7.010000E+03	4.660468E-15	4.295967E-17
7.020000E+03	4.646864E-15	4.287847E-17
7.030000E+03	4.634348E-15	4.284450E-17
7.040000E+03	4.622583E-15	4.284365E-17
7.050000E+03	4.611718E-15	4.286569E-17
7.060000E+03	4.601272E-15	4.289880E-17
7.070000E+03	4.591171E-15	4.293073E-17
7.080000E+03	4.580994E-15	4.295319E-17
7.090000E+03	4.570369E-15	4.296601E-17
7.100000E+03	4.559012E-15	4.296726E-17
7.110000E+03	4.546364E-15	4.295873E-17
7.120000E+03	4.532173E-15	4.294760E-17
7.130000E+03	4.516096E-15	4.292882E-17
7.140000E+03	4.498035E-15	4.290033E-17
7.150000E+03	4.477872E-15	4.286071E-17
7.160000E+03	4.455512E-15	4.279781E-17
7.170000E+03	4.431108E-15	4.270368E-17
7.180000E+03	4.404608E-15	4.257139E-17
7.190000E+03	4.376431E-15	4.239109E-17
7.200000E+03	4.346768E-15	4.215647E-17
7.210000E+03	4.315835E-15	4.186890E-17
7.220000E+03	4.284076E-15	4.152923E-17
7.230000E+03	4.251836E-15	4.114549E-17
7.240000E+03	4.219339E-15	4.073163E-17
7.250000E+03	4.186882E-15	4.029717E-17
7.260000E+03	4.154701E-15	3.985542E-17
7.270000E+03	4.122969E-15	3.942138E-17
7.280000E+03	4.091819E-15	3.900001E-17
7.290000E+03	4.061146E-15	3.859517E-17
7.300000E+03	4.031126E-15	3.821480E-17
7.310000E+03	4.001668E-15	3.785541E-17
7.320000E+03	3.972647E-15	3.751548E-17
7.330000E+03	3.944087E-15	3.719717E-17
7.340000E+03	3.915803E-15	3.689250E-17
7.350000E+03	3.887774E-15	3.659791E-17
7.360000E+03	3.859967E-15	3.631311E-17
7.370000E+03	3.832288E-15	3.603097E-17
7.380000E+03	3.804784E-15	3.575028E-17
7.390000E+03	3.777146E-15	3.547117E-17
7.400000E+03	3.749445E-15	3.519202E-17
7.410000E+03	3.721399E-15	3.491316E-17
7.420000E+03	3.692932E-15	3.464198E-17
7.430000E+03	3.663814E-15	3.437903E-17
7.440000E+03	3.633901E-15	3.412956E-17
7.450000E+03	3.603198E-15	3.390264E-17
7.460000E+03	3.571688E-15	3.369892E-17
7.470000E+03	3.539764E-15	3.352495E-17
7.480000E+03	3.507558E-15	3.338706E-17
7.490000E+03	3.475683E-15	3.328856E-17
7.500000E+03	3.444600E-15	3.323311E-17
7.510000E+03	3.415078E-15	3.322831E-17
7.520000E+03	3.387588E-15	3.326956E-17
7.530000E+03	3.362619E-15	3.335169E-17
7.540000E+03	3.340647E-15	3.346779E-17
7.550000E+03	3.321975E-15	3.359818E-17
7.560000E+03	3.306950E-15	3.372341E-17
7.570000E+03	3.295528E-15	3.382326E-17
7.580000E+03	3.287797E-15	3.387655E-17
7.590000E+03	3.283752E-15	3.386799E-17
7.600000E+03	3.283146E-15	3.378849E-17
7.610000E+03	3.285785E-15	3.363260E-17
7.620000E+03	3.291207E-15	3.340365E-17
7.630000E+03	3.299009E-15	3.311718E-17
7.640000E+03	3.308266E-15	3.278674E-17
7.650000E+03	3.318055E-15	3.243446E-17
7.660000E+03	3.326754E-15	3.207827E-17
7.670000E+03	3.332570E-15	3.172331E-17
7.680000E+03	3.333020E-15	3.136481E-17
7.690000E+03	3.325677E-15	3.099445E-17
7.700000E+03	3.307783E-15	3.058711E-17
7.710000E+03	3.276748E-15	3.011660E-17
7.720000E+03	3.230282E-15	2.955857E-17
7.730000E+03	3.166604E-15	2.888433E-17
7.740000E+03	3.084618E-15	2.807415E-17
7.750000E+03	2.984027E-15	2.711883E-17
7.760000E+03	2.865728E-15	2.601474E-17
