#wls	flux	fluxerr
1.600000E+03	4.285189E-14	9.581820E-15
1.640000E+03	3.597377E-14	7.346874E-15
1.680000E+03	2.983265E-14	5.517255E-15
1.720000E+03	2.443031E-14	4.050478E-15
1.760000E+03	1.975251E-14	2.901053E-15
1.800000E+03	1.576882E-14	2.022248E-15
1.840000E+03	1.242928E-14	1.367518E-15
1.880000E+03	9.680440E-15	8.940239E-16
1.920000E+03	7.457952E-15	5.626300E-16
1.960000E+03	5.694838E-15	3.395545E-16
2.000000E+03	4.324189E-15	1.969708E-16
2.040000E+03	3.282728E-15	1.134299E-16
2.080000E+03	2.511988E-15	7.288343E-17
2.120000E+03	1.959865E-15	5.904516E-17
2.160000E+03	1.581785E-15	5.517767E-17
2.200000E+03	1.341613E-15	5.389917E-17
2.240000E+03	1.213534E-15	5.425760E-17
2.280000E+03	1.182711E-15	5.689072E-17
2.320000E+03	1.245533E-15	6.250545E-17
2.360000E+03	1.410755E-15	7.164280E-17
2.400000E+03	1.700824E-15	8.458158E-17
2.440000E+03	2.151908E-15	1.009726E-16
2.480000E+03	2.810942E-15	1.192437E-16
2.520000E+03	3.724874E-15	1.363260E-16
2.560000E+03	4.920169E-15	1.499604E-16
2.600000E+03	6.371581E-15	1.681074E-16
2.640000E+03	7.979724E-15	2.188991E-16
2.680000E+03	9.600388E-15	3.192806E-16
2.720000E+03	1.108897E-14	4.534415E-16
2.760000E+03	1.232295E-14	5.962004E-16
2.800000E+03	1.322390E-14	7.244077E-16
2.840000E+03	1.376773E-14	8.207726E-16
2.880000E+03	1.398165E-14	8.758751E-16
2.920000E+03	1.392932E-14	8.880812E-16
2.960000E+03	1.369651E-14	8.619778E-16
3.000000E+03	1.337306E-14	8.056156E-16
3.010000E+03	1.328864E-14	7.878981E-16
3.020000E+03	1.320500E-14	7.689945E-16
3.030000E+03	1.312333E-14	7.490405E-16
3.040000E+03	1.304537E-14	7.281992E-16
3.050000E+03	1.297190E-14	7.065761E-16
3.060000E+03	1.290398E-14	6.842881E-16
3.070000E+03	1.284292E-14	6.614605E-16
3.080000E+03	1.278941E-14	6.381826E-16
3.090000E+03	1.274442E-14	6.145540E-16
3.100000E+03	1.270943E-14	5.906939E-16
3.110000E+03	1.268481E-14	5.666669E-16
3.120000E+03	1.267174E-14	5.425733E-16
3.130000E+03	1.267086E-14	5.184904E-16
3.140000E+03	1.268383E-14	4.945393E-16
3.150000E+03	1.271078E-14	4.707846E-16
3.160000E+03	1.275288E-14	4.473413E-16
3.170000E+03	1.281129E-14	4.243355E-16
3.180000E+03	1.288697E-14	4.019016E-16
3.190000E+03	1.298041E-14	3.801820E-16
3.200000E+03	1.309337E-14	3.593793E-16
3.210000E+03	1.322655E-14	3.396766E-16
3.220000E+03	1.338164E-14	3.212721E-16
3.230000E+03	1.356024E-14	3.043258E-16
3.240000E+03	1.376478E-14	2.889845E-16
3.250000E+03	1.399769E-14	2.753600E-16
3.260000E+03	1.426158E-14	2.635251E-16
3.270000E+03	1.455895E-14	2.535173E-16
3.280000E+03	1.489274E-14	2.453501E-16
3.290000E+03	1.526548E-14	2.389897E-16
3.300000E+03	1.567923E-14	2.343734E-16
3.310000E+03	1.613629E-14	2.314287E-16
3.320000E+03	1.663807E-14	2.300491E-16
3.330000E+03	1.718618E-14	2.301187E-16
3.340000E+03	1.778168E-14	2.314851E-16
3.350000E+03	1.842600E-14	2.339468E-16
3.360000E+03	1.912053E-14	2.372721E-16
3.370000E+03	1.986653E-14	2.412216E-16
3.380000E+03	2.066505E-14	2.455529E-16
3.390000E+03	2.151616E-14	2.500486E-16
3.400000E+03	2.241930E-14	2.545493E-16
3.410000E+03	2.337125E-14	2.589393E-16
3.420000E+03	2.436784E-14	2.632014E-16
3.430000E+03	2.540073E-14	2.673919E-16
3.440000E+03	2.645891E-14	2.716480E-16
3.450000E+03	2.752772E-14	2.762068E-16
3.460000E+03	2.858811E-14	2.813765E-16
3.470000E+03	2.961662E-14	2.874121E-16
3.480000E+03	3.058110E-14	2.942984E-16
3.490000E+03	3.143964E-14	3.015832E-16
3.500000E+03	3.214418E-14	3.084664E-16
3.510000E+03	3.264523E-14	3.140653E-16
3.520000E+03	3.289860E-14	3.176138E-16
3.530000E+03	3.286801E-14	3.185240E-16
3.540000E+03	3.253218E-14	3.165000E-16
3.550000E+03	3.188588E-14	3.115063E-16
3.560000E+03	3.094334E-14	3.037141E-16
3.570000E+03	2.973596E-14	2.934852E-16
3.580000E+03	2.831167E-14	2.813293E-16
3.590000E+03	2.673176E-14	2.678121E-16
3.600000E+03	2.506215E-14	2.535069E-16
3.610000E+03	2.337033E-14	2.389676E-16
3.620000E+03	2.171916E-14	2.246575E-16
3.630000E+03	2.016197E-14	2.109777E-16
3.640000E+03	1.874014E-14	1.982803E-16
3.650000E+03	1.748325E-14	1.868543E-16
3.660000E+03	1.640987E-14	1.769352E-16
3.670000E+03	1.553036E-14	1.687161E-16
3.680000E+03	1.484805E-14	1.623246E-16
3.690000E+03	1.436291E-14	1.578449E-16
3.700000E+03	1.407173E-14	1.552860E-16
3.710000E+03	1.396904E-14	1.545657E-16
3.720000E+03	1.404903E-14	1.555626E-16
3.730000E+03	1.430781E-14	1.581715E-16
3.740000E+03	1.474306E-14	1.623020E-16
3.750000E+03	1.535413E-14	1.678772E-16
3.760000E+03	1.614120E-14	1.747962E-16
3.770000E+03	1.710451E-14	1.828942E-16
3.780000E+03	1.824312E-14	1.919550E-16
3.790000E+03	1.955434E-14	2.017480E-16
3.800000E+03	2.103344E-14	2.120618E-16
3.810000E+03	2.267104E-14	2.227378E-16
3.820000E+03	2.445386E-14	2.337299E-16
3.830000E+03	2.636346E-14	2.451146E-16
3.840000E+03	2.837484E-14	2.570838E-16
3.850000E+03	3.045739E-14	2.698326E-16
3.860000E+03	3.257525E-14	2.833912E-16
3.870000E+03	3.468757E-14	2.976516E-16
3.880000E+03	3.675019E-14	3.124391E-16
3.890000E+03	3.871741E-14	3.275076E-16
3.900000E+03	4.054562E-14	3.425996E-16
3.910000E+03	4.219560E-14	3.573759E-16
3.920000E+03	4.363611E-14	3.712945E-16
3.930000E+03	4.484586E-14	3.837117E-16
3.940000E+03	4.581501E-14	3.939771E-16
3.950000E+03	4.654656E-14	4.014488E-16
3.960000E+03	4.705458E-14	4.056420E-16
3.970000E+03	4.736260E-14	4.063388E-16
3.980000E+03	4.750353E-14	4.036064E-16
3.990000E+03	4.751412E-14	3.978426E-16
4.000000E+03	4.743382E-14	3.897844E-16
4.010000E+03	4.730056E-14	3.803886E-16
4.020000E+03	4.714742E-14	3.707235E-16
4.030000E+03	4.699970E-14	3.616952E-16
4.040000E+03	4.686918E-14	3.537871E-16
4.050000E+03	4.675709E-14	3.472434E-16
4.060000E+03	4.665348E-14	3.421737E-16
4.070000E+03	4.653795E-14	3.385227E-16
4.080000E+03	4.638348E-14	3.361950E-16
4.090000E+03	4.616194E-14	3.349979E-16
4.100000E+03	4.584640E-14	3.344706E-16
4.110000E+03	4.541468E-14	3.340526E-16
4.120000E+03	4.485239E-14	3.331629E-16
4.130000E+03	4.415242E-14	3.311372E-16
4.140000E+03	4.331680E-14	3.274460E-16
4.150000E+03	4.235356E-14	3.218024E-16
4.160000E+03	4.127619E-14	3.141237E-16
4.170000E+03	4.010245E-14	3.045673E-16
4.180000E+03	3.885325E-14	2.934596E-16
4.190000E+03	3.755182E-14	2.811700E-16
4.200000E+03	3.622276E-14	2.681444E-16
4.210000E+03	3.489147E-14	2.548621E-16
4.220000E+03	3.358367E-14	2.417447E-16
4.230000E+03	3.232401E-14	2.292186E-16
4.240000E+03	3.113605E-14	2.176947E-16
4.250000E+03	3.004194E-14	2.074839E-16
4.260000E+03	2.906065E-14	1.988517E-16
4.270000E+03	2.820674E-14	1.919626E-16
4.280000E+03	2.749125E-14	1.867902E-16
4.290000E+03	2.692050E-14	1.832090E-16
4.300000E+03	2.649541E-14	1.809933E-16
4.310000E+03	2.621099E-14	1.797596E-16
4.320000E+03	2.605699E-14	1.791478E-16
4.330000E+03	2.601915E-14	1.789727E-16
4.340000E+03	2.607741E-14	1.792161E-16
4.350000E+03	2.620916E-14	1.800557E-16
4.360000E+03	2.639051E-14	1.817231E-16
4.370000E+03	2.660092E-14	1.842679E-16
4.380000E+03	2.682650E-14	1.875463E-16
4.390000E+03	2.705988E-14	1.913674E-16
4.400000E+03	2.729756E-14	1.955838E-16
4.410000E+03	2.753920E-14	2.001601E-16
4.420000E+03	2.778599E-14	2.050808E-16
4.430000E+03	2.804064E-14	2.102068E-16
4.440000E+03	2.830664E-14	2.153111E-16
4.450000E+03	2.858480E-14	2.200976E-16
4.460000E+03	2.887226E-14	2.241885E-16
4.470000E+03	2.916287E-14	2.272431E-16
4.480000E+03	2.944677E-14	2.290495E-16
4.490000E+03	2.971235E-14	2.295513E-16
4.500000E+03	2.994627E-14	2.288731E-16
4.510000E+03	3.013497E-14	2.272670E-16
4.520000E+03	3.026637E-14	2.250250E-16
4.530000E+03	3.033049E-14	2.224926E-16
4.540000E+03	3.032062E-14	2.200032E-16
4.550000E+03	3.023410E-14	2.177708E-16
4.560000E+03	3.007148E-14	2.159644E-16
4.570000E+03	2.983589E-14	2.147167E-16
4.580000E+03	2.953335E-14	2.140528E-16
4.590000E+03	2.917018E-14	2.139334E-16
4.600000E+03	2.875401E-14	2.142282E-16
4.610000E+03	2.829368E-14	2.146390E-16
4.620000E+03	2.779828E-14	2.148427E-16
4.630000E+03	2.727666E-14	2.146051E-16
4.640000E+03	2.673981E-14	2.137988E-16
4.650000E+03	2.619684E-14	2.124248E-16
4.660000E+03	2.565789E-14	2.106249E-16
4.670000E+03	2.513137E-14	2.085882E-16
4.680000E+03	2.462426E-14	2.065354E-16
4.690000E+03	2.414137E-14	2.046459E-16
4.700000E+03	2.368497E-14	2.029795E-16
4.710000E+03	2.325568E-14	2.015421E-16
4.720000E+03	2.285161E-14	2.003208E-16
4.730000E+03	2.246960E-14	1.992756E-16
4.740000E+03	2.210563E-14	1.983510E-16
4.750000E+03	2.175431E-14	1.974306E-16
4.760000E+03	2.141092E-14	1.963100E-16
4.770000E+03	2.106952E-14	1.947442E-16
4.780000E+03	2.072575E-14	1.925353E-16
4.790000E+03	2.037574E-14	1.895365E-16
4.800000E+03	2.001641E-14	1.856955E-16
4.810000E+03	1.964702E-14	1.810812E-16
4.820000E+03	1.926881E-14	1.758562E-16
4.830000E+03	1.888454E-14	1.702470E-16
4.840000E+03	1.850013E-14	1.644892E-16
4.850000E+03	1.812392E-14	1.587610E-16
4.860000E+03	1.776552E-14	1.532056E-16
4.870000E+03	1.743489E-14	1.479443E-16
4.880000E+03	1.714160E-14	1.430651E-16
4.890000E+03	1.689343E-14	1.386540E-16
4.900000E+03	1.669615E-14	1.348032E-16
4.910000E+03	1.655211E-14	1.315819E-16
4.920000E+03	1.646169E-14	1.290655E-16
4.930000E+03	1.642299E-14	1.273058E-16
4.940000E+03	1.643205E-14	1.262831E-16
4.950000E+03	1.648416E-14	1.259448E-16
4.960000E+03	1.657420E-14	1.261986E-16
4.970000E+03	1.669796E-14	1.268873E-16
4.980000E+03	1.685160E-14	1.278433E-16
4.990000E+03	1.703213E-14	1.289307E-16
5.000000E+03	1.723719E-14	1.300343E-16
5.010000E+03	1.746542E-14	1.311078E-16
5.020000E+03	1.771485E-14	1.321662E-16
5.030000E+03	1.798356E-14	1.332567E-16
5.040000E+03	1.826925E-14	1.344740E-16
5.050000E+03	1.856812E-14	1.359161E-16
5.060000E+03	1.887505E-14	1.376165E-16
5.070000E+03	1.918343E-14	1.395806E-16
5.080000E+03	1.948539E-14	1.417866E-16
5.090000E+03	1.977168E-14	1.441370E-16
5.100000E+03	2.003260E-14	1.465169E-16
5.110000E+03	2.025889E-14	1.488112E-16
5.120000E+03	2.044151E-14	1.508628E-16
5.130000E+03	2.057355E-14	1.525418E-16
5.140000E+03	2.064874E-14	1.537511E-16
5.150000E+03	2.066384E-14	1.544133E-16
5.160000E+03	2.061686E-14	1.545183E-16
5.170000E+03	2.050747E-14	1.541506E-16
5.180000E+03	2.033661E-14	1.534382E-16
5.190000E+03	2.010633E-14	1.525312E-16
5.200000E+03	1.982046E-14	1.515110E-16
5.210000E+03	1.948428E-14	1.502991E-16
5.220000E+03	1.910549E-14	1.487562E-16
5.230000E+03	1.869289E-14	1.467610E-16
5.240000E+03	1.825824E-14	1.442439E-16
5.250000E+03	1.781434E-14	1.412301E-16
5.260000E+03	1.737441E-14	1.378463E-16
5.270000E+03	1.695103E-14	1.342716E-16
5.280000E+03	1.655605E-14	1.307141E-16
5.290000E+03	1.619849E-14	1.273242E-16
5.300000E+03	1.588446E-14	1.241323E-16
5.310000E+03	1.561688E-14	1.211033E-16
5.320000E+03	1.539590E-14	1.181841E-16
5.330000E+03	1.521801E-14	1.152977E-16
5.340000E+03	1.507753E-14	1.123883E-16
5.350000E+03	1.496692E-14	1.094197E-16
5.360000E+03	1.487756E-14	1.063572E-16
5.370000E+03	1.479971E-14	1.032024E-16
5.380000E+03	1.472464E-14	1.000079E-16
5.390000E+03	1.464456E-14	9.685034E-17
5.400000E+03	1.455339E-14	9.388105E-17
5.410000E+03	1.444721E-14	9.131374E-17
5.420000E+03	1.432547E-14	8.936793E-17
5.430000E+03	1.419052E-14	8.826320E-17
5.440000E+03	1.404703E-14	8.811812E-17
5.450000E+03	1.390332E-14	8.881917E-17
5.460000E+03	1.376979E-14	9.007688E-17
5.470000E+03	1.365754E-14	9.159271E-17
5.480000E+03	1.357673E-14	9.317448E-17
5.490000E+03	1.353437E-14	9.477703E-17
5.500000E+03	1.353471E-14	9.645617E-17
5.510000E+03	1.357778E-14	9.827791E-17
5.520000E+03	1.366089E-14	1.003139E-16
5.530000E+03	1.377856E-14	1.025976E-16
5.540000E+03	1.392413E-14	1.050745E-16
5.550000E+03	1.408968E-14	1.076275E-16
5.560000E+03	1.426763E-14	1.101049E-16
5.570000E+03	1.445040E-14	1.123051E-16
5.580000E+03	1.463127E-14	1.140380E-16
5.590000E+03	1.480395E-14	1.151696E-16
5.600000E+03	1.496305E-14	1.156379E-16
5.610000E+03	1.510339E-14	1.154682E-16
5.620000E+03	1.522066E-14	1.147646E-16
5.630000E+03	1.531123E-14	1.136720E-16
5.640000E+03	1.537202E-14	1.123744E-16
5.650000E+03	1.540089E-14	1.110469E-16
5.660000E+03	1.539625E-14	1.097881E-16
5.670000E+03	1.535779E-14	1.086609E-16
5.680000E+03	1.528630E-14	1.076925E-16
5.690000E+03	1.518357E-14	1.068443E-16
5.700000E+03	1.505256E-14	1.060712E-16
5.710000E+03	1.489741E-14	1.053428E-16
5.720000E+03	1.472377E-14	1.046170E-16
5.730000E+03	1.453751E-14	1.038737E-16
5.740000E+03	1.434580E-14	1.031219E-16
5.750000E+03	1.415595E-14	1.023569E-16
5.760000E+03	1.397505E-14	1.015961E-16
5.770000E+03	1.380980E-14	1.008873E-16
5.780000E+03	1.366589E-14	1.002741E-16
5.790000E+03	1.354742E-14	9.981660E-17
5.800000E+03	1.345699E-14	9.958327E-17
5.810000E+03	1.339567E-14	9.961437E-17
5.820000E+03	1.336229E-14	9.994338E-17
5.830000E+03	1.335470E-14	1.006040E-16
5.840000E+03	1.336923E-14	1.015893E-16
5.850000E+03	1.340122E-14	1.028649E-16
5.860000E+03	1.344543E-14	1.043475E-16
5.870000E+03	1.349570E-14	1.058630E-16
5.880000E+03	1.354621E-14	1.072088E-16
5.890000E+03	1.359073E-14	1.081994E-16
5.900000E+03	1.362340E-14	1.086858E-16
5.910000E+03	1.363877E-14	1.085890E-16
5.920000E+03	1.363197E-14	1.079106E-16
5.930000E+03	1.359901E-14	1.067167E-16
5.940000E+03	1.353626E-14	1.051267E-16
5.950000E+03	1.344136E-14	1.032751E-16
5.960000E+03	1.331308E-14	1.012570E-16
5.970000E+03	1.315094E-14	9.914431E-17
5.980000E+03	1.295488E-14	9.698111E-17
5.990000E+03	1.272608E-14	9.476721E-17
6.000000E+03	1.246553E-14	9.248853E-17
6.010000E+03	1.217551E-14	9.013996E-17
6.020000E+03	1.185786E-14	8.769360E-17
6.030000E+03	1.151543E-14	8.514109E-17
6.040000E+03	1.115192E-14	8.249290E-17
6.050000E+03	1.077169E-14	7.975168E-17
6.060000E+03	1.038015E-14	7.694191E-17
6.070000E+03	9.983590E-15	7.410877E-17
6.080000E+03	9.589929E-15	7.130114E-17
6.090000E+03	9.207168E-15	6.857881E-17
6.100000E+03	8.844304E-15	6.601386E-17
6.110000E+03	8.510218E-15	6.366176E-17
6.120000E+03	8.213361E-15	6.158171E-17
6.130000E+03	7.961310E-15	5.983625E-17
6.140000E+03	7.760634E-15	5.847458E-17
6.150000E+03	7.616457E-15	5.754516E-17
6.160000E+03	7.532410E-15	5.709166E-17
6.170000E+03	7.510563E-15	5.713403E-17
6.180000E+03	7.551184E-15	5.768150E-17
6.190000E+03	7.653349E-15	5.873623E-17
6.200000E+03	7.814315E-15	6.027204E-17
6.210000E+03	8.029758E-15	6.225395E-17
6.220000E+03	8.293838E-15	6.464589E-17
6.230000E+03	8.599456E-15	6.739936E-17
6.240000E+03	8.938304E-15	7.046024E-17
6.250000E+03	9.300805E-15	7.375321E-17
6.260000E+03	9.676910E-15	7.715885E-17
6.270000E+03	1.005594E-14	8.053357E-17
6.280000E+03	1.042714E-14	8.373504E-17
6.290000E+03	1.077991E-14	8.662447E-17
6.300000E+03	1.110434E-14	8.909684E-17
6.310000E+03	1.139175E-14	9.109544E-17
6.320000E+03	1.163504E-14	9.260043E-17
6.330000E+03	1.182866E-14	9.363251E-17
6.340000E+03	1.196956E-14	9.423265E-17
6.350000E+03	1.205699E-14	9.442059E-17
6.360000E+03	1.209209E-14	9.421027E-17
6.370000E+03	1.207841E-14	9.361917E-17
6.380000E+03	1.202080E-14	9.264482E-17
6.390000E+03	1.192534E-14	9.130087E-17
6.400000E+03	1.179895E-14	8.962900E-17
6.410000E+03	1.164933E-14	8.769005E-17
6.420000E+03	1.148384E-14	8.559071E-17
6.430000E+03	1.131016E-14	8.349934E-17
6.440000E+03	1.113527E-14	8.161193E-17
6.450000E+03	1.096535E-14	8.014194E-17
6.460000E+03	1.080536E-14	7.925660E-17
6.470000E+03	1.065818E-14	7.897711E-17
6.480000E+03	1.052476E-14	7.918893E-17
6.490000E+03	1.040423E-14	7.971431E-17
6.500000E+03	1.029574E-14	8.037740E-17
6.510000E+03	1.019782E-14	8.104636E-17
6.520000E+03	1.010869E-14	8.164053E-17
6.530000E+03	1.002683E-14	8.211236E-17
6.540000E+03	9.950612E-15	8.244857E-17
6.550000E+03	9.878501E-15	8.265978E-17
6.560000E+03	9.809077E-15	8.275593E-17
6.570000E+03	9.741241E-15	8.275693E-17
6.580000E+03	9.673765E-15	8.268524E-17
6.590000E+03	9.605775E-15	8.255279E-17
6.600000E+03	9.536755E-15	8.237452E-17
6.610000E+03	9.466223E-15	8.216566E-17
6.620000E+03	9.393716E-15	8.192774E-17
6.630000E+03	9.319236E-15	8.166689E-17
6.640000E+03	9.242585E-15	8.138897E-17
6.650000E+03	9.164103E-15	8.109339E-17
6.660000E+03	9.083556E-15	8.077741E-17
6.670000E+03	9.001022E-15	8.044501E-17
6.680000E+03	8.916703E-15	8.009335E-17
6.690000E+03	8.830631E-15	7.972322E-17
6.700000E+03	8.742689E-15	7.933998E-17
6.710000E+03	8.652921E-15	7.894525E-17
6.720000E+03	8.561561E-15	7.854968E-17
6.730000E+03	8.468607E-15	7.817018E-17
6.740000E+03	8.374436E-15	7.782473E-17
6.750000E+03	8.279064E-15	7.753538E-17
6.760000E+03	8.183185E-15	7.733589E-17
6.770000E+03	8.086971E-15	7.724704E-17
6.780000E+03	7.991234E-15	7.729369E-17
6.790000E+03	7.896221E-15	7.748818E-17
6.800000E+03	7.802608E-15	7.782487E-17
6.810000E+03	7.710940E-15	7.828098E-17
6.820000E+03	7.621671E-15	7.881495E-17
6.830000E+03	7.535596E-15	7.936263E-17
6.840000E+03	7.453251E-15	7.984724E-17
6.850000E+03	7.375410E-15	8.019831E-17
6.860000E+03	7.302354E-15	8.034677E-17
6.870000E+03	7.234830E-15	8.024796E-17
6.880000E+03	7.173089E-15	7.988166E-17
6.890000E+03	7.117408E-15	7.925853E-17
6.900000E+03	7.067801E-15	7.841385E-17
6.910000E+03	7.024503E-15	7.740284E-17
6.920000E+03	6.986846E-15	7.627790E-17
6.930000E+03	6.954776E-15	7.510391E-17
6.940000E+03	6.927435E-15	7.393501E-17
6.950000E+03	6.904114E-15	7.281568E-17
6.960000E+03	6.884179E-15	7.178430E-17
6.970000E+03	6.866751E-15	7.086710E-17
6.980000E+03	6.851150E-15	7.007544E-17
6.990000E+03	6.836764E-15	6.941332E-17
7.000000E+03	6.823049E-15	6.887881E-17
7.010000E+03	6.809531E-15	6.845853E-17
7.020000E+03	6.795661E-15	6.813663E-17
7.030000E+03	6.781335E-15	6.790300E-17
7.040000E+03	6.765822E-15	6.773694E-17
7.050000E+03	6.749218E-15	6.763051E-17
7.060000E+03	6.730832E-15	6.757278E-17
7.070000E+03	6.710647E-15	6.755708E-17
7.080000E+03	6.688257E-15	6.757709E-17
7.090000E+03	6.663414E-15	6.763121E-17
7.100000E+03	6.636028E-15	6.771377E-17
7.110000E+03	6.605670E-15	6.781534E-17
7.120000E+03	6.572396E-15	6.792926E-17
7.130000E+03	6.536101E-15	6.803664E-17
7.140000E+03	6.497055E-15	6.811893E-17
7.150000E+03	6.455485E-15	6.815554E-17
7.160000E+03	6.411569E-15	6.811882E-17
7.170000E+03	6.365817E-15	6.798697E-17
7.180000E+03	6.318385E-15	6.774114E-17
7.190000E+03	6.269960E-15	6.737224E-17
7.200000E+03	6.220850E-15	6.687749E-17
7.210000E+03	6.171361E-15	6.626571E-17
7.220000E+03	6.122026E-15	6.555511E-17
7.230000E+03	6.073228E-15	6.477097E-17
7.240000E+03	6.025192E-15	6.394106E-17
7.250000E+03	5.978215E-15	6.309019E-17
7.260000E+03	5.932545E-15	6.224243E-17
7.270000E+03	5.888375E-15	6.141896E-17
7.280000E+03	5.845816E-15	6.063172E-17
7.290000E+03	5.804666E-15	5.988732E-17
7.300000E+03	5.765125E-15	5.919479E-17
7.310000E+03	5.726923E-15	5.855165E-17
7.320000E+03	5.689727E-15	5.795465E-17
7.330000E+03	5.653414E-15	5.740259E-17
7.340000E+03	5.617487E-15	5.688499E-17
7.350000E+03	5.581701E-15	5.639590E-17
7.360000E+03	5.545852E-15	5.593310E-17
7.370000E+03	5.509664E-15	5.549225E-17
7.380000E+03	5.473141E-15	5.507709E-17
7.390000E+03	5.435855E-15	5.469240E-17
7.400000E+03	5.397973E-15	5.434862E-17
7.410000E+03	5.359212E-15	5.405756E-17
7.420000E+03	5.319635E-15	5.384002E-17
7.430000E+03	5.279067E-15	5.371321E-17
7.440000E+03	5.237476E-15	5.369851E-17
7.450000E+03	5.195013E-15	5.381883E-17
7.460000E+03	5.151706E-15	5.408651E-17
7.470000E+03	5.108144E-15	5.451468E-17
7.480000E+03	5.064497E-15	5.510586E-17
7.490000E+03	5.021520E-15	5.585575E-17
7.500000E+03	4.979729E-15	5.675018E-17
7.510000E+03	4.940096E-15	5.777509E-17
7.520000E+03	4.903130E-15	5.890175E-17
7.530000E+03	4.869418E-15	6.009406E-17
7.540000E+03	4.839627E-15	6.130623E-17
7.550000E+03	4.814286E-15	6.247634E-17
7.560000E+03	4.794094E-15	6.353939E-17
7.570000E+03	4.779259E-15	6.442974E-17
7.580000E+03	4.770229E-15	6.509517E-17
7.590000E+03	4.767370E-15	6.549578E-17
7.600000E+03	4.770744E-15	6.560307E-17
7.610000E+03	4.780530E-15	6.540632E-17
7.620000E+03	4.796581E-15	6.490698E-17
7.630000E+03	4.818937E-15	6.412611E-17
7.640000E+03	4.847033E-15	6.309371E-17
7.650000E+03	4.880502E-15	6.185880E-17
7.660000E+03	4.918167E-15	6.047308E-17
7.670000E+03	4.958823E-15	5.899781E-17
7.680000E+03	5.000403E-15	5.749218E-17
7.690000E+03	5.040961E-15	5.601725E-17
7.700000E+03	5.077928E-15	5.461746E-17
7.710000E+03	5.108666E-15	5.332578E-17
7.720000E+03	5.130476E-15	5.215505E-17
7.730000E+03	5.140692E-15	5.108971E-17
7.740000E+03	5.136796E-15	5.009728E-17
7.750000E+03	5.116388E-15	4.913545E-17
7.760000E+03	5.077757E-15	4.815864E-17
