#wls	flux	fluxerr
1.600000E+03	4.568048E-14	9.406233E-15
1.640000E+03	3.806853E-14	7.141947E-15
1.680000E+03	3.131642E-14	5.309991E-15
1.720000E+03	2.542505E-14	3.860614E-15
1.760000E+03	2.037385E-14	2.741173E-15
1.800000E+03	1.611819E-14	1.898102E-15
1.840000E+03	1.259826E-14	1.280198E-15
1.880000E+03	9.740951E-15	8.402958E-16
1.920000E+03	7.464586E-15	5.367976E-16
1.960000E+03	5.685803E-15	3.347221E-16
2.000000E+03	4.322730E-15	2.058251E-16
2.040000E+03	3.298963E-15	1.282363E-16
2.080000E+03	2.546511E-15	8.526194E-17
2.120000E+03	2.008972E-15	6.347711E-17
2.160000E+03	1.641730E-15	5.252403E-17
2.200000E+03	1.410138E-15	4.702115E-17
2.240000E+03	1.289730E-15	4.533864E-17
2.280000E+03	1.267505E-15	4.744832E-17
2.320000E+03	1.341567E-15	5.357114E-17
2.360000E+03	1.522123E-15	6.400076E-17
2.400000E+03	1.833829E-15	7.926244E-17
2.440000E+03	2.316579E-15	9.987717E-17
2.480000E+03	3.023904E-15	1.260260E-16
2.520000E+03	4.016052E-15	1.576530E-16
2.560000E+03	5.342974E-15	1.962150E-16
2.600000E+03	7.018148E-15	2.492299E-16
2.640000E+03	8.990265E-15	3.326379E-16
2.680000E+03	1.114071E-14	4.590010E-16
2.720000E+03	1.330193E-14	6.242773E-16
2.760000E+03	1.527922E-14	8.093613E-16
2.800000E+03	1.688826E-14	9.873394E-16
2.840000E+03	1.799226E-14	1.131131E-15
2.880000E+03	1.852808E-14	1.220272E-15
2.920000E+03	1.851469E-14	1.245351E-15
2.960000E+03	1.804089E-14	1.208802E-15
3.000000E+03	1.723499E-14	1.122061E-15
3.010000E+03	1.699786E-14	1.094377E-15
3.020000E+03	1.675144E-14	1.064876E-15
3.030000E+03	1.649687E-14	1.033770E-15
3.040000E+03	1.623642E-14	1.001343E-15
3.050000E+03	1.597262E-14	9.678936E-16
3.060000E+03	1.570644E-14	9.336207E-16
3.070000E+03	1.544022E-14	8.988014E-16
3.080000E+03	1.517546E-14	8.636570E-16
3.090000E+03	1.491362E-14	8.283974E-16
3.100000E+03	1.465606E-14	7.932205E-16
3.110000E+03	1.440466E-14	7.583428E-16
3.120000E+03	1.416029E-14	7.239174E-16
3.130000E+03	1.392437E-14	6.901158E-16
3.140000E+03	1.369796E-14	6.570815E-16
3.150000E+03	1.348208E-14	6.249464E-16
3.160000E+03	1.327796E-14	5.938425E-16
3.170000E+03	1.308680E-14	5.638884E-16
3.180000E+03	1.290905E-14	5.351603E-16
3.190000E+03	1.274637E-14	5.077763E-16
3.200000E+03	1.259947E-14	4.818035E-16
3.210000E+03	1.246956E-14	4.573191E-16
3.220000E+03	1.235765E-14	4.343823E-16
3.230000E+03	1.226462E-14	4.130375E-16
3.240000E+03	1.219223E-14	3.933495E-16
3.250000E+03	1.214104E-14	3.753330E-16
3.260000E+03	1.211293E-14	3.590338E-16
3.270000E+03	1.210921E-14	3.444676E-16
3.280000E+03	1.213085E-14	3.316289E-16
3.290000E+03	1.217985E-14	3.205266E-16
3.300000E+03	1.225726E-14	3.111292E-16
3.310000E+03	1.236472E-14	3.034064E-16
3.320000E+03	1.250366E-14	2.973074E-16
3.330000E+03	1.267566E-14	2.927711E-16
3.340000E+03	1.288191E-14	2.897143E-16
3.350000E+03	1.312370E-14	2.880459E-16
3.360000E+03	1.340227E-14	2.876661E-16
3.370000E+03	1.371894E-14	2.884739E-16
3.380000E+03	1.407453E-14	2.903584E-16
3.390000E+03	1.446987E-14	2.932142E-16
3.400000E+03	1.490555E-14	2.969401E-16
3.410000E+03	1.538159E-14	3.014376E-16
3.420000E+03	1.589781E-14	3.066211E-16
3.430000E+03	1.645343E-14	3.124152E-16
3.440000E+03	1.704676E-14	3.187513E-16
3.450000E+03	1.767546E-14	3.255725E-16
3.460000E+03	1.833588E-14	3.328206E-16
3.470000E+03	1.902309E-14	3.404340E-16
3.480000E+03	1.973073E-14	3.483430E-16
3.490000E+03	2.045063E-14	3.564600E-16
3.500000E+03	2.117340E-14	3.646900E-16
3.510000E+03	2.188752E-14	3.729134E-16
3.520000E+03	2.257972E-14	3.809875E-16
3.530000E+03	2.323531E-14	3.887438E-16
3.540000E+03	2.383975E-14	3.960036E-16
3.550000E+03	2.437790E-14	4.025547E-16
3.560000E+03	2.483516E-14	4.081615E-16
3.570000E+03	2.519963E-14	4.125993E-16
3.580000E+03	2.546208E-14	4.156577E-16
3.590000E+03	2.561664E-14	4.171618E-16
3.600000E+03	2.566137E-14	4.169936E-16
3.610000E+03	2.559956E-14	4.151293E-16
3.620000E+03	2.543820E-14	4.116235E-16
3.630000E+03	2.518797E-14	4.066179E-16
3.640000E+03	2.486379E-14	4.003498E-16
3.650000E+03	2.448208E-14	3.931020E-16
3.660000E+03	2.406094E-14	3.851927E-16
3.670000E+03	2.361928E-14	3.769461E-16
3.680000E+03	2.317589E-14	3.686639E-16
3.690000E+03	2.274858E-14	3.606039E-16
3.700000E+03	2.235450E-14	3.529822E-16
3.710000E+03	2.200847E-14	3.459505E-16
3.720000E+03	2.172430E-14	3.396297E-16
3.730000E+03	2.151443E-14	3.341197E-16
3.740000E+03	2.138903E-14	3.294952E-16
3.750000E+03	2.135842E-14	3.258487E-16
3.760000E+03	2.143070E-14	3.232579E-16
3.770000E+03	2.161436E-14	3.218262E-16
3.780000E+03	2.191677E-14	3.216663E-16
3.790000E+03	2.234487E-14	3.229168E-16
3.800000E+03	2.290526E-14	3.257507E-16
3.810000E+03	2.360366E-14	3.303735E-16
3.820000E+03	2.444483E-14	3.370234E-16
3.830000E+03	2.543178E-14	3.459547E-16
3.840000E+03	2.656470E-14	3.574100E-16
3.850000E+03	2.784037E-14	3.715864E-16
3.860000E+03	2.925096E-14	3.885850E-16
3.870000E+03	3.078316E-14	4.083675E-16
3.880000E+03	3.241825E-14	4.307291E-16
3.890000E+03	3.413199E-14	4.552753E-16
3.900000E+03	3.589481E-14	4.814270E-16
3.910000E+03	3.767330E-14	5.084600E-16
3.920000E+03	3.943118E-14	5.355465E-16
3.930000E+03	4.113199E-14	5.618263E-16
3.940000E+03	4.274000E-14	5.864525E-16
3.950000E+03	4.422339E-14	6.086606E-16
3.960000E+03	4.555517E-14	6.278035E-16
3.970000E+03	4.671689E-14	6.434114E-16
3.980000E+03	4.769695E-14	6.551661E-16
3.990000E+03	4.849286E-14	6.629238E-16
4.000000E+03	4.910970E-14	6.666788E-16
4.010000E+03	4.956006E-14	6.665541E-16
4.020000E+03	4.986047E-14	6.627607E-16
4.030000E+03	5.003166E-14	6.556188E-16
4.040000E+03	5.009433E-14	6.455208E-16
4.050000E+03	5.006983E-14	6.329588E-16
4.060000E+03	4.997658E-14	6.184879E-16
4.070000E+03	4.983098E-14	6.027297E-16
4.080000E+03	4.964618E-14	5.863252E-16
4.090000E+03	4.943182E-14	5.698840E-16
4.100000E+03	4.919343E-14	5.539271E-16
4.110000E+03	4.893429E-14	5.388752E-16
4.120000E+03	4.865487E-14	5.250117E-16
4.130000E+03	4.835404E-14	5.124747E-16
4.140000E+03	4.802898E-14	5.012572E-16
4.150000E+03	4.767461E-14	4.912116E-16
4.160000E+03	4.728578E-14	4.820978E-16
4.170000E+03	4.685549E-14	4.736210E-16
4.180000E+03	4.637740E-14	4.655130E-16
4.190000E+03	4.584582E-14	4.575719E-16
4.200000E+03	4.525598E-14	4.496925E-16
4.210000E+03	4.460633E-14	4.418875E-16
4.220000E+03	4.389828E-14	4.342470E-16
4.230000E+03	4.313769E-14	4.268989E-16
4.240000E+03	4.233293E-14	4.199227E-16
4.250000E+03	4.149732E-14	4.133217E-16
4.260000E+03	4.064599E-14	4.069878E-16
4.270000E+03	3.979665E-14	4.007304E-16
4.280000E+03	3.896635E-14	3.942730E-16
4.290000E+03	3.817243E-14	3.873120E-16
4.300000E+03	3.743063E-14	3.795418E-16
4.310000E+03	3.675343E-14	3.706715E-16
4.320000E+03	3.615156E-14	3.604770E-16
4.330000E+03	3.563105E-14	3.488033E-16
4.340000E+03	3.519577E-14	3.356143E-16
4.350000E+03	3.484420E-14	3.209899E-16
4.360000E+03	3.457237E-14	3.051999E-16
4.370000E+03	3.437354E-14	2.887789E-16
4.380000E+03	3.423739E-14	2.726407E-16
4.390000E+03	3.415226E-14	2.582186E-16
4.400000E+03	3.410628E-14	2.474466E-16
4.410000E+03	3.408965E-14	2.423779E-16
4.420000E+03	3.410120E-14	2.441704E-16
4.430000E+03	3.415204E-14	2.520057E-16
4.440000E+03	3.426142E-14	2.639456E-16
4.450000E+03	3.444924E-14	2.780687E-16
4.460000E+03	3.473313E-14	2.929345E-16
4.470000E+03	3.512552E-14	3.076220E-16
4.480000E+03	3.563366E-14	3.216122E-16
4.490000E+03	3.625715E-14	3.346293E-16
4.500000E+03	3.698882E-14	3.465640E-16
4.510000E+03	3.781526E-14	3.574426E-16
4.520000E+03	3.871543E-14	3.673976E-16
4.530000E+03	3.966331E-14	3.766832E-16
4.540000E+03	4.062805E-14	3.856434E-16
4.550000E+03	4.157461E-14	3.946529E-16
4.560000E+03	4.246675E-14	4.040461E-16
4.570000E+03	4.326774E-14	4.139990E-16
4.580000E+03	4.394382E-14	4.244787E-16
4.590000E+03	4.446487E-14	4.352790E-16
4.600000E+03	4.480607E-14	4.461262E-16
4.610000E+03	4.494873E-14	4.567497E-16
4.620000E+03	4.488274E-14	4.669143E-16
4.630000E+03	4.460446E-14	4.763558E-16
4.640000E+03	4.411946E-14	4.847653E-16
4.650000E+03	4.344049E-14	4.917749E-16
4.660000E+03	4.258646E-14	4.969907E-16
4.670000E+03	4.158250E-14	5.000557E-16
4.680000E+03	4.045566E-14	5.006772E-16
4.690000E+03	3.923568E-14	4.987027E-16
4.700000E+03	3.795259E-14	4.941277E-16
4.710000E+03	3.663402E-14	4.870685E-16
4.720000E+03	3.530591E-14	4.777547E-16
4.730000E+03	3.399112E-14	4.664848E-16
4.740000E+03	3.270879E-14	4.535879E-16
4.750000E+03	3.147459E-14	4.393995E-16
4.760000E+03	3.030138E-14	4.242495E-16
4.770000E+03	2.919780E-14	4.084311E-16
4.780000E+03	2.817083E-14	3.922289E-16
4.790000E+03	2.722453E-14	3.758943E-16
4.800000E+03	2.636077E-14	3.596497E-16
4.810000E+03	2.558056E-14	3.437023E-16
4.820000E+03	2.488300E-14	3.282300E-16
4.830000E+03	2.426653E-14	3.134104E-16
4.840000E+03	2.372905E-14	2.994322E-16
4.850000E+03	2.326807E-14	2.865032E-16
4.860000E+03	2.288115E-14	2.748520E-16
4.870000E+03	2.256434E-14	2.646930E-16
4.880000E+03	2.231405E-14	2.562193E-16
4.890000E+03	2.212496E-14	2.495396E-16
4.900000E+03	2.199059E-14	2.446412E-16
4.910000E+03	2.190238E-14	2.413537E-16
4.920000E+03	2.185072E-14	2.393729E-16
4.930000E+03	2.182570E-14	2.383051E-16
4.940000E+03	2.181722E-14	2.377099E-16
4.950000E+03	2.181706E-14	2.371708E-16
4.960000E+03	2.181901E-14	2.363369E-16
4.970000E+03	2.181971E-14	2.349599E-16
4.980000E+03	2.181873E-14	2.329121E-16
4.990000E+03	2.181906E-14	2.301918E-16
5.000000E+03	2.182687E-14	2.269052E-16
5.010000E+03	2.185019E-14	2.232226E-16
5.020000E+03	2.189969E-14	2.193516E-16
5.030000E+03	2.198622E-14	2.154921E-16
5.040000E+03	2.212114E-14	2.118506E-16
5.050000E+03	2.231504E-14	2.086509E-16
5.060000E+03	2.257623E-14	2.061294E-16
5.070000E+03	2.291049E-14	2.045208E-16
5.080000E+03	2.331993E-14	2.040117E-16
5.090000E+03	2.380302E-14	2.047105E-16
5.100000E+03	2.435398E-14	2.066371E-16
5.110000E+03	2.496265E-14	2.097308E-16
5.120000E+03	2.561603E-14	2.138717E-16
5.130000E+03	2.629786E-14	2.188942E-16
5.140000E+03	2.698954E-14	2.246013E-16
5.150000E+03	2.767058E-14	2.307648E-16
5.160000E+03	2.831986E-14	2.371416E-16
5.170000E+03	2.891592E-14	2.434780E-16
5.180000E+03	2.943889E-14	2.495288E-16
5.190000E+03	2.986936E-14	2.550781E-16
5.200000E+03	3.019089E-14	2.599881E-16
5.210000E+03	3.039051E-14	2.641916E-16
5.220000E+03	3.046016E-14	2.676548E-16
5.230000E+03	3.039674E-14	2.703022E-16
5.240000E+03	3.020425E-14	2.719908E-16
5.250000E+03	2.989387E-14	2.725441E-16
5.260000E+03	2.948123E-14	2.718019E-16
5.270000E+03	2.898815E-14	2.696990E-16
5.280000E+03	2.843868E-14	2.662685E-16
5.290000E+03	2.785825E-14	2.616407E-16
5.300000E+03	2.727180E-14	2.560024E-16
5.310000E+03	2.670075E-14	2.495302E-16
5.320000E+03	2.616308E-14	2.423504E-16
5.330000E+03	2.567133E-14	2.345047E-16
5.340000E+03	2.523277E-14	2.259786E-16
5.350000E+03	2.484993E-14	2.167465E-16
5.360000E+03	2.452002E-14	2.067898E-16
5.370000E+03	2.423689E-14	1.961184E-16
5.380000E+03	2.399055E-14	1.847606E-16
5.390000E+03	2.376795E-14	1.727863E-16
5.400000E+03	2.355517E-14	1.603889E-16
5.410000E+03	2.333760E-14	1.479936E-16
5.420000E+03	2.310221E-14	1.364312E-16
5.430000E+03	2.283961E-14	1.270898E-16
5.440000E+03	2.254591E-14	1.217506E-16
5.450000E+03	2.222423E-14	1.216804E-16
5.460000E+03	2.188904E-14	1.262630E-16
5.470000E+03	2.156230E-14	1.335230E-16
5.480000E+03	2.126747E-14	1.416332E-16
5.490000E+03	2.102734E-14	1.494527E-16
5.500000E+03	2.086180E-14	1.564826E-16
5.510000E+03	2.078589E-14	1.626446E-16
5.520000E+03	2.080891E-14	1.680645E-16
5.530000E+03	2.093319E-14	1.728939E-16
5.540000E+03	2.115405E-14	1.772174E-16
5.550000E+03	2.145878E-14	1.810389E-16
5.560000E+03	2.182986E-14	1.843504E-16
5.570000E+03	2.224513E-14	1.871667E-16
5.580000E+03	2.267989E-14	1.895402E-16
5.590000E+03	2.310847E-14	1.915300E-16
5.600000E+03	2.350572E-14	1.931630E-16
5.610000E+03	2.384940E-14	1.944293E-16
5.620000E+03	2.412075E-14	1.952793E-16
5.630000E+03	2.430610E-14	1.956408E-16
5.640000E+03	2.439821E-14	1.954505E-16
5.650000E+03	2.439478E-14	1.946641E-16
5.660000E+03	2.429870E-14	1.932736E-16
5.670000E+03	2.411783E-14	1.913232E-16
5.680000E+03	2.386346E-14	1.889020E-16
5.690000E+03	2.354853E-14	1.861243E-16
5.700000E+03	2.318819E-14	1.831326E-16
5.710000E+03	2.279819E-14	1.800744E-16
5.720000E+03	2.239373E-14	1.770761E-16
5.730000E+03	2.198991E-14	1.742405E-16
5.740000E+03	2.160039E-14	1.716315E-16
5.750000E+03	2.123803E-14	1.692838E-16
5.760000E+03	2.091389E-14	1.672284E-16
5.770000E+03	2.063733E-14	1.655284E-16
5.780000E+03	2.041498E-14	1.642861E-16
5.790000E+03	2.025221E-14	1.636553E-16
5.800000E+03	2.015075E-14	1.637993E-16
5.810000E+03	2.011035E-14	1.648661E-16
5.820000E+03	2.012795E-14	1.669410E-16
5.830000E+03	2.019809E-14	1.700041E-16
5.840000E+03	2.031341E-14	1.739036E-16
5.850000E+03	2.046467E-14	1.783706E-16
5.860000E+03	2.064162E-14	1.830645E-16
5.870000E+03	2.083334E-14	1.876144E-16
5.880000E+03	2.102961E-14	1.916753E-16
5.890000E+03	2.122001E-14	1.949584E-16
5.900000E+03	2.139534E-14	1.972706E-16
5.910000E+03	2.154687E-14	1.985245E-16
5.920000E+03	2.166738E-14	1.987479E-16
5.930000E+03	2.175029E-14	1.980587E-16
5.940000E+03	2.178979E-14	1.966326E-16
5.950000E+03	2.178050E-14	1.946569E-16
5.960000E+03	2.171725E-14	1.922956E-16
5.970000E+03	2.159522E-14	1.896891E-16
5.980000E+03	2.140890E-14	1.869557E-16
5.990000E+03	2.115404E-14	1.842111E-16
6.000000E+03	2.082618E-14	1.815519E-16
6.010000E+03	2.042222E-14	1.790455E-16
6.020000E+03	1.994098E-14	1.767145E-16
6.030000E+03	1.938295E-14	1.745316E-16
6.040000E+03	1.875271E-14	1.724402E-16
6.050000E+03	1.805752E-14	1.703368E-16
6.060000E+03	1.730908E-14	1.680931E-16
6.070000E+03	1.652244E-14	1.655620E-16
6.080000E+03	1.571523E-14	1.626009E-16
6.090000E+03	1.490679E-14	1.591134E-16
6.100000E+03	1.411647E-14	1.550781E-16
6.110000E+03	1.336240E-14	1.505573E-16
6.120000E+03	1.266053E-14	1.456857E-16
6.130000E+03	1.202407E-14	1.406456E-16
6.140000E+03	1.146329E-14	1.356363E-16
6.150000E+03	1.098563E-14	1.308457E-16
6.160000E+03	1.059614E-14	1.264289E-16
6.170000E+03	1.029775E-14	1.224965E-16
6.180000E+03	1.009178E-14	1.191186E-16
6.190000E+03	9.978203E-15	1.163315E-16
6.200000E+03	9.956051E-15	1.141486E-16
6.210000E+03	1.002336E-14	1.125658E-16
6.220000E+03	1.017729E-14	1.115690E-16
6.230000E+03	1.041371E-14	1.111362E-16
6.240000E+03	1.072665E-14	1.112383E-16
6.250000E+03	1.110827E-14	1.118435E-16
6.260000E+03	1.154834E-14	1.129146E-16
6.270000E+03	1.203340E-14	1.144020E-16
6.280000E+03	1.254761E-14	1.162470E-16
6.290000E+03	1.307301E-14	1.183739E-16
6.300000E+03	1.358961E-14	1.206799E-16
6.310000E+03	1.407772E-14	1.230424E-16
6.320000E+03	1.451825E-14	1.253047E-16
6.330000E+03	1.489398E-14	1.272803E-16
6.340000E+03	1.519206E-14	1.287685E-16
6.350000E+03	1.540375E-14	1.295540E-16
6.360000E+03	1.552520E-14	1.294298E-16
6.370000E+03	1.555797E-14	1.282247E-16
6.380000E+03	1.550903E-14	1.258280E-16
6.390000E+03	1.538867E-14	1.222074E-16
6.400000E+03	1.521103E-14	1.174473E-16
6.410000E+03	1.499273E-14	1.117731E-16
6.420000E+03	1.475045E-14	1.055722E-16
6.430000E+03	1.450122E-14	9.943433E-17
6.440000E+03	1.426133E-14	9.415416E-17
6.450000E+03	1.404499E-14	9.065442E-17
6.460000E+03	1.386263E-14	8.971921E-17
6.470000E+03	1.371873E-14	9.144680E-17
6.480000E+03	1.361060E-14	9.513335E-17
6.490000E+03	1.353238E-14	9.987751E-17
6.500000E+03	1.347658E-14	1.049190E-16
6.510000E+03	1.343546E-14	1.097310E-16
6.520000E+03	1.340149E-14	1.139978E-16
6.530000E+03	1.336755E-14	1.175622E-16
6.540000E+03	1.332787E-14	1.203823E-16
6.550000E+03	1.327759E-14	1.224848E-16
6.560000E+03	1.321285E-14	1.239322E-16
6.570000E+03	1.313143E-14	1.248100E-16
6.580000E+03	1.303185E-14	1.252051E-16
6.590000E+03	1.291386E-14	1.252023E-16
6.600000E+03	1.277830E-14	1.248802E-16
6.610000E+03	1.262606E-14	1.243016E-16
6.620000E+03	1.245958E-14	1.235273E-16
6.630000E+03	1.228039E-14	1.225952E-16
6.640000E+03	1.209120E-14	1.215439E-16
6.650000E+03	1.189415E-14	1.203972E-16
6.660000E+03	1.169150E-14	1.191757E-16
6.670000E+03	1.148556E-14	1.179002E-16
6.680000E+03	1.127802E-14	1.165873E-16
6.690000E+03	1.107053E-14	1.152582E-16
6.700000E+03	1.086446E-14	1.139379E-16
6.710000E+03	1.066112E-14	1.126566E-16
6.720000E+03	1.046101E-14	1.114420E-16
6.730000E+03	1.026515E-14	1.103313E-16
6.740000E+03	1.007385E-14	1.093554E-16
6.750000E+03	9.887441E-15	1.085449E-16
6.760000E+03	9.706218E-15	1.079257E-16
6.770000E+03	9.530417E-15	1.075147E-16
6.780000E+03	9.360430E-15	1.073178E-16
6.790000E+03	9.196156E-15	1.073187E-16
6.800000E+03	9.038006E-15	1.074870E-16
6.810000E+03	8.886240E-15	1.077725E-16
6.820000E+03	8.741125E-15	1.081106E-16
6.830000E+03	8.602926E-15	1.084285E-16
6.840000E+03	8.471879E-15	1.086542E-16
6.850000E+03	8.348170E-15	1.087251E-16
6.860000E+03	8.231752E-15	1.085924E-16
6.870000E+03	8.122796E-15	1.082306E-16
6.880000E+03	8.021213E-15	1.076310E-16
6.890000E+03	7.926660E-15	1.067998E-16
6.900000E+03	7.838980E-15	1.057600E-16
6.910000E+03	7.757758E-15	1.045404E-16
6.920000E+03	7.682332E-15	1.031708E-16
6.930000E+03	7.612099E-15	1.016837E-16
6.940000E+03	7.546533E-15	1.001119E-16
6.950000E+03	7.484777E-15	9.848248E-17
6.960000E+03	7.426096E-15	9.682287E-17
6.970000E+03	7.369898E-15	9.516206E-17
6.980000E+03	7.315333E-15	9.352562E-17
6.990000E+03	7.261732E-15	9.194189E-17
7.000000E+03	7.208344E-15	9.043788E-17
7.010000E+03	7.154906E-15	8.904546E-17
7.020000E+03	7.100822E-15	8.779004E-17
7.030000E+03	7.045731E-15	8.669629E-17
7.040000E+03	6.989238E-15	8.578308E-17
7.050000E+03	6.931328E-15	8.506822E-17
7.060000E+03	6.871802E-15	8.456080E-17
7.070000E+03	6.810962E-15	8.426841E-17
7.080000E+03	6.748506E-15	8.418347E-17
7.090000E+03	6.684888E-15	8.429915E-17
7.100000E+03	6.620226E-15	8.459425E-17
7.110000E+03	6.554980E-15	8.504052E-17
7.120000E+03	6.489284E-15	8.559336E-17
7.130000E+03	6.423867E-15	8.620419E-17
7.140000E+03	6.358965E-15	8.680995E-17
7.150000E+03	6.295206E-15	8.734981E-17
7.160000E+03	6.233053E-15	8.776267E-17
7.170000E+03	6.172901E-15	8.799366E-17
7.180000E+03	6.114924E-15	8.799649E-17
7.190000E+03	6.059321E-15	8.773999E-17
7.200000E+03	6.006295E-15	8.720994E-17
7.210000E+03	5.955680E-15	8.640437E-17
7.220000E+03	5.907440E-15	8.534062E-17
7.230000E+03	5.861050E-15	8.404487E-17
7.240000E+03	5.816373E-15	8.256238E-17
7.250000E+03	5.772796E-15	8.094096E-17
7.260000E+03	5.729729E-15	7.923313E-17
7.270000E+03	5.686495E-15	7.748824E-17
7.280000E+03	5.642341E-15	7.574789E-17
7.290000E+03	5.596458E-15	7.404416E-17
7.300000E+03	5.548133E-15	7.240096E-17
7.310000E+03	5.496298E-15	7.082817E-17
7.320000E+03	5.440563E-15	6.933623E-17
7.330000E+03	5.380176E-15	6.792367E-17
7.340000E+03	5.314562E-15	6.658549E-17
7.350000E+03	5.243836E-15	6.532190E-17
7.360000E+03	5.167742E-15	6.412717E-17
7.370000E+03	5.086849E-15	6.300587E-17
7.380000E+03	5.001467E-15	6.196081E-17
7.390000E+03	4.912325E-15	6.100175E-17
7.400000E+03	4.820299E-15	6.014143E-17
7.410000E+03	4.726252E-15	5.939318E-17
7.420000E+03	4.631320E-15	5.877340E-17
7.430000E+03	4.536540E-15	5.829518E-17
7.440000E+03	4.442722E-15	5.796537E-17
7.450000E+03	4.350764E-15	5.778722E-17
7.460000E+03	4.261526E-15	5.775785E-17
7.470000E+03	4.175723E-15	5.786703E-17
7.480000E+03	4.094019E-15	5.809928E-17
7.490000E+03	4.017024E-15	5.843481E-17
7.500000E+03	3.945369E-15	5.885266E-17
7.510000E+03	3.879501E-15	5.932914E-17
7.520000E+03	3.819773E-15	5.983919E-17
7.530000E+03	3.766628E-15	6.035824E-17
7.540000E+03	3.720136E-15	6.085350E-17
7.550000E+03	3.680470E-15	6.129114E-17
7.560000E+03	3.647725E-15	6.163567E-17
7.570000E+03	3.621935E-15	6.185338E-17
7.580000E+03	3.603079E-15	6.191509E-17
7.590000E+03	3.591002E-15	6.179654E-17
7.600000E+03	3.585598E-15	6.148260E-17
7.610000E+03	3.586810E-15	6.096803E-17
7.620000E+03	3.594360E-15	6.025327E-17
7.630000E+03	3.608106E-15	5.935076E-17
7.640000E+03	3.627572E-15	5.827734E-17
7.650000E+03	3.652583E-15	5.706435E-17
7.660000E+03	3.682605E-15	5.574623E-17
7.670000E+03	3.717112E-15	5.436543E-17
7.680000E+03	3.755516E-15	5.296962E-17
7.690000E+03	3.797304E-15	5.161073E-17
7.700000E+03	3.841781E-15	5.033756E-17
7.710000E+03	3.888401E-15	4.919549E-17
7.720000E+03	3.936810E-15	4.822123E-17
7.730000E+03	3.986658E-15	4.743622E-17
7.740000E+03	4.037582E-15	4.684605E-17
7.750000E+03	4.089487E-15	4.644557E-17
7.760000E+03	4.142192E-15	4.621780E-17
