#wls	flux	fluxerr
1.600000E+03	3.854436E-14	7.986434E-15
1.640000E+03	3.205577E-14	6.057291E-15
1.680000E+03	2.633139E-14	4.502291E-15
1.720000E+03	2.136546E-14	3.276468E-15
1.760000E+03	1.712680E-14	2.331905E-15
1.800000E+03	1.357466E-14	1.622161E-15
1.840000E+03	1.064620E-14	1.102066E-15
1.880000E+03	8.275771E-15	7.313921E-16
1.920000E+03	6.390424E-15	4.748375E-16
1.960000E+03	4.917599E-15	3.029924E-16
2.000000E+03	3.787278E-15	1.922401E-16
2.040000E+03	2.935887E-15	1.243499E-16
2.080000E+03	2.307671E-15	8.540693E-17
2.120000E+03	1.856856E-15	6.451790E-17
2.160000E+03	1.547413E-15	5.356680E-17
2.200000E+03	1.352301E-15	4.810717E-17
2.240000E+03	1.253112E-15	4.656457E-17
2.280000E+03	1.240808E-15	4.876855E-17
2.320000E+03	1.314829E-15	5.484650E-17
2.360000E+03	1.484062E-15	6.502752E-17
2.400000E+03	1.768934E-15	7.977678E-17
2.440000E+03	2.201209E-15	9.962634E-17
2.480000E+03	2.821909E-15	1.249920E-16
2.520000E+03	3.674752E-15	1.563673E-16
2.560000E+03	4.792716E-15	1.955872E-16
2.600000E+03	6.179197E-15	2.483409E-16
2.640000E+03	7.789106E-15	3.246498E-16
2.680000E+03	9.526608E-15	4.320365E-16
2.720000E+03	1.125820E-14	5.675248E-16
2.760000E+03	1.283166E-14	7.171406E-16
2.800000E+03	1.410492E-14	8.604568E-16
2.840000E+03	1.497360E-14	9.764885E-16
2.880000E+03	1.538985E-14	1.049092E-15
2.920000E+03	1.537062E-14	1.070688E-15
2.960000E+03	1.498587E-14	1.042850E-15
3.000000E+03	1.433811E-14	9.743795E-16
3.010000E+03	1.414810E-14	9.523531E-16
3.020000E+03	1.395070E-14	9.288123E-16
3.030000E+03	1.374679E-14	9.039173E-16
3.040000E+03	1.353883E-14	8.779356E-16
3.050000E+03	1.332792E-14	8.510424E-16
3.060000E+03	1.311544E-14	8.234298E-16
3.070000E+03	1.290301E-14	7.953003E-16
3.080000E+03	1.269213E-14	7.668450E-16
3.090000E+03	1.248371E-14	7.382104E-16
3.100000E+03	1.227939E-14	7.095821E-16
3.110000E+03	1.207995E-14	6.810862E-16
3.120000E+03	1.188663E-14	6.528685E-16
3.130000E+03	1.170061E-14	6.250616E-16
3.140000E+03	1.152277E-14	5.977731E-16
3.150000E+03	1.135371E-14	5.710896E-16
3.160000E+03	1.119493E-14	5.451337E-16
3.170000E+03	1.104677E-14	5.199623E-16
3.180000E+03	1.091042E-14	4.956666E-16
3.190000E+03	1.078661E-14	4.723095E-16
3.200000E+03	1.067611E-14	4.499480E-16
3.210000E+03	1.057967E-14	4.286353E-16
3.220000E+03	1.049843E-14	4.084353E-16
3.230000E+03	1.043300E-14	3.893865E-16
3.240000E+03	1.038417E-14	3.715341E-16
3.250000E+03	1.035298E-14	3.549289E-16
3.260000E+03	1.034049E-14	3.396188E-16
3.270000E+03	1.034746E-14	3.256371E-16
3.280000E+03	1.037505E-14	3.130236E-16
3.290000E+03	1.042430E-14	3.018039E-16
3.300000E+03	1.049647E-14	2.919973E-16
3.310000E+03	1.059251E-14	2.836005E-16
3.320000E+03	1.071357E-14	2.766010E-16
3.330000E+03	1.086108E-14	2.709791E-16
3.340000E+03	1.103586E-14	2.666853E-16
3.350000E+03	1.123914E-14	2.636698E-16
3.360000E+03	1.147213E-14	2.618709E-16
3.370000E+03	1.173544E-14	2.612065E-16
3.380000E+03	1.203023E-14	2.616015E-16
3.390000E+03	1.235684E-14	2.629620E-16
3.400000E+03	1.271571E-14	2.652012E-16
3.410000E+03	1.310719E-14	2.682388E-16
3.420000E+03	1.353099E-14	2.719942E-16
3.430000E+03	1.398654E-14	2.763979E-16
3.440000E+03	1.447245E-14	2.813818E-16
3.450000E+03	1.498718E-14	2.868936E-16
3.460000E+03	1.552814E-14	2.928759E-16
3.470000E+03	1.609165E-14	2.992654E-16
3.480000E+03	1.667341E-14	3.059987E-16
3.490000E+03	1.726770E-14	3.129951E-16
3.500000E+03	1.786783E-14	3.201659E-16
3.510000E+03	1.846598E-14	3.274114E-16
3.520000E+03	1.905290E-14	3.346141E-16
3.530000E+03	1.961849E-14	3.416465E-16
3.540000E+03	2.015196E-14	3.483693E-16
3.550000E+03	2.064230E-14	3.546327E-16
3.560000E+03	2.107900E-14	3.602820E-16
3.570000E+03	2.145278E-14	3.651605E-16
3.580000E+03	2.175593E-14	3.691105E-16
3.590000E+03	2.198314E-14	3.719873E-16
3.600000E+03	2.213221E-14	3.736816E-16
3.610000E+03	2.220316E-14	3.741185E-16
3.620000E+03	2.219941E-14	3.732925E-16
3.630000E+03	2.212773E-14	3.712756E-16
3.640000E+03	2.199668E-14	3.681907E-16
3.650000E+03	2.181691E-14	3.642124E-16
3.660000E+03	2.160036E-14	3.595384E-16
3.670000E+03	2.135995E-14	3.543715E-16
3.680000E+03	2.110880E-14	3.488970E-16
3.690000E+03	2.085986E-14	3.432766E-16
3.700000E+03	2.062651E-14	3.376641E-16
3.710000E+03	2.042071E-14	3.321837E-16
3.720000E+03	2.025448E-14	3.269611E-16
3.730000E+03	2.013878E-14	3.221114E-16
3.740000E+03	2.008401E-14	3.177492E-16
3.750000E+03	2.009977E-14	3.139836E-16
3.760000E+03	2.019505E-14	3.109206E-16
3.770000E+03	2.037864E-14	3.086704E-16
3.780000E+03	2.065858E-14	3.073444E-16
3.790000E+03	2.104262E-14	3.070732E-16
3.800000E+03	2.153771E-14	3.080110E-16
3.810000E+03	2.215082E-14	3.103614E-16
3.820000E+03	2.288724E-14	3.143621E-16
3.830000E+03	2.375122E-14	3.202955E-16
3.840000E+03	2.474406E-14	3.284487E-16
3.850000E+03	2.586439E-14	3.390888E-16
3.860000E+03	2.710543E-14	3.523866E-16
3.870000E+03	2.845630E-14	3.683928E-16
3.880000E+03	2.990004E-14	3.869763E-16
3.890000E+03	3.141428E-14	4.078079E-16
3.900000E+03	3.297201E-14	4.303694E-16
3.910000E+03	3.454235E-14	4.539838E-16
3.920000E+03	3.609201E-14	4.778667E-16
3.930000E+03	3.758666E-14	5.011822E-16
3.940000E+03	3.899319E-14	5.231082E-16
3.950000E+03	4.028230E-14	5.429002E-16
3.960000E+03	4.142952E-14	5.599258E-16
3.970000E+03	4.241603E-14	5.736866E-16
3.980000E+03	4.323223E-14	5.838671E-16
3.990000E+03	4.387552E-14	5.903008E-16
4.000000E+03	4.435118E-14	5.929761E-16
4.010000E+03	4.467040E-14	5.920050E-16
4.020000E+03	4.485006E-14	5.876230E-16
4.030000E+03	4.491067E-14	5.801699E-16
4.040000E+03	4.487317E-14	5.700589E-16
4.050000E+03	4.475909E-14	5.577904E-16
4.060000E+03	4.458819E-14	5.439280E-16
4.070000E+03	4.437820E-14	5.290878E-16
4.080000E+03	4.414356E-14	5.138992E-16
4.090000E+03	4.389580E-14	4.989702E-16
4.100000E+03	4.364286E-14	4.848330E-16
4.110000E+03	4.338959E-14	4.719017E-16
4.120000E+03	4.313838E-14	4.604350E-16
4.130000E+03	4.288908E-14	4.505063E-16
4.140000E+03	4.263853E-14	4.419992E-16
4.150000E+03	4.238247E-14	4.346510E-16
4.160000E+03	4.211385E-14	4.280847E-16
4.170000E+03	4.182499E-14	4.219046E-16
4.180000E+03	4.150764E-14	4.157712E-16
4.190000E+03	4.115344E-14	4.094611E-16
4.200000E+03	4.075512E-14	4.029019E-16
4.210000E+03	4.030769E-14	3.961666E-16
4.220000E+03	3.980860E-14	3.894188E-16
4.230000E+03	3.925899E-14	3.828398E-16
4.240000E+03	3.866362E-14	3.765386E-16
4.250000E+03	3.803049E-14	3.704929E-16
4.260000E+03	3.737020E-14	3.645450E-16
4.270000E+03	3.669644E-14	3.584517E-16
4.280000E+03	3.602267E-14	3.519116E-16
4.290000E+03	3.536301E-14	3.446363E-16
4.300000E+03	3.473032E-14	3.363818E-16
4.310000E+03	3.413696E-14	3.269826E-16
4.320000E+03	3.359291E-14	3.163445E-16
4.330000E+03	3.310580E-14	3.044422E-16
4.340000E+03	3.268060E-14	2.913125E-16
4.350000E+03	3.231859E-14	2.770521E-16
4.360000E+03	3.201785E-14	2.618630E-16
4.370000E+03	3.177144E-14	2.461352E-16
4.380000E+03	3.156943E-14	2.306332E-16
4.390000E+03	3.139964E-14	2.166838E-16
4.400000E+03	3.124941E-14	2.062179E-16
4.410000E+03	3.111021E-14	2.013884E-16
4.420000E+03	3.098384E-14	2.033850E-16
4.430000E+03	3.088971E-14	2.112471E-16
4.440000E+03	3.085749E-14	2.228617E-16
4.450000E+03	3.091594E-14	2.362485E-16
4.460000E+03	3.108929E-14	2.500173E-16
4.470000E+03	3.139461E-14	2.633534E-16
4.480000E+03	3.184232E-14	2.758703E-16
4.490000E+03	3.243500E-14	2.874512E-16
4.500000E+03	3.316768E-14	2.981533E-16
4.510000E+03	3.402968E-14	3.081690E-16
4.520000E+03	3.500290E-14	3.177697E-16
4.530000E+03	3.606300E-14	3.272661E-16
4.540000E+03	3.717971E-14	3.369436E-16
4.550000E+03	3.831688E-14	3.469938E-16
4.560000E+03	3.943371E-14	3.574837E-16
4.570000E+03	4.048714E-14	3.683641E-16
4.580000E+03	4.143422E-14	3.795051E-16
4.590000E+03	4.223385E-14	3.907539E-16
4.600000E+03	4.284881E-14	4.019911E-16
4.610000E+03	4.325037E-14	4.131701E-16
4.620000E+03	4.341819E-14	4.242623E-16
4.630000E+03	4.334184E-14	4.351796E-16
4.640000E+03	4.302320E-14	4.457218E-16
4.650000E+03	4.247440E-14	4.555446E-16
4.660000E+03	4.171633E-14	4.641939E-16
4.670000E+03	4.077789E-14	4.711884E-16
4.680000E+03	3.969135E-14	4.760771E-16
4.690000E+03	3.849165E-14	4.785288E-16
4.700000E+03	3.721317E-14	4.783559E-16
4.710000E+03	3.588876E-14	4.755243E-16
4.720000E+03	3.454750E-14	4.701200E-16
4.730000E+03	3.321563E-14	4.623377E-16
4.740000E+03	3.191436E-14	4.524267E-16
4.750000E+03	3.066190E-14	4.406937E-16
4.760000E+03	2.947120E-14	4.274464E-16
4.770000E+03	2.835249E-14	4.130096E-16
4.780000E+03	2.731315E-14	3.977062E-16
4.790000E+03	2.635717E-14	3.818338E-16
4.800000E+03	2.548705E-14	3.656809E-16
4.810000E+03	2.470260E-14	3.495006E-16
4.820000E+03	2.400314E-14	3.335386E-16
4.830000E+03	2.338647E-14	3.180193E-16
4.840000E+03	2.284944E-14	3.031579E-16
4.850000E+03	2.238874E-14	2.891781E-16
4.860000E+03	2.200053E-14	2.763122E-16
4.870000E+03	2.167981E-14	2.647915E-16
4.880000E+03	2.142150E-14	2.548430E-16
4.890000E+03	2.121954E-14	2.466435E-16
4.900000E+03	2.106610E-14	2.402646E-16
4.910000E+03	2.095287E-14	2.356453E-16
4.920000E+03	2.087059E-14	2.325668E-16
4.930000E+03	2.081002E-14	2.306664E-16
4.940000E+03	2.076262E-14	2.294814E-16
4.950000E+03	2.072105E-14	2.285168E-16
4.960000E+03	2.068034E-14	2.273294E-16
4.970000E+03	2.063754E-14	2.255794E-16
4.980000E+03	2.059249E-14	2.230689E-16
4.990000E+03	2.054768E-14	2.197444E-16
5.000000E+03	2.050810E-14	2.156802E-16
5.010000E+03	2.048088E-14	2.110462E-16
5.020000E+03	2.047482E-14	2.060743E-16
5.030000E+03	2.049950E-14	2.010333E-16
5.040000E+03	2.056496E-14	1.962267E-16
5.050000E+03	2.068069E-14	1.919889E-16
5.060000E+03	2.085485E-14	1.886703E-16
5.070000E+03	2.109380E-14	1.865964E-16
5.080000E+03	2.140158E-14	1.860078E-16
5.090000E+03	2.177935E-14	1.870046E-16
5.100000E+03	2.222660E-14	1.895370E-16
5.110000E+03	2.274007E-14	1.934025E-16
5.120000E+03	2.331385E-14	1.982754E-16
5.130000E+03	2.394024E-14	2.037663E-16
5.140000E+03	2.460950E-14	2.094805E-16
5.150000E+03	2.530929E-14	2.150694E-16
5.160000E+03	2.602435E-14	2.202729E-16
5.170000E+03	2.673768E-14	2.249577E-16
5.180000E+03	2.743011E-14	2.291176E-16
5.190000E+03	2.807988E-14	2.328450E-16
5.200000E+03	2.866482E-14	2.362942E-16
5.210000E+03	2.916306E-14	2.396238E-16
5.220000E+03	2.955506E-14	2.429557E-16
5.230000E+03	2.982473E-14	2.463354E-16
5.240000E+03	2.996209E-14	2.497184E-16
5.250000E+03	2.996401E-14	2.529699E-16
5.260000E+03	2.983560E-14	2.558856E-16
5.270000E+03	2.958893E-14	2.582025E-16
5.280000E+03	2.924164E-14	2.596254E-16
5.290000E+03	2.881570E-14	2.598636E-16
5.300000E+03	2.833409E-14	2.586515E-16
5.310000E+03	2.781954E-14	2.557916E-16
5.320000E+03	2.729283E-14	2.511847E-16
5.330000E+03	2.677070E-14	2.448307E-16
5.340000E+03	2.626595E-14	2.368224E-16
5.350000E+03	2.578691E-14	2.273140E-16
5.360000E+03	2.533746E-14	2.164886E-16
5.370000E+03	2.491741E-14	2.045327E-16
5.380000E+03	2.452317E-14	1.916287E-16
5.390000E+03	2.414873E-14	1.779850E-16
5.400000E+03	2.378675E-14	1.639178E-16
5.410000E+03	2.343065E-14	1.499894E-16
5.420000E+03	2.307612E-14	1.371781E-16
5.430000E+03	2.272180E-14	1.269939E-16
5.440000E+03	2.237088E-14	1.212905E-16
5.450000E+03	2.203031E-14	1.213501E-16
5.460000E+03	2.170921E-14	1.264975E-16
5.470000E+03	2.141711E-14	1.346652E-16
5.480000E+03	2.116542E-14	1.439460E-16
5.490000E+03	2.096423E-14	1.530756E-16
5.500000E+03	2.082277E-14	1.613628E-16
5.510000E+03	2.074718E-14	1.684736E-16
5.520000E+03	2.073974E-14	1.742647E-16
5.530000E+03	2.079893E-14	1.786883E-16
5.540000E+03	2.091880E-14	1.817433E-16
5.550000E+03	2.108962E-14	1.834700E-16
5.560000E+03	2.129809E-14	1.839607E-16
5.570000E+03	2.152807E-14	1.833733E-16
5.580000E+03	2.176129E-14	1.819338E-16
5.590000E+03	2.197910E-14	1.799238E-16
5.600000E+03	2.216359E-14	1.776418E-16
5.610000E+03	2.229912E-14	1.753531E-16
5.620000E+03	2.237343E-14	1.732336E-16
5.630000E+03	2.237897E-14	1.713445E-16
5.640000E+03	2.231311E-14	1.696462E-16
5.650000E+03	2.217714E-14	1.680303E-16
5.660000E+03	2.197604E-14	1.663671E-16
5.670000E+03	2.171840E-14	1.645523E-16
5.680000E+03	2.141445E-14	1.625259E-16
5.690000E+03	2.107540E-14	1.602785E-16
5.700000E+03	2.071397E-14	1.578574E-16
5.710000E+03	2.034332E-14	1.553480E-16
5.720000E+03	1.997619E-14	1.528521E-16
5.730000E+03	1.962528E-14	1.504781E-16
5.740000E+03	1.930289E-14	1.483285E-16
5.750000E+03	1.901994E-14	1.464910E-16
5.760000E+03	1.878663E-14	1.450525E-16
5.770000E+03	1.861060E-14	1.440971E-16
5.780000E+03	1.849792E-14	1.437206E-16
5.790000E+03	1.845196E-14	1.440223E-16
5.800000E+03	1.847342E-14	1.450978E-16
5.810000E+03	1.855961E-14	1.470165E-16
5.820000E+03	1.870526E-14	1.498124E-16
5.830000E+03	1.890227E-14	1.534585E-16
5.840000E+03	1.914006E-14	1.578473E-16
5.850000E+03	1.940705E-14	1.627862E-16
5.860000E+03	1.969014E-14	1.679902E-16
5.870000E+03	1.997650E-14	1.731097E-16
5.880000E+03	2.025322E-14	1.777689E-16
5.890000E+03	2.050876E-14	1.816325E-16
5.900000E+03	2.073256E-14	1.844550E-16
5.910000E+03	2.091558E-14	1.861210E-16
5.920000E+03	2.105060E-14	1.866602E-16
5.930000E+03	2.113129E-14	1.862224E-16
5.940000E+03	2.115378E-14	1.850462E-16
5.950000E+03	2.111500E-14	1.833824E-16
5.960000E+03	2.101291E-14	1.814399E-16
5.970000E+03	2.084594E-14	1.793519E-16
5.980000E+03	2.061350E-14	1.771750E-16
5.990000E+03	2.031541E-14	1.748994E-16
6.000000E+03	1.995118E-14	1.724769E-16
6.010000E+03	1.952199E-14	1.698765E-16
6.020000E+03	1.902932E-14	1.671054E-16
6.030000E+03	1.847652E-14	1.642416E-16
6.040000E+03	1.786815E-14	1.614167E-16
6.050000E+03	1.721196E-14	1.587832E-16
6.060000E+03	1.651776E-14	1.564292E-16
6.070000E+03	1.579776E-14	1.543206E-16
6.080000E+03	1.506644E-14	1.523040E-16
6.090000E+03	1.433958E-14	1.501723E-16
6.100000E+03	1.363252E-14	1.477457E-16
6.110000E+03	1.295998E-14	1.449355E-16
6.120000E+03	1.233457E-14	1.417497E-16
6.130000E+03	1.176713E-14	1.382812E-16
6.140000E+03	1.126619E-14	1.346700E-16
6.150000E+03	1.083778E-14	1.310642E-16
6.160000E+03	1.048624E-14	1.275987E-16
6.170000E+03	1.021436E-14	1.243784E-16
6.180000E+03	1.002334E-14	1.214709E-16
6.190000E+03	9.913528E-15	1.189169E-16
6.200000E+03	9.884189E-15	1.167316E-16
6.210000E+03	9.933976E-15	1.149147E-16
6.220000E+03	1.006052E-14	1.134502E-16
6.230000E+03	1.026046E-14	1.123123E-16
6.240000E+03	1.052906E-14	1.114697E-16
6.250000E+03	1.085947E-14	1.108865E-16
6.260000E+03	1.124272E-14	1.105338E-16
6.270000E+03	1.166748E-14	1.103991E-16
6.280000E+03	1.211997E-14	1.104907E-16
6.290000E+03	1.258404E-14	1.108301E-16
6.300000E+03	1.304200E-14	1.114338E-16
6.310000E+03	1.347624E-14	1.122856E-16
6.320000E+03	1.386897E-14	1.132982E-16
6.330000E+03	1.420551E-14	1.143275E-16
6.340000E+03	1.447326E-14	1.151703E-16
6.350000E+03	1.466391E-14	1.156007E-16
6.360000E+03	1.477406E-14	1.153996E-16
6.370000E+03	1.480432E-14	1.143718E-16
6.380000E+03	1.476001E-14	1.123732E-16
6.390000E+03	1.465051E-14	1.093314E-16
6.400000E+03	1.448876E-14	1.052721E-16
6.410000E+03	1.428958E-14	1.003412E-16
6.420000E+03	1.406916E-14	9.484712E-17
6.430000E+03	1.384455E-14	8.930582E-17
6.440000E+03	1.363240E-14	8.446027E-17
6.450000E+03	1.344772E-14	8.122253E-17
6.460000E+03	1.330191E-14	8.041299E-17
6.470000E+03	1.319858E-14	8.217249E-17
6.480000E+03	1.313233E-14	8.581825E-17
6.490000E+03	1.309437E-14	9.046640E-17
6.500000E+03	1.307473E-14	9.537884E-17
6.510000E+03	1.306358E-14	1.000467E-16
6.520000E+03	1.305231E-14	1.041686E-16
6.530000E+03	1.303286E-14	1.075903E-16
6.540000E+03	1.299924E-14	1.102671E-16
6.550000E+03	1.294661E-14	1.122187E-16
6.560000E+03	1.287211E-14	1.135081E-16
6.570000E+03	1.277396E-14	1.142149E-16
6.580000E+03	1.265197E-14	1.144273E-16
6.590000E+03	1.250711E-14	1.142300E-16
6.600000E+03	1.234145E-14	1.137017E-16
6.610000E+03	1.215718E-14	1.129055E-16
6.620000E+03	1.195766E-14	1.119014E-16
6.630000E+03	1.174589E-14	1.107340E-16
6.640000E+03	1.152504E-14	1.094420E-16
6.650000E+03	1.129829E-14	1.080591E-16
6.660000E+03	1.106803E-14	1.066093E-16
6.670000E+03	1.083705E-14	1.051217E-16
6.680000E+03	1.060723E-14	1.036192E-16
6.690000E+03	1.038030E-14	1.021279E-16
6.700000E+03	1.015783E-14	1.006784E-16
6.710000E+03	9.940741E-15	9.930059E-17
6.720000E+03	9.729889E-15	9.802950E-17
6.730000E+03	9.525906E-15	9.690248E-17
6.740000E+03	9.329407E-15	9.595882E-17
6.750000E+03	9.140525E-15	9.523240E-17
6.760000E+03	8.959439E-15	9.475305E-17
6.770000E+03	8.786385E-15	9.454166E-17
6.780000E+03	8.621207E-15	9.460072E-17
6.790000E+03	8.463857E-15	9.491501E-17
6.800000E+03	8.314402E-15	9.544859E-17
6.810000E+03	8.172465E-15	9.613818E-17
6.820000E+03	8.038280E-15	9.690812E-17
6.830000E+03	7.911808E-15	9.766630E-17
6.840000E+03	7.792744E-15	9.831333E-17
6.850000E+03	7.681336E-15	9.876354E-17
6.860000E+03	7.577364E-15	9.894159E-17
6.870000E+03	7.480691E-15	9.879643E-17
6.880000E+03	7.391105E-15	9.830360E-17
6.890000E+03	7.308313E-15	9.746583E-17
6.900000E+03	7.232060E-15	9.631196E-17
6.910000E+03	7.161591E-15	9.488459E-17
6.920000E+03	7.096591E-15	9.324646E-17
6.930000E+03	7.036127E-15	9.146002E-17
6.940000E+03	6.979743E-15	8.959554E-17
6.950000E+03	6.926425E-15	8.771244E-17
6.960000E+03	6.875692E-15	8.586958E-17
6.970000E+03	6.826579E-15	8.410963E-17
6.980000E+03	6.778578E-15	8.246934E-17
6.990000E+03	6.731128E-15	8.097297E-17
7.000000E+03	6.683621E-15	7.963313E-17
7.010000E+03	6.635924E-15	7.845848E-17
7.020000E+03	6.587471E-15	7.744569E-17
7.030000E+03	6.538041E-15	7.659152E-17
7.040000E+03	6.487627E-15	7.589348E-17
7.050000E+03	6.436168E-15	7.534858E-17
7.060000E+03	6.383550E-15	7.495386E-17
7.070000E+03	6.329856E-15	7.470856E-17
7.080000E+03	6.275351E-15	7.461263E-17
7.090000E+03	6.220106E-15	7.465994E-17
7.100000E+03	6.164371E-15	7.484016E-17
7.110000E+03	6.108450E-15	7.513542E-17
7.120000E+03	6.052818E-15	7.552069E-17
7.130000E+03	5.997625E-15	7.595748E-17
7.140000E+03	5.943539E-15	7.640621E-17
7.150000E+03	5.890740E-15	7.681652E-17
7.160000E+03	5.839755E-15	7.714166E-17
7.170000E+03	5.790936E-15	7.733664E-17
7.180000E+03	5.744563E-15	7.736411E-17
7.190000E+03	5.700697E-15	7.719597E-17
7.200000E+03	5.659525E-15	7.682045E-17
7.210000E+03	5.620990E-15	7.623798E-17
7.220000E+03	5.584782E-15	7.546057E-17
7.230000E+03	5.550575E-15	7.451312E-17
7.240000E+03	5.518029E-15	7.343022E-17
7.250000E+03	5.486439E-15	7.224747E-17
7.260000E+03	5.455107E-15	7.100211E-17
7.270000E+03	5.423356E-15	6.972896E-17
7.280000E+03	5.390201E-15	6.845285E-17
7.290000E+03	5.354738E-15	6.719229E-17
7.300000E+03	5.316292E-15	6.596133E-17
7.310000E+03	5.273642E-15	6.476055E-17
7.320000E+03	5.226363E-15	6.359528E-17
7.330000E+03	5.173585E-15	6.246175E-17
7.340000E+03	5.115094E-15	6.136193E-17
7.350000E+03	5.050546E-15	6.029536E-17
7.360000E+03	4.980074E-15	5.926747E-17
7.370000E+03	4.904052E-15	5.828743E-17
7.380000E+03	4.822856E-15	5.736590E-17
7.390000E+03	4.737508E-15	5.652271E-17
7.400000E+03	4.648729E-15	5.577520E-17
7.410000E+03	4.557464E-15	5.514334E-17
7.420000E+03	4.465126E-15	5.465143E-17
7.430000E+03	4.372396E-15	5.431122E-17
7.440000E+03	4.280561E-15	5.413634E-17
7.450000E+03	4.190544E-15	5.412881E-17
7.460000E+03	4.103018E-15	5.427954E-17
7.470000E+03	4.018696E-15	5.457301E-17
7.480000E+03	3.938318E-15	5.498903E-17
7.490000E+03	3.862448E-15	5.550197E-17
7.500000E+03	3.791661E-15	5.608499E-17
7.510000E+03	3.726346E-15	5.670838E-17
7.520000E+03	3.666802E-15	5.734111E-17
7.530000E+03	3.613336E-15	5.795215E-17
7.540000E+03	3.566173E-15	5.850909E-17
7.550000E+03	3.525390E-15	5.897723E-17
7.560000E+03	3.491180E-15	5.932550E-17
7.570000E+03	3.463429E-15	5.952132E-17
7.580000E+03	3.442329E-15	5.954274E-17
7.590000E+03	3.427769E-15	5.936955E-17
7.600000E+03	3.419606E-15	5.898865E-17
7.610000E+03	3.417825E-15	5.839773E-17
7.620000E+03	3.422197E-15	5.759979E-17
7.630000E+03	3.432611E-15	5.660930E-17
7.640000E+03	3.448807E-15	5.544784E-17
7.650000E+03	3.470354E-15	5.414383E-17
7.660000E+03	3.496911E-15	5.273602E-17
7.670000E+03	3.527862E-15	5.126651E-17
7.680000E+03	3.562709E-15	4.978424E-17
7.690000E+03	3.600829E-15	4.833792E-17
7.700000E+03	3.641516E-15	4.697263E-17
7.710000E+03	3.684307E-15	4.572995E-17
7.720000E+03	3.728741E-15	4.464073E-17
7.730000E+03	3.774468E-15	4.372421E-17
7.740000E+03	3.821242E-15	4.298773E-17
7.750000E+03	3.868892E-15	4.242811E-17
7.760000E+03	3.917278E-15	4.203357E-17
