#wls	flux	fluxerr
1.600000E+03	5.712637E-15	1.329700E-15
1.640000E+03	4.880370E-15	1.047350E-15
1.680000E+03	4.158160E-15	8.175878E-16
1.720000E+03	3.536728E-15	6.326893E-16
1.760000E+03	3.007179E-15	4.856611E-16
1.800000E+03	2.559324E-15	3.699889E-16
1.840000E+03	2.183625E-15	2.800164E-16
1.880000E+03	1.870700E-15	2.108504E-16
1.920000E+03	1.612585E-15	1.584811E-16
1.960000E+03	1.401145E-15	1.195477E-16
2.000000E+03	1.230172E-15	9.148075E-17
2.040000E+03	1.093808E-15	7.220990E-17
2.080000E+03	9.874536E-16	6.001430E-17
2.120000E+03	9.076849E-16	5.322501E-17
2.160000E+03	8.522730E-16	5.018350E-17
2.200000E+03	8.201913E-16	4.962663E-17
2.240000E+03	8.108502E-16	5.081768E-17
2.280000E+03	8.242293E-16	5.341757E-17
2.320000E+03	8.612540E-16	5.729694E-17
2.360000E+03	9.226757E-16	6.232398E-17
2.400000E+03	1.009937E-15	6.837465E-17
2.440000E+03	1.124030E-15	7.528535E-17
2.480000E+03	1.265308E-15	8.295168E-17
2.520000E+03	1.432708E-15	9.149609E-17
2.560000E+03	1.622595E-15	1.014886E-16
2.600000E+03	1.828857E-15	1.141117E-16
2.640000E+03	2.042697E-15	1.307488E-16
2.680000E+03	2.254073E-15	1.520366E-16
2.720000E+03	2.453891E-15	1.773121E-16
2.760000E+03	2.633565E-15	2.047803E-16
2.800000E+03	2.787199E-15	2.322140E-16
2.840000E+03	2.910842E-15	2.573810E-16
2.880000E+03	3.003205E-15	2.784223E-16
2.920000E+03	3.065910E-15	2.940732E-16
2.960000E+03	3.103240E-15	3.037381E-16
3.000000E+03	3.121759E-15	3.074588E-16
3.010000E+03	3.124428E-15	3.075201E-16
3.020000E+03	3.126433E-15	3.072414E-16
3.030000E+03	3.128005E-15	3.066450E-16
3.040000E+03	3.129240E-15	3.057405E-16
3.050000E+03	3.130364E-15	3.045504E-16
3.060000E+03	3.131467E-15	3.030846E-16
3.070000E+03	3.132515E-15	3.013412E-16
3.080000E+03	3.133851E-15	2.993550E-16
3.090000E+03	3.135439E-15	2.971241E-16
3.100000E+03	3.137488E-15	2.946703E-16
3.110000E+03	3.140082E-15	2.920031E-16
3.120000E+03	3.143423E-15	2.891428E-16
3.130000E+03	3.147468E-15	2.860868E-16
3.140000E+03	3.152530E-15	2.828645E-16
3.150000E+03	3.158449E-15	2.794624E-16
3.160000E+03	3.165640E-15	2.759175E-16
3.170000E+03	3.174054E-15	2.722253E-16
3.180000E+03	3.183756E-15	2.683908E-16
3.190000E+03	3.194919E-15	2.644277E-16
3.200000E+03	3.207708E-15	2.603481E-16
3.210000E+03	3.222070E-15	2.561457E-16
3.220000E+03	3.238165E-15	2.518312E-16
3.230000E+03	3.256044E-15	2.474059E-16
3.240000E+03	3.275959E-15	2.428864E-16
3.250000E+03	3.297848E-15	2.382647E-16
3.260000E+03	3.321753E-15	2.335411E-16
3.270000E+03	3.347913E-15	2.287299E-16
3.280000E+03	3.376259E-15	2.238238E-16
3.290000E+03	3.406923E-15	2.188301E-16
3.300000E+03	3.439929E-15	2.137497E-16
3.310000E+03	3.475400E-15	2.085908E-16
3.320000E+03	3.513355E-15	2.033566E-16
3.330000E+03	3.553906E-15	1.980580E-16
3.340000E+03	3.596971E-15	1.926974E-16
3.350000E+03	3.642751E-15	1.872960E-16
3.360000E+03	3.691159E-15	1.818631E-16
3.370000E+03	3.742297E-15	1.764228E-16
3.380000E+03	3.796170E-15	1.709993E-16
3.390000E+03	3.852694E-15	1.656192E-16
3.400000E+03	2.707028E-15	3.797578E-16
3.401000E+03	2.727451E-15	3.800420E-16
3.402000E+03	2.748643E-15	3.803403E-16
3.403000E+03	2.772404E-15	3.806833E-16
3.404000E+03	2.797961E-15	3.810587E-16
3.405000E+03	2.821716E-15	3.814054E-16
3.406000E+03	2.843926E-15	3.817272E-16
3.407000E+03	2.866905E-15	3.820637E-16
3.408000E+03	2.890395E-15	3.824107E-16
3.409000E+03	2.914397E-15	3.827683E-16
3.410000E+03	2.938910E-15	3.831365E-16
3.411000E+03	2.961107E-15	3.834656E-16
3.412000E+03	2.980990E-15	3.837549E-16
3.413000E+03	3.005238E-15	3.841230E-16
3.414000E+03	3.033337E-15	3.845620E-16
3.415000E+03	3.060405E-15	3.849849E-16
3.416000E+03	3.086700E-15	3.853958E-16
3.417000E+03	3.108881E-15	3.857336E-16
3.418000E+03	3.127465E-15	3.860065E-16
3.419000E+03	3.147844E-15	3.863132E-16
3.420000E+03	3.169761E-15	3.866493E-16
3.421000E+03	3.189365E-15	3.869436E-16
3.422000E+03	3.207169E-15	3.872051E-16
3.423000E+03	3.223687E-15	3.874431E-16
3.424000E+03	3.238663E-15	3.876527E-16
3.425000E+03	3.256461E-15	3.879155E-16
3.426000E+03	3.276568E-15	3.832603E-16
3.427000E+03	3.296672E-15	3.882475E-16
3.428000E+03	3.316004E-15	4.004195E-16
3.429000E+03	3.337387E-15	4.112023E-16
3.430000E+03	3.360308E-15	4.066914E-16
3.431000E+03	3.381943E-15	4.125269E-16
3.432000E+03	3.402549E-15	4.157642E-16
3.433000E+03	3.420843E-15	4.185090E-16
3.434000E+03	3.437081E-15	4.177336E-16
3.435000E+03	3.453575E-15	4.170359E-16
3.436000E+03	3.470066E-15	4.175451E-16
3.437000E+03	3.485016E-15	4.173411E-16
3.438000E+03	3.498681E-15	4.171378E-16
3.439000E+03	3.511831E-15	4.153694E-16
3.440000E+03	3.524467E-15	4.118538E-16
3.441000E+03	3.535562E-15	4.087182E-16
3.442000E+03	3.545117E-15	4.077645E-16
3.443000E+03	3.555183E-15	4.095887E-16
3.444000E+03	3.565505E-15	4.131555E-16
3.445000E+03	3.576338E-15	4.133266E-16
3.446000E+03	3.587939E-15	4.090565E-16
3.447000E+03	3.598257E-15	4.071832E-16
3.448000E+03	3.607291E-15	4.078367E-16
3.449000E+03	3.614273E-15	4.108149E-16
3.450000E+03	3.619202E-15	4.146251E-16
3.451000E+03	3.618747E-15	4.187408E-16
3.452000E+03	3.613420E-15	4.159084E-16
3.453000E+03	3.611683E-15	4.187824E-16
3.454000E+03	3.612765E-15	4.237157E-16
3.455000E+03	3.615898E-15	4.236234E-16
3.456000E+03	3.620825E-15	4.136635E-16
3.457000E+03	3.624726E-15	4.069109E-16
3.458000E+03	3.627858E-15	4.043662E-16
3.459000E+03	3.631245E-15	4.018764E-16
3.460000E+03	3.634375E-15	4.028351E-16
3.461000E+03	3.636224E-15	3.975936E-16
3.462000E+03	3.637304E-15	3.798437E-16
3.463000E+03	3.640945E-15	3.655525E-16
3.464000E+03	3.646636E-15	3.544571E-16
3.465000E+03	3.652582E-15	3.525106E-16
3.466000E+03	3.658272E-15	3.548964E-16
3.467000E+03	3.662935E-15	3.514331E-16
3.468000E+03	3.666318E-15	3.356580E-16
3.469000E+03	3.671236E-15	3.311127E-16
3.470000E+03	3.677178E-15	3.311367E-16
3.471000E+03	3.683888E-15	3.315098E-16
3.472000E+03	3.691366E-15	3.328293E-16
3.473000E+03	3.698074E-15	3.346859E-16
3.474000E+03	3.704269E-15	3.496682E-16
3.475000E+03	3.710463E-15	3.569927E-16
3.476000E+03	3.716400E-15	3.582522E-16
3.477000E+03	3.721569E-15	3.561052E-16
3.478000E+03	3.725456E-15	3.501781E-16
3.479000E+03	3.728831E-15	3.421722E-16
3.480000E+03	3.731694E-15	3.343030E-16
3.481000E+03	3.734556E-15	3.283636E-16
3.482000E+03	3.737929E-15	3.260426E-16
3.483000E+03	3.743862E-15	3.252979E-16
3.484000E+03	3.752608E-15	3.254953E-16
3.485000E+03	3.762121E-15	3.256882E-16
3.486000E+03	3.772145E-15	3.243184E-16
3.487000E+03	3.786518E-15	3.260667E-16
3.488000E+03	3.804982E-15	3.335718E-16
3.489000E+03	3.820886E-15	3.336865E-16
3.490000E+03	3.834997E-15	3.385836E-16
3.491000E+03	3.849618E-15	3.440390E-16
3.492000E+03	3.864493E-15	3.471381E-16
3.493000E+03	3.881156E-15	3.443093E-16
3.494000E+03	3.899608E-15	3.442285E-16
3.495000E+03	3.921127E-15	3.433355E-16
3.496000E+03	3.944945E-15	3.430058E-16
3.497000E+03	3.967482E-15	3.443201E-16
3.498000E+03	3.988993E-15	3.477446E-16
3.499000E+03	4.010501E-15	3.523637E-16
3.500000E+03	4.032518E-15	3.570903E-16
3.501000E+03	4.058112E-15	3.549718E-16
3.502000E+03	4.084725E-15	3.510682E-16
3.503000E+03	4.112102E-15	3.449730E-16
3.504000E+03	4.136153E-15	3.360508E-16
3.505000E+03	4.154833E-15	3.337558E-16
3.506000E+03	4.178111E-15	3.407508E-16
3.507000E+03	4.209054E-15	3.488681E-16
3.508000E+03	4.239738E-15	3.554685E-16
3.509000E+03	4.268885E-15	3.595612E-16
3.510000E+03	4.299817E-15	3.585720E-16
3.511000E+03	4.329979E-15	3.591802E-16
3.512000E+03	4.358604E-15	3.621416E-16
3.513000E+03	4.385181E-15	3.645769E-16
3.514000E+03	4.409456E-15	3.665235E-16
3.515000E+03	4.436538E-15	3.686419E-16
3.516000E+03	4.466938E-15	3.707694E-16
3.517000E+03	4.498867E-15	3.733219E-16
3.518000E+03	4.533346E-15	3.730417E-16
3.519000E+03	4.567310E-15	3.749648E-16
3.520000E+03	4.597950E-15	3.786755E-16
3.521000E+03	4.624500E-15	3.851035E-16
3.522000E+03	4.650025E-15	3.947078E-16
3.523000E+03	4.675803E-15	4.020284E-16
3.524000E+03	4.703109E-15	3.950614E-16
3.525000E+03	4.735519E-15	3.886504E-16
3.526000E+03	4.767413E-15	3.837872E-16
3.527000E+03	4.794199E-15	3.836401E-16
3.528000E+03	4.822767E-15	4.056988E-16
3.529000E+03	4.853119E-15	4.182904E-16
3.530000E+03	4.879639E-15	4.233242E-16
3.531000E+03	4.902582E-15	4.250690E-16
3.532000E+03	4.926288E-15	4.239934E-16
3.533000E+03	4.952032E-15	4.238057E-16
3.534000E+03	4.979049E-15	4.247729E-16
3.535000E+03	5.005298E-15	4.263629E-16
3.536000E+03	5.026439E-15	4.281513E-16
3.537000E+03	5.045027E-15	4.300387E-16
3.538000E+03	5.064888E-15	4.301200E-16
3.539000E+03	5.088318E-15	4.323295E-16
3.540000E+03	5.116847E-15	4.295348E-16
3.541000E+03	5.146903E-15	4.264843E-16
3.542000E+03	5.179761E-15	4.233424E-16
3.543000E+03	5.213891E-15	4.242290E-16
3.544000E+03	5.242660E-15	4.228688E-16
3.545000E+03	5.269895E-15	4.228899E-16
3.546000E+03	5.298658E-15	4.234228E-16
3.547000E+03	5.328436E-15	4.236981E-16
3.548000E+03	5.359231E-15	4.223171E-16
3.549000E+03	5.390277E-15	4.162423E-16
3.550000E+03	5.422848E-15	4.036448E-16
3.551000E+03	5.453631E-15	3.987794E-16
3.552000E+03	5.483391E-15	3.985041E-16
3.553000E+03	5.516970E-15	3.983468E-16
3.554000E+03	5.553349E-15	3.992763E-16
3.555000E+03	5.587429E-15	4.026123E-16
3.556000E+03	5.618702E-15	4.052160E-16
3.557000E+03	5.649971E-15	4.090029E-16
3.558000E+03	5.680981E-15	4.140794E-16
3.559000E+03	5.709694E-15	4.161832E-16
3.560000E+03	5.735600E-15	4.168408E-16
3.561000E+03	5.760994E-15	4.163194E-16
3.562000E+03	5.787912E-15	4.138272E-16
3.563000E+03	5.820177E-15	4.123504E-16
3.564000E+03	5.854986E-15	4.203235E-16
3.565000E+03	5.883167E-15	4.212616E-16
3.566000E+03	5.908034E-15	4.188698E-16
3.567000E+03	5.927293E-15	4.175715E-16
3.568000E+03	5.940693E-15	4.171219E-16
3.569000E+03	5.957656E-15	4.158161E-16
3.570000E+03	5.975890E-15	4.133203E-16
3.571000E+03	5.993358E-15	4.096825E-16
3.572000E+03	6.009296E-15	4.057508E-16
3.573000E+03	6.024976E-15	3.972748E-16
3.574000E+03	6.040146E-15	3.867683E-16
3.575000E+03	6.053277E-15	3.809158E-16
3.576000E+03	6.066660E-15	3.806001E-16
3.577000E+03	6.078515E-15	3.797445E-16
3.578000E+03	6.086804E-15	3.609741E-16
3.579000E+03	6.092293E-15	3.517449E-16
3.580000E+03	6.097526E-15	3.500082E-16
3.581000E+03	6.102503E-15	3.499512E-16
3.582000E+03	6.107735E-15	3.501763E-16
3.583000E+03	6.116782E-15	3.525875E-16
3.584000E+03	6.124810E-15	3.586010E-16
3.585000E+03	6.130038E-15	3.670575E-16
3.586000E+03	6.134502E-15	3.782972E-16
3.587000E+03	6.132097E-15	3.812218E-16
3.588000E+03	6.124095E-15	3.763628E-16
3.589000E+03	6.117620E-15	3.737424E-16
3.590000E+03	6.111909E-15	3.737727E-16
3.591000E+03	6.104927E-15	3.750316E-16
3.592000E+03	6.099216E-15	3.854815E-16
3.593000E+03	6.095287E-15	4.012262E-16
3.594000E+03	6.089068E-15	4.216389E-16
3.595000E+03	6.078783E-15	4.352908E-16
3.596000E+03	6.064430E-15	4.437908E-16
3.597000E+03	6.049570E-15	4.463511E-16
3.598000E+03	6.039033E-15	4.459884E-16
3.599000E+03	6.032819E-15	4.458066E-16
3.600000E+03	6.025588E-15	4.472706E-16
3.601000E+03	6.016071E-15	4.469773E-16
3.602000E+03	6.005284E-15	4.472148E-16
3.603000E+03	5.995768E-15	4.464095E-16
3.604000E+03	5.985491E-15	4.445167E-16
3.605000E+03	5.972928E-15	4.414415E-16
3.606000E+03	5.961383E-15	4.372181E-16
3.607000E+03	5.951109E-15	4.313741E-16
3.608000E+03	5.940582E-15	4.235632E-16
3.609000E+03	5.927007E-15	4.203282E-16
3.610000E+03	5.910640E-15	4.202123E-16
3.611000E+03	5.893258E-15	4.258997E-16
3.612000E+03	5.878418E-15	4.400276E-16
3.613000E+03	5.868152E-15	4.549919E-16
3.614000E+03	5.856108E-15	4.625209E-16
3.615000E+03	5.838225E-15	4.642522E-16
3.616000E+03	5.819074E-15	4.637162E-16
3.617000E+03	5.800433E-15	4.632588E-16
3.618000E+03	5.785603E-15	4.631427E-16
3.619000E+03	5.777629E-15	4.687247E-16
3.620000E+03	5.770926E-15	4.837078E-16
3.621000E+03	5.760922E-15	4.917576E-16
3.622000E+03	5.751428E-15	4.927187E-16
3.623000E+03	5.744219E-15	4.944693E-16
3.624000E+03	5.739041E-15	4.956266E-16
3.625000E+03	5.739447E-15	4.950286E-16
3.626000E+03	5.740614E-15	4.912121E-16
3.627000E+03	5.736706E-15	4.923228E-16
3.628000E+03	5.730767E-15	5.000410E-16
3.629000E+03	5.728889E-15	5.023566E-16
3.630000E+03	5.728533E-15	5.018356E-16
3.631000E+03	5.728684E-15	5.032341E-16
3.632000E+03	5.731119E-15	5.082288E-16
3.633000E+03	5.731777E-15	5.101669E-16
3.634000E+03	5.732434E-15	5.075631E-16
3.635000E+03	5.735374E-15	5.031556E-16
3.636000E+03	5.738567E-15	4.961047E-16
3.637000E+03	5.741506E-15	4.899779E-16
3.638000E+03	5.745712E-15	4.856966E-16
3.639000E+03	5.753721E-15	4.894565E-16
3.640000E+03	5.764011E-15	5.120336E-16
3.641000E+03	5.775567E-15	5.183452E-16
3.642000E+03	5.789403E-15	5.085273E-16
3.643000E+03	5.806533E-15	4.918204E-16
3.644000E+03	5.825182E-15	4.851127E-16
3.645000E+03	5.843321E-15	4.725014E-16
3.646000E+03	5.859936E-15	4.570553E-16
3.647000E+03	5.879591E-15	4.490520E-16
3.648000E+03	5.902791E-15	4.469008E-16
3.649000E+03	5.925987E-15	4.452163E-16
3.650000E+03	5.950448E-15	4.450666E-16
3.651000E+03	5.978453E-15	4.434193E-16
3.652000E+03	6.014055E-15	4.394589E-16
3.653000E+03	6.057759E-15	4.377156E-16
3.654000E+03	6.101965E-15	4.374592E-16
3.655000E+03	6.144138E-15	4.383050E-16
3.656000E+03	6.184786E-15	4.395711E-16
3.657000E+03	6.225175E-15	4.406386E-16
3.658000E+03	6.267331E-15	4.415277E-16
3.659000E+03	6.310242E-15	4.459399E-16
3.660000E+03	6.353653E-15	4.578524E-16
3.661000E+03	6.397819E-15	4.742039E-16
3.662000E+03	6.444004E-15	4.921578E-16
3.663000E+03	6.491195E-15	4.934300E-16
3.664000E+03	6.536609E-15	4.902339E-16
3.665000E+03	6.578471E-15	4.920030E-16
3.666000E+03	6.618810E-15	4.970744E-16
3.667000E+03	6.661927E-15	5.042893E-16
3.668000E+03	6.708835E-15	5.133061E-16
3.669000E+03	6.757256E-15	5.216377E-16
3.670000E+03	6.804404E-15	5.243014E-16
3.671000E+03	6.852306E-15	5.246309E-16
3.672000E+03	6.900707E-15	5.242217E-16
3.673000E+03	6.948342E-15	5.263163E-16
3.674000E+03	6.996477E-15	5.311093E-16
3.675000E+03	7.042582E-15	5.365501E-16
3.676000E+03	7.086151E-15	5.424781E-16
3.677000E+03	7.127184E-15	5.449291E-16
3.678000E+03	7.166946E-15	5.411453E-16
3.679000E+03	7.207968E-15	5.448289E-16
3.680000E+03	7.249743E-15	5.547867E-16
3.681000E+03	7.290501E-15	5.628187E-16
3.682000E+03	7.330241E-15	5.667268E-16
3.683000E+03	7.371746E-15	5.717557E-16
3.684000E+03	7.412234E-15	5.777939E-16
3.685000E+03	7.451705E-15	5.757452E-16
3.686000E+03	7.491930E-15	5.681755E-16
3.687000E+03	7.530126E-15	5.635089E-16
3.688000E+03	7.562250E-15	5.611547E-16
3.689000E+03	7.586533E-15	5.613480E-16
3.690000E+03	7.609296E-15	5.529207E-16
3.691000E+03	7.634078E-15	5.505297E-16
3.692000E+03	7.659362E-15	5.507691E-16
3.693000E+03	7.685653E-15	5.429218E-16
3.694000E+03	7.711688E-15	5.051852E-16
3.695000E+03	7.735697E-15	4.771013E-16
3.696000E+03	7.756671E-15	4.606152E-16
3.697000E+03	7.774358E-15	4.400223E-16
3.698000E+03	7.792799E-15	4.178088E-16
3.699000E+03	7.812754E-15	4.042655E-16
3.700000E+03	7.834474E-15	3.993678E-16
3.701000E+03	7.858211E-15	3.964508E-16
3.702000E+03	7.880682E-15	3.954318E-16
3.703000E+03	7.901129E-15	3.988991E-16
3.704000E+03	7.920059E-15	4.165563E-16
3.705000E+03	7.936207E-15	4.250175E-16
3.706000E+03	7.951596E-15	4.267916E-16
3.707000E+03	7.967235E-15	4.245358E-16
3.708000E+03	7.981104E-15	4.191134E-16
3.709000E+03	7.992194E-15	4.247302E-16
3.710000E+03	8.001262E-15	4.403099E-16
3.711000E+03	8.007805E-15	4.562408E-16
3.712000E+03	8.013842E-15	4.706807E-16
3.713000E+03	8.018616E-15	4.954249E-16
3.714000E+03	8.022632E-15	5.208565E-16
3.715000E+03	8.027909E-15	5.441088E-16
3.716000E+03	8.028895E-15	5.621551E-16
3.717000E+03	8.026348E-15	5.804844E-16
3.718000E+03	8.021278E-15	5.987038E-16
3.719000E+03	8.011667E-15	6.120785E-16
3.720000E+03	7.999787E-15	6.209917E-16
3.721000E+03	7.986142E-15	6.364320E-16
3.722000E+03	7.972246E-15	6.574742E-16
3.723000E+03	7.961127E-15	6.663708E-16
3.724000E+03	7.952025E-15	6.665479E-16
3.725000E+03	7.942421E-15	6.668334E-16
3.726000E+03	7.928782E-15	6.671073E-16
3.727000E+03	7.912372E-15	6.655536E-16
3.728000E+03	7.896467E-15	6.630908E-16
3.729000E+03	7.879304E-15	6.558918E-16
3.730000E+03	7.861638E-15	6.431475E-16
3.731000E+03	7.844227E-15	6.288576E-16
3.732000E+03	7.826313E-15	6.128095E-16
3.733000E+03	7.806637E-15	5.947940E-16
3.734000E+03	7.784190E-15	5.748875E-16
3.735000E+03	7.759983E-15	5.628388E-16
3.736000E+03	7.737290E-15	5.569769E-16
3.737000E+03	7.716615E-15	5.522822E-16
3.738000E+03	7.695691E-15	5.487122E-16
3.739000E+03	7.676282E-15	5.416277E-16
3.740000E+03	7.654858E-15	5.298866E-16
3.741000E+03	7.630415E-15	5.218056E-16
3.742000E+03	7.606226E-15	5.174871E-16
3.743000E+03	7.577758E-15	5.124906E-16
3.744000E+03	7.548035E-15	5.104056E-16
3.745000E+03	7.521589E-15	5.027885E-16
3.746000E+03	7.493887E-15	4.866238E-16
3.747000E+03	7.464425E-15	4.847354E-16
3.748000E+03	7.433457E-15	4.978817E-16
3.749000E+03	7.401988E-15	5.222922E-16
3.750000E+03	7.369769E-15	5.569512E-16
3.751000E+03	7.338057E-15	5.823677E-16
3.752000E+03	7.309369E-15	5.995627E-16
3.753000E+03	7.283957E-15	6.166900E-16
3.754000E+03	7.256031E-15	6.270246E-16
3.755000E+03	7.224082E-15	6.401028E-16
3.756000E+03	7.192389E-15	6.550800E-16
3.757000E+03	7.163719E-15	6.642918E-16
3.758000E+03	7.134801E-15	6.686046E-16
3.759000E+03	7.106138E-15	6.756156E-16
3.760000E+03	7.078485E-15	6.821669E-16
3.761000E+03	7.049578E-15	6.901650E-16
3.762000E+03	7.017655E-15	6.993627E-16
3.763000E+03	6.983724E-15	7.003852E-16
3.764000E+03	6.944013E-15	6.928845E-16
3.765000E+03	6.898773E-15	6.809219E-16
3.766000E+03	6.856809E-15	6.685355E-16
3.767000E+03	6.817364E-15	6.534334E-16
3.768000E+03	6.784463E-15	6.352148E-16
3.769000E+03	6.759611E-15	6.180341E-16
3.770000E+03	6.734260E-15	6.019730E-16
3.771000E+03	6.704890E-15	5.783840E-16
3.772000E+03	6.674014E-15	5.453077E-16
3.773000E+03	6.643897E-15	5.246310E-16
3.774000E+03	6.612778E-15	5.149648E-16
3.775000E+03	6.581412E-15	5.026637E-16
3.776000E+03	6.550050E-15	4.872497E-16
3.777000E+03	6.515676E-15	4.758584E-16
3.778000E+03	6.480553E-15	4.680028E-16
3.779000E+03	6.446439E-15	4.638159E-16
3.780000E+03	6.412832E-15	4.625219E-16
3.781000E+03	6.380988E-15	4.619063E-16
3.782000E+03	6.351158E-15	4.622214E-16
3.783000E+03	6.323843E-15	4.628040E-16
3.784000E+03	6.295025E-15	4.635060E-16
3.785000E+03	6.264703E-15	4.632467E-16
3.786000E+03	6.233381E-15	4.621654E-16
3.787000E+03	6.199301E-15	4.613636E-16
3.788000E+03	6.169242E-15	4.609618E-16
3.789000E+03	6.143707E-15	4.628237E-16
3.790000E+03	6.115414E-15	4.680649E-16
3.791000E+03	6.086873E-15	4.703456E-16
3.792000E+03	6.059841E-15	4.686203E-16
3.793000E+03	6.031559E-15	4.700974E-16
3.794000E+03	6.002526E-15	4.720767E-16
3.795000E+03	5.974251E-15	4.760493E-16
3.796000E+03	5.949242E-15	4.823391E-16
3.797000E+03	5.926745E-15	4.899162E-16
3.798000E+03	5.903749E-15	4.961091E-16
3.799000E+03	5.884269E-15	4.906298E-16
3.800000E+03	5.868304E-15	4.729021E-16
3.801000E+03	5.852592E-15	4.581398E-16
3.802000E+03	5.838136E-15	4.465444E-16
3.803000E+03	5.822177E-15	4.362020E-16
3.804000E+03	5.802708E-15	4.277035E-16
3.805000E+03	5.781988E-15	4.163311E-16
3.806000E+03	5.761521E-15	4.013977E-16
3.807000E+03	5.741808E-15	3.911280E-16
3.808000E+03	5.723101E-15	3.850315E-16
3.809000E+03	5.704397E-15	3.765075E-16
3.810000E+03	5.688202E-15	3.652663E-16
3.811000E+03	5.676773E-15	3.461811E-16
3.812000E+03	5.668353E-15	3.155410E-16
3.813000E+03	5.660686E-15	2.874523E-16
3.814000E+03	5.652017E-15	2.626763E-16
3.815000E+03	5.644101E-15	2.507519E-16
3.816000E+03	5.639945E-15	2.506354E-16
3.817000E+03	5.638546E-15	2.538804E-16
3.818000E+03	5.638150E-15	2.615403E-16
3.819000E+03	5.639757E-15	2.584836E-16
3.820000E+03	5.641364E-15	2.549035E-16
3.821000E+03	5.641718E-15	2.525317E-16
3.822000E+03	5.645078E-15	2.514494E-16
3.823000E+03	5.651443E-15	2.527254E-16
3.824000E+03	5.660562E-15	2.560531E-16
3.825000E+03	5.670431E-15	2.582265E-16
3.826000E+03	5.678545E-15	2.595668E-16
3.827000E+03	5.685906E-15	2.587299E-16
3.828000E+03	5.698525E-15	2.578622E-16
3.829000E+03	5.718152E-15	2.583074E-16
3.830000E+03	5.739028E-15	2.603669E-16
3.831000E+03	5.763156E-15	2.616155E-16
3.832000E+03	5.790785E-15	2.621968E-16
3.833000E+03	5.818909E-15	2.637947E-16
3.834000E+03	5.852036E-15	2.671668E-16
3.835000E+03	5.889913E-15	2.730170E-16
3.836000E+03	5.931288E-15	2.818204E-16
