#wls	flux	fluxerr
1.600000E+03	1.431464E-15	4.090304E-16
1.640000E+03	1.284320E-15	3.450652E-16
1.680000E+03	1.154015E-15	2.906364E-16
1.720000E+03	1.039415E-15	2.446284E-16
1.760000E+03	9.394877E-16	2.060267E-16
1.800000E+03	8.525586E-16	1.737627E-16
1.840000E+03	7.776852E-16	1.470278E-16
1.880000E+03	7.138047E-16	1.250722E-16
1.920000E+03	6.597173E-16	1.072142E-16
1.960000E+03	6.147997E-16	9.295620E-17
2.000000E+03	5.780921E-16	8.181934E-17
2.040000E+03	5.490698E-16	7.345304E-17
2.080000E+03	5.272889E-16	6.754926E-17
2.120000E+03	5.121121E-16	6.376570E-17
2.160000E+03	5.032678E-16	6.176619E-17
2.200000E+03	5.004592E-16	6.121667E-17
2.240000E+03	5.032586E-16	6.181412E-17
2.280000E+03	5.113347E-16	6.332452E-17
2.320000E+03	5.246444E-16	6.560302E-17
2.360000E+03	5.427855E-16	6.850631E-17
2.400000E+03	5.657257E-16	7.197677E-17
2.440000E+03	5.930721E-16	7.594758E-17
2.480000E+03	6.244999E-16	8.039629E-17
2.520000E+03	6.595733E-16	8.532288E-17
2.560000E+03	6.976422E-16	9.073363E-17
2.600000E+03	7.381081E-16	9.666123E-17
2.640000E+03	7.802173E-16	1.030998E-16
2.680000E+03	8.231272E-16	1.099556E-16
2.720000E+03	8.662398E-16	1.170731E-16
2.760000E+03	9.090386E-16	1.242404E-16
2.800000E+03	9.512060E-16	1.312316E-16
2.840000E+03	9.924471E-16	1.378019E-16
2.880000E+03	1.031986E-15	1.436324E-16
2.920000E+03	1.069803E-15	1.485151E-16
2.960000E+03	1.105620E-15	1.522240E-16
3.000000E+03	1.139717E-15	1.546371E-16
3.010000E+03	1.147911E-15	1.550139E-16
3.020000E+03	1.156172E-15	1.553232E-16
3.030000E+03	1.164297E-15	1.555363E-16
3.040000E+03	1.172396E-15	1.556664E-16
3.050000E+03	1.180373E-15	1.556995E-16
3.060000E+03	1.188338E-15	1.556490E-16
3.070000E+03	1.196298E-15	1.555146E-16
3.080000E+03	1.204261E-15	1.552963E-16
3.090000E+03	1.212130E-15	1.549808E-16
3.100000E+03	1.220118E-15	1.545949E-16
3.110000E+03	1.228131E-15	1.541255E-16
3.120000E+03	1.236073E-15	1.535602E-16
3.130000E+03	1.244156E-15	1.529251E-16
3.140000E+03	1.252286E-15	1.522080E-16
3.150000E+03	1.260468E-15	1.514094E-16
3.160000E+03	1.268711E-15	1.505301E-16
3.170000E+03	1.277124E-15	1.495830E-16
3.180000E+03	1.285609E-15	1.485566E-16
3.190000E+03	1.294276E-15	1.474637E-16
3.200000E+03	1.303131E-15	1.463047E-16
3.210000E+03	1.312077E-15	1.450690E-16
3.220000E+03	1.321221E-15	1.437690E-16
3.230000E+03	1.330668E-15	1.424163E-16
3.240000E+03	1.340222E-15	1.409898E-16
3.250000E+03	1.350087E-15	1.395119E-16
3.260000E+03	1.360266E-15	1.379832E-16
3.270000E+03	1.370662E-15	1.363941E-16
3.280000E+03	1.381376E-15	1.347556E-16
3.290000E+03	1.392311E-15	1.330590E-16
3.300000E+03	1.403667E-15	1.313247E-16
3.310000E+03	1.415444E-15	1.295530E-16
3.320000E+03	1.427541E-15	1.277357E-16
3.330000E+03	1.440057E-15	1.258829E-16
3.340000E+03	1.452989E-15	1.239958E-16
3.350000E+03	1.466334E-15	1.220756E-16
3.360000E+03	1.480188E-15	1.201323E-16
3.370000E+03	1.494546E-15	1.181670E-16
3.380000E+03	1.509401E-15	1.161814E-16
3.390000E+03	1.524948E-15	1.141927E-16
3.400000E+03	1.540977E-15	1.121875E-16
3.410000E+03	1.557582E-15	1.101759E-16
3.420000E+03	1.574951E-15	1.081743E-16
3.430000E+03	1.592975E-15	1.061783E-16
3.440000E+03	1.611744E-15	1.041976E-16
3.450000E+03	1.631246E-15	1.022353E-16
3.460000E+03	1.651670E-15	1.003071E-16
3.470000E+03	1.672905E-15	9.841010E-17
3.480000E+03	1.695040E-15	9.655393E-17
3.490000E+03	1.718164E-15	9.474763E-17
3.500000E+03	1.742269E-15	9.299449E-17
3.510000E+03	1.767542E-15	9.130811E-17
3.520000E+03	1.793876E-15	8.968592E-17
3.530000E+03	1.821362E-15	8.813542E-17
3.540000E+03	1.850091E-15	8.666319E-17
3.550000E+03	1.880057E-15	8.527042E-17
3.560000E+03	1.911255E-15	8.395785E-17
3.570000E+03	1.943587E-15	8.272160E-17
3.580000E+03	1.977252E-15	8.156991E-17
3.590000E+03	2.012061E-15	8.049380E-17
3.600000E+03	2.048029E-15	7.949234E-17
3.610000E+03	2.085177E-15	7.856414E-17
3.620000E+03	2.123533E-15	7.770749E-17
3.630000E+03	2.163134E-15	7.692050E-17
3.640000E+03	2.203827E-15	7.619469E-17
3.650000E+03	2.245859E-15	7.553574E-17
3.660000E+03	2.289095E-15	7.493650E-17
3.670000E+03	2.333703E-15	7.440038E-17
3.680000E+03	2.379677E-15	7.392431E-17
3.690000E+03	2.427124E-15	7.350941E-17
3.700000E+03	2.476074E-15	7.315487E-17
3.710000E+03	2.526700E-15	7.286262E-17
3.720000E+03	2.579296E-15	7.263840E-17
3.730000E+03	2.633903E-15	7.248046E-17
3.740000E+03	2.690842E-15	7.239056E-17
3.750000E+03	2.750475E-15	7.237097E-17
3.760000E+03	2.813196E-15	7.242389E-17
3.770000E+03	2.879373E-15	7.254374E-17
3.780000E+03	2.949499E-15	7.272747E-17
3.790000E+03	3.024069E-15	7.297261E-17
3.800000E+03	3.103449E-15	7.326968E-17
3.810000E+03	3.188079E-15	7.361322E-17
3.820000E+03	3.278247E-15	7.399734E-17
3.830000E+03	3.374150E-15	7.441367E-17
3.840000E+03	3.475880E-15	7.485710E-17
3.850000E+03	3.583397E-15	7.532657E-17
3.860000E+03	3.696139E-15	7.581285E-17
3.870000E+03	3.813656E-15	7.631877E-17
3.880000E+03	3.935177E-15	7.684950E-17
3.890000E+03	4.059318E-15	7.739640E-17
3.900000E+03	4.184645E-15	7.795908E-17
3.910000E+03	4.309612E-15	7.853936E-17
3.920000E+03	4.432038E-15	7.910645E-17
3.930000E+03	4.549893E-15	7.963389E-17
3.940000E+03	4.660723E-15	8.009430E-17
3.950000E+03	4.762361E-15	8.045773E-17
3.960000E+03	4.852821E-15	8.070513E-17
3.970000E+03	4.929965E-15	8.082219E-17
3.980000E+03	4.992404E-15	8.079391E-17
3.990000E+03	5.039108E-15	8.061699E-17
4.000000E+03	5.069506E-15	8.029853E-17
4.010000E+03	5.083699E-15	7.983101E-17
4.020000E+03	5.082619E-15	7.922163E-17
4.030000E+03	5.067252E-15	7.848041E-17
4.040000E+03	5.039606E-15	7.760864E-17
4.050000E+03	5.001394E-15	7.660775E-17
4.060000E+03	4.954957E-15	7.549674E-17
4.070000E+03	4.902221E-15	7.427512E-17
4.080000E+03	4.845280E-15	7.295622E-17
4.090000E+03	4.786115E-15	7.156479E-17
4.100000E+03	4.726421E-15	7.011568E-17
4.110000E+03	4.667824E-15	6.863578E-17
4.120000E+03	4.611769E-15	6.715785E-17
4.130000E+03	4.559479E-15	6.569256E-17
4.140000E+03	4.511817E-15	6.425398E-17
4.150000E+03	4.469790E-15	6.286717E-17
4.160000E+03	4.433799E-15	6.153304E-17
4.170000E+03	4.404305E-15	6.026430E-17
4.180000E+03	4.381421E-15	5.908190E-17
4.190000E+03	4.365114E-15	5.799769E-17
4.200000E+03	4.355183E-15	5.703491E-17
4.210000E+03	4.351361E-15	5.622188E-17
4.220000E+03	4.353005E-15	5.554907E-17
4.230000E+03	4.359646E-15	5.501352E-17
4.240000E+03	4.370470E-15	5.460932E-17
4.250000E+03	4.384568E-15	5.428685E-17
4.260000E+03	4.401215E-15	5.400075E-17
4.270000E+03	4.419169E-15	5.370732E-17
4.280000E+03	4.437228E-15	5.334044E-17
4.290000E+03	4.453782E-15	5.284130E-17
4.300000E+03	4.467513E-15	5.217352E-17
4.310000E+03	4.476730E-15	5.129409E-17
4.320000E+03	4.479923E-15	5.018648E-17
4.330000E+03	4.475704E-15	4.886012E-17
4.340000E+03	4.463272E-15	4.732747E-17
4.350000E+03	4.441948E-15	4.563113E-17
4.360000E+03	4.411737E-15	4.384616E-17
4.370000E+03	4.373483E-15	4.203976E-17
4.380000E+03	4.328453E-15	4.031115E-17
4.390000E+03	4.278260E-15	3.879096E-17
4.400000E+03	4.224711E-15	3.759452E-17
4.410000E+03	4.169946E-15	3.683997E-17
4.420000E+03	4.117234E-15	3.659611E-17
4.430000E+03	4.070601E-15	3.678544E-17
4.440000E+03	4.035354E-15	3.729889E-17
4.450000E+03	4.016462E-15	3.806158E-17
4.460000E+03	4.017928E-15	3.902511E-17
4.470000E+03	4.043518E-15	4.019453E-17
4.480000E+03	4.096794E-15	4.161196E-17
4.490000E+03	4.179770E-15	4.328966E-17
4.500000E+03	4.294218E-15	4.525818E-17
4.510000E+03	4.441494E-15	4.755416E-17
4.520000E+03	4.621061E-15	5.013831E-17
4.530000E+03	4.831245E-15	5.295683E-17
4.540000E+03	5.069386E-15	5.596279E-17
4.550000E+03	5.331349E-15	5.909478E-17
4.560000E+03	5.611318E-15	6.230103E-17
4.570000E+03	5.901880E-15	6.554258E-17
4.580000E+03	6.193829E-15	6.875570E-17
4.590000E+03	6.476582E-15	7.189101E-17
4.600000E+03	6.738499E-15	7.490484E-17
4.610000E+03	6.968757E-15	7.770138E-17
4.620000E+03	7.157379E-15	8.019091E-17
4.630000E+03	7.295967E-15	8.229430E-17
4.640000E+03	7.380541E-15	8.389271E-17
4.650000E+03	7.410379E-15	8.490658E-17
4.660000E+03	7.386847E-15	8.531390E-17
4.670000E+03	7.315379E-15	8.514036E-17
4.680000E+03	7.202811E-15	8.447401E-17
4.690000E+03	7.057733E-15	8.346674E-17
4.700000E+03	6.889493E-15	8.227733E-17
4.710000E+03	6.707698E-15	8.108492E-17
4.720000E+03	6.521366E-15	8.003045E-17
4.730000E+03	6.337766E-15	7.908784E-17
4.740000E+03	6.163274E-15	7.821112E-17
4.750000E+03	6.003057E-15	7.737431E-17
4.760000E+03	5.860523E-15	7.654160E-17
4.770000E+03	5.738419E-15	7.570317E-17
4.780000E+03	5.638596E-15	7.486881E-17
4.790000E+03	5.561962E-15	7.404612E-17
4.800000E+03	5.508988E-15	7.325448E-17
4.810000E+03	5.479700E-15	7.251095E-17
4.820000E+03	5.473075E-15	7.178457E-17
4.830000E+03	5.487760E-15	7.104534E-17
4.840000E+03	5.522292E-15	7.027928E-17
4.850000E+03	5.575019E-15	6.947583E-17
4.860000E+03	5.644144E-15	6.865512E-17
4.870000E+03	5.727626E-15	6.787610E-17
4.880000E+03	5.823286E-15	6.722751E-17
4.890000E+03	5.928393E-15	6.684243E-17
4.900000E+03	6.039520E-15	6.686188E-17
4.910000E+03	6.150988E-15	6.730759E-17
4.920000E+03	6.256060E-15	6.817498E-17
4.930000E+03	6.347715E-15	6.942494E-17
4.940000E+03	6.419078E-15	7.086578E-17
4.950000E+03	6.463487E-15	7.227484E-17
4.960000E+03	6.475453E-15	7.345560E-17
4.970000E+03	6.452121E-15	7.422597E-17
4.980000E+03	6.392053E-15	7.445863E-17
4.990000E+03	6.295962E-15	7.409154E-17
5.000000E+03	6.167705E-15	7.309220E-17
5.010000E+03	6.012814E-15	7.149123E-17
5.020000E+03	5.837411E-15	6.936882E-17
5.030000E+03	5.648672E-15	6.681638E-17
5.040000E+03	5.453802E-15	6.395987E-17
5.050000E+03	5.259302E-15	6.094829E-17
5.060000E+03	5.070848E-15	5.792128E-17
5.070000E+03	4.893452E-15	5.502430E-17
5.080000E+03	4.731023E-15	5.237570E-17
5.090000E+03	4.586284E-15	4.999942E-17
5.100000E+03	4.461501E-15	4.790735E-17
5.110000E+03	4.358238E-15	4.610395E-17
5.120000E+03	4.277627E-15	4.454400E-17
5.130000E+03	4.220650E-15	4.319282E-17
5.140000E+03	4.188134E-15	4.203675E-17
5.150000E+03	4.180652E-15	4.105522E-17
5.160000E+03	4.198774E-15	4.025677E-17
5.170000E+03	4.243200E-15	3.967815E-17
5.180000E+03	4.314032E-15	3.933726E-17
5.190000E+03	4.411513E-15	3.928776E-17
5.200000E+03	4.535518E-15	3.959996E-17
5.210000E+03	4.684734E-15	4.026019E-17
5.220000E+03	4.857302E-15	4.126650E-17
5.230000E+03	5.050682E-15	4.262766E-17
5.240000E+03	5.261228E-15	4.424659E-17
5.250000E+03	5.484404E-15	4.602834E-17
5.260000E+03	5.714827E-15	4.790048E-17
5.270000E+03	5.946842E-15	4.972807E-17
5.280000E+03	6.174318E-15	5.140707E-17
5.290000E+03	6.390871E-15	5.288278E-17
5.300000E+03	6.591037E-15	5.407354E-17
5.310000E+03	6.769957E-15	5.495761E-17
5.320000E+03	6.924028E-15	5.557276E-17
5.330000E+03	7.052805E-15	5.590538E-17
5.340000E+03	7.157776E-15	5.598994E-17
5.350000E+03	7.242352E-15	5.587903E-17
5.360000E+03	7.314630E-15	5.547066E-17
5.370000E+03	7.384589E-15	5.468535E-17
5.380000E+03	7.462697E-15	5.351933E-17
5.390000E+03	7.560239E-15	5.197695E-17
5.400000E+03	7.688498E-15	5.015770E-17
5.410000E+03	7.858633E-15	4.825391E-17
5.420000E+03	8.079769E-15	4.643230E-17
5.430000E+03	8.360465E-15	4.504649E-17
5.440000E+03	8.708014E-15	4.466775E-17
5.450000E+03	9.125644E-15	4.573946E-17
5.460000E+03	9.606500E-15	4.835921E-17
5.470000E+03	1.013460E-14	5.224046E-17
5.480000E+03	1.069090E-14	5.674213E-17
5.490000E+03	1.125247E-14	6.135367E-17
5.500000E+03	1.179284E-14	6.577391E-17
5.510000E+03	1.228940E-14	6.959342E-17
5.520000E+03	1.272054E-14	7.261209E-17
5.530000E+03	1.306699E-14	7.484510E-17
5.540000E+03	1.331738E-14	7.611495E-17
5.550000E+03	1.346595E-14	7.646371E-17
5.560000E+03	1.351119E-14	7.616010E-17
5.570000E+03	1.345677E-14	7.524146E-17
5.580000E+03	1.330989E-14	7.397088E-17
5.590000E+03	1.308009E-14	7.274077E-17
5.600000E+03	1.277642E-14	7.141739E-17
5.610000E+03	1.240869E-14	7.000829E-17
5.620000E+03	1.198811E-14	6.868464E-17
5.630000E+03	1.152619E-14	6.724438E-17
5.640000E+03	1.103453E-14	6.565436E-17
5.650000E+03	1.052534E-14	6.403465E-17
5.660000E+03	1.001360E-14	6.223664E-17
5.670000E+03	9.513231E-15	6.025137E-17
5.680000E+03	9.036137E-15	5.820528E-17
5.690000E+03	8.594138E-15	5.608164E-17
5.700000E+03	8.196732E-15	5.396503E-17
5.710000E+03	7.850963E-15	5.200369E-17
5.720000E+03	7.561024E-15	5.016498E-17
5.730000E+03	7.329947E-15	4.848993E-17
5.740000E+03	7.159283E-15	4.709452E-17
5.750000E+03	7.047418E-15	4.598099E-17
5.760000E+03	6.992467E-15	4.524227E-17
5.770000E+03	6.991975E-15	4.502358E-17
5.780000E+03	7.039699E-15	4.525153E-17
5.790000E+03	7.128805E-15	4.592244E-17
5.800000E+03	7.251940E-15	4.712356E-17
5.810000E+03	7.400219E-15	4.878832E-17
5.820000E+03	7.563734E-15	5.092149E-17
5.830000E+03	7.732206E-15	5.356666E-17
5.840000E+03	7.896924E-15	5.649013E-17
5.850000E+03	8.049026E-15	5.945165E-17
5.860000E+03	8.179860E-15	6.226270E-17
5.870000E+03	8.283290E-15	6.461495E-17
5.880000E+03	8.353911E-15	6.626471E-17
5.890000E+03	8.387252E-15	6.709365E-17
5.900000E+03	8.380466E-15	6.703821E-17
5.910000E+03	8.332049E-15	6.617246E-17
5.920000E+03	8.241998E-15	6.468103E-17
5.930000E+03	8.112463E-15	6.271605E-17
5.940000E+03	7.946713E-15	6.051806E-17
5.950000E+03	7.749523E-15	5.836923E-17
5.960000E+03	7.527749E-15	5.637845E-17
5.970000E+03	7.288682E-15	5.466750E-17
5.980000E+03	7.039582E-15	5.332141E-17
5.990000E+03	6.787678E-15	5.214088E-17
6.000000E+03	6.539578E-15	5.095088E-17
6.010000E+03	6.300691E-15	4.966944E-17
6.020000E+03	6.074317E-15	4.819585E-17
6.030000E+03	5.862828E-15	4.651943E-17
6.040000E+03	5.667954E-15	4.471958E-17
6.050000E+03	5.489758E-15	4.288446E-17
6.060000E+03	5.327811E-15	4.116571E-17
6.070000E+03	5.181205E-15	3.972276E-17
6.080000E+03	5.047528E-15	3.856410E-17
6.090000E+03	4.924119E-15	3.771035E-17
6.100000E+03	4.808666E-15	3.718994E-17
6.110000E+03	4.699662E-15	3.689733E-17
6.120000E+03	4.595888E-15	3.675049E-17
6.130000E+03	4.496590E-15	3.671180E-17
6.140000E+03	4.402638E-15	3.670159E-17
6.150000E+03	4.315149E-15	3.668159E-17
6.160000E+03	4.235474E-15	3.665495E-17
6.170000E+03	4.165833E-15	3.659646E-17
6.180000E+03	4.108389E-15	3.651082E-17
6.190000E+03	4.065148E-15	3.643848E-17
6.200000E+03	4.037717E-15	3.641245E-17
6.210000E+03	4.027581E-15	3.648487E-17
6.220000E+03	4.035653E-15	3.668870E-17
6.230000E+03	4.061314E-15	3.692948E-17
6.240000E+03	4.103709E-15	3.709799E-17
6.250000E+03	4.161711E-15	3.711285E-17
6.260000E+03	4.234302E-15	3.692151E-17
6.270000E+03	4.320345E-15	3.652193E-17
6.280000E+03	4.418819E-15	3.597499E-17
6.290000E+03	4.528793E-15	3.539660E-17
6.300000E+03	4.649481E-15	3.497625E-17
6.310000E+03	4.780176E-15	3.489050E-17
6.320000E+03	4.920992E-15	3.507619E-17
6.330000E+03	5.072168E-15	3.542329E-17
6.340000E+03	5.233907E-15	3.585434E-17
6.350000E+03	5.405669E-15	3.625848E-17
6.360000E+03	5.586703E-15	3.659782E-17
6.370000E+03	5.775893E-15	3.689725E-17
6.380000E+03	5.971460E-15	3.709079E-17
6.390000E+03	6.171301E-15	3.717795E-17
6.400000E+03	6.373440E-15	3.721674E-17
6.410000E+03	6.577387E-15	3.710693E-17
6.420000E+03	6.783017E-15	3.683760E-17
6.430000E+03	6.991257E-15	3.656095E-17
6.440000E+03	7.208285E-15	3.644117E-17
6.450000E+03	7.441269E-15	3.688272E-17
6.460000E+03	7.696912E-15	3.845335E-17
6.470000E+03	7.979640E-15	4.128409E-17
6.480000E+03	8.281603E-15	4.508358E-17
6.490000E+03	8.588686E-15	4.947479E-17
6.500000E+03	8.891117E-15	5.397607E-17
6.510000E+03	9.179008E-15	5.825352E-17
6.520000E+03	9.441477E-15	6.213398E-17
6.530000E+03	9.670569E-15	6.538880E-17
6.540000E+03	9.858936E-15	6.792887E-17
6.550000E+03	9.999673E-15	6.980725E-17
6.560000E+03	1.008809E-14	7.099377E-17
6.570000E+03	1.012091E-14	7.158833E-17
6.580000E+03	1.009613E-14	7.178298E-17
6.590000E+03	1.001411E-14	7.155776E-17
6.600000E+03	9.876761E-15	7.097070E-17
6.610000E+03	9.687619E-15	7.015794E-17
6.620000E+03	9.452446E-15	6.905707E-17
6.630000E+03	9.177671E-15	6.768737E-17
6.640000E+03	8.871017E-15	6.615577E-17
6.650000E+03	8.541002E-15	6.441197E-17
6.660000E+03	8.196495E-15	6.249610E-17
6.670000E+03	7.845536E-15	6.052595E-17
6.680000E+03	7.496112E-15	5.850608E-17
6.690000E+03	7.155178E-15	5.651262E-17
6.700000E+03	6.828377E-15	5.467265E-17
6.710000E+03	6.519750E-15	5.299146E-17
6.720000E+03	6.232096E-15	5.151936E-17
6.730000E+03	5.967517E-15	5.033547E-17
6.740000E+03	5.725793E-15	4.937979E-17
6.750000E+03	5.506454E-15	4.863188E-17
6.760000E+03	5.308462E-15	4.811722E-17
6.770000E+03	5.130304E-15	4.780782E-17
6.780000E+03	4.970175E-15	4.771263E-17
6.790000E+03	4.826414E-15	4.786926E-17
6.800000E+03	4.697348E-15	4.825207E-17
6.810000E+03	4.581259E-15	4.884725E-17
6.820000E+03	4.476775E-15	4.963891E-17
6.830000E+03	4.382928E-15	5.051379E-17
6.840000E+03	4.298848E-15	5.136217E-17
6.850000E+03	4.223822E-15	5.210695E-17
6.860000E+03	4.157181E-15	5.267759E-17
6.870000E+03	4.098131E-15	5.302823E-17
6.880000E+03	4.046066E-15	5.314419E-17
6.890000E+03	4.000327E-15	5.302954E-17
6.900000E+03	3.960221E-15	5.270929E-17
6.910000E+03	3.925185E-15	5.222063E-17
6.920000E+03	3.894318E-15	5.157987E-17
6.930000E+03	3.866747E-15	5.081259E-17
6.940000E+03	3.841615E-15	4.995077E-17
6.950000E+03	3.818055E-15	4.900130E-17
6.960000E+03	3.795219E-15	4.798016E-17
6.970000E+03	3.772332E-15	4.691477E-17
6.980000E+03	3.748827E-15	4.581627E-17
6.990000E+03	3.724162E-15	4.470956E-17
7.000000E+03	3.698072E-15	4.363088E-17
7.010000E+03	3.670475E-15	4.258205E-17
7.020000E+03	3.641605E-15	4.158155E-17
7.030000E+03	3.611579E-15	4.066555E-17
7.040000E+03	3.580881E-15	3.985858E-17
7.050000E+03	3.550156E-15	3.920847E-17
7.060000E+03	3.519824E-15	3.877188E-17
7.070000E+03	3.490660E-15	3.856284E-17
7.080000E+03	3.463206E-15	3.860150E-17
7.090000E+03	3.438052E-15	3.891329E-17
7.100000E+03	3.415657E-15	3.946639E-17
7.110000E+03	3.396489E-15	4.023401E-17
7.120000E+03	3.380856E-15	4.119808E-17
7.130000E+03	3.369148E-15	4.230775E-17
7.140000E+03	3.361749E-15	4.352113E-17
7.150000E+03	3.358787E-15	4.480105E-17
7.160000E+03	3.360408E-15	4.607568E-17
7.170000E+03	3.366418E-15	4.727436E-17
7.180000E+03	3.376855E-15	4.834708E-17
7.190000E+03	3.391520E-15	4.924792E-17
7.200000E+03	3.410259E-15	4.994755E-17
7.210000E+03	3.432887E-15	5.043356E-17
7.220000E+03	3.459251E-15	5.070623E-17
7.230000E+03	3.489268E-15	5.078409E-17
7.240000E+03	3.522792E-15	5.069996E-17
7.250000E+03	3.559706E-15	5.049122E-17
7.260000E+03	3.600036E-15	5.021179E-17
7.270000E+03	3.643699E-15	4.991680E-17
7.280000E+03	3.690889E-15	4.962583E-17
7.290000E+03	3.741646E-15	4.935606E-17
7.300000E+03	3.796099E-15	4.912679E-17
7.310000E+03	3.854155E-15	4.891481E-17
7.320000E+03	3.915798E-15	4.870268E-17
7.330000E+03	3.980877E-15	4.848580E-17
7.340000E+03	4.049109E-15	4.824615E-17
7.350000E+03	4.120103E-15	4.798807E-17
7.360000E+03	4.193381E-15	4.774078E-17
7.370000E+03	4.268285E-15	4.751991E-17
7.380000E+03	4.343860E-15	4.737019E-17
7.390000E+03	4.419275E-15	4.736236E-17
7.400000E+03	4.493026E-15	4.751304E-17
7.410000E+03	4.563783E-15	4.786572E-17
7.420000E+03	4.629937E-15	4.848639E-17
7.430000E+03	4.690191E-15	4.938869E-17
7.440000E+03	4.743135E-15	5.060555E-17
7.450000E+03	4.787703E-15	5.219090E-17
7.460000E+03	4.823549E-15	5.413472E-17
7.470000E+03	4.850593E-15	5.643325E-17
7.480000E+03	4.869057E-15	5.907936E-17
7.490000E+03	4.880125E-15	6.197119E-17
7.500000E+03	4.885420E-15	6.500706E-17
7.510000E+03	4.886269E-15	6.810033E-17
7.520000E+03	4.884156E-15	7.114003E-17
7.530000E+03	4.880383E-15	7.403109E-17
7.540000E+03	4.876120E-15	7.669565E-17
7.550000E+03	4.872254E-15	7.903048E-17
7.560000E+03	4.869248E-15	8.093875E-17
7.570000E+03	4.867729E-15	8.234991E-17
7.580000E+03	4.868190E-15	8.320877E-17
7.590000E+03	4.870996E-15	8.347782E-17
7.600000E+03	4.876486E-15	8.313873E-17
7.610000E+03	4.885021E-15	8.219183E-17
7.620000E+03	4.896789E-15	8.065318E-17
7.630000E+03	4.912094E-15	7.856012E-17
7.640000E+03	4.931018E-15	7.596650E-17
7.650000E+03	4.953838E-15	7.295278E-17
7.660000E+03	4.980418E-15	6.961462E-17
7.670000E+03	5.010026E-15	6.605080E-17
7.680000E+03	5.041795E-15	6.239040E-17
7.690000E+03	5.074542E-15	5.877634E-17
7.700000E+03	5.106631E-15	5.530360E-17
7.710000E+03	5.136326E-15	5.208656E-17
7.720000E+03	5.161783E-15	4.923176E-17
7.730000E+03	5.181647E-15	4.671229E-17
7.740000E+03	5.194491E-15	4.449865E-17
7.750000E+03	5.199038E-15	4.258333E-17
7.760000E+03	5.194266E-15	4.088418E-17
