#wls	flux	fluxerr
1.600000E+03	7.220583E-16	2.434960E-16
1.640000E+03	6.648453E-16	2.136724E-16
1.680000E+03	6.135444E-16	1.876117E-16
1.720000E+03	5.679766E-16	1.649965E-16
1.760000E+03	5.275208E-16	1.454007E-16
1.800000E+03	4.919980E-16	1.285549E-16
1.840000E+03	4.610316E-16	1.141572E-16
1.880000E+03	4.342766E-16	1.019425E-16
1.920000E+03	4.115727E-16	9.171392E-17
1.960000E+03	3.924750E-16	8.323245E-17
2.000000E+03	3.769454E-16	7.636929E-17
2.040000E+03	3.647430E-16	7.096346E-17
2.080000E+03	3.555920E-16	6.685592E-17
2.120000E+03	3.494929E-16	6.393948E-17
2.160000E+03	3.461990E-16	6.205453E-17
2.200000E+03	3.456066E-16	6.106813E-17
2.240000E+03	3.475678E-16	6.084610E-17
2.280000E+03	3.518926E-16	6.125945E-17
2.320000E+03	3.585844E-16	6.222833E-17
2.360000E+03	3.674126E-16	6.364886E-17
2.400000E+03	3.783263E-16	6.546496E-17
2.440000E+03	3.911444E-16	6.761390E-17
2.480000E+03	4.057304E-16	7.005550E-17
2.520000E+03	4.218640E-16	7.274764E-17
2.560000E+03	4.394335E-16	7.567522E-17
2.600000E+03	4.582522E-16	7.881113E-17
2.640000E+03	4.780629E-16	8.210689E-17
2.680000E+03	4.987578E-16	8.552032E-17
2.720000E+03	5.201130E-16	8.896511E-17
2.760000E+03	5.419988E-16	9.234883E-17
2.800000E+03	5.643122E-16	9.556674E-17
2.840000E+03	5.869784E-16	9.850806E-17
2.880000E+03	6.097963E-16	1.010359E-16
2.920000E+03	6.328233E-16	1.030564E-16
2.960000E+03	6.560736E-16	1.044713E-16
3.000000E+03	6.797548E-16	1.052183E-16
3.010000E+03	6.857640E-16	1.052935E-16
3.020000E+03	6.918525E-16	1.053279E-16
3.030000E+03	6.980223E-16	1.053206E-16
3.040000E+03	7.041936E-16	1.052580E-16
3.050000E+03	7.103679E-16	1.051394E-16
3.060000E+03	7.167116E-16	1.049882E-16
3.070000E+03	7.230624E-16	1.047792E-16
3.080000E+03	7.295878E-16	1.045355E-16
3.090000E+03	7.361248E-16	1.042323E-16
3.100000E+03	7.427587E-16	1.038807E-16
3.110000E+03	7.494919E-16	1.034801E-16
3.120000E+03	7.563272E-16	1.030296E-16
3.130000E+03	7.632673E-16	1.025286E-16
3.140000E+03	7.703990E-16	1.019875E-16
3.150000E+03	7.775572E-16	1.013834E-16
3.160000E+03	7.849131E-16	1.007379E-16
3.170000E+03	7.924704E-16	1.000502E-16
3.180000E+03	8.001474E-16	9.930874E-17
3.190000E+03	8.080325E-16	9.852377E-17
3.200000E+03	8.160437E-16	9.768434E-17
3.210000E+03	8.243553E-16	9.681048E-17
3.220000E+03	8.328000E-16	9.588140E-17
3.230000E+03	8.414667E-16	9.490695E-17
3.240000E+03	8.503592E-16	9.388687E-17
3.250000E+03	8.595679E-16	9.283038E-17
3.260000E+03	8.690102E-16	9.172779E-17
3.270000E+03	8.786900E-16	9.057931E-17
3.280000E+03	8.886982E-16	8.939415E-17
3.290000E+03	8.990394E-16	8.817235E-17
3.300000E+03	9.097182E-16	8.691423E-17
3.310000E+03	9.207390E-16	8.562036E-17
3.320000E+03	9.321948E-16	8.429963E-17
3.330000E+03	9.440025E-16	8.294491E-17
3.340000E+03	9.561667E-16	8.155787E-17
3.350000E+03	9.687813E-16	8.014797E-17
3.360000E+03	9.819412E-16	7.872437E-17
3.370000E+03	9.954738E-16	7.727508E-17
3.380000E+03	1.009564E-15	7.581735E-17
3.390000E+03	1.024128E-15	7.434782E-17
3.400000E+03	1.039353E-15	7.288365E-17
3.410000E+03	1.055065E-15	7.141660E-17
3.420000E+03	1.071452E-15	6.996454E-17
3.430000E+03	1.088431E-15	6.852731E-17
3.440000E+03	1.106100E-15	6.711738E-17
3.450000E+03	1.124466E-15	6.574179E-17
3.460000E+03	1.143537E-15	6.440814E-17
3.470000E+03	1.163411E-15	6.312950E-17
3.480000E+03	1.184002E-15	6.190877E-17
3.490000E+03	1.205406E-15	6.075889E-17
3.500000E+03	1.227628E-15	5.968741E-17
3.510000E+03	1.250761E-15	5.870577E-17
3.520000E+03	1.274712E-15	5.781566E-17
3.530000E+03	1.299571E-15	5.702665E-17
3.540000E+03	1.325330E-15	5.634273E-17
3.550000E+03	1.351983E-15	5.576661E-17
3.560000E+03	1.379611E-15	5.530352E-17
3.570000E+03	1.408105E-15	5.494942E-17
3.580000E+03	1.437544E-15	5.470648E-17
3.590000E+03	1.467814E-15	5.456806E-17
3.600000E+03	1.499086E-15	5.453707E-17
3.610000E+03	1.531245E-15	5.460447E-17
3.620000E+03	1.564269E-15	5.476401E-17
3.630000E+03	1.598139E-15	5.500884E-17
3.640000E+03	1.632934E-15	5.533509E-17
3.650000E+03	1.668538E-15	5.573212E-17
3.660000E+03	1.704940E-15	5.619285E-17
3.670000E+03	1.742327E-15	5.671706E-17
3.680000E+03	1.780503E-15	5.729218E-17
3.690000E+03	1.819476E-15	5.791300E-17
3.700000E+03	1.859467E-15	5.858146E-17
3.710000E+03	1.900317E-15	5.928788E-17
3.720000E+03	1.942183E-15	6.003306E-17
3.730000E+03	1.985046E-15	6.081259E-17
3.740000E+03	2.029111E-15	6.162915E-17
3.750000E+03	2.074505E-15	6.248317E-17
3.760000E+03	2.121380E-15	6.337581E-17
3.770000E+03	2.169807E-15	6.430582E-17
3.780000E+03	2.220066E-15	6.527834E-17
3.790000E+03	2.272242E-15	6.629272E-17
3.800000E+03	2.326613E-15	6.735419E-17
3.810000E+03	2.383232E-15	6.846174E-17
3.820000E+03	2.442214E-15	6.961670E-17
3.830000E+03	2.503623E-15	7.081939E-17
3.840000E+03	2.567449E-15	7.206877E-17
3.850000E+03	2.633597E-15	7.336207E-17
3.860000E+03	2.701766E-15	7.469160E-17
3.870000E+03	2.771855E-15	7.605596E-17
3.880000E+03	2.843124E-15	7.743690E-17
3.890000E+03	2.915234E-15	7.882802E-17
3.900000E+03	2.987420E-15	8.021190E-17
3.910000E+03	3.058812E-15	8.156901E-17
3.920000E+03	3.128778E-15	8.288657E-17
3.930000E+03	3.196096E-15	8.413646E-17
3.940000E+03	3.260052E-15	8.530415E-17
3.950000E+03	3.319623E-15	8.636681E-17
3.960000E+03	3.373942E-15	8.730538E-17
3.970000E+03	3.422124E-15	8.809974E-17
3.980000E+03	3.463521E-15	8.873498E-17
3.990000E+03	3.497744E-15	8.920191E-17
4.000000E+03	3.524275E-15	8.948683E-17
4.010000E+03	3.543010E-15	8.958548E-17
4.020000E+03	3.554148E-15	8.950027E-17
4.030000E+03	3.557881E-15	8.923267E-17
4.040000E+03	3.554688E-15	8.879084E-17
4.050000E+03	3.545106E-15	8.818444E-17
4.060000E+03	3.529899E-15	8.742909E-17
4.070000E+03	3.509921E-15	8.654331E-17
4.080000E+03	3.486076E-15	8.554785E-17
4.090000E+03	3.459202E-15	8.446279E-17
4.100000E+03	3.430215E-15	8.331114E-17
4.110000E+03	3.399989E-15	8.211555E-17
4.120000E+03	3.369250E-15	8.089557E-17
4.130000E+03	3.338808E-15	7.967272E-17
4.140000E+03	3.309212E-15	7.846199E-17
4.150000E+03	3.280911E-15	7.727545E-17
4.160000E+03	3.254394E-15	7.612537E-17
4.170000E+03	3.229887E-15	7.501704E-17
4.180000E+03	3.207647E-15	7.395581E-17
4.190000E+03	3.187612E-15	7.293903E-17
4.200000E+03	3.169831E-15	7.196622E-17
4.210000E+03	3.154123E-15	7.103138E-17
4.220000E+03	3.140359E-15	7.012954E-17
4.230000E+03	3.128144E-15	6.924974E-17
4.240000E+03	3.117284E-15	6.838555E-17
4.250000E+03	3.107287E-15	6.752410E-17
4.260000E+03	3.097822E-15	6.665636E-17
4.270000E+03	3.088484E-15	6.577214E-17
4.280000E+03	3.078759E-15	6.485983E-17
4.290000E+03	3.068397E-15	6.391467E-17
4.300000E+03	3.057080E-15	6.293213E-17
4.310000E+03	3.044449E-15	6.190918E-17
4.320000E+03	3.030413E-15	6.085097E-17
4.330000E+03	3.014943E-15	5.976677E-17
4.340000E+03	2.998090E-15	5.867054E-17
4.350000E+03	2.980164E-15	5.758408E-17
4.360000E+03	2.961575E-15	5.653329E-17
4.370000E+03	2.942841E-15	5.554741E-17
4.380000E+03	2.924686E-15	5.465952E-17
4.390000E+03	2.907920E-15	5.390284E-17
4.400000E+03	2.893618E-15	5.331239E-17
4.410000E+03	2.882750E-15	5.291674E-17
4.420000E+03	2.876463E-15	5.274116E-17
4.430000E+03	2.875998E-15	5.280191E-17
4.440000E+03	2.882602E-15	5.310938E-17
4.450000E+03	2.897457E-15	5.367035E-17
4.460000E+03	2.921552E-15	5.448750E-17
4.470000E+03	2.955867E-15	5.556448E-17
4.480000E+03	3.001203E-15	5.690384E-17
4.490000E+03	3.058011E-15	5.850440E-17
4.500000E+03	3.126675E-15	6.036666E-17
4.510000E+03	3.207108E-15	6.248484E-17
4.520000E+03	3.299034E-15	6.485189E-17
4.530000E+03	3.401769E-15	6.745463E-17
4.540000E+03	3.514184E-15	7.027246E-17
4.550000E+03	3.634777E-15	7.327819E-17
4.560000E+03	3.761623E-15	7.643651E-17
4.570000E+03	3.892396E-15	7.970379E-17
4.580000E+03	4.024362E-15	8.302749E-17
4.590000E+03	4.154626E-15	8.635083E-17
4.600000E+03	4.279974E-15	8.960906E-17
4.610000E+03	4.397412E-15	9.274055E-17
4.620000E+03	4.503812E-15	9.567906E-17
4.630000E+03	4.596731E-15	9.837082E-17
4.640000E+03	4.673849E-15	1.007624E-16
4.650000E+03	4.733645E-15	1.028149E-16
4.660000E+03	4.775429E-15	1.045045E-16
4.670000E+03	4.798946E-15	1.058139E-16
4.680000E+03	4.804920E-15	1.067443E-16
4.690000E+03	4.794730E-15	1.073091E-16
4.700000E+03	4.770116E-15	1.075283E-16
4.710000E+03	4.733350E-15	1.074331E-16
4.720000E+03	4.687006E-15	1.070628E-16
4.730000E+03	4.633637E-15	1.064580E-16
4.740000E+03	4.575872E-15	1.056646E-16
4.750000E+03	4.516120E-15	1.047270E-16
4.760000E+03	4.456550E-15	1.036881E-16
4.770000E+03	4.399028E-15	1.025879E-16
4.780000E+03	4.345189E-15	1.014643E-16
4.790000E+03	4.296205E-15	1.003476E-16
4.800000E+03	4.252905E-15	9.926255E-17
4.810000E+03	4.215735E-15	9.822724E-17
4.820000E+03	4.184884E-15	9.725572E-17
4.830000E+03	4.160161E-15	9.635521E-17
4.840000E+03	4.141318E-15	9.553369E-17
4.850000E+03	4.127680E-15	9.479130E-17
4.860000E+03	4.118465E-15	9.412758E-17
4.870000E+03	4.112801E-15	9.354124E-17
4.880000E+03	4.109460E-15	9.302328E-17
4.890000E+03	4.107174E-15	9.256286E-17
4.900000E+03	4.104657E-15	9.214662E-17
4.910000E+03	4.100420E-15	9.175289E-17
4.920000E+03	4.093016E-15	9.135606E-17
4.930000E+03	4.081105E-15	9.092742E-17
4.940000E+03	4.063445E-15	9.043459E-17
4.950000E+03	4.038972E-15	8.984387E-17
4.960000E+03	4.007062E-15	8.912697E-17
4.970000E+03	3.967360E-15	8.825871E-17
4.980000E+03	3.919864E-15	8.722059E-17
4.990000E+03	3.865062E-15	8.600567E-17
5.000000E+03	3.803775E-15	8.461667E-17
5.010000E+03	3.737186E-15	8.306798E-17
5.020000E+03	3.666686E-15	8.138302E-17
5.030000E+03	3.593788E-15	7.959265E-17
5.040000E+03	3.520208E-15	7.773651E-17
5.050000E+03	3.447504E-15	7.585431E-17
5.060000E+03	3.377331E-15	7.399014E-17
5.070000E+03	3.311152E-15	7.218497E-17
5.080000E+03	3.250256E-15	7.047570E-17
5.090000E+03	3.195844E-15	6.889611E-17
5.100000E+03	3.148947E-15	6.747442E-17
5.110000E+03	3.110336E-15	6.623092E-17
5.120000E+03	3.080765E-15	6.518321E-17
5.130000E+03	3.060746E-15	6.434156E-17
5.140000E+03	3.050727E-15	6.371300E-17
5.150000E+03	3.050969E-15	6.329920E-17
5.160000E+03	3.061682E-15	6.309961E-17
5.170000E+03	3.082923E-15	6.310982E-17
5.180000E+03	3.114629E-15	6.332231E-17
5.190000E+03	3.156605E-15	6.372637E-17
5.200000E+03	3.208516E-15	6.430781E-17
5.210000E+03	3.269875E-15	6.504857E-17
5.220000E+03	3.340035E-15	6.592629E-17
5.230000E+03	3.418226E-15	6.691475E-17
5.240000E+03	3.503420E-15	6.798108E-17
5.250000E+03	3.594602E-15	6.909091E-17
5.260000E+03	3.690588E-15	7.020502E-17
5.270000E+03	3.790071E-15	7.128051E-17
5.280000E+03	3.891910E-15	7.227692E-17
5.290000E+03	3.994984E-15	7.315405E-17
5.300000E+03	4.098304E-15	7.387499E-17
5.310000E+03	4.201183E-15	7.441017E-17
5.320000E+03	4.303327E-15	7.473977E-17
5.330000E+03	4.404767E-15	7.485360E-17
5.340000E+03	4.506089E-15	7.475607E-17
5.350000E+03	4.608278E-15	7.446471E-17
5.360000E+03	4.712883E-15	7.401463E-17
5.370000E+03	4.821798E-15	7.345672E-17
5.380000E+03	4.937364E-15	7.286208E-17
5.390000E+03	5.062074E-15	7.232036E-17
5.400000E+03	5.198633E-15	7.194401E-17
5.410000E+03	5.349640E-15	7.186639E-17
5.420000E+03	5.517399E-15	7.224001E-17
5.430000E+03	5.703862E-15	7.323278E-17
5.440000E+03	5.910193E-15	7.501319E-17
5.450000E+03	6.136794E-15	7.773029E-17
5.460000E+03	6.382236E-15	8.142191E-17
5.470000E+03	6.643516E-15	8.601994E-17
5.480000E+03	6.916328E-15	9.140247E-17
5.490000E+03	7.194716E-15	9.740105E-17
5.500000E+03	7.471730E-15	1.038192E-16
5.510000E+03	7.739473E-15	1.104409E-16
5.520000E+03	7.989598E-15	1.170428E-16
5.530000E+03	8.213742E-15	1.234041E-16
5.540000E+03	8.404320E-15	1.293208E-16
5.550000E+03	8.554727E-15	1.346111E-16
5.560000E+03	8.660301E-15	1.391319E-16
5.570000E+03	8.717789E-15	1.427732E-16
5.580000E+03	8.726457E-15	1.454761E-16
5.590000E+03	8.687395E-15	1.472234E-16
5.600000E+03	8.603785E-15	1.480440E-16
5.610000E+03	8.480271E-15	1.480015E-16
5.620000E+03	8.322913E-15	1.471930E-16
5.630000E+03	8.138433E-15	1.457338E-16
5.640000E+03	7.934116E-15	1.437541E-16
5.650000E+03	7.717092E-15	1.413852E-16
5.660000E+03	7.494315E-15	1.387571E-16
5.670000E+03	7.271997E-15	1.359874E-16
5.680000E+03	7.055715E-15	1.331834E-16
5.690000E+03	6.850080E-15	1.304354E-16
5.700000E+03	6.658639E-15	1.278153E-16
5.710000E+03	6.484346E-15	1.253858E-16
5.720000E+03	6.328873E-15	1.231880E-16
5.730000E+03	6.193397E-15	1.212557E-16
5.740000E+03	6.078214E-15	1.196081E-16
5.750000E+03	5.982893E-15	1.182521E-16
5.760000E+03	5.906462E-15	1.171849E-16
5.770000E+03	5.847414E-15	1.163937E-16
5.780000E+03	5.803828E-15	1.158570E-16
5.790000E+03	5.773212E-15	1.155405E-16
5.800000E+03	5.752973E-15	1.154060E-16
5.810000E+03	5.740104E-15	1.154045E-16
5.820000E+03	5.731458E-15	1.154810E-16
5.830000E+03	5.724018E-15	1.155802E-16
5.840000E+03	5.714629E-15	1.156406E-16
5.850000E+03	5.700509E-15	1.156053E-16
5.860000E+03	5.679137E-15	1.154203E-16
5.870000E+03	5.648358E-15	1.150372E-16
5.880000E+03	5.606568E-15	1.144178E-16
5.890000E+03	5.552760E-15	1.135364E-16
5.900000E+03	5.486382E-15	1.123771E-16
5.910000E+03	5.407487E-15	1.109377E-16
5.920000E+03	5.316634E-15	1.092281E-16
5.930000E+03	5.214833E-15	1.072683E-16
5.940000E+03	5.103458E-15	1.050872E-16
5.950000E+03	4.984065E-15	1.027177E-16
5.960000E+03	4.858635E-15	1.002019E-16
5.970000E+03	4.728951E-15	9.757742E-17
5.980000E+03	4.596989E-15	9.488628E-17
5.990000E+03	4.464604E-15	9.216785E-17
6.000000E+03	4.333513E-15	8.945892E-17
6.010000E+03	4.205166E-15	8.679114E-17
6.020000E+03	4.080959E-15	8.419548E-17
6.030000E+03	3.961929E-15	8.169580E-17
6.040000E+03	3.848876E-15	7.931126E-17
6.050000E+03	3.742410E-15	7.705719E-17
6.060000E+03	3.642930E-15	7.494442E-17
6.070000E+03	3.550616E-15	7.297914E-17
6.080000E+03	3.465567E-15	7.116551E-17
6.090000E+03	3.387659E-15	6.950273E-17
6.100000E+03	3.316757E-15	6.798898E-17
6.110000E+03	3.252669E-15	6.662037E-17
6.120000E+03	3.195145E-15	6.539050E-17
6.130000E+03	3.143931E-15	6.429133E-17
6.140000E+03	3.098817E-15	6.331397E-17
6.150000E+03	3.059583E-15	6.244762E-17
6.160000E+03	3.026035E-15	6.168045E-17
6.170000E+03	2.997974E-15	6.099934E-17
6.180000E+03	2.975253E-15	6.039134E-17
6.190000E+03	2.957734E-15	5.984337E-17
6.200000E+03	2.945348E-15	5.934370E-17
6.210000E+03	2.937995E-15	5.888051E-17
6.220000E+03	2.935635E-15	5.844413E-17
6.230000E+03	2.938202E-15	5.802581E-17
6.240000E+03	2.945611E-15	5.761832E-17
6.250000E+03	2.957830E-15	5.721768E-17
6.260000E+03	2.974863E-15	5.682279E-17
6.270000E+03	2.996762E-15	5.643534E-17
6.280000E+03	3.023588E-15	5.605808E-17
6.290000E+03	3.055593E-15	5.569720E-17
6.300000E+03	3.092992E-15	5.535658E-17
6.310000E+03	3.136108E-15	5.503939E-17
6.320000E+03	3.185388E-15	5.474781E-17
6.330000E+03	3.241237E-15	5.447985E-17
6.340000E+03	3.304174E-15	5.423292E-17
6.350000E+03	3.374613E-15	5.400138E-17
6.360000E+03	3.453006E-15	5.378076E-17
6.370000E+03	3.539757E-15	5.356889E-17
6.380000E+03	3.635140E-15	5.336791E-17
6.390000E+03	3.739441E-15	5.319073E-17
6.400000E+03	3.852887E-15	5.306527E-17
6.410000E+03	3.975608E-15	5.303986E-17
6.420000E+03	4.107655E-15	5.318947E-17
6.430000E+03	4.249011E-15	5.361972E-17
6.440000E+03	4.399447E-15	5.446425E-17
6.450000E+03	4.558578E-15	5.587691E-17
6.460000E+03	4.725587E-15	5.800977E-17
6.470000E+03	4.898965E-15	6.094334E-17
6.480000E+03	5.076198E-15	6.463674E-17
6.490000E+03	5.254230E-15	6.899095E-17
6.500000E+03	5.429417E-15	7.386609E-17
6.510000E+03	5.597648E-15	7.909612E-17
6.520000E+03	5.754704E-15	8.450463E-17
6.530000E+03	5.896540E-15	8.991718E-17
6.540000E+03	6.019259E-15	9.516646E-17
6.550000E+03	6.119427E-15	1.001005E-16
6.560000E+03	6.194446E-15	1.045910E-16
6.570000E+03	6.242282E-15	1.085308E-16
6.580000E+03	6.261807E-15	1.118400E-16
6.590000E+03	6.252760E-15	1.144659E-16
6.600000E+03	6.215794E-15	1.163839E-16
6.610000E+03	6.152272E-15	1.175938E-16
6.620000E+03	6.064235E-15	1.181176E-16
6.630000E+03	5.954343E-15	1.179985E-16
6.640000E+03	5.825463E-15	1.172911E-16
6.650000E+03	5.681049E-15	1.160680E-16
6.660000E+03	5.524343E-15	1.144029E-16
6.670000E+03	5.358760E-15	1.123769E-16
6.680000E+03	5.187573E-15	1.100713E-16
6.690000E+03	5.013707E-15	1.075618E-16
6.700000E+03	4.839906E-15	1.049218E-16
6.710000E+03	4.668454E-15	1.022152E-16
6.720000E+03	4.501432E-15	9.950167E-17
6.730000E+03	4.340387E-15	9.682849E-17
6.740000E+03	4.186561E-15	9.423544E-17
6.750000E+03	4.040862E-15	9.175370E-17
6.760000E+03	3.903947E-15	8.940739E-17
6.770000E+03	3.776156E-15	8.721213E-17
6.780000E+03	3.657568E-15	8.517591E-17
6.790000E+03	3.548212E-15	8.330403E-17
6.800000E+03	3.447839E-15	8.159394E-17
6.810000E+03	3.356099E-15	8.003929E-17
6.820000E+03	3.272719E-15	7.863451E-17
6.830000E+03	3.197135E-15	7.736626E-17
6.840000E+03	3.128944E-15	7.622460E-17
6.850000E+03	3.067611E-15	7.519629E-17
6.860000E+03	3.012703E-15	7.427097E-17
6.870000E+03	2.963610E-15	7.343451E-17
6.880000E+03	2.919946E-15	7.267928E-17
6.890000E+03	2.881160E-15	7.199458E-17
6.900000E+03	2.846824E-15	7.137377E-17
6.910000E+03	2.816494E-15	7.081071E-17
6.920000E+03	2.789713E-15	7.029959E-17
6.930000E+03	2.766154E-15	6.983816E-17
6.940000E+03	2.745378E-15	6.942150E-17
6.950000E+03	2.727080E-15	6.904784E-17
6.960000E+03	2.710955E-15	6.871498E-17
6.970000E+03	2.696734E-15	6.842105E-17
6.980000E+03	2.684184E-15	6.816450E-17
6.990000E+03	2.673084E-15	6.794320E-17
7.000000E+03	2.663317E-15	6.775701E-17
7.010000E+03	2.654773E-15	6.760527E-17
7.020000E+03	2.647386E-15	6.748772E-17
7.030000E+03	2.641091E-15	6.740364E-17
7.040000E+03	2.635894E-15	6.735356E-17
7.050000E+03	2.631862E-15	6.733922E-17
7.060000E+03	2.629024E-15	6.736104E-17
7.070000E+03	2.627461E-15	6.742054E-17
7.080000E+03	2.627271E-15	6.751943E-17
7.090000E+03	2.628558E-15	6.765952E-17
7.100000E+03	2.631433E-15	6.784256E-17
7.110000E+03	2.636003E-15	6.807018E-17
7.120000E+03	2.642335E-15	6.834289E-17
7.130000E+03	2.650518E-15	6.866173E-17
7.140000E+03	2.660626E-15	6.902727E-17
7.150000E+03	2.672747E-15	6.944050E-17
7.160000E+03	2.686818E-15	6.989841E-17
7.170000E+03	2.702951E-15	7.040266E-17
7.180000E+03	2.721036E-15	7.094920E-17
7.190000E+03	2.741075E-15	7.153699E-17
7.200000E+03	2.763016E-15	7.216378E-17
7.210000E+03	2.786752E-15	7.282605E-17
7.220000E+03	2.812195E-15	7.352102E-17
7.230000E+03	2.839239E-15	7.424576E-17
7.240000E+03	2.867735E-15	7.499639E-17
7.250000E+03	2.897559E-15	7.576996E-17
7.260000E+03	2.928543E-15	7.656271E-17
7.270000E+03	2.960589E-15	7.737294E-17
7.280000E+03	2.993488E-15	7.819624E-17
7.290000E+03	3.027101E-15	7.903039E-17
7.300000E+03	3.061289E-15	7.987342E-17
7.310000E+03	3.095914E-15	8.072370E-17
7.320000E+03	3.130757E-15	8.157783E-17
7.330000E+03	3.165674E-15	8.243476E-17
7.340000E+03	3.200517E-15	8.329375E-17
7.350000E+03	3.235093E-15	8.415332E-17
7.360000E+03	3.269245E-15	8.501335E-17
7.370000E+03	3.302767E-15	8.587286E-17
7.380000E+03	3.335449E-15	8.673111E-17
7.390000E+03	3.367119E-15	8.758853E-17
7.400000E+03	3.397605E-15	8.844564E-17
7.410000E+03	3.426656E-15	8.930066E-17
7.420000E+03	3.454158E-15	9.015493E-17
7.430000E+03	3.479887E-15	9.100601E-17
7.440000E+03	3.503772E-15	9.185428E-17
7.450000E+03	3.525736E-15	9.269820E-17
7.460000E+03	3.545782E-15	9.353638E-17
7.470000E+03	3.563873E-15	9.436383E-17
7.480000E+03	3.580107E-15	9.517648E-17
7.490000E+03	3.594637E-15	9.596874E-17
7.500000E+03	3.607617E-15	9.673220E-17
7.510000E+03	3.619292E-15	9.745813E-17
7.520000E+03	3.629902E-15	9.813520E-17
7.530000E+03	3.639714E-15	9.875110E-17
7.540000E+03	3.649111E-15	9.929554E-17
7.550000E+03	3.658395E-15	9.975590E-17
7.560000E+03	3.667818E-15	1.001191E-16
7.570000E+03	3.677764E-15	1.003778E-16
7.580000E+03	3.688458E-15	1.005230E-16
7.590000E+03	3.700235E-15	1.005530E-16
7.600000E+03	3.713253E-15	1.004654E-16
7.610000E+03	3.727715E-15	1.002644E-16
7.620000E+03	3.743670E-15	9.995499E-17
7.630000E+03	3.761244E-15	9.954929E-17
7.640000E+03	3.780386E-15	9.905904E-17
7.650000E+03	3.800901E-15	9.849594E-17
7.660000E+03	3.822539E-15	9.787313E-17
7.670000E+03	3.845049E-15	9.720517E-17
7.680000E+03	3.867918E-15	9.650043E-17
7.690000E+03	3.890581E-15	9.576530E-17
7.700000E+03	3.912381E-15	9.500218E-17
7.710000E+03	3.932644E-15	9.421037E-17
7.720000E+03	3.950534E-15	9.338216E-17
7.730000E+03	3.965243E-15	9.250704E-17
7.740000E+03	3.976019E-15	9.157226E-17
7.750000E+03	3.982031E-15	9.056002E-17
7.760000E+03	3.982560E-15	8.945233E-17
