#wls	flux	fluxerr
1.600000E+03	9.211752E-16	2.906297E-16
1.640000E+03	8.403115E-16	2.512590E-16
1.680000E+03	7.681316E-16	2.171726E-16
1.720000E+03	7.041456E-16	1.878286E-16
1.760000E+03	6.477175E-16	1.626817E-16
1.800000E+03	5.983504E-16	1.412650E-16
1.840000E+03	5.554541E-16	1.231301E-16
1.880000E+03	5.185825E-16	1.079058E-16
1.920000E+03	4.872330E-16	9.525077E-17
1.960000E+03	4.610470E-16	8.489453E-17
2.000000E+03	4.396324E-16	7.659691E-17
2.040000E+03	4.228069E-16	7.018425E-17
2.080000E+03	4.101980E-16	6.546345E-17
2.120000E+03	4.017437E-16	6.227972E-17
2.160000E+03	3.970886E-16	6.040118E-17
2.200000E+03	3.961077E-16	5.962497E-17
2.240000E+03	3.985121E-16	5.974120E-17
2.280000E+03	4.041229E-16	6.058493E-17
2.320000E+03	4.127890E-16	6.202524E-17
2.360000E+03	4.243725E-16	6.396148E-17
2.400000E+03	4.387341E-16	6.631887E-17
2.440000E+03	4.555783E-16	6.902368E-17
2.480000E+03	4.748528E-16	7.206306E-17
2.520000E+03	4.961840E-16	7.539933E-17
2.560000E+03	5.192860E-16	7.902976E-17
2.600000E+03	5.439057E-16	8.296941E-17
2.640000E+03	5.695477E-16	8.718364E-17
2.680000E+03	5.960630E-16	9.163912E-17
2.720000E+03	6.232107E-16	9.622876E-17
2.760000E+03	6.507059E-16	1.008011E-16
2.800000E+03	6.783766E-16	1.052028E-16
2.840000E+03	7.060898E-16	1.092778E-16
2.880000E+03	7.335840E-16	1.128486E-16
2.920000E+03	7.608183E-16	1.157764E-16
2.960000E+03	7.878073E-16	1.179400E-16
3.000000E+03	8.148009E-16	1.192652E-16
3.010000E+03	8.215775E-16	1.194577E-16
3.020000E+03	8.283246E-16	1.195860E-16
3.030000E+03	8.351353E-16	1.196622E-16
3.040000E+03	8.419215E-16	1.196723E-16
3.050000E+03	8.488682E-16	1.196414E-16
3.060000E+03	8.557049E-16	1.195302E-16
3.070000E+03	8.627085E-16	1.193764E-16
3.080000E+03	8.696995E-16	1.191539E-16
3.090000E+03	8.767726E-16	1.188748E-16
3.100000E+03	8.839315E-16	1.185387E-16
3.110000E+03	8.911797E-16	1.181451E-16
3.120000E+03	8.985208E-16	1.176935E-16
3.130000E+03	9.059584E-16	1.171837E-16
3.140000E+03	9.134036E-16	1.166036E-16
3.150000E+03	9.211381E-16	1.159887E-16
3.160000E+03	9.288874E-16	1.153032E-16
3.170000E+03	9.368411E-16	1.145706E-16
3.180000E+03	9.449100E-16	1.137792E-16
3.190000E+03	9.530977E-16	1.129294E-16
3.200000E+03	9.615947E-16	1.120433E-16
3.210000E+03	9.702181E-16	1.110989E-16
3.220000E+03	9.790651E-16	1.101074E-16
3.230000E+03	9.880455E-16	1.090587E-16
3.240000E+03	9.973507E-16	1.079742E-16
3.250000E+03	1.006890E-15	1.068437E-16
3.260000E+03	1.016762E-15	1.056779E-16
3.270000E+03	1.026876E-15	1.044675E-16
3.280000E+03	1.037233E-15	1.032136E-16
3.290000E+03	1.048028E-15	1.019361E-16
3.300000E+03	1.059074E-15	1.006174E-16
3.310000E+03	1.070563E-15	9.927703E-17
3.320000E+03	1.082307E-15	9.789886E-17
3.330000E+03	1.094596E-15	9.651072E-17
3.340000E+03	1.107241E-15	9.509730E-17
3.350000E+03	1.120339E-15	9.366934E-17
3.360000E+03	1.133892E-15	9.222940E-17
3.370000E+03	1.147997E-15	9.078807E-17
3.380000E+03	1.162657E-15	8.934821E-17
3.390000E+03	1.177775E-15	8.790592E-17
3.400000E+03	1.193545E-15	8.647967E-17
3.410000E+03	1.209870E-15	8.506636E-17
3.420000E+03	1.226748E-15	8.367078E-17
3.430000E+03	1.244373E-15	8.231107E-17
3.440000E+03	1.262745E-15	8.099171E-17
3.450000E+03	1.281762E-15	7.971146E-17
3.460000E+03	1.301423E-15	7.847594E-17
3.470000E+03	1.322018E-15	7.730805E-17
3.480000E+03	1.343251E-15	7.619520E-17
3.490000E+03	1.365413E-15	7.515914E-17
3.500000E+03	1.388402E-15	7.419835E-17
3.510000E+03	1.412215E-15	7.331668E-17
3.520000E+03	1.436947E-15	7.252246E-17
3.530000E+03	1.462593E-15	7.181807E-17
3.540000E+03	1.489150E-15	7.120526E-17
3.550000E+03	1.516712E-15	7.068971E-17
3.560000E+03	1.545177E-15	7.026691E-17
3.570000E+03	1.574641E-15	6.994091E-17
3.580000E+03	1.605102E-15	6.971034E-17
3.590000E+03	1.636663E-15	6.957746E-17
3.600000E+03	1.669125E-15	6.953109E-17
3.610000E+03	1.702598E-15	6.957257E-17
3.620000E+03	1.737193E-15	6.970256E-17
3.630000E+03	1.772829E-15	6.991333E-17
3.640000E+03	1.809531E-15	7.020127E-17
3.650000E+03	1.847434E-15	7.056671E-17
3.660000E+03	1.886479E-15	7.100233E-17
3.670000E+03	1.926720E-15	7.150514E-17
3.680000E+03	1.968223E-15	7.207255E-17
3.690000E+03	2.011168E-15	7.270610E-17
3.700000E+03	2.055545E-15	7.340044E-17
3.710000E+03	2.101460E-15	7.415448E-17
3.720000E+03	2.149031E-15	7.496762E-17
3.730000E+03	2.198491E-15	7.584322E-17
3.740000E+03	2.249673E-15	7.677086E-17
3.750000E+03	2.303030E-15	7.776155E-17
3.760000E+03	2.358506E-15	7.880882E-17
3.770000E+03	2.416347E-15	7.991663E-17
3.780000E+03	2.476580E-15	8.108183E-17
3.790000E+03	2.539419E-15	8.230773E-17
3.800000E+03	2.604736E-15	8.358685E-17
3.810000E+03	2.672775E-15	8.492450E-17
3.820000E+03	2.743205E-15	8.630815E-17
3.830000E+03	2.816261E-15	8.774419E-17
3.840000E+03	2.891569E-15	8.922088E-17
3.850000E+03	2.968775E-15	9.072826E-17
3.860000E+03	3.047751E-15	9.226454E-17
3.870000E+03	3.127836E-15	9.381281E-17
3.880000E+03	3.208481E-15	9.536088E-17
3.890000E+03	3.289149E-15	9.689790E-17
3.900000E+03	3.368992E-15	9.840471E-17
3.910000E+03	3.446972E-15	9.985744E-17
3.920000E+03	3.522551E-15	1.012474E-16
3.930000E+03	3.594493E-15	1.025456E-16
3.940000E+03	3.662010E-15	1.037364E-16
3.950000E+03	3.724126E-15	1.047979E-16
3.960000E+03	3.780159E-15	1.057165E-16
3.970000E+03	3.829200E-15	1.064710E-16
3.980000E+03	3.870813E-15	1.070522E-16
3.990000E+03	3.904505E-15	1.074486E-16
4.000000E+03	3.930080E-15	1.076551E-16
4.010000E+03	3.947427E-15	1.076679E-16
4.020000E+03	3.956847E-15	1.074929E-16
4.030000E+03	3.958506E-15	1.071315E-16
4.040000E+03	3.953060E-15	1.065971E-16
4.050000E+03	3.941097E-15	1.059010E-16
4.060000E+03	3.923422E-15	1.050594E-16
4.070000E+03	3.900918E-15	1.040909E-16
4.080000E+03	3.874421E-15	1.030127E-16
4.090000E+03	3.844967E-15	1.018478E-16
4.100000E+03	3.813212E-15	1.006093E-16
4.110000E+03	3.780314E-15	9.932435E-17
4.120000E+03	3.746829E-15	9.800456E-17
4.130000E+03	3.713671E-15	9.667138E-17
4.140000E+03	3.681318E-15	9.533515E-17
4.150000E+03	3.650396E-15	9.401026E-17
4.160000E+03	3.621262E-15	9.270412E-17
4.170000E+03	3.594169E-15	9.142144E-17
4.180000E+03	3.569494E-15	9.016984E-17
4.190000E+03	3.547277E-15	8.894817E-17
4.200000E+03	3.527470E-15	8.775272E-17
4.210000E+03	3.510081E-15	8.658099E-17
4.220000E+03	3.494897E-15	8.542471E-17
4.230000E+03	3.481709E-15	8.427565E-17
4.240000E+03	3.470319E-15	8.312588E-17
4.250000E+03	3.460287E-15	8.196192E-17
4.260000E+03	3.451410E-15	8.077667E-17
4.270000E+03	3.443342E-15	7.956056E-17
4.280000E+03	3.435616E-15	7.830289E-17
4.290000E+03	3.428046E-15	7.700162E-17
4.300000E+03	3.420359E-15	7.565554E-17
4.310000E+03	3.412286E-15	7.426708E-17
4.320000E+03	3.403701E-15	7.284609E-17
4.330000E+03	3.394633E-15	7.141051E-17
4.340000E+03	3.385158E-15	6.998441E-17
4.350000E+03	3.375410E-15	6.859832E-17
4.360000E+03	3.365818E-15	6.729370E-17
4.370000E+03	3.356705E-15	6.611371E-17
4.380000E+03	3.348677E-15	6.510959E-17
4.390000E+03	3.342339E-15	6.433251E-17
4.400000E+03	3.338554E-15	6.383563E-17
4.410000E+03	3.338059E-15	6.366199E-17
4.420000E+03	3.341853E-15	6.384128E-17
4.430000E+03	3.351170E-15	6.437749E-17
4.440000E+03	3.367349E-15	6.525807E-17
4.450000E+03	3.391679E-15	6.646530E-17
4.460000E+03	3.425289E-15	6.797998E-17
4.470000E+03	3.469248E-15	6.978687E-17
4.480000E+03	3.524316E-15	7.187121E-17
4.490000E+03	3.591112E-15	7.422253E-17
4.500000E+03	3.669910E-15	7.683017E-17
4.510000E+03	3.760544E-15	7.968024E-17
4.520000E+03	3.862687E-15	8.276048E-17
4.530000E+03	3.975437E-15	8.605041E-17
4.540000E+03	4.097499E-15	8.952425E-17
4.550000E+03	4.227121E-15	9.314849E-17
4.560000E+03	4.362093E-15	9.688118E-17
4.570000E+03	4.499730E-15	1.006704E-16
4.580000E+03	4.637054E-15	1.044576E-16
4.590000E+03	4.770850E-15	1.081778E-16
4.600000E+03	4.897740E-15	1.117605E-16
4.610000E+03	5.014546E-15	1.151369E-16
4.620000E+03	5.118212E-15	1.182378E-16
4.630000E+03	5.206181E-15	1.210022E-16
4.640000E+03	5.276418E-15	1.233776E-16
4.650000E+03	5.327736E-15	1.253282E-16
4.660000E+03	5.359521E-15	1.268293E-16
4.670000E+03	5.372232E-15	1.278798E-16
4.680000E+03	5.366796E-15	1.284886E-16
4.690000E+03	5.345000E-15	1.286854E-16
4.700000E+03	5.309013E-15	1.285090E-16
4.710000E+03	5.261436E-15	1.280102E-16
4.720000E+03	5.205071E-15	1.272457E-16
4.730000E+03	5.142829E-15	1.262771E-16
4.740000E+03	5.077339E-15	1.251609E-16
4.750000E+03	5.011222E-15	1.239558E-16
4.760000E+03	4.946693E-15	1.227127E-16
4.770000E+03	4.885692E-15	1.214779E-16
4.780000E+03	4.829790E-15	1.202905E-16
4.790000E+03	4.780182E-15	1.191823E-16
4.800000E+03	4.737626E-15	1.181758E-16
4.810000E+03	4.702637E-15	1.172893E-16
4.820000E+03	4.675268E-15	1.165309E-16
4.830000E+03	4.655369E-15	1.159051E-16
4.840000E+03	4.642430E-15	1.154089E-16
4.850000E+03	4.635673E-15	1.150336E-16
4.860000E+03	4.634121E-15	1.147670E-16
4.870000E+03	4.636416E-15	1.145877E-16
4.880000E+03	4.641227E-15	1.144751E-16
4.890000E+03	4.646965E-15	1.144013E-16
4.900000E+03	4.651890E-15	1.143331E-16
4.910000E+03	4.654329E-15	1.142363E-16
4.920000E+03	4.652587E-15	1.140732E-16
4.930000E+03	4.645132E-15	1.138060E-16
4.940000E+03	4.630523E-15	1.133956E-16
4.950000E+03	4.607647E-15	1.128074E-16
4.960000E+03	4.575790E-15	1.120139E-16
4.970000E+03	4.534582E-15	1.109941E-16
4.980000E+03	4.484038E-15	1.097363E-16
4.990000E+03	4.424749E-15	1.082433E-16
5.000000E+03	4.357565E-15	1.065263E-16
5.010000E+03	4.283739E-15	1.046089E-16
5.020000E+03	4.204855E-15	1.025258E-16
5.030000E+03	4.122646E-15	1.003186E-16
5.040000E+03	4.038915E-15	9.803316E-17
5.050000E+03	3.955585E-15	9.572048E-17
5.060000E+03	3.874486E-15	9.343068E-17
5.070000E+03	3.797388E-15	9.121280E-17
5.080000E+03	3.725826E-15	8.910997E-17
5.090000E+03	3.661202E-15	8.716111E-17
5.100000E+03	3.604762E-15	8.539995E-17
5.110000E+03	3.557480E-15	8.385198E-17
5.120000E+03	3.520255E-15	8.253897E-17
5.130000E+03	3.493647E-15	8.147298E-17
5.140000E+03	3.478161E-15	8.066297E-17
5.150000E+03	3.474101E-15	8.011163E-17
5.160000E+03	3.481650E-15	7.981744E-17
5.170000E+03	3.500768E-15	7.977235E-17
5.180000E+03	3.531300E-15	7.996432E-17
5.190000E+03	3.572937E-15	8.037650E-17
5.200000E+03	3.625290E-15	8.098870E-17
5.210000E+03	3.687624E-15	8.177138E-17
5.220000E+03	3.759235E-15	8.269401E-17
5.230000E+03	3.839199E-15	8.371922E-17
5.240000E+03	3.926460E-15	8.480481E-17
5.250000E+03	4.019862E-15	8.590432E-17
5.260000E+03	4.118150E-15	8.696710E-17
5.270000E+03	4.220150E-15	8.794231E-17
5.280000E+03	4.324713E-15	8.877787E-17
5.290000E+03	4.430788E-15	8.942236E-17
5.300000E+03	4.537682E-15	8.983071E-17
5.310000E+03	4.644866E-15	8.996089E-17
5.320000E+03	4.752172E-15	8.977869E-17
5.330000E+03	4.859996E-15	8.926255E-17
5.340000E+03	4.968980E-15	8.839916E-17
5.350000E+03	5.080367E-15	8.719212E-17
5.360000E+03	5.195827E-15	8.566196E-17
5.370000E+03	5.317252E-15	8.384769E-17
5.380000E+03	5.447000E-15	8.181826E-17
5.390000E+03	5.587646E-15	7.967901E-17
5.400000E+03	5.741700E-15	7.758217E-17
5.410000E+03	5.911802E-15	7.574746E-17
5.420000E+03	6.100337E-15	7.447324E-17
5.430000E+03	6.309367E-15	7.414095E-17
5.440000E+03	6.540142E-15	7.518223E-17
5.450000E+03	6.793125E-15	7.797221E-17
5.460000E+03	7.066749E-15	8.261244E-17
5.470000E+03	7.357610E-15	8.891869E-17
5.480000E+03	7.660601E-15	9.657073E-17
5.490000E+03	7.969343E-15	1.052025E-16
5.500000E+03	8.276433E-15	1.144448E-16
5.510000E+03	8.573620E-15	1.239437E-16
5.520000E+03	8.852306E-15	1.333711E-16
5.530000E+03	9.103941E-15	1.424297E-16
5.540000E+03	9.320795E-15	1.508622E-16
5.550000E+03	9.496083E-15	1.584513E-16
5.560000E+03	9.624929E-15	1.650332E-16
5.570000E+03	9.703719E-15	1.704855E-16
5.580000E+03	9.731307E-15	1.747451E-16
5.590000E+03	9.708174E-15	1.777924E-16
5.600000E+03	9.637179E-15	1.796629E-16
5.610000E+03	9.522260E-15	1.804216E-16
5.620000E+03	9.369171E-15	1.801753E-16
5.630000E+03	9.184432E-15	1.790517E-16
5.640000E+03	8.974950E-15	1.771910E-16
5.650000E+03	8.748185E-15	1.747483E-16
5.660000E+03	8.511256E-15	1.718757E-16
5.670000E+03	8.270763E-15	1.687179E-16
5.680000E+03	8.032739E-15	1.654107E-16
5.690000E+03	7.802487E-15	1.620774E-16
5.700000E+03	7.584334E-15	1.588234E-16
5.710000E+03	7.381613E-15	1.557348E-16
5.720000E+03	7.196824E-15	1.528815E-16
5.730000E+03	7.031668E-15	1.503174E-16
5.740000E+03	6.886972E-15	1.480781E-16
5.750000E+03	6.762766E-15	1.461818E-16
5.760000E+03	6.658566E-15	1.446350E-16
5.770000E+03	6.573246E-15	1.434290E-16
5.780000E+03	6.505113E-15	1.425412E-16
5.790000E+03	6.452114E-15	1.419391E-16
5.800000E+03	6.411901E-15	1.415812E-16
5.810000E+03	6.381716E-15	1.414149E-16
5.820000E+03	6.358727E-15	1.413828E-16
5.830000E+03	6.339928E-15	1.414213E-16
5.840000E+03	6.322232E-15	1.414626E-16
5.850000E+03	6.302698E-15	1.414397E-16
5.860000E+03	6.278575E-15	1.412886E-16
5.870000E+03	6.247400E-15	1.409504E-16
5.880000E+03	6.207154E-15	1.403759E-16
5.890000E+03	6.156153E-15	1.395239E-16
5.900000E+03	6.093230E-15	1.383654E-16
5.910000E+03	6.017943E-15	1.368891E-16
5.920000E+03	5.930155E-15	1.350918E-16
5.930000E+03	5.830425E-15	1.329871E-16
5.940000E+03	5.719714E-15	1.305989E-16
5.950000E+03	5.599258E-15	1.279579E-16
5.960000E+03	5.470813E-15	1.251067E-16
5.970000E+03	5.336210E-15	1.220897E-16
5.980000E+03	5.197273E-15	1.189508E-16
5.990000E+03	5.055932E-15	1.157360E-16
6.000000E+03	4.914129E-15	1.124912E-16
6.010000E+03	4.773412E-15	1.092532E-16
6.020000E+03	4.635330E-15	1.060585E-16
6.030000E+03	4.501158E-15	1.029373E-16
6.040000E+03	4.371896E-15	9.991322E-17
6.050000E+03	4.248362E-15	9.700574E-17
6.060000E+03	4.131163E-15	9.422934E-17
6.070000E+03	4.020643E-15	9.159237E-17
6.080000E+03	3.917118E-15	8.910231E-17
6.090000E+03	3.820672E-15	8.676116E-17
6.100000E+03	3.731418E-15	8.457149E-17
6.110000E+03	3.649272E-15	8.253120E-17
6.120000E+03	3.574233E-15	8.063994E-17
6.130000E+03	3.506293E-15	7.889695E-17
6.140000E+03	3.445346E-15	7.729896E-17
6.150000E+03	3.391371E-15	7.584411E-17
6.160000E+03	3.344391E-15	7.453093E-17
6.170000E+03	3.304344E-15	7.335510E-17
6.180000E+03	3.271232E-15	7.231288E-17
6.190000E+03	3.245083E-15	7.139990E-17
6.200000E+03	3.225907E-15	7.061020E-17
6.210000E+03	3.213686E-15	6.993603E-17
6.220000E+03	3.208498E-15	6.937058E-17
6.230000E+03	3.210234E-15	6.890182E-17
6.240000E+03	3.218847E-15	6.851829E-17
6.250000E+03	3.234273E-15	6.820715E-17
6.260000E+03	3.256370E-15	6.795311E-17
6.270000E+03	3.285023E-15	6.774044E-17
6.280000E+03	3.320159E-15	6.755294E-17
6.290000E+03	3.361654E-15	6.737159E-17
6.300000E+03	3.409407E-15	6.717562E-17
6.310000E+03	3.463412E-15	6.694345E-17
6.320000E+03	3.523631E-15	6.664983E-17
6.330000E+03	3.590092E-15	6.626799E-17
6.340000E+03	3.662795E-15	6.576817E-17
6.350000E+03	3.741891E-15	6.512234E-17
6.360000E+03	3.827513E-15	6.430312E-17
6.370000E+03	3.919894E-15	6.328934E-17
6.380000E+03	4.019263E-15	6.206957E-17
6.390000E+03	4.126055E-15	6.065319E-17
6.400000E+03	4.240670E-15	5.907775E-17
6.410000E+03	4.363717E-15	5.742801E-17
6.420000E+03	4.495726E-15	5.585154E-17
6.430000E+03	4.637304E-15	5.458232E-17
6.440000E+03	4.788906E-15	5.395133E-17
6.450000E+03	4.950851E-15	5.437167E-17
6.460000E+03	5.122818E-15	5.624906E-17
6.470000E+03	5.303913E-15	5.978705E-17
6.480000E+03	5.492169E-15	6.488421E-17
6.490000E+03	5.684797E-15	7.127173E-17
6.500000E+03	5.878334E-15	7.862697E-17
6.510000E+03	6.068916E-15	8.662874E-17
6.520000E+03	6.252066E-15	9.497371E-17
6.530000E+03	6.423354E-15	1.033887E-16
6.540000E+03	6.578361E-15	1.116282E-16
6.550000E+03	6.712962E-15	1.194754E-16
6.560000E+03	6.823536E-15	1.267439E-16
6.570000E+03	6.907217E-15	1.332808E-16
6.580000E+03	6.961728E-15	1.389633E-16
6.590000E+03	6.985928E-15	1.437084E-16
6.600000E+03	6.979620E-15	1.474691E-16
6.610000E+03	6.943376E-15	1.502299E-16
6.620000E+03	6.878702E-15	1.520089E-16
6.630000E+03	6.787921E-15	1.528543E-16
6.640000E+03	6.673879E-15	1.528357E-16
6.650000E+03	6.539776E-15	1.520392E-16
6.660000E+03	6.389303E-15	1.505682E-16
6.670000E+03	6.225951E-15	1.485257E-16
6.680000E+03	6.053452E-15	1.460236E-16
6.690000E+03	5.875146E-15	1.431661E-16
6.700000E+03	5.694236E-15	1.400546E-16
6.710000E+03	5.513447E-15	1.367786E-16
6.720000E+03	5.335315E-15	1.334221E-16
6.730000E+03	5.161716E-15	1.300516E-16
6.740000E+03	4.994381E-15	1.267281E-16
6.750000E+03	4.834482E-15	1.234970E-16
6.760000E+03	4.682965E-15	1.203961E-16
6.770000E+03	4.540360E-15	1.174507E-16
6.780000E+03	4.407047E-15	1.146804E-16
6.790000E+03	4.283079E-15	1.120947E-16
6.800000E+03	4.168489E-15	1.097010E-16
6.810000E+03	4.063010E-15	1.074973E-16
6.820000E+03	3.966320E-15	1.054792E-16
6.830000E+03	3.878019E-15	1.036388E-16
6.840000E+03	3.797692E-15	1.019676E-16
6.850000E+03	3.724791E-15	1.004525E-16
6.860000E+03	3.658795E-15	9.908095E-17
6.870000E+03	3.599256E-15	9.784250E-17
6.880000E+03	3.545504E-15	9.672051E-17
6.890000E+03	3.497136E-15	9.570597E-17
6.900000E+03	3.453546E-15	9.478453E-17
6.910000E+03	3.414272E-15	9.394620E-17
6.920000E+03	3.378834E-15	9.318079E-17
6.930000E+03	3.346777E-15	9.247914E-17
6.940000E+03	3.317680E-15	9.183322E-17
6.950000E+03	3.291116E-15	9.123505E-17
6.960000E+03	3.266821E-15	9.068126E-17
6.970000E+03	3.244413E-15	9.016515E-17
6.980000E+03	3.223676E-15	8.968467E-17
6.990000E+03	3.204407E-15	8.923785E-17
7.000000E+03	3.186449E-15	8.882391E-17
7.010000E+03	3.169657E-15	8.844209E-17
7.020000E+03	3.154014E-15	8.809493E-17
7.030000E+03	3.139508E-15	8.778478E-17
7.040000E+03	3.126131E-15	8.751360E-17
7.050000E+03	3.113988E-15	8.728621E-17
7.060000E+03	3.103177E-15	8.710664E-17
7.070000E+03	3.093742E-15	8.697687E-17
7.080000E+03	3.085902E-15	8.690324E-17
7.090000E+03	3.079766E-15	8.688844E-17
7.100000E+03	3.075491E-15	8.693585E-17
7.110000E+03	3.073231E-15	8.704819E-17
7.120000E+03	3.073093E-15	8.722635E-17
7.130000E+03	3.075253E-15	8.747271E-17
7.140000E+03	3.079834E-15	8.778776E-17
7.150000E+03	3.086900E-15	8.817015E-17
7.160000E+03	3.096496E-15	8.861792E-17
7.170000E+03	3.108730E-15	8.913089E-17
7.180000E+03	3.123645E-15	8.970746E-17
7.190000E+03	3.141227E-15	9.034470E-17
7.200000E+03	3.161481E-15	9.104083E-17
7.210000E+03	3.184396E-15	9.179420E-17
7.220000E+03	3.209900E-15	9.260220E-17
7.230000E+03	3.237988E-15	9.346485E-17
7.240000E+03	3.268516E-15	9.437887E-17
7.250000E+03	3.301406E-15	9.534356E-17
7.260000E+03	3.336564E-15	9.635842E-17
7.270000E+03	3.373884E-15	9.742302E-17
7.280000E+03	3.413153E-15	9.853433E-17
7.290000E+03	3.454318E-15	9.969426E-17
7.300000E+03	3.497080E-15	1.008980E-16
7.310000E+03	3.541303E-15	1.021457E-16
7.320000E+03	3.586733E-15	1.034342E-16
7.330000E+03	3.633095E-15	1.047603E-16
7.340000E+03	3.680134E-15	1.061212E-16
7.350000E+03	3.727527E-15	1.075127E-16
7.360000E+03	3.774978E-15	1.089313E-16
7.370000E+03	3.822127E-15	1.103719E-16
7.380000E+03	3.868605E-15	1.118286E-16
7.390000E+03	3.914036E-15	1.132954E-16
7.400000E+03	3.958104E-15	1.147674E-16
7.410000E+03	4.000510E-15	1.162392E-16
7.420000E+03	4.040879E-15	1.177021E-16
7.430000E+03	4.078977E-15	1.191502E-16
7.440000E+03	4.114618E-15	1.205770E-16
7.450000E+03	4.147675E-15	1.219760E-16
7.460000E+03	4.178138E-15	1.233417E-16
7.470000E+03	4.206010E-15	1.246669E-16
7.480000E+03	4.231360E-15	1.259440E-16
7.490000E+03	4.254431E-15	1.271685E-16
7.500000E+03	4.275417E-15	1.283322E-16
7.510000E+03	4.294558E-15	1.294272E-16
7.520000E+03	4.312249E-15	1.304489E-16
7.530000E+03	4.328796E-15	1.313895E-16
7.540000E+03	4.344521E-15	1.322422E-16
7.550000E+03	4.359804E-15	1.330024E-16
7.560000E+03	4.374956E-15	1.336652E-16
7.570000E+03	4.390379E-15	1.342304E-16
7.580000E+03	4.406206E-15	1.346922E-16
7.590000E+03	4.422818E-15	1.350555E-16
7.600000E+03	4.440302E-15	1.353197E-16
7.610000E+03	4.458740E-15	1.354870E-16
7.620000E+03	4.478200E-15	1.355630E-16
7.630000E+03	4.498552E-15	1.355503E-16
7.640000E+03	4.519829E-15	1.354594E-16
7.650000E+03	4.541610E-15	1.352892E-16
7.660000E+03	4.563700E-15	1.350474E-16
7.670000E+03	4.585762E-15	1.347383E-16
7.680000E+03	4.607132E-15	1.343567E-16
7.690000E+03	4.627463E-15	1.339064E-16
7.700000E+03	4.646166E-15	1.333828E-16
7.710000E+03	4.662489E-15	1.327745E-16
7.720000E+03	4.675855E-15	1.320732E-16
7.730000E+03	4.685698E-15	1.312680E-16
7.740000E+03	4.691349E-15	1.303421E-16
7.750000E+03	4.692256E-15	1.292795E-16
7.760000E+03	4.687944E-15	1.280634E-16
