#wls	flux	fluxerr
1.600000E+03	2.733153E-16	1.561460E-16
1.640000E+03	2.648304E-16	1.489027E-16
1.680000E+03	2.570165E-16	1.422264E-16
1.720000E+03	2.499040E-16	1.361160E-16
1.760000E+03	2.434707E-16	1.305407E-16
1.800000E+03	2.376943E-16	1.254704E-16
1.840000E+03	2.325530E-16	1.208763E-16
1.880000E+03	2.280695E-16	1.167525E-16
1.920000E+03	2.242206E-16	1.130696E-16
1.960000E+03	2.209415E-16	1.097781E-16
2.000000E+03	2.182967E-16	1.068937E-16
2.040000E+03	2.162230E-16	1.043685E-16
2.080000E+03	2.147422E-16	1.021966E-16
2.120000E+03	2.137946E-16	1.003335E-16
2.160000E+03	2.134033E-16	9.877399E-17
2.200000E+03	2.135905E-16	9.751187E-17
2.240000E+03	2.143003E-16	9.650476E-17
2.280000E+03	2.155568E-16	9.574697E-17
2.320000E+03	2.173059E-16	9.519762E-17
2.360000E+03	2.196516E-16	9.488490E-17
2.400000E+03	2.224630E-16	9.473387E-17
2.440000E+03	2.258453E-16	9.477146E-17
2.480000E+03	2.297477E-16	9.495664E-17
2.520000E+03	2.341986E-16	9.528130E-17
2.560000E+03	2.391880E-16	9.572029E-17
2.600000E+03	2.447466E-16	9.626388E-17
2.640000E+03	2.509067E-16	9.690118E-17
2.680000E+03	2.576206E-16	9.758900E-17
2.720000E+03	2.649636E-16	9.833023E-17
2.760000E+03	2.730144E-16	9.912559E-17
2.800000E+03	2.817290E-16	9.992874E-17
2.840000E+03	2.911900E-16	1.007375E-16
2.880000E+03	3.014835E-16	1.015471E-16
2.920000E+03	3.126560E-16	1.023360E-16
2.960000E+03	3.247562E-16	1.030807E-16
3.000000E+03	3.379670E-16	1.037969E-16
3.010000E+03	3.414542E-16	1.039695E-16
3.020000E+03	3.450422E-16	1.041460E-16
3.030000E+03	3.486871E-16	1.043125E-16
3.040000E+03	3.523889E-16	1.044683E-16
3.050000E+03	3.561922E-16	1.046259E-16
3.060000E+03	3.600528E-16	1.047715E-16
3.070000E+03	3.640603E-16	1.049303E-16
3.080000E+03	3.681257E-16	1.050756E-16
3.090000E+03	3.722490E-16	1.052067E-16
3.100000E+03	3.765205E-16	1.053484E-16
3.110000E+03	3.808505E-16	1.054746E-16
3.120000E+03	3.853296E-16	1.056094E-16
3.130000E+03	3.898678E-16	1.057272E-16
3.140000E+03	3.945106E-16	1.058395E-16
3.150000E+03	3.993039E-16	1.059578E-16
3.160000E+03	4.041570E-16	1.060570E-16
3.170000E+03	4.091617E-16	1.061602E-16
3.180000E+03	4.142725E-16	1.062546E-16
3.190000E+03	4.194899E-16	1.063396E-16
3.200000E+03	4.248604E-16	1.064258E-16
3.210000E+03	4.303844E-16	1.065123E-16
3.220000E+03	4.359702E-16	1.065753E-16
3.230000E+03	4.417568E-16	1.066482E-16
3.240000E+03	4.476521E-16	1.067075E-16
3.250000E+03	4.537032E-16	1.067635E-16
3.260000E+03	4.599105E-16	1.068153E-16
3.270000E+03	4.662746E-16	1.068620E-16
3.280000E+03	4.727961E-16	1.069029E-16
3.290000E+03	4.794755E-16	1.069371E-16
3.300000E+03	4.863134E-16	1.069639E-16
3.310000E+03	4.933103E-16	1.069826E-16
3.320000E+03	5.005140E-16	1.070027E-16
3.330000E+03	5.079251E-16	1.070233E-16
3.340000E+03	5.154971E-16	1.070338E-16
3.350000E+03	5.232304E-16	1.070336E-16
3.360000E+03	5.312207E-16	1.070417E-16
3.370000E+03	5.393735E-16	1.070383E-16
3.380000E+03	5.477370E-16	1.070324E-16
3.390000E+03	5.563598E-16	1.070330E-16
3.400000E+03	5.651469E-16	1.070212E-16
3.410000E+03	5.741946E-16	1.070152E-16
3.420000E+03	5.835039E-16	1.070145E-16
3.430000E+03	5.930272E-16	1.070102E-16
3.440000E+03	6.027651E-16	1.070026E-16
3.450000E+03	6.128149E-16	1.070088E-16
3.460000E+03	6.230805E-16	1.070120E-16
3.470000E+03	6.336595E-16	1.070294E-16
3.480000E+03	6.444555E-16	1.070448E-16
3.490000E+03	6.555661E-16	1.070752E-16
3.500000E+03	6.669922E-16	1.071210E-16
3.510000E+03	6.786855E-16	1.071750E-16
3.520000E+03	6.906955E-16	1.072459E-16
3.530000E+03	7.030227E-16	1.073348E-16
3.540000E+03	7.156677E-16	1.074425E-16
3.550000E+03	7.286310E-16	1.075702E-16
3.560000E+03	7.419129E-16	1.077194E-16
3.570000E+03	7.555632E-16	1.078984E-16
3.580000E+03	7.695331E-16	1.081015E-16
3.590000E+03	7.839219E-16	1.083439E-16
3.600000E+03	7.986311E-16	1.086132E-16
3.610000E+03	8.137107E-16	1.089176E-16
3.620000E+03	8.292109E-16	1.092650E-16
3.630000E+03	8.450825E-16	1.096501E-16
3.640000E+03	8.613758E-16	1.100804E-16
3.650000E+03	8.780416E-16	1.105506E-16
3.660000E+03	8.951802E-16	1.110740E-16
3.670000E+03	9.126922E-16	1.116389E-16
3.680000E+03	9.306781E-16	1.122580E-16
3.690000E+03	9.491382E-16	1.129313E-16
3.700000E+03	9.679721E-16	1.136467E-16
3.710000E+03	9.873300E-16	1.144216E-16
3.720000E+03	1.007161E-15	1.152492E-16
3.730000E+03	1.027462E-15	1.161283E-16
3.740000E+03	1.048231E-15	1.170573E-16
3.750000E+03	1.069464E-15	1.180341E-16
3.760000E+03	1.091255E-15	1.190675E-16
3.770000E+03	1.113494E-15	1.201431E-16
3.780000E+03	1.136222E-15	1.212630E-16
3.790000E+03	1.159424E-15	1.224232E-16
3.800000E+03	1.183082E-15	1.236188E-16
3.810000E+03	1.207225E-15	1.248500E-16
3.820000E+03	1.231777E-15	1.261056E-16
3.830000E+03	1.256807E-15	1.273895E-16
3.840000E+03	1.282177E-15	1.286843E-16
3.850000E+03	1.307895E-15	1.299874E-16
3.860000E+03	1.333915E-15	1.312906E-16
3.870000E+03	1.360183E-15	1.325851E-16
3.880000E+03	1.386690E-15	1.338666E-16
3.890000E+03	1.413323E-15	1.351204E-16
3.900000E+03	1.440064E-15	1.363415E-16
3.910000E+03	1.466842E-15	1.375196E-16
3.920000E+03	1.493531E-15	1.386394E-16
3.930000E+03	1.520106E-15	1.396955E-16
3.940000E+03	1.546542E-15	1.406822E-16
3.950000E+03	1.572663E-15	1.415803E-16
3.960000E+03	1.598447E-15	1.423848E-16
3.970000E+03	1.623826E-15	1.430867E-16
3.980000E+03	1.648738E-15	1.436777E-16
3.990000E+03	1.673177E-15	1.441545E-16
4.000000E+03	1.696996E-15	1.445017E-16
4.010000E+03	1.720257E-15	1.447219E-16
4.020000E+03	1.742833E-15	1.448019E-16
4.030000E+03	1.764756E-15	1.447420E-16
4.040000E+03	1.786067E-15	1.445429E-16
4.050000E+03	1.806673E-15	1.441949E-16
4.060000E+03	1.826591E-15	1.436968E-16
4.070000E+03	1.845891E-15	1.430518E-16
4.080000E+03	1.864606E-15	1.422601E-16
4.090000E+03	1.882685E-15	1.413154E-16
4.100000E+03	1.900268E-15	1.402257E-16
4.110000E+03	1.917316E-15	1.389858E-16
4.120000E+03	1.933933E-15	1.376007E-16
4.130000E+03	1.950134E-15	1.360691E-16
4.140000E+03	1.965938E-15	1.343899E-16
4.150000E+03	1.981492E-15	1.325709E-16
4.160000E+03	1.996730E-15	1.306051E-16
4.170000E+03	2.011754E-15	1.284975E-16
4.180000E+03	2.026620E-15	1.262495E-16
4.190000E+03	2.041341E-15	1.238604E-16
4.200000E+03	2.055926E-15	1.213298E-16
4.210000E+03	2.070423E-15	1.186600E-16
4.220000E+03	2.084836E-15	1.158519E-16
4.230000E+03	2.099206E-15	1.129091E-16
4.240000E+03	2.113532E-15	1.098345E-16
4.250000E+03	2.127847E-15	1.066346E-16
4.260000E+03	2.142108E-15	1.033140E-16
4.270000E+03	2.156348E-15	9.988426E-17
4.280000E+03	2.170559E-15	9.635821E-17
4.290000E+03	2.184771E-15	9.275488E-17
4.300000E+03	2.198938E-15	8.909547E-17
4.310000E+03	2.213052E-15	8.540974E-17
4.320000E+03	2.227107E-15	8.173578E-17
4.330000E+03	2.241096E-15	7.812165E-17
4.340000E+03	2.254974E-15	7.462591E-17
4.350000E+03	2.268738E-15	7.132160E-17
4.360000E+03	2.282346E-15	6.829431E-17
4.370000E+03	2.295762E-15	6.564229E-17
4.380000E+03	2.308987E-15	6.347328E-17
4.390000E+03	2.321890E-15	6.189177E-17
4.400000E+03	2.334523E-15	6.099582E-17
4.410000E+03	2.346807E-15	6.085468E-17
4.420000E+03	2.358677E-15	6.150070E-17
4.430000E+03	2.370146E-15	6.292522E-17
4.440000E+03	2.381195E-15	6.507879E-17
4.450000E+03	2.391776E-15	6.788092E-17
4.460000E+03	2.402000E-15	7.123869E-17
4.470000E+03	2.411895E-15	7.505248E-17
4.480000E+03	2.421604E-15	7.923061E-17
4.490000E+03	2.431145E-15	8.368731E-17
4.500000E+03	2.440609E-15	8.835090E-17
4.510000E+03	2.449993E-15	9.315832E-17
4.520000E+03	2.459300E-15	9.805734E-17
4.530000E+03	2.468442E-15	1.030013E-16
4.540000E+03	2.477438E-15	1.079552E-16
4.550000E+03	2.486127E-15	1.128828E-16
4.560000E+03	2.494397E-15	1.177543E-16
4.570000E+03	2.502188E-15	1.225460E-16
4.580000E+03	2.509341E-15	1.272327E-16
4.590000E+03	2.515729E-15	1.317926E-16
4.600000E+03	2.521230E-15	1.362059E-16
4.610000E+03	2.525731E-15	1.404549E-16
4.620000E+03	2.529105E-15	1.445220E-16
4.630000E+03	2.531303E-15	1.483952E-16
4.640000E+03	2.532270E-15	1.520632E-16
4.650000E+03	2.531972E-15	1.555171E-16
4.660000E+03	2.530372E-15	1.587485E-16
4.670000E+03	2.527487E-15	1.617535E-16
4.680000E+03	2.523391E-15	1.645326E-16
4.690000E+03	2.518090E-15	1.670832E-16
4.700000E+03	2.511732E-15	1.694128E-16
4.710000E+03	2.504391E-15	1.715250E-16
4.720000E+03	2.496187E-15	1.734277E-16
4.730000E+03	2.487249E-15	1.751299E-16
4.740000E+03	2.477684E-15	1.766402E-16
4.750000E+03	2.467630E-15	1.779698E-16
4.760000E+03	2.457196E-15	1.791284E-16
4.770000E+03	2.446544E-15	1.801304E-16
4.780000E+03	2.435743E-15	1.809833E-16
4.790000E+03	2.424936E-15	1.817008E-16
4.800000E+03	2.414172E-15	1.822896E-16
4.810000E+03	2.403515E-15	1.827574E-16
4.820000E+03	2.393070E-15	1.831155E-16
4.830000E+03	2.382846E-15	1.833676E-16
4.840000E+03	2.372895E-15	1.835206E-16
4.850000E+03	2.363174E-15	1.835740E-16
4.860000E+03	2.353710E-15	1.835326E-16
4.870000E+03	2.344496E-15	1.833983E-16
4.880000E+03	2.335490E-15	1.831699E-16
4.890000E+03	2.326698E-15	1.828502E-16
4.900000E+03	2.318043E-15	1.824349E-16
4.910000E+03	2.309528E-15	1.819260E-16
4.920000E+03	2.301105E-15	1.813211E-16
4.930000E+03	2.292782E-15	1.806223E-16
4.940000E+03	2.284493E-15	1.798256E-16
4.950000E+03	2.276261E-15	1.789337E-16
4.960000E+03	2.268088E-15	1.779478E-16
4.970000E+03	2.259963E-15	1.768678E-16
4.980000E+03	2.251937E-15	1.756982E-16
4.990000E+03	2.243995E-15	1.744382E-16
5.000000E+03	2.236235E-15	1.730959E-16
5.010000E+03	2.228664E-15	1.716718E-16
5.020000E+03	2.221375E-15	1.701730E-16
5.030000E+03	2.214444E-15	1.686049E-16
5.040000E+03	2.207954E-15	1.669734E-16
5.050000E+03	2.201994E-15	1.652840E-16
5.060000E+03	2.196634E-15	1.635408E-16
5.070000E+03	2.191992E-15	1.617509E-16
5.080000E+03	2.188140E-15	1.599173E-16
5.090000E+03	2.185219E-15	1.580478E-16
5.100000E+03	2.183273E-15	1.561421E-16
5.110000E+03	2.182387E-15	1.542026E-16
5.120000E+03	2.182687E-15	1.522338E-16
5.130000E+03	2.184198E-15	1.502324E-16
5.140000E+03	2.186983E-15	1.481970E-16
5.150000E+03	2.191141E-15	1.461279E-16
5.160000E+03	2.196693E-15	1.440194E-16
5.170000E+03	2.203646E-15	1.418644E-16
5.180000E+03	2.212045E-15	1.396576E-16
5.190000E+03	2.221922E-15	1.373922E-16
5.200000E+03	2.233229E-15	1.350560E-16
5.210000E+03	2.245976E-15	1.326401E-16
5.220000E+03	2.260163E-15	1.301348E-16
5.230000E+03	2.275710E-15	1.275255E-16
5.240000E+03	2.292620E-15	1.248030E-16
5.250000E+03	2.310818E-15	1.219538E-16
5.260000E+03	2.330245E-15	1.189663E-16
5.270000E+03	2.350836E-15	1.158296E-16
5.280000E+03	2.372522E-15	1.125344E-16
5.290000E+03	2.395253E-15	1.090742E-16
5.300000E+03	2.418929E-15	1.054431E-16
5.310000E+03	2.443476E-15	1.016401E-16
5.320000E+03	2.468817E-15	9.766901E-17
5.330000E+03	2.494907E-15	9.354098E-17
5.340000E+03	2.521651E-15	8.927333E-17
5.350000E+03	2.548987E-15	8.489516E-17
5.360000E+03	2.576856E-15	8.044944E-17
5.370000E+03	2.605232E-15	7.599788E-17
5.380000E+03	2.634013E-15	7.162275E-17
5.390000E+03	2.663206E-15	6.743803E-17
5.400000E+03	2.692735E-15	6.358914E-17
5.410000E+03	2.722548E-15	6.025807E-17
5.420000E+03	2.752575E-15	5.765671E-17
5.430000E+03	2.782728E-15	5.600701E-17
5.440000E+03	2.812860E-15	5.550389E-17
5.450000E+03	2.842878E-15	5.627252E-17
5.460000E+03	2.872533E-15	5.833192E-17
5.470000E+03	2.901597E-15	6.159730E-17
5.480000E+03	2.929872E-15	6.590982E-17
5.490000E+03	2.956990E-15	7.107287E-17
5.500000E+03	2.982718E-15	7.689163E-17
5.510000E+03	3.006771E-15	8.318736E-17
5.520000E+03	3.028845E-15	8.980466E-17
5.530000E+03	3.048694E-15	9.661324E-17
5.540000E+03	3.066136E-15	1.035057E-16
5.550000E+03	3.080974E-15	1.103912E-16
5.560000E+03	3.093149E-15	1.171979E-16
5.570000E+03	3.102536E-15	1.238630E-16
5.580000E+03	3.109155E-15	1.303386E-16
5.590000E+03	3.113050E-15	1.365859E-16
5.600000E+03	3.114316E-15	1.425755E-16
5.610000E+03	3.113101E-15	1.482863E-16
5.620000E+03	3.109590E-15	1.537046E-16
5.630000E+03	3.104040E-15	1.588253E-16
5.640000E+03	3.096670E-15	1.636460E-16
5.650000E+03	3.087783E-15	1.681728E-16
5.660000E+03	3.077630E-15	1.724125E-16
5.670000E+03	3.066493E-15	1.763771E-16
5.680000E+03	3.054677E-15	1.800826E-16
5.690000E+03	3.042411E-15	1.835432E-16
5.700000E+03	3.029929E-15	1.867753E-16
5.710000E+03	3.017468E-15	1.897969E-16
5.720000E+03	3.005169E-15	1.926216E-16
5.730000E+03	2.993162E-15	1.952628E-16
5.740000E+03	2.981538E-15	1.977322E-16
5.750000E+03	2.970373E-15	2.000404E-16
5.760000E+03	2.959643E-15	2.021916E-16
5.770000E+03	2.949281E-15	2.041868E-16
5.780000E+03	2.939270E-15	2.060297E-16
5.790000E+03	2.929471E-15	2.077154E-16
5.800000E+03	2.919716E-15	2.092361E-16
5.810000E+03	2.909868E-15	2.105857E-16
5.820000E+03	2.899748E-15	2.117543E-16
5.830000E+03	2.889163E-15	2.127306E-16
5.840000E+03	2.877890E-15	2.135006E-16
5.850000E+03	2.865739E-15	2.140521E-16
5.860000E+03	2.852560E-15	2.143757E-16
5.870000E+03	2.838165E-15	2.144588E-16
5.880000E+03	2.822417E-15	2.142929E-16
5.890000E+03	2.805237E-15	2.138737E-16
5.900000E+03	2.786498E-15	2.131931E-16
5.910000E+03	2.766189E-15	2.122526E-16
5.920000E+03	2.744284E-15	2.110522E-16
5.930000E+03	2.720871E-15	2.096015E-16
5.940000E+03	2.695944E-15	2.079028E-16
5.950000E+03	2.669660E-15	2.059714E-16
5.960000E+03	2.642128E-15	2.038192E-16
5.970000E+03	2.613507E-15	2.014620E-16
5.980000E+03	2.583978E-15	1.989176E-16
5.990000E+03	2.553733E-15	1.962049E-16
6.000000E+03	2.522954E-15	1.933414E-16
6.010000E+03	2.491847E-15	1.903472E-16
6.020000E+03	2.460645E-15	1.872435E-16
6.030000E+03	2.429502E-15	1.840459E-16
6.040000E+03	2.398636E-15	1.807740E-16
6.050000E+03	2.368228E-15	1.774444E-16
6.060000E+03	2.338398E-15	1.740688E-16
6.070000E+03	2.309342E-15	1.706640E-16
6.080000E+03	2.281147E-15	1.672380E-16
6.090000E+03	2.253929E-15	1.638005E-16
6.100000E+03	2.227762E-15	1.603578E-16
6.110000E+03	2.202747E-15	1.569172E-16
6.120000E+03	2.178903E-15	1.534799E-16
6.130000E+03	2.156276E-15	1.500485E-16
6.140000E+03	2.134879E-15	1.466224E-16
6.150000E+03	2.114690E-15	1.431988E-16
6.160000E+03	2.095719E-15	1.397762E-16
6.170000E+03	2.077905E-15	1.363485E-16
6.180000E+03	2.061222E-15	1.329113E-16
6.190000E+03	2.045677E-15	1.294623E-16
6.200000E+03	2.031249E-15	1.259973E-16
6.210000E+03	2.017996E-15	1.225165E-16
6.220000E+03	2.005892E-15	1.190145E-16
6.230000E+03	1.994965E-15	1.154894E-16
6.240000E+03	1.985169E-15	1.119342E-16
6.250000E+03	1.976531E-15	1.083467E-16
6.260000E+03	1.969022E-15	1.047213E-16
6.270000E+03	1.962611E-15	1.010528E-16
6.280000E+03	1.957327E-15	9.733957E-17
6.290000E+03	1.953100E-15	9.357548E-17
6.300000E+03	1.949916E-15	8.975859E-17
6.310000E+03	1.947781E-15	8.588908E-17
6.320000E+03	1.946637E-15	8.196630E-17
6.330000E+03	1.946442E-15	7.799315E-17
6.340000E+03	1.947171E-15	7.397677E-17
6.350000E+03	1.948789E-15	6.992889E-17
6.360000E+03	1.951200E-15	6.586541E-17
6.370000E+03	1.954375E-15	6.181354E-17
6.380000E+03	1.958237E-15	5.781031E-17
6.390000E+03	1.962683E-15	5.390712E-17
6.400000E+03	1.967613E-15	5.017518E-17
6.410000E+03	1.972939E-15	4.670983E-17
6.420000E+03	1.978516E-15	4.363203E-17
6.430000E+03	1.984183E-15	4.108794E-17
6.440000E+03	1.989803E-15	3.923827E-17
6.450000E+03	1.995176E-15	3.823109E-17
6.460000E+03	2.000105E-15	3.816659E-17
6.470000E+03	2.004330E-15	3.906387E-17
6.480000E+03	2.007640E-15	4.085532E-17
6.490000E+03	2.009791E-15	4.340663E-17
6.500000E+03	2.010496E-15	4.655174E-17
6.510000E+03	2.009556E-15	5.012586E-17
6.520000E+03	2.006748E-15	5.398001E-17
6.530000E+03	2.001890E-15	5.798846E-17
6.540000E+03	1.994811E-15	6.204722E-17
6.550000E+03	1.985396E-15	6.607250E-17
6.560000E+03	1.973571E-15	6.999702E-17
6.570000E+03	1.959306E-15	7.376718E-17
6.580000E+03	1.942573E-15	7.733927E-17
6.590000E+03	1.923451E-15	8.068175E-17
6.600000E+03	1.902020E-15	8.377008E-17
6.610000E+03	1.878401E-15	8.658721E-17
6.620000E+03	1.852750E-15	8.912284E-17
6.630000E+03	1.825274E-15	9.137369E-17
6.640000E+03	1.796188E-15	9.334090E-17
6.650000E+03	1.765723E-15	9.503034E-17
6.660000E+03	1.734144E-15	9.645298E-17
6.670000E+03	1.701668E-15	9.762002E-17
6.680000E+03	1.668587E-15	9.854968E-17
6.690000E+03	1.635135E-15	9.925911E-17
6.700000E+03	1.601557E-15	9.976804E-17
6.710000E+03	1.568101E-15	1.000983E-16
6.720000E+03	1.534968E-15	1.002700E-16
6.730000E+03	1.502372E-15	1.003055E-16
6.740000E+03	1.470459E-15	1.002232E-16
6.750000E+03	1.439421E-15	1.000454E-16
6.760000E+03	1.409396E-15	9.979141E-17
6.770000E+03	1.380484E-15	9.947784E-17
6.780000E+03	1.352765E-15	9.912014E-17
6.790000E+03	1.326364E-15	9.873687E-17
6.800000E+03	1.301294E-15	9.833829E-17
6.810000E+03	1.277612E-15	9.793775E-17
6.820000E+03	1.255360E-15	9.754710E-17
6.830000E+03	1.234537E-15	9.717457E-17
6.840000E+03	1.215145E-15	9.682816E-17
6.850000E+03	1.197174E-15	9.651462E-17
6.860000E+03	1.180607E-15	9.623955E-17
6.870000E+03	1.165432E-15	9.600863E-17
6.880000E+03	1.151591E-15	9.582318E-17
6.890000E+03	1.139060E-15	9.568702E-17
6.900000E+03	1.127812E-15	9.560324E-17
6.910000E+03	1.117776E-15	9.557083E-17
6.920000E+03	1.108934E-15	9.559275E-17
6.930000E+03	1.101225E-15	9.566802E-17
6.940000E+03	1.094587E-15	9.579522E-17
6.950000E+03	1.088999E-15	9.597600E-17
6.960000E+03	1.084399E-15	9.620827E-17
6.970000E+03	1.080727E-15	9.648966E-17
6.980000E+03	1.077963E-15	9.682111E-17
6.990000E+03	1.076050E-15	9.719988E-17
7.000000E+03	1.074930E-15	9.762313E-17
7.010000E+03	1.074588E-15	9.809144E-17
7.020000E+03	1.074972E-15	9.860182E-17
7.030000E+03	1.076044E-15	9.915239E-17
7.040000E+03	1.077755E-15	9.974004E-17
7.050000E+03	1.080097E-15	1.003653E-16
7.060000E+03	1.083026E-15	1.010251E-16
7.070000E+03	1.086511E-15	1.017174E-16
7.080000E+03	1.090523E-15	1.024404E-16
7.090000E+03	1.095037E-15	1.031922E-16
7.100000E+03	1.100025E-15	1.039708E-16
7.110000E+03	1.105479E-15	1.047756E-16
7.120000E+03	1.111346E-15	1.056021E-16
7.130000E+03	1.117618E-15	1.064494E-16
7.140000E+03	1.124287E-15	1.073171E-16
7.150000E+03	1.131317E-15	1.082016E-16
7.160000E+03	1.138687E-15	1.091007E-16
7.170000E+03	1.146376E-15	1.100124E-16
7.180000E+03	1.154362E-15	1.109344E-16
7.190000E+03	1.162639E-15	1.118656E-16
7.200000E+03	1.171156E-15	1.128009E-16
7.210000E+03	1.179935E-15	1.137422E-16
7.220000E+03	1.188909E-15	1.146826E-16
7.230000E+03	1.198086E-15	1.156223E-16
7.240000E+03	1.207428E-15	1.165574E-16
7.250000E+03	1.216927E-15	1.174866E-16
7.260000E+03	1.226544E-15	1.184058E-16
7.270000E+03	1.236271E-15	1.193136E-16
7.280000E+03	1.246087E-15	1.202075E-16
7.290000E+03	1.255950E-15	1.210831E-16
7.300000E+03	1.265855E-15	1.219392E-16
7.310000E+03	1.275779E-15	1.227732E-16
7.320000E+03	1.285682E-15	1.235807E-16
7.330000E+03	1.295578E-15	1.243625E-16
7.340000E+03	1.305427E-15	1.251143E-16
7.350000E+03	1.315210E-15	1.258335E-16
7.360000E+03	1.324925E-15	1.265196E-16
7.370000E+03	1.334537E-15	1.271684E-16
7.380000E+03	1.344046E-15	1.277793E-16
7.390000E+03	1.353418E-15	1.283485E-16
7.400000E+03	1.362639E-15	1.288739E-16
7.410000E+03	1.371712E-15	1.293550E-16
7.420000E+03	1.380627E-15	1.297901E-16
7.430000E+03	1.389335E-15	1.301737E-16
7.440000E+03	1.397845E-15	1.305058E-16
7.450000E+03	1.406150E-15	1.307847E-16
7.460000E+03	1.414242E-15	1.310086E-16
7.470000E+03	1.422135E-15	1.311776E-16
7.480000E+03	1.429807E-15	1.312886E-16
7.490000E+03	1.437254E-15	1.313398E-16
7.500000E+03	1.444475E-15	1.313298E-16
7.510000E+03	1.451468E-15	1.312570E-16
7.520000E+03	1.458212E-15	1.311180E-16
7.530000E+03	1.464746E-15	1.309148E-16
7.540000E+03	1.471009E-15	1.306403E-16
7.550000E+03	1.477038E-15	1.302964E-16
7.560000E+03	1.482811E-15	1.298794E-16
7.570000E+03	1.488340E-15	1.293890E-16
7.580000E+03	1.493580E-15	1.288197E-16
7.590000E+03	1.498540E-15	1.281709E-16
7.600000E+03	1.503185E-15	1.274384E-16
7.610000E+03	1.507542E-15	1.266231E-16
7.620000E+03	1.511549E-15	1.257188E-16
7.630000E+03	1.515180E-15	1.247226E-16
7.640000E+03	1.518430E-15	1.236331E-16
7.650000E+03	1.521246E-15	1.224456E-16
7.660000E+03	1.523612E-15	1.211585E-16
7.670000E+03	1.525469E-15	1.197670E-16
7.680000E+03	1.526796E-15	1.182695E-16
7.690000E+03	1.527528E-15	1.166615E-16
7.700000E+03	1.527619E-15	1.149400E-16
7.710000E+03	1.527023E-15	1.131027E-16
7.720000E+03	1.525716E-15	1.111489E-16
7.730000E+03	1.523631E-15	1.090755E-16
7.740000E+03	1.520747E-15	1.068828E-16
7.750000E+03	1.517007E-15	1.045690E-16
7.760000E+03	1.512374E-15	1.021344E-16
