#wls	flux	fluxerr
1.593625E+03	2.442461E-03	1.824243E-04
1.633466E+03	2.302185E-03	1.700837E-04
1.673307E+03	2.163636E-03	1.580783E-04
1.713147E+03	2.027145E-03	1.464325E-04
1.752988E+03	1.893262E-03	1.351847E-04
1.792829E+03	1.762685E-03	1.243819E-04
1.832669E+03	1.635552E-03	1.140289E-04
1.872510E+03	1.512849E-03	1.041885E-04
1.912351E+03	1.395299E-03	9.490162E-05
1.952191E+03	1.283980E-03	8.622997E-05
1.992032E+03	1.180478E-03	7.826489E-05
2.031873E+03	1.087418E-03	7.115990E-05
2.071713E+03	1.008607E-03	6.513538E-05
2.111554E+03	9.481637E-04	6.041800E-05
2.151394E+03	9.087317E-04	5.712771E-05
2.191235E+03	8.938032E-04	5.542799E-05
2.231076E+03	9.086927E-04	5.558243E-05
2.270916E+03	9.602831E-04	5.793226E-05
2.310757E+03	1.056626E-03	6.286689E-05
2.350598E+03	1.207707E-03	7.086515E-05
2.390438E+03	1.426626E-03	8.255749E-05
2.430279E+03	1.729619E-03	9.871681E-05
2.470120E+03	2.135036E-03	1.201918E-04
2.509960E+03	2.660106E-03	1.477229E-04
2.549801E+03	3.317440E-03	1.817560E-04
2.589641E+03	4.111898E-03	2.222908E-04
2.629482E+03	5.041200E-03	2.689449E-04
2.669323E+03	6.086705E-03	3.204927E-04
2.709163E+03	7.214740E-03	3.749897E-04
2.749004E+03	8.389861E-03	4.304991E-04
2.788845E+03	9.579634E-03	4.853349E-04
2.828685E+03	1.075711E-02	5.381712E-04
2.868526E+03	1.190258E-02	5.881070E-04
2.908367E+03	1.300269E-02	6.345982E-04
2.948207E+03	1.405225E-02	6.775237E-04
2.988048E+03	1.505062E-02	7.169868E-04
2.998008E+03	1.529305E-02	7.263666E-04
3.007968E+03	1.553239E-02	7.355456E-04
3.017928E+03	1.576870E-02	7.445285E-04
3.027888E+03	1.600276E-02	7.533533E-04
3.037849E+03	1.623427E-02	7.620078E-04
3.047809E+03	1.646329E-02	7.704961E-04
3.057769E+03	1.669023E-02	7.788388E-04
3.067729E+03	1.691480E-02	7.870224E-04
3.077689E+03	1.713702E-02	7.950496E-04
3.087649E+03	1.735763E-02	8.029560E-04
3.097610E+03	1.757593E-02	8.107095E-04
3.107570E+03	1.779227E-02	8.183270E-04
3.117530E+03	1.800624E-02	8.257914E-04
3.127490E+03	1.821887E-02	8.331502E-04
3.137450E+03	1.842900E-02	8.403507E-04
3.147410E+03	1.863685E-02	8.474047E-04
3.157371E+03	1.884263E-02	8.543220E-04
3.167331E+03	1.904615E-02	8.610948E-04
3.177291E+03	1.924643E-02	8.676804E-04
3.187251E+03	1.944428E-02	8.741154E-04
3.197211E+03	1.963863E-02	8.803534E-04
3.207171E+03	1.982944E-02	8.863939E-04
3.217131E+03	2.001591E-02	8.922023E-04
3.227092E+03	2.019788E-02	8.977730E-04
3.237052E+03	2.037477E-02	9.030819E-04
3.247012E+03	2.054593E-02	9.081020E-04
3.256972E+03	2.071028E-02	9.127882E-04
3.266932E+03	2.086738E-02	9.171234E-04
3.276892E+03	2.101637E-02	9.210721E-04
3.286853E+03	2.115595E-02	9.245804E-04
3.296813E+03	2.128544E-02	9.276223E-04
3.306773E+03	2.140339E-02	9.301383E-04
3.316733E+03	2.150896E-02	9.320964E-04
3.326693E+03	2.160058E-02	9.334323E-04
3.336653E+03	2.167692E-02	9.340944E-04
3.346614E+03	2.173661E-02	9.340290E-04
3.356574E+03	2.177823E-02	9.331812E-04
3.366534E+03	2.180034E-02	9.314953E-04
3.376494E+03	2.180112E-02	9.289017E-04
3.386454E+03	2.177946E-02	9.253596E-04
3.396414E+03	2.173328E-02	9.207898E-04
3.406375E+03	2.166186E-02	9.151703E-04
3.416335E+03	2.156339E-02	9.084332E-04
3.426295E+03	2.143687E-02	9.005463E-04
3.436255E+03	2.128164E-02	8.914918E-04
3.446215E+03	2.109721E-02	8.812594E-04
3.456175E+03	2.088437E-02	8.698918E-04
3.466135E+03	2.064444E-02	8.574541E-04
3.476096E+03	2.038034E-02	8.440765E-04
3.486056E+03	2.009631E-02	8.299416E-04
3.496016E+03	1.979677E-02	8.152380E-04
3.505976E+03	1.948684E-02	8.001807E-04
3.515936E+03	1.917063E-02	7.849415E-04
3.525896E+03	1.885314E-02	7.697257E-04
3.535857E+03	1.853868E-02	7.547089E-04
3.545817E+03	1.823154E-02	7.400638E-04
3.555777E+03	1.793532E-02	7.259331E-04
3.565737E+03	1.765361E-02	7.124575E-04
3.575697E+03	1.739019E-02	6.997835E-04
3.585657E+03	1.714778E-02	6.880142E-04
3.595618E+03	1.692981E-02	6.772782E-04
3.605578E+03	1.673914E-02	6.676813E-04
3.615538E+03	1.657839E-02	6.593177E-04
3.625498E+03	1.645033E-02	6.522867E-04
3.635458E+03	1.635794E-02	6.466940E-04
3.645418E+03	1.630384E-02	6.426305E-04
3.655378E+03	1.629127E-02	6.402094E-04
3.665339E+03	1.632281E-02	6.395172E-04
3.675299E+03	1.640167E-02	6.406633E-04
3.685259E+03	1.653095E-02	6.437518E-04
3.695219E+03	1.671402E-02	6.488947E-04
3.705179E+03	1.695391E-02	6.561905E-04
3.715139E+03	1.725404E-02	6.657505E-04
3.725100E+03	1.761759E-02	6.776755E-04
3.735060E+03	1.804779E-02	6.920659E-04
3.745020E+03	1.854743E-02	7.090044E-04
3.754980E+03	1.911904E-02	7.285621E-04
3.764940E+03	1.976433E-02	7.507784E-04
3.774900E+03	2.048417E-02	7.756584E-04
3.784861E+03	2.127888E-02	8.031879E-04
3.794821E+03	2.214649E-02	8.332644E-04
3.804781E+03	2.308424E-02	8.657586E-04
3.814741E+03	2.408774E-02	9.004803E-04
3.824701E+03	2.515013E-02	9.371495E-04
3.834661E+03	2.626316E-02	9.754384E-04
3.844622E+03	2.741715E-02	1.014970E-03
3.854582E+03	2.860068E-02	1.055308E-03
3.864542E+03	2.980117E-02	1.095978E-03
3.874502E+03	3.100494E-02	1.136474E-03
3.884462E+03	3.219861E-02	1.176305E-03
3.894422E+03	3.336861E-02	1.214982E-03
3.904382E+03	3.450216E-02	1.252049E-03
3.914343E+03	3.558743E-02	1.287093E-03
3.924303E+03	3.661406E-02	1.319758E-03
3.934263E+03	3.757362E-02	1.349764E-03
3.944223E+03	3.845904E-02	1.376884E-03
3.954183E+03	3.926470E-02	1.400945E-03
3.964143E+03	3.998759E-02	1.421870E-03
3.974104E+03	4.062520E-02	1.439602E-03
3.984064E+03	4.117703E-02	1.454156E-03
3.994024E+03	4.164322E-02	1.465570E-03
4.003984E+03	4.202445E-02	1.473900E-03
4.013944E+03	4.232316E-02	1.479264E-03
4.023904E+03	4.254098E-02	1.481751E-03
4.033865E+03	4.268070E-02	1.481488E-03
4.043825E+03	4.274476E-02	1.478589E-03
4.053785E+03	4.273565E-02	1.473170E-03
4.063745E+03	4.265577E-02	1.465341E-03
4.073705E+03	4.250775E-02	1.455218E-03
4.083665E+03	4.229335E-02	1.442888E-03
4.093625E+03	4.201471E-02	1.428448E-03
4.103586E+03	4.167515E-02	1.412035E-03
4.113546E+03	4.127726E-02	1.393760E-03
4.123506E+03	4.082551E-02	1.373793E-03
4.133466E+03	4.032440E-02	1.352306E-03
4.143426E+03	3.977933E-02	1.329498E-03
4.153386E+03	3.919632E-02	1.305583E-03
4.163347E+03	3.858240E-02	1.280810E-03
4.173307E+03	3.794609E-02	1.255470E-03
4.183267E+03	3.729666E-02	1.229878E-03
4.193227E+03	3.664404E-02	1.204364E-03
4.203187E+03	3.599857E-02	1.179267E-03
4.213147E+03	3.537045E-02	1.154919E-03
4.223108E+03	3.477014E-02	1.131654E-03
4.233068E+03	3.420833E-02	1.109810E-03
4.243028E+03	3.369473E-02	1.089689E-03
4.252988E+03	3.323788E-02	1.071551E-03
4.262948E+03	3.284635E-02	1.055655E-03
4.272908E+03	3.252724E-02	1.042208E-03
4.282869E+03	3.228600E-02	1.031366E-03
4.292829E+03	3.212644E-02	1.023226E-03
4.302789E+03	3.205017E-02	1.017818E-03
4.312749E+03	3.205767E-02	1.015137E-03
4.322709E+03	3.214621E-02	1.015075E-03
4.332669E+03	3.231222E-02	1.017501E-03
4.342629E+03	3.254970E-02	1.022206E-03
4.352590E+03	3.285179E-02	1.028961E-03
4.362550E+03	3.321092E-02	1.037513E-03
4.372510E+03	3.361899E-02	1.047598E-03
4.382470E+03	3.406675E-02	1.058919E-03
4.392430E+03	3.454458E-02	1.071172E-03
4.402390E+03	3.504132E-02	1.084006E-03
4.412351E+03	3.554477E-02	1.097045E-03
4.422311E+03	3.604266E-02	1.109911E-03
4.432271E+03	3.652169E-02	1.122200E-03
4.442231E+03	3.696946E-02	1.133539E-03
4.452191E+03	3.737452E-02	1.143585E-03
4.462151E+03	3.772581E-02	1.152011E-03
4.472112E+03	3.801566E-02	1.158596E-03
4.482072E+03	3.823817E-02	1.163173E-03
4.492032E+03	3.838878E-02	1.165615E-03
4.501992E+03	3.846520E-02	1.165868E-03
4.511952E+03	3.846689E-02	1.163926E-03
4.521912E+03	3.839469E-02	1.159827E-03
4.531873E+03	3.825086E-02	1.153650E-03
4.541833E+03	3.803849E-02	1.145497E-03
4.551793E+03	3.776173E-02	1.135502E-03
4.561753E+03	3.742707E-02	1.123865E-03
4.571713E+03	3.704016E-02	1.110763E-03
4.581673E+03	3.660737E-02	1.096390E-03
4.591633E+03	3.613594E-02	1.080966E-03
4.601594E+03	3.563247E-02	1.064689E-03
4.611554E+03	3.510196E-02	1.047709E-03
4.621514E+03	3.455077E-02	1.030215E-03
4.631474E+03	3.398202E-02	1.012299E-03
4.641434E+03	3.339984E-02	9.940829E-04
4.651394E+03	3.280636E-02	9.756269E-04
4.661355E+03	3.220303E-02	9.569715E-04
4.671315E+03	3.159116E-02	9.381532E-04
4.681275E+03	3.097270E-02	9.192259E-04
4.691235E+03	3.035034E-02	9.002636E-04
4.701195E+03	2.972618E-02	8.813237E-04
4.711155E+03	2.910347E-02	8.624966E-04
4.721116E+03	2.848609E-02	8.438920E-04
4.731076E+03	2.787741E-02	8.256046E-04
4.741036E+03	2.728298E-02	8.077933E-04
4.750996E+03	2.670682E-02	7.905723E-04
4.760956E+03	2.615428E-02	7.740952E-04
4.770916E+03	2.563031E-02	7.585038E-04
4.780876E+03	2.513939E-02	7.439268E-04
4.790837E+03	2.468734E-02	7.305328E-04
4.800797E+03	2.428032E-02	7.185008E-04
4.810757E+03	2.392305E-02	7.079675E-04
4.820717E+03	2.361985E-02	6.990581E-04
4.830677E+03	2.337348E-02	6.918525E-04
4.840637E+03	2.318513E-02	6.863845E-04
4.850598E+03	2.305471E-02	6.826504E-04
4.860558E+03	2.298074E-02	6.806058E-04
4.870518E+03	2.295989E-02	6.801514E-04
4.880478E+03	2.298819E-02	6.811695E-04
4.890438E+03	2.305996E-02	6.834919E-04
4.900398E+03	2.316946E-02	6.869485E-04
4.910359E+03	2.331039E-02	6.913526E-04
4.920319E+03	2.347638E-02	6.965150E-04
4.930279E+03	2.366152E-02	7.022605E-04
4.940239E+03	2.385967E-02	7.084064E-04
4.950199E+03	2.406582E-02	7.148039E-04
4.960159E+03	2.427481E-02	7.212990E-04
4.970120E+03	2.448200E-02	7.277534E-04
4.980080E+03	2.468314E-02	7.340396E-04
4.990040E+03	2.487493E-02	7.400588E-04
5.000000E+03	2.505319E-02	7.456854E-04
5.009960E+03	2.521470E-02	7.508223E-04
5.019920E+03	2.535649E-02	7.553799E-04
5.029880E+03	2.547482E-02	7.592452E-04
5.039841E+03	2.556609E-02	7.623093E-04
5.049801E+03	2.562654E-02	7.644585E-04
5.059761E+03	2.565257E-02	7.655836E-04
5.069721E+03	2.564093E-02	7.655855E-04
5.079681E+03	2.558919E-02	7.643899E-04
5.089641E+03	2.549605E-02	7.619555E-04
5.099602E+03	2.536075E-02	7.582576E-04
5.109562E+03	2.518444E-02	7.533292E-04
5.119522E+03	2.496760E-02	7.471819E-04
5.129482E+03	2.471267E-02	7.398873E-04
5.139442E+03	2.442178E-02	7.315076E-04
5.149402E+03	2.409786E-02	7.221290E-04
5.159363E+03	2.374477E-02	7.118657E-04
5.169323E+03	2.336670E-02	7.008426E-04
5.179283E+03	2.296877E-02	6.892122E-04
5.189243E+03	2.255692E-02	6.771520E-04
5.199203E+03	2.213815E-02	6.648721E-04
5.209163E+03	2.171841E-02	6.525507E-04
5.219124E+03	2.130459E-02	6.403957E-04
5.229084E+03	2.090285E-02	6.285927E-04
5.239044E+03	2.051826E-02	6.172945E-04
5.249004E+03	2.015411E-02	6.066014E-04
5.258964E+03	1.981299E-02	5.965926E-04
5.268924E+03	1.949559E-02	5.872893E-04
5.278884E+03	1.920120E-02	5.786724E-04
5.288845E+03	1.892794E-02	5.706856E-04
5.298805E+03	1.867406E-02	5.632777E-04
5.308765E+03	1.843758E-02	5.563896E-04
5.318725E+03	1.821718E-02	5.499830E-04
5.328685E+03	1.801199E-02	5.440320E-04
5.338645E+03	1.782241E-02	5.385503E-04
5.348606E+03	1.764883E-02	5.335502E-04
5.358566E+03	1.749303E-02	5.290867E-04
5.368526E+03	1.735726E-02	5.252289E-04
5.378486E+03	1.724408E-02	5.220556E-04
5.388446E+03	1.715559E-02	5.196320E-04
5.398406E+03	1.709402E-02	5.180263E-04
5.408367E+03	1.706101E-02	5.172901E-04
5.418327E+03	1.705679E-02	5.174311E-04
5.428287E+03	1.708148E-02	5.184538E-04
5.438247E+03	1.713372E-02	5.203179E-04
5.448207E+03	1.721139E-02	5.229595E-04
5.458167E+03	1.731203E-02	5.263046E-04
5.468127E+03	1.743147E-02	5.302267E-04
5.478088E+03	1.756538E-02	5.345948E-04
5.488048E+03	1.770850E-02	5.392488E-04
5.498008E+03	1.785562E-02	5.440296E-04
5.507968E+03	1.800062E-02	5.487507E-04
5.517928E+03	1.813844E-02	5.532570E-04
5.527888E+03	1.826403E-02	5.573933E-04
5.537849E+03	1.837336E-02	5.610354E-04
5.547809E+03	1.846242E-02	5.640597E-04
5.557769E+03	1.852815E-02	5.663713E-04
5.567729E+03	1.856785E-02	5.678853E-04
5.577689E+03	1.857982E-02	5.685489E-04
5.587649E+03	1.856240E-02	5.683092E-04
5.597610E+03	1.851506E-02	5.671479E-04
5.607570E+03	1.843838E-02	5.650817E-04
5.617530E+03	1.833361E-02	5.621467E-04
5.627490E+03	1.820319E-02	5.584168E-04
5.637450E+03	1.805077E-02	5.540026E-04
5.647410E+03	1.788129E-02	5.490546E-04
5.657371E+03	1.770045E-02	5.437476E-04
5.667331E+03	1.751507E-02	5.382900E-04
5.677291E+03	1.733235E-02	5.329038E-04
5.687251E+03	1.715965E-02	5.278152E-04
5.697211E+03	1.700505E-02	5.232736E-04
5.707171E+03	1.687547E-02	5.194924E-04
5.717131E+03	1.677716E-02	5.166654E-04
5.727092E+03	1.671425E-02	5.149208E-04
5.737052E+03	1.668902E-02	5.143306E-04
5.747012E+03	1.670242E-02	5.149250E-04
5.756972E+03	1.675341E-02	5.166735E-04
5.766932E+03	1.683889E-02	5.194821E-04
5.776892E+03	1.695438E-02	5.232128E-04
5.786853E+03	1.709396E-02	5.276846E-04
5.796813E+03	1.724948E-02	5.326465E-04
5.806773E+03	1.741214E-02	5.378268E-04
5.816733E+03	1.757190E-02	5.429157E-04
5.826693E+03	1.771789E-02	5.475777E-04
5.836653E+03	1.783919E-02	5.514751E-04
5.846614E+03	1.792472E-02	5.542645E-04
5.856574E+03	1.796467E-02	5.556420E-04
5.866534E+03	1.794948E-02	5.553115E-04
5.876494E+03	1.787139E-02	5.530319E-04
5.886454E+03	1.772434E-02	5.486146E-04
5.896414E+03	1.750452E-02	5.419406E-04
5.906375E+03	1.721136E-02	5.329910E-04
5.916335E+03	1.684644E-02	5.218142E-04
5.926295E+03	1.641481E-02	5.085649E-04
5.936255E+03	1.592510E-02	4.935103E-04
5.946215E+03	1.538814E-02	4.769848E-04
5.956175E+03	1.481614E-02	4.593665E-04
5.966135E+03	1.422357E-02	4.411039E-04
5.976096E+03	1.362442E-02	4.226302E-04
5.986056E+03	1.303337E-02	4.044014E-04
5.996016E+03	1.246377E-02	3.868321E-04
6.005976E+03	1.192809E-02	3.703098E-04
6.015936E+03	1.143695E-02	3.551650E-04
6.025896E+03	1.099872E-02	3.416597E-04
6.035857E+03	1.062004E-02	3.300009E-04
6.045817E+03	1.030519E-02	3.203235E-04
6.055777E+03	1.005686E-02	3.127134E-04
6.065737E+03	9.875810E-03	3.071966E-04
6.075697E+03	9.762437E-03	3.037874E-04
6.085657E+03	9.715749E-03	3.024580E-04
6.095618E+03	9.734186E-03	3.031625E-04
6.105578E+03	9.815777E-03	3.058429E-04
6.115538E+03	9.957896E-03	3.104206E-04
6.125498E+03	1.015700E-02	3.167888E-04
6.135458E+03	1.040892E-02	3.248209E-04
6.145418E+03	1.070858E-02	3.343626E-04
6.155378E+03	1.104921E-02	3.452065E-04
6.165339E+03	1.142340E-02	3.571245E-04
6.175299E+03	1.182272E-02	3.698572E-04
6.185259E+03	1.223777E-02	3.831135E-04
6.195219E+03	1.265826E-02	3.965736E-04
6.205179E+03	1.307418E-02	4.099253E-04
6.215139E+03	1.347600E-02	4.228701E-04
6.225100E+03	1.385492E-02	4.351324E-04
6.235060E+03	1.420489E-02	4.465208E-04
6.245020E+03	1.452164E-02	4.568995E-04
6.254980E+03	1.480288E-02	4.661943E-04
6.264940E+03	1.504823E-02	4.743910E-04
6.274900E+03	1.525884E-02	4.815229E-04
6.284861E+03	1.543698E-02	4.876588E-04
6.294821E+03	1.558565E-02	4.928905E-04
6.304781E+03	1.570761E-02	4.973031E-04
6.314741E+03	1.580576E-02	5.009854E-04
6.324701E+03	1.588231E-02	5.040052E-04
6.334661E+03	1.593840E-02	5.063964E-04
6.344622E+03	1.597534E-02	5.081982E-04
6.354582E+03	1.599361E-02	5.094232E-04
6.364542E+03	1.599338E-02	5.100751E-04
6.374502E+03	1.597499E-02	5.101620E-04
6.384462E+03	1.593978E-02	5.097240E-04
6.394422E+03	1.588873E-02	5.087891E-04
6.404382E+03	1.582382E-02	5.074179E-04
6.414343E+03	1.574715E-02	5.056749E-04
6.424303E+03	1.566100E-02	5.036307E-04
6.434263E+03	1.556787E-02	5.013635E-04
6.444223E+03	1.547010E-02	4.989465E-04
6.454183E+03	1.537004E-02	4.964544E-04
6.464143E+03	1.526910E-02	4.939315E-04
6.474104E+03	1.516949E-02	4.914481E-04
6.484064E+03	1.507260E-02	4.890487E-04
6.494024E+03	1.497928E-02	4.867603E-04
6.503984E+03	1.489071E-02	4.846209E-04
6.513944E+03	1.480699E-02	4.826343E-04
6.523904E+03	1.472742E-02	4.807769E-04
6.533865E+03	1.465122E-02	4.790235E-04
6.543825E+03	1.457765E-02	4.773498E-04
6.553785E+03	1.450528E-02	4.757081E-04
6.563745E+03	1.443292E-02	4.740593E-04
6.573705E+03	1.435954E-02	4.723688E-04
6.583665E+03	1.428383E-02	4.705926E-04
6.593625E+03	1.420447E-02	4.686863E-04
6.603586E+03	1.412067E-02	4.666233E-04
6.613546E+03	1.403124E-02	4.643621E-04
6.623506E+03	1.393585E-02	4.618910E-04
6.633466E+03	1.383332E-02	4.591696E-04
6.643426E+03	1.372312E-02	4.561787E-04
6.653386E+03	1.360534E-02	4.529201E-04
6.663347E+03	1.348006E-02	4.493946E-04
6.673307E+03	1.334738E-02	4.456047E-04
6.683267E+03	1.320814E-02	4.415770E-04
6.693227E+03	1.306364E-02	4.373537E-04
6.703187E+03	1.291483E-02	4.329664E-04
6.713147E+03	1.276346E-02	4.284725E-04
6.723108E+03	1.261058E-02	4.239074E-04
6.733068E+03	1.245804E-02	4.193331E-04
6.743028E+03	1.230673E-02	4.147796E-04
6.752988E+03	1.215825E-02	4.103008E-04
6.762948E+03	1.201305E-02	4.059125E-04
6.772908E+03	1.187205E-02	4.016465E-04
6.782869E+03	1.173585E-02	3.975238E-04
6.792829E+03	1.160498E-02	3.935626E-04
6.802789E+03	1.148078E-02	3.898097E-04
6.812749E+03	1.136436E-02	3.863035E-04
6.822709E+03	1.125719E-02	3.830953E-04
6.832669E+03	1.116006E-02	3.802131E-04
6.842629E+03	1.107443E-02	3.777081E-04
6.852590E+03	1.100091E-02	3.756024E-04
6.862550E+03	1.093999E-02	3.739142E-04
6.872510E+03	1.089164E-02	3.726438E-04
6.882470E+03	1.085600E-02	3.717981E-04
6.892430E+03	1.083170E-02	3.713306E-04
6.902390E+03	1.081818E-02	3.712241E-04
6.912351E+03	1.081371E-02	3.714198E-04
6.922311E+03	1.081694E-02	3.718725E-04
6.932271E+03	1.082668E-02	3.725418E-04
6.942231E+03	1.084131E-02	3.733732E-04
6.952191E+03	1.085960E-02	3.743243E-04
6.962151E+03	1.088034E-02	3.753537E-04
6.972112E+03	1.090229E-02	3.764195E-04
6.982072E+03	1.092434E-02	3.774827E-04
6.992032E+03	1.094511E-02	3.784967E-04
7.001992E+03	1.096394E-02	3.794380E-04
7.011952E+03	1.097927E-02	3.802527E-04
7.021912E+03	1.099086E-02	3.809327E-04
7.031873E+03	1.099716E-02	3.814238E-04
7.041833E+03	1.099770E-02	3.817100E-04
7.051793E+03	1.099136E-02	3.817518E-04
7.061753E+03	1.097726E-02	3.815185E-04
7.071713E+03	1.095488E-02	3.809923E-04
7.081673E+03	1.092320E-02	3.801369E-04
7.091633E+03	1.088214E-02	3.789494E-04
7.101594E+03	1.083170E-02	3.774294E-04
7.111554E+03	1.077264E-02	3.756038E-04
7.121514E+03	1.070584E-02	3.735024E-04
7.131474E+03	1.063235E-02	3.711624E-04
7.141434E+03	1.055385E-02	3.686421E-04
7.151394E+03	1.047129E-02	3.659749E-04
7.161355E+03	1.038635E-02	3.632199E-04
7.171315E+03	1.029987E-02	3.604069E-04
7.181275E+03	1.021244E-02	3.575564E-04
7.191235E+03	1.012475E-02	3.546935E-04
7.201195E+03	1.003703E-02	3.518265E-04
7.211155E+03	9.949048E-03	3.489475E-04
7.221116E+03	9.860526E-03	3.460474E-04
7.231076E+03	9.771002E-03	3.431104E-04
7.241036E+03	9.679866E-03	3.401152E-04
7.250996E+03	9.586421E-03	3.370378E-04
7.260956E+03	9.489499E-03	3.338373E-04
7.270916E+03	9.388736E-03	3.305010E-04
7.280876E+03	9.283248E-03	3.269980E-04
7.290837E+03	9.172251E-03	3.233005E-04
7.300797E+03	9.055526E-03	3.194010E-04
7.310757E+03	8.932566E-03	3.152812E-04
7.320717E+03	8.803500E-03	3.109457E-04
7.330677E+03	8.668712E-03	3.064077E-04
7.340637E+03	8.528737E-03	3.016859E-04
7.350598E+03	8.384741E-03	2.968215E-04
7.360558E+03	8.237458E-03	2.918401E-04
7.370518E+03	8.088893E-03	2.868127E-04
7.380478E+03	7.940540E-03	2.817922E-04
7.390438E+03	7.794576E-03	2.768561E-04
7.400398E+03	7.653069E-03	2.720779E-04
7.410359E+03	7.518265E-03	2.675382E-04
7.420319E+03	7.392401E-03	2.633171E-04
7.430279E+03	7.277228E-03	2.594781E-04
7.440239E+03	7.174874E-03	2.560983E-04
7.450199E+03	7.086304E-03	2.532135E-04
7.460159E+03	7.012685E-03	2.508673E-04
7.470120E+03	6.954339E-03	2.490730E-04
7.480080E+03	6.911761E-03	2.478506E-04
7.490040E+03	6.884327E-03	2.471798E-04
7.500000E+03	6.871285E-03	2.470361E-04
7.509960E+03	6.872127E-03	2.474032E-04
7.519920E+03	6.886532E-03	2.482717E-04
7.529880E+03	6.914668E-03	2.496497E-04
7.539841E+03	6.956075E-03	2.515225E-04
7.549801E+03	7.010681E-03	2.538898E-04
7.559761E+03	7.078332E-03	2.567485E-04
7.569721E+03	7.158463E-03	2.600805E-04
7.579681E+03	7.250694E-03	2.638743E-04
7.589641E+03	7.354167E-03	2.681013E-04
7.599602E+03	7.468346E-03	2.727443E-04
7.609562E+03	7.591856E-03	2.777554E-04
7.619522E+03	7.723929E-03	2.831089E-04
7.629482E+03	7.862775E-03	2.887411E-04
7.639442E+03	8.006662E-03	2.945903E-04
7.649402E+03	8.152607E-03	3.005480E-04
7.659363E+03	8.298081E-03	3.065217E-04
7.669323E+03	8.439870E-03	3.123929E-04
7.679283E+03	8.574860E-03	3.180457E-04
7.689243E+03	8.700077E-03	3.233683E-04
7.699203E+03	8.812939E-03	3.282628E-04
7.709163E+03	8.911155E-03	3.326409E-04
7.719124E+03	8.992497E-03	3.364160E-04
7.729084E+03	9.055744E-03	3.395383E-04
