#wls	flux	fluxerr
1.593625E+03	5.388315E-03	3.364514E-04
1.633466E+03	4.980421E-03	3.096058E-04
1.673307E+03	4.584165E-03	2.836741E-04
1.713147E+03	4.201278E-03	2.587605E-04
1.752988E+03	3.833909E-03	2.349930E-04
1.792829E+03	3.484445E-03	2.125106E-04
1.832669E+03	3.154099E-03	1.913780E-04
1.872510E+03	2.845716E-03	1.717559E-04
1.912351E+03	2.561497E-03	1.537621E-04
1.952191E+03	2.304133E-03	1.375397E-04
1.992032E+03	2.076838E-03	1.232584E-04
2.031873E+03	1.883880E-03	1.111441E-04
2.071713E+03	1.730106E-03	1.014493E-04
2.111554E+03	1.618581E-03	9.431379E-05
2.151394E+03	1.547344E-03	8.958017E-05
2.191235E+03	1.515198E-03	8.713553E-05
2.231076E+03	1.523979E-03	8.704033E-05
2.270916E+03	1.577686E-03	8.947267E-05
2.310757E+03	1.681759E-03	9.468284E-05
2.350598E+03	1.842891E-03	1.029799E-04
2.390438E+03	2.068750E-03	1.147124E-04
2.430279E+03	2.367380E-03	1.302333E-04
2.470120E+03	2.746536E-03	1.498615E-04
2.509960E+03	3.212062E-03	1.737945E-04
2.549801E+03	3.768409E-03	2.021395E-04
2.589641E+03	4.420359E-03	2.350077E-04
2.629482E+03	5.175564E-03	2.726475E-04
2.669323E+03	6.023065E-03	3.143150E-04
2.709163E+03	6.929688E-03	3.581350E-04
2.749004E+03	7.857459E-03	4.020491E-04
2.788845E+03	8.769522E-03	4.441321E-04
2.828685E+03	9.633808E-03	4.827759E-04
2.868526E+03	1.042552E-02	5.168037E-04
2.908367E+03	1.112666E-02	5.454298E-04
2.948207E+03	1.172752E-02	5.683148E-04
2.988048E+03	1.222321E-02	5.853776E-04
2.998008E+03	1.233094E-02	5.887648E-04
3.007968E+03	1.243191E-02	5.917922E-04
3.017928E+03	1.252612E-02	5.944627E-04
3.027888E+03	1.261415E-02	5.968062E-04
3.037849E+03	1.269570E-02	5.988120E-04
3.047809E+03	1.277080E-02	6.004832E-04
3.057769E+03	1.283971E-02	6.018355E-04
3.067729E+03	1.290216E-02	6.028587E-04
3.077689E+03	1.295815E-02	6.035559E-04
3.087649E+03	1.300822E-02	6.039542E-04
3.097610E+03	1.305180E-02	6.040306E-04
3.107570E+03	1.308915E-02	6.037993E-04
3.117530E+03	1.311995E-02	6.032490E-04
3.127490E+03	1.314495E-02	6.024171E-04
3.137450E+03	1.316331E-02	6.012673E-04
3.147410E+03	1.317522E-02	5.998117E-04
3.157371E+03	1.318086E-02	5.980610E-04
3.167331E+03	1.318012E-02	5.960136E-04
3.177291E+03	1.317241E-02	5.936454E-04
3.187251E+03	1.315833E-02	5.909875E-04
3.197211E+03	1.313728E-02	5.880149E-04
3.207171E+03	1.310934E-02	5.847357E-04
3.217131E+03	1.307414E-02	5.811356E-04
3.227092E+03	1.303174E-02	5.772217E-04
3.237052E+03	1.298197E-02	5.729899E-04
3.247012E+03	1.292468E-02	5.684363E-04
3.256972E+03	1.285946E-02	5.635475E-04
3.266932E+03	1.278636E-02	5.583295E-04
3.276892E+03	1.270523E-02	5.527793E-04
3.286853E+03	1.261571E-02	5.468853E-04
3.296813E+03	1.251786E-02	5.406551E-04
3.306773E+03	1.241139E-02	5.340792E-04
3.316733E+03	1.229641E-02	5.271673E-04
3.326693E+03	1.217268E-02	5.199135E-04
3.336653E+03	1.204021E-02	5.123227E-04
3.346614E+03	1.189907E-02	5.044021E-04
3.356574E+03	1.174939E-02	4.961614E-04
3.366534E+03	1.159136E-02	4.876137E-04
3.376494E+03	1.142511E-02	4.787685E-04
3.386454E+03	1.125122E-02	4.696536E-04
3.396414E+03	1.106984E-02	4.602805E-04
3.406375E+03	1.088194E-02	4.506924E-04
3.416335E+03	1.068790E-02	4.409085E-04
3.426295E+03	1.048847E-02	4.309635E-04
3.436255E+03	1.028452E-02	4.208955E-04
3.446215E+03	1.007690E-02	4.107416E-04
3.456175E+03	9.866845E-03	4.005540E-04
3.466135E+03	9.655439E-03	3.903785E-04
3.476096E+03	9.443927E-03	3.802658E-04
3.486056E+03	9.233740E-03	3.702738E-04
3.496016E+03	9.026272E-03	3.604576E-04
3.505976E+03	8.823151E-03	3.508810E-04
3.515936E+03	8.625505E-03	3.415867E-04
3.525896E+03	8.434874E-03	3.326329E-04
3.535857E+03	8.252513E-03	3.240657E-04
3.545817E+03	8.079657E-03	3.159294E-04
3.555777E+03	7.917280E-03	3.082573E-04
3.565737E+03	7.766375E-03	3.010830E-04
3.575697E+03	7.628015E-03	2.944422E-04
3.585657E+03	7.502851E-03	2.883538E-04
3.595618E+03	7.391858E-03	2.828488E-04
3.605578E+03	7.295776E-03	2.779482E-04
3.615538E+03	7.215270E-03	2.736700E-04
3.625498E+03	7.151123E-03	2.700360E-04
3.635458E+03	7.104233E-03	2.670719E-04
3.645418E+03	7.075395E-03	2.647988E-04
3.655378E+03	7.065719E-03	2.632491E-04
3.665339E+03	7.076058E-03	2.624449E-04
3.675299E+03	7.107578E-03	2.624193E-04
3.685259E+03	7.161430E-03	2.632041E-04
3.695219E+03	7.238794E-03	2.648313E-04
3.705179E+03	7.340762E-03	2.673289E-04
3.715139E+03	7.468619E-03	2.707312E-04
3.725100E+03	7.623513E-03	2.750670E-04
3.735060E+03	7.806682E-03	2.803672E-04
3.745020E+03	8.019229E-03	2.866572E-04
3.754980E+03	8.262054E-03	2.939546E-04
3.764940E+03	8.535735E-03	3.022649E-04
3.774900E+03	8.840384E-03	3.115770E-04
3.784861E+03	9.175435E-03	3.218558E-04
3.794821E+03	9.539078E-03	3.330234E-04
3.804781E+03	9.929071E-03	3.449882E-04
3.814741E+03	1.034216E-02	3.576249E-04
3.824701E+03	1.077379E-02	3.707662E-04
3.834661E+03	1.121879E-02	3.842261E-04
3.844622E+03	1.167138E-02	3.978022E-04
3.854582E+03	1.212501E-02	4.112688E-04
3.864542E+03	1.257277E-02	4.243934E-04
3.874502E+03	1.300788E-02	4.369519E-04
3.884462E+03	1.342397E-02	4.487385E-04
3.894422E+03	1.381504E-02	4.595641E-04
3.904382E+03	1.417636E-02	4.692849E-04
3.914343E+03	1.450415E-02	4.777922E-04
3.924303E+03	1.479551E-02	4.850084E-04
3.934263E+03	1.504891E-02	4.909015E-04
3.944223E+03	1.526362E-02	4.954671E-04
3.954183E+03	1.543947E-02	4.987197E-04
3.964143E+03	1.557751E-02	5.007120E-04
3.974104E+03	1.567893E-02	5.015006E-04
3.984064E+03	1.574552E-02	5.011609E-04
3.994024E+03	1.577909E-02	4.997674E-04
4.003984E+03	1.578150E-02	4.973943E-04
4.013944E+03	1.575506E-02	4.941293E-04
4.023904E+03	1.570158E-02	4.900431E-04
4.033865E+03	1.562314E-02	4.852127E-04
4.043825E+03	1.552167E-02	4.797094E-04
4.053785E+03	1.539896E-02	4.735993E-04
4.063745E+03	1.525678E-02	4.669462E-04
4.073705E+03	1.509699E-02	4.598156E-04
4.083665E+03	1.492103E-02	4.522588E-04
4.093625E+03	1.473044E-02	4.443297E-04
4.103586E+03	1.452702E-02	4.360883E-04
4.113546E+03	1.431190E-02	4.275743E-04
4.123506E+03	1.408667E-02	4.188391E-04
4.133466E+03	1.385285E-02	4.099323E-04
4.143426E+03	1.361202E-02	4.009031E-04
4.153386E+03	1.336590E-02	3.918047E-04
4.163347E+03	1.311645E-02	3.826960E-04
4.173307E+03	1.286590E-02	3.736426E-04
4.183267E+03	1.261672E-02	3.647156E-04
4.193227E+03	1.237163E-02	3.559922E-04
4.203187E+03	1.213366E-02	3.475568E-04
4.213147E+03	1.190587E-02	3.394936E-04
4.223108E+03	1.169151E-02	3.318898E-04
4.233068E+03	1.149392E-02	3.248341E-04
4.243028E+03	1.131628E-02	3.184092E-04
4.252988E+03	1.116131E-02	3.126837E-04
4.262948E+03	1.103158E-02	3.077202E-04
4.272908E+03	1.092927E-02	3.035699E-04
4.282869E+03	1.085612E-02	3.002713E-04
4.292829E+03	1.081313E-02	2.978413E-04
4.302789E+03	1.080076E-02	2.962826E-04
4.312749E+03	1.081924E-02	2.955916E-04
4.322709E+03	1.086744E-02	2.957276E-04
4.332669E+03	1.094408E-02	2.966472E-04
4.342629E+03	1.104739E-02	2.982935E-04
4.352590E+03	1.117507E-02	3.005967E-04
4.362550E+03	1.132439E-02	3.034766E-04
4.372510E+03	1.149240E-02	3.068486E-04
4.382470E+03	1.167548E-02	3.106118E-04
4.392430E+03	1.186983E-02	3.146612E-04
4.402390E+03	1.207107E-02	3.188791E-04
4.412351E+03	1.227438E-02	3.231372E-04
4.422311E+03	1.247487E-02	3.273078E-04
4.432271E+03	1.266753E-02	3.312608E-04
4.442231E+03	1.284776E-02	3.348794E-04
4.452191E+03	1.301144E-02	3.380603E-04
4.462151E+03	1.315464E-02	3.407061E-04
4.472112E+03	1.327458E-02	3.427506E-04
4.482072E+03	1.336911E-02	3.441436E-04
4.492032E+03	1.343660E-02	3.448502E-04
4.501992E+03	1.347641E-02	3.448594E-04
4.511952E+03	1.348856E-02	3.441779E-04
4.521912E+03	1.347363E-02	3.428264E-04
4.531873E+03	1.343281E-02	3.408405E-04
4.541833E+03	1.336764E-02	3.382637E-04
4.551793E+03	1.328004E-02	3.351490E-04
4.561753E+03	1.317261E-02	3.315658E-04
4.571713E+03	1.304771E-02	3.275762E-04
4.581673E+03	1.290789E-02	3.232465E-04
4.591633E+03	1.275586E-02	3.186465E-04
4.601594E+03	1.259415E-02	3.138403E-04
4.611554E+03	1.242463E-02	3.088755E-04
4.621514E+03	1.224941E-02	3.038048E-04
4.631474E+03	1.206948E-02	2.986524E-04
4.641434E+03	1.188623E-02	2.934528E-04
4.651394E+03	1.170029E-02	2.882209E-04
4.661355E+03	1.151211E-02	2.829673E-04
4.671315E+03	1.132215E-02	2.777027E-04
4.681275E+03	1.113078E-02	2.724357E-04
4.691235E+03	1.093872E-02	2.671831E-04
4.701195E+03	1.074652E-02	2.619574E-04
4.711155E+03	1.055498E-02	2.567774E-04
4.721116E+03	1.036521E-02	2.516685E-04
4.731076E+03	1.017817E-02	2.466535E-04
4.741036E+03	9.995533E-03	2.417714E-04
4.750996E+03	9.818505E-03	2.370499E-04
4.760956E+03	9.648958E-03	2.325326E-04
4.770916E+03	9.488702E-03	2.282614E-04
4.780876E+03	9.339445E-03	2.242755E-04
4.790837E+03	9.203151E-03	2.206200E-04
4.800797E+03	9.081595E-03	2.173351E-04
4.810757E+03	8.976119E-03	2.144508E-04
4.820717E+03	8.888009E-03	2.119952E-04
4.830677E+03	8.817855E-03	2.099800E-04
4.840637E+03	8.765759E-03	2.084053E-04
4.850598E+03	8.731533E-03	2.072641E-04
4.860558E+03	8.714488E-03	2.065380E-04
4.870518E+03	8.713399E-03	2.061958E-04
4.880478E+03	8.727003E-03	2.062058E-04
4.890438E+03	8.753470E-03	2.065232E-04
4.900398E+03	8.791101E-03	2.071065E-04
4.910359E+03	8.838095E-03	2.079120E-04
4.920319E+03	8.892577E-03	2.088948E-04
4.930279E+03	8.952914E-03	2.100157E-04
4.940239E+03	9.017381E-03	2.112338E-04
4.950199E+03	9.084524E-03	2.125147E-04
4.960159E+03	9.152829E-03	2.138226E-04
4.970120E+03	9.220964E-03	2.151266E-04
4.980080E+03	9.287545E-03	2.163943E-04
4.990040E+03	9.351564E-03	2.176026E-04
5.000000E+03	9.411677E-03	2.187203E-04
5.009960E+03	9.466644E-03	2.197193E-04
5.019920E+03	9.515347E-03	2.205740E-04
5.029880E+03	9.556497E-03	2.212553E-04
5.039841E+03	9.588836E-03	2.217347E-04
5.049801E+03	9.611167E-03	2.219853E-04
5.059761E+03	9.622455E-03	2.219843E-04
5.069721E+03	9.621735E-03	2.217102E-04
5.079681E+03	9.608384E-03	2.211498E-04
5.089641E+03	9.582149E-03	2.202983E-04
5.099602E+03	9.542754E-03	2.191503E-04
5.109562E+03	9.490583E-03	2.177158E-04
5.119522E+03	9.425723E-03	2.159976E-04
5.129482E+03	9.348814E-03	2.140113E-04
5.139442E+03	9.260368E-03	2.117694E-04
5.149402E+03	9.161217E-03	2.092919E-04
5.159363E+03	9.052351E-03	2.066019E-04
5.169323E+03	8.934901E-03	2.037259E-04
5.179283E+03	8.810403E-03	2.006993E-04
5.189243E+03	8.680626E-03	1.975628E-04
5.199203E+03	8.547810E-03	1.943676E-04
5.209163E+03	8.413797E-03	1.911555E-04
5.219124E+03	8.280701E-03	1.879747E-04
5.229084E+03	8.150412E-03	1.848677E-04
5.239044E+03	8.024468E-03	1.818692E-04
5.249004E+03	7.903692E-03	1.789976E-04
5.258964E+03	7.788749E-03	1.762675E-04
5.268924E+03	7.679738E-03	1.736808E-04
5.278884E+03	7.576282E-03	1.712286E-04
5.288845E+03	7.477661E-03	1.688944E-04
5.298805E+03	7.383307E-03	1.666652E-04
5.308765E+03	7.292532E-03	1.645250E-04
5.318725E+03	7.204971E-03	1.624656E-04
5.328685E+03	7.120547E-03	1.604851E-04
5.338645E+03	7.039879E-03	1.585972E-04
5.348606E+03	6.963672E-03	1.568177E-04
5.358566E+03	6.893184E-03	1.551748E-04
5.368526E+03	6.829817E-03	1.536998E-04
5.378486E+03	6.775113E-03	1.524273E-04
5.388446E+03	6.730366E-03	1.513863E-04
5.398406E+03	6.696691E-03	1.506017E-04
5.408367E+03	6.674960E-03	1.500930E-04
5.418327E+03	6.665326E-03	1.498637E-04
5.428287E+03	6.667400E-03	1.499045E-04
5.438247E+03	6.680103E-03	1.501911E-04
5.448207E+03	6.702122E-03	1.506937E-04
5.458167E+03	6.731982E-03	1.513791E-04
5.468127E+03	6.767617E-03	1.522005E-04
5.478088E+03	6.807104E-03	1.531148E-04
5.488048E+03	6.848239E-03	1.540723E-04
5.498008E+03	6.889008E-03	1.550275E-04
5.507968E+03	6.927186E-03	1.559302E-04
5.517928E+03	6.961035E-03	1.567412E-04
5.527888E+03	6.988928E-03	1.574235E-04
5.537849E+03	7.009749E-03	1.579516E-04
5.547809E+03	7.022479E-03	1.583023E-04
5.557769E+03	7.026572E-03	1.584629E-04
5.567729E+03	7.021654E-03	1.584244E-04
5.577689E+03	7.007733E-03	1.581866E-04
5.587649E+03	6.984871E-03	1.577504E-04
5.597610E+03	6.953524E-03	1.571254E-04
5.607570E+03	6.914391E-03	1.563271E-04
5.617530E+03	6.868387E-03	1.553755E-04
5.627490E+03	6.816796E-03	1.542992E-04
5.637450E+03	6.760997E-03	1.531291E-04
5.647410E+03	6.702774E-03	1.519051E-04
5.657371E+03	6.644120E-03	1.506721E-04
5.667331E+03	6.587040E-03	1.494754E-04
5.677291E+03	6.533626E-03	1.483623E-04
5.687251E+03	6.485969E-03	1.473805E-04
5.697211E+03	6.446092E-03	1.465759E-04
5.707171E+03	6.415548E-03	1.459841E-04
5.717131E+03	6.395769E-03	1.456381E-04
5.727092E+03	6.387310E-03	1.455510E-04
5.737052E+03	6.390156E-03	1.457227E-04
5.747012E+03	6.403952E-03	1.461457E-04
5.756972E+03	6.427690E-03	1.467975E-04
5.766932E+03	6.459747E-03	1.476415E-04
5.776892E+03	6.498160E-03	1.486330E-04
5.786853E+03	6.540631E-03	1.497197E-04
5.796813E+03	6.584228E-03	1.508348E-04
5.806773E+03	6.626012E-03	1.519107E-04
5.816733E+03	6.662807E-03	1.528746E-04
5.826693E+03	6.691382E-03	1.536519E-04
5.836653E+03	6.708653E-03	1.541713E-04
5.846614E+03	6.711522E-03	1.543609E-04
5.856574E+03	6.697502E-03	1.541626E-04
5.866534E+03	6.664269E-03	1.535219E-04
5.876494E+03	6.610104E-03	1.523981E-04
5.886454E+03	6.533902E-03	1.507645E-04
5.896414E+03	6.435282E-03	1.486110E-04
5.906375E+03	6.314734E-03	1.459477E-04
5.916335E+03	6.173349E-03	1.427985E-04
5.926295E+03	6.013248E-03	1.392113E-04
5.936255E+03	5.837532E-03	1.352567E-04
5.946215E+03	5.649886E-03	1.310194E-04
5.956175E+03	5.454362E-03	1.265927E-04
5.966135E+03	5.255658E-03	1.220851E-04
5.976096E+03	5.058218E-03	1.175997E-04
5.986056E+03	4.866650E-03	1.132438E-04
5.996016E+03	4.684865E-03	1.091089E-04
6.005976E+03	4.516505E-03	1.052803E-04
6.015936E+03	4.364660E-03	1.018309E-04
6.025896E+03	4.231585E-03	9.881440E-05
6.035857E+03	4.119076E-03	9.627386E-05
6.045817E+03	4.028291E-03	9.423772E-05
6.055777E+03	3.959967E-03	9.272459E-05
6.065737E+03	3.914245E-03	9.173922E-05
6.075697E+03	3.891169E-03	9.128417E-05
6.085657E+03	3.890145E-03	9.134703E-05
6.095618E+03	3.910301E-03	9.190886E-05
6.105578E+03	3.950627E-03	9.294740E-05
6.115538E+03	4.009825E-03	9.443360E-05
6.125498E+03	4.086232E-03	9.632974E-05
6.135458E+03	4.177986E-03	9.859322E-05
6.145418E+03	4.283004E-03	1.011762E-04
6.155378E+03	4.398677E-03	1.040181E-04
6.165339E+03	4.522275E-03	1.070553E-04
6.175299E+03	4.650863E-03	1.102192E-04
6.185259E+03	4.781347E-03	1.134371E-04
6.195219E+03	4.910527E-03	1.166334E-04
6.205179E+03	5.035539E-03	1.197400E-04
6.215139E+03	5.153900E-03	1.226980E-04
6.225100E+03	5.263433E-03	1.254550E-04
6.235060E+03	5.362782E-03	1.279783E-04
6.245020E+03	5.451157E-03	1.302483E-04
6.254980E+03	5.528412E-03	1.322610E-04
6.264940E+03	5.594936E-03	1.340247E-04
6.274900E+03	5.651589E-03	1.355595E-04
6.284861E+03	5.699535E-03	1.368925E-04
6.294821E+03	5.739936E-03	1.380511E-04
6.304781E+03	5.773808E-03	1.390592E-04
6.314741E+03	5.802137E-03	1.399401E-04
6.324701E+03	5.825455E-03	1.407063E-04
6.334661E+03	5.843882E-03	1.413603E-04
6.344622E+03	5.857656E-03	1.419076E-04
6.354582E+03	5.866691E-03	1.423456E-04
6.364542E+03	5.870856E-03	1.426708E-04
6.374502E+03	5.870119E-03	1.428820E-04
6.384462E+03	5.864724E-03	1.429844E-04
6.394422E+03	5.854808E-03	1.429805E-04
6.404382E+03	5.840869E-03	1.428819E-04
6.414343E+03	5.823305E-03	1.426975E-04
6.424303E+03	5.802577E-03	1.424379E-04
6.434263E+03	5.779249E-03	1.421163E-04
6.444223E+03	5.753705E-03	1.417417E-04
6.454183E+03	5.726380E-03	1.413242E-04
6.464143E+03	5.697466E-03	1.408681E-04
6.474104E+03	5.667436E-03	1.403846E-04
6.484064E+03	5.636593E-03	1.398810E-04
6.494024E+03	5.605134E-03	1.393616E-04
6.503984E+03	5.573374E-03	1.388342E-04
6.513944E+03	5.541485E-03	1.383027E-04
6.523904E+03	5.509575E-03	1.377695E-04
6.533865E+03	5.477620E-03	1.372339E-04
6.543825E+03	5.445638E-03	1.366962E-04
6.553785E+03	5.413404E-03	1.361504E-04
6.563745E+03	5.380618E-03	1.355887E-04
6.573705E+03	5.347044E-03	1.350051E-04
6.583665E+03	5.312365E-03	1.343910E-04
6.593625E+03	5.276152E-03	1.337354E-04
6.603586E+03	5.238201E-03	1.330327E-04
6.613546E+03	5.198195E-03	1.322744E-04
6.623506E+03	5.156122E-03	1.314596E-04
6.633466E+03	5.111704E-03	1.305810E-04
6.643426E+03	5.064939E-03	1.296379E-04
6.653386E+03	5.016013E-03	1.286346E-04
6.663347E+03	4.965118E-03	1.275756E-04
6.673307E+03	4.912478E-03	1.264664E-04
6.683267E+03	4.858458E-03	1.253158E-04
6.693227E+03	4.803594E-03	1.241376E-04
6.703187E+03	4.748290E-03	1.229419E-04
6.713147E+03	4.693092E-03	1.217428E-04
6.723108E+03	4.638305E-03	1.205481E-04
6.733068E+03	4.584538E-03	1.193737E-04
6.743028E+03	4.531972E-03	1.182244E-04
6.752988E+03	4.481078E-03	1.171126E-04
6.762948E+03	4.431952E-03	1.160411E-04
6.772908E+03	4.384844E-03	1.150167E-04
6.782869E+03	4.339896E-03	1.140432E-04
6.792829E+03	4.297191E-03	1.131232E-04
6.802789E+03	4.256973E-03	1.122634E-04
6.812749E+03	4.219358E-03	1.114673E-04
6.822709E+03	4.184619E-03	1.107422E-04
6.832669E+03	4.152776E-03	1.100893E-04
6.842629E+03	4.124140E-03	1.095170E-04
6.852590E+03	4.098781E-03	1.090278E-04
6.862550E+03	4.076806E-03	1.086248E-04
6.872510E+03	4.058206E-03	1.083083E-04
6.882470E+03	4.043126E-03	1.080826E-04
6.892430E+03	4.031202E-03	1.079383E-04
6.902390E+03	4.022460E-03	1.078766E-04
6.912351E+03	4.016491E-03	1.078869E-04
6.922311E+03	4.012977E-03	1.079609E-04
6.932271E+03	4.011655E-03	1.080918E-04
6.942231E+03	4.012105E-03	1.082686E-04
6.952191E+03	4.013946E-03	1.084813E-04
6.962151E+03	4.016803E-03	1.087197E-04
6.972112E+03	4.020308E-03	1.089739E-04
6.982072E+03	4.024053E-03	1.092331E-04
6.992032E+03	4.027561E-03	1.094843E-04
7.001992E+03	4.030598E-03	1.097210E-04
7.011952E+03	4.032533E-03	1.099259E-04
7.021912E+03	4.033209E-03	1.100947E-04
7.031873E+03	4.032037E-03	1.102112E-04
7.041833E+03	4.028818E-03	1.102697E-04
7.051793E+03	4.023155E-03	1.102590E-04
7.061753E+03	4.014790E-03	1.101720E-04
7.071713E+03	4.003578E-03	1.100043E-04
7.081673E+03	3.989211E-03	1.097472E-04
7.091633E+03	3.971721E-03	1.094013E-04
7.101594E+03	3.951064E-03	1.089651E-04
7.111554E+03	3.927458E-03	1.084445E-04
7.121514E+03	3.901119E-03	1.078450E-04
7.131474E+03	3.872235E-03	1.071717E-04
7.141434E+03	3.841206E-03	1.064356E-04
7.151394E+03	3.808200E-03	1.056412E-04
7.161355E+03	3.773696E-03	1.048016E-04
7.171315E+03	3.737904E-03	1.039226E-04
7.181275E+03	3.701012E-03	1.030094E-04
7.191235E+03	3.663302E-03	1.020700E-04
7.201195E+03	3.624925E-03	1.011085E-04
7.211155E+03	3.585921E-03	1.001260E-04
7.221116E+03	3.546350E-03	9.912429E-05
7.231076E+03	3.506233E-03	9.810400E-05
7.241036E+03	3.465576E-03	9.706529E-05
7.250996E+03	3.424351E-03	9.600747E-05
7.260956E+03	3.382390E-03	9.492588E-05
7.270916E+03	3.339810E-03	9.382380E-05
7.280876E+03	3.296498E-03	9.269809E-05
7.290837E+03	3.252375E-03	9.154660E-05
7.300797E+03	3.207539E-03	9.037208E-05
7.310757E+03	3.161923E-03	8.917267E-05
7.320717E+03	3.115659E-03	8.795214E-05
7.330677E+03	3.068943E-03	8.671605E-05
7.340637E+03	3.021966E-03	8.546987E-05
7.350598E+03	2.975104E-03	8.422426E-05
7.360558E+03	2.928550E-03	8.298484E-05
7.370518E+03	2.882836E-03	8.176676E-05
7.380478E+03	2.838293E-03	8.057955E-05
7.390438E+03	2.795455E-03	7.943857E-05
7.400398E+03	2.754714E-03	7.835519E-05
7.410359E+03	2.716521E-03	7.734245E-05
7.420319E+03	2.681344E-03	7.641399E-05
7.430279E+03	2.649475E-03	7.557844E-05
7.440239E+03	2.621377E-03	7.484933E-05
7.450199E+03	2.597176E-03	7.423067E-05
7.460159E+03	2.577137E-03	7.373043E-05
7.470120E+03	2.561295E-03	7.335002E-05
7.480080E+03	2.549841E-03	7.309531E-05
7.490040E+03	2.542652E-03	7.296328E-05
7.500000E+03	2.539617E-03	7.295116E-05
7.509960E+03	2.540661E-03	7.305723E-05
7.519920E+03	2.545632E-03	7.327760E-05
7.529880E+03	2.554488E-03	7.361147E-05
7.539841E+03	2.566965E-03	7.405165E-05
7.549801E+03	2.582952E-03	7.459539E-05
7.559761E+03	2.602332E-03	7.523975E-05
7.569721E+03	2.624863E-03	7.597812E-05
7.579681E+03	2.650386E-03	7.680635E-05
7.589641E+03	2.678612E-03	7.771648E-05
7.599602E+03	2.709386E-03	7.870445E-05
7.609562E+03	2.742267E-03	7.975778E-05
7.619522E+03	2.777005E-03	8.086963E-05
7.629482E+03	2.813013E-03	8.202321E-05
7.639442E+03	2.849834E-03	8.320553E-05
7.649402E+03	2.886682E-03	8.439383E-05
7.659363E+03	2.922971E-03	8.557121E-05
7.669323E+03	2.957906E-03	8.671441E-05
7.679283E+03	2.990749E-03	8.780186E-05
7.689243E+03	3.020805E-03	8.881302E-05
7.699203E+03	3.047431E-03	8.972880E-05
7.709163E+03	3.070064E-03	9.053233E-05
7.719124E+03	3.088151E-03	9.120689E-05
7.729084E+03	3.101444E-03	9.174471E-05
