#wls	flux	fluxerr
1.593625E+03	5.664083E-03	2.866739E-04
1.633466E+03	5.209062E-03	2.583621E-04
1.673307E+03	4.754685E-03	2.309837E-04
1.713147E+03	4.305708E-03	2.047752E-04
1.752988E+03	3.868119E-03	1.800091E-04
1.792829E+03	3.447329E-03	1.569045E-04
1.832669E+03	3.048541E-03	1.356469E-04
1.872510E+03	2.676775E-03	1.163898E-04
1.912351E+03	2.335736E-03	9.920893E-05
1.952191E+03	2.028730E-03	8.414621E-05
1.992032E+03	1.757842E-03	7.118033E-05
2.031873E+03	1.523629E-03	6.022093E-05
2.071713E+03	1.326736E-03	5.117965E-05
2.111554E+03	1.167765E-03	4.396571E-05
2.151394E+03	1.048984E-03	3.855016E-05
2.191235E+03	9.723511E-04	3.488927E-05
2.231076E+03	9.404441E-04	3.296036E-05
2.270916E+03	9.577070E-04	3.280463E-05
2.310757E+03	1.027473E-03	3.442312E-05
2.350598E+03	1.154386E-03	3.786386E-05
2.390438E+03	1.347883E-03	4.333047E-05
2.430279E+03	1.622075E-03	5.116683E-05
2.470120E+03	1.994402E-03	6.180416E-05
2.509960E+03	2.483481E-03	7.568811E-05
2.549801E+03	3.105789E-03	9.318160E-05
2.589641E+03	3.871620E-03	1.144516E-04
2.629482E+03	4.782390E-03	1.394029E-04
2.669323E+03	5.823575E-03	1.674890E-04
2.709163E+03	6.962632E-03	1.976777E-04
2.749004E+03	8.155237E-03	2.286515E-04
2.788845E+03	9.347639E-03	2.588867E-04
2.828685E+03	1.048292E-02	2.868359E-04
2.868526E+03	1.151075E-02	3.111949E-04
2.908367E+03	1.239461E-02	3.310872E-04
2.948207E+03	1.312046E-02	3.462720E-04
2.988048E+03	1.369387E-02	3.570381E-04
2.998008E+03	1.381601E-02	3.591236E-04
3.007968E+03	1.393043E-02	3.609905E-04
3.017928E+03	1.403787E-02	3.626594E-04
3.027888E+03	1.413873E-02	3.641430E-04
3.037849E+03	1.423349E-02	3.654548E-04
3.047809E+03	1.432301E-02	3.666182E-04
3.057769E+03	1.440815E-02	3.676572E-04
3.067729E+03	1.448917E-02	3.685789E-04
3.077689E+03	1.456733E-02	3.694170E-04
3.087649E+03	1.464295E-02	3.701801E-04
3.097610E+03	1.471735E-02	3.709025E-04
3.107570E+03	1.479091E-02	3.715939E-04
3.117530E+03	1.486498E-02	3.722892E-04
3.127490E+03	1.493999E-02	3.729991E-04
3.137450E+03	1.501705E-02	3.737512E-04
3.147410E+03	1.509726E-02	3.745730E-04
3.157371E+03	1.518116E-02	3.754771E-04
3.167331E+03	1.527021E-02	3.764996E-04
3.177291E+03	1.536532E-02	3.776617E-04
3.187251E+03	1.546739E-02	3.789849E-04
3.197211E+03	1.557770E-02	3.804983E-04
3.207171E+03	1.569724E-02	3.822241E-04
3.217131E+03	1.582735E-02	3.841923E-04
3.227092E+03	1.596914E-02	3.864273E-04
3.237052E+03	1.612379E-02	3.889544E-04
3.247012E+03	1.629283E-02	3.918071E-04
3.256972E+03	1.647784E-02	3.950203E-04
3.266932E+03	1.667995E-02	3.986169E-04
3.276892E+03	1.690066E-02	4.026287E-04
3.286853E+03	1.714213E-02	4.071024E-04
3.296813E+03	1.740579E-02	4.120674E-04
3.306773E+03	1.769376E-02	4.175684E-04
3.316733E+03	1.800801E-02	4.236465E-04
3.326693E+03	1.835041E-02	4.303391E-04
3.333446E+03	1.460559E-02	3.417842E-04
3.337509E+03	1.482855E-02	3.465530E-04
3.341572E+03	1.505575E-02	3.514076E-04
3.345634E+03	1.523384E-02	3.551039E-04
3.349697E+03	1.548642E-02	3.605237E-04
3.353760E+03	1.570747E-02	3.651951E-04
3.357823E+03	1.594453E-02	3.702252E-04
3.361885E+03	1.618265E-02	3.752656E-04
3.365948E+03	1.642526E-02	3.803959E-04
3.370011E+03	1.667807E-02	3.857477E-04
3.374074E+03	1.697191E-02	3.920320E-04
3.378136E+03	1.726778E-02	3.983455E-04
3.382199E+03	1.754014E-02	4.040995E-04
3.386262E+03	1.780253E-02	4.096082E-04
3.390325E+03	1.801714E-02	4.140032E-04
3.394387E+03	1.828514E-02	4.196106E-04
3.398450E+03	1.853496E-02	4.247853E-04
3.402513E+03	1.875937E-02	4.293637E-04
3.406576E+03	1.894228E-02	4.329801E-04
3.410638E+03	1.912229E-02	4.365194E-04
3.414701E+03	1.927628E-02	4.394548E-04
3.418764E+03	1.940759E-02	4.418650E-04
3.422827E+03	1.953210E-02	4.441128E-04
3.426889E+03	1.966405E-02	4.465224E-04
3.430952E+03	1.983042E-02	4.497047E-04
3.435015E+03	2.000087E-02	4.529699E-04
3.439078E+03	2.024938E-02	4.579904E-04
3.443140E+03	2.047347E-02	4.624449E-04
3.447203E+03	2.078534E-02	4.688661E-04
3.451266E+03	2.111112E-02	4.755826E-04
3.455329E+03	2.145091E-02	4.825949E-04
3.459391E+03	2.187055E-02	4.913813E-04
3.463454E+03	2.233766E-02	5.012081E-04
3.467517E+03	2.285257E-02	5.120786E-04
3.471580E+03	2.340825E-02	5.238311E-04
3.475642E+03	2.395885E-02	5.354373E-04
3.479705E+03	2.451354E-02	5.471026E-04
3.483768E+03	2.499632E-02	5.571325E-04
3.487831E+03	2.552741E-02	5.682096E-04
3.491893E+03	2.598232E-02	5.775624E-04
3.495956E+03	2.647065E-02	5.876306E-04
3.500019E+03	2.689714E-02	5.962995E-04
3.504082E+03	2.732137E-02	6.048937E-04
3.508144E+03	2.767745E-02	6.119569E-04
3.512207E+03	2.800070E-02	6.182751E-04
3.516270E+03	2.834569E-02	6.250541E-04
3.520333E+03	2.864053E-02	6.307094E-04
3.524395E+03	2.894755E-02	6.366162E-04
3.528458E+03	2.922873E-02	6.419384E-04
3.532521E+03	2.947055E-02	6.463820E-04
3.536584E+03	2.965172E-02	6.494838E-04
3.540646E+03	2.977946E-02	6.514075E-04
3.544709E+03	2.993983E-02	6.540375E-04
3.548772E+03	3.000985E-02	6.546882E-04
3.552835E+03	3.003528E-02	6.543639E-04
3.556897E+03	2.998486E-02	6.523886E-04
3.560960E+03	2.992397E-02	6.501892E-04
3.565023E+03	2.981180E-02	6.468811E-04
3.569086E+03	2.973168E-02	6.442741E-04
3.573148E+03	2.957464E-02	6.400075E-04
3.577211E+03	2.934412E-02	6.341620E-04
3.581274E+03	2.919629E-02	6.301142E-04
3.585337E+03	2.911794E-02	6.275725E-04
3.589399E+03	2.925695E-02	6.297131E-04
3.593462E+03	2.952602E-02	6.346405E-04
3.597526E+03	3.003254E-02	6.446482E-04
3.601588E+03	3.076804E-02	6.595342E-04
3.605650E+03	3.178546E-02	6.804106E-04
3.609714E+03	3.305270E-02	7.065663E-04
3.613776E+03	3.456324E-02	7.378405E-04
3.617840E+03	3.625073E-02	7.727960E-04
3.621902E+03	3.810416E-02	8.111830E-04
3.625965E+03	4.003638E-02	8.511333E-04
3.630028E+03	4.201565E-02	8.919660E-04
3.634091E+03	4.401811E-02	9.331704E-04
3.638153E+03	4.591895E-02	9.721016E-04
3.642216E+03	4.776591E-02	1.009777E-03
3.646279E+03	4.941717E-02	1.043208E-03
3.650342E+03	5.087964E-02	1.072556E-03
3.654404E+03	5.213186E-02	1.097387E-03
3.658467E+03	5.312179E-02	1.116625E-03
3.662530E+03	5.377665E-02	1.128765E-03
3.666593E+03	5.410882E-02	1.134098E-03
3.670655E+03	5.413285E-02	1.132956E-03
3.674718E+03	5.380200E-02	1.124390E-03
3.678781E+03	5.312255E-02	1.108565E-03
3.682844E+03	5.211726E-02	1.085987E-03
3.686906E+03	5.077203E-02	1.056391E-03
3.690969E+03	4.920268E-02	1.022217E-03
3.695032E+03	4.737293E-02	9.827333E-04
3.699095E+03	4.532085E-02	9.387521E-04
3.703157E+03	4.310331E-02	8.914717E-04
3.707220E+03	4.073826E-02	8.412787E-04
3.711283E+03	3.832906E-02	7.903190E-04
3.715346E+03	3.592354E-02	7.395823E-04
3.719408E+03	3.360107E-02	6.907009E-04
3.723471E+03	3.138105E-02	6.440655E-04
3.727534E+03	2.935414E-02	6.015250E-04
3.731597E+03	2.757177E-02	5.641139E-04
3.735659E+03	2.606046E-02	5.323509E-04
3.739722E+03	2.481952E-02	5.061963E-04
3.743785E+03	2.387143E-02	4.860822E-04
3.747848E+03	2.320501E-02	4.717527E-04
3.751910E+03	2.275186E-02	4.617923E-04
3.755973E+03	2.254483E-02	4.568457E-04
3.760036E+03	2.251932E-02	4.555817E-04
3.764099E+03	2.262733E-02	4.570128E-04
3.768161E+03	2.276943E-02	4.591207E-04
3.772224E+03	2.297991E-02	4.625919E-04
3.776287E+03	2.333167E-02	4.688847E-04
3.780350E+03	2.370133E-02	4.755089E-04
3.784412E+03	2.420032E-02	4.846947E-04
3.788475E+03	2.475416E-02	4.949391E-04
3.792538E+03	2.548767E-02	5.087277E-04
3.796601E+03	2.632634E-02	5.245568E-04
3.800663E+03	2.734603E-02	5.439242E-04
3.804726E+03	2.854320E-02	5.667400E-04
3.808789E+03	2.986888E-02	5.920145E-04
3.812852E+03	3.132359E-02	6.197437E-04
3.816914E+03	3.294252E-02	6.506083E-04
3.820977E+03	3.477407E-02	6.855444E-04
3.825040E+03	3.686472E-02	7.254428E-04
3.829103E+03	3.920686E-02	7.701251E-04
3.833165E+03	4.175342E-02	8.186406E-04
3.837228E+03	4.453580E-02	8.715801E-04
3.841291E+03	4.743026E-02	9.264993E-04
3.845354E+03	5.038678E-02	9.824098E-04
3.849416E+03	5.341431E-02	1.039477E-03
3.853479E+03	5.644716E-02	1.096416E-03
3.857542E+03	5.952484E-02	1.153991E-03
3.861605E+03	6.257476E-02	1.210790E-03
3.865667E+03	6.560992E-02	1.267067E-03
3.869730E+03	6.858823E-02	1.322010E-03
3.873793E+03	7.152926E-02	1.376001E-03
3.877856E+03	7.445265E-02	1.429419E-03
3.881919E+03	7.738926E-02	1.482857E-03
3.885982E+03	8.028135E-02	1.535208E-03
3.890044E+03	8.311751E-02	1.586258E-03
3.894108E+03	8.584639E-02	1.635034E-03
3.898169E+03	8.848522E-02	1.681875E-03
3.902232E+03	9.091994E-02	1.724627E-03
3.906296E+03	9.318545E-02	1.763972E-03
3.910359E+03	9.521395E-02	1.798651E-03
3.914421E+03	9.694195E-02	1.827491E-03
3.918484E+03	9.835265E-02	1.850214E-03
3.922547E+03	9.947176E-02	1.867337E-03
3.926610E+03	1.002152E-01	1.877321E-03
3.930672E+03	1.005973E-01	1.880479E-03
3.934735E+03	1.006462E-01	1.877375E-03
3.938798E+03	1.003291E-01	1.867444E-03
3.942861E+03	9.972149E-02	1.852130E-03
3.946923E+03	9.871181E-02	1.829401E-03
3.950986E+03	9.745244E-02	1.802124E-03
3.955049E+03	9.596300E-02	1.770692E-03
3.959112E+03	9.416346E-02	1.733662E-03
3.963174E+03	9.220714E-02	1.693887E-03
3.967237E+03	9.007086E-02	1.650964E-03
3.971300E+03	8.780866E-02	1.605903E-03
3.975363E+03	8.544073E-02	1.559090E-03
3.979425E+03	8.304189E-02	1.511901E-03
3.983488E+03	8.058484E-02	1.463845E-03
3.987551E+03	7.826105E-02	1.418400E-03
3.991614E+03	7.602080E-02	1.374651E-03
3.995676E+03	7.395813E-02	1.334286E-03
3.999739E+03	7.213080E-02	1.298323E-03
4.003802E+03	7.058537E-02	1.267569E-03
4.007865E+03	6.932267E-02	1.242006E-03
4.011927E+03	6.842160E-02	1.223008E-03
4.015990E+03	6.793140E-02	1.211409E-03
4.020053E+03	6.782105E-02	1.206605E-03
4.024116E+03	6.805937E-02	1.207997E-03
4.028178E+03	6.858288E-02	1.214417E-03
4.032241E+03	6.939001E-02	1.225801E-03
4.036304E+03	7.032690E-02	1.239403E-03
4.040367E+03	7.138008E-02	1.254970E-03
4.044429E+03	7.242043E-02	1.270222E-03
4.048492E+03	7.342470E-02	1.284757E-03
4.052555E+03	7.439515E-02	1.298617E-03
4.056618E+03	7.521579E-02	1.309787E-03
4.060680E+03	7.587006E-02	1.318001E-03
4.064743E+03	7.632269E-02	1.322666E-03
4.068806E+03	7.656395E-02	1.323643E-03
4.072869E+03	7.663746E-02	1.321709E-03
4.076931E+03	7.649863E-02	1.316120E-03
4.080994E+03	7.616094E-02	1.307133E-03
4.085057E+03	7.564491E-02	1.295127E-03
4.089120E+03	7.502245E-02	1.281350E-03
4.093182E+03	7.430730E-02	1.266053E-03
4.097245E+03	7.353430E-02	1.249837E-03
4.101308E+03	7.271036E-02	1.232830E-03
4.105371E+03	7.191718E-02	1.216418E-03
4.109433E+03	7.121337E-02	1.201587E-03
4.113496E+03	7.058742E-02	1.188134E-03
4.117559E+03	7.014017E-02	1.177741E-03
4.121622E+03	6.982048E-02	1.169532E-03
4.125684E+03	6.969192E-02	1.164553E-03
4.129747E+03	6.983231E-02	1.164079E-03
4.133810E+03	7.011535E-02	1.165977E-03
4.137873E+03	7.067992E-02	1.172536E-03
4.141935E+03	7.146773E-02	1.182757E-03
4.145998E+03	7.245803E-02	1.196273E-03
4.150061E+03	7.358757E-02	1.212019E-03
4.154124E+03	7.479067E-02	1.228901E-03
4.158186E+03	7.610036E-02	1.247454E-03
4.162250E+03	7.737533E-02	1.265354E-03
4.166312E+03	7.859430E-02	1.282263E-03
4.170375E+03	7.972879E-02	1.297723E-03
4.174438E+03	8.067474E-02	1.310056E-03
4.178501E+03	8.150035E-02	1.320391E-03
4.182563E+03	8.216521E-02	1.328091E-03
4.186626E+03	8.265961E-02	1.333015E-03
4.190689E+03	8.298330E-02	1.335184E-03
4.194752E+03	8.317150E-02	1.335180E-03
4.198815E+03	8.319087E-02	1.332487E-03
4.202877E+03	8.303884E-02	1.327083E-03
4.206940E+03	8.282653E-02	1.320758E-03
4.211003E+03	8.250411E-02	1.312727E-03
4.215066E+03	8.208330E-02	1.303189E-03
4.219128E+03	8.158063E-02	1.292415E-03
4.223191E+03	8.103397E-02	1.281013E-03
4.227254E+03	8.044091E-02	1.268950E-03
4.231317E+03	7.978953E-02	1.256043E-03
4.235379E+03	7.908696E-02	1.242410E-03
4.239442E+03	7.828079E-02	1.227235E-03
4.243505E+03	7.742332E-02	1.211345E-03
4.247568E+03	7.655970E-02	1.195450E-03
4.251630E+03	7.568760E-02	1.179514E-03
4.255693E+03	7.478796E-02	1.163241E-03
4.259756E+03	7.385605E-02	1.146560E-03
4.263819E+03	7.289898E-02	1.129582E-03
4.267881E+03	7.188102E-02	1.111758E-03
4.271944E+03	7.080931E-02	1.093201E-03
4.276007E+03	6.971964E-02	1.074466E-03
4.280070E+03	6.860002E-02	1.055371E-03
4.284132E+03	6.749108E-02	1.036539E-03
4.288195E+03	6.636898E-02	1.017604E-03
4.292258E+03	6.525286E-02	9.988584E-04
4.296321E+03	6.412363E-02	9.800084E-04
4.300383E+03	6.306490E-02	9.623293E-04
4.304446E+03	6.203853E-02	9.452341E-04
4.308509E+03	6.101594E-02	9.282841E-04
4.312572E+03	6.002818E-02	9.119497E-04
4.316634E+03	5.907291E-02	8.961917E-04
4.320697E+03	5.820757E-02	8.818769E-04
4.324760E+03	5.742739E-02	8.689265E-04
4.328823E+03	5.667035E-02	8.563973E-04
4.332885E+03	5.600576E-02	8.453330E-04
4.336948E+03	5.542172E-02	8.355484E-04
4.341011E+03	5.487051E-02	8.263196E-04
4.345074E+03	5.438322E-02	8.181111E-04
4.349136E+03	5.393594E-02	8.105589E-04
4.353199E+03	5.354789E-02	8.039483E-04
4.357262E+03	5.317120E-02	7.975573E-04
4.361325E+03	5.284902E-02	7.920306E-04
4.365387E+03	5.256697E-02	7.871492E-04
4.369450E+03	5.231069E-02	7.826962E-04
4.373513E+03	5.212094E-02	7.792784E-04
4.377576E+03	5.194505E-02	7.761059E-04
4.381638E+03	5.176390E-02	7.728920E-04
4.385701E+03	5.154402E-02	7.691362E-04
4.389764E+03	5.138349E-02	7.663013E-04
4.393827E+03	5.127278E-02	7.642429E-04
4.397889E+03	5.125732E-02	7.636356E-04
4.401952E+03	5.141610E-02	7.656533E-04
4.406015E+03	5.174668E-02	7.702554E-04
4.410078E+03	5.218208E-02	7.764422E-04
4.414140E+03	5.277488E-02	7.849941E-04
4.418203E+03	5.349877E-02	7.955177E-04
4.422266E+03	5.434890E-02	8.079396E-04
4.426329E+03	5.528937E-02	8.217255E-04
4.430391E+03	5.628904E-02	8.364123E-04
4.434454E+03	5.736939E-02	8.523196E-04
4.438517E+03	5.846581E-02	8.684875E-04
4.442580E+03	5.966920E-02	8.862670E-04
4.446643E+03	6.088380E-02	9.042365E-04
4.450705E+03	6.212395E-02	9.226096E-04
4.454768E+03	6.338007E-02	9.412449E-04
4.458832E+03	6.453503E-02	9.584035E-04
4.462893E+03	6.563903E-02	9.748317E-04
4.466956E+03	6.674225E-02	9.912752E-04
4.471020E+03	6.783273E-02	1.007557E-03
4.475083E+03	6.894151E-02	1.024138E-03
4.479145E+03	7.010199E-02	1.041515E-03
4.483208E+03	7.128309E-02	1.059228E-03
4.487271E+03	7.253487E-02	1.078019E-03
4.491334E+03	7.380958E-02	1.097182E-03
4.495396E+03	7.515016E-02	1.117354E-03
4.499459E+03	7.657318E-02	1.138784E-03
4.503522E+03	7.806435E-02	1.161258E-03
4.507585E+03	7.962113E-02	1.184742E-03
4.511647E+03	8.124114E-02	1.209201E-03
4.515710E+03	8.292190E-02	1.234599E-03
4.519773E+03	8.458472E-02	1.259765E-03
4.523836E+03	8.621527E-02	1.284485E-03
4.527898E+03	8.789700E-02	1.310003E-03
4.531961E+03	8.955355E-02	1.335182E-03
4.536024E+03	9.119688E-02	1.360200E-03
4.540087E+03	9.276511E-02	1.384133E-03
4.544149E+03	9.422019E-02	1.406411E-03
4.548212E+03	9.562167E-02	1.427921E-03
4.552275E+03	9.698860E-02	1.448948E-03
4.556338E+03	9.833999E-02	1.469774E-03
4.560400E+03	9.957848E-02	1.488942E-03
4.564463E+03	1.007445E-01	1.507055E-03
4.568526E+03	1.018427E-01	1.524181E-03
4.572589E+03	1.028521E-01	1.540002E-03
4.576651E+03	1.036918E-01	1.553306E-03
4.580714E+03	1.044000E-01	1.564660E-03
4.584777E+03	1.049721E-01	1.573991E-03
4.588840E+03	1.053916E-01	1.581048E-03
4.592902E+03	1.056799E-01	1.586151E-03
4.596965E+03	1.058279E-01	1.589154E-03
4.601028E+03	1.058236E-01	1.589878E-03
4.605091E+03	1.055750E-01	1.586933E-03
4.609153E+03	1.051155E-01	1.580815E-03
4.613216E+03	1.044310E-01	1.571308E-03
4.617279E+03	1.034745E-01	1.557697E-03
4.621342E+03	1.022723E-01	1.540373E-03
4.625404E+03	1.008696E-01	1.520010E-03
4.629467E+03	9.926904E-02	1.496640E-03
4.633530E+03	9.747556E-02	1.470336E-03
4.637593E+03	9.557206E-02	1.442343E-03
4.641655E+03	9.352087E-02	1.412088E-03
4.645718E+03	9.140012E-02	1.380749E-03
4.649781E+03	8.917683E-02	1.347825E-03
4.653844E+03	8.685589E-02	1.313388E-03
4.657906E+03	8.452937E-02	1.278828E-03
4.661969E+03	8.222085E-02	1.244502E-03
4.666032E+03	7.995158E-02	1.210732E-03
4.670095E+03	7.776623E-02	1.178195E-03
4.674157E+03	7.568826E-02	1.147250E-03
4.678220E+03	7.370818E-02	1.117754E-03
4.682283E+03	7.189409E-02	1.090743E-03
4.686346E+03	7.021523E-02	1.065753E-03
4.690408E+03	6.874200E-02	1.043858E-03
4.694471E+03	6.742481E-02	1.024306E-03
4.698534E+03	6.629164E-02	1.007527E-03
4.702597E+03	6.528132E-02	9.925950E-04
4.706659E+03	6.435378E-02	9.789022E-04
4.710722E+03	6.353004E-02	9.667704E-04
4.714785E+03	6.271858E-02	9.548083E-04
4.718848E+03	6.198262E-02	9.439791E-04
4.722910E+03	6.131978E-02	9.342477E-04
4.726973E+03	6.065505E-02	9.244725E-04
4.731037E+03	6.003993E-02	9.154387E-04
4.735099E+03	5.941585E-02	9.062536E-04
4.739161E+03	5.883898E-02	8.977742E-04
4.743225E+03	5.834197E-02	8.904997E-04
4.747287E+03	5.793174E-02	8.845366E-04
4.751350E+03	5.758249E-02	8.794920E-04
4.755413E+03	5.726613E-02	8.749374E-04
4.759476E+03	5.704331E-02	8.718002E-04
4.763539E+03	5.693724E-02	8.704360E-04
4.767602E+03	5.691508E-02	8.703443E-04
4.771664E+03	5.696514E-02	8.713466E-04
4.775727E+03	5.711524E-02	8.738693E-04
4.779790E+03	5.731171E-02	8.770921E-04
4.783853E+03	5.760335E-02	8.817617E-04
4.787915E+03	5.792959E-02	8.869516E-04
4.791978E+03	5.822992E-02	8.917347E-04
4.796041E+03	5.854853E-02	8.967874E-04
4.800104E+03	5.878549E-02	9.005785E-04
4.804166E+03	5.892002E-02	9.027883E-04
4.808229E+03	5.894760E-02	9.033464E-04
4.812292E+03	5.881040E-02	9.013659E-04
4.816355E+03	5.852022E-02	8.970259E-04
4.820417E+03	5.805870E-02	8.900446E-04
4.824480E+03	5.742145E-02	8.803537E-04
4.828543E+03	5.662959E-02	8.682766E-04
4.832606E+03	5.568790E-02	8.538865E-04
4.836668E+03	5.464981E-02	8.380029E-04
4.840731E+03	5.355016E-02	8.211605E-04
4.844794E+03	5.244452E-02	8.042118E-04
4.848857E+03	5.133061E-02	7.871230E-04
4.852919E+03	5.028694E-02	7.710984E-04
4.856982E+03	4.936195E-02	7.568813E-04
4.861045E+03	4.859700E-02	7.451066E-04
4.865108E+03	4.801496E-02	7.361246E-04
4.869170E+03	4.772398E-02	7.315930E-04
4.873233E+03	4.768214E-02	7.308684E-04
4.877296E+03	4.790068E-02	7.341215E-04
4.881359E+03	4.841148E-02	7.418390E-04
4.885421E+03	4.916352E-02	7.532369E-04
4.889484E+03	5.013115E-02	7.679197E-04
4.893547E+03	5.132789E-02	7.860917E-04
4.897610E+03	5.262245E-02	8.057394E-04
4.901672E+03	5.397792E-02	8.262960E-04
4.905735E+03	5.538274E-02	8.475826E-04
4.909798E+03	5.671516E-02	8.677346E-04
4.913861E+03	5.798219E-02	8.868593E-04
4.917923E+03	5.912194E-02	9.040101E-04
4.921986E+03	6.013005E-02	9.191212E-04
4.926049E+03	6.094481E-02	9.312510E-04
4.930112E+03	6.156876E-02	9.404406E-04
4.934174E+03	6.197237E-02	9.462422E-04
4.938237E+03	6.212850E-02	9.482449E-04
4.942300E+03	6.201458E-02	9.461090E-04
4.946363E+03	6.166984E-02	9.404382E-04
4.950425E+03	6.108541E-02	9.311024E-04
4.954488E+03	6.029594E-02	9.186347E-04
4.958551E+03	5.935646E-02	9.038787E-04
4.962614E+03	5.831968E-02	8.876407E-04
4.966676E+03	5.719484E-02	8.700646E-04
4.970739E+03	5.602768E-02	8.518488E-04
4.974802E+03	5.482967E-02	8.331698E-04
4.978865E+03	5.366007E-02	8.149295E-04
4.982927E+03	5.252340E-02	7.971966E-04
4.986990E+03	5.147655E-02	7.808345E-04
4.991053E+03	5.056035E-02	7.664603E-04
4.995116E+03	4.976785E-02	7.539661E-04
4.999178E+03	4.915572E-02	7.442069E-04
5.003241E+03	4.874421E-02	7.374845E-04
5.007304E+03	4.846940E-02	7.328269E-04
5.011367E+03	4.834708E-02	7.304688E-04
5.015430E+03	4.838836E-02	7.305733E-04
5.019492E+03	4.860442E-02	7.333044E-04
5.023556E+03	4.895874E-02	7.381055E-04
5.027619E+03	4.939223E-02	7.440824E-04
5.031680E+03	4.994326E-02	7.518099E-04
5.035743E+03	5.055510E-02	7.604305E-04
5.039807E+03	5.119826E-02	7.694987E-04
5.043870E+03	5.185000E-02	7.786724E-04
5.047932E+03	5.251038E-02	7.879520E-04
5.051995E+03	5.316354E-02	7.970995E-04
5.056058E+03	5.383660E-02	8.065215E-04
5.060121E+03	5.447762E-02	8.154400E-04
5.064183E+03	5.508205E-02	8.237884E-04
5.068246E+03	5.561612E-02	8.310636E-04
5.072309E+03	5.614986E-02	8.383140E-04
5.076372E+03	5.664948E-02	8.450362E-04
5.080434E+03	5.710142E-02	8.510296E-04
5.084497E+03	5.755090E-02	8.569699E-04
5.088560E+03	5.799114E-02	8.627566E-04
5.092623E+03	5.833200E-02	8.670508E-04
5.096685E+03	5.868854E-02	8.715657E-04
5.100748E+03	5.906294E-02	8.763336E-04
5.104811E+03	5.941244E-02	8.807204E-04
5.108874E+03	5.980456E-02	8.857275E-04
5.112936E+03	6.025052E-02	8.915201E-04
5.116999E+03	6.074576E-02	8.980292E-04
5.121062E+03	6.125877E-02	9.047880E-04
5.125125E+03	6.180075E-02	9.119617E-04
