#wls	flux	fluxerr
1.593625E+03	1.778410E-03	1.062844E-04
1.633466E+03	1.623292E-03	9.662973E-05
1.673307E+03	1.479332E-03	8.770550E-05
1.713147E+03	1.346618E-03	7.951027E-05
1.752988E+03	1.225558E-03	7.206111E-05
1.792829E+03	1.116122E-03	6.534884E-05
1.832669E+03	1.018306E-03	5.936565E-05
1.872510E+03	9.319320E-04	5.409319E-05
1.912351E+03	8.565482E-04	4.949753E-05
1.952191E+03	7.919307E-04	4.555795E-05
1.992032E+03	7.375423E-04	4.223587E-05
2.031873E+03	6.930223E-04	3.950318E-05
2.071713E+03	6.582136E-04	3.734351E-05
2.111554E+03	6.329890E-04	3.574222E-05
2.151394E+03	6.179899E-04	3.472785E-05
2.191235E+03	6.135815E-04	3.431267E-05
2.231076E+03	6.205358E-04	3.453109E-05
2.270916E+03	6.394421E-04	3.540635E-05
2.310757E+03	6.711267E-04	3.697393E-05
2.350598E+03	7.163846E-04	3.926644E-05
2.390438E+03	7.760914E-04	4.231968E-05
2.430279E+03	8.505128E-04	4.613513E-05
2.470120E+03	9.396574E-04	5.069980E-05
2.509960E+03	1.042433E-03	5.594124E-05
2.549801E+03	1.156688E-03	6.173140E-05
2.589641E+03	1.279152E-03	6.788493E-05
2.629482E+03	1.405166E-03	7.414692E-05
2.669323E+03	1.530670E-03	8.029915E-05
2.709163E+03	1.651777E-03	8.613730E-05
2.749004E+03	1.766044E-03	9.153682E-05
2.788845E+03	1.871389E-03	9.639483E-05
2.828685E+03	1.967050E-03	1.006788E-04
2.868526E+03	2.052071E-03	1.043478E-04
2.908367E+03	2.127166E-03	1.074465E-04
2.948207E+03	2.193085E-03	1.100211E-04
2.988048E+03	2.252616E-03	1.122182E-04
2.998008E+03	2.266784E-03	1.127232E-04
3.007968E+03	2.280620E-03	1.132083E-04
3.017928E+03	2.294556E-03	1.136950E-04
3.027888E+03	2.308255E-03	1.141665E-04
3.037849E+03	2.321958E-03	1.146349E-04
3.047809E+03	2.335712E-03	1.151023E-04
3.057769E+03	2.349566E-03	1.155712E-04
3.067729E+03	2.363378E-03	1.160345E-04
3.077689E+03	2.377578E-03	1.165134E-04
3.087649E+03	2.392025E-03	1.170007E-04
3.097610E+03	2.406766E-03	1.174986E-04
3.107570E+03	2.421848E-03	1.180095E-04
3.117530E+03	2.437509E-03	1.185446E-04
3.127490E+03	2.453417E-03	1.190878E-04
3.137450E+03	2.470183E-03	1.196684E-04
3.147410E+03	2.487287E-03	1.202612E-04
3.157371E+03	2.505336E-03	1.208952E-04
3.167331E+03	2.523995E-03	1.215541E-04
3.177291E+03	2.543309E-03	1.222397E-04
3.187251E+03	2.563688E-03	1.229717E-04
3.197211E+03	2.584984E-03	1.237423E-04
3.207171E+03	2.607231E-03	1.245532E-04
3.217131E+03	2.630465E-03	1.254055E-04
3.227092E+03	2.654717E-03	1.263006E-04
3.237052E+03	2.680203E-03	1.272483E-04
3.247012E+03	2.706764E-03	1.282406E-04
3.256972E+03	2.734799E-03	1.292961E-04
3.266932E+03	2.763950E-03	1.303974E-04
3.276892E+03	2.794616E-03	1.315629E-04
3.286853E+03	2.826620E-03	1.327838E-04
3.296813E+03	2.860163E-03	1.340690E-04
3.306773E+03	2.895066E-03	1.354097E-04
3.316733E+03	2.931700E-03	1.368227E-04
3.326693E+03	2.969883E-03	1.382990E-04
3.336653E+03	3.009605E-03	1.398375E-04
3.346614E+03	3.051231E-03	1.414546E-04
3.356574E+03	3.094556E-03	1.431402E-04
3.366534E+03	3.139553E-03	1.448925E-04
3.376494E+03	3.186382E-03	1.467182E-04
3.386454E+03	3.235202E-03	1.486240E-04
3.396414E+03	3.285965E-03	1.506070E-04
3.406375E+03	3.338618E-03	1.526640E-04
3.416335E+03	3.393302E-03	1.548009E-04
3.426295E+03	3.449944E-03	1.570136E-04
3.436255E+03	3.508669E-03	1.593070E-04
3.446215E+03	3.569588E-03	1.616853E-04
3.456175E+03	3.632416E-03	1.641351E-04
3.466135E+03	3.697648E-03	1.666777E-04
3.476096E+03	3.765181E-03	1.693078E-04
3.486056E+03	3.834913E-03	1.720199E-04
3.496016E+03	3.906924E-03	1.748167E-04
3.505976E+03	3.981098E-03	1.776922E-04
3.515936E+03	4.057927E-03	1.806675E-04
3.525896E+03	4.136891E-03	1.837185E-04
3.535857E+03	4.218077E-03	1.868483E-04
3.545817E+03	4.301382E-03	1.900513E-04
3.555777E+03	4.386707E-03	1.933225E-04
3.565737E+03	4.473969E-03	1.966573E-04
3.575697E+03	4.562904E-03	2.000435E-04
3.585657E+03	4.653461E-03	2.034781E-04
3.595618E+03	4.745425E-03	2.069510E-04
3.605578E+03	4.839009E-03	2.104708E-04
3.615538E+03	4.934055E-03	2.140302E-04
3.625498E+03	5.030647E-03	2.176320E-04
3.635458E+03	5.128506E-03	2.212635E-04
3.645418E+03	5.228201E-03	2.249487E-04
3.655378E+03	5.329537E-03	2.286785E-04
3.665339E+03	5.432760E-03	2.324625E-04
3.675299E+03	5.537962E-03	2.363040E-04
3.685259E+03	5.645670E-03	2.402246E-04
3.695219E+03	5.756045E-03	2.442299E-04
3.705179E+03	5.869265E-03	2.483266E-04
3.715139E+03	5.985735E-03	2.525305E-04
3.725100E+03	6.105865E-03	2.568576E-04
3.735060E+03	6.229867E-03	2.613152E-04
3.745020E+03	6.358131E-03	2.659181E-04
3.754980E+03	6.491033E-03	2.706803E-04
3.764940E+03	6.628695E-03	2.756050E-04
3.774900E+03	6.771403E-03	2.807021E-04
3.784861E+03	6.919161E-03	2.859699E-04
3.794821E+03	7.072101E-03	2.914116E-04
3.804781E+03	7.230274E-03	2.970273E-04
3.814741E+03	7.393409E-03	3.028039E-04
3.824701E+03	7.561339E-03	3.087323E-04
3.834661E+03	7.733572E-03	3.147907E-04
3.844622E+03	7.909699E-03	3.209605E-04
3.854582E+03	8.089191E-03	3.272189E-04
3.864542E+03	8.271196E-03	3.335299E-04
3.874502E+03	8.454957E-03	3.398621E-04
3.884462E+03	8.639403E-03	3.461716E-04
3.894422E+03	8.823601E-03	3.524208E-04
3.904382E+03	9.006546E-03	3.585697E-04
3.914343E+03	9.186984E-03	3.645687E-04
3.924303E+03	9.363634E-03	3.703680E-04
3.934263E+03	9.535671E-03	3.759365E-04
3.944223E+03	9.701866E-03	3.812276E-04
3.954183E+03	9.861068E-03	3.861983E-04
3.964143E+03	1.001243E-02	3.908181E-04
3.974104E+03	1.015499E-02	3.950531E-04
3.984064E+03	1.028840E-02	3.988922E-04
3.994024E+03	1.041197E-02	4.023133E-04
4.003984E+03	1.052522E-02	4.053011E-04
4.013944E+03	1.062780E-02	4.078464E-04
4.023904E+03	1.072018E-02	4.099718E-04
4.033865E+03	1.080192E-02	4.116640E-04
4.043825E+03	1.087357E-02	4.129483E-04
4.053785E+03	1.093537E-02	4.138381E-04
4.063745E+03	1.098790E-02	4.143591E-04
4.073705E+03	1.103181E-02	4.145393E-04
4.083665E+03	1.106762E-02	4.144017E-04
4.093625E+03	1.109607E-02	4.139776E-04
4.103586E+03	1.111774E-02	4.132915E-04
4.113546E+03	1.113341E-02	4.123750E-04
4.123506E+03	1.114385E-02	4.112589E-04
4.133466E+03	1.114977E-02	4.099719E-04
4.143426E+03	1.115167E-02	4.085339E-04
4.153386E+03	1.115017E-02	4.069693E-04
4.163347E+03	1.114603E-02	4.053074E-04
4.173307E+03	1.113937E-02	4.035540E-04
4.183267E+03	1.113084E-02	4.017329E-04
4.193227E+03	1.112063E-02	3.998525E-04
4.203187E+03	1.110926E-02	3.979321E-04
4.213147E+03	1.109702E-02	3.959824E-04
4.223108E+03	1.108396E-02	3.940063E-04
4.233068E+03	1.107069E-02	3.920249E-04
4.243028E+03	1.105702E-02	3.900326E-04
4.252988E+03	1.104351E-02	3.880489E-04
4.262948E+03	1.103034E-02	3.860804E-04
4.272908E+03	1.101771E-02	3.841339E-04
4.282869E+03	1.100599E-02	3.822226E-04
4.292829E+03	1.099544E-02	3.803544E-04
4.302789E+03	1.098647E-02	3.785439E-04
4.312749E+03	1.097940E-02	3.768013E-04
4.322709E+03	1.097508E-02	3.751551E-04
4.332669E+03	1.097360E-02	3.736073E-04
4.342629E+03	1.097596E-02	3.721907E-04
4.352590E+03	1.098276E-02	3.709245E-04
4.362550E+03	1.099504E-02	3.698414E-04
4.372510E+03	1.101355E-02	3.689652E-04
4.382470E+03	1.103940E-02	3.683302E-04
4.392430E+03	1.107349E-02	3.679635E-04
4.402390E+03	1.111665E-02	3.678894E-04
4.412351E+03	1.116946E-02	3.681235E-04
4.422311E+03	1.123284E-02	3.686922E-04
4.432271E+03	1.130694E-02	3.695965E-04
4.442231E+03	1.139178E-02	3.708322E-04
4.452191E+03	1.148734E-02	3.723947E-04
4.462151E+03	1.159343E-02	3.742738E-04
4.472112E+03	1.170905E-02	3.764329E-04
4.482072E+03	1.183394E-02	3.788602E-04
4.492032E+03	1.196671E-02	3.815077E-04
4.501992E+03	1.210673E-02	3.843524E-04
4.511952E+03	1.225240E-02	3.873411E-04
4.521912E+03	1.240230E-02	3.904267E-04
4.531873E+03	1.255502E-02	3.935636E-04
4.541833E+03	1.270889E-02	3.966988E-04
4.551793E+03	1.286202E-02	3.997731E-04
4.561753E+03	1.301296E-02	4.027425E-04
4.571713E+03	1.315980E-02	4.055491E-04
4.581673E+03	1.330102E-02	4.081478E-04
4.591633E+03	1.343503E-02	4.104926E-04
4.601594E+03	1.356036E-02	4.125421E-04
4.611554E+03	1.367591E-02	4.142661E-04
4.621514E+03	1.378077E-02	4.156415E-04
4.631474E+03	1.387407E-02	4.166468E-04
4.641434E+03	1.395554E-02	4.172785E-04
4.651394E+03	1.402463E-02	4.175251E-04
4.661355E+03	1.408155E-02	4.173974E-04
4.671315E+03	1.412652E-02	4.169075E-04
4.681275E+03	1.416015E-02	4.160780E-04
4.691235E+03	1.418289E-02	4.149262E-04
4.701195E+03	1.419580E-02	4.134878E-04
4.711155E+03	1.419956E-02	4.117863E-04
4.721116E+03	1.419540E-02	4.098606E-04
4.731076E+03	1.418422E-02	4.077406E-04
4.741036E+03	1.416712E-02	4.054599E-04
4.750996E+03	1.414513E-02	4.030504E-04
4.760956E+03	1.411922E-02	4.005417E-04
4.770916E+03	1.409011E-02	3.979557E-04
4.780876E+03	1.405840E-02	3.953110E-04
4.790837E+03	1.402458E-02	3.926220E-04
4.800797E+03	1.398886E-02	3.898956E-04
4.810757E+03	1.395132E-02	3.871352E-04
4.820717E+03	1.391198E-02	3.843418E-04
4.830677E+03	1.387123E-02	3.815270E-04
4.840637E+03	1.382862E-02	3.786793E-04
4.850598E+03	1.378444E-02	3.758077E-04
4.860558E+03	1.373836E-02	3.729031E-04
4.870518E+03	1.369047E-02	3.699693E-04
4.880478E+03	1.364063E-02	3.670028E-04
4.890438E+03	1.358902E-02	3.640090E-04
4.900398E+03	1.353575E-02	3.609915E-04
4.910359E+03	1.348085E-02	3.579515E-04
4.920319E+03	1.342474E-02	3.549010E-04
4.930279E+03	1.336782E-02	3.518506E-04
4.940239E+03	1.331045E-02	3.488097E-04
4.950199E+03	1.325351E-02	3.458022E-04
4.960159E+03	1.319746E-02	3.428389E-04
4.970120E+03	1.314339E-02	3.399484E-04
4.980080E+03	1.309208E-02	3.371499E-04
4.990040E+03	1.304467E-02	3.344716E-04
5.000000E+03	1.300208E-02	3.319356E-04
5.009960E+03	1.296554E-02	3.295718E-04
5.019920E+03	1.293604E-02	3.274031E-04
5.029880E+03	1.291497E-02	3.254626E-04
5.039841E+03	1.290332E-02	3.237720E-04
5.049801E+03	1.290215E-02	3.223552E-04
5.059761E+03	1.291248E-02	3.212344E-04
5.069721E+03	1.293541E-02	3.204330E-04
5.079681E+03	1.297166E-02	3.199653E-04
5.089641E+03	1.302215E-02	3.198496E-04
5.099602E+03	1.308752E-02	3.200977E-04
5.109562E+03	1.316818E-02	3.207153E-04
5.119522E+03	1.326481E-02	3.217144E-04
5.129482E+03	1.337740E-02	3.230904E-04
5.139442E+03	1.350635E-02	3.248486E-04
5.149402E+03	1.365149E-02	3.269805E-04
5.159363E+03	1.381262E-02	3.294773E-04
5.169323E+03	1.398940E-02	3.323265E-04
5.179283E+03	1.418144E-02	3.355157E-04
5.189243E+03	1.438793E-02	3.390215E-04
5.199203E+03	1.460800E-02	3.428207E-04
5.209163E+03	1.484080E-02	3.468902E-04
5.219124E+03	1.508516E-02	3.512002E-04
5.229084E+03	1.533959E-02	3.557145E-04
5.239044E+03	1.560262E-02	3.603970E-04
5.249004E+03	1.587280E-02	3.652136E-04
5.258964E+03	1.614841E-02	3.701239E-04
5.268924E+03	1.642745E-02	3.750820E-04
5.278884E+03	1.670812E-02	3.800481E-04
5.288845E+03	1.698826E-02	3.849735E-04
5.298805E+03	1.726576E-02	3.898126E-04
5.308765E+03	1.753866E-02	3.945235E-04
5.318725E+03	1.780463E-02	3.990563E-04
5.328685E+03	1.806165E-02	4.033694E-04
5.338645E+03	1.830737E-02	4.074140E-04
5.348606E+03	1.853963E-02	4.111467E-04
5.358566E+03	1.875652E-02	4.145296E-04
5.368526E+03	1.895566E-02	4.175154E-04
5.378486E+03	1.913554E-02	4.200763E-04
5.388446E+03	1.929429E-02	4.221768E-04
5.398406E+03	1.943026E-02	4.237873E-04
5.408367E+03	1.954281E-02	4.248994E-04
5.418327E+03	1.963126E-02	4.255045E-04
5.428287E+03	1.969574E-02	4.256116E-04
5.438247E+03	1.973739E-02	4.252505E-04
5.448207E+03	1.975747E-02	4.244534E-04
5.458167E+03	1.975725E-02	4.232521E-04
5.468127E+03	1.973847E-02	4.216879E-04
5.478088E+03	1.970257E-02	4.197949E-04
5.488048E+03	1.965057E-02	4.175981E-04
5.498008E+03	1.958379E-02	4.151283E-04
5.507968E+03	1.950316E-02	4.124070E-04
5.517928E+03	1.941026E-02	4.094687E-04
5.527888E+03	1.930617E-02	4.063370E-04
5.537849E+03	1.919230E-02	4.030418E-04
5.547809E+03	1.907037E-02	3.996196E-04
5.557769E+03	1.894188E-02	3.961011E-04
5.567729E+03	1.880877E-02	3.925268E-04
5.577689E+03	1.867292E-02	3.889353E-04
5.587649E+03	1.853645E-02	3.853694E-04
5.597610E+03	1.840112E-02	3.818647E-04
5.607570E+03	1.826887E-02	3.784602E-04
5.617530E+03	1.814177E-02	3.751969E-04
5.627490E+03	1.802142E-02	3.721064E-04
5.637450E+03	1.790965E-02	3.692247E-04
5.647410E+03	1.780796E-02	3.665810E-04
5.657371E+03	1.771763E-02	3.641997E-04
5.667331E+03	1.763976E-02	3.621012E-04
5.677291E+03	1.757517E-02	3.603007E-04
5.687251E+03	1.752445E-02	3.588085E-04
5.697211E+03	1.748791E-02	3.576293E-04
5.707171E+03	1.746561E-02	3.567623E-04
5.717131E+03	1.745750E-02	3.562053E-04
5.727092E+03	1.746274E-02	3.559398E-04
5.737052E+03	1.748096E-02	3.559566E-04
5.747012E+03	1.751117E-02	3.562346E-04
5.756972E+03	1.755181E-02	3.567415E-04
5.766932E+03	1.760186E-02	3.574552E-04
5.776892E+03	1.765957E-02	3.583397E-04
5.786853E+03	1.772342E-02	3.593637E-04
5.796813E+03	1.779146E-02	3.604870E-04
5.806773E+03	1.786165E-02	3.616683E-04
5.816733E+03	1.793250E-02	3.628770E-04
5.826693E+03	1.800201E-02	3.640726E-04
5.836653E+03	1.806843E-02	3.652197E-04
5.846614E+03	1.813015E-02	3.662857E-04
5.856574E+03	1.818569E-02	3.672411E-04
5.866534E+03	1.823362E-02	3.680568E-04
5.876494E+03	1.827309E-02	3.687156E-04
5.886454E+03	1.830311E-02	3.691980E-04
5.896414E+03	1.832336E-02	3.694975E-04
5.906375E+03	1.833322E-02	3.696017E-04
5.916335E+03	1.833309E-02	3.695187E-04
5.926295E+03	1.832288E-02	3.692468E-04
5.936255E+03	1.830333E-02	3.688006E-04
5.946215E+03	1.827483E-02	3.681883E-04
5.956175E+03	1.823872E-02	3.674366E-04
5.966135E+03	1.819595E-02	3.665647E-04
5.976096E+03	1.814780E-02	3.655981E-04
5.986056E+03	1.809546E-02	3.645607E-04
5.996016E+03	1.804036E-02	3.634815E-04
6.005976E+03	1.798417E-02	3.623935E-04
6.015936E+03	1.792797E-02	3.613189E-04
6.025896E+03	1.787338E-02	3.602902E-04
6.035857E+03	1.782176E-02	3.593346E-04
6.045817E+03	1.777419E-02	3.584739E-04
6.055777E+03	1.773199E-02	3.577351E-04
6.065737E+03	1.769616E-02	3.571381E-04
6.075697E+03	1.766733E-02	3.566961E-04
6.085657E+03	1.764632E-02	3.564260E-04
6.095618E+03	1.763355E-02	3.563365E-04
6.105578E+03	1.762906E-02	3.564285E-04
6.115538E+03	1.763317E-02	3.567095E-04
6.125498E+03	1.764545E-02	3.571706E-04
6.135458E+03	1.766574E-02	3.578099E-04
6.145418E+03	1.769276E-02	3.586015E-04
6.155378E+03	1.772627E-02	3.595412E-04
6.165339E+03	1.776454E-02	3.605942E-04
6.175299E+03	1.780660E-02	3.617408E-04
6.185259E+03	1.785073E-02	3.629469E-04
6.195219E+03	1.789554E-02	3.641838E-04
6.205179E+03	1.793899E-02	3.654104E-04
6.215139E+03	1.797944E-02	3.665931E-04
6.225100E+03	1.801553E-02	3.677045E-04
6.235060E+03	1.804574E-02	3.687127E-04
6.245020E+03	1.806885E-02	3.695929E-04
6.254980E+03	1.808378E-02	3.703226E-04
6.264940E+03	1.808935E-02	3.708770E-04
6.274900E+03	1.808487E-02	3.712411E-04
6.284861E+03	1.806911E-02	3.713892E-04
6.294821E+03	1.804171E-02	3.713128E-04
6.304781E+03	1.800178E-02	3.709927E-04
6.314741E+03	1.794849E-02	3.704106E-04
6.324701E+03	1.788169E-02	3.695622E-04
6.334661E+03	1.780032E-02	3.684242E-04
6.344622E+03	1.770459E-02	3.669996E-04
6.354582E+03	1.759367E-02	3.652693E-04
6.364542E+03	1.746779E-02	3.632366E-04
6.374502E+03	1.732679E-02	3.608948E-04
6.384462E+03	1.717099E-02	3.582486E-04
6.394422E+03	1.700053E-02	3.552980E-04
6.404382E+03	1.681609E-02	3.520544E-04
6.414343E+03	1.661853E-02	3.485331E-04
6.424303E+03	1.640886E-02	3.447530E-04
6.434263E+03	1.618844E-02	3.407403E-04
6.444223E+03	1.595840E-02	3.365162E-04
6.454183E+03	1.572051E-02	3.321162E-04
6.464143E+03	1.547572E-02	3.275582E-04
6.474104E+03	1.522537E-02	3.228690E-04
6.484064E+03	1.497062E-02	3.180717E-04
6.494024E+03	1.471276E-02	3.131923E-04
6.503984E+03	1.445292E-02	3.082535E-04
6.513944E+03	1.419206E-02	3.032751E-04
6.523904E+03	1.393045E-02	2.982616E-04
6.533865E+03	1.366838E-02	2.932188E-04
6.543825E+03	1.340662E-02	2.881626E-04
6.553785E+03	1.314501E-02	2.830887E-04
6.563745E+03	1.288438E-02	2.780148E-04
6.573705E+03	1.262505E-02	2.729472E-04
6.583665E+03	1.236756E-02	2.678973E-04
6.593625E+03	1.211282E-02	2.628851E-04
6.603586E+03	1.186125E-02	2.579192E-04
6.613546E+03	1.161402E-02	2.530255E-04
6.623506E+03	1.137164E-02	2.482151E-04
6.633466E+03	1.113517E-02	2.435119E-04
6.643426E+03	1.090526E-02	2.389307E-04
6.653386E+03	1.068281E-02	2.344916E-04
6.663347E+03	1.046852E-02	2.302109E-04
6.673307E+03	1.026303E-02	2.261037E-04
6.683267E+03	1.006692E-02	2.221834E-04
6.693227E+03	9.880663E-03	2.184620E-04
6.703187E+03	9.704908E-03	2.149547E-04
6.713147E+03	9.539581E-03	2.116612E-04
6.723108E+03	9.385260E-03	2.085955E-04
6.733068E+03	9.241941E-03	2.057588E-04
6.743028E+03	9.109540E-03	2.031503E-04
6.752988E+03	8.988246E-03	2.007756E-04
6.762948E+03	8.877819E-03	1.986306E-04
6.772908E+03	8.778074E-03	1.967122E-04
6.782869E+03	8.688887E-03	1.950189E-04
6.792829E+03	8.609843E-03	1.935423E-04
6.802789E+03	8.540612E-03	1.922762E-04
6.812749E+03	8.480925E-03	1.912155E-04
6.822709E+03	8.430389E-03	1.903522E-04
6.832669E+03	8.388464E-03	1.896749E-04
6.842629E+03	8.354825E-03	1.891773E-04
6.852590E+03	8.328910E-03	1.888472E-04
6.862550E+03	8.310376E-03	1.886775E-04
6.872510E+03	8.298658E-03	1.886560E-04
6.882470E+03	8.293526E-03	1.887781E-04
6.892430E+03	8.294213E-03	1.890267E-04
6.902390E+03	8.300618E-03	1.894001E-04
6.912351E+03	8.312108E-03	1.898840E-04
6.922311E+03	8.328398E-03	1.904724E-04
6.932271E+03	8.349007E-03	1.911545E-04
6.942231E+03	8.373690E-03	1.919250E-04
6.952191E+03	8.402013E-03	1.927741E-04
6.962151E+03	8.433778E-03	1.936974E-04
6.972112E+03	8.468598E-03	1.946863E-04
6.982072E+03	8.506332E-03	1.957376E-04
6.992032E+03	8.546629E-03	1.968433E-04
7.001992E+03	8.589395E-03	1.980014E-04
7.011952E+03	8.634316E-03	1.992046E-04
7.021912E+03	8.681216E-03	2.004490E-04
7.031873E+03	8.729932E-03	2.017309E-04
7.041833E+03	8.780305E-03	2.030465E-04
7.051793E+03	8.832183E-03	2.043925E-04
7.061753E+03	8.885429E-03	2.057657E-04
7.071713E+03	8.939894E-03	2.071625E-04
7.081673E+03	8.995426E-03	2.085796E-04
7.091633E+03	9.051878E-03	2.100135E-04
7.101594E+03	9.108951E-03	2.114573E-04
7.111554E+03	9.166468E-03	2.129070E-04
7.121514E+03	9.224380E-03	2.143613E-04
7.131474E+03	9.282347E-03	2.158124E-04
7.141434E+03	9.340155E-03	2.172553E-04
7.151394E+03	9.397580E-03	2.186849E-04
7.161355E+03	9.454369E-03	2.200952E-04
7.171315E+03	9.510142E-03	2.214775E-04
7.181275E+03	9.564758E-03	2.228286E-04
7.191235E+03	9.617809E-03	2.241389E-04
7.201195E+03	9.669015E-03	2.254020E-04
7.211155E+03	9.718086E-03	2.266112E-04
7.221116E+03	9.764743E-03	2.277601E-04
7.231076E+03	9.808701E-03	2.288421E-04
7.241036E+03	9.849404E-03	2.298444E-04
7.250996E+03	9.886881E-03	2.307678E-04
7.260956E+03	9.920595E-03	2.315998E-04
7.270916E+03	9.950470E-03	2.323389E-04
7.280876E+03	9.976319E-03	2.329809E-04
7.290837E+03	9.997676E-03	2.335150E-04
7.300797E+03	1.001457E-02	2.339423E-04
7.310757E+03	1.002678E-02	2.342575E-04
7.320717E+03	1.003427E-02	2.344603E-04
7.330677E+03	1.003706E-02	2.345515E-04
7.340637E+03	1.003510E-02	2.345299E-04
7.350598E+03	1.002869E-02	2.344029E-04
7.360558E+03	1.001775E-02	2.341689E-04
7.370518E+03	1.000271E-02	2.338387E-04
7.380478E+03	9.983659E-03	2.334139E-04
7.390438E+03	9.961317E-03	2.329123E-04
7.400398E+03	9.936046E-03	2.323424E-04
7.410359E+03	9.908421E-03	2.317181E-04
7.420319E+03	9.879068E-03	2.310544E-04
7.430279E+03	9.848824E-03	2.303711E-04
7.440239E+03	9.818106E-03	2.296784E-04
7.450199E+03	9.787972E-03	2.290015E-04
7.460159E+03	9.759045E-03	2.283552E-04
7.470120E+03	9.732246E-03	2.277615E-04
7.480080E+03	9.708499E-03	2.272425E-04
7.490040E+03	9.688404E-03	2.268126E-04
7.500000E+03	9.672828E-03	2.264925E-04
7.509960E+03	9.662450E-03	2.262986E-04
7.519920E+03	9.658040E-03	2.262495E-04
7.529880E+03	9.660002E-03	2.263551E-04
7.539841E+03	9.668972E-03	2.266309E-04
7.549801E+03	9.685347E-03	2.270868E-04
7.559761E+03	9.709428E-03	2.277305E-04
7.569721E+03	9.741403E-03	2.285671E-04
7.579681E+03	9.781501E-03	2.296026E-04
7.589641E+03	9.829663E-03	2.308363E-04
7.599602E+03	9.885678E-03	2.322637E-04
7.609562E+03	9.948986E-03	2.338725E-04
7.619522E+03	1.001925E-02	2.356553E-04
7.629482E+03	1.009530E-02	2.375855E-04
7.639442E+03	1.017647E-02	2.396481E-04
7.649402E+03	1.026151E-02	2.418142E-04
7.659363E+03	1.034939E-02	2.440606E-04
7.669323E+03	1.043857E-02	2.463513E-04
7.679283E+03	1.052829E-02	2.486694E-04
7.689243E+03	1.061681E-02	2.509742E-04
7.699203E+03	1.070325E-02	2.532455E-04
7.709163E+03	1.078612E-02	2.554482E-04
7.719124E+03	1.086465E-02	2.575650E-04
7.729084E+03	1.093786E-02	2.595724E-04
