#wls	flux	fluxerr
1.593625E+03	4.846564E-04	3.340660E-05
1.633466E+03	4.619014E-04	3.177129E-05
1.673307E+03	4.408707E-04	3.025989E-05
1.713147E+03	4.214904E-04	2.886675E-05
1.752988E+03	4.039311E-04	2.760291E-05
1.792829E+03	3.880305E-04	2.645660E-05
1.832669E+03	3.739410E-04	2.543754E-05
1.872510E+03	3.616544E-04	2.454442E-05
1.912351E+03	3.510998E-04	2.377168E-05
1.952191E+03	3.423566E-04	2.312392E-05
1.992032E+03	3.355116E-04	2.260617E-05
2.031873E+03	3.306051E-04	2.222024E-05
2.071713E+03	3.276587E-04	2.196666E-05
2.111554E+03	3.269653E-04	2.186404E-05
2.151394E+03	3.287433E-04	2.192582E-05
2.191235E+03	3.333557E-04	2.217482E-05
2.231076E+03	3.412581E-04	2.263977E-05
2.270916E+03	3.528129E-04	2.334287E-05
2.310757E+03	3.681918E-04	2.429338E-05
2.350598E+03	3.876241E-04	2.550423E-05
2.390438E+03	4.111162E-04	2.697341E-05
2.430279E+03	4.384330E-04	2.868307E-05
2.470120E+03	4.696151E-04	3.063346E-05
2.509960E+03	5.042015E-04	3.279210E-05
2.549801E+03	5.418415E-04	3.513395E-05
2.589641E+03	5.819900E-04	3.762162E-05
2.629482E+03	6.241403E-04	4.022058E-05
2.669323E+03	6.677231E-04	4.289259E-05
2.709163E+03	7.123614E-04	4.561221E-05
2.749004E+03	7.575509E-04	4.834610E-05
2.788845E+03	8.032355E-04	5.108987E-05
2.828685E+03	8.493780E-04	5.384031E-05
2.868526E+03	8.959423E-04	5.659433E-05
2.908367E+03	9.432820E-04	5.937338E-05
2.948207E+03	9.918971E-04	6.220773E-05
2.988048E+03	1.042283E-03	6.512687E-05
2.998008E+03	1.055266E-03	6.587658E-05
3.007968E+03	1.068407E-03	6.663434E-05
3.017928E+03	1.081857E-03	6.740965E-05
3.027888E+03	1.095339E-03	6.818506E-05
3.037849E+03	1.109152E-03	6.897917E-05
3.047809E+03	1.123160E-03	6.978354E-05
3.057769E+03	1.137521E-03	7.060790E-05
3.067729E+03	1.152099E-03	7.144377E-05
3.077689E+03	1.166906E-03	7.229175E-05
3.087649E+03	1.182101E-03	7.316174E-05
3.097610E+03	1.197699E-03	7.405452E-05
3.107570E+03	1.213562E-03	7.496147E-05
3.117530E+03	1.229854E-03	7.589269E-05
3.127490E+03	1.246437E-03	7.683950E-05
3.137450E+03	1.263629E-03	7.782157E-05
3.147410E+03	1.281140E-03	7.882079E-05
3.157371E+03	1.299136E-03	7.984742E-05
3.167331E+03	1.317635E-03	8.090231E-05
3.177291E+03	1.336808E-03	8.199593E-05
3.187251E+03	1.356357E-03	8.310991E-05
3.197211E+03	1.376614E-03	8.426441E-05
3.207171E+03	1.397437E-03	8.545065E-05
3.217131E+03	1.418843E-03	8.666951E-05
3.227092E+03	1.441009E-03	8.793170E-05
3.237052E+03	1.463792E-03	8.922831E-05
3.247012E+03	1.487371E-03	9.057015E-05
3.256972E+03	1.511765E-03	9.195816E-05
3.266932E+03	1.536829E-03	9.338335E-05
3.276892E+03	1.562909E-03	9.486663E-05
3.286853E+03	1.589694E-03	9.638888E-05
3.296813E+03	1.617368E-03	9.796106E-05
3.306773E+03	1.646116E-03	9.959423E-05
3.316733E+03	1.675789E-03	1.012791E-04
3.326693E+03	1.706405E-03	1.030166E-04
3.336653E+03	1.738149E-03	1.048177E-04
3.346614E+03	1.771040E-03	1.066832E-04
3.356574E+03	1.804921E-03	1.086035E-04
3.366534E+03	1.839976E-03	1.105893E-04
3.376494E+03	1.876217E-03	1.126412E-04
3.386454E+03	1.913652E-03	1.147595E-04
3.396414E+03	1.952286E-03	1.169440E-04
3.406375E+03	1.992298E-03	1.192052E-04
3.416335E+03	2.033503E-03	1.215318E-04
3.426295E+03	2.075887E-03	1.239226E-04
3.436255E+03	2.119793E-03	1.263980E-04
3.446215E+03	2.164826E-03	1.289338E-04
3.456175E+03	2.211123E-03	1.315382E-04
3.466135E+03	2.258816E-03	1.342186E-04
3.476096E+03	2.307648E-03	1.369594E-04
3.486056E+03	2.357529E-03	1.397550E-04
3.496016E+03	2.408351E-03	1.425989E-04
3.505976E+03	2.460374E-03	1.455060E-04
3.515936E+03	2.513076E-03	1.484454E-04
3.525896E+03	2.566490E-03	1.514188E-04
3.535857E+03	2.620634E-03	1.544270E-04
3.545817E+03	2.675131E-03	1.574477E-04
3.555777E+03	2.729779E-03	1.604689E-04
3.565737E+03	2.784563E-03	1.634897E-04
3.575697E+03	2.839268E-03	1.664973E-04
3.585657E+03	2.893681E-03	1.694793E-04
3.595618E+03	2.947587E-03	1.724232E-04
3.605578E+03	3.000982E-03	1.753288E-04
3.615538E+03	3.053478E-03	1.781735E-04
3.625498E+03	3.104919E-03	1.809483E-04
3.635458E+03	3.155563E-03	1.836686E-04
3.645418E+03	3.204933E-03	1.863068E-04
3.655378E+03	3.253196E-03	1.888727E-04
3.665339E+03	3.300576E-03	1.913797E-04
3.675299E+03	3.347176E-03	1.938337E-04
3.685259E+03	3.392987E-03	1.962346E-04
3.695219E+03	3.438471E-03	1.986091E-04
3.705179E+03	3.483993E-03	2.009782E-04
3.715139E+03	3.529988E-03	2.033671E-04
3.725100E+03	3.576980E-03	2.058058E-04
3.735060E+03	3.625739E-03	2.083382E-04
3.745020E+03	3.676890E-03	2.109999E-04
3.754980E+03	3.730898E-03	2.138168E-04
3.764940E+03	3.788787E-03	2.168470E-04
3.774900E+03	3.850810E-03	2.201040E-04
3.784861E+03	3.917902E-03	2.236402E-04
3.794821E+03	3.990366E-03	2.274716E-04
3.804781E+03	4.068754E-03	2.316285E-04
3.814741E+03	4.153298E-03	2.361226E-04
3.824701E+03	4.243883E-03	2.409459E-04
3.834661E+03	4.340570E-03	2.461006E-04
3.844622E+03	4.443216E-03	2.515770E-04
3.854582E+03	4.551093E-03	2.573326E-04
3.864542E+03	4.663424E-03	2.633222E-04
3.874502E+03	4.779211E-03	2.694884E-04
3.884462E+03	4.897414E-03	2.757720E-04
3.894422E+03	5.016438E-03	2.820824E-04
3.904382E+03	5.135076E-03	2.883519E-04
3.914343E+03	5.251266E-03	2.944648E-04
3.924303E+03	5.363247E-03	3.003230E-04
3.934263E+03	5.469641E-03	3.058504E-04
3.944223E+03	5.568387E-03	3.109332E-04
3.954183E+03	5.658133E-03	3.154980E-04
3.964143E+03	5.737543E-03	3.194723E-04
3.974104E+03	5.805555E-03	3.227995E-04
3.984064E+03	5.861408E-03	3.254402E-04
3.994024E+03	5.904685E-03	3.273741E-04
4.003984E+03	5.935144E-03	3.285908E-04
4.013944E+03	5.953225E-03	3.291176E-04
4.023904E+03	5.959336E-03	3.289802E-04
4.033865E+03	5.954497E-03	3.282376E-04
4.043825E+03	5.939603E-03	3.269417E-04
4.053785E+03	5.915877E-03	3.251622E-04
4.063745E+03	5.884644E-03	3.229741E-04
4.073705E+03	5.847282E-03	3.204545E-04
4.083665E+03	5.804996E-03	3.176710E-04
4.093625E+03	5.759112E-03	3.146973E-04
4.103586E+03	5.710856E-03	3.116012E-04
4.113546E+03	5.661346E-03	3.084441E-04
4.123506E+03	5.611290E-03	3.052650E-04
4.133466E+03	5.561792E-03	3.021239E-04
4.143426E+03	5.513141E-03	2.990366E-04
4.153386E+03	5.466124E-03	2.960454E-04
4.163347E+03	5.420878E-03	2.931573E-04
4.173307E+03	5.377543E-03	2.903796E-04
4.183267E+03	5.336375E-03	2.877255E-04
4.193227E+03	5.297178E-03	2.851841E-04
4.203187E+03	5.259916E-03	2.827531E-04
4.213147E+03	5.224487E-03	2.804264E-04
4.223108E+03	5.190553E-03	2.781855E-04
4.233068E+03	5.157874E-03	2.760174E-04
4.243028E+03	5.126424E-03	2.739202E-04
4.252988E+03	5.095920E-03	2.718786E-04
4.262948E+03	5.066233E-03	2.698857E-04
4.272908E+03	5.037319E-03	2.679389E-04
4.282869E+03	5.009317E-03	2.660452E-04
4.292829E+03	4.982379E-03	2.642129E-04
4.302789E+03	4.956684E-03	2.624508E-04
4.312749E+03	4.932631E-03	2.607801E-04
4.322709E+03	4.910896E-03	2.592359E-04
4.332669E+03	4.891934E-03	2.578418E-04
4.342629E+03	4.876556E-03	2.566396E-04
4.352590E+03	4.865490E-03	2.556670E-04
4.362550E+03	4.859690E-03	2.549728E-04
4.372510E+03	4.860065E-03	2.546036E-04
4.382470E+03	4.867454E-03	2.546018E-04
4.392430E+03	4.882674E-03	2.550083E-04
4.402390E+03	4.906706E-03	2.558725E-04
4.412351E+03	4.940145E-03	2.572233E-04
4.422311E+03	4.983684E-03	2.590945E-04
4.432271E+03	5.037714E-03	2.615041E-04
4.442231E+03	5.102588E-03	2.644680E-04
4.452191E+03	5.178453E-03	2.679911E-04
4.462151E+03	5.265273E-03	2.720692E-04
4.472112E+03	5.362536E-03	2.766733E-04
4.482072E+03	5.469715E-03	2.817739E-04
4.492032E+03	5.585762E-03	2.873147E-04
4.501992E+03	5.709445E-03	2.932307E-04
4.511952E+03	5.839051E-03	2.994322E-04
4.521912E+03	5.972716E-03	3.058226E-04
4.531873E+03	6.108212E-03	3.122871E-04
4.541833E+03	6.243004E-03	3.186961E-04
4.551793E+03	6.374644E-03	3.249249E-04
4.561753E+03	6.500375E-03	3.308343E-04
4.571713E+03	6.617661E-03	3.362967E-04
4.581673E+03	6.724031E-03	3.411891E-04
4.591633E+03	6.817485E-03	3.454125E-04
4.601594E+03	6.896042E-03	3.488699E-04
4.611554E+03	6.958564E-03	3.515073E-04
4.621514E+03	7.004352E-03	3.532932E-04
4.631474E+03	7.033100E-03	3.542160E-04
4.641434E+03	7.045412E-03	3.543100E-04
4.651394E+03	7.041968E-03	3.536132E-04
4.661355E+03	7.024341E-03	3.522080E-04
4.671315E+03	6.994204E-03	3.501814E-04
4.681275E+03	6.953477E-03	3.476321E-04
4.691235E+03	6.904409E-03	3.446747E-04
4.701195E+03	6.849201E-03	3.414208E-04
4.711155E+03	6.789846E-03	3.379710E-04
4.721116E+03	6.728543E-03	3.344355E-04
4.731076E+03	6.667052E-03	3.309020E-04
4.741036E+03	6.606906E-03	3.274465E-04
4.750996E+03	6.549456E-03	3.241356E-04
4.760956E+03	6.495705E-03	3.210183E-04
4.770916E+03	6.446379E-03	3.181297E-04
4.780876E+03	6.402081E-03	3.154985E-04
4.790837E+03	6.362859E-03	3.131260E-04
4.800797E+03	6.328742E-03	3.110126E-04
4.810757E+03	6.299393E-03	3.091408E-04
4.820717E+03	6.274512E-03	3.074949E-04
4.830677E+03	6.253321E-03	3.060360E-04
4.840637E+03	6.235135E-03	3.047297E-04
4.850598E+03	6.219000E-03	3.035289E-04
4.860558E+03	6.204105E-03	3.023936E-04
4.870518E+03	6.189289E-03	3.012670E-04
4.880478E+03	6.173679E-03	3.001066E-04
4.890438E+03	6.156131E-03	2.988571E-04
4.900398E+03	6.135858E-03	2.974806E-04
4.910359E+03	6.111978E-03	2.959348E-04
4.920319E+03	6.083905E-03	2.941922E-04
4.930279E+03	6.051107E-03	2.922277E-04
4.940239E+03	6.013423E-03	2.900345E-04
4.950199E+03	5.970797E-03	2.876106E-04
4.960159E+03	5.923637E-03	2.849765E-04
4.970120E+03	5.872329E-03	2.821517E-04
4.980080E+03	5.817683E-03	2.791756E-04
4.990040E+03	5.760712E-03	2.760972E-04
5.000000E+03	5.702440E-03	2.729660E-04
5.009960E+03	5.644069E-03	2.698396E-04
5.019920E+03	5.586862E-03	2.667782E-04
5.029880E+03	5.532156E-03	2.638452E-04
5.039841E+03	5.481198E-03	2.610997E-04
5.049801E+03	5.435125E-03	2.585950E-04
5.059761E+03	5.395098E-03	2.563852E-04
5.069721E+03	5.362064E-03	2.545145E-04
5.079681E+03	5.336975E-03	2.530265E-04
5.089641E+03	5.320599E-03	2.519564E-04
5.099602E+03	5.313575E-03	2.513329E-04
5.109562E+03	5.316432E-03	2.511794E-04
5.119522E+03	5.329504E-03	2.515102E-04
5.129482E+03	5.353127E-03	2.523394E-04
5.139442E+03	5.387515E-03	2.536755E-04
5.149402E+03	5.432591E-03	2.555132E-04
5.159363E+03	5.488336E-03	2.578499E-04
5.169323E+03	5.554501E-03	2.606725E-04
5.179283E+03	5.630905E-03	2.639710E-04
5.189243E+03	5.717087E-03	2.677223E-04
5.199203E+03	5.812479E-03	2.718984E-04
5.209163E+03	5.916614E-03	2.764764E-04
5.219124E+03	6.028706E-03	2.814185E-04
5.229084E+03	6.148091E-03	2.866926E-04
5.239044E+03	6.274000E-03	2.922620E-04
5.249004E+03	6.405647E-03	2.980895E-04
5.258964E+03	6.542176E-03	3.041347E-04
5.268924E+03	6.682883E-03	3.103644E-04
5.278884E+03	6.827034E-03	3.167441E-04
5.288845E+03	6.973942E-03	3.232419E-04
5.298805E+03	7.122914E-03	3.298254E-04
5.308765E+03	7.273385E-03	3.364686E-04
5.318725E+03	7.424925E-03	3.431516E-04
5.328685E+03	7.577068E-03	3.498530E-04
5.338645E+03	7.729224E-03	3.565459E-04
5.348606E+03	7.881103E-03	3.632170E-04
5.358566E+03	8.032222E-03	3.698446E-04
5.368526E+03	8.181861E-03	3.763957E-04
5.378486E+03	8.329505E-03	3.828473E-04
5.388446E+03	8.474151E-03	3.891538E-04
5.398406E+03	8.614951E-03	3.952770E-04
5.408367E+03	8.750584E-03	4.011569E-04
5.418327E+03	8.879504E-03	4.067238E-04
5.428287E+03	9.000225E-03	4.119106E-04
5.438247E+03	9.110735E-03	4.166264E-04
5.448207E+03	9.209180E-03	4.207880E-04
5.458167E+03	9.293601E-03	4.243075E-04
5.468127E+03	9.362025E-03	4.270964E-04
5.478088E+03	9.412839E-03	4.290831E-04
5.488048E+03	9.444523E-03	4.302002E-04
5.498008E+03	9.456035E-03	4.304025E-04
5.507968E+03	9.446778E-03	4.296646E-04
5.517928E+03	9.416786E-03	4.279904E-04
5.527888E+03	9.366539E-03	4.254034E-04
5.537849E+03	9.296998E-03	4.219492E-04
5.547809E+03	9.209755E-03	4.177018E-04
5.557769E+03	9.107083E-03	4.127656E-04
5.567729E+03	8.991399E-03	4.072514E-04
5.577689E+03	8.865543E-03	4.012886E-04
5.587649E+03	8.732497E-03	3.950129E-04
5.597610E+03	8.595621E-03	3.885765E-04
5.607570E+03	8.458038E-03	3.821206E-04
5.617530E+03	8.322864E-03	3.757858E-04
5.627490E+03	8.193052E-03	3.697048E-04
5.637450E+03	8.071386E-03	3.640025E-04
5.647410E+03	7.960106E-03	3.587792E-04
5.657371E+03	7.861339E-03	3.541295E-04
5.667331E+03	7.776755E-03	3.501276E-04
5.677291E+03	7.707606E-03	3.468287E-04
5.687251E+03	7.654657E-03	3.442658E-04
5.697211E+03	7.618470E-03	3.424631E-04
5.707171E+03	7.598871E-03	3.414115E-04
5.717131E+03	7.595488E-03	3.410931E-04
5.727092E+03	7.607377E-03	3.414646E-04
5.737052E+03	7.633331E-03	3.424708E-04
5.747012E+03	7.671613E-03	3.440331E-04
5.756972E+03	7.720192E-03	3.460596E-04
5.766932E+03	7.776802E-03	3.484483E-04
5.776892E+03	7.838698E-03	3.510760E-04
5.786853E+03	7.903242E-03	3.538244E-04
5.796813E+03	7.967400E-03	3.565576E-04
5.806773E+03	8.028356E-03	3.591499E-04
5.816733E+03	8.083237E-03	3.614730E-04
5.826693E+03	8.129538E-03	3.634154E-04
5.836653E+03	8.164896E-03	3.648720E-04
5.846614E+03	8.187423E-03	3.657590E-04
5.856574E+03	8.195691E-03	3.660134E-04
5.866534E+03	8.188781E-03	3.655945E-04
5.876494E+03	8.166219E-03	3.644821E-04
5.886454E+03	8.128219E-03	3.626862E-04
5.896414E+03	8.075313E-03	3.602310E-04
5.906375E+03	8.008553E-03	3.571639E-04
5.916335E+03	7.929342E-03	3.535480E-04
5.926295E+03	7.839293E-03	3.494553E-04
5.936255E+03	7.740359E-03	3.449731E-04
5.946215E+03	7.634446E-03	3.401864E-04
5.956175E+03	7.523628E-03	3.351877E-04
5.966135E+03	7.409719E-03	3.300576E-04
5.976096E+03	7.294642E-03	3.248818E-04
5.986056E+03	7.180026E-03	3.197325E-04
5.996016E+03	7.067461E-03	3.146806E-04
6.005976E+03	6.958134E-03	3.097784E-04
6.015936E+03	6.853288E-03	3.050813E-04
6.025896E+03	6.753715E-03	3.006241E-04
6.035857E+03	6.660137E-03	2.964388E-04
6.045817E+03	6.573183E-03	2.925533E-04
6.055777E+03	6.493138E-03	2.889799E-04
6.065737E+03	6.420342E-03	2.857338E-04
6.075697E+03	6.354923E-03	2.828204E-04
6.085657E+03	6.297033E-03	2.802464E-04
6.095618E+03	6.246639E-03	2.780103E-04
6.105578E+03	6.203650E-03	2.761079E-04
6.115538E+03	6.168052E-03	2.745387E-04
6.125498E+03	6.139718E-03	2.732970E-04
6.135458E+03	6.118440E-03	2.723736E-04
6.145418E+03	6.104074E-03	2.717619E-04
6.155378E+03	6.096449E-03	2.714544E-04
6.165339E+03	6.095243E-03	2.714368E-04
6.175299E+03	6.100156E-03	2.716957E-04
6.185259E+03	6.110822E-03	2.722149E-04
6.195219E+03	6.126987E-03	2.729831E-04
6.205179E+03	6.148420E-03	2.739903E-04
6.215139E+03	6.174747E-03	2.752198E-04
6.225100E+03	6.205841E-03	2.766660E-04
6.235060E+03	6.241708E-03	2.783294E-04
6.245020E+03	6.282168E-03	2.802022E-04
6.254980E+03	6.327325E-03	2.822890E-04
6.264940E+03	6.377115E-03	2.845872E-04
6.274900E+03	6.431633E-03	2.871013E-04
6.284861E+03	6.490798E-03	2.898278E-04
6.294821E+03	6.554372E-03	2.927564E-04
6.304781E+03	6.622190E-03	2.958798E-04
6.314741E+03	6.693749E-03	2.991759E-04
6.324701E+03	6.768564E-03	3.026231E-04
6.334661E+03	6.845763E-03	3.061827E-04
6.344622E+03	6.924397E-03	3.098124E-04
6.354582E+03	7.003223E-03	3.134567E-04
6.364542E+03	7.080869E-03	3.170541E-04
6.374502E+03	7.155737E-03	3.205332E-04
6.384462E+03	7.225915E-03	3.238081E-04
6.394422E+03	7.289618E-03	3.267985E-04
6.404382E+03	7.344589E-03	3.294030E-04
6.414343E+03	7.388813E-03	3.315306E-04
6.424303E+03	7.420285E-03	3.330906E-04
6.434263E+03	7.436861E-03	3.339860E-04
6.444223E+03	7.436786E-03	3.341371E-04
6.454183E+03	7.418466E-03	3.334710E-04
6.464143E+03	7.380624E-03	3.319291E-04
6.474104E+03	7.322366E-03	3.294698E-04
6.484064E+03	7.243161E-03	3.260677E-04
6.494024E+03	7.142789E-03	3.217115E-04
6.503984E+03	7.021622E-03	3.164161E-04
6.513944E+03	6.880598E-03	3.102225E-04
6.523904E+03	6.721050E-03	3.031889E-04
6.533865E+03	6.544894E-03	2.954005E-04
6.543825E+03	6.354117E-03	2.869455E-04
6.553785E+03	6.151408E-03	2.779441E-04
6.563745E+03	5.939240E-03	2.685070E-04
6.573705E+03	5.720456E-03	2.587618E-04
6.583665E+03	5.497896E-03	2.488363E-04
6.593625E+03	5.274144E-03	2.388471E-04
6.603586E+03	5.051807E-03	2.289118E-04
6.613546E+03	4.833214E-03	2.191361E-04
6.623506E+03	4.620488E-03	2.096162E-04
6.633466E+03	4.415306E-03	2.004286E-04
6.643426E+03	4.219205E-03	1.916434E-04
6.653386E+03	4.033358E-03	1.833147E-04
6.663347E+03	3.858694E-03	1.754852E-04
6.673307E+03	3.695784E-03	1.681818E-04
6.683267E+03	3.545000E-03	1.614223E-04
6.693227E+03	3.406548E-03	1.552170E-04
6.703187E+03	3.280369E-03	1.495640E-04
6.713147E+03	3.166341E-03	1.444589E-04
6.723108E+03	3.064187E-03	1.398900E-04
6.733068E+03	2.973545E-03	1.358416E-04
6.743028E+03	2.893957E-03	1.322939E-04
6.752988E+03	2.825025E-03	1.292296E-04
6.762948E+03	2.766198E-03	1.266243E-04
6.772908E+03	2.717039E-03	1.244589E-04
6.782869E+03	2.677019E-03	1.227101E-04
6.792829E+03	2.645643E-03	1.213559E-04
6.802789E+03	2.622460E-03	1.203766E-04
6.812749E+03	2.606972E-03	1.197499E-04
6.822709E+03	2.598722E-03	1.194555E-04
6.832669E+03	2.597299E-03	1.194755E-04
6.842629E+03	2.602276E-03	1.197905E-04
6.852590E+03	2.613205E-03	1.203808E-04
6.862550E+03	2.629679E-03	1.212281E-04
6.872510E+03	2.651332E-03	1.223162E-04
6.882470E+03	2.677777E-03	1.236276E-04
6.892430E+03	2.708603E-03	1.251441E-04
6.902390E+03	2.743508E-03	1.268519E-04
6.912351E+03	2.782038E-03	1.287307E-04
6.922311E+03	2.823948E-03	1.307695E-04
6.932271E+03	2.868848E-03	1.329505E-04
6.942231E+03	2.916428E-03	1.352599E-04
6.952191E+03	2.966469E-03	1.376877E-04
6.962151E+03	3.018638E-03	1.402188E-04
6.972112E+03	3.072688E-03	1.428421E-04
6.982072E+03	3.128434E-03	1.455491E-04
6.992032E+03	3.185675E-03	1.483307E-04
7.001992E+03	3.244189E-03	1.511769E-04
7.011952E+03	3.303804E-03	1.540798E-04
7.021912E+03	3.364405E-03	1.570342E-04
7.031873E+03	3.425839E-03	1.600332E-04
7.041833E+03	3.487910E-03	1.630678E-04
7.051793E+03	3.550471E-03	1.661312E-04
7.061753E+03	3.613358E-03	1.692159E-04
7.071713E+03	3.676444E-03	1.723161E-04
7.081673E+03	3.739451E-03	1.754188E-04
7.091633E+03	3.802265E-03	1.785187E-04
7.101594E+03	3.864623E-03	1.816036E-04
7.111554E+03	3.926275E-03	1.846617E-04
7.121514E+03	3.986964E-03	1.876809E-04
7.131474E+03	4.046407E-03	1.906478E-04
7.141434E+03	4.104259E-03	1.935462E-04
7.151394E+03	4.160311E-03	1.963659E-04
7.161355E+03	4.214154E-03	1.990876E-04
7.171315E+03	4.265521E-03	2.016985E-04
7.181275E+03	4.314117E-03	2.041843E-04
7.191235E+03	4.359603E-03	2.065287E-04
7.201195E+03	4.401774E-03	2.087216E-04
7.211155E+03	4.440404E-03	2.107520E-04
7.221116E+03	4.475247E-03	2.126078E-04
7.231076E+03	4.506164E-03	2.142818E-04
7.241036E+03	4.533108E-03	2.157716E-04
7.250996E+03	4.556024E-03	2.170738E-04
7.260956E+03	4.574786E-03	2.181821E-04
7.270916E+03	4.589532E-03	2.191024E-04
7.280876E+03	4.600324E-03	2.198373E-04
7.290837E+03	4.607187E-03	2.203874E-04
7.300797E+03	4.610223E-03	2.207570E-04
7.310757E+03	4.609608E-03	2.209541E-04
7.320717E+03	4.605354E-03	2.209788E-04
7.330677E+03	4.597712E-03	2.208426E-04
7.340637E+03	4.586819E-03	2.205516E-04
7.350598E+03	4.572768E-03	2.201098E-04
7.360558E+03	4.555657E-03	2.195215E-04
7.370518E+03	4.535771E-03	2.187999E-04
7.380478E+03	4.513310E-03	2.179543E-04
7.390438E+03	4.488371E-03	2.169890E-04
7.400398E+03	4.461328E-03	2.159217E-04
7.410359E+03	4.432356E-03	2.147604E-04
7.420319E+03	4.401906E-03	2.135268E-04
7.430279E+03	4.370240E-03	2.122334E-04
7.440239E+03	4.337893E-03	2.109058E-04
7.450199E+03	4.305271E-03	2.095638E-04
7.460159E+03	4.272862E-03	2.082311E-04
7.470120E+03	4.241183E-03	2.069328E-04
7.480080E+03	4.210754E-03	2.056946E-04
7.490040E+03	4.182095E-03	2.045420E-04
7.500000E+03	4.155700E-03	2.034996E-04
7.509960E+03	4.131974E-03	2.025874E-04
7.519920E+03	4.111433E-03	2.018316E-04
7.529880E+03	4.094316E-03	2.012442E-04
7.539841E+03	4.080937E-03	2.008413E-04
7.549801E+03	4.071417E-03	2.006295E-04
7.559761E+03	4.065888E-03	2.006160E-04
7.569721E+03	4.064330E-03	2.008005E-04
7.579681E+03	4.066552E-03	2.011742E-04
7.589641E+03	4.072370E-03	2.017289E-04
7.599602E+03	4.081430E-03	2.024474E-04
7.609562E+03	4.093206E-03	2.033045E-04
7.619522E+03	4.107132E-03	2.042724E-04
7.629482E+03	4.122602E-03	2.053213E-04
7.639442E+03	4.138835E-03	2.064126E-04
7.649402E+03	4.155113E-03	2.075107E-04
7.659363E+03	4.170639E-03	2.085755E-04
7.669323E+03	4.184510E-03	2.095619E-04
7.679283E+03	4.196120E-03	2.104388E-04
7.689243E+03	4.204634E-03	2.111640E-04
7.699203E+03	4.209387E-03	2.117033E-04
7.709163E+03	4.209849E-03	2.120292E-04
7.719124E+03	4.205472E-03	2.121130E-04
7.729084E+03	4.195929E-03	2.119371E-04
