#wls	flux	fluxerr
1.591072E+03	7.270303E-04	6.411958E-05
1.630849E+03	7.309705E-04	6.433668E-05
1.670626E+03	7.359519E-04	6.464095E-05
1.710403E+03	7.419732E-04	6.503161E-05
1.750180E+03	7.490996E-04	6.551367E-05
1.789957E+03	7.574558E-04	6.609728E-05
1.829733E+03	7.669082E-04	6.676996E-05
1.869510E+03	7.776424E-04	6.754703E-05
1.909287E+03	7.896546E-04	6.842722E-05
1.949064E+03	8.029469E-04	6.940977E-05
1.988841E+03	8.174715E-04	7.048953E-05
2.028617E+03	8.332495E-04	7.166733E-05
2.068394E+03	8.502017E-04	7.293534E-05
2.108171E+03	8.681643E-04	7.427853E-05
2.147948E+03	8.871530E-04	7.569730E-05
2.187725E+03	9.069974E-04	7.717620E-05
2.227501E+03	9.276052E-04	7.870653E-05
2.267278E+03	9.490066E-04	8.029003E-05
2.307055E+03	9.713430E-04	8.193779E-05
2.346832E+03	9.949068E-04	8.367342E-05
2.386609E+03	1.020039E-03	8.552435E-05
2.426386E+03	1.047086E-03	8.751794E-05
2.466162E+03	1.076536E-03	8.969304E-05
2.505939E+03	1.108749E-03	9.207748E-05
2.545716E+03	1.144197E-03	9.470758E-05
2.585493E+03	1.183239E-03	9.761008E-05
2.625270E+03	1.226317E-03	1.008177E-04
2.665046E+03	1.273820E-03	1.043588E-04
2.704823E+03	1.326189E-03	1.082649E-04
2.744600E+03	1.383918E-03	1.125715E-04
2.784377E+03	1.447520E-03	1.173151E-04
2.824154E+03	1.517574E-03	1.225366E-04
2.863930E+03	1.594820E-03	1.282893E-04
2.903707E+03	1.679997E-03	1.346253E-04
2.943484E+03	1.774148E-03	1.416200E-04
2.983261E+03	1.878293E-03	1.493455E-04
2.993205E+03	1.906085E-03	1.514054E-04
3.003149E+03	1.934572E-03	1.535157E-04
3.013094E+03	1.963770E-03	1.556775E-04
3.023038E+03	1.993784E-03	1.578991E-04
3.032982E+03	2.024588E-03	1.601781E-04
3.042926E+03	2.056200E-03	1.625158E-04
3.052870E+03	2.088685E-03	1.649171E-04
3.062815E+03	2.122016E-03	1.673796E-04
3.072759E+03	2.156214E-03	1.699048E-04
3.082703E+03	2.191389E-03	1.725011E-04
3.092647E+03	2.227473E-03	1.751630E-04
3.102591E+03	2.264532E-03	1.778954E-04
3.112536E+03	2.302544E-03	1.806963E-04
3.122480E+03	2.341668E-03	1.835780E-04
3.132424E+03	2.381792E-03	1.865314E-04
3.142368E+03	2.422985E-03	1.895617E-04
3.152312E+03	2.465319E-03	1.926743E-04
3.162257E+03	2.508822E-03	1.958710E-04
3.172201E+03	2.553424E-03	1.991461E-04
3.182145E+03	2.599296E-03	2.025126E-04
3.192089E+03	2.646371E-03	2.059651E-04
3.202033E+03	2.694727E-03	2.095091E-04
3.211978E+03	2.744343E-03	2.131431E-04
3.221922E+03	2.795302E-03	2.168728E-04
3.231866E+03	2.847633E-03	2.207003E-04
3.241810E+03	2.901371E-03	2.246280E-04
3.251754E+03	2.956500E-03	2.286543E-04
3.261699E+03	3.013104E-03	2.327853E-04
3.271643E+03	3.071220E-03	2.370236E-04
3.281587E+03	3.130836E-03	2.413677E-04
3.291531E+03	3.192040E-03	2.458243E-04
3.301475E+03	3.254823E-03	2.503921E-04
3.311420E+03	3.319278E-03	2.550779E-04
3.321364E+03	3.385398E-03	2.598808E-04
3.331308E+03	3.453228E-03	2.648039E-04
3.341252E+03	3.522816E-03	2.698504E-04
3.351196E+03	3.594212E-03	2.750237E-04
3.361141E+03	3.667472E-03	2.803276E-04
3.371085E+03	3.742594E-03	2.857617E-04
3.381029E+03	3.819695E-03	2.913342E-04
3.390973E+03	3.898725E-03	2.970411E-04
3.400917E+03	3.979863E-03	3.028954E-04
3.410862E+03	4.063067E-03	3.088934E-04
3.420806E+03	4.148413E-03	3.150405E-04
3.430750E+03	4.235979E-03	3.213420E-04
3.440694E+03	4.325794E-03	3.277996E-04
3.450638E+03	4.418007E-03	3.344242E-04
3.460583E+03	4.512660E-03	3.412182E-04
3.470527E+03	4.609793E-03	3.481842E-04
3.480471E+03	4.709525E-03	3.553306E-04
3.490415E+03	4.811906E-03	3.626606E-04
3.500359E+03	4.917132E-03	3.701882E-04
3.510304E+03	5.025151E-03	3.779089E-04
3.520248E+03	5.136166E-03	3.858375E-04
3.530192E+03	5.250266E-03	3.939798E-04
3.540136E+03	5.367613E-03	4.023473E-04
3.550080E+03	5.488238E-03	4.109416E-04
3.560025E+03	5.612242E-03	4.197695E-04
3.569969E+03	5.739861E-03	4.288480E-04
3.579913E+03	5.871054E-03	4.381730E-04
3.589857E+03	6.006043E-03	4.477605E-04
3.599802E+03	6.144890E-03	4.576143E-04
3.609746E+03	6.287569E-03	4.677314E-04
3.619690E+03	6.434067E-03	4.781101E-04
3.629634E+03	6.584414E-03	4.887519E-04
3.639578E+03	6.738447E-03	4.996438E-04
3.649523E+03	6.896174E-03	5.107857E-04
3.659467E+03	7.057269E-03	5.221527E-04
3.669411E+03	7.221582E-03	5.337330E-04
3.679355E+03	7.388861E-03	5.455073E-04
3.689299E+03	7.558887E-03	5.574589E-04
3.699244E+03	7.731260E-03	5.695579E-04
3.709188E+03	7.905703E-03	5.817832E-04
3.719132E+03	8.081828E-03	5.941061E-04
3.729076E+03	8.259306E-03	6.065021E-04
3.739020E+03	8.437693E-03	6.189384E-04
3.748965E+03	8.616600E-03	6.313864E-04
3.758909E+03	8.795527E-03	6.438096E-04
3.768853E+03	8.973954E-03	6.561700E-04
3.778797E+03	9.151596E-03	6.684470E-04
3.788741E+03	9.327697E-03	6.805858E-04
3.798686E+03	9.501854E-03	6.925576E-04
3.808630E+03	9.673630E-03	7.043309E-04
3.818574E+03	9.842314E-03	7.158550E-04
3.828518E+03	1.000736E-02	7.270908E-04
3.838462E+03	1.016830E-02	7.380055E-04
3.848407E+03	1.032459E-02	7.485608E-04
3.858351E+03	1.047568E-02	7.587176E-04
3.868295E+03	1.062093E-02	7.684316E-04
3.878239E+03	1.075992E-02	7.776731E-04
3.888183E+03	1.089214E-02	7.864077E-04
3.898128E+03	1.101713E-02	7.946032E-04
3.908072E+03	1.113446E-02	8.022304E-04
3.918016E+03	1.124375E-02	8.092639E-04
3.927960E+03	1.134476E-02	8.156892E-04
3.937904E+03	1.143724E-02	8.214891E-04
3.947849E+03	1.152087E-02	8.266432E-04
3.957793E+03	1.159573E-02	8.311587E-04
3.967737E+03	1.166165E-02	8.350262E-04
3.977681E+03	1.171873E-02	8.382555E-04
3.987625E+03	1.176708E-02	8.408550E-04
3.997570E+03	1.180674E-02	8.428303E-04
4.007514E+03	1.183814E-02	8.442144E-04
4.017458E+03	1.186148E-02	8.450225E-04
4.027402E+03	1.187721E-02	8.452895E-04
4.037346E+03	1.188576E-02	8.450467E-04
4.047291E+03	1.188757E-02	8.443278E-04
4.057235E+03	1.188317E-02	8.431706E-04
4.067179E+03	1.187318E-02	8.416224E-04
4.077123E+03	1.185809E-02	8.397174E-04
4.087067E+03	1.183848E-02	8.374986E-04
4.097012E+03	1.181517E-02	8.350251E-04
4.106956E+03	1.178859E-02	8.323268E-04
4.116900E+03	1.175944E-02	8.294558E-04
4.126844E+03	1.172838E-02	8.264574E-04
4.136788E+03	1.169601E-02	8.233753E-04
4.146733E+03	1.166297E-02	8.202539E-04
4.156677E+03	1.162985E-02	8.171355E-04
4.166621E+03	1.159724E-02	8.140622E-04
4.176565E+03	1.156573E-02	8.110742E-04
4.186509E+03	1.153589E-02	8.082111E-04
4.196454E+03	1.150825E-02	8.055109E-04
4.206398E+03	1.148323E-02	8.030017E-04
4.216342E+03	1.146134E-02	8.007187E-04
4.226286E+03	1.144316E-02	7.987015E-04
4.236231E+03	1.142911E-02	7.969797E-04
4.246175E+03	1.141942E-02	7.955682E-04
4.256119E+03	1.141458E-02	7.944994E-04
4.266063E+03	1.141491E-02	7.937961E-04
4.276007E+03	1.142072E-02	7.934782E-04
4.285952E+03	1.143226E-02	7.935622E-04
4.295896E+03	1.144964E-02	7.940542E-04
4.305840E+03	1.147319E-02	7.949770E-04
4.315784E+03	1.150280E-02	7.963214E-04
4.325728E+03	1.153867E-02	7.981011E-04
4.335673E+03	1.158076E-02	8.003109E-04
4.345617E+03	1.162903E-02	8.029475E-04
4.355561E+03	1.168324E-02	8.059943E-04
4.365505E+03	1.174320E-02	8.094359E-04
4.375449E+03	1.180847E-02	8.132429E-04
4.385394E+03	1.187876E-02	8.173931E-04
4.395338E+03	1.195345E-02	8.218432E-04
4.405282E+03	1.203178E-02	8.265417E-04
4.415226E+03	1.211316E-02	8.314462E-04
4.425170E+03	1.219664E-02	8.364925E-04
4.435115E+03	1.228133E-02	8.416185E-04
4.445059E+03	1.236637E-02	8.467650E-04
4.455003E+03	1.245050E-02	8.518466E-04
4.464947E+03	1.253278E-02	8.567986E-04
4.474891E+03	1.261212E-02	8.615478E-04
4.484836E+03	1.268733E-02	8.660134E-04
4.494780E+03	1.275737E-02	8.701244E-04
4.504724E+03	1.282123E-02	8.738141E-04
4.514668E+03	1.287800E-02	8.770208E-04
4.524612E+03	1.292685E-02	8.796893E-04
4.534557E+03	1.296696E-02	8.817650E-04
4.544501E+03	1.299764E-02	8.832029E-04
4.554445E+03	1.301873E-02	8.839932E-04
4.564389E+03	1.302974E-02	8.841046E-04
4.574333E+03	1.303049E-02	8.835254E-04
4.584278E+03	1.302120E-02	8.822737E-04
4.594222E+03	1.300218E-02	8.803700E-04
4.604166E+03	1.297349E-02	8.778213E-04
4.614110E+03	1.293613E-02	8.746956E-04
4.624054E+03	1.289033E-02	8.710100E-04
4.633999E+03	1.283722E-02	8.668414E-04
4.643943E+03	1.277762E-02	8.622471E-04
4.653887E+03	1.271245E-02	8.572889E-04
4.663831E+03	1.264265E-02	8.520319E-04
4.673775E+03	1.256923E-02	8.465434E-04
4.683720E+03	1.249341E-02	8.409064E-04
4.693664E+03	1.241605E-02	8.351793E-04
4.703608E+03	1.233810E-02	8.294253E-04
4.713552E+03	1.226058E-02	8.237138E-04
4.723496E+03	1.218409E-02	8.180847E-04
4.733441E+03	1.210978E-02	8.126149E-04
4.743385E+03	1.203801E-02	8.073276E-04
4.753329E+03	1.196965E-02	8.022810E-04
4.763273E+03	1.190525E-02	7.975124E-04
4.773217E+03	1.184506E-02	7.930372E-04
4.783162E+03	1.178961E-02	7.888903E-04
4.793106E+03	1.173935E-02	7.851012E-04
4.803050E+03	1.169431E-02	7.816707E-04
4.812994E+03	1.165479E-02	7.786196E-04
4.822938E+03	1.162093E-02	7.759552E-04
4.832883E+03	1.159268E-02	7.736746E-04
4.842827E+03	1.157008E-02	7.717784E-04
4.852771E+03	1.155321E-02	7.702729E-04
4.862715E+03	1.154192E-02	7.691459E-04
4.872660E+03	1.153622E-02	7.683988E-04
4.882604E+03	1.153579E-02	7.680081E-04
4.892548E+03	1.154060E-02	7.679736E-04
4.902492E+03	1.155055E-02	7.682860E-04
4.912436E+03	1.156538E-02	7.689281E-04
4.922381E+03	1.158507E-02	7.698991E-04
4.932325E+03	1.160939E-02	7.711821E-04
4.942269E+03	1.163833E-02	7.727764E-04
4.952213E+03	1.167165E-02	7.746660E-04
4.962157E+03	1.170924E-02	7.768431E-04
4.972102E+03	1.175085E-02	7.792907E-04
4.982046E+03	1.179659E-02	7.820161E-04
4.991990E+03	1.184608E-02	7.849932E-04
5.001934E+03	1.189913E-02	7.882102E-04
5.011878E+03	1.195568E-02	7.916618E-04
5.021823E+03	1.201535E-02	7.953238E-04
5.031767E+03	1.207789E-02	7.991782E-04
5.041711E+03	1.214295E-02	8.032028E-04
5.051655E+03	1.221018E-02	8.073736E-04
5.061599E+03	1.227903E-02	8.116548E-04
5.071544E+03	1.234904E-02	8.160155E-04
5.081488E+03	1.241983E-02	8.204315E-04
5.091432E+03	1.249062E-02	8.248501E-04
5.101376E+03	1.256108E-02	8.292501E-04
5.111320E+03	1.263022E-02	8.335669E-04
5.121265E+03	1.269769E-02	8.377769E-04
5.131209E+03	1.276273E-02	8.418297E-04
5.141153E+03	1.282470E-02	8.456845E-04
5.151097E+03	1.288298E-02	8.493004E-04
5.161041E+03	1.293683E-02	8.526285E-04
5.170986E+03	1.298568E-02	8.556316E-04
5.180930E+03	1.302885E-02	8.582657E-04
5.190874E+03	1.306613E-02	8.605163E-04
5.200818E+03	1.309668E-02	8.623296E-04
5.210762E+03	1.312028E-02	8.636911E-04
5.220707E+03	1.313666E-02	8.645830E-04
5.230651E+03	1.314563E-02	8.649935E-04
5.240595E+03	1.314682E-02	8.648988E-04
5.250539E+03	1.314038E-02	8.643083E-04
5.260483E+03	1.312627E-02	8.632205E-04
5.270428E+03	1.310469E-02	8.616490E-04
5.280372E+03	1.307582E-02	8.596049E-04
5.290316E+03	1.304018E-02	8.571229E-04
5.300260E+03	1.299798E-02	8.542177E-04
5.310204E+03	1.294978E-02	8.509255E-04
5.320149E+03	1.289605E-02	8.472777E-04
5.330093E+03	1.283759E-02	8.433264E-04
5.340037E+03	1.277468E-02	8.390907E-04
5.349981E+03	1.270813E-02	8.346237E-04
5.359925E+03	1.263849E-02	8.299614E-04
5.369870E+03	1.256627E-02	8.251373E-04
5.379814E+03	1.249168E-02	8.201658E-04
5.389758E+03	1.241518E-02	8.150754E-04
5.399702E+03	1.233718E-02	8.098933E-04
5.409646E+03	1.225758E-02	8.046136E-04
5.419591E+03	1.217679E-02	7.992619E-04
5.429535E+03	1.209484E-02	7.938411E-04
5.439479E+03	1.201204E-02	7.883712E-04
5.449423E+03	1.192934E-02	7.829133E-04
5.459367E+03	1.184718E-02	7.774976E-04
5.469312E+03	1.176655E-02	7.721872E-04
5.479256E+03	1.168816E-02	7.670305E-04
5.489200E+03	1.161315E-02	7.621001E-04
5.499144E+03	1.154203E-02	7.574305E-04
5.509089E+03	1.147569E-02	7.530799E-04
5.519033E+03	1.141477E-02	7.490899E-04
5.528977E+03	1.136024E-02	7.455244E-04
5.538921E+03	1.131259E-02	7.424146E-04
5.548865E+03	1.127247E-02	7.398039E-04
5.558810E+03	1.124037E-02	7.377241E-04
5.568754E+03	1.121694E-02	7.362177E-04
5.578698E+03	1.120238E-02	7.352985E-04
5.588642E+03	1.119705E-02	7.349893E-04
5.598586E+03	1.120117E-02	7.353052E-04
5.608531E+03	1.121476E-02	7.362472E-04
5.618475E+03	1.123780E-02	7.378142E-04
5.628419E+03	1.126992E-02	7.399822E-04
5.638363E+03	1.131086E-02	7.427337E-04
5.648307E+03	1.136020E-02	7.460421E-04
5.658252E+03	1.141729E-02	7.498649E-04
5.668196E+03	1.148135E-02	7.541499E-04
5.678140E+03	1.155146E-02	7.588385E-04
5.688084E+03	1.162686E-02	7.638791E-04
5.698028E+03	1.170616E-02	7.691821E-04
5.707973E+03	1.178842E-02	7.746852E-04
5.717917E+03	1.187235E-02	7.803043E-04
5.727861E+03	1.195653E-02	7.859453E-04
5.737805E+03	1.203974E-02	7.915282E-04
5.747749E+03	1.212076E-02	7.969739E-04
5.757694E+03	1.219817E-02	8.021882E-04
5.767638E+03	1.227073E-02	8.070889E-04
5.777582E+03	1.233752E-02	8.116168E-04
5.787526E+03	1.239722E-02	8.156838E-04
5.797470E+03	1.244901E-02	8.192363E-04
5.807415E+03	1.249209E-02	8.222208E-04
5.817359E+03	1.252577E-02	8.245932E-04
5.827303E+03	1.254970E-02	8.263283E-04
5.837247E+03	1.256324E-02	8.273839E-04
5.847191E+03	1.256644E-02	8.277641E-04
5.857136E+03	1.255912E-02	8.274554E-04
5.867080E+03	1.254134E-02	8.264624E-04
5.877024E+03	1.251332E-02	8.247978E-04
5.886968E+03	1.247537E-02	8.224828E-04
5.896912E+03	1.242807E-02	8.195548E-04
5.906857E+03	1.237167E-02	8.160292E-04
5.916801E+03	1.230677E-02	8.119460E-04
5.926745E+03	1.223421E-02	8.073593E-04
5.936689E+03	1.215472E-02	8.023177E-04
5.946633E+03	1.206883E-02	7.968554E-04
5.956578E+03	1.197766E-02	7.910457E-04
5.966522E+03	1.188166E-02	7.849182E-04
5.976466E+03	1.178214E-02	7.785593E-04
5.986410E+03	1.167958E-02	7.720007E-04
5.996354E+03	1.157490E-02	7.653019E-04
6.006299E+03	1.146912E-02	7.585310E-04
6.016243E+03	1.136297E-02	7.517360E-04
6.026187E+03	1.125729E-02	7.449727E-04
6.036131E+03	1.115261E-02	7.382752E-04
6.046075E+03	1.104995E-02	7.317114E-04
6.056020E+03	1.094958E-02	7.252995E-04
6.065964E+03	1.085239E-02	7.190989E-04
6.075908E+03	1.075880E-02	7.131370E-04
6.085852E+03	1.066916E-02	7.074366E-04
6.095796E+03	1.058386E-02	7.020246E-04
6.105741E+03	1.050335E-02	6.969310E-04
6.115685E+03	1.042774E-02	6.921635E-04
6.125629E+03	1.035720E-02	6.877336E-04
6.135573E+03	1.029210E-02	6.836653E-04
6.145518E+03	1.023219E-02	6.799435E-04
6.155462E+03	1.017757E-02	6.765752E-04
6.165406E+03	1.012828E-02	6.735626E-04
6.175350E+03	1.008430E-02	6.709055E-04
6.185294E+03	1.004531E-02	6.685820E-04
6.195239E+03	1.001106E-02	6.665772E-04
6.205183E+03	9.981401E-03	6.648805E-04
6.215127E+03	9.955894E-03	6.634630E-04
6.225071E+03	9.934318E-03	6.623103E-04
6.235015E+03	9.916312E-03	6.613987E-04
6.244960E+03	9.901638E-03	6.607123E-04
6.254904E+03	9.889929E-03	6.602270E-04
6.264848E+03	9.880829E-03	6.599190E-04
6.274792E+03	9.874135E-03	6.597751E-04
6.284736E+03	9.869675E-03	6.597839E-04
6.294681E+03	9.867019E-03	6.599167E-04
6.304625E+03	9.866052E-03	6.601659E-04
6.314569E+03	9.866660E-03	6.605241E-04
6.324513E+03	9.868495E-03	6.609679E-04
6.334457E+03	9.871623E-03	6.615019E-04
6.344402E+03	9.875867E-03	6.621144E-04
6.354346E+03	9.881030E-03	6.627920E-04
6.364290E+03	9.886945E-03	6.635237E-04
6.374234E+03	9.893712E-03	6.643161E-04
6.384178E+03	9.901004E-03	6.651475E-04
6.394123E+03	9.908922E-03	6.660245E-04
6.404067E+03	9.917279E-03	6.669346E-04
6.414011E+03	9.925868E-03	6.678639E-04
6.423955E+03	9.934626E-03	6.688081E-04
6.433899E+03	9.943337E-03	6.697526E-04
6.443844E+03	9.951932E-03	6.706928E-04
6.453788E+03	9.959880E-03	6.715928E-04
6.463732E+03	9.967257E-03	6.724575E-04
6.473676E+03	9.973836E-03	6.732717E-04
6.483620E+03	9.979244E-03	6.740099E-04
6.493565E+03	9.983433E-03	6.746687E-04
6.503509E+03	9.986202E-03	6.752344E-04
6.513453E+03	9.987383E-03	6.756955E-04
6.523397E+03	9.986822E-03	6.760413E-04
6.533341E+03	9.984550E-03	6.762735E-04
6.543286E+03	9.980317E-03	6.763751E-04
6.553230E+03	9.974052E-03	6.763411E-04
6.563174E+03	9.965896E-03	6.761805E-04
6.573118E+03	9.955845E-03	6.758930E-04
6.583062E+03	9.943785E-03	6.754705E-04
6.593007E+03	9.929948E-03	6.749286E-04
6.602951E+03	9.914279E-03	6.742631E-04
6.612895E+03	9.897255E-03	6.735065E-04
6.622839E+03	9.878707E-03	6.726468E-04
6.632783E+03	9.858825E-03	6.716969E-04
6.642728E+03	9.837990E-03	6.706825E-04
6.652672E+03	9.816437E-03	6.696196E-04
6.662616E+03	9.794230E-03	6.685123E-04
6.672560E+03	9.771624E-03	6.673779E-04
6.682504E+03	9.749037E-03	6.662449E-04
6.692449E+03	9.726539E-03	6.651182E-04
6.702393E+03	9.704547E-03	6.640262E-04
6.712337E+03	9.682941E-03	6.629608E-04
6.722281E+03	9.662281E-03	6.619603E-04
6.732225E+03	9.642416E-03	6.610145E-04
6.742170E+03	9.623863E-03	6.601590E-04
6.752114E+03	9.606431E-03	6.593807E-04
6.762058E+03	9.590421E-03	6.587004E-04
6.772002E+03	9.575924E-03	6.581248E-04
6.781946E+03	9.562847E-03	6.576474E-04
6.791891E+03	9.551401E-03	6.572830E-04
6.801835E+03	9.541430E-03	6.570211E-04
6.811779E+03	9.533096E-03	6.568731E-04
6.821723E+03	9.526003E-03	6.568117E-04
6.831668E+03	9.520447E-03	6.568578E-04
6.841612E+03	9.516152E-03	6.569923E-04
6.851556E+03	9.513010E-03	6.572080E-04
6.861500E+03	9.510705E-03	6.574833E-04
6.871444E+03	9.509445E-03	6.578325E-04
6.881389E+03	9.508519E-03	6.582068E-04
6.891333E+03	9.508290E-03	6.586313E-04
6.901277E+03	9.508202E-03	6.590675E-04
6.911221E+03	9.508056E-03	6.595016E-04
6.921165E+03	9.507828E-03	6.599322E-04
6.931110E+03	9.507128E-03	6.603319E-04
6.941054E+03	9.505742E-03	6.606860E-04
6.950998E+03	9.503468E-03	6.609803E-04
6.960942E+03	9.500098E-03	6.612002E-04
6.970886E+03	9.495433E-03	6.613318E-04
6.980831E+03	9.489099E-03	6.613487E-04
6.990775E+03	9.481286E-03	6.612639E-04
7.000719E+03	9.471264E-03	6.610265E-04
7.010663E+03	9.459433E-03	6.606640E-04
7.020607E+03	9.445084E-03	6.601266E-04
7.030552E+03	9.428458E-03	6.594308E-04
7.040496E+03	9.409258E-03	6.585555E-04
7.050440E+03	9.387371E-03	6.574925E-04
7.060384E+03	9.362898E-03	6.562483E-04
7.070328E+03	9.335387E-03	6.547910E-04
7.080273E+03	9.304967E-03	6.531291E-04
7.090217E+03	9.271394E-03	6.512452E-04
7.100161E+03	9.234825E-03	6.491496E-04
7.110105E+03	9.195238E-03	6.468405E-04
7.120049E+03	9.152428E-03	6.443029E-04
7.129994E+03	9.106582E-03	6.415496E-04
7.139938E+03	9.057343E-03	6.385548E-04
7.149882E+03	9.005109E-03	6.353462E-04
7.159826E+03	8.949722E-03	6.319121E-04
7.169770E+03	8.891058E-03	6.282432E-04
7.179715E+03	8.829359E-03	6.243560E-04
7.189659E+03	8.764704E-03	6.202558E-04
7.199603E+03	8.697005E-03	6.159358E-04
7.209547E+03	8.626370E-03	6.114031E-04
7.219491E+03	8.552929E-03	6.066663E-04
7.229436E+03	8.476820E-03	6.017349E-04
7.239380E+03	8.398198E-03	5.966195E-04
7.249324E+03	8.316898E-03	5.913077E-04
7.259268E+03	8.233455E-03	5.858371E-04
7.269212E+03	8.147906E-03	5.802101E-04
7.279157E+03	8.060307E-03	5.744301E-04
7.289101E+03	7.971071E-03	5.685263E-04
7.299045E+03	7.880110E-03	5.624921E-04
7.308989E+03	7.787701E-03	5.563468E-04
7.318933E+03	7.694123E-03	5.501101E-04
7.328878E+03	7.599494E-03	5.437902E-04
7.338822E+03	7.504275E-03	5.374199E-04
7.348766E+03	7.408279E-03	5.309856E-04
7.358710E+03	7.312126E-03	5.245314E-04
7.368654E+03	7.215791E-03	5.180557E-04
7.378599E+03	7.119726E-03	5.115907E-04
7.388543E+03	7.024055E-03	5.051453E-04
7.398487E+03	6.929050E-03	4.987391E-04
7.408431E+03	6.835117E-03	4.924014E-04
7.418375E+03	6.742347E-03	4.861389E-04
7.428320E+03	6.651395E-03	4.799989E-04
7.438264E+03	6.562178E-03	4.739758E-04
7.448208E+03	6.475164E-03	4.681036E-04
7.458152E+03	6.390374E-03	4.623841E-04
7.468097E+03	6.308370E-03	4.568586E-04
7.478041E+03	6.229137E-03	4.515262E-04
7.487985E+03	6.152787E-03	4.463956E-04
7.497929E+03	6.079547E-03	4.414838E-04
7.507873E+03	6.009495E-03	4.367968E-04
7.517818E+03	5.942958E-03	4.323590E-04
7.527762E+03	5.879725E-03	4.281554E-04
7.537706E+03	5.819957E-03	4.241985E-04
7.547650E+03	5.763807E-03	4.204999E-04
7.557594E+03	5.711142E-03	4.170504E-04
7.567539E+03	5.662075E-03	4.138591E-04
7.577483E+03	5.616431E-03	4.109137E-04
7.587427E+03	5.574386E-03	4.082278E-04
7.597371E+03	5.535582E-03	4.057756E-04
7.607315E+03	5.500127E-03	4.035658E-04
7.617260E+03	5.467592E-03	4.015675E-04
7.627204E+03	5.438027E-03	3.997849E-04
7.637148E+03	5.410979E-03	3.981851E-04
7.647092E+03	5.386467E-03	3.967701E-04
7.657036E+03	5.364142E-03	3.955147E-04
7.666981E+03	5.343777E-03	3.944023E-04
7.676925E+03	5.325159E-03	3.934178E-04
7.686869E+03	5.308073E-03	3.925455E-04
7.696813E+03	5.292319E-03	3.917709E-04
7.706757E+03	5.277578E-03	3.910705E-04
7.716702E+03	5.263926E-03	3.904502E-04
