#wls	flux	fluxerr
1.591072E+03	4.136973E-04	2.656441E-05
1.630849E+03	4.141123E-04	2.657910E-05
1.670626E+03	4.148170E-04	2.661202E-05
1.710403E+03	4.157428E-04	2.665875E-05
1.750180E+03	4.169617E-04	2.672386E-05
1.789957E+03	4.184758E-04	2.680746E-05
1.829733E+03	4.203568E-04	2.691409E-05
1.869510E+03	4.226771E-04	2.704835E-05
1.909287E+03	4.254391E-04	2.721032E-05
1.949064E+03	4.287853E-04	2.740906E-05
1.988841E+03	4.327194E-04	2.764471E-05
2.028617E+03	4.373155E-04	2.792194E-05
2.068394E+03	4.427180E-04	2.824986E-05
2.108171E+03	4.489336E-04	2.862877E-05
2.147948E+03	4.562492E-04	2.907685E-05
2.187725E+03	4.646046E-04	2.959009E-05
2.227501E+03	4.741511E-04	3.017796E-05
2.267278E+03	4.848325E-04	3.083669E-05
2.307055E+03	4.966639E-04	3.156706E-05
2.346832E+03	5.095924E-04	3.236551E-05
2.386609E+03	5.237078E-04	3.323753E-05
2.426386E+03	5.388907E-04	3.417533E-05
2.466162E+03	5.552361E-04	3.518471E-05
2.505939E+03	5.727004E-04	3.626268E-05
2.545716E+03	5.913141E-04	3.741093E-05
2.585493E+03	6.111841E-04	3.863597E-05
2.625270E+03	6.322069E-04	3.993098E-05
2.665046E+03	6.545729E-04	4.130770E-05
2.704823E+03	6.782625E-04	4.276459E-05
2.744600E+03	7.035584E-04	4.431914E-05
2.784377E+03	7.305371E-04	4.597577E-05
2.824154E+03	7.594355E-04	4.774897E-05
2.863930E+03	7.900622E-04	4.962627E-05
2.903707E+03	8.225378E-04	5.161477E-05
2.943484E+03	8.566998E-04	5.370382E-05
2.983261E+03	8.929345E-04	5.591714E-05
2.993205E+03	9.023289E-04	5.649056E-05
3.003149E+03	9.118104E-04	5.706906E-05
3.013094E+03	9.215364E-04	5.766245E-05
3.023038E+03	9.313556E-04	5.826128E-05
3.032982E+03	9.413494E-04	5.887062E-05
3.042926E+03	9.515216E-04	5.949070E-05
3.052870E+03	9.618765E-04	6.012177E-05
3.062815E+03	9.723400E-04	6.075920E-05
3.072759E+03	9.830726E-04	6.141300E-05
3.082703E+03	9.940008E-04	6.207856E-05
3.092647E+03	1.005130E-03	6.275618E-05
3.102591E+03	1.016464E-03	6.344616E-05
3.112536E+03	1.028089E-03	6.415379E-05
3.122480E+03	1.039849E-03	6.486940E-05
3.132424E+03	1.051992E-03	6.560832E-05
3.142368E+03	1.064281E-03	6.635591E-05
3.152312E+03	1.076965E-03	6.712753E-05
3.162257E+03	1.089890E-03	6.791364E-05
3.172201E+03	1.103062E-03	6.871453E-05
3.182145E+03	1.116649E-03	6.954076E-05
3.192089E+03	1.130579E-03	7.038774E-05
3.202033E+03	1.144859E-03	7.125591E-05
3.211978E+03	1.159498E-03	7.214578E-05
3.221922E+03	1.174503E-03	7.305782E-05
3.231866E+03	1.189967E-03	7.399771E-05
3.241810E+03	1.205816E-03	7.496087E-05
3.251754E+03	1.222226E-03	7.595820E-05
3.261699E+03	1.239041E-03	7.697996E-05
3.271643E+03	1.256439E-03	7.803722E-05
3.281587E+03	1.274347E-03	7.912538E-05
3.291531E+03	1.292863E-03	8.025045E-05
3.301475E+03	1.311912E-03	8.140782E-05
3.311420E+03	1.331679E-03	8.260892E-05
3.321364E+03	1.352093E-03	8.384921E-05
3.331308E+03	1.373166E-03	8.512950E-05
3.341252E+03	1.395089E-03	8.646148E-05
3.351196E+03	1.417789E-03	8.784068E-05
3.361141E+03	1.441284E-03	8.926808E-05
3.371085E+03	1.465678E-03	9.075010E-05
3.381029E+03	1.491079E-03	9.229336E-05
3.390973E+03	1.517506E-03	9.389903E-05
3.400917E+03	1.544981E-03	9.556828E-05
3.410862E+03	1.573615E-03	9.730798E-05
3.420806E+03	1.603430E-03	9.911943E-05
3.430750E+03	1.634542E-03	1.010097E-04
3.440694E+03	1.667068E-03	1.029859E-04
3.450638E+03	1.700942E-03	1.050439E-04
3.460583E+03	1.736471E-03	1.072025E-04
3.470527E+03	1.773686E-03	1.094636E-04
3.480471E+03	1.812619E-03	1.118290E-04
3.490415E+03	1.853396E-03	1.143064E-04
3.500359E+03	1.896052E-03	1.168978E-04
3.510304E+03	1.940912E-03	1.196230E-04
3.520248E+03	1.987819E-03	1.224724E-04
3.530192E+03	2.036909E-03	1.254541E-04
3.540136E+03	2.088218E-03	1.285702E-04
3.550080E+03	2.141783E-03	1.318228E-04
3.560025E+03	2.197641E-03	1.352140E-04
3.569969E+03	2.255727E-03	1.387397E-04
3.579913E+03	2.316072E-03	1.424015E-04
3.589857E+03	2.378604E-03	1.461951E-04
3.599802E+03	2.443453E-03	1.501281E-04
3.609746E+03	2.510542E-03	1.541957E-04
3.619690E+03	2.579890E-03	1.583989E-04
3.629634E+03	2.651308E-03	1.627258E-04
3.639578E+03	2.725018E-03	1.671901E-04
3.649523E+03	2.800817E-03	1.717790E-04
3.659467E+03	2.878709E-03	1.764927E-04
3.669411E+03	2.958582E-03	1.813242E-04
3.679355E+03	3.040539E-03	1.862795E-04
3.689299E+03	3.124456E-03	1.913510E-04
3.699244E+03	3.210202E-03	1.965304E-04
3.709188E+03	3.297749E-03	2.018160E-04
3.719132E+03	3.387061E-03	2.072054E-04
3.729076E+03	3.477981E-03	2.126888E-04
3.739020E+03	3.570457E-03	2.182628E-04
3.748965E+03	3.664426E-03	2.239237E-04
3.758909E+03	3.759703E-03	2.296599E-04
3.768853E+03	3.856205E-03	2.354663E-04
3.778797E+03	3.953723E-03	2.413299E-04
3.788741E+03	4.052152E-03	2.472444E-04
3.798686E+03	4.151376E-03	2.532024E-04
3.808630E+03	4.251147E-03	2.591890E-04
3.818574E+03	4.351325E-03	2.651953E-04
3.828518E+03	4.451635E-03	2.712047E-04
3.838462E+03	4.551910E-03	2.772070E-04
3.848407E+03	4.651971E-03	2.831912E-04
3.858351E+03	4.751508E-03	2.891385E-04
3.868295E+03	4.850322E-03	2.950367E-04
3.878239E+03	4.948078E-03	3.008656E-04
3.888183E+03	5.044563E-03	3.066123E-04
3.898128E+03	5.139557E-03	3.122633E-04
3.908072E+03	5.232711E-03	3.177978E-04
3.918016E+03	5.323678E-03	3.231947E-04
3.927960E+03	5.412364E-03	3.284484E-04
3.937904E+03	5.498431E-03	3.335386E-04
3.947849E+03	5.581552E-03	3.384457E-04
3.957793E+03	5.661539E-03	3.431584E-04
3.967737E+03	5.738096E-03	3.476590E-04
3.977681E+03	5.811199E-03	3.519464E-04
3.987625E+03	5.880600E-03	3.560057E-04
3.997570E+03	5.946082E-03	3.598240E-04
4.007514E+03	6.007459E-03	3.633905E-04
4.017458E+03	6.064948E-03	3.667185E-04
4.027402E+03	6.118192E-03	3.697867E-04
4.037346E+03	6.167359E-03	3.726055E-04
4.047291E+03	6.212410E-03	3.751731E-04
4.057235E+03	6.253465E-03	3.774967E-04
4.067179E+03	6.290684E-03	3.795866E-04
4.077123E+03	6.324129E-03	3.814466E-04
4.087067E+03	6.354022E-03	3.830904E-04
4.097012E+03	6.380479E-03	3.845252E-04
4.106956E+03	6.403765E-03	3.857674E-04
4.116900E+03	6.424162E-03	3.868341E-04
4.126844E+03	6.441953E-03	3.877425E-04
4.136788E+03	6.457327E-03	3.885043E-04
4.146733E+03	6.470577E-03	3.891374E-04
4.156677E+03	6.482123E-03	3.896669E-04
4.166621E+03	6.492039E-03	3.900976E-04
4.176565E+03	6.500730E-03	3.904540E-04
4.186509E+03	6.508383E-03	3.907472E-04
4.196454E+03	6.515389E-03	3.910009E-04
4.206398E+03	6.522020E-03	3.912316E-04
4.216342E+03	6.528444E-03	3.914491E-04
4.226286E+03	6.535117E-03	3.916810E-04
4.236231E+03	6.542076E-03	3.919294E-04
4.246175E+03	6.549771E-03	3.922212E-04
4.256119E+03	6.558417E-03	3.925693E-04
4.266063E+03	6.568208E-03	3.929853E-04
4.276007E+03	6.579459E-03	3.934878E-04
4.285952E+03	6.592326E-03	3.940860E-04
4.295896E+03	6.607071E-03	3.947957E-04
4.305840E+03	6.623829E-03	3.956245E-04
4.315784E+03	6.643024E-03	3.965978E-04
4.325728E+03	6.664545E-03	3.977086E-04
4.335673E+03	6.688761E-03	3.989789E-04
4.345617E+03	6.715705E-03	4.004104E-04
4.355561E+03	6.745600E-03	4.020162E-04
4.365505E+03	6.778424E-03	4.037947E-04
4.375449E+03	6.814324E-03	4.057545E-04
4.385394E+03	6.853321E-03	4.078965E-04
4.395338E+03	6.895391E-03	4.102192E-04
4.405282E+03	6.940407E-03	4.127147E-04
4.415226E+03	6.988468E-03	4.153888E-04
4.425170E+03	7.039281E-03	4.182237E-04
4.435115E+03	7.092494E-03	4.211982E-04
4.445059E+03	7.147840E-03	4.242965E-04
4.455003E+03	7.204996E-03	4.274992E-04
4.464947E+03	7.263252E-03	4.307641E-04
4.474891E+03	7.322423E-03	4.340800E-04
4.484836E+03	7.381732E-03	4.374008E-04
4.494780E+03	7.440965E-03	4.407140E-04
4.504724E+03	7.499415E-03	4.439775E-04
4.514668E+03	7.556535E-03	4.471593E-04
4.524612E+03	7.611900E-03	4.502341E-04
4.534557E+03	7.664989E-03	4.531714E-04
4.544501E+03	7.715180E-03	4.559345E-04
4.554445E+03	7.762197E-03	4.585075E-04
4.564389E+03	7.805479E-03	4.608574E-04
4.574333E+03	7.844705E-03	4.629657E-04
4.584278E+03	7.879511E-03	4.648110E-04
4.594222E+03	7.909581E-03	4.663753E-04
4.604166E+03	7.934761E-03	4.676498E-04
4.614110E+03	7.954941E-03	4.686284E-04
4.624054E+03	7.970004E-03	4.693047E-04
4.633999E+03	7.980073E-03	4.696862E-04
4.643943E+03	7.985064E-03	4.697685E-04
4.653887E+03	7.985222E-03	4.695663E-04
4.663831E+03	7.980784E-03	4.690941E-04
4.673775E+03	7.972133E-03	4.683746E-04
4.683720E+03	7.959504E-03	4.674220E-04
4.693664E+03	7.943478E-03	4.662707E-04
4.703608E+03	7.924390E-03	4.649408E-04
4.713552E+03	7.902880E-03	4.634699E-04
4.723496E+03	7.879439E-03	4.618871E-04
4.733441E+03	7.854648E-03	4.602265E-04
4.743385E+03	7.829098E-03	4.585229E-04
4.753329E+03	7.803381E-03	4.568110E-04
4.763273E+03	7.777964E-03	4.551181E-04
4.773217E+03	7.753322E-03	4.534721E-04
4.783162E+03	7.729897E-03	4.518987E-04
4.793106E+03	7.708023E-03	4.504173E-04
4.803050E+03	7.688002E-03	4.490455E-04
4.812994E+03	7.670108E-03	4.477992E-04
4.822938E+03	7.654809E-03	4.467054E-04
4.832883E+03	7.642125E-03	4.457651E-04
4.842827E+03	7.632444E-03	4.450009E-04
4.852771E+03	7.625775E-03	4.444129E-04
4.862715E+03	7.622331E-03	4.440134E-04
4.872660E+03	7.622114E-03	4.438022E-04
4.882604E+03	7.625236E-03	4.437857E-04
4.892548E+03	7.631710E-03	4.439643E-04
4.902492E+03	7.641409E-03	4.443303E-04
4.912436E+03	7.654359E-03	4.448851E-04
4.922381E+03	7.670474E-03	4.456234E-04
4.932325E+03	7.689577E-03	4.465347E-04
4.942269E+03	7.711728E-03	4.476222E-04
4.952213E+03	7.736653E-03	4.488699E-04
4.962157E+03	7.764430E-03	4.502820E-04
4.972102E+03	7.794893E-03	4.518488E-04
4.982046E+03	7.828073E-03	4.535718E-04
4.991990E+03	7.863863E-03	4.554446E-04
5.001934E+03	7.902335E-03	4.574713E-04
5.011878E+03	7.943453E-03	4.596496E-04
5.021823E+03	7.987450E-03	4.619926E-04
5.031767E+03	8.034347E-03	4.645016E-04
5.041711E+03	8.084282E-03	4.671841E-04
5.051655E+03	8.137412E-03	4.700492E-04
5.061599E+03	8.194008E-03	4.731122E-04
5.071544E+03	8.254180E-03	4.763792E-04
5.081488E+03	8.318221E-03	4.798669E-04
5.091432E+03	8.386347E-03	4.835874E-04
5.101376E+03	8.458653E-03	4.875461E-04
5.111320E+03	8.535514E-03	4.917641E-04
5.121265E+03	8.616901E-03	4.962396E-04
5.131209E+03	8.703133E-03	5.009905E-04
5.141153E+03	8.794212E-03	5.060167E-04
5.151097E+03	8.890197E-03	5.113212E-04
5.161041E+03	8.991106E-03	5.169048E-04
5.170986E+03	9.096988E-03	5.227698E-04
5.180930E+03	9.207660E-03	5.289057E-04
5.190874E+03	9.322980E-03	5.353037E-04
5.200818E+03	9.442835E-03	5.419572E-04
5.210762E+03	9.566943E-03	5.488497E-04
5.220707E+03	9.694861E-03	5.559556E-04
5.230651E+03	9.826180E-03	5.632511E-04
5.240595E+03	9.960499E-03	5.707132E-04
5.250539E+03	1.009725E-02	5.783093E-04
5.260483E+03	1.023570E-02	5.859964E-04
5.270428E+03	1.037520E-02	5.937389E-04
5.280372E+03	1.051488E-02	6.014858E-04
5.290316E+03	1.065386E-02	6.091874E-04
5.300260E+03	1.079134E-02	6.167976E-04
5.310204E+03	1.092622E-02	6.242540E-04
5.320149E+03	1.105757E-02	6.315042E-04
5.330093E+03	1.118423E-02	6.384817E-04
5.340037E+03	1.130510E-02	6.451237E-04
5.349981E+03	1.141916E-02	6.513737E-04
5.359925E+03	1.152508E-02	6.571557E-04
5.369870E+03	1.162199E-02	6.624204E-04
5.379814E+03	1.170866E-02	6.670992E-04
5.389758E+03	1.178394E-02	6.711266E-04
5.399702E+03	1.184708E-02	6.744612E-04
5.409646E+03	1.189708E-02	6.770469E-04
5.419591E+03	1.193307E-02	6.788347E-04
5.429535E+03	1.195456E-02	6.797976E-04
5.439479E+03	1.196109E-02	6.799116E-04
5.449423E+03	1.195233E-02	6.791573E-04
5.459367E+03	1.192837E-02	6.775420E-04
5.469312E+03	1.188945E-02	6.750800E-04
5.479256E+03	1.183597E-02	6.717945E-04
5.489200E+03	1.176884E-02	6.677382E-04
5.499144E+03	1.168900E-02	6.629658E-04
5.509089E+03	1.159807E-02	6.575692E-04
5.519033E+03	1.149755E-02	6.516340E-04
5.528977E+03	1.138928E-02	6.452660E-04
5.538921E+03	1.127545E-02	6.385883E-04
5.548865E+03	1.115812E-02	6.317188E-04
5.558810E+03	1.103969E-02	6.247932E-04
5.568754E+03	1.092246E-02	6.179419E-04
5.578698E+03	1.080884E-02	6.113008E-04
5.588642E+03	1.070094E-02	6.049890E-04
5.598586E+03	1.060088E-02	5.991256E-04
5.608531E+03	1.051072E-02	5.938271E-04
5.618475E+03	1.043219E-02	5.891897E-04
5.628419E+03	1.036700E-02	5.853108E-04
5.638363E+03	1.031661E-02	5.822705E-04
5.648307E+03	1.028227E-02	5.801389E-04
5.658252E+03	1.026503E-02	5.789752E-04
5.668196E+03	1.026577E-02	5.788270E-04
5.678140E+03	1.028516E-02	5.797309E-04
5.688084E+03	1.032364E-02	5.817117E-04
5.698028E+03	1.038148E-02	5.847827E-04
5.707973E+03	1.045880E-02	5.889504E-04
5.717917E+03	1.055519E-02	5.941901E-04
5.727861E+03	1.067040E-02	6.004872E-04
5.737805E+03	1.080370E-02	6.077991E-04
5.747749E+03	1.095385E-02	6.160561E-04
5.757694E+03	1.111976E-02	6.251954E-04
5.767638E+03	1.129970E-02	6.351185E-04
5.777582E+03	1.149183E-02	6.457228E-04
5.787526E+03	1.169382E-02	6.568760E-04
5.797470E+03	1.190302E-02	6.684290E-04
5.807415E+03	1.211688E-02	6.802386E-04
5.817359E+03	1.233231E-02	6.921309E-04
5.827303E+03	1.254614E-02	7.039285E-04
5.837247E+03	1.275514E-02	7.154497E-04
5.847191E+03	1.295603E-02	7.265119E-04
5.857136E+03	1.314547E-02	7.369278E-04
5.867080E+03	1.332053E-02	7.465335E-04
5.877024E+03	1.347820E-02	7.551624E-04
5.886968E+03	1.361608E-02	7.626794E-04
5.896912E+03	1.373168E-02	7.689470E-04
5.906857E+03	1.382351E-02	7.738827E-04
5.916801E+03	1.389001E-02	7.774002E-04
5.926745E+03	1.393052E-02	7.794641E-04
5.936689E+03	1.394454E-02	7.800468E-04
5.946633E+03	1.393262E-02	7.791813E-04
5.956578E+03	1.389546E-02	7.769067E-04
5.966522E+03	1.383435E-02	7.732975E-04
5.976466E+03	1.375090E-02	7.684438E-04
5.986410E+03	1.364722E-02	7.624644E-04
5.996354E+03	1.352583E-02	7.555011E-04
6.006299E+03	1.338904E-02	7.476839E-04
6.016243E+03	1.323969E-02	7.391712E-04
6.026187E+03	1.308048E-02	7.301144E-04
6.036131E+03	1.291394E-02	7.206547E-04
6.046075E+03	1.274272E-02	7.109414E-04
6.056020E+03	1.256920E-02	7.011057E-04
6.065964E+03	1.239538E-02	6.912606E-04
6.075908E+03	1.222334E-02	6.815209E-04
6.085852E+03	1.205474E-02	6.719794E-04
6.095796E+03	1.189089E-02	6.627095E-04
6.105741E+03	1.173324E-02	6.537908E-04
6.115685E+03	1.158263E-02	6.452703E-04
6.125629E+03	1.144005E-02	6.372028E-04
6.135573E+03	1.130569E-02	6.295986E-04
6.145518E+03	1.118041E-02	6.225049E-04
6.155462E+03	1.106405E-02	6.159131E-04
6.165406E+03	1.095692E-02	6.098398E-04
6.175350E+03	1.085887E-02	6.042758E-04
6.185294E+03	1.076985E-02	5.992190E-04
6.195239E+03	1.068943E-02	5.946448E-04
6.205183E+03	1.061734E-02	5.905377E-04
6.215127E+03	1.055338E-02	5.868864E-04
6.225071E+03	1.049710E-02	5.836660E-04
6.235015E+03	1.044817E-02	5.808569E-04
6.244960E+03	1.040625E-02	5.784410E-04
6.254904E+03	1.037093E-02	5.763943E-04
6.264848E+03	1.034200E-02	5.747064E-04
6.274792E+03	1.031901E-02	5.733506E-04
6.284736E+03	1.030192E-02	5.723250E-04
6.294681E+03	1.029040E-02	5.716118E-04
6.304625E+03	1.028415E-02	5.711930E-04
6.314569E+03	1.028318E-02	5.710701E-04
6.324513E+03	1.028698E-02	5.712142E-04
6.334457E+03	1.029570E-02	5.716334E-04
6.344402E+03	1.030880E-02	5.722977E-04
6.354346E+03	1.032628E-02	5.732077E-04
6.364290E+03	1.034783E-02	5.743448E-04
6.374234E+03	1.037329E-02	5.757007E-04
6.384178E+03	1.040228E-02	5.772547E-04
6.394123E+03	1.043462E-02	5.789965E-04
6.404067E+03	1.047013E-02	5.809152E-04
6.414011E+03	1.050857E-02	5.829989E-04
6.423955E+03	1.054987E-02	5.852424E-04
6.433899E+03	1.059365E-02	5.876258E-04
6.443844E+03	1.063993E-02	5.901488E-04
6.453788E+03	1.068808E-02	5.927774E-04
6.463732E+03	1.073770E-02	5.954894E-04
6.473676E+03	1.078824E-02	5.982544E-04
6.483620E+03	1.083927E-02	6.010480E-04
6.493565E+03	1.089030E-02	6.038429E-04
6.503509E+03	1.094093E-02	6.066179E-04
6.513453E+03	1.099048E-02	6.093344E-04
6.523397E+03	1.103834E-02	6.119594E-04
6.533341E+03	1.108427E-02	6.144790E-04
6.543286E+03	1.112720E-02	6.168343E-04
6.553230E+03	1.116683E-02	6.190085E-04
6.563174E+03	1.120234E-02	6.209560E-04
6.573118E+03	1.123303E-02	6.226387E-04
6.583062E+03	1.125852E-02	6.240348E-04
6.593007E+03	1.127792E-02	6.250954E-04
6.602951E+03	1.129111E-02	6.258143E-04
6.612895E+03	1.129739E-02	6.261514E-04
6.622839E+03	1.129669E-02	6.261043E-04
6.632783E+03	1.128868E-02	6.256544E-04
6.642728E+03	1.127345E-02	6.248061E-04
6.652672E+03	1.125110E-02	6.235653E-04
6.662616E+03	1.122187E-02	6.219450E-04
6.672560E+03	1.118616E-02	6.199680E-04
6.682504E+03	1.114452E-02	6.176643E-04
6.692449E+03	1.109791E-02	6.150873E-04
6.702393E+03	1.104671E-02	6.122577E-04
6.712337E+03	1.099226E-02	6.092500E-04
6.722281E+03	1.093541E-02	6.061111E-04
6.732225E+03	1.087708E-02	6.028921E-04
6.742170E+03	1.081866E-02	5.996698E-04
6.752114E+03	1.076113E-02	5.964990E-04
6.762058E+03	1.070562E-02	5.934419E-04
6.772002E+03	1.065339E-02	5.905682E-04
6.781946E+03	1.060536E-02	5.879295E-04
6.791891E+03	1.056255E-02	5.855818E-04
6.801835E+03	1.052605E-02	5.835859E-04
6.811779E+03	1.049672E-02	5.819894E-04
6.821723E+03	1.047520E-02	5.808276E-04
6.831668E+03	1.046229E-02	5.801449E-04
6.841612E+03	1.045840E-02	5.799646E-04
6.851556E+03	1.046410E-02	5.803184E-04
6.861500E+03	1.047957E-02	5.812158E-04
6.871444E+03	1.050527E-02	5.826827E-04
6.881389E+03	1.054081E-02	5.846983E-04
6.891333E+03	1.058654E-02	5.872813E-04
6.901277E+03	1.064196E-02	5.904040E-04
6.911221E+03	1.070683E-02	5.940542E-04
6.921165E+03	1.078054E-02	5.981977E-04
6.931110E+03	1.086262E-02	6.028086E-04
6.941054E+03	1.095219E-02	6.078383E-04
6.950998E+03	1.104858E-02	6.132497E-04
6.960942E+03	1.115070E-02	6.189826E-04
6.970886E+03	1.125770E-02	6.249902E-04
6.980831E+03	1.136835E-02	6.312040E-04
6.990775E+03	1.148168E-02	6.375709E-04
7.000719E+03	1.159638E-02	6.440174E-04
7.010663E+03	1.171126E-02	6.504779E-04
7.020607E+03	1.182512E-02	6.568862E-04
7.030552E+03	1.193677E-02	6.631760E-04
7.040496E+03	1.204506E-02	6.692831E-04
7.050440E+03	1.214883E-02	6.751438E-04
7.060384E+03	1.224701E-02	6.806982E-04
7.070328E+03	1.233855E-02	6.858875E-04
7.080273E+03	1.242246E-02	6.906574E-04
7.090217E+03	1.249764E-02	6.949460E-04
7.100161E+03	1.256323E-02	6.987060E-04
7.110105E+03	1.261862E-02	7.019022E-04
7.120049E+03	1.266290E-02	7.044848E-04
7.129994E+03	1.269542E-02	7.064169E-04
7.139938E+03	1.271560E-02	7.076660E-04
7.149882E+03	1.272293E-02	7.082030E-04
7.159826E+03	1.271679E-02	7.079937E-04
7.169770E+03	1.269702E-02	7.070285E-04
7.179715E+03	1.266318E-02	7.052825E-04
7.189659E+03	1.261510E-02	7.027463E-04
7.199603E+03	1.255275E-02	6.994166E-04
7.209547E+03	1.247619E-02	6.952967E-04
7.219491E+03	1.238560E-02	6.903966E-04
7.229436E+03	1.228095E-02	6.847136E-04
7.239380E+03	1.216306E-02	6.782928E-04
7.249324E+03	1.203215E-02	6.711467E-04
7.259268E+03	1.188915E-02	6.633254E-04
7.269212E+03	1.173490E-02	6.548761E-04
7.279157E+03	1.157002E-02	6.458326E-04
7.289101E+03	1.139577E-02	6.362646E-04
7.299045E+03	1.121313E-02	6.262268E-04
7.308989E+03	1.102334E-02	6.157872E-04
7.318933E+03	1.082766E-02	6.050162E-04
7.328878E+03	1.062721E-02	5.939760E-04
7.338822E+03	1.042344E-02	5.827473E-04
7.348766E+03	1.021730E-02	5.713826E-04
7.358710E+03	1.001014E-02	5.599580E-04
7.368654E+03	9.802847E-03	5.485219E-04
7.378599E+03	9.596787E-03	5.371511E-04
7.388543E+03	9.392811E-03	5.258932E-04
7.398487E+03	9.191828E-03	5.147990E-04
7.408431E+03	8.994655E-03	5.039141E-04
7.418375E+03	8.802142E-03	4.932863E-04
7.428320E+03	8.614631E-03	4.829348E-04
7.438264E+03	8.432928E-03	4.729049E-04
7.448208E+03	8.257337E-03	4.632140E-04
7.458152E+03	8.088346E-03	4.538895E-04
7.468097E+03	7.926356E-03	4.449542E-04
7.478041E+03	7.771455E-03	4.364131E-04
7.487985E+03	7.623906E-03	4.282814E-04
7.497929E+03	7.483804E-03	4.205646E-04
7.507873E+03	7.351307E-03	4.132719E-04
7.517818E+03	7.226292E-03	4.063967E-04
7.527762E+03	7.108836E-03	3.999436E-04
7.537706E+03	6.998845E-03	3.939077E-04
7.547650E+03	6.896210E-03	3.882832E-04
7.557594E+03	6.800783E-03	3.830623E-04
7.567539E+03	6.712496E-03	3.782412E-04
7.577483E+03	6.631123E-03	3.738078E-04
7.587427E+03	6.556434E-03	3.697494E-04
7.597371E+03	6.488043E-03	3.660446E-04
7.607315E+03	6.425845E-03	3.626879E-04
7.617260E+03	6.369285E-03	3.596482E-04
7.627204E+03	6.318210E-03	3.569173E-04
7.637148E+03	6.272129E-03	3.544677E-04
7.647092E+03	6.230758E-03	3.522837E-04
7.657036E+03	6.193497E-03	3.503316E-04
7.666981E+03	6.160253E-03	3.486065E-04
7.676925E+03	6.130321E-03	3.470686E-04
7.686869E+03	6.103508E-03	3.457072E-04
7.696813E+03	6.079238E-03	3.444900E-04
7.706757E+03	6.057326E-03	3.434064E-04
7.716702E+03	6.037411E-03	3.424364E-04
