#wls	flux	fluxerr
1.591072E+03	4.624840E-04	2.119709E-05
1.630849E+03	4.727304E-04	2.163703E-05
1.670626E+03	4.834404E-04	2.209612E-05
1.710403E+03	4.948052E-04	2.258291E-05
1.750180E+03	5.067613E-04	2.309433E-05
1.789957E+03	5.193301E-04	2.363114E-05
1.829733E+03	5.326260E-04	2.419834E-05
1.869510E+03	5.466760E-04	2.479691E-05
1.909287E+03	5.615071E-04	2.542783E-05
1.949064E+03	5.771465E-04	2.609204E-05
1.988841E+03	5.937221E-04	2.679503E-05
2.028617E+03	6.111625E-04	2.753327E-05
2.068394E+03	6.295991E-04	2.831233E-05
2.108171E+03	6.490619E-04	2.913319E-05
2.147948E+03	6.696910E-04	3.000175E-05
2.187725E+03	6.914078E-04	3.091403E-05
2.227501E+03	7.144671E-04	3.188099E-05
2.267278E+03	7.387874E-04	3.289847E-05
2.307055E+03	7.645142E-04	3.397241E-05
2.346832E+03	7.917981E-04	3.510893E-05
2.386609E+03	8.205449E-04	3.630320E-05
2.426386E+03	8.510257E-04	3.756657E-05
2.466162E+03	8.831339E-04	3.889360E-05
2.505939E+03	9.171431E-04	4.029557E-05
2.545716E+03	9.531992E-04	4.177805E-05
2.585493E+03	9.911716E-04	4.333441E-05
2.625270E+03	1.031185E-03	4.496917E-05
2.665046E+03	1.073644E-03	4.669897E-05
2.704823E+03	1.118232E-03	4.850897E-05
2.744600E+03	1.165337E-03	5.041481E-05
2.784377E+03	1.214892E-03	5.241238E-05
2.824154E+03	1.267262E-03	5.451619E-05
2.863930E+03	1.322026E-03	5.670674E-05
2.903707E+03	1.379815E-03	5.900969E-05
2.943484E+03	1.440297E-03	6.140929E-05
2.983261E+03	1.503569E-03	6.390827E-05
2.993205E+03	1.519951E-03	6.455376E-05
3.003149E+03	1.536435E-03	6.520230E-05
3.013094E+03	1.553018E-03	6.585366E-05
3.023038E+03	1.569857E-03	6.651453E-05
3.032982E+03	1.586947E-03	6.718466E-05
3.042926E+03	1.604119E-03	6.785685E-05
3.052870E+03	1.621532E-03	6.853781E-05
3.062815E+03	1.639180E-03	6.922728E-05
3.072759E+03	1.656892E-03	6.991798E-05
3.082703E+03	1.674828E-03	7.061661E-05
3.092647E+03	1.692979E-03	7.132285E-05
3.102591E+03	1.711175E-03	7.202944E-05
3.112536E+03	1.729741E-03	7.275005E-05
3.122480E+03	1.748336E-03	7.347033E-05
3.132424E+03	1.767119E-03	7.419692E-05
3.142368E+03	1.786250E-03	7.493651E-05
3.152312E+03	1.805387E-03	7.567475E-05
3.162257E+03	1.824689E-03	7.641824E-05
3.172201E+03	1.844314E-03	7.717358E-05
3.182145E+03	1.863919E-03	7.792641E-05
3.192089E+03	1.883830E-03	7.869033E-05
3.202033E+03	1.903871E-03	7.945789E-05
3.211978E+03	1.924030E-03	8.022870E-05
3.221922E+03	1.944467E-03	8.100930E-05
3.231866E+03	1.965003E-03	8.179224E-05
3.241810E+03	1.985628E-03	8.257706E-05
3.251754E+03	2.006499E-03	8.337026E-05
3.261699E+03	2.027604E-03	8.417137E-05
3.271643E+03	2.048765E-03	8.497292E-05
3.281587E+03	2.069971E-03	8.577443E-05
3.291531E+03	2.091376E-03	8.658228E-05
3.301475E+03	2.112969E-03	8.739600E-05
3.311420E+03	2.134737E-03	8.821499E-05
3.321364E+03	2.156666E-03	8.903867E-05
3.331308E+03	2.178578E-03	8.985966E-05
3.341252E+03	2.200792E-03	9.069110E-05
3.351196E+03	2.222961E-03	9.151869E-05
3.361141E+03	2.245405E-03	9.235552E-05
3.371085E+03	2.267777E-03	9.318733E-05
3.381029E+03	2.290393E-03	9.402714E-05
3.390973E+03	2.313075E-03	9.486751E-05
3.400917E+03	2.335970E-03	9.571457E-05
3.410862E+03	2.358900E-03	9.656090E-05
3.420806E+03	2.381851E-03	9.740592E-05
3.430750E+03	2.404968E-03	9.825562E-05
3.440694E+03	2.428075E-03	9.910272E-05
3.450638E+03	2.451317E-03	9.995315E-05
3.460583E+03	2.474678E-03	1.008062E-04
3.470527E+03	2.498140E-03	1.016612E-04
3.480471E+03	2.521528E-03	1.025110E-04
3.490415E+03	2.544986E-03	1.033613E-04
3.500359E+03	2.568655E-03	1.042180E-04
3.510304E+03	2.592201E-03	1.050675E-04
3.520248E+03	2.615924E-03	1.059218E-04
3.530192E+03	2.639649E-03	1.067739E-04
3.540136E+03	2.663358E-03	1.076232E-04
3.550080E+03	2.687193E-03	1.084751E-04
3.560025E+03	2.710979E-03	1.093228E-04
3.569969E+03	2.734701E-03	1.101656E-04
3.579913E+03	2.758496E-03	1.110091E-04
3.589857E+03	2.782348E-03	1.118525E-04
3.599802E+03	2.806240E-03	1.126951E-04
3.609746E+03	2.830002E-03	1.135302E-04
3.619690E+03	2.853924E-03	1.143693E-04
3.629634E+03	2.877686E-03	1.151997E-04
3.639578E+03	2.901574E-03	1.160328E-04
3.649523E+03	2.925275E-03	1.168560E-04
3.659467E+03	2.949070E-03	1.176806E-04
3.669411E+03	2.972944E-03	1.185060E-04
3.679355E+03	2.996736E-03	1.193258E-04
3.689299E+03	3.020434E-03	1.201394E-04
3.699244E+03	3.044170E-03	1.209522E-04
3.709188E+03	3.067788E-03	1.217579E-04
3.719132E+03	3.091420E-03	1.225618E-04
3.729076E+03	3.115055E-03	1.233634E-04
3.739020E+03	3.138681E-03	1.241623E-04
3.748965E+03	3.162291E-03	1.249581E-04
3.758909E+03	3.185874E-03	1.257505E-04
3.768853E+03	3.209424E-03	1.265392E-04
3.778797E+03	3.232934E-03	1.273239E-04
3.788741E+03	3.256398E-03	1.281045E-04
3.798686E+03	3.279947E-03	1.288860E-04
3.808630E+03	3.303443E-03	1.296630E-04
3.818574E+03	3.327013E-03	1.304406E-04
3.828518E+03	3.350397E-03	1.312084E-04
3.838462E+03	3.373985E-03	1.319818E-04
3.848407E+03	3.397516E-03	1.327507E-04
3.858351E+03	3.421123E-03	1.335201E-04
3.868295E+03	3.444680E-03	1.342851E-04
3.878239E+03	3.468320E-03	1.350510E-04
3.888183E+03	3.492046E-03	1.358178E-04
3.898128E+03	3.515867E-03	1.365859E-04
3.908072E+03	3.539666E-03	1.373507E-04
3.918016E+03	3.563576E-03	1.381174E-04
3.927960E+03	3.587608E-03	1.388864E-04
3.937904E+03	3.611774E-03	1.396581E-04
3.947849E+03	3.636084E-03	1.404330E-04
3.957793E+03	3.660438E-03	1.412071E-04
3.967737E+03	3.684967E-03	1.419855E-04
3.977681E+03	3.709689E-03	1.427689E-04
3.987625E+03	3.734621E-03	1.435578E-04
3.997570E+03	3.759779E-03	1.443530E-04
4.007514E+03	3.785073E-03	1.451508E-04
4.017458E+03	3.810633E-03	1.459563E-04
4.027402E+03	3.836373E-03	1.467661E-04
4.037346E+03	3.862314E-03	1.475811E-04
4.047291E+03	3.888588E-03	1.484062E-04
4.057235E+03	3.915221E-03	1.492424E-04
4.067179E+03	3.942017E-03	1.500822E-04
4.077123E+03	3.969113E-03	1.509308E-04
4.087067E+03	3.996531E-03	1.517889E-04
4.097012E+03	4.024299E-03	1.526577E-04
4.106956E+03	4.052335E-03	1.535339E-04
4.116900E+03	4.080769E-03	1.544225E-04
4.126844E+03	4.109525E-03	1.553205E-04
4.136788E+03	4.138523E-03	1.562249E-04
4.146733E+03	4.167994E-03	1.571443E-04
4.156677E+03	4.197758E-03	1.580720E-04
4.166621E+03	4.227839E-03	1.590088E-04
4.176565E+03	4.258162E-03	1.599518E-04
4.186509E+03	4.288947E-03	1.609093E-04
4.196454E+03	4.320016E-03	1.618745E-04
4.206398E+03	4.351391E-03	1.628483E-04
4.216342E+03	4.383089E-03	1.638313E-04
4.226286E+03	4.415032E-03	1.648205E-04
4.236231E+03	4.447236E-03	1.658165E-04
4.246175E+03	4.479621E-03	1.668162E-04
4.256119E+03	4.512295E-03	1.678238E-04
4.266063E+03	4.545172E-03	1.688359E-04
4.276007E+03	4.578263E-03	1.698530E-04
4.285952E+03	4.611391E-03	1.708685E-04
4.295896E+03	4.644745E-03	1.718895E-04
4.305840E+03	4.678055E-03	1.729059E-04
4.315784E+03	4.711507E-03	1.739245E-04
4.325728E+03	4.744918E-03	1.749387E-04
4.335673E+03	4.778290E-03	1.759486E-04
4.345617E+03	4.811619E-03	1.769541E-04
4.355561E+03	4.844814E-03	1.779517E-04
4.365505E+03	4.877870E-03	1.789414E-04
4.375449E+03	4.910693E-03	1.799199E-04
4.385394E+03	4.943276E-03	1.808868E-04
4.395338E+03	4.975595E-03	1.818413E-04
4.405282E+03	5.007513E-03	1.827786E-04
4.415226E+03	5.039068E-03	1.837001E-04
4.425170E+03	5.069948E-03	1.845944E-04
4.435115E+03	5.100277E-03	1.854663E-04
4.445059E+03	5.129916E-03	1.863108E-04
4.455003E+03	5.158815E-03	1.871261E-04
4.464947E+03	5.186754E-03	1.879044E-04
4.474891E+03	5.213855E-03	1.886504E-04
4.484836E+03	5.239987E-03	1.893592E-04
4.494780E+03	5.265020E-03	1.900265E-04
4.504724E+03	5.288915E-03	1.906509E-04
4.514668E+03	5.311716E-03	1.912343E-04
4.524612E+03	5.333222E-03	1.917696E-04
4.534557E+03	5.353486E-03	1.922587E-04
4.544501E+03	5.372481E-03	1.927010E-04
4.554445E+03	5.390102E-03	1.930929E-04
4.564389E+03	5.406333E-03	1.934340E-04
4.574333E+03	5.421162E-03	1.937241E-04
4.584278E+03	5.434664E-03	1.939660E-04
4.594222E+03	5.446755E-03	1.941569E-04
4.604166E+03	5.457358E-03	1.942944E-04
4.614110E+03	5.466645E-03	1.943847E-04
4.624054E+03	5.474469E-03	1.944228E-04
4.633999E+03	5.480929E-03	1.944124E-04
4.643943E+03	5.486053E-03	1.943546E-04
4.653887E+03	5.489868E-03	1.942508E-04
4.663831E+03	5.492332E-03	1.940994E-04
4.673775E+03	5.493639E-03	1.939076E-04
4.683720E+03	5.493676E-03	1.936716E-04
4.693664E+03	5.492646E-03	1.933987E-04
4.703608E+03	5.490444E-03	1.930852E-04
4.713552E+03	5.487276E-03	1.927387E-04
4.723496E+03	5.483119E-03	1.923585E-04
4.733441E+03	5.478033E-03	1.919467E-04
4.743385E+03	5.472074E-03	1.915056E-04
4.753329E+03	5.465453E-03	1.910425E-04
4.763273E+03	5.458078E-03	1.905544E-04
4.773217E+03	5.450085E-03	1.900461E-04
4.783162E+03	5.441522E-03	1.895194E-04
4.793106E+03	5.432435E-03	1.889759E-04
4.803050E+03	5.422938E-03	1.884197E-04
4.812994E+03	5.412999E-03	1.878498E-04
4.822938E+03	5.402730E-03	1.872700E-04
4.832883E+03	5.392240E-03	1.866841E-04
4.842827E+03	5.381421E-03	1.860885E-04
4.852771E+03	5.370448E-03	1.854893E-04
4.862715E+03	5.359351E-03	1.848874E-04
4.872660E+03	5.348157E-03	1.842839E-04
4.882604E+03	5.336890E-03	1.836796E-04
4.892548E+03	5.325642E-03	1.830775E-04
4.902492E+03	5.314360E-03	1.824760E-04
4.912436E+03	5.303130E-03	1.818780E-04
4.922381E+03	5.292033E-03	1.812862E-04
4.932325E+03	5.280939E-03	1.806962E-04
4.942269E+03	5.270061E-03	1.801151E-04
4.952213E+03	5.259264E-03	1.795385E-04
4.962157E+03	5.248616E-03	1.789687E-04
4.972102E+03	5.238113E-03	1.784054E-04
4.982046E+03	5.227819E-03	1.778509E-04
4.991990E+03	5.217656E-03	1.773023E-04
5.001934E+03	5.207747E-03	1.767640E-04
5.011878E+03	5.197944E-03	1.762309E-04
5.021823E+03	5.188300E-03	1.757048E-04
5.031767E+03	5.178795E-03	1.751849E-04
5.041711E+03	5.169477E-03	1.746728E-04
5.051655E+03	5.160322E-03	1.741679E-04
5.061599E+03	5.151243E-03	1.736670E-04
5.071544E+03	5.142215E-03	1.731693E-04
5.081488E+03	5.133342E-03	1.726784E-04
5.091432E+03	5.124468E-03	1.721890E-04
5.101376E+03	5.115694E-03	1.717045E-04
5.111320E+03	5.106862E-03	1.712196E-04
5.121265E+03	5.098010E-03	1.707355E-04
5.131209E+03	5.089171E-03	1.702534E-04
5.141153E+03	5.080190E-03	1.697682E-04
5.151097E+03	5.071164E-03	1.692829E-04
5.161041E+03	5.062001E-03	1.687947E-04
5.170986E+03	5.052612E-03	1.683005E-04
5.180930E+03	5.043093E-03	1.678037E-04
5.190874E+03	5.033295E-03	1.672992E-04
5.200818E+03	5.023317E-03	1.667903E-04
5.210762E+03	5.013011E-03	1.662723E-04
5.220707E+03	5.002355E-03	1.657444E-04
5.230651E+03	4.991453E-03	1.652100E-04
5.240595E+03	4.980101E-03	1.646626E-04
5.250539E+03	4.968407E-03	1.641056E-04
5.260483E+03	4.956294E-03	1.635367E-04
5.270428E+03	4.943812E-03	1.629574E-04
5.280372E+03	4.930831E-03	1.623636E-04
5.290316E+03	4.917344E-03	1.617551E-04
5.300260E+03	4.903468E-03	1.611358E-04
5.310204E+03	4.889023E-03	1.604998E-04
5.320149E+03	4.874130E-03	1.598512E-04
5.330093E+03	4.858734E-03	1.591881E-04
5.340037E+03	4.842844E-03	1.585110E-04
5.349981E+03	4.826411E-03	1.578184E-04
5.359925E+03	4.809569E-03	1.571145E-04
5.369870E+03	4.792156E-03	1.563941E-04
5.379814E+03	4.774310E-03	1.556618E-04
5.389758E+03	4.755993E-03	1.549164E-04
5.399702E+03	4.737229E-03	1.541586E-04
5.409646E+03	4.718045E-03	1.533893E-04
5.419591E+03	4.698471E-03	1.526096E-04
5.429535E+03	4.678538E-03	1.518205E-04
5.439479E+03	4.658225E-03	1.510212E-04
5.449423E+03	4.637680E-03	1.502167E-04
5.459367E+03	4.616829E-03	1.494044E-04
5.469312E+03	4.595768E-03	1.485876E-04
5.479256E+03	4.574539E-03	1.477676E-04
5.489200E+03	4.553184E-03	1.469457E-04
5.499144E+03	4.531747E-03	1.461234E-04
5.509089E+03	4.510327E-03	1.453037E-04
5.519033E+03	4.488913E-03	1.444864E-04
5.528977E+03	4.467549E-03	1.436729E-04
5.538921E+03	4.446337E-03	1.428664E-04
5.548865E+03	4.425318E-03	1.420682E-04
5.558810E+03	4.404589E-03	1.412813E-04
5.568754E+03	4.384087E-03	1.405037E-04
5.578698E+03	4.364011E-03	1.397419E-04
5.588642E+03	4.344296E-03	1.389935E-04
5.598586E+03	4.325032E-03	1.382615E-04
5.608531E+03	4.306255E-03	1.375469E-04
5.618475E+03	4.288053E-03	1.368526E-04
5.628419E+03	4.270405E-03	1.361778E-04
5.638363E+03	4.253392E-03	1.355250E-04
5.648307E+03	4.237095E-03	1.348967E-04
5.658252E+03	4.221485E-03	1.342920E-04
5.668196E+03	4.206586E-03	1.337116E-04
5.678140E+03	4.192470E-03	1.331576E-04
5.688084E+03	4.179151E-03	1.326305E-04
5.698028E+03	4.166646E-03	1.321307E-04
5.707973E+03	4.154966E-03	1.316586E-04
5.717917E+03	4.144171E-03	1.312159E-04
5.727861E+03	4.134218E-03	1.308012E-04
5.737805E+03	4.125111E-03	1.304147E-04
5.747749E+03	4.116901E-03	1.300577E-04
5.757694E+03	4.109640E-03	1.297320E-04
5.767638E+03	4.103172E-03	1.294326E-04
5.777582E+03	4.097645E-03	1.291639E-04
5.787526E+03	4.093002E-03	1.289243E-04
5.797470E+03	4.089232E-03	1.287132E-04
5.807415E+03	4.086328E-03	1.285305E-04
5.817359E+03	4.084275E-03	1.283755E-04
5.827303E+03	4.083060E-03	1.282479E-04
5.837247E+03	4.082668E-03	1.281471E-04
5.847191E+03	4.083084E-03	1.280725E-04
5.857136E+03	4.084340E-03	1.280253E-04
5.867080E+03	4.086317E-03	1.280014E-04
5.877024E+03	4.089045E-03	1.280020E-04
5.886968E+03	4.092504E-03	1.280264E-04
5.896912E+03	4.096674E-03	1.280737E-04
5.906857E+03	4.101481E-03	1.281418E-04
5.916801E+03	4.106954E-03	1.282315E-04
5.926745E+03	4.113070E-03	1.283421E-04
5.936689E+03	4.119753E-03	1.284712E-04
5.946633E+03	4.126981E-03	1.286180E-04
5.956578E+03	4.134778E-03	1.287834E-04
5.966522E+03	4.143069E-03	1.289649E-04
5.976466E+03	4.151828E-03	1.291617E-04
5.986410E+03	4.161027E-03	1.293731E-04
5.996354E+03	4.170588E-03	1.295964E-04
6.006299E+03	4.180588E-03	1.298342E-04
6.016243E+03	4.190839E-03	1.300807E-04
6.026187E+03	4.201471E-03	1.303397E-04
6.036131E+03	4.212296E-03	1.306056E-04
6.046075E+03	4.223388E-03	1.308807E-04
6.056020E+03	4.234662E-03	1.311622E-04
6.065964E+03	4.246084E-03	1.314492E-04
6.075908E+03	4.257621E-03	1.317407E-04
6.085852E+03	4.269238E-03	1.320356E-04
6.095796E+03	4.280843E-03	1.323312E-04
6.105741E+03	4.292455E-03	1.326279E-04
6.115685E+03	4.303978E-03	1.329230E-04
6.125629E+03	4.315430E-03	1.332169E-04
6.135573E+03	4.326713E-03	1.335066E-04
6.145518E+03	4.337841E-03	1.337928E-04
6.155462E+03	4.348716E-03	1.340723E-04
6.165406E+03	4.359295E-03	1.343439E-04
6.175350E+03	4.369531E-03	1.346062E-04
6.185294E+03	4.379381E-03	1.348579E-04
6.195239E+03	4.388853E-03	1.350993E-04
6.205183E+03	4.397791E-03	1.353256E-04
6.215127E+03	4.406261E-03	1.355389E-04
6.225071E+03	4.414179E-03	1.357367E-04
6.235015E+03	4.421455E-03	1.359161E-04
6.244960E+03	4.428179E-03	1.360799E-04
6.254904E+03	4.434265E-03	1.362256E-04
6.264848E+03	4.439688E-03	1.363522E-04
6.274792E+03	4.444421E-03	1.364591E-04
6.284736E+03	4.448499E-03	1.365473E-04
6.294681E+03	4.451785E-03	1.366126E-04
6.304625E+03	4.454375E-03	1.366578E-04
6.314569E+03	4.456192E-03	1.366808E-04
6.324513E+03	4.457277E-03	1.366827E-04
6.334457E+03	4.457561E-03	1.366614E-04
6.344402E+03	4.457030E-03	1.366165E-04
6.354346E+03	4.455734E-03	1.365495E-04
6.364290E+03	4.453609E-03	1.364584E-04
6.374234E+03	4.450770E-03	1.363468E-04
6.384178E+03	4.447097E-03	1.362110E-04
6.394123E+03	4.442653E-03	1.360530E-04
6.404067E+03	4.437441E-03	1.358727E-04
6.414011E+03	4.431411E-03	1.356686E-04
6.423955E+03	4.424750E-03	1.354466E-04
6.433899E+03	4.417293E-03	1.352015E-04
6.443844E+03	4.409176E-03	1.349374E-04
6.453788E+03	4.400355E-03	1.346530E-04
6.463732E+03	4.390911E-03	1.343508E-04
6.473676E+03	4.380865E-03	1.340314E-04
6.483620E+03	4.370183E-03	1.336938E-04
6.493565E+03	4.359009E-03	1.333423E-04
6.503509E+03	4.347251E-03	1.329741E-04
6.513453E+03	4.335117E-03	1.325956E-04
6.523397E+03	4.322458E-03	1.322021E-04
6.533341E+03	4.309424E-03	1.317983E-04
6.543286E+03	4.296045E-03	1.313851E-04
6.553230E+03	4.282354E-03	1.309634E-04
6.563174E+03	4.268383E-03	1.305342E-04
6.573118E+03	4.254223E-03	1.301003E-04
6.583062E+03	4.239788E-03	1.296591E-04
6.593007E+03	4.225287E-03	1.292168E-04
6.602951E+03	4.210633E-03	1.287709E-04
6.612895E+03	4.195915E-03	1.283240E-04
6.622839E+03	4.181162E-03	1.278770E-04
6.632783E+03	4.166403E-03	1.274308E-04
6.642728E+03	4.151724E-03	1.269880E-04
6.652672E+03	4.137090E-03	1.265475E-04
6.662616E+03	4.122586E-03	1.261119E-04
6.672560E+03	4.108232E-03	1.256819E-04
6.682504E+03	4.094050E-03	1.252580E-04
6.692449E+03	4.080058E-03	1.248408E-04
6.702393E+03	4.066271E-03	1.244308E-04
6.712337E+03	4.052764E-03	1.240302E-04
6.722281E+03	4.039489E-03	1.236376E-04
6.732225E+03	4.026514E-03	1.232551E-04
6.742170E+03	4.013790E-03	1.228810E-04
6.752114E+03	4.001378E-03	1.225175E-04
6.762058E+03	3.989340E-03	1.221662E-04
6.772002E+03	3.977561E-03	1.218237E-04
6.781946E+03	3.966095E-03	1.214916E-04
6.791891E+03	3.954996E-03	1.211717E-04
6.801835E+03	3.944200E-03	1.208619E-04
6.811779E+03	3.933696E-03	1.205619E-04
6.821723E+03	3.923531E-03	1.202731E-04
6.831668E+03	3.913633E-03	1.199934E-04
6.841612E+03	3.904043E-03	1.197240E-04
6.851556E+03	3.894685E-03	1.194625E-04
6.861500E+03	3.885597E-03	1.192102E-04
6.871444E+03	3.876755E-03	1.189663E-04
6.881389E+03	3.868077E-03	1.187284E-04
6.891333E+03	3.859536E-03	1.184955E-04
6.901277E+03	3.851221E-03	1.182705E-04
6.911221E+03	3.842986E-03	1.180488E-04
6.921165E+03	3.834859E-03	1.178313E-04
6.931110E+03	3.826749E-03	1.176153E-04
6.941054E+03	3.818681E-03	1.174014E-04
6.950998E+03	3.810621E-03	1.171888E-04
6.960942E+03	3.802478E-03	1.169745E-04
6.970886E+03	3.794275E-03	1.167592E-04
6.980831E+03	3.785918E-03	1.165402E-04
6.990775E+03	3.777431E-03	1.163181E-04
7.000719E+03	3.768665E-03	1.160884E-04
7.010663E+03	3.759758E-03	1.158552E-04
7.020607E+03	3.750506E-03	1.156124E-04
7.030552E+03	3.740990E-03	1.153623E-04
7.040496E+03	3.731124E-03	1.151024E-04
7.050440E+03	3.720822E-03	1.148300E-04
7.060384E+03	3.710170E-03	1.145477E-04
7.070328E+03	3.699031E-03	1.142513E-04
7.080273E+03	3.687439E-03	1.139418E-04
7.090217E+03	3.675316E-03	1.136169E-04
7.100161E+03	3.662703E-03	1.132777E-04
7.110105E+03	3.649530E-03	1.129221E-04
7.120049E+03	3.635840E-03	1.125514E-04
7.129994E+03	3.621515E-03	1.121619E-04
7.139938E+03	3.606606E-03	1.117551E-04
7.149882E+03	3.591112E-03	1.113311E-04
7.159826E+03	3.574980E-03	1.108881E-04
7.169770E+03	3.558272E-03	1.104281E-04
7.179715E+03	3.540887E-03	1.099478E-04
7.189659E+03	3.522949E-03	1.094512E-04
7.199603E+03	3.504419E-03	1.089369E-04
7.209547E+03	3.485263E-03	1.084038E-04
7.219491E+03	3.465560E-03	1.078545E-04
7.229436E+03	3.445334E-03	1.072895E-04
7.239380E+03	3.424509E-03	1.067066E-04
7.249324E+03	3.403224E-03	1.061099E-04
7.259268E+03	3.381408E-03	1.054973E-04
7.269212E+03	3.359150E-03	1.048714E-04
7.279157E+03	3.336490E-03	1.042336E-04
7.289101E+03	3.313416E-03	1.035834E-04
7.299045E+03	3.289972E-03	1.029220E-04
7.308989E+03	3.266201E-03	1.022510E-04
7.318933E+03	3.242149E-03	1.015715E-04
7.328878E+03	3.217859E-03	1.008850E-04
7.338822E+03	3.193377E-03	1.001930E-04
7.348766E+03	3.168701E-03	9.949515E-05
7.358710E+03	3.143924E-03	9.879452E-05
7.368654E+03	3.119043E-03	9.809096E-05
7.378599E+03	3.094151E-03	9.738736E-05
7.388543E+03	3.069243E-03	9.668356E-05
7.398487E+03	3.044362E-03	9.598087E-05
7.408431E+03	3.019597E-03	9.528211E-05
7.418375E+03	2.994894E-03	9.458553E-05
7.428320E+03	2.970385E-03	9.389533E-05
7.438264E+03	2.946060E-03	9.321117E-05
7.448208E+03	2.922000E-03	9.253562E-05
7.458152E+03	2.898148E-03	9.186687E-05
7.468097E+03	2.874627E-03	9.120881E-05
7.478041E+03	2.851421E-03	9.056098E-05
7.487985E+03	2.828560E-03	8.992430E-05
7.497929E+03	2.806116E-03	8.930107E-05
7.507873E+03	2.784067E-03	8.869066E-05
7.517818E+03	2.762484E-03	8.809529E-05
7.527762E+03	2.741343E-03	8.751425E-05
7.537706E+03	2.720710E-03	8.694961E-05
7.547650E+03	2.700603E-03	8.640193E-05
7.557594E+03	2.680998E-03	8.587045E-05
7.567539E+03	2.661954E-03	8.535705E-05
7.577483E+03	2.643487E-03	8.486227E-05
7.587427E+03	2.625613E-03	8.438661E-05
7.597371E+03	2.608341E-03	8.393037E-05
7.607315E+03	2.591655E-03	8.349308E-05
7.617260E+03	2.575532E-03	8.307399E-05
7.627204E+03	2.559947E-03	8.267231E-05
7.637148E+03	2.544878E-03	8.228736E-05
7.647092E+03	2.530344E-03	8.191974E-05
7.657036E+03	2.516241E-03	8.156615E-05
7.666981E+03	2.502630E-03	8.122857E-05
7.676925E+03	2.489452E-03	8.090507E-05
7.686869E+03	2.476729E-03	8.059638E-05
7.696813E+03	2.464363E-03	8.029938E-05
7.706757E+03	2.452419E-03	8.001614E-05
7.716702E+03	2.440843E-03	7.974492E-05
