#wls	flux	fluxerr
1.591072E+03	3.953005E-04	5.312056E-05
1.630849E+03	4.032453E-04	5.418451E-05
1.670626E+03	4.114940E-04	5.528907E-05
1.710403E+03	4.201989E-04	5.645464E-05
1.750180E+03	4.292996E-04	5.767315E-05
1.789957E+03	4.388064E-04	5.894591E-05
1.829733E+03	4.487289E-04	6.027422E-05
1.869510E+03	4.590766E-04	6.165932E-05
1.909287E+03	4.699373E-04	6.311298E-05
1.949064E+03	4.813234E-04	6.463684E-05
1.988841E+03	4.932468E-04	6.623248E-05
2.028617E+03	5.058018E-04	6.791251E-05
2.068394E+03	5.188341E-04	6.965621E-05
2.108171E+03	5.325207E-04	7.148728E-05
2.147948E+03	5.468741E-04	7.340738E-05
2.187725E+03	5.619058E-04	7.541800E-05
2.227501E+03	5.776253E-04	7.752041E-05
2.267278E+03	5.940408E-04	7.971563E-05
2.307055E+03	6.113454E-04	8.202954E-05
2.346832E+03	6.294569E-04	8.445106E-05
2.386609E+03	6.483811E-04	8.698093E-05
2.426386E+03	6.682182E-04	8.963251E-05
2.466162E+03	6.889736E-04	9.240647E-05
2.505939E+03	7.106458E-04	9.530257E-05
2.545716E+03	7.334382E-04	9.834801E-05
2.585493E+03	7.572464E-04	1.015287E-04
2.625270E+03	7.822734E-04	1.048718E-04
2.665046E+03	8.082972E-04	1.083475E-04
2.704823E+03	8.356242E-04	1.119967E-04
2.744600E+03	8.641281E-04	1.158025E-04
2.784377E+03	8.940060E-04	1.197911E-04
2.824154E+03	9.252301E-04	1.239588E-04
2.863930E+03	9.577615E-04	1.283002E-04
2.903707E+03	9.916707E-04	1.328247E-04
2.943484E+03	1.027137E-03	1.375561E-04
2.983261E+03	1.064103E-03	1.424867E-04
2.993205E+03	1.073578E-03	1.437503E-04
3.003149E+03	1.083155E-03	1.450276E-04
3.013094E+03	1.092835E-03	1.463184E-04
3.023038E+03	1.102615E-03	1.476225E-04
3.032982E+03	1.112494E-03	1.489398E-04
3.042926E+03	1.122471E-03	1.502701E-04
3.052870E+03	1.132544E-03	1.516131E-04
3.062815E+03	1.142712E-03	1.529687E-04
3.072759E+03	1.152974E-03	1.543367E-04
3.082703E+03	1.163327E-03	1.557169E-04
3.092647E+03	1.173770E-03	1.571090E-04
3.102591E+03	1.184302E-03	1.585127E-04
3.112536E+03	1.195043E-03	1.599444E-04
3.122480E+03	1.205746E-03	1.613709E-04
3.132424E+03	1.216654E-03	1.628247E-04
3.142368E+03	1.227645E-03	1.642895E-04
3.152312E+03	1.238715E-03	1.657646E-04
3.162257E+03	1.249862E-03	1.672499E-04
3.172201E+03	1.261208E-03	1.687617E-04
3.182145E+03	1.272627E-03	1.702832E-04
3.192089E+03	1.284117E-03	1.718140E-04
3.202033E+03	1.295676E-03	1.733540E-04
3.211978E+03	1.307426E-03	1.749193E-04
3.221922E+03	1.319240E-03	1.764930E-04
3.231866E+03	1.331118E-03	1.780750E-04
3.241810E+03	1.343178E-03	1.796814E-04
3.251754E+03	1.355296E-03	1.812954E-04
3.261699E+03	1.367469E-03	1.829165E-04
3.271643E+03	1.379819E-03	1.845611E-04
3.281587E+03	1.392218E-03	1.862122E-04
3.291531E+03	1.404789E-03	1.878862E-04
3.301475E+03	1.417405E-03	1.895659E-04
3.311420E+03	1.430188E-03	1.912678E-04
3.321364E+03	1.443009E-03	1.929747E-04
3.331308E+03	1.455992E-03	1.947030E-04
3.341252E+03	1.469008E-03	1.964356E-04
3.351196E+03	1.482179E-03	1.981888E-04
3.361141E+03	1.495504E-03	1.999623E-04
3.371085E+03	1.508853E-03	2.017389E-04
3.381029E+03	1.522349E-03	2.035350E-04
3.390973E+03	1.535865E-03	2.053336E-04
3.400917E+03	1.549521E-03	2.071507E-04
3.410862E+03	1.563314E-03	2.089860E-04
3.420806E+03	1.577243E-03	2.108391E-04
3.430750E+03	1.591178E-03	2.126931E-04
3.440694E+03	1.605242E-03	2.145640E-04
3.450638E+03	1.619432E-03	2.164515E-04
3.460583E+03	1.633743E-03	2.183551E-04
3.470527E+03	1.648050E-03	2.202579E-04
3.480471E+03	1.662473E-03	2.221760E-04
3.490415E+03	1.677132E-03	2.241256E-04
3.500359E+03	1.691778E-03	2.260731E-04
3.510304E+03	1.706530E-03	2.280346E-04
3.520248E+03	1.721386E-03	2.300098E-04
3.530192E+03	1.736219E-03	2.319818E-04
3.540136E+03	1.751273E-03	2.339830E-04
3.550080E+03	1.766422E-03	2.359967E-04
3.560025E+03	1.781663E-03	2.380225E-04
3.569969E+03	1.796992E-03	2.400599E-04
3.579913E+03	1.812406E-03	2.421085E-04
3.589857E+03	1.827905E-03	2.441681E-04
3.599802E+03	1.843483E-03	2.462382E-04
3.609746E+03	1.859140E-03	2.483185E-04
3.619690E+03	1.874872E-03	2.504086E-04
3.629634E+03	1.890677E-03	2.525083E-04
3.639578E+03	1.906674E-03	2.546334E-04
3.649523E+03	1.922618E-03	2.567513E-04
3.659467E+03	1.938750E-03	2.588939E-04
3.669411E+03	1.954946E-03	2.610449E-04
3.679355E+03	1.971204E-03	2.632039E-04
3.689299E+03	1.987643E-03	2.653870E-04
3.699244E+03	2.004021E-03	2.675616E-04
3.709188E+03	2.020577E-03	2.697598E-04
3.719132E+03	2.037189E-03	2.719652E-04
3.729076E+03	2.053856E-03	2.741778E-04
3.739020E+03	2.070578E-03	2.763973E-04
3.748965E+03	2.087473E-03	2.786398E-04
3.758909E+03	2.104419E-03	2.808890E-04
3.768853E+03	2.121420E-03	2.831451E-04
3.778797E+03	2.138591E-03	2.854236E-04
3.788741E+03	2.155695E-03	2.876931E-04
3.798686E+03	2.172971E-03	2.899852E-04
3.808630E+03	2.190417E-03	2.922998E-04
3.818574E+03	2.207800E-03	2.946057E-04
3.828518E+03	2.225353E-03	2.969341E-04
3.838462E+03	2.242963E-03	2.992698E-04
3.848407E+03	2.260629E-03	3.016128E-04
3.858351E+03	2.278354E-03	3.039634E-04
3.868295E+03	2.296255E-03	3.063372E-04
3.878239E+03	2.314103E-03	3.087037E-04
3.888183E+03	2.332130E-03	3.110938E-04
3.898128E+03	2.350224E-03	3.134926E-04
3.908072E+03	2.368501E-03	3.159156E-04
3.918016E+03	2.386736E-03	3.183326E-04
3.927960E+03	2.405046E-03	3.207595E-04
3.937904E+03	2.423548E-03	3.232116E-04
3.947849E+03	2.442130E-03	3.256743E-04
3.957793E+03	2.460685E-03	3.281330E-04
3.967737E+03	2.479440E-03	3.306181E-04
3.977681E+03	2.498176E-03	3.331004E-04
3.987625E+03	2.517119E-03	3.356101E-04
3.997570E+03	2.536050E-03	3.381180E-04
4.007514E+03	2.555086E-03	3.406394E-04
4.017458E+03	2.574229E-03	3.431750E-04
4.027402E+03	2.593485E-03	3.457253E-04
4.037346E+03	2.612856E-03	3.482908E-04
4.047291E+03	2.632238E-03	3.508574E-04
4.057235E+03	2.651636E-03	3.534258E-04
4.067179E+03	2.671271E-03	3.560256E-04
4.077123E+03	2.690930E-03	3.586283E-04
4.087067E+03	2.710617E-03	3.612345E-04
4.097012E+03	2.730445E-03	3.638592E-04
4.106956E+03	2.750309E-03	3.664884E-04
4.116900E+03	2.770213E-03	3.691227E-04
4.126844E+03	2.790268E-03	3.717768E-04
4.136788E+03	2.810264E-03	3.744227E-04
4.146733E+03	2.830416E-03	3.770893E-04
4.156677E+03	2.850622E-03	3.797627E-04
4.166621E+03	2.870777E-03	3.824290E-04
4.176565E+03	2.891096E-03	3.851170E-04
4.186509E+03	2.911370E-03	3.877985E-04
4.196454E+03	2.931705E-03	3.904880E-04
4.206398E+03	2.952102E-03	3.931855E-04
4.216342E+03	2.972457E-03	3.958771E-04
4.226286E+03	2.992875E-03	3.985770E-04
4.236231E+03	3.013252E-03	4.012710E-04
4.246175E+03	3.033588E-03	4.039592E-04
4.256119E+03	3.053881E-03	4.066415E-04
4.266063E+03	3.074234E-03	4.093315E-04
4.276007E+03	3.094541E-03	4.120151E-04
4.285952E+03	3.114697E-03	4.146783E-04
4.295896E+03	3.134905E-03	4.173483E-04
4.305840E+03	3.154956E-03	4.199971E-04
4.315784E+03	3.174950E-03	4.226380E-04
4.325728E+03	3.194781E-03	4.252570E-04
4.335673E+03	3.214547E-03	4.278670E-04
4.345617E+03	3.234243E-03	4.304675E-04
4.355561E+03	3.253663E-03	4.330309E-04
4.365505E+03	3.273004E-03	4.355837E-04
4.375449E+03	3.292160E-03	4.381117E-04
4.385394E+03	3.311128E-03	4.406143E-04
4.395338E+03	3.329903E-03	4.430910E-04
4.405282E+03	3.348482E-03	4.455414E-04
4.415226E+03	3.366860E-03	4.479649E-04
4.425170E+03	3.385033E-03	4.503609E-04
4.435115E+03	3.402900E-03	4.527160E-04
4.445059E+03	3.420457E-03	4.550296E-04
4.455003E+03	3.437801E-03	4.573147E-04
4.464947E+03	3.454928E-03	4.595707E-04
4.474891E+03	3.471737E-03	4.617842E-04
4.484836E+03	3.488226E-03	4.639549E-04
4.494780E+03	3.504391E-03	4.660825E-04
4.504724E+03	3.520232E-03	4.681667E-04
4.514668E+03	3.535844E-03	4.702202E-04
4.524612E+03	3.551029E-03	4.722168E-04
4.534557E+03	3.565885E-03	4.741695E-04
4.544501E+03	3.580409E-03	4.760779E-04
4.554445E+03	3.594599E-03	4.779418E-04
4.564389E+03	3.608456E-03	4.797612E-04
4.574333E+03	3.621882E-03	4.815231E-04
4.584278E+03	3.634973E-03	4.832404E-04
4.594222E+03	3.647632E-03	4.849001E-04
4.604166E+03	3.659957E-03	4.865153E-04
4.614110E+03	3.671946E-03	4.880858E-04
4.624054E+03	3.683507E-03	4.895991E-04
4.633999E+03	3.694638E-03	4.910554E-04
4.643943E+03	3.705439E-03	4.924675E-04
4.653887E+03	3.715814E-03	4.938229E-04
4.663831E+03	3.725766E-03	4.951220E-04
4.673775E+03	3.735392E-03	4.963778E-04
4.683720E+03	3.744599E-03	4.975778E-04
4.693664E+03	3.753391E-03	4.987226E-04
4.703608E+03	3.761771E-03	4.998125E-04
4.713552E+03	3.769836E-03	5.008605E-04
4.723496E+03	3.777494E-03	5.018544E-04
4.733441E+03	3.784750E-03	5.027949E-04
4.743385E+03	3.791608E-03	5.036824E-04
4.753329E+03	3.798164E-03	5.045297E-04
4.763273E+03	3.804237E-03	5.053129E-04
4.773217E+03	3.810015E-03	5.060568E-04
4.783162E+03	3.815410E-03	5.067498E-04
4.793106E+03	3.820425E-03	5.073924E-04
4.803050E+03	3.825157E-03	5.079974E-04
4.812994E+03	3.829426E-03	5.085408E-04
4.822938E+03	3.833419E-03	5.090476E-04
4.832883E+03	3.837047E-03	5.095060E-04
4.842827E+03	3.840314E-03	5.099165E-04
4.852771E+03	3.843315E-03	5.102915E-04
4.862715E+03	3.845872E-03	5.106076E-04
4.872660E+03	3.848167E-03	5.108891E-04
4.882604E+03	3.850203E-03	5.111361E-04
4.892548E+03	3.851805E-03	5.113255E-04
4.902492E+03	3.853152E-03	5.114813E-04
4.912436E+03	3.854160E-03	5.115919E-04
4.922381E+03	3.854917E-03	5.116693E-04
4.932325E+03	3.855337E-03	5.117020E-04
4.942269E+03	3.855422E-03	5.116904E-04
4.952213E+03	3.855260E-03	5.116461E-04
4.962157E+03	3.854854E-03	5.115694E-04
4.972102E+03	3.854030E-03	5.114372E-04
4.982046E+03	3.853049E-03	5.112843E-04
4.991990E+03	3.851652E-03	5.110764E-04
5.001934E+03	3.850099E-03	5.108477E-04
5.011878E+03	3.848132E-03	5.105642E-04
5.021823E+03	3.846009E-03	5.102601E-04
5.031767E+03	3.843558E-03	5.099127E-04
5.041711E+03	3.840866E-03	5.095334E-04
5.051655E+03	3.837848E-03	5.091108E-04
5.061599E+03	3.834588E-03	5.086563E-04
5.071544E+03	3.831002E-03	5.081587E-04
5.081488E+03	3.827260E-03	5.076404E-04
5.091432E+03	3.823193E-03	5.070793E-04
5.101376E+03	3.818887E-03	5.064864E-04
5.111320E+03	3.814257E-03	5.058508E-04
5.121265E+03	3.809389E-03	5.051838E-04
5.131209E+03	3.804367E-03	5.044964E-04
5.141153E+03	3.798943E-03	5.037559E-04
5.151097E+03	3.793367E-03	5.029954E-04
5.161041E+03	3.787559E-03	5.022041E-04
5.170986E+03	3.781438E-03	5.013717E-04
5.180930E+03	3.775090E-03	5.005093E-04
5.190874E+03	3.768518E-03	4.996173E-04
5.200818E+03	3.761725E-03	4.986961E-04
5.210762E+03	3.754715E-03	4.977464E-04
5.220707E+03	3.747492E-03	4.967686E-04
5.230651E+03	3.739981E-03	4.957529E-04
5.240595E+03	3.732348E-03	4.947211E-04
5.250539E+03	3.724519E-03	4.936634E-04
5.260483E+03	3.716419E-03	4.925702E-04
5.270428E+03	3.708137E-03	4.914529E-04
5.280372E+03	3.699758E-03	4.903230E-04
5.290316E+03	3.691134E-03	4.891607E-04
5.300260E+03	3.682349E-03	4.879774E-04
5.310204E+03	3.673416E-03	4.867745E-04
5.320149E+03	3.664419E-03	4.855636E-04
5.330093E+03	3.655215E-03	4.843253E-04
5.340037E+03	3.645893E-03	4.830715E-04
5.349981E+03	3.636539E-03	4.818138E-04
5.359925E+03	3.627011E-03	4.805333E-04
5.369870E+03	3.617401E-03	4.792420E-04
5.379814E+03	3.607796E-03	4.779515E-04
5.389758E+03	3.598057E-03	4.766436E-04
5.399702E+03	3.588350E-03	4.753402E-04
5.409646E+03	3.578613E-03	4.740330E-04
5.419591E+03	3.568786E-03	4.727139E-04
5.429535E+03	3.559033E-03	4.714050E-04
5.439479E+03	3.549293E-03	4.700980E-04
5.449423E+03	3.539657E-03	4.688049E-04
5.459367E+03	3.529990E-03	4.675080E-04
5.469312E+03	3.520456E-03	4.662287E-04
5.479256E+03	3.510994E-03	4.649594E-04
5.489200E+03	3.501620E-03	4.637018E-04
5.499144E+03	3.492350E-03	4.624581E-04
5.509089E+03	3.483269E-03	4.612397E-04
5.519033E+03	3.474319E-03	4.600389E-04
5.528977E+03	3.465514E-03	4.588574E-04
5.538921E+03	3.456940E-03	4.577067E-04
5.548865E+03	3.448538E-03	4.565789E-04
5.558810E+03	3.440320E-03	4.554757E-04
5.568754E+03	3.432370E-03	4.544081E-04
5.578698E+03	3.424629E-03	4.533684E-04
5.588642E+03	3.417179E-03	4.523674E-04
5.598586E+03	3.409959E-03	4.513970E-04
5.608531E+03	3.403051E-03	4.504681E-04
5.618475E+03	3.396464E-03	4.495819E-04
5.628419E+03	3.390136E-03	4.487300E-04
5.638363E+03	3.384074E-03	4.479136E-04
5.648307E+03	3.378358E-03	4.471431E-04
5.658252E+03	3.372995E-03	4.464194E-04
5.668196E+03	3.367989E-03	4.457432E-04
5.678140E+03	3.363277E-03	4.451059E-04
5.688084E+03	3.358932E-03	4.445176E-04
5.698028E+03	3.354959E-03	4.439785E-04
5.707973E+03	3.351361E-03	4.434891E-04
5.717917E+03	3.348069E-03	4.430405E-04
5.727861E+03	3.345156E-03	4.426421E-04
5.737805E+03	3.342693E-03	4.423033E-04
5.747749E+03	3.340538E-03	4.420054E-04
5.757694E+03	3.338761E-03	4.417578E-04
5.767638E+03	3.337361E-03	4.415600E-04
5.777582E+03	3.336334E-03	4.414119E-04
5.787526E+03	3.335678E-03	4.413128E-04
5.797470E+03	3.335388E-03	4.412623E-04
5.807415E+03	3.335458E-03	4.412597E-04
5.817359E+03	3.335885E-03	4.413042E-04
5.827303E+03	3.336659E-03	4.413949E-04
5.837247E+03	3.337775E-03	4.415309E-04
5.847191E+03	3.339224E-03	4.417110E-04
5.857136E+03	3.341068E-03	4.419435E-04
5.867080E+03	3.343226E-03	4.422177E-04
5.877024E+03	3.345616E-03	4.425228E-04
5.886968E+03	3.348370E-03	4.428760E-04
5.896912E+03	3.351476E-03	4.432758E-04
5.906857E+03	3.354776E-03	4.437015E-04
5.916801E+03	3.358403E-03	4.441705E-04
5.926745E+03	3.362197E-03	4.446617E-04
5.936689E+03	3.366359E-03	4.452017E-04
5.946633E+03	3.370658E-03	4.457600E-04
5.956578E+03	3.375150E-03	4.463437E-04
5.966522E+03	3.379889E-03	4.469604E-04
5.976466E+03	3.384860E-03	4.476078E-04
5.986410E+03	3.389898E-03	4.482642E-04
5.996354E+03	3.395131E-03	4.489464E-04
6.006299E+03	3.400466E-03	4.496423E-04
6.016243E+03	3.405884E-03	4.503494E-04
6.026187E+03	3.411439E-03	4.510745E-04
6.036131E+03	3.417037E-03	4.518055E-04
6.046075E+03	3.422657E-03	4.525396E-04
6.056020E+03	3.428352E-03	4.532837E-04
6.065964E+03	3.434027E-03	4.540253E-04
6.075908E+03	3.439737E-03	4.547715E-04
6.085852E+03	3.445309E-03	4.554997E-04
6.095796E+03	3.450947E-03	4.562368E-04
6.105741E+03	3.456404E-03	4.569501E-04
6.115685E+03	3.461810E-03	4.576568E-04
6.125629E+03	3.467144E-03	4.583541E-04
6.135573E+03	3.472233E-03	4.590191E-04
6.145518E+03	3.477208E-03	4.596693E-04
6.155462E+03	3.482049E-03	4.603020E-04
6.165406E+03	3.486660E-03	4.609043E-04
6.175350E+03	3.491099E-03	4.614841E-04
6.185294E+03	3.495193E-03	4.620183E-04
6.195239E+03	3.499154E-03	4.625353E-04
6.205183E+03	3.502811E-03	4.630122E-04
6.215127E+03	3.506147E-03	4.634469E-04
6.225071E+03	3.509224E-03	4.638475E-04
6.235015E+03	3.511950E-03	4.642018E-04
6.244960E+03	3.514389E-03	4.645184E-04
6.254904E+03	3.516449E-03	4.647851E-04
6.264848E+03	3.518197E-03	4.650107E-04
6.274792E+03	3.519623E-03	4.651939E-04
6.284736E+03	3.520638E-03	4.653231E-04
6.294681E+03	3.521314E-03	4.654075E-04
6.304625E+03	3.521563E-03	4.654357E-04
6.314569E+03	3.521458E-03	4.654174E-04
6.324513E+03	3.520917E-03	4.653414E-04
6.334457E+03	3.520013E-03	4.652178E-04
6.344402E+03	3.518746E-03	4.650464E-04
6.354346E+03	3.517113E-03	4.648268E-04
6.364290E+03	3.515037E-03	4.645486E-04
6.374234E+03	3.512596E-03	4.642226E-04
6.384178E+03	3.509795E-03	4.638490E-04
6.394123E+03	3.506636E-03	4.634284E-04
6.404067E+03	3.503045E-03	4.629508E-04
6.414011E+03	3.499186E-03	4.624381E-04
6.423955E+03	3.494909E-03	4.618701E-04
6.433899E+03	3.490300E-03	4.612585E-04
6.443844E+03	3.485368E-03	4.606044E-04
6.453788E+03	3.480124E-03	4.599091E-04
6.463732E+03	3.474497E-03	4.591635E-04
6.473676E+03	3.468659E-03	4.583901E-04
6.483620E+03	3.462542E-03	4.575801E-04
6.493565E+03	3.456161E-03	4.567352E-04
6.503509E+03	3.449526E-03	4.558571E-04
6.513453E+03	3.442654E-03	4.549476E-04
6.523397E+03	3.435557E-03	4.540087E-04
6.533341E+03	3.428251E-03	4.530423E-04
6.543286E+03	3.420750E-03	4.520503E-04
6.553230E+03	3.413150E-03	4.510452E-04
6.563174E+03	3.405385E-03	4.500186E-04
6.573118E+03	3.397472E-03	4.489725E-04
6.583062E+03	3.389424E-03	4.479089E-04
6.593007E+03	3.381338E-03	4.468402E-04
6.602951E+03	3.373147E-03	4.457579E-04
6.612895E+03	3.364867E-03	4.446639E-04
6.622839E+03	3.356591E-03	4.435706E-04
6.632783E+03	3.348253E-03	4.424693E-04
6.642728E+03	3.339946E-03	4.413723E-04
6.652672E+03	3.331525E-03	4.402601E-04
6.662616E+03	3.323237E-03	4.391659E-04
6.672560E+03	3.314938E-03	4.380702E-04
6.682504E+03	3.306636E-03	4.369743E-04
6.692449E+03	3.298422E-03	4.358902E-04
6.702393E+03	3.290225E-03	4.348084E-04
6.712337E+03	3.282132E-03	4.337404E-04
6.722281E+03	3.274149E-03	4.326873E-04
6.732225E+03	3.266206E-03	4.316395E-04
6.742170E+03	3.258385E-03	4.306078E-04
6.752114E+03	3.250611E-03	4.295827E-04
6.762058E+03	3.243046E-03	4.285852E-04
6.772002E+03	3.235456E-03	4.275846E-04
6.781946E+03	3.228077E-03	4.266118E-04
6.791891E+03	3.220752E-03	4.256465E-04
6.801835E+03	3.213481E-03	4.246884E-04
6.811779E+03	3.206418E-03	4.237579E-04
6.821723E+03	3.199403E-03	4.228338E-04
6.831668E+03	3.192509E-03	4.219259E-04
6.841612E+03	3.185655E-03	4.210235E-04
6.851556E+03	3.178911E-03	4.201356E-04
6.861500E+03	3.172271E-03	4.192616E-04
6.871444E+03	3.165726E-03	4.184002E-04
6.881389E+03	3.159188E-03	4.175400E-04
6.891333E+03	3.152727E-03	4.166900E-04
6.901277E+03	3.146330E-03	4.158487E-04
6.911221E+03	3.139987E-03	4.150146E-04
6.921165E+03	3.133609E-03	4.141759E-04
6.931110E+03	3.127258E-03	4.133410E-04
6.941054E+03	3.120846E-03	4.124981E-04
6.950998E+03	3.114434E-03	4.116554E-04
6.960942E+03	3.108008E-03	4.108109E-04
6.970886E+03	3.101555E-03	4.099629E-04
6.980831E+03	3.094980E-03	4.090991E-04
6.990775E+03	3.088348E-03	4.082276E-04
7.000719E+03	3.081564E-03	4.073363E-04
7.010663E+03	3.074690E-03	4.064332E-04
7.020607E+03	3.067710E-03	4.055164E-04
7.030552E+03	3.060535E-03	4.045737E-04
7.040496E+03	3.053148E-03	4.036031E-04
7.050440E+03	3.045610E-03	4.026127E-04
7.060384E+03	3.037908E-03	4.016008E-04
7.070328E+03	3.029952E-03	4.005554E-04
7.080273E+03	3.021805E-03	3.994849E-04
7.090217E+03	3.013380E-03	3.983776E-04
7.100161E+03	3.004663E-03	3.972319E-04
7.110105E+03	2.995720E-03	3.960566E-04
7.120049E+03	2.986467E-03	3.948402E-04
7.129994E+03	2.976894E-03	3.935817E-04
7.139938E+03	2.967069E-03	3.922901E-04
7.149882E+03	2.956911E-03	3.909544E-04
7.159826E+03	2.946415E-03	3.895742E-04
7.169770E+03	2.935577E-03	3.881488E-04
7.179715E+03	2.924468E-03	3.866878E-04
7.189659E+03	2.913014E-03	3.851811E-04
7.199603E+03	2.901213E-03	3.836289E-04
7.209547E+03	2.888997E-03	3.820216E-04
7.219491E+03	2.876512E-03	3.803790E-04
7.229436E+03	2.863692E-03	3.786921E-04
7.239380E+03	2.850614E-03	3.769712E-04
7.249324E+03	2.837139E-03	3.751980E-04
7.259268E+03	2.823279E-03	3.733739E-04
7.269212E+03	2.809187E-03	3.715192E-04
7.279157E+03	2.794802E-03	3.696257E-04
7.289101E+03	2.780137E-03	3.676953E-04
7.299045E+03	2.765134E-03	3.657203E-04
7.308989E+03	2.749880E-03	3.637122E-04
7.318933E+03	2.734391E-03	3.616730E-04
7.328878E+03	2.718682E-03	3.596049E-04
7.338822E+03	2.702774E-03	3.575104E-04
7.348766E+03	2.686614E-03	3.553826E-04
7.358710E+03	2.670292E-03	3.532335E-04
7.368654E+03	2.653760E-03	3.510566E-04
7.378599E+03	2.637106E-03	3.488637E-04
7.388543E+03	2.620353E-03	3.466577E-04
7.398487E+03	2.603454E-03	3.444324E-04
7.408431E+03	2.586498E-03	3.421997E-04
7.418375E+03	2.569442E-03	3.399537E-04
7.428320E+03	2.552374E-03	3.377062E-04
7.438264E+03	2.535316E-03	3.354600E-04
7.448208E+03	2.518159E-03	3.332008E-04
7.458152E+03	2.501057E-03	3.309488E-04
7.468097E+03	2.484031E-03	3.287071E-04
7.478041E+03	2.467040E-03	3.264698E-04
7.487985E+03	2.450167E-03	3.242482E-04
7.497929E+03	2.433305E-03	3.220282E-04
7.507873E+03	2.416604E-03	3.198295E-04
7.517818E+03	2.400082E-03	3.176545E-04
7.527762E+03	2.383696E-03	3.154974E-04
7.537706E+03	2.367464E-03	3.133607E-04
7.547650E+03	2.351403E-03	3.112468E-04
7.557594E+03	2.335593E-03	3.091660E-04
7.567539E+03	2.319926E-03	3.071042E-04
7.577483E+03	2.304601E-03	3.050878E-04
7.587427E+03	2.289451E-03	3.030943E-04
7.597371E+03	2.274548E-03	3.011337E-04
7.607315E+03	2.259965E-03	2.992155E-04
7.617260E+03	2.245655E-03	2.973333E-04
7.627204E+03	2.231628E-03	2.954885E-04
7.637148E+03	2.217953E-03	2.936905E-04
7.647092E+03	2.204522E-03	2.919246E-04
7.657036E+03	2.191460E-03	2.902077E-04
7.666981E+03	2.178660E-03	2.885253E-04
7.676925E+03	2.166244E-03	2.868940E-04
7.686869E+03	2.154163E-03	2.853068E-04
7.696813E+03	2.142420E-03	2.837645E-04
7.706757E+03	2.131025E-03	2.822682E-04
7.716702E+03	2.119980E-03	2.808184E-04
