#wls	flux	fluxerr
1.591072E+03	4.189191E-04	5.050293E-05
1.630849E+03	4.274628E-04	5.152499E-05
1.670626E+03	4.364945E-04	5.260534E-05
1.710403E+03	4.458755E-04	5.372723E-05
1.750180E+03	4.557709E-04	5.491052E-05
1.789957E+03	4.661165E-04	5.614743E-05
1.829733E+03	4.769239E-04	5.743928E-05
1.869510E+03	4.882869E-04	5.879734E-05
1.909287E+03	5.001362E-04	6.021322E-05
1.949064E+03	5.126534E-04	6.170871E-05
1.988841E+03	5.256825E-04	6.326495E-05
2.028617E+03	5.394096E-04	6.490431E-05
2.068394E+03	5.537613E-04	6.661785E-05
2.108171E+03	5.688405E-04	6.841790E-05
2.147948E+03	5.846619E-04	7.030613E-05
2.187725E+03	6.012386E-04	7.228404E-05
2.227501E+03	6.185817E-04	7.435284E-05
2.267278E+03	6.368980E-04	7.653732E-05
2.307055E+03	6.560036E-04	7.881526E-05
2.346832E+03	6.761059E-04	8.121147E-05
2.386609E+03	6.971127E-04	8.371476E-05
2.426386E+03	7.192369E-04	8.635055E-05
2.466162E+03	7.423790E-04	8.910676E-05
2.505939E+03	7.666477E-04	9.199630E-05
2.545716E+03	7.921510E-04	9.503197E-05
2.585493E+03	8.187731E-04	9.819971E-05
2.625270E+03	8.467284E-04	1.015251E-04
2.665046E+03	8.760045E-04	1.050064E-04
2.704823E+03	9.066986E-04	1.086551E-04
2.744600E+03	9.387840E-04	1.124678E-04
2.784377E+03	9.724686E-04	1.164692E-04
2.824154E+03	1.007466E-03	1.206248E-04
2.863930E+03	1.044215E-03	1.249868E-04
2.903707E+03	1.082533E-03	1.295331E-04
2.943484E+03	1.122469E-03	1.342694E-04
2.983261E+03	1.164194E-03	1.392158E-04
2.993205E+03	1.174958E-03	1.404915E-04
3.003149E+03	1.185696E-03	1.417640E-04
3.013094E+03	1.196666E-03	1.430639E-04
3.023038E+03	1.207607E-03	1.443600E-04
3.032982E+03	1.218777E-03	1.456832E-04
3.042926E+03	1.230042E-03	1.470177E-04
3.052870E+03	1.241402E-03	1.483630E-04
3.062815E+03	1.252855E-03	1.497193E-04
3.072759E+03	1.264398E-03	1.510860E-04
3.082703E+03	1.276159E-03	1.524785E-04
3.092647E+03	1.287875E-03	1.538653E-04
3.102591E+03	1.299807E-03	1.552776E-04
3.112536E+03	1.311950E-03	1.567149E-04
3.122480E+03	1.324040E-03	1.581455E-04
3.132424E+03	1.336337E-03	1.596006E-04
3.142368E+03	1.348709E-03	1.610642E-04
3.152312E+03	1.361150E-03	1.625358E-04
3.162257E+03	1.373791E-03	1.640310E-04
3.172201E+03	1.386498E-03	1.655336E-04
3.182145E+03	1.399266E-03	1.670433E-04
3.192089E+03	1.412225E-03	1.685755E-04
3.202033E+03	1.425241E-03	1.701141E-04
3.211978E+03	1.438442E-03	1.716744E-04
3.221922E+03	1.451691E-03	1.732403E-04
3.231866E+03	1.465121E-03	1.748273E-04
3.241810E+03	1.478594E-03	1.764190E-04
3.251754E+03	1.492239E-03	1.780310E-04
3.261699E+03	1.506054E-03	1.796629E-04
3.271643E+03	1.519901E-03	1.812983E-04
3.281587E+03	1.533776E-03	1.829366E-04
3.291531E+03	1.547945E-03	1.846096E-04
3.301475E+03	1.562000E-03	1.862686E-04
3.311420E+03	1.576341E-03	1.879613E-04
3.321364E+03	1.590695E-03	1.896553E-04
3.331308E+03	1.605326E-03	1.913820E-04
3.341252E+03	1.619829E-03	1.930929E-04
3.351196E+03	1.634602E-03	1.948356E-04
3.361141E+03	1.649506E-03	1.965936E-04
3.371085E+03	1.664404E-03	1.983504E-04
3.381029E+03	1.679425E-03	2.001215E-04
3.390973E+03	1.694566E-03	2.019064E-04
3.400917E+03	1.709821E-03	2.037046E-04
3.410862E+03	1.725186E-03	2.055155E-04
3.420806E+03	1.740658E-03	2.073386E-04
3.430750E+03	1.756231E-03	2.091734E-04
3.440694E+03	1.771903E-03	2.110195E-04
3.450638E+03	1.787667E-03	2.128762E-04
3.460583E+03	1.803654E-03	2.147590E-04
3.470527E+03	1.819592E-03	2.166354E-04
3.480471E+03	1.835610E-03	2.185210E-04
3.490415E+03	1.851836E-03	2.204310E-04
3.500359E+03	1.868134E-03	2.223490E-04
3.510304E+03	1.884500E-03	2.242746E-04
3.520248E+03	1.900927E-03	2.262071E-04
3.530192E+03	1.917415E-03	2.281463E-04
3.540136E+03	1.934088E-03	2.301071E-04
3.550080E+03	1.950811E-03	2.320734E-04
3.560025E+03	1.967712E-03	2.340604E-04
3.569969E+03	1.984655E-03	2.360519E-04
3.579913E+03	2.001637E-03	2.380475E-04
3.589857E+03	2.018783E-03	2.400623E-04
3.599802E+03	2.035961E-03	2.420803E-04
3.609746E+03	2.053166E-03	2.441010E-04
3.619690E+03	2.070525E-03	2.461395E-04
3.629634E+03	2.088033E-03	2.481953E-04
3.639578E+03	2.105559E-03	2.502527E-04
3.649523E+03	2.123228E-03	2.523266E-04
3.659467E+03	2.140908E-03	2.544012E-04
3.669411E+03	2.158596E-03	2.564764E-04
3.679355E+03	2.176547E-03	2.585822E-04
3.689299E+03	2.194501E-03	2.606879E-04
3.699244E+03	2.212582E-03	2.628082E-04
3.709188E+03	2.230664E-03	2.649281E-04
3.719132E+03	2.248869E-03	2.670620E-04
3.729076E+03	2.267197E-03	2.692100E-04
3.739020E+03	2.285519E-03	2.713568E-04
3.748965E+03	2.303959E-03	2.735171E-04
3.758909E+03	2.322518E-03	2.756909E-04
3.768853E+03	2.341068E-03	2.778632E-04
3.778797E+03	2.359858E-03	2.800634E-04
3.788741E+03	2.378639E-03	2.822619E-04
3.798686E+03	2.397412E-03	2.844590E-04
3.808630E+03	2.416423E-03	2.866837E-04
3.818574E+03	2.435426E-03	2.889070E-04
3.828518E+03	2.454545E-03	2.911434E-04
3.838462E+03	2.473780E-03	2.933930E-04
3.848407E+03	2.493010E-03	2.956415E-04
3.858351E+03	2.512360E-03	2.979037E-04
3.868295E+03	2.531830E-03	3.001795E-04
3.878239E+03	2.551421E-03	3.024691E-04
3.888183E+03	2.571016E-03	3.047586E-04
3.898128E+03	2.590738E-03	3.070626E-04
3.908072E+03	2.610589E-03	3.093812E-04
3.918016E+03	2.630453E-03	3.117008E-04
3.927960E+03	2.650451E-03	3.140358E-04
3.937904E+03	2.670587E-03	3.163865E-04
3.947849E+03	2.690748E-03	3.187396E-04
3.957793E+03	2.710938E-03	3.210954E-04
3.967737E+03	2.731276E-03	3.234683E-04
3.977681E+03	2.751767E-03	3.258587E-04
3.987625E+03	2.772300E-03	3.282534E-04
3.997570E+03	2.792879E-03	3.306530E-04
4.007514E+03	2.813625E-03	3.330717E-04
4.017458E+03	2.834426E-03	3.354964E-04
4.027402E+03	2.855290E-03	3.379279E-04
4.037346E+03	2.876332E-03	3.403799E-04
4.047291E+03	2.897334E-03	3.428265E-04
4.057235E+03	2.918525E-03	3.452949E-04
4.067179E+03	2.939797E-03	3.477722E-04
4.077123E+03	2.961046E-03	3.502462E-04
4.087067E+03	2.982497E-03	3.527434E-04
4.097012E+03	3.003934E-03	3.552385E-04
4.106956E+03	3.025473E-03	3.577449E-04
4.116900E+03	3.047118E-03	3.602632E-04
4.126844E+03	3.068764E-03	3.627811E-04
4.136788E+03	3.090525E-03	3.653119E-04
4.146733E+03	3.112296E-03	3.678433E-04
4.156677E+03	3.134189E-03	3.703885E-04
4.166621E+03	3.156100E-03	3.729352E-04
4.176565E+03	3.178031E-03	3.754836E-04
4.186509E+03	3.199881E-03	3.780218E-04
4.196454E+03	3.221863E-03	3.805750E-04
4.206398E+03	3.243874E-03	3.831311E-04
4.216342E+03	3.265809E-03	3.856775E-04
4.226286E+03	3.287881E-03	3.882395E-04
4.236231E+03	3.309775E-03	3.907798E-04
4.246175E+03	3.331700E-03	3.933233E-04
4.256119E+03	3.353657E-03	3.958697E-04
4.266063E+03	3.375435E-03	3.983946E-04
4.276007E+03	3.397243E-03	4.009224E-04
4.285952E+03	3.418869E-03	4.034281E-04
4.295896E+03	3.440519E-03	4.059360E-04
4.305840E+03	3.461982E-03	4.084214E-04
4.315784E+03	3.483360E-03	4.108960E-04
4.325728E+03	3.504543E-03	4.133471E-04
4.335673E+03	3.525631E-03	4.157865E-04
4.345617E+03	3.546517E-03	4.182014E-04
4.355561E+03	3.567297E-03	4.206034E-04
4.365505E+03	3.587763E-03	4.229678E-04
4.375449E+03	3.608013E-03	4.253061E-04
4.385394E+03	3.628043E-03	4.276180E-04
4.395338E+03	3.647848E-03	4.299028E-04
4.405282E+03	3.667325E-03	4.321486E-04
4.415226E+03	3.686573E-03	4.343667E-04
4.425170E+03	3.705587E-03	4.365570E-04
4.435115E+03	3.724169E-03	4.386959E-04
4.445059E+03	3.742516E-03	4.408065E-04
4.455003E+03	3.760528E-03	4.428772E-04
4.464947E+03	3.778202E-03	4.449078E-04
4.474891E+03	3.795441E-03	4.468867E-04
4.484836E+03	3.812440E-03	4.488369E-04
4.494780E+03	3.829001E-03	4.507352E-04
4.504724E+03	3.845223E-03	4.525931E-04
4.514668E+03	3.861007E-03	4.543991E-04
4.524612E+03	3.876450E-03	4.561646E-04
4.534557E+03	3.891454E-03	4.578781E-04
4.544501E+03	3.906115E-03	4.595509E-04
4.554445E+03	3.920337E-03	4.611717E-04
4.564389E+03	3.934027E-03	4.627295E-04
4.574333E+03	3.947373E-03	4.642467E-04
4.584278E+03	3.960282E-03	4.657122E-04
4.594222E+03	3.972756E-03	4.671261E-04
4.604166E+03	3.984794E-03	4.684886E-04
4.614110E+03	3.996399E-03	4.697998E-04
4.624054E+03	4.007571E-03	4.710601E-04
4.633999E+03	4.018222E-03	4.722587E-04
4.643943E+03	4.028445E-03	4.734068E-04
4.653887E+03	4.038244E-03	4.745050E-04
4.663831E+03	4.047530E-03	4.755426E-04
4.673775E+03	4.056398E-03	4.765310E-04
4.683720E+03	4.064852E-03	4.774705E-04
4.693664E+03	4.072895E-03	4.783618E-04
4.703608E+03	4.080441E-03	4.791944E-04
4.713552E+03	4.087495E-03	4.799690E-04
4.723496E+03	4.094242E-03	4.807076E-04
4.733441E+03	4.100415E-03	4.813787E-04
4.743385E+03	4.106292E-03	4.820149E-04
4.753329E+03	4.111695E-03	4.825955E-04
4.763273E+03	4.116630E-03	4.831211E-04
4.773217E+03	4.121194E-03	4.836030E-04
4.783162E+03	4.125390E-03	4.840417E-04
4.793106E+03	4.129134E-03	4.844274E-04
4.803050E+03	4.132520E-03	4.847712E-04
4.812994E+03	4.135554E-03	4.850735E-04
4.822938E+03	4.138151E-03	4.853247E-04
4.832883E+03	4.140404E-03	4.855356E-04
4.842827E+03	4.142319E-03	4.857067E-04
4.852771E+03	4.143811E-03	4.858285E-04
4.862715E+03	4.145059E-03	4.859216E-04
4.872660E+03	4.145893E-03	4.859663E-04
4.882604E+03	4.146319E-03	4.859632E-04
4.892548E+03	4.146511E-03	4.859329E-04
4.902492E+03	4.146386E-03	4.858654E-04
4.912436E+03	4.145863E-03	4.857515E-04
4.922381E+03	4.145030E-03	4.856013E-04
4.932325E+03	4.143974E-03	4.854252E-04
4.942269E+03	4.142527E-03	4.852034E-04
4.952213E+03	4.140862E-03	4.849563E-04
4.962157E+03	4.138812E-03	4.846642E-04
4.972102E+03	4.136547E-03	4.843470E-04
4.982046E+03	4.133983E-03	4.839952E-04
4.991990E+03	4.131123E-03	4.836088E-04
5.001934E+03	4.127969E-03	4.831881E-04
5.011878E+03	4.124520E-03	4.827332E-04
5.021823E+03	4.120861E-03	4.822539E-04
5.031767E+03	4.116910E-03	4.817407E-04
5.041711E+03	4.112750E-03	4.812033E-04
5.051655E+03	4.108218E-03	4.806225E-04
5.061599E+03	4.103560E-03	4.800273E-04
5.071544E+03	4.098531E-03	4.793889E-04
5.081488E+03	4.093295E-03	4.787267E-04
5.091432E+03	4.087853E-03	4.780406E-04
5.101376E+03	4.082125E-03	4.773214E-04
5.111320E+03	4.076112E-03	4.765692E-04
5.121265E+03	4.069896E-03	4.757934E-04
5.131209E+03	4.063477E-03	4.749944E-04
5.141153E+03	4.056777E-03	4.741628E-04
5.151097E+03	4.049800E-03	4.732990E-04
5.161041E+03	4.042704E-03	4.724218E-04
5.170986E+03	4.035255E-03	4.715036E-04
5.180930E+03	4.027692E-03	4.705726E-04
5.190874E+03	4.019861E-03	4.696105E-04
5.200818E+03	4.011844E-03	4.686271E-04
5.210762E+03	4.003565E-03	4.676135E-04
5.220707E+03	3.995108E-03	4.665795E-04
5.230651E+03	3.986477E-03	4.655255E-04
5.240595E+03	3.977599E-03	4.644432E-04
5.250539E+03	3.968633E-03	4.633509E-04
5.260483E+03	3.959357E-03	4.622228E-04
5.270428E+03	3.950004E-03	4.610863E-04
5.280372E+03	3.940430E-03	4.599242E-04
5.290316E+03	3.930717E-03	4.587466E-04
5.300260E+03	3.920799E-03	4.575453E-04
5.310204E+03	3.910834E-03	4.563390E-04
5.320149E+03	3.900681E-03	4.551112E-04
5.330093E+03	3.890349E-03	4.538630E-04
5.340037E+03	3.879997E-03	4.526131E-04
5.349981E+03	3.869488E-03	4.513452E-04
5.359925E+03	3.858908E-03	4.500694E-04
5.369870E+03	3.848267E-03	4.487870E-04
5.379814E+03	3.837505E-03	4.474910E-04
5.389758E+03	3.826781E-03	4.462000E-04
5.399702E+03	3.815963E-03	4.448984E-04
5.409646E+03	3.805138E-03	4.435965E-04
5.419591E+03	3.794249E-03	4.422875E-04
5.429535E+03	3.783454E-03	4.409899E-04
5.439479E+03	3.772623E-03	4.396887E-04
5.449423E+03	3.761845E-03	4.383940E-04
5.459367E+03	3.751132E-03	4.371074E-04
5.469312E+03	3.740572E-03	4.358391E-04
5.479256E+03	3.729966E-03	4.345659E-04
5.489200E+03	3.719542E-03	4.333143E-04
5.499144E+03	3.709243E-03	4.320777E-04
5.509089E+03	3.699084E-03	4.308578E-04
5.519033E+03	3.689078E-03	4.296563E-04
5.528977E+03	3.679240E-03	4.284747E-04
5.538921E+03	3.669583E-03	4.273145E-04
5.548865E+03	3.660120E-03	4.261774E-04
5.558810E+03	3.650932E-03	4.250728E-04
5.568754E+03	3.641894E-03	4.239860E-04
5.578698E+03	3.633155E-03	4.229344E-04
5.588642E+03	3.624658E-03	4.219114E-04
5.598586E+03	3.616482E-03	4.209260E-04
5.608531E+03	3.608499E-03	4.199636E-04
5.618475E+03	3.600856E-03	4.190412E-04
5.628419E+03	3.593562E-03	4.181596E-04
5.638363E+03	3.586556E-03	4.173120E-04
5.648307E+03	3.579846E-03	4.164992E-04
5.658252E+03	3.573506E-03	4.157298E-04
5.668196E+03	3.567477E-03	4.149969E-04
5.678140E+03	3.561828E-03	4.143086E-04
5.688084E+03	3.556566E-03	4.136656E-04
5.698028E+03	3.551627E-03	4.130604E-04
5.707973E+03	3.547081E-03	4.125014E-04
5.717917E+03	3.542863E-03	4.119807E-04
5.727861E+03	3.539109E-03	4.115144E-04
5.737805E+03	3.535686E-03	4.110869E-04
5.747749E+03	3.532660E-03	4.107058E-04
5.757694E+03	3.529964E-03	4.103634E-04
5.767638E+03	3.527729E-03	4.100749E-04
5.777582E+03	3.525888E-03	4.098323E-04
5.787526E+03	3.524368E-03	4.096275E-04
5.797470E+03	3.523300E-03	4.094755E-04
5.807415E+03	3.522545E-03	4.093601E-04
5.817359E+03	3.522164E-03	4.092885E-04
5.827303E+03	3.522219E-03	4.092677E-04
5.837247E+03	3.522567E-03	4.092812E-04
5.847191E+03	3.523335E-03	4.093439E-04
5.857136E+03	3.524446E-03	4.094466E-04
5.867080E+03	3.525823E-03	4.095805E-04
5.877024E+03	3.527592E-03	4.097602E-04
5.886968E+03	3.529673E-03	4.099764E-04
5.896912E+03	3.532054E-03	4.102277E-04
5.906857E+03	3.534724E-03	4.105127E-04
5.916801E+03	3.537735E-03	4.108378E-04
5.926745E+03	3.540939E-03	4.111854E-04
5.936689E+03	3.544458E-03	4.115697E-04
5.946633E+03	3.548206E-03	4.119810E-04
5.956578E+03	3.552169E-03	4.124175E-04
5.966522E+03	3.556398E-03	4.128852E-04
5.976466E+03	3.560739E-03	4.133660E-04
5.986410E+03	3.565312E-03	4.138741E-04
5.996354E+03	3.570029E-03	4.143992E-04
6.006299E+03	3.574942E-03	4.149473E-04
6.016243E+03	3.579892E-03	4.154999E-04
6.026187E+03	3.584999E-03	4.160710E-04
6.036131E+03	3.590173E-03	4.166502E-04
6.046075E+03	3.595393E-03	4.172350E-04
6.056020E+03	3.600711E-03	4.178313E-04
6.065964E+03	3.605963E-03	4.184204E-04
6.075908E+03	3.611270E-03	4.190162E-04
6.085852E+03	3.616541E-03	4.196080E-04
6.095796E+03	3.621826E-03	4.202018E-04
6.105741E+03	3.627031E-03	4.207866E-04
6.115685E+03	3.632138E-03	4.213603E-04
6.125629E+03	3.637123E-03	4.219203E-04
6.135573E+03	3.641967E-03	4.224642E-04
6.145518E+03	3.646721E-03	4.229980E-04
6.155462E+03	3.651293E-03	4.235111E-04
6.165406E+03	3.655737E-03	4.240097E-04
6.175350E+03	3.659888E-03	4.244745E-04
6.185294E+03	3.663872E-03	4.249205E-04
6.195239E+03	3.667673E-03	4.253456E-04
6.205183E+03	3.671127E-03	4.257308E-04
6.215127E+03	3.674364E-03	4.260912E-04
6.225071E+03	3.677295E-03	4.264166E-04
6.235015E+03	3.679979E-03	4.267138E-04
6.244960E+03	3.682330E-03	4.269726E-04
6.254904E+03	3.684333E-03	4.271916E-04
6.264848E+03	3.686053E-03	4.273780E-04
6.274792E+03	3.687403E-03	4.275220E-04
6.284736E+03	3.688449E-03	4.276312E-04
6.294681E+03	3.689108E-03	4.276958E-04
6.304625E+03	3.689447E-03	4.277238E-04
6.314569E+03	3.689386E-03	4.277057E-04
6.324513E+03	3.688917E-03	4.276408E-04
6.334457E+03	3.688113E-03	4.275374E-04
6.344402E+03	3.686972E-03	4.273953E-04
6.354346E+03	3.685414E-03	4.272053E-04
6.364290E+03	3.683516E-03	4.269762E-04
6.374234E+03	3.681201E-03	4.266992E-04
6.384178E+03	3.678623E-03	4.263921E-04
6.394123E+03	3.675556E-03	4.260287E-04
6.404067E+03	3.672231E-03	4.256357E-04
6.414011E+03	3.668501E-03	4.251962E-04
6.423955E+03	3.664446E-03	4.247194E-04
6.433899E+03	3.660073E-03	4.242061E-04
6.443844E+03	3.655389E-03	4.236572E-04
6.453788E+03	3.650401E-03	4.230733E-04
6.463732E+03	3.645042E-03	4.224467E-04
6.473676E+03	3.639472E-03	4.217961E-04
6.483620E+03	3.633549E-03	4.211051E-04
6.493565E+03	3.627359E-03	4.203834E-04
6.503509E+03	3.620990E-03	4.196412E-04
6.513453E+03	3.614376E-03	4.188711E-04
6.523397E+03	3.607452E-03	4.180654E-04
6.533341E+03	3.600383E-03	4.172432E-04
6.543286E+03	3.593104E-03	4.163971E-04
6.553230E+03	3.585628E-03	4.155284E-04
6.563174E+03	3.578042E-03	4.146473E-04
6.573118E+03	3.570284E-03	4.137465E-04
6.583062E+03	3.562364E-03	4.128275E-04
6.593007E+03	3.554371E-03	4.119002E-04
6.602951E+03	3.546241E-03	4.109574E-04
6.612895E+03	3.537985E-03	4.100003E-04
6.622839E+03	3.529690E-03	4.090391E-04
6.632783E+03	3.521293E-03	4.080662E-04
6.642728E+03	3.512877E-03	4.070916E-04
6.652672E+03	3.504455E-03	4.061164E-04
6.662616E+03	3.495958E-03	4.051330E-04
6.672560E+03	3.487471E-03	4.041510E-04
6.682504E+03	3.478928E-03	4.031629E-04
6.692449E+03	3.470410E-03	4.021779E-04
6.702393E+03	3.461926E-03	4.011971E-04
6.712337E+03	3.453405E-03	4.002124E-04
6.722281E+03	3.445003E-03	3.992417E-04
6.732225E+03	3.436573E-03	3.982682E-04
6.742170E+03	3.428195E-03	3.973009E-04
6.752114E+03	3.419871E-03	3.963402E-04
6.762058E+03	3.411529E-03	3.953775E-04
6.772002E+03	3.403318E-03	3.944305E-04
6.781946E+03	3.395088E-03	3.934816E-04
6.791891E+03	3.386915E-03	3.925394E-04
6.801835E+03	3.378795E-03	3.916038E-04
6.811779E+03	3.370802E-03	3.906831E-04
6.821723E+03	3.362782E-03	3.897595E-04
6.831668E+03	3.354805E-03	3.888413E-04
6.841612E+03	3.346867E-03	3.879278E-04
6.851556E+03	3.338961E-03	3.870183E-04
6.861500E+03	3.331081E-03	3.861121E-04
6.871444E+03	3.323144E-03	3.851995E-04
6.881389E+03	3.315291E-03	3.842970E-04
6.891333E+03	3.307439E-03	3.833949E-04
6.901277E+03	3.299579E-03	3.824921E-04
6.911221E+03	3.291700E-03	3.815874E-04
6.921165E+03	3.283719E-03	3.806711E-04
6.931110E+03	3.275771E-03	3.797589E-04
6.941054E+03	3.267772E-03	3.788411E-04
6.950998E+03	3.259637E-03	3.779077E-04
6.960942E+03	3.251427E-03	3.769660E-04
6.970886E+03	3.243204E-03	3.760229E-04
6.980831E+03	3.234808E-03	3.750601E-04
6.990775E+03	3.226301E-03	3.740848E-04
7.000719E+03	3.217672E-03	3.730954E-04
7.010663E+03	3.208834E-03	3.720822E-04
7.020607E+03	3.199922E-03	3.710606E-04
7.030552E+03	3.190779E-03	3.700125E-04
7.040496E+03	3.181466E-03	3.689450E-04
7.050440E+03	3.171973E-03	3.678567E-04
7.060384E+03	3.162217E-03	3.667383E-04
7.070328E+03	3.152261E-03	3.655970E-04
7.080273E+03	3.142097E-03	3.644317E-04
7.090217E+03	3.131643E-03	3.632330E-04
7.100161E+03	3.120965E-03	3.620086E-04
7.110105E+03	3.109985E-03	3.607494E-04
7.120049E+03	3.098767E-03	3.594630E-04
7.129994E+03	3.087309E-03	3.581488E-04
7.139938E+03	3.075465E-03	3.567901E-04
7.149882E+03	3.063373E-03	3.554028E-04
7.159826E+03	3.051034E-03	3.539870E-04
7.169770E+03	3.038375E-03	3.525344E-04
7.179715E+03	3.025398E-03	3.510452E-04
7.189659E+03	3.012107E-03	3.495196E-04
7.199603E+03	2.998574E-03	3.479662E-04
7.209547E+03	2.984664E-03	3.463693E-04
7.219491E+03	2.970524E-03	3.447459E-04
7.229436E+03	2.956091E-03	3.430885E-04
7.239380E+03	2.941373E-03	3.413984E-04
7.249324E+03	2.926381E-03	3.396766E-04
7.259268E+03	2.911124E-03	3.379243E-04
7.269212E+03	2.895549E-03	3.361352E-04
7.279157E+03	2.879803E-03	3.343263E-04
7.289101E+03	2.863832E-03	3.324915E-04
7.299045E+03	2.847586E-03	3.306250E-04
7.308989E+03	2.831146E-03	3.287361E-04
7.318933E+03	2.814532E-03	3.268270E-04
7.328878E+03	2.797693E-03	3.248920E-04
7.338822E+03	2.780779E-03	3.229485E-04
7.348766E+03	2.763681E-03	3.209836E-04
7.358710E+03	2.746416E-03	3.189995E-04
7.368654E+03	2.729072E-03	3.170063E-04
7.378599E+03	2.711667E-03	3.150062E-04
7.388543E+03	2.694161E-03	3.129944E-04
7.398487E+03	2.676636E-03	3.109805E-04
7.408431E+03	2.659054E-03	3.089600E-04
7.418375E+03	2.641433E-03	3.069352E-04
7.428320E+03	2.623861E-03	3.049161E-04
7.438264E+03	2.606356E-03	3.029049E-04
7.448208E+03	2.588820E-03	3.008900E-04
7.458152E+03	2.571394E-03	2.988882E-04
7.468097E+03	2.554101E-03	2.969018E-04
7.478041E+03	2.536839E-03	2.949191E-04
7.487985E+03	2.519751E-03	2.929567E-04
7.497929E+03	2.502796E-03	2.910098E-04
7.507873E+03	2.486053E-03	2.890875E-04
7.517818E+03	2.469480E-03	2.871853E-04
7.527762E+03	2.453039E-03	2.852983E-04
7.537706E+03	2.436864E-03	2.834424E-04
7.547650E+03	2.420971E-03	2.816192E-04
7.557594E+03	2.405259E-03	2.798173E-04
7.567539E+03	2.389803E-03	2.780452E-04
7.577483E+03	2.374673E-03	2.763110E-04
7.587427E+03	2.359824E-03	2.746095E-04
7.597371E+03	2.345268E-03	2.729422E-04
7.607315E+03	2.331017E-03	2.713102E-04
7.617260E+03	2.317078E-03	2.697146E-04
7.627204E+03	2.303461E-03	2.681566E-04
7.637148E+03	2.290173E-03	2.666369E-04
7.647092E+03	2.277221E-03	2.651563E-04
7.657036E+03	2.264611E-03	2.637154E-04
7.666981E+03	2.252348E-03	2.623151E-04
7.676925E+03	2.240439E-03	2.609558E-04
7.686869E+03	2.228886E-03	2.596381E-04
7.696813E+03	2.217694E-03	2.583624E-04
7.706757E+03	2.206920E-03	2.571356E-04
7.716702E+03	2.196462E-03	2.559453E-04
