#wls	flux	fluxerr
1.591072E+03	2.288772E-04	3.851343E-05
1.630849E+03	2.322326E-04	3.907775E-05
1.670626E+03	2.356932E-04	3.965977E-05
1.710403E+03	2.392607E-04	4.025974E-05
1.750180E+03	2.429776E-04	4.088485E-05
1.789957E+03	2.468048E-04	4.152850E-05
1.829733E+03	2.507436E-04	4.219089E-05
1.869510E+03	2.548379E-04	4.287945E-05
1.909287E+03	2.590473E-04	4.358734E-05
1.949064E+03	2.634167E-04	4.432211E-05
1.988841E+03	2.679486E-04	4.508423E-05
2.028617E+03	2.726010E-04	4.586657E-05
2.068394E+03	2.774658E-04	4.668464E-05
2.108171E+03	2.824553E-04	4.752366E-05
2.147948E+03	2.876173E-04	4.839167E-05
2.187725E+03	2.929547E-04	4.928915E-05
2.227501E+03	2.985180E-04	5.022460E-05
2.267278E+03	3.042637E-04	5.119071E-05
2.307055E+03	3.101951E-04	5.218803E-05
2.346832E+03	3.163650E-04	5.322544E-05
2.386609E+03	3.227790E-04	5.430387E-05
2.426386E+03	3.293921E-04	5.541577E-05
2.466162E+03	3.362602E-04	5.657049E-05
2.505939E+03	3.433898E-04	5.776918E-05
2.545716E+03	3.507883E-04	5.901305E-05
2.585493E+03	3.584637E-04	6.030345E-05
2.625270E+03	3.664784E-04	6.165087E-05
2.665046E+03	3.747898E-04	6.304816E-05
2.704823E+03	3.834639E-04	6.450638E-05
2.744600E+03	3.924592E-04	6.601858E-05
2.784377E+03	4.019018E-04	6.760596E-05
2.824154E+03	4.116977E-04	6.925268E-05
2.863930E+03	4.219219E-04	7.097137E-05
2.903707E+03	4.326544E-04	7.277550E-05
2.943484E+03	4.438633E-04	7.465965E-05
2.983261E+03	4.555762E-04	7.662850E-05
2.993205E+03	4.586241E-04	7.714083E-05
3.003149E+03	4.616912E-04	7.765638E-05
3.013094E+03	4.647779E-04	7.817522E-05
3.023038E+03	4.678846E-04	7.869742E-05
3.032982E+03	4.710723E-04	7.923324E-05
3.042926E+03	4.742812E-04	7.977262E-05
3.052870E+03	4.775120E-04	8.031567E-05
3.062815E+03	4.808260E-04	8.087270E-05
3.072759E+03	4.841631E-04	8.143363E-05
3.082703E+03	4.875239E-04	8.199853E-05
3.092647E+03	4.909705E-04	8.257784E-05
3.102591E+03	4.944422E-04	8.316139E-05
3.112536E+03	4.979397E-04	8.374925E-05
3.122480E+03	5.015257E-04	8.435200E-05
3.132424E+03	5.050767E-04	8.494885E-05
3.142368E+03	5.087804E-04	8.557138E-05
3.152312E+03	5.124505E-04	8.618824E-05
3.162257E+03	5.162129E-04	8.682063E-05
3.172201E+03	5.200057E-04	8.745813E-05
3.182145E+03	5.238298E-04	8.810088E-05
3.192089E+03	5.277496E-04	8.875970E-05
3.202033E+03	5.317025E-04	8.942409E-05
3.211978E+03	5.356894E-04	9.009420E-05
3.221922E+03	5.397755E-04	9.078097E-05
3.231866E+03	5.438977E-04	9.147382E-05
3.241810E+03	5.481217E-04	9.218376E-05
3.251754E+03	5.523191E-04	9.288924E-05
3.261699E+03	5.566207E-04	9.361222E-05
3.271643E+03	5.610279E-04	9.435296E-05
3.281587E+03	5.654113E-04	9.508969E-05
3.291531E+03	5.699031E-04	9.584463E-05
3.301475E+03	5.745048E-04	9.661805E-05
3.311420E+03	5.791520E-04	9.739910E-05
3.321364E+03	5.838458E-04	9.818800E-05
3.331308E+03	5.885874E-04	9.898491E-05
3.341252E+03	5.934450E-04	9.980133E-05
3.351196E+03	5.983534E-04	1.006263E-04
3.361141E+03	6.033136E-04	1.014599E-04
3.371085E+03	6.083944E-04	1.023138E-04
3.381029E+03	6.135306E-04	1.031771E-04
3.390973E+03	6.187235E-04	1.040498E-04
3.400917E+03	6.240423E-04	1.049437E-04
3.410862E+03	6.294207E-04	1.058476E-04
3.420806E+03	6.348600E-04	1.067618E-04
3.430750E+03	6.404312E-04	1.076981E-04
3.440694E+03	6.460662E-04	1.086451E-04
3.450638E+03	6.518379E-04	1.096152E-04
3.460583E+03	6.576775E-04	1.105966E-04
3.470527E+03	6.635858E-04	1.115895E-04
3.480471E+03	6.695650E-04	1.125944E-04
3.490415E+03	6.756880E-04	1.136234E-04
3.500359E+03	6.818850E-04	1.146649E-04
3.510304E+03	6.881583E-04	1.157192E-04
3.520248E+03	6.945802E-04	1.167984E-04
3.530192E+03	7.010815E-04	1.178910E-04
3.540136E+03	7.077367E-04	1.190095E-04
3.550080E+03	7.144001E-04	1.201293E-04
3.560025E+03	7.212940E-04	1.212879E-04
3.569969E+03	7.281990E-04	1.224483E-04
3.579913E+03	7.352646E-04	1.236357E-04
3.589857E+03	7.424167E-04	1.248377E-04
3.599802E+03	7.496564E-04	1.260543E-04
3.609746E+03	7.570602E-04	1.272985E-04
3.619690E+03	7.645534E-04	1.285578E-04
3.629634E+03	7.721361E-04	1.298321E-04
3.639578E+03	7.798841E-04	1.311341E-04
3.649523E+03	7.877215E-04	1.324512E-04
3.659467E+03	7.956477E-04	1.337832E-04
3.669411E+03	8.037386E-04	1.351428E-04
3.679355E+03	8.118370E-04	1.365037E-04
3.689299E+03	8.201760E-04	1.379051E-04
3.699244E+03	8.285173E-04	1.393068E-04
3.709188E+03	8.370160E-04	1.407349E-04
3.719132E+03	8.455879E-04	1.421754E-04
3.729076E+03	8.542296E-04	1.436275E-04
3.739020E+03	8.630144E-04	1.451037E-04
3.748965E+03	8.718564E-04	1.465895E-04
3.758909E+03	8.807483E-04	1.480837E-04
3.768853E+03	8.896806E-04	1.495847E-04
3.778797E+03	8.987263E-04	1.511046E-04
3.788741E+03	9.077932E-04	1.526282E-04
3.798686E+03	9.168689E-04	1.541532E-04
3.808630E+03	9.259402E-04	1.556774E-04
3.818574E+03	9.350776E-04	1.572127E-04
3.828518E+03	9.441813E-04	1.587423E-04
3.838462E+03	9.532359E-04	1.602637E-04
3.848407E+03	9.622234E-04	1.617738E-04
3.858351E+03	9.712125E-04	1.632841E-04
3.868295E+03	9.800993E-04	1.647771E-04
3.878239E+03	9.888641E-04	1.662497E-04
3.888183E+03	9.974890E-04	1.676987E-04
3.898128E+03	1.006041E-03	1.691355E-04
3.908072E+03	1.014329E-03	1.705278E-04
3.918016E+03	1.022510E-03	1.719021E-04
3.927960E+03	1.030480E-03	1.732409E-04
3.937904E+03	1.038224E-03	1.745418E-04
3.947849E+03	1.045820E-03	1.758177E-04
3.957793E+03	1.053080E-03	1.770370E-04
3.967737E+03	1.060173E-03	1.782284E-04
3.977681E+03	1.067008E-03	1.793764E-04
3.987625E+03	1.073495E-03	1.804658E-04
3.997570E+03	1.079905E-03	1.815423E-04
4.007514E+03	1.085979E-03	1.825621E-04
4.017458E+03	1.091815E-03	1.835422E-04
4.027402E+03	1.097431E-03	1.844851E-04
4.037346E+03	1.102938E-03	1.854096E-04
4.047291E+03	1.108267E-03	1.863044E-04
4.057235E+03	1.113361E-03	1.871595E-04
4.067179E+03	1.118429E-03	1.880103E-04
4.077123E+03	1.123420E-03	1.888480E-04
4.087067E+03	1.128372E-03	1.896792E-04
4.097012E+03	1.133328E-03	1.905111E-04
4.106956E+03	1.138333E-03	1.913513E-04
4.116900E+03	1.143436E-03	1.922079E-04
4.126844E+03	1.148687E-03	1.930892E-04
4.136788E+03	1.154137E-03	1.940041E-04
4.146733E+03	1.159839E-03	1.949613E-04
4.156677E+03	1.165846E-03	1.959699E-04
4.166621E+03	1.172303E-03	1.970540E-04
4.176565E+03	1.179086E-03	1.981928E-04
4.186509E+03	1.186338E-03	1.994106E-04
4.196454E+03	1.194115E-03	2.007165E-04
4.206398E+03	1.202470E-03	2.021196E-04
4.216342E+03	1.211458E-03	2.036290E-04
4.226286E+03	1.221129E-03	2.052533E-04
4.236231E+03	1.231537E-03	2.070013E-04
4.246175E+03	1.242638E-03	2.088659E-04
4.256119E+03	1.254665E-03	2.108861E-04
4.266063E+03	1.267480E-03	2.130386E-04
4.276007E+03	1.281309E-03	2.153617E-04
4.285952E+03	1.296010E-03	2.178311E-04
4.295896E+03	1.311805E-03	2.204845E-04
4.305840E+03	1.328538E-03	2.232955E-04
4.315784E+03	1.346332E-03	2.262848E-04
4.325728E+03	1.365110E-03	2.294395E-04
4.335673E+03	1.385084E-03	2.327950E-04
4.345617E+03	1.406161E-03	2.363361E-04
4.355561E+03	1.428242E-03	2.400456E-04
4.365505E+03	1.451411E-03	2.439381E-04
4.375449E+03	1.475646E-03	2.480096E-04
4.385394E+03	1.500910E-03	2.522540E-04
4.395338E+03	1.527046E-03	2.566450E-04
4.405282E+03	1.554092E-03	2.611889E-04
4.415226E+03	1.581967E-03	2.658719E-04
4.425170E+03	1.610571E-03	2.706775E-04
4.435115E+03	1.639790E-03	2.755863E-04
4.445059E+03	1.669376E-03	2.805568E-04
4.455003E+03	1.699289E-03	2.855821E-04
4.464947E+03	1.729364E-03	2.906347E-04
4.474891E+03	1.759421E-03	2.956841E-04
4.484836E+03	1.789148E-03	3.006780E-04
4.494780E+03	1.818460E-03	3.056022E-04
4.504724E+03	1.847028E-03	3.104011E-04
4.514668E+03	1.874887E-03	3.150809E-04
4.524612E+03	1.901584E-03	3.195654E-04
4.534557E+03	1.926917E-03	3.238205E-04
4.544501E+03	1.950953E-03	3.278576E-04
4.554445E+03	1.973265E-03	3.316051E-04
4.564389E+03	1.993704E-03	3.350377E-04
4.574333E+03	2.012407E-03	3.381785E-04
4.584278E+03	2.029017E-03	3.409677E-04
4.594222E+03	2.043471E-03	3.433944E-04
4.604166E+03	2.055870E-03	3.454757E-04
4.614110E+03	2.066217E-03	3.472123E-04
4.624054E+03	2.074548E-03	3.486101E-04
4.633999E+03	2.080799E-03	3.496582E-04
4.643943E+03	2.085065E-03	3.503729E-04
4.653887E+03	2.087738E-03	3.508197E-04
4.663831E+03	2.088696E-03	3.509784E-04
4.673775E+03	2.088105E-03	3.508769E-04
4.683720E+03	2.086277E-03	3.505676E-04
4.693664E+03	2.083402E-03	3.500823E-04
4.703608E+03	2.079545E-03	3.494319E-04
4.713552E+03	2.075033E-03	3.486716E-04
4.723496E+03	2.069935E-03	3.478127E-04
4.733441E+03	2.064569E-03	3.469090E-04
4.743385E+03	2.058994E-03	3.459700E-04
4.753329E+03	2.053512E-03	3.450466E-04
4.763273E+03	2.048284E-03	3.441661E-04
4.773217E+03	2.043335E-03	3.433324E-04
4.783162E+03	2.038927E-03	3.425897E-04
4.793106E+03	2.035059E-03	3.419375E-04
4.803050E+03	2.031963E-03	3.414152E-04
4.812994E+03	2.029610E-03	3.410177E-04
4.822938E+03	2.028203E-03	3.407792E-04
4.832883E+03	2.027686E-03	3.406902E-04
4.842827E+03	2.028235E-03	3.407805E-04
4.852771E+03	2.029773E-03	3.410366E-04
4.862715E+03	2.032450E-03	3.414844E-04
4.872660E+03	2.036165E-03	3.421065E-04
4.882604E+03	2.041051E-03	3.429254E-04
4.892548E+03	2.047111E-03	3.439414E-04
4.902492E+03	2.054216E-03	3.451330E-04
4.912436E+03	2.062352E-03	3.464979E-04
4.922381E+03	2.071623E-03	3.480534E-04
4.932325E+03	2.082003E-03	3.497952E-04
4.942269E+03	2.093338E-03	3.516975E-04
4.952213E+03	2.105592E-03	3.537541E-04
4.962157E+03	2.118848E-03	3.559791E-04
4.972102E+03	2.133063E-03	3.583651E-04
4.982046E+03	2.148063E-03	3.608830E-04
4.991990E+03	2.163793E-03	3.635237E-04
5.001934E+03	2.180324E-03	3.662987E-04
5.011878E+03	2.197595E-03	3.691981E-04
5.021823E+03	2.215413E-03	3.721893E-04
5.031767E+03	2.233705E-03	3.752602E-04
5.041711E+03	2.252525E-03	3.784197E-04
5.051655E+03	2.271792E-03	3.816543E-04
5.061599E+03	2.291286E-03	3.849271E-04
5.071544E+03	2.310913E-03	3.882220E-04
5.081488E+03	2.330703E-03	3.915444E-04
5.091432E+03	2.350550E-03	3.948764E-04
5.101376E+03	2.370204E-03	3.981757E-04
5.111320E+03	2.389680E-03	4.014452E-04
5.121265E+03	2.408714E-03	4.046405E-04
5.131209E+03	2.427172E-03	4.077390E-04
5.141153E+03	2.445059E-03	4.107414E-04
5.151097E+03	2.462236E-03	4.136247E-04
5.161041E+03	2.478426E-03	4.163420E-04
5.170986E+03	2.493631E-03	4.188939E-04
5.180930E+03	2.507574E-03	4.212337E-04
5.190874E+03	2.520268E-03	4.233637E-04
5.200818E+03	2.531447E-03	4.252394E-04
5.210762E+03	2.541142E-03	4.268656E-04
5.220707E+03	2.549106E-03	4.282011E-04
5.230651E+03	2.555394E-03	4.292550E-04
5.240595E+03	2.559786E-03	4.299904E-04
5.250539E+03	2.562368E-03	4.304217E-04
5.260483E+03	2.563096E-03	4.305417E-04
5.270428E+03	2.561655E-03	4.302972E-04
5.280372E+03	2.558467E-03	4.297595E-04
5.290316E+03	2.553252E-03	4.288812E-04
5.300260E+03	2.546177E-03	4.276905E-04
5.310204E+03	2.537135E-03	4.261694E-04
5.320149E+03	2.526179E-03	4.243268E-04
5.330093E+03	2.513654E-03	4.222208E-04
5.340037E+03	2.499213E-03	4.197928E-04
5.349981E+03	2.483357E-03	4.171274E-04
5.359925E+03	2.465897E-03	4.141925E-04
5.369870E+03	2.446929E-03	4.110043E-04
5.379814E+03	2.426690E-03	4.076028E-04
5.389758E+03	2.405279E-03	4.040043E-04
5.399702E+03	2.382664E-03	4.002038E-04
5.409646E+03	2.359082E-03	3.962409E-04
5.419591E+03	2.334505E-03	3.921109E-04
5.429535E+03	2.309167E-03	3.878531E-04
5.439479E+03	2.283169E-03	3.834844E-04
5.449423E+03	2.256485E-03	3.790007E-04
5.459367E+03	2.229346E-03	3.744406E-04
5.469312E+03	2.201732E-03	3.698008E-04
5.479256E+03	2.173872E-03	3.651196E-04
5.489200E+03	2.145871E-03	3.604149E-04
5.499144E+03	2.117723E-03	3.556854E-04
5.509089E+03	2.089542E-03	3.509507E-04
5.519033E+03	2.061680E-03	3.462693E-04
5.528977E+03	2.034025E-03	3.416229E-04
5.538921E+03	2.006705E-03	3.370328E-04
5.548865E+03	1.980070E-03	3.325578E-04
5.558810E+03	1.954027E-03	3.281824E-04
5.568754E+03	1.928711E-03	3.239291E-04
5.578698E+03	1.904363E-03	3.198383E-04
5.588642E+03	1.881110E-03	3.159314E-04
5.598586E+03	1.858977E-03	3.122128E-04
5.608531E+03	1.838293E-03	3.087376E-04
5.618475E+03	1.818872E-03	3.054745E-04
5.628419E+03	1.801129E-03	3.024931E-04
5.638363E+03	1.784964E-03	2.997771E-04
5.648307E+03	1.770573E-03	2.973589E-04
5.658252E+03	1.757940E-03	2.952359E-04
5.668196E+03	1.747232E-03	2.934363E-04
5.678140E+03	1.738506E-03	2.919695E-04
5.688084E+03	1.731709E-03	2.908267E-04
5.698028E+03	1.726965E-03	2.900287E-04
5.707973E+03	1.724285E-03	2.895773E-04
5.717917E+03	1.723664E-03	2.894720E-04
5.727861E+03	1.724989E-03	2.896931E-04
5.737805E+03	1.728314E-03	2.902505E-04
5.747749E+03	1.733492E-03	2.911187E-04
5.757694E+03	1.740640E-03	2.923179E-04
5.767638E+03	1.749478E-03	2.938011E-04
5.777582E+03	1.759903E-03	2.955505E-04
5.787526E+03	1.771989E-03	2.975790E-04
5.797470E+03	1.785409E-03	2.998316E-04
5.807415E+03	1.800118E-03	3.023005E-04
5.817359E+03	1.815964E-03	3.049603E-04
5.827303E+03	1.832686E-03	3.077673E-04
5.837247E+03	1.850223E-03	3.107112E-04
5.847191E+03	1.868414E-03	3.137647E-04
5.857136E+03	1.887101E-03	3.169016E-04
5.867080E+03	1.906030E-03	3.200791E-04
5.877024E+03	1.925166E-03	3.232915E-04
5.886968E+03	1.944390E-03	3.265186E-04
5.896912E+03	1.963600E-03	3.297433E-04
5.906857E+03	1.982607E-03	3.329339E-04
5.916801E+03	2.001468E-03	3.360998E-04
5.926745E+03	2.020154E-03	3.392366E-04
5.936689E+03	2.038671E-03	3.423448E-04
5.946633E+03	2.056936E-03	3.454108E-04
5.956578E+03	2.075237E-03	3.484827E-04
5.966522E+03	2.093432E-03	3.515369E-04
5.976466E+03	2.111748E-03	3.546113E-04
5.986410E+03	2.130198E-03	3.577083E-04
5.996354E+03	2.149169E-03	3.608929E-04
6.006299E+03	2.168589E-03	3.641527E-04
6.016243E+03	2.188748E-03	3.675365E-04
6.026187E+03	2.209822E-03	3.710741E-04
6.036131E+03	2.231986E-03	3.747948E-04
6.046075E+03	2.255285E-03	3.787059E-04
6.056020E+03	2.280125E-03	3.828758E-04
6.065964E+03	2.306395E-03	3.872858E-04
6.075908E+03	2.334341E-03	3.919774E-04
6.085852E+03	2.364060E-03	3.969665E-04
6.095796E+03	2.395485E-03	4.022422E-04
6.105741E+03	2.428917E-03	4.078548E-04
6.115685E+03	2.464088E-03	4.137592E-04
6.125629E+03	2.501231E-03	4.199950E-04
6.135573E+03	2.539994E-03	4.265028E-04
6.145518E+03	2.580396E-03	4.332857E-04
6.155462E+03	2.622128E-03	4.402919E-04
6.165406E+03	2.665279E-03	4.475365E-04
6.175350E+03	2.709310E-03	4.549286E-04
6.185294E+03	2.754236E-03	4.624711E-04
6.195239E+03	2.799430E-03	4.700585E-04
6.205183E+03	2.844688E-03	4.776567E-04
6.215127E+03	2.889625E-03	4.852011E-04
6.225071E+03	2.933832E-03	4.926228E-04
6.235015E+03	2.976882E-03	4.998503E-04
6.244960E+03	3.018168E-03	5.067816E-04
6.254904E+03	3.057588E-03	5.133994E-04
6.264848E+03	3.094365E-03	5.195735E-04
6.274792E+03	3.128424E-03	5.252912E-04
6.284736E+03	3.159016E-03	5.304268E-04
6.294681E+03	3.185948E-03	5.349479E-04
6.304625E+03	3.208890E-03	5.387990E-04
6.314569E+03	3.227554E-03	5.419320E-04
6.324513E+03	3.241707E-03	5.443073E-04
6.334457E+03	3.251165E-03	5.458944E-04
6.344402E+03	3.255618E-03	5.466411E-04
6.354346E+03	3.255368E-03	5.465982E-04
6.364290E+03	3.250035E-03	5.457019E-04
6.374234E+03	3.240037E-03	5.440222E-04
6.384178E+03	3.225105E-03	5.415143E-04
6.394123E+03	3.205575E-03	5.382343E-04
6.404067E+03	3.181820E-03	5.342449E-04
6.414011E+03	3.153711E-03	5.295245E-04
6.423955E+03	3.121696E-03	5.241482E-04
6.433899E+03	3.086065E-03	5.181651E-04
6.443844E+03	3.047131E-03	5.116272E-04
6.453788E+03	3.005219E-03	5.045893E-04
6.463732E+03	2.960491E-03	4.970788E-04
6.473676E+03	2.913626E-03	4.892093E-04
6.483620E+03	2.864783E-03	4.810080E-04
6.493565E+03	2.814293E-03	4.725299E-04
6.503509E+03	2.762314E-03	4.638021E-04
6.513453E+03	2.709474E-03	4.549297E-04
6.523397E+03	2.655752E-03	4.459092E-04
6.533341E+03	2.601734E-03	4.368390E-04
6.543286E+03	2.547380E-03	4.277125E-04
6.553230E+03	2.493232E-03	4.186205E-04
6.563174E+03	2.439230E-03	4.095531E-04
6.573118E+03	2.385869E-03	4.005934E-04
6.583062E+03	2.333072E-03	3.917284E-04
6.593007E+03	2.281160E-03	3.830121E-04
6.602951E+03	2.230430E-03	3.744942E-04
6.612895E+03	2.180777E-03	3.661571E-04
6.622839E+03	2.132475E-03	3.580470E-04
6.632783E+03	2.085654E-03	3.501855E-04
6.642728E+03	2.040435E-03	3.425930E-04
6.652672E+03	1.997042E-03	3.353072E-04
6.662616E+03	1.955345E-03	3.283062E-04
6.672560E+03	1.915553E-03	3.216249E-04
6.682504E+03	1.877751E-03	3.152779E-04
6.692449E+03	1.842018E-03	3.092781E-04
6.702393E+03	1.808426E-03	3.036380E-04
6.712337E+03	1.777041E-03	2.983684E-04
6.722281E+03	1.747926E-03	2.934799E-04
6.732225E+03	1.721139E-03	2.889823E-04
6.742170E+03	1.696732E-03	2.848845E-04
6.752114E+03	1.674759E-03	2.811952E-04
6.762058E+03	1.655268E-03	2.779226E-04
6.772002E+03	1.638306E-03	2.750748E-04
6.781946E+03	1.623919E-03	2.726593E-04
6.791891E+03	1.612154E-03	2.706841E-04
6.801835E+03	1.603057E-03	2.691568E-04
6.811779E+03	1.596581E-03	2.680696E-04
6.821723E+03	1.592961E-03	2.674618E-04
6.831668E+03	1.592151E-03	2.673260E-04
6.841612E+03	1.594203E-03	2.676708E-04
6.851556E+03	1.599172E-03	2.685053E-04
6.861500E+03	1.607114E-03	2.698389E-04
6.871444E+03	1.617993E-03	2.716657E-04
6.881389E+03	1.632060E-03	2.740279E-04
6.891333E+03	1.649287E-03	2.769206E-04
6.901277E+03	1.669741E-03	2.803552E-04
6.911221E+03	1.693392E-03	2.843265E-04
6.921165E+03	1.720510E-03	2.888801E-04
6.931110E+03	1.751070E-03	2.940115E-04
6.941054E+03	1.785037E-03	2.997152E-04
6.950998E+03	1.822692E-03	3.060379E-04
6.960942E+03	1.863997E-03	3.129736E-04
6.970886E+03	1.908899E-03	3.205133E-04
6.980831E+03	1.957674E-03	3.287033E-04
6.990775E+03	2.010132E-03	3.375118E-04
7.000719E+03	2.066531E-03	3.469820E-04
7.010663E+03	2.126632E-03	3.570738E-04
7.020607E+03	2.190662E-03	3.678254E-04
7.030552E+03	2.258309E-03	3.791845E-04
7.040496E+03	2.329749E-03	3.911803E-04
7.050440E+03	2.404572E-03	4.037444E-04
7.060384E+03	2.482728E-03	4.168680E-04
7.070328E+03	2.564123E-03	4.305357E-04
7.080273E+03	2.648148E-03	4.446451E-04
7.090217E+03	2.734572E-03	4.591572E-04
7.100161E+03	2.822932E-03	4.739947E-04
7.110105E+03	2.912690E-03	4.890669E-04
7.120049E+03	3.003219E-03	5.042686E-04
7.129994E+03	3.093805E-03	5.194801E-04
7.139938E+03	3.183651E-03	5.345675E-04
7.149882E+03	3.271883E-03	5.493838E-04
7.159826E+03	3.357554E-03	5.637702E-04
7.169770E+03	3.439661E-03	5.775585E-04
7.179715E+03	3.516951E-03	5.905379E-04
7.189659E+03	3.588783E-03	6.026010E-04
7.199603E+03	3.653675E-03	6.134989E-04
7.209547E+03	3.711046E-03	6.231340E-04
7.219491E+03	3.759498E-03	6.312716E-04
7.229436E+03	3.798623E-03	6.378432E-04
7.239380E+03	3.827235E-03	6.426496E-04
7.249324E+03	3.844982E-03	6.456316E-04
7.259268E+03	3.851463E-03	6.467219E-04
7.269212E+03	3.846472E-03	6.458861E-04
7.279157E+03	3.830011E-03	6.431241E-04
7.289101E+03	3.802290E-03	6.384715E-04
7.299045E+03	3.763727E-03	6.319983E-04
7.308989E+03	3.714705E-03	6.237690E-04
7.318933E+03	3.656467E-03	6.139920E-04
7.328878E+03	3.589496E-03	6.027485E-04
7.338822E+03	3.515285E-03	5.902893E-04
7.348766E+03	3.434538E-03	5.767324E-04
7.358710E+03	3.348657E-03	5.623135E-04
7.368654E+03	3.258845E-03	5.472344E-04
7.378599E+03	3.166288E-03	5.316941E-04
7.388543E+03	3.072124E-03	5.158839E-04
7.398487E+03	2.977243E-03	4.999533E-04
7.408431E+03	2.883002E-03	4.841301E-04
7.418375E+03	2.789927E-03	4.685025E-04
7.428320E+03	2.699141E-03	4.532593E-04
7.438264E+03	2.610971E-03	4.384552E-04
7.448208E+03	2.526139E-03	4.242116E-04
7.458152E+03	2.445090E-03	4.106031E-04
7.468097E+03	2.368015E-03	3.976619E-04
7.478041E+03	2.295461E-03	3.854798E-04
7.487985E+03	2.227436E-03	3.740583E-04
7.497929E+03	2.163896E-03	3.633897E-04
7.507873E+03	2.105002E-03	3.535013E-04
7.517818E+03	2.050720E-03	3.443875E-04
7.527762E+03	2.000969E-03	3.360344E-04
7.537706E+03	1.955630E-03	3.284221E-04
7.547650E+03	1.914429E-03	3.215048E-04
7.557594E+03	1.877430E-03	3.152931E-04
7.567539E+03	1.844197E-03	3.097138E-04
7.577483E+03	1.814633E-03	3.047507E-04
7.587427E+03	1.788510E-03	3.003653E-04
7.597371E+03	1.765586E-03	2.965172E-04
7.607315E+03	1.745505E-03	2.931466E-04
7.617260E+03	1.728233E-03	2.902476E-04
7.627204E+03	1.713291E-03	2.877400E-04
7.637148E+03	1.700527E-03	2.855981E-04
7.647092E+03	1.689675E-03	2.837774E-04
7.657036E+03	1.680470E-03	2.822334E-04
7.666981E+03	1.672542E-03	2.809037E-04
7.676925E+03	1.665841E-03	2.797801E-04
7.686869E+03	1.659896E-03	2.787835E-04
7.696813E+03	1.654563E-03	2.778897E-04
7.706757E+03	1.649598E-03	2.770577E-04
7.716702E+03	1.644666E-03	2.762312E-04
