#wls	flux	fluxerr
1.591072E+03	2.408725E-04	8.055484E-05
1.630849E+03	2.437124E-04	8.150295E-05
1.670626E+03	2.466405E-04	8.248039E-05
1.710403E+03	2.496581E-04	8.348754E-05
1.750180E+03	2.527663E-04	8.452479E-05
1.789957E+03	2.559228E-04	8.557792E-05
1.829733E+03	2.592158E-04	8.667647E-05
1.869510E+03	2.626032E-04	8.780635E-05
1.909287E+03	2.660866E-04	8.896803E-05
1.949064E+03	2.697128E-04	9.017716E-05
1.988841E+03	2.733931E-04	9.140405E-05
2.028617E+03	2.772202E-04	9.267974E-05
2.068394E+03	2.811509E-04	9.398967E-05
2.108171E+03	2.852341E-04	9.535026E-05
2.147948E+03	2.894259E-04	9.674675E-05
2.187725E+03	2.937767E-04	9.819603E-05
2.227501E+03	2.982424E-04	9.968323E-05
2.267278E+03	3.028258E-04	1.012094E-04
2.307055E+03	3.076294E-04	1.028086E-04
2.346832E+03	3.125601E-04	1.044498E-04
2.386609E+03	3.176724E-04	1.061512E-04
2.426386E+03	3.229730E-04	1.079149E-04
2.466162E+03	3.284689E-04	1.097432E-04
2.505939E+03	3.341159E-04	1.116215E-04
2.545716E+03	3.400260E-04	1.135870E-04
2.585493E+03	3.461575E-04	1.156257E-04
2.625270E+03	3.525210E-04	1.177412E-04
2.665046E+03	3.591825E-04	1.199555E-04
2.704823E+03	3.660479E-04	1.222370E-04
2.744600E+03	3.732407E-04	1.246269E-04
2.784377E+03	3.807235E-04	1.271128E-04
2.824154E+03	3.885712E-04	1.297195E-04
2.863930E+03	3.968066E-04	1.324547E-04
2.903707E+03	4.053973E-04	1.353073E-04
2.943484E+03	4.143693E-04	1.382860E-04
2.983261E+03	4.238110E-04	1.414202E-04
2.993205E+03	4.262950E-04	1.422448E-04
3.003149E+03	4.287409E-04	1.430566E-04
3.013094E+03	4.312678E-04	1.438953E-04
3.023038E+03	4.337572E-04	1.447214E-04
3.032982E+03	4.363289E-04	1.455749E-04
3.042926E+03	4.389239E-04	1.464361E-04
3.052870E+03	4.415429E-04	1.473052E-04
3.062815E+03	4.442468E-04	1.482025E-04
3.072759E+03	4.469155E-04	1.490880E-04
3.082703E+03	4.496708E-04	1.500023E-04
3.092647E+03	4.524528E-04	1.509254E-04
3.102591E+03	4.552622E-04	1.518575E-04
3.112536E+03	4.581612E-04	1.528194E-04
3.122480E+03	4.610276E-04	1.537704E-04
3.132424E+03	4.639854E-04	1.547517E-04
3.142368E+03	4.669115E-04	1.557224E-04
3.152312E+03	4.699311E-04	1.567241E-04
3.162257E+03	4.730455E-04	1.577574E-04
3.172201E+03	4.761304E-04	1.587807E-04
3.182145E+03	4.792492E-04	1.598151E-04
3.192089E+03	4.824660E-04	1.608822E-04
3.202033E+03	4.857187E-04	1.619611E-04
3.211978E+03	4.890084E-04	1.630522E-04
3.221922E+03	4.923360E-04	1.641558E-04
3.231866E+03	4.957667E-04	1.652937E-04
3.241810E+03	4.991732E-04	1.664234E-04
3.251754E+03	5.026855E-04	1.675883E-04
3.261699E+03	5.062401E-04	1.687671E-04
3.271643E+03	5.098383E-04	1.699603E-04
3.281587E+03	5.134812E-04	1.711683E-04
3.291531E+03	5.172357E-04	1.724133E-04
3.301475E+03	5.209717E-04	1.736521E-04
3.311420E+03	5.248224E-04	1.749289E-04
3.321364E+03	5.287231E-04	1.762223E-04
3.331308E+03	5.326753E-04	1.775327E-04
3.341252E+03	5.367477E-04	1.788830E-04
3.351196E+03	5.408071E-04	1.802288E-04
3.361141E+03	5.449901E-04	1.816156E-04
3.371085E+03	5.492308E-04	1.830215E-04
3.381029E+03	5.535307E-04	1.844470E-04
3.390973E+03	5.578915E-04	1.858926E-04
3.400917E+03	5.623147E-04	1.873588E-04
3.410862E+03	5.668716E-04	1.888694E-04
3.420806E+03	5.714252E-04	1.903788E-04
3.430750E+03	5.761167E-04	1.919339E-04
3.440694E+03	5.808783E-04	1.935122E-04
3.450638E+03	5.857120E-04	1.951143E-04
3.460583E+03	5.906910E-04	1.967646E-04
3.470527E+03	5.956752E-04	1.984165E-04
3.480471E+03	6.008097E-04	2.001182E-04
3.490415E+03	6.060251E-04	2.018467E-04
3.500359E+03	6.113239E-04	2.036028E-04
3.510304E+03	6.167083E-04	2.053872E-04
3.520248E+03	6.221808E-04	2.072006E-04
3.530192E+03	6.278178E-04	2.090687E-04
3.540136E+03	6.334738E-04	2.109429E-04
3.550080E+03	6.393003E-04	2.128736E-04
3.560025E+03	6.452263E-04	2.148372E-04
3.569969E+03	6.512537E-04	2.168344E-04
3.579913E+03	6.573860E-04	2.188662E-04
3.589857E+03	6.637028E-04	2.209593E-04
3.599802E+03	6.700542E-04	2.230636E-04
3.609746E+03	6.765974E-04	2.252314E-04
3.619690E+03	6.832583E-04	2.274383E-04
3.629634E+03	6.900406E-04	2.296852E-04
3.639578E+03	6.969485E-04	2.319737E-04
3.649523E+03	7.039848E-04	2.343047E-04
3.659467E+03	7.112340E-04	2.367062E-04
3.669411E+03	7.185396E-04	2.391262E-04
3.679355E+03	7.260663E-04	2.416195E-04
3.689299E+03	7.336571E-04	2.441338E-04
3.699244E+03	7.414784E-04	2.467246E-04
3.709188E+03	7.494541E-04	2.493663E-04
3.719132E+03	7.576721E-04	2.520884E-04
3.729076E+03	7.659699E-04	2.548367E-04
3.739020E+03	7.744363E-04	2.576408E-04
3.748965E+03	7.831614E-04	2.605305E-04
3.758909E+03	7.919800E-04	2.634511E-04
3.768853E+03	8.010690E-04	2.664612E-04
3.778797E+03	8.103495E-04	2.695346E-04
3.788741E+03	8.198259E-04	2.726728E-04
3.798686E+03	8.295049E-04	2.758780E-04
3.808630E+03	8.393923E-04	2.791521E-04
3.815417E+03	2.106896E-04	7.006545E-05
3.818658E+03	2.404484E-04	7.996049E-05
3.821899E+03	2.603977E-04	8.659313E-05
3.825140E+03	2.769193E-04	9.208570E-05
3.828381E+03	2.844444E-04	9.458648E-05
3.831623E+03	2.785622E-04	9.262891E-05
3.834864E+03	2.759507E-04	9.175897E-05
3.838104E+03	2.846597E-04	9.465329E-05
3.841345E+03	2.975693E-04	9.894423E-05
3.844586E+03	3.160280E-04	1.050801E-04
3.847828E+03	3.297128E-04	1.096285E-04
3.851069E+03	3.421228E-04	1.137528E-04
3.854309E+03	3.557697E-04	1.182883E-04
3.857550E+03	3.761358E-04	1.250576E-04
3.860792E+03	3.989304E-04	1.326341E-04
3.864033E+03	4.242320E-04	1.410438E-04
3.867274E+03	4.501833E-04	1.496693E-04
3.870515E+03	4.739901E-04	1.575814E-04
3.873756E+03	4.941034E-04	1.642654E-04
3.876997E+03	5.171417E-04	1.719216E-04
3.880238E+03	5.423919E-04	1.803128E-04
3.883479E+03	5.649966E-04	1.878242E-04
3.886721E+03	5.898124E-04	1.960705E-04
3.889961E+03	6.159593E-04	2.047589E-04
3.893202E+03	6.431025E-04	2.137783E-04
3.896443E+03	6.731658E-04	2.237679E-04
3.899685E+03	6.982409E-04	2.320991E-04
3.902926E+03	7.213424E-04	2.397740E-04
3.906166E+03	7.456913E-04	2.478633E-04
3.909407E+03	7.728337E-04	2.568808E-04
3.912648E+03	8.011793E-04	2.662979E-04
3.915890E+03	8.285548E-04	2.753922E-04
3.919131E+03	8.552102E-04	2.842468E-04
3.922372E+03	8.803536E-04	2.925987E-04
3.925613E+03	9.055718E-04	3.009750E-04
3.928854E+03	9.329544E-04	3.100704E-04
3.932095E+03	9.578635E-04	3.183434E-04
3.935336E+03	9.765012E-04	3.245319E-04
3.938578E+03	9.955085E-04	3.308430E-04
3.941818E+03	1.014885E-03	3.372766E-04
3.945059E+03	1.030833E-03	3.425705E-04
3.948300E+03	1.041476E-03	3.461011E-04
3.951541E+03	1.055453E-03	3.507397E-04
3.954783E+03	1.068716E-03	3.551409E-04
3.958024E+03	1.081474E-03	3.593742E-04
3.961264E+03	1.093811E-03	3.634672E-04
3.964505E+03	1.101015E-03	3.658547E-04
3.967747E+03	1.107049E-03	3.678530E-04
3.970988E+03	1.110163E-03	3.688812E-04
3.974229E+03	1.111234E-03	3.692303E-04
3.977469E+03	1.118721E-03	3.717115E-04
3.980711E+03	1.129414E-03	3.752577E-04
3.983952E+03	1.141979E-03	3.794255E-04
3.987193E+03	1.153455E-03	3.832316E-04
3.990434E+03	1.159015E-03	3.850718E-04
3.993675E+03	1.166779E-03	3.876444E-04
3.996916E+03	1.173208E-03	3.897733E-04
4.000157E+03	1.182840E-03	3.929664E-04
4.003398E+03	1.195007E-03	3.970013E-04
4.006640E+03	1.204341E-03	4.000948E-04
4.009881E+03	1.208014E-03	4.013076E-04
4.013121E+03	1.207567E-03	4.011518E-04
4.016362E+03	1.211694E-03	4.025157E-04
4.019604E+03	1.213824E-03	4.032160E-04
4.022845E+03	1.208221E-03	4.013472E-04
4.026086E+03	1.202370E-03	3.993964E-04
4.029326E+03	1.199596E-03	3.984676E-04
4.032568E+03	1.198110E-03	3.979669E-04
4.035809E+03	1.195712E-03	3.971628E-04
4.039050E+03	1.193646E-03	3.964693E-04
4.042291E+03	1.187717E-03	3.944930E-04
4.045532E+03	1.180337E-03	3.920344E-04
4.048773E+03	1.175534E-03	3.904319E-04
4.052014E+03	1.172060E-03	3.892710E-04
4.055255E+03	1.162652E-03	3.861393E-04
4.058497E+03	1.151006E-03	3.822642E-04
4.061738E+03	1.135920E-03	3.772468E-04
4.064978E+03	1.119718E-03	3.718592E-04
4.068219E+03	1.108084E-03	3.679886E-04
4.071460E+03	1.096454E-03	3.641197E-04
4.074702E+03	1.083127E-03	3.596873E-04
4.077943E+03	1.070924E-03	3.556282E-04
4.081183E+03	1.058601E-03	3.515294E-04
4.084424E+03	1.048395E-03	3.481339E-04
4.087666E+03	1.036659E-03	3.442303E-04
4.090907E+03	1.026294E-03	3.407822E-04
4.094148E+03	1.014069E-03	3.367164E-04
4.097389E+03	1.004787E-03	3.336283E-04
4.100630E+03	9.977868E-04	3.312977E-04
4.103871E+03	9.889664E-04	3.283629E-04
4.107112E+03	9.794869E-04	3.252093E-04
4.110353E+03	9.730728E-04	3.230736E-04
4.113595E+03	9.690200E-04	3.217220E-04
4.116835E+03	9.633958E-04	3.198486E-04
4.120076E+03	9.541326E-04	3.167672E-04
4.123317E+03	9.466927E-04	3.142913E-04
4.126559E+03	9.392138E-04	3.118024E-04
4.129800E+03	9.279743E-04	3.080653E-04
4.133041E+03	9.173587E-04	3.045354E-04
4.136281E+03	9.057956E-04	3.006911E-04
4.139523E+03	8.981213E-04	2.981378E-04
4.142764E+03	8.923500E-04	2.962163E-04
4.146005E+03	8.914973E-04	2.959277E-04
4.149246E+03	8.897766E-04	2.953508E-04
4.152487E+03	8.903695E-04	2.955420E-04
4.155728E+03	8.891448E-04	2.951298E-04
4.158969E+03	8.870951E-04	2.944438E-04
4.162210E+03	8.870685E-04	2.944293E-04
4.165452E+03	8.867527E-04	2.943189E-04
4.168692E+03	8.915949E-04	2.959204E-04
4.171933E+03	9.025829E-04	2.995615E-04
4.175174E+03	9.139376E-04	3.033242E-04
4.178415E+03	9.246702E-04	3.068803E-04
4.181657E+03	9.346153E-04	3.101749E-04
4.184898E+03	9.426193E-04	3.128252E-04
4.188138E+03	9.498782E-04	3.152281E-04
4.191379E+03	9.556510E-04	3.171377E-04
4.194621E+03	9.640177E-04	3.199081E-04
4.197862E+03	9.718456E-04	3.224995E-04
4.201103E+03	9.727086E-04	3.227796E-04
4.204343E+03	9.693710E-04	3.216658E-04
4.207585E+03	9.682572E-04	3.212900E-04
4.210826E+03	9.727021E-04	3.227587E-04
4.214067E+03	9.744696E-04	3.233388E-04
4.217308E+03	9.746313E-04	3.233862E-04
4.220549E+03	9.779204E-04	3.244712E-04
4.223790E+03	9.786573E-04	3.247094E-04
4.227031E+03	9.798047E-04	3.250837E-04
4.230272E+03	9.835433E-04	3.263177E-04
4.233514E+03	9.864982E-04	3.272917E-04
4.236755E+03	9.918373E-04	3.290566E-04
4.239995E+03	1.001655E-03	3.323073E-04
4.243236E+03	1.014223E-03	3.364702E-04
4.246478E+03	1.024814E-03	3.399772E-04
4.249719E+03	1.030142E-03	3.417380E-04
4.252960E+03	1.031443E-03	3.421627E-04
4.256200E+03	1.033564E-03	3.428595E-04
4.259442E+03	1.038353E-03	3.444415E-04
4.262683E+03	1.046056E-03	3.469898E-04
4.265924E+03	1.054166E-03	3.496732E-04
4.269165E+03	1.064121E-03	3.529681E-04
4.272406E+03	1.075056E-03	3.565883E-04
4.275647E+03	1.086152E-03	3.602616E-04
4.278888E+03	1.098105E-03	3.642190E-04
4.282129E+03	1.112433E-03	3.689640E-04
4.285371E+03	1.128682E-03	3.743461E-04
4.288612E+03	1.142056E-03	3.787743E-04
4.291852E+03	1.154934E-03	3.830375E-04
4.295093E+03	1.167888E-03	3.873262E-04
4.298335E+03	1.180469E-03	3.914908E-04
4.301576E+03	1.196036E-03	3.966457E-04
4.304817E+03	1.211024E-03	4.016082E-04
4.308057E+03	1.223385E-03	4.056994E-04
4.311298E+03	1.230173E-03	4.079420E-04
4.314540E+03	1.233272E-03	4.089618E-04
4.317781E+03	1.237230E-03	4.102661E-04
4.321022E+03	1.239755E-03	4.110948E-04
4.324263E+03	1.240068E-03	4.111905E-04
4.327504E+03	1.238294E-03	4.105941E-04
4.330745E+03	1.236357E-03	4.099435E-04
4.333986E+03	1.234952E-03	4.094696E-04
4.337227E+03	1.230685E-03	4.080464E-04
4.340469E+03	1.224457E-03	4.059733E-04
4.343709E+03	1.218394E-03	4.039550E-04
4.346950E+03	1.214948E-03	4.028046E-04
4.350191E+03	1.208522E-03	4.006658E-04
4.353433E+03	1.200462E-03	3.979858E-04
4.356674E+03	1.196245E-03	3.965797E-04
4.359915E+03	1.194644E-03	3.960408E-04
4.363155E+03	1.194145E-03	3.958675E-04
4.366397E+03	1.193728E-03	3.957212E-04
4.369638E+03	1.194168E-03	3.958591E-04
4.372879E+03	1.196404E-03	3.965922E-04
4.376120E+03	1.198557E-03	3.972978E-04
4.379361E+03	1.198791E-03	3.973675E-04
4.382602E+03	1.196211E-03	3.965041E-04
4.385843E+03	1.197587E-03	3.969522E-04
4.389084E+03	1.201531E-03	3.982515E-04
4.392326E+03	1.201438E-03	3.982125E-04
4.395566E+03	1.199592E-03	3.975925E-04
4.398807E+03	1.199866E-03	3.976752E-04
4.402048E+03	1.202217E-03	3.984464E-04
4.405289E+03	1.203141E-03	3.987445E-04
4.408531E+03	1.201703E-03	3.982597E-04
4.411772E+03	1.197413E-03	3.968300E-04
4.415012E+03	1.196098E-03	3.963862E-04
4.418253E+03	1.197755E-03	3.969271E-04
4.421495E+03	1.201853E-03	3.982770E-04
4.424736E+03	1.207211E-03	4.000445E-04
4.427977E+03	1.214887E-03	4.025797E-04
4.431217E+03	1.226993E-03	4.065831E-04
4.434459E+03	1.237590E-03	4.100863E-04
4.437700E+03	1.245377E-03	4.126581E-04
4.440941E+03	1.249258E-03	4.139354E-04
4.444182E+03	1.250088E-03	4.142021E-04
4.447424E+03	1.251405E-03	4.146300E-04
4.450664E+03	1.257070E-03	4.164984E-04
4.453905E+03	1.265171E-03	4.191737E-04
4.457146E+03	1.278508E-03	4.235839E-04
4.460388E+03	1.296673E-03	4.295935E-04
4.463629E+03	1.317106E-03	4.363540E-04
4.466869E+03	1.340577E-03	4.441206E-04
4.470110E+03	1.367488E-03	4.530268E-04
4.473352E+03	1.394837E-03	4.620774E-04
4.476593E+03	1.426313E-03	4.724951E-04
4.479834E+03	1.459036E-03	4.833252E-04
4.483074E+03	1.494139E-03	4.949435E-04
4.486316E+03	1.534016E-03	5.081424E-04
4.489557E+03	1.577931E-03	5.226787E-04
4.492798E+03	1.626980E-03	5.389145E-04
4.496039E+03	1.680185E-03	5.565265E-04
4.499280E+03	1.732317E-03	5.737822E-04
4.502521E+03	1.787508E-03	5.920505E-04
4.505762E+03	1.844826E-03	6.110224E-04
4.509003E+03	1.905201E-03	6.310062E-04
4.512244E+03	1.967537E-03	6.516386E-04
4.515486E+03	2.031348E-03	6.727586E-04
4.518726E+03	2.095541E-03	6.940040E-04
4.521967E+03	2.156188E-03	7.140743E-04
4.525209E+03	2.214667E-03	7.334260E-04
4.528450E+03	2.274905E-03	7.533591E-04
4.531691E+03	2.333947E-03	7.728955E-04
4.534931E+03	2.387385E-03	7.905755E-04
4.538172E+03	2.437447E-03	8.071366E-04
4.541414E+03	2.486074E-03	8.232220E-04
4.544655E+03	2.527651E-03	8.369721E-04
4.547896E+03	2.564928E-03	8.492977E-04
4.551137E+03	2.599887E-03	8.608554E-04
4.554378E+03	2.627076E-03	8.698400E-04
4.557619E+03	2.648236E-03	8.768282E-04
4.560860E+03	2.664906E-03	8.823291E-04
4.564101E+03	2.675836E-03	8.859295E-04
4.567343E+03	2.679615E-03	8.871623E-04
4.570583E+03	2.675886E-03	8.859092E-04
4.573824E+03	2.666630E-03	8.828263E-04
4.577065E+03	2.655157E-03	8.790098E-04
4.580307E+03	2.644737E-03	8.755419E-04
4.583548E+03	2.630892E-03	8.709405E-04
4.586789E+03	2.611850E-03	8.646188E-04
4.590029E+03	2.589308E-03	8.571387E-04
4.593271E+03	2.563469E-03	8.485673E-04
4.596512E+03	2.537840E-03	8.400662E-04
4.599753E+03	2.511375E-03	8.312882E-04
4.602994E+03	2.483106E-03	8.219138E-04
4.606235E+03	2.454847E-03	8.125431E-04
4.609476E+03	2.429458E-03	8.041227E-04
4.612717E+03	2.403715E-03	7.955856E-04
4.615958E+03	2.379109E-03	7.874249E-04
4.619200E+03	2.355558E-03	7.796139E-04
4.622440E+03	2.333425E-03	7.722723E-04
4.625681E+03	2.310495E-03	7.646673E-04
4.628922E+03	2.286527E-03	7.567191E-04
4.632163E+03	2.264296E-03	7.493464E-04
4.635405E+03	2.241994E-03	7.419502E-04
4.638646E+03	2.220785E-03	7.349161E-04
4.641886E+03	2.199464E-03	7.278449E-04
4.645127E+03	2.177427E-03	7.205374E-04
4.648369E+03	2.159455E-03	7.145755E-04
4.651610E+03	2.147476E-03	7.105965E-04
4.654851E+03	2.136867E-03	7.070711E-04
4.658091E+03	2.123330E-03	7.025772E-04
4.661333E+03	2.106666E-03	6.970487E-04
4.664574E+03	2.089045E-03	6.912037E-04
4.667815E+03	2.070988E-03	6.852151E-04
4.671056E+03	2.053380E-03	6.793749E-04
4.674298E+03	2.035417E-03	6.734174E-04
4.677538E+03	2.015936E-03	6.669583E-04
4.680779E+03	1.995901E-03	6.603160E-04
4.684020E+03	1.977959E-03	6.543662E-04
4.687262E+03	1.960664E-03	6.486308E-04
4.690503E+03	1.944217E-03	6.431765E-04
4.693743E+03	1.929219E-03	6.382015E-04
4.696984E+03	1.913905E-03	6.331223E-04
4.700226E+03	1.896956E-03	6.275021E-04
4.703467E+03	1.882455E-03	6.226923E-04
4.706708E+03	1.869361E-03	6.183479E-04
4.709948E+03	1.857032E-03	6.142568E-04
4.713190E+03	1.845548E-03	6.104455E-04
4.716431E+03	1.832468E-03	6.061062E-04
4.719672E+03	1.818912E-03	6.016099E-04
4.722913E+03	1.806922E-03	5.976314E-04
4.726155E+03	1.795815E-03	5.939455E-04
4.729395E+03	1.786312E-03	5.907899E-04
4.732636E+03	1.777053E-03	5.877152E-04
4.735877E+03	1.766797E-03	5.843111E-04
4.739118E+03	1.757624E-03	5.812652E-04
4.742360E+03	1.750892E-03	5.790266E-04
4.745600E+03	1.745081E-03	5.770927E-04
4.748841E+03	1.738672E-03	5.749613E-04
4.752083E+03	1.732506E-03	5.729102E-04
4.755324E+03	1.724465E-03	5.702392E-04
4.758565E+03	1.716068E-03	5.674505E-04
4.761806E+03	1.715576E-03	5.672758E-04
4.765046E+03	1.719793E-03	5.686580E-04
4.768288E+03	1.718502E-03	5.682193E-04
4.771529E+03	1.708157E-03	5.647869E-04
4.774770E+03	1.693508E-03	5.599317E-04
4.778011E+03	1.678068E-03	5.548149E-04
4.781252E+03	1.663471E-03	5.499771E-04
4.784493E+03	1.649557E-03	5.453652E-04
4.787734E+03	1.636246E-03	5.409531E-04
4.790975E+03	1.627521E-03	5.380572E-04
4.794217E+03	1.618958E-03	5.352151E-04
4.797457E+03	1.610041E-03	5.322560E-04
4.800698E+03	1.603237E-03	5.299954E-04
4.803939E+03	1.597829E-03	5.281964E-04
4.807181E+03	1.592502E-03	5.264243E-04
4.810422E+03	1.589405E-03	5.253897E-04
4.813663E+03	1.587583E-03	5.247763E-04
4.816903E+03	1.587153E-03	5.246232E-04
4.820145E+03	1.586923E-03	5.245358E-04
4.823386E+03	1.590469E-03	5.256969E-04
4.826627E+03	1.596240E-03	5.275934E-04
4.829868E+03	1.602764E-03	5.297385E-04
4.833109E+03	1.613219E-03	5.331829E-04
4.836350E+03	1.625458E-03	5.372167E-04
4.839591E+03	1.638566E-03	5.415373E-04
4.842832E+03	1.655243E-03	5.470375E-04
4.846074E+03	1.673581E-03	5.530862E-04
4.849314E+03	1.688656E-03	5.580564E-04
4.852555E+03	1.700708E-03	5.620275E-04
4.855796E+03	1.711644E-03	5.656297E-04
4.859037E+03	1.721702E-03	5.689415E-04
4.862279E+03	1.731558E-03	5.721864E-04
4.865520E+03	1.739110E-03	5.746698E-04
4.868760E+03	1.740234E-03	5.750292E-04
4.872001E+03	1.737632E-03	5.741570E-04
4.875243E+03	1.732334E-03	5.723945E-04
4.878484E+03	1.725176E-03	5.700174E-04
4.881725E+03	1.717347E-03	5.674186E-04
4.884966E+03	1.710194E-03	5.650434E-04
4.888207E+03	1.701182E-03	5.620540E-04
4.891448E+03	1.686907E-03	5.573260E-04
4.894689E+03	1.672044E-03	5.524038E-04
4.897930E+03	1.661421E-03	5.488828E-04
4.901172E+03	1.650644E-03	5.453110E-04
4.904412E+03	1.639357E-03	5.415707E-04
4.907653E+03	1.632703E-03	5.393611E-04
4.910894E+03	1.627119E-03	5.375051E-04
4.914136E+03	1.621418E-03	5.356106E-04
4.917377E+03	1.614850E-03	5.334297E-04
4.920617E+03	1.608639E-03	5.313671E-04
4.923858E+03	1.606028E-03	5.304933E-04
4.927100E+03	1.604839E-03	5.300895E-04
4.930341E+03	1.609340E-03	5.315649E-04
4.933582E+03	1.623200E-03	5.361315E-04
4.936822E+03	1.642858E-03	5.426132E-04
4.940064E+03	1.666930E-03	5.505523E-04
4.943305E+03	1.695611E-03	5.600132E-04
4.946546E+03	1.728503E-03	5.708646E-04
4.949787E+03	1.769194E-03	5.842912E-04
4.953029E+03	1.817601E-03	6.002653E-04
4.956269E+03	1.871944E-03	6.181993E-04
4.959510E+03	1.919207E-03	6.337942E-04
4.962751E+03	1.956397E-03	6.460622E-04
4.965992E+03	1.989669E-03	6.570361E-04
4.969234E+03	2.027421E-03	6.694884E-04
4.972474E+03	2.067364E-03	6.826639E-04
4.975715E+03	2.107093E-03	6.957685E-04
4.978957E+03	2.144561E-03	7.081257E-04
4.982198E+03	2.178313E-03	7.192555E-04
4.985439E+03	2.210397E-03	7.298339E-04
4.988680E+03	2.237666E-03	7.388222E-04
4.991921E+03	2.258667E-03	7.457404E-04
4.995162E+03	2.276392E-03	7.515770E-04
4.998403E+03	2.289075E-03	7.557487E-04
5.001644E+03	2.295656E-03	7.579057E-04
5.004885E+03	2.295943E-03	7.579845E-04
5.008126E+03	2.289545E-03	7.558565E-04
5.011367E+03	2.277294E-03	7.517960E-04
5.014608E+03	2.258444E-03	7.455576E-04
5.017849E+03	2.233197E-03	7.372077E-04
5.021091E+03	2.201321E-03	7.266698E-04
5.024331E+03	2.165726E-03	7.149048E-04
5.027572E+03	2.127161E-03	7.021599E-04
5.030813E+03	2.082800E-03	6.875024E-04
5.034055E+03	2.035788E-03	6.719704E-04
5.037296E+03	1.991582E-03	6.573650E-04
5.040537E+03	1.945627E-03	6.421832E-04
5.043777E+03	1.896630E-03	6.259982E-04
5.047019E+03	1.851458E-03	6.110759E-04
5.050260E+03	1.808695E-03	5.969496E-04
5.053501E+03	1.766852E-03	5.831272E-04
5.056742E+03	1.729611E-03	5.708245E-04
5.059983E+03	1.696303E-03	5.598203E-04
5.063224E+03	1.663950E-03	5.491315E-04
5.066465E+03	1.637015E-03	5.402314E-04
5.069706E+03	1.616710E-03	5.335194E-04
5.072948E+03	1.603931E-03	5.292913E-04
5.076189E+03	1.598126E-03	5.273646E-04
5.079429E+03	1.595846E-03	5.266013E-04
5.082670E+03	1.597245E-03	5.270521E-04
5.085912E+03	1.605021E-03	5.296068E-04
