#wls	flux	fluxerr
1.591072E+03	2.283812E-04	6.066261E-05
1.630849E+03	2.313520E-04	6.145080E-05
1.670626E+03	2.344155E-04	6.226352E-05
1.710403E+03	2.375730E-04	6.310112E-05
1.750180E+03	2.407846E-04	6.395302E-05
1.789957E+03	2.441337E-04	6.484136E-05
1.829733E+03	2.475809E-04	6.575564E-05
1.869510E+03	2.511276E-04	6.669627E-05
1.909287E+03	2.548183E-04	6.767503E-05
1.949064E+03	2.586124E-04	6.868117E-05
1.988841E+03	2.625115E-04	6.971507E-05
2.028617E+03	2.665175E-04	7.077722E-05
2.068394E+03	2.706769E-04	7.187997E-05
2.108171E+03	2.749930E-04	7.302423E-05
2.147948E+03	2.794238E-04	7.419879E-05
2.187725E+03	2.839715E-04	7.540425E-05
2.227501E+03	2.887323E-04	7.666613E-05
2.267278E+03	2.936175E-04	7.796089E-05
2.307055E+03	2.986780E-04	7.930202E-05
2.346832E+03	3.039191E-04	8.069090E-05
2.386609E+03	3.093462E-04	8.212898E-05
2.426386E+03	3.149654E-04	8.361787E-05
2.466162E+03	3.207836E-04	8.515936E-05
2.505939E+03	3.268083E-04	8.675543E-05
2.545716E+03	3.330985E-04	8.842174E-05
2.585493E+03	3.396135E-04	9.014750E-05
2.625270E+03	3.463638E-04	9.193541E-05
2.665046E+03	3.534133E-04	9.380246E-05
2.704823E+03	3.607233E-04	9.573837E-05
2.744600E+03	3.683620E-04	9.776119E-05
2.784377E+03	3.763472E-04	9.987563E-05
2.824154E+03	3.846990E-04	1.020870E-04
2.863930E+03	3.933836E-04	1.043863E-04
2.903707E+03	4.025367E-04	1.068096E-04
2.943484E+03	4.120738E-04	1.093342E-04
2.983261E+03	4.220814E-04	1.119833E-04
2.993205E+03	4.246626E-04	1.126666E-04
3.003149E+03	4.273233E-04	1.133708E-04
3.013094E+03	4.299475E-04	1.140654E-04
3.023038E+03	4.326527E-04	1.147815E-04
3.032982E+03	4.353809E-04	1.155036E-04
3.042926E+03	4.381328E-04	1.162320E-04
3.052870E+03	4.409089E-04	1.169667E-04
3.062815E+03	4.437098E-04	1.177080E-04
3.072759E+03	4.465957E-04	1.184718E-04
3.082703E+03	4.495080E-04	1.192426E-04
3.092647E+03	4.524472E-04	1.200205E-04
3.102591E+03	4.554142E-04	1.208057E-04
3.112536E+03	4.584699E-04	1.216144E-04
3.122480E+03	4.614944E-04	1.224148E-04
3.132424E+03	4.646096E-04	1.232393E-04
3.142368E+03	4.677557E-04	1.240718E-04
3.152312E+03	4.709335E-04	1.249128E-04
3.162257E+03	4.742053E-04	1.257786E-04
3.172201E+03	4.775109E-04	1.266534E-04
3.182145E+03	4.807890E-04	1.275208E-04
3.192089E+03	4.841643E-04	1.284140E-04
3.202033E+03	4.876385E-04	1.293334E-04
3.211978E+03	4.910877E-04	1.302461E-04
3.221922E+03	4.946380E-04	1.311855E-04
3.231866E+03	4.982281E-04	1.321355E-04
3.241810E+03	5.018589E-04	1.330962E-04
3.251754E+03	5.055313E-04	1.340679E-04
3.261699E+03	5.093107E-04	1.350680E-04
3.271643E+03	5.130701E-04	1.360627E-04
3.281587E+03	5.169392E-04	1.370864E-04
3.291531E+03	5.209199E-04	1.381397E-04
3.301475E+03	5.248841E-04	1.391885E-04
3.311420E+03	5.288975E-04	1.402504E-04
3.321364E+03	5.330271E-04	1.413430E-04
3.331308E+03	5.372092E-04	1.424495E-04
3.341252E+03	5.414451E-04	1.435702E-04
3.351196E+03	5.458029E-04	1.447231E-04
3.361141E+03	5.501511E-04	1.458735E-04
3.371085E+03	5.546249E-04	1.470571E-04
3.381029E+03	5.591590E-04	1.482566E-04
3.390973E+03	5.637552E-04	1.494726E-04
3.400917E+03	5.684834E-04	1.507234E-04
3.410862E+03	5.732092E-04	1.519736E-04
3.420806E+03	5.780710E-04	1.532598E-04
3.430750E+03	5.830025E-04	1.545644E-04
3.440694E+03	5.880057E-04	1.558880E-04
3.450638E+03	5.931523E-04	1.572495E-04
3.460583E+03	5.983052E-04	1.586125E-04
3.470527E+03	6.036062E-04	1.600148E-04
3.480471E+03	6.089879E-04	1.614384E-04
3.490415E+03	6.144523E-04	1.628839E-04
3.500359E+03	6.200020E-04	1.643519E-04
3.510304E+03	6.257109E-04	1.658621E-04
3.520248E+03	6.315108E-04	1.673962E-04
3.530192E+03	6.374040E-04	1.689551E-04
3.540136E+03	6.433923E-04	1.705390E-04
3.550080E+03	6.494801E-04	1.721493E-04
3.560025E+03	6.557424E-04	1.738057E-04
3.569969E+03	6.620357E-04	1.754703E-04
3.579913E+03	6.685108E-04	1.771830E-04
3.589857E+03	6.750975E-04	1.789251E-04
3.599802E+03	6.817975E-04	1.806972E-04
3.609746E+03	6.886921E-04	1.825208E-04
3.619690E+03	6.956310E-04	1.843560E-04
3.629634E+03	7.027717E-04	1.862446E-04
3.639578E+03	7.100410E-04	1.881672E-04
3.649523E+03	7.174424E-04	1.901248E-04
3.659467E+03	7.249802E-04	1.921183E-04
3.669411E+03	7.327368E-04	1.941698E-04
3.679355E+03	7.405590E-04	1.962385E-04
3.689299E+03	7.486096E-04	1.983676E-04
3.699244E+03	7.568130E-04	2.005371E-04
3.709188E+03	7.651735E-04	2.027481E-04
3.719132E+03	7.736957E-04	2.050019E-04
3.729076E+03	7.823840E-04	2.072996E-04
3.739020E+03	7.913251E-04	2.096641E-04
3.748965E+03	8.003576E-04	2.120527E-04
3.758909E+03	8.096519E-04	2.145106E-04
3.768853E+03	8.191292E-04	2.170168E-04
3.778797E+03	8.287906E-04	2.195716E-04
3.788741E+03	8.386391E-04	2.221759E-04
3.798686E+03	8.487613E-04	2.248526E-04
3.808630E+03	8.589813E-04	2.275550E-04
3.818574E+03	8.694686E-04	2.303281E-04
3.828518E+03	8.800377E-04	2.331227E-04
3.838462E+03	8.908518E-04	2.359821E-04
3.848407E+03	9.018002E-04	2.388769E-04
3.858351E+03	9.128548E-04	2.417997E-04
3.868295E+03	9.239780E-04	2.447405E-04
3.878239E+03	9.351212E-04	2.476865E-04
3.888183E+03	9.462281E-04	2.506226E-04
3.898128E+03	9.573236E-04	2.535556E-04
3.908072E+03	9.681410E-04	2.564148E-04
3.918016E+03	9.787841E-04	2.592277E-04
3.927960E+03	9.889632E-04	2.619176E-04
3.937904E+03	9.987732E-04	2.645095E-04
3.947849E+03	1.008014E-03	2.669506E-04
3.957793E+03	1.016584E-03	2.692138E-04
3.967737E+03	1.024387E-03	2.712739E-04
3.977681E+03	1.031236E-03	2.730813E-04
3.987625E+03	1.037360E-03	2.746965E-04
3.997570E+03	1.042406E-03	2.760260E-04
4.007514E+03	1.046444E-03	2.770888E-04
4.017458E+03	1.049470E-03	2.778833E-04
4.027402E+03	1.051504E-03	2.784152E-04
4.037346E+03	1.052592E-03	2.786966E-04
4.047291E+03	1.052803E-03	2.787458E-04
4.057235E+03	1.052326E-03	2.786127E-04
4.067179E+03	1.051066E-03	2.782726E-04
4.077123E+03	1.049244E-03	2.777834E-04
4.087067E+03	1.047084E-03	2.772047E-04
4.097012E+03	1.044524E-03	2.765204E-04
4.106956E+03	1.041800E-03	2.757925E-04
4.116900E+03	1.039142E-03	2.750821E-04
4.126844E+03	1.036492E-03	2.743737E-04
4.136788E+03	1.034071E-03	2.737262E-04
4.146733E+03	1.032000E-03	2.731711E-04
4.156677E+03	1.030482E-03	2.727626E-04
4.166621E+03	1.029429E-03	2.724771E-04
4.176565E+03	1.029025E-03	2.723635E-04
4.186509E+03	1.029351E-03	2.724429E-04
4.196454E+03	1.030476E-03	2.727339E-04
4.206398E+03	1.032465E-03	2.732534E-04
4.216342E+03	1.035376E-03	2.740170E-04
4.226286E+03	1.039265E-03	2.750393E-04
4.236231E+03	1.044186E-03	2.763347E-04
4.246175E+03	1.050197E-03	2.779184E-04
4.256119E+03	1.057356E-03	2.798058E-04
4.266063E+03	1.065635E-03	2.819896E-04
4.276007E+03	1.075294E-03	2.845383E-04
4.285952E+03	1.086227E-03	2.874239E-04
4.295896E+03	1.098716E-03	2.907213E-04
4.305840E+03	1.112680E-03	2.944086E-04
4.315784E+03	1.128336E-03	2.985434E-04
4.325728E+03	1.145825E-03	3.031632E-04
4.335673E+03	1.165305E-03	3.083094E-04
4.345617E+03	1.186954E-03	3.140290E-04
4.355561E+03	1.210864E-03	3.203464E-04
4.365505E+03	1.237449E-03	3.273714E-04
4.375449E+03	1.266727E-03	3.351084E-04
4.385394E+03	1.299144E-03	3.436753E-04
4.395338E+03	1.334719E-03	3.530773E-04
4.405282E+03	1.373786E-03	3.634023E-04
4.415226E+03	1.416545E-03	3.747035E-04
4.425170E+03	1.463032E-03	3.869902E-04
4.435115E+03	1.513574E-03	4.003490E-04
4.445059E+03	1.567919E-03	4.147127E-04
4.455003E+03	1.626054E-03	4.300781E-04
4.464947E+03	1.687694E-03	4.463698E-04
4.474891E+03	1.752377E-03	4.634654E-04
4.484836E+03	1.819443E-03	4.811905E-04
4.494780E+03	1.887875E-03	4.992758E-04
4.504724E+03	1.956746E-03	5.174764E-04
4.514668E+03	2.024800E-03	5.354599E-04
4.524612E+03	2.090624E-03	5.528526E-04
4.534557E+03	2.152703E-03	5.692544E-04
4.544501E+03	2.209322E-03	5.842112E-04
4.554445E+03	2.259356E-03	5.974262E-04
4.564389E+03	2.301137E-03	6.084582E-04
4.574333E+03	2.333613E-03	6.170294E-04
4.584278E+03	2.356460E-03	6.230541E-04
4.594222E+03	2.369016E-03	6.263578E-04
4.604166E+03	2.371607E-03	6.270265E-04
4.614110E+03	2.364773E-03	6.252034E-04
4.624054E+03	2.349391E-03	6.211204E-04
4.633999E+03	2.326404E-03	6.150272E-04
4.643943E+03	2.297277E-03	6.073111E-04
4.653887E+03	2.263345E-03	5.983254E-04
4.663831E+03	2.225926E-03	5.884182E-04
4.673775E+03	2.186091E-03	5.778728E-04
4.683720E+03	2.145144E-03	5.670341E-04
4.693664E+03	2.104077E-03	5.561642E-04
4.703608E+03	2.063734E-03	5.454864E-04
4.713552E+03	2.024661E-03	5.351446E-04
4.723496E+03	1.987576E-03	5.253290E-04
4.733441E+03	1.952913E-03	5.161538E-04
4.743385E+03	1.920990E-03	5.077036E-04
4.753329E+03	1.891892E-03	5.000003E-04
4.763273E+03	1.865921E-03	4.931237E-04
4.773217E+03	1.843028E-03	4.870610E-04
4.783162E+03	1.823543E-03	4.818990E-04
4.793106E+03	1.807193E-03	4.775660E-04
4.803050E+03	1.794094E-03	4.740922E-04
4.812994E+03	1.784063E-03	4.714293E-04
4.822938E+03	1.777297E-03	4.696294E-04
4.832883E+03	1.773441E-03	4.685983E-04
4.842827E+03	1.772392E-03	4.683092E-04
4.852771E+03	1.774307E-03	4.688032E-04
4.862715E+03	1.778803E-03	4.699790E-04
4.872660E+03	1.785890E-03	4.718394E-04
4.882604E+03	1.795306E-03	4.743150E-04
4.892548E+03	1.807049E-03	4.774053E-04
4.902492E+03	1.820976E-03	4.810724E-04
4.912436E+03	1.836931E-03	4.852751E-04
4.922381E+03	1.854608E-03	4.899323E-04
4.932325E+03	1.873956E-03	4.950310E-04
4.942269E+03	1.894780E-03	5.005193E-04
4.952213E+03	1.916738E-03	5.063069E-04
4.962157E+03	1.939773E-03	5.123784E-04
4.972102E+03	1.963704E-03	5.186865E-04
4.982046E+03	1.988390E-03	5.251938E-04
4.991990E+03	2.013589E-03	5.318363E-04
5.001934E+03	2.039414E-03	5.386436E-04
5.011878E+03	2.065745E-03	5.455843E-04
5.021823E+03	2.092976E-03	5.527626E-04
5.031767E+03	2.120954E-03	5.601376E-04
5.041711E+03	2.149856E-03	5.677564E-04
5.051655E+03	2.180037E-03	5.757124E-04
5.061599E+03	2.211852E-03	5.840998E-04
5.071544E+03	2.244994E-03	5.928371E-04
5.081488E+03	2.280071E-03	6.020849E-04
5.091432E+03	2.316821E-03	6.117740E-04
5.101376E+03	2.355392E-03	6.219436E-04
5.111320E+03	2.395505E-03	6.325200E-04
5.121265E+03	2.437115E-03	6.434910E-04
5.131209E+03	2.479897E-03	6.547711E-04
5.141153E+03	2.523411E-03	6.662438E-04
5.151097E+03	2.566925E-03	6.777159E-04
5.161041E+03	2.609980E-03	6.890665E-04
5.170986E+03	2.651880E-03	7.001114E-04
5.180930E+03	2.691706E-03	7.106084E-04
5.190874E+03	2.728928E-03	7.204176E-04
5.200818E+03	2.762872E-03	7.293608E-04
5.210762E+03	2.792731E-03	7.372255E-04
5.220707E+03	2.818392E-03	7.439814E-04
5.230651E+03	2.839056E-03	7.494182E-04
5.240595E+03	2.854442E-03	7.534616E-04
5.250539E+03	2.864592E-03	7.561228E-04
5.260483E+03	2.869462E-03	7.573900E-04
5.270428E+03	2.869106E-03	7.572782E-04
5.280372E+03	2.863671E-03	7.558256E-04
5.290316E+03	2.853180E-03	7.530390E-04
5.300260E+03	2.838132E-03	7.490497E-04
5.310204E+03	2.818687E-03	7.439001E-04
5.320149E+03	2.795458E-03	7.377525E-04
5.330093E+03	2.768909E-03	7.307288E-04
5.340037E+03	2.739537E-03	7.229604E-04
5.349981E+03	2.707865E-03	7.145858E-04
5.359925E+03	2.674245E-03	7.056974E-04
5.369870E+03	2.639401E-03	6.964864E-04
5.379814E+03	2.603664E-03	6.870403E-04
5.389758E+03	2.567875E-03	6.775810E-04
5.399702E+03	2.532084E-03	6.681217E-04
5.409646E+03	2.496805E-03	6.587979E-04
5.419591E+03	2.462089E-03	6.496231E-04
5.429535E+03	2.428206E-03	6.406687E-04
5.439479E+03	2.395107E-03	6.319214E-04
5.449423E+03	2.362588E-03	6.233279E-04
5.459367E+03	2.330305E-03	6.147969E-04
5.469312E+03	2.297640E-03	6.061653E-04
5.479256E+03	2.264227E-03	5.973370E-04
5.489200E+03	2.229525E-03	5.881692E-04
5.499144E+03	2.192890E-03	5.784918E-04
5.509089E+03	2.154088E-03	5.682433E-04
5.519033E+03	2.112872E-03	5.573584E-04
5.528977E+03	2.069157E-03	5.458147E-04
5.538921E+03	2.022889E-03	5.335984E-04
5.548865E+03	1.974605E-03	5.208506E-04
5.558810E+03	1.924426E-03	5.076038E-04
5.568754E+03	1.872886E-03	4.939985E-04
5.578698E+03	1.820868E-03	4.802679E-04
5.588642E+03	1.768801E-03	4.665248E-04
5.598586E+03	1.717527E-03	4.529915E-04
5.608531E+03	1.667759E-03	4.398562E-04
5.618475E+03	1.620185E-03	4.273000E-04
5.628419E+03	1.575336E-03	4.154629E-04
5.638363E+03	1.533908E-03	4.045286E-04
5.648307E+03	1.496422E-03	3.946346E-04
5.658252E+03	1.463342E-03	3.859026E-04
5.668196E+03	1.435074E-03	3.784402E-04
5.678140E+03	1.411883E-03	3.723168E-04
5.688084E+03	1.394184E-03	3.676422E-04
5.698028E+03	1.382256E-03	3.644894E-04
5.707973E+03	1.376336E-03	3.629207E-04
5.717917E+03	1.376520E-03	3.629621E-04
5.727861E+03	1.383049E-03	3.646763E-04
5.737805E+03	1.396103E-03	3.681109E-04
5.747749E+03	1.415408E-03	3.731936E-04
5.757694E+03	1.441190E-03	3.799838E-04
5.767638E+03	1.473192E-03	3.884139E-04
5.777582E+03	1.511041E-03	3.983850E-04
5.787526E+03	1.554436E-03	4.098182E-04
5.797470E+03	1.602835E-03	4.225700E-04
5.807415E+03	1.655535E-03	4.364553E-04
5.817359E+03	1.711555E-03	4.512155E-04
5.827303E+03	1.770109E-03	4.666431E-04
5.837247E+03	1.829801E-03	4.823700E-04
5.847191E+03	1.889485E-03	4.980946E-04
5.857136E+03	1.947830E-03	5.134652E-04
5.867080E+03	2.003478E-03	5.281248E-04
5.877024E+03	2.054964E-03	5.416867E-04
5.886968E+03	2.101325E-03	5.538970E-04
5.896912E+03	2.141168E-03	5.643892E-04
5.906857E+03	2.173722E-03	5.729595E-04
5.916801E+03	2.198310E-03	5.794301E-04
5.926745E+03	2.214543E-03	5.836983E-04
5.936689E+03	2.222197E-03	5.857052E-04
5.946633E+03	2.221855E-03	5.856046E-04
5.956578E+03	2.213838E-03	5.834815E-04
5.966522E+03	2.199272E-03	5.796323E-04
5.976466E+03	2.179425E-03	5.743915E-04
5.986410E+03	2.155811E-03	5.681580E-04
5.996354E+03	2.130106E-03	5.613740E-04
6.006299E+03	2.104068E-03	5.545025E-04
6.016243E+03	2.079310E-03	5.479688E-04
6.026187E+03	2.057657E-03	5.422534E-04
6.036131E+03	2.040790E-03	5.377996E-04
6.046075E+03	2.029783E-03	5.348902E-04
6.056020E+03	2.025931E-03	5.338666E-04
6.065964E+03	2.030171E-03	5.349753E-04
6.075908E+03	2.043090E-03	5.383710E-04
6.085852E+03	2.065513E-03	5.442713E-04
6.095796E+03	2.097535E-03	5.527007E-04
6.105741E+03	2.139688E-03	5.637994E-04
6.115685E+03	2.191802E-03	5.775223E-04
6.125629E+03	2.254032E-03	5.939106E-04
6.135573E+03	2.326275E-03	6.129368E-04
6.145518E+03	2.408303E-03	6.345407E-04
6.155462E+03	2.499741E-03	6.586232E-04
6.165406E+03	2.600047E-03	6.850419E-04
6.175350E+03	2.708489E-03	7.136032E-04
6.185294E+03	2.823925E-03	7.440068E-04
6.195239E+03	2.945572E-03	7.760460E-04
6.205183E+03	3.071629E-03	8.092466E-04
6.215127E+03	3.200680E-03	8.432348E-04
6.225071E+03	3.330913E-03	8.775341E-04
6.235015E+03	3.460366E-03	9.116272E-04
6.244960E+03	3.586975E-03	9.449702E-04
6.254904E+03	3.708632E-03	9.770081E-04
6.264848E+03	3.823255E-03	1.007192E-03
6.274792E+03	3.928852E-03	1.034999E-03
6.284736E+03	4.023306E-03	1.059869E-03
6.294681E+03	4.105555E-03	1.081523E-03
6.304625E+03	4.173973E-03	1.099534E-03
6.314569E+03	4.227226E-03	1.113550E-03
6.324513E+03	4.264915E-03	1.123466E-03
6.334457E+03	4.287017E-03	1.129277E-03
6.344402E+03	4.292981E-03	1.130836E-03
6.354346E+03	4.283513E-03	1.128331E-03
6.364290E+03	4.259357E-03	1.121957E-03
6.374234E+03	4.221551E-03	1.111987E-03
6.384178E+03	4.171375E-03	1.098760E-03
6.394123E+03	4.110289E-03	1.082660E-03
6.404067E+03	4.039870E-03	1.064102E-03
6.414011E+03	3.961735E-03	1.043512E-03
6.423955E+03	3.877204E-03	1.021238E-03
6.433899E+03	3.788339E-03	9.978227E-04
6.443844E+03	3.696226E-03	9.735528E-04
6.453788E+03	3.601803E-03	9.486752E-04
6.463732E+03	3.506583E-03	9.235881E-04
6.473676E+03	3.410866E-03	8.983708E-04
6.483620E+03	3.315526E-03	8.732531E-04
6.493565E+03	3.221247E-03	8.484156E-04
6.503509E+03	3.127890E-03	8.238216E-04
6.513453E+03	3.035907E-03	7.995898E-04
6.523397E+03	2.945431E-03	7.757556E-04
6.533341E+03	2.856749E-03	7.523941E-04
6.543286E+03	2.769496E-03	7.294096E-04
6.553230E+03	2.683913E-03	7.068651E-04
6.563174E+03	2.600024E-03	6.847675E-04
6.573118E+03	2.517857E-03	6.631237E-04
6.583062E+03	2.437442E-03	6.419415E-04
6.593007E+03	2.358815E-03	6.212307E-04
6.602951E+03	2.282019E-03	6.010026E-04
6.612895E+03	2.206949E-03	5.812291E-04
6.622839E+03	2.133981E-03	5.620098E-04
6.632783E+03	2.063020E-03	5.433192E-04
6.642728E+03	1.994141E-03	5.251772E-04
6.652672E+03	1.927290E-03	5.075695E-04
6.662616E+03	1.862843E-03	4.905952E-04
6.672560E+03	1.800763E-03	4.742445E-04
6.682504E+03	1.741046E-03	4.585160E-04
6.692449E+03	1.684072E-03	4.435105E-04
6.702393E+03	1.629734E-03	4.291992E-04
6.712337E+03	1.578409E-03	4.156817E-04
6.722281E+03	1.530009E-03	4.029346E-04
6.732225E+03	1.484892E-03	3.910520E-04
6.742170E+03	1.442969E-03	3.800110E-04
6.752114E+03	1.404469E-03	3.698714E-04
6.762058E+03	1.369601E-03	3.606885E-04
6.772002E+03	1.338265E-03	3.524360E-04
6.781946E+03	1.310657E-03	3.451653E-04
6.791891E+03	1.286866E-03	3.388997E-04
6.801835E+03	1.267063E-03	3.336847E-04
6.811779E+03	1.251148E-03	3.294934E-04
6.821723E+03	1.239288E-03	3.263703E-04
6.831668E+03	1.231563E-03	3.243363E-04
6.841612E+03	1.228051E-03	3.234118E-04
6.851556E+03	1.228834E-03	3.236185E-04
6.861500E+03	1.233990E-03	3.249769E-04
6.871444E+03	1.243600E-03	3.275085E-04
6.881389E+03	1.257742E-03	3.312334E-04
6.891333E+03	1.276489E-03	3.361715E-04
6.901277E+03	1.299914E-03	3.423416E-04
6.911221E+03	1.328087E-03	3.497624E-04
6.921165E+03	1.361084E-03	3.584536E-04
6.931110E+03	1.398890E-03	3.684114E-04
6.941054E+03	1.441814E-03	3.797176E-04
6.950998E+03	1.489906E-03	3.923847E-04
6.960942E+03	1.543250E-03	4.064355E-04
6.970886E+03	1.602329E-03	4.219968E-04
6.980831E+03	1.667371E-03	4.391289E-04
6.990775E+03	1.738663E-03	4.579075E-04
7.000719E+03	1.816945E-03	4.785273E-04
7.010663E+03	1.902521E-03	5.010683E-04
7.020607E+03	1.996286E-03	5.257668E-04
7.030552E+03	2.098635E-03	5.527265E-04
7.040496E+03	2.210430E-03	5.821749E-04
7.050440E+03	2.332605E-03	6.143575E-04
7.060384E+03	2.465622E-03	6.493965E-04
7.070328E+03	2.610463E-03	6.875502E-04
7.080273E+03	2.768156E-03	7.290903E-04
7.090217E+03	2.939127E-03	7.741284E-04
7.100161E+03	3.124334E-03	8.229172E-04
7.110105E+03	3.324444E-03	8.756326E-04
7.120049E+03	3.539949E-03	9.324043E-04
7.129994E+03	3.771066E-03	9.932897E-04
7.139938E+03	4.017609E-03	1.058240E-03
7.149882E+03	4.278838E-03	1.127060E-03
7.159826E+03	4.552946E-03	1.199275E-03
7.169770E+03	4.838208E-03	1.274430E-03
7.179715E+03	5.130863E-03	1.351535E-03
7.189659E+03	5.425877E-03	1.429264E-03
7.199603E+03	5.718170E-03	1.506279E-03
7.209547E+03	6.000325E-03	1.580625E-03
7.219491E+03	6.263838E-03	1.650064E-03
7.229436E+03	6.500414E-03	1.712409E-03
7.239380E+03	6.701594E-03	1.765432E-03
7.249324E+03	6.857758E-03	1.806598E-03
7.259268E+03	6.961677E-03	1.834003E-03
7.269212E+03	7.007255E-03	1.846040E-03
7.279157E+03	6.990523E-03	1.841663E-03
7.289101E+03	6.910126E-03	1.820513E-03
7.299045E+03	6.767527E-03	1.782975E-03
7.308989E+03	6.567027E-03	1.730182E-03
7.318933E+03	6.315510E-03	1.663947E-03
7.328878E+03	6.021903E-03	1.586620E-03
7.338822E+03	5.696056E-03	1.500796E-03
7.348766E+03	5.349696E-03	1.409565E-03
7.358710E+03	4.992623E-03	1.315508E-03
7.368654E+03	4.635368E-03	1.221400E-03
7.378599E+03	4.285602E-03	1.129262E-03
7.388543E+03	3.950455E-03	1.040973E-03
7.398487E+03	3.634958E-03	9.578581E-04
7.408431E+03	3.342491E-03	8.808091E-04
7.418375E+03	3.074969E-03	8.103309E-04
7.428320E+03	2.833098E-03	7.466095E-04
7.438264E+03	2.616640E-03	6.895827E-04
7.448208E+03	2.424679E-03	6.390093E-04
7.458152E+03	2.255671E-03	5.944831E-04
7.468097E+03	2.108332E-03	5.556662E-04
7.478041E+03	1.980572E-03	5.220076E-04
7.487985E+03	1.870928E-03	4.931225E-04
7.497929E+03	1.777399E-03	4.684834E-04
7.507873E+03	1.698535E-03	4.477090E-04
7.517818E+03	1.632882E-03	4.304157E-04
7.527762E+03	1.579141E-03	4.162617E-04
7.537706E+03	1.536171E-03	4.049466E-04
7.547650E+03	1.502989E-03	3.962110E-04
7.557594E+03	1.478633E-03	3.898020E-04
7.567539E+03	1.462613E-03	3.855903E-04
7.577483E+03	1.454087E-03	3.833541E-04
7.587427E+03	1.452635E-03	3.829832E-04
7.597371E+03	1.457900E-03	3.843831E-04
7.607315E+03	1.469222E-03	3.873806E-04
7.617260E+03	1.486291E-03	3.918935E-04
7.627204E+03	1.508667E-03	3.978063E-04
7.637148E+03	1.535751E-03	4.049610E-04
7.647092E+03	1.567234E-03	4.132764E-04
7.657036E+03	1.602255E-03	4.225254E-04
7.666981E+03	1.640345E-03	4.325847E-04
7.676925E+03	1.680447E-03	4.431752E-04
7.686869E+03	1.721787E-03	4.540931E-04
7.696813E+03	1.763388E-03	4.650808E-04
7.706757E+03	1.804211E-03	4.758644E-04
7.716702E+03	1.843181E-03	4.861599E-04
