#wls	flux	fluxerr
1.600000E+03	3.364283E-16	2.463875E-16
1.640000E+03	3.465459E-16	2.511622E-16
1.680000E+03	3.573718E-16	2.562176E-16
1.720000E+03	3.688966E-16	2.615224E-16
1.760000E+03	3.812504E-16	2.671422E-16
1.800000E+03	3.944209E-16	2.730385E-16
1.840000E+03	4.084643E-16	2.792191E-16
1.880000E+03	4.235051E-16	2.857343E-16
1.920000E+03	4.395250E-16	2.925335E-16
1.960000E+03	4.566085E-16	2.996327E-16
2.000000E+03	4.747671E-16	3.069960E-16
2.040000E+03	4.940795E-16	3.146280E-16
2.080000E+03	5.144816E-16	3.224389E-16
2.120000E+03	5.359416E-16	3.303596E-16
2.160000E+03	5.583902E-16	3.382978E-16
2.200000E+03	5.815834E-16	3.460587E-16
2.240000E+03	6.052430E-16	3.534364E-16
2.280000E+03	6.292295E-16	3.603161E-16
2.320000E+03	6.535402E-16	3.666652E-16
2.360000E+03	6.785440E-16	3.726552E-16
2.400000E+03	7.045333E-16	3.783979E-16
2.440000E+03	7.317577E-16	3.839674E-16
2.480000E+03	7.605247E-16	3.894538E-16
2.520000E+03	7.909307E-16	3.948241E-16
2.560000E+03	8.231306E-16	4.000671E-16
2.600000E+03	8.572041E-16	4.051261E-16
2.640000E+03	8.932556E-16	4.099493E-16
2.680000E+03	9.312830E-16	4.144305E-16
2.720000E+03	9.712783E-16	4.184596E-16
2.760000E+03	1.013195E-15	4.219104E-16
2.800000E+03	1.056952E-15	4.246447E-16
2.840000E+03	1.102462E-15	4.265286E-16
2.880000E+03	1.149700E-15	4.274569E-16
2.920000E+03	1.198695E-15	4.273490E-16
2.960000E+03	1.249591E-15	4.261652E-16
3.000000E+03	1.302610E-15	4.238876E-16
3.010000E+03	1.316263E-15	4.231575E-16
3.020000E+03	1.330040E-15	4.223485E-16
3.030000E+03	1.343999E-15	4.214774E-16
3.040000E+03	1.358105E-15	4.205320E-16
3.050000E+03	1.372388E-15	4.195192E-16
3.060000E+03	1.386872E-15	4.184452E-16
3.070000E+03	1.401497E-15	4.172897E-16
3.080000E+03	1.416346E-15	4.160764E-16
3.090000E+03	1.431359E-15	4.147852E-16
3.100000E+03	1.446591E-15	4.134305E-16
3.110000E+03	1.462009E-15	4.120011E-16
3.120000E+03	1.477609E-15	4.104947E-16
3.130000E+03	1.493447E-15	4.089247E-16
3.140000E+03	1.509460E-15	4.072726E-16
3.150000E+03	1.525732E-15	4.055591E-16
3.160000E+03	1.542173E-15	4.037586E-16
3.170000E+03	1.558864E-15	4.018913E-16
3.180000E+03	1.575745E-15	3.999400E-16
3.190000E+03	1.592868E-15	3.979169E-16
3.200000E+03	1.610202E-15	3.958124E-16
3.210000E+03	1.627769E-15	3.936313E-16
3.220000E+03	1.645567E-15	3.913715E-16
3.230000E+03	1.663589E-15	3.890308E-16
3.240000E+03	1.681805E-15	3.866010E-16
3.250000E+03	1.700264E-15	3.840935E-16
3.260000E+03	1.718936E-15	3.815001E-16
3.270000E+03	1.737842E-15	3.788257E-16
3.280000E+03	1.756950E-15	3.760630E-16
3.290000E+03	1.776256E-15	3.732113E-16
3.300000E+03	1.795781E-15	3.702755E-16
3.310000E+03	1.815494E-15	3.672497E-16
3.320000E+03	1.835416E-15	3.641390E-16
3.330000E+03	1.855542E-15	3.609435E-16
3.340000E+03	1.875813E-15	3.576530E-16
3.350000E+03	1.896277E-15	3.542788E-16
3.360000E+03	1.916903E-15	3.508168E-16
3.370000E+03	1.937683E-15	3.472685E-16
3.380000E+03	1.958614E-15	3.436357E-16
3.390000E+03	1.979635E-15	3.399115E-16
3.400000E+03	2.000795E-15	3.361080E-16
3.410000E+03	2.022062E-15	3.322237E-16
3.420000E+03	2.043404E-15	3.282583E-16
3.430000E+03	2.064815E-15	3.242159E-16
3.440000E+03	2.086289E-15	3.201015E-16
3.450000E+03	2.107770E-15	3.159124E-16
3.460000E+03	2.129278E-15	3.116586E-16
3.470000E+03	2.150757E-15	3.073394E-16
3.480000E+03	2.172202E-15	3.029619E-16
3.490000E+03	2.193583E-15	2.985308E-16
3.500000E+03	2.214870E-15	2.940512E-16
3.510000E+03	2.236036E-15	2.895292E-16
3.520000E+03	2.257051E-15	2.849717E-16
3.530000E+03	2.277863E-15	2.803832E-16
3.540000E+03	2.298422E-15	2.757693E-16
3.550000E+03	2.318702E-15	2.711398E-16
3.560000E+03	2.338656E-15	2.665021E-16
3.570000E+03	2.358260E-15	2.618674E-16
3.580000E+03	2.377447E-15	2.572418E-16
3.590000E+03	2.396197E-15	2.526380E-16
3.600000E+03	2.414470E-15	2.480663E-16
3.610000E+03	2.432276E-15	2.435424E-16
3.620000E+03	2.449555E-15	2.390749E-16
3.630000E+03	2.466299E-15	2.346773E-16
3.640000E+03	2.482430E-15	2.303563E-16
3.650000E+03	2.497945E-15	2.261256E-16
3.660000E+03	2.512822E-15	2.219961E-16
3.670000E+03	2.527041E-15	2.179783E-16
3.680000E+03	2.540610E-15	2.140842E-16
3.690000E+03	2.553540E-15	2.103244E-16
3.700000E+03	2.565823E-15	2.067067E-16
3.710000E+03	2.577497E-15	2.032411E-16
3.720000E+03	2.588560E-15	1.999326E-16
3.730000E+03	2.599080E-15	1.967900E-16
3.740000E+03	2.609077E-15	1.938165E-16
3.750000E+03	2.618575E-15	1.910139E-16
3.760000E+03	2.627620E-15	1.883838E-16
3.770000E+03	2.636277E-15	1.859276E-16
3.780000E+03	2.644566E-15	1.836420E-16
3.790000E+03	2.652547E-15	1.815250E-16
3.800000E+03	2.660231E-15	1.795703E-16
3.810000E+03	2.667646E-15	1.777716E-16
3.820000E+03	2.674838E-15	1.761233E-16
3.830000E+03	2.681846E-15	1.746186E-16
3.840000E+03	2.688656E-15	1.732469E-16
3.850000E+03	2.695314E-15	1.720014E-16
3.860000E+03	2.701771E-15	1.708693E-16
3.870000E+03	2.708079E-15	1.698445E-16
3.880000E+03	2.714176E-15	1.689137E-16
3.890000E+03	2.720099E-15	1.680706E-16
3.900000E+03	2.725793E-15	1.673035E-16
3.910000E+03	2.731240E-15	1.666038E-16
3.920000E+03	2.736396E-15	1.659615E-16
3.930000E+03	2.741233E-15	1.653686E-16
3.940000E+03	2.745699E-15	1.648159E-16
3.950000E+03	2.749782E-15	1.642975E-16
3.960000E+03	2.753403E-15	1.638038E-16
3.970000E+03	2.756526E-15	1.633283E-16
3.980000E+03	2.759094E-15	1.628637E-16
3.990000E+03	2.761096E-15	1.624057E-16
4.000000E+03	2.762478E-15	1.619481E-16
4.010000E+03	2.763193E-15	1.614848E-16
4.020000E+03	2.763197E-15	1.610107E-16
4.030000E+03	2.762498E-15	1.605233E-16
4.040000E+03	2.761043E-15	1.600172E-16
4.050000E+03	2.758857E-15	1.594913E-16
4.060000E+03	2.755905E-15	1.589410E-16
4.070000E+03	2.752206E-15	1.583651E-16
4.080000E+03	2.747791E-15	1.577631E-16
4.090000E+03	2.742676E-15	1.571337E-16
4.100000E+03	2.736893E-15	1.564764E-16
4.110000E+03	2.730478E-15	1.557912E-16
4.120000E+03	2.723523E-15	1.550813E-16
4.130000E+03	2.716066E-15	1.543472E-16
4.140000E+03	2.708194E-15	1.535921E-16
4.150000E+03	2.699959E-15	1.528176E-16
4.160000E+03	2.691464E-15	1.520283E-16
4.170000E+03	2.682814E-15	1.512294E-16
4.180000E+03	2.674078E-15	1.504240E-16
4.190000E+03	2.665368E-15	1.496180E-16
4.200000E+03	2.656757E-15	1.488154E-16
4.210000E+03	2.648355E-15	1.480226E-16
4.220000E+03	2.640232E-15	1.472436E-16
4.230000E+03	2.632493E-15	1.464847E-16
4.240000E+03	2.625196E-15	1.457496E-16
4.250000E+03	2.618412E-15	1.450429E-16
4.260000E+03	2.612182E-15	1.443676E-16
4.270000E+03	2.606581E-15	1.437280E-16
4.280000E+03	2.601626E-15	1.431259E-16
4.290000E+03	2.597346E-15	1.425629E-16
4.300000E+03	2.593736E-15	1.420391E-16
4.310000E+03	2.590775E-15	1.415534E-16
4.320000E+03	2.588450E-15	1.411048E-16
4.330000E+03	2.586734E-15	1.406917E-16
4.340000E+03	2.585567E-15	1.403103E-16
4.350000E+03	2.584898E-15	1.399572E-16
4.360000E+03	2.584640E-15	1.396272E-16
4.370000E+03	2.584742E-15	1.393169E-16
4.380000E+03	2.585121E-15	1.390212E-16
4.390000E+03	2.585752E-15	1.387382E-16
4.400000E+03	2.586543E-15	1.384626E-16
4.410000E+03	2.587438E-15	1.381912E-16
4.420000E+03	2.588361E-15	1.379200E-16
4.430000E+03	2.589281E-15	1.376474E-16
4.440000E+03	2.590100E-15	1.373687E-16
4.450000E+03	2.590750E-15	1.370808E-16
4.460000E+03	2.591184E-15	1.367821E-16
4.470000E+03	2.591341E-15	1.364704E-16
4.480000E+03	2.591165E-15	1.361438E-16
4.490000E+03	2.590584E-15	1.357997E-16
4.500000E+03	2.589576E-15	1.354380E-16
4.510000E+03	2.588081E-15	1.350570E-16
4.520000E+03	2.586070E-15	1.346562E-16
4.530000E+03	2.583521E-15	1.342356E-16
4.540000E+03	2.580371E-15	1.337931E-16
4.550000E+03	2.576636E-15	1.333304E-16
4.560000E+03	2.572292E-15	1.328472E-16
4.570000E+03	2.567346E-15	1.323446E-16
4.580000E+03	2.561767E-15	1.318218E-16
4.590000E+03	2.555599E-15	1.312815E-16
4.600000E+03	2.548828E-15	1.307235E-16
4.610000E+03	2.541512E-15	1.301509E-16
4.620000E+03	2.533650E-15	1.295639E-16
4.630000E+03	2.525293E-15	1.289650E-16
4.640000E+03	2.516477E-15	1.283557E-16
4.650000E+03	2.507285E-15	1.277400E-16
4.660000E+03	2.497742E-15	1.271186E-16
4.670000E+03	2.487942E-15	1.264954E-16
4.680000E+03	2.477938E-15	1.258725E-16
4.690000E+03	2.467787E-15	1.252515E-16
4.700000E+03	2.457592E-15	1.246366E-16
4.710000E+03	2.447391E-15	1.240286E-16
4.720000E+03	2.437267E-15	1.234303E-16
4.730000E+03	2.427258E-15	1.228422E-16
4.740000E+03	2.417448E-15	1.222672E-16
4.750000E+03	2.407851E-15	1.217044E-16
4.760000E+03	2.398549E-15	1.211564E-16
4.770000E+03	2.389575E-15	1.206233E-16
4.780000E+03	2.381007E-15	1.201075E-16
4.790000E+03	2.372876E-15	1.196089E-16
4.800000E+03	2.365231E-15	1.191284E-16
4.810000E+03	2.358121E-15	1.186666E-16
4.820000E+03	2.351591E-15	1.182243E-16
4.830000E+03	2.345682E-15	1.178019E-16
4.840000E+03	2.340412E-15	1.173986E-16
4.850000E+03	2.335839E-15	1.170157E-16
4.860000E+03	2.331995E-15	1.166532E-16
4.870000E+03	2.328887E-15	1.163099E-16
4.880000E+03	2.326539E-15	1.159854E-16
4.890000E+03	2.324992E-15	1.156802E-16
4.900000E+03	2.324216E-15	1.153914E-16
4.910000E+03	2.324262E-15	1.151200E-16
4.920000E+03	2.325110E-15	1.148636E-16
4.930000E+03	2.326731E-15	1.146192E-16
4.940000E+03	2.329134E-15	1.143859E-16
4.950000E+03	2.332294E-15	1.141611E-16
4.960000E+03	2.336159E-15	1.139404E-16
4.970000E+03	2.340710E-15	1.137216E-16
4.980000E+03	2.345851E-15	1.134982E-16
4.990000E+03	2.351569E-15	1.132678E-16
5.000000E+03	2.357773E-15	1.130242E-16
5.010000E+03	2.364364E-15	1.127607E-16
5.020000E+03	2.371279E-15	1.124724E-16
5.030000E+03	2.378404E-15	1.121517E-16
5.040000E+03	2.385644E-15	1.117921E-16
5.050000E+03	2.392896E-15	1.113868E-16
5.060000E+03	2.400057E-15	1.109288E-16
5.070000E+03	2.406998E-15	1.104105E-16
5.080000E+03	2.413638E-15	1.098264E-16
5.090000E+03	2.419852E-15	1.091692E-16
5.100000E+03	2.425539E-15	1.084331E-16
5.110000E+03	2.430584E-15	1.076119E-16
5.120000E+03	2.434924E-15	1.067020E-16
5.130000E+03	2.438433E-15	1.056974E-16
5.140000E+03	2.441093E-15	1.045969E-16
5.150000E+03	2.442799E-15	1.033960E-16
5.160000E+03	2.443530E-15	1.020940E-16
5.170000E+03	2.443231E-15	1.006889E-16
5.180000E+03	2.441860E-15	9.917961E-17
5.190000E+03	2.439435E-15	9.756767E-17
5.200000E+03	2.435940E-15	9.585346E-17
5.210000E+03	2.431396E-15	9.403909E-17
5.220000E+03	2.425836E-15	9.212746E-17
5.230000E+03	2.419279E-15	9.012137E-17
5.240000E+03	2.411778E-15	8.802550E-17
5.250000E+03	2.403372E-15	8.584467E-17
5.260000E+03	2.394153E-15	8.358663E-17
5.270000E+03	2.384171E-15	8.125885E-17
5.280000E+03	2.373505E-15	7.887135E-17
5.290000E+03	2.362232E-15	7.643623E-17
5.300000E+03	2.350411E-15	7.396731E-17
5.310000E+03	2.338120E-15	7.148221E-17
5.320000E+03	2.325437E-15	6.900205E-17
5.330000E+03	2.312436E-15	6.655204E-17
5.340000E+03	2.299163E-15	6.416135E-17
5.350000E+03	2.285706E-15	6.186547E-17
5.360000E+03	2.272125E-15	5.970428E-17
5.370000E+03	2.258472E-15	5.772240E-17
5.380000E+03	2.244774E-15	5.596737E-17
5.390000E+03	2.231116E-15	5.448950E-17
5.400000E+03	2.217514E-15	5.333458E-17
5.410000E+03	2.204040E-15	5.254148E-17
5.420000E+03	2.190697E-15	5.213195E-17
5.430000E+03	2.177528E-15	5.210725E-17
5.440000E+03	2.164545E-15	5.244539E-17
5.450000E+03	2.151801E-15	5.310755E-17
5.460000E+03	2.139283E-15	5.404306E-17
5.470000E+03	2.126974E-15	5.519774E-17
5.480000E+03	2.114836E-15	5.651821E-17
5.490000E+03	2.102872E-15	5.795653E-17
5.500000E+03	2.091044E-15	5.946944E-17
5.510000E+03	2.079338E-15	6.102064E-17
5.520000E+03	2.067737E-15	6.258004E-17
5.530000E+03	2.056226E-15	6.412338E-17
5.540000E+03	2.044795E-15	6.563155E-17
5.550000E+03	2.033449E-15	6.709062E-17
5.560000E+03	2.022179E-15	6.848987E-17
5.570000E+03	2.011013E-15	6.982322E-17
5.580000E+03	1.999921E-15	7.108520E-17
5.590000E+03	1.988951E-15	7.227542E-17
5.600000E+03	1.978069E-15	7.339237E-17
5.610000E+03	1.967304E-15	7.443812E-17
5.620000E+03	1.956677E-15	7.541582E-17
5.630000E+03	1.946150E-15	7.632704E-17
5.640000E+03	1.935782E-15	7.717765E-17
5.650000E+03	1.925548E-15	7.797064E-17
5.660000E+03	1.915419E-15	7.870894E-17
5.670000E+03	1.905443E-15	7.939852E-17
5.680000E+03	1.895567E-15	8.004098E-17
5.690000E+03	1.885790E-15	8.063994E-17
5.700000E+03	1.876113E-15	8.119852E-17
5.710000E+03	1.866512E-15	8.171850E-17
5.720000E+03	1.856962E-15	8.220110E-17
5.730000E+03	1.847438E-15	8.264704E-17
5.740000E+03	1.837933E-15	8.305744E-17
5.750000E+03	1.828440E-15	8.343307E-17
5.760000E+03	1.818896E-15	8.377176E-17
5.770000E+03	1.809337E-15	8.407554E-17
5.780000E+03	1.799705E-15	8.434193E-17
5.790000E+03	1.790022E-15	8.457200E-17
5.800000E+03	1.780255E-15	8.476421E-17
5.810000E+03	1.770415E-15	8.491899E-17
5.820000E+03	1.760496E-15	8.503609E-17
5.830000E+03	1.750518E-15	8.511645E-17
5.840000E+03	1.740464E-15	8.515949E-17
5.850000E+03	1.730342E-15	8.516586E-17
5.860000E+03	1.720181E-15	8.513747E-17
5.870000E+03	1.710013E-15	8.507653E-17
5.880000E+03	1.699817E-15	8.498275E-17
5.890000E+03	1.689647E-15	8.485984E-17
5.900000E+03	1.679505E-15	8.470887E-17
5.910000E+03	1.669428E-15	8.453298E-17
5.920000E+03	1.659436E-15	8.433447E-17
5.930000E+03	1.649531E-15	8.411477E-17
5.940000E+03	1.639750E-15	8.387723E-17
5.950000E+03	1.630110E-15	8.362424E-17
5.960000E+03	1.620610E-15	8.335723E-17
5.970000E+03	1.611303E-15	8.308040E-17
5.980000E+03	1.602165E-15	8.279412E-17
5.990000E+03	1.593227E-15	8.250153E-17
6.000000E+03	1.584500E-15	8.220474E-17
6.010000E+03	1.575976E-15	8.190487E-17
6.020000E+03	1.567683E-15	8.160483E-17
6.030000E+03	1.559592E-15	8.130466E-17
6.040000E+03	1.551748E-15	8.100808E-17
6.050000E+03	1.544123E-15	8.071499E-17
6.060000E+03	1.536741E-15	8.042804E-17
6.070000E+03	1.529595E-15	8.014792E-17
6.080000E+03	1.522690E-15	7.987617E-17
6.090000E+03	1.516020E-15	7.961332E-17
6.100000E+03	1.509574E-15	7.935979E-17
6.110000E+03	1.503380E-15	7.911779E-17
6.120000E+03	1.497394E-15	7.888562E-17
6.130000E+03	1.491644E-15	7.866529E-17
6.140000E+03	1.486103E-15	7.845579E-17
6.150000E+03	1.480781E-15	7.825790E-17
6.160000E+03	1.475611E-15	7.806842E-17
6.170000E+03	1.470620E-15	7.788878E-17
6.180000E+03	1.465757E-15	7.771638E-17
6.190000E+03	1.461007E-15	7.755037E-17
6.200000E+03	1.456333E-15	7.738873E-17
6.210000E+03	1.451770E-15	7.723311E-17
6.220000E+03	1.447366E-15	7.708600E-17
6.230000E+03	1.443169E-15	7.694972E-17
6.240000E+03	1.439224E-15	7.682647E-17
6.250000E+03	1.435518E-15	7.671534E-17
6.260000E+03	1.432128E-15	7.662021E-17
6.270000E+03	1.429016E-15	7.653886E-17
6.280000E+03	1.426218E-15	7.647293E-17
6.290000E+03	1.423746E-15	7.642291E-17
6.300000E+03	1.421556E-15	7.638612E-17
6.310000E+03	1.419656E-15	7.636281E-17
6.320000E+03	1.418033E-15	7.635208E-17
6.330000E+03	1.416673E-15	7.635296E-17
6.340000E+03	1.415522E-15	7.636232E-17
6.350000E+03	1.414562E-15	7.637906E-17
6.360000E+03	1.413755E-15	7.640102E-17
6.370000E+03	1.413064E-15	7.642605E-17
6.380000E+03	1.412429E-15	7.645094E-17
6.390000E+03	1.411791E-15	7.647255E-17
6.400000E+03	1.411094E-15	7.648780E-17
6.410000E+03	1.410299E-15	7.649478E-17
6.420000E+03	1.409351E-15	7.649063E-17
6.430000E+03	1.408154E-15	7.647035E-17
6.440000E+03	1.406738E-15	7.643574E-17
6.450000E+03	1.405076E-15	7.638542E-17
6.460000E+03	1.403161E-15	7.631929E-17
6.470000E+03	1.401014E-15	7.623856E-17
6.480000E+03	1.398594E-15	7.614114E-17
6.490000E+03	1.395929E-15	7.602852E-17
6.500000E+03	1.393005E-15	7.590003E-17
6.510000E+03	1.389834E-15	7.575628E-17
6.520000E+03	1.386367E-15	7.559455E-17
6.530000E+03	1.382663E-15	7.541806E-17
6.540000E+03	1.378676E-15	7.522436E-17
6.550000E+03	1.374428E-15	7.501466E-17
6.560000E+03	1.369921E-15	7.478915E-17
6.570000E+03	1.365136E-15	7.454702E-17
6.580000E+03	1.360099E-15	7.428997E-17
6.590000E+03	1.354817E-15	7.401868E-17
6.600000E+03	1.349276E-15	7.373277E-17
6.610000E+03	1.343483E-15	7.343320E-17
6.620000E+03	1.337449E-15	7.312103E-17
6.630000E+03	1.331204E-15	7.279860E-17
6.640000E+03	1.324717E-15	7.246474E-17
6.650000E+03	1.318020E-15	7.212191E-17
6.660000E+03	1.311128E-15	7.177139E-17
6.670000E+03	1.304030E-15	7.141324E-17
6.680000E+03	1.296763E-15	7.104992E-17
6.690000E+03	1.289320E-15	7.068140E-17
6.700000E+03	1.281737E-15	7.031000E-17
6.710000E+03	1.273989E-15	6.993435E-17
6.720000E+03	1.266113E-15	6.955658E-17
6.730000E+03	1.258149E-15	6.917872E-17
6.740000E+03	1.250073E-15	6.879908E-17
6.750000E+03	1.241925E-15	6.841946E-17
6.760000E+03	1.233705E-15	6.803920E-17
6.770000E+03	1.225454E-15	6.765991E-17
6.780000E+03	1.217172E-15	6.728077E-17
6.790000E+03	1.208881E-15	6.690211E-17
6.800000E+03	1.200625E-15	6.652547E-17
6.810000E+03	1.192384E-15	6.614881E-17
6.820000E+03	1.184222E-15	6.577493E-17
6.830000E+03	1.176121E-15	6.540197E-17
6.840000E+03	1.168144E-15	6.503293E-17
6.850000E+03	1.160272E-15	6.466618E-17
6.860000E+03	1.152527E-15	6.430265E-17
6.870000E+03	1.144950E-15	6.394456E-17
6.880000E+03	1.137561E-15	6.359308E-17
6.890000E+03	1.130337E-15	6.324713E-17
6.900000E+03	1.123337E-15	6.291041E-17
6.910000E+03	1.116555E-15	6.258312E-17
6.920000E+03	1.110026E-15	6.226777E-17
6.930000E+03	1.103719E-15	6.196330E-17
6.940000E+03	1.097662E-15	6.167203E-17
6.950000E+03	1.091862E-15	6.139494E-17
6.960000E+03	1.086300E-15	6.113163E-17
6.970000E+03	1.080999E-15	6.088383E-17
6.980000E+03	1.075953E-15	6.065183E-17
6.990000E+03	1.071138E-15	6.043446E-17
7.000000E+03	1.066545E-15	6.023153E-17
7.010000E+03	1.062163E-15	6.004256E-17
7.020000E+03	1.057999E-15	5.986804E-17
7.030000E+03	1.053997E-15	5.970479E-17
7.040000E+03	1.050182E-15	5.955414E-17
7.050000E+03	1.046494E-15	5.941264E-17
7.060000E+03	1.042935E-15	5.928029E-17
7.070000E+03	1.039466E-15	5.915470E-17
7.080000E+03	1.036086E-15	5.903584E-17
7.090000E+03	1.032778E-15	5.892251E-17
7.100000E+03	1.029501E-15	5.881238E-17
7.110000E+03	1.026216E-15	5.870319E-17
7.120000E+03	1.022949E-15	5.859628E-17
7.130000E+03	1.019662E-15	5.848953E-17
7.140000E+03	1.016342E-15	5.838208E-17
7.150000E+03	1.012974E-15	5.827314E-17
7.160000E+03	1.009527E-15	5.816084E-17
7.170000E+03	1.006013E-15	5.804577E-17
7.180000E+03	1.002402E-15	5.792621E-17
7.190000E+03	9.986872E-16	5.780173E-17
7.200000E+03	9.948855E-16	5.767322E-17
7.210000E+03	9.909726E-16	5.753923E-17
7.220000E+03	9.869676E-16	5.740087E-17
7.230000E+03	9.828289E-16	5.725571E-17
7.240000E+03	9.785783E-16	5.710507E-17
7.250000E+03	9.742185E-16	5.694919E-17
7.260000E+03	9.697533E-16	5.678844E-17
7.270000E+03	9.651878E-16	5.662330E-17
7.280000E+03	9.605281E-16	5.645439E-17
7.290000E+03	9.557607E-16	5.628126E-17
7.300000E+03	9.509143E-16	5.610596E-17
7.310000E+03	9.459977E-16	5.592946E-17
7.320000E+03	9.410203E-16	5.575282E-17
7.330000E+03	9.359718E-16	5.557598E-17
7.340000E+03	9.308828E-16	5.540139E-17
7.350000E+03	9.257844E-16	5.523153E-17
7.360000E+03	9.206466E-16	5.506531E-17
7.370000E+03	9.155003E-16	5.490531E-17
7.380000E+03	9.103562E-16	5.475287E-17
7.390000E+03	9.052445E-16	5.461058E-17
7.400000E+03	9.001550E-16	5.447852E-17
7.410000E+03	8.951173E-16	5.435917E-17
7.420000E+03	8.901600E-16	5.425489E-17
7.430000E+03	8.852714E-16	5.416552E-17
7.440000E+03	8.804990E-16	5.409437E-17
7.450000E+03	8.758096E-16	5.403969E-17
7.460000E+03	8.712294E-16	5.400316E-17
7.470000E+03	8.667442E-16	5.398377E-17
7.480000E+03	8.623785E-16	5.398265E-17
7.490000E+03	8.580971E-16	5.399692E-17
7.500000E+03	8.539232E-16	5.402708E-17
7.510000E+03	8.498598E-16	5.407203E-17
7.520000E+03	8.458894E-16	5.412906E-17
7.530000E+03	8.420533E-16	5.419887E-17
7.540000E+03	8.383131E-16	5.427679E-17
7.550000E+03	8.346892E-16	5.436160E-17
7.560000E+03	8.311620E-16	5.444926E-17
7.570000E+03	8.277511E-16	5.453798E-17
7.580000E+03	8.244361E-16	5.462320E-17
7.590000E+03	8.212357E-16	5.470275E-17
7.600000E+03	8.181291E-16	5.477171E-17
7.610000E+03	8.151149E-16	5.482635E-17
7.620000E+03	8.122110E-16	5.486422E-17
7.630000E+03	8.093962E-16	5.488018E-17
7.640000E+03	8.066684E-16	5.487046E-17
7.650000E+03	8.040453E-16	5.483266E-17
7.660000E+03	8.015053E-16	5.476179E-17
7.670000E+03	7.990659E-16	5.465567E-17
7.680000E+03	7.966856E-16	5.450822E-17
7.690000E+03	7.944015E-16	5.431890E-17
7.700000E+03	7.922115E-16	5.408467E-17
7.710000E+03	7.900937E-16	5.380135E-17
7.720000E+03	7.880656E-16	5.346766E-17
7.730000E+03	7.861052E-16	5.307989E-17
7.740000E+03	7.842104E-16	5.263594E-17
7.750000E+03	7.823987E-16	5.213530E-17
7.760000E+03	7.806678E-16	5.157643E-17
