#wls	flux	fluxerr
1.600000E+03	3.360865E-16	2.380401E-16
1.640000E+03	3.434227E-16	2.404327E-16
1.680000E+03	3.511684E-16	2.429181E-16
1.720000E+03	3.592721E-16	2.454454E-16
1.760000E+03	3.678044E-16	2.480470E-16
1.800000E+03	3.767932E-16	2.507241E-16
1.840000E+03	3.862647E-16	2.534752E-16
1.880000E+03	3.962434E-16	2.562960E-16
1.920000E+03	4.067103E-16	2.591529E-16
1.960000E+03	4.177267E-16	2.620628E-16
2.000000E+03	4.293507E-16	2.650374E-16
2.040000E+03	4.415966E-16	2.680589E-16
2.080000E+03	4.544756E-16	2.711059E-16
2.120000E+03	4.681169E-16	2.742251E-16
2.160000E+03	4.826445E-16	2.774537E-16
2.200000E+03	4.981759E-16	2.808187E-16
2.240000E+03	5.150221E-16	2.844473E-16
2.280000E+03	5.334018E-16	2.884013E-16
2.320000E+03	5.534422E-16	2.926818E-16
2.360000E+03	5.751800E-16	2.972353E-16
2.400000E+03	5.984846E-16	3.019200E-16
2.440000E+03	6.234516E-16	3.067096E-16
2.480000E+03	6.499702E-16	3.114726E-16
2.520000E+03	6.781119E-16	3.161661E-16
2.560000E+03	7.078199E-16	3.206838E-16
2.600000E+03	7.391750E-16	3.249817E-16
2.640000E+03	7.721295E-16	3.289549E-16
2.680000E+03	8.066582E-16	3.325096E-16
2.720000E+03	8.426841E-16	3.355321E-16
2.760000E+03	8.801524E-16	3.379208E-16
2.800000E+03	9.188519E-16	3.395202E-16
2.840000E+03	9.587379E-16	3.402461E-16
2.880000E+03	9.996809E-16	3.399901E-16
2.920000E+03	1.041808E-15	3.387368E-16
2.960000E+03	1.085349E-15	3.364982E-16
3.000000E+03	1.130720E-15	3.333313E-16
3.010000E+03	1.142417E-15	3.324048E-16
3.020000E+03	1.154230E-15	3.314144E-16
3.030000E+03	1.166188E-15	3.303661E-16
3.040000E+03	1.178313E-15	3.292656E-16
3.050000E+03	1.190601E-15	3.281094E-16
3.060000E+03	1.203044E-15	3.268940E-16
3.070000E+03	1.215699E-15	3.256327E-16
3.080000E+03	1.228525E-15	3.243133E-16
3.090000E+03	1.241517E-15	3.229321E-16
3.100000E+03	1.254728E-15	3.215017E-16
3.110000E+03	1.268150E-15	3.200177E-16
3.120000E+03	1.281806E-15	3.184837E-16
3.130000E+03	1.295627E-15	3.168807E-16
3.140000E+03	1.309724E-15	3.152343E-16
3.150000E+03	1.324030E-15	3.135256E-16
3.160000E+03	1.338564E-15	3.117578E-16
3.170000E+03	1.353348E-15	3.099336E-16
3.180000E+03	1.368372E-15	3.080488E-16
3.190000E+03	1.383655E-15	3.061059E-16
3.200000E+03	1.399189E-15	3.041005E-16
3.210000E+03	1.414991E-15	3.020350E-16
3.220000E+03	1.431052E-15	2.999050E-16
3.230000E+03	1.447390E-15	2.977127E-16
3.240000E+03	1.463994E-15	2.954538E-16
3.250000E+03	1.480853E-15	2.931246E-16
3.260000E+03	1.497986E-15	2.907270E-16
3.270000E+03	1.515381E-15	2.882575E-16
3.280000E+03	1.533055E-15	2.857178E-16
3.290000E+03	1.550997E-15	2.831045E-16
3.300000E+03	1.569196E-15	2.804147E-16
3.310000E+03	1.587642E-15	2.776456E-16
3.320000E+03	1.606350E-15	2.747994E-16
3.330000E+03	1.625310E-15	2.718738E-16
3.340000E+03	1.644511E-15	2.688668E-16
3.350000E+03	1.663942E-15	2.657766E-16
3.360000E+03	1.683568E-15	2.625981E-16
3.370000E+03	1.703404E-15	2.593348E-16
3.380000E+03	1.723416E-15	2.559823E-16
3.390000E+03	1.743621E-15	2.525449E-16
3.400000E+03	1.763984E-15	2.490192E-16
3.410000E+03	1.784447E-15	2.453997E-16
3.420000E+03	1.805054E-15	2.416955E-16
3.430000E+03	1.825723E-15	2.378988E-16
3.440000E+03	1.846450E-15	2.340132E-16
3.450000E+03	1.867206E-15	2.300398E-16
3.460000E+03	1.887963E-15	2.259804E-16
3.470000E+03	1.908672E-15	2.218349E-16
3.480000E+03	1.929309E-15	2.176072E-16
3.490000E+03	1.949804E-15	2.132968E-16
3.500000E+03	1.970161E-15	2.089122E-16
3.510000E+03	1.990314E-15	2.044554E-16
3.520000E+03	2.010201E-15	1.999295E-16
3.530000E+03	2.029787E-15	1.953415E-16
3.540000E+03	2.048968E-15	1.906931E-16
3.550000E+03	2.067695E-15	1.859921E-16
3.560000E+03	2.085917E-15	1.812473E-16
3.570000E+03	2.103568E-15	1.764673E-16
3.580000E+03	2.120586E-15	1.716615E-16
3.590000E+03	2.136891E-15	1.668395E-16
3.600000E+03	2.152495E-15	1.620185E-16
3.610000E+03	2.167326E-15	1.572099E-16
3.620000E+03	2.181385E-15	1.524306E-16
3.630000E+03	2.194674E-15	1.476979E-16
3.640000E+03	2.207199E-15	1.430293E-16
3.650000E+03	2.218972E-15	1.384420E-16
3.660000E+03	2.230026E-15	1.339546E-16
3.670000E+03	2.240424E-15	1.295863E-16
3.680000E+03	2.250204E-15	1.253538E-16
3.690000E+03	2.259391E-15	1.212721E-16
3.700000E+03	2.268094E-15	1.173589E-16
3.710000E+03	2.276338E-15	1.136259E-16
3.720000E+03	2.284214E-15	1.100856E-16
3.730000E+03	2.291788E-15	1.067469E-16
3.740000E+03	2.299147E-15	1.036168E-16
3.750000E+03	2.306334E-15	1.006971E-16
3.760000E+03	2.313429E-15	9.798871E-17
3.770000E+03	2.320529E-15	9.549030E-17
3.780000E+03	2.327661E-15	9.319530E-17
3.790000E+03	2.334890E-15	9.109656E-17
3.800000E+03	2.342272E-15	8.918504E-17
3.810000E+03	2.349854E-15	8.745024E-17
3.820000E+03	2.357657E-15	8.587990E-17
3.830000E+03	2.365709E-15	8.446190E-17
3.840000E+03	2.374052E-15	8.318445E-17
3.850000E+03	2.382657E-15	8.203362E-17
3.860000E+03	2.391547E-15	8.099773E-17
3.870000E+03	2.400716E-15	8.006472E-17
3.880000E+03	2.410130E-15	7.922230E-17
3.890000E+03	2.419769E-15	7.845943E-17
3.900000E+03	2.429606E-15	7.776565E-17
3.910000E+03	2.439590E-15	7.713050E-17
3.920000E+03	2.449705E-15	7.654536E-17
3.930000E+03	2.459870E-15	7.600033E-17
3.940000E+03	2.470062E-15	7.548781E-17
3.950000E+03	2.480235E-15	7.500001E-17
3.960000E+03	2.490300E-15	7.452828E-17
3.970000E+03	2.500203E-15	7.406549E-17
3.980000E+03	2.509888E-15	7.360484E-17
3.990000E+03	2.519296E-15	7.313985E-17
4.000000E+03	2.528324E-15	7.266327E-17
4.010000E+03	2.536908E-15	7.216948E-17
4.020000E+03	2.544980E-15	7.165336E-17
4.030000E+03	2.552455E-15	7.110974E-17
4.040000E+03	2.559246E-15	7.053396E-17
4.050000E+03	2.565293E-15	6.992242E-17
4.060000E+03	2.570522E-15	6.927135E-17
4.070000E+03	2.574848E-15	6.857683E-17
4.080000E+03	2.578258E-15	6.783691E-17
4.090000E+03	2.580693E-15	6.704828E-17
4.100000E+03	2.582152E-15	6.620904E-17
4.110000E+03	2.582631E-15	6.531704E-17
4.120000E+03	2.582127E-15	6.437008E-17
4.130000E+03	2.580715E-15	6.336791E-17
4.140000E+03	2.578432E-15	6.230937E-17
4.150000E+03	2.575353E-15	6.119446E-17
4.160000E+03	2.571596E-15	6.002437E-17
4.170000E+03	2.567275E-15	5.880053E-17
4.180000E+03	2.562524E-15	5.752505E-17
4.190000E+03	2.557517E-15	5.620112E-17
4.200000E+03	2.552401E-15	5.483151E-17
4.210000E+03	2.547399E-15	5.342076E-17
4.220000E+03	2.542684E-15	5.197256E-17
4.230000E+03	2.538496E-15	5.049249E-17
4.240000E+03	2.535017E-15	4.898576E-17
4.250000E+03	2.532506E-15	4.746048E-17
4.260000E+03	2.531153E-15	4.592546E-17
4.270000E+03	2.531154E-15	4.439256E-17
4.280000E+03	2.532683E-15	4.287726E-17
4.290000E+03	2.535929E-15	4.140063E-17
4.300000E+03	2.541031E-15	3.998962E-17
4.310000E+03	2.548075E-15	3.867864E-17
4.320000E+03	2.557147E-15	3.751164E-17
4.330000E+03	2.568276E-15	3.654138E-17
4.340000E+03	2.581468E-15	3.582849E-17
4.350000E+03	2.596691E-15	3.543697E-17
4.360000E+03	2.613831E-15	3.542636E-17
4.370000E+03	2.632741E-15	3.582393E-17
4.380000E+03	2.653229E-15	3.659020E-17
4.390000E+03	2.675165E-15	3.766587E-17
4.400000E+03	2.698301E-15	3.898510E-17
4.410000E+03	2.722446E-15	4.048474E-17
4.420000E+03	2.747320E-15	4.210626E-17
4.430000E+03	2.772665E-15	4.379922E-17
4.440000E+03	2.798207E-15	4.552107E-17
4.450000E+03	2.823661E-15	4.723670E-17
4.460000E+03	2.848733E-15	4.891780E-17
4.470000E+03	2.873149E-15	5.054259E-17
4.480000E+03	2.896659E-15	5.209530E-17
4.490000E+03	2.918922E-15	5.356349E-17
4.500000E+03	2.939724E-15	5.494123E-17
4.510000E+03	2.958814E-15	5.622540E-17
4.520000E+03	2.975934E-15	5.741508E-17
4.530000E+03	2.990895E-15	5.851198E-17
4.540000E+03	3.003509E-15	5.951805E-17
4.550000E+03	3.013642E-15	6.043572E-17
4.560000E+03	3.021144E-15	6.126607E-17
4.570000E+03	3.025975E-15	6.201125E-17
4.580000E+03	3.028059E-15	6.267170E-17
4.590000E+03	3.027432E-15	6.324946E-17
4.600000E+03	3.024069E-15	6.374478E-17
4.610000E+03	3.018107E-15	6.416106E-17
4.620000E+03	3.009591E-15	6.449949E-17
4.630000E+03	2.998673E-15	6.476324E-17
4.640000E+03	2.985536E-15	6.495575E-17
4.650000E+03	2.970357E-15	6.507999E-17
4.660000E+03	2.953310E-15	6.513841E-17
4.670000E+03	2.934658E-15	6.513512E-17
4.680000E+03	2.914571E-15	6.507209E-17
4.690000E+03	2.893348E-15	6.495428E-17
4.700000E+03	2.871140E-15	6.478356E-17
4.710000E+03	2.848217E-15	6.456492E-17
4.720000E+03	2.824791E-15	6.430250E-17
4.730000E+03	2.801064E-15	6.400067E-17
4.740000E+03	2.777230E-15	6.366382E-17
4.750000E+03	2.753491E-15	6.329688E-17
4.760000E+03	2.730011E-15	6.290408E-17
4.770000E+03	2.706942E-15	6.248954E-17
4.780000E+03	2.684446E-15	6.205786E-17
4.790000E+03	2.662649E-15	6.161323E-17
4.800000E+03	2.641665E-15	6.116010E-17
4.810000E+03	2.621600E-15	6.070336E-17
4.820000E+03	2.602555E-15	6.024839E-17
4.830000E+03	2.584646E-15	5.980169E-17
4.840000E+03	2.567944E-15	5.936902E-17
4.850000E+03	2.552561E-15	5.895744E-17
4.860000E+03	2.538566E-15	5.857274E-17
4.870000E+03	2.526072E-15	5.822125E-17
4.880000E+03	2.515172E-15	5.790796E-17
4.890000E+03	2.505933E-15	5.763636E-17
4.900000E+03	2.498469E-15	5.740987E-17
4.910000E+03	2.492841E-15	5.722978E-17
4.920000E+03	2.489173E-15	5.709788E-17
4.930000E+03	2.487489E-15	5.701278E-17
4.940000E+03	2.487869E-15	5.697361E-17
4.950000E+03	2.490352E-15	5.697793E-17
4.960000E+03	2.494961E-15	5.702225E-17
4.970000E+03	2.501692E-15	5.710213E-17
4.980000E+03	2.510494E-15	5.721173E-17
4.990000E+03	2.521359E-15	5.734611E-17
5.000000E+03	2.534151E-15	5.749768E-17
5.010000E+03	2.548776E-15	5.766008E-17
5.020000E+03	2.565083E-15	5.782634E-17
5.030000E+03	2.582890E-15	5.798960E-17
5.040000E+03	2.601987E-15	5.814341E-17
5.050000E+03	2.622111E-15	5.828144E-17
5.060000E+03	2.643027E-15	5.839935E-17
5.070000E+03	2.664457E-15	5.849325E-17
5.080000E+03	2.686086E-15	5.855952E-17
5.090000E+03	2.707643E-15	5.859623E-17
5.100000E+03	2.728804E-15	5.860038E-17
5.110000E+03	2.749304E-15	5.856964E-17
5.120000E+03	2.768836E-15	5.849972E-17
5.130000E+03	2.787161E-15	5.838644E-17
5.140000E+03	2.803981E-15	5.822315E-17
5.150000E+03	2.819127E-15	5.800485E-17
5.160000E+03	2.832348E-15	5.772423E-17
5.170000E+03	2.843530E-15	5.737645E-17
5.180000E+03	2.852479E-15	5.695506E-17
5.190000E+03	2.859116E-15	5.645606E-17
5.200000E+03	2.863336E-15	5.587521E-17
5.210000E+03	2.865124E-15	5.521006E-17
5.220000E+03	2.864469E-15	5.445824E-17
5.230000E+03	2.861332E-15	5.361671E-17
5.240000E+03	2.855820E-15	5.268492E-17
5.250000E+03	2.847979E-15	5.166127E-17
5.260000E+03	2.837885E-15	5.054499E-17
5.270000E+03	2.825688E-15	4.933740E-17
5.280000E+03	2.811533E-15	4.804070E-17
5.290000E+03	2.795581E-15	4.665868E-17
5.300000E+03	2.777954E-15	4.519593E-17
5.310000E+03	2.758891E-15	4.366077E-17
5.320000E+03	2.738560E-15	4.206245E-17
5.330000E+03	2.717160E-15	4.041378E-17
5.340000E+03	2.694863E-15	3.873154E-17
5.350000E+03	2.671890E-15	3.703939E-17
5.360000E+03	2.648404E-15	3.536840E-17
5.370000E+03	2.624613E-15	3.376059E-17
5.380000E+03	2.600640E-15	3.226871E-17
5.390000E+03	2.576675E-15	3.095833E-17
5.400000E+03	2.552878E-15	2.990379E-17
5.410000E+03	2.529380E-15	2.918134E-17
5.420000E+03	2.506331E-15	2.885807E-17
5.430000E+03	2.483829E-15	2.895151E-17
5.440000E+03	2.461711E-15	2.939442E-17
5.450000E+03	2.439906E-15	3.010084E-17
5.460000E+03	2.418308E-15	3.098542E-17
5.470000E+03	2.396832E-15	3.197278E-17
5.480000E+03	2.375434E-15	3.300169E-17
5.490000E+03	2.354134E-15	3.402604E-17
5.500000E+03	2.332873E-15	3.501148E-17
5.510000E+03	2.311652E-15	3.593534E-17
5.520000E+03	2.290510E-15	3.678423E-17
5.530000E+03	2.269421E-15	3.755062E-17
5.540000E+03	2.248440E-15	3.823339E-17
5.550000E+03	2.227602E-15	3.883493E-17
5.560000E+03	2.206946E-15	3.936038E-17
5.570000E+03	2.186490E-15	3.981627E-17
5.580000E+03	2.166275E-15	4.021048E-17
5.590000E+03	2.146342E-15	4.055124E-17
5.600000E+03	2.126751E-15	4.084705E-17
5.610000E+03	2.107494E-15	4.110457E-17
5.620000E+03	2.088647E-15	4.133135E-17
5.630000E+03	2.070195E-15	4.153230E-17
5.640000E+03	2.052160E-15	4.171218E-17
5.650000E+03	2.034604E-15	4.187569E-17
5.660000E+03	2.017495E-15	4.202490E-17
5.670000E+03	2.000859E-15	4.216243E-17
5.680000E+03	1.984669E-15	4.228936E-17
5.690000E+03	1.968914E-15	4.240660E-17
5.700000E+03	1.953593E-15	4.251505E-17
5.710000E+03	1.938676E-15	4.261466E-17
5.720000E+03	1.924104E-15	4.270459E-17
5.730000E+03	1.909831E-15	4.278414E-17
5.740000E+03	1.895827E-15	4.285286E-17
5.750000E+03	1.882013E-15	4.290931E-17
5.760000E+03	1.868352E-15	4.295292E-17
5.770000E+03	1.854783E-15	4.298270E-17
5.780000E+03	1.841226E-15	4.299719E-17
5.790000E+03	1.827647E-15	4.299593E-17
5.800000E+03	1.813991E-15	4.297798E-17
5.810000E+03	1.800215E-15	4.294243E-17
5.820000E+03	1.786280E-15	4.288841E-17
5.830000E+03	1.772157E-15	4.281511E-17
5.840000E+03	1.757824E-15	4.272181E-17
5.850000E+03	1.743289E-15	4.260847E-17
5.860000E+03	1.728530E-15	4.247428E-17
5.870000E+03	1.713569E-15	4.231962E-17
5.880000E+03	1.698418E-15	4.214461E-17
5.890000E+03	1.683091E-15	4.194952E-17
5.900000E+03	1.667627E-15	4.173522E-17
5.910000E+03	1.652009E-15	4.150114E-17
5.920000E+03	1.636315E-15	4.124907E-17
5.930000E+03	1.620551E-15	4.097875E-17
5.940000E+03	1.604720E-15	4.068983E-17
5.950000E+03	1.588900E-15	4.038379E-17
5.960000E+03	1.573074E-15	4.005966E-17
5.970000E+03	1.557283E-15	3.971799E-17
5.980000E+03	1.541563E-15	3.935944E-17
5.990000E+03	1.525935E-15	3.898439E-17
6.000000E+03	1.510418E-15	3.859349E-17
6.010000E+03	1.495033E-15	3.818774E-17
6.020000E+03	1.479839E-15	3.776940E-17
6.030000E+03	1.464841E-15	3.733966E-17
6.040000E+03	1.450084E-15	3.690102E-17
6.050000E+03	1.435615E-15	3.645633E-17
6.060000E+03	1.421464E-15	3.600829E-17
6.070000E+03	1.407684E-15	3.556037E-17
6.080000E+03	1.394327E-15	3.511632E-17
6.090000E+03	1.381414E-15	3.467915E-17
6.100000E+03	1.369035E-15	3.425369E-17
6.110000E+03	1.357212E-15	3.384288E-17
6.120000E+03	1.346036E-15	3.345118E-17
6.130000E+03	1.335540E-15	3.308127E-17
6.140000E+03	1.325776E-15	3.273574E-17
6.150000E+03	1.316789E-15	3.241654E-17
6.160000E+03	1.308653E-15	3.212574E-17
6.170000E+03	1.301366E-15	3.186301E-17
6.180000E+03	1.294939E-15	3.162773E-17
6.190000E+03	1.289320E-15	3.141737E-17
6.200000E+03	1.284503E-15	3.123014E-17
6.210000E+03	1.280477E-15	3.106377E-17
6.220000E+03	1.277205E-15	3.091524E-17
6.230000E+03	1.274629E-15	3.078089E-17
6.240000E+03	1.272756E-15	3.065875E-17
6.250000E+03	1.271519E-15	3.054517E-17
6.260000E+03	1.270884E-15	3.043758E-17
6.270000E+03	1.270833E-15	3.033400E-17
6.280000E+03	1.271293E-15	3.023141E-17
6.290000E+03	1.272260E-15	3.012862E-17
6.300000E+03	1.273660E-15	3.002280E-17
6.310000E+03	1.275469E-15	2.991239E-17
6.320000E+03	1.277626E-15	2.979482E-17
6.330000E+03	1.280088E-15	2.966784E-17
6.340000E+03	1.282810E-15	2.952899E-17
6.350000E+03	1.285745E-15	2.937564E-17
6.360000E+03	1.288847E-15	2.920507E-17
6.370000E+03	1.292047E-15	2.901414E-17
6.380000E+03	1.295298E-15	2.880025E-17
6.390000E+03	1.298531E-15	2.856061E-17
6.400000E+03	1.301716E-15	2.829367E-17
6.410000E+03	1.304806E-15	2.799788E-17
6.420000E+03	1.307757E-15	2.767229E-17
6.430000E+03	1.310504E-15	2.731619E-17
6.440000E+03	1.313029E-15	2.693048E-17
6.450000E+03	1.315317E-15	2.651701E-17
6.460000E+03	1.317295E-15	2.607763E-17
6.470000E+03	1.318978E-15	2.561727E-17
6.480000E+03	1.320326E-15	2.514150E-17
6.490000E+03	1.321300E-15	2.465813E-17
6.500000E+03	1.321911E-15	2.417837E-17
6.510000E+03	1.322150E-15	2.371587E-17
6.520000E+03	1.321975E-15	2.328652E-17
6.530000E+03	1.321409E-15	2.291008E-17
6.540000E+03	1.320457E-15	2.260802E-17
6.550000E+03	1.319130E-15	2.240263E-17
6.560000E+03	1.317401E-15	2.231454E-17
6.570000E+03	1.315329E-15	2.236259E-17
6.580000E+03	1.312890E-15	2.255592E-17
6.590000E+03	1.310107E-15	2.288619E-17
6.600000E+03	1.306961E-15	2.333579E-17
6.610000E+03	1.303455E-15	2.388431E-17
6.620000E+03	1.299618E-15	2.451076E-17
6.630000E+03	1.295439E-15	2.519403E-17
6.640000E+03	1.290913E-15	2.591471E-17
6.650000E+03	1.286095E-15	2.665703E-17
6.660000E+03	1.280965E-15	2.740602E-17
6.670000E+03	1.275542E-15	2.815007E-17
6.680000E+03	1.269892E-15	2.888081E-17
6.690000E+03	1.263996E-15	2.959009E-17
6.700000E+03	1.257902E-15	3.027298E-17
6.710000E+03	1.251616E-15	3.092514E-17
6.720000E+03	1.245185E-15	3.154456E-17
6.730000E+03	1.238617E-15	3.212931E-17
6.740000E+03	1.231961E-15	3.267945E-17
6.750000E+03	1.225222E-15	3.319468E-17
6.760000E+03	1.218451E-15	3.367640E-17
6.770000E+03	1.211653E-15	3.412529E-17
6.780000E+03	1.204873E-15	3.454352E-17
6.790000E+03	1.198138E-15	3.493288E-17
6.800000E+03	1.191450E-15	3.529468E-17
6.810000E+03	1.184851E-15	3.563149E-17
6.820000E+03	1.178342E-15	3.594466E-17
6.830000E+03	1.171961E-15	3.623676E-17
6.840000E+03	1.165727E-15	3.650967E-17
6.850000E+03	1.159635E-15	3.676452E-17
6.860000E+03	1.153719E-15	3.700364E-17
6.870000E+03	1.147992E-15	3.722862E-17
6.880000E+03	1.142466E-15	3.744093E-17
6.890000E+03	1.137130E-15	3.764124E-17
6.900000E+03	1.132033E-15	3.783218E-17
6.910000E+03	1.127141E-15	3.801354E-17
6.920000E+03	1.122478E-15	3.818707E-17
6.930000E+03	1.118049E-15	3.835373E-17
6.940000E+03	1.113854E-15	3.851442E-17
6.950000E+03	1.109891E-15	3.866992E-17
6.960000E+03	1.106159E-15	3.882094E-17
6.970000E+03	1.102650E-15	3.896807E-17
6.980000E+03	1.099379E-15	3.911256E-17
6.990000E+03	1.096292E-15	3.925335E-17
7.000000E+03	1.093419E-15	3.939222E-17
7.010000E+03	1.090725E-15	3.952866E-17
7.020000E+03	1.088192E-15	3.966275E-17
7.030000E+03	1.085802E-15	3.979449E-17
7.040000E+03	1.083554E-15	3.992455E-17
7.050000E+03	1.081406E-15	4.005197E-17
7.060000E+03	1.079357E-15	4.017723E-17
7.070000E+03	1.077360E-15	4.029921E-17
7.080000E+03	1.075413E-15	4.041826E-17
7.090000E+03	1.073471E-15	4.053314E-17
7.100000E+03	1.071531E-15	4.064414E-17
7.110000E+03	1.069569E-15	4.075075E-17
7.120000E+03	1.067562E-15	4.085246E-17
7.130000E+03	1.065490E-15	4.094876E-17
7.140000E+03	1.063309E-15	4.103835E-17
7.150000E+03	1.061045E-15	4.112244E-17
7.160000E+03	1.058658E-15	4.119981E-17
7.170000E+03	1.056134E-15	4.127015E-17
7.180000E+03	1.053459E-15	4.133319E-17
7.190000E+03	1.050644E-15	4.138962E-17
7.200000E+03	1.047680E-15	4.143938E-17
7.210000E+03	1.044539E-15	4.148162E-17
7.220000E+03	1.041239E-15	4.151736E-17
7.230000E+03	1.037755E-15	4.154597E-17
7.240000E+03	1.034131E-15	4.156957E-17
7.250000E+03	1.030327E-15	4.158691E-17
7.260000E+03	1.026391E-15	4.160041E-17
7.270000E+03	1.022285E-15	4.160909E-17
7.280000E+03	1.018061E-15	4.161565E-17
7.290000E+03	1.013707E-15	4.162030E-17
7.300000E+03	1.009234E-15	4.162427E-17
7.310000E+03	1.004656E-15	4.162893E-17
7.320000E+03	9.999848E-16	4.163580E-17
7.330000E+03	9.952360E-16	4.164654E-17
7.340000E+03	9.904024E-16	4.166198E-17
7.350000E+03	9.854993E-16	4.168400E-17
7.360000E+03	9.805423E-16	4.171454E-17
7.370000E+03	9.755465E-16	4.175559E-17
7.380000E+03	9.704614E-16	4.180635E-17
7.390000E+03	9.653452E-16	4.187069E-17
7.400000E+03	9.601462E-16	4.194769E-17
7.410000E+03	9.548776E-16	4.203913E-17
7.420000E+03	9.495296E-16	4.214567E-17
7.430000E+03	9.441137E-16	4.226869E-17
7.440000E+03	9.386181E-16	4.240831E-17
7.450000E+03	9.331390E-16	4.256923E-17
7.460000E+03	9.276624E-16	4.275088E-17
7.470000E+03	9.222167E-16	4.295424E-17
7.480000E+03	9.168509E-16	4.318083E-17
7.490000E+03	9.115692E-16	4.342967E-17
7.500000E+03	9.063967E-16	4.370027E-17
7.510000E+03	9.013358E-16	4.399051E-17
7.520000E+03	8.963882E-16	4.429776E-17
7.530000E+03	8.915978E-16	4.462094E-17
7.540000E+03	8.869216E-16	4.495425E-17
7.550000E+03	8.824027E-16	4.529572E-17
7.560000E+03	8.780186E-16	4.563982E-17
7.570000E+03	8.737470E-16	4.598068E-17
7.580000E+03	8.696302E-16	4.631566E-17
7.590000E+03	8.656456E-16	4.663867E-17
7.600000E+03	8.617925E-16	4.694472E-17
7.610000E+03	8.580484E-16	4.722767E-17
7.620000E+03	8.544558E-16	4.748503E-17
7.630000E+03	8.509710E-16	4.770969E-17
7.640000E+03	8.475931E-16	4.789703E-17
7.650000E+03	8.443434E-16	4.804383E-17
7.660000E+03	8.412214E-16	4.814585E-17
7.670000E+03	8.382047E-16	4.819779E-17
7.680000E+03	8.353145E-16	4.819703E-17
7.690000E+03	8.325285E-16	4.813863E-17
7.700000E+03	8.298460E-16	4.801911E-17
7.710000E+03	8.272881E-16	4.783643E-17
7.720000E+03	8.248323E-16	4.758623E-17
7.730000E+03	8.224994E-16	4.726684E-17
7.740000E+03	8.202669E-16	4.687427E-17
7.750000E+03	8.181558E-16	4.640720E-17
7.760000E+03	8.161651E-16	4.586324E-17
