#wls	flux	fluxerr
1.600000E+03	3.441292E-16	2.445607E-16
1.640000E+03	3.520678E-16	2.473450E-16
1.680000E+03	3.604162E-16	2.502117E-16
1.720000E+03	3.692459E-16	2.531935E-16
1.760000E+03	3.785448E-16	2.562635E-16
1.800000E+03	3.883403E-16	2.594209E-16
1.840000E+03	3.986993E-16	2.626892E-16
1.880000E+03	4.096044E-16	2.660339E-16
1.920000E+03	4.211180E-16	2.694717E-16
1.960000E+03	4.332181E-16	2.729625E-16
2.000000E+03	4.460029E-16	2.765411E-16
2.040000E+03	4.594445E-16	2.801602E-16
2.080000E+03	4.735936E-16	2.838202E-16
2.120000E+03	4.884970E-16	2.875156E-16
2.160000E+03	5.043182E-16	2.913058E-16
2.200000E+03	5.211337E-16	2.951921E-16
2.240000E+03	5.392941E-16	2.993234E-16
2.280000E+03	5.590177E-16	3.037590E-16
2.320000E+03	5.804313E-16	3.084972E-16
2.360000E+03	6.035320E-16	3.134607E-16
2.400000E+03	6.282682E-16	3.185454E-16
2.440000E+03	6.546185E-16	3.236627E-16
2.480000E+03	6.825904E-16	3.287365E-16
2.520000E+03	7.122560E-16	3.337190E-16
2.560000E+03	7.436728E-16	3.385497E-16
2.600000E+03	7.768076E-16	3.431235E-16
2.640000E+03	8.117257E-16	3.473772E-16
2.680000E+03	8.483642E-16	3.511896E-16
2.720000E+03	8.866828E-16	3.544507E-16
2.760000E+03	9.265907E-16	3.570326E-16
2.800000E+03	9.679486E-16	3.587945E-16
2.840000E+03	1.010642E-15	3.596125E-16
2.880000E+03	1.054476E-15	3.593435E-16
2.920000E+03	1.099520E-15	3.579440E-16
2.960000E+03	1.146052E-15	3.554337E-16
3.000000E+03	1.194572E-15	3.518845E-16
3.010000E+03	1.207052E-15	3.508349E-16
3.020000E+03	1.219687E-15	3.497215E-16
3.030000E+03	1.232502E-15	3.485499E-16
3.040000E+03	1.245492E-15	3.473162E-16
3.050000E+03	1.258651E-15	3.460168E-16
3.060000E+03	1.272035E-15	3.446653E-16
3.070000E+03	1.285574E-15	3.432403E-16
3.080000E+03	1.299324E-15	3.417552E-16
3.090000E+03	1.313279E-15	3.402058E-16
3.100000E+03	1.327462E-15	3.385960E-16
3.110000E+03	1.341865E-15	3.369214E-16
3.120000E+03	1.356512E-15	3.351856E-16
3.130000E+03	1.371393E-15	3.333841E-16
3.140000E+03	1.386502E-15	3.315125E-16
3.150000E+03	1.401861E-15	3.295740E-16
3.160000E+03	1.417490E-15	3.275710E-16
3.170000E+03	1.433381E-15	3.254990E-16
3.180000E+03	1.449525E-15	3.233535E-16
3.190000E+03	1.465943E-15	3.211368E-16
3.200000E+03	1.482654E-15	3.188507E-16
3.210000E+03	1.499650E-15	3.164907E-16
3.220000E+03	1.516919E-15	3.140523E-16
3.230000E+03	1.534453E-15	3.115314E-16
3.240000E+03	1.552300E-15	3.089356E-16
3.250000E+03	1.570448E-15	3.062603E-16
3.260000E+03	1.588888E-15	3.035014E-16
3.270000E+03	1.607609E-15	3.006550E-16
3.280000E+03	1.626629E-15	2.977227E-16
3.290000E+03	1.645910E-15	2.946958E-16
3.300000E+03	1.665525E-15	2.915860E-16
3.310000E+03	1.685407E-15	2.883800E-16
3.320000E+03	1.705547E-15	2.850751E-16
3.330000E+03	1.725988E-15	2.816780E-16
3.340000E+03	1.746693E-15	2.781816E-16
3.350000E+03	1.767652E-15	2.745841E-16
3.360000E+03	1.788855E-15	2.708839E-16
3.370000E+03	1.810292E-15	2.670800E-16
3.380000E+03	1.831955E-15	2.631717E-16
3.390000E+03	1.853806E-15	2.591551E-16
3.400000E+03	1.875891E-15	2.550379E-16
3.410000E+03	1.898123E-15	2.508101E-16
3.420000E+03	1.920494E-15	2.464735E-16
3.430000E+03	1.943023E-15	2.420339E-16
3.440000E+03	1.965654E-15	2.374874E-16
3.450000E+03	1.988329E-15	2.328319E-16
3.460000E+03	2.011070E-15	2.280751E-16
3.470000E+03	2.033825E-15	2.232165E-16
3.480000E+03	2.056540E-15	2.182572E-16
3.490000E+03	2.079191E-15	2.132019E-16
3.500000E+03	2.101729E-15	2.080541E-16
3.510000E+03	2.124062E-15	2.028139E-16
3.520000E+03	2.146169E-15	1.974902E-16
3.530000E+03	2.167962E-15	1.920863E-16
3.540000E+03	2.189379E-15	1.866097E-16
3.550000E+03	2.210292E-15	1.810638E-16
3.560000E+03	2.230647E-15	1.754598E-16
3.570000E+03	2.250348E-15	1.698072E-16
3.580000E+03	2.269280E-15	1.641158E-16
3.590000E+03	2.287402E-15	1.584022E-16
3.600000E+03	2.304632E-15	1.526817E-16
3.610000E+03	2.320894E-15	1.469708E-16
3.620000E+03	2.336185E-15	1.412920E-16
3.630000E+03	2.350505E-15	1.356684E-16
3.640000E+03	2.363904E-15	1.301258E-16
3.650000E+03	2.376369E-15	1.246866E-16
3.660000E+03	2.387959E-15	1.193768E-16
3.670000E+03	2.398714E-15	1.142208E-16
3.680000E+03	2.408747E-15	1.092457E-16
3.690000E+03	2.418065E-15	1.044725E-16
3.700000E+03	2.426811E-15	9.992677E-17
3.710000E+03	2.435027E-15	9.562760E-17
3.720000E+03	2.442821E-15	9.159458E-17
3.730000E+03	2.450306E-15	8.784275E-17
3.740000E+03	2.457566E-15	8.437972E-17
3.750000E+03	2.464686E-15	8.120813E-17
3.760000E+03	2.471792E-15	7.832705E-17
3.770000E+03	2.478942E-15	7.572696E-17
3.780000E+03	2.486271E-15	7.339704E-17
3.790000E+03	2.493806E-15	7.132037E-17
3.800000E+03	2.501663E-15	6.947953E-17
3.810000E+03	2.509868E-15	6.785375E-17
3.820000E+03	2.518494E-15	6.642401E-17
3.830000E+03	2.527575E-15	6.516994E-17
3.840000E+03	2.537091E-15	6.407148E-17
3.850000E+03	2.547091E-15	6.311215E-17
3.860000E+03	2.557544E-15	6.227347E-17
3.870000E+03	2.568405E-15	6.153888E-17
3.880000E+03	2.579662E-15	6.089482E-17
3.890000E+03	2.591229E-15	6.032639E-17
3.900000E+03	2.603096E-15	5.982267E-17
3.910000E+03	2.615164E-15	5.937287E-17
3.920000E+03	2.627392E-15	5.896756E-17
3.930000E+03	2.639693E-15	5.859823E-17
3.940000E+03	2.651983E-15	5.825786E-17
3.950000E+03	2.664214E-15	5.793920E-17
3.960000E+03	2.676278E-15	5.763491E-17
3.970000E+03	2.688127E-15	5.734002E-17
3.980000E+03	2.699659E-15	5.704681E-17
3.990000E+03	2.710771E-15	5.674857E-17
4.000000E+03	2.721373E-15	5.644045E-17
4.010000E+03	2.731364E-15	5.611677E-17
4.020000E+03	2.740597E-15	5.577254E-17
4.030000E+03	2.748965E-15	5.540519E-17
4.040000E+03	2.756354E-15	5.501136E-17
4.050000E+03	2.762632E-15	5.458887E-17
4.060000E+03	2.767656E-15	5.413621E-17
4.070000E+03	2.771358E-15	5.365134E-17
4.080000E+03	2.773643E-15	5.313245E-17
4.090000E+03	2.774439E-15	5.257871E-17
4.100000E+03	2.773707E-15	5.198701E-17
4.110000E+03	2.771432E-15	5.135533E-17
4.120000E+03	2.767631E-15	5.068275E-17
4.130000E+03	2.762393E-15	4.996720E-17
4.140000E+03	2.755771E-15	4.920696E-17
4.150000E+03	2.747867E-15	4.840281E-17
4.160000E+03	2.738806E-15	4.755491E-17
4.170000E+03	2.728783E-15	4.666679E-17
4.180000E+03	2.717952E-15	4.574335E-17
4.190000E+03	2.706545E-15	4.478944E-17
4.200000E+03	2.694793E-15	4.381201E-17
4.210000E+03	2.682975E-15	4.281954E-17
4.220000E+03	2.671380E-15	4.181645E-17
4.230000E+03	2.660353E-15	4.080915E-17
4.240000E+03	2.650203E-15	3.980559E-17
4.250000E+03	2.641280E-15	3.881290E-17
4.260000E+03	2.633885E-15	3.784036E-17
4.270000E+03	2.628341E-15	3.690014E-17
4.280000E+03	2.624933E-15	3.600220E-17
4.290000E+03	2.623898E-15	3.515916E-17
4.300000E+03	2.625451E-15	3.438737E-17
4.310000E+03	2.629768E-15	3.370220E-17
4.320000E+03	2.636937E-15	3.312197E-17
4.330000E+03	2.647019E-15	3.266794E-17
4.340000E+03	2.660001E-15	3.235746E-17
4.350000E+03	2.675760E-15	3.220543E-17
4.360000E+03	2.694204E-15	3.222399E-17
4.370000E+03	2.715124E-15	3.241476E-17
4.380000E+03	2.738304E-15	3.277167E-17
4.390000E+03	2.763506E-15	3.328067E-17
4.400000E+03	2.790428E-15	3.391762E-17
4.410000E+03	2.818720E-15	3.465597E-17
4.420000E+03	2.848061E-15	3.546977E-17
4.430000E+03	2.878039E-15	3.632857E-17
4.440000E+03	2.908278E-15	3.720567E-17
4.450000E+03	2.938421E-15	3.807828E-17
4.460000E+03	2.968096E-15	3.892115E-17
4.470000E+03	2.996932E-15	3.971384E-17
4.480000E+03	3.024591E-15	4.044353E-17
4.490000E+03	3.050718E-15	4.110089E-17
4.500000E+03	3.074968E-15	4.168436E-17
4.510000E+03	3.097087E-15	4.220103E-17
4.520000E+03	3.116762E-15	4.265997E-17
4.530000E+03	3.133730E-15	4.307577E-17
4.540000E+03	3.147757E-15	4.346208E-17
4.550000E+03	3.158660E-15	4.382055E-17
4.560000E+03	3.166325E-15	4.415065E-17
4.570000E+03	3.170655E-15	4.445176E-17
4.580000E+03	3.171619E-15	4.471750E-17
4.590000E+03	3.169228E-15	4.494362E-17
4.600000E+03	3.163566E-15	4.513000E-17
4.610000E+03	3.154743E-15	4.527441E-17
4.620000E+03	3.142882E-15	4.537828E-17
4.630000E+03	3.128190E-15	4.544658E-17
4.640000E+03	3.110891E-15	4.547925E-17
4.650000E+03	3.091237E-15	4.547807E-17
4.660000E+03	3.069441E-15	4.544533E-17
4.670000E+03	3.045816E-15	4.537872E-17
4.680000E+03	3.020606E-15	4.527601E-17
4.690000E+03	2.994123E-15	4.513867E-17
4.700000E+03	2.966673E-15	4.496571E-17
4.710000E+03	2.938494E-15	4.475794E-17
4.720000E+03	2.909887E-15	4.451983E-17
4.730000E+03	2.881110E-15	4.425306E-17
4.740000E+03	2.852402E-15	4.396139E-17
4.750000E+03	2.823982E-15	4.364958E-17
4.760000E+03	2.796041E-15	4.331778E-17
4.770000E+03	2.768701E-15	4.296654E-17
4.780000E+03	2.742115E-15	4.259875E-17
4.790000E+03	2.716414E-15	4.221414E-17
4.800000E+03	2.691694E-15	4.181425E-17
4.810000E+03	2.668038E-15	4.140361E-17
4.820000E+03	2.645548E-15	4.098608E-17
4.830000E+03	2.624275E-15	4.056794E-17
4.840000E+03	2.604321E-15	4.015939E-17
4.850000E+03	2.585773E-15	3.976935E-17
4.860000E+03	2.568702E-15	3.940863E-17
4.870000E+03	2.553236E-15	3.908843E-17
4.880000E+03	2.539493E-15	3.881254E-17
4.890000E+03	2.527600E-15	3.858411E-17
4.900000E+03	2.517687E-15	3.840656E-17
4.910000E+03	2.509862E-15	3.827818E-17
4.920000E+03	2.504304E-15	3.819921E-17
4.930000E+03	2.501089E-15	3.816949E-17
4.940000E+03	2.500350E-15	3.818563E-17
4.950000E+03	2.502182E-15	3.824493E-17
4.960000E+03	2.506633E-15	3.834487E-17
4.970000E+03	2.513762E-15	3.847828E-17
4.980000E+03	2.523571E-15	3.863798E-17
4.990000E+03	2.536027E-15	3.881808E-17
5.000000E+03	2.550992E-15	3.900871E-17
5.010000E+03	2.568404E-15	3.920308E-17
5.020000E+03	2.588014E-15	3.939330E-17
5.030000E+03	2.609632E-15	3.956960E-17
5.040000E+03	2.632979E-15	3.972321E-17
5.050000E+03	2.657691E-15	3.984772E-17
5.060000E+03	2.683441E-15	3.993764E-17
5.070000E+03	2.709875E-15	3.999198E-17
5.080000E+03	2.736549E-15	4.001371E-17
5.090000E+03	2.763091E-15	4.000796E-17
5.100000E+03	2.789099E-15	3.998390E-17
5.110000E+03	2.814187E-15	3.995032E-17
5.120000E+03	2.837977E-15	3.990462E-17
5.130000E+03	2.860146E-15	3.984273E-17
5.140000E+03	2.880423E-15	3.976169E-17
5.150000E+03	2.898526E-15	3.965223E-17
5.160000E+03	2.914231E-15	3.950744E-17
5.170000E+03	2.927351E-15	3.932348E-17
5.180000E+03	2.937748E-15	3.909382E-17
5.190000E+03	2.945291E-15	3.881559E-17
5.200000E+03	2.949945E-15	3.849102E-17
5.210000E+03	2.951698E-15	3.811993E-17
5.220000E+03	2.950544E-15	3.770554E-17
5.230000E+03	2.946543E-15	3.725236E-17
5.240000E+03	2.939832E-15	3.675645E-17
5.250000E+03	2.930521E-15	3.621418E-17
5.260000E+03	2.918745E-15	3.562581E-17
5.270000E+03	2.904726E-15	3.499051E-17
5.280000E+03	2.888671E-15	3.431215E-17
5.290000E+03	2.870804E-15	3.359948E-17
5.300000E+03	2.851340E-15	3.285890E-17
5.310000E+03	2.830527E-15	3.210124E-17
5.320000E+03	2.808609E-15	3.133811E-17
5.330000E+03	2.785845E-15	3.057140E-17
5.340000E+03	2.762480E-15	2.980452E-17
5.350000E+03	2.738701E-15	2.904593E-17
5.360000E+03	2.714725E-15	2.830460E-17
5.370000E+03	2.690684E-15	2.759629E-17
5.380000E+03	2.666703E-15	2.694465E-17
5.390000E+03	2.642853E-15	2.637325E-17
5.400000E+03	2.619228E-15	2.590998E-17
5.410000E+03	2.595841E-15	2.558122E-17
5.420000E+03	2.572712E-15	2.540077E-17
5.430000E+03	2.549829E-15	2.537209E-17
5.440000E+03	2.527180E-15	2.548672E-17
5.450000E+03	2.504733E-15	2.571899E-17
5.460000E+03	2.482471E-15	2.603863E-17
5.470000E+03	2.460283E-15	2.641452E-17
5.480000E+03	2.438157E-15	2.681348E-17
5.490000E+03	2.416046E-15	2.720785E-17
5.500000E+03	2.393959E-15	2.757861E-17
5.510000E+03	2.371924E-15	2.790999E-17
5.520000E+03	2.349951E-15	2.819358E-17
5.530000E+03	2.328129E-15	2.842836E-17
5.540000E+03	2.306483E-15	2.861331E-17
5.550000E+03	2.285043E-15	2.875233E-17
5.560000E+03	2.263861E-15	2.885362E-17
5.570000E+03	2.243015E-15	2.892401E-17
5.580000E+03	2.222537E-15	2.897243E-17
5.590000E+03	2.202476E-15	2.900949E-17
5.600000E+03	2.182877E-15	2.904109E-17
5.610000E+03	2.163782E-15	2.907381E-17
5.620000E+03	2.145228E-15	2.911431E-17
5.630000E+03	2.127249E-15	2.916362E-17
5.640000E+03	2.109854E-15	2.922265E-17
5.650000E+03	2.093087E-15	2.929351E-17
5.660000E+03	2.076944E-15	2.937320E-17
5.670000E+03	2.061456E-15	2.946040E-17
5.680000E+03	2.046600E-15	2.955477E-17
5.690000E+03	2.032359E-15	2.965340E-17
5.700000E+03	2.018724E-15	2.975531E-17
5.710000E+03	2.005631E-15	2.986008E-17
5.720000E+03	1.993038E-15	2.996439E-17
5.730000E+03	1.980847E-15	3.006533E-17
5.740000E+03	1.968978E-15	3.016203E-17
5.750000E+03	1.957339E-15	3.025152E-17
5.760000E+03	1.945876E-15	3.033311E-17
5.770000E+03	1.934433E-15	3.040613E-17
5.780000E+03	1.922977E-15	3.047002E-17
5.790000E+03	1.911353E-15	3.052356E-17
5.800000E+03	1.899544E-15	3.056852E-17
5.810000E+03	1.887458E-15	3.060278E-17
5.820000E+03	1.875015E-15	3.062493E-17
5.830000E+03	1.862216E-15	3.063547E-17
5.840000E+03	1.849016E-15	3.063170E-17
5.850000E+03	1.835430E-15	3.061251E-17
5.860000E+03	1.821420E-15	3.057704E-17
5.870000E+03	1.807071E-15	3.052500E-17
5.880000E+03	1.792372E-15	3.045568E-17
5.890000E+03	1.777399E-15	3.037099E-17
5.900000E+03	1.762149E-15	3.027011E-17
5.910000E+03	1.746705E-15	3.015463E-17
5.920000E+03	1.731105E-15	3.002582E-17
5.930000E+03	1.715382E-15	2.988251E-17
5.940000E+03	1.699549E-15	2.972350E-17
5.950000E+03	1.683672E-15	2.954916E-17
5.960000E+03	1.667775E-15	2.935741E-17
5.970000E+03	1.651857E-15	2.914653E-17
5.980000E+03	1.635974E-15	2.891679E-17
5.990000E+03	1.620119E-15	2.866639E-17
6.000000E+03	1.604323E-15	2.839540E-17
6.010000E+03	1.588617E-15	2.810519E-17
6.020000E+03	1.572996E-15	2.779599E-17
6.030000E+03	1.557499E-15	2.746998E-17
6.040000E+03	1.542168E-15	2.713034E-17
6.050000E+03	1.527051E-15	2.677902E-17
6.060000E+03	1.512165E-15	2.641834E-17
6.070000E+03	1.497570E-15	2.605256E-17
6.080000E+03	1.483352E-15	2.568606E-17
6.090000E+03	1.469542E-15	2.532350E-17
6.100000E+03	1.456236E-15	2.497130E-17
6.110000E+03	1.443475E-15	2.463348E-17
6.120000E+03	1.431379E-15	2.431592E-17
6.130000E+03	1.419988E-15	2.402325E-17
6.140000E+03	1.409362E-15	2.375779E-17
6.150000E+03	1.399589E-15	2.352244E-17
6.160000E+03	1.390694E-15	2.331892E-17
6.170000E+03	1.382688E-15	2.314588E-17
6.180000E+03	1.375623E-15	2.300283E-17
6.190000E+03	1.369506E-15	2.288872E-17
6.200000E+03	1.364307E-15	2.279980E-17
6.210000E+03	1.360020E-15	2.273324E-17
6.220000E+03	1.356580E-15	2.268563E-17
6.230000E+03	1.353966E-15	2.265242E-17
6.240000E+03	1.352132E-15	2.262946E-17
6.250000E+03	1.351014E-15	2.261376E-17
6.260000E+03	1.350569E-15	2.260267E-17
6.270000E+03	1.350731E-15	2.259481E-17
6.280000E+03	1.351477E-15	2.259070E-17
6.290000E+03	1.352763E-15	2.258973E-17
6.300000E+03	1.354544E-15	2.259221E-17
6.310000E+03	1.356738E-15	2.259836E-17
6.320000E+03	1.359355E-15	2.260823E-17
6.330000E+03	1.362308E-15	2.262047E-17
6.340000E+03	1.365584E-15	2.263515E-17
6.350000E+03	1.369108E-15	2.264912E-17
6.360000E+03	1.372824E-15	2.265974E-17
6.370000E+03	1.376690E-15	2.266534E-17
6.380000E+03	1.380667E-15	2.266318E-17
6.390000E+03	1.384671E-15	2.265087E-17
6.400000E+03	1.388662E-15	2.262795E-17
6.410000E+03	1.392581E-15	2.259325E-17
6.420000E+03	1.396349E-15	2.254659E-17
6.430000E+03	1.399892E-15	2.248879E-17
6.440000E+03	1.403184E-15	2.242011E-17
6.450000E+03	1.406140E-15	2.234070E-17
6.460000E+03	1.408725E-15	2.225235E-17
6.470000E+03	1.410914E-15	2.215567E-17
6.480000E+03	1.412668E-15	2.205212E-17
6.490000E+03	1.413977E-15	2.194538E-17
6.500000E+03	1.414833E-15	2.183948E-17
6.510000E+03	1.415192E-15	2.173984E-17
6.520000E+03	1.415080E-15	2.165499E-17
6.530000E+03	1.414505E-15	2.159329E-17
6.540000E+03	1.413479E-15	2.156440E-17
6.550000E+03	1.411971E-15	2.157784E-17
6.560000E+03	1.410018E-15	2.164215E-17
6.570000E+03	1.407635E-15	2.176375E-17
6.580000E+03	1.404816E-15	2.194573E-17
6.590000E+03	1.401570E-15	2.218665E-17
6.600000E+03	1.397932E-15	2.248229E-17
6.610000E+03	1.393891E-15	2.282553E-17
6.620000E+03	1.389456E-15	2.320729E-17
6.630000E+03	1.384640E-15	2.361835E-17
6.640000E+03	1.379458E-15	2.405002E-17
6.650000E+03	1.373927E-15	2.449346E-17
6.660000E+03	1.368045E-15	2.494061E-17
6.670000E+03	1.361857E-15	2.538556E-17
6.680000E+03	1.355387E-15	2.582211E-17
6.690000E+03	1.348661E-15	2.624535E-17
6.700000E+03	1.341685E-15	2.665132E-17
6.710000E+03	1.334533E-15	2.703785E-17
6.720000E+03	1.327188E-15	2.740214E-17
6.730000E+03	1.319684E-15	2.774345E-17
6.740000E+03	1.312095E-15	2.806217E-17
6.750000E+03	1.304409E-15	2.835771E-17
6.760000E+03	1.296678E-15	2.863158E-17
6.770000E+03	1.288911E-15	2.888408E-17
6.780000E+03	1.281183E-15	2.911751E-17
6.790000E+03	1.273478E-15	2.933254E-17
6.800000E+03	1.265844E-15	2.953079E-17
6.810000E+03	1.258307E-15	2.971368E-17
6.820000E+03	1.250889E-15	2.988286E-17
6.830000E+03	1.243614E-15	3.003944E-17
6.840000E+03	1.236501E-15	3.018473E-17
6.850000E+03	1.229550E-15	3.031974E-17
6.860000E+03	1.222821E-15	3.044647E-17
6.870000E+03	1.216287E-15	3.056497E-17
6.880000E+03	1.210009E-15	3.067766E-17
6.890000E+03	1.203979E-15	3.078474E-17
6.900000E+03	1.198188E-15	3.088658E-17
6.910000E+03	1.192692E-15	3.098542E-17
6.920000E+03	1.187481E-15	3.108134E-17
6.930000E+03	1.182560E-15	3.117515E-17
6.940000E+03	1.177938E-15	3.126777E-17
6.950000E+03	1.173637E-15	3.136021E-17
6.960000E+03	1.169613E-15	3.145184E-17
6.970000E+03	1.165906E-15	3.154445E-17
6.980000E+03	1.162483E-15	3.163761E-17
6.990000E+03	1.159334E-15	3.173158E-17
7.000000E+03	1.156441E-15	3.182669E-17
7.010000E+03	1.153808E-15	3.192345E-17
7.020000E+03	1.151389E-15	3.202121E-17
7.030000E+03	1.149157E-15	3.212001E-17
7.040000E+03	1.147107E-15	3.222001E-17
7.050000E+03	1.145182E-15	3.232017E-17
7.060000E+03	1.143375E-15	3.242082E-17
7.070000E+03	1.141627E-15	3.252060E-17
7.080000E+03	1.139903E-15	3.261888E-17
7.090000E+03	1.138193E-15	3.271583E-17
7.100000E+03	1.136463E-15	3.281062E-17
7.110000E+03	1.134656E-15	3.290191E-17
7.120000E+03	1.132787E-15	3.299052E-17
7.130000E+03	1.130758E-15	3.307365E-17
7.140000E+03	1.128610E-15	3.315266E-17
7.150000E+03	1.126272E-15	3.322582E-17
7.160000E+03	1.123745E-15	3.329313E-17
7.170000E+03	1.121031E-15	3.335488E-17
7.180000E+03	1.118069E-15	3.340946E-17
7.190000E+03	1.114868E-15	3.345714E-17
7.200000E+03	1.111441E-15	3.349843E-17
7.210000E+03	1.107735E-15	3.353193E-17
7.220000E+03	1.103792E-15	3.355892E-17
7.230000E+03	1.099613E-15	3.357947E-17
7.240000E+03	1.095176E-15	3.359323E-17
7.250000E+03	1.090487E-15	3.360038E-17
7.260000E+03	1.085553E-15	3.360143E-17
7.270000E+03	1.080431E-15	3.359859E-17
7.280000E+03	1.075066E-15	3.359041E-17
7.290000E+03	1.069540E-15	3.358014E-17
7.300000E+03	1.063803E-15	3.356695E-17
7.310000E+03	1.057941E-15	3.355437E-17
7.320000E+03	1.051906E-15	3.354189E-17
7.330000E+03	1.045766E-15	3.353302E-17
7.340000E+03	1.039519E-15	3.352908E-17
7.350000E+03	1.033186E-15	3.353245E-17
7.360000E+03	1.026791E-15	3.354587E-17
7.370000E+03	1.020307E-15	3.357051E-17
7.380000E+03	1.013802E-15	3.361088E-17
7.390000E+03	1.007227E-15	3.366787E-17
7.400000E+03	1.000645E-15	3.374608E-17
7.410000E+03	9.940265E-16	3.384714E-17
7.420000E+03	9.873656E-16	3.397346E-17
7.430000E+03	9.806756E-16	3.412781E-17
7.440000E+03	9.740146E-16	3.431441E-17
7.450000E+03	9.673710E-16	3.453483E-17
7.460000E+03	9.608215E-16	3.479310E-17
7.470000E+03	9.543286E-16	3.508874E-17
7.480000E+03	9.479440E-16	3.542388E-17
7.490000E+03	9.416949E-16	3.579888E-17
7.500000E+03	9.355847E-16	3.621245E-17
7.510000E+03	9.296163E-16	3.666247E-17
7.520000E+03	9.237907E-16	3.714557E-17
7.530000E+03	9.181310E-16	3.765846E-17
7.540000E+03	9.126144E-16	3.819521E-17
7.550000E+03	9.072621E-16	3.875067E-17
7.560000E+03	9.020721E-16	3.931823E-17
7.570000E+03	8.970206E-16	3.989006E-17
7.580000E+03	8.921062E-16	4.045925E-17
7.590000E+03	8.873504E-16	4.101998E-17
7.600000E+03	8.827523E-16	4.156561E-17
7.610000E+03	8.782667E-16	4.208755E-17
7.620000E+03	8.739376E-16	4.258169E-17
7.630000E+03	8.697422E-16	4.304104E-17
7.640000E+03	8.656798E-16	4.345995E-17
7.650000E+03	8.617276E-16	4.383197E-17
7.660000E+03	8.579293E-16	4.415436E-17
7.670000E+03	8.542617E-16	4.442131E-17
7.680000E+03	8.507016E-16	4.462727E-17
7.690000E+03	8.472924E-16	4.477048E-17
7.700000E+03	8.439882E-16	4.484479E-17
7.710000E+03	8.408098E-16	4.484783E-17
7.720000E+03	8.377559E-16	4.477632E-17
7.730000E+03	8.348247E-16	4.462723E-17
7.740000E+03	8.320146E-16	4.439772E-17
7.750000E+03	8.293461E-16	4.408640E-17
7.760000E+03	8.267728E-16	4.368849E-17
