#wls	flux	fluxerr
1.600000E+03	1.400498E-16	9.427555E-17
1.640000E+03	1.413581E-16	9.386423E-17
1.680000E+03	1.426852E-16	9.341256E-17
1.720000E+03	1.440752E-16	9.294786E-17
1.760000E+03	1.455026E-16	9.245148E-17
1.800000E+03	1.469647E-16	9.192014E-17
1.840000E+03	1.485295E-16	9.139414E-17
1.880000E+03	1.501710E-16	9.085413E-17
1.920000E+03	1.518860E-16	9.029564E-17
1.960000E+03	1.537666E-16	8.976971E-17
2.000000E+03	1.557619E-16	8.924178E-17
2.040000E+03	1.579396E-16	8.874611E-17
2.080000E+03	1.603435E-16	8.830076E-17
2.120000E+03	1.629689E-16	8.789577E-17
2.160000E+03	1.658581E-16	8.754629E-17
2.200000E+03	1.690528E-16	8.726511E-17
2.240000E+03	1.725456E-16	8.703854E-17
2.280000E+03	1.763518E-16	8.686457E-17
2.320000E+03	1.804381E-16	8.671714E-17
2.360000E+03	1.848175E-16	8.659390E-17
2.400000E+03	1.894782E-16	8.648079E-17
2.440000E+03	1.943836E-16	8.635377E-17
2.480000E+03	1.995435E-16	8.621112E-17
2.520000E+03	2.049197E-16	8.603097E-17
2.560000E+03	2.104969E-16	8.580327E-17
2.600000E+03	2.162823E-16	8.552830E-17
2.640000E+03	2.222591E-16	8.519737E-17
2.680000E+03	2.283872E-16	8.479459E-17
2.720000E+03	2.347177E-16	8.433945E-17
2.760000E+03	2.412095E-16	8.381744E-17
2.800000E+03	2.479115E-16	8.324675E-17
2.840000E+03	2.547599E-16	8.260699E-17
2.880000E+03	2.617584E-16	8.190211E-17
2.920000E+03	2.688234E-16	8.110947E-17
2.960000E+03	2.759394E-16	8.022960E-17
3.000000E+03	2.830915E-16	7.926330E-17
3.010000E+03	2.849067E-16	7.901475E-17
3.020000E+03	2.867006E-16	7.875453E-17
3.030000E+03	2.885151E-16	7.849434E-17
3.040000E+03	2.903290E-16	7.822833E-17
3.050000E+03	2.921421E-16	7.795653E-17
3.060000E+03	2.939750E-16	7.768445E-17
3.070000E+03	2.958066E-16	7.740646E-17
3.080000E+03	2.976574E-16	7.712794E-17
3.090000E+03	2.995064E-16	7.684340E-17
3.100000E+03	3.013741E-16	7.655806E-17
3.110000E+03	3.032600E-16	7.627173E-17
3.120000E+03	3.051638E-16	7.598420E-17
3.130000E+03	3.070852E-16	7.569527E-17
3.140000E+03	3.090034E-16	7.539977E-17
3.150000E+03	3.109589E-16	7.510748E-17
3.160000E+03	3.129308E-16	7.481316E-17
3.170000E+03	3.149188E-16	7.451660E-17
3.180000E+03	3.169426E-16	7.422229E-17
3.190000E+03	3.189816E-16	7.392519E-17
3.200000E+03	3.210554E-16	7.362965E-17
3.210000E+03	3.231635E-16	7.333528E-17
3.220000E+03	3.253052E-16	7.304166E-17
3.230000E+03	3.274602E-16	7.274401E-17
3.240000E+03	3.296676E-16	7.245076E-17
3.250000E+03	3.319264E-16	7.216132E-17
3.260000E+03	3.342164E-16	7.187092E-17
3.270000E+03	3.365565E-16	7.158331E-17
3.280000E+03	3.389264E-16	7.129382E-17
3.290000E+03	3.413641E-16	7.101013E-17
3.300000E+03	3.438494E-16	7.072752E-17
3.310000E+03	3.464006E-16	7.044935E-17
3.320000E+03	3.489976E-16	7.017106E-17
3.330000E+03	3.516775E-16	6.989969E-17
3.340000E+03	3.544202E-16	6.963062E-17
3.350000E+03	3.572244E-16	6.936317E-17
3.360000E+03	3.601268E-16	6.910390E-17
3.370000E+03	3.631071E-16	6.884824E-17
3.380000E+03	3.661638E-16	6.859538E-17
3.390000E+03	3.693329E-16	6.835141E-17
3.400000E+03	3.725939E-16	6.811182E-17
3.410000E+03	3.759453E-16	6.787568E-17
3.420000E+03	3.794407E-16	6.765194E-17
3.430000E+03	3.830409E-16	6.743277E-17
3.440000E+03	3.867806E-16	6.722350E-17
3.450000E+03	3.906392E-16	6.701969E-17
3.460000E+03	3.946689E-16	6.682944E-17
3.470000E+03	3.988487E-16	6.664817E-17
3.480000E+03	4.032118E-16	6.648044E-17
3.490000E+03	4.077371E-16	6.632169E-17
3.500000E+03	4.124751E-16	6.617909E-17
3.510000E+03	4.174041E-16	6.604796E-17
3.520000E+03	4.225561E-16	6.593219E-17
3.530000E+03	4.279267E-16	6.582987E-17
3.540000E+03	4.335295E-16	6.574185E-17
3.550000E+03	4.393423E-16	6.566358E-17
3.560000E+03	4.453783E-16	6.559594E-17
3.570000E+03	4.516154E-16	6.553462E-17
3.580000E+03	4.580318E-16	6.547560E-17
3.590000E+03	4.646403E-16	6.541997E-17
3.600000E+03	4.714018E-16	6.536155E-17
3.610000E+03	4.783120E-16	6.529931E-17
3.620000E+03	4.853494E-16	6.523000E-17
3.630000E+03	4.925094E-16	6.515286E-17
3.640000E+03	4.997708E-16	6.506503E-17
3.650000E+03	5.071291E-16	6.496604E-17
3.660000E+03	5.145464E-16	6.485134E-17
3.670000E+03	5.220514E-16	6.472498E-17
3.680000E+03	5.295900E-16	6.458073E-17
3.690000E+03	5.371742E-16	6.442079E-17
3.700000E+03	5.447667E-16	6.424152E-17
3.710000E+03	5.523794E-16	6.404531E-17
3.720000E+03	5.599914E-16	6.383080E-17
3.730000E+03	5.675661E-16	6.359504E-17
3.740000E+03	5.751311E-16	6.334250E-17
3.750000E+03	5.826658E-16	6.307222E-17
3.760000E+03	5.901340E-16	6.278178E-17
3.770000E+03	5.975315E-16	6.247239E-17
3.780000E+03	6.048698E-16	6.214688E-17
3.790000E+03	6.121132E-16	6.180328E-17
3.800000E+03	6.192733E-16	6.144448E-17
3.810000E+03	6.263154E-16	6.106877E-17
3.820000E+03	6.332511E-16	6.067908E-17
3.830000E+03	6.400618E-16	6.027535E-17
3.840000E+03	6.467293E-16	5.985759E-17
3.850000E+03	6.532510E-16	5.942728E-17
3.860000E+03	6.596247E-16	5.898584E-17
3.870000E+03	6.658488E-16	5.853461E-17
3.880000E+03	6.718924E-16	5.807233E-17
3.890000E+03	6.777701E-16	5.760159E-17
3.900000E+03	6.834673E-16	5.712234E-17
3.910000E+03	6.889854E-16	5.663574E-17
3.920000E+03	6.943262E-16	5.614282E-17
3.930000E+03	6.994641E-16	5.564223E-17
3.940000E+03	7.044173E-16	5.513602E-17
3.950000E+03	7.091768E-16	5.462385E-17
3.960000E+03	7.137347E-16	5.410536E-17
3.970000E+03	7.181261E-16	5.358325E-17
3.980000E+03	7.223177E-16	5.305489E-17
3.990000E+03	7.263194E-16	5.252075E-17
4.000000E+03	7.301552E-16	5.198217E-17
4.010000E+03	7.338234E-16	5.143842E-17
4.020000E+03	7.373098E-16	5.088787E-17
4.030000E+03	7.406550E-16	5.033257E-17
4.040000E+03	7.438601E-16	4.977174E-17
4.050000E+03	7.469145E-16	4.920377E-17
4.060000E+03	7.498604E-16	4.863053E-17
4.070000E+03	7.526886E-16	4.805050E-17
4.080000E+03	7.554165E-16	4.746389E-17
4.090000E+03	7.580491E-16	4.687018E-17
4.100000E+03	7.606170E-16	4.627050E-17
4.110000E+03	7.631257E-16	4.566450E-17
4.120000E+03	7.655809E-16	4.505201E-17
4.130000E+03	7.680131E-16	4.443443E-17
4.140000E+03	7.704154E-16	4.381120E-17
4.150000E+03	7.728297E-16	4.318475E-17
4.160000E+03	7.752367E-16	4.255427E-17
4.170000E+03	7.776767E-16	4.192260E-17
4.180000E+03	7.801417E-16	4.129017E-17
4.190000E+03	7.826701E-16	4.066032E-17
4.200000E+03	7.852405E-16	4.003354E-17
4.210000E+03	7.878893E-16	3.941382E-17
4.220000E+03	7.906283E-16	3.880426E-17
4.230000E+03	7.934561E-16	3.820782E-17
4.240000E+03	7.963821E-16	3.762850E-17
4.250000E+03	7.994139E-16	3.707076E-17
4.260000E+03	8.025810E-16	3.654058E-17
4.270000E+03	8.058647E-16	3.604222E-17
4.280000E+03	8.092796E-16	3.558200E-17
4.290000E+03	8.128385E-16	3.516653E-17
4.300000E+03	8.165522E-16	3.480263E-17
4.310000E+03	8.204070E-16	3.449627E-17
4.320000E+03	8.244218E-16	3.425483E-17
4.330000E+03	8.286021E-16	3.408488E-17
4.340000E+03	8.329520E-16	3.399243E-17
4.350000E+03	8.374624E-16	3.398214E-17
4.360000E+03	8.421573E-16	3.405863E-17
4.370000E+03	8.470373E-16	3.422353E-17
4.380000E+03	8.521022E-16	3.447603E-17
4.390000E+03	8.573625E-16	3.481383E-17
4.400000E+03	8.628159E-16	3.523272E-17
4.410000E+03	8.684699E-16	3.572804E-17
4.420000E+03	8.743189E-16	3.629391E-17
4.430000E+03	8.803553E-16	3.692406E-17
4.440000E+03	8.865468E-16	3.761097E-17
4.450000E+03	8.928932E-16	3.834850E-17
4.460000E+03	8.993354E-16	3.912810E-17
4.470000E+03	9.058697E-16	3.994382E-17
4.480000E+03	9.124330E-16	4.078740E-17
4.490000E+03	9.189841E-16	4.165183E-17
4.500000E+03	9.255033E-16	4.253140E-17
4.510000E+03	9.319243E-16	4.341863E-17
4.520000E+03	9.382148E-16	4.430792E-17
4.530000E+03	9.443308E-16	4.519345E-17
4.540000E+03	9.502177E-16	4.606917E-17
4.550000E+03	9.558446E-16	4.693045E-17
4.560000E+03	9.611594E-16	4.777189E-17
4.570000E+03	9.661351E-16	4.858954E-17
4.580000E+03	9.707244E-16	4.937864E-17
4.590000E+03	9.749060E-16	5.013597E-17
4.600000E+03	9.786509E-16	5.085807E-17
4.610000E+03	9.819338E-16	5.154186E-17
4.620000E+03	9.847455E-16	5.218521E-17
4.630000E+03	9.870578E-16	5.278519E-17
4.640000E+03	9.888705E-16	5.334046E-17
4.650000E+03	9.901764E-16	5.384941E-17
4.660000E+03	9.909841E-16	5.431147E-17
4.670000E+03	9.913067E-16	5.472642E-17
4.680000E+03	9.911496E-16	5.509376E-17
4.690000E+03	9.905448E-16	5.541458E-17
4.700000E+03	9.895162E-16	5.568963E-17
4.710000E+03	9.880899E-16	5.591998E-17
4.720000E+03	9.863060E-16	5.610754E-17
4.730000E+03	9.841945E-16	5.625384E-17
4.740000E+03	9.818200E-16	5.636244E-17
4.750000E+03	9.792141E-16	5.643519E-17
4.760000E+03	9.764414E-16	5.647592E-17
4.770000E+03	9.735331E-16	5.648664E-17
4.780000E+03	9.705524E-16	5.647127E-17
4.790000E+03	9.675286E-16	5.643189E-17
4.800000E+03	9.644691E-16	5.636930E-17
4.810000E+03	9.614018E-16	5.628555E-17
4.820000E+03	9.583636E-16	5.618326E-17
4.830000E+03	9.553692E-16	5.606376E-17
4.840000E+03	9.524218E-16	5.592770E-17
4.850000E+03	9.495545E-16	5.577752E-17
4.860000E+03	9.467787E-16	5.561434E-17
4.870000E+03	9.441148E-16	5.543980E-17
4.880000E+03	9.415924E-16	5.525604E-17
4.890000E+03	9.392096E-16	5.506335E-17
4.900000E+03	9.369945E-16	5.486366E-17
4.910000E+03	9.349540E-16	5.465768E-17
4.920000E+03	9.331246E-16	5.444773E-17
4.930000E+03	9.315027E-16	5.423375E-17
4.940000E+03	9.301040E-16	5.401671E-17
4.950000E+03	9.289638E-16	5.379867E-17
4.960000E+03	9.280876E-16	5.357984E-17
4.970000E+03	9.274904E-16	5.336092E-17
4.980000E+03	9.271870E-16	5.314250E-17
4.990000E+03	9.272019E-16	5.292565E-17
5.000000E+03	9.275394E-16	5.271016E-17
5.010000E+03	9.282134E-16	5.249633E-17
5.020000E+03	9.292469E-16	5.228483E-17
5.030000E+03	9.306619E-16	5.207622E-17
5.040000E+03	9.324509E-16	5.186928E-17
5.050000E+03	9.346342E-16	5.166430E-17
5.060000E+03	9.372214E-16	5.146084E-17
5.070000E+03	9.402208E-16	5.125836E-17
5.080000E+03	9.436489E-16	5.105666E-17
5.090000E+03	9.475109E-16	5.085485E-17
5.100000E+03	9.518004E-16	5.065138E-17
5.110000E+03	9.565190E-16	5.044507E-17
5.120000E+03	9.616757E-16	5.023514E-17
5.130000E+03	9.672680E-16	5.002014E-17
5.140000E+03	9.732909E-16	4.979850E-17
5.150000E+03	9.797269E-16	4.956810E-17
5.160000E+03	9.865864E-16	4.932824E-17
5.170000E+03	9.938368E-16	4.907619E-17
5.180000E+03	1.001474E-15	4.881075E-17
5.190000E+03	1.009479E-15	4.853025E-17
5.200000E+03	1.017844E-15	4.823366E-17
5.210000E+03	1.026526E-15	4.791862E-17
5.220000E+03	1.035509E-15	4.758451E-17
5.230000E+03	1.044768E-15	4.723054E-17
5.240000E+03	1.054283E-15	4.685681E-17
5.250000E+03	1.064001E-15	4.646249E-17
5.260000E+03	1.073901E-15	4.604882E-17
5.270000E+03	1.083946E-15	4.561728E-17
5.280000E+03	1.094101E-15	4.517020E-17
5.290000E+03	1.104316E-15	4.471042E-17
5.300000E+03	1.114573E-15	4.424322E-17
5.310000E+03	1.124809E-15	4.377329E-17
5.320000E+03	1.134984E-15	4.330746E-17
5.330000E+03	1.145066E-15	4.285432E-17
5.340000E+03	1.155011E-15	4.242335E-17
5.350000E+03	1.164766E-15	4.202483E-17
5.360000E+03	1.174287E-15	4.167056E-17
5.370000E+03	1.183529E-15	4.137312E-17
5.380000E+03	1.192462E-15	4.114594E-17
5.390000E+03	1.201017E-15	4.100104E-17
5.400000E+03	1.209163E-15	4.095085E-17
5.410000E+03	1.216857E-15	4.100560E-17
5.420000E+03	1.224055E-15	4.117243E-17
5.430000E+03	1.230700E-15	4.145322E-17
5.440000E+03	1.236754E-15	4.184515E-17
5.450000E+03	1.242156E-15	4.234006E-17
5.460000E+03	1.246859E-15	4.292710E-17
5.470000E+03	1.250818E-15	4.359340E-17
5.480000E+03	1.254007E-15	4.432524E-17
5.490000E+03	1.256377E-15	4.510744E-17
5.500000E+03	1.257898E-15	4.592517E-17
5.510000E+03	1.258561E-15	4.676452E-17
5.520000E+03	1.258323E-15	4.761090E-17
5.530000E+03	1.257200E-15	4.845263E-17
5.540000E+03	1.255190E-15	4.927833E-17
5.550000E+03	1.252287E-15	5.007739E-17
5.560000E+03	1.248502E-15	5.084105E-17
5.570000E+03	1.243883E-15	5.156293E-17
5.580000E+03	1.238430E-15	5.223596E-17
5.590000E+03	1.232204E-15	5.285639E-17
5.600000E+03	1.225230E-15	5.342012E-17
5.610000E+03	1.217553E-15	5.392466E-17
5.620000E+03	1.209236E-15	5.436912E-17
5.630000E+03	1.200330E-15	5.475295E-17
5.640000E+03	1.190891E-15	5.507642E-17
5.650000E+03	1.180976E-15	5.534049E-17
5.660000E+03	1.170643E-15	5.554672E-17
5.670000E+03	1.159950E-15	5.569717E-17
5.680000E+03	1.148953E-15	5.579426E-17
5.690000E+03	1.137721E-15	5.584132E-17
5.700000E+03	1.126307E-15	5.584131E-17
5.710000E+03	1.114749E-15	5.579677E-17
5.720000E+03	1.103109E-15	5.571146E-17
5.730000E+03	1.091428E-15	5.558857E-17
5.740000E+03	1.079749E-15	5.543123E-17
5.750000E+03	1.068106E-15	5.524253E-17
5.760000E+03	1.056523E-15	5.502484E-17
5.770000E+03	1.045048E-15	5.478208E-17
5.780000E+03	1.033696E-15	5.451630E-17
5.790000E+03	1.022487E-15	5.422995E-17
5.800000E+03	1.011437E-15	5.392528E-17
5.810000E+03	1.000572E-15	5.360486E-17
5.820000E+03	9.898805E-16	5.326948E-17
5.830000E+03	9.793914E-16	5.292187E-17
5.840000E+03	9.690900E-16	5.256246E-17
5.850000E+03	9.589997E-16	5.219365E-17
5.860000E+03	9.491122E-16	5.181607E-17
5.870000E+03	9.394184E-16	5.143023E-17
5.880000E+03	9.299370E-16	5.103810E-17
5.890000E+03	9.206473E-16	5.063944E-17
5.900000E+03	9.115570E-16	5.023550E-17
5.910000E+03	9.026639E-16	4.982691E-17
5.920000E+03	8.939563E-16	4.941373E-17
5.930000E+03	8.854414E-16	4.899697E-17
5.940000E+03	8.771080E-16	4.857660E-17
5.950000E+03	8.689452E-16	4.815253E-17
5.960000E+03	8.609698E-16	4.772618E-17
5.970000E+03	8.531718E-16	4.729738E-17
5.980000E+03	8.455327E-16	4.686549E-17
5.990000E+03	8.380788E-16	4.643231E-17
6.000000E+03	8.307839E-16	4.599665E-17
6.010000E+03	8.236656E-16	4.555975E-17
6.020000E+03	8.167075E-16	4.512091E-17
6.030000E+03	8.099190E-16	4.468084E-17
6.040000E+03	8.032929E-16	4.423928E-17
6.050000E+03	7.968389E-16	4.379691E-17
6.060000E+03	7.905502E-16	4.335343E-17
6.070000E+03	7.844369E-16	4.290948E-17
6.080000E+03	7.784844E-16	4.246429E-17
6.090000E+03	7.727196E-16	4.201935E-17
6.100000E+03	7.671286E-16	4.157388E-17
6.110000E+03	7.617142E-16	4.112797E-17
6.120000E+03	7.565036E-16	4.068301E-17
6.130000E+03	7.514840E-16	4.023816E-17
6.140000E+03	7.466752E-16	3.979432E-17
6.150000E+03	7.420810E-16	3.935144E-17
6.160000E+03	7.377138E-16	3.890989E-17
6.170000E+03	7.335862E-16	3.846998E-17
6.180000E+03	7.297108E-16	3.803195E-17
6.190000E+03	7.260849E-16	3.759515E-17
6.200000E+03	7.227293E-16	3.716011E-17
6.210000E+03	7.196336E-16	3.672566E-17
6.220000E+03	7.167948E-16	3.629095E-17
6.230000E+03	7.142258E-16	3.585587E-17
6.240000E+03	7.119227E-16	3.541940E-17
6.250000E+03	7.098814E-16	3.498046E-17
6.260000E+03	7.080964E-16	3.453785E-17
6.270000E+03	7.065847E-16	3.409141E-17
6.280000E+03	7.053227E-16	3.363897E-17
6.290000E+03	7.043244E-16	3.318017E-17
6.300000E+03	7.035786E-16	3.271338E-17
6.310000E+03	7.030797E-16	3.223727E-17
6.320000E+03	7.028206E-16	3.175045E-17
6.330000E+03	7.027839E-16	3.125111E-17
6.340000E+03	7.029659E-16	3.073813E-17
6.350000E+03	7.033451E-16	3.020969E-17
6.360000E+03	7.039139E-16	2.966474E-17
6.370000E+03	7.046388E-16	2.910131E-17
6.380000E+03	7.055088E-16	2.851864E-17
6.390000E+03	7.064868E-16	2.791525E-17
6.400000E+03	7.075590E-16	2.729100E-17
6.410000E+03	7.086944E-16	2.664556E-17
6.420000E+03	7.098610E-16	2.597922E-17
6.430000E+03	7.110268E-16	2.529302E-17
6.440000E+03	7.121594E-16	2.458894E-17
6.450000E+03	7.132269E-16	2.387005E-17
6.460000E+03	7.142063E-16	2.314100E-17
6.470000E+03	7.150592E-16	2.240744E-17
6.480000E+03	7.157987E-16	2.167831E-17
6.490000E+03	7.164067E-16	2.096339E-17
6.500000E+03	7.168753E-16	2.027476E-17
6.510000E+03	7.172248E-16	1.962739E-17
6.520000E+03	7.174268E-16	1.903679E-17
6.530000E+03	7.174980E-16	1.852134E-17
6.540000E+03	7.174405E-16	1.809991E-17
6.550000E+03	7.172497E-16	1.779084E-17
6.560000E+03	7.169231E-16	1.761052E-17
6.570000E+03	7.164672E-16	1.757112E-17
6.580000E+03	7.158879E-16	1.767753E-17
6.590000E+03	7.151709E-16	1.792526E-17
6.600000E+03	7.143268E-16	1.830312E-17
6.610000E+03	7.133404E-16	1.879477E-17
6.620000E+03	7.122063E-16	1.938201E-17
6.630000E+03	7.109386E-16	2.004675E-17
6.640000E+03	7.095172E-16	2.077075E-17
6.650000E+03	7.079596E-16	2.153832E-17
6.660000E+03	7.062575E-16	2.233485E-17
6.670000E+03	7.044222E-16	2.314826E-17
6.680000E+03	7.024575E-16	2.396814E-17
6.690000E+03	7.003592E-16	2.478554E-17
6.700000E+03	6.981513E-16	2.559400E-17
6.710000E+03	6.958226E-16	2.638722E-17
6.720000E+03	6.933991E-16	2.716139E-17
6.730000E+03	6.908803E-16	2.791271E-17
6.740000E+03	6.882843E-16	2.863898E-17
6.750000E+03	6.856024E-16	2.933759E-17
6.760000E+03	6.828719E-16	3.000847E-17
6.770000E+03	6.800845E-16	3.065012E-17
6.780000E+03	6.772505E-16	3.126225E-17
6.790000E+03	6.743982E-16	3.184576E-17
6.800000E+03	6.715103E-16	3.239973E-17
6.810000E+03	6.686239E-16	3.292605E-17
6.820000E+03	6.657303E-16	3.342462E-17
6.830000E+03	6.628570E-16	3.389727E-17
6.840000E+03	6.599856E-16	3.434367E-17
6.850000E+03	6.571515E-16	3.476633E-17
6.860000E+03	6.543538E-16	3.516598E-17
6.870000E+03	6.515905E-16	3.554336E-17
6.880000E+03	6.488778E-16	3.590018E-17
6.890000E+03	6.462218E-16	3.623770E-17
6.900000E+03	6.436194E-16	3.655665E-17
6.910000E+03	6.410938E-16	3.685929E-17
6.920000E+03	6.386317E-16	3.714577E-17
6.930000E+03	6.362463E-16	3.741779E-17
6.940000E+03	6.339323E-16	3.767595E-17
6.950000E+03	6.317021E-16	3.792187E-17
6.960000E+03	6.295585E-16	3.815660E-17
6.970000E+03	6.275038E-16	3.838116E-17
6.980000E+03	6.255312E-16	3.859596E-17
6.990000E+03	6.236425E-16	3.880192E-17
7.000000E+03	6.218480E-16	3.900048E-17
7.010000E+03	6.201490E-16	3.919248E-17
7.020000E+03	6.185373E-16	3.937814E-17
7.030000E+03	6.170135E-16	3.955822E-17
7.040000E+03	6.155872E-16	3.973402E-17
7.050000E+03	6.142493E-16	3.990563E-17
7.060000E+03	6.130000E-16	4.007369E-17
7.070000E+03	6.118389E-16	4.023881E-17
7.080000E+03	6.107654E-16	4.040154E-17
7.090000E+03	6.097881E-16	4.056302E-17
7.100000E+03	6.088877E-16	4.072255E-17
7.110000E+03	6.080721E-16	4.088120E-17
7.120000E+03	6.073399E-16	4.103939E-17
7.130000E+03	6.066893E-16	4.119752E-17
7.140000E+03	6.061185E-16	4.135597E-17
7.150000E+03	6.056160E-16	4.151445E-17
7.160000E+03	6.051887E-16	4.167388E-17
7.170000E+03	6.048247E-16	4.183393E-17
7.180000E+03	6.045305E-16	4.199549E-17
7.190000E+03	6.042937E-16	4.215815E-17
7.200000E+03	6.041113E-16	4.232211E-17
7.210000E+03	6.039800E-16	4.248757E-17
7.220000E+03	6.039057E-16	4.265537E-17
7.230000E+03	6.038665E-16	4.282433E-17
7.240000E+03	6.038777E-16	4.299594E-17
7.250000E+03	6.039170E-16	4.316899E-17
7.260000E+03	6.039908E-16	4.334426E-17
7.270000E+03	6.040862E-16	4.352119E-17
7.280000E+03	6.042097E-16	4.370053E-17
7.290000E+03	6.043585E-16	4.388236E-17
7.300000E+03	6.045107E-16	4.406537E-17
7.310000E+03	6.046830E-16	4.425096E-17
7.320000E+03	6.048732E-16	4.443917E-17
7.330000E+03	6.050601E-16	4.462856E-17
7.340000E+03	6.052516E-16	4.481978E-17
7.350000E+03	6.054462E-16	4.501275E-17
7.360000E+03	6.056429E-16	4.520733E-17
7.370000E+03	6.058311E-16	4.540261E-17
7.380000E+03	6.060199E-16	4.559906E-17
7.390000E+03	6.062092E-16	4.579640E-17
7.400000E+03	6.063890E-16	4.599349E-17
7.410000E+03	6.065598E-16	4.618987E-17
7.420000E+03	6.067218E-16	4.638501E-17
7.430000E+03	6.068658E-16	4.657750E-17
7.440000E+03	6.070027E-16	4.676738E-17
7.450000E+03	6.071234E-16	4.695307E-17
7.460000E+03	6.072489E-16	4.713520E-17
7.470000E+03	6.073606E-16	4.731121E-17
7.480000E+03	6.074798E-16	4.748158E-17
7.490000E+03	6.075878E-16	4.764355E-17
7.500000E+03	6.077060E-16	4.779741E-17
7.510000E+03	6.078357E-16	4.794184E-17
7.520000E+03	6.079683E-16	4.807460E-17
7.530000E+03	6.081048E-16	4.819420E-17
7.540000E+03	6.082566E-16	4.829986E-17
7.550000E+03	6.084144E-16	4.838916E-17
7.560000E+03	6.085892E-16	4.846125E-17
7.570000E+03	6.087714E-16	4.851360E-17
7.580000E+03	6.089719E-16	4.854529E-17
7.590000E+03	6.091805E-16	4.855374E-17
7.600000E+03	6.094181E-16	4.853884E-17
7.610000E+03	6.096639E-16	4.849716E-17
7.620000E+03	6.099279E-16	4.842777E-17
7.630000E+03	6.101994E-16	4.832809E-17
7.640000E+03	6.104984E-16	4.819808E-17
7.650000E+03	6.108033E-16	4.803440E-17
7.660000E+03	6.111340E-16	4.783708E-17
7.670000E+03	6.114684E-16	4.760292E-17
7.680000E+03	6.118156E-16	4.733126E-17
7.690000E+03	6.121742E-16	4.702071E-17
7.700000E+03	6.125534E-16	4.667078E-17
7.710000E+03	6.129301E-16	4.627866E-17
7.720000E+03	6.133133E-16	4.584413E-17
7.730000E+03	6.137012E-16	4.536628E-17
7.740000E+03	6.140921E-16	4.484438E-17
7.750000E+03	6.144947E-16	4.427866E-17
7.760000E+03	6.148859E-16	4.366721E-17
