#wls	flux	fluxerr
1.600000E+03	1.048919E-16	6.979926E-17
1.640000E+03	1.058003E-16	6.939888E-17
1.680000E+03	1.067103E-16	6.895893E-17
1.720000E+03	1.076384E-16	6.848942E-17
1.760000E+03	1.086202E-16	6.801148E-17
1.800000E+03	1.096175E-16	6.749942E-17
1.840000E+03	1.106657E-16	6.697384E-17
1.880000E+03	1.117824E-16	6.644309E-17
1.920000E+03	1.129472E-16	6.589279E-17
1.960000E+03	1.142154E-16	6.535260E-17
2.000000E+03	1.155665E-16	6.480739E-17
2.040000E+03	1.170369E-16	6.427412E-17
2.080000E+03	1.186630E-16	6.376820E-17
2.120000E+03	1.204238E-16	6.327308E-17
2.160000E+03	1.223745E-16	6.281242E-17
2.200000E+03	1.245512E-16	6.239760E-17
2.240000E+03	1.269314E-16	6.200982E-17
2.280000E+03	1.294921E-16	6.163115E-17
2.320000E+03	1.322677E-16	6.127154E-17
2.360000E+03	1.351951E-16	6.089568E-17
2.400000E+03	1.383076E-16	6.051382E-17
2.440000E+03	1.415603E-16	6.010187E-17
2.480000E+03	1.449469E-16	5.965425E-17
2.520000E+03	1.484604E-16	5.916615E-17
2.560000E+03	1.520747E-16	5.862618E-17
2.600000E+03	1.558016E-16	5.803928E-17
2.640000E+03	1.596336E-16	5.740349E-17
2.680000E+03	1.635442E-16	5.671139E-17
2.720000E+03	1.675449E-16	5.597042E-17
2.760000E+03	1.716473E-16	5.518811E-17
2.800000E+03	1.758813E-16	5.437779E-17
2.840000E+03	1.802575E-16	5.354621E-17
2.880000E+03	1.846757E-16	5.266846E-17
2.920000E+03	1.891487E-16	5.175533E-17
2.960000E+03	1.936161E-16	5.079775E-17
3.000000E+03	1.980921E-16	4.980737E-17
3.010000E+03	1.991956E-16	4.955126E-17
3.020000E+03	2.003253E-16	4.930000E-17
3.030000E+03	2.014451E-16	4.904467E-17
3.040000E+03	2.025728E-16	4.878973E-17
3.050000E+03	2.036905E-16	4.853093E-17
3.060000E+03	2.048160E-16	4.827259E-17
3.070000E+03	2.059492E-16	4.801469E-17
3.080000E+03	2.070901E-16	4.775720E-17
3.090000E+03	2.082207E-16	4.749602E-17
3.100000E+03	2.093764E-16	4.723923E-17
3.110000E+03	2.105395E-16	4.698268E-17
3.120000E+03	2.116920E-16	4.672240E-17
3.130000E+03	2.128693E-16	4.646615E-17
3.140000E+03	2.140534E-16	4.620989E-17
3.150000E+03	2.152443E-16	4.595352E-17
3.160000E+03	2.164418E-16	4.569692E-17
3.170000E+03	2.176632E-16	4.544361E-17
3.180000E+03	2.188909E-16	4.518973E-17
3.190000E+03	2.201420E-16	4.493867E-17
3.200000E+03	2.214162E-16	4.469012E-17
3.210000E+03	2.226960E-16	4.444035E-17
3.220000E+03	2.239984E-16	4.419256E-17
3.230000E+03	2.253403E-16	4.394980E-17
3.240000E+03	2.266869E-16	4.370497E-17
3.250000E+03	2.280723E-16	4.346438E-17
3.260000E+03	2.294958E-16	4.322756E-17
3.270000E+03	2.309401E-16	4.299084E-17
3.280000E+03	2.324217E-16	4.275697E-17
3.290000E+03	2.339231E-16	4.252238E-17
3.300000E+03	2.354778E-16	4.229275E-17
3.310000E+03	2.370850E-16	4.206742E-17
3.320000E+03	2.387272E-16	4.184281E-17
3.330000E+03	2.404205E-16	4.162128E-17
3.340000E+03	2.421644E-16	4.140218E-17
3.350000E+03	2.439579E-16	4.118486E-17
3.360000E+03	2.458169E-16	4.097141E-17
3.370000E+03	2.477404E-16	4.076104E-17
3.380000E+03	2.497276E-16	4.055298E-17
3.390000E+03	2.518104E-16	4.035170E-17
3.400000E+03	2.539545E-16	4.015099E-17
3.410000E+03	2.561755E-16	3.995260E-17
3.420000E+03	2.585047E-16	3.976068E-17
3.430000E+03	2.609243E-16	3.957159E-17
3.440000E+03	2.634492E-16	3.938676E-17
3.450000E+03	2.660777E-16	3.920505E-17
3.460000E+03	2.688406E-16	3.903003E-17
3.470000E+03	2.717197E-16	3.885805E-17
3.480000E+03	2.747292E-16	3.869014E-17
3.490000E+03	2.778832E-16	3.852718E-17
3.500000E+03	2.811792E-16	3.836776E-17
3.510000E+03	2.846468E-16	3.821472E-17
3.520000E+03	2.882675E-16	3.806432E-17
3.530000E+03	2.920543E-16	3.791712E-17
3.540000E+03	2.960203E-16	3.777355E-17
3.550000E+03	3.001622E-16	3.763192E-17
3.560000E+03	3.044769E-16	3.749059E-17
3.570000E+03	3.089455E-16	3.734607E-17
3.580000E+03	3.135959E-16	3.720062E-17
3.590000E+03	3.183933E-16	3.704900E-17
3.600000E+03	3.233344E-16	3.688988E-17
3.610000E+03	3.284154E-16	3.672201E-17
3.620000E+03	3.336326E-16	3.654417E-17
3.630000E+03	3.389821E-16	3.635526E-17
3.640000E+03	3.444292E-16	3.615103E-17
3.650000E+03	3.500003E-16	3.593390E-17
3.660000E+03	3.556607E-16	3.569999E-17
3.670000E+03	3.614210E-16	3.545027E-17
3.680000E+03	3.672615E-16	3.518281E-17
3.690000E+03	3.731773E-16	3.489735E-17
3.700000E+03	3.791485E-16	3.459241E-17
3.710000E+03	3.851698E-16	3.426815E-17
3.720000E+03	3.912504E-16	3.392613E-17
3.730000E+03	3.973550E-16	3.356421E-17
3.740000E+03	4.034778E-16	3.318314E-17
3.750000E+03	4.096123E-16	3.278383E-17
3.760000E+03	4.157519E-16	3.236734E-17
3.770000E+03	4.218751E-16	3.193383E-17
3.780000E+03	4.279744E-16	3.148481E-17
3.790000E+03	4.340418E-16	3.102192E-17
3.800000E+03	4.400547E-16	3.054593E-17
3.810000E+03	4.460040E-16	3.005885E-17
3.820000E+03	4.518663E-16	2.956184E-17
3.830000E+03	4.576316E-16	2.905718E-17
3.840000E+03	4.632895E-16	2.854725E-17
3.844500E+03	4.282856E-16	1.606239E-16
3.846000E+03	4.310323E-16	1.544456E-16
3.847500E+03	4.337532E-16	1.542267E-16
3.849000E+03	4.356176E-16	1.541116E-16
3.850500E+03	4.376249E-16	1.515971E-16
3.852000E+03	4.377109E-16	1.538080E-16
3.853500E+03	4.357065E-16	1.534854E-16
3.855000E+03	4.380516E-16	1.537187E-16
3.856500E+03	4.380596E-16	1.552685E-16
3.858000E+03	4.378988E-16	1.556963E-16
3.859500E+03	4.389067E-16	1.529134E-16
3.861000E+03	4.405120E-16	1.536695E-16
3.862500E+03	4.397798E-16	1.534465E-16
3.864000E+03	4.434244E-16	1.529663E-16
3.865500E+03	4.424713E-16	1.530247E-16
3.867000E+03	4.448174E-16	1.532697E-16
3.868500E+03	4.470468E-16	1.413641E-16
3.870000E+03	4.512898E-16	1.335999E-16
3.871500E+03	4.560529E-16	1.332185E-16
3.873000E+03	4.602058E-16	1.333543E-16
3.874500E+03	4.647228E-16	1.321315E-16
3.876000E+03	4.634324E-16	1.301962E-16
3.877500E+03	4.655851E-16	1.322944E-16
3.879000E+03	4.715843E-16	1.345698E-16
3.880500E+03	4.763235E-16	1.345324E-16
3.882000E+03	4.754361E-16	1.317750E-16
3.883500E+03	4.781484E-16	1.281917E-16
3.885000E+03	4.819527E-16	1.209792E-16
3.886500E+03	4.910342E-16	1.162539E-16
3.888000E+03	4.968930E-16	1.276404E-16
3.889500E+03	4.998407E-16	1.343993E-16
3.891000E+03	5.030616E-16	1.346191E-16
3.892500E+03	5.086227E-16	1.377327E-16
3.894000E+03	5.145223E-16	1.369078E-16
3.895500E+03	5.197073E-16	1.342830E-16
3.897000E+03	5.248538E-16	1.346497E-16
3.898500E+03	5.312618E-16	1.376487E-16
3.900000E+03	5.367863E-16	1.478738E-16
3.901500E+03	5.404258E-16	1.482185E-16
3.903000E+03	5.444556E-16	1.607020E-16
3.904500E+03	5.500723E-16	1.616532E-16
3.906000E+03	5.553774E-16	1.605479E-16
3.907500E+03	5.613982E-16	1.680979E-16
3.909000E+03	5.635567E-16	1.699518E-16
3.910500E+03	5.669249E-16	1.710821E-16
3.912000E+03	5.704626E-16	1.711541E-16
3.913500E+03	5.723224E-16	1.709206E-16
3.915000E+03	5.734149E-16	1.708890E-16
3.916500E+03	5.757303E-16	1.711563E-16
3.918000E+03	5.822089E-16	1.719067E-16
3.919500E+03	5.838613E-16	1.726334E-16
3.921000E+03	5.828466E-16	1.720260E-16
3.922500E+03	5.852146E-16	1.721361E-16
3.924000E+03	5.905366E-16	1.726038E-16
3.925500E+03	5.971212E-16	1.724852E-16
3.927000E+03	5.987093E-16	1.709412E-16
3.928500E+03	5.972523E-16	1.692953E-16
3.930000E+03	5.965759E-16	1.672991E-16
3.931500E+03	5.989709E-16	1.663335E-16
3.933000E+03	6.005722E-16	1.660127E-16
3.934500E+03	6.009631E-16	1.630303E-16
3.936000E+03	6.028899E-16	1.629492E-16
3.937500E+03	6.013802E-16	1.539424E-16
3.939000E+03	6.016669E-16	1.504198E-16
3.940500E+03	6.026825E-16	1.537657E-16
3.942000E+03	6.038674E-16	1.512708E-16
3.943500E+03	6.092447E-16	1.507869E-16
3.945000E+03	6.138151E-16	1.510629E-16
3.946500E+03	6.125787E-16	1.496198E-16
3.948000E+03	6.146104E-16	1.489617E-16
3.949500E+03	6.132305E-16	1.409764E-16
3.951000E+03	6.103399E-16	1.399817E-16
3.952500E+03	6.110954E-16	1.264823E-16
3.954000E+03	6.111346E-16	1.248798E-16
3.955500E+03	6.080610E-16	1.236274E-16
3.957000E+03	6.042057E-16	1.136810E-16
3.958500E+03	6.070448E-16	1.123961E-16
3.960000E+03	6.104833E-16	1.101505E-16
3.961500E+03	6.137527E-16	1.123804E-16
3.963000E+03	6.166966E-16	1.150738E-16
3.964500E+03	6.141302E-16	1.154515E-16
3.966000E+03	6.130748E-16	1.158532E-16
3.967500E+03	6.128660E-16	1.156311E-16
3.969000E+03	6.112761E-16	1.155062E-16
3.970500E+03	6.089694E-16	1.156140E-16
3.972000E+03	6.058937E-16	1.155826E-16
3.973500E+03	6.047853E-16	1.177809E-16
3.975000E+03	5.999107E-16	1.177945E-16
3.976500E+03	5.938759E-16	1.177864E-16
3.978000E+03	5.925842E-16	1.181947E-16
3.979500E+03	5.909405E-16	1.177095E-16
3.981000E+03	5.871330E-16	1.172882E-16
3.982500E+03	5.875612E-16	1.172869E-16
3.984000E+03	5.889669E-16	1.172465E-16
3.985500E+03	5.848720E-16	1.166521E-16
3.987000E+03	5.805290E-16	1.169154E-16
3.988500E+03	5.766158E-16	1.122725E-16
3.990000E+03	5.748271E-16	1.094252E-16
3.991500E+03	5.719953E-16	1.082816E-16
3.993000E+03	5.715882E-16	1.068879E-16
3.994500E+03	5.692122E-16	1.080308E-16
3.996000E+03	5.640979E-16	1.074438E-16
3.997500E+03	5.613823E-16	1.060239E-16
3.999000E+03	5.603746E-16	1.067387E-16
4.000500E+03	5.583367E-16	1.076937E-16
4.002000E+03	5.562072E-16	1.077108E-16
4.003500E+03	5.559293E-16	1.108264E-16
4.005000E+03	5.561078E-16	1.121153E-16
4.006500E+03	5.566906E-16	1.118393E-16
4.008000E+03	5.551213E-16	1.098613E-16
4.009500E+03	5.500171E-16	1.109742E-16
4.011000E+03	5.463603E-16	1.108593E-16
4.012500E+03	5.472556E-16	1.138281E-16
4.014000E+03	5.490380E-16	1.152484E-16
4.015500E+03	5.479244E-16	1.141985E-16
4.017000E+03	5.505939E-16	1.141920E-16
4.018500E+03	5.515023E-16	1.132085E-16
4.020000E+03	5.517845E-16	1.129751E-16
4.021500E+03	5.532540E-16	1.134191E-16
4.023000E+03	5.502742E-16	1.111165E-16
4.024500E+03	5.471245E-16	1.100180E-16
4.026000E+03	5.455534E-16	1.092020E-16
4.027500E+03	5.396107E-16	1.074892E-16
4.029000E+03	5.392005E-16	1.075458E-16
4.030500E+03	5.402518E-16	1.072082E-16
4.032000E+03	5.340992E-16	1.066561E-16
4.033500E+03	5.281679E-16	1.067563E-16
4.035000E+03	5.235413E-16	1.063473E-16
4.036500E+03	5.228691E-16	1.057592E-16
4.038000E+03	5.224448E-16	1.170245E-16
4.039500E+03	5.206759E-16	1.160828E-16
4.041000E+03	5.212826E-16	1.160469E-16
4.042500E+03	5.189390E-16	1.151472E-16
4.044000E+03	5.164125E-16	1.147541E-16
4.045500E+03	5.161312E-16	1.155333E-16
4.047000E+03	5.153275E-16	1.152304E-16
4.048500E+03	5.145238E-16	1.142849E-16
4.050000E+03	5.117876E-16	1.149030E-16
4.051500E+03	5.102001E-16	1.194136E-16
4.053000E+03	5.091087E-16	1.176866E-16
4.054500E+03	5.071161E-16	1.199389E-16
4.056000E+03	5.058545E-16	1.210082E-16
4.057500E+03	5.030389E-16	1.237288E-16
4.059000E+03	5.018684E-16	1.251147E-16
4.060500E+03	5.028527E-16	1.246380E-16
4.062000E+03	5.018909E-16	1.233166E-16
4.063500E+03	5.038286E-16	1.225841E-16
4.065000E+03	5.056357E-16	1.225111E-16
4.066500E+03	5.067636E-16	1.222359E-16
4.068000E+03	5.088452E-16	1.231662E-16
4.069500E+03	5.092809E-16	1.232136E-16
4.071000E+03	5.108400E-16	1.246682E-16
4.072500E+03	5.114455E-16	1.241688E-16
4.074000E+03	5.120379E-16	1.269414E-16
4.075500E+03	5.145639E-16	1.268894E-16
4.077000E+03	5.163321E-16	1.275011E-16
4.078500E+03	5.171598E-16	1.276404E-16
4.080000E+03	5.153220E-16	1.279955E-16
4.081500E+03	5.149083E-16	1.291448E-16
4.083000E+03	5.169248E-16	1.318589E-16
4.084500E+03	5.202351E-16	1.332301E-16
4.086000E+03	5.209712E-16	1.334206E-16
4.087500E+03	5.188193E-16	1.224812E-16
4.089000E+03	5.183138E-16	1.226471E-16
4.090500E+03	5.175861E-16	1.229559E-16
4.092000E+03	5.168059E-16	1.255370E-16
4.093500E+03	5.166399E-16	1.238342E-16
4.095000E+03	5.162648E-16	1.226374E-16
4.096500E+03	5.152490E-16	1.226060E-16
4.098000E+03	5.137365E-16	1.227085E-16
4.099500E+03	5.127074E-16	1.205277E-16
4.101000E+03	5.136389E-16	1.168317E-16
4.102500E+03	5.144136E-16	1.156013E-16
4.104000E+03	5.111488E-16	1.106830E-16
4.105500E+03	5.114265E-16	1.088401E-16
4.107000E+03	5.118873E-16	1.075424E-16
4.108500E+03	5.119688E-16	1.093422E-16
4.110000E+03	5.129916E-16	1.097179E-16
4.111500E+03	5.127069E-16	1.059291E-16
4.113000E+03	5.127752E-16	1.047014E-16
4.114500E+03	5.114444E-16	1.050218E-16
4.116000E+03	5.104795E-16	1.045177E-16
4.117500E+03	5.106913E-16	1.045164E-16
4.119000E+03	5.113477E-16	1.044379E-16
4.120500E+03	5.109318E-16	1.013838E-16
4.122000E+03	5.090380E-16	1.011500E-16
4.123500E+03	5.060455E-16	9.892790E-17
4.125000E+03	5.020850E-16	1.003159E-16
4.126500E+03	5.005960E-16	9.884838E-17
4.128000E+03	4.983221E-16	9.871255E-17
4.129500E+03	4.971205E-16	9.841522E-17
4.131000E+03	4.978284E-16	9.863681E-17
4.132500E+03	4.968882E-16	9.802511E-17
4.134000E+03	4.934495E-16	9.873008E-17
4.135500E+03	4.909393E-16	9.821368E-17
4.137000E+03	4.934651E-16	9.839821E-17
4.138500E+03	4.956378E-16	9.840115E-17
4.140000E+03	4.951811E-16	9.822380E-17
4.141500E+03	4.937039E-16	9.446825E-17
4.143000E+03	4.917293E-16	9.425541E-17
4.144500E+03	4.905004E-16	9.411776E-17
4.146000E+03	4.907104E-16	9.384322E-17
4.147500E+03	4.899522E-16	9.462972E-17
4.149000E+03	4.885920E-16	9.434955E-17
4.150500E+03	4.869176E-16	9.205527E-17
4.152000E+03	4.862376E-16	9.609623E-17
4.153500E+03	4.860546E-16	9.857184E-17
4.155000E+03	4.884102E-16	9.774545E-17
4.156500E+03	4.902294E-16	9.833688E-17
4.158000E+03	4.897584E-16	9.381310E-17
4.159500E+03	4.913289E-16	9.684317E-17
4.161000E+03	4.895360E-16	1.013637E-16
4.162500E+03	4.827043E-16	9.989336E-17
4.164000E+03	4.817354E-16	9.993418E-17
4.165500E+03	4.812376E-16	1.028212E-16
4.167000E+03	4.805565E-16	1.026464E-16
4.168500E+03	4.784617E-16	1.031737E-16
4.170000E+03	4.748222E-16	1.022202E-16
4.171500E+03	4.723604E-16	1.020037E-16
4.173000E+03	4.715478E-16	1.023710E-16
4.174500E+03	4.724892E-16	1.018278E-16
4.176000E+03	4.736661E-16	1.023006E-16
4.177500E+03	4.739660E-16	1.019993E-16
4.179000E+03	4.767662E-16	1.089083E-16
4.180500E+03	4.782705E-16	1.084973E-16
4.182000E+03	4.758471E-16	1.051650E-16
4.183500E+03	4.729523E-16	1.028258E-16
4.185000E+03	4.725710E-16	1.032057E-16
4.186500E+03	4.745856E-16	1.035938E-16
4.188000E+03	4.771501E-16	1.037578E-16
4.189500E+03	4.794921E-16	1.033592E-16
4.191000E+03	4.816377E-16	1.029899E-16
4.192500E+03	4.826049E-16	1.026181E-16
4.194000E+03	4.846065E-16	1.011457E-16
4.195500E+03	4.885461E-16	1.011361E-16
4.197000E+03	4.907966E-16	1.008712E-16
4.198500E+03	4.913578E-16	1.001267E-16
4.200000E+03	4.929666E-16	1.001026E-16
4.201500E+03	4.956493E-16	9.724837E-17
4.203000E+03	4.980701E-16	1.021388E-16
4.204500E+03	4.982383E-16	1.039778E-16
4.206000E+03	4.973718E-16	1.030006E-16
4.207500E+03	4.971469E-16	1.030737E-16
4.209000E+03	4.974197E-16	9.984817E-17
4.210500E+03	4.991331E-16	9.478353E-17
4.212000E+03	5.005191E-16	9.531550E-17
4.213500E+03	5.010012E-16	9.540018E-17
4.215000E+03	5.006188E-16	9.229135E-17
4.216500E+03	5.002625E-16	9.208691E-17
4.218000E+03	5.016221E-16	9.207787E-17
4.219500E+03	5.003225E-16	9.213802E-17
4.221000E+03	5.001231E-16	9.200079E-17
4.222500E+03	5.027794E-16	9.206723E-17
4.224000E+03	5.028288E-16	9.205901E-17
4.225500E+03	5.021052E-16	9.513510E-17
4.227000E+03	5.018138E-16	9.517334E-17
4.228500E+03	5.021511E-16	8.797816E-17
4.230000E+03	5.007852E-16	9.028854E-17
4.231500E+03	5.011617E-16	9.254517E-17
4.233000E+03	5.034116E-16	9.298440E-17
4.234500E+03	5.049540E-16	9.576907E-17
4.236000E+03	5.046097E-16	9.559843E-17
4.237500E+03	5.031516E-16	9.793540E-17
4.239000E+03	5.036980E-16	9.763742E-17
4.240500E+03	5.029472E-16	9.746723E-17
4.242000E+03	5.026680E-16	9.750394E-17
4.243500E+03	5.027032E-16	9.812791E-17
4.245000E+03	5.001438E-16	9.789956E-17
4.246500E+03	4.982918E-16	9.808407E-17
4.248000E+03	4.972390E-16	9.800327E-17
4.249500E+03	4.979027E-16	9.810221E-17
4.251000E+03	4.977801E-16	9.815031E-17
4.252500E+03	4.958752E-16	9.188310E-17
4.254000E+03	4.956737E-16	8.923321E-17
4.255500E+03	4.958129E-16	8.883885E-17
4.257000E+03	4.977736E-16	8.915596E-17
4.258500E+03	5.009793E-16	8.848194E-17
4.260000E+03	4.998733E-16	9.110835E-17
4.261500E+03	4.987671E-16	9.085207E-17
4.263000E+03	4.986962E-16	8.997146E-17
4.264500E+03	5.000144E-16	8.937337E-17
4.266000E+03	5.015948E-16	8.947242E-17
4.267500E+03	5.049576E-16	8.956496E-17
4.269000E+03	5.074553E-16	8.947841E-17
4.270500E+03	5.077903E-16	8.967585E-17
4.272000E+03	5.079943E-16	8.951170E-17
4.273500E+03	5.078966E-16	8.915348E-17
4.275000E+03	5.077071E-16	8.405201E-17
4.276500E+03	5.059577E-16	8.322991E-17
4.278000E+03	5.044441E-16	8.387319E-17
4.279500E+03	5.061156E-16	8.278552E-17
4.281000E+03	5.085735E-16	8.322518E-17
4.282500E+03	5.078854E-16	8.203370E-17
4.284000E+03	5.059125E-16	7.766934E-17
4.285500E+03	5.050144E-16	7.755342E-17
4.287000E+03	5.051256E-16	7.416092E-17
4.288500E+03	5.060232E-16	7.454317E-17
4.290000E+03	5.081399E-16	7.611611E-17
4.291500E+03	5.098240E-16	7.593098E-17
4.293000E+03	5.107214E-16	7.523048E-17
4.294500E+03	5.120251E-16	7.739853E-17
4.296000E+03	5.142464E-16	7.776766E-17
4.297500E+03	5.145275E-16	7.821541E-17
4.299000E+03	5.149919E-16	7.855379E-17
4.300500E+03	5.150368E-16	7.886059E-17
4.302000E+03	5.152913E-16	7.917451E-17
4.303500E+03	5.190200E-16	7.906533E-17
4.305000E+03	5.204412E-16	7.940433E-17
4.306500E+03	5.209315E-16	7.934299E-17
4.308000E+03	5.224312E-16	7.948840E-17
4.309500E+03	5.218330E-16	7.636681E-17
4.311000E+03	5.208414E-16	7.576099E-17
4.312500E+03	5.196268E-16	7.567469E-17
4.314000E+03	5.171403E-16	7.539376E-17
4.315500E+03	5.147585E-16	7.561619E-17
4.317000E+03	5.124421E-16	7.511584E-17
4.318500E+03	5.121972E-16	7.540717E-17
4.320000E+03	5.115720E-16	7.565631E-17
4.321500E+03	5.105795E-16	7.587673E-17
4.323000E+03	5.092853E-16	7.517759E-17
4.324500E+03	5.076763E-16	7.503130E-17
4.326000E+03	5.052542E-16	7.491135E-17
4.327500E+03	5.046284E-16	7.372192E-17
4.329000E+03	5.037926E-16	7.299352E-17
4.330500E+03	5.016586E-16	6.972528E-17
4.332000E+03	5.000358E-16	6.959497E-17
4.333500E+03	4.993964E-16	7.243459E-17
4.335000E+03	4.958721E-16	7.196131E-17
4.336500E+03	4.918624E-16	7.318828E-17
4.338000E+03	4.896490E-16	7.315338E-17
4.339500E+03	4.866619E-16	7.067205E-17
4.341000E+03	4.849335E-16	7.048207E-17
4.342500E+03	4.842671E-16	7.465039E-17
4.344000E+03	4.837973E-16	7.145534E-17
4.345500E+03	4.839174E-16	7.156648E-17
4.347000E+03	4.831720E-16	7.139638E-17
4.348500E+03	4.831478E-16	7.128325E-17
4.350000E+03	4.836610E-16	7.209371E-17
4.351500E+03	4.838595E-16	7.271782E-17
4.353000E+03	4.843332E-16	7.362731E-17
4.354500E+03	4.833905E-16	7.352087E-17
4.356000E+03	4.829461E-16	7.332470E-17
4.357500E+03	4.818852E-16	7.794344E-17
4.359000E+03	4.783457E-16	7.956309E-17
4.360500E+03	4.769174E-16	7.930729E-17
4.362000E+03	4.783215E-16	7.939525E-17
4.363500E+03	4.794502E-16	8.070068E-17
4.365000E+03	4.806967E-16	8.187713E-17
4.366500E+03	4.811432E-16	8.193521E-17
4.368000E+03	4.801209E-16	8.094438E-17
4.369500E+03	4.807115E-16	8.089660E-17
4.371000E+03	4.824559E-16	8.130098E-17
4.372500E+03	4.840429E-16	8.138235E-17
4.374000E+03	4.853413E-16	8.172719E-17
4.375500E+03	4.860756E-16	8.172931E-17
4.377000E+03	4.874000E-16	8.226856E-17
4.378500E+03	4.889865E-16	8.269548E-17
4.380000E+03	4.894845E-16	8.338120E-17
4.381500E+03	4.912806E-16	8.438518E-17
4.383000E+03	4.935487E-16	8.205320E-17
4.384500E+03	4.957380E-16	8.284144E-17
4.386000E+03	4.978878E-16	8.240966E-17
4.387500E+03	4.984114E-16	8.237621E-17
4.389000E+03	4.990135E-16	8.279530E-17
4.390500E+03	5.012941E-16	8.319080E-17
4.392000E+03	5.047024E-16	7.838893E-17
4.393500E+03	5.077301E-16	8.090826E-17
4.395000E+03	5.080957E-16	8.298640E-17
4.396500E+03	5.099299E-16	8.550049E-17
4.398000E+03	5.098494E-16	8.769540E-17
4.399500E+03	5.098081E-16	8.911131E-17
4.401000E+03	5.119960E-16	8.926590E-17
4.402500E+03	5.106956E-16	8.845323E-17
4.404000E+03	5.124504E-16	8.852005E-17
4.405500E+03	5.166966E-16	8.919266E-17
4.407000E+03	5.172579E-16	8.423026E-17
4.408500E+03	5.177141E-16	8.137585E-17
4.410000E+03	5.196913E-16	8.589722E-17
4.411500E+03	5.217863E-16	8.950471E-17
4.413000E+03	5.254154E-16	8.760313E-17
4.414500E+03	5.289525E-16	8.553160E-17
4.416000E+03	5.298276E-16	8.503701E-17
4.417500E+03	5.308861E-16	8.529867E-17
4.419000E+03	5.352226E-16	8.563952E-17
4.420500E+03	5.393360E-16	8.614959E-17
4.422000E+03	5.414430E-16	8.625625E-17
4.423500E+03	5.427237E-16	8.644288E-17
4.425000E+03	5.423916E-16	8.895895E-17
4.426500E+03	5.430689E-16	9.000893E-17
4.428000E+03	5.458701E-16	9.015239E-17
4.429500E+03	5.487237E-16	9.009941E-17
4.431000E+03	5.514590E-16	9.002189E-17
