#wls	flux	fluxerr
1.600000E+03	4.559577E-17	2.987319E-17
1.640000E+03	4.607172E-17	2.971791E-17
1.680000E+03	4.655788E-17	2.954740E-17
1.720000E+03	4.706302E-17	2.936633E-17
1.760000E+03	4.757781E-17	2.916787E-17
1.800000E+03	4.812045E-17	2.896216E-17
1.840000E+03	4.868159E-17	2.874223E-17
1.880000E+03	4.927047E-17	2.851232E-17
1.920000E+03	4.988702E-17	2.827088E-17
1.960000E+03	5.054081E-17	2.802175E-17
2.000000E+03	5.122201E-17	2.775774E-17
2.040000E+03	5.194018E-17	2.748239E-17
2.080000E+03	5.269509E-17	2.719369E-17
2.120000E+03	5.349648E-17	2.689467E-17
2.160000E+03	5.434406E-17	2.658290E-17
2.200000E+03	5.522702E-17	2.625099E-17
2.240000E+03	5.616521E-17	2.590629E-17
2.280000E+03	5.713689E-17	2.553649E-17
2.320000E+03	5.816175E-17	2.514850E-17
2.360000E+03	5.923845E-17	2.473935E-17
2.400000E+03	6.034383E-17	2.429748E-17
2.440000E+03	6.150783E-17	2.383342E-17
2.480000E+03	6.270641E-17	2.333598E-17
2.520000E+03	6.393642E-17	2.280311E-17
2.560000E+03	6.520528E-17	2.223683E-17
2.600000E+03	6.652007E-17	2.163893E-17
2.640000E+03	6.785426E-17	2.100077E-17
2.680000E+03	6.921375E-17	2.032541E-17
2.720000E+03	7.060400E-17	1.961602E-17
2.760000E+03	7.201874E-17	1.887309E-17
2.800000E+03	7.343985E-17	1.809544E-17
2.840000E+03	7.489319E-17	1.729423E-17
2.880000E+03	7.637038E-17	1.647287E-17
2.920000E+03	7.786233E-17	1.563657E-17
2.960000E+03	7.939248E-17	1.479878E-17
3.000000E+03	8.096108E-17	1.396946E-17
3.010000E+03	8.135481E-17	1.376406E-17
3.020000E+03	8.176310E-17	1.356215E-17
3.030000E+03	8.216376E-17	1.336025E-17
3.040000E+03	8.257855E-17	1.316212E-17
3.050000E+03	8.299630E-17	1.296614E-17
3.060000E+03	8.341680E-17	1.277250E-17
3.070000E+03	8.383985E-17	1.258140E-17
3.080000E+03	8.427613E-17	1.239464E-17
3.090000E+03	8.470369E-17	1.220923E-17
3.100000E+03	8.515486E-17	1.203005E-17
3.110000E+03	8.559692E-17	1.185265E-17
3.120000E+03	8.605129E-17	1.168029E-17
3.130000E+03	8.651771E-17	1.151307E-17
3.140000E+03	8.698519E-17	1.134974E-17
3.150000E+03	8.746426E-17	1.119188E-17
3.160000E+03	8.795463E-17	1.103962E-17
3.170000E+03	8.844540E-17	1.089177E-17
3.180000E+03	8.895763E-17	1.075108E-17
3.190000E+03	8.946978E-17	1.061507E-17
3.200000E+03	8.999223E-17	1.048513E-17
3.210000E+03	9.053522E-17	1.036253E-17
3.220000E+03	9.108787E-17	1.024609E-17
3.230000E+03	9.163945E-17	1.013468E-17
3.240000E+03	9.222099E-17	1.003178E-17
3.250000E+03	9.281121E-17	9.935044E-18
3.260000E+03	9.340974E-17	9.844433E-18
3.270000E+03	9.402654E-17	9.760964E-18
3.280000E+03	9.466109E-17	9.684498E-18
3.290000E+03	9.530260E-17	9.613838E-18
3.300000E+03	9.596079E-17	9.549866E-18
3.310000E+03	9.664521E-17	9.493370E-18
3.320000E+03	9.734490E-17	9.443084E-18
3.330000E+03	9.804905E-17	9.397786E-18
3.340000E+03	9.878710E-17	9.360102E-18
3.350000E+03	9.953792E-17	9.327773E-18
3.360000E+03	1.003006E-16	9.300489E-18
3.370000E+03	1.010839E-16	9.278834E-18
3.380000E+03	1.018868E-16	9.262430E-18
3.390000E+03	1.027080E-16	9.250889E-18
3.400000E+03	1.035459E-16	9.243820E-18
3.410000E+03	1.043993E-16	9.240825E-18
3.420000E+03	1.052762E-16	9.242357E-18
3.430000E+03	1.061653E-16	9.247149E-18
3.440000E+03	1.070747E-16	9.255636E-18
3.450000E+03	1.079928E-16	9.266583E-18
3.460000E+03	1.089370E-16	9.281231E-18
3.470000E+03	1.098957E-16	9.298355E-18
3.480000E+03	1.108578E-16	9.316788E-18
3.490000E+03	1.118494E-16	9.338530E-18
3.500000E+03	1.128498E-16	9.361640E-18
3.510000E+03	1.138572E-16	9.385796E-18
3.520000E+03	1.148790E-16	9.411448E-18
3.530000E+03	1.159225E-16	9.439029E-18
3.540000E+03	1.169677E-16	9.466778E-18
3.550000E+03	1.180312E-16	9.495916E-18
3.560000E+03	1.191025E-16	9.525486E-18
3.570000E+03	1.201891E-16	9.556007E-18
3.580000E+03	1.212901E-16	9.587297E-18
3.590000E+03	1.223957E-16	9.618530E-18
3.600000E+03	1.235227E-16	9.650967E-18
3.610000E+03	1.246620E-16	9.683840E-18
3.620000E+03	1.258221E-16	9.717763E-18
3.630000E+03	1.269947E-16	9.752055E-18
3.640000E+03	1.281887E-16	9.787378E-18
3.650000E+03	1.293968E-16	9.823138E-18
3.660000E+03	1.306367E-16	9.860651E-18
3.670000E+03	1.319016E-16	9.899372E-18
3.680000E+03	1.332015E-16	9.940006E-18
3.690000E+03	1.345303E-16	9.982066E-18
3.700000E+03	1.358985E-16	1.002627E-17
3.710000E+03	1.373008E-16	1.007217E-17
3.720000E+03	1.387556E-16	1.012105E-17
3.730000E+03	1.402578E-16	1.017243E-17
3.740000E+03	1.418101E-16	1.022641E-17
3.750000E+03	1.434152E-16	1.028309E-17
3.760000E+03	1.450832E-16	1.034303E-17
3.770000E+03	1.468159E-16	1.040622E-17
3.780000E+03	1.486076E-16	1.047209E-17
3.790000E+03	1.504739E-16	1.054155E-17
3.800000E+03	1.524005E-16	1.061342E-17
3.810000E+03	1.544014E-16	1.068847E-17
3.820000E+03	1.564680E-16	1.076587E-17
3.830000E+03	1.586050E-16	1.084572E-17
3.840000E+03	1.608020E-16	1.092708E-17
3.850000E+03	1.630544E-16	1.100941E-17
3.860000E+03	1.653638E-16	1.109257E-17
3.870000E+03	1.677236E-16	1.117589E-17
3.880000E+03	1.701260E-16	1.125862E-17
3.890000E+03	1.725557E-16	1.133953E-17
3.900000E+03	1.750101E-16	1.141823E-17
3.910000E+03	1.774858E-16	1.149430E-17
3.920000E+03	1.799585E-16	1.156599E-17
3.930000E+03	1.824238E-16	1.163286E-17
3.940000E+03	1.848769E-16	1.169446E-17
3.950000E+03	1.872931E-16	1.174912E-17
3.960000E+03	1.896678E-16	1.179648E-17
3.970000E+03	1.919901E-16	1.183578E-17
3.980000E+03	1.942561E-16	1.186676E-17
3.990000E+03	1.964432E-16	1.188805E-17
4.000000E+03	1.985433E-16	1.189917E-17
4.010000E+03	2.005611E-16	1.190049E-17
4.020000E+03	2.024781E-16	1.189096E-17
4.030000E+03	2.042894E-16	1.187043E-17
4.040000E+03	2.059977E-16	1.183919E-17
4.050000E+03	2.076009E-16	1.179727E-17
4.060000E+03	2.090867E-16	1.174416E-17
4.070000E+03	2.104622E-16	1.168046E-17
4.080000E+03	2.117299E-16	1.160655E-17
4.090000E+03	2.128879E-16	1.152257E-17
4.100000E+03	2.139417E-16	1.142909E-17
4.110000E+03	2.149033E-16	1.132706E-17
4.120000E+03	2.157691E-16	1.121662E-17
4.130000E+03	2.165478E-16	1.109859E-17
4.140000E+03	2.172491E-16	1.097384E-17
4.150000E+03	2.178880E-16	1.084359E-17
4.160000E+03	2.184599E-16	1.070805E-17
4.170000E+03	2.189812E-16	1.056857E-17
4.180000E+03	2.194636E-16	1.042626E-17
4.190000E+03	2.199139E-16	1.028209E-17
4.200000E+03	2.203441E-16	1.013730E-17
4.210000E+03	2.207572E-16	9.992777E-18
4.220000E+03	2.211700E-16	9.850119E-18
4.230000E+03	2.215949E-16	9.710764E-18
4.240000E+03	2.220350E-16	9.575820E-18
4.250000E+03	2.224982E-16	9.446684E-18
4.260000E+03	2.230009E-16	9.325189E-18
4.270000E+03	2.235509E-16	9.212840E-18
4.280000E+03	2.241555E-16	9.111195E-18
4.290000E+03	2.248222E-16	9.021848E-18
4.300000E+03	2.255582E-16	8.946409E-18
4.310000E+03	2.263785E-16	8.886791E-18
4.320000E+03	2.272854E-16	8.844365E-18
4.330000E+03	2.282848E-16	8.820583E-18
4.340000E+03	2.293819E-16	8.816777E-18
4.350000E+03	2.305891E-16	8.834414E-18
4.360000E+03	2.319019E-16	8.874151E-18
4.370000E+03	2.333271E-16	8.936726E-18
4.380000E+03	2.348718E-16	9.022281E-18
4.390000E+03	2.365303E-16	9.130196E-18
4.400000E+03	2.383139E-16	9.260336E-18
4.410000E+03	2.402135E-16	9.411596E-18
4.420000E+03	2.422249E-16	9.582951E-18
4.430000E+03	2.443495E-16	9.773480E-18
4.440000E+03	2.465782E-16	9.981796E-18
4.450000E+03	2.488996E-16	1.020635E-17
4.460000E+03	2.513033E-16	1.044561E-17
4.470000E+03	2.537722E-16	1.069776E-17
4.480000E+03	2.562868E-16	1.096084E-17
4.490000E+03	2.588360E-16	1.123329E-17
4.500000E+03	2.613952E-16	1.151296E-17
4.510000E+03	2.639378E-16	1.179760E-17
4.520000E+03	2.664426E-16	1.208523E-17
4.530000E+03	2.688836E-16	1.237363E-17
4.540000E+03	2.712339E-16	1.266058E-17
4.550000E+03	2.734664E-16	1.294380E-17
4.560000E+03	2.755544E-16	1.322109E-17
4.570000E+03	2.774757E-16	1.349045E-17
4.580000E+03	2.792028E-16	1.374962E-17
4.590000E+03	2.807211E-16	1.399701E-17
4.600000E+03	2.820083E-16	1.423068E-17
4.610000E+03	2.830452E-16	1.444885E-17
4.620000E+03	2.838313E-16	1.465075E-17
4.630000E+03	2.843520E-16	1.483492E-17
4.640000E+03	2.846080E-16	1.500075E-17
4.650000E+03	2.846008E-16	1.514775E-17
4.660000E+03	2.843362E-16	1.527569E-17
4.670000E+03	2.838276E-16	1.538485E-17
4.680000E+03	2.830851E-16	1.547540E-17
4.690000E+03	2.821257E-16	1.554794E-17
4.700000E+03	2.809724E-16	1.560352E-17
4.710000E+03	2.796436E-16	1.564295E-17
4.720000E+03	2.781661E-16	1.566763E-17
4.730000E+03	2.765603E-16	1.567865E-17
4.740000E+03	2.748476E-16	1.567722E-17
4.750000E+03	2.730586E-16	1.566511E-17
4.760000E+03	2.712098E-16	1.564337E-17
4.770000E+03	2.693264E-16	1.561358E-17
4.780000E+03	2.674287E-16	1.557706E-17
4.790000E+03	2.655347E-16	1.553504E-17
4.800000E+03	2.636637E-16	1.548885E-17
4.810000E+03	2.618263E-16	1.543933E-17
4.820000E+03	2.600400E-16	1.538773E-17
4.830000E+03	2.583169E-16	1.533502E-17
4.840000E+03	2.566608E-16	1.528164E-17
4.850000E+03	2.550827E-16	1.522849E-17
4.860000E+03	2.535887E-16	1.517615E-17
4.870000E+03	2.521774E-16	1.512478E-17
4.880000E+03	2.508523E-16	1.507478E-17
4.890000E+03	2.496159E-16	1.502650E-17
4.900000E+03	2.484671E-16	1.498008E-17
4.910000E+03	2.474078E-16	1.493578E-17
4.920000E+03	2.464365E-16	1.489370E-17
4.930000E+03	2.455554E-16	1.485410E-17
4.940000E+03	2.447586E-16	1.481675E-17
4.950000E+03	2.440549E-16	1.478230E-17
4.960000E+03	2.434429E-16	1.475078E-17
4.970000E+03	2.429250E-16	1.472242E-17
4.980000E+03	2.425076E-16	1.469767E-17
4.990000E+03	2.421950E-16	1.467688E-17
5.000000E+03	2.419901E-16	1.466027E-17
5.010000E+03	2.419048E-16	1.464861E-17
5.020000E+03	2.419437E-16	1.464222E-17
5.030000E+03	2.421147E-16	1.464162E-17
5.040000E+03	2.424289E-16	1.464749E-17
5.050000E+03	2.428922E-16	1.466023E-17
5.060000E+03	2.435186E-16	1.468070E-17
5.070000E+03	2.443087E-16	1.470895E-17
5.080000E+03	2.452789E-16	1.474597E-17
5.090000E+03	2.464340E-16	1.479207E-17
5.100000E+03	2.477787E-16	1.484751E-17
5.110000E+03	2.493243E-16	1.491300E-17
5.120000E+03	2.510707E-16	1.498852E-17
5.130000E+03	2.530275E-16	1.507463E-17
5.140000E+03	2.551947E-16	1.517134E-17
5.150000E+03	2.575739E-16	1.527875E-17
5.160000E+03	2.601652E-16	1.539687E-17
5.170000E+03	2.629671E-16	1.552561E-17
5.180000E+03	2.659767E-16	1.566485E-17
5.190000E+03	2.691924E-16	1.581450E-17
5.200000E+03	2.726054E-16	1.597409E-17
5.210000E+03	2.762079E-16	1.614325E-17
5.220000E+03	2.799908E-16	1.632152E-17
5.230000E+03	2.839433E-16	1.650838E-17
5.240000E+03	2.880533E-16	1.670325E-17
5.250000E+03	2.923071E-16	1.690551E-17
5.260000E+03	2.966930E-16	1.711464E-17
5.270000E+03	3.011886E-16	1.732958E-17
5.280000E+03	3.057828E-16	1.754991E-17
5.290000E+03	3.104511E-16	1.777449E-17
5.300000E+03	3.151774E-16	1.800268E-17
5.310000E+03	3.199416E-16	1.823364E-17
5.320000E+03	3.247230E-16	1.846653E-17
5.330000E+03	3.295002E-16	1.870048E-17
5.340000E+03	3.342514E-16	1.893462E-17
5.350000E+03	3.389509E-16	1.916786E-17
5.360000E+03	3.435759E-16	1.939930E-17
5.370000E+03	3.481106E-16	1.962844E-17
5.380000E+03	3.525213E-16	1.985376E-17
5.390000E+03	3.567919E-16	2.007473E-17
5.400000E+03	3.608996E-16	2.029044E-17
5.410000E+03	3.648176E-16	2.049972E-17
5.420000E+03	3.685236E-16	2.070162E-17
5.430000E+03	3.719955E-16	2.089512E-17
5.440000E+03	3.752119E-16	2.107906E-17
5.450000E+03	3.781525E-16	2.125230E-17
5.460000E+03	3.807986E-16	2.141369E-17
5.470000E+03	3.831328E-16	2.156215E-17
5.480000E+03	3.851362E-16	2.169644E-17
5.490000E+03	3.867999E-16	2.181587E-17
5.500000E+03	3.881101E-16	2.191939E-17
5.510000E+03	3.890639E-16	2.200658E-17
5.520000E+03	3.896538E-16	2.207668E-17
5.530000E+03	3.898802E-16	2.212937E-17
5.540000E+03	3.897507E-16	2.216471E-17
5.550000E+03	3.892693E-16	2.218255E-17
5.560000E+03	3.884554E-16	2.218359E-17
5.570000E+03	3.873124E-16	2.216763E-17
5.580000E+03	3.858708E-16	2.213599E-17
5.590000E+03	3.841486E-16	2.208931E-17
5.600000E+03	3.821703E-16	2.202862E-17
5.610000E+03	3.799668E-16	2.195530E-17
5.620000E+03	3.775595E-16	2.187024E-17
5.630000E+03	3.749822E-16	2.177505E-17
5.640000E+03	3.722697E-16	2.167145E-17
5.650000E+03	3.694460E-16	2.156055E-17
5.660000E+03	3.665495E-16	2.144433E-17
5.670000E+03	3.636034E-16	2.132392E-17
5.680000E+03	3.606442E-16	2.120127E-17
5.690000E+03	3.576924E-16	2.107742E-17
5.700000E+03	3.547777E-16	2.095399E-17
5.710000E+03	3.519236E-16	2.083227E-17
5.720000E+03	3.491484E-16	2.071325E-17
5.730000E+03	3.464708E-16	2.059801E-17
5.740000E+03	3.439107E-16	2.048768E-17
5.750000E+03	3.414782E-16	2.038284E-17
5.760000E+03	3.391875E-16	2.028435E-17
5.770000E+03	3.370404E-16	2.019231E-17
5.780000E+03	3.350459E-16	2.010726E-17
5.790000E+03	3.332073E-16	2.002939E-17
5.800000E+03	3.315254E-16	1.995876E-17
5.810000E+03	3.299959E-16	1.989509E-17
5.820000E+03	3.286191E-16	1.983836E-17
5.830000E+03	3.273837E-16	1.978788E-17
5.840000E+03	3.262902E-16	1.974359E-17
5.850000E+03	3.253278E-16	1.970478E-17
5.860000E+03	3.244852E-16	1.967068E-17
5.870000E+03	3.237567E-16	1.964083E-17
5.880000E+03	3.231296E-16	1.961435E-17
5.890000E+03	3.225975E-16	1.959073E-17
5.900000E+03	3.221477E-16	1.956906E-17
5.910000E+03	3.217677E-16	1.954845E-17
5.920000E+03	3.214548E-16	1.952858E-17
5.930000E+03	3.211944E-16	1.950843E-17
5.940000E+03	3.209817E-16	1.948756E-17
5.950000E+03	3.208065E-16	1.946522E-17
5.960000E+03	3.206628E-16	1.944091E-17
5.970000E+03	3.205480E-16	1.941437E-17
5.980000E+03	3.204514E-16	1.938482E-17
5.990000E+03	3.203753E-16	1.935229E-17
6.000000E+03	3.203103E-16	1.931612E-17
6.010000E+03	3.202601E-16	1.927645E-17
6.020000E+03	3.202165E-16	1.923268E-17
6.030000E+03	3.201781E-16	1.918466E-17
6.040000E+03	3.201496E-16	1.913258E-17
6.050000E+03	3.201241E-16	1.907594E-17
6.060000E+03	3.201039E-16	1.901478E-17
6.070000E+03	3.200883E-16	1.894899E-17
6.080000E+03	3.200766E-16	1.887840E-17
6.090000E+03	3.200652E-16	1.880271E-17
6.100000E+03	3.200597E-16	1.872211E-17
6.110000E+03	3.200535E-16	1.863609E-17
6.120000E+03	3.200523E-16	1.854483E-17
6.130000E+03	3.200496E-16	1.844780E-17
6.140000E+03	3.200455E-16	1.834483E-17
6.150000E+03	3.200433E-16	1.823594E-17
6.160000E+03	3.200377E-16	1.812062E-17
6.170000E+03	3.200235E-16	1.799839E-17
6.180000E+03	3.199995E-16	1.786895E-17
6.190000E+03	3.199711E-16	1.773241E-17
6.200000E+03	3.199415E-16	1.758868E-17
6.210000E+03	3.199205E-16	1.743807E-17
6.220000E+03	3.199188E-16	1.728088E-17
6.230000E+03	3.199382E-16	1.711691E-17
6.240000E+03	3.199871E-16	1.694630E-17
6.250000E+03	3.200742E-16	1.676918E-17
6.260000E+03	3.202052E-16	1.658549E-17
6.270000E+03	3.203825E-16	1.639499E-17
6.280000E+03	3.206141E-16	1.619773E-17
6.290000E+03	3.209079E-16	1.599372E-17
6.300000E+03	3.212610E-16	1.578243E-17
6.310000E+03	3.216820E-16	1.556392E-17
6.320000E+03	3.221722E-16	1.533786E-17
6.330000E+03	3.227277E-16	1.510375E-17
6.340000E+03	3.233527E-16	1.486149E-17
6.350000E+03	3.240366E-16	1.461034E-17
6.360000E+03	3.247799E-16	1.435017E-17
6.370000E+03	3.255746E-16	1.408056E-17
6.380000E+03	3.264077E-16	1.380102E-17
6.390000E+03	3.272743E-16	1.351158E-17
6.400000E+03	3.281578E-16	1.321197E-17
6.410000E+03	3.290474E-16	1.290241E-17
6.420000E+03	3.299240E-16	1.258313E-17
6.430000E+03	3.307717E-16	1.225479E-17
6.440000E+03	3.315808E-16	1.191873E-17
6.450000E+03	3.323246E-16	1.157614E-17
6.460000E+03	3.329907E-16	1.122927E-17
6.470000E+03	3.335608E-16	1.088078E-17
6.480000E+03	3.340213E-16	1.053421E-17
6.490000E+03	3.343567E-16	1.019375E-17
6.500000E+03	3.345538E-16	9.864475E-18
6.510000E+03	3.346120E-16	9.552624E-18
6.520000E+03	3.345302E-16	9.265115E-18
6.530000E+03	3.343132E-16	9.009622E-18
6.540000E+03	3.339584E-16	8.793923E-18
6.550000E+03	3.334764E-16	8.626090E-18
6.560000E+03	3.328774E-16	8.513564E-18
6.570000E+03	3.321704E-16	8.462548E-18
6.580000E+03	3.313640E-16	8.476301E-18
6.590000E+03	3.304587E-16	8.551066E-18
6.600000E+03	3.294504E-16	8.679987E-18
6.610000E+03	3.283406E-16	8.855292E-18
6.620000E+03	3.271225E-16	9.068554E-18
6.630000E+03	3.258054E-16	9.311883E-18
6.640000E+03	3.243895E-16	9.577635E-18
6.650000E+03	3.228840E-16	9.859132E-18
6.660000E+03	3.212956E-16	1.015047E-17
6.670000E+03	3.196323E-16	1.044666E-17
6.680000E+03	3.178996E-16	1.074342E-17
6.690000E+03	3.161143E-16	1.103764E-17
6.700000E+03	3.142832E-16	1.132656E-17
6.710000E+03	3.124137E-16	1.160801E-17
6.720000E+03	3.105237E-16	1.188077E-17
6.730000E+03	3.086208E-16	1.214367E-17
6.740000E+03	3.067196E-16	1.239618E-17
6.750000E+03	3.048274E-16	1.263785E-17
6.760000E+03	3.029548E-16	1.286858E-17
6.770000E+03	3.011154E-16	1.308864E-17
6.780000E+03	2.993152E-16	1.329819E-17
6.790000E+03	2.975665E-16	1.349780E-17
6.800000E+03	2.958742E-16	1.368783E-17
6.810000E+03	2.942490E-16	1.386902E-17
6.820000E+03	2.926943E-16	1.404181E-17
6.830000E+03	2.912225E-16	1.420719E-17
6.840000E+03	2.898283E-16	1.436530E-17
6.850000E+03	2.885259E-16	1.451726E-17
6.860000E+03	2.873116E-16	1.466336E-17
6.870000E+03	2.861909E-16	1.480433E-17
6.880000E+03	2.851652E-16	1.494072E-17
6.890000E+03	2.842350E-16	1.507301E-17
6.900000E+03	2.833969E-16	1.520149E-17
6.910000E+03	2.826533E-16	1.532672E-17
6.920000E+03	2.820029E-16	1.544906E-17
6.930000E+03	2.814406E-16	1.556866E-17
6.940000E+03	2.809674E-16	1.568596E-17
6.950000E+03	2.805779E-16	1.580103E-17
6.960000E+03	2.802762E-16	1.591449E-17
6.970000E+03	2.800500E-16	1.602596E-17
6.980000E+03	2.799039E-16	1.613604E-17
6.990000E+03	2.798361E-16	1.624494E-17
7.000000E+03	2.798418E-16	1.635265E-17
7.010000E+03	2.799199E-16	1.645942E-17
7.020000E+03	2.800733E-16	1.656566E-17
7.030000E+03	2.802987E-16	1.667142E-17
7.040000E+03	2.805963E-16	1.677698E-17
7.050000E+03	2.809671E-16	1.688259E-17
7.060000E+03	2.814121E-16	1.698855E-17
7.070000E+03	2.819291E-16	1.709491E-17
7.080000E+03	2.825263E-16	1.720237E-17
7.090000E+03	2.831980E-16	1.731075E-17
7.100000E+03	2.839484E-16	1.742048E-17
7.110000E+03	2.847744E-16	1.753152E-17
7.120000E+03	2.856757E-16	1.764399E-17
7.130000E+03	2.866546E-16	1.775817E-17
7.140000E+03	2.877057E-16	1.787384E-17
7.150000E+03	2.888257E-16	1.799088E-17
7.160000E+03	2.900104E-16	1.810914E-17
7.170000E+03	2.912508E-16	1.822813E-17
7.180000E+03	2.925436E-16	1.834770E-17
7.190000E+03	2.938810E-16	1.846743E-17
7.200000E+03	2.952502E-16	1.858655E-17
7.210000E+03	2.966410E-16	1.870446E-17
7.220000E+03	2.980422E-16	1.882049E-17
7.230000E+03	2.994455E-16	1.893412E-17
7.240000E+03	3.008306E-16	1.904409E-17
7.250000E+03	3.021881E-16	1.914981E-17
7.260000E+03	3.035005E-16	1.925019E-17
7.270000E+03	3.047619E-16	1.934483E-17
7.280000E+03	3.059472E-16	1.943215E-17
7.290000E+03	3.070510E-16	1.951178E-17
7.300000E+03	3.080569E-16	1.958268E-17
7.310000E+03	3.089569E-16	1.964432E-17
7.320000E+03	3.097329E-16	1.969554E-17
7.330000E+03	3.103832E-16	1.973619E-17
7.340000E+03	3.108925E-16	1.976529E-17
7.350000E+03	3.112624E-16	1.978290E-17
7.360000E+03	3.114813E-16	1.978825E-17
7.370000E+03	3.115551E-16	1.978168E-17
7.380000E+03	3.114763E-16	1.976268E-17
7.390000E+03	3.112554E-16	1.973186E-17
7.400000E+03	3.108936E-16	1.968925E-17
7.410000E+03	3.103945E-16	1.963503E-17
7.420000E+03	3.097758E-16	1.957025E-17
7.430000E+03	3.090497E-16	1.949561E-17
7.440000E+03	3.082225E-16	1.941145E-17
7.450000E+03	3.073144E-16	1.931895E-17
7.460000E+03	3.063433E-16	1.921914E-17
7.470000E+03	3.053325E-16	1.911339E-17
7.480000E+03	3.042944E-16	1.900237E-17
7.490000E+03	3.032540E-16	1.888751E-17
7.500000E+03	3.022290E-16	1.876977E-17
7.510000E+03	3.012484E-16	1.865079E-17
7.520000E+03	3.003254E-16	1.853121E-17
7.530000E+03	2.994800E-16	1.841205E-17
7.540000E+03	2.987348E-16	1.829447E-17
7.550000E+03	2.981030E-16	1.817904E-17
7.560000E+03	2.976000E-16	1.806638E-17
7.570000E+03	2.972386E-16	1.795698E-17
7.580000E+03	2.970330E-16	1.785133E-17
7.590000E+03	2.969871E-16	1.774930E-17
7.600000E+03	2.971097E-16	1.765097E-17
7.610000E+03	2.973946E-16	1.755555E-17
7.620000E+03	2.978485E-16	1.746296E-17
7.630000E+03	2.984629E-16	1.737220E-17
7.640000E+03	2.992345E-16	1.728257E-17
7.650000E+03	3.001488E-16	1.719269E-17
7.660000E+03	3.011927E-16	1.710127E-17
7.670000E+03	3.023540E-16	1.700708E-17
7.680000E+03	3.036105E-16	1.690836E-17
7.690000E+03	3.049457E-16	1.680365E-17
7.700000E+03	3.063331E-16	1.669104E-17
7.710000E+03	3.077529E-16	1.656900E-17
7.720000E+03	3.091761E-16	1.643560E-17
7.730000E+03	3.105852E-16	1.628959E-17
7.740000E+03	3.119458E-16	1.612896E-17
7.750000E+03	3.132321E-16	1.595226E-17
7.760000E+03	3.144269E-16	1.575861E-17
