#wls	flux	fluxerr
1.600000E+03	3.932940E-17	2.641723E-17
1.640000E+03	3.982981E-17	2.637762E-17
1.680000E+03	4.033514E-17	2.632270E-17
1.720000E+03	4.086883E-17	2.626702E-17
1.760000E+03	4.141519E-17	2.619945E-17
1.800000E+03	4.199031E-17	2.612928E-17
1.840000E+03	4.257802E-17	2.604536E-17
1.880000E+03	4.320308E-17	2.596185E-17
1.920000E+03	4.384910E-17	2.586756E-17
1.960000E+03	4.452450E-17	2.576636E-17
2.000000E+03	4.522937E-17	2.565705E-17
2.040000E+03	4.596370E-17	2.553838E-17
2.080000E+03	4.673630E-17	2.541389E-17
2.120000E+03	4.754727E-17	2.528213E-17
2.160000E+03	4.839660E-17	2.514158E-17
2.200000E+03	4.928411E-17	2.499071E-17
2.240000E+03	5.021879E-17	2.483257E-17
2.280000E+03	5.119104E-17	2.466087E-17
2.320000E+03	5.220967E-17	2.447850E-17
2.360000E+03	5.328366E-17	2.428812E-17
2.400000E+03	5.440270E-17	2.408346E-17
2.440000E+03	5.556564E-17	2.386287E-17
2.480000E+03	5.679076E-17	2.363302E-17
2.520000E+03	5.806681E-17	2.338790E-17
2.560000E+03	5.940189E-17	2.312983E-17
2.600000E+03	6.080396E-17	2.286091E-17
2.640000E+03	6.226043E-17	2.257562E-17
2.680000E+03	6.378864E-17	2.227989E-17
2.720000E+03	6.538521E-17	2.197209E-17
2.760000E+03	6.705644E-17	2.165426E-17
2.800000E+03	6.880804E-17	2.132833E-17
2.840000E+03	7.064504E-17	2.099617E-17
2.880000E+03	7.258211E-17	2.066257E-17
2.920000E+03	7.461200E-17	2.032614E-17
2.960000E+03	7.676819E-17	1.999691E-17
3.000000E+03	7.905129E-17	1.967568E-17
3.010000E+03	7.963566E-17	1.959521E-17
3.020000E+03	8.023557E-17	1.951722E-17
3.030000E+03	8.085082E-17	1.944161E-17
3.040000E+03	8.147068E-17	1.936583E-17
3.050000E+03	8.209495E-17	1.928985E-17
3.060000E+03	8.273386E-17	1.921613E-17
3.070000E+03	8.337669E-17	1.914219E-17
3.080000E+03	8.403367E-17	1.907040E-17
3.090000E+03	8.470451E-17	1.900070E-17
3.100000E+03	8.538892E-17	1.893302E-17
3.110000E+03	8.607619E-17	1.886500E-17
3.120000E+03	8.677645E-17	1.879891E-17
3.130000E+03	8.748937E-17	1.873471E-17
3.140000E+03	8.821464E-17	1.867233E-17
3.150000E+03	8.895190E-17	1.861171E-17
3.160000E+03	8.970080E-17	1.855281E-17
3.170000E+03	9.047133E-17	1.849768E-17
3.180000E+03	9.124237E-17	1.844202E-17
3.190000E+03	9.203424E-17	1.838999E-17
3.200000E+03	9.283617E-17	1.833943E-17
3.210000E+03	9.364773E-17	1.829031E-17
3.220000E+03	9.447878E-17	1.824457E-17
3.230000E+03	9.532881E-17	1.820209E-17
3.240000E+03	9.618706E-17	1.816084E-17
3.250000E+03	9.706327E-17	1.812270E-17
3.260000E+03	9.795691E-17	1.808755E-17
3.270000E+03	9.885722E-17	1.805345E-17
3.280000E+03	9.978400E-17	1.802403E-17
3.290000E+03	1.007163E-16	1.799551E-17
3.300000E+03	1.016738E-16	1.797145E-17
3.310000E+03	1.026458E-16	1.794991E-17
3.320000E+03	1.036315E-16	1.793081E-17
3.330000E+03	1.046404E-16	1.791578E-17
3.340000E+03	1.056616E-16	1.790297E-17
3.350000E+03	1.067045E-16	1.789398E-17
3.360000E+03	1.077583E-16	1.788701E-17
3.370000E+03	1.088421E-16	1.788522E-17
3.380000E+03	1.099353E-16	1.788520E-17
3.390000E+03	1.110566E-16	1.789004E-17
3.400000E+03	1.121857E-16	1.789641E-17
3.410000E+03	1.133412E-16	1.790731E-17
3.420000E+03	1.145125E-16	1.792102E-17
3.430000E+03	1.157082E-16	1.793889E-17
3.440000E+03	1.169274E-16	1.796072E-17
3.450000E+03	1.181593E-16	1.798485E-17
3.460000E+03	1.194127E-16	1.801259E-17
3.470000E+03	1.206863E-16	1.804371E-17
3.480000E+03	1.219887E-16	1.807942E-17
3.490000E+03	1.232997E-16	1.811670E-17
3.500000E+03	1.246370E-16	1.815810E-17
3.510000E+03	1.259994E-16	1.820338E-17
3.520000E+03	1.273857E-16	1.825225E-17
3.530000E+03	1.287852E-16	1.830314E-17
3.540000E+03	1.302060E-16	1.835710E-17
3.550000E+03	1.316559E-16	1.841515E-17
3.560000E+03	1.331243E-16	1.847568E-17
3.570000E+03	1.346099E-16	1.853839E-17
3.580000E+03	1.361202E-16	1.860423E-17
3.590000E+03	1.376538E-16	1.867283E-17
3.600000E+03	1.392090E-16	1.874384E-17
3.610000E+03	1.407844E-16	1.881689E-17
3.620000E+03	1.423782E-16	1.889162E-17
3.630000E+03	1.439975E-16	1.896879E-17
3.640000E+03	1.456320E-16	1.904683E-17
3.650000E+03	1.472886E-16	1.912647E-17
3.660000E+03	1.489653E-16	1.920726E-17
3.670000E+03	1.506604E-16	1.928873E-17
3.680000E+03	1.523802E-16	1.937151E-17
3.690000E+03	1.541144E-16	1.945401E-17
3.700000E+03	1.558692E-16	1.953678E-17
3.710000E+03	1.576342E-16	1.961828E-17
3.720000E+03	1.594238E-16	1.970003E-17
3.730000E+03	1.612272E-16	1.978043E-17
3.740000E+03	1.630424E-16	1.985893E-17
3.750000E+03	1.648748E-16	1.993592E-17
3.760000E+03	1.667140E-16	2.000984E-17
3.770000E+03	1.685733E-16	2.008199E-17
3.780000E+03	1.704343E-16	2.014985E-17
3.790000E+03	1.723099E-16	2.021465E-17
3.800000E+03	1.741896E-16	2.027482E-17
3.810000E+03	1.760706E-16	2.032972E-17
3.820000E+03	1.779577E-16	2.037958E-17
3.830000E+03	1.798480E-16	2.042372E-17
3.840000E+03	1.817458E-16	2.046230E-17
3.850000E+03	1.836334E-16	2.049297E-17
3.860000E+03	1.855152E-16	2.051590E-17
3.870000E+03	1.873955E-16	2.053124E-17
3.880000E+03	1.892712E-16	2.053830E-17
3.890000E+03	1.911321E-16	2.053563E-17
3.900000E+03	1.929825E-16	2.052338E-17
3.910000E+03	1.948263E-16	2.050163E-17
3.920000E+03	1.966469E-16	2.046830E-17
3.930000E+03	1.984485E-16	2.042355E-17
3.940000E+03	2.002286E-16	2.036680E-17
3.950000E+03	2.019912E-16	2.029820E-17
3.960000E+03	2.037210E-16	2.021591E-17
3.970000E+03	2.054354E-16	2.012140E-17
3.980000E+03	2.071129E-16	2.001234E-17
3.990000E+03	2.087648E-16	1.988957E-17
4.000000E+03	2.103894E-16	1.975273E-17
4.010000E+03	2.119792E-16	1.960091E-17
4.020000E+03	2.135333E-16	1.943390E-17
4.030000E+03	2.150511E-16	1.925151E-17
4.040000E+03	2.165381E-16	1.905414E-17
4.050000E+03	2.179883E-16	1.884117E-17
4.060000E+03	2.194019E-16	1.861260E-17
4.070000E+03	2.207738E-16	1.836801E-17
4.080000E+03	2.221163E-16	1.810848E-17
4.090000E+03	2.234193E-16	1.783328E-17
4.100000E+03	2.246845E-16	1.754272E-17
4.110000E+03	2.259192E-16	1.723758E-17
4.120000E+03	2.271148E-16	1.691750E-17
4.130000E+03	2.282794E-16	1.658346E-17
4.140000E+03	2.294106E-16	1.623574E-17
4.150000E+03	2.305065E-16	1.587478E-17
4.160000E+03	2.315808E-16	1.550221E-17
4.170000E+03	2.326222E-16	1.511808E-17
4.180000E+03	2.336350E-16	1.472366E-17
4.190000E+03	2.346283E-16	1.432069E-17
4.200000E+03	2.355924E-16	1.390995E-17
4.210000E+03	2.365416E-16	1.349394E-17
4.220000E+03	2.374669E-16	1.307406E-17
4.230000E+03	2.383783E-16	1.265315E-17
4.240000E+03	2.392719E-16	1.223371E-17
4.250000E+03	2.401534E-16	1.181917E-17
4.260000E+03	2.410195E-16	1.141307E-17
4.270000E+03	2.418763E-16	1.102000E-17
4.280000E+03	2.427250E-16	1.064497E-17
4.290000E+03	2.435632E-16	1.029349E-17
4.300000E+03	2.443925E-16	9.971937E-18
4.310000E+03	2.452149E-16	9.687235E-18
4.320000E+03	2.460320E-16	9.446648E-18
4.330000E+03	2.468373E-16	9.257124E-18
4.340000E+03	2.476404E-16	9.125699E-18
4.350000E+03	2.484302E-16	9.057483E-18
4.360000E+03	2.492149E-16	9.056438E-18
4.370000E+03	2.499786E-16	9.123245E-18
4.380000E+03	2.507274E-16	9.256817E-18
4.390000E+03	2.514552E-16	9.453287E-18
4.400000E+03	2.521552E-16	9.707006E-18
4.410000E+03	2.528201E-16	1.001120E-17
4.420000E+03	2.534460E-16	1.035874E-17
4.430000E+03	2.540288E-16	1.074245E-17
4.440000E+03	2.545639E-16	1.115542E-17
4.450000E+03	2.550467E-16	1.159124E-17
4.460000E+03	2.554688E-16	1.204386E-17
4.470000E+03	2.558323E-16	1.250833E-17
4.480000E+03	2.561285E-16	1.297974E-17
4.490000E+03	2.563559E-16	1.345408E-17
4.500000E+03	2.565158E-16	1.392797E-17
4.510000E+03	2.566031E-16	1.439812E-17
4.520000E+03	2.566224E-16	1.486219E-17
4.530000E+03	2.565718E-16	1.531779E-17
4.540000E+03	2.564491E-16	1.576285E-17
4.550000E+03	2.562558E-16	1.619573E-17
4.560000E+03	2.559965E-16	1.661527E-17
4.570000E+03	2.556695E-16	1.702010E-17
4.580000E+03	2.552796E-16	1.740945E-17
4.590000E+03	2.548252E-16	1.778233E-17
4.600000E+03	2.543084E-16	1.813809E-17
4.610000E+03	2.537377E-16	1.847670E-17
4.620000E+03	2.531090E-16	1.879736E-17
4.630000E+03	2.524280E-16	1.910005E-17
4.640000E+03	2.517008E-16	1.938491E-17
4.650000E+03	2.509271E-16	1.965170E-17
4.660000E+03	2.501102E-16	1.990050E-17
4.670000E+03	2.492600E-16	2.013200E-17
4.680000E+03	2.483739E-16	2.034597E-17
4.690000E+03	2.474590E-16	2.054300E-17
4.700000E+03	2.465196E-16	2.072351E-17
4.710000E+03	2.455600E-16	2.088799E-17
4.720000E+03	2.445819E-16	2.103673E-17
4.730000E+03	2.435961E-16	2.117081E-17
4.740000E+03	2.426014E-16	2.129036E-17
4.750000E+03	2.416002E-16	2.139581E-17
4.760000E+03	2.406005E-16	2.148811E-17
4.770000E+03	2.396021E-16	2.156747E-17
4.780000E+03	2.386102E-16	2.163467E-17
4.790000E+03	2.376305E-16	2.169045E-17
4.800000E+03	2.366655E-16	2.173535E-17
4.810000E+03	2.357181E-16	2.176989E-17
4.820000E+03	2.347965E-16	2.179512E-17
4.830000E+03	2.338980E-16	2.181105E-17
4.840000E+03	2.330309E-16	2.181872E-17
4.850000E+03	2.321952E-16	2.181840E-17
4.860000E+03	2.313935E-16	2.181057E-17
4.870000E+03	2.306312E-16	2.179598E-17
4.880000E+03	2.299056E-16	2.177460E-17
4.890000E+03	2.292218E-16	2.174712E-17
4.900000E+03	2.285825E-16	2.171399E-17
4.910000E+03	2.279846E-16	2.167511E-17
4.920000E+03	2.274357E-16	2.163136E-17
4.930000E+03	2.269355E-16	2.158285E-17
4.940000E+03	2.264859E-16	2.152992E-17
4.950000E+03	2.260864E-16	2.147263E-17
4.960000E+03	2.257388E-16	2.141127E-17
4.970000E+03	2.254474E-16	2.134633E-17
4.980000E+03	2.252088E-16	2.127756E-17
4.990000E+03	2.250293E-16	2.120565E-17
5.000000E+03	2.249053E-16	2.113029E-17
5.010000E+03	2.248379E-16	2.105164E-17
5.020000E+03	2.248307E-16	2.097007E-17
5.030000E+03	2.248820E-16	2.088545E-17
5.040000E+03	2.249951E-16	2.079811E-17
5.050000E+03	2.251679E-16	2.070787E-17
5.060000E+03	2.254008E-16	2.061481E-17
5.070000E+03	2.256942E-16	2.051894E-17
5.080000E+03	2.260479E-16	2.042032E-17
5.090000E+03	2.264644E-16	2.031917E-17
5.100000E+03	2.269383E-16	2.021508E-17
5.110000E+03	2.274742E-16	2.010851E-17
5.120000E+03	2.280664E-16	1.999904E-17
5.130000E+03	2.287190E-16	1.988714E-17
5.140000E+03	2.294284E-16	1.977264E-17
5.150000E+03	2.301935E-16	1.965563E-17
5.160000E+03	2.310128E-16	1.953619E-17
5.170000E+03	2.318846E-16	1.941447E-17
5.180000E+03	2.328096E-16	1.929084E-17
5.190000E+03	2.337808E-16	1.916513E-17
5.200000E+03	2.348010E-16	1.903802E-17
5.210000E+03	2.358652E-16	1.890966E-17
5.220000E+03	2.369709E-16	1.878048E-17
5.230000E+03	2.381177E-16	1.865118E-17
5.240000E+03	2.392976E-16	1.852196E-17
5.250000E+03	2.405124E-16	1.839388E-17
5.260000E+03	2.417563E-16	1.826756E-17
5.270000E+03	2.430283E-16	1.814406E-17
5.280000E+03	2.443196E-16	1.802399E-17
5.290000E+03	2.456313E-16	1.790885E-17
5.300000E+03	2.469570E-16	1.779963E-17
5.310000E+03	2.482949E-16	1.769781E-17
5.320000E+03	2.496358E-16	1.760440E-17
5.330000E+03	2.509802E-16	1.752121E-17
5.340000E+03	2.523212E-16	1.744953E-17
5.350000E+03	2.536542E-16	1.739089E-17
5.360000E+03	2.549771E-16	1.734694E-17
5.370000E+03	2.562801E-16	1.731879E-17
5.380000E+03	2.575638E-16	1.730815E-17
5.390000E+03	2.588182E-16	1.731590E-17
5.400000E+03	2.600442E-16	1.734344E-17
5.410000E+03	2.612346E-16	1.739141E-17
5.420000E+03	2.623828E-16	1.746013E-17
5.430000E+03	2.634900E-16	1.755012E-17
5.440000E+03	2.645475E-16	1.766083E-17
5.450000E+03	2.655547E-16	1.779188E-17
5.460000E+03	2.665086E-16	1.794241E-17
5.470000E+03	2.674041E-16	1.811113E-17
5.480000E+03	2.682414E-16	1.829686E-17
5.490000E+03	2.690159E-16	1.849791E-17
5.500000E+03	2.697259E-16	1.871263E-17
5.510000E+03	2.703674E-16	1.893910E-17
5.520000E+03	2.709394E-16	1.917550E-17
5.530000E+03	2.714439E-16	1.942021E-17
5.540000E+03	2.718807E-16	1.967143E-17
5.550000E+03	2.722525E-16	1.992758E-17
5.560000E+03	2.725570E-16	2.018674E-17
5.570000E+03	2.728005E-16	2.044771E-17
5.580000E+03	2.729786E-16	2.070854E-17
5.590000E+03	2.730984E-16	2.096821E-17
5.600000E+03	2.731614E-16	2.122543E-17
5.610000E+03	2.731646E-16	2.147857E-17
5.620000E+03	2.731156E-16	2.172699E-17
5.630000E+03	2.730170E-16	2.196974E-17
5.640000E+03	2.728692E-16	2.220580E-17
5.650000E+03	2.726751E-16	2.243443E-17
5.660000E+03	2.724407E-16	2.265526E-17
5.670000E+03	2.721667E-16	2.286759E-17
5.680000E+03	2.718594E-16	2.307125E-17
5.690000E+03	2.715170E-16	2.326547E-17
5.700000E+03	2.711484E-16	2.345050E-17
5.710000E+03	2.707573E-16	2.362621E-17
5.720000E+03	2.703448E-16	2.379229E-17
5.730000E+03	2.699144E-16	2.394873E-17
5.740000E+03	2.694696E-16	2.409557E-17
5.750000E+03	2.690140E-16	2.423289E-17
5.760000E+03	2.685508E-16	2.436081E-17
5.770000E+03	2.680859E-16	2.447973E-17
5.780000E+03	2.676171E-16	2.458934E-17
5.790000E+03	2.671498E-16	2.469007E-17
5.800000E+03	2.666867E-16	2.478211E-17
5.810000E+03	2.662304E-16	2.486569E-17
5.820000E+03	2.657806E-16	2.494076E-17
5.830000E+03	2.653419E-16	2.500777E-17
5.840000E+03	2.649164E-16	2.506692E-17
5.850000E+03	2.645004E-16	2.511791E-17
5.860000E+03	2.641008E-16	2.516141E-17
5.870000E+03	2.637163E-16	2.519734E-17
5.880000E+03	2.633480E-16	2.522585E-17
5.890000E+03	2.629968E-16	2.524705E-17
5.900000E+03	2.626637E-16	2.526108E-17
5.910000E+03	2.623466E-16	2.526777E-17
5.920000E+03	2.620462E-16	2.526720E-17
5.930000E+03	2.617652E-16	2.525966E-17
5.940000E+03	2.615014E-16	2.524495E-17
5.950000E+03	2.612523E-16	2.522283E-17
5.960000E+03	2.610206E-16	2.519354E-17
5.970000E+03	2.608034E-16	2.515682E-17
5.980000E+03	2.606008E-16	2.511261E-17
5.990000E+03	2.604124E-16	2.506086E-17
6.000000E+03	2.602378E-16	2.500149E-17
6.010000E+03	2.600742E-16	2.493416E-17
6.020000E+03	2.599185E-16	2.485851E-17
6.030000E+03	2.597729E-16	2.477466E-17
6.040000E+03	2.596366E-16	2.468246E-17
6.050000E+03	2.595041E-16	2.458129E-17
6.060000E+03	2.593773E-16	2.447121E-17
6.070000E+03	2.592504E-16	2.435156E-17
6.080000E+03	2.591252E-16	2.422240E-17
6.090000E+03	2.589985E-16	2.408329E-17
6.100000E+03	2.588695E-16	2.393402E-17
6.110000E+03	2.587347E-16	2.377415E-17
6.120000E+03	2.585910E-16	2.360322E-17
6.130000E+03	2.584373E-16	2.342101E-17
6.140000E+03	2.582728E-16	2.322731E-17
6.150000E+03	2.580964E-16	2.302188E-17
6.160000E+03	2.579047E-16	2.280428E-17
6.170000E+03	2.576992E-16	2.257451E-17
6.180000E+03	2.574787E-16	2.233234E-17
6.190000E+03	2.572446E-16	2.207778E-17
6.200000E+03	2.569959E-16	2.181062E-17
6.210000E+03	2.567289E-16	2.153044E-17
6.220000E+03	2.564473E-16	2.123749E-17
6.230000E+03	2.561476E-16	2.093137E-17
6.240000E+03	2.558284E-16	2.061195E-17
6.250000E+03	2.554960E-16	2.027970E-17
6.260000E+03	2.551442E-16	1.993410E-17
6.270000E+03	2.547741E-16	1.957529E-17
6.280000E+03	2.543870E-16	1.920339E-17
6.290000E+03	2.539866E-16	1.881879E-17
6.300000E+03	2.535664E-16	1.842114E-17
6.310000E+03	2.531278E-16	1.801071E-17
6.320000E+03	2.526744E-16	1.758800E-17
6.330000E+03	2.522023E-16	1.715303E-17
6.340000E+03	2.517152E-16	1.670643E-17
6.350000E+03	2.512069E-16	1.624822E-17
6.360000E+03	2.506809E-16	1.577920E-17
6.370000E+03	2.501359E-16	1.529996E-17
6.380000E+03	2.495733E-16	1.481136E-17
6.390000E+03	2.489890E-16	1.431411E-17
6.400000E+03	2.483845E-16	1.380942E-17
6.410000E+03	2.477610E-16	1.329868E-17
6.420000E+03	2.471148E-16	1.278327E-17
6.430000E+03	2.464446E-16	1.226499E-17
6.440000E+03	2.457543E-16	1.174625E-17
6.450000E+03	2.450403E-16	1.122950E-17
6.460000E+03	2.443041E-16	1.071789E-17
6.470000E+03	2.435446E-16	1.021506E-17
6.480000E+03	2.427609E-16	9.725308E-18
6.490000E+03	2.419546E-16	9.253787E-18
6.500000E+03	2.411198E-16	8.806213E-18
6.510000E+03	2.402634E-16	8.389656E-18
6.520000E+03	2.393797E-16	8.011550E-18
6.530000E+03	2.384708E-16	7.680234E-18
6.540000E+03	2.375364E-16	7.404181E-18
6.550000E+03	2.365740E-16	7.191336E-18
6.560000E+03	2.355864E-16	7.048428E-18
6.570000E+03	2.345718E-16	6.979630E-18
6.580000E+03	2.335342E-16	6.986042E-18
6.590000E+03	2.324756E-16	7.065168E-18
6.600000E+03	2.313984E-16	7.211389E-18
6.610000E+03	2.303032E-16	7.416796E-18
6.620000E+03	2.291979E-16	7.672587E-18
6.630000E+03	2.280836E-16	7.969530E-18
6.640000E+03	2.269636E-16	8.298952E-18
6.650000E+03	2.258413E-16	8.653041E-18
6.660000E+03	2.247224E-16	9.025112E-18
6.670000E+03	2.236080E-16	9.409334E-18
6.680000E+03	2.225036E-16	9.801046E-18
6.690000E+03	2.214124E-16	1.019636E-17
6.700000E+03	2.203350E-16	1.059201E-17
6.710000E+03	2.192768E-16	1.098559E-17
6.720000E+03	2.182405E-16	1.137512E-17
6.730000E+03	2.172263E-16	1.175892E-17
6.740000E+03	2.162418E-16	1.213607E-17
6.750000E+03	2.152843E-16	1.250541E-17
6.760000E+03	2.143587E-16	1.286643E-17
6.770000E+03	2.134695E-16	1.321886E-17
6.780000E+03	2.126138E-16	1.356213E-17
6.790000E+03	2.117959E-16	1.389625E-17
6.800000E+03	2.110176E-16	1.422121E-17
6.810000E+03	2.102803E-16	1.453709E-17
6.820000E+03	2.095856E-16	1.484402E-17
6.830000E+03	2.089348E-16	1.514221E-17
6.840000E+03	2.083291E-16	1.543192E-17
6.850000E+03	2.077718E-16	1.571362E-17
6.860000E+03	2.072591E-16	1.598725E-17
6.870000E+03	2.067942E-16	1.625335E-17
6.880000E+03	2.063801E-16	1.651243E-17
6.890000E+03	2.060125E-16	1.676447E-17
6.900000E+03	2.056966E-16	1.701021E-17
6.910000E+03	2.054278E-16	1.724961E-17
6.920000E+03	2.052111E-16	1.748341E-17
6.930000E+03	2.050441E-16	1.771175E-17
6.940000E+03	2.049266E-16	1.793493E-17
6.950000E+03	2.048558E-16	1.815306E-17
6.960000E+03	2.048364E-16	1.836684E-17
6.970000E+03	2.048678E-16	1.857657E-17
6.980000E+03	2.049444E-16	1.878203E-17
6.990000E+03	2.050680E-16	1.898368E-17
7.000000E+03	2.052376E-16	1.918172E-17
7.010000E+03	2.054548E-16	1.937657E-17
7.020000E+03	2.057135E-16	1.956791E-17
7.030000E+03	2.060173E-16	1.975636E-17
7.040000E+03	2.063625E-16	1.994178E-17
7.050000E+03	2.067451E-16	2.012401E-17
7.060000E+03	2.071686E-16	2.030360E-17
7.070000E+03	2.076287E-16	2.048033E-17
7.080000E+03	2.081236E-16	2.065423E-17
7.090000E+03	2.086516E-16	2.082526E-17
7.100000E+03	2.092105E-16	2.099340E-17
7.110000E+03	2.097983E-16	2.115858E-17
7.120000E+03	2.104155E-16	2.132097E-17
7.130000E+03	2.110547E-16	2.147996E-17
7.140000E+03	2.117160E-16	2.163566E-17
7.150000E+03	2.123999E-16	2.178822E-17
7.160000E+03	2.131013E-16	2.193719E-17
7.170000E+03	2.138177E-16	2.208240E-17
7.180000E+03	2.145467E-16	2.222365E-17
7.190000E+03	2.152857E-16	2.236073E-17
7.200000E+03	2.160349E-16	2.249370E-17
7.210000E+03	2.167865E-16	2.262177E-17
7.220000E+03	2.175433E-16	2.274526E-17
7.230000E+03	2.183003E-16	2.286364E-17
7.240000E+03	2.190578E-16	2.297695E-17
7.250000E+03	2.198107E-16	2.308464E-17
7.260000E+03	2.205568E-16	2.318647E-17
7.270000E+03	2.212968E-16	2.328246E-17
7.280000E+03	2.220258E-16	2.337207E-17
7.290000E+03	2.227418E-16	2.345505E-17
7.300000E+03	2.234460E-16	2.353147E-17
7.310000E+03	2.241367E-16	2.360108E-17
7.320000E+03	2.248096E-16	2.366335E-17
7.330000E+03	2.254663E-16	2.371838E-17
7.340000E+03	2.261026E-16	2.376565E-17
7.350000E+03	2.267206E-16	2.380526E-17
7.360000E+03	2.273195E-16	2.383705E-17
7.370000E+03	2.278956E-16	2.386051E-17
7.380000E+03	2.284516E-16	2.387580E-17
7.390000E+03	2.289870E-16	2.388277E-17
7.400000E+03	2.294988E-16	2.388095E-17
7.410000E+03	2.299901E-16	2.387053E-17
7.420000E+03	2.304640E-16	2.385170E-17
7.430000E+03	2.309179E-16	2.382401E-17
7.440000E+03	2.313521E-16	2.378736E-17
7.450000E+03	2.317702E-16	2.374194E-17
7.460000E+03	2.321699E-16	2.368732E-17
7.470000E+03	2.325485E-16	2.362308E-17
7.480000E+03	2.329130E-16	2.354971E-17
7.490000E+03	2.332548E-16	2.346616E-17
7.500000E+03	2.335808E-16	2.337291E-17
7.510000E+03	2.338884E-16	2.326952E-17
7.520000E+03	2.341814E-16	2.315614E-17
7.530000E+03	2.344540E-16	2.303199E-17
7.540000E+03	2.347130E-16	2.289752E-17
7.550000E+03	2.349555E-16	2.275220E-17
7.560000E+03	2.351786E-16	2.259554E-17
7.570000E+03	2.353885E-16	2.242792E-17
7.580000E+03	2.355788E-16	2.224849E-17
7.590000E+03	2.357524E-16	2.205729E-17
7.600000E+03	2.359088E-16	2.185406E-17
7.610000E+03	2.360473E-16	2.163851E-17
7.620000E+03	2.361639E-16	2.141004E-17
7.630000E+03	2.362574E-16	2.116837E-17
7.640000E+03	2.363330E-16	2.091374E-17
7.650000E+03	2.363797E-16	2.064501E-17
7.660000E+03	2.364022E-16	2.036241E-17
7.670000E+03	2.363987E-16	2.006565E-17
7.680000E+03	2.363640E-16	1.975416E-17
7.690000E+03	2.362962E-16	1.942765E-17
7.700000E+03	2.361961E-16	1.908615E-17
7.710000E+03	2.360583E-16	1.872917E-17
7.720000E+03	2.358805E-16	1.835653E-17
7.730000E+03	2.356635E-16	1.796832E-17
7.740000E+03	2.354016E-16	1.756420E-17
7.750000E+03	2.350959E-16	1.714438E-17
7.760000E+03	2.347407E-16	1.670865E-17
