#wls	flux	fluxerr
1.600000E+03	3.687520E-17	2.548961E-17
1.640000E+03	3.736372E-17	2.550072E-17
1.680000E+03	3.787128E-17	2.550821E-17
1.720000E+03	3.839060E-17	2.550634E-17
1.760000E+03	3.893637E-17	2.550405E-17
1.800000E+03	3.950132E-17	2.549553E-17
1.840000E+03	4.008538E-17	2.547981E-17
1.880000E+03	4.068844E-17	2.545586E-17
1.920000E+03	4.132598E-17	2.543229E-17
1.960000E+03	4.198247E-17	2.539823E-17
2.000000E+03	4.267362E-17	2.536204E-17
2.040000E+03	4.338332E-17	2.531285E-17
2.080000E+03	4.413570E-17	2.526346E-17
2.120000E+03	4.491435E-17	2.520288E-17
2.160000E+03	4.572718E-17	2.513418E-17
2.200000E+03	4.658233E-17	2.506020E-17
2.240000E+03	4.747102E-17	2.497445E-17
2.280000E+03	4.840986E-17	2.488393E-17
2.320000E+03	4.938104E-17	2.477752E-17
2.360000E+03	5.040112E-17	2.466180E-17
2.400000E+03	5.147818E-17	2.453845E-17
2.440000E+03	5.259338E-17	2.439627E-17
2.480000E+03	5.377226E-17	2.424498E-17
2.520000E+03	5.500437E-17	2.407726E-17
2.560000E+03	5.629699E-17	2.389381E-17
2.600000E+03	5.765721E-17	2.369491E-17
2.640000E+03	5.908259E-17	2.347661E-17
2.680000E+03	6.057948E-17	2.323850E-17
2.720000E+03	6.216325E-17	2.298316E-17
2.760000E+03	6.383003E-17	2.270548E-17
2.800000E+03	6.558462E-17	2.240354E-17
2.840000E+03	6.744061E-17	2.207809E-17
2.880000E+03	6.941076E-17	2.172887E-17
2.920000E+03	7.148777E-17	2.134902E-17
2.960000E+03	7.370118E-17	2.094269E-17
3.000000E+03	7.604101E-17	2.050185E-17
3.010000E+03	7.664648E-17	2.038589E-17
3.020000E+03	7.726546E-17	2.026889E-17
3.030000E+03	7.789774E-17	2.015065E-17
3.040000E+03	7.853361E-17	2.002857E-17
3.050000E+03	7.918233E-17	1.990497E-17
3.060000E+03	7.984367E-17	1.977966E-17
3.070000E+03	8.050790E-17	1.965017E-17
3.080000E+03	8.119371E-17	1.952098E-17
3.090000E+03	8.188190E-17	1.938735E-17
3.100000E+03	8.258165E-17	1.925142E-17
3.110000E+03	8.329269E-17	1.911304E-17
3.120000E+03	8.401470E-17	1.897206E-17
3.130000E+03	8.475679E-17	1.883041E-17
3.140000E+03	8.549982E-17	1.868375E-17
3.150000E+03	8.626224E-17	1.853609E-17
3.160000E+03	8.703431E-17	1.838521E-17
3.170000E+03	8.781568E-17	1.823098E-17
3.180000E+03	8.861531E-17	1.807522E-17
3.190000E+03	8.943279E-17	1.791769E-17
3.200000E+03	9.024907E-17	1.775454E-17
3.210000E+03	9.109165E-17	1.759118E-17
3.220000E+03	9.194148E-17	1.742380E-17
3.230000E+03	9.280738E-17	1.725405E-17
3.240000E+03	9.368886E-17	1.708178E-17
3.250000E+03	9.457618E-17	1.690520E-17
3.260000E+03	9.548727E-17	1.672750E-17
3.270000E+03	9.641234E-17	1.654688E-17
3.280000E+03	9.734168E-17	1.636170E-17
3.290000E+03	9.830215E-17	1.617649E-17
3.300000E+03	9.926572E-17	1.598658E-17
3.310000E+03	1.002500E-16	1.579487E-17
3.320000E+03	1.012452E-16	1.559985E-17
3.330000E+03	1.022597E-16	1.540286E-17
3.340000E+03	1.032928E-16	1.520383E-17
3.350000E+03	1.043347E-16	1.500139E-17
3.360000E+03	1.053937E-16	1.479688E-17
3.370000E+03	1.064777E-16	1.459150E-17
3.380000E+03	1.075683E-16	1.438280E-17
3.390000E+03	1.086734E-16	1.417211E-17
3.400000E+03	1.098009E-16	1.396061E-17
3.410000E+03	1.109498E-16	1.374835E-17
3.420000E+03	1.121016E-16	1.353327E-17
3.430000E+03	1.132816E-16	1.331875E-17
3.440000E+03	1.144713E-16	1.310284E-17
3.450000E+03	1.156781E-16	1.288681E-17
3.460000E+03	1.169011E-16	1.267087E-17
3.470000E+03	1.181389E-16	1.245531E-17
3.480000E+03	1.193989E-16	1.224133E-17
3.490000E+03	1.206713E-16	1.202837E-17
3.500000E+03	1.219548E-16	1.181687E-17
3.510000E+03	1.232564E-16	1.160808E-17
3.520000E+03	1.245665E-16	1.140166E-17
3.530000E+03	1.259001E-16	1.119965E-17
3.540000E+03	1.272475E-16	1.100179E-17
3.550000E+03	1.286071E-16	1.080863E-17
3.560000E+03	1.299774E-16	1.062075E-17
3.570000E+03	1.313650E-16	1.043942E-17
3.580000E+03	1.327602E-16	1.026456E-17
3.590000E+03	1.341695E-16	1.009740E-17
3.600000E+03	1.355915E-16	9.938511E-18
3.610000E+03	1.370246E-16	9.788410E-18
3.620000E+03	1.384675E-16	9.647600E-18
3.630000E+03	1.399269E-16	9.517058E-18
3.640000E+03	1.413940E-16	9.396601E-18
3.650000E+03	1.428760E-16	9.287028E-18
3.660000E+03	1.443646E-16	9.188019E-18
3.670000E+03	1.458753E-16	9.100625E-18
3.680000E+03	1.474009E-16	9.024311E-18
3.690000E+03	1.489422E-16	8.958936E-18
3.700000E+03	1.505009E-16	8.904258E-18
3.710000E+03	1.520862E-16	8.860368E-18
3.720000E+03	1.537007E-16	8.826820E-18
3.730000E+03	1.553471E-16	8.803097E-18
3.740000E+03	1.570288E-16	8.788634E-18
3.750000E+03	1.587493E-16	8.782824E-18
3.760000E+03	1.605123E-16	8.785038E-18
3.770000E+03	1.623285E-16	8.795012E-18
3.780000E+03	1.641943E-16	8.811703E-18
3.790000E+03	1.661196E-16	8.834832E-18
3.800000E+03	1.681066E-16	8.863735E-18
3.810000E+03	1.701568E-16	8.897752E-18
3.820000E+03	1.722705E-16	8.936220E-18
3.830000E+03	1.744466E-16	8.978469E-18
3.840000E+03	1.766894E-16	9.024154E-18
3.850000E+03	1.789879E-16	9.072217E-18
3.860000E+03	1.813429E-16	9.122249E-18
3.870000E+03	1.837400E-16	9.173134E-18
3.880000E+03	1.861763E-16	9.224381E-18
3.890000E+03	1.886338E-16	9.274802E-18
3.900000E+03	1.911062E-16	9.323820E-18
3.910000E+03	1.935852E-16	9.370811E-18
3.920000E+03	1.960424E-16	9.414192E-18
3.930000E+03	1.984675E-16	9.453313E-18
3.940000E+03	2.008433E-16	9.487216E-18
3.950000E+03	2.031460E-16	9.514677E-18
3.960000E+03	2.053707E-16	9.535394E-18
3.970000E+03	2.074882E-16	9.547958E-18
3.980000E+03	2.094889E-16	9.551911E-18
3.990000E+03	2.113581E-16	9.546597E-18
4.000000E+03	2.130771E-16	9.531201E-18
4.010000E+03	2.146408E-16	9.505575E-18
4.020000E+03	2.160347E-16	9.469167E-18
4.030000E+03	2.172583E-16	9.422081E-18
4.040000E+03	2.182962E-16	9.363808E-18
4.050000E+03	2.191531E-16	9.294733E-18
4.060000E+03	2.198302E-16	9.215118E-18
4.070000E+03	2.203257E-16	9.125125E-18
4.080000E+03	2.206459E-16	9.025272E-18
4.090000E+03	2.207992E-16	8.916173E-18
4.100000E+03	2.207905E-16	8.798327E-18
4.110000E+03	2.206324E-16	8.672520E-18
4.120000E+03	2.203383E-16	8.539595E-18
4.130000E+03	2.199185E-16	8.400248E-18
4.140000E+03	2.193890E-16	8.255403E-18
4.150000E+03	2.187619E-16	8.105831E-18
4.160000E+03	2.180549E-16	7.952496E-18
4.170000E+03	2.172857E-16	7.796365E-18
4.180000E+03	2.164630E-16	7.638095E-18
4.190000E+03	2.156049E-16	7.478682E-18
4.200000E+03	2.147291E-16	7.319127E-18
4.210000E+03	2.138484E-16	7.160297E-18
4.220000E+03	2.129797E-16	7.003228E-18
4.230000E+03	2.121272E-16	6.848597E-18
4.240000E+03	2.113145E-16	6.697793E-18
4.250000E+03	2.105492E-16	6.551736E-18
4.260000E+03	2.098419E-16	6.411557E-18
4.270000E+03	2.092032E-16	6.278466E-18
4.280000E+03	2.086467E-16	6.153862E-18
4.290000E+03	2.081855E-16	6.039210E-18
4.300000E+03	2.078214E-16	5.935727E-18
4.310000E+03	2.075667E-16	5.844986E-18
4.320000E+03	2.074330E-16	5.768549E-18
4.330000E+03	2.074280E-16	5.707823E-18
4.340000E+03	2.075590E-16	5.664087E-18
4.350000E+03	2.078329E-16	5.638400E-18
4.360000E+03	2.082564E-16	5.631501E-18
4.370000E+03	2.088390E-16	5.643813E-18
4.380000E+03	2.095931E-16	5.675406E-18
4.390000E+03	2.105208E-16	5.725689E-18
4.400000E+03	2.116324E-16	5.794016E-18
4.410000E+03	2.129334E-16	5.879421E-18
4.420000E+03	2.144304E-16	5.980877E-18
4.430000E+03	2.161306E-16	6.097353E-18
4.440000E+03	2.180323E-16	6.227597E-18
4.450000E+03	2.201431E-16	6.370697E-18
4.460000E+03	2.224460E-16	6.525111E-18
4.470000E+03	2.249235E-16	6.689365E-18
4.480000E+03	2.275578E-16	6.862055E-18
4.490000E+03	2.303209E-16	7.041552E-18
4.500000E+03	2.331873E-16	7.226363E-18
4.510000E+03	2.361247E-16	7.414839E-18
4.520000E+03	2.391034E-16	7.605456E-18
4.530000E+03	2.420841E-16	7.796421E-18
4.540000E+03	2.450341E-16	7.986179E-18
4.550000E+03	2.479122E-16	8.172916E-18
4.560000E+03	2.506789E-16	8.354882E-18
4.570000E+03	2.532909E-16	8.530207E-18
4.580000E+03	2.557148E-16	8.697363E-18
4.590000E+03	2.579091E-16	8.854555E-18
4.600000E+03	2.598348E-16	9.000075E-18
4.610000E+03	2.614661E-16	9.132687E-18
4.620000E+03	2.627757E-16	9.251110E-18
4.630000E+03	2.637417E-16	9.354277E-18
4.640000E+03	2.643486E-16	9.441364E-18
4.650000E+03	2.645878E-16	9.511820E-18
4.660000E+03	2.644643E-16	9.565608E-18
4.670000E+03	2.639805E-16	9.602638E-18
4.680000E+03	2.631557E-16	9.623449E-18
4.690000E+03	2.620058E-16	9.628507E-18
4.700000E+03	2.605587E-16	9.618753E-18
4.710000E+03	2.588503E-16	9.595454E-18
4.720000E+03	2.569107E-16	9.559709E-18
4.730000E+03	2.547820E-16	9.513090E-18
4.740000E+03	2.525041E-16	9.457139E-18
4.750000E+03	2.501145E-16	9.393327E-18
4.760000E+03	2.476555E-16	9.323345E-18
4.770000E+03	2.451619E-16	9.248621E-18
4.780000E+03	2.426716E-16	9.170721E-18
4.790000E+03	2.402107E-16	9.090789E-18
4.800000E+03	2.378102E-16	9.010160E-18
4.810000E+03	2.354862E-16	8.929617E-18
4.820000E+03	2.332592E-16	8.850108E-18
4.830000E+03	2.311400E-16	8.772231E-18
4.840000E+03	2.291384E-16	8.696541E-18
4.850000E+03	2.272606E-16	8.623451E-18
4.860000E+03	2.255092E-16	8.553243E-18
4.870000E+03	2.238814E-16	8.485982E-18
4.880000E+03	2.223767E-16	8.421812E-18
4.890000E+03	2.209874E-16	8.360586E-18
4.900000E+03	2.197091E-16	8.302259E-18
4.910000E+03	2.185316E-16	8.246529E-18
4.920000E+03	2.174487E-16	8.193221E-18
4.930000E+03	2.164519E-16	8.142028E-18
4.940000E+03	2.155334E-16	8.092626E-18
4.950000E+03	2.146886E-16	8.044776E-18
4.960000E+03	2.139078E-16	7.997998E-18
4.970000E+03	2.131925E-16	7.952198E-18
4.980000E+03	2.125415E-16	7.907159E-18
4.990000E+03	2.119562E-16	7.862727E-18
5.000000E+03	2.114380E-16	7.818733E-18
5.010000E+03	2.109971E-16	7.775331E-18
5.020000E+03	2.106389E-16	7.732486E-18
5.030000E+03	2.103725E-16	7.690299E-18
5.040000E+03	2.102104E-16	7.648989E-18
5.050000E+03	2.101612E-16	7.608630E-18
5.060000E+03	2.102380E-16	7.569452E-18
5.070000E+03	2.104517E-16	7.531583E-18
5.080000E+03	2.108121E-16	7.495103E-18
5.090000E+03	2.113284E-16	7.460034E-18
5.100000E+03	2.120082E-16	7.426328E-18
5.110000E+03	2.128580E-16	7.393852E-18
5.120000E+03	2.138821E-16	7.362389E-18
5.130000E+03	2.150858E-16	7.331711E-18
5.140000E+03	2.164678E-16	7.301348E-18
5.150000E+03	2.180295E-16	7.270900E-18
5.160000E+03	2.197680E-16	7.239806E-18
5.170000E+03	2.216763E-16	7.207358E-18
5.180000E+03	2.237501E-16	7.172924E-18
5.190000E+03	2.259808E-16	7.135733E-18
5.200000E+03	2.283557E-16	7.094882E-18
5.210000E+03	2.308672E-16	7.049639E-18
5.220000E+03	2.334991E-16	6.999017E-18
5.230000E+03	2.362360E-16	6.942085E-18
5.240000E+03	2.390612E-16	6.877918E-18
5.250000E+03	2.419570E-16	6.805627E-18
5.260000E+03	2.449047E-16	6.724399E-18
5.270000E+03	2.478882E-16	6.633616E-18
5.280000E+03	2.508888E-16	6.532767E-18
5.290000E+03	2.538834E-16	6.421467E-18
5.300000E+03	2.568629E-16	6.300000E-18
5.310000E+03	2.598068E-16	6.168756E-18
5.320000E+03	2.627022E-16	6.028812E-18
5.330000E+03	2.655413E-16	5.881985E-18
5.340000E+03	2.683168E-16	5.730860E-18
5.350000E+03	2.710248E-16	5.578998E-18
5.360000E+03	2.736620E-16	5.431019E-18
5.370000E+03	2.762339E-16	5.292859E-18
5.380000E+03	2.787462E-16	5.171558E-18
5.390000E+03	2.812068E-16	5.075061E-18
5.400000E+03	2.836209E-16	5.011555E-18
5.410000E+03	2.859994E-16	4.988614E-18
5.420000E+03	2.883355E-16	5.011453E-18
5.430000E+03	2.906201E-16	5.082014E-18
5.440000E+03	2.928294E-16	5.198294E-18
5.450000E+03	2.949265E-16	5.354933E-18
5.460000E+03	2.968765E-16	5.544661E-18
5.470000E+03	2.986297E-16	5.759154E-18
5.480000E+03	3.001418E-16	5.990268E-18
5.490000E+03	3.013736E-16	6.230532E-18
5.500000E+03	3.022859E-16	6.473289E-18
5.510000E+03	3.028415E-16	6.712768E-18
5.520000E+03	3.030121E-16	6.944192E-18
5.530000E+03	3.027765E-16	7.163675E-18
5.540000E+03	3.021243E-16	7.368224E-18
5.550000E+03	3.010475E-16	7.555456E-18
5.560000E+03	2.995528E-16	7.723830E-18
5.570000E+03	2.976523E-16	7.872363E-18
5.580000E+03	2.953635E-16	8.000565E-18
5.590000E+03	2.927172E-16	8.108610E-18
5.600000E+03	2.897451E-16	8.196960E-18
5.610000E+03	2.864929E-16	8.266698E-18
5.620000E+03	2.829963E-16	8.318805E-18
5.630000E+03	2.793081E-16	8.354916E-18
5.640000E+03	2.754774E-16	8.376678E-18
5.650000E+03	2.715507E-16	8.385774E-18
5.660000E+03	2.675794E-16	8.384113E-18
5.670000E+03	2.636055E-16	8.373373E-18
5.680000E+03	2.596786E-16	8.355535E-18
5.690000E+03	2.558375E-16	8.332268E-18
5.700000E+03	2.521196E-16	8.305229E-18
5.710000E+03	2.485580E-16	8.275956E-18
5.720000E+03	2.451789E-16	8.245765E-18
5.730000E+03	2.420109E-16	8.216051E-18
5.740000E+03	2.390682E-16	8.187718E-18
5.750000E+03	2.363649E-16	8.161646E-18
5.760000E+03	2.339130E-16	8.138607E-18
5.770000E+03	2.317151E-16	8.119028E-18
5.780000E+03	2.297744E-16	8.103307E-18
5.790000E+03	2.280832E-16	8.091430E-18
5.800000E+03	2.266373E-16	8.083457E-18
5.810000E+03	2.254267E-16	8.079223E-18
5.820000E+03	2.244391E-16	8.078432E-18
5.830000E+03	2.236572E-16	8.080602E-18
5.840000E+03	2.230666E-16	8.085323E-18
5.850000E+03	2.226467E-16	8.091961E-18
5.860000E+03	2.223784E-16	8.099917E-18
5.870000E+03	2.222439E-16	8.108647E-18
5.880000E+03	2.222189E-16	8.117371E-18
5.890000E+03	2.222858E-16	8.125561E-18
5.900000E+03	2.224255E-16	8.132649E-18
5.910000E+03	2.226177E-16	8.138047E-18
5.920000E+03	2.228501E-16	8.141475E-18
5.930000E+03	2.231012E-16	8.142350E-18
5.940000E+03	2.233621E-16	8.140580E-18
5.950000E+03	2.236195E-16	8.135944E-18
5.960000E+03	2.238644E-16	8.128408E-18
5.970000E+03	2.240924E-16	8.118115E-18
5.980000E+03	2.242944E-16	8.105066E-18
5.990000E+03	2.244724E-16	8.089656E-18
6.000000E+03	2.246213E-16	8.072026E-18
6.010000E+03	2.247445E-16	8.052600E-18
6.020000E+03	2.248469E-16	8.031829E-18
6.030000E+03	2.249280E-16	8.009942E-18
6.040000E+03	2.249947E-16	7.987403E-18
6.050000E+03	2.250527E-16	7.964588E-18
6.060000E+03	2.251077E-16	7.941853E-18
6.070000E+03	2.251657E-16	7.919524E-18
6.080000E+03	2.252302E-16	7.897810E-18
6.090000E+03	2.253107E-16	7.877105E-18
6.100000E+03	2.254074E-16	7.857431E-18
6.110000E+03	2.255261E-16	7.838970E-18
6.120000E+03	2.256695E-16	7.821744E-18
6.130000E+03	2.258367E-16	7.805605E-18
6.140000E+03	2.260326E-16	7.790543E-18
6.150000E+03	2.262497E-16	7.776068E-18
6.160000E+03	2.264929E-16	7.762063E-18
6.170000E+03	2.267572E-16	7.748026E-18
6.180000E+03	2.270390E-16	7.733466E-18
6.190000E+03	2.273345E-16	7.717846E-18
6.200000E+03	2.276393E-16	7.700594E-18
6.210000E+03	2.279490E-16	7.681122E-18
6.220000E+03	2.282595E-16	7.658843E-18
6.230000E+03	2.285670E-16	7.633179E-18
6.240000E+03	2.288706E-16	7.603650E-18
6.250000E+03	2.291633E-16	7.569577E-18
6.260000E+03	2.294478E-16	7.530623E-18
6.270000E+03	2.297233E-16	7.486332E-18
6.280000E+03	2.299872E-16	7.436209E-18
6.290000E+03	2.302394E-16	7.379864E-18
6.300000E+03	2.304827E-16	7.317009E-18
6.310000E+03	2.307150E-16	7.247219E-18
6.320000E+03	2.309407E-16	7.170294E-18
6.330000E+03	2.311541E-16	7.085735E-18
6.340000E+03	2.313553E-16	6.993248E-18
6.350000E+03	2.315406E-16	6.892438E-18
6.360000E+03	2.317048E-16	6.782876E-18
6.370000E+03	2.318406E-16	6.664105E-18
6.380000E+03	2.319387E-16	6.535634E-18
6.390000E+03	2.319905E-16	6.397025E-18
6.400000E+03	2.319810E-16	6.247711E-18
6.410000E+03	2.318984E-16	6.087302E-18
6.420000E+03	2.317254E-16	5.915367E-18
6.430000E+03	2.314518E-16	5.731815E-18
6.440000E+03	2.310580E-16	5.536534E-18
6.450000E+03	2.305327E-16	5.329907E-18
6.460000E+03	2.298666E-16	5.112722E-18
6.470000E+03	2.290504E-16	4.886233E-18
6.480000E+03	2.280757E-16	4.652304E-18
6.490000E+03	2.269474E-16	4.413799E-18
6.500000E+03	2.256624E-16	4.174314E-18
6.510000E+03	2.242315E-16	3.938786E-18
6.520000E+03	2.226626E-16	3.713337E-18
6.530000E+03	2.209676E-16	3.505482E-18
6.540000E+03	2.191640E-16	3.323997E-18
6.550000E+03	2.172761E-16	3.178304E-18
6.560000E+03	2.153170E-16	3.076919E-18
6.570000E+03	2.133114E-16	3.025918E-18
6.580000E+03	2.112678E-16	3.026707E-18
6.590000E+03	2.091960E-16	3.075628E-18
6.600000E+03	2.071006E-16	3.164916E-18
6.610000E+03	2.049770E-16	3.284682E-18
6.620000E+03	2.028285E-16	3.425117E-18
6.630000E+03	2.006543E-16	3.577503E-18
6.640000E+03	1.984526E-16	3.734717E-18
6.650000E+03	1.962250E-16	3.891328E-18
6.660000E+03	1.939787E-16	4.043462E-18
6.670000E+03	1.917156E-16	4.188326E-18
6.680000E+03	1.894409E-16	4.324129E-18
6.690000E+03	1.871608E-16	4.449828E-18
6.700000E+03	1.848823E-16	4.564951E-18
6.710000E+03	1.826150E-16	4.669513E-18
6.720000E+03	1.803651E-16	4.763747E-18
6.730000E+03	1.781432E-16	4.848222E-18
6.740000E+03	1.759560E-16	4.923570E-18
6.750000E+03	1.738143E-16	4.990637E-18
6.760000E+03	1.717268E-16	5.050286E-18
6.770000E+03	1.697022E-16	5.103413E-18
6.780000E+03	1.677484E-16	5.150919E-18
6.790000E+03	1.658716E-16	5.193630E-18
6.800000E+03	1.640826E-16	5.232515E-18
6.810000E+03	1.623865E-16	5.268321E-18
6.820000E+03	1.607892E-16	5.301788E-18
6.830000E+03	1.592964E-16	5.333595E-18
6.840000E+03	1.579127E-16	5.364342E-18
6.850000E+03	1.566442E-16	5.394621E-18
6.860000E+03	1.554921E-16	5.424822E-18
6.870000E+03	1.544591E-16	5.455327E-18
6.880000E+03	1.535485E-16	5.486512E-18
6.890000E+03	1.527593E-16	5.518567E-18
6.900000E+03	1.520933E-16	5.551759E-18
6.910000E+03	1.515494E-16	5.586242E-18
6.920000E+03	1.511241E-16	5.622067E-18
6.930000E+03	1.508148E-16	5.659322E-18
6.940000E+03	1.506218E-16	5.698207E-18
6.950000E+03	1.505376E-16	5.738635E-18
6.960000E+03	1.505598E-16	5.780717E-18
6.970000E+03	1.506818E-16	5.824416E-18
6.980000E+03	1.509008E-16	5.869839E-18
6.990000E+03	1.512137E-16	5.917098E-18
7.000000E+03	1.516125E-16	5.966091E-18
7.010000E+03	1.520949E-16	6.016940E-18
7.020000E+03	1.526553E-16	6.069624E-18
7.030000E+03	1.532946E-16	6.124349E-18
7.040000E+03	1.540085E-16	6.181102E-18
7.050000E+03	1.547957E-16	6.239939E-18
7.060000E+03	1.556551E-16	6.300918E-18
7.070000E+03	1.565865E-16	6.364089E-18
7.080000E+03	1.575901E-16	6.429492E-18
7.090000E+03	1.586665E-16	6.497158E-18
7.100000E+03	1.598162E-16	6.567106E-18
7.110000E+03	1.610417E-16	6.639417E-18
7.120000E+03	1.623410E-16	6.713991E-18
7.130000E+03	1.637135E-16	6.790779E-18
7.140000E+03	1.651579E-16	6.869703E-18
7.150000E+03	1.666738E-16	6.950731E-18
7.160000E+03	1.682552E-16	7.033610E-18
7.170000E+03	1.698990E-16	7.118210E-18
7.180000E+03	1.715964E-16	7.204159E-18
7.190000E+03	1.733411E-16	7.291199E-18
7.200000E+03	1.751230E-16	7.378914E-18
7.210000E+03	1.769283E-16	7.466720E-18
7.220000E+03	1.787437E-16	7.554055E-18
7.230000E+03	1.805591E-16	7.640497E-18
7.240000E+03	1.823541E-16	7.725179E-18
7.250000E+03	1.841144E-16	7.807487E-18
7.260000E+03	1.858225E-16	7.886686E-18
7.270000E+03	1.874608E-16	7.962026E-18
7.280000E+03	1.890117E-16	8.032767E-18
7.290000E+03	1.904556E-16	8.098082E-18
7.300000E+03	1.917810E-16	8.157498E-18
7.310000E+03	1.929705E-16	8.210279E-18
7.320000E+03	1.940104E-16	8.255855E-18
7.330000E+03	1.948867E-16	8.293622E-18
7.340000E+03	1.955951E-16	8.323384E-18
7.350000E+03	1.961260E-16	8.344710E-18
7.360000E+03	1.964752E-16	8.357372E-18
7.370000E+03	1.966438E-16	8.361358E-18
7.380000E+03	1.966275E-16	8.356425E-18
7.390000E+03	1.964355E-16	8.342882E-18
7.400000E+03	1.960717E-16	8.320814E-18
7.410000E+03	1.955505E-16	8.290749E-18
7.420000E+03	1.948777E-16	8.252874E-18
7.430000E+03	1.940696E-16	8.207811E-18
7.440000E+03	1.931440E-16	8.156276E-18
7.450000E+03	1.921125E-16	8.098742E-18
7.460000E+03	1.909935E-16	8.035981E-18
7.470000E+03	1.898061E-16	7.968830E-18
7.480000E+03	1.885730E-16	7.898285E-18
7.490000E+03	1.873096E-16	7.825058E-18
7.500000E+03	1.860392E-16	7.750201E-18
7.510000E+03	1.847798E-16	7.674556E-18
7.520000E+03	1.835516E-16	7.599055E-18
7.530000E+03	1.823768E-16	7.524695E-18
7.540000E+03	1.812689E-16	7.452111E-18
7.550000E+03	1.802505E-16	7.382272E-18
7.560000E+03	1.793352E-16	7.315756E-18
7.570000E+03	1.785351E-16	7.253040E-18
7.580000E+03	1.778656E-16	7.194691E-18
7.590000E+03	1.773377E-16	7.141054E-18
7.600000E+03	1.769580E-16	7.092252E-18
7.610000E+03	1.767359E-16	7.048479E-18
7.620000E+03	1.766738E-16	7.009604E-18
7.630000E+03	1.767742E-16	6.975471E-18
7.640000E+03	1.770399E-16	6.945894E-18
7.650000E+03	1.774689E-16	6.920470E-18
7.660000E+03	1.780518E-16	6.898483E-18
7.670000E+03	1.787869E-16	6.879483E-18
7.680000E+03	1.796625E-16	6.862621E-18
7.690000E+03	1.806672E-16	6.847030E-18
7.700000E+03	1.817875E-16	6.831742E-18
7.710000E+03	1.830073E-16	6.815696E-18
7.720000E+03	1.843091E-16	6.797747E-18
7.730000E+03	1.856759E-16	6.776780E-18
7.740000E+03	1.870841E-16	6.751442E-18
7.750000E+03	1.885118E-16	6.720448E-18
7.760000E+03	1.899358E-16	6.682504E-18
