#wls	flux	fluxerr
1.565382E+03	2.428419E-02	1.611193E-03
1.604516E+03	2.514632E-02	1.659130E-03
1.643651E+03	2.606034E-02	1.709624E-03
1.682785E+03	2.702734E-02	1.762662E-03
1.721920E+03	2.805058E-02	1.818366E-03
1.761054E+03	2.913552E-02	1.876992E-03
1.800189E+03	3.027752E-02	1.938137E-03
1.839323E+03	3.148384E-02	2.002160E-03
1.878458E+03	3.275402E-02	2.068915E-03
1.917592E+03	3.408719E-02	2.138226E-03
1.956727E+03	3.547960E-02	2.209738E-03
1.995862E+03	3.692952E-02	2.283223E-03
2.034996E+03	3.842985E-02	2.358122E-03
2.074131E+03	3.996830E-02	2.433569E-03
2.113265E+03	4.153947E-02	2.509138E-03
2.152400E+03	4.312805E-02	2.583813E-03
2.191534E+03	4.472098E-02	2.656744E-03
2.230669E+03	4.630989E-02	2.727380E-03
2.269803E+03	4.789100E-02	2.795458E-03
2.308938E+03	4.946730E-02	2.861110E-03
2.348072E+03	5.104368E-02	2.924576E-03
2.387207E+03	5.262446E-02	2.986050E-03
2.426341E+03	5.422016E-02	3.046066E-03
2.465476E+03	5.583368E-02	3.104709E-03
2.504611E+03	5.747168E-02	3.162266E-03
2.543745E+03	5.913347E-02	3.218606E-03
2.582880E+03	6.081998E-02	3.273687E-03
2.622014E+03	6.252741E-02	3.327211E-03
2.661149E+03	6.425173E-02	3.378879E-03
2.700283E+03	6.598884E-02	3.428399E-03
2.739418E+03	6.773266E-02	3.475388E-03
2.778552E+03	6.947744E-02	3.519497E-03
2.817687E+03	7.122171E-02	3.560609E-03
2.856821E+03	7.296059E-02	3.598445E-03
2.895956E+03	7.469904E-02	3.633222E-03
2.935090E+03	7.643685E-02	3.664900E-03
2.944874E+03	7.687385E-02	3.672459E-03
2.954658E+03	7.731003E-02	3.679784E-03
2.964441E+03	7.774536E-02	3.686873E-03
2.974225E+03	7.818320E-02	3.693887E-03
2.984009E+03	7.862173E-02	3.700737E-03
2.993792E+03	7.906085E-02	3.707418E-03
3.003576E+03	7.950218E-02	3.714005E-03
3.013360E+03	7.994393E-02	3.720414E-03
3.023143E+03	8.038602E-02	3.726640E-03
3.032927E+03	8.083177E-02	3.732836E-03
3.042710E+03	8.127769E-02	3.738840E-03
3.052494E+03	8.172543E-02	3.744727E-03
3.062278E+03	8.217325E-02	3.750416E-03
3.072061E+03	8.262604E-02	3.756130E-03
3.081845E+03	8.307881E-02	3.761640E-03
3.091629E+03	8.353317E-02	3.767018E-03
3.101412E+03	8.399066E-02	3.772333E-03
3.111196E+03	8.445124E-02	3.777581E-03
3.120980E+03	8.491170E-02	3.782618E-03
3.130763E+03	8.537676E-02	3.787652E-03
3.140547E+03	8.584324E-02	3.792542E-03
3.150330E+03	8.631270E-02	3.797355E-03
3.160114E+03	8.678359E-02	3.802022E-03
3.169898E+03	8.725745E-02	3.806610E-03
3.179681E+03	8.773429E-02	3.811116E-03
3.189465E+03	8.821411E-02	3.815541E-03
3.199249E+03	8.869545E-02	3.819820E-03
3.209032E+03	8.917982E-02	3.824017E-03
3.218816E+03	8.966729E-02	3.828134E-03
3.228600E+03	9.015643E-02	3.832109E-03
3.238383E+03	9.064877E-02	3.836006E-03
3.248167E+03	9.114292E-02	3.839765E-03
3.257950E+03	9.164043E-02	3.843451E-03
3.267734E+03	9.213994E-02	3.847006E-03
3.277518E+03	9.264155E-02	3.850434E-03
3.287301E+03	9.314539E-02	3.853740E-03
3.297085E+03	9.365158E-02	3.856927E-03
3.306869E+03	9.416024E-02	3.860002E-03
3.316652E+03	9.467016E-02	3.862913E-03
3.326436E+03	9.518284E-02	3.865722E-03
3.336220E+03	9.569573E-02	3.868325E-03
3.346003E+03	9.621173E-02	3.870841E-03
3.355787E+03	9.672830E-02	3.873167E-03
3.365570E+03	9.724566E-02	3.875313E-03
3.375354E+03	9.776402E-02	3.877287E-03
3.385138E+03	9.828226E-02	3.879047E-03
3.394921E+03	9.880196E-02	3.880656E-03
3.404705E+03	9.932201E-02	3.882072E-03
3.414489E+03	9.984137E-02	3.883256E-03
3.424272E+03	1.003603E-01	3.884219E-03
3.434056E+03	1.008778E-01	3.884925E-03
3.443839E+03	1.013953E-01	3.885436E-03
3.453623E+03	1.019095E-01	3.885619E-03
3.463407E+03	1.024218E-01	3.885539E-03
3.473190E+03	1.029312E-01	3.885160E-03
3.482974E+03	1.034381E-01	3.884501E-03
3.492758E+03	1.039404E-01	3.883483E-03
3.502541E+03	1.044370E-01	3.882078E-03
3.512325E+03	1.049297E-01	3.880349E-03
3.522109E+03	1.054149E-01	3.878180E-03
3.531892E+03	1.058944E-01	3.875634E-03
3.541676E+03	1.063672E-01	3.872686E-03
3.551459E+03	1.068312E-01	3.869268E-03
3.561243E+03	1.072857E-01	3.865358E-03
3.571027E+03	1.077310E-01	3.860979E-03
3.580810E+03	1.081651E-01	3.856067E-03
3.590594E+03	1.085894E-01	3.850685E-03
3.600378E+03	1.090009E-01	3.844732E-03
3.610161E+03	1.093999E-01	3.838230E-03
3.619945E+03	1.097856E-01	3.831163E-03
3.629729E+03	1.101582E-01	3.823553E-03
3.639512E+03	1.105159E-01	3.815343E-03
3.649296E+03	1.108590E-01	3.806558E-03
3.659079E+03	1.111865E-01	3.797181E-03
3.668863E+03	1.114989E-01	3.787235E-03
3.678647E+03	1.117952E-01	3.776705E-03
3.688430E+03	1.120758E-01	3.765613E-03
3.698214E+03	1.123397E-01	3.753943E-03
3.707998E+03	1.125861E-01	3.741681E-03
3.717781E+03	1.128174E-01	3.728922E-03
3.727565E+03	1.130306E-01	3.715576E-03
3.737349E+03	1.132269E-01	3.701702E-03
3.747132E+03	1.134075E-01	3.687352E-03
3.756916E+03	1.135705E-01	3.672477E-03
3.766699E+03	1.137159E-01	3.657096E-03
3.776483E+03	1.138451E-01	3.641261E-03
3.786267E+03	1.139580E-01	3.624992E-03
3.796050E+03	1.140547E-01	3.608299E-03
3.805834E+03	1.141343E-01	3.591169E-03
3.815618E+03	1.141979E-01	3.573655E-03
3.825401E+03	1.142453E-01	3.555762E-03
3.835185E+03	1.142769E-01	3.537516E-03
3.844969E+03	1.142924E-01	3.518920E-03
3.854752E+03	1.142920E-01	3.499998E-03
3.864536E+03	1.142765E-01	3.480787E-03
3.874319E+03	1.142459E-01	3.461298E-03
3.884103E+03	1.141992E-01	3.441517E-03
3.893887E+03	1.141383E-01	3.421514E-03
3.903670E+03	1.140621E-01	3.401267E-03
3.913454E+03	1.139715E-01	3.380820E-03
3.923238E+03	1.138664E-01	3.360177E-03
3.933021E+03	1.137457E-01	3.339323E-03
3.942805E+03	1.136111E-01	3.318320E-03
3.952589E+03	1.134616E-01	3.297151E-03
3.962372E+03	1.132980E-01	3.275850E-03
3.972156E+03	1.131200E-01	3.254422E-03
3.981939E+03	1.129275E-01	3.232875E-03
3.991723E+03	1.127202E-01	3.211214E-03
4.001507E+03	1.124990E-01	3.189473E-03
4.011290E+03	1.122626E-01	3.167629E-03
4.021074E+03	1.120107E-01	3.145684E-03
4.030858E+03	1.117450E-01	3.123700E-03
4.040641E+03	1.114635E-01	3.101625E-03
4.050425E+03	1.111664E-01	3.079484E-03
4.060208E+03	1.108539E-01	3.057284E-03
4.069992E+03	1.105252E-01	3.035023E-03
4.079776E+03	1.101805E-01	3.012706E-03
4.089559E+03	1.098189E-01	2.990328E-03
4.099343E+03	1.094404E-01	2.967891E-03
4.109127E+03	1.090444E-01	2.945393E-03
4.118910E+03	1.086306E-01	2.922832E-03
4.128694E+03	1.081985E-01	2.900203E-03
4.138478E+03	1.077468E-01	2.877480E-03
4.148261E+03	1.072748E-01	2.854655E-03
4.158045E+03	1.067831E-01	2.831747E-03
4.167828E+03	1.062712E-01	2.808750E-03
4.177612E+03	1.057363E-01	2.785602E-03
4.187396E+03	1.051792E-01	2.762323E-03
4.197179E+03	1.045990E-01	2.738901E-03
4.206963E+03	1.039950E-01	2.715320E-03
4.216747E+03	1.033666E-01	2.691564E-03
4.226530E+03	1.027121E-01	2.667585E-03
4.236314E+03	1.020328E-01	2.643404E-03
4.246098E+03	1.013260E-01	2.618947E-03
4.255881E+03	1.005929E-01	2.594237E-03
4.265665E+03	9.983294E-02	2.569245E-03
4.275448E+03	9.904613E-02	2.543967E-03
4.285232E+03	9.823180E-02	2.518373E-03
4.295016E+03	9.739019E-02	2.492459E-03
4.304799E+03	9.652202E-02	2.466234E-03
4.314583E+03	9.563099E-02	2.439779E-03
4.324367E+03	9.471897E-02	2.413132E-03
4.334150E+03	9.378779E-02	2.386327E-03
4.343934E+03	9.284085E-02	2.359436E-03
4.353718E+03	9.187973E-02	2.332488E-03
4.363501E+03	9.090674E-02	2.305528E-03
4.373285E+03	8.992492E-02	2.278620E-03
4.383068E+03	8.893467E-02	2.251760E-03
4.392852E+03	8.793877E-02	2.225006E-03
4.402636E+03	8.693905E-02	2.198391E-03
4.412419E+03	8.593645E-02	2.171926E-03
4.422203E+03	8.493258E-02	2.145638E-03
4.431987E+03	8.392898E-02	2.119554E-03
4.441770E+03	8.292708E-02	2.093699E-03
4.451554E+03	8.192822E-02	2.068093E-03
4.461338E+03	8.093290E-02	2.042738E-03
4.471121E+03	7.994154E-02	2.017633E-03
4.480905E+03	7.895679E-02	1.992834E-03
4.490688E+03	7.797820E-02	1.968319E-03
4.500472E+03	7.700603E-02	1.944085E-03
4.510256E+03	7.604197E-02	1.920165E-03
4.520039E+03	7.508691E-02	1.896571E-03
4.529823E+03	7.413954E-02	1.873263E-03
4.539607E+03	7.320280E-02	1.850304E-03
4.549390E+03	7.227464E-02	1.827637E-03
4.559174E+03	7.135721E-02	1.805307E-03
4.568958E+03	7.045050E-02	1.783307E-03
4.578741E+03	6.955450E-02	1.761629E-03
4.588525E+03	6.866917E-02	1.740266E-03
4.598308E+03	6.779448E-02	1.719211E-03
4.608092E+03	6.693170E-02	1.698491E-03
4.617876E+03	6.608007E-02	1.678081E-03
4.627659E+03	6.523953E-02	1.657973E-03
4.637443E+03	6.441063E-02	1.638177E-03
4.647227E+03	6.359199E-02	1.618654E-03
4.657010E+03	6.278542E-02	1.599446E-03
4.666794E+03	6.198894E-02	1.580497E-03
4.676577E+03	6.120370E-02	1.561834E-03
4.686361E+03	6.042959E-02	1.543450E-03
4.696145E+03	5.966529E-02	1.525309E-03
4.705928E+03	5.891135E-02	1.507421E-03
4.715712E+03	5.816825E-02	1.489796E-03
4.725496E+03	5.743474E-02	1.472400E-03
4.735279E+03	5.671132E-02	1.455243E-03
4.745063E+03	5.599792E-02	1.438322E-03
4.754847E+03	5.529391E-02	1.421617E-03
4.764630E+03	5.459922E-02	1.405127E-03
4.774414E+03	5.391437E-02	1.388862E-03
4.784197E+03	5.323875E-02	1.372806E-03
4.793981E+03	5.257286E-02	1.356970E-03
4.803765E+03	5.191558E-02	1.341324E-03
4.813548E+03	5.126742E-02	1.325881E-03
4.823332E+03	5.062837E-02	1.310639E-03
4.833116E+03	4.999789E-02	1.295584E-03
4.842899E+03	4.937648E-02	1.280728E-03
4.852683E+03	4.876364E-02	1.266059E-03
4.862467E+03	4.815988E-02	1.251588E-03
4.872250E+03	4.756470E-02	1.237304E-03
4.882034E+03	4.697815E-02	1.223206E-03
4.891817E+03	4.639974E-02	1.209283E-03
4.901601E+03	4.583049E-02	1.195560E-03
4.911385E+03	4.526948E-02	1.182015E-03
4.921168E+03	4.471678E-02	1.168649E-03
4.930952E+03	4.417290E-02	1.155477E-03
4.940736E+03	4.363744E-02	1.142487E-03
4.950519E+03	4.311047E-02	1.129683E-03
4.960303E+03	4.259208E-02	1.117066E-03
4.970087E+03	4.208235E-02	1.104641E-03
4.979870E+03	4.158092E-02	1.092398E-03
4.989654E+03	4.108792E-02	1.080341E-03
4.999437E+03	4.060385E-02	1.068484E-03
5.009221E+03	4.012799E-02	1.056810E-03
5.019005E+03	3.966130E-02	1.045343E-03
5.028788E+03	3.920265E-02	1.034057E-03
5.038572E+03	3.875300E-02	1.022975E-03
5.048356E+03	3.831207E-02	1.012093E-03
5.058139E+03	3.788002E-02	1.001414E-03
5.067923E+03	3.745696E-02	9.909443E-04
5.077707E+03	3.704269E-02	9.806780E-04
5.087490E+03	3.663735E-02	9.706204E-04
5.097274E+03	3.624073E-02	9.607669E-04
5.107057E+03	3.585375E-02	9.511428E-04
5.116841E+03	3.547548E-02	9.417246E-04
5.126625E+03	3.510647E-02	9.325279E-04
5.136408E+03	3.474691E-02	9.235589E-04
5.146192E+03	3.439697E-02	9.148232E-04
5.155976E+03	3.405617E-02	9.063090E-04
5.165759E+03	3.372505E-02	8.980320E-04
5.175543E+03	3.340350E-02	8.899899E-04
5.185327E+03	3.309174E-02	8.821901E-04
5.195110E+03	3.278965E-02	8.746303E-04
5.204894E+03	3.249782E-02	8.673273E-04
5.214677E+03	3.221582E-02	8.602709E-04
5.224461E+03	3.194394E-02	8.534695E-04
5.234245E+03	3.168211E-02	8.469225E-04
5.244028E+03	3.143094E-02	8.406474E-04
5.253812E+03	3.118976E-02	8.346274E-04
5.263596E+03	3.095922E-02	8.288806E-04
5.273379E+03	3.073933E-02	8.234084E-04
5.283163E+03	3.053010E-02	8.182123E-04
5.292946E+03	3.033099E-02	8.132788E-04
5.302730E+03	3.014206E-02	8.086104E-04
5.312514E+03	2.996343E-02	8.042114E-04
5.322297E+03	2.979401E-02	8.000532E-04
5.332081E+03	2.963394E-02	7.961413E-04
5.341865E+03	2.948248E-02	7.924560E-04
5.351648E+03	2.933946E-02	7.889931E-04
5.361432E+03	2.920616E-02	7.857871E-04
5.371216E+03	2.908270E-02	7.828409E-04
5.380999E+03	2.897015E-02	7.801830E-04
5.390783E+03	2.886825E-02	7.778065E-04
5.400566E+03	2.877755E-02	7.757258E-04
5.410350E+03	2.869715E-02	7.739168E-04
5.420134E+03	2.862704E-02	7.723791E-04
5.429917E+03	2.856669E-02	7.710981E-04
5.439701E+03	2.851643E-02	7.700827E-04
5.449485E+03	2.847548E-02	7.693117E-04
5.459268E+03	2.844364E-02	7.687797E-04
5.469052E+03	2.842047E-02	7.684746E-04
5.478836E+03	2.840611E-02	7.684001E-04
5.488619E+03	2.839987E-02	7.685371E-04
5.498403E+03	2.840164E-02	7.688830E-04
5.508186E+03	2.841136E-02	7.694354E-04
5.517970E+03	2.842865E-02	7.701845E-04
5.527754E+03	2.845348E-02	7.711289E-04
5.537537E+03	2.848523E-02	7.722520E-04
5.547321E+03	2.852390E-02	7.735532E-04
5.557105E+03	2.856948E-02	7.750323E-04
5.566888E+03	2.862169E-02	7.766816E-04
5.576672E+03	2.868028E-02	7.784940E-04
5.586456E+03	2.874498E-02	7.804619E-04
5.596239E+03	2.881615E-02	7.825952E-04
5.606023E+03	2.889294E-02	7.848707E-04
5.615806E+03	2.897576E-02	7.872988E-04
5.625590E+03	2.906438E-02	7.898735E-04
5.635374E+03	2.915827E-02	7.925805E-04
5.645157E+03	2.925756E-02	7.954226E-04
5.654941E+03	2.936236E-02	7.984029E-04
5.664725E+03	2.947217E-02	8.015077E-04
5.674508E+03	2.958682E-02	8.047319E-04
5.684292E+03	2.970676E-02	8.080879E-04
5.694076E+03	2.983119E-02	8.115539E-04
5.703859E+03	2.996026E-02	8.151336E-04
5.713643E+03	3.009381E-02	8.188226E-04
5.723426E+03	3.023169E-02	8.226167E-04
5.733210E+03	3.037408E-02	8.265206E-04
5.742994E+03	3.052016E-02	8.305119E-04
5.752777E+03	3.067046E-02	8.346053E-04
5.762561E+03	3.082449E-02	8.387871E-04
5.772345E+03	3.098211E-02	8.430533E-04
5.782128E+03	3.114318E-02	8.474007E-04
5.791912E+03	3.130756E-02	8.518247E-04
5.801696E+03	3.147547E-02	8.563315E-04
5.811479E+03	3.164605E-02	8.608983E-04
5.821263E+03	3.181916E-02	8.655208E-04
5.831046E+03	3.199504E-02	8.702055E-04
5.840830E+03	3.217353E-02	8.749487E-04
5.850614E+03	3.235376E-02	8.797266E-04
5.860397E+03	3.253633E-02	8.845555E-04
5.870181E+03	3.271997E-02	8.894013E-04
5.879965E+03	3.290567E-02	8.942910E-04
5.889748E+03	3.309211E-02	8.991894E-04
5.899532E+03	3.327916E-02	9.040927E-04
5.909315E+03	3.346704E-02	9.090074E-04
5.919099E+03	3.365519E-02	9.139189E-04
5.928883E+03	3.384344E-02	9.188229E-04
5.938666E+03	3.403081E-02	9.236933E-04
5.948450E+03	3.421794E-02	9.285479E-04
5.958234E+03	3.440341E-02	9.333485E-04
5.968017E+03	3.458784E-02	9.381130E-04
5.977801E+03	3.477062E-02	9.428252E-04
5.987585E+03	3.495112E-02	9.474689E-04
5.997368E+03	3.512914E-02	9.520391E-04
6.007152E+03	3.530486E-02	9.565419E-04
6.016935E+03	3.547766E-02	9.609607E-04
6.026719E+03	3.564727E-02	9.652900E-04
6.036503E+03	3.581438E-02	9.695485E-04
6.046286E+03	3.597786E-02	9.737071E-04
6.056070E+03	3.613790E-02	9.777718E-04
6.065854E+03	3.629474E-02	9.817502E-04
6.075637E+03	3.644860E-02	9.856492E-04
6.085421E+03	3.659878E-02	9.894513E-04
6.095205E+03	3.674504E-02	9.931507E-04
6.104988E+03	3.688758E-02	9.967542E-04
6.114772E+03	3.702569E-02	1.000244E-03
6.124555E+03	3.715955E-02	1.003626E-03
6.134339E+03	3.728891E-02	1.006895E-03
6.144123E+03	3.741399E-02	1.010057E-03
6.153906E+03	3.753450E-02	1.013108E-03
6.163690E+03	3.765017E-02	1.016040E-03
6.173474E+03	3.776121E-02	1.018861E-03
6.183257E+03	3.786785E-02	1.021579E-03
6.193041E+03	3.796930E-02	1.024172E-03
6.202825E+03	3.806576E-02	1.026650E-03
6.212608E+03	3.815748E-02	1.029018E-03
6.222392E+03	3.824362E-02	1.031257E-03
6.232175E+03	3.832497E-02	1.033389E-03
6.241959E+03	3.840121E-02	1.035407E-03
6.251743E+03	3.847207E-02	1.037305E-03
6.261526E+03	3.853725E-02	1.039076E-03
6.271310E+03	3.859755E-02	1.040744E-03
6.281094E+03	3.865215E-02	1.042288E-03
6.290877E+03	3.870189E-02	1.043732E-03
6.300661E+03	3.874652E-02	1.045071E-03
6.310445E+03	3.878578E-02	1.046298E-03
6.320228E+03	3.881999E-02	1.047425E-03
6.330012E+03	3.884894E-02	1.048446E-03
6.339795E+03	3.887301E-02	1.049374E-03
6.349579E+03	3.889086E-02	1.050172E-03
6.359363E+03	3.890354E-02	1.050872E-03
6.369146E+03	3.891095E-02	1.051467E-03
6.378930E+03	3.891243E-02	1.051939E-03
6.388714E+03	3.890850E-02	1.052302E-03
6.398497E+03	3.889909E-02	1.052550E-03
6.408281E+03	3.888413E-02	1.052681E-03
6.418065E+03	3.886355E-02	1.052691E-03
6.427848E+03	3.883791E-02	1.052594E-03
6.437632E+03	3.880659E-02	1.052371E-03
6.447415E+03	3.876956E-02	1.052020E-03
6.457199E+03	3.872748E-02	1.051557E-03
6.466983E+03	3.868037E-02	1.050982E-03
6.476766E+03	3.862765E-02	1.050276E-03
6.486550E+03	3.857001E-02	1.049457E-03
6.496334E+03	3.850689E-02	1.048508E-03
6.506117E+03	3.843969E-02	1.047465E-03
6.515901E+03	3.836720E-02	1.046294E-03
6.525684E+03	3.828954E-02	1.044997E-03
6.535468E+03	3.820751E-02	1.043594E-03
6.545252E+03	3.812123E-02	1.042086E-03
6.555035E+03	3.803020E-02	1.040458E-03
6.564819E+03	3.793457E-02	1.038713E-03
6.574603E+03	3.783518E-02	1.036873E-03
6.584386E+03	3.773152E-02	1.034921E-03
6.594170E+03	3.762445E-02	1.032881E-03
6.603954E+03	3.751283E-02	1.030719E-03
6.613737E+03	3.739817E-02	1.028476E-03
6.623521E+03	3.727933E-02	1.026119E-03
6.633304E+03	3.715785E-02	1.023689E-03
6.643088E+03	3.703257E-02	1.021153E-03
6.652872E+03	3.690440E-02	1.018535E-03
6.662655E+03	3.677351E-02	1.015838E-03
6.672439E+03	3.663943E-02	1.013049E-03
6.682223E+03	3.650306E-02	1.010191E-03
6.692006E+03	3.636391E-02	1.007250E-03
6.701790E+03	3.622287E-02	1.004249E-03
6.711574E+03	3.607878E-02	1.001156E-03
6.721357E+03	3.593318E-02	9.980114E-04
6.731141E+03	3.578560E-02	9.948027E-04
6.740924E+03	3.563623E-02	9.915338E-04
6.750708E+03	3.548458E-02	9.881906E-04
6.760492E+03	3.533217E-02	9.848149E-04
6.770275E+03	3.517719E-02	9.813550E-04
6.780059E+03	3.502180E-02	9.778714E-04
6.789843E+03	3.486484E-02	9.743307E-04
6.799626E+03	3.470646E-02	9.707370E-04
6.809410E+03	3.454749E-02	9.671127E-04
6.819194E+03	3.438743E-02	9.634437E-04
6.828977E+03	3.422641E-02	9.597331E-04
6.838761E+03	3.406458E-02	9.559851E-04
6.848544E+03	3.390208E-02	9.522030E-04
6.858328E+03	3.373902E-02	9.483900E-04
6.868112E+03	3.357488E-02	9.445310E-04
6.877895E+03	3.341109E-02	9.406665E-04
6.887679E+03	3.324578E-02	9.367436E-04
6.897463E+03	3.308106E-02	9.328213E-04
6.907246E+03	3.291503E-02	9.288465E-04
6.917030E+03	3.274911E-02	9.248592E-04
6.926814E+03	3.258275E-02	9.208439E-04
6.936597E+03	3.241604E-02	9.168029E-04
6.946381E+03	3.224971E-02	9.127573E-04
6.956164E+03	3.208254E-02	9.086726E-04
6.965948E+03	3.191529E-02	9.045702E-04
6.975732E+03	3.174735E-02	9.004336E-04
6.985515E+03	3.157947E-02	8.962841E-04
6.995299E+03	3.141172E-02	8.921234E-04
7.005083E+03	3.124354E-02	8.879364E-04
7.014866E+03	3.107560E-02	8.837426E-04
7.024650E+03	3.090676E-02	8.795094E-04
7.034434E+03	3.073832E-02	8.752744E-04
7.044217E+03	3.056972E-02	8.710220E-04
7.054001E+03	3.040042E-02	8.667372E-04
7.063784E+03	3.023112E-02	8.624404E-04
7.073568E+03	3.006187E-02	8.581336E-04
7.083352E+03	2.989215E-02	8.538020E-04
7.093135E+03	2.972203E-02	8.494484E-04
7.102919E+03	2.955158E-02	8.450755E-04
7.112703E+03	2.938090E-02	8.406861E-04
7.122486E+03	2.921005E-02	8.362828E-04
7.132270E+03	2.903791E-02	8.318339E-04
7.142053E+03	2.886579E-02	8.273776E-04
7.151837E+03	2.869318E-02	8.228997E-04
7.161621E+03	2.851954E-02	8.183856E-04
7.171404E+03	2.834560E-02	8.138565E-04
7.181188E+03	2.817026E-02	8.092815E-04
7.190972E+03	2.799363E-02	8.046644E-04
7.200755E+03	2.781581E-02	8.000086E-04
7.210539E+03	2.763634E-02	7.953015E-04
7.220323E+03	2.745592E-02	7.905638E-04
7.230106E+03	2.727291E-02	7.857490E-04
7.239890E+03	2.708862E-02	7.808951E-04
7.249673E+03	2.690200E-02	7.759728E-04
7.259457E+03	2.671376E-02	7.710032E-04
7.269241E+03	2.652346E-02	7.659736E-04
7.279024E+03	2.633123E-02	7.608887E-04
7.288808E+03	2.613775E-02	7.557691E-04
7.298592E+03	2.594258E-02	7.506022E-04
7.308375E+03	2.574751E-02	7.454403E-04
7.318159E+03	2.555154E-02	7.402556E-04
7.327943E+03	2.535586E-02	7.350830E-04
7.337726E+03	2.516004E-02	7.299105E-04
7.347510E+03	2.496578E-02	7.247885E-04
7.357293E+03	2.477264E-02	7.197045E-04
7.367077E+03	2.458067E-02	7.146610E-04
7.376861E+03	2.439050E-02	7.096770E-04
7.386644E+03	2.420217E-02	7.047544E-04
7.396428E+03	2.401683E-02	6.999270E-04
7.406212E+03	2.383344E-02	6.951659E-04
7.415995E+03	2.365259E-02	6.904890E-04
7.425779E+03	2.347486E-02	6.859137E-04
7.435563E+03	2.329975E-02	6.814265E-04
7.445346E+03	2.312782E-02	6.770443E-04
7.455130E+03	2.295858E-02	6.727539E-04
7.464913E+03	2.279311E-02	6.685875E-04
7.474697E+03	2.263038E-02	6.645161E-04
7.484481E+03	2.247147E-02	6.605718E-04
7.494264E+03	2.231536E-02	6.567257E-04
7.504048E+03	2.216309E-02	6.530093E-04
7.513832E+03	2.201366E-02	6.493940E-04
7.523615E+03	2.186811E-02	6.459112E-04
7.533399E+03	2.172593E-02	6.425470E-04
7.543183E+03	2.158714E-02	6.393027E-04
7.552966E+03	2.145175E-02	6.361796E-04
7.562750E+03	2.131976E-02	6.331785E-04
7.572533E+03	2.119120E-02	6.303011E-04
7.582317E+03	2.106554E-02	6.275329E-04
7.592101E+03	2.094380E-02	6.249050E-04
