#wls	flux	fluxerr
1.565382E+03	2.262270E-02	3.671556E-04
1.604516E+03	2.326353E-02	3.770099E-04
1.643651E+03	2.393132E-02	3.872564E-04
1.682785E+03	2.462621E-02	3.978936E-04
1.721920E+03	2.535510E-02	4.090297E-04
1.761054E+03	2.611821E-02	4.206639E-04
1.800189E+03	2.691919E-02	4.328504E-04
1.839323E+03	2.775813E-02	4.455857E-04
1.878458E+03	2.864593E-02	4.590396E-04
1.917592E+03	2.957903E-02	4.731491E-04
1.956727E+03	3.057229E-02	4.881450E-04
1.995862E+03	3.162964E-02	5.040826E-04
2.034996E+03	3.275874E-02	5.210754E-04
2.074131E+03	3.396725E-02	5.392356E-04
2.113265E+03	3.526276E-02	5.586729E-04
2.152400E+03	3.666466E-02	5.796826E-04
2.191534E+03	3.818049E-02	6.023694E-04
2.230669E+03	3.981321E-02	6.267649E-04
2.269803E+03	4.158571E-02	6.532123E-04
2.308938E+03	4.349162E-02	6.815928E-04
2.348072E+03	4.554417E-02	7.120938E-04
2.387207E+03	4.773894E-02	7.446251E-04
2.426341E+03	5.007427E-02	7.791393E-04
2.465476E+03	5.255124E-02	8.156308E-04
2.504611E+03	5.516077E-02	8.539361E-04
2.543745E+03	5.790477E-02	8.940618E-04
2.582880E+03	6.077461E-02	9.358514E-04
2.622014E+03	6.375528E-02	9.790512E-04
2.661149E+03	6.684650E-02	1.023635E-03
2.700283E+03	7.002425E-02	1.069212E-03
2.739418E+03	7.328323E-02	1.115684E-03
2.778552E+03	7.660265E-02	1.162714E-03
2.817687E+03	7.995903E-02	1.209929E-03
2.856821E+03	8.333445E-02	1.257046E-03
2.895956E+03	8.672010E-02	1.303920E-03
2.935090E+03	9.012339E-02	1.350651E-03
2.944874E+03	9.098092E-02	1.362370E-03
2.954658E+03	9.183782E-02	1.374052E-03
2.964441E+03	9.269721E-02	1.385746E-03
2.974225E+03	9.355835E-02	1.397438E-03
2.984009E+03	9.442453E-02	1.409179E-03
2.993792E+03	9.529467E-02	1.420952E-03
3.003576E+03	9.616428E-02	1.432690E-03
3.013360E+03	9.704006E-02	1.444491E-03
3.023143E+03	9.791735E-02	1.456288E-03
3.032927E+03	9.879914E-02	1.468123E-03
3.042710E+03	9.968423E-02	1.479979E-03
3.052494E+03	1.005757E-01	1.491901E-03
3.062278E+03	1.014684E-01	1.503813E-03
3.072061E+03	1.023691E-01	1.515814E-03
3.081845E+03	1.032691E-01	1.527774E-03
3.091629E+03	1.041783E-01	1.539843E-03
3.101412E+03	1.050919E-01	1.551946E-03
3.111196E+03	1.060088E-01	1.564067E-03
3.120980E+03	1.069312E-01	1.576239E-03
3.130763E+03	1.078614E-01	1.588496E-03
3.140547E+03	1.087946E-01	1.600765E-03
3.150330E+03	1.097329E-01	1.613078E-03
3.160114E+03	1.106748E-01	1.625413E-03
3.169898E+03	1.116258E-01	1.637850E-03
3.179681E+03	1.125811E-01	1.650316E-03
3.189465E+03	1.135388E-01	1.662787E-03
3.199249E+03	1.145044E-01	1.675341E-03
3.209032E+03	1.154726E-01	1.687899E-03
3.218816E+03	1.164453E-01	1.700490E-03
3.228600E+03	1.174205E-01	1.713084E-03
3.238383E+03	1.184000E-01	1.725705E-03
3.248167E+03	1.193816E-01	1.738326E-03
3.257950E+03	1.203668E-01	1.750964E-03
3.267734E+03	1.213505E-01	1.763545E-03
3.277518E+03	1.223371E-01	1.776135E-03
3.287301E+03	1.233214E-01	1.788657E-03
3.297085E+03	1.243047E-01	1.801128E-03
3.306869E+03	1.252847E-01	1.813518E-03
3.316652E+03	1.262565E-01	1.825755E-03
3.326436E+03	1.272242E-01	1.837897E-03
3.336220E+03	1.281798E-01	1.849830E-03
3.346003E+03	1.291273E-01	1.861611E-03
3.355787E+03	1.300589E-01	1.873130E-03
3.365570E+03	1.309760E-01	1.884405E-03
3.375354E+03	1.318708E-01	1.895327E-03
3.385138E+03	1.327450E-01	1.905920E-03
3.394921E+03	1.335942E-01	1.916121E-03
3.404705E+03	1.344118E-01	1.925837E-03
3.414489E+03	1.351969E-01	1.935058E-03
3.424272E+03	1.359433E-01	1.943695E-03
3.434056E+03	1.366457E-01	1.951674E-03
3.443839E+03	1.373039E-01	1.958994E-03
3.453623E+03	1.379105E-01	1.965554E-03
3.463407E+03	1.384665E-01	1.971367E-03
3.473190E+03	1.389629E-01	1.976308E-03
3.482974E+03	1.394036E-01	1.980439E-03
3.492758E+03	1.397811E-01	1.983650E-03
3.502541E+03	1.400955E-01	1.985950E-03
3.512325E+03	1.403451E-01	1.987315E-03
3.522109E+03	1.405262E-01	1.987698E-03
3.531892E+03	1.406363E-01	1.987065E-03
3.541676E+03	1.406797E-01	1.985481E-03
3.551459E+03	1.406592E-01	1.982989E-03
3.561243E+03	1.405801E-01	1.979665E-03
3.571027E+03	1.404475E-01	1.975586E-03
3.580810E+03	1.402670E-01	1.970832E-03
3.590594E+03	1.400442E-01	1.965484E-03
3.600378E+03	1.397847E-01	1.959621E-03
3.610161E+03	1.394960E-01	1.953353E-03
3.619945E+03	1.391837E-01	1.946759E-03
3.629729E+03	1.388510E-01	1.939882E-03
3.639512E+03	1.385051E-01	1.932827E-03
3.649296E+03	1.381506E-01	1.925658E-03
3.659079E+03	1.377904E-01	1.918415E-03
3.668863E+03	1.374323E-01	1.911208E-03
3.678647E+03	1.370764E-01	1.904037E-03
3.688430E+03	1.367279E-01	1.896974E-03
3.698214E+03	1.363895E-01	1.890058E-03
3.707998E+03	1.360619E-01	1.883297E-03
3.717781E+03	1.357504E-01	1.876765E-03
3.727565E+03	1.354527E-01	1.870430E-03
3.737349E+03	1.351735E-01	1.864352E-03
3.747132E+03	1.349094E-01	1.858488E-03
3.756916E+03	1.346622E-01	1.852861E-03
3.766699E+03	1.344315E-01	1.847464E-03
3.776483E+03	1.342182E-01	1.842308E-03
3.786267E+03	1.340180E-01	1.837335E-03
3.796050E+03	1.338327E-01	1.832569E-03
3.805834E+03	1.336579E-01	1.827948E-03
3.815618E+03	1.334951E-01	1.823491E-03
3.825401E+03	1.333424E-01	1.819176E-03
3.835185E+03	1.331951E-01	1.814933E-03
3.844969E+03	1.330557E-01	1.810800E-03
3.854752E+03	1.329194E-01	1.806710E-03
3.864536E+03	1.327841E-01	1.802634E-03
3.874319E+03	1.326508E-01	1.798585E-03
3.884103E+03	1.325143E-01	1.794495E-03
3.893887E+03	1.323740E-01	1.790355E-03
3.903670E+03	1.322291E-01	1.786154E-03
3.913454E+03	1.320746E-01	1.781824E-03
3.923238E+03	1.319107E-01	1.777371E-03
3.933021E+03	1.317351E-01	1.772763E-03
3.942805E+03	1.315426E-01	1.767930E-03
3.952589E+03	1.313348E-01	1.762896E-03
3.962372E+03	1.311064E-01	1.757590E-03
3.972156E+03	1.308549E-01	1.751979E-03
3.981939E+03	1.305806E-01	1.746071E-03
3.991723E+03	1.302786E-01	1.739800E-03
4.001507E+03	1.299479E-01	1.733153E-03
4.011290E+03	1.295867E-01	1.726110E-03
4.021074E+03	1.291930E-01	1.718645E-03
4.030858E+03	1.287655E-01	1.710741E-03
4.040641E+03	1.283029E-01	1.702385E-03
4.050425E+03	1.278029E-01	1.693549E-03
4.060208E+03	1.272664E-01	1.684244E-03
4.069992E+03	1.266917E-01	1.674452E-03
4.079776E+03	1.260802E-01	1.664193E-03
4.089559E+03	1.254298E-01	1.653441E-03
4.099343E+03	1.247426E-01	1.642225E-03
4.109127E+03	1.240196E-01	1.630563E-03
4.118910E+03	1.232601E-01	1.618445E-03
4.128694E+03	1.224660E-01	1.605898E-03
4.138478E+03	1.216399E-01	1.592960E-03
4.148261E+03	1.207821E-01	1.579635E-03
4.158045E+03	1.198962E-01	1.565973E-03
4.167828E+03	1.189850E-01	1.552010E-03
4.177612E+03	1.180515E-01	1.537788E-03
4.187396E+03	1.170984E-01	1.523345E-03
4.197179E+03	1.161298E-01	1.508734E-03
4.206963E+03	1.151492E-01	1.494000E-03
4.216747E+03	1.141626E-01	1.479223E-03
4.226530E+03	1.131719E-01	1.464427E-03
4.236314E+03	1.121834E-01	1.449695E-03
4.246098E+03	1.112002E-01	1.435067E-03
4.255881E+03	1.102278E-01	1.420612E-03
4.265665E+03	1.092720E-01	1.406406E-03
4.275448E+03	1.083365E-01	1.392493E-03
4.285232E+03	1.074273E-01	1.378951E-03
4.295016E+03	1.065501E-01	1.365853E-03
4.304799E+03	1.057092E-01	1.353248E-03
4.314583E+03	1.049054E-01	1.341148E-03
4.324367E+03	1.041371E-01	1.329530E-03
4.334150E+03	1.034047E-01	1.318395E-03
4.343934E+03	1.027088E-01	1.307751E-03
4.353718E+03	1.020478E-01	1.297576E-03
4.363501E+03	1.014211E-01	1.287858E-03
4.373285E+03	1.008283E-01	1.278592E-03
4.383068E+03	1.002704E-01	1.269788E-03
4.392852E+03	9.974588E-02	1.261427E-03
4.402636E+03	9.925452E-02	1.253502E-03
4.412419E+03	9.879822E-02	1.246036E-03
4.422203E+03	9.837616E-02	1.239017E-03
4.431987E+03	9.798769E-02	1.232435E-03
4.441770E+03	9.763422E-02	1.226306E-03
4.451554E+03	9.731398E-02	1.220605E-03
4.461338E+03	9.702821E-02	1.215348E-03
4.471121E+03	9.677584E-02	1.210518E-03
4.480905E+03	9.655481E-02	1.206088E-03
4.490688E+03	9.636359E-02	1.202037E-03
4.500472E+03	9.620232E-02	1.198365E-03
4.510256E+03	9.606702E-02	1.195022E-03
4.520039E+03	9.595545E-02	1.191978E-03
4.529823E+03	9.586494E-02	1.189200E-03
4.539607E+03	9.579273E-02	1.186650E-03
4.549390E+03	9.573491E-02	1.184281E-03
4.559174E+03	9.568747E-02	1.182041E-03
4.568958E+03	9.564727E-02	1.179893E-03
4.578741E+03	9.561022E-02	1.177784E-03
4.588525E+03	9.557079E-02	1.175647E-03
4.598308E+03	9.552679E-02	1.173455E-03
4.608092E+03	9.547311E-02	1.171145E-03
4.617876E+03	9.540650E-02	1.168679E-03
4.627659E+03	9.532499E-02	1.166032E-03
4.637443E+03	9.522688E-02	1.163185E-03
4.647227E+03	9.511108E-02	1.160125E-03
4.657010E+03	9.497588E-02	1.156833E-03
4.666794E+03	9.482256E-02	1.153325E-03
4.676577E+03	9.465117E-02	1.149603E-03
4.686361E+03	9.446193E-02	1.145670E-03
4.696145E+03	9.425719E-02	1.141555E-03
4.705928E+03	9.403681E-02	1.137258E-03
4.715712E+03	9.380270E-02	1.132803E-03
4.725496E+03	9.355756E-02	1.128224E-03
4.735279E+03	9.330181E-02	1.123524E-03
4.745063E+03	9.303745E-02	1.118731E-03
4.754847E+03	9.276569E-02	1.113857E-03
4.764630E+03	9.248829E-02	1.108925E-03
4.774414E+03	9.220734E-02	1.103961E-03
4.784197E+03	9.192372E-02	1.098975E-03
4.793981E+03	9.163715E-02	1.093963E-03
4.803765E+03	9.135028E-02	1.088958E-03
4.813548E+03	9.106363E-02	1.083966E-03
4.823332E+03	9.077685E-02	1.078983E-03
4.833116E+03	9.049204E-02	1.074034E-03
4.842899E+03	9.020788E-02	1.069102E-03
4.852683E+03	8.992676E-02	1.064217E-03
4.862467E+03	8.964896E-02	1.059382E-03
4.872250E+03	8.937330E-02	1.054582E-03
4.882034E+03	8.910309E-02	1.049856E-03
4.891817E+03	8.883726E-02	1.045193E-03
4.901601E+03	8.857748E-02	1.040610E-03
4.911385E+03	8.832463E-02	1.036119E-03
4.921168E+03	8.807882E-02	1.031720E-03
4.930952E+03	8.784185E-02	1.027435E-03
4.940736E+03	8.761472E-02	1.023273E-03
4.950519E+03	8.739751E-02	1.019237E-03
4.960303E+03	8.719194E-02	1.015344E-03
4.970087E+03	8.699795E-02	1.011595E-03
4.979870E+03	8.681706E-02	1.008007E-03
4.989654E+03	8.664983E-02	1.004585E-03
4.999437E+03	8.649503E-02	1.001314E-03
5.009221E+03	8.635557E-02	9.982279E-04
5.019005E+03	8.622922E-02	9.953000E-04
5.028788E+03	8.611711E-02	9.925425E-04
5.038572E+03	8.601945E-02	9.899576E-04
5.048356E+03	8.593737E-02	9.875574E-04
5.058139E+03	8.586946E-02	9.853251E-04
5.067923E+03	8.581601E-02	9.832635E-04
5.077707E+03	8.577900E-02	9.813945E-04
5.087490E+03	8.575621E-02	9.796922E-04
5.097274E+03	8.574956E-02	9.781779E-04
5.107057E+03	8.575836E-02	9.768430E-04
5.116841E+03	8.578265E-02	9.756873E-04
5.126625E+03	8.582225E-02	9.747082E-04
5.136408E+03	8.587596E-02	9.738915E-04
5.146192E+03	8.594395E-02	9.732386E-04
5.155976E+03	8.602449E-02	9.727292E-04
5.165759E+03	8.611718E-02	9.723586E-04
5.175543E+03	8.621882E-02	9.720900E-04
5.185327E+03	8.632844E-02	9.719125E-04
5.195110E+03	8.644396E-02	9.718024E-04
5.204894E+03	8.656220E-02	9.717239E-04
5.214677E+03	8.668062E-02	9.716486E-04
5.224461E+03	8.679737E-02	9.715560E-04
5.234245E+03	8.690797E-02	9.713964E-04
5.244028E+03	8.700959E-02	9.711385E-04
5.253812E+03	8.710034E-02	9.707621E-04
5.263596E+03	8.717758E-02	9.702384E-04
5.273379E+03	8.723720E-02	9.695227E-04
5.283163E+03	8.727800E-02	9.686026E-04
5.292946E+03	8.729747E-02	9.674515E-04
5.302730E+03	8.729537E-02	9.660680E-04
5.312514E+03	8.726945E-02	9.644283E-04
5.322297E+03	8.722072E-02	9.625450E-04
5.332081E+03	8.714916E-02	9.604191E-04
5.341865E+03	8.705540E-02	9.580588E-04
5.351648E+03	8.694153E-02	9.554882E-04
5.361432E+03	8.680914E-02	9.527257E-04
5.371216E+03	8.666086E-02	9.498012E-04
5.380999E+03	8.649936E-02	9.467445E-04
5.390783E+03	8.632412E-02	9.435506E-04
5.400566E+03	8.613409E-02	9.402087E-04
5.410350E+03	8.592906E-02	9.367173E-04
5.420134E+03	8.570630E-02	9.330473E-04
5.429917E+03	8.546679E-02	9.292102E-04
5.439701E+03	8.520993E-02	9.252002E-04
5.449485E+03	8.493454E-02	9.210053E-04
5.459268E+03	8.464134E-02	9.166341E-04
5.469052E+03	8.432952E-02	9.120786E-04
5.478836E+03	8.400018E-02	9.073518E-04
5.488619E+03	8.365378E-02	9.024589E-04
5.498403E+03	8.329091E-02	8.974074E-04
5.508186E+03	8.291239E-02	8.922066E-04
5.517970E+03	8.251837E-02	8.868588E-04
5.527754E+03	8.211171E-02	8.813953E-04
5.537537E+03	8.169289E-02	8.758220E-04
5.547321E+03	8.126337E-02	8.701546E-04
5.557105E+03	8.082553E-02	8.644193E-04
5.566888E+03	8.038012E-02	8.586242E-04
5.576672E+03	7.992870E-02	8.527865E-04
5.586456E+03	7.947449E-02	8.469406E-04
5.596239E+03	7.901724E-02	8.410837E-04
5.606023E+03	7.855825E-02	8.352301E-04
5.615806E+03	7.810037E-02	8.294099E-04
5.625590E+03	7.764377E-02	8.236250E-04
5.635374E+03	7.718931E-02	8.178842E-04
5.645157E+03	7.673855E-02	8.122042E-04
5.654941E+03	7.629045E-02	8.065738E-04
5.664725E+03	7.584800E-02	8.010244E-04
5.674508E+03	7.541004E-02	7.955435E-04
5.684292E+03	7.497703E-02	7.901359E-04
5.694076E+03	7.455105E-02	7.848234E-04
5.703859E+03	7.413175E-02	7.796018E-04
5.713643E+03	7.371968E-02	7.744769E-04
5.723426E+03	7.331541E-02	7.694546E-04
5.733210E+03	7.292041E-02	7.645496E-04
5.742994E+03	7.253535E-02	7.597690E-04
5.752777E+03	7.216014E-02	7.551116E-04
5.762561E+03	7.179631E-02	7.505928E-04
5.772345E+03	7.144532E-02	7.462277E-04
5.782128E+03	7.110693E-02	7.420137E-04
5.791912E+03	7.078163E-02	7.379551E-04
5.801696E+03	7.047044E-02	7.340626E-04
5.811479E+03	7.017266E-02	7.303282E-04
5.821263E+03	6.988963E-02	7.267659E-04
5.831046E+03	6.962008E-02	7.233621E-04
5.840830E+03	6.936325E-02	7.201083E-04
5.850614E+03	6.911807E-02	7.169936E-04
5.860397E+03	6.888404E-02	7.140123E-04
5.870181E+03	6.865963E-02	7.111486E-04
5.879965E+03	6.844238E-02	7.083766E-04
5.889748E+03	6.823208E-02	7.056944E-04
5.899532E+03	6.802531E-02	7.030663E-04
5.909315E+03	6.782184E-02	7.004902E-04
5.919099E+03	6.761836E-02	6.979319E-04
5.928883E+03	6.741489E-02	6.953915E-04
5.938666E+03	6.720921E-02	6.928466E-04
5.948450E+03	6.700017E-02	6.902852E-04
5.958234E+03	6.678758E-02	6.877056E-04
5.968017E+03	6.656996E-02	6.850927E-04
5.977801E+03	6.634762E-02	6.824500E-04
5.987585E+03	6.612113E-02	6.797833E-04
5.997368E+03	6.588886E-02	6.770761E-04
6.007152E+03	6.565332E-02	6.743543E-04
6.016935E+03	6.541481E-02	6.716213E-04
6.026719E+03	6.517455E-02	6.688894E-04
6.036503E+03	6.493302E-02	6.661639E-04
6.046286E+03	6.468999E-02	6.634423E-04
6.056070E+03	6.444689E-02	6.607394E-04
6.065854E+03	6.420277E-02	6.580455E-04
6.075637E+03	6.395833E-02	6.553680E-04
6.085421E+03	6.371271E-02	6.526979E-04
6.095205E+03	6.346831E-02	6.500598E-04
6.104988E+03	6.322515E-02	6.474542E-04
6.114772E+03	6.298414E-02	6.448902E-04
6.124555E+03	6.274623E-02	6.423778E-04
6.134339E+03	6.251249E-02	6.399277E-04
6.144123E+03	6.228484E-02	6.375598E-04
6.153906E+03	6.206290E-02	6.352701E-04
6.163690E+03	6.185038E-02	6.330965E-04
6.173474E+03	6.164704E-02	6.310369E-04
6.183257E+03	6.145510E-02	6.291138E-04
6.193041E+03	6.127602E-02	6.273425E-04
6.202825E+03	6.111125E-02	6.257377E-04
6.212608E+03	6.096222E-02	6.243142E-04
6.222392E+03	6.083108E-02	6.230942E-04
6.232175E+03	6.071823E-02	6.220822E-04
6.241959E+03	6.062638E-02	6.213060E-04
6.251743E+03	6.055470E-02	6.207575E-04
6.261526E+03	6.050461E-02	6.204515E-04
6.271310E+03	6.047635E-02	6.203910E-04
6.281094E+03	6.046981E-02	6.205750E-04
6.290877E+03	6.048533E-02	6.210070E-04
6.300661E+03	6.051954E-02	6.216525E-04
6.310445E+03	6.057358E-02	6.225231E-04
6.320228E+03	6.064317E-02	6.235751E-04
6.330012E+03	6.072612E-02	6.247857E-04
6.339795E+03	6.081980E-02	6.261281E-04
6.349579E+03	6.092127E-02	6.275720E-04
6.359363E+03	6.102643E-02	6.290750E-04
6.369146E+03	6.113092E-02	6.305920E-04
6.378930E+03	6.123109E-02	6.320853E-04
6.388714E+03	6.132415E-02	6.335256E-04
6.398497E+03	6.140506E-02	6.348605E-04
6.408281E+03	6.147288E-02	6.360797E-04
6.418065E+03	6.152251E-02	6.371300E-04
6.427848E+03	6.155348E-02	6.380056E-04
6.437632E+03	6.156378E-02	6.386849E-04
6.447415E+03	6.155080E-02	6.391399E-04
6.457199E+03	6.151310E-02	6.393549E-04
6.466983E+03	6.145046E-02	6.393264E-04
6.476766E+03	6.136116E-02	6.390353E-04
6.486550E+03	6.124558E-02	6.384845E-04
6.496334E+03	6.110260E-02	6.376611E-04
6.506117E+03	6.093409E-02	6.365832E-04
6.515901E+03	6.073857E-02	6.352342E-04
6.525684E+03	6.051755E-02	6.336285E-04
6.535468E+03	6.027185E-02	6.317735E-04
6.545252E+03	6.000255E-02	6.296789E-04
6.555035E+03	5.971179E-02	6.273662E-04
6.564819E+03	5.939925E-02	6.248305E-04
6.574603E+03	5.906830E-02	6.221062E-04
6.584386E+03	5.872072E-02	6.192107E-04
6.594170E+03	5.835746E-02	6.161530E-04
6.603954E+03	5.798134E-02	6.129619E-04
6.613737E+03	5.759345E-02	6.096477E-04
6.623521E+03	5.719670E-02	6.062404E-04
6.633304E+03	5.679306E-02	6.027602E-04
6.643088E+03	5.638449E-02	5.992269E-04
6.652872E+03	5.597285E-02	5.956597E-04
6.662655E+03	5.555905E-02	5.920678E-04
6.672439E+03	5.514649E-02	5.884869E-04
6.682223E+03	5.473583E-02	5.849236E-04
6.692006E+03	5.432846E-02	5.813925E-04
6.701790E+03	5.392476E-02	5.778973E-04
6.711574E+03	5.352840E-02	5.744772E-04
6.721357E+03	5.313772E-02	5.711143E-04
6.731141E+03	5.275522E-02	5.678355E-04
6.740924E+03	5.237982E-02	5.646289E-04
6.750708E+03	5.201370E-02	5.615182E-04
6.760492E+03	5.165723E-02	5.585076E-04
6.770275E+03	5.130894E-02	5.555810E-04
6.780059E+03	5.097063E-02	5.527582E-04
6.789843E+03	5.064233E-02	5.500396E-04
6.799626E+03	5.032226E-02	5.474061E-04
6.809410E+03	5.001197E-02	5.448748E-04
6.819194E+03	4.971125E-02	5.424434E-04
6.828977E+03	4.941900E-02	5.401001E-04
6.838761E+03	4.913490E-02	5.378418E-04
6.848544E+03	4.885863E-02	5.356650E-04
6.858328E+03	4.859068E-02	5.335752E-04
6.868112E+03	4.832987E-02	5.315596E-04
6.877895E+03	4.807666E-02	5.296235E-04
6.887679E+03	4.782987E-02	5.277540E-04
6.897463E+03	4.758997E-02	5.259564E-04
6.907246E+03	4.735579E-02	5.242180E-04
6.917030E+03	4.712699E-02	5.225351E-04
6.926814E+03	4.690408E-02	5.209134E-04
6.936597E+03	4.668593E-02	5.193404E-04
6.946381E+03	4.647303E-02	5.178218E-04
6.956164E+03	4.626424E-02	5.163450E-04
6.965948E+03	4.606012E-02	5.149160E-04
6.975732E+03	4.586033E-02	5.135314E-04
6.985515E+03	4.566373E-02	5.121783E-04
6.995299E+03	4.546999E-02	5.108533E-04
7.005083E+03	4.528047E-02	5.095713E-04
7.014866E+03	4.509231E-02	5.083004E-04
7.024650E+03	4.490768E-02	5.070651E-04
7.034434E+03	4.472538E-02	5.058518E-04
7.044217E+03	4.454424E-02	5.046471E-04
7.054001E+03	4.436558E-02	5.034659E-04
7.063784E+03	4.418735E-02	5.022852E-04
7.073568E+03	4.401092E-02	5.011203E-04
7.083352E+03	4.383511E-02	4.999578E-04
7.093135E+03	4.366048E-02	4.988040E-04
7.102919E+03	4.348591E-02	4.976460E-04
7.112703E+03	4.331201E-02	4.964906E-04
7.122486E+03	4.313857E-02	4.953355E-04
7.132270E+03	4.296628E-02	4.941883E-04
7.142053E+03	4.279413E-02	4.930377E-04
7.151837E+03	4.262292E-02	4.918926E-04
7.161621E+03	4.245257E-02	4.907520E-04
7.171404E+03	4.228306E-02	4.896159E-04
7.181188E+03	4.211529E-02	4.884943E-04
7.190972E+03	4.195017E-02	4.873981E-04
7.200755E+03	4.178693E-02	4.863183E-04
7.210539E+03	4.162657E-02	4.852666E-04
7.220323E+03	4.146924E-02	4.842450E-04
7.230106E+03	4.131599E-02	4.832655E-04
7.239890E+03	4.116702E-02	4.823309E-04
7.249673E+03	4.102257E-02	4.814442E-04
7.259457E+03	4.088201E-02	4.805981E-04
7.269241E+03	4.074732E-02	4.798162E-04
7.279024E+03	4.061703E-02	4.790813E-04
7.288808E+03	4.049139E-02	4.783966E-04
7.298592E+03	4.037150E-02	4.777753E-04
7.308375E+03	4.025673E-02	4.772104E-04
7.318159E+03	4.014642E-02	4.766942E-04
7.327943E+03	4.004078E-02	4.762294E-04
7.337726E+03	3.993909E-02	4.758076E-04
7.347510E+03	3.984233E-02	4.754408E-04
7.357293E+03	3.974888E-02	4.751098E-04
7.367077E+03	3.965965E-02	4.748257E-04
7.376861E+03	3.957467E-02	4.745890E-04
7.386644E+03	3.949218E-02	4.743788E-04
7.396428E+03	3.941215E-02	4.741950E-04
7.406212E+03	3.933535E-02	4.740468E-04
7.415995E+03	3.926168E-02	4.739331E-04
7.425779E+03	3.918928E-02	4.738318E-04
7.435563E+03	3.911887E-02	4.737514E-04
7.445346E+03	3.905029E-02	4.736904E-04
7.455130E+03	3.898338E-02	4.736466E-04
7.464913E+03	3.891800E-02	4.736185E-04
7.474697E+03	3.885313E-02	4.735936E-04
7.484481E+03	3.878951E-02	4.735812E-04
7.494264E+03	3.872617E-02	4.735693E-04
7.504048E+03	3.866306E-02	4.735574E-04
7.513832E+03	3.860100E-02	4.735555E-04
7.523615E+03	3.854003E-02	4.735640E-04
7.533399E+03	3.847931E-02	4.735728E-04
7.543183E+03	3.841895E-02	4.735832E-04
7.552966E+03	3.835997E-02	4.736077E-04
7.562750E+03	3.830255E-02	4.736487E-04
7.572533E+03	3.824602E-02	4.736981E-04
7.582317E+03	3.819062E-02	4.737587E-04
7.592101E+03	3.813748E-02	4.738446E-04
