#wls	flux	fluxerr
1.565382E+03	1.253729E-02	3.646488E-04
1.604516E+03	1.284484E-02	3.731418E-04
1.643651E+03	1.316204E-02	3.818814E-04
1.682785E+03	1.348875E-02	3.908615E-04
1.721920E+03	1.382477E-02	4.000741E-04
1.761054E+03	1.417242E-02	4.095843E-04
1.800189E+03	1.452888E-02	4.193080E-04
1.839323E+03	1.489373E-02	4.292309E-04
1.878458E+03	1.527193E-02	4.394929E-04
1.917592E+03	1.566037E-02	4.500021E-04
1.956727E+03	1.605848E-02	4.607389E-04
1.995862E+03	1.646843E-02	4.717632E-04
2.034996E+03	1.688954E-02	4.830518E-04
2.074131E+03	1.732396E-02	4.946632E-04
2.113265E+03	1.776471E-02	5.063950E-04
2.152400E+03	1.821974E-02	5.184706E-04
2.191534E+03	1.868480E-02	5.307651E-04
2.230669E+03	1.915840E-02	5.432329E-04
2.269803E+03	1.964205E-02	5.559137E-04
2.308938E+03	2.013719E-02	5.688442E-04
2.348072E+03	2.064181E-02	5.819641E-04
2.387207E+03	2.115694E-02	5.952984E-04
2.426341E+03	2.167672E-02	6.086785E-04
2.465476E+03	2.220835E-02	6.223034E-04
2.504611E+03	2.274539E-02	6.359881E-04
2.543745E+03	2.328777E-02	6.497273E-04
2.582880E+03	2.383510E-02	6.635072E-04
2.622014E+03	2.439012E-02	6.773998E-04
2.661149E+03	2.494831E-02	6.912764E-04
2.700283E+03	2.550819E-02	7.050926E-04
2.739418E+03	2.607469E-02	7.189818E-04
2.778552E+03	2.663871E-02	7.326889E-04
2.817687E+03	2.720429E-02	7.463232E-04
2.856821E+03	2.777156E-02	7.598854E-04
2.895956E+03	2.833693E-02	7.732739E-04
2.935090E+03	2.889969E-02	7.864677E-04
2.944874E+03	2.904149E-02	7.897769E-04
2.954658E+03	2.918415E-02	7.931013E-04
2.964441E+03	2.932431E-02	7.963498E-04
2.974225E+03	2.946507E-02	7.996064E-04
2.984009E+03	2.960628E-02	8.028675E-04
2.993792E+03	2.974780E-02	8.061288E-04
3.003576E+03	2.988952E-02	8.093873E-04
3.013360E+03	3.002818E-02	8.125546E-04
3.023143E+03	3.016988E-02	8.157964E-04
3.032927E+03	3.031137E-02	8.190239E-04
3.042710E+03	3.045252E-02	8.222340E-04
3.052494E+03	3.059319E-02	8.254228E-04
3.062278E+03	3.073326E-02	8.285871E-04
3.072061E+03	3.087563E-02	8.318049E-04
3.081845E+03	3.101710E-02	8.349902E-04
3.091629E+03	3.115758E-02	8.381400E-04
3.101412E+03	3.129990E-02	8.413308E-04
3.111196E+03	3.144093E-02	8.444784E-04
3.120980E+03	3.158349E-02	8.476587E-04
3.130763E+03	3.172742E-02	8.508667E-04
3.140547E+03	3.186967E-02	8.540210E-04
3.150330E+03	3.201300E-02	8.571951E-04
3.160114E+03	3.215439E-02	8.603088E-04
3.169898E+03	3.229940E-02	8.635102E-04
3.179681E+03	3.244222E-02	8.666442E-04
3.189465E+03	3.258830E-02	8.698564E-04
3.199249E+03	3.273193E-02	8.729940E-04
3.209032E+03	3.287850E-02	8.762007E-04
3.218816E+03	3.302509E-02	8.793990E-04
3.228600E+03	3.317156E-02	8.825846E-04
3.238383E+03	3.332046E-02	8.858255E-04
3.248167E+03	3.346894E-02	8.890456E-04
3.257950E+03	3.361950E-02	8.923117E-04
3.267734E+03	3.376936E-02	8.955495E-04
3.277518E+03	3.392097E-02	8.988242E-04
3.287301E+03	3.407418E-02	9.021316E-04
3.297085E+03	3.422626E-02	9.053990E-04
3.306869E+03	3.438216E-02	9.087577E-04
3.316652E+03	3.453915E-02	9.121350E-04
3.326436E+03	3.469706E-02	9.155266E-04
3.336220E+03	3.485576E-02	9.189285E-04
3.346003E+03	3.501507E-02	9.223367E-04
3.355787E+03	3.517730E-02	9.258109E-04
3.365570E+03	3.533981E-02	9.292823E-04
3.375354E+03	3.550487E-02	9.328101E-04
3.385138E+03	3.567226E-02	9.363883E-04
3.394921E+03	3.584181E-02	9.400122E-04
3.404705E+03	3.601104E-02	9.436165E-04
3.414489E+03	3.618436E-02	9.473172E-04
3.424272E+03	3.635930E-02	9.510488E-04
3.434056E+03	3.653567E-02	9.548067E-04
3.443839E+03	3.671554E-02	9.586442E-04
3.453623E+03	3.689649E-02	9.624981E-04
3.463407E+03	3.707835E-02	9.663641E-04
3.473190E+03	3.726525E-02	9.703496E-04
3.482974E+03	3.745269E-02	9.743370E-04
3.492758E+03	3.764472E-02	9.784314E-04
3.502541E+03	3.783692E-02	9.825176E-04
3.512325E+03	3.803325E-02	9.866987E-04
3.522109E+03	3.823142E-02	9.909145E-04
3.531892E+03	3.843325E-02	9.952123E-04
3.541676E+03	3.863650E-02	9.995336E-04
3.551459E+03	3.884293E-02	1.003924E-03
3.561243E+03	3.905230E-02	1.008377E-03
3.571027E+03	3.926436E-02	1.012886E-03
3.580810E+03	3.947887E-02	1.017444E-03
3.590594E+03	3.969745E-02	1.022093E-03
3.600378E+03	3.991794E-02	1.026777E-03
3.610161E+03	4.014008E-02	1.031489E-03
3.619945E+03	4.036546E-02	1.036270E-03
3.629729E+03	4.059375E-02	1.041111E-03
3.639512E+03	4.082466E-02	1.046004E-03
3.649296E+03	4.105787E-02	1.050941E-03
3.659079E+03	4.129481E-02	1.055958E-03
3.668863E+03	4.153338E-02	1.061002E-03
3.678647E+03	4.177327E-02	1.066063E-03
3.688430E+03	4.201585E-02	1.071178E-03
3.698214E+03	4.225905E-02	1.076293E-03
3.707998E+03	4.250588E-02	1.081484E-03
3.717781E+03	4.275424E-02	1.086698E-03
3.727565E+03	4.300376E-02	1.091925E-03
3.737349E+03	4.325406E-02	1.097156E-03
3.747132E+03	4.350475E-02	1.102381E-03
3.756916E+03	4.375700E-02	1.107628E-03
3.766699E+03	4.401038E-02	1.112888E-03
3.776483E+03	4.426291E-02	1.118109E-03
3.786267E+03	4.451724E-02	1.123359E-03
3.796050E+03	4.476990E-02	1.128551E-03
3.805834E+03	4.502199E-02	1.133711E-03
3.815618E+03	4.527452E-02	1.138866E-03
3.825401E+03	4.552419E-02	1.143932E-03
3.835185E+03	4.577344E-02	1.148972E-03
3.844969E+03	4.602184E-02	1.153973E-03
3.854752E+03	4.626757E-02	1.158891E-03
3.864536E+03	4.651025E-02	1.163716E-03
3.874319E+03	4.675088E-02	1.168473E-03
3.884103E+03	4.698774E-02	1.173121E-03
3.893887E+03	4.722183E-02	1.177682E-03
3.903670E+03	4.745277E-02	1.182150E-03
3.913454E+03	4.768027E-02	1.186517E-03
3.923238E+03	4.790275E-02	1.190743E-03
3.933021E+03	4.812001E-02	1.194824E-03
3.942805E+03	4.833430E-02	1.198817E-03
3.952589E+03	4.854296E-02	1.202655E-03
3.962372E+03	4.874586E-02	1.206337E-03
3.972156E+03	4.894411E-02	1.209889E-03
3.981939E+03	4.913646E-02	1.213282E-03
3.991723E+03	4.932407E-02	1.216544E-03
4.001507E+03	4.950580E-02	1.219648E-03
4.011290E+03	4.968063E-02	1.222569E-03
4.021074E+03	4.985097E-02	1.225367E-03
4.030858E+03	5.001477E-02	1.227992E-03
4.040641E+03	5.017343E-02	1.230480E-03
4.050425E+03	5.032617E-02	1.232811E-03
4.060208E+03	5.047339E-02	1.234995E-03
4.069992E+03	5.061556E-02	1.237045E-03
4.079776E+03	5.075317E-02	1.238973E-03
4.089559E+03	5.088476E-02	1.240745E-03
4.099343E+03	5.101205E-02	1.242401E-03
4.109127E+03	5.113573E-02	1.243960E-03
4.118910E+03	5.125558E-02	1.245417E-03
4.128694E+03	5.137152E-02	1.246769E-03
4.138478E+03	5.148447E-02	1.248041E-03
4.148261E+03	5.159542E-02	1.249255E-03
4.158045E+03	5.170448E-02	1.250414E-03
4.167828E+03	5.181183E-02	1.251525E-03
4.177612E+03	5.191867E-02	1.252614E-03
4.187396E+03	5.202531E-02	1.253691E-03
4.197179E+03	5.213305E-02	1.254786E-03
4.206963E+03	5.224060E-02	1.255869E-03
4.216747E+03	5.235107E-02	1.257013E-03
4.226530E+03	5.246252E-02	1.258173E-03
4.236314E+03	5.257806E-02	1.259423E-03
4.246098E+03	5.269669E-02	1.260739E-03
4.255881E+03	5.281913E-02	1.262137E-03
4.265665E+03	5.294686E-02	1.263652E-03
4.275448E+03	5.307977E-02	1.265283E-03
4.285232E+03	5.321771E-02	1.267024E-03
4.295016E+03	5.336129E-02	1.268889E-03
4.304799E+03	5.351076E-02	1.270886E-03
4.314583E+03	5.366535E-02	1.272993E-03
4.324367E+03	5.382341E-02	1.275173E-03
4.334150E+03	5.398553E-02	1.277439E-03
4.343934E+03	5.415070E-02	1.279766E-03
4.353718E+03	5.431788E-02	1.282130E-03
4.363501E+03	5.448745E-02	1.284539E-03
4.373285E+03	5.466043E-02	1.287018E-03
4.383068E+03	5.483634E-02	1.289554E-03
4.392852E+03	5.501675E-02	1.292185E-03
4.402636E+03	5.520103E-02	1.294894E-03
4.412419E+03	5.539062E-02	1.297716E-03
4.422203E+03	5.558472E-02	1.300631E-03
4.431987E+03	5.578394E-02	1.303653E-03
4.441770E+03	5.598805E-02	1.306777E-03
4.451554E+03	5.619750E-02	1.310011E-03
4.461338E+03	5.641195E-02	1.313348E-03
4.471121E+03	5.663168E-02	1.316795E-03
4.480905E+03	5.685624E-02	1.320339E-03
4.490688E+03	5.708510E-02	1.323968E-03
4.500472E+03	5.731835E-02	1.327684E-03
4.510256E+03	5.755533E-02	1.331471E-03
4.520039E+03	5.779604E-02	1.335330E-03
4.529823E+03	5.803901E-02	1.339224E-03
4.539607E+03	5.828482E-02	1.343169E-03
4.549390E+03	5.853261E-02	1.347143E-03
4.559174E+03	5.878216E-02	1.351142E-03
4.568958E+03	5.903185E-02	1.355127E-03
4.578741E+03	5.928210E-02	1.359109E-03
4.588525E+03	5.953121E-02	1.363050E-03
4.598308E+03	5.977887E-02	1.366940E-03
4.608092E+03	6.002404E-02	1.370758E-03
4.617876E+03	6.026638E-02	1.374496E-03
4.627659E+03	6.050348E-02	1.378098E-03
4.637443E+03	6.073500E-02	1.381558E-03
4.647227E+03	6.095853E-02	1.384821E-03
4.657010E+03	6.117172E-02	1.387836E-03
4.666794E+03	6.137222E-02	1.390549E-03
4.676577E+03	6.155636E-02	1.392878E-03
4.686361E+03	6.172525E-02	1.394851E-03
4.696145E+03	6.187935E-02	1.396479E-03
4.705928E+03	6.202054E-02	1.397805E-03
4.715712E+03	6.214731E-02	1.398798E-03
4.725496E+03	6.226164E-02	1.399502E-03
4.735279E+03	6.236280E-02	1.399903E-03
4.745063E+03	6.245016E-02	1.399987E-03
4.754847E+03	6.252313E-02	1.399743E-03
4.764630E+03	6.258253E-02	1.399191E-03
4.774414E+03	6.262657E-02	1.398291E-03
4.784197E+03	6.265551E-02	1.397051E-03
4.793981E+03	6.266903E-02	1.395466E-03
4.803765E+03	6.266755E-02	1.393546E-03
4.813548E+03	6.264953E-02	1.391258E-03
4.823332E+03	6.261621E-02	1.388631E-03
4.833116E+03	6.256686E-02	1.385651E-03
4.842899E+03	6.250151E-02	1.382319E-03
4.852683E+03	6.242089E-02	1.378654E-03
4.862467E+03	6.232450E-02	1.374646E-03
4.872250E+03	6.221386E-02	1.370330E-03
4.882034E+03	6.208794E-02	1.365684E-03
4.891817E+03	6.194769E-02	1.360731E-03
4.901601E+03	6.179416E-02	1.355496E-03
4.911385E+03	6.162709E-02	1.349973E-03
4.921168E+03	6.144762E-02	1.344190E-03
4.930952E+03	6.125623E-02	1.338157E-03
4.940736E+03	6.105344E-02	1.331888E-03
4.950519E+03	6.083983E-02	1.325395E-03
4.960303E+03	6.061598E-02	1.318694E-03
4.970087E+03	6.038311E-02	1.311811E-03
4.979870E+03	6.014184E-02	1.304761E-03
4.989654E+03	5.989279E-02	1.297557E-03
4.999437E+03	5.963657E-02	1.290215E-03
5.009221E+03	5.937381E-02	1.282747E-03
5.019005E+03	5.910573E-02	1.275183E-03
5.028788E+03	5.883174E-02	1.267508E-03
5.038572E+03	5.855422E-02	1.259775E-03
5.048356E+03	5.827256E-02	1.251972E-03
5.058139E+03	5.798791E-02	1.244123E-03
5.067923E+03	5.770020E-02	1.236227E-03
5.077707E+03	5.741113E-02	1.228322E-03
5.087490E+03	5.712000E-02	1.220392E-03
5.097274E+03	5.682785E-02	1.212460E-03
5.107057E+03	5.653511E-02	1.204534E-03
5.116841E+03	5.624217E-02	1.196625E-03
5.126625E+03	5.594940E-02	1.188739E-03
5.136408E+03	5.565714E-02	1.180883E-03
5.146192E+03	5.536569E-02	1.173066E-03
5.155976E+03	5.507477E-02	1.165279E-03
5.165759E+03	5.478523E-02	1.157542E-03
5.175543E+03	5.449728E-02	1.149859E-03
5.185327E+03	5.421058E-02	1.142222E-03
5.195110E+03	5.392590E-02	1.134648E-03
5.204894E+03	5.364285E-02	1.127129E-03
5.214677E+03	5.336214E-02	1.119679E-03
5.224461E+03	5.308285E-02	1.112279E-03
5.234245E+03	5.280619E-02	1.104954E-03
5.244028E+03	5.253124E-02	1.097685E-03
5.253812E+03	5.225865E-02	1.090486E-03
5.263596E+03	5.198802E-02	1.083347E-03
5.273379E+03	5.171999E-02	1.076283E-03
5.283163E+03	5.145418E-02	1.069285E-03
5.292946E+03	5.119016E-02	1.062344E-03
5.302730E+03	5.092909E-02	1.055485E-03
5.312514E+03	5.067004E-02	1.048687E-03
5.322297E+03	5.041363E-02	1.041963E-03
5.332081E+03	5.015995E-02	1.035316E-03
5.341865E+03	4.990858E-02	1.028737E-03
5.351648E+03	4.966108E-02	1.022256E-03
5.361432E+03	4.941747E-02	1.015875E-03
5.371216E+03	4.918021E-02	1.009643E-03
5.380999E+03	4.894972E-02	1.003569E-03
5.390783E+03	4.872530E-02	9.976377E-04
5.400566E+03	4.850436E-02	9.917954E-04
5.410350E+03	4.828716E-02	9.860477E-04
5.420134E+03	4.807304E-02	9.803803E-04
5.429917E+03	4.786181E-02	9.747892E-04
5.439701E+03	4.765326E-02	9.692702E-04
5.449485E+03	4.744722E-02	9.638194E-04
5.459268E+03	4.724304E-02	9.584236E-04
5.469052E+03	4.704151E-02	9.530984E-04
5.478836E+03	4.684249E-02	9.478412E-04
5.488619E+03	4.664539E-02	9.426394E-04
5.498403E+03	4.645011E-02	9.374912E-04
5.508186E+03	4.625703E-02	9.324041E-04
5.517970E+03	4.606609E-02	9.273767E-04
5.527754E+03	4.587772E-02	9.224174E-04
5.537537E+03	4.569097E-02	9.175073E-04
5.547321E+03	4.550677E-02	9.126645E-04
5.557105E+03	4.532512E-02	9.078892E-04
5.566888E+03	4.514561E-02	9.031729E-04
5.576672E+03	4.496875E-02	8.985257E-04
5.586456E+03	4.479415E-02	8.939398E-04
5.596239E+03	4.462279E-02	8.894344E-04
5.606023E+03	4.445386E-02	8.849931E-04
5.615806E+03	4.428836E-02	8.806360E-04
5.625590E+03	4.412549E-02	8.763469E-04
5.635374E+03	4.396626E-02	8.721457E-04
5.645157E+03	4.381079E-02	8.680342E-04
5.654941E+03	4.365828E-02	8.639971E-04
5.664725E+03	4.350977E-02	8.600541E-04
5.674508E+03	4.336532E-02	8.562067E-04
5.684292E+03	4.322421E-02	8.524401E-04
5.694076E+03	4.308738E-02	8.487729E-04
5.703859E+03	4.295492E-02	8.452067E-04
5.713643E+03	4.282650E-02	8.417346E-04
5.723426E+03	4.270218E-02	8.383578E-04
5.733210E+03	4.258244E-02	8.350854E-04
5.742994E+03	4.246691E-02	8.319100E-04
5.752777E+03	4.235604E-02	8.288401E-04
5.762561E+03	4.224941E-02	8.258676E-04
5.772345E+03	4.214704E-02	8.229923E-04
5.782128E+03	4.204847E-02	8.202054E-04
5.791912E+03	4.195451E-02	8.175227E-04
5.801696E+03	4.186469E-02	8.149344E-04
5.811479E+03	4.177894E-02	8.124393E-04
5.821263E+03	4.169675E-02	8.100273E-04
5.831046E+03	4.161843E-02	8.077046E-04
5.840830E+03	4.154347E-02	8.054609E-04
5.850614E+03	4.147172E-02	8.032934E-04
5.860397E+03	4.140306E-02	8.011997E-04
5.870181E+03	4.133732E-02	7.991764E-04
5.879965E+03	4.127396E-02	7.972132E-04
5.889748E+03	4.121281E-02	7.953066E-04
5.899532E+03	4.115369E-02	7.934537E-04
5.909315E+03	4.109648E-02	7.916517E-04
5.919099E+03	4.104018E-02	7.898817E-04
5.928883E+03	4.098547E-02	7.881568E-04
5.938666E+03	4.093140E-02	7.864588E-04
5.948450E+03	4.087825E-02	7.847932E-04
5.958234E+03	4.082508E-02	7.831424E-04
5.968017E+03	4.077183E-02	7.815050E-04
5.977801E+03	4.071840E-02	7.798795E-04
5.987585E+03	4.066474E-02	7.782653E-04
5.997368E+03	4.061003E-02	7.766465E-04
6.007152E+03	4.055427E-02	7.750235E-04
6.016935E+03	4.049667E-02	7.733814E-04
6.026719E+03	4.043688E-02	7.717137E-04
6.036503E+03	4.037417E-02	7.700071E-04
6.046286E+03	4.030744E-02	7.682406E-04
6.056070E+03	4.023765E-02	7.664329E-04
6.065854E+03	4.016659E-02	7.646181E-04
6.075637E+03	4.009442E-02	7.627999E-04
6.085421E+03	4.002180E-02	7.609906E-04
6.095205E+03	3.995015E-02	7.592176E-04
6.104988E+03	3.987893E-02	7.574708E-04
6.114772E+03	3.980924E-02	7.557712E-04
6.124555E+03	3.974139E-02	7.541247E-04
6.134339E+03	3.967609E-02	7.525449E-04
6.144123E+03	3.961328E-02	7.510308E-04
6.153906E+03	3.955330E-02	7.495891E-04
6.163690E+03	3.949692E-02	7.482342E-04
6.173474E+03	3.944492E-02	7.469810E-04
6.183257E+03	3.939686E-02	7.458215E-04
6.193041E+03	3.935390E-02	7.447776E-04
6.202825E+03	3.931603E-02	7.438494E-04
6.212608E+03	3.928401E-02	7.430511E-04
6.222392E+03	3.925741E-02	7.423748E-04
6.232175E+03	3.923777E-02	7.418498E-04
6.241959E+03	3.922422E-02	7.414599E-04
6.251743E+03	3.921791E-02	7.412267E-04
6.261526E+03	3.921870E-02	7.411481E-04
6.271310E+03	3.922650E-02	7.412223E-04
6.281094E+03	3.924235E-02	7.414693E-04
6.290877E+03	3.926567E-02	7.418784E-04
6.300661E+03	3.929706E-02	7.424613E-04
6.310445E+03	3.933586E-02	7.432054E-04
6.320228E+03	3.938300E-02	7.441291E-04
6.330012E+03	3.943774E-02	7.452185E-04
6.339795E+03	3.950008E-02	7.464740E-04
6.349579E+03	3.956999E-02	7.478946E-04
6.359363E+03	3.964736E-02	7.494784E-04
6.369146E+03	3.973157E-02	7.512138E-04
6.378930E+03	3.982277E-02	7.531029E-04
6.388714E+03	3.992051E-02	7.551378E-04
6.398497E+03	4.002448E-02	7.573124E-04
6.408281E+03	4.013396E-02	7.596129E-04
6.418065E+03	4.024760E-02	7.620139E-04
6.427848E+03	4.036446E-02	7.644976E-04
6.437632E+03	4.048309E-02	7.670362E-04
6.447415E+03	4.060243E-02	7.696099E-04
6.457199E+03	4.072098E-02	7.721899E-04
6.466983E+03	4.083814E-02	7.747649E-04
6.476766E+03	4.095201E-02	7.772984E-04
6.486550E+03	4.106161E-02	7.797720E-04
6.496334E+03	4.116557E-02	7.821591E-04
6.506117E+03	4.126306E-02	7.844436E-04
6.515901E+03	4.135287E-02	7.866022E-04
6.525684E+03	4.143435E-02	7.886221E-04
6.535468E+03	4.150647E-02	7.904832E-04
6.545252E+03	4.156785E-02	7.921587E-04
6.555035E+03	4.161862E-02	7.936505E-04
6.564819E+03	4.165812E-02	7.949455E-04
6.574603E+03	4.168578E-02	7.960320E-04
6.584386E+03	4.170118E-02	7.969011E-04
6.594170E+03	4.170398E-02	7.975460E-04
6.603954E+03	4.169448E-02	7.979713E-04
6.613737E+03	4.167261E-02	7.981748E-04
6.623521E+03	4.163792E-02	7.981471E-04
6.633304E+03	4.159151E-02	7.979084E-04
6.643088E+03	4.153314E-02	7.974534E-04
6.652872E+03	4.146363E-02	7.967966E-04
6.662655E+03	4.138243E-02	7.959268E-04
6.672439E+03	4.129148E-02	7.948804E-04
6.682223E+03	4.119035E-02	7.936482E-04
6.692006E+03	4.108014E-02	7.922508E-04
6.701790E+03	4.096149E-02	7.906992E-04
6.711574E+03	4.083509E-02	7.890064E-04
6.721357E+03	4.070164E-02	7.871848E-04
6.731141E+03	4.056234E-02	7.852572E-04
6.740924E+03	4.041694E-02	7.832178E-04
6.750708E+03	4.026665E-02	7.810895E-04
6.760492E+03	4.011268E-02	7.788950E-04
6.770275E+03	3.995522E-02	7.766376E-04
6.780059E+03	3.979544E-02	7.743396E-04
6.789843E+03	3.963301E-02	7.719937E-04
6.799626E+03	3.946952E-02	7.696308E-04
6.809410E+03	3.930554E-02	7.672612E-04
6.819194E+03	3.914066E-02	7.648769E-04
6.828977E+03	3.897633E-02	7.625057E-04
6.838761E+03	3.881302E-02	7.601567E-04
6.848544E+03	3.865019E-02	7.578187E-04
6.858328E+03	3.848916E-02	7.555178E-04
6.868112E+03	3.832981E-02	7.532511E-04
6.877895E+03	3.817290E-02	7.510334E-04
6.887679E+03	3.801771E-02	7.488507E-04
6.897463E+03	3.786543E-02	7.467261E-04
6.907246E+03	3.771576E-02	7.446535E-04
6.917030E+03	3.756883E-02	7.426356E-04
6.926814E+03	3.742475E-02	7.406744E-04
6.936597E+03	3.728360E-02	7.387713E-04
6.946381E+03	3.714496E-02	7.369182E-04
6.956164E+03	3.700930E-02	7.351244E-04
6.965948E+03	3.687664E-02	7.333900E-04
6.975732E+03	3.674695E-02	7.317145E-04
6.985515E+03	3.661971E-02	7.300878E-04
6.995299E+03	3.649532E-02	7.285173E-04
7.005083E+03	3.637323E-02	7.269928E-04
7.014866E+03	3.625338E-02	7.255123E-04
7.024650E+03	3.613563E-02	7.240734E-04
7.034434E+03	3.601989E-02	7.226743E-04
7.044217E+03	3.590605E-02	7.213124E-04
7.054001E+03	3.579350E-02	7.199759E-04
7.063784E+03	3.568260E-02	7.186714E-04
7.073568E+03	3.557275E-02	7.173872E-04
7.083352E+03	3.546427E-02	7.161297E-04
7.093135E+03	3.535613E-02	7.148778E-04
7.102919E+03	3.524911E-02	7.136471E-04
7.112703E+03	3.514173E-02	7.124078E-04
7.122486E+03	3.503477E-02	7.111755E-04
7.132270E+03	3.492812E-02	7.099477E-04
7.142053E+03	3.482032E-02	7.086947E-04
7.151837E+03	3.471262E-02	7.074416E-04
7.161621E+03	3.460357E-02	7.061588E-04
7.171404E+03	3.449355E-02	7.048537E-04
7.181188E+03	3.438202E-02	7.035154E-04
7.190972E+03	3.426891E-02	7.021420E-04
7.200755E+03	3.415328E-02	7.007138E-04
7.210539E+03	3.403552E-02	6.992388E-04
7.220323E+03	3.391515E-02	6.977066E-04
7.230106E+03	3.379127E-02	6.960982E-04
7.239890E+03	3.366385E-02	6.944131E-04
7.249673E+03	3.353289E-02	6.926505E-04
7.259457E+03	3.339752E-02	6.907920E-04
7.269241E+03	3.325777E-02	6.888377E-04
7.279024E+03	3.311363E-02	6.867873E-04
7.288808E+03	3.296559E-02	6.846501E-04
7.298592E+03	3.281323E-02	6.824173E-04
7.308375E+03	3.265787E-02	6.801156E-04
7.318159E+03	3.249872E-02	6.777282E-04
7.327943E+03	3.233707E-02	6.752821E-04
7.337726E+03	3.217257E-02	6.727690E-04
7.347510E+03	3.200609E-02	6.702071E-04
7.357293E+03	3.183727E-02	6.675888E-04
7.367077E+03	3.166660E-02	6.649239E-04
7.376861E+03	3.149414E-02	6.622133E-04
7.386644E+03	3.132076E-02	6.594755E-04
7.396428E+03	3.114573E-02	6.566944E-04
7.406212E+03	3.096994E-02	6.538891E-04
7.415995E+03	3.079306E-02	6.510521E-04
7.425779E+03	3.061557E-02	6.481937E-04
7.435563E+03	3.043757E-02	6.453157E-04
7.445346E+03	3.025915E-02	6.424200E-04
7.455130E+03	3.008039E-02	6.395082E-04
7.464913E+03	2.990142E-02	6.365829E-04
7.474697E+03	2.972272E-02	6.336544E-04
7.484481E+03	2.954439E-02	6.307248E-04
7.494264E+03	2.936618E-02	6.277886E-04
7.504048E+03	2.918818E-02	6.248478E-04
7.513832E+03	2.901130E-02	6.219219E-04
7.523615E+03	2.883528E-02	6.190053E-04
7.533399E+03	2.865985E-02	6.160923E-04
7.543183E+03	2.848554E-02	6.131943E-04
7.552966E+03	2.831248E-02	6.103140E-04
7.562750E+03	2.814117E-02	6.074626E-04
7.572533E+03	2.797099E-02	6.046268E-04
7.582317E+03	2.780248E-02	6.018179E-04
7.592101E+03	2.763614E-02	5.990472E-04
