#wls	flux	fluxerr
1.565382E+03	6.995993E-03	1.738698E-04
1.604516E+03	7.123240E-03	1.769312E-04
1.643651E+03	7.252310E-03	1.800317E-04
1.682785E+03	7.383069E-03	1.831674E-04
1.721920E+03	7.515365E-03	1.863344E-04
1.761054E+03	7.647722E-03	1.894959E-04
1.800189E+03	7.782557E-03	1.927114E-04
1.839323E+03	7.918384E-03	1.959439E-04
1.878458E+03	8.054990E-03	1.991877E-04
1.917592E+03	8.193527E-03	2.024711E-04
1.956727E+03	8.331013E-03	2.057201E-04
1.995862E+03	8.469966E-03	2.089965E-04
2.034996E+03	8.608733E-03	2.122595E-04
2.074131E+03	8.748478E-03	2.155372E-04
2.113265E+03	8.887488E-03	2.187873E-04
2.152400E+03	9.026930E-03	2.220383E-04
2.191534E+03	9.165039E-03	2.252463E-04
2.230669E+03	9.301485E-03	2.284032E-04
2.269803E+03	9.438973E-03	2.315752E-04
2.308938E+03	9.574173E-03	2.346801E-04
2.348072E+03	9.708305E-03	2.377478E-04
2.387207E+03	9.841040E-03	2.407701E-04
2.426341E+03	9.972094E-03	2.437397E-04
2.465476E+03	1.009959E-02	2.466106E-04
2.504611E+03	1.022637E-02	2.494524E-04
2.543745E+03	1.035062E-02	2.522201E-04
2.582880E+03	1.047209E-02	2.549078E-04
2.622014E+03	1.059212E-02	2.575483E-04
2.661149E+03	1.070738E-02	2.600601E-04
2.700283E+03	1.082090E-02	2.625169E-04
2.739418E+03	1.093101E-02	2.648783E-04
2.778552E+03	1.103928E-02	2.671821E-04
2.817687E+03	1.114578E-02	2.694299E-04
2.856821E+03	1.124905E-02	2.715867E-04
2.895956E+03	1.134940E-02	2.736593E-04
2.935090E+03	1.144879E-02	2.756956E-04
2.944874E+03	1.147479E-02	2.762304E-04
2.954658E+03	1.149890E-02	2.767186E-04
2.964441E+03	1.152429E-02	2.772370E-04
2.974225E+03	1.154780E-02	2.777091E-04
2.984009E+03	1.157263E-02	2.782121E-04
2.993792E+03	1.159720E-02	2.787082E-04
3.003576E+03	1.162153E-02	2.791974E-04
3.013360E+03	1.164720E-02	2.797181E-04
3.023143E+03	1.167108E-02	2.801948E-04
3.032927E+03	1.169635E-02	2.807039E-04
3.042710E+03	1.172144E-02	2.812080E-04
3.052494E+03	1.174638E-02	2.817073E-04
3.062278E+03	1.177276E-02	2.822405E-04
3.072061E+03	1.179744E-02	2.827320E-04
3.081845E+03	1.182361E-02	2.832583E-04
3.091629E+03	1.184815E-02	2.837444E-04
3.101412E+03	1.187421E-02	2.842662E-04
3.111196E+03	1.190183E-02	2.848245E-04
3.120980E+03	1.192790E-02	2.853445E-04
3.130763E+03	1.195400E-02	2.858643E-04
3.140547E+03	1.198176E-02	2.864228E-04
3.150330E+03	1.200961E-02	2.869828E-04
3.160114E+03	1.203760E-02	2.875448E-04
3.169898E+03	1.206577E-02	2.881102E-04
3.179681E+03	1.209570E-02	2.887166E-04
3.189465E+03	1.212431E-02	2.892905E-04
3.199249E+03	1.215477E-02	2.899075E-04
3.209032E+03	1.218555E-02	2.905311E-04
3.218816E+03	1.221669E-02	2.911621E-04
3.228600E+03	1.224823E-02	2.918015E-04
3.238383E+03	1.228177E-02	2.924876E-04
3.248167E+03	1.231423E-02	2.931469E-04
3.257950E+03	1.234880E-02	2.938551E-04
3.267734E+03	1.238393E-02	2.945756E-04
3.277518E+03	1.241970E-02	2.953101E-04
3.287301E+03	1.245770E-02	2.960963E-04
3.297085E+03	1.249485E-02	2.968612E-04
3.306869E+03	1.253433E-02	2.976801E-04
3.316652E+03	1.257463E-02	2.985174E-04
3.326436E+03	1.261581E-02	2.993741E-04
3.336220E+03	1.265789E-02	3.002510E-04
3.346003E+03	1.270096E-02	3.011498E-04
3.355787E+03	1.274662E-02	3.021087E-04
3.365570E+03	1.279179E-02	3.030546E-04
3.375354E+03	1.283965E-02	3.040628E-04
3.385138E+03	1.288869E-02	3.050975E-04
3.394921E+03	1.293898E-02	3.061601E-04
3.404705E+03	1.299212E-02	3.072889E-04
3.414489E+03	1.304503E-02	3.084104E-04
3.424272E+03	1.310092E-02	3.096007E-04
3.434056E+03	1.315825E-02	3.108233E-04
3.443839E+03	1.321708E-02	3.120797E-04
3.453623E+03	1.327746E-02	3.133710E-04
3.463407E+03	1.333944E-02	3.146983E-04
3.473190E+03	1.340464E-02	3.160996E-04
3.482974E+03	1.346996E-02	3.175020E-04
3.492758E+03	1.353861E-02	3.189808E-04
3.502541E+03	1.360904E-02	3.204997E-04
3.512325E+03	1.368131E-02	3.220596E-04
3.522109E+03	1.375545E-02	3.236617E-04
3.531892E+03	1.383309E-02	3.253439E-04
3.541676E+03	1.391109E-02	3.270324E-04
3.551459E+03	1.399267E-02	3.288027E-04
3.561243E+03	1.407627E-02	3.306183E-04
3.571027E+03	1.416192E-02	3.324796E-04
3.580810E+03	1.424963E-02	3.343869E-04
3.590594E+03	1.433944E-02	3.363410E-04
3.600378E+03	1.443300E-02	3.383803E-04
3.610161E+03	1.452705E-02	3.404287E-04
3.619945E+03	1.462488E-02	3.425630E-04
3.629729E+03	1.472323E-02	3.447066E-04
3.639512E+03	1.482537E-02	3.469364E-04
3.649296E+03	1.492968E-02	3.492140E-04
3.659079E+03	1.503780E-02	3.515776E-04
3.668863E+03	1.514640E-02	3.539499E-04
3.678647E+03	1.525714E-02	3.563688E-04
3.688430E+03	1.537167E-02	3.588732E-04
3.698214E+03	1.548660E-02	3.613839E-04
3.707998E+03	1.560529E-02	3.639789E-04
3.717781E+03	1.572602E-02	3.666183E-04
3.727565E+03	1.584873E-02	3.693006E-04
3.737349E+03	1.597340E-02	3.720250E-04
3.747132E+03	1.609997E-02	3.747902E-04
3.756916E+03	1.622839E-02	3.775950E-04
3.766699E+03	1.635858E-02	3.804376E-04
3.776483E+03	1.649224E-02	3.833570E-04
3.786267E+03	1.662581E-02	3.862706E-04
3.796050E+03	1.676271E-02	3.892579E-04
3.805834E+03	1.689935E-02	3.922354E-04
3.815618E+03	1.703916E-02	3.952826E-04
3.825401E+03	1.718031E-02	3.983571E-04
3.835185E+03	1.732269E-02	4.014560E-04
3.844969E+03	1.746621E-02	4.045774E-04
3.854752E+03	1.761076E-02	4.077186E-04
3.864536E+03	1.775623E-02	4.108772E-04
3.874319E+03	1.790253E-02	4.140507E-04
3.884103E+03	1.804953E-02	4.172364E-04
3.893887E+03	1.819712E-02	4.204316E-04
3.903670E+03	1.834706E-02	4.236767E-04
3.913454E+03	1.849550E-02	4.268832E-04
3.923238E+03	1.864419E-02	4.300911E-04
3.933021E+03	1.879488E-02	4.333410E-04
3.942805E+03	1.894371E-02	4.365436E-04
3.952589E+03	1.909242E-02	4.397394E-04
3.962372E+03	1.924282E-02	4.429696E-04
3.972156E+03	1.939098E-02	4.461440E-04
3.981939E+03	1.954061E-02	4.493482E-04
3.991723E+03	1.968777E-02	4.524909E-04
4.001507E+03	1.983620E-02	4.556588E-04
4.011290E+03	1.998193E-02	4.587604E-04
4.021074E+03	2.012877E-02	4.618833E-04
4.030858E+03	2.027270E-02	4.649350E-04
4.040641E+03	2.041758E-02	4.680044E-04
4.050425E+03	2.055939E-02	4.709991E-04
4.060208E+03	2.070200E-02	4.740081E-04
4.069992E+03	2.084140E-02	4.769394E-04
4.079776E+03	2.098151E-02	4.798828E-04
4.089559E+03	2.111829E-02	4.827459E-04
4.099343E+03	2.125369E-02	4.855735E-04
4.109127E+03	2.138973E-02	4.884115E-04
4.118910E+03	2.152233E-02	4.911671E-04
4.128694E+03	2.165350E-02	4.938861E-04
4.138478E+03	2.178327E-02	4.965692E-04
4.148261E+03	2.191367E-02	4.992629E-04
4.158045E+03	2.204066E-02	5.018748E-04
4.167828E+03	2.216630E-02	5.044523E-04
4.177612E+03	2.229064E-02	5.069965E-04
4.187396E+03	2.241374E-02	5.095085E-04
4.197179E+03	2.253358E-02	5.119429E-04
4.206963E+03	2.265437E-02	5.143952E-04
4.216747E+03	2.277412E-02	5.168203E-04
4.226530E+03	2.289085E-02	5.191731E-04
4.236314E+03	2.300880E-02	5.215499E-04
4.246098E+03	2.312390E-02	5.238588E-04
4.255881E+03	2.323833E-02	5.261488E-04
4.265665E+03	2.335430E-02	5.284703E-04
4.275448E+03	2.346772E-02	5.307305E-04
4.285232E+03	2.358076E-02	5.329789E-04
4.295016E+03	2.369145E-02	5.351704E-04
4.304799E+03	2.380407E-02	5.374023E-04
4.314583E+03	2.391662E-02	5.396293E-04
4.324367E+03	2.402707E-02	5.418052E-04
4.334150E+03	2.413760E-02	5.439798E-04
4.343934E+03	2.425042E-02	5.462027E-04
4.353718E+03	2.436135E-02	5.483796E-04
4.363501E+03	2.447259E-02	5.505601E-04
4.373285E+03	2.458204E-02	5.526968E-04
4.383068E+03	2.469405E-02	5.548880E-04
4.392852E+03	2.480437E-02	5.570377E-04
4.402636E+03	2.491736E-02	5.592441E-04
4.412419E+03	2.502874E-02	5.614107E-04
4.422203E+03	2.514070E-02	5.635872E-04
4.431987E+03	2.525326E-02	5.657738E-04
4.441770E+03	2.536427E-02	5.679222E-04
4.451554E+03	2.547810E-02	5.701303E-04
4.461338E+03	2.559039E-02	5.723004E-04
4.471121E+03	2.570332E-02	5.744817E-04
4.480905E+03	2.581689E-02	5.766736E-04
4.490688E+03	2.593106E-02	5.788758E-04
4.500472E+03	2.604362E-02	5.810383E-04
4.510256E+03	2.615894E-02	5.832592E-04
4.520039E+03	2.627257E-02	5.854388E-04
4.529823E+03	2.638666E-02	5.876253E-04
4.539607E+03	2.650114E-02	5.898171E-04
4.549390E+03	2.661374E-02	5.919636E-04
4.559174E+03	2.672881E-02	5.941617E-04
4.568958E+03	2.684183E-02	5.963107E-04
4.578741E+03	2.695492E-02	5.984581E-04
4.588525E+03	2.706576E-02	6.005520E-04
4.598308E+03	2.717872E-02	6.026896E-04
4.608092E+03	2.728920E-02	6.047689E-04
4.617876E+03	2.739934E-02	6.068372E-04
4.627659E+03	2.750899E-02	6.088918E-04
4.637443E+03	2.761806E-02	6.109300E-04
4.647227E+03	2.772414E-02	6.128991E-04
4.657010E+03	2.782937E-02	6.148460E-04
4.666794E+03	2.793361E-02	6.167681E-04
4.676577E+03	2.803673E-02	6.186625E-04
4.686361E+03	2.813633E-02	6.204761E-04
4.696145E+03	2.823454E-02	6.222561E-04
4.705928E+03	2.833125E-02	6.240004E-04
4.715712E+03	2.842632E-02	6.257057E-04
4.725496E+03	2.851733E-02	6.273190E-04
4.735279E+03	2.860878E-02	6.289392E-04
4.745063E+03	2.869364E-02	6.304121E-04
4.754847E+03	2.877871E-02	6.318871E-04
4.764630E+03	2.886159E-02	6.333117E-04
4.774414E+03	2.893990E-02	6.346336E-04
4.784197E+03	2.901584E-02	6.359015E-04
4.793981E+03	2.908935E-02	6.371139E-04
4.803765E+03	2.915805E-02	6.382192E-04
4.813548E+03	2.922421E-02	6.392669E-04
4.823332E+03	2.928778E-02	6.402561E-04
4.833116E+03	2.934873E-02	6.411866E-04
4.842899E+03	2.940472E-02	6.420071E-04
4.852683E+03	2.945805E-02	6.427680E-04
4.862467E+03	2.950874E-02	6.434699E-04
4.872250E+03	2.955679E-02	6.441132E-04
4.882034E+03	2.959990E-02	6.446475E-04
4.891817E+03	2.964273E-02	6.451749E-04
4.901601E+03	2.967836E-02	6.455446E-04
4.911385E+03	2.971382E-02	6.459099E-04
4.921168E+03	2.974451E-02	6.461707E-04
4.930952E+03	2.977280E-02	6.463789E-04
4.940736E+03	2.979877E-02	6.465363E-04
4.950519E+03	2.982249E-02	6.466445E-04
4.960303E+03	2.984172E-02	6.466549E-04
4.970087E+03	2.985885E-02	6.466200E-04
4.979870E+03	2.987397E-02	6.465412E-04
4.989654E+03	2.988484E-02	6.463705E-04
4.999437E+03	2.989616E-02	6.462098E-04
5.009221E+03	2.990340E-02	6.459611E-04
5.019005E+03	2.990665E-02	6.456264E-04
5.028788E+03	2.991056E-02	6.453066E-04
5.038572E+03	2.991062E-02	6.449040E-04
5.048356E+03	2.990918E-02	6.444699E-04
5.058139E+03	2.990631E-02	6.440056E-04
5.067923E+03	2.989976E-02	6.434625E-04
5.077707E+03	2.989187E-02	6.428918E-04
5.087490E+03	2.988266E-02	6.422935E-04
5.097274E+03	2.987217E-02	6.416687E-04
5.107057E+03	2.985815E-02	6.409690E-04
5.116841E+03	2.984285E-02	6.402431E-04
5.126625E+03	2.982629E-02	6.394916E-04
5.136408E+03	2.980847E-02	6.387141E-04
5.146192E+03	2.978708E-02	6.378617E-04
5.155976E+03	2.976437E-02	6.369826E-04
5.165759E+03	2.974032E-02	6.360761E-04
5.175543E+03	2.971486E-02	6.351414E-04
5.185327E+03	2.968569E-02	6.341290E-04
5.195110E+03	2.965502E-02	6.330865E-04
5.204894E+03	2.962277E-02	6.320121E-04
5.214677E+03	2.958887E-02	6.309046E-04
5.224461E+03	2.955103E-02	6.297150E-04
5.234245E+03	2.951139E-02	6.284893E-04
5.244028E+03	2.946988E-02	6.272262E-04
5.253812E+03	2.942640E-02	6.259235E-04
5.263596E+03	2.937869E-02	6.245332E-04
5.273379E+03	2.932887E-02	6.231006E-04
5.283163E+03	2.927684E-02	6.216239E-04
5.292946E+03	2.922255E-02	6.201019E-04
5.302730E+03	2.916373E-02	6.184867E-04
5.312514E+03	2.910249E-02	6.168233E-04
5.322297E+03	2.903879E-02	6.151106E-04
5.332081E+03	2.897254E-02	6.133473E-04
5.341865E+03	2.890371E-02	6.115326E-04
5.351648E+03	2.883009E-02	6.096199E-04
5.361432E+03	2.875380E-02	6.076542E-04
5.371216E+03	2.867481E-02	6.056351E-04
5.380999E+03	2.859098E-02	6.035173E-04
5.390783E+03	2.850659E-02	6.013912E-04
5.400566E+03	2.841738E-02	5.991673E-04
5.410350E+03	2.832552E-02	5.968914E-04
5.420134E+03	2.823103E-02	5.945639E-04
5.429917E+03	2.813187E-02	5.921421E-04
5.439701E+03	2.803229E-02	5.897153E-04
5.449485E+03	2.792818E-02	5.871973E-04
5.459268E+03	2.782172E-02	5.846339E-04
5.469052E+03	2.771091E-02	5.819835E-04
5.478836E+03	2.759999E-02	5.793347E-04
5.488619E+03	2.748494E-02	5.766036E-04
5.498403E+03	2.736794E-02	5.738362E-04
5.508186E+03	2.724912E-02	5.710347E-04
5.517970E+03	2.712859E-02	5.682018E-04
5.527754E+03	2.700451E-02	5.652989E-04
5.537537E+03	2.687901E-02	5.623709E-04
5.547321E+03	2.675226E-02	5.594211E-04
5.557105E+03	2.662440E-02	5.564527E-04
5.566888E+03	2.649559E-02	5.534691E-04
5.576672E+03	2.636599E-02	5.504734E-04
5.586456E+03	2.623382E-02	5.474285E-04
5.596239E+03	2.610118E-02	5.443787E-04
5.606023E+03	2.596825E-02	5.413271E-04
5.615806E+03	2.583518E-02	5.382773E-04
5.625590E+03	2.570023E-02	5.351929E-04
5.635374E+03	2.556735E-02	5.321562E-04
5.645157E+03	2.543292E-02	5.290917E-04
5.654941E+03	2.529895E-02	5.260416E-04
5.664725E+03	2.516562E-02	5.230090E-04
5.674508E+03	2.503302E-02	5.199963E-04
5.684292E+03	2.490130E-02	5.170064E-04
5.694076E+03	2.476876E-02	5.140037E-04
5.703859E+03	2.463734E-02	5.110289E-04
5.713643E+03	2.450714E-02	5.080839E-04
5.723426E+03	2.437827E-02	5.051709E-04
5.733210E+03	2.425083E-02	5.022916E-04
5.742994E+03	2.412487E-02	4.994476E-04
5.752777E+03	2.399871E-02	4.966036E-04
5.762561E+03	2.387596E-02	4.938345E-04
5.772345E+03	2.375314E-02	4.910682E-04
5.782128E+03	2.363209E-02	4.883425E-04
5.791912E+03	2.351282E-02	4.856580E-04
5.801696E+03	2.339540E-02	4.830157E-04
5.811479E+03	2.327811E-02	4.803802E-04
5.821263E+03	2.316443E-02	4.778233E-04
5.831046E+03	2.305095E-02	4.752746E-04
5.840830E+03	2.293941E-02	4.727698E-04
5.850614E+03	2.282981E-02	4.703089E-04
5.860397E+03	2.272216E-02	4.678923E-04
5.870181E+03	2.261646E-02	4.655196E-04
5.879965E+03	2.251271E-02	4.631911E-04
5.889748E+03	2.241092E-02	4.609065E-04
5.899532E+03	2.230944E-02	4.586321E-04
5.909315E+03	2.220992E-02	4.564020E-04
5.919099E+03	2.211401E-02	4.542496E-04
5.928883E+03	2.201843E-02	4.521077E-04
5.938666E+03	2.192482E-02	4.500100E-04
5.948450E+03	2.183158E-02	4.479234E-04
5.958234E+03	2.174195E-02	4.459145E-04
5.968017E+03	2.165433E-02	4.439505E-04
5.977801E+03	2.156712E-02	4.419986E-04
5.987585E+03	2.148355E-02	4.401247E-04
5.997368E+03	2.140047E-02	4.382644E-04
6.007152E+03	2.131948E-02	4.364504E-04
6.016935E+03	2.124221E-02	4.347160E-04
6.026719E+03	2.116552E-02	4.329969E-04
6.036503E+03	2.109104E-02	4.313265E-04
6.046286E+03	2.101726E-02	4.296737E-04
6.056070E+03	2.094735E-02	4.281035E-04
6.065854E+03	2.087980E-02	4.265850E-04
6.075637E+03	2.081311E-02	4.250873E-04
6.085421E+03	2.075046E-02	4.236754E-04
6.095205E+03	2.068879E-02	4.222867E-04
6.104988E+03	2.063127E-02	4.209860E-04
6.114772E+03	2.057487E-02	4.197115E-04
6.124555E+03	2.052120E-02	4.184961E-04
6.134339E+03	2.047034E-02	4.173409E-04
6.144123E+03	2.042232E-02	4.162470E-04
6.153906E+03	2.037723E-02	4.152159E-04
6.163690E+03	2.033512E-02	4.142488E-04
6.173474E+03	2.029452E-02	4.133155E-04
6.183257E+03	2.025854E-02	4.124795E-04
6.193041E+03	2.022568E-02	4.117102E-04
6.202825E+03	2.019449E-02	4.109780E-04
6.212608E+03	2.016803E-02	4.103450E-04
6.222392E+03	2.014329E-02	4.097503E-04
6.232175E+03	2.012182E-02	4.092251E-04
6.241959E+03	2.010513E-02	4.088004E-04
6.251743E+03	2.009021E-02	4.084147E-04
6.261526E+03	2.007858E-02	4.080989E-04
6.271310E+03	2.007020E-02	4.078524E-04
6.281094E+03	2.006507E-02	4.076750E-04
6.290877E+03	2.006315E-02	4.075660E-04
6.300661E+03	2.006440E-02	4.075245E-04
6.310445E+03	2.006876E-02	4.075493E-04
6.320228E+03	2.007467E-02	4.076089E-04
6.330012E+03	2.008508E-02	4.077626E-04
6.339795E+03	2.009838E-02	4.079782E-04
6.349579E+03	2.011297E-02	4.082229E-04
6.359363E+03	2.013176E-02	4.085558E-04
6.369146E+03	2.015308E-02	4.089429E-04
6.378930E+03	2.017524E-02	4.093500E-04
6.388714E+03	2.019954E-02	4.098032E-04
6.398497E+03	2.022722E-02	4.103277E-04
6.408281E+03	2.025487E-02	4.108545E-04
6.418065E+03	2.028364E-02	4.114066E-04
6.427848E+03	2.031464E-02	4.120068E-04
6.437632E+03	2.034436E-02	4.125835E-04
6.447415E+03	2.037389E-02	4.131591E-04
6.457199E+03	2.040278E-02	4.137242E-04
6.466983E+03	2.043057E-02	4.142697E-04
6.476766E+03	2.045685E-02	4.147873E-04
6.486550E+03	2.048120E-02	4.152682E-04
6.496334E+03	2.050322E-02	4.157042E-04
6.506117E+03	2.052252E-02	4.160879E-04
6.515901E+03	2.053877E-02	4.164119E-04
6.525684E+03	2.055161E-02	4.166695E-04
6.535468E+03	2.056077E-02	4.168548E-04
6.545252E+03	2.056440E-02	4.169303E-04
6.555035E+03	2.056539E-02	4.169548E-04
6.564819E+03	2.056197E-02	4.168923E-04
6.574603E+03	2.055399E-02	4.167394E-04
6.584386E+03	2.053972E-02	4.164614E-04
6.594170E+03	2.052221E-02	4.161198E-04
6.603954E+03	2.049826E-02	4.156499E-04
6.613737E+03	2.047098E-02	4.151146E-04
6.623521E+03	2.043724E-02	4.144504E-04
6.633304E+03	2.040020E-02	4.137213E-04
6.643088E+03	2.035683E-02	4.128657E-04
6.652872E+03	2.031035E-02	4.119489E-04
6.662655E+03	2.025775E-02	4.109101E-04
6.672439E+03	2.020079E-02	4.097846E-04
6.682223E+03	2.014117E-02	4.086069E-04
6.692006E+03	2.007602E-02	4.073187E-04
6.701790E+03	2.000710E-02	4.059558E-04
6.711574E+03	1.993468E-02	4.045233E-04
6.721357E+03	1.985899E-02	4.030261E-04
6.731141E+03	1.978184E-02	4.015007E-04
6.740924E+03	1.970045E-02	3.998907E-04
6.750708E+03	1.961664E-02	3.982329E-04
6.760492E+03	1.953069E-02	3.965329E-04
6.770275E+03	1.944287E-02	3.947965E-04
6.780059E+03	1.935350E-02	3.930296E-04
6.789843E+03	1.926285E-02	3.912378E-04
6.799626E+03	1.917118E-02	3.894266E-04
6.809410E+03	1.907730E-02	3.875715E-04
6.819194E+03	1.898443E-02	3.857379E-04
6.828977E+03	1.889133E-02	3.839007E-04
6.838761E+03	1.879825E-02	3.820648E-04
6.848544E+03	1.870540E-02	3.802344E-04
6.858328E+03	1.861155E-02	3.783847E-04
6.868112E+03	1.851980E-02	3.765785E-04
6.877895E+03	1.842746E-02	3.747610E-04
6.887679E+03	1.833755E-02	3.729938E-04
6.897463E+03	1.824879E-02	3.712507E-04
6.907246E+03	1.815992E-02	3.695061E-04
6.917030E+03	1.807388E-02	3.678197E-04
6.926814E+03	1.798795E-02	3.661364E-04
6.936597E+03	1.790366E-02	3.644870E-04
6.946381E+03	1.782246E-02	3.629011E-04
6.956164E+03	1.774164E-02	3.613237E-04
6.965948E+03	1.766266E-02	3.597842E-04
6.975732E+03	1.758554E-02	3.582832E-04
6.985515E+03	1.751168E-02	3.568494E-04
6.995299E+03	1.743837E-02	3.554272E-04
7.005083E+03	1.736696E-02	3.540444E-04
7.014866E+03	1.729747E-02	3.527014E-04
7.024650E+03	1.722990E-02	3.513979E-04
7.034434E+03	1.716420E-02	3.501331E-04
7.044217E+03	1.709901E-02	3.488794E-04
7.054001E+03	1.703698E-02	3.476906E-04
7.063784E+03	1.697674E-02	3.465389E-04
7.073568E+03	1.691821E-02	3.454228E-04
7.083352E+03	1.686003E-02	3.443143E-04
7.093135E+03	1.680480E-02	3.432666E-04
7.102919E+03	1.674980E-02	3.422241E-04
7.112703E+03	1.669762E-02	3.412397E-04
7.122486E+03	1.664555E-02	3.402581E-04
7.132270E+03	1.659614E-02	3.393314E-04
7.142053E+03	1.654671E-02	3.384050E-04
7.151837E+03	1.649850E-02	3.375040E-04
7.161621E+03	1.645273E-02	3.366534E-04
7.171404E+03	1.640673E-02	3.357988E-04
7.181188E+03	1.636172E-02	3.349650E-04
7.190972E+03	1.631764E-02	3.341507E-04
7.200755E+03	1.627441E-02	3.333546E-04
7.210539E+03	1.623069E-02	3.325487E-04
7.220323E+03	1.618898E-02	3.317845E-04
7.230106E+03	1.614792E-02	3.310345E-04
7.239890E+03	1.610746E-02	3.302971E-04
7.249673E+03	1.606623E-02	3.295447E-04
7.259457E+03	1.602678E-02	3.288292E-04
7.269241E+03	1.598647E-02	3.280967E-04
7.279024E+03	1.594653E-02	3.273723E-04
7.288808E+03	1.590820E-02	3.266814E-04
7.298592E+03	1.586887E-02	3.259706E-04
7.308375E+03	1.582979E-02	3.252655E-04
7.318159E+03	1.579091E-02	3.245653E-04
7.327943E+03	1.575221E-02	3.238690E-04
7.337726E+03	1.571366E-02	3.231765E-04
7.347510E+03	1.567523E-02	3.224872E-04
7.357293E+03	1.563565E-02	3.217746E-04
7.367077E+03	1.559743E-02	3.210904E-04
7.376861E+03	1.555926E-02	3.204082E-04
7.386644E+03	1.551993E-02	3.197022E-04
7.396428E+03	1.548065E-02	3.189980E-04
7.406212E+03	1.544269E-02	3.183216E-04
7.415995E+03	1.540353E-02	3.176211E-04
7.425779E+03	1.536446E-02	3.169227E-04
7.435563E+03	1.532545E-02	3.162264E-04
7.445346E+03	1.528654E-02	3.155326E-04
7.455130E+03	1.524773E-02	3.148414E-04
7.464913E+03	1.520904E-02	3.141533E-04
7.474697E+03	1.516925E-02	3.134430E-04
7.484481E+03	1.513086E-02	3.127620E-04
7.494264E+03	1.509140E-02	3.120598E-04
7.504048E+03	1.505215E-02	3.113624E-04
7.513832E+03	1.501437E-02	3.106958E-04
7.523615E+03	1.497561E-02	3.100097E-04
7.533399E+03	1.493713E-02	3.093298E-04
7.543183E+03	1.489895E-02	3.086569E-04
7.552966E+03	1.486111E-02	3.079917E-04
7.562750E+03	1.482241E-02	3.073090E-04
7.572533E+03	1.478532E-02	3.066606E-04
7.582317E+03	1.474865E-02	3.060214E-04
7.592101E+03	1.471121E-02	3.053668E-04
