#wls	flux	fluxerr
1.565382E+03	6.731636E-03	1.803990E-04
1.604516E+03	6.852495E-03	1.834854E-04
1.643651E+03	6.975111E-03	1.866095E-04
1.682785E+03	7.099362E-03	1.897676E-04
1.721920E+03	7.225112E-03	1.929556E-04
1.761054E+03	7.352209E-03	1.961690E-04
1.800189E+03	7.480493E-03	1.994032E-04
1.839323E+03	7.608492E-03	2.026186E-04
1.878458E+03	7.738588E-03	2.058781E-04
1.917592E+03	7.869300E-03	2.091421E-04
1.956727E+03	8.000414E-03	2.124042E-04
1.995862E+03	8.133063E-03	2.156942E-04
2.034996E+03	8.264300E-03	2.189336E-04
2.074131E+03	8.396613E-03	2.221878E-04
2.113265E+03	8.528379E-03	2.254136E-04
2.152400E+03	8.660749E-03	2.286410E-04
2.191534E+03	8.790616E-03	2.317875E-04
2.230669E+03	8.922006E-03	2.349591E-04
2.269803E+03	9.051783E-03	2.380727E-04
2.308938E+03	9.179660E-03	2.411206E-04
2.348072E+03	9.308322E-03	2.441730E-04
2.387207E+03	9.433064E-03	2.471061E-04
2.426341E+03	9.558089E-03	2.500298E-04
2.465476E+03	9.680166E-03	2.528594E-04
2.504611E+03	9.802104E-03	2.556679E-04
2.543745E+03	9.920650E-03	2.583704E-04
2.582880E+03	1.003713E-02	2.610014E-04
2.622014E+03	1.015142E-02	2.635572E-04
2.661149E+03	1.026340E-02	2.660348E-04
2.700283E+03	1.037300E-02	2.684323E-04
2.739418E+03	1.048023E-02	2.707497E-04
2.778552E+03	1.058670E-02	2.730285E-04
2.817687E+03	1.069100E-02	2.752322E-04
2.856821E+03	1.079336E-02	2.773668E-04
2.895956E+03	1.089414E-02	2.794411E-04
2.935090E+03	1.099382E-02	2.814677E-04
2.944874E+03	1.101971E-02	2.819960E-04
2.954658E+03	1.104539E-02	2.825176E-04
2.964441E+03	1.106932E-02	2.829932E-04
2.974225E+03	1.109461E-02	2.835024E-04
2.984009E+03	1.112129E-02	2.840456E-04
2.993792E+03	1.114624E-02	2.845436E-04
3.003576E+03	1.117107E-02	2.850369E-04
3.013360E+03	1.119731E-02	2.855652E-04
3.023143E+03	1.122189E-02	2.860498E-04
3.032927E+03	1.124794E-02	2.865704E-04
3.042710E+03	1.127391E-02	2.870877E-04
3.052494E+03	1.130138E-02	2.876419E-04
3.062278E+03	1.132727E-02	2.881544E-04
3.072061E+03	1.135314E-02	2.886653E-04
3.081845E+03	1.138058E-02	2.892147E-04
3.091629E+03	1.140806E-02	2.897633E-04
3.101412E+03	1.143559E-02	2.903122E-04
3.111196E+03	1.146322E-02	2.908620E-04
3.120980E+03	1.149095E-02	2.914130E-04
3.130763E+03	1.151883E-02	2.919664E-04
3.140547E+03	1.154841E-02	2.925615E-04
3.150330E+03	1.157665E-02	2.931211E-04
3.160114E+03	1.160667E-02	2.937242E-04
3.169898E+03	1.163695E-02	2.943325E-04
3.179681E+03	1.166752E-02	2.949466E-04
3.189465E+03	1.169996E-02	2.956063E-04
3.199249E+03	1.173122E-02	2.962347E-04
3.209032E+03	1.176442E-02	2.969105E-04
3.218816E+03	1.179651E-02	2.975567E-04
3.228600E+03	1.183062E-02	2.982520E-04
3.238383E+03	1.186524E-02	2.989586E-04
3.248167E+03	1.190040E-02	2.996772E-04
3.257950E+03	1.193770E-02	3.004480E-04
3.267734E+03	1.197408E-02	3.011939E-04
3.277518E+03	1.201269E-02	3.019938E-04
3.287301E+03	1.205200E-02	3.028097E-04
3.297085E+03	1.209052E-02	3.036040E-04
3.306869E+03	1.213139E-02	3.044552E-04
3.316652E+03	1.217466E-02	3.053648E-04
3.326436E+03	1.221726E-02	3.062557E-04
3.336220E+03	1.226234E-02	3.072069E-04
3.346003E+03	1.230686E-02	3.081417E-04
3.355787E+03	1.235394E-02	3.091387E-04
3.365570E+03	1.240210E-02	3.101604E-04
3.375354E+03	1.245137E-02	3.112080E-04
3.385138E+03	1.250180E-02	3.122822E-04
3.394921E+03	1.255344E-02	3.133843E-04
3.404705E+03	1.260789E-02	3.145541E-04
3.414489E+03	1.266363E-02	3.157540E-04
3.424272E+03	1.271915E-02	3.169458E-04
3.434056E+03	1.277761E-02	3.182086E-04
3.443839E+03	1.283751E-02	3.195045E-04
3.453623E+03	1.289888E-02	3.208344E-04
3.463407E+03	1.296333E-02	3.222381E-04
3.473190E+03	1.302776E-02	3.236388E-04
3.482974E+03	1.309535E-02	3.251150E-04
3.492758E+03	1.316299E-02	3.265898E-04
3.502541E+03	1.323388E-02	3.281423E-04
3.512325E+03	1.330647E-02	3.297337E-04
3.522109E+03	1.338078E-02	3.313650E-04
3.531892E+03	1.345687E-02	3.330369E-04
3.541676E+03	1.353474E-02	3.347499E-04
3.551459E+03	1.361604E-02	3.365445E-04
3.561243E+03	1.369757E-02	3.383411E-04
3.571027E+03	1.378258E-02	3.402203E-04
3.580810E+03	1.386948E-02	3.421428E-04
3.590594E+03	1.395828E-02	3.441085E-04
3.600378E+03	1.404899E-02	3.461176E-04
3.610161E+03	1.414162E-02	3.481703E-04
3.619945E+03	1.423618E-02	3.502665E-04
3.629729E+03	1.433267E-02	3.524066E-04
3.639512E+03	1.443109E-02	3.545900E-04
3.649296E+03	1.453311E-02	3.568576E-04
3.659079E+03	1.463704E-02	3.591683E-04
3.668863E+03	1.474121E-02	3.614803E-04
3.678647E+03	1.484895E-02	3.638758E-04
3.688430E+03	1.495857E-02	3.663127E-04
3.698214E+03	1.507003E-02	3.687904E-04
3.707998E+03	1.518332E-02	3.713083E-04
3.717781E+03	1.529840E-02	3.738651E-04
3.727565E+03	1.541521E-02	3.764598E-04
3.737349E+03	1.553547E-02	3.791338E-04
3.747132E+03	1.565566E-02	3.818012E-04
3.756916E+03	1.577746E-02	3.845030E-04
3.766699E+03	1.590257E-02	3.872803E-04
3.776483E+03	1.602741E-02	3.900462E-04
3.786267E+03	1.615546E-02	3.928849E-04
3.796050E+03	1.628487E-02	3.957516E-04
3.805834E+03	1.641560E-02	3.986448E-04
3.815618E+03	1.654574E-02	4.015188E-04
3.825401E+03	1.667883E-02	4.044586E-04
3.835185E+03	1.681297E-02	4.074186E-04
3.844969E+03	1.694810E-02	4.103970E-04
3.854752E+03	1.708412E-02	4.133913E-04
3.864536E+03	1.722094E-02	4.163996E-04
3.874319E+03	1.736030E-02	4.194636E-04
3.884103E+03	1.749844E-02	4.224924E-04
3.893887E+03	1.763709E-02	4.255279E-04
3.903670E+03	1.777615E-02	4.285676E-04
3.913454E+03	1.791554E-02	4.316095E-04
3.923238E+03	1.805704E-02	4.346964E-04
3.933021E+03	1.819677E-02	4.377349E-04
3.942805E+03	1.833652E-02	4.407680E-04
3.952589E+03	1.847813E-02	4.438400E-04
3.962372E+03	1.861766E-02	4.468562E-04
3.972156E+03	1.875692E-02	4.498603E-04
3.981939E+03	1.889778E-02	4.528968E-04
3.991723E+03	1.903626E-02	4.558706E-04
4.001507E+03	1.917620E-02	4.588733E-04
4.011290E+03	1.931358E-02	4.618092E-04
4.021074E+03	1.945030E-02	4.647234E-04
4.030858E+03	1.958827E-02	4.676619E-04
4.040641E+03	1.972346E-02	4.705282E-04
4.050425E+03	1.985779E-02	4.733684E-04
4.060208E+03	1.999323E-02	4.762295E-04
4.069992E+03	2.012573E-02	4.790146E-04
4.079776E+03	2.025725E-02	4.817711E-04
4.089559E+03	2.038778E-02	4.844983E-04
4.099343E+03	2.051932E-02	4.872442E-04
4.109127E+03	2.064781E-02	4.899121E-04
4.118910E+03	2.077527E-02	4.925501E-04
4.128694E+03	2.090172E-02	4.951589E-04
4.138478E+03	2.102718E-02	4.977388E-04
4.148261E+03	2.115167E-02	5.002906E-04
4.158045E+03	2.127523E-02	5.028151E-04
4.167828E+03	2.139793E-02	5.053139E-04
4.177612E+03	2.151980E-02	5.077882E-04
4.187396E+03	2.163882E-02	5.101902E-04
4.197179E+03	2.175926E-02	5.126204E-04
4.206963E+03	2.187911E-02	5.150318E-04
4.216747E+03	2.199634E-02	5.173765E-04
4.226530E+03	2.211529E-02	5.197565E-04
4.236314E+03	2.223180E-02	5.220745E-04
4.246098E+03	2.234811E-02	5.243828E-04
4.255881E+03	2.246433E-02	5.266843E-04
4.265665E+03	2.258056E-02	5.289812E-04
4.275448E+03	2.269693E-02	5.312763E-04
4.285232E+03	2.281351E-02	5.335716E-04
4.295016E+03	2.293041E-02	5.358696E-04
4.304799E+03	2.304771E-02	5.381720E-04
4.314583E+03	2.316329E-02	5.404297E-04
4.324367E+03	2.328154E-02	5.427448E-04
4.334150E+03	2.339815E-02	5.450170E-04
4.343934E+03	2.351533E-02	5.472977E-04
4.353718E+03	2.363311E-02	5.495875E-04
4.363501E+03	2.375149E-02	5.518867E-04
4.373285E+03	2.387048E-02	5.541954E-04
4.383068E+03	2.399012E-02	5.565141E-04
4.392852E+03	2.411040E-02	5.588429E-04
4.402636E+03	2.422910E-02	5.611305E-04
4.412419E+03	2.434842E-02	5.634276E-04
4.422203E+03	2.446837E-02	5.657345E-04
4.431987E+03	2.458894E-02	5.680507E-04
4.441770E+03	2.471010E-02	5.703759E-04
4.451554E+03	2.483184E-02	5.727097E-04
4.461338E+03	2.495413E-02	5.750513E-04
4.471121E+03	2.507469E-02	5.773482E-04
4.480905E+03	2.519574E-02	5.796515E-04
4.490688E+03	2.531722E-02	5.819601E-04
4.500472E+03	2.543912E-02	5.842732E-04
4.510256E+03	2.556135E-02	5.865893E-04
4.520039E+03	2.568389E-02	5.889076E-04
4.529823E+03	2.580436E-02	5.911737E-04
4.539607E+03	2.592499E-02	5.934387E-04
4.549390E+03	2.604571E-02	5.957011E-04
4.559174E+03	2.616642E-02	5.979585E-04
4.568958E+03	2.628707E-02	6.002097E-04
4.578741E+03	2.640523E-02	6.023995E-04
4.588525E+03	2.652544E-02	6.046316E-04
4.598308E+03	2.664297E-02	6.067979E-04
4.608092E+03	2.676004E-02	6.089492E-04
4.617876E+03	2.687654E-02	6.110830E-04
4.627659E+03	2.699001E-02	6.131434E-04
4.637443E+03	2.710504E-02	6.152350E-04
4.647227E+03	2.721681E-02	6.172484E-04
4.657010E+03	2.732756E-02	6.192343E-04
4.666794E+03	2.743480E-02	6.211367E-04
4.676577E+03	2.754316E-02	6.230605E-04
4.686361E+03	2.764778E-02	6.248956E-04
4.696145E+03	2.775329E-02	6.267471E-04
4.705928E+03	2.785484E-02	6.285051E-04
4.715712E+03	2.795228E-02	6.301669E-04
4.725496E+03	2.805031E-02	6.318385E-04
4.735279E+03	2.814403E-02	6.334096E-04
4.745063E+03	2.823573E-02	6.349321E-04
4.754847E+03	2.832535E-02	6.364044E-04
4.764630E+03	2.841277E-02	6.378243E-04
4.774414E+03	2.849551E-02	6.391363E-04
4.784197E+03	2.857833E-02	6.404473E-04
4.793981E+03	2.865632E-02	6.416475E-04
4.803765E+03	2.872943E-02	6.427359E-04
4.813548E+03	2.880244E-02	6.438197E-04
4.823332E+03	2.887048E-02	6.447901E-04
4.833116E+03	2.893833E-02	6.457546E-04
4.842899E+03	2.900114E-02	6.466045E-04
4.852683E+03	2.905890E-02	6.473400E-04
4.862467E+03	2.911642E-02	6.480688E-04
4.872250E+03	2.916886E-02	6.486831E-04
4.882034E+03	2.921867E-02	6.492376E-04
4.891817E+03	2.926584E-02	6.497323E-04
4.901601E+03	2.931040E-02	6.501683E-04
4.911385E+03	2.934993E-02	6.504919E-04
4.921168E+03	2.938692E-02	6.507585E-04
4.930952E+03	2.942140E-02	6.509692E-04
4.940736E+03	2.945340E-02	6.511247E-04
4.950519E+03	2.948054E-02	6.511726E-04
4.960303E+03	2.950532E-02	6.511684E-04
4.970087E+03	2.952777E-02	6.511130E-04
4.979870E+03	2.954796E-02	6.510080E-04
4.989654E+03	2.956592E-02	6.508545E-04
4.999437E+03	2.957932E-02	6.506011E-04
5.009221E+03	2.959061E-02	6.503021E-04
5.019005E+03	2.959986E-02	6.499592E-04
5.028788E+03	2.960712E-02	6.495735E-04
5.038572E+03	2.961001E-02	6.490933E-04
5.048356E+03	2.961342E-02	6.486257E-04
5.058139E+03	2.961256E-02	6.480660E-04
5.067923E+03	2.960748E-02	6.474155E-04
5.077707E+03	2.960302E-02	6.467803E-04
5.087490E+03	2.959439E-02	6.460559E-04
5.097274E+03	2.958403E-02	6.452958E-04
5.107057E+03	2.957194E-02	6.445000E-04
5.116841E+03	2.955814E-02	6.436694E-04
5.126625E+03	2.954024E-02	6.427517E-04
5.136408E+03	2.952302E-02	6.418512E-04
5.146192E+03	2.950168E-02	6.408639E-04
5.155976E+03	2.947622E-02	6.397900E-04
5.165759E+03	2.945139E-02	6.387324E-04
5.175543E+03	2.942239E-02	6.375876E-04
5.185327E+03	2.939157E-02	6.364064E-04
5.195110E+03	2.935889E-02	6.351884E-04
5.204894E+03	2.932431E-02	6.339327E-04
5.214677E+03	2.928778E-02	6.326384E-04
5.224461E+03	2.924690E-02	6.312537E-04
5.234245E+03	2.920399E-02	6.298290E-04
5.244028E+03	2.915897E-02	6.283630E-04
5.253812E+03	2.910947E-02	6.268045E-04
5.263596E+03	2.906010E-02	6.252530E-04
5.273379E+03	2.900614E-02	6.236072E-04
5.283163E+03	2.894989E-02	6.219165E-04
5.292946E+03	2.889127E-02	6.201799E-04
5.302730E+03	2.883025E-02	6.183963E-04
5.312514E+03	2.876448E-02	6.165160E-04
5.322297E+03	2.869624E-02	6.145876E-04
5.332081E+03	2.862549E-02	6.126107E-04
5.341865E+03	2.855218E-02	6.105846E-04
5.351648E+03	2.847631E-02	6.085093E-04
5.361432E+03	2.839561E-02	6.063360E-04
5.371216E+03	2.831231E-02	6.041129E-04
5.380999E+03	2.822643E-02	6.018405E-04
5.390783E+03	2.813799E-02	5.995193E-04
5.400566E+03	2.804705E-02	5.971505E-04
5.410350E+03	2.795141E-02	5.946875E-04
5.420134E+03	2.785559E-02	5.922266E-04
5.429917E+03	2.775520E-02	5.896745E-04
5.439701E+03	2.765255E-02	5.870804E-04
5.449485E+03	2.754551E-02	5.843990E-04
5.459268E+03	2.743855E-02	5.817256E-04
5.469052E+03	2.732739E-02	5.789693E-04
5.478836E+03	2.721432E-02	5.761786E-04
5.488619E+03	2.709944E-02	5.733560E-04
5.498403E+03	2.698286E-02	5.705036E-04
5.508186E+03	2.686469E-02	5.676238E-04
5.517970E+03	2.674295E-02	5.646748E-04
5.527754E+03	2.662198E-02	5.617485E-04
5.537537E+03	2.649770E-02	5.587585E-04
5.547321E+03	2.637235E-02	5.557525E-04
5.557105E+03	2.624607E-02	5.527331E-04
5.566888E+03	2.611693E-02	5.496598E-04
5.576672E+03	2.598920E-02	5.466225E-04
5.586456E+03	2.585890E-02	5.435374E-04
5.596239E+03	2.572822E-02	5.404508E-04
5.606023E+03	2.559729E-02	5.373653E-04
5.615806E+03	2.546627E-02	5.342840E-04
5.625590E+03	2.533526E-02	5.312093E-04
5.635374E+03	2.520241E-02	5.281022E-04
5.645157E+03	2.507182E-02	5.250489E-04
5.654941E+03	2.493967E-02	5.219688E-04
5.664725E+03	2.480804E-02	5.189059E-04
5.674508E+03	2.467704E-02	5.158624E-04
5.684292E+03	2.454678E-02	5.128404E-04
5.694076E+03	2.441737E-02	5.098421E-04
5.703859E+03	2.428697E-02	5.068291E-04
5.713643E+03	2.415761E-02	5.038439E-04
5.723426E+03	2.403128E-02	5.009277E-04
5.733210E+03	2.390425E-02	4.980027E-04
5.742994E+03	2.377848E-02	4.951099E-04
5.752777E+03	2.365404E-02	4.922507E-04
5.762561E+03	2.352914E-02	4.893875E-04
5.772345E+03	2.340755E-02	4.865988E-04
5.782128E+03	2.328561E-02	4.838086E-04
5.791912E+03	2.316706E-02	4.810943E-04
5.801696E+03	2.304825E-02	4.783802E-04
5.811479E+03	2.293106E-02	4.757052E-04
5.821263E+03	2.281551E-02	4.730697E-04
5.831046E+03	2.270164E-02	4.704744E-04
5.840830E+03	2.258768E-02	4.678826E-04
5.850614E+03	2.247722E-02	4.653685E-04
5.860397E+03	2.236671E-02	4.628587E-04
5.870181E+03	2.225970E-02	4.604267E-04
5.879965E+03	2.215270E-02	4.579999E-04
5.889748E+03	2.204748E-02	4.556150E-04
5.899532E+03	2.194403E-02	4.532717E-04
5.909315E+03	2.184238E-02	4.509708E-04
5.919099E+03	2.174253E-02	4.487120E-04
5.928883E+03	2.164278E-02	4.464603E-04
5.938666E+03	2.154656E-02	4.442863E-04
5.948450E+03	2.145219E-02	4.421553E-04
5.958234E+03	2.135799E-02	4.400325E-04
5.968017E+03	2.126566E-02	4.379532E-04
5.977801E+03	2.117691E-02	4.359524E-04
5.987585E+03	2.108839E-02	4.339612E-04
5.997368E+03	2.100182E-02	4.320148E-04
6.007152E+03	2.091723E-02	4.301137E-04
6.016935E+03	2.083298E-02	4.282243E-04
6.026719E+03	2.075243E-02	4.264155E-04
6.036503E+03	2.067394E-02	4.246537E-04
6.046286E+03	2.059592E-02	4.229061E-04
6.056070E+03	2.052168E-02	4.212406E-04
6.065854E+03	2.044799E-02	4.195910E-04
6.075637E+03	2.037816E-02	4.180250E-04
6.085421E+03	2.030898E-02	4.164770E-04
6.095205E+03	2.024212E-02	4.149808E-04
6.104988E+03	2.017763E-02	4.135377E-04
6.114772E+03	2.011555E-02	4.121483E-04
6.124555E+03	2.005592E-02	4.108136E-04
6.134339E+03	1.999878E-02	4.095343E-04
6.144123E+03	1.994418E-02	4.083111E-04
6.153906E+03	1.989058E-02	4.071130E-04
6.163690E+03	1.984117E-02	4.060049E-04
6.173474E+03	1.979441E-02	4.049553E-04
6.183257E+03	1.974877E-02	4.039329E-04
6.193041E+03	1.970739E-02	4.030020E-04
6.202825E+03	1.966718E-02	4.020992E-04
6.212608E+03	1.962971E-02	4.012568E-04
6.222392E+03	1.959656E-02	4.005070E-04
6.232175E+03	1.956461E-02	3.997861E-04
6.241959E+03	1.953541E-02	3.991257E-04
6.251743E+03	1.950897E-02	3.985259E-04
6.261526E+03	1.948526E-02	3.979862E-04
6.271310E+03	1.946427E-02	3.975065E-04
6.281094E+03	1.944597E-02	3.970862E-04
6.290877E+03	1.943033E-02	3.967244E-04
6.300661E+03	1.941576E-02	3.963889E-04
6.310445E+03	1.940532E-02	3.961421E-04
6.320228E+03	1.939741E-02	3.959514E-04
6.330012E+03	1.939199E-02	3.958156E-04
6.339795E+03	1.938745E-02	3.957020E-04
6.349579E+03	1.938684E-02	3.956727E-04
6.359363E+03	1.938700E-02	3.956631E-04
6.369146E+03	1.939094E-02	3.957348E-04
6.378930E+03	1.939550E-02	3.958228E-04
6.388714E+03	1.940207E-02	3.959560E-04
6.398497E+03	1.941201E-02	3.961617E-04
6.408281E+03	1.942192E-02	3.963705E-04
6.418065E+03	1.943301E-02	3.966070E-04
6.427848E+03	1.944491E-02	3.968639E-04
6.437632E+03	1.945727E-02	3.971338E-04
6.447415E+03	1.946972E-02	3.974091E-04
6.457199E+03	1.948191E-02	3.976826E-04
6.466983E+03	1.949351E-02	3.979475E-04
6.476766E+03	1.950416E-02	3.981966E-04
6.486550E+03	1.951357E-02	3.984238E-04
6.496334E+03	1.952144E-02	3.986228E-04
6.506117E+03	1.952748E-02	3.987877E-04
6.515901E+03	1.953143E-02	3.989132E-04
6.525684E+03	1.953303E-02	3.989940E-04
6.535468E+03	1.953052E-02	3.989938E-04
6.545252E+03	1.952680E-02	3.989721E-04
6.555035E+03	1.952016E-02	3.988936E-04
6.564819E+03	1.950884E-02	3.987224E-04
6.574603E+03	1.949587E-02	3.985202E-04
6.584386E+03	1.947798E-02	3.982203E-04
6.594170E+03	1.945825E-02	3.978856E-04
6.603954E+03	1.943347E-02	3.974501E-04
6.613737E+03	1.940674E-02	3.969774E-04
6.623521E+03	1.937492E-02	3.964031E-04
6.633304E+03	1.934117E-02	3.957913E-04
6.643088E+03	1.930236E-02	3.950786E-04
6.652872E+03	1.926015E-02	3.942983E-04
6.662655E+03	1.921616E-02	3.934839E-04
6.672439E+03	1.916738E-02	3.925732E-04
6.682223E+03	1.911547E-02	3.916004E-04
6.692006E+03	1.906056E-02	3.905681E-04
6.701790E+03	1.900438E-02	3.895115E-04
6.711574E+03	1.894395E-02	3.883695E-04
6.721357E+03	1.888102E-02	3.871777E-04
6.731141E+03	1.881575E-02	3.859396E-04
6.740924E+03	1.874835E-02	3.846591E-04
6.750708E+03	1.867901E-02	3.833402E-04
6.760492E+03	1.860791E-02	3.819864E-04
6.770275E+03	1.853527E-02	3.806023E-04
6.780059E+03	1.846128E-02	3.791915E-04
6.789843E+03	1.838464E-02	3.777274E-04
6.799626E+03	1.830857E-02	3.762759E-04
6.809410E+03	1.823174E-02	3.748098E-04
6.819194E+03	1.815435E-02	3.733330E-04
6.828977E+03	1.807510E-02	3.718187E-04
6.838761E+03	1.799713E-02	3.703317E-04
6.848544E+03	1.791913E-02	3.688446E-04
6.858328E+03	1.783980E-02	3.673307E-04
6.868112E+03	1.776221E-02	3.658536E-04
6.877895E+03	1.768359E-02	3.643555E-04
6.887679E+03	1.760699E-02	3.628996E-04
6.897463E+03	1.752961E-02	3.614284E-04
6.907246E+03	1.745448E-02	3.600039E-04
6.917030E+03	1.737880E-02	3.585684E-04
6.926814E+03	1.730412E-02	3.571539E-04
6.936597E+03	1.723192E-02	3.557912E-04
6.946381E+03	1.715943E-02	3.544228E-04
6.956164E+03	1.708814E-02	3.530796E-04
6.965948E+03	1.701811E-02	3.517625E-04
6.975732E+03	1.695076E-02	3.505014E-04
6.985515E+03	1.688333E-02	3.492389E-04
6.995299E+03	1.681724E-02	3.480043E-04
7.005083E+03	1.675250E-02	3.467982E-04
7.014866E+03	1.668914E-02	3.456207E-04
7.024650E+03	1.662713E-02	3.444715E-04
7.034434E+03	1.656510E-02	3.433223E-04
7.044217E+03	1.650580E-02	3.422296E-04
7.054001E+03	1.644781E-02	3.411647E-04
7.063784E+03	1.639112E-02	3.401269E-04
7.073568E+03	1.633434E-02	3.390874E-04
7.083352E+03	1.628014E-02	3.381019E-04
7.093135E+03	1.622714E-02	3.371415E-04
7.102919E+03	1.617394E-02	3.361771E-04
7.112703E+03	1.612184E-02	3.352360E-04
7.122486E+03	1.607215E-02	3.343453E-04
7.132270E+03	1.602212E-02	3.334477E-04
7.142053E+03	1.597439E-02	3.325983E-04
7.151837E+03	1.592622E-02	3.317400E-04
7.161621E+03	1.587889E-02	3.308997E-04
7.171404E+03	1.583237E-02	3.300762E-04
7.181188E+03	1.578657E-02	3.292683E-04
7.190972E+03	1.574147E-02	3.284750E-04
7.200755E+03	1.569699E-02	3.276951E-04
7.210539E+03	1.565308E-02	3.269275E-04
7.220323E+03	1.560969E-02	3.261709E-04
7.230106E+03	1.556677E-02	3.254245E-04
7.239890E+03	1.552296E-02	3.246595E-04
7.249673E+03	1.548083E-02	3.239301E-04
7.259457E+03	1.543771E-02	3.231804E-04
7.269241E+03	1.539617E-02	3.224641E-04
7.279024E+03	1.535357E-02	3.217258E-04
7.288808E+03	1.531247E-02	3.210192E-04
7.298592E+03	1.527022E-02	3.202888E-04
7.308375E+03	1.522810E-02	3.195614E-04
7.318159E+03	1.518608E-02	3.188362E-04
7.327943E+03	1.514541E-02	3.181398E-04
7.337726E+03	1.510349E-02	3.174174E-04
7.347510E+03	1.506158E-02	3.166957E-04
7.357293E+03	1.501839E-02	3.159472E-04
7.367077E+03	1.497646E-02	3.152253E-04
7.376861E+03	1.493450E-02	3.145033E-04
7.386644E+03	1.489250E-02	3.137804E-04
7.396428E+03	1.484917E-02	3.130301E-04
7.406212E+03	1.480706E-02	3.123055E-04
7.415995E+03	1.476361E-02	3.115532E-04
7.425779E+03	1.472011E-02	3.108000E-04
7.435563E+03	1.467783E-02	3.100727E-04
7.445346E+03	1.463425E-02	3.093181E-04
7.455130E+03	1.459062E-02	3.085629E-04
7.464913E+03	1.454696E-02	3.078073E-04
7.474697E+03	1.450330E-02	3.070519E-04
7.484481E+03	1.445963E-02	3.062966E-04
7.494264E+03	1.441473E-02	3.055156E-04
7.504048E+03	1.437113E-02	3.047623E-04
7.513832E+03	1.432758E-02	3.040103E-04
7.523615E+03	1.428288E-02	3.032340E-04
7.533399E+03	1.423828E-02	3.024603E-04
7.543183E+03	1.419505E-02	3.017160E-04
7.552966E+03	1.415074E-02	3.009489E-04
7.562750E+03	1.410662E-02	3.001863E-04
7.572533E+03	1.406271E-02	2.994283E-04
7.582317E+03	1.401905E-02	2.986760E-04
7.592101E+03	1.397567E-02	2.979299E-04
