#wls	flux	fluxerr
1.565382E+03	3.630401E-03	1.951291E-04
1.604516E+03	3.686025E-03	1.980511E-04
1.643651E+03	3.742012E-03	2.009890E-04
1.682785E+03	3.798988E-03	2.039762E-04
1.721920E+03	3.855578E-03	2.069388E-04
1.761054E+03	3.913766E-03	2.099832E-04
1.800189E+03	3.971476E-03	2.129977E-04
1.839323E+03	4.030038E-03	2.160537E-04
1.878458E+03	4.089430E-03	2.191498E-04
1.917592E+03	4.148911E-03	2.222460E-04
1.956727E+03	4.208433E-03	2.253398E-04
1.995862E+03	4.268685E-03	2.284679E-04
2.034996E+03	4.328903E-03	2.315892E-04
2.074131E+03	4.389802E-03	2.347419E-04
2.113265E+03	4.450601E-03	2.378841E-04
2.152400E+03	4.511269E-03	2.410139E-04
2.191534E+03	4.572557E-03	2.441713E-04
2.230669E+03	4.634468E-03	2.473565E-04
2.269803E+03	4.696214E-03	2.505270E-04
2.308938E+03	4.757787E-03	2.536826E-04
2.348072E+03	4.820009E-03	2.568667E-04
2.387207E+03	4.882922E-03	2.600814E-04
2.426341E+03	4.945746E-03	2.632851E-04
2.465476E+03	5.009371E-03	2.665250E-04
2.504611E+03	5.073036E-03	2.697604E-04
2.543745E+03	5.137681E-03	2.730412E-04
2.582880E+03	5.202573E-03	2.763282E-04
2.622014E+03	5.268718E-03	2.796746E-04
2.661149E+03	5.335418E-03	2.830433E-04
2.700283E+03	5.403755E-03	2.864912E-04
2.739418E+03	5.473078E-03	2.899838E-04
2.778552E+03	5.544556E-03	2.935827E-04
2.817687E+03	5.618515E-03	2.973048E-04
2.856821E+03	5.694403E-03	3.011205E-04
2.895956E+03	5.773546E-03	3.050996E-04
2.935090E+03	5.855468E-03	3.092165E-04
2.944874E+03	5.876440E-03	3.102702E-04
2.954658E+03	5.897624E-03	3.113345E-04
2.964441E+03	5.919030E-03	3.124099E-04
2.974225E+03	5.940667E-03	3.134969E-04
2.984009E+03	5.963496E-03	3.146462E-04
2.993792E+03	5.985621E-03	3.157578E-04
3.003576E+03	6.008004E-03	3.168823E-04
3.013360E+03	6.031617E-03	3.180710E-04
3.023143E+03	6.054546E-03	3.192231E-04
3.032927E+03	6.077762E-03	3.203896E-04
3.042710E+03	6.102247E-03	3.216223E-04
3.052494E+03	6.126072E-03	3.228196E-04
3.062278E+03	6.151192E-03	3.240845E-04
3.072061E+03	6.175667E-03	3.253147E-04
3.081845E+03	6.201468E-03	3.266140E-04
3.091629E+03	6.227627E-03	3.279315E-04
3.101412E+03	6.253166E-03	3.292156E-04
3.111196E+03	6.280075E-03	3.305711E-04
3.120980E+03	6.307379E-03	3.319467E-04
3.130763E+03	6.334092E-03	3.332904E-04
3.140547E+03	6.362221E-03	3.347080E-04
3.150330E+03	6.390784E-03	3.361475E-04
3.160114E+03	6.419795E-03	3.376098E-04
3.169898E+03	6.448253E-03	3.390423E-04
3.179681E+03	6.478196E-03	3.405521E-04
3.189465E+03	6.508627E-03	3.420867E-04
3.199249E+03	6.539561E-03	3.436469E-04
3.209032E+03	6.571014E-03	3.452336E-04
3.218816E+03	6.603000E-03	3.468474E-04
3.228600E+03	6.635533E-03	3.484890E-04
3.238383E+03	6.668629E-03	3.501594E-04
3.248167E+03	6.702304E-03	3.518593E-04
3.257950E+03	6.736573E-03	3.535894E-04
3.267734E+03	6.771453E-03	3.553507E-04
3.277518E+03	6.806959E-03	3.571440E-04
3.287301E+03	6.843108E-03	3.589700E-04
3.297085E+03	6.880982E-03	3.608855E-04
3.306869E+03	6.918471E-03	3.627799E-04
3.316652E+03	6.956653E-03	3.647096E-04
3.326436E+03	6.995544E-03	3.666755E-04
3.336220E+03	7.036247E-03	3.687352E-04
3.346003E+03	7.076616E-03	3.707764E-04
3.355787E+03	7.117744E-03	3.728564E-04
3.365570E+03	7.159651E-03	3.749761E-04
3.375354E+03	7.203461E-03	3.771943E-04
3.385138E+03	7.246983E-03	3.793963E-04
3.394921E+03	7.292453E-03	3.816992E-04
3.404705E+03	7.337659E-03	3.839870E-04
3.414489E+03	7.383730E-03	3.863190E-04
3.424272E+03	7.431819E-03	3.887553E-04
3.434056E+03	7.479677E-03	3.911783E-04
3.443839E+03	7.529598E-03	3.937080E-04
3.453623E+03	7.579310E-03	3.962254E-04
3.463407E+03	7.631129E-03	3.988517E-04
3.473190E+03	7.683924E-03	4.015277E-04
3.482974E+03	7.736538E-03	4.041929E-04
3.492758E+03	7.791325E-03	4.069703E-04
3.502541E+03	7.845946E-03	4.097375E-04
3.512325E+03	7.902780E-03	4.126190E-04
3.522109E+03	7.960660E-03	4.155537E-04
3.531892E+03	8.018391E-03	4.184790E-04
3.541676E+03	8.078391E-03	4.215214E-04
3.551459E+03	8.138246E-03	4.245546E-04
3.561243E+03	8.200405E-03	4.277065E-04
3.571027E+03	8.263658E-03	4.309140E-04
3.580810E+03	8.328010E-03	4.341771E-04
3.590594E+03	8.392211E-03	4.374308E-04
3.600378E+03	8.458767E-03	4.408055E-04
3.610161E+03	8.526431E-03	4.442364E-04
3.619945E+03	8.595201E-03	4.477231E-04
3.629729E+03	8.663785E-03	4.511985E-04
3.639512E+03	8.734750E-03	4.547961E-04
3.649296E+03	8.806805E-03	4.584488E-04
3.659079E+03	8.879946E-03	4.621562E-04
3.668863E+03	8.954156E-03	4.659174E-04
3.678647E+03	9.028083E-03	4.696620E-04
3.688430E+03	9.104386E-03	4.735284E-04
3.698214E+03	9.181709E-03	4.774460E-04
3.707998E+03	9.260026E-03	4.814133E-04
3.717781E+03	9.339327E-03	4.854299E-04
3.727565E+03	9.418193E-03	4.894219E-04
3.737349E+03	9.499348E-03	4.935309E-04
3.747132E+03	9.581398E-03	4.976845E-04
3.756916E+03	9.664310E-03	5.018807E-04
3.766699E+03	9.748036E-03	5.061173E-04
3.776483E+03	9.832544E-03	5.103924E-04
3.786267E+03	9.917787E-03	5.147036E-04
3.796050E+03	1.000227E-02	5.189736E-04
3.805834E+03	1.008885E-02	5.233501E-04
3.815618E+03	1.017604E-02	5.277557E-04
3.825401E+03	1.026379E-02	5.321886E-04
3.835185E+03	1.035203E-02	5.366451E-04
3.844969E+03	1.044073E-02	5.411229E-04
3.854752E+03	1.052983E-02	5.456195E-04
3.864536E+03	1.061773E-02	5.500522E-04
3.874319E+03	1.070746E-02	5.545770E-04
3.884103E+03	1.079742E-02	5.591119E-04
3.893887E+03	1.088756E-02	5.636540E-04
3.903670E+03	1.097784E-02	5.682008E-04
3.913454E+03	1.106818E-02	5.727489E-04
3.923238E+03	1.115694E-02	5.772131E-04
3.933021E+03	1.124726E-02	5.817560E-04
3.942805E+03	1.133750E-02	5.862927E-04
3.952589E+03	1.142761E-02	5.908207E-04
3.962372E+03	1.151754E-02	5.953375E-04
3.972156E+03	1.160561E-02	5.997553E-04
3.981939E+03	1.169506E-02	6.042429E-04
3.991723E+03	1.178422E-02	6.087139E-04
4.001507E+03	1.187307E-02	6.131664E-04
4.011290E+03	1.195987E-02	6.175112E-04
4.021074E+03	1.204799E-02	6.219221E-04
4.030858E+03	1.213573E-02	6.263114E-04
4.040641E+03	1.222134E-02	6.305889E-04
4.050425E+03	1.230827E-02	6.349326E-04
4.060208E+03	1.239480E-02	6.392537E-04
4.069992E+03	1.247916E-02	6.434614E-04
4.079776E+03	1.256490E-02	6.477380E-04
4.089559E+03	1.265027E-02	6.519939E-04
4.099343E+03	1.273350E-02	6.561379E-04
4.109127E+03	1.281821E-02	6.603563E-04
4.118910E+03	1.290082E-02	6.644646E-04
4.128694E+03	1.298500E-02	6.686520E-04
4.138478E+03	1.306715E-02	6.727336E-04
4.148261E+03	1.315100E-02	6.769007E-04
4.158045E+03	1.323291E-02	6.809666E-04
4.167828E+03	1.331664E-02	6.851246E-04
4.177612E+03	1.339856E-02	6.891873E-04
4.187396E+03	1.348245E-02	6.933500E-04
4.197179E+03	1.356464E-02	6.974239E-04
4.206963E+03	1.364708E-02	7.015089E-04
4.216747E+03	1.373174E-02	7.057069E-04
4.226530E+03	1.381493E-02	7.098270E-04
4.236314E+03	1.389858E-02	7.139701E-04
4.246098E+03	1.398280E-02	7.181406E-04
4.255881E+03	1.406962E-02	7.224427E-04
4.265665E+03	1.415521E-02	7.266808E-04
4.275448E+03	1.424160E-02	7.309583E-04
4.285232E+03	1.432885E-02	7.352785E-04
4.295016E+03	1.441705E-02	7.396456E-04
4.304799E+03	1.450624E-02	7.440624E-04
4.314583E+03	1.459649E-02	7.485319E-04
4.324367E+03	1.468785E-02	7.530571E-04
4.334150E+03	1.478035E-02	7.576397E-04
4.343934E+03	1.487405E-02	7.622815E-04
4.353718E+03	1.496897E-02	7.669849E-04
4.363501E+03	1.506515E-02	7.717512E-04
4.373285E+03	1.516258E-02	7.765805E-04
4.383068E+03	1.526129E-02	7.814736E-04
4.392852E+03	1.536128E-02	7.864310E-04
4.402636E+03	1.546043E-02	7.913438E-04
4.412419E+03	1.556294E-02	7.964270E-04
4.422203E+03	1.566669E-02	8.015722E-04
4.431987E+03	1.577164E-02	8.067780E-04
4.441770E+03	1.587560E-02	8.119310E-04
4.451554E+03	1.598281E-02	8.172497E-04
4.461338E+03	1.608891E-02	8.225097E-04
4.471121E+03	1.619818E-02	8.279303E-04
4.480905E+03	1.630616E-02	8.332840E-04
4.490688E+03	1.641719E-02	8.387919E-04
4.500472E+03	1.652672E-02	8.442223E-04
4.510256E+03	1.663690E-02	8.496841E-04
4.520039E+03	1.674985E-02	8.552867E-04
4.529823E+03	1.686099E-02	8.607950E-04
4.539607E+03	1.697241E-02	8.663168E-04
4.549390E+03	1.708400E-02	8.718466E-04
4.559174E+03	1.719796E-02	8.774958E-04
4.568958E+03	1.730953E-02	8.830219E-04
4.578741E+03	1.742087E-02	8.885355E-04
4.588525E+03	1.753185E-02	8.940297E-04
4.598308E+03	1.764232E-02	8.994968E-04
4.608092E+03	1.775213E-02	9.049295E-04
4.617876E+03	1.786112E-02	9.103200E-04
4.627659E+03	1.796917E-02	9.156616E-04
4.637443E+03	1.807369E-02	9.208229E-04
4.647227E+03	1.817938E-02	9.260429E-04
4.657010E+03	1.828367E-02	9.311912E-04
4.666794E+03	1.838642E-02	9.362606E-04
4.676577E+03	1.848500E-02	9.411174E-04
4.686361E+03	1.858422E-02	9.460067E-04
4.696145E+03	1.867898E-02	9.506689E-04
4.705928E+03	1.877413E-02	9.553504E-04
4.715712E+03	1.886453E-02	9.597905E-04
4.725496E+03	1.895508E-02	9.642384E-04
4.735279E+03	1.904061E-02	9.684314E-04
4.745063E+03	1.912354E-02	9.724921E-04
4.754847E+03	1.920630E-02	9.765444E-04
4.764630E+03	1.928368E-02	9.803241E-04
4.774414E+03	1.935815E-02	9.839558E-04
4.784197E+03	1.942959E-02	9.874349E-04
4.793981E+03	1.949793E-02	9.907570E-04
4.803765E+03	1.956309E-02	9.939184E-04
4.813548E+03	1.962500E-02	9.969156E-04
4.823332E+03	1.968361E-02	9.997460E-04
4.833116E+03	1.973884E-02	1.002406E-03
4.842899E+03	1.979067E-02	1.004896E-03
4.852683E+03	1.983906E-02	1.007211E-03
4.862467E+03	1.988135E-02	1.009219E-03
4.872250E+03	1.992277E-02	1.011183E-03
4.882034E+03	1.996070E-02	1.012973E-03
4.891817E+03	1.999251E-02	1.014454E-03
4.901601E+03	2.002347E-02	1.015893E-03
4.911385E+03	2.004834E-02	1.017026E-03
4.921168E+03	2.007241E-02	1.018119E-03
4.930952E+03	2.009046E-02	1.018910E-03
4.940736E+03	2.010781E-02	1.019668E-03
4.950519E+03	2.011924E-02	1.020128E-03
4.960303E+03	2.012745E-02	1.020426E-03
4.970087E+03	2.013252E-02	1.020568E-03
4.979870E+03	2.013716E-02	1.020691E-03
4.989654E+03	2.013617E-02	1.020531E-03
4.999437E+03	2.013229E-02	1.020228E-03
5.009221E+03	2.012561E-02	1.019785E-03
5.019005E+03	2.011622E-02	1.019208E-03
5.028788E+03	2.010422E-02	1.018501E-03
5.038572E+03	2.008708E-02	1.017537E-03
5.048356E+03	2.007017E-02	1.016588E-03
5.058139E+03	2.005094E-02	1.015524E-03
5.067923E+03	2.002950E-02	1.014352E-03
5.077707E+03	2.000333E-02	1.012943E-03
5.087490E+03	1.997776E-02	1.011567E-03
5.097274E+03	1.994766E-02	1.009966E-03
5.107057E+03	1.991831E-02	1.008406E-03
5.116841E+03	1.988461E-02	1.006629E-03
5.126625E+03	1.985182E-02	1.004902E-03
5.136408E+03	1.981484E-02	1.002965E-03
5.146192E+03	1.977890E-02	1.001085E-03
5.155976E+03	1.973890E-02	9.990030E-04
5.165759E+03	1.969748E-02	9.968523E-04
5.175543E+03	1.965469E-02	9.946358E-04
5.185327E+03	1.961057E-02	9.923558E-04
5.195110E+03	1.956515E-02	9.900135E-04
5.204894E+03	1.951847E-02	9.876115E-04
5.214677E+03	1.947057E-02	9.851509E-04
5.224461E+03	1.942146E-02	9.826328E-04
5.234245E+03	1.937117E-02	9.800585E-04
5.244028E+03	1.931970E-02	9.774284E-04
5.253812E+03	1.926708E-02	9.747441E-04
5.263596E+03	1.921084E-02	9.718801E-04
5.273379E+03	1.915598E-02	9.690893E-04
5.283163E+03	1.910000E-02	9.662461E-04
5.292946E+03	1.904048E-02	9.632273E-04
5.302730E+03	1.898236E-02	9.602833E-04
5.312514E+03	1.892074E-02	9.571659E-04
5.322297E+03	1.886056E-02	9.541246E-04
5.332081E+03	1.879695E-02	9.509141E-04
5.341865E+03	1.873482E-02	9.477820E-04
5.351648E+03	1.866936E-02	9.444857E-04
5.361432E+03	1.860304E-02	9.411491E-04
5.371216E+03	1.853593E-02	9.377758E-04
5.380999E+03	1.847046E-02	9.344893E-04
5.390783E+03	1.840192E-02	9.310511E-04
5.400566E+03	1.833279E-02	9.275861E-04
5.410350E+03	1.826317E-02	9.240992E-04
5.420134E+03	1.819312E-02	9.205940E-04
5.429917E+03	1.812274E-02	9.170755E-04
5.439701E+03	1.805214E-02	9.135485E-04
5.449485E+03	1.797911E-02	9.099014E-04
5.459268E+03	1.790838E-02	9.063734E-04
5.469052E+03	1.783773E-02	9.028529E-04
5.478836E+03	1.776729E-02	8.993451E-04
5.488619E+03	1.769488E-02	8.957402E-04
5.498403E+03	1.762515E-02	8.922738E-04
5.508186E+03	1.755595E-02	8.888365E-04
5.517970E+03	1.748514E-02	8.853197E-04
5.527754E+03	1.741729E-02	8.819559E-04
5.537537E+03	1.734804E-02	8.785229E-04
5.547321E+03	1.727973E-02	8.751398E-04
5.557105E+03	1.721466E-02	8.719229E-04
5.566888E+03	1.714848E-02	8.686517E-04
5.576672E+03	1.708348E-02	8.654425E-04
5.586456E+03	1.702193E-02	8.624100E-04
5.596239E+03	1.695951E-02	8.593354E-04
5.606023E+03	1.689847E-02	8.563323E-04
5.615806E+03	1.683886E-02	8.534039E-04
5.625590E+03	1.678073E-02	8.505520E-04
5.635374E+03	1.672411E-02	8.477785E-04
5.645157E+03	1.666902E-02	8.450841E-04
5.654941E+03	1.661550E-02	8.424708E-04
5.664725E+03	1.656353E-02	8.399380E-04
5.674508E+03	1.651314E-02	8.374866E-04
5.684292E+03	1.646430E-02	8.351157E-04
5.694076E+03	1.641701E-02	8.328248E-04
5.703859E+03	1.637125E-02	8.306126E-04
5.713643E+03	1.632488E-02	8.283712E-04
5.723426E+03	1.628204E-02	8.263107E-04
5.733210E+03	1.624062E-02	8.243229E-04
5.742994E+03	1.619844E-02	8.222985E-04
5.752777E+03	1.615963E-02	8.204459E-04
5.762561E+03	1.611994E-02	8.185503E-04
5.772345E+03	1.608342E-02	8.168173E-04
5.782128E+03	1.604588E-02	8.150330E-04
5.791912E+03	1.601131E-02	8.134008E-04
5.801696E+03	1.597550E-02	8.117073E-04
5.811479E+03	1.594244E-02	8.101544E-04
5.821263E+03	1.590793E-02	8.085290E-04
5.831046E+03	1.587389E-02	8.069286E-04
5.840830E+03	1.584222E-02	8.054496E-04
5.850614E+03	1.580874E-02	8.038798E-04
5.860397E+03	1.577536E-02	8.023156E-04
5.870181E+03	1.574193E-02	8.007502E-04
5.879965E+03	1.570836E-02	7.991784E-04
5.889748E+03	1.567450E-02	7.975930E-04
5.899532E+03	1.564225E-02	7.960900E-04
5.909315E+03	1.560750E-02	7.944611E-04
5.919099E+03	1.557215E-02	7.928019E-04
5.928883E+03	1.553611E-02	7.911083E-04
5.938666E+03	1.549931E-02	7.893765E-04
5.948450E+03	1.545969E-02	7.875016E-04
5.958234E+03	1.542115E-02	7.856825E-04
5.968017E+03	1.538167E-02	7.838163E-04
5.977801E+03	1.534122E-02	7.819004E-04
5.987585E+03	1.529978E-02	7.799347E-04
5.997368E+03	1.525734E-02	7.779186E-04
6.007152E+03	1.521196E-02	7.757526E-04
6.016935E+03	1.516756E-02	7.736367E-04
6.026719E+03	1.512222E-02	7.714730E-04
6.036503E+03	1.507405E-02	7.691652E-04
6.046286E+03	1.502697E-02	7.669129E-04
6.056070E+03	1.497718E-02	7.645223E-04
6.065854E+03	1.492860E-02	7.621939E-04
6.075637E+03	1.487939E-02	7.598328E-04
6.085421E+03	1.482774E-02	7.573471E-04
6.095205E+03	1.477754E-02	7.549350E-04
6.104988E+03	1.472510E-02	7.524082E-04
6.114772E+03	1.467241E-02	7.498688E-04
6.124555E+03	1.462146E-02	7.474177E-04
6.134339E+03	1.456859E-02	7.448683E-04
6.144123E+03	1.451579E-02	7.423223E-04
6.153906E+03	1.446502E-02	7.398797E-04
6.163690E+03	1.441268E-02	7.373563E-04
6.173474E+03	1.436073E-02	7.348522E-04
6.183257E+03	1.431110E-02	7.324663E-04
6.193041E+03	1.426020E-02	7.300155E-04
6.202825E+03	1.420999E-02	7.275993E-04
6.212608E+03	1.416054E-02	7.252212E-04
6.222392E+03	1.411193E-02	7.228859E-04
6.232175E+03	1.406425E-02	7.205980E-04
6.241959E+03	1.401756E-02	7.183598E-04
6.251743E+03	1.397372E-02	7.162675E-04
6.261526E+03	1.392920E-02	7.141402E-04
6.271310E+03	1.388586E-02	7.120723E-04
6.281094E+03	1.384373E-02	7.100660E-04
6.290877E+03	1.380286E-02	7.081243E-04
6.300661E+03	1.376151E-02	7.061572E-04
6.310445E+03	1.372325E-02	7.043481E-04
6.320228E+03	1.368632E-02	7.026073E-04
6.330012E+03	1.365075E-02	7.009352E-04
6.339795E+03	1.361653E-02	6.993322E-04
6.349579E+03	1.358366E-02	6.977984E-04
6.359363E+03	1.355215E-02	6.963339E-04
6.369146E+03	1.352024E-02	6.948487E-04
6.378930E+03	1.349139E-02	6.935199E-04
6.388714E+03	1.346384E-02	6.922576E-04
6.398497E+03	1.343754E-02	6.910595E-04
6.408281E+03	1.341076E-02	6.898362E-04
6.418065E+03	1.338689E-02	6.887625E-04
6.427848E+03	1.336415E-02	6.877466E-04
6.437632E+03	1.334081E-02	6.866990E-04
6.447415E+03	1.332020E-02	6.857924E-04
6.457199E+03	1.330059E-02	6.849362E-04
6.466983E+03	1.328017E-02	6.840386E-04
6.476766E+03	1.326233E-02	6.832733E-04
6.486550E+03	1.324356E-02	6.824600E-04
6.496334E+03	1.322723E-02	6.817722E-04
6.506117E+03	1.320986E-02	6.810304E-04
6.515901E+03	1.319479E-02	6.804067E-04
6.525684E+03	1.317855E-02	6.797230E-04
6.535468E+03	1.316450E-02	6.791514E-04
6.545252E+03	1.314917E-02	6.785138E-04
6.555035E+03	1.313421E-02	6.778953E-04
6.564819E+03	1.312130E-02	6.773815E-04
6.574603E+03	1.310698E-02	6.767953E-04
6.584386E+03	1.309293E-02	6.762225E-04
6.594170E+03	1.308080E-02	6.757490E-04
6.603954E+03	1.306721E-02	6.751997E-04
6.613737E+03	1.305386E-02	6.746621E-04
6.623521E+03	1.304241E-02	6.742223E-04
6.633304E+03	1.302949E-02	6.737067E-04
6.643088E+03	1.301682E-02	6.732037E-04
6.652872E+03	1.300443E-02	6.727147E-04
6.662655E+03	1.299233E-02	6.722402E-04
6.672439E+03	1.298056E-02	6.717825E-04
6.682223E+03	1.297084E-02	6.714305E-04
6.692006E+03	1.295984E-02	6.710125E-04
6.701790E+03	1.294930E-02	6.706177E-04
6.711574E+03	1.293927E-02	6.702485E-04
6.721357E+03	1.292977E-02	6.699068E-04
6.731141E+03	1.292085E-02	6.695949E-04
6.740924E+03	1.291254E-02	6.693146E-04
6.750708E+03	1.290489E-02	6.690675E-04
6.760492E+03	1.289791E-02	6.688552E-04
6.770275E+03	1.289162E-02	6.686784E-04
6.780059E+03	1.288603E-02	6.685380E-04
6.789843E+03	1.288114E-02	6.684329E-04
6.799626E+03	1.287693E-02	6.683634E-04
6.809410E+03	1.287337E-02	6.683274E-04
6.819194E+03	1.287044E-02	6.683236E-04
6.828977E+03	1.286642E-02	6.682629E-04
6.838761E+03	1.286459E-02	6.683156E-04
6.848544E+03	1.286319E-02	6.683909E-04
6.858328E+03	1.286217E-02	6.684849E-04
6.868112E+03	1.286141E-02	6.685931E-04
6.877895E+03	1.285916E-02	6.686233E-04
6.887679E+03	1.285866E-02	6.687439E-04
6.897463E+03	1.285811E-02	6.688618E-04
6.907246E+03	1.285740E-02	6.689711E-04
6.917030E+03	1.285474E-02	6.689791E-04
6.926814E+03	1.285338E-02	6.690542E-04
6.936597E+03	1.285151E-02	6.691025E-04
6.946381E+03	1.284736E-02	6.690317E-04
6.956164E+03	1.284419E-02	6.690113E-04
6.965948E+03	1.284022E-02	6.689491E-04
6.975732E+03	1.283369E-02	6.687534E-04
6.985515E+03	1.282790E-02	6.685958E-04
6.995299E+03	1.281944E-02	6.682982E-04
7.005083E+03	1.281162E-02	6.680340E-04
7.014866E+03	1.280108E-02	6.676273E-04
7.024650E+03	1.279115E-02	6.672518E-04
7.034434E+03	1.277853E-02	6.667351E-04
7.044217E+03	1.276655E-02	6.662518E-04
7.054001E+03	1.275194E-02	6.656305E-04
7.063784E+03	1.273645E-02	6.649620E-04
7.073568E+03	1.272180E-02	6.643373E-04
7.083352E+03	1.270474E-02	6.635861E-04
7.093135E+03	1.268705E-02	6.628016E-04
7.102919E+03	1.267050E-02	6.620752E-04
7.112703E+03	1.265187E-02	6.612396E-04
7.122486E+03	1.263293E-02	6.603875E-04
7.132270E+03	1.261546E-02	6.596108E-04
7.142053E+03	1.259626E-02	6.587434E-04
7.151837E+03	1.257709E-02	6.578768E-04
7.161621E+03	1.255805E-02	6.570161E-04
7.171404E+03	1.253924E-02	6.561665E-04
7.181188E+03	1.252237E-02	6.554180E-04
7.190972E+03	1.250423E-02	6.546021E-04
7.200755E+03	1.248651E-02	6.538076E-04
7.210539E+03	1.246926E-02	6.530368E-04
7.220323E+03	1.245250E-02	6.522910E-04
7.230106E+03	1.243624E-02	6.515708E-04
7.239890E+03	1.242046E-02	6.508752E-04
7.249673E+03	1.240517E-02	6.502043E-04
7.259457E+03	1.239031E-02	6.495553E-04
7.269241E+03	1.237585E-02	6.489262E-04
7.279024E+03	1.236171E-02	6.483135E-04
7.288808E+03	1.234781E-02	6.477127E-04
7.298592E+03	1.233407E-02	6.471199E-04
7.308375E+03	1.232041E-02	6.465302E-04
7.318159E+03	1.230671E-02	6.459380E-04
7.327943E+03	1.229287E-02	6.453374E-04
7.337726E+03	1.227713E-02	6.446370E-04
7.347510E+03	1.226266E-02	6.440019E-04
7.357293E+03	1.224769E-02	6.433401E-04
7.367077E+03	1.223210E-02	6.426454E-04
7.376861E+03	1.221419E-02	6.418275E-04
7.386644E+03	1.219705E-02	6.410497E-04
7.396428E+03	1.217898E-02	6.402221E-04
7.406212E+03	1.215988E-02	6.393396E-04
7.415995E+03	1.213806E-02	6.383131E-04
7.425779E+03	1.211666E-02	6.373080E-04
7.435563E+03	1.209240E-02	6.361518E-04
7.445346E+03	1.206846E-02	6.350114E-04
7.455130E+03	1.204320E-02	6.338004E-04
7.464913E+03	1.201500E-02	6.324341E-04
7.474697E+03	1.198706E-02	6.310802E-04
7.484481E+03	1.195620E-02	6.295718E-04
7.494264E+03	1.192565E-02	6.280786E-04
7.504048E+03	1.189227E-02	6.264356E-04
7.513832E+03	1.185774E-02	6.247304E-04
7.523615E+03	1.182368E-02	6.230492E-04
7.533399E+03	1.178705E-02	6.212317E-04
7.543183E+03	1.175110E-02	6.194491E-04
7.552966E+03	1.171281E-02	6.175413E-04
7.562750E+03	1.167386E-02	6.155980E-04
7.572533E+03	1.163439E-02	6.136262E-04
7.582317E+03	1.159609E-02	6.117146E-04
7.592101E+03	1.155599E-02	6.097070E-04
