#wls	flux	fluxerr
1.600000E+03	5.936891E-15	1.713608E-15
1.640000E+03	5.499342E-15	1.502026E-15
1.680000E+03	5.080347E-15	1.310292E-15
1.720000E+03	4.681838E-15	1.138081E-15
1.760000E+03	4.305958E-15	9.849615E-16
1.800000E+03	3.954840E-15	8.503301E-16
1.840000E+03	3.628990E-15	7.331010E-16
1.880000E+03	3.330390E-15	6.324083E-16
1.920000E+03	3.059850E-15	5.470543E-16
1.960000E+03	2.818168E-15	4.757850E-16
2.000000E+03	2.605980E-15	4.172850E-16
2.040000E+03	2.424227E-15	3.702796E-16
2.080000E+03	2.273646E-15	3.334866E-16
2.120000E+03	2.154937E-15	3.056952E-16
2.160000E+03	2.069430E-15	2.859089E-16
2.200000E+03	2.018113E-15	2.732426E-16
2.240000E+03	2.002294E-15	2.670351E-16
2.280000E+03	2.023634E-15	2.668403E-16
2.320000E+03	2.084092E-15	2.723930E-16
2.360000E+03	2.185982E-15	2.835874E-16
2.400000E+03	2.331660E-15	3.004196E-16
2.440000E+03	2.523201E-15	3.229504E-16
2.480000E+03	2.762340E-15	3.513250E-16
2.520000E+03	3.049316E-15	3.856635E-16
2.560000E+03	3.382885E-15	4.260904E-16
2.600000E+03	3.759273E-15	4.725833E-16
2.640000E+03	4.172457E-15	5.249143E-16
2.680000E+03	4.613896E-15	5.824480E-16
2.720000E+03	5.073241E-15	6.440308E-16
2.760000E+03	5.539029E-15	7.079155E-16
2.800000E+03	5.999317E-15	7.717693E-16
2.840000E+03	6.442639E-15	8.328393E-16
2.880000E+03	6.859112E-15	8.882328E-16
2.920000E+03	7.240304E-15	9.350971E-16
2.960000E+03	7.580910E-15	9.710438E-16
3.000000E+03	7.877453E-15	9.941657E-16
3.010000E+03	7.944790E-15	9.978169E-16
3.020000E+03	8.009217E-15	1.000564E-15
3.030000E+03	8.070735E-15	1.002398E-15
3.040000E+03	8.129715E-15	1.003356E-15
3.050000E+03	8.185992E-15	1.003410E-15
3.060000E+03	8.239590E-15	1.002560E-15
3.070000E+03	8.290716E-15	1.000827E-15
3.080000E+03	8.339230E-15	9.981932E-16
3.090000E+03	8.385175E-15	9.946664E-16
3.100000E+03	8.428949E-15	9.902969E-16
3.110000E+03	8.470257E-15	9.850547E-16
3.120000E+03	8.509330E-15	9.789744E-16
3.130000E+03	8.546060E-15	9.720529E-16
3.140000E+03	8.581026E-15	9.643670E-16
3.150000E+03	8.613788E-15	9.558794E-16
3.160000E+03	8.644591E-15	9.466325E-16
3.170000E+03	8.673679E-15	9.366693E-16
3.180000E+03	8.701127E-15	9.260156E-16
3.190000E+03	8.726693E-15	9.146651E-16
3.200000E+03	8.750948E-15	9.026996E-16
3.210000E+03	8.773654E-15	8.901164E-16
3.220000E+03	8.795059E-15	8.769654E-16
3.230000E+03	8.815095E-15	8.632655E-16
3.240000E+03	8.834009E-15	8.490683E-16
3.250000E+03	8.851890E-15	8.344108E-16
3.260000E+03	8.868830E-15	8.193312E-16
3.270000E+03	8.884768E-15	8.038554E-16
3.280000E+03	8.899950E-15	7.880384E-16
3.290000E+03	8.914466E-15	7.719217E-16
3.300000E+03	8.928263E-15	7.555358E-16
3.310000E+03	8.941581E-15	7.389372E-16
3.320000E+03	8.954367E-15	7.221592E-16
3.330000E+03	8.966859E-15	7.052592E-16
3.340000E+03	8.979008E-15	6.882728E-16
3.350000E+03	8.990908E-15	6.712480E-16
3.360000E+03	9.002655E-15	6.542334E-16
3.370000E+03	9.014343E-15	6.372782E-16
3.380000E+03	9.026067E-15	6.204321E-16
3.390000E+03	9.037788E-15	6.037363E-16
3.400000E+03	9.049739E-15	5.872505E-16
3.410000E+03	9.061756E-15	5.710091E-16
3.420000E+03	9.074202E-15	5.550801E-16
3.430000E+03	9.086923E-15	5.394990E-16
3.440000E+03	9.100030E-15	5.243182E-16
3.450000E+03	9.113636E-15	5.095895E-16
3.460000E+03	9.127739E-15	4.953584E-16
3.470000E+03	9.142587E-15	4.816837E-16
3.480000E+03	9.158192E-15	4.686107E-16
3.490000E+03	9.174576E-15	4.561860E-16
3.500000E+03	9.191898E-15	4.444625E-16
3.510000E+03	9.210210E-15	4.334876E-16
3.520000E+03	9.229811E-15	4.233201E-16
3.530000E+03	9.250557E-15	4.139969E-16
3.540000E+03	9.272786E-15	4.055759E-16
3.550000E+03	9.296628E-15	3.981023E-16
3.560000E+03	9.322352E-15	3.916235E-16
3.570000E+03	9.350029E-15	3.861724E-16
3.580000E+03	9.379881E-15	3.817798E-16
3.590000E+03	9.412380E-15	3.784758E-16
3.600000E+03	9.447598E-15	3.762610E-16
3.610000E+03	9.486087E-15	3.751400E-16
3.620000E+03	9.528214E-15	3.750942E-16
3.630000E+03	9.574277E-15	3.760863E-16
3.640000E+03	9.624713E-15	3.780710E-16
3.650000E+03	9.680083E-15	3.809968E-16
3.660000E+03	9.740745E-15	3.847965E-16
3.670000E+03	9.807372E-15	3.894119E-16
3.680000E+03	9.880200E-15	3.947668E-16
3.690000E+03	9.959751E-15	4.007990E-16
3.700000E+03	1.004641E-14	4.074450E-16
3.710000E+03	1.014061E-14	4.146495E-16
3.720000E+03	1.024252E-14	4.223530E-16
3.730000E+03	1.035245E-14	4.305086E-16
3.740000E+03	1.047053E-14	4.390687E-16
3.750000E+03	1.059690E-14	4.479931E-16
3.760000E+03	1.073152E-14	4.572389E-16
3.770000E+03	1.087434E-14	4.667689E-16
3.780000E+03	1.102510E-14	4.765414E-16
3.790000E+03	1.118343E-14	4.865135E-16
3.800000E+03	1.134919E-14	4.966553E-16
3.810000E+03	1.152156E-14	5.069105E-16
3.820000E+03	1.170005E-14	5.172392E-16
3.830000E+03	1.188406E-14	5.275985E-16
3.840000E+03	1.207253E-14	5.379273E-16
3.850000E+03	1.226454E-14	5.481708E-16
3.860000E+03	1.245918E-14	5.582761E-16
3.870000E+03	1.265533E-14	5.681822E-16
3.880000E+03	1.285180E-14	5.778255E-16
3.890000E+03	1.304721E-14	5.871348E-16
3.900000E+03	1.324038E-14	5.960483E-16
3.910000E+03	1.342995E-14	6.044980E-16
3.920000E+03	1.361458E-14	6.124160E-16
3.930000E+03	1.379289E-14	6.197353E-16
3.940000E+03	1.396353E-14	6.263910E-16
3.950000E+03	1.412531E-14	6.323262E-16
3.960000E+03	1.427698E-14	6.374823E-16
3.970000E+03	1.441720E-14	6.417992E-16
3.980000E+03	1.454512E-14	6.452394E-16
3.990000E+03	1.465960E-14	6.477538E-16
4.000000E+03	1.475984E-14	6.493115E-16
4.010000E+03	1.484508E-14	6.498830E-16
4.020000E+03	1.491454E-14	6.494404E-16
4.030000E+03	1.496797E-14	6.479809E-16
4.040000E+03	1.500491E-14	6.454929E-16
4.050000E+03	1.502531E-14	6.419841E-16
4.060000E+03	1.502914E-14	6.374651E-16
4.070000E+03	1.501657E-14	6.319548E-16
4.080000E+03	1.498793E-14	6.254801E-16
4.090000E+03	1.494383E-14	6.180814E-16
4.100000E+03	1.488481E-14	6.097957E-16
4.110000E+03	1.481169E-14	6.006726E-16
4.120000E+03	1.472571E-14	5.907784E-16
4.130000E+03	1.462771E-14	5.801645E-16
4.140000E+03	1.451905E-14	5.689031E-16
4.150000E+03	1.440106E-14	5.570653E-16
4.160000E+03	1.427518E-14	5.447258E-16
4.170000E+03	1.414290E-14	5.319621E-16
4.180000E+03	1.400574E-14	5.188538E-16
4.190000E+03	1.386528E-14	5.054815E-16
4.200000E+03	1.372307E-14	4.919267E-16
4.210000E+03	1.358065E-14	4.782713E-16
4.220000E+03	1.343952E-14	4.645969E-16
4.230000E+03	1.330096E-14	4.509815E-16
4.240000E+03	1.316633E-14	4.375075E-16
4.250000E+03	1.303695E-14	4.242618E-16
4.260000E+03	1.291392E-14	4.113284E-16
4.270000E+03	1.279796E-14	3.987869E-16
4.280000E+03	1.268995E-14	3.867307E-16
4.290000E+03	1.259050E-14	3.752535E-16
4.300000E+03	1.250005E-14	3.644532E-16
4.310000E+03	1.241882E-14	3.544314E-16
4.320000E+03	1.234674E-14	3.452888E-16
4.330000E+03	1.228388E-14	3.371344E-16
4.340000E+03	1.222968E-14	3.300587E-16
4.350000E+03	1.218382E-14	3.241514E-16
4.360000E+03	1.214562E-14	3.194743E-16
4.370000E+03	1.211431E-14	3.160620E-16
4.380000E+03	1.208891E-14	3.139086E-16
4.390000E+03	1.206838E-14	3.129684E-16
4.400000E+03	1.205150E-14	3.131498E-16
4.410000E+03	1.203713E-14	3.143273E-16
4.420000E+03	1.202386E-14	3.163378E-16
4.430000E+03	1.201018E-14	3.189952E-16
4.440000E+03	1.199479E-14	3.221065E-16
4.450000E+03	1.197613E-14	3.254693E-16
4.460000E+03	1.195276E-14	3.288883E-16
4.470000E+03	1.192337E-14	3.321814E-16
4.480000E+03	1.188641E-14	3.351722E-16
4.490000E+03	1.184076E-14	3.377112E-16
4.500000E+03	1.178533E-14	3.396658E-16
4.510000E+03	1.171907E-14	3.409214E-16
4.520000E+03	1.164125E-14	3.413891E-16
4.530000E+03	1.155139E-14	3.410023E-16
4.540000E+03	1.144919E-14	3.397174E-16
4.550000E+03	1.133466E-14	3.375131E-16
4.560000E+03	1.120792E-14	3.343870E-16
4.570000E+03	1.106933E-14	3.303576E-16
4.580000E+03	1.091981E-14	3.254728E-16
4.590000E+03	1.076008E-14	3.197864E-16
4.600000E+03	1.059111E-14	3.133720E-16
4.610000E+03	1.041426E-14	3.063241E-16
4.620000E+03	1.023088E-14	2.987468E-16
4.630000E+03	1.004210E-14	2.907463E-16
4.640000E+03	9.849696E-15	2.824546E-16
4.650000E+03	9.654751E-15	2.739905E-16
4.660000E+03	9.458910E-15	2.654936E-16
4.670000E+03	9.263477E-15	2.570972E-16
4.680000E+03	9.069685E-15	2.489338E-16
4.690000E+03	8.878677E-15	2.411326E-16
4.700000E+03	8.691498E-15	2.338159E-16
4.710000E+03	8.509253E-15	2.270989E-16
4.720000E+03	8.332679E-15	2.210745E-16
4.730000E+03	8.162491E-15	2.158175E-16
4.740000E+03	7.999380E-15	2.113804E-16
4.750000E+03	7.843697E-15	2.077820E-16
4.760000E+03	7.696102E-15	2.050241E-16
4.770000E+03	7.556700E-15	2.030701E-16
4.780000E+03	7.425911E-15	2.018720E-16
4.790000E+03	7.303930E-15	2.013620E-16
4.800000E+03	7.190752E-15	2.014592E-16
4.810000E+03	7.086540E-15	2.020861E-16
4.820000E+03	6.991409E-15	2.031668E-16
4.830000E+03	6.905221E-15	2.046254E-16
4.840000E+03	6.828013E-15	2.063998E-16
4.850000E+03	6.759723E-15	2.084346E-16
4.860000E+03	6.700189E-15	2.106811E-16
4.870000E+03	6.649292E-15	2.131009E-16
4.880000E+03	6.606956E-15	2.156648E-16
4.890000E+03	6.572942E-15	2.183454E-16
4.900000E+03	6.547125E-15	2.211241E-16
4.910000E+03	6.529149E-15	2.239794E-16
4.920000E+03	6.518836E-15	2.268990E-16
4.930000E+03	6.515915E-15	2.298696E-16
4.940000E+03	6.520020E-15	2.328765E-16
4.950000E+03	6.530889E-15	2.359097E-16
4.960000E+03	6.548100E-15	2.389536E-16
4.970000E+03	6.571336E-15	2.419968E-16
4.980000E+03	6.600115E-15	2.450216E-16
4.990000E+03	6.633994E-15	2.480110E-16
5.000000E+03	6.672435E-15	2.509440E-16
5.010000E+03	6.715079E-15	2.538053E-16
5.020000E+03	6.761267E-15	2.565678E-16
5.030000E+03	6.810455E-15	2.592077E-16
5.040000E+03	6.862152E-15	2.617026E-16
5.050000E+03	6.915710E-15	2.640233E-16
5.060000E+03	6.970545E-15	2.661426E-16
5.070000E+03	7.026067E-15	2.680325E-16
5.080000E+03	7.081689E-15	2.696651E-16
5.090000E+03	7.136761E-15	2.710099E-16
5.100000E+03	7.190722E-15	2.720401E-16
5.110000E+03	7.243112E-15	2.727332E-16
5.120000E+03	7.293279E-15	2.730602E-16
5.130000E+03	7.340912E-15	2.730060E-16
5.140000E+03	7.385370E-15	2.725448E-16
5.150000E+03	7.426445E-15	2.716684E-16
5.160000E+03	7.463761E-15	2.703648E-16
5.170000E+03	7.497082E-15	2.686295E-16
5.180000E+03	7.526240E-15	2.664636E-16
5.190000E+03	7.551058E-15	2.638714E-16
5.200000E+03	7.571503E-15	2.608661E-16
5.210000E+03	7.587534E-15	2.574654E-16
5.220000E+03	7.599404E-15	2.537021E-16
5.230000E+03	7.607039E-15	2.496036E-16
5.240000E+03	7.610729E-15	2.452162E-16
5.250000E+03	7.610733E-15	2.405918E-16
5.260000E+03	7.607349E-15	2.357916E-16
5.270000E+03	7.600755E-15	2.308814E-16
5.280000E+03	7.591384E-15	2.259436E-16
5.290000E+03	7.579535E-15	2.210651E-16
5.300000E+03	7.565593E-15	2.163439E-16
5.310000E+03	7.549877E-15	2.118821E-16
5.320000E+03	7.532856E-15	2.077908E-16
5.330000E+03	7.514770E-15	2.041746E-16
5.340000E+03	7.496004E-15	2.011373E-16
5.350000E+03	7.476862E-15	1.987694E-16
5.360000E+03	7.457787E-15	1.971473E-16
5.370000E+03	7.438907E-15	1.963154E-16
5.380000E+03	7.420637E-15	1.962980E-16
5.390000E+03	7.403221E-15	1.970862E-16
5.400000E+03	7.386882E-15	1.986436E-16
5.410000E+03	7.371666E-15	2.009073E-16
5.420000E+03	7.357735E-15	2.038017E-16
5.430000E+03	7.345212E-15	2.072416E-16
5.440000E+03	7.333883E-15	2.111298E-16
5.450000E+03	7.323787E-15	2.153783E-16
5.460000E+03	7.314690E-15	2.198974E-16
5.470000E+03	7.306461E-15	2.246081E-16
5.480000E+03	7.299286E-15	2.294502E-16
5.490000E+03	7.293012E-15	2.343630E-16
5.500000E+03	7.287737E-15	2.393028E-16
5.510000E+03	7.283375E-15	2.442286E-16
5.520000E+03	7.280031E-15	2.491132E-16
5.530000E+03	7.277415E-15	2.539229E-16
5.540000E+03	7.275437E-15	2.586358E-16
5.550000E+03	7.273848E-15	2.632290E-16
5.560000E+03	7.272611E-15	2.676910E-16
5.570000E+03	7.271393E-15	2.720023E-16
5.580000E+03	7.270009E-15	2.761510E-16
5.590000E+03	7.268208E-15	2.801245E-16
5.600000E+03	7.265899E-15	2.839178E-16
5.610000E+03	7.262781E-15	2.875185E-16
5.620000E+03	7.258718E-15	2.909213E-16
5.630000E+03	7.253595E-15	2.941224E-16
5.640000E+03	7.247241E-15	2.971156E-16
5.650000E+03	7.239581E-15	2.998990E-16
5.660000E+03	7.230408E-15	3.024649E-16
5.670000E+03	7.219689E-15	3.048126E-16
5.680000E+03	7.207407E-15	3.069420E-16
5.690000E+03	7.193489E-15	3.088500E-16
5.700000E+03	7.177878E-15	3.105338E-16
5.710000E+03	7.160529E-15	3.119910E-16
5.720000E+03	7.141561E-15	3.132256E-16
5.730000E+03	7.120801E-15	3.142283E-16
5.740000E+03	7.098385E-15	3.150033E-16
5.750000E+03	7.074304E-15	3.155479E-16
5.760000E+03	7.048479E-15	3.158558E-16
5.770000E+03	7.020987E-15	3.159274E-16
5.780000E+03	6.991907E-15	3.157632E-16
5.790000E+03	6.961172E-15	3.153567E-16
5.800000E+03	6.928793E-15	3.147052E-16
5.810000E+03	6.894939E-15	3.138127E-16
5.820000E+03	6.859482E-15	3.126703E-16
5.830000E+03	6.822529E-15	3.112795E-16
5.840000E+03	6.784121E-15	3.096395E-16
5.850000E+03	6.744310E-15	3.077498E-16
5.860000E+03	6.703236E-15	3.056148E-16
5.870000E+03	6.660831E-15	3.032295E-16
5.880000E+03	6.617340E-15	3.006036E-16
5.890000E+03	6.572804E-15	2.977383E-16
5.900000E+03	6.527358E-15	2.946391E-16
5.910000E+03	6.481156E-15	2.913133E-16
5.920000E+03	6.434372E-15	2.877691E-16
5.930000E+03	6.387272E-15	2.840196E-16
5.940000E+03	6.339923E-15	2.800691E-16
5.950000E+03	6.292556E-15	2.759296E-16
5.960000E+03	6.245488E-15	2.716174E-16
5.970000E+03	6.198978E-15	2.671460E-16
5.980000E+03	6.153150E-15	2.625235E-16
5.990000E+03	6.108420E-15	2.577707E-16
6.000000E+03	6.064853E-15	2.528937E-16
6.010000E+03	6.022933E-15	2.479162E-16
6.020000E+03	5.982715E-15	2.428446E-16
6.030000E+03	5.944454E-15	2.376938E-16
6.040000E+03	5.908456E-15	2.324815E-16
6.050000E+03	5.874868E-15	2.272198E-16
6.060000E+03	5.843879E-15	2.219235E-16
6.070000E+03	5.815511E-15	2.166026E-16
6.080000E+03	5.790028E-15	2.112785E-16
6.090000E+03	5.767310E-15	2.059606E-16
6.100000E+03	5.747544E-15	2.006726E-16
6.110000E+03	5.730665E-15	1.954330E-16
6.120000E+03	5.716565E-15	1.902632E-16
6.130000E+03	5.705156E-15	1.851904E-16
6.140000E+03	5.696379E-15	1.802479E-16
6.150000E+03	5.689987E-15	1.754689E-16
6.160000E+03	5.685759E-15	1.708928E-16
6.170000E+03	5.683579E-15	1.665671E-16
6.180000E+03	5.683007E-15	1.625329E-16
6.190000E+03	5.683789E-15	1.588383E-16
6.200000E+03	5.685649E-15	1.555284E-16
6.210000E+03	5.688296E-15	1.526416E-16
6.220000E+03	5.691290E-15	1.502012E-16
6.230000E+03	5.694265E-15	1.482178E-16
6.240000E+03	5.696945E-15	1.466852E-16
6.250000E+03	5.698923E-15	1.455737E-16
6.260000E+03	5.699971E-15	1.448387E-16
6.270000E+03	5.699816E-15	1.444177E-16
6.280000E+03	5.698293E-15	1.442393E-16
6.290000E+03	5.695196E-15	1.442248E-16
6.300000E+03	5.690353E-15	1.442963E-16
6.310000E+03	5.683701E-15	1.443833E-16
6.320000E+03	5.675209E-15	1.444257E-16
6.330000E+03	5.664724E-15	1.443721E-16
6.340000E+03	5.652274E-15	1.441905E-16
6.350000E+03	5.637918E-15	1.438659E-16
6.360000E+03	5.621585E-15	1.433961E-16
6.370000E+03	5.603463E-15	1.428027E-16
6.380000E+03	5.583607E-15	1.421197E-16
6.390000E+03	5.562088E-15	1.413966E-16
6.400000E+03	5.538998E-15	1.406964E-16
6.410000E+03	5.514598E-15	1.400964E-16
6.420000E+03	5.488923E-15	1.396739E-16
6.430000E+03	5.462252E-15	1.395133E-16
6.440000E+03	5.434707E-15	1.396900E-16
6.450000E+03	5.406408E-15	1.402681E-16
6.460000E+03	5.377552E-15	1.412973E-16
6.470000E+03	5.348245E-15	1.428047E-16
6.480000E+03	5.318669E-15	1.447977E-16
6.490000E+03	5.288751E-15	1.472562E-16
6.500000E+03	5.258734E-15	1.501516E-16
6.510000E+03	5.228691E-15	1.534374E-16
6.520000E+03	5.198607E-15	1.570567E-16
6.530000E+03	5.168623E-15	1.609534E-16
6.540000E+03	5.138796E-15	1.650692E-16
6.550000E+03	5.109176E-15	1.693482E-16
6.560000E+03	5.079813E-15	1.737387E-16
6.570000E+03	5.050834E-15	1.781974E-16
6.580000E+03	5.022201E-15	1.826810E-16
6.590000E+03	4.993954E-15	1.871546E-16
6.600000E+03	4.966217E-15	1.915918E-16
6.610000E+03	4.939025E-15	1.959682E-16
6.620000E+03	4.912334E-15	2.002606E-16
6.630000E+03	4.886260E-15	2.044562E-16
6.640000E+03	4.860753E-15	2.085389E-16
6.650000E+03	4.836008E-15	2.125062E-16
6.660000E+03	4.811891E-15	2.163437E-16
6.670000E+03	4.788429E-15	2.200464E-16
6.680000E+03	4.765729E-15	2.236146E-16
6.690000E+03	4.743815E-15	2.270465E-16
6.700000E+03	4.722626E-15	2.303377E-16
6.710000E+03	4.702182E-15	2.334885E-16
6.720000E+03	4.682581E-15	2.365039E-16
6.730000E+03	4.663756E-15	2.393816E-16
6.740000E+03	4.645801E-15	2.421278E-16
6.750000E+03	4.628559E-15	2.447365E-16
6.760000E+03	4.612203E-15	2.472187E-16
6.770000E+03	4.596571E-15	2.495684E-16
6.780000E+03	4.581827E-15	2.517971E-16
6.790000E+03	4.567805E-15	2.538984E-16
6.800000E+03	4.554581E-15	2.558792E-16
6.810000E+03	4.542147E-15	2.577419E-16
6.820000E+03	4.530410E-15	2.594839E-16
6.830000E+03	4.519437E-15	2.611117E-16
6.840000E+03	4.509130E-15	2.626221E-16
6.850000E+03	4.499553E-15	2.640214E-16
6.860000E+03	4.490517E-15	2.653009E-16
6.870000E+03	4.482167E-15	2.664711E-16
6.880000E+03	4.474393E-15	2.675277E-16
6.890000E+03	4.467168E-15	2.684710E-16
6.900000E+03	4.460379E-15	2.692960E-16
6.910000E+03	4.454166E-15	2.700126E-16
6.920000E+03	4.448242E-15	2.706052E-16
6.930000E+03	4.442831E-15	2.710885E-16
6.940000E+03	4.437730E-15	2.714516E-16
6.950000E+03	4.432904E-15	2.716934E-16
6.960000E+03	4.428407E-15	2.718182E-16
6.970000E+03	4.424118E-15	2.718196E-16
6.980000E+03	4.420005E-15	2.716965E-16
6.990000E+03	4.416032E-15	2.714474E-16
7.000000E+03	4.412167E-15	2.710711E-16
7.010000E+03	4.408378E-15	2.705663E-16
7.020000E+03	4.404547E-15	2.699263E-16
7.030000E+03	4.400815E-15	2.691604E-16
7.040000E+03	4.396894E-15	2.682516E-16
7.050000E+03	4.393015E-15	2.672146E-16
7.060000E+03	4.388891E-15	2.660323E-16
7.070000E+03	4.384671E-15	2.647144E-16
7.080000E+03	4.380244E-15	2.632548E-16
7.090000E+03	4.375588E-15	2.616528E-16
7.100000E+03	4.370772E-15	2.599131E-16
7.110000E+03	4.365604E-15	2.580248E-16
7.120000E+03	4.360156E-15	2.559929E-16
7.130000E+03	4.354329E-15	2.538123E-16
7.140000E+03	4.348200E-15	2.514883E-16
7.150000E+03	4.341763E-15	2.490214E-16
7.160000E+03	4.334927E-15	2.464069E-16
7.170000E+03	4.327779E-15	2.436509E-16
7.180000E+03	4.320145E-15	2.407443E-16
7.190000E+03	4.312207E-15	2.376984E-16
7.200000E+03	4.303886E-15	2.345097E-16
7.210000E+03	4.295106E-15	2.311752E-16
7.220000E+03	4.285971E-15	2.277017E-16
7.230000E+03	4.276499E-15	2.240913E-16
7.240000E+03	4.266625E-15	2.203419E-16
7.250000E+03	4.256373E-15	2.164561E-16
7.260000E+03	4.245770E-15	2.124370E-16
7.270000E+03	4.234848E-15	2.082878E-16
7.280000E+03	4.223638E-15	2.040119E-16
7.290000E+03	4.211999E-15	1.996047E-16
7.300000E+03	4.200141E-15	1.950791E-16
7.310000E+03	4.188014E-15	1.904356E-16
7.320000E+03	4.175565E-15	1.856756E-16
7.330000E+03	4.162918E-15	1.808093E-16
7.340000E+03	4.149930E-15	1.758361E-16
7.350000E+03	4.136634E-15	1.707647E-16
7.360000E+03	4.123056E-15	1.656051E-16
7.370000E+03	4.109131E-15	1.603661E-16
7.380000E+03	4.094964E-15	1.550654E-16
7.390000E+03	4.080304E-15	1.497111E-16
7.400000E+03	4.065325E-15	1.443313E-16
7.410000E+03	4.049848E-15	1.389465E-16
7.420000E+03	4.033942E-15	1.335920E-16
7.430000E+03	4.017494E-15	1.283042E-16
7.440000E+03	4.000467E-15	1.231303E-16
7.450000E+03	3.982900E-15	1.181291E-16
7.460000E+03	3.964648E-15	1.133638E-16
7.470000E+03	3.945901E-15	1.089168E-16
7.480000E+03	3.926416E-15	1.048664E-16
7.490000E+03	3.906284E-15	1.013059E-16
7.500000E+03	3.885339E-15	9.832183E-17
7.510000E+03	3.863754E-15	9.600228E-17
7.520000E+03	3.841367E-15	9.441074E-17
7.530000E+03	3.818108E-15	9.358804E-17
7.540000E+03	3.794001E-15	9.354544E-17
7.550000E+03	3.768997E-15	9.425800E-17
7.560000E+03	3.743224E-15	9.567343E-17
7.570000E+03	3.716490E-15	9.770652E-17
7.580000E+03	3.688862E-15	1.002629E-16
7.590000E+03	3.660418E-15	1.032424E-16
7.600000E+03	3.631078E-15	1.065421E-16
7.610000E+03	3.600932E-15	1.100703E-16
7.620000E+03	3.569918E-15	1.137412E-16
7.630000E+03	3.538216E-15	1.174873E-16
7.640000E+03	3.505695E-15	1.212425E-16
7.650000E+03	3.472546E-15	1.249619E-16
7.660000E+03	3.438647E-15	1.285991E-16
7.670000E+03	3.404198E-15	1.321272E-16
7.680000E+03	3.369088E-15	1.355152E-16
7.690000E+03	3.333523E-15	1.387496E-16
7.700000E+03	3.297478E-15	1.418135E-16
7.710000E+03	3.261012E-15	1.446969E-16
7.720000E+03	3.224183E-15	1.473935E-16
7.730000E+03	3.187054E-15	1.499000E-16
7.740000E+03	3.149690E-15	1.522154E-16
7.750000E+03	3.112082E-15	1.543374E-16
7.760000E+03	3.074443E-15	1.562760E-16
