#wls	flux	fluxerr
1.600000E+03	7.598215E-15	1.773264E-15
1.640000E+03	6.939870E-15	1.494521E-15
1.680000E+03	6.309509E-15	1.245542E-15
1.720000E+03	5.710862E-15	1.025683E-15
1.760000E+03	5.147553E-15	8.339632E-16
1.800000E+03	4.621846E-15	6.689064E-16
1.840000E+03	4.135744E-15	5.288237E-16
1.880000E+03	3.690394E-15	4.118015E-16
1.920000E+03	3.285894E-15	3.157976E-16
1.960000E+03	2.922096E-15	2.388446E-16
2.000000E+03	2.598330E-15	1.791120E-16
2.040000E+03	2.313614E-15	1.349844E-16
2.080000E+03	2.066733E-15	1.049509E-16
2.120000E+03	1.858271E-15	8.688620E-17
2.160000E+03	1.693471E-15	7.715532E-17
2.200000E+03	1.576618E-15	7.270496E-17
2.240000E+03	1.510416E-15	7.194826E-17
2.280000E+03	1.497794E-15	7.445168E-17
2.320000E+03	1.539264E-15	7.975407E-17
2.360000E+03	1.634545E-15	8.722371E-17
2.400000E+03	1.785543E-15	9.636801E-17
2.440000E+03	1.995613E-15	1.067349E-16
2.480000E+03	2.268399E-15	1.179820E-16
2.520000E+03	2.606322E-15	1.302549E-16
2.560000E+03	3.008112E-15	1.449696E-16
2.600000E+03	3.467031E-15	1.658310E-16
2.640000E+03	3.969100E-15	1.986111E-16
2.680000E+03	4.499099E-15	2.464945E-16
2.720000E+03	5.043347E-15	3.082940E-16
2.760000E+03	5.586760E-15	3.805923E-16
2.800000E+03	6.114061E-15	4.588695E-16
2.840000E+03	6.610626E-15	5.381412E-16
2.880000E+03	7.063913E-15	6.134284E-16
2.920000E+03	7.465583E-15	6.802583E-16
2.960000E+03	7.813067E-15	7.351095E-16
3.000000E+03	8.108187E-15	7.755060E-16
3.010000E+03	8.174260E-15	7.831496E-16
3.020000E+03	8.237772E-15	7.898106E-16
3.030000E+03	8.298395E-15	7.954370E-16
3.040000E+03	8.356390E-15	8.000363E-16
3.050000E+03	8.412211E-15	8.036368E-16
3.060000E+03	8.465566E-15	8.061976E-16
3.070000E+03	8.516923E-15	8.077532E-16
3.080000E+03	8.566382E-15	8.083048E-16
3.090000E+03	8.614053E-15	8.078565E-16
3.100000E+03	8.660051E-15	8.064153E-16
3.110000E+03	8.704859E-15	8.040238E-16
3.120000E+03	8.748424E-15	8.006764E-16
3.130000E+03	8.791056E-15	7.964025E-16
3.140000E+03	8.832895E-15	7.912170E-16
3.150000E+03	8.874087E-15	7.851369E-16
3.160000E+03	8.914952E-15	7.781958E-16
3.170000E+03	8.955813E-15	7.704275E-16
3.180000E+03	8.996494E-15	7.618240E-16
3.190000E+03	9.037661E-15	7.524499E-16
3.200000E+03	9.079316E-15	7.423138E-16
3.210000E+03	9.121794E-15	7.314526E-16
3.220000E+03	9.165274E-15	7.198909E-16
3.230000E+03	9.209784E-15	7.076421E-16
3.240000E+03	9.255986E-15	6.947692E-16
3.250000E+03	9.303610E-15	6.812645E-16
3.260000E+03	9.353323E-15	6.671912E-16
3.270000E+03	9.405330E-15	6.525781E-16
3.280000E+03	9.459547E-15	6.374354E-16
3.290000E+03	9.516648E-15	6.218268E-16
3.300000E+03	9.576568E-15	6.057671E-16
3.310000E+03	9.639696E-15	5.893034E-16
3.320000E+03	9.706282E-15	5.724758E-16
3.330000E+03	9.776730E-15	5.553357E-16
3.340000E+03	9.851165E-15	5.379223E-16
3.350000E+03	9.929869E-15	5.202883E-16
3.360000E+03	1.001314E-14	5.024924E-16
3.370000E+03	1.010141E-14	4.846069E-16
3.380000E+03	1.019486E-14	4.666987E-16
3.390000E+03	1.029382E-14	4.488520E-16
3.400000E+03	1.039864E-14	4.311625E-16
3.410000E+03	1.050951E-14	4.137343E-16
3.420000E+03	1.062683E-14	3.966934E-16
3.430000E+03	1.075095E-14	3.801834E-16
3.440000E+03	1.088213E-14	3.643627E-16
3.450000E+03	1.102079E-14	3.494148E-16
3.460000E+03	1.116721E-14	3.355387E-16
3.470000E+03	1.132167E-14	3.229498E-16
3.480000E+03	1.148442E-14	3.118347E-16
3.490000E+03	1.165514E-14	3.021948E-16
3.500000E+03	8.645486E-15	7.345473E-16
3.500774E+03	8.680271E-15	7.358480E-16
3.501548E+03	8.714703E-15	7.371262E-16
3.502322E+03	8.748781E-15	7.383814E-16
3.503096E+03	8.784650E-15	7.397307E-16
3.503870E+03	8.823027E-15	7.412130E-16
3.504644E+03	8.861765E-15	7.427113E-16
3.505419E+03	8.898004E-15	7.440699E-16
3.506193E+03	8.934246E-15	7.454251E-16
3.506967E+03	8.973712E-15	7.469518E-16
3.507741E+03	9.014970E-15	7.485724E-16
3.508515E+03	9.056233E-15	7.501891E-16
3.509289E+03	9.097858E-15	7.518217E-16
3.510063E+03	9.136266E-15	7.532760E-16
3.510837E+03	9.177184E-15	7.548625E-16
3.511611E+03	9.222758E-15	7.566980E-16
3.512385E+03	9.275136E-15	7.588987E-16
3.513159E+03	9.322510E-15	7.608237E-16
3.513933E+03	9.374898E-15	7.630171E-16
3.514707E+03	9.422998E-15	7.649732E-16
3.515482E+03	9.471818E-15	7.669642E-16
3.516256E+03	9.525296E-15	7.692042E-16
3.517030E+03	9.580928E-15	7.715566E-16
3.517804E+03	9.636566E-15	7.739053E-16
3.518578E+03	9.695432E-15	7.764247E-16
3.519352E+03	9.755736E-15	7.790180E-16
3.520126E+03	9.819627E-15	7.818020E-16
3.520900E+03	9.882451E-15	7.845235E-16
3.521674E+03	9.947429E-15	7.873577E-16
3.522448E+03	1.000919E-14	7.900126E-16
3.523222E+03	1.007382E-14	7.928189E-16
3.523997E+03	1.014097E-14	7.957574E-16
3.524771E+03	1.020669E-14	7.986139E-16
3.525545E+03	1.026956E-14	8.023944E-16
3.526319E+03	1.033780E-14	8.001396E-16
3.527093E+03	1.040677E-14	7.989332E-16
3.527867E+03	1.047538E-14	8.013509E-16
3.528641E+03	1.054651E-14	8.014306E-16
3.529415E+03	1.061514E-14	8.014392E-16
3.530189E+03	1.068413E-14	8.048790E-16
3.530963E+03	1.075779E-14	8.081850E-16
3.531737E+03	1.083361E-14	8.046528E-16
3.532511E+03	1.091087E-14	8.074337E-16
3.533285E+03	1.098348E-14	8.125638E-16
3.534060E+03	1.105609E-14	8.193802E-16
3.534834E+03	1.113194E-14	8.229290E-16
3.535608E+03	1.121103E-14	8.295056E-16
3.536382E+03	1.128832E-14	8.337004E-16
3.537156E+03	1.136455E-14	8.271814E-16
3.537930E+03	1.143506E-14	8.306115E-16
3.538704E+03	1.151059E-14	8.382945E-16
3.539478E+03	1.158792E-14	8.470970E-16
3.540252E+03	1.166095E-14	8.535060E-16
3.541026E+03	1.173399E-14	8.596365E-16
3.541800E+03	1.181852E-14	8.724813E-16
3.542575E+03	1.189731E-14	8.812505E-16
3.543348E+03	1.197289E-14	8.876322E-16
3.544123E+03	1.204776E-14	8.926783E-16
3.544897E+03	1.212156E-14	8.968499E-16
3.545671E+03	1.219895E-14	8.996308E-16
3.546445E+03	1.227778E-14	9.030828E-16
3.547219E+03	1.235268E-14	9.052041E-16
3.547993E+03	1.243225E-14	9.105162E-16
3.548767E+03	1.250967E-14	9.149242E-16
3.549541E+03	1.258746E-14	9.194531E-16
3.550315E+03	1.266347E-14	9.208638E-16
3.551089E+03	1.273625E-14	9.231206E-16
3.551863E+03	1.280976E-14	9.191293E-16
3.552637E+03	1.287825E-14	9.176437E-16
3.553411E+03	1.294639E-14	9.172712E-16
3.554186E+03	1.301634E-14	9.110984E-16
3.554960E+03	1.308700E-14	9.198377E-16
3.555734E+03	1.315803E-14	9.208257E-16
3.556508E+03	1.322584E-14	9.249016E-16
3.557282E+03	1.329904E-14	9.308707E-16
3.558056E+03	1.336902E-14	9.335084E-16
3.558830E+03	1.343542E-14	9.372801E-16
3.559604E+03	1.350002E-14	9.425635E-16
3.560378E+03	1.356894E-14	9.393555E-16
3.561152E+03	1.363500E-14	9.403714E-16
3.561926E+03	1.369998E-14	9.477829E-16
3.562700E+03	1.375995E-14	9.551035E-16
3.563475E+03	1.381812E-14	9.572763E-16
3.564249E+03	1.388456E-14	9.621366E-16
3.565023E+03	1.394670E-14	9.615476E-16
3.565797E+03	1.400525E-14	9.634519E-16
3.566571E+03	1.406165E-14	9.674458E-16
3.567345E+03	1.411770E-14	9.697741E-16
3.568119E+03	1.416873E-14	9.714047E-16
3.568893E+03	1.421796E-14	9.742186E-16
3.569667E+03	1.426504E-14	9.697522E-16
3.570441E+03	1.430782E-14	9.710163E-16
3.571215E+03	1.434988E-14	9.770533E-16
3.571990E+03	1.439195E-14	9.887179E-16
3.572763E+03	1.443222E-14	9.910399E-16
3.573538E+03	1.446675E-14	9.960710E-16
3.574311E+03	1.450416E-14	9.984805E-16
3.575086E+03	1.453869E-14	9.960486E-16
3.575860E+03	1.457395E-14	9.980645E-16
3.576634E+03	1.460885E-14	1.002761E-15
3.577408E+03	1.464088E-14	1.003367E-15
3.578182E+03	1.466824E-14	1.004335E-15
3.578956E+03	1.469057E-14	1.005596E-15
3.579730E+03	1.471541E-14	1.008954E-15
3.580504E+03	1.473810E-14	1.010861E-15
3.581278E+03	1.476332E-14	1.010665E-15
3.582052E+03	1.478314E-14	1.010736E-15
3.582826E+03	1.480799E-14	1.010699E-15
3.583601E+03	1.482386E-14	1.009279E-15
3.584375E+03	1.483901E-14	1.009053E-15
3.585149E+03	1.485632E-14	1.007906E-15
3.585923E+03	1.487111E-14	1.012439E-15
3.586697E+03	1.488339E-14	1.015322E-15
3.587471E+03	1.489387E-14	1.015139E-15
3.588245E+03	1.490399E-14	1.014476E-15
3.589019E+03	1.490836E-14	1.010170E-15
3.589793E+03	1.491344E-14	1.005765E-15
3.590567E+03	1.491673E-14	1.003451E-15
3.591341E+03	1.491965E-14	9.959999E-16
3.592115E+03	1.491718E-14	9.880115E-16
3.592890E+03	1.491435E-14	9.821241E-16
3.593664E+03	1.491584E-14	9.786085E-16
3.594438E+03	1.491445E-14	9.713236E-16
3.595212E+03	1.490694E-14	9.664239E-16
3.595986E+03	1.490231E-14	9.653165E-16
3.596760E+03	1.489480E-14	9.597990E-16
3.597534E+03	1.488548E-14	9.500847E-16
3.598308E+03	1.487257E-14	9.443430E-16
3.599082E+03	1.486397E-14	9.428830E-16
3.599856E+03	1.485322E-14	9.380452E-16
3.600630E+03	1.484174E-14	9.331052E-16
3.601405E+03	1.483314E-14	9.368333E-16
3.602178E+03	1.481986E-14	9.349888E-16
3.602953E+03	1.480766E-14	9.335142E-16
3.603727E+03	1.479725E-14	9.336249E-16
3.604501E+03	1.478397E-14	9.315577E-16
3.605275E+03	1.476744E-14	9.347913E-16
3.606049E+03	1.475163E-14	9.397751E-16
3.606823E+03	1.473834E-14	9.376731E-16
3.607597E+03	1.472144E-14	9.359432E-16
3.608371E+03	1.470239E-14	9.339609E-16
3.609145E+03	1.468693E-14	9.345654E-16
3.609919E+03	1.467003E-14	9.381038E-16
3.610693E+03	1.465169E-14	9.357731E-16
3.611468E+03	1.463478E-14	9.310411E-16
3.612242E+03	1.462832E-14	9.278847E-16
3.613016E+03	1.461574E-14	9.289465E-16
3.613790E+03	1.459991E-14	9.425487E-16
3.614564E+03	1.459309E-14	9.466680E-16
3.615338E+03	1.458050E-14	9.483867E-16
3.616112E+03	1.457007E-14	9.580538E-16
3.616886E+03	1.456541E-14	9.715921E-16
3.617660E+03	1.456002E-14	9.702445E-16
3.618434E+03	1.455392E-14	9.680239E-16
3.619208E+03	1.455430E-14	9.741633E-16
3.619982E+03	1.454999E-14	9.827937E-16
3.620756E+03	1.454460E-14	9.889050E-16
3.621530E+03	1.454859E-14	9.784037E-16
3.622305E+03	1.455221E-14	9.760337E-16
3.623079E+03	1.455367E-14	9.768468E-16
3.623853E+03	1.456595E-14	9.726704E-16
3.624627E+03	1.457246E-14	9.706458E-16
3.625401E+03	1.458005E-14	9.657224E-16
3.626175E+03	1.458981E-14	9.585920E-16
3.626949E+03	1.459848E-14	9.575181E-16
3.627723E+03	1.460860E-14	9.565903E-16
3.628497E+03	1.462233E-14	9.641606E-16
3.629271E+03	1.463425E-14	9.678531E-16
3.630045E+03	1.465555E-14	9.661174E-16
3.630819E+03	1.467180E-14	9.677245E-16
3.631593E+03	1.468662E-14	9.685492E-16
3.632368E+03	1.471586E-14	9.724684E-16
3.633142E+03	1.474943E-14	9.670737E-16
3.633916E+03	1.478410E-14	9.638017E-16
3.634690E+03	1.481948E-14	9.648839E-16
3.635464E+03	1.486245E-14	9.699258E-16
3.636238E+03	1.490289E-14	9.709995E-16
3.637012E+03	1.494298E-14	9.703104E-16
3.637786E+03	1.498488E-14	9.595264E-16
3.638560E+03	1.502533E-14	9.605966E-16
3.639334E+03	1.506832E-14	9.572235E-16
3.640108E+03	1.512214E-14	9.659656E-16
3.640883E+03	1.517777E-14	9.707634E-16
3.641657E+03	1.522871E-14	9.721385E-16
3.642431E+03	1.528146E-14	9.731478E-16
3.643205E+03	1.533891E-14	9.774734E-16
3.643979E+03	1.539853E-14	9.768875E-16
3.644753E+03	1.546249E-14	9.757735E-16
3.645527E+03	1.551995E-14	9.700983E-16
3.646301E+03	1.557959E-14	9.669833E-16
3.647075E+03	1.564574E-14	9.615955E-16
3.647849E+03	1.570900E-14	9.634424E-16
3.648623E+03	1.577443E-14	9.636113E-16
3.649398E+03	1.584276E-14	9.608541E-16
3.650171E+03	1.591579E-14	9.627944E-16
3.650946E+03	1.598811E-14	9.656631E-16
3.651720E+03	1.605682E-14	9.702804E-16
3.652494E+03	1.613276E-14	9.788888E-16
3.653268E+03	1.620762E-14	9.867702E-16
3.654042E+03	1.628286E-14	9.894907E-16
3.654816E+03	1.635882E-14	9.919175E-16
3.655590E+03	1.643624E-14	9.982644E-16
3.656364E+03	1.651149E-14	1.002877E-15
3.657138E+03	1.658603E-14	1.015258E-15
3.657912E+03	1.666094E-14	1.018400E-15
3.658686E+03	1.673441E-14	1.047708E-15
3.659460E+03	1.680969E-14	1.056708E-15
3.660234E+03	1.688100E-14	1.068259E-15
3.661008E+03	1.695811E-14	1.088869E-15
3.661783E+03	1.703269E-14	1.110374E-15
3.662557E+03	1.710439E-14	1.131861E-15
3.663331E+03	1.717609E-14	1.147141E-15
3.664105E+03	1.724563E-14	1.171480E-15
3.664879E+03	1.732386E-14	1.184960E-15
3.665653E+03	1.740064E-14	1.200728E-15
3.666427E+03	1.747997E-14	1.213003E-15
3.667201E+03	1.755604E-14	1.233604E-15
3.667975E+03	1.763177E-14	1.245230E-15
3.668749E+03	1.770750E-14	1.254725E-15
3.669523E+03	1.778142E-14	1.279883E-15
3.670298E+03	1.785247E-14	1.296107E-15
3.671072E+03	1.792243E-14	1.302934E-15
3.671846E+03	1.799602E-14	1.320890E-15
3.672620E+03	1.807033E-14	1.327850E-15
3.673394E+03	1.814249E-14	1.337970E-15
3.674168E+03	1.820416E-14	1.340397E-15
3.674942E+03	1.827054E-14	1.352340E-15
3.675716E+03	1.833692E-14	1.358333E-15
3.676490E+03	1.839825E-14	1.357828E-15
3.677264E+03	1.845849E-14	1.359046E-15
3.678038E+03	1.851730E-14	1.341427E-15
3.678812E+03	1.857213E-14	1.324839E-15
3.679586E+03	1.862117E-14	1.313605E-15
3.680361E+03	1.867203E-14	1.300976E-15
3.681135E+03	1.871674E-14	1.293001E-15
3.681909E+03	1.875964E-14	1.274777E-15
3.682683E+03	1.880726E-14	1.269715E-15
3.683457E+03	1.884836E-14	1.261244E-15
3.684231E+03	1.888259E-14	1.245329E-15
3.685005E+03	1.892044E-14	1.226415E-15
3.685779E+03	1.895902E-14	1.221576E-15
3.686553E+03	1.898746E-14	1.214019E-15
3.687327E+03	1.901301E-14	1.209305E-15
3.688101E+03	1.904038E-14	1.194327E-15
3.688876E+03	1.906340E-14	1.177189E-15
3.689649E+03	1.908606E-14	1.187532E-15
3.690424E+03	1.910655E-14	1.187082E-15
3.691198E+03	1.912197E-14	1.191805E-15
3.691972E+03	1.913703E-14	1.194620E-15
3.692746E+03	1.914883E-14	1.196438E-15
3.693520E+03	1.915556E-14	1.194059E-15
3.694294E+03	1.916229E-14	1.197778E-15
3.695068E+03	1.916721E-14	1.196062E-15
3.695842E+03	1.916271E-14	1.191322E-15
3.696616E+03	1.914844E-14	1.195860E-15
3.697390E+03	1.914104E-14	1.195581E-15
3.698164E+03	1.912893E-14	1.193011E-15
3.698939E+03	1.911501E-14	1.188605E-15
3.699713E+03	1.909963E-14	1.188872E-15
3.700487E+03	1.908027E-14	1.190489E-15
3.701261E+03	1.905402E-14	1.196607E-15
3.702035E+03	1.902668E-14	1.204192E-15
3.702809E+03	1.899789E-14	1.209414E-15
3.703583E+03	1.896293E-14	1.216149E-15
3.704357E+03	1.892652E-14	1.215510E-15
3.705131E+03	1.888395E-14	1.221844E-15
3.705905E+03	1.883702E-14	1.226929E-15
3.706679E+03	1.879371E-14	1.240821E-15
3.707453E+03	1.874604E-14	1.268664E-15
3.708227E+03	1.869221E-14	1.273665E-15
3.709001E+03	1.863873E-14	1.276452E-15
3.709776E+03	1.858489E-14	1.276883E-15
3.710550E+03	1.853285E-14	1.281400E-15
3.711324E+03	1.847646E-14	1.279537E-15
3.712098E+03	1.841571E-14	1.281126E-15
3.712872E+03	1.834842E-14	1.283277E-15
3.713646E+03	1.828222E-14	1.279210E-15
3.714420E+03	1.821456E-14	1.282829E-15
3.715194E+03	1.814906E-14	1.280823E-15
3.715968E+03	1.808139E-14	1.271978E-15
3.716742E+03	1.801008E-14	1.256849E-15
3.717516E+03	1.793659E-14	1.250144E-15
3.718291E+03	1.785946E-14	1.243657E-15
3.719064E+03	1.777906E-14	1.216934E-15
3.719839E+03	1.769719E-14	1.192385E-15
3.720613E+03	1.760880E-14	1.182300E-15
3.721387E+03	1.751676E-14	1.161876E-15
3.722161E+03	1.742254E-14	1.143066E-15
3.722935E+03	1.733375E-14	1.124147E-15
3.723709E+03	1.723987E-14	1.111501E-15
3.724483E+03	1.714126E-14	1.083467E-15
3.725257E+03	1.704301E-14	1.059558E-15
3.726031E+03	1.694982E-14	1.035335E-15
3.726805E+03	1.685155E-14	1.007966E-15
3.727579E+03	1.675436E-14	9.929892E-16
3.728354E+03	1.665389E-14	9.667403E-16
3.729127E+03	1.655087E-14	9.379267E-16
3.729902E+03	1.644784E-14	9.172848E-16
3.730676E+03	1.634588E-14	8.910831E-16
3.731450E+03	1.624283E-14	8.652871E-16
3.732224E+03	1.613577E-14	8.517720E-16
3.732998E+03	1.602798E-14	8.385619E-16
3.733772E+03	1.592671E-14	8.269523E-16
3.734546E+03	1.582471E-14	8.176181E-16
3.735320E+03	1.571870E-14	8.029690E-16
3.736094E+03	1.560868E-14	7.933779E-16
3.736868E+03	1.550156E-14	7.934903E-16
3.737642E+03	1.539625E-14	7.860728E-16
3.738416E+03	1.529928E-14	7.788573E-16
3.739191E+03	1.519503E-14	7.813739E-16
3.739965E+03	1.509041E-14	7.812712E-16
3.740739E+03	1.499305E-14	7.846472E-16
3.741513E+03	1.489495E-14	7.855276E-16
3.742287E+03	1.478885E-14	7.841416E-16
3.743061E+03	1.468709E-14	7.808958E-16
3.743835E+03	1.458715E-14	7.813849E-16
3.744609E+03	1.448828E-14	7.842328E-16
3.745383E+03	1.439413E-14	7.827533E-16
3.746157E+03	1.429815E-14	7.785719E-16
3.746931E+03	1.420288E-14	7.826560E-16
3.747706E+03	1.411306E-14	7.883173E-16
3.748479E+03	1.401669E-14	7.935944E-16
3.749254E+03	1.392140E-14	7.995685E-16
3.750028E+03	1.382392E-14	8.018672E-16
3.750802E+03	1.372898E-14	8.038577E-16
3.751576E+03	1.364275E-14	8.066053E-16
3.752350E+03	1.355505E-14	8.056303E-16
3.753124E+03	1.347389E-14	8.053822E-16
3.753898E+03	1.339782E-14	8.056972E-16
3.754672E+03	1.331991E-14	8.031639E-16
3.755446E+03	1.324309E-14	8.017034E-16
3.756220E+03	1.316808E-14	7.937438E-16
3.756994E+03	1.309598E-14	7.689940E-16
3.757769E+03	1.302204E-14	7.614878E-16
3.758543E+03	1.295210E-14	7.665852E-16
3.759317E+03	1.288361E-14	7.653193E-16
3.760091E+03	1.281838E-14	7.562037E-16
3.760865E+03	1.274987E-14	7.526320E-16
3.761639E+03	1.268536E-14	7.441561E-16
3.762413E+03	1.262375E-14	7.332252E-16
3.763187E+03	1.256468E-14	7.241165E-16
3.763961E+03	1.251034E-14	7.115555E-16
3.764735E+03	1.244616E-14	6.975888E-16
3.765509E+03	1.238380E-14	6.919227E-16
3.766283E+03	1.232689E-14	6.896538E-16
3.767057E+03	1.227216E-14	6.851225E-16
3.767831E+03	1.221924E-14	6.766409E-16
3.768606E+03	1.216886E-14	6.703351E-16
3.769380E+03	1.212321E-14	6.629803E-16
3.770154E+03	1.207792E-14	6.537944E-16
3.770928E+03	1.203808E-14	6.379600E-16
3.771702E+03	1.200151E-14	6.235250E-16
3.772476E+03	1.196457E-14	6.193567E-16
3.773250E+03	1.193054E-14	6.138745E-16
3.774024E+03	1.190415E-14	6.069615E-16
3.774798E+03	1.187449E-14	5.983265E-16
3.775572E+03	1.184627E-14	5.913645E-16
3.776346E+03	1.182060E-14	5.872315E-16
3.777121E+03	1.179347E-14	5.756150E-16
3.777894E+03	1.177144E-14	5.706797E-16
3.778669E+03	1.175304E-14	5.685289E-16
3.779443E+03	1.174047E-14	5.634756E-16
3.780217E+03	1.172243E-14	5.640710E-16
3.780991E+03	1.170839E-14	5.617833E-16
3.781765E+03	1.169581E-14	5.617870E-16
3.782539E+03	1.168614E-14	5.548622E-16
3.783313E+03	1.166846E-14	5.527213E-16
3.784087E+03	1.166353E-14	5.546907E-16
3.784861E+03	1.165786E-14	5.522473E-16
3.785635E+03	1.164891E-14	5.489306E-16
3.786409E+03	1.164725E-14	5.484825E-16
3.787184E+03	1.166343E-14	5.503666E-16
3.787957E+03	1.168800E-14	5.495244E-16
3.788732E+03	1.169180E-14	5.490650E-16
3.789506E+03	1.168321E-14	5.490390E-16
3.790280E+03	1.167280E-14	5.489000E-16
3.791054E+03	1.166276E-14	5.485240E-16
3.791828E+03	1.165417E-14	5.478995E-16
3.792602E+03	1.164958E-14	5.477080E-16
3.793376E+03	1.164609E-14	5.483527E-16
3.794150E+03	1.164150E-14	5.471253E-16
3.794924E+03	1.163692E-14	5.463479E-16
3.795698E+03	1.163889E-14	5.458624E-16
3.796472E+03	1.163904E-14	5.445290E-16
3.797247E+03	1.163955E-14	5.464110E-16
3.798021E+03	1.164006E-14	5.460833E-16
3.798795E+03	1.164348E-14	5.430010E-16
3.799569E+03	1.164399E-14	5.428167E-16
3.800343E+03	1.164742E-14	5.449940E-16
3.801117E+03	1.165522E-14	5.471914E-16
3.801891E+03	1.166046E-14	5.480653E-16
3.802665E+03	1.167009E-14	5.479998E-16
3.803439E+03	1.168080E-14	5.472608E-16
3.804213E+03	1.169261E-14	5.497285E-16
3.804987E+03	1.170296E-14	5.520979E-16
3.805762E+03	1.171222E-14	5.609712E-16
3.806536E+03	1.172475E-14	5.683974E-16
3.807310E+03	1.174167E-14	5.699115E-16
3.808084E+03	1.176041E-14	5.673740E-16
3.808858E+03	1.178133E-14	5.687899E-16
3.809632E+03	1.180226E-14	5.691589E-16
3.810406E+03	1.182137E-14	5.697844E-16
3.811180E+03	1.184631E-14	5.725976E-16
3.811954E+03	1.187016E-14	5.753013E-16
3.812728E+03	1.189583E-14	5.767579E-16
3.813502E+03	1.192078E-14	5.777864E-16
3.814276E+03	1.195375E-14	5.787896E-16
3.815050E+03	1.198125E-14	5.815046E-16
3.815825E+03	1.201532E-14	5.833307E-16
3.816599E+03	1.204684E-14	5.837870E-16
3.817373E+03	1.208164E-14	5.855750E-16
3.818147E+03	1.211827E-14	5.860166E-16
3.818921E+03	1.215928E-14	5.863789E-16
3.819695E+03	1.219700E-14	5.878148E-16
3.820469E+03	1.223875E-14	5.911075E-16
3.821243E+03	1.228560E-14	5.926840E-16
3.822017E+03	1.233173E-14	5.918395E-16
3.822791E+03	1.237458E-14	5.926680E-16
3.823565E+03	1.242400E-14	5.939183E-16
3.824339E+03	1.247086E-14	5.944512E-16
3.825113E+03	1.252029E-14	5.939499E-16
3.825887E+03	1.257191E-14	5.960826E-16
3.826662E+03	1.262754E-14	6.008408E-16
3.827436E+03	1.268245E-14	6.001044E-16
3.828210E+03	1.274138E-14	5.997680E-16
3.828984E+03	1.279556E-14	6.011069E-16
3.829758E+03	1.285778E-14	5.977221E-16
