#wls	flux	fluxerr
1.600000E+03	3.030453E-18	2.911577E-19
1.640000E+03	3.036211E-18	2.916656E-19
1.680000E+03	3.048105E-18	2.927610E-19
1.720000E+03	3.066213E-18	2.944510E-19
1.760000E+03	3.090908E-18	2.967712E-19
1.800000E+03	3.122837E-18	2.997832E-19
1.840000E+03	3.161610E-18	3.034491E-19
1.880000E+03	3.208187E-18	3.078605E-19
1.920000E+03	3.262783E-18	3.130375E-19
1.960000E+03	3.325675E-18	3.190060E-19
2.000000E+03	3.396984E-18	3.257768E-19
2.040000E+03	3.477147E-18	3.333913E-19
2.080000E+03	3.566248E-18	3.418567E-19
2.120000E+03	3.664046E-18	3.511490E-19
2.160000E+03	3.771104E-18	3.613211E-19
2.200000E+03	3.887238E-18	3.723547E-19
2.240000E+03	4.012639E-18	3.842668E-19
2.280000E+03	4.148070E-18	3.971294E-19
2.320000E+03	4.294848E-18	4.110675E-19
2.360000E+03	4.455063E-18	4.262796E-19
2.400000E+03	4.631160E-18	4.429979E-19
2.440000E+03	4.825790E-18	4.614739E-19
2.480000E+03	5.042466E-18	4.820410E-19
2.520000E+03	5.284379E-18	5.050017E-19
2.560000E+03	5.555511E-18	5.307331E-19
2.600000E+03	5.859656E-18	5.595933E-19
2.640000E+03	6.201324E-18	5.920089E-19
2.680000E+03	6.585201E-18	6.284216E-19
2.720000E+03	7.016627E-18	6.693349E-19
2.760000E+03	7.501719E-18	7.153252E-19
2.800000E+03	8.047236E-18	7.670284E-19
2.840000E+03	8.660912E-18	8.251723E-19
2.880000E+03	9.352105E-18	8.906372E-19
2.920000E+03	1.013101E-17	9.643809E-19
2.960000E+03	1.101067E-17	1.047629E-18
3.000000E+03	1.200527E-17	1.141714E-18
3.010000E+03	1.227415E-17	1.167143E-18
3.020000E+03	1.255141E-17	1.193360E-18
3.030000E+03	1.283729E-17	1.220390E-18
3.040000E+03	1.313267E-17	1.248314E-18
3.050000E+03	1.343757E-17	1.277134E-18
3.060000E+03	1.375229E-17	1.306880E-18
3.070000E+03	1.407747E-17	1.337611E-18
3.080000E+03	1.441317E-17	1.369331E-18
3.090000E+03	1.475973E-17	1.402074E-18
3.100000E+03	1.511815E-17	1.435934E-18
3.110000E+03	1.548823E-17	1.470890E-18
3.120000E+03	1.587068E-17	1.507010E-18
3.130000E+03	1.626563E-17	1.544305E-18
3.140000E+03	1.667452E-17	1.582912E-18
3.150000E+03	1.709685E-17	1.622783E-18
3.160000E+03	1.753347E-17	1.663997E-18
3.170000E+03	1.798525E-17	1.706637E-18
3.180000E+03	1.845278E-17	1.750757E-18
3.190000E+03	1.893596E-17	1.796348E-18
3.200000E+03	1.943648E-17	1.843569E-18
3.210000E+03	1.995432E-17	1.892416E-18
3.220000E+03	2.049055E-17	1.942991E-18
3.230000E+03	2.104554E-17	1.995329E-18
3.240000E+03	2.162048E-17	2.049540E-18
3.250000E+03	2.221620E-17	2.105702E-18
3.260000E+03	2.283361E-17	2.163900E-18
3.270000E+03	2.347326E-17	2.224187E-18
3.280000E+03	2.413655E-17	2.286692E-18
3.290000E+03	2.482454E-17	2.351516E-18
3.300000E+03	2.553794E-17	2.418724E-18
3.310000E+03	2.627834E-17	2.488465E-18
3.320000E+03	2.704659E-17	2.560818E-18
3.330000E+03	2.784441E-17	2.635945E-18
3.340000E+03	2.867276E-17	2.713935E-18
3.350000E+03	2.953309E-17	2.794923E-18
3.360000E+03	3.042690E-17	2.879051E-18
3.370000E+03	3.135581E-17	2.966468E-18
3.380000E+03	3.232147E-17	3.057330E-18
3.390000E+03	3.332509E-17	3.151748E-18
3.400000E+03	3.436898E-17	3.249939E-18
3.410000E+03	3.545398E-17	3.351980E-18
3.420000E+03	3.658292E-17	3.458137E-18
3.430000E+03	3.775672E-17	3.568494E-18
3.440000E+03	3.897736E-17	3.683234E-18
3.450000E+03	4.024674E-17	3.802536E-18
3.460000E+03	4.156634E-17	3.926536E-18
3.470000E+03	4.293861E-17	4.055463E-18
3.480000E+03	4.436502E-17	4.189451E-18
3.490000E+03	4.584683E-17	4.328617E-18
3.500000E+03	4.738589E-17	4.473133E-18
3.510000E+03	4.898343E-17	4.623110E-18
3.520000E+03	5.064173E-17	4.778761E-18
3.530000E+03	5.236055E-17	4.940059E-18
3.540000E+03	5.414196E-17	5.107195E-18
3.550000E+03	5.598667E-17	5.280233E-18
3.560000E+03	5.789593E-17	5.459286E-18
3.570000E+03	5.986937E-17	5.644315E-18
3.580000E+03	6.190716E-17	5.835332E-18
3.590000E+03	6.401070E-17	6.032465E-18
3.600000E+03	6.617821E-17	6.235543E-18
3.610000E+03	6.841071E-17	6.444654E-18
3.620000E+03	7.070750E-17	6.659732E-18
3.630000E+03	7.306675E-17	6.880597E-18
3.640000E+03	7.548718E-17	7.107125E-18
3.650000E+03	7.796803E-17	7.339242E-18
3.660000E+03	8.050659E-17	7.576685E-18
3.670000E+03	8.310248E-17	7.819416E-18
3.680000E+03	8.575144E-17	8.067030E-18
3.690000E+03	8.845162E-17	8.319348E-18
3.700000E+03	9.119994E-17	8.576076E-18
3.710000E+03	9.399398E-17	8.836984E-18
3.720000E+03	9.682906E-17	9.101627E-18
3.730000E+03	9.970219E-17	9.369721E-18
3.740000E+03	1.026091E-16	9.640859E-18
3.750000E+03	1.055462E-16	9.914703E-18
3.760000E+03	1.085086E-16	1.019080E-17
3.770000E+03	1.114925E-16	1.046876E-17
3.780000E+03	1.144922E-16	1.074808E-17
3.790000E+03	1.175024E-16	1.102824E-17
3.800000E+03	1.205205E-16	1.130900E-17
3.810000E+03	1.235383E-16	1.158959E-17
3.820000E+03	1.265519E-16	1.186964E-17
3.830000E+03	1.295574E-16	1.214878E-17
3.840000E+03	1.325471E-16	1.242630E-17
3.850000E+03	1.355157E-16	1.270169E-17
3.860000E+03	1.384591E-16	1.297457E-17
3.870000E+03	1.413720E-16	1.324444E-17
3.880000E+03	1.442488E-16	1.351079E-17
3.890000E+03	1.470830E-16	1.377299E-17
3.900000E+03	1.498706E-16	1.403069E-17
3.910000E+03	1.526063E-16	1.428338E-17
3.920000E+03	1.552851E-16	1.453059E-17
3.930000E+03	1.579020E-16	1.477187E-17
3.940000E+03	1.604520E-16	1.500675E-17
3.950000E+03	1.629322E-16	1.523496E-17
3.960000E+03	1.653379E-16	1.545607E-17
3.970000E+03	1.676636E-16	1.566956E-17
3.980000E+03	1.699083E-16	1.587534E-17
3.990000E+03	1.720668E-16	1.607294E-17
4.000000E+03	1.741372E-16	1.626218E-17
4.010000E+03	1.761165E-16	1.644278E-17
4.020000E+03	1.780001E-16	1.661434E-17
4.030000E+03	1.797889E-16	1.677692E-17
4.040000E+03	1.814790E-16	1.693017E-17
4.050000E+03	1.830701E-16	1.707408E-17
4.060000E+03	1.845606E-16	1.720851E-17
4.070000E+03	1.859495E-16	1.733335E-17
4.080000E+03	1.872356E-16	1.744852E-17
4.090000E+03	1.884201E-16	1.755411E-17
4.100000E+03	1.895009E-16	1.764997E-17
4.110000E+03	1.904780E-16	1.773607E-17
4.120000E+03	1.913550E-16	1.781277E-17
4.130000E+03	1.921289E-16	1.787980E-17
4.140000E+03	1.928021E-16	1.793739E-17
4.150000E+03	1.933756E-16	1.798563E-17
4.160000E+03	1.938506E-16	1.802465E-17
4.170000E+03	1.942282E-16	1.805456E-17
4.180000E+03	1.945101E-16	1.807551E-17
4.190000E+03	1.946977E-16	1.808766E-17
4.200000E+03	1.947930E-16	1.809119E-17
4.210000E+03	1.947977E-16	1.808626E-17
4.220000E+03	1.947137E-16	1.807307E-17
4.230000E+03	1.945415E-16	1.805166E-17
4.240000E+03	1.942830E-16	1.802222E-17
4.250000E+03	1.939420E-16	1.798511E-17
4.260000E+03	1.935207E-16	1.794053E-17
4.270000E+03	1.930178E-16	1.788838E-17
4.280000E+03	1.924370E-16	1.782901E-17
4.290000E+03	1.917806E-16	1.776262E-17
4.300000E+03	1.910504E-16	1.768942E-17
4.310000E+03	1.902487E-16	1.760959E-17
4.320000E+03	1.893755E-16	1.752316E-17
4.330000E+03	1.884363E-16	1.743064E-17
4.340000E+03	1.874294E-16	1.733188E-17
4.350000E+03	1.863601E-16	1.722737E-17
4.360000E+03	1.852299E-16	1.711727E-17
4.370000E+03	1.840423E-16	1.700189E-17
4.380000E+03	1.827986E-16	1.688137E-17
4.390000E+03	1.815021E-16	1.675601E-17
4.400000E+03	1.801540E-16	1.662595E-17
4.410000E+03	1.787590E-16	1.649160E-17
4.420000E+03	1.773183E-16	1.635308E-17
4.430000E+03	1.758331E-16	1.621051E-17
4.440000E+03	1.743077E-16	1.606430E-17
4.450000E+03	1.727431E-16	1.591455E-17
4.460000E+03	1.711420E-16	1.576150E-17
4.470000E+03	1.695085E-16	1.560553E-17
4.480000E+03	1.678420E-16	1.544659E-17
4.490000E+03	1.661465E-16	1.528506E-17
4.500000E+03	1.644244E-16	1.512117E-17
4.510000E+03	1.626767E-16	1.495499E-17
4.520000E+03	1.609057E-16	1.478677E-17
4.530000E+03	1.591139E-16	1.461671E-17
4.540000E+03	1.573037E-16	1.444505E-17
4.550000E+03	1.554774E-16	1.427201E-17
4.560000E+03	1.536361E-16	1.409767E-17
4.570000E+03	1.517806E-16	1.392213E-17
4.580000E+03	1.499162E-16	1.374588E-17
4.590000E+03	1.480427E-16	1.356888E-17
4.600000E+03	1.461609E-16	1.339123E-17
4.610000E+03	1.442747E-16	1.321328E-17
4.620000E+03	1.423867E-16	1.303526E-17
4.630000E+03	1.404952E-16	1.285702E-17
4.640000E+03	1.386068E-16	1.267917E-17
4.650000E+03	1.367184E-16	1.250143E-17
4.660000E+03	1.348353E-16	1.232428E-17
4.670000E+03	1.329586E-16	1.214783E-17
4.680000E+03	1.310895E-16	1.197216E-17
4.690000E+03	1.292289E-16	1.179740E-17
4.700000E+03	1.273782E-16	1.162365E-17
4.710000E+03	1.255408E-16	1.145122E-17
4.720000E+03	1.237167E-16	1.128010E-17
4.730000E+03	1.219067E-16	1.111039E-17
4.740000E+03	1.201132E-16	1.094229E-17
4.750000E+03	1.183347E-16	1.077567E-17
4.760000E+03	1.165756E-16	1.061093E-17
4.770000E+03	1.148334E-16	1.044783E-17
4.780000E+03	1.131113E-16	1.028666E-17
4.790000E+03	1.114098E-16	1.012749E-17
4.800000E+03	1.097275E-16	9.970162E-18
4.810000E+03	1.080661E-16	9.814852E-18
4.820000E+03	1.064275E-16	9.661707E-18
4.830000E+03	1.048098E-16	9.510576E-18
4.840000E+03	1.032147E-16	9.361595E-18
4.850000E+03	1.016426E-16	9.214803E-18
4.860000E+03	1.000927E-16	9.070130E-18
4.870000E+03	9.856535E-17	8.927608E-18
4.880000E+03	9.706182E-17	8.787342E-18
4.890000E+03	9.558127E-17	8.649259E-18
4.900000E+03	9.412479E-17	8.513455E-18
4.910000E+03	9.269050E-17	8.379757E-18
4.920000E+03	9.127945E-17	8.248259E-18
4.930000E+03	8.989161E-17	8.118956E-18
4.940000E+03	8.852600E-17	7.991758E-18
4.950000E+03	8.718352E-17	7.866742E-18
4.960000E+03	8.586315E-17	7.743817E-18
4.970000E+03	8.456570E-17	7.623052E-18
4.980000E+03	8.329012E-17	7.504351E-18
4.990000E+03	8.203631E-17	7.387704E-18
5.000000E+03	8.080328E-17	7.273017E-18
5.010000E+03	7.959259E-17	7.160432E-18
5.020000E+03	7.840245E-17	7.049782E-18
5.030000E+03	7.723274E-17	6.941058E-18
5.040000E+03	7.608415E-17	6.834318E-18
5.050000E+03	7.495580E-17	6.729481E-18
5.060000E+03	7.384760E-17	6.626538E-18
5.070000E+03	7.275950E-17	6.525481E-18
5.080000E+03	7.169146E-17	6.426305E-18
5.090000E+03	7.064271E-17	6.328939E-18
5.100000E+03	6.961333E-17	6.233389E-18
5.110000E+03	6.860402E-17	6.139715E-18
5.120000E+03	6.761349E-17	6.047799E-18
5.130000E+03	6.664319E-17	5.957769E-18
5.140000E+03	6.569123E-17	5.869454E-18
5.150000E+03	6.475913E-17	5.782988E-18
5.160000E+03	6.384641E-17	5.698326E-18
5.170000E+03	6.295325E-17	5.615481E-18
5.180000E+03	6.207995E-17	5.534478E-18
5.190000E+03	6.122612E-17	5.455281E-18
5.200000E+03	6.039202E-17	5.377910E-18
5.210000E+03	5.957737E-17	5.302336E-18
5.220000E+03	5.878375E-17	5.228701E-18
5.230000E+03	5.800967E-17	5.156866E-18
5.240000E+03	5.725609E-17	5.086917E-18
5.250000E+03	5.652340E-17	5.018884E-18
5.260000E+03	5.581194E-17	4.952796E-18
5.270000E+03	5.512095E-17	4.888582E-18
5.280000E+03	5.445142E-17	4.826327E-18
5.290000E+03	5.380311E-17	4.766007E-18
5.300000E+03	5.317640E-17	4.707652E-18
5.310000E+03	5.257116E-17	4.651250E-18
5.320000E+03	5.198821E-17	4.596868E-18
5.330000E+03	5.142688E-17	4.544445E-18
5.340000E+03	5.088744E-17	4.494000E-18
5.350000E+03	5.036971E-17	4.445517E-18
5.360000E+03	4.987443E-17	4.399055E-18
5.370000E+03	4.940039E-17	4.354506E-18
5.380000E+03	4.894827E-17	4.311927E-18
5.390000E+03	4.851779E-17	4.271289E-18
5.400000E+03	4.810865E-17	4.232562E-18
5.410000E+03	4.771954E-17	4.195628E-18
5.420000E+03	4.735011E-17	4.160454E-18
5.430000E+03	4.699997E-17	4.127002E-18
5.440000E+03	4.666691E-17	4.095074E-18
5.450000E+03	4.635048E-17	4.064630E-18
5.460000E+03	4.604891E-17	4.035510E-18
5.470000E+03	4.576128E-17	4.007634E-18
5.480000E+03	4.548895E-17	3.981116E-18
5.490000E+03	4.523140E-17	3.955908E-18
5.500000E+03	4.498985E-17	3.932117E-18
5.510000E+03	4.476457E-17	3.909762E-18
5.520000E+03	4.455709E-17	3.888973E-18
5.530000E+03	4.436674E-17	3.869691E-18
5.540000E+03	4.419409E-17	3.851960E-18
5.550000E+03	4.403877E-17	3.835747E-18
5.560000E+03	4.390178E-17	3.821135E-18
5.570000E+03	4.378228E-17	3.808048E-18
5.580000E+03	4.368026E-17	3.796481E-18
5.590000E+03	4.359529E-17	3.786396E-18
5.600000E+03	4.352782E-17	3.777825E-18
5.610000E+03	4.347686E-17	3.770682E-18
5.620000E+03	4.344235E-17	3.764958E-18
5.630000E+03	4.342424E-17	3.760645E-18
5.640000E+03	4.342190E-17	3.757686E-18
5.650000E+03	4.343523E-17	3.756069E-18
5.660000E+03	4.346314E-17	3.755698E-18
5.670000E+03	4.350545E-17	3.756553E-18
5.680000E+03	4.356196E-17	3.758614E-18
5.690000E+03	4.363196E-17	3.761818E-18
5.700000E+03	4.371471E-17	3.766098E-18
5.710000E+03	4.380952E-17	3.771392E-18
5.720000E+03	4.391649E-17	3.777706E-18
5.730000E+03	4.403392E-17	3.784892E-18
5.740000E+03	4.416193E-17	3.792957E-18
5.750000E+03	4.429967E-17	3.801827E-18
5.760000E+03	4.444583E-17	3.811387E-18
5.770000E+03	4.460002E-17	3.821602E-18
5.780000E+03	4.476186E-17	3.832438E-18
5.790000E+03	4.492993E-17	3.843770E-18
5.800000E+03	4.510340E-17	3.855528E-18
5.810000E+03	4.528229E-17	3.867711E-18
5.820000E+03	4.546482E-17	3.880167E-18
5.830000E+03	4.565055E-17	3.892856E-18
5.840000E+03	4.583861E-17	3.905705E-18
5.850000E+03	4.602822E-17	3.918645E-18
5.860000E+03	4.621902E-17	3.931646E-18
5.870000E+03	4.640924E-17	3.944556E-18
5.880000E+03	4.659912E-17	3.957397E-18
5.890000E+03	4.678748E-17	3.970069E-18
5.900000E+03	4.697361E-17	3.982510E-18
5.910000E+03	4.715689E-17	3.994669E-18
5.920000E+03	4.733677E-17	4.006500E-18
5.930000E+03	4.751322E-17	4.018000E-18
5.940000E+03	4.768476E-17	4.029046E-18
5.950000E+03	4.785093E-17	4.039599E-18
5.960000E+03	4.801195E-17	4.049679E-18
5.970000E+03	4.816752E-17	4.059262E-18
5.980000E+03	4.831625E-17	4.068232E-18
5.990000E+03	4.845913E-17	4.076675E-18
6.000000E+03	4.859433E-17	4.084435E-18
6.010000E+03	4.872345E-17	4.091651E-18
6.020000E+03	4.884479E-17	4.098179E-18
6.030000E+03	4.895832E-17	4.104022E-18
6.040000E+03	4.906472E-17	4.109235E-18
6.050000E+03	4.916349E-17	4.113780E-18
6.060000E+03	4.925477E-17	4.117669E-18
6.070000E+03	4.933758E-17	4.120823E-18
6.080000E+03	4.941324E-17	4.123354E-18
6.090000E+03	4.948023E-17	4.125135E-18
6.100000E+03	4.953992E-17	4.126284E-18
6.110000E+03	4.959199E-17	4.126775E-18
6.120000E+03	4.963607E-17	4.126582E-18
6.130000E+03	4.967240E-17	4.125722E-18
6.140000E+03	4.970183E-17	4.124270E-18
6.150000E+03	4.972399E-17	4.122198E-18
6.160000E+03	4.973914E-17	4.119527E-18
6.170000E+03	4.974872E-17	4.116380E-18
6.180000E+03	4.975170E-17	4.112672E-18
6.190000E+03	4.974891E-17	4.108473E-18
6.200000E+03	4.974114E-17	4.103850E-18
6.210000E+03	4.972921E-17	4.098873E-18
6.220000E+03	4.971262E-17	4.093500E-18
6.230000E+03	4.969146E-17	4.087740E-18
6.240000E+03	4.966647E-17	4.081656E-18
6.250000E+03	4.963706E-17	4.075201E-18
6.260000E+03	4.960392E-17	4.068431E-18
6.270000E+03	4.956705E-17	4.061348E-18
6.280000E+03	4.952706E-17	4.054003E-18
6.290000E+03	4.948391E-17	4.046394E-18
6.300000E+03	4.943753E-17	4.038516E-18
6.310000E+03	4.938849E-17	4.030415E-18
6.320000E+03	4.933736E-17	4.022141E-18
6.330000E+03	4.928328E-17	4.013622E-18
6.340000E+03	4.922680E-17	4.004905E-18
6.350000E+03	4.916841E-17	3.996030E-18
6.360000E+03	4.910721E-17	3.986926E-18
6.370000E+03	4.904435E-17	3.977685E-18
6.380000E+03	4.897961E-17	3.968291E-18
6.390000E+03	4.891272E-17	3.958724E-18
6.400000E+03	4.884343E-17	3.948962E-18
6.410000E+03	4.877286E-17	3.939098E-18
6.420000E+03	4.870001E-17	3.929050E-18
6.430000E+03	4.862599E-17	3.918910E-18
6.440000E+03	4.855055E-17	3.908658E-18
6.450000E+03	4.847330E-17	3.898264E-18
6.460000E+03	4.839469E-17	3.887763E-18
6.470000E+03	4.831441E-17	3.877131E-18
6.480000E+03	4.823283E-17	3.866400E-18
6.490000E+03	4.814817E-17	3.855426E-18
6.500000E+03	4.806156E-17	3.844302E-18
6.510000E+03	4.797265E-17	3.832999E-18
6.520000E+03	4.788035E-17	3.821432E-18
6.530000E+03	4.778505E-17	3.809634E-18
6.540000E+03	4.768643E-17	3.797578E-18
6.550000E+03	4.758412E-17	3.785239E-18
6.560000E+03	4.747785E-17	3.772594E-18
6.570000E+03	4.736799E-17	3.759675E-18
6.580000E+03	4.725351E-17	3.746401E-18
6.590000E+03	4.713406E-17	3.732746E-18
6.600000E+03	4.701012E-17	3.718750E-18
6.610000E+03	4.688142E-17	3.704392E-18
6.620000E+03	4.674693E-17	3.689593E-18
6.630000E+03	4.660714E-17	3.674393E-18
6.640000E+03	4.646104E-17	3.658715E-18
6.650000E+03	4.631000E-17	3.642667E-18
6.660000E+03	4.615224E-17	3.626113E-18
6.670000E+03	4.598754E-17	3.609037E-18
6.680000E+03	4.581657E-17	3.591493E-18
6.690000E+03	4.563918E-17	3.573472E-18
6.700000E+03	4.545447E-17	3.554905E-18
6.710000E+03	4.526230E-17	3.535783E-18
6.720000E+03	4.506341E-17	3.516168E-18
6.730000E+03	4.485694E-17	3.495993E-18
6.740000E+03	4.464366E-17	3.475321E-18
6.750000E+03	4.442195E-17	3.454028E-18
6.760000E+03	4.419340E-17	3.432241E-18
6.770000E+03	4.395643E-17	3.409838E-18
6.780000E+03	4.371266E-17	3.386949E-18
6.790000E+03	4.346059E-17	3.363459E-18
6.800000E+03	4.320104E-17	3.339434E-18
6.810000E+03	4.293411E-17	3.314884E-18
6.820000E+03	4.265908E-17	3.289756E-18
6.830000E+03	4.237687E-17	3.264124E-18
6.840000E+03	4.208681E-17	3.237937E-18
6.850000E+03	4.178979E-17	3.211267E-18
6.860000E+03	4.148438E-17	3.184007E-18
6.870000E+03	4.117232E-17	3.156291E-18
6.880000E+03	4.085297E-17	3.128075E-18
6.890000E+03	4.052649E-17	3.099371E-18
6.900000E+03	4.019230E-17	3.070137E-18
6.910000E+03	3.985209E-17	3.040507E-18
6.920000E+03	3.950381E-17	3.010324E-18
6.930000E+03	3.914988E-17	2.979776E-18
6.940000E+03	3.878907E-17	2.948770E-18
6.950000E+03	3.842157E-17	2.917324E-18
6.960000E+03	3.804837E-17	2.885513E-18
6.970000E+03	3.766898E-17	2.853305E-18
6.980000E+03	3.728368E-17	2.820721E-18
6.990000E+03	3.689271E-17	2.787781E-18
7.000000E+03	3.649640E-17	2.754512E-18
7.010000E+03	3.609505E-17	2.720937E-18
7.020000E+03	3.568827E-17	2.687031E-18
7.030000E+03	3.527784E-17	2.652928E-18
7.040000E+03	3.486204E-17	2.618499E-18
7.050000E+03	3.444329E-17	2.583928E-18
7.060000E+03	3.401997E-17	2.549094E-18
7.070000E+03	3.359383E-17	2.514131E-18
7.080000E+03	3.316467E-17	2.479024E-18
7.090000E+03	3.273295E-17	2.443807E-18
7.100000E+03	3.229976E-17	2.408564E-18
7.110000E+03	3.186431E-17	2.373236E-18
7.120000E+03	3.142778E-17	2.337911E-18
7.130000E+03	3.099002E-17	2.302578E-18
7.140000E+03	3.055218E-17	2.267323E-18
7.150000E+03	3.011482E-17	2.232188E-18
7.160000E+03	2.967789E-17	2.197169E-18
7.170000E+03	2.924249E-17	2.162347E-18
7.180000E+03	2.880799E-17	2.127676E-18
7.190000E+03	2.837616E-17	2.093284E-18
7.200000E+03	2.794692E-17	2.059167E-18
7.210000E+03	2.752028E-17	2.025323E-18
7.220000E+03	2.709731E-17	1.991831E-18
7.230000E+03	2.667857E-17	1.958731E-18
7.240000E+03	2.626401E-17	1.926018E-18
7.250000E+03	2.585413E-17	1.893727E-18
7.260000E+03	2.544943E-17	1.861894E-18
7.270000E+03	2.505039E-17	1.830552E-18
7.280000E+03	2.465744E-17	1.799732E-18
7.290000E+03	2.427001E-17	1.769389E-18
7.300000E+03	2.388954E-17	1.739627E-18
7.310000E+03	2.351591E-17	1.710436E-18
7.320000E+03	2.314900E-17	1.681805E-18
7.330000E+03	2.278966E-17	1.653793E-18
7.340000E+03	2.243726E-17	1.626354E-18
7.350000E+03	2.209214E-17	1.599509E-18
7.360000E+03	2.175459E-17	1.573278E-18
7.370000E+03	2.142443E-17	1.547645E-18
7.380000E+03	2.110238E-17	1.522662E-18
7.390000E+03	2.078735E-17	1.498245E-18
7.400000E+03	2.048044E-17	1.474474E-18
7.410000E+03	2.018100E-17	1.451299E-18
7.420000E+03	1.988965E-17	1.428764E-18
7.430000E+03	1.960615E-17	1.406847E-18
7.440000E+03	1.933066E-17	1.385560E-18
7.450000E+03	1.906374E-17	1.364939E-18
7.460000E+03	1.880510E-17	1.344962E-18
7.470000E+03	1.855607E-17	1.325723E-18
7.480000E+03	1.831595E-17	1.307167E-18
7.490000E+03	1.808561E-17	1.289356E-18
7.500000E+03	1.786475E-17	1.272265E-18
7.510000E+03	1.765461E-17	1.255981E-18
7.520000E+03	1.745487E-17	1.240477E-18
7.530000E+03	1.726561E-17	1.225759E-18
7.540000E+03	1.708731E-17	1.211855E-18
7.550000E+03	1.692007E-17	1.198773E-18
7.560000E+03	1.676476E-17	1.186570E-18
7.570000E+03	1.662078E-17	1.175201E-18
7.580000E+03	1.648867E-17	1.164701E-18
7.590000E+03	1.636897E-17	1.155107E-18
7.600000E+03	1.626153E-17	1.146404E-18
7.610000E+03	1.616693E-17	1.138630E-18
7.620000E+03	1.608501E-17	1.131772E-18
7.630000E+03	1.601667E-17	1.125889E-18
7.640000E+03	1.596128E-17	1.120935E-18
7.650000E+03	1.591937E-17	1.116944E-18
7.660000E+03	1.588964E-17	1.113822E-18
7.670000E+03	1.587212E-17	1.111569E-18
7.680000E+03	1.586538E-17	1.110082E-18
7.690000E+03	1.586941E-17	1.109359E-18
7.700000E+03	1.588315E-17	1.109323E-18
7.710000E+03	1.590593E-17	1.109926E-18
7.720000E+03	1.593712E-17	1.111122E-18
7.730000E+03	1.597612E-17	1.112868E-18
7.740000E+03	1.602238E-17	1.115123E-18
7.750000E+03	1.607500E-17	1.117825E-18
7.760000E+03	1.613425E-17	1.120991E-18
