#wls	flux	fluxerr
1.600000E+03	1.356065E-18	0.000000E+00
1.640000E+03	1.360606E-18	0.000000E+00
1.680000E+03	1.367920E-18	0.000000E+00
1.720000E+03	1.378051E-18	0.000000E+00
1.760000E+03	1.391180E-18	0.000000E+00
1.800000E+03	1.407606E-18	0.000000E+00
1.840000E+03	1.427167E-18	0.000000E+00
1.880000E+03	1.450308E-18	0.000000E+00
1.920000E+03	1.477138E-18	0.000000E+00
1.960000E+03	1.507793E-18	0.000000E+00
2.000000E+03	1.542341E-18	0.000000E+00
2.040000E+03	1.580993E-18	0.000000E+00
2.080000E+03	1.623795E-18	0.000000E+00
2.120000E+03	1.670647E-18	0.000000E+00
2.160000E+03	1.721815E-18	0.000000E+00
2.200000E+03	1.777223E-18	0.000000E+00
2.240000E+03	1.836959E-18	0.000000E+00
2.280000E+03	1.901375E-18	0.000000E+00
2.320000E+03	1.971078E-18	0.000000E+00
2.360000E+03	2.047023E-18	0.000000E+00
2.400000E+03	2.130337E-18	0.000000E+00
2.440000E+03	2.222236E-18	0.000000E+00
2.480000E+03	2.324335E-18	0.000000E+00
2.520000E+03	2.438100E-18	0.000000E+00
2.560000E+03	2.565360E-18	0.000000E+00
2.600000E+03	2.707852E-18	0.000000E+00
2.640000E+03	2.867641E-18	0.000000E+00
2.680000E+03	3.046863E-18	0.000000E+00
2.720000E+03	3.247954E-18	0.000000E+00
2.760000E+03	3.473701E-18	0.000000E+00
2.800000E+03	3.727176E-18	0.000000E+00
2.840000E+03	4.011898E-18	0.000000E+00
2.880000E+03	4.332136E-18	0.000000E+00
2.920000E+03	4.692546E-18	0.000000E+00
2.960000E+03	5.099109E-18	0.000000E+00
3.000000E+03	5.558357E-18	0.000000E+00
3.010000E+03	5.682458E-18	0.000000E+00
3.020000E+03	5.810398E-18	0.000000E+00
3.030000E+03	5.942303E-18	0.000000E+00
3.040000E+03	6.078573E-18	0.000000E+00
3.050000E+03	6.219220E-18	0.000000E+00
3.060000E+03	6.364389E-18	0.000000E+00
3.070000E+03	6.514375E-18	0.000000E+00
3.080000E+03	6.669202E-18	0.000000E+00
3.090000E+03	6.829039E-18	0.000000E+00
3.100000E+03	6.994352E-18	0.000000E+00
3.110000E+03	7.165044E-18	0.000000E+00
3.120000E+03	7.341453E-18	0.000000E+00
3.130000E+03	7.523642E-18	0.000000E+00
3.140000E+03	7.712279E-18	0.000000E+00
3.150000E+03	7.907142E-18	0.000000E+00
3.160000E+03	8.108625E-18	0.000000E+00
3.170000E+03	8.317141E-18	0.000000E+00
3.180000E+03	8.532962E-18	0.000000E+00
3.190000E+03	8.756053E-18	0.000000E+00
3.200000E+03	8.987197E-18	0.000000E+00
3.210000E+03	9.226390E-18	0.000000E+00
3.220000E+03	9.474129E-18	0.000000E+00
3.230000E+03	9.730601E-18	0.000000E+00
3.240000E+03	9.996346E-18	0.000000E+00
3.250000E+03	1.027176E-17	0.000000E+00
3.260000E+03	1.055727E-17	0.000000E+00
3.270000E+03	1.085312E-17	0.000000E+00
3.280000E+03	1.115996E-17	0.000000E+00
3.290000E+03	1.147828E-17	0.000000E+00
3.300000E+03	1.180841E-17	0.000000E+00
3.310000E+03	1.215106E-17	0.000000E+00
3.320000E+03	1.250663E-17	0.000000E+00
3.330000E+03	1.287588E-17	0.000000E+00
3.340000E+03	1.325926E-17	0.000000E+00
3.350000E+03	1.365740E-17	0.000000E+00
3.360000E+03	1.407098E-17	0.000000E+00
3.370000E+03	1.450071E-17	0.000000E+00
3.380000E+03	1.494732E-17	0.000000E+00
3.390000E+03	1.541134E-17	0.000000E+00
3.400000E+03	1.589378E-17	0.000000E+00
3.410000E+03	1.639498E-17	0.000000E+00
3.420000E+03	1.691622E-17	0.000000E+00
3.430000E+03	1.745787E-17	0.000000E+00
3.440000E+03	1.802077E-17	0.000000E+00
3.450000E+03	1.860578E-17	0.000000E+00
3.460000E+03	1.921349E-17	0.000000E+00
3.470000E+03	1.984503E-17	0.000000E+00
3.480000E+03	2.050099E-17	0.000000E+00
3.490000E+03	2.118193E-17	0.000000E+00
3.500000E+03	2.188868E-17	0.000000E+00
3.510000E+03	2.262177E-17	0.000000E+00
3.520000E+03	2.338222E-17	0.000000E+00
3.530000E+03	2.416992E-17	0.000000E+00
3.540000E+03	2.498582E-17	0.000000E+00
3.550000E+03	2.583026E-17	0.000000E+00
3.560000E+03	2.670384E-17	0.000000E+00
3.570000E+03	2.760642E-17	0.000000E+00
3.580000E+03	2.853809E-17	0.000000E+00
3.590000E+03	2.949958E-17	0.000000E+00
3.600000E+03	3.049012E-17	0.000000E+00
3.610000E+03	3.151025E-17	0.000000E+00
3.620000E+03	3.255971E-17	0.000000E+00
3.630000E+03	3.363776E-17	0.000000E+00
3.640000E+03	3.474389E-17	0.000000E+00
3.650000E+03	3.587788E-17	0.000000E+00
3.660000E+03	3.703858E-17	0.000000E+00
3.670000E+03	3.822592E-17	0.000000E+00
3.680000E+03	3.943811E-17	0.000000E+00
3.690000E+03	4.067437E-17	0.000000E+00
3.700000E+03	4.193345E-17	0.000000E+00
3.710000E+03	4.321437E-17	0.000000E+00
3.720000E+03	4.451515E-17	0.000000E+00
3.730000E+03	4.583451E-17	0.000000E+00
3.740000E+03	4.717069E-17	0.000000E+00
3.750000E+03	4.852215E-17	0.000000E+00
3.760000E+03	4.988687E-17	0.000000E+00
3.770000E+03	5.126313E-17	0.000000E+00
3.780000E+03	5.264862E-17	0.000000E+00
3.790000E+03	5.404090E-17	0.000000E+00
3.800000E+03	5.543904E-17	0.000000E+00
3.810000E+03	5.683937E-17	0.000000E+00
3.820000E+03	5.824025E-17	0.000000E+00
3.830000E+03	5.964002E-17	0.000000E+00
3.840000E+03	6.103529E-17	0.000000E+00
3.850000E+03	6.242374E-17	0.000000E+00
3.860000E+03	6.380358E-17	0.000000E+00
3.870000E+03	6.517244E-17	0.000000E+00
3.880000E+03	6.652797E-17	0.000000E+00
3.890000E+03	6.786715E-17	0.000000E+00
3.900000E+03	6.918824E-17	0.000000E+00
3.910000E+03	7.048886E-17	0.000000E+00
3.920000E+03	7.176673E-17	0.000000E+00
3.930000E+03	7.301957E-17	0.000000E+00
3.940000E+03	7.424515E-17	0.000000E+00
3.950000E+03	7.544201E-17	0.000000E+00
3.960000E+03	7.660809E-17	0.000000E+00
3.970000E+03	7.774070E-17	0.000000E+00
3.980000E+03	7.883935E-17	0.000000E+00
3.990000E+03	7.990156E-17	0.000000E+00
4.000000E+03	8.092636E-17	0.000000E+00
4.010000E+03	8.191218E-17	0.000000E+00
4.020000E+03	8.285686E-17	0.000000E+00
4.030000E+03	8.376054E-17	0.000000E+00
4.040000E+03	8.462129E-17	0.000000E+00
4.050000E+03	8.543881E-17	0.000000E+00
4.060000E+03	8.621215E-17	0.000000E+00
4.070000E+03	8.694051E-17	0.000000E+00
4.080000E+03	8.762322E-17	0.000000E+00
4.090000E+03	8.826050E-17	0.000000E+00
4.100000E+03	8.885119E-17	0.000000E+00
4.110000E+03	8.939494E-17	0.000000E+00
4.120000E+03	8.989317E-17	0.000000E+00
4.130000E+03	9.034422E-17	0.000000E+00
4.140000E+03	9.074895E-17	0.000000E+00
4.150000E+03	9.110747E-17	0.000000E+00
4.160000E+03	9.142002E-17	0.000000E+00
4.170000E+03	9.168694E-17	0.000000E+00
4.180000E+03	9.190861E-17	0.000000E+00
4.190000E+03	9.208554E-17	0.000000E+00
4.200000E+03	9.221826E-17	0.000000E+00
4.210000E+03	9.230738E-17	0.000000E+00
4.220000E+03	9.235353E-17	0.000000E+00
4.230000E+03	9.235664E-17	0.000000E+00
4.240000E+03	9.231743E-17	0.000000E+00
4.250000E+03	9.223747E-17	0.000000E+00
4.260000E+03	9.211759E-17	0.000000E+00
4.270000E+03	9.195695E-17	0.000000E+00
4.280000E+03	9.175720E-17	0.000000E+00
4.290000E+03	9.151918E-17	0.000000E+00
4.300000E+03	9.124375E-17	0.000000E+00
4.310000E+03	9.093173E-17	0.000000E+00
4.320000E+03	9.058315E-17	0.000000E+00
4.330000E+03	9.020044E-17	0.000000E+00
4.340000E+03	8.978286E-17	0.000000E+00
4.350000E+03	8.933277E-17	0.000000E+00
4.360000E+03	8.885099E-17	0.000000E+00
4.370000E+03	8.833907E-17	0.000000E+00
4.380000E+03	8.779775E-17	0.000000E+00
4.390000E+03	8.722856E-17	0.000000E+00
4.400000E+03	8.663223E-17	0.000000E+00
4.410000E+03	8.601097E-17	0.000000E+00
4.420000E+03	8.536547E-17	0.000000E+00
4.430000E+03	8.469638E-17	0.000000E+00
4.440000E+03	8.400588E-17	0.000000E+00
4.450000E+03	8.329455E-17	0.000000E+00
4.460000E+03	8.256379E-17	0.000000E+00
4.470000E+03	8.181566E-17	0.000000E+00
4.480000E+03	8.104999E-17	0.000000E+00
4.490000E+03	8.026885E-17	0.000000E+00
4.500000E+03	7.947350E-17	0.000000E+00
4.510000E+03	7.866452E-17	0.000000E+00
4.520000E+03	7.784315E-17	0.000000E+00
4.530000E+03	7.701069E-17	0.000000E+00
4.540000E+03	7.616837E-17	0.000000E+00
4.550000E+03	7.531744E-17	0.000000E+00
4.560000E+03	7.445843E-17	0.000000E+00
4.570000E+03	7.359190E-17	0.000000E+00
4.580000E+03	7.272048E-17	0.000000E+00
4.590000E+03	7.184400E-17	0.000000E+00
4.600000E+03	7.096301E-17	0.000000E+00
4.610000E+03	7.007944E-17	0.000000E+00
4.620000E+03	6.919449E-17	0.000000E+00
4.630000E+03	6.830738E-17	0.000000E+00
4.640000E+03	6.742129E-17	0.000000E+00
4.650000E+03	6.653480E-17	0.000000E+00
4.660000E+03	6.565042E-17	0.000000E+00
4.670000E+03	6.476865E-17	0.000000E+00
4.680000E+03	6.389003E-17	0.000000E+00
4.690000E+03	6.301507E-17	0.000000E+00
4.700000E+03	6.214428E-17	0.000000E+00
4.710000E+03	6.127939E-17	0.000000E+00
4.720000E+03	6.042026E-17	0.000000E+00
4.730000E+03	5.956737E-17	0.000000E+00
4.740000E+03	5.872173E-17	0.000000E+00
4.750000E+03	5.788262E-17	0.000000E+00
4.760000E+03	5.705219E-17	0.000000E+00
4.770000E+03	5.622910E-17	0.000000E+00
4.780000E+03	5.541488E-17	0.000000E+00
4.790000E+03	5.460985E-17	0.000000E+00
4.800000E+03	5.381325E-17	0.000000E+00
4.810000E+03	5.302592E-17	0.000000E+00
4.820000E+03	5.224870E-17	0.000000E+00
4.830000E+03	5.148076E-17	0.000000E+00
4.840000E+03	5.072286E-17	0.000000E+00
4.850000E+03	4.997522E-17	0.000000E+00
4.860000E+03	4.923750E-17	0.000000E+00
4.870000E+03	4.850988E-17	0.000000E+00
4.880000E+03	4.779301E-17	0.000000E+00
4.890000E+03	4.708649E-17	0.000000E+00
4.900000E+03	4.639090E-17	0.000000E+00
4.910000E+03	4.570539E-17	0.000000E+00
4.920000E+03	4.503048E-17	0.000000E+00
4.930000E+03	4.436623E-17	0.000000E+00
4.940000E+03	4.371221E-17	0.000000E+00
4.950000E+03	4.306891E-17	0.000000E+00
4.960000E+03	4.243589E-17	0.000000E+00
4.970000E+03	4.181359E-17	0.000000E+00
4.980000E+03	4.120159E-17	0.000000E+00
4.990000E+03	4.059986E-17	0.000000E+00
5.000000E+03	4.000800E-17	0.000000E+00
5.010000E+03	3.942682E-17	0.000000E+00
5.020000E+03	3.885549E-17	0.000000E+00
5.030000E+03	3.829401E-17	0.000000E+00
5.040000E+03	3.774277E-17	0.000000E+00
5.050000E+03	3.720139E-17	0.000000E+00
5.060000E+03	3.666986E-17	0.000000E+00
5.070000E+03	3.614819E-17	0.000000E+00
5.080000E+03	3.563643E-17	0.000000E+00
5.090000E+03	3.513420E-17	0.000000E+00
5.100000E+03	3.464158E-17	0.000000E+00
5.110000E+03	3.415896E-17	0.000000E+00
5.120000E+03	3.368568E-17	0.000000E+00
5.130000E+03	3.322252E-17	0.000000E+00
5.140000E+03	3.276852E-17	0.000000E+00
5.150000E+03	3.232447E-17	0.000000E+00
5.160000E+03	3.189010E-17	0.000000E+00
5.170000E+03	3.146554E-17	0.000000E+00
5.180000E+03	3.105089E-17	0.000000E+00
5.190000E+03	3.064595E-17	0.000000E+00
5.200000E+03	3.025088E-17	0.000000E+00
5.210000E+03	2.986550E-17	0.000000E+00
5.220000E+03	2.949056E-17	0.000000E+00
5.230000E+03	2.912528E-17	0.000000E+00
5.240000E+03	2.877018E-17	0.000000E+00
5.250000E+03	2.842535E-17	0.000000E+00
5.260000E+03	2.809098E-17	0.000000E+00
5.270000E+03	2.776663E-17	0.000000E+00
5.280000E+03	2.745277E-17	0.000000E+00
5.290000E+03	2.714927E-17	0.000000E+00
5.300000E+03	2.685626E-17	0.000000E+00
5.310000E+03	2.657364E-17	0.000000E+00
5.320000E+03	2.630183E-17	0.000000E+00
5.330000E+03	2.604039E-17	0.000000E+00
5.340000E+03	2.578950E-17	0.000000E+00
5.350000E+03	2.554899E-17	0.000000E+00
5.360000E+03	2.531925E-17	0.000000E+00
5.370000E+03	2.509960E-17	0.000000E+00
5.380000E+03	2.489042E-17	0.000000E+00
5.390000E+03	2.469151E-17	0.000000E+00
5.400000E+03	2.450271E-17	0.000000E+00
5.410000E+03	2.432335E-17	0.000000E+00
5.420000E+03	2.415325E-17	0.000000E+00
5.430000E+03	2.399220E-17	0.000000E+00
5.440000E+03	2.383907E-17	0.000000E+00
5.450000E+03	2.369362E-17	0.000000E+00
5.460000E+03	2.355496E-17	0.000000E+00
5.470000E+03	2.342261E-17	0.000000E+00
5.480000E+03	2.329728E-17	0.000000E+00
5.490000E+03	2.317868E-17	0.000000E+00
5.500000E+03	2.306748E-17	0.000000E+00
5.510000E+03	2.296380E-17	0.000000E+00
5.520000E+03	2.286847E-17	0.000000E+00
5.530000E+03	2.278112E-17	0.000000E+00
5.540000E+03	2.270208E-17	0.000000E+00
5.550000E+03	2.263118E-17	0.000000E+00
5.560000E+03	2.256893E-17	0.000000E+00
5.570000E+03	2.251491E-17	0.000000E+00
5.580000E+03	2.246914E-17	0.000000E+00
5.590000E+03	2.243141E-17	0.000000E+00
5.600000E+03	2.240197E-17	0.000000E+00
5.610000E+03	2.238033E-17	0.000000E+00
5.620000E+03	2.236647E-17	0.000000E+00
5.630000E+03	2.236036E-17	0.000000E+00
5.640000E+03	2.236173E-17	0.000000E+00
5.650000E+03	2.237055E-17	0.000000E+00
5.660000E+03	2.238626E-17	0.000000E+00
5.670000E+03	2.240881E-17	0.000000E+00
5.680000E+03	2.243812E-17	0.000000E+00
5.690000E+03	2.247385E-17	0.000000E+00
5.700000E+03	2.251567E-17	0.000000E+00
5.710000E+03	2.256323E-17	0.000000E+00
5.720000E+03	2.261666E-17	0.000000E+00
5.730000E+03	2.267512E-17	0.000000E+00
5.740000E+03	2.273870E-17	0.000000E+00
5.750000E+03	2.280705E-17	0.000000E+00
5.760000E+03	2.287953E-17	0.000000E+00
5.770000E+03	2.295597E-17	0.000000E+00
5.780000E+03	2.303626E-17	0.000000E+00
5.790000E+03	2.311972E-17	0.000000E+00
5.800000E+03	2.320598E-17	0.000000E+00
5.810000E+03	2.329514E-17	0.000000E+00
5.820000E+03	2.338630E-17	0.000000E+00
5.830000E+03	2.347931E-17	0.000000E+00
5.840000E+03	2.357380E-17	0.000000E+00
5.850000E+03	2.366941E-17	0.000000E+00
5.860000E+03	2.376600E-17	0.000000E+00
5.870000E+03	2.386272E-17	0.000000E+00
5.880000E+03	2.395973E-17	0.000000E+00
5.890000E+03	2.405647E-17	0.000000E+00
5.900000E+03	2.415261E-17	0.000000E+00
5.910000E+03	2.424787E-17	0.000000E+00
5.920000E+03	2.434196E-17	0.000000E+00
5.930000E+03	2.443492E-17	0.000000E+00
5.940000E+03	2.452596E-17	0.000000E+00
5.950000E+03	2.461487E-17	0.000000E+00
5.960000E+03	2.470174E-17	0.000000E+00
5.970000E+03	2.478641E-17	0.000000E+00
5.980000E+03	2.486816E-17	0.000000E+00
5.990000E+03	2.494746E-17	0.000000E+00
6.000000E+03	2.502332E-17	0.000000E+00
6.010000E+03	2.509654E-17	0.000000E+00
6.020000E+03	2.516621E-17	0.000000E+00
6.030000E+03	2.523224E-17	0.000000E+00
6.040000E+03	2.529495E-17	0.000000E+00
6.050000E+03	2.535401E-17	0.000000E+00
6.060000E+03	2.540942E-17	0.000000E+00
6.070000E+03	2.546062E-17	0.000000E+00
6.080000E+03	2.550823E-17	0.000000E+00
6.090000E+03	2.555138E-17	0.000000E+00
6.100000E+03	2.559072E-17	0.000000E+00
6.110000E+03	2.562600E-17	0.000000E+00
6.120000E+03	2.565698E-17	0.000000E+00
6.130000E+03	2.568370E-17	0.000000E+00
6.140000E+03	2.570656E-17	0.000000E+00
6.150000E+03	2.572527E-17	0.000000E+00
6.160000E+03	2.573992E-17	0.000000E+00
6.170000E+03	2.575119E-17	0.000000E+00
6.180000E+03	2.575850E-17	0.000000E+00
6.190000E+03	2.576224E-17	0.000000E+00
6.200000E+03	2.576275E-17	0.000000E+00
6.210000E+03	2.576040E-17	0.000000E+00
6.220000E+03	2.575494E-17	0.000000E+00
6.230000E+03	2.574633E-17	0.000000E+00
6.240000E+03	2.573496E-17	0.000000E+00
6.250000E+03	2.572048E-17	0.000000E+00
6.260000E+03	2.570322E-17	0.000000E+00
6.270000E+03	2.568316E-17	0.000000E+00
6.280000E+03	2.566063E-17	0.000000E+00
6.290000E+03	2.563556E-17	0.000000E+00
6.300000E+03	2.560793E-17	0.000000E+00
6.310000E+03	2.557801E-17	0.000000E+00
6.320000E+03	2.554611E-17	0.000000E+00
6.330000E+03	2.551177E-17	0.000000E+00
6.340000E+03	2.547526E-17	0.000000E+00
6.350000E+03	2.543687E-17	0.000000E+00
6.360000E+03	2.539613E-17	0.000000E+00
6.370000E+03	2.535363E-17	0.000000E+00
6.380000E+03	2.530929E-17	0.000000E+00
6.390000E+03	2.526295E-17	0.000000E+00
6.400000E+03	2.521453E-17	0.000000E+00
6.410000E+03	2.516458E-17	0.000000E+00
6.420000E+03	2.511261E-17	0.000000E+00
6.430000E+03	2.505925E-17	0.000000E+00
6.440000E+03	2.500432E-17	0.000000E+00
6.450000E+03	2.494770E-17	0.000000E+00
6.460000E+03	2.488961E-17	0.000000E+00
6.470000E+03	2.482991E-17	0.000000E+00
6.480000E+03	2.476883E-17	0.000000E+00
6.490000E+03	2.470546E-17	0.000000E+00
6.500000E+03	2.464039E-17	0.000000E+00
6.510000E+03	2.457349E-17	0.000000E+00
6.520000E+03	2.450422E-17	0.000000E+00
6.530000E+03	2.443280E-17	0.000000E+00
6.540000E+03	2.435911E-17	0.000000E+00
6.550000E+03	2.428297E-17	0.000000E+00
6.560000E+03	2.420427E-17	0.000000E+00
6.570000E+03	2.412323E-17	0.000000E+00
6.580000E+03	2.403936E-17	0.000000E+00
6.590000E+03	2.395249E-17	0.000000E+00
6.600000E+03	2.386293E-17	0.000000E+00
6.610000E+03	2.377053E-17	0.000000E+00
6.620000E+03	2.367480E-17	0.000000E+00
6.630000E+03	2.357604E-17	0.000000E+00
6.640000E+03	2.347375E-17	0.000000E+00
6.650000E+03	2.336864E-17	0.000000E+00
6.660000E+03	2.325984E-17	0.000000E+00
6.670000E+03	2.314730E-17	0.000000E+00
6.680000E+03	2.303131E-17	0.000000E+00
6.690000E+03	2.291188E-17	0.000000E+00
6.700000E+03	2.278853E-17	0.000000E+00
6.710000E+03	2.266126E-17	0.000000E+00
6.720000E+03	2.253041E-17	0.000000E+00
6.730000E+03	2.239562E-17	0.000000E+00
6.740000E+03	2.225727E-17	0.000000E+00
6.750000E+03	2.211455E-17	0.000000E+00
6.760000E+03	2.196830E-17	0.000000E+00
6.770000E+03	2.181776E-17	0.000000E+00
6.780000E+03	2.166374E-17	0.000000E+00
6.790000E+03	2.150551E-17	0.000000E+00
6.800000E+03	2.134349E-17	0.000000E+00
6.810000E+03	2.117778E-17	0.000000E+00
6.820000E+03	2.100803E-17	0.000000E+00
6.830000E+03	2.083472E-17	0.000000E+00
6.840000E+03	2.065752E-17	0.000000E+00
6.850000E+03	2.047695E-17	0.000000E+00
6.860000E+03	2.029231E-17	0.000000E+00
6.870000E+03	2.010446E-17	0.000000E+00
6.880000E+03	1.991314E-17	0.000000E+00
6.890000E+03	1.971847E-17	0.000000E+00
6.900000E+03	1.952019E-17	0.000000E+00
6.910000E+03	1.931917E-17	0.000000E+00
6.920000E+03	1.911443E-17	0.000000E+00
6.930000E+03	1.890722E-17	0.000000E+00
6.940000E+03	1.869694E-17	0.000000E+00
6.950000E+03	1.848376E-17	0.000000E+00
6.960000E+03	1.826818E-17	0.000000E+00
6.970000E+03	1.805002E-17	0.000000E+00
6.980000E+03	1.782943E-17	0.000000E+00
6.990000E+03	1.760661E-17	0.000000E+00
7.000000E+03	1.738171E-17	0.000000E+00
7.010000E+03	1.715496E-17	0.000000E+00
7.020000E+03	1.692619E-17	0.000000E+00
7.030000E+03	1.669627E-17	0.000000E+00
7.040000E+03	1.646443E-17	0.000000E+00
7.050000E+03	1.623187E-17	0.000000E+00
7.060000E+03	1.599781E-17	0.000000E+00
7.070000E+03	1.576316E-17	0.000000E+00
7.080000E+03	1.552780E-17	0.000000E+00
7.090000E+03	1.529198E-17	0.000000E+00
7.100000E+03	1.505625E-17	0.000000E+00
7.110000E+03	1.482023E-17	0.000000E+00
7.120000E+03	1.458449E-17	0.000000E+00
7.130000E+03	1.434897E-17	0.000000E+00
7.140000E+03	1.411422E-17	0.000000E+00
7.150000E+03	1.388048E-17	0.000000E+00
7.160000E+03	1.364772E-17	0.000000E+00
7.170000E+03	1.341647E-17	0.000000E+00
7.180000E+03	1.318642E-17	0.000000E+00
7.190000E+03	1.295837E-17	0.000000E+00
7.200000E+03	1.273226E-17	0.000000E+00
7.210000E+03	1.250809E-17	0.000000E+00
7.220000E+03	1.228634E-17	0.000000E+00
7.230000E+03	1.206723E-17	0.000000E+00
7.240000E+03	1.185071E-17	0.000000E+00
7.250000E+03	1.163701E-17	0.000000E+00
7.260000E+03	1.142632E-17	0.000000E+00
7.270000E+03	1.121883E-17	0.000000E+00
7.280000E+03	1.101471E-17	0.000000E+00
7.290000E+03	1.081370E-17	0.000000E+00
7.300000E+03	1.061639E-17	0.000000E+00
7.310000E+03	1.042272E-17	0.000000E+00
7.320000E+03	1.023262E-17	0.000000E+00
7.330000E+03	1.004644E-17	0.000000E+00
7.340000E+03	9.863876E-18	0.000000E+00
7.350000E+03	9.685061E-18	0.000000E+00
7.360000E+03	9.510104E-18	0.000000E+00
7.370000E+03	9.338913E-18	0.000000E+00
7.380000E+03	9.171783E-18	0.000000E+00
7.390000E+03	9.008221E-18	0.000000E+00
7.400000E+03	8.848699E-18	0.000000E+00
7.410000E+03	8.692917E-18	0.000000E+00
7.420000E+03	8.541135E-18	0.000000E+00
7.430000E+03	8.393233E-18	0.000000E+00
7.440000E+03	8.249270E-18	0.000000E+00
7.450000E+03	8.109475E-18	0.000000E+00
7.460000E+03	7.973715E-18	0.000000E+00
7.470000E+03	7.842537E-18	0.000000E+00
7.480000E+03	7.715626E-18	0.000000E+00
7.490000E+03	7.593338E-18	0.000000E+00
7.500000E+03	7.475524E-18	0.000000E+00
7.510000E+03	7.362685E-18	0.000000E+00
7.520000E+03	7.254665E-18	0.000000E+00
7.530000E+03	7.151472E-18	0.000000E+00
7.540000E+03	7.053277E-18	0.000000E+00
7.550000E+03	6.960087E-18	0.000000E+00
7.560000E+03	6.872223E-18	0.000000E+00
7.570000E+03	6.789389E-18	0.000000E+00
7.580000E+03	6.711751E-18	0.000000E+00
7.590000E+03	6.639470E-18	0.000000E+00
7.600000E+03	6.572404E-18	0.000000E+00
7.610000E+03	6.510699E-18	0.000000E+00
7.620000E+03	6.454188E-18	0.000000E+00
7.630000E+03	6.403115E-18	0.000000E+00
7.640000E+03	6.357103E-18	0.000000E+00
7.650000E+03	6.316303E-18	0.000000E+00
7.660000E+03	6.280243E-18	0.000000E+00
7.670000E+03	6.248984E-18	0.000000E+00
7.680000E+03	6.221990E-18	0.000000E+00
7.690000E+03	6.199287E-18	0.000000E+00
7.700000E+03	6.180467E-18	0.000000E+00
7.710000E+03	6.165273E-18	0.000000E+00
7.720000E+03	6.153451E-18	0.000000E+00
7.730000E+03	6.144764E-18	0.000000E+00
7.740000E+03	6.138982E-18	0.000000E+00
7.750000E+03	6.135746E-18	0.000000E+00
7.760000E+03	6.135141E-18	0.000000E+00
