#wls	flux	fluxerr
1.600000E+03	7.816006E-18	1.317525E-19
1.640000E+03	7.846808E-18	1.321013E-19
1.680000E+03	7.894336E-18	1.327268E-19
1.720000E+03	7.958970E-18	1.336344E-19
1.760000E+03	8.041902E-18	1.348428E-19
1.800000E+03	8.145055E-18	1.363827E-19
1.840000E+03	8.267714E-18	1.382408E-19
1.880000E+03	8.412693E-18	1.404626E-19
1.920000E+03	8.580949E-18	1.430621E-19
1.960000E+03	8.773637E-18	1.460568E-19
2.000000E+03	8.991584E-18	1.494585E-19
2.040000E+03	9.236536E-18	1.532939E-19
2.080000E+03	9.509382E-18	1.575756E-19
2.120000E+03	9.810248E-18	1.623031E-19
2.160000E+03	1.014155E-17	1.675140E-19
2.200000E+03	1.050384E-17	1.732147E-19
2.240000E+03	1.089884E-17	1.794306E-19
2.280000E+03	1.133004E-17	1.862161E-19
2.320000E+03	1.180274E-17	1.936551E-19
2.360000E+03	1.232475E-17	2.018715E-19
2.400000E+03	1.290540E-17	2.110136E-19
2.440000E+03	1.355523E-17	2.212477E-19
2.480000E+03	1.428804E-17	2.327927E-19
2.520000E+03	1.511783E-17	2.458684E-19
2.560000E+03	1.606214E-17	2.607509E-19
2.600000E+03	1.713964E-17	2.777322E-19
2.640000E+03	1.837322E-17	2.971701E-19
2.680000E+03	1.978884E-17	3.194696E-19
2.720000E+03	2.141779E-17	3.451180E-19
2.760000E+03	2.329789E-17	3.747043E-19
2.800000E+03	2.547426E-17	4.089294E-19
2.840000E+03	2.800184E-17	4.486467E-19
2.880000E+03	3.094934E-17	4.949232E-19
2.920000E+03	3.439909E-17	5.490350E-19
2.960000E+03	3.845670E-17	6.126191E-19
3.000000E+03	4.324895E-17	6.876373E-19
3.010000E+03	4.458083E-17	7.084731E-19
3.020000E+03	4.597053E-17	7.302074E-19
3.030000E+03	4.742086E-17	7.528833E-19
3.040000E+03	4.893694E-17	7.765810E-19
3.050000E+03	5.052088E-17	8.013323E-19
3.060000E+03	5.217602E-17	8.271886E-19
3.070000E+03	5.390699E-17	8.542220E-19
3.080000E+03	5.571636E-17	8.824713E-19
3.090000E+03	5.760796E-17	9.119956E-19
3.100000E+03	5.958831E-17	9.428962E-19
3.110000E+03	6.165927E-17	9.752006E-19
3.120000E+03	6.382655E-17	1.008997E-18
3.130000E+03	6.609357E-17	1.044338E-18
3.140000E+03	6.846921E-17	1.081361E-18
3.150000E+03	7.095470E-17	1.120084E-18
3.160000E+03	7.355669E-17	1.160608E-18
3.170000E+03	7.628225E-17	1.203044E-18
3.180000E+03	7.913734E-17	1.247482E-18
3.190000E+03	8.212509E-17	1.293969E-18
3.200000E+03	8.525634E-17	1.342673E-18
3.210000E+03	8.853454E-17	1.393645E-18
3.220000E+03	9.196820E-17	1.447016E-18
3.230000E+03	9.556264E-17	1.502867E-18
3.240000E+03	9.932665E-17	1.561333E-18
3.250000E+03	1.032677E-16	1.622528E-18
3.260000E+03	1.073934E-16	1.686566E-18
3.270000E+03	1.117097E-16	1.753539E-18
3.280000E+03	1.162260E-16	1.823590E-18
3.290000E+03	1.209505E-16	1.896843E-18
3.300000E+03	1.258891E-16	1.973387E-18
3.310000E+03	1.310517E-16	2.053374E-18
3.320000E+03	1.364443E-16	2.136892E-18
3.330000E+03	1.420769E-16	2.224093E-18
3.340000E+03	1.479551E-16	2.315062E-18
3.350000E+03	1.540867E-16	2.409913E-18
3.360000E+03	1.604790E-16	2.508759E-18
3.370000E+03	1.671396E-16	2.611712E-18
3.380000E+03	1.740756E-16	2.718879E-18
3.390000E+03	1.812916E-16	2.830325E-18
3.400000E+03	1.887971E-16	2.946196E-18
3.410000E+03	1.965937E-16	3.066509E-18
3.420000E+03	2.046939E-16	3.191455E-18
3.430000E+03	2.130992E-16	3.321054E-18
3.440000E+03	2.218171E-16	3.455414E-18
3.450000E+03	2.308557E-16	3.594659E-18
3.460000E+03	2.402209E-16	3.738873E-18
3.470000E+03	2.499259E-16	3.888259E-18
3.480000E+03	2.599787E-16	4.042935E-18
3.490000E+03	2.703830E-16	4.202951E-18
3.500000E+03	2.811406E-16	4.368331E-18
3.510000E+03	2.922499E-16	4.539044E-18
3.520000E+03	3.037166E-16	4.715175E-18
3.530000E+03	3.155319E-16	4.896580E-18
3.540000E+03	3.277019E-16	5.083351E-18
3.550000E+03	3.402253E-16	5.275461E-18
3.560000E+03	3.531049E-16	5.472950E-18
3.570000E+03	3.663349E-16	5.675724E-18
3.580000E+03	3.799132E-16	5.883743E-18
3.590000E+03	3.938462E-16	6.097106E-18
3.600000E+03	4.081218E-16	6.315618E-18
3.610000E+03	4.227454E-16	6.539361E-18
3.620000E+03	4.377123E-16	6.768259E-18
3.630000E+03	4.530118E-16	7.002142E-18
3.640000E+03	4.686366E-16	7.240893E-18
3.650000E+03	4.845829E-16	7.484451E-18
3.660000E+03	5.008352E-16	7.732573E-18
3.670000E+03	5.173922E-16	7.985235E-18
3.680000E+03	5.342289E-16	8.242050E-18
3.690000E+03	5.513347E-16	8.502851E-18
3.700000E+03	5.686914E-16	8.767355E-18
3.710000E+03	5.862844E-16	9.035335E-18
3.720000E+03	6.040848E-16	9.306344E-18
3.730000E+03	6.220734E-16	9.580084E-18
3.740000E+03	6.402223E-16	9.856125E-18
3.750000E+03	6.585075E-16	1.013410E-17
3.760000E+03	6.768962E-16	1.041350E-17
3.770000E+03	6.953592E-16	1.069388E-17
3.780000E+03	7.138582E-16	1.097464E-17
3.790000E+03	7.323524E-16	1.125517E-17
3.800000E+03	7.508200E-16	1.153514E-17
3.810000E+03	7.692007E-16	1.181361E-17
3.820000E+03	7.874607E-16	1.209007E-17
3.830000E+03	8.055651E-16	1.236399E-17
3.840000E+03	8.234532E-16	1.263444E-17
3.850000E+03	8.410787E-16	1.290073E-17
3.860000E+03	8.584010E-16	1.316222E-17
3.870000E+03	8.753711E-16	1.341817E-17
3.880000E+03	8.919389E-16	1.366783E-17
3.890000E+03	9.080449E-16	1.391029E-17
3.900000E+03	9.236468E-16	1.414491E-17
3.910000E+03	9.386958E-16	1.437094E-17
3.920000E+03	9.531423E-16	1.458765E-17
3.930000E+03	9.669397E-16	1.479433E-17
3.940000E+03	9.800433E-16	1.499030E-17
3.950000E+03	9.924219E-16	1.517509E-17
3.960000E+03	1.004036E-15	1.534811E-17
3.970000E+03	1.014842E-15	1.550872E-17
3.980000E+03	1.024829E-15	1.565675E-17
3.990000E+03	1.033962E-15	1.579167E-17
4.000000E+03	1.042229E-15	1.591333E-17
4.010000E+03	1.049616E-15	1.602153E-17
4.020000E+03	1.056106E-15	1.611598E-17
4.030000E+03	1.061713E-15	1.619695E-17
4.040000E+03	1.066435E-15	1.626439E-17
4.050000E+03	1.070290E-15	1.631862E-17
4.060000E+03	1.073298E-15	1.635992E-17
4.070000E+03	1.075481E-15	1.638867E-17
4.080000E+03	1.076871E-15	1.640534E-17
4.090000E+03	1.077515E-15	1.641066E-17
4.100000E+03	1.077442E-15	1.640509E-17
4.110000E+03	1.076699E-15	1.638936E-17
4.120000E+03	1.075354E-15	1.636450E-17
4.130000E+03	1.073442E-15	1.633104E-17
4.140000E+03	1.071026E-15	1.628997E-17
4.150000E+03	1.068164E-15	1.624216E-17
4.160000E+03	1.064914E-15	1.618850E-17
4.170000E+03	1.061335E-15	1.612989E-17
4.180000E+03	1.057486E-15	1.606722E-17
4.190000E+03	1.053422E-15	1.600136E-17
4.200000E+03	1.049201E-15	1.593317E-17
4.210000E+03	1.044878E-15	1.586347E-17
4.220000E+03	1.040504E-15	1.579307E-17
4.230000E+03	1.036120E-15	1.572256E-17
4.240000E+03	1.031772E-15	1.565267E-17
4.250000E+03	1.027515E-15	1.558420E-17
4.260000E+03	1.023389E-15	1.551778E-17
4.270000E+03	1.019414E-15	1.545370E-17
4.280000E+03	1.015634E-15	1.539262E-17
4.290000E+03	1.012081E-15	1.533504E-17
4.300000E+03	1.008782E-15	1.528134E-17
4.310000E+03	1.005760E-15	1.523190E-17
4.320000E+03	1.003028E-15	1.518687E-17
4.330000E+03	1.000617E-15	1.514675E-17
4.340000E+03	9.985202E-16	1.511143E-17
4.350000E+03	9.967606E-16	1.508124E-17
4.360000E+03	9.953399E-16	1.505621E-17
4.370000E+03	9.942610E-16	1.503638E-17
4.380000E+03	9.935149E-16	1.502161E-17
4.390000E+03	9.930940E-16	1.501178E-17
4.400000E+03	9.929783E-16	1.500658E-17
4.410000E+03	9.931609E-16	1.500591E-17
4.420000E+03	9.936099E-16	1.500928E-17
4.430000E+03	9.942914E-16	1.501618E-17
4.440000E+03	9.951830E-16	1.502627E-17
4.450000E+03	9.962412E-16	1.503889E-17
4.460000E+03	9.974267E-16	1.505344E-17
4.470000E+03	9.987051E-16	1.506940E-17
4.480000E+03	1.000011E-15	1.508578E-17
4.490000E+03	1.001303E-15	1.510197E-17
4.500000E+03	1.002527E-15	1.511716E-17
4.510000E+03	1.003618E-15	1.513033E-17
4.520000E+03	1.004515E-15	1.514061E-17
4.530000E+03	1.005158E-15	1.514706E-17
4.540000E+03	1.005485E-15	1.514877E-17
4.550000E+03	1.005433E-15	1.514480E-17
4.560000E+03	1.004934E-15	1.513411E-17
4.570000E+03	1.003919E-15	1.511566E-17
4.580000E+03	1.002352E-15	1.508895E-17
4.590000E+03	1.000163E-15	1.505291E-17
4.600000E+03	9.973020E-16	1.500677E-17
4.610000E+03	9.937406E-16	1.495015E-17
4.620000E+03	9.894532E-16	1.488264E-17
4.630000E+03	9.843966E-16	1.480362E-17
4.640000E+03	9.785940E-16	1.471343E-17
4.650000E+03	9.720192E-16	1.461169E-17
4.660000E+03	9.647136E-16	1.449902E-17
4.670000E+03	9.567069E-16	1.437589E-17
4.680000E+03	9.480420E-16	1.424293E-17
4.690000E+03	9.387765E-16	1.410103E-17
4.700000E+03	9.289793E-16	1.395121E-17
4.710000E+03	9.187504E-16	1.379499E-17
4.720000E+03	9.081699E-16	1.363358E-17
4.730000E+03	8.973320E-16	1.346837E-17
4.740000E+03	8.863449E-16	1.330102E-17
4.750000E+03	8.752892E-16	1.313271E-17
4.760000E+03	8.642869E-16	1.296529E-17
4.770000E+03	8.534011E-16	1.279969E-17
4.780000E+03	8.427310E-16	1.263742E-17
4.790000E+03	8.323484E-16	1.247953E-17
4.800000E+03	8.222965E-16	1.232667E-17
4.810000E+03	8.126308E-16	1.217968E-17
4.820000E+03	8.033965E-16	1.203922E-17
4.830000E+03	7.946010E-16	1.190541E-17
4.840000E+03	7.862685E-16	1.177860E-17
4.850000E+03	7.784060E-16	1.165889E-17
4.860000E+03	7.710062E-16	1.154617E-17
4.870000E+03	7.640650E-16	1.144038E-17
4.880000E+03	7.575825E-16	1.134151E-17
4.890000E+03	7.515407E-16	1.124930E-17
4.900000E+03	7.459347E-16	1.116365E-17
4.910000E+03	7.407327E-16	1.108410E-17
4.920000E+03	7.359257E-16	1.101051E-17
4.930000E+03	7.314931E-16	1.094256E-17
4.940000E+03	7.274077E-16	1.087985E-17
4.950000E+03	7.236533E-16	1.082213E-17
4.960000E+03	7.201988E-16	1.076894E-17
4.970000E+03	7.170274E-16	1.072002E-17
4.980000E+03	7.141057E-16	1.067487E-17
4.990000E+03	7.114091E-16	1.063312E-17
5.000000E+03	7.089062E-16	1.059431E-17
5.010000E+03	7.065874E-16	1.055828E-17
5.020000E+03	7.044160E-16	1.052449E-17
5.030000E+03	7.023704E-16	1.049261E-17
5.040000E+03	7.004401E-16	1.046249E-17
5.050000E+03	6.986004E-16	1.043376E-17
5.060000E+03	6.968353E-16	1.040618E-17
5.070000E+03	6.951305E-16	1.037953E-17
5.080000E+03	6.934728E-16	1.035362E-17
5.090000E+03	6.918417E-16	1.032814E-17
5.100000E+03	6.902254E-16	1.030292E-17
5.110000E+03	6.886165E-16	1.027784E-17
5.120000E+03	6.869872E-16	1.025249E-17
5.130000E+03	6.853360E-16	1.022685E-17
5.140000E+03	6.836263E-16	1.020038E-17
5.150000E+03	6.818532E-16	1.017299E-17
5.160000E+03	6.799920E-16	1.014433E-17
5.170000E+03	6.780217E-16	1.011408E-17
5.180000E+03	6.759239E-16	1.008196E-17
5.190000E+03	6.736723E-16	1.004759E-17
5.200000E+03	6.712484E-16	1.001068E-17
5.210000E+03	6.686294E-16	9.970908E-18
5.220000E+03	6.658138E-16	9.928243E-18
5.230000E+03	6.627697E-16	9.882211E-18
5.240000E+03	6.594955E-16	9.832787E-18
5.250000E+03	6.559861E-16	9.779899E-18
5.260000E+03	6.522406E-16	9.723533E-18
5.270000E+03	6.482500E-16	9.663552E-18
5.280000E+03	6.440297E-16	9.600192E-18
5.290000E+03	6.395874E-16	9.533561E-18
5.300000E+03	6.349424E-16	9.463948E-18
5.310000E+03	6.301125E-16	9.391618E-18
5.320000E+03	6.251331E-16	9.317097E-18
5.330000E+03	6.200247E-16	9.240687E-18
5.340000E+03	6.148243E-16	9.162941E-18
5.350000E+03	6.095659E-16	9.084363E-18
5.360000E+03	6.042985E-16	9.005683E-18
5.370000E+03	5.990492E-16	8.927302E-18
5.380000E+03	5.938715E-16	8.850017E-18
5.390000E+03	5.888087E-16	8.774472E-18
5.400000E+03	5.839062E-16	8.701340E-18
5.410000E+03	5.791993E-16	8.631148E-18
5.420000E+03	5.747107E-16	8.564234E-18
5.430000E+03	5.703945E-16	8.499909E-18
5.440000E+03	5.661755E-16	8.437056E-18
5.450000E+03	5.620089E-16	8.375002E-18
5.460000E+03	5.578397E-16	8.312929E-18
5.470000E+03	5.536320E-16	8.250300E-18
5.480000E+03	5.493850E-16	8.187102E-18
5.490000E+03	5.450831E-16	8.123103E-18
5.500000E+03	5.407404E-16	8.058509E-18
5.510000E+03	5.363671E-16	7.993474E-18
5.520000E+03	5.319967E-16	7.928497E-18
5.530000E+03	5.276433E-16	7.863783E-18
5.540000E+03	5.233433E-16	7.799877E-18
5.550000E+03	5.191289E-16	7.737258E-18
5.560000E+03	5.150540E-16	7.676727E-18
5.570000E+03	5.111559E-16	7.618840E-18
5.580000E+03	5.074865E-16	7.564371E-18
5.590000E+03	5.040952E-16	7.514055E-18
5.600000E+03	5.010435E-16	7.468808E-18
5.610000E+03	4.983777E-16	7.429322E-18
5.620000E+03	4.961537E-16	7.396428E-18
5.630000E+03	4.944250E-16	7.370923E-18
5.640000E+03	4.932368E-16	7.353485E-18
5.650000E+03	4.926351E-16	7.344798E-18
5.660000E+03	4.926505E-16	7.345318E-18
5.670000E+03	4.933175E-16	7.355560E-18
5.680000E+03	4.946636E-16	7.375938E-18
5.690000E+03	4.967040E-16	7.406675E-18
5.700000E+03	4.994450E-16	7.447868E-18
5.710000E+03	5.028841E-16	7.499483E-18
5.720000E+03	5.070201E-16	7.561499E-18
5.730000E+03	5.118201E-16	7.633428E-18
5.740000E+03	5.172622E-16	7.714947E-18
5.750000E+03	5.233031E-16	7.805407E-18
5.760000E+03	5.298825E-16	7.903914E-18
5.770000E+03	5.369403E-16	8.009568E-18
5.780000E+03	5.444063E-16	8.121324E-18
5.790000E+03	5.521887E-16	8.237814E-18
5.800000E+03	5.601930E-16	8.357628E-18
5.810000E+03	5.683305E-16	8.479442E-18
5.820000E+03	5.764831E-16	8.601496E-18
5.830000E+03	5.845492E-16	8.722271E-18
5.840000E+03	5.924214E-16	8.840166E-18
5.850000E+03	5.999954E-16	8.953622E-18
5.860000E+03	6.071796E-16	9.061271E-18
5.870000E+03	6.138705E-16	9.161568E-18
5.880000E+03	6.200020E-16	9.253525E-18
5.890000E+03	6.254995E-16	9.336026E-18
5.900000E+03	6.303082E-16	9.408253E-18
5.910000E+03	6.343872E-16	9.469592E-18
5.920000E+03	6.377092E-16	9.519631E-18
5.930000E+03	6.402672E-16	9.558269E-18
5.940000E+03	6.420454E-16	9.585266E-18
5.950000E+03	6.430542E-16	9.600772E-18
5.960000E+03	6.433216E-16	9.605207E-18
5.970000E+03	6.428777E-16	9.599017E-18
5.980000E+03	6.417458E-16	9.582548E-18
5.990000E+03	6.399854E-16	9.556688E-18
6.000000E+03	6.376243E-16	9.521849E-18
6.010000E+03	6.347393E-16	9.479177E-18
6.020000E+03	6.313661E-16	9.429204E-18
6.030000E+03	6.275655E-16	9.372838E-18
6.040000E+03	6.234075E-16	9.311121E-18
6.050000E+03	6.189488E-16	9.244901E-18
6.060000E+03	6.142540E-16	9.175142E-18
6.070000E+03	6.093731E-16	9.102590E-18
6.080000E+03	6.043843E-16	9.028413E-18
6.090000E+03	5.993278E-16	8.953211E-18
6.100000E+03	5.942771E-16	8.878082E-18
6.110000E+03	5.892804E-16	8.803747E-18
6.120000E+03	5.843818E-16	8.730863E-18
6.130000E+03	5.796266E-16	8.660109E-18
6.140000E+03	5.750615E-16	8.592181E-18
6.150000E+03	5.707120E-16	8.527462E-18
6.160000E+03	5.666039E-16	8.466338E-18
6.170000E+03	5.627703E-16	8.409302E-18
6.180000E+03	5.592089E-16	8.356322E-18
6.190000E+03	5.559327E-16	8.307591E-18
6.200000E+03	5.529490E-16	8.263219E-18
6.210000E+03	5.502604E-16	8.223245E-18
6.220000E+03	5.478508E-16	8.187431E-18
6.230000E+03	5.457080E-16	8.155591E-18
6.240000E+03	5.438228E-16	8.127591E-18
6.250000E+03	5.421691E-16	8.103039E-18
6.260000E+03	5.407324E-16	8.081719E-18
6.270000E+03	5.394885E-16	8.063272E-18
6.280000E+03	5.384197E-16	8.047429E-18
6.290000E+03	5.374999E-16	8.033805E-18
6.300000E+03	5.367036E-16	8.022014E-18
6.310000E+03	5.360133E-16	8.011798E-18
6.320000E+03	5.354138E-16	8.002927E-18
6.330000E+03	5.348775E-16	7.994992E-18
6.340000E+03	5.343948E-16	7.987847E-18
6.350000E+03	5.339599E-16	7.981405E-18
6.360000E+03	5.335553E-16	7.975406E-18
6.370000E+03	5.331902E-16	7.969987E-18
6.380000E+03	5.328622E-16	7.965112E-18
6.390000E+03	5.325722E-16	7.960794E-18
6.400000E+03	5.323235E-16	7.957082E-18
6.410000E+03	5.321368E-16	7.954287E-18
6.420000E+03	5.320116E-16	7.952401E-18
6.430000E+03	5.319710E-16	7.951766E-18
6.440000E+03	5.320228E-16	7.952504E-18
6.450000E+03	5.321741E-16	7.954719E-18
6.460000E+03	5.324394E-16	7.958626E-18
6.470000E+03	5.328232E-16	7.964295E-18
6.480000E+03	5.333365E-16	7.971887E-18
6.490000E+03	5.339636E-16	7.981170E-18
6.500000E+03	5.347188E-16	7.992357E-18
6.510000E+03	5.355977E-16	8.005381E-18
6.520000E+03	5.365845E-16	8.020008E-18
6.530000E+03	5.376772E-16	8.036208E-18
6.540000E+03	5.388624E-16	8.053777E-18
6.550000E+03	5.401235E-16	8.072470E-18
6.560000E+03	5.414407E-16	8.091991E-18
6.570000E+03	5.428000E-16	8.112131E-18
6.580000E+03	5.441681E-16	8.132390E-18
6.590000E+03	5.455182E-16	8.152368E-18
6.600000E+03	5.468312E-16	8.171782E-18
6.610000E+03	5.480794E-16	8.190215E-18
6.620000E+03	5.492255E-16	8.207113E-18
6.630000E+03	5.502521E-16	8.222214E-18
6.640000E+03	5.511244E-16	8.234999E-18
6.650000E+03	5.518386E-16	8.245411E-18
6.660000E+03	5.523560E-16	8.252873E-18
6.670000E+03	5.526603E-16	8.257141E-18
6.680000E+03	5.527484E-16	8.258169E-18
6.690000E+03	5.526121E-16	8.255836E-18
6.700000E+03	5.522374E-16	8.249934E-18
6.710000E+03	5.516247E-16	8.240467E-18
6.720000E+03	5.507878E-16	8.227644E-18
6.730000E+03	5.497259E-16	8.211452E-18
6.740000E+03	5.484618E-16	8.192234E-18
6.750000E+03	5.469934E-16	8.169958E-18
6.760000E+03	5.453610E-16	8.145227E-18
6.770000E+03	5.435697E-16	8.118117E-18
6.780000E+03	5.416659E-16	8.089323E-18
6.790000E+03	5.396589E-16	8.058984E-18
6.800000E+03	5.375886E-16	8.027695E-18
6.810000E+03	5.354854E-16	7.995911E-18
6.820000E+03	5.333689E-16	7.963927E-18
6.830000E+03	5.312776E-16	7.932314E-18
6.840000E+03	5.292276E-16	7.901318E-18
6.850000E+03	5.272522E-16	7.871433E-18
6.860000E+03	5.253518E-16	7.842665E-18
6.870000E+03	5.235623E-16	7.815551E-18
6.880000E+03	5.218865E-16	7.790132E-18
6.890000E+03	5.203326E-16	7.766532E-18
6.900000E+03	5.188958E-16	7.744677E-18
6.910000E+03	5.175964E-16	7.724874E-18
6.920000E+03	5.164023E-16	7.706640E-18
6.930000E+03	5.153371E-16	7.690328E-18
6.940000E+03	5.143717E-16	7.675505E-18
6.950000E+03	5.134938E-16	7.661987E-18
6.960000E+03	5.126981E-16	7.649696E-18
6.970000E+03	5.119570E-16	7.638219E-18
6.980000E+03	5.112503E-16	7.627255E-18
6.990000E+03	5.105557E-16	7.616472E-18
7.000000E+03	5.098492E-16	7.605512E-18
7.010000E+03	5.091051E-16	7.593992E-18
7.020000E+03	5.082870E-16	7.581369E-18
7.030000E+03	5.073875E-16	7.567534E-18
7.040000E+03	5.063494E-16	7.551635E-18
7.050000E+03	5.051760E-16	7.533722E-18
7.060000E+03	5.038114E-16	7.512961E-18
7.070000E+03	5.022515E-16	7.489290E-18
7.080000E+03	5.004640E-16	7.462232E-18
7.090000E+03	4.984293E-16	7.431495E-18
7.100000E+03	4.961411E-16	7.396983E-18
7.110000E+03	4.935666E-16	7.358210E-18
7.120000E+03	4.907067E-16	7.315190E-18
7.130000E+03	4.875464E-16	7.267702E-18
7.140000E+03	4.840946E-16	7.215878E-18
7.150000E+03	4.803543E-16	7.159764E-18
7.160000E+03	4.763226E-16	7.099317E-18
7.170000E+03	4.720200E-16	7.034845E-18
7.180000E+03	4.674418E-16	6.966279E-18
7.190000E+03	4.626255E-16	6.894177E-18
7.200000E+03	4.575833E-16	6.818721E-18
7.210000E+03	4.523307E-16	6.740146E-18
7.220000E+03	4.469052E-16	6.659008E-18
7.230000E+03	4.413370E-16	6.575758E-18
7.240000E+03	4.356493E-16	6.490743E-18
7.250000E+03	4.298760E-16	6.404467E-18
7.260000E+03	4.240520E-16	6.317454E-18
7.270000E+03	4.182129E-16	6.230229E-18
7.280000E+03	4.123940E-16	6.143321E-18
7.290000E+03	4.066134E-16	6.057000E-18
7.300000E+03	4.009223E-16	5.972027E-18
7.310000E+03	3.953452E-16	5.888767E-18
7.320000E+03	3.899052E-16	5.807565E-18
7.330000E+03	3.846395E-16	5.728975E-18
7.340000E+03	3.795587E-16	5.653153E-18
7.350000E+03	3.746875E-16	5.580468E-18
7.360000E+03	3.700475E-16	5.511240E-18
7.370000E+03	3.656502E-16	5.445642E-18
7.380000E+03	3.615202E-16	5.384038E-18
7.390000E+03	3.576488E-16	5.326300E-18
7.400000E+03	3.540630E-16	5.272829E-18
7.410000E+03	3.507573E-16	5.223543E-18
7.420000E+03	3.477458E-16	5.178652E-18
7.430000E+03	3.450254E-16	5.138109E-18
7.440000E+03	3.425976E-16	5.101937E-18
7.450000E+03	3.404684E-16	5.070226E-18
7.460000E+03	3.386264E-16	5.042806E-18
7.470000E+03	3.370862E-16	5.019895E-18
7.480000E+03	3.358236E-16	5.001130E-18
7.490000E+03	3.348399E-16	4.986535E-18
7.500000E+03	3.341125E-16	4.975771E-18
7.510000E+03	3.336448E-16	4.968890E-18
7.520000E+03	3.334088E-16	4.965475E-18
7.530000E+03	3.333817E-16	4.965187E-18
7.540000E+03	3.335455E-16	4.967759E-18
7.550000E+03	3.338740E-16	4.972801E-18
7.560000E+03	3.343540E-16	4.980117E-18
7.570000E+03	3.349422E-16	4.989064E-18
7.580000E+03	3.356168E-16	4.999314E-18
7.590000E+03	3.363553E-16	5.010535E-18
7.600000E+03	3.371205E-16	5.022172E-18
7.610000E+03	3.378900E-16	5.033889E-18
7.620000E+03	3.386265E-16	5.045134E-18
7.630000E+03	3.393167E-16	5.055706E-18
7.640000E+03	3.399175E-16	5.064964E-18
7.650000E+03	3.404220E-16	5.072804E-18
7.660000E+03	3.408003E-16	5.078781E-18
7.670000E+03	3.410562E-16	5.082950E-18
7.680000E+03	3.411646E-16	5.084936E-18
7.690000E+03	3.411337E-16	5.084863E-18
7.700000E+03	3.409504E-16	5.082534E-18
7.710000E+03	3.406112E-16	5.077894E-18
7.720000E+03	3.401143E-16	5.070919E-18
7.730000E+03	3.394594E-16	5.061600E-18
7.740000E+03	3.386475E-16	5.049955E-18
7.750000E+03	3.376730E-16	5.035896E-18
7.760000E+03	3.365550E-16	5.019709E-18
