#wls	flux	fluxerr
1.600000E+03	7.685900E-18	2.963656E-19
1.640000E+03	7.726627E-18	2.953306E-19
1.680000E+03	7.784543E-18	2.948674E-19
1.720000E+03	7.860145E-18	2.949756E-19
1.760000E+03	7.954716E-18	2.956824E-19
1.800000E+03	8.070305E-18	2.970406E-19
1.840000E+03	8.206346E-18	2.990042E-19
1.880000E+03	8.365812E-18	3.016546E-19
1.920000E+03	8.549846E-18	3.050028E-19
1.960000E+03	8.759836E-18	3.090656E-19
2.000000E+03	8.996843E-18	3.138453E-19
2.040000E+03	9.262905E-18	3.193753E-19
2.080000E+03	9.559216E-18	3.256558E-19
2.120000E+03	9.886266E-18	3.326603E-19
2.160000E+03	1.024686E-17	3.404376E-19
2.200000E+03	1.064200E-17	3.489711E-19
2.240000E+03	1.107391E-17	3.582813E-19
2.280000E+03	1.154668E-17	3.684436E-19
2.320000E+03	1.206636E-17	3.795858E-19
2.360000E+03	1.264171E-17	3.919084E-19
2.400000E+03	1.328322E-17	4.056475E-19
2.440000E+03	1.400288E-17	4.210629E-19
2.480000E+03	1.481639E-17	4.385001E-19
2.520000E+03	1.573996E-17	4.582890E-19
2.560000E+03	1.679402E-17	4.808465E-19
2.600000E+03	1.800079E-17	5.065985E-19
2.640000E+03	1.938760E-17	5.360674E-19
2.680000E+03	2.098604E-17	5.698357E-19
2.720000E+03	2.283454E-17	6.086047E-19
2.760000E+03	2.498009E-17	6.532222E-19
2.800000E+03	2.747966E-17	7.046982E-19
2.840000E+03	3.040362E-17	7.642673E-19
2.880000E+03	3.384116E-17	8.334904E-19
2.920000E+03	3.790162E-17	9.142424E-19
2.960000E+03	4.272726E-17	1.008968E-18
3.000000E+03	4.849416E-17	1.120628E-18
3.010000E+03	5.010956E-17	1.151642E-18
3.020000E+03	5.180098E-17	1.183996E-18
3.030000E+03	5.357259E-17	1.217758E-18
3.040000E+03	5.543126E-17	1.253055E-18
3.050000E+03	5.738057E-17	1.289937E-18
3.060000E+03	5.942558E-17	1.328486E-18
3.070000E+03	6.157297E-17	1.368817E-18
3.080000E+03	6.382721E-17	1.410994E-18
3.090000E+03	6.619433E-17	1.455112E-18
3.100000E+03	6.868361E-17	1.501336E-18
3.110000E+03	7.129917E-17	1.549715E-18
3.120000E+03	7.404978E-17	1.600395E-18
3.130000E+03	7.694164E-17	1.653465E-18
3.140000E+03	7.998764E-17	1.709153E-18
3.150000E+03	8.319200E-17	1.767499E-18
3.160000E+03	8.656549E-17	1.828679E-18
3.170000E+03	9.011973E-17	1.892881E-18
3.180000E+03	9.386519E-17	1.960266E-18
3.190000E+03	9.780940E-17	2.030931E-18
3.200000E+03	1.019694E-16	2.105165E-18
3.210000E+03	1.063541E-16	2.183081E-18
3.220000E+03	1.109780E-16	2.264910E-18
3.230000E+03	1.158532E-16	2.350821E-18
3.240000E+03	1.209957E-16	2.441063E-18
3.250000E+03	1.264206E-16	2.535857E-18
3.260000E+03	1.321436E-16	2.635436E-18
3.270000E+03	1.381787E-16	2.739987E-18
3.280000E+03	1.445448E-16	2.849798E-18
3.290000E+03	1.512591E-16	2.965110E-18
3.300000E+03	1.583368E-16	3.086123E-18
3.310000E+03	1.657983E-16	3.213133E-18
3.320000E+03	1.736589E-16	3.346329E-18
3.330000E+03	1.819388E-16	3.486000E-18
3.340000E+03	1.906529E-16	3.632313E-18
3.350000E+03	1.998175E-16	3.785474E-18
3.360000E+03	2.094480E-16	3.945659E-18
3.370000E+03	2.195583E-16	4.113015E-18
3.380000E+03	2.301601E-16	4.287653E-18
3.390000E+03	2.412587E-16	4.469557E-18
3.400000E+03	2.528629E-16	4.658782E-18
3.410000E+03	2.649662E-16	4.855104E-18
3.420000E+03	2.775714E-16	5.058477E-18
3.430000E+03	2.906602E-16	5.268473E-18
3.440000E+03	3.042143E-16	5.484685E-18
3.450000E+03	3.182085E-16	5.706585E-18
3.460000E+03	3.326054E-16	5.933449E-18
3.470000E+03	3.473716E-16	6.164642E-18
3.480000E+03	3.624652E-16	6.399396E-18
3.490000E+03	3.778635E-16	6.637299E-18
3.500000E+03	3.935719E-16	6.878449E-18
3.510000E+03	4.096015E-16	7.123038E-18
3.520000E+03	4.259791E-16	7.371539E-18
3.530000E+03	4.427133E-16	7.624101E-18
3.540000E+03	4.598350E-16	7.881264E-18
3.550000E+03	4.773648E-16	8.143383E-18
3.560000E+03	4.953285E-16	8.410903E-18
3.570000E+03	5.137393E-16	8.684057E-18
3.580000E+03	5.326146E-16	8.963148E-18
3.590000E+03	5.519829E-16	9.248668E-18
3.600000E+03	5.718455E-16	9.540657E-18
3.610000E+03	5.922275E-16	9.839552E-18
3.620000E+03	6.131390E-16	1.014555E-17
3.630000E+03	6.345805E-16	1.045868E-17
3.640000E+03	6.565559E-16	1.077907E-17
3.650000E+03	6.790739E-16	1.110686E-17
3.660000E+03	7.021247E-16	1.144192E-17
3.670000E+03	7.257183E-16	1.178440E-17
3.680000E+03	7.498303E-16	1.213394E-17
3.690000E+03	7.744561E-16	1.249047E-17
3.700000E+03	7.995791E-16	1.285373E-17
3.710000E+03	8.251872E-16	1.322357E-17
3.720000E+03	8.512480E-16	1.359949E-17
3.730000E+03	8.777412E-16	1.398119E-17
3.740000E+03	9.046339E-16	1.436818E-17
3.750000E+03	9.318967E-16	1.476003E-17
3.760000E+03	9.594884E-16	1.515613E-17
3.770000E+03	9.873707E-16	1.555591E-17
3.780000E+03	1.015494E-15	1.595865E-17
3.790000E+03	1.043801E-15	1.636348E-17
3.800000E+03	1.072260E-15	1.676997E-17
3.810000E+03	1.100786E-15	1.717684E-17
3.820000E+03	1.129329E-15	1.758337E-17
3.830000E+03	1.157836E-15	1.798879E-17
3.840000E+03	1.186218E-15	1.839178E-17
3.850000E+03	1.214402E-15	1.879125E-17
3.860000E+03	1.242322E-15	1.918627E-17
3.870000E+03	1.269900E-15	1.957569E-17
3.880000E+03	1.297053E-15	1.995828E-17
3.890000E+03	1.323685E-15	2.033264E-17
3.900000E+03	1.349721E-15	2.069767E-17
3.910000E+03	1.375072E-15	2.105211E-17
3.920000E+03	1.399653E-15	2.139466E-17
3.930000E+03	1.423373E-15	2.172405E-17
3.940000E+03	1.446147E-15	2.203901E-17
3.950000E+03	1.467902E-15	2.233849E-17
3.960000E+03	1.488556E-15	2.262132E-17
3.970000E+03	1.508013E-15	2.288609E-17
3.980000E+03	1.526227E-15	2.313214E-17
3.990000E+03	1.543109E-15	2.335820E-17
4.000000E+03	1.558607E-15	2.356351E-17
4.010000E+03	1.572659E-15	2.374720E-17
4.020000E+03	1.585197E-15	2.390830E-17
4.030000E+03	1.596212E-15	2.404669E-17
4.040000E+03	1.605670E-15	2.416193E-17
4.050000E+03	1.613585E-15	2.425425E-17
4.060000E+03	1.619973E-15	2.432393E-17
4.070000E+03	1.624869E-15	2.437153E-17
4.080000E+03	1.628327E-15	2.439789E-17
4.090000E+03	1.630429E-15	2.440426E-17
4.100000E+03	1.631244E-15	2.439170E-17
4.110000E+03	1.630870E-15	2.436167E-17
4.120000E+03	1.629442E-15	2.431619E-17
4.130000E+03	1.627044E-15	2.425655E-17
4.140000E+03	1.623813E-15	2.418478E-17
4.150000E+03	1.619872E-15	2.410271E-17
4.160000E+03	1.615348E-15	2.401222E-17
4.170000E+03	1.610370E-15	2.391521E-17
4.180000E+03	1.605066E-15	2.381357E-17
4.190000E+03	1.599561E-15	2.370913E-17
4.200000E+03	1.593979E-15	2.360372E-17
4.210000E+03	1.588441E-15	2.349909E-17
4.220000E+03	1.583067E-15	2.339701E-17
4.230000E+03	1.577958E-15	2.329890E-17
4.240000E+03	1.573223E-15	2.320637E-17
4.250000E+03	1.568987E-15	2.312121E-17
4.260000E+03	1.565353E-15	2.304491E-17
4.270000E+03	1.562392E-15	2.297846E-17
4.280000E+03	1.560212E-15	2.292340E-17
4.290000E+03	1.558901E-15	2.288099E-17
4.300000E+03	1.558538E-15	2.285230E-17
4.310000E+03	1.559188E-15	2.283826E-17
4.320000E+03	1.560897E-15	2.283949E-17
4.330000E+03	1.563738E-15	2.285695E-17
4.340000E+03	1.567715E-15	2.289070E-17
4.350000E+03	1.572877E-15	2.294137E-17
4.360000E+03	1.579238E-15	2.300907E-17
4.370000E+03	1.586810E-15	2.309395E-17
4.380000E+03	1.595589E-15	2.319587E-17
4.390000E+03	1.605574E-15	2.331477E-17
4.400000E+03	1.616747E-15	2.345031E-17
4.410000E+03	1.629114E-15	2.360250E-17
4.420000E+03	1.642642E-15	2.377083E-17
4.430000E+03	1.657294E-15	2.395468E-17
4.440000E+03	1.673054E-15	2.415378E-17
4.450000E+03	1.689859E-15	2.436716E-17
4.460000E+03	1.707650E-15	2.459391E-17
4.470000E+03	1.726363E-15	2.483307E-17
4.480000E+03	1.745869E-15	2.508275E-17
4.490000E+03	1.766069E-15	2.534146E-17
4.500000E+03	1.786827E-15	2.560726E-17
4.510000E+03	1.807965E-15	2.587758E-17
4.520000E+03	1.829306E-15	2.614985E-17
4.530000E+03	1.850642E-15	2.642114E-17
4.540000E+03	1.871747E-15	2.668822E-17
4.550000E+03	1.892372E-15	2.694759E-17
4.560000E+03	1.912230E-15	2.719521E-17
4.570000E+03	1.931015E-15	2.742681E-17
4.580000E+03	1.948466E-15	2.763876E-17
4.590000E+03	1.964237E-15	2.782626E-17
4.600000E+03	1.977998E-15	2.798480E-17
4.610000E+03	1.989463E-15	2.811044E-17
4.620000E+03	1.998333E-15	2.819914E-17
4.630000E+03	2.004275E-15	2.824640E-17
4.640000E+03	2.007101E-15	2.824976E-17
4.650000E+03	2.006535E-15	2.820555E-17
4.660000E+03	2.002472E-15	2.811252E-17
4.670000E+03	1.994842E-15	2.796992E-17
4.680000E+03	1.983658E-15	2.777816E-17
4.690000E+03	1.969037E-15	2.753909E-17
4.700000E+03	1.951230E-15	2.725645E-17
4.710000E+03	1.930626E-15	2.693583E-17
4.720000E+03	1.907643E-15	2.658326E-17
4.730000E+03	1.882816E-15	2.620631E-17
4.740000E+03	1.856746E-15	2.581347E-17
4.750000E+03	1.829987E-15	2.541249E-17
4.760000E+03	1.803183E-15	2.501235E-17
4.770000E+03	1.776828E-15	2.461995E-17
4.780000E+03	1.751445E-15	2.424247E-17
4.790000E+03	1.727430E-15	2.388539E-17
4.800000E+03	1.705054E-15	2.355239E-17
4.810000E+03	1.684532E-15	2.324639E-17
4.820000E+03	1.665953E-15	2.296855E-17
4.830000E+03	1.649266E-15	2.271810E-17
4.840000E+03	1.634383E-15	2.249379E-17
4.850000E+03	1.621110E-15	2.229288E-17
4.860000E+03	1.609256E-15	2.211268E-17
4.870000E+03	1.598707E-15	2.195153E-17
4.880000E+03	1.589360E-15	2.180789E-17
4.890000E+03	1.581126E-15	2.168046E-17
4.900000E+03	1.573995E-15	2.156900E-17
4.910000E+03	1.567906E-15	2.147262E-17
4.920000E+03	1.562850E-15	2.139107E-17
4.930000E+03	1.558782E-15	2.132370E-17
4.940000E+03	1.555621E-15	2.126930E-17
4.950000E+03	1.553289E-15	2.122676E-17
4.960000E+03	1.551680E-15	2.119456E-17
4.970000E+03	1.550722E-15	2.117164E-17
4.980000E+03	1.550315E-15	2.115660E-17
4.990000E+03	1.550386E-15	2.114839E-17
5.000000E+03	1.550860E-15	2.114592E-17
5.010000E+03	1.551725E-15	2.114898E-17
5.020000E+03	1.552923E-15	2.115675E-17
5.030000E+03	1.554455E-15	2.116918E-17
5.040000E+03	1.556356E-15	2.118670E-17
5.050000E+03	1.558638E-15	2.120944E-17
5.060000E+03	1.561344E-15	2.123791E-17
5.070000E+03	1.564521E-15	2.127275E-17
5.080000E+03	1.568223E-15	2.131461E-17
5.090000E+03	1.572484E-15	2.136390E-17
5.100000E+03	1.577348E-15	2.142121E-17
5.110000E+03	1.582868E-15	2.148719E-17
5.120000E+03	1.589030E-15	2.156159E-17
5.130000E+03	1.595862E-15	2.164476E-17
5.140000E+03	1.603275E-15	2.173543E-17
5.150000E+03	1.611215E-15	2.183284E-17
5.160000E+03	1.619547E-15	2.193509E-17
5.170000E+03	1.628134E-15	2.204030E-17
5.180000E+03	1.636842E-15	2.214662E-17
5.190000E+03	1.645516E-15	2.225190E-17
5.200000E+03	1.654013E-15	2.235418E-17
5.210000E+03	1.662181E-15	2.245139E-17
5.220000E+03	1.669919E-15	2.254211E-17
5.230000E+03	1.677037E-15	2.262378E-17
5.240000E+03	1.683420E-15	2.269482E-17
5.250000E+03	1.688942E-15	2.275352E-17
5.260000E+03	1.693492E-15	2.279841E-17
5.270000E+03	1.696953E-15	2.282789E-17
5.280000E+03	1.699285E-15	2.284146E-17
5.290000E+03	1.700435E-15	2.283839E-17
5.300000E+03	1.700403E-15	2.281873E-17
5.310000E+03	1.699195E-15	2.278255E-17
5.320000E+03	1.696864E-15	2.273063E-17
5.330000E+03	1.693438E-15	2.266331E-17
5.340000E+03	1.688984E-15	2.258158E-17
5.350000E+03	1.683558E-15	2.248617E-17
5.360000E+03	1.677250E-15	2.237832E-17
5.370000E+03	1.670072E-15	2.225822E-17
5.380000E+03	1.662095E-15	2.212688E-17
5.390000E+03	1.653342E-15	2.198461E-17
5.400000E+03	1.643814E-15	2.183149E-17
5.410000E+03	1.633459E-15	2.166684E-17
5.420000E+03	1.622240E-15	2.149025E-17
5.430000E+03	1.610099E-15	2.130099E-17
5.440000E+03	1.596894E-15	2.109724E-17
5.450000E+03	1.582562E-15	2.087829E-17
5.460000E+03	1.567001E-15	2.064284E-17
5.470000E+03	1.550153E-15	2.039022E-17
5.480000E+03	1.532060E-15	2.012112E-17
5.490000E+03	1.512723E-15	1.983563E-17
5.500000E+03	1.492214E-15	1.953482E-17
5.510000E+03	1.470602E-15	1.921970E-17
5.520000E+03	1.448014E-15	1.889206E-17
5.530000E+03	1.424534E-15	1.855307E-17
5.540000E+03	1.400316E-15	1.820484E-17
5.550000E+03	1.375517E-15	1.784954E-17
5.560000E+03	1.350367E-15	1.749022E-17
5.570000E+03	1.325085E-15	1.712978E-17
5.580000E+03	1.299942E-15	1.677179E-17
5.590000E+03	1.275222E-15	1.641993E-17
5.600000E+03	1.251260E-15	1.607853E-17
5.610000E+03	1.228365E-15	1.575155E-17
5.620000E+03	1.206868E-15	1.544318E-17
5.630000E+03	1.187100E-15	1.515757E-17
5.640000E+03	1.169363E-15	1.489848E-17
5.650000E+03	1.153948E-15	1.466948E-17
5.660000E+03	1.141089E-15	1.447337E-17
5.670000E+03	1.131012E-15	1.431284E-17
5.680000E+03	1.123907E-15	1.419009E-17
5.690000E+03	1.119901E-15	1.410645E-17
5.700000E+03	1.119082E-15	1.406282E-17
5.710000E+03	1.121501E-15	1.405957E-17
5.720000E+03	1.127172E-15	1.409660E-17
5.730000E+03	1.136015E-15	1.417266E-17
5.740000E+03	1.147953E-15	1.428652E-17
5.750000E+03	1.162819E-15	1.443586E-17
5.760000E+03	1.180376E-15	1.461749E-17
5.770000E+03	1.200356E-15	1.482790E-17
5.780000E+03	1.222420E-15	1.506271E-17
5.790000E+03	1.246142E-15	1.531655E-17
5.800000E+03	1.271060E-15	1.558363E-17
5.810000E+03	1.296693E-15	1.585800E-17
5.820000E+03	1.322470E-15	1.613270E-17
5.830000E+03	1.347847E-15	1.640113E-17
5.840000E+03	1.372279E-15	1.665680E-17
5.850000E+03	1.395243E-15	1.689353E-17
5.860000E+03	1.416275E-15	1.710590E-17
5.870000E+03	1.434938E-15	1.728893E-17
5.880000E+03	1.450931E-15	1.743925E-17
5.890000E+03	1.463986E-15	1.755398E-17
5.900000E+03	1.473955E-15	1.763169E-17
5.910000E+03	1.480774E-15	1.767195E-17
5.920000E+03	1.484456E-15	1.767526E-17
5.930000E+03	1.485115E-15	1.764330E-17
5.940000E+03	1.482868E-15	1.757778E-17
5.950000E+03	1.477908E-15	1.748127E-17
5.960000E+03	1.470472E-15	1.735685E-17
5.970000E+03	1.460795E-15	1.720751E-17
5.980000E+03	1.449075E-15	1.703579E-17
5.990000E+03	1.435568E-15	1.684489E-17
6.000000E+03	1.420427E-15	1.663676E-17
6.010000E+03	1.403893E-15	1.641434E-17
6.020000E+03	1.386092E-15	1.617921E-17
6.030000E+03	1.367184E-15	1.593334E-17
6.040000E+03	1.347349E-15	1.567888E-17
6.050000E+03	1.326743E-15	1.541768E-17
6.060000E+03	1.305546E-15	1.515188E-17
6.070000E+03	1.283918E-15	1.488334E-17
6.080000E+03	1.262109E-15	1.461496E-17
6.090000E+03	1.240305E-15	1.434887E-17
6.100000E+03	1.218772E-15	1.408811E-17
6.110000E+03	1.197733E-15	1.383521E-17
6.120000E+03	1.177407E-15	1.359265E-17
6.130000E+03	1.158003E-15	1.336280E-17
6.140000E+03	1.139705E-15	1.314772E-17
6.150000E+03	1.122635E-15	1.294873E-17
6.160000E+03	1.106868E-15	1.276659E-17
6.170000E+03	1.092425E-15	1.260140E-17
6.180000E+03	1.079230E-15	1.245214E-17
6.190000E+03	1.067215E-15	1.231797E-17
6.200000E+03	1.056292E-15	1.219774E-17
6.210000E+03	1.046405E-15	1.209074E-17
6.220000E+03	1.037516E-15	1.199644E-17
6.230000E+03	1.029609E-15	1.191461E-17
6.240000E+03	1.022673E-15	1.184507E-17
6.250000E+03	1.016651E-15	1.178708E-17
6.260000E+03	1.011471E-15	1.173976E-17
6.270000E+03	1.007011E-15	1.170168E-17
6.280000E+03	1.003141E-15	1.167127E-17
6.290000E+03	9.997103E-16	1.164674E-17
6.300000E+03	9.965589E-16	1.162618E-17
6.310000E+03	9.935400E-16	1.160781E-17
6.320000E+03	9.905272E-16	1.159011E-17
6.330000E+03	9.873810E-16	1.157139E-17
6.340000E+03	9.840061E-16	1.155045E-17
6.350000E+03	9.803391E-16	1.152649E-17
6.360000E+03	9.763152E-16	1.149866E-17
6.370000E+03	9.719389E-16	1.146694E-17
6.380000E+03	9.672227E-16	1.143139E-17
6.390000E+03	9.622067E-16	1.139243E-17
6.400000E+03	9.569538E-16	1.135072E-17
6.410000E+03	9.515781E-16	1.130756E-17
6.420000E+03	9.461666E-16	1.126392E-17
6.430000E+03	9.408528E-16	1.122134E-17
6.440000E+03	9.357399E-16	1.118102E-17
6.450000E+03	9.309278E-16	1.114413E-17
6.460000E+03	9.265215E-16	1.111190E-17
6.470000E+03	9.225971E-16	1.108523E-17
6.480000E+03	9.192318E-16	1.106505E-17
6.490000E+03	9.164463E-16	1.105162E-17
6.500000E+03	9.142992E-16	1.104563E-17
6.510000E+03	9.128050E-16	1.104727E-17
6.520000E+03	9.119493E-16	1.105638E-17
6.530000E+03	9.117318E-16	1.107297E-17
6.540000E+03	9.121205E-16	1.109664E-17
6.550000E+03	9.130608E-16	1.112675E-17
6.560000E+03	9.144685E-16	1.116227E-17
6.570000E+03	9.162533E-16	1.120208E-17
6.580000E+03	9.182838E-16	1.124458E-17
6.590000E+03	9.204355E-16	1.128823E-17
6.600000E+03	9.225953E-16	1.133160E-17
6.610000E+03	9.246349E-16	1.137310E-17
6.620000E+03	9.264143E-16	1.141097E-17
6.630000E+03	9.278295E-16	1.144388E-17
6.640000E+03	9.287546E-16	1.147024E-17
6.650000E+03	9.291223E-16	1.148917E-17
6.660000E+03	9.288180E-16	1.149920E-17
6.670000E+03	9.277782E-16	1.149951E-17
6.680000E+03	9.259818E-16	1.148977E-17
6.690000E+03	9.234132E-16	1.146975E-17
6.700000E+03	9.200551E-16	1.143920E-17
6.710000E+03	9.159178E-16	1.139822E-17
6.720000E+03	9.110402E-16	1.134724E-17
6.730000E+03	9.054438E-16	1.128652E-17
6.740000E+03	8.991974E-16	1.121689E-17
6.750000E+03	8.923361E-16	1.113878E-17
6.760000E+03	8.849716E-16	1.105357E-17
6.770000E+03	8.771652E-16	1.096203E-17
6.780000E+03	8.690512E-16	1.086583E-17
6.790000E+03	8.607085E-16	1.076598E-17
6.800000E+03	8.522689E-16	1.066414E-17
6.810000E+03	8.438506E-16	1.056179E-17
6.820000E+03	8.355532E-16	1.046021E-17
6.830000E+03	8.275001E-16	1.036095E-17
6.840000E+03	8.197748E-16	1.026508E-17
6.850000E+03	8.124788E-16	1.017390E-17
6.860000E+03	8.056495E-16	1.008788E-17
6.870000E+03	7.993698E-16	1.000809E-17
6.880000E+03	7.936632E-16	9.934824E-18
6.890000E+03	7.885501E-16	9.868363E-18
6.900000E+03	7.840231E-16	9.808619E-18
6.910000E+03	7.801077E-16	9.755920E-18
6.920000E+03	7.767413E-16	9.709489E-18
6.930000E+03	7.739409E-16	9.669543E-18
6.940000E+03	7.716414E-16	9.635270E-18
6.950000E+03	7.697987E-16	9.606124E-18
6.960000E+03	7.683783E-16	9.581673E-18
6.970000E+03	7.673110E-16	9.561058E-18
6.980000E+03	7.665385E-16	9.543552E-18
6.990000E+03	7.659994E-16	9.528397E-18
7.000000E+03	7.656320E-16	9.514828E-18
7.010000E+03	7.653736E-16	9.502076E-18
7.020000E+03	7.651478E-16	9.489199E-18
7.030000E+03	7.649251E-16	9.475847E-18
7.040000E+03	7.646036E-16	9.460772E-18
7.050000E+03	7.641751E-16	9.443892E-18
7.060000E+03	7.635447E-16	9.424059E-18
7.070000E+03	7.626977E-16	9.401117E-18
7.080000E+03	7.615779E-16	9.374405E-18
7.090000E+03	7.601488E-16	9.343507E-18
7.100000E+03	7.583918E-16	9.308233E-18
7.110000E+03	7.562463E-16	9.267881E-18
7.120000E+03	7.537005E-16	9.222350E-18
7.130000E+03	7.507131E-16	9.171184E-18
7.140000E+03	7.472751E-16	9.114325E-18
7.150000E+03	7.433658E-16	9.051573E-18
7.160000E+03	7.389500E-16	8.982559E-18
7.170000E+03	7.340269E-16	8.907331E-18
7.180000E+03	7.285568E-16	8.825469E-18
7.190000E+03	7.225663E-16	8.737361E-18
7.200000E+03	7.160446E-16	8.642937E-18
7.210000E+03	7.089888E-16	8.542230E-18
7.220000E+03	7.014328E-16	8.435711E-18
7.230000E+03	6.934022E-16	8.323751E-18
7.240000E+03	6.849155E-16	8.206634E-18
7.250000E+03	6.760109E-16	8.084875E-18
7.260000E+03	6.667324E-16	7.959055E-18
7.270000E+03	6.571295E-16	7.829819E-18
7.280000E+03	6.472562E-16	7.697854E-18
7.290000E+03	6.371455E-16	7.563596E-18
7.300000E+03	6.268909E-16	7.428193E-18
7.310000E+03	6.165533E-16	7.292398E-18
7.320000E+03	6.061998E-16	7.157028E-18
7.330000E+03	5.959253E-16	7.023223E-18
7.340000E+03	5.857877E-16	6.891675E-18
7.350000E+03	5.758707E-16	6.763380E-18
7.360000E+03	5.662557E-16	6.639288E-18
7.370000E+03	5.570032E-16	6.520110E-18
7.380000E+03	5.481957E-16	6.406797E-18
7.390000E+03	5.398671E-16	6.299735E-18
7.400000E+03	5.321005E-16	6.199876E-18
7.410000E+03	5.249306E-16	6.107608E-18
7.420000E+03	5.184179E-16	6.023614E-18
7.430000E+03	5.125762E-16	5.948034E-18
7.440000E+03	5.074223E-16	5.881046E-18
7.450000E+03	5.029799E-16	5.822903E-18
7.460000E+03	4.992397E-16	5.773487E-18
7.470000E+03	4.962314E-16	5.733128E-18
7.480000E+03	4.939270E-16	5.701494E-18
7.490000E+03	4.923312E-16	5.678635E-18
7.500000E+03	4.914117E-16	5.664178E-18
7.510000E+03	4.911740E-16	5.658192E-18
7.520000E+03	4.915726E-16	5.660162E-18
7.530000E+03	4.925657E-16	5.669622E-18
7.540000E+03	4.941133E-16	5.686130E-18
7.550000E+03	4.961501E-16	5.708943E-18
7.560000E+03	4.986213E-16	5.737415E-18
7.570000E+03	5.014139E-16	5.770234E-18
7.580000E+03	5.044285E-16	5.806244E-18
7.590000E+03	5.075529E-16	5.844141E-18
7.600000E+03	5.106440E-16	5.882265E-18
7.610000E+03	5.135763E-16	5.919154E-18
7.620000E+03	5.162046E-16	5.953118E-18
7.630000E+03	5.184312E-16	5.983001E-18
7.640000E+03	5.201349E-16	6.007378E-18
7.650000E+03	5.212755E-16	6.025747E-18
7.660000E+03	5.218030E-16	6.037490E-18
7.670000E+03	5.217429E-16	6.042857E-18
7.680000E+03	5.210955E-16	6.041805E-18
7.690000E+03	5.199221E-16	6.034997E-18
7.700000E+03	5.182522E-16	6.022728E-18
7.710000E+03	5.161297E-16	6.005457E-18
7.720000E+03	5.135982E-16	5.983647E-18
7.730000E+03	5.106983E-16	5.957722E-18
7.740000E+03	5.074684E-16	5.928086E-18
7.750000E+03	5.039331E-16	5.894984E-18
7.760000E+03	5.001488E-16	5.859032E-18
