#wls	flux	fluxerr
1.600000E+03	8.083573E-18	1.360035E-19
1.640000E+03	8.122946E-18	1.358746E-19
1.680000E+03	8.180204E-18	1.360198E-19
1.720000E+03	8.255820E-18	1.364411E-19
1.760000E+03	8.351119E-18	1.371544E-19
1.800000E+03	8.468195E-18	1.381870E-19
1.840000E+03	8.606403E-18	1.395210E-19
1.880000E+03	8.768820E-18	1.411982E-19
1.920000E+03	8.956557E-18	1.432276E-19
1.960000E+03	9.171005E-18	1.456217E-19
2.000000E+03	9.413186E-18	1.483866E-19
2.040000E+03	9.685142E-18	1.515431E-19
2.080000E+03	9.988029E-18	1.550976E-19
2.120000E+03	1.032222E-17	1.590430E-19
2.160000E+03	1.069052E-17	1.634095E-19
2.200000E+03	1.109382E-17	1.681961E-19
2.240000E+03	1.153428E-17	1.734203E-19
2.280000E+03	1.201598E-17	1.791269E-19
2.320000E+03	1.254497E-17	1.853877E-19
2.360000E+03	1.313009E-17	1.923113E-19
2.400000E+03	1.378193E-17	2.000274E-19
2.440000E+03	1.451253E-17	2.086799E-19
2.480000E+03	1.533766E-17	2.184593E-19
2.520000E+03	1.627353E-17	2.295530E-19
2.560000E+03	1.734053E-17	2.421977E-19
2.600000E+03	1.856069E-17	2.566405E-19
2.640000E+03	1.996109E-17	2.731851E-19
2.680000E+03	2.157289E-17	2.921746E-19
2.720000E+03	2.343390E-17	3.140228E-19
2.760000E+03	2.559024E-17	3.392321E-19
2.800000E+03	2.809762E-17	3.684039E-19
2.840000E+03	3.102468E-17	4.022751E-19
2.880000E+03	3.445820E-17	4.417766E-19
2.920000E+03	3.850417E-17	4.880332E-19
2.960000E+03	4.330025E-17	5.425076E-19
3.000000E+03	4.901603E-17	6.069814E-19
3.010000E+03	5.061431E-17	6.249332E-19
3.020000E+03	5.228655E-17	6.436809E-19
3.030000E+03	5.403671E-17	6.632654E-19
3.040000E+03	5.587149E-17	6.837604E-19
3.050000E+03	5.779425E-17	7.051981E-19
3.060000E+03	5.980980E-17	7.276281E-19
3.070000E+03	6.192459E-17	7.511190E-19
3.080000E+03	6.414276E-17	7.757107E-19
3.090000E+03	6.647009E-17	8.014623E-19
3.100000E+03	6.891551E-17	8.284698E-19
3.110000E+03	7.148279E-17	8.567667E-19
3.120000E+03	7.418028E-17	8.864403E-19
3.130000E+03	7.701385E-17	9.175474E-19
3.140000E+03	7.999596E-17	9.502225E-19
3.150000E+03	8.313018E-17	9.844929E-19
3.160000E+03	8.642696E-17	1.020467E-18
3.170000E+03	8.989724E-17	1.058257E-18
3.180000E+03	9.355101E-17	1.097964E-18
3.190000E+03	9.739508E-17	1.139649E-18
3.200000E+03	1.014459E-16	1.183486E-18
3.210000E+03	1.057115E-16	1.229547E-18
3.220000E+03	1.102061E-16	1.277977E-18
3.230000E+03	1.149403E-16	1.328879E-18
3.240000E+03	1.199298E-16	1.382407E-18
3.250000E+03	1.251888E-16	1.438702E-18
3.260000E+03	1.307319E-16	1.497907E-18
3.270000E+03	1.365723E-16	1.560146E-18
3.280000E+03	1.427280E-16	1.625595E-18
3.290000E+03	1.492153E-16	1.694412E-18
3.300000E+03	1.560486E-16	1.766729E-18
3.310000E+03	1.632473E-16	1.842734E-18
3.320000E+03	1.708260E-16	1.922558E-18
3.330000E+03	1.788041E-16	2.006387E-18
3.340000E+03	1.871959E-16	2.094345E-18
3.350000E+03	1.960173E-16	2.186573E-18
3.360000E+03	2.052835E-16	2.283204E-18
3.370000E+03	2.150082E-16	2.384354E-18
3.380000E+03	2.252034E-16	2.490115E-18
3.390000E+03	2.358750E-16	2.600516E-18
3.400000E+03	2.470325E-16	2.715621E-18
3.410000E+03	2.586708E-16	2.835337E-18
3.420000E+03	2.707941E-16	2.959674E-18
3.430000E+03	2.833861E-16	3.088416E-18
3.440000E+03	2.964308E-16	3.221357E-18
3.450000E+03	3.099048E-16	3.358210E-18
3.460000E+03	3.237725E-16	3.498565E-18
3.470000E+03	3.380009E-16	3.642040E-18
3.480000E+03	3.525479E-16	3.788162E-18
3.490000E+03	3.673923E-16	3.936690E-18
3.500000E+03	3.825436E-16	4.087713E-18
3.510000E+03	3.980164E-16	4.241372E-18
3.520000E+03	4.138392E-16	4.397957E-18
3.530000E+03	4.300220E-16	4.557560E-18
3.540000E+03	4.465955E-16	4.720491E-18
3.550000E+03	4.635802E-16	4.886949E-18
3.560000E+03	4.810008E-16	5.057178E-18
3.570000E+03	4.988699E-16	5.231291E-18
3.580000E+03	5.172032E-16	5.409436E-18
3.590000E+03	5.360274E-16	5.591874E-18
3.600000E+03	5.553426E-16	5.778586E-18
3.610000E+03	5.751716E-16	5.969793E-18
3.620000E+03	5.955223E-16	6.165561E-18
3.630000E+03	6.163935E-16	6.365858E-18
3.640000E+03	6.377873E-16	6.570693E-18
3.650000E+03	6.597094E-16	6.780107E-18
3.660000E+03	6.821488E-16	6.993964E-18
3.670000E+03	7.051124E-16	7.212320E-18
3.680000E+03	7.285746E-16	7.434891E-18
3.690000E+03	7.525283E-16	7.661588E-18
3.700000E+03	7.769549E-16	7.892208E-18
3.710000E+03	8.018406E-16	8.126596E-18
3.720000E+03	8.271501E-16	8.364381E-18
3.730000E+03	8.528622E-16	8.605340E-18
3.740000E+03	8.789413E-16	8.849105E-18
3.750000E+03	9.053574E-16	9.095369E-18
3.760000E+03	9.320670E-16	9.343689E-18
3.770000E+03	9.590314E-16	9.593679E-18
3.780000E+03	9.861973E-16	9.844805E-18
3.790000E+03	1.013508E-15	1.009651E-17
3.800000E+03	1.040932E-15	1.034848E-17
3.810000E+03	1.068383E-15	1.059987E-17
3.820000E+03	1.095808E-15	1.085018E-17
3.830000E+03	1.123159E-15	1.109893E-17
3.840000E+03	1.150342E-15	1.134522E-17
3.850000E+03	1.177289E-15	1.158841E-17
3.860000E+03	1.203934E-15	1.182787E-17
3.870000E+03	1.230201E-15	1.206288E-17
3.880000E+03	1.256009E-15	1.229269E-17
3.890000E+03	1.281266E-15	1.251643E-17
3.900000E+03	1.305899E-15	1.273341E-17
3.910000E+03	1.329824E-15	1.294288E-17
3.920000E+03	1.352955E-15	1.314405E-17
3.930000E+03	1.375210E-15	1.333615E-17
3.940000E+03	1.396502E-15	1.351841E-17
3.950000E+03	1.416763E-15	1.369021E-17
3.960000E+03	1.435914E-15	1.385086E-17
3.970000E+03	1.453862E-15	1.399952E-17
3.980000E+03	1.470561E-15	1.413580E-17
3.990000E+03	1.485926E-15	1.425895E-17
4.000000E+03	1.499906E-15	1.436857E-17
4.010000E+03	1.512443E-15	1.446413E-17
4.020000E+03	1.690454E-15	1.613936E-17
4.029200E+03	1.721092E-15	1.640663E-17
4.038400E+03	1.715505E-15	1.632841E-17
4.047600E+03	1.714443E-15	1.629353E-17
4.056800E+03	1.714188E-15	1.626653E-17
4.066000E+03	1.710562E-15	1.620777E-17
4.075200E+03	1.709549E-15	1.617401E-17
4.084400E+03	1.684106E-15	1.590964E-17
4.093600E+03	1.664123E-15	1.569766E-17
4.102800E+03	1.659938E-15	1.563518E-17
4.112000E+03	1.652170E-15	1.553927E-17
4.121200E+03	1.637812E-15	1.538181E-17
4.130400E+03	1.647942E-15	1.545453E-17
4.139600E+03	1.623461E-15	1.520299E-17
4.148800E+03	1.614399E-15	1.509642E-17
4.158000E+03	1.601103E-15	1.495068E-17
4.167200E+03	1.585120E-15	1.478035E-17
4.176400E+03	1.580117E-15	1.471278E-17
4.185600E+03	1.526951E-15	1.419764E-17
4.194800E+03	1.481876E-15	1.375911E-17
4.204000E+03	1.442211E-15	1.337201E-17
4.213200E+03	1.426522E-15	1.320803E-17
4.222400E+03	1.425014E-15	1.317565E-17
4.231600E+03	1.420058E-15	1.311155E-17
4.240800E+03	1.399931E-15	1.290779E-17
4.250000E+03	1.393250E-15	1.282840E-17
4.259200E+03	1.388980E-15	1.277143E-17
4.268400E+03	1.388235E-15	1.274700E-17
4.277600E+03	1.394805E-15	1.278974E-17
4.286800E+03	1.378553E-15	1.262339E-17
4.296000E+03	1.375742E-15	1.258042E-17
4.305200E+03	1.392190E-15	1.271346E-17
4.314400E+03	1.393611E-15	1.270911E-17
4.323600E+03	1.403287E-15	1.277996E-17
4.332800E+03	1.420568E-15	1.291978E-17
4.342000E+03	1.432875E-15	1.301407E-17
4.351200E+03	1.450626E-15	1.315750E-17
4.360400E+03	1.467635E-15	1.329381E-17
4.369600E+03	1.482816E-15	1.341323E-17
4.378800E+03	1.498344E-15	1.353547E-17
4.388000E+03	1.499765E-15	1.353013E-17
4.397200E+03	1.503473E-15	1.354540E-17
4.406400E+03	1.507492E-15	1.356344E-17
4.415600E+03	1.512527E-15	1.359057E-17
4.424800E+03	1.533050E-15	1.375660E-17
4.434000E+03	1.551825E-15	1.390655E-17
4.443200E+03	1.572102E-15	1.406954E-17
4.452400E+03	1.586068E-15	1.417570E-17
4.461600E+03	1.602991E-15	1.430797E-17
4.470800E+03	1.620865E-15	1.444839E-17
4.480000E+03	1.647173E-15	1.466352E-17
4.489200E+03	1.667601E-15	1.482583E-17
4.498400E+03	1.685396E-15	1.496434E-17
4.507600E+03	1.708846E-15	1.515265E-17
4.516800E+03	1.723222E-15	1.526013E-17
4.526000E+03	1.748605E-15	1.546468E-17
4.535200E+03	1.765512E-15	1.559386E-17
4.544400E+03	1.804046E-15	1.591350E-17
4.553600E+03	1.836486E-15	1.617865E-17
4.562800E+03	1.868975E-15	1.644358E-17
4.572000E+03	1.905793E-15	1.674589E-17
4.581200E+03	1.931859E-15	1.695310E-17
4.590400E+03	1.942338E-15	1.702322E-17
4.599600E+03	1.958998E-15	1.714729E-17
4.608800E+03	1.976436E-15	1.727791E-17
4.618000E+03	1.993693E-15	1.740666E-17
4.627200E+03	2.020697E-15	1.762013E-17
4.636400E+03	2.044333E-15	1.780379E-17
4.645600E+03	2.058157E-15	1.790172E-17
4.654800E+03	2.070974E-15	1.799072E-17
4.664000E+03	2.084386E-15	1.808474E-17
4.673200E+03	2.092749E-15	1.813485E-17
4.682400E+03	2.098624E-15	1.816340E-17
4.691600E+03	2.086155E-15	1.803340E-17
4.700800E+03	2.068713E-15	1.786088E-17
4.710000E+03	2.048224E-15	1.766259E-17
4.719200E+03	2.012674E-15	1.733518E-17
4.728400E+03	1.971275E-15	1.695835E-17
4.737600E+03	1.926939E-15	1.655729E-17
4.746800E+03	1.884056E-15	1.616976E-17
4.756000E+03	1.842799E-15	1.579720E-17
4.765200E+03	1.797144E-15	1.538797E-17
4.774400E+03	1.750184E-15	1.496866E-17
4.783600E+03	1.702249E-15	1.454211E-17
4.792800E+03	1.656286E-15	1.413347E-17
4.802000E+03	1.616930E-15	1.378221E-17
4.811200E+03	1.570258E-15	1.336957E-17
4.820400E+03	1.519734E-15	1.292522E-17
4.829600E+03	1.480693E-15	1.257952E-17
4.838800E+03	1.448862E-15	1.229591E-17
4.848000E+03	1.430275E-15	1.212532E-17
4.857200E+03	1.418653E-15	1.201421E-17
4.866400E+03	1.420831E-15	1.202023E-17
4.875600E+03	1.426418E-15	1.205521E-17
4.884800E+03	1.436171E-15	1.212544E-17
4.894000E+03	1.450357E-15	1.223307E-17
4.903200E+03	1.469091E-15	1.237897E-17
4.912400E+03	1.469774E-15	1.237276E-17
4.921600E+03	1.470552E-15	1.236750E-17
4.930800E+03	1.486147E-15	1.248688E-17
4.940000E+03	1.524181E-15	1.279451E-17
4.949200E+03	1.566890E-15	1.314091E-17
4.958400E+03	1.576284E-15	1.320765E-17
4.967600E+03	1.572506E-15	1.316412E-17
4.976800E+03	1.599252E-15	1.337607E-17
4.986000E+03	1.653284E-15	1.381576E-17
4.995200E+03	1.711885E-15	1.429293E-17
5.004400E+03	1.770058E-15	1.476579E-17
5.013600E+03	1.804189E-15	1.503754E-17
5.022800E+03	1.824791E-15	1.519625E-17
5.032000E+03	1.830403E-15	1.523005E-17
5.041200E+03	1.816792E-15	1.510405E-17
5.050400E+03	1.793150E-15	1.489501E-17
5.059600E+03	1.753607E-15	1.455440E-17
5.068800E+03	1.710130E-15	1.418179E-17
5.078000E+03	1.667469E-15	1.381660E-17
5.087200E+03	1.632228E-15	1.351348E-17
5.096400E+03	1.607496E-15	1.329783E-17
5.105600E+03	1.586995E-15	1.311752E-17
5.114800E+03	1.559995E-15	1.288386E-17
5.124000E+03	1.549299E-15	1.278513E-17
5.133200E+03	1.567504E-15	1.292488E-17
5.142400E+03	1.615280E-15	1.330804E-17
5.151600E+03	1.671904E-15	1.376342E-17
5.160800E+03	1.685358E-15	1.386296E-17
5.170000E+03	1.687725E-15	1.387121E-17
5.179200E+03	1.709349E-15	1.403758E-17
5.188400E+03	1.728964E-15	1.418718E-17
5.197600E+03	1.737675E-15	1.424710E-17
5.206800E+03	1.747799E-15	1.431848E-17
5.216000E+03	1.758527E-15	1.439466E-17
5.225200E+03	1.776315E-15	1.452841E-17
5.234400E+03	1.798724E-15	1.469968E-17
5.243600E+03	1.817528E-15	1.484118E-17
5.252800E+03	1.841430E-15	1.502400E-17
5.262000E+03	1.860606E-15	1.516793E-17
5.271200E+03	1.876517E-15	1.528497E-17
5.280400E+03	1.893991E-15	1.541447E-17
5.289600E+03	1.907089E-15	1.550811E-17
5.298800E+03	1.911661E-15	1.553226E-17
5.308000E+03	1.911575E-15	1.551847E-17
5.317200E+03	1.904289E-15	1.544622E-17
5.326400E+03	1.892220E-15	1.533527E-17
5.335600E+03	1.881290E-15	1.523364E-17
5.344800E+03	1.873410E-15	1.515678E-17
5.354000E+03	1.875420E-15	1.515992E-17
5.363200E+03	1.878066E-15	1.516810E-17
5.372400E+03	1.882458E-15	1.519027E-17
5.381600E+03	1.898755E-15	1.530829E-17
5.390800E+03	1.915022E-15	1.542577E-17
5.400000E+03	1.928566E-15	1.552103E-17
5.409200E+03	1.934326E-15	1.555343E-17
5.418400E+03	1.933272E-15	1.553093E-17
5.427600E+03	1.925584E-15	1.545513E-17
5.436800E+03	1.910646E-15	1.532122E-17
5.446000E+03	1.882959E-15	1.508533E-17
5.455200E+03	1.855640E-15	1.485270E-17
5.464400E+03	1.826641E-15	1.460698E-17
5.473600E+03	1.792503E-15	1.432057E-17
5.482800E+03	1.759373E-15	1.404264E-17
5.492000E+03	1.731014E-15	1.380319E-17
5.501200E+03	1.706471E-15	1.359450E-17
5.510400E+03	1.690750E-15	1.345634E-17
5.519600E+03	1.680378E-15	1.336088E-17
5.528800E+03	1.674404E-15	1.330046E-17
5.538000E+03	1.664375E-15	1.320789E-17
5.547200E+03	1.654518E-15	1.311679E-17
5.556400E+03	1.637814E-15	1.297155E-17
5.565600E+03	1.615528E-15	1.278237E-17
5.574800E+03	1.584252E-15	1.252241E-17
5.584000E+03	1.553405E-15	1.226631E-17
5.593200E+03	1.515092E-15	1.195175E-17
5.602400E+03	1.471695E-15	1.159769E-17
5.611600E+03	1.420762E-15	1.118497E-17
5.620800E+03	1.370497E-15	1.077829E-17
5.630000E+03	1.319858E-15	1.036945E-17
5.639200E+03	1.270813E-15	9.973901E-18
5.648400E+03	1.224932E-15	9.603938E-18
5.657600E+03	1.186574E-15	9.293627E-18
5.666800E+03	1.158938E-15	9.067809E-18
5.676000E+03	1.130551E-15	8.836563E-18
5.685200E+03	1.109138E-15	8.660223E-18
5.694400E+03	1.093386E-15	8.528392E-18
5.703600E+03	1.081639E-15	8.428014E-18
5.712800E+03	1.079865E-15	8.405467E-18
5.722000E+03	1.087496E-15	8.456092E-18
5.731200E+03	1.102945E-15	8.567332E-18
5.740400E+03	1.127517E-15	8.749126E-18
5.749600E+03	1.159303E-15	8.986473E-18
5.758800E+03	1.192864E-15	9.237081E-18
5.768000E+03	1.234625E-15	9.550621E-18
5.777200E+03	1.281119E-15	9.900109E-18
5.786400E+03	1.324221E-15	1.022272E-17
5.795600E+03	1.370580E-15	1.056982E-17
5.804800E+03	1.420383E-15	1.094278E-17
5.814000E+03	1.465701E-15	1.128052E-17
5.823200E+03	1.509682E-15	1.160735E-17
5.832400E+03	1.549559E-15	1.190207E-17
5.841600E+03	1.583545E-15	1.215107E-17
5.850800E+03	1.615026E-15	1.238047E-17
5.860000E+03	1.642803E-15	1.258113E-17
5.869200E+03	1.666584E-15	1.275094E-17
5.878400E+03	1.682016E-15	1.285672E-17
5.887600E+03	1.691834E-15	1.291954E-17
5.896800E+03	1.692001E-15	1.290876E-17
5.906000E+03	1.686599E-15	1.285568E-17
5.915200E+03	1.673700E-15	1.274577E-17
5.924400E+03	1.658717E-15	1.262035E-17
5.933600E+03	1.642404E-15	1.248522E-17
5.942800E+03	1.628796E-15	1.237104E-17
5.952000E+03	1.611176E-15	1.222679E-17
5.961200E+03	1.590597E-15	1.206055E-17
5.970400E+03	1.575701E-15	1.193784E-17
5.979600E+03	1.562899E-15	1.183138E-17
5.988800E+03	1.541354E-15	1.165918E-17
5.998000E+03	1.533325E-15	1.158962E-17
6.007200E+03	1.524257E-15	1.151256E-17
6.016400E+03	1.514156E-15	1.142804E-17
6.025600E+03	1.503762E-15	1.134169E-17
6.034800E+03	1.490129E-15	1.123130E-17
6.044000E+03	1.472679E-15	1.109256E-17
6.053200E+03	1.458707E-15	1.098046E-17
6.062400E+03	1.440314E-15	1.083551E-17
6.071600E+03	1.422709E-15	1.069694E-17
6.080800E+03	1.405405E-15	1.056108E-17
6.090000E+03	1.383051E-15	1.038772E-17
6.099200E+03	1.354750E-15	1.017019E-17
6.108400E+03	1.327990E-15	9.964740E-18
6.117600E+03	1.298983E-15	9.742917E-18
6.126800E+03	1.271894E-15	9.535965E-18
6.136000E+03	1.246704E-15	9.343710E-18
6.145200E+03	1.221707E-15	9.153343E-18
6.154400E+03	1.197557E-15	8.969741E-18
6.163600E+03	1.170897E-15	8.767738E-18
6.172800E+03	1.149746E-15	8.607353E-18
6.182000E+03	1.134768E-15	8.493511E-18
6.191200E+03	1.120632E-15	8.386257E-18
6.200400E+03	1.112818E-15	8.326575E-18
6.209600E+03	1.107525E-15	8.286009E-18
6.218800E+03	1.099335E-15	8.224005E-18
6.228000E+03	1.095491E-15	8.194723E-18
6.237200E+03	1.091108E-15	8.161621E-18
6.246400E+03	1.090558E-15	8.157390E-18
6.255600E+03	1.086407E-15	8.126409E-18
6.264800E+03	1.084077E-15	8.109227E-18
6.274000E+03	1.084195E-15	8.110532E-18
6.283200E+03	1.084869E-15	8.116159E-18
6.292400E+03	1.084644E-15	8.115213E-18
6.301600E+03	1.083948E-15	8.110894E-18
6.310800E+03	1.085901E-15	8.126541E-18
6.320000E+03	1.090533E-15	8.162371E-18
6.329200E+03	1.097071E-15	8.212614E-18
6.338400E+03	1.101203E-15	8.244970E-18
6.347600E+03	1.105254E-15	8.276856E-18
6.356800E+03	1.107683E-15	8.296705E-18
6.366000E+03	1.103193E-15	8.264819E-18
6.375200E+03	1.096274E-15	8.214817E-18
6.384400E+03	1.087301E-15	8.149477E-18
6.393600E+03	1.078495E-15	8.085440E-18
6.402800E+03	1.064773E-15	7.984568E-18
6.412000E+03	1.051597E-15	7.887806E-18
6.421200E+03	1.035588E-15	7.769783E-18
6.430400E+03	1.024994E-15	7.692391E-18
6.439600E+03	1.014264E-15	7.613968E-18
6.448800E+03	1.005825E-15	7.552737E-18
6.458000E+03	9.914840E-16	7.447174E-18
6.467200E+03	9.878210E-16	7.421795E-18
6.476400E+03	9.793197E-16	7.360055E-18
6.485600E+03	9.710960E-16	7.300376E-18
6.494800E+03	9.630542E-16	7.242034E-18
6.504000E+03	9.579407E-16	7.205686E-18
6.513200E+03	9.670097E-16	7.276023E-18
6.522400E+03	9.732635E-16	7.325202E-18
6.531600E+03	9.290026E-16	6.994091E-18
6.540800E+03	9.080142E-16	6.838029E-18
6.550000E+03	9.139559E-16	6.884718E-18
6.559200E+03	9.435675E-16	7.109759E-18
6.568400E+03	9.893455E-16	7.456739E-18
6.577600E+03	1.043018E-15	7.863385E-18
6.586800E+03	1.095699E-15	8.262728E-18
6.596000E+03	1.144850E-15	8.635607E-18
6.605200E+03	1.181192E-15	8.911969E-18
6.614400E+03	1.206105E-15	9.102157E-18
6.623600E+03	1.219300E-15	9.203912E-18
6.632800E+03	1.218756E-15	9.201908E-18
6.642000E+03	1.201960E-15	9.077090E-18
6.651200E+03	1.175288E-15	8.877541E-18
6.660400E+03	1.136824E-15	8.588734E-18
6.669600E+03	1.101473E-15	8.323257E-18
6.678800E+03	1.059628E-15	8.008514E-18
6.688000E+03	1.018414E-15	7.698349E-18
6.697200E+03	9.915752E-16	7.496675E-18
6.706400E+03	9.926227E-16	7.505718E-18
6.715600E+03	1.027285E-15	7.768892E-18
6.724800E+03	1.052747E-15	7.962460E-18
6.734000E+03	1.032368E-15	7.809219E-18
6.743200E+03	1.024646E-15	7.751601E-18
6.752400E+03	1.015471E-15	7.682878E-18
6.761600E+03	1.008657E-15	7.631914E-18
6.770800E+03	9.986782E-16	7.556897E-18
6.780000E+03	9.881109E-16	7.477318E-18
6.789200E+03	9.707595E-16	7.346294E-18
6.798400E+03	9.517806E-16	7.202846E-18
6.807600E+03	9.263014E-16	7.010103E-18
6.816800E+03	9.008742E-16	6.817654E-18
6.826000E+03	8.789810E-16	6.651861E-18
6.835200E+03	8.566157E-16	6.482410E-18
6.844400E+03	8.338932E-16	6.310178E-18
6.853600E+03	8.179549E-16	6.189210E-18
6.862800E+03	8.062286E-16	6.100039E-18
6.872000E+03	8.051026E-16	6.090993E-18
6.881200E+03	8.051956E-16	6.091084E-18
6.890400E+03	8.045293E-16	6.085347E-18
6.899600E+03	8.065769E-16	6.100051E-18
6.908800E+03	8.138418E-16	6.154117E-18
6.918000E+03	8.231532E-16	6.223555E-18
6.927200E+03	8.286895E-16	6.264347E-18
6.936400E+03	8.359333E-16	6.317944E-18
6.945600E+03	8.391878E-16	6.341289E-18
6.954800E+03	8.453578E-16	6.386566E-18
6.964000E+03	8.473823E-16	6.400426E-18
6.973200E+03	8.499896E-16	6.418597E-18
6.982400E+03	8.537270E-16	6.445207E-18
6.991600E+03	8.564746E-16	6.464251E-18
7.000800E+03	8.616941E-16	6.501854E-18
7.010000E+03	8.612753E-16	6.496826E-18
7.019200E+03	8.648152E-16	6.521574E-18
7.028400E+03	8.686201E-16	6.548229E-18
7.037600E+03	8.702326E-16	6.558268E-18
7.046800E+03	8.685239E-16	6.543206E-18
7.056000E+03	8.638216E-16	6.505538E-18
7.065200E+03	8.581518E-16	6.460544E-18
7.074400E+03	8.541094E-16	6.427764E-18
7.083600E+03	8.471731E-16	6.373174E-18
7.092800E+03	8.443017E-16	6.349134E-18
7.102000E+03	8.420133E-16	6.329437E-18
7.111200E+03	8.417345E-16	6.324801E-18
7.120400E+03	8.410419E-16	6.317010E-18
7.129600E+03	8.418250E-16	6.320256E-18
7.138800E+03	8.440762E-16	6.334470E-18
7.148000E+03	8.480530E-16	6.361574E-18
7.157200E+03	8.508123E-16	6.379486E-18
7.166400E+03	8.484111E-16	6.358669E-18
7.175600E+03	8.469662E-16	6.345002E-18
7.184800E+03	8.439899E-16	6.319850E-18
7.194000E+03	8.408616E-16	6.293559E-18
7.203200E+03	8.345952E-16	6.243793E-18
7.212400E+03	8.271201E-16	6.185016E-18
7.221600E+03	8.235112E-16	6.155177E-18
7.230800E+03	8.155124E-16	6.092561E-18
7.240000E+03	8.082772E-16	6.035699E-18
7.249200E+03	8.013157E-16	5.980931E-18
7.258400E+03	7.926054E-16	5.913172E-18
7.267600E+03	7.842745E-16	5.848310E-18
7.276800E+03	7.772667E-16	5.793382E-18
7.286000E+03	7.664053E-16	5.709809E-18
7.295200E+03	7.554897E-16	5.625929E-18
7.304400E+03	7.421322E-16	5.523972E-18
7.313600E+03	7.306300E-16	5.435938E-18
7.322800E+03	7.179338E-16	5.339133E-18
7.332000E+03	7.063485E-16	5.250705E-18
7.341200E+03	6.974639E-16	5.182459E-18
7.350400E+03	6.879057E-16	5.109311E-18
7.359600E+03	6.781544E-16	5.034834E-18
7.368800E+03	6.652752E-16	4.937255E-18
7.378000E+03	6.550522E-16	4.859510E-18
7.387200E+03	6.466666E-16	4.795507E-18
7.396400E+03	6.394252E-16	4.740093E-18
7.405600E+03	6.283416E-16	4.656310E-18
7.414800E+03	6.198314E-16	4.591715E-18
7.424000E+03	6.125048E-16	4.535997E-18
7.433200E+03	6.023033E-16	4.459104E-18
7.442400E+03	5.951489E-16	4.404883E-18
7.451600E+03	5.888162E-16	4.356853E-18
7.460800E+03	5.816374E-16	4.302671E-18
