#wls	flux	fluxerr
1.600000E+03	1.214927E-17	4.956703E-19
1.640000E+03	1.218969E-17	4.956709E-19
1.680000E+03	1.225389E-17	4.965822E-19
1.720000E+03	1.234282E-17	4.984310E-19
1.760000E+03	1.245877E-17	5.012974E-19
1.800000E+03	1.260285E-17	5.052115E-19
1.840000E+03	1.277748E-17	5.102546E-19
1.880000E+03	1.298520E-17	5.165115E-19
1.920000E+03	1.322753E-17	5.240230E-19
1.960000E+03	1.350742E-17	5.328850E-19
2.000000E+03	1.382803E-17	5.431988E-19
2.040000E+03	1.419283E-17	5.550746E-19
2.080000E+03	1.460457E-17	5.685909E-19
2.120000E+03	1.506759E-17	5.838847E-19
2.160000E+03	1.558460E-17	6.010257E-19
2.200000E+03	1.615900E-17	6.201060E-19
2.240000E+03	1.679072E-17	6.410816E-19
2.280000E+03	1.748057E-17	6.639400E-19
2.320000E+03	1.824174E-17	6.891342E-19
2.360000E+03	1.909267E-17	7.173008E-19
2.400000E+03	2.005101E-17	7.490300E-19
2.440000E+03	2.113407E-17	7.848809E-19
2.480000E+03	2.236028E-17	8.254343E-19
2.520000E+03	2.375167E-17	8.713838E-19
2.560000E+03	2.533132E-17	9.234345E-19
2.600000E+03	2.712817E-17	9.824775E-19
2.640000E+03	2.917351E-17	1.049454E-18
2.680000E+03	3.150148E-17	1.125367E-18
2.720000E+03	3.415469E-17	1.211480E-18
2.760000E+03	3.717933E-17	1.309126E-18
2.800000E+03	4.062849E-17	1.419822E-18
2.840000E+03	4.456195E-17	1.545243E-18
2.880000E+03	4.904990E-17	1.687346E-18
2.920000E+03	5.418312E-17	1.848691E-18
2.960000E+03	6.008446E-17	2.032802E-18
3.000000E+03	6.690435E-17	2.243962E-18
3.010000E+03	6.877247E-17	2.301527E-18
3.020000E+03	7.071449E-17	2.361258E-18
3.030000E+03	7.272984E-17	2.423117E-18
3.040000E+03	7.482293E-17	2.487233E-18
3.050000E+03	7.700009E-17	2.553795E-18
3.060000E+03	7.926100E-17	2.622771E-18
3.070000E+03	8.161231E-17	2.694360E-18
3.080000E+03	8.405742E-17	2.768650E-18
3.090000E+03	8.659986E-17	2.845733E-18
3.100000E+03	8.924328E-17	2.925703E-18
3.110000E+03	9.199525E-17	3.008783E-18
3.120000E+03	9.485798E-17	3.095014E-18
3.130000E+03	9.783759E-17	3.184569E-18
3.140000E+03	1.009385E-16	3.277560E-18
3.150000E+03	1.041654E-16	3.374105E-18
3.160000E+03	1.075251E-16	3.474393E-18
3.170000E+03	1.110247E-16	3.578615E-18
3.180000E+03	1.146654E-16	3.686776E-18
3.190000E+03	1.184592E-16	3.799219E-18
3.200000E+03	1.224097E-16	3.916024E-18
3.210000E+03	1.265255E-16	4.037415E-18
3.220000E+03	1.308130E-16	4.163557E-18
3.230000E+03	1.352767E-16	4.294546E-18
3.240000E+03	1.399309E-16	4.430783E-18
3.250000E+03	1.447762E-16	4.572236E-18
3.260000E+03	1.498279E-16	4.719337E-18
3.270000E+03	1.550948E-16	4.872304E-18
3.280000E+03	1.605811E-16	5.031211E-18
3.290000E+03	1.663045E-16	5.196545E-18
3.300000E+03	1.722704E-16	5.368413E-18
3.310000E+03	1.784932E-16	5.547194E-18
3.320000E+03	1.849854E-16	5.733200E-18
3.330000E+03	1.917635E-16	5.926869E-18
3.340000E+03	1.988396E-16	6.128493E-18
3.350000E+03	2.062302E-16	6.338495E-18
3.360000E+03	2.139536E-16	6.557343E-18
3.370000E+03	2.220327E-16	6.785648E-18
3.380000E+03	2.304868E-16	7.023892E-18
3.390000E+03	2.393407E-16	7.272726E-18
3.400000E+03	2.486219E-16	7.532863E-18
3.410000E+03	2.583577E-16	7.805012E-18
3.420000E+03	2.685820E-16	8.090058E-18
3.430000E+03	2.793324E-16	8.388990E-18
3.440000E+03	2.906465E-16	8.702788E-18
3.450000E+03	3.025694E-16	9.032630E-18
3.460000E+03	3.151453E-16	9.379657E-18
3.470000E+03	3.284205E-16	9.745052E-18
3.480000E+03	3.424406E-16	1.012997E-17
3.490000E+03	3.572396E-16	1.053518E-17
3.500000E+03	3.728480E-16	1.096136E-17
3.510000E+03	3.892838E-16	1.140880E-17
3.520000E+03	4.065563E-16	1.187753E-17
3.530000E+03	4.246657E-16	1.236730E-17
3.540000E+03	4.436216E-16	1.287815E-17
3.550000E+03	4.634170E-16	1.340962E-17
3.560000E+03	4.840305E-16	1.396082E-17
3.570000E+03	5.054504E-16	1.453119E-17
3.580000E+03	5.276557E-16	1.511987E-17
3.590000E+03	5.506154E-16	1.572573E-17
3.600000E+03	5.742871E-16	1.634733E-17
3.610000E+03	5.986444E-16	1.698370E-17
3.620000E+03	6.236448E-16	1.763341E-17
3.630000E+03	6.492402E-16	1.829491E-17
3.640000E+03	6.754067E-16	1.896732E-17
3.650000E+03	7.020989E-16	1.964920E-17
3.660000E+03	7.292727E-16	2.033913E-17
3.670000E+03	7.568863E-16	2.103579E-17
3.680000E+03	7.848941E-16	2.173777E-17
3.690000E+03	8.132395E-16	2.244335E-17
3.700000E+03	8.418830E-16	2.315134E-17
3.710000E+03	8.707531E-16	2.385967E-17
3.720000E+03	8.997957E-16	2.456677E-17
3.730000E+03	9.289617E-16	2.527122E-17
3.740000E+03	9.581597E-16	2.597049E-17
3.750000E+03	9.873499E-16	2.666348E-17
3.760000E+03	1.016433E-15	2.734749E-17
3.770000E+03	1.045358E-15	2.802116E-17
3.780000E+03	1.074043E-15	2.868235E-17
3.790000E+03	1.102406E-15	2.932891E-17
3.800000E+03	1.130374E-15	2.995897E-17
3.810000E+03	1.157858E-15	3.057035E-17
3.820000E+03	1.184784E-15	3.116113E-17
3.830000E+03	1.211070E-15	3.172941E-17
3.840000E+03	1.236631E-15	3.227309E-17
3.850000E+03	1.261390E-15	3.279040E-17
3.860000E+03	1.285270E-15	3.327957E-17
3.870000E+03	1.308186E-15	3.373870E-17
3.880000E+03	1.330067E-15	3.416620E-17
3.890000E+03	1.350842E-15	3.456061E-17
3.900000E+03	1.370439E-15	3.492039E-17
3.910000E+03	1.388794E-15	3.524429E-17
3.920000E+03	1.405840E-15	3.553102E-17
3.930000E+03	1.421539E-15	3.577999E-17
3.940000E+03	1.435835E-15	3.599025E-17
3.950000E+03	1.448692E-15	3.616131E-17
3.960000E+03	1.460059E-15	3.629236E-17
3.970000E+03	1.469935E-15	3.638385E-17
3.980000E+03	1.478285E-15	3.643540E-17
3.990000E+03	1.485107E-15	3.644743E-17
4.000000E+03	1.490396E-15	3.642032E-17
4.010000E+03	1.494180E-15	3.635521E-17
4.020000E+03	1.496464E-15	3.625273E-17
4.030000E+03	1.497295E-15	3.611452E-17
4.040000E+03	1.496703E-15	3.594172E-17
4.050000E+03	1.494757E-15	3.573647E-17
4.060000E+03	1.491502E-15	3.550031E-17
4.070000E+03	1.487020E-15	3.523558E-17
4.080000E+03	1.481397E-15	3.494470E-17
4.090000E+03	1.474726E-15	3.463026E-17
4.100000E+03	1.467090E-15	3.429453E-17
4.110000E+03	1.458595E-15	3.394031E-17
4.120000E+03	1.449342E-15	3.357025E-17
4.130000E+03	1.439448E-15	3.318726E-17
4.140000E+03	1.429029E-15	3.279426E-17
4.150000E+03	1.418182E-15	3.239361E-17
4.160000E+03	1.407033E-15	3.198839E-17
4.170000E+03	1.395678E-15	3.158082E-17
4.180000E+03	1.384232E-15	3.117359E-17
4.190000E+03	1.372806E-15	3.076923E-17
4.200000E+03	1.361487E-15	3.036972E-17
4.210000E+03	1.350383E-15	2.997738E-17
4.220000E+03	1.339581E-15	2.959413E-17
4.230000E+03	1.329188E-15	2.922221E-17
4.240000E+03	1.319265E-15	2.886285E-17
4.250000E+03	1.309907E-15	2.851798E-17
4.260000E+03	1.301175E-15	2.818875E-17
4.270000E+03	1.293154E-15	2.787678E-17
4.280000E+03	1.285883E-15	2.758274E-17
4.290000E+03	1.279424E-15	2.730769E-17
4.300000E+03	1.273838E-15	2.705270E-17
4.310000E+03	1.269145E-15	2.681793E-17
4.320000E+03	1.265403E-15	2.660432E-17
4.330000E+03	1.262615E-15	2.641163E-17
4.340000E+03	1.260826E-15	2.624053E-17
4.350000E+03	1.260016E-15	2.609030E-17
4.360000E+03	1.260209E-15	2.596113E-17
4.370000E+03	1.261447E-15	2.585359E-17
4.380000E+03	1.263739E-15	2.576756E-17
4.390000E+03	1.267097E-15	2.570295E-17
4.400000E+03	1.271514E-15	2.565931E-17
4.410000E+03	1.276960E-15	2.563574E-17
4.420000E+03	1.283436E-15	2.563196E-17
4.430000E+03	1.290893E-15	2.564670E-17
4.440000E+03	1.299298E-15	2.567901E-17
4.450000E+03	1.308597E-15	2.572758E-17
4.460000E+03	1.318739E-15	2.579116E-17
4.470000E+03	1.329644E-15	2.586797E-17
4.480000E+03	1.341251E-15	2.595665E-17
4.490000E+03	1.353465E-15	2.605514E-17
4.500000E+03	1.366183E-15	2.616138E-17
4.510000E+03	1.379318E-15	2.627354E-17
4.520000E+03	1.392724E-15	2.638883E-17
4.530000E+03	1.406281E-15	2.650489E-17
4.540000E+03	1.419855E-15	2.661927E-17
4.550000E+03	1.433278E-15	2.672883E-17
4.560000E+03	1.446399E-15	2.683089E-17
4.570000E+03	1.459038E-15	2.692224E-17
4.580000E+03	1.471037E-15	2.700022E-17
4.590000E+03	1.482231E-15	2.706199E-17
4.600000E+03	1.492457E-15	2.710492E-17
4.610000E+03	1.501550E-15	2.712636E-17
4.620000E+03	1.509393E-15	2.712455E-17
4.630000E+03	1.515837E-15	2.709724E-17
4.640000E+03	1.520790E-15	2.704325E-17
4.650000E+03	1.524173E-15	2.696163E-17
4.660000E+03	1.525918E-15	2.685167E-17
4.670000E+03	1.526025E-15	2.671384E-17
4.680000E+03	1.524467E-15	2.654819E-17
4.690000E+03	1.521293E-15	2.635602E-17
4.700000E+03	1.516591E-15	2.613933E-17
4.710000E+03	1.510445E-15	2.589998E-17
4.720000E+03	1.502988E-15	2.564063E-17
4.730000E+03	1.494379E-15	2.536435E-17
4.740000E+03	1.484788E-15	2.507431E-17
4.750000E+03	1.474396E-15	2.477383E-17
4.760000E+03	1.463422E-15	2.446677E-17
4.770000E+03	1.452040E-15	2.415616E-17
4.780000E+03	1.440465E-15	2.384566E-17
4.790000E+03	1.428873E-15	2.353823E-17
4.800000E+03	1.417407E-15	2.323621E-17
4.810000E+03	1.406226E-15	2.294216E-17
4.820000E+03	1.395421E-15	2.265747E-17
4.830000E+03	1.385069E-15	2.238330E-17
4.840000E+03	1.375219E-15	2.212033E-17
4.850000E+03	1.365900E-15	2.186890E-17
4.860000E+03	1.357156E-15	2.162961E-17
4.870000E+03	1.348970E-15	2.140203E-17
4.880000E+03	1.341380E-15	2.118663E-17
4.890000E+03	1.334387E-15	2.098321E-17
4.900000E+03	1.328017E-15	2.079202E-17
4.910000E+03	1.322263E-15	2.061273E-17
4.920000E+03	1.317124E-15	2.044515E-17
4.930000E+03	1.312606E-15	2.028920E-17
4.940000E+03	1.308665E-15	2.014403E-17
4.950000E+03	1.305288E-15	2.000928E-17
4.960000E+03	1.302445E-15	1.988431E-17
4.970000E+03	1.300087E-15	1.976825E-17
4.980000E+03	1.298153E-15	1.966003E-17
4.990000E+03	1.296594E-15	1.955878E-17
5.000000E+03	1.295376E-15	1.946390E-17
5.010000E+03	1.294435E-15	1.937431E-17
5.020000E+03	1.293769E-15	1.928990E-17
5.030000E+03	1.293345E-15	1.921008E-17
5.040000E+03	1.293173E-15	1.913492E-17
5.050000E+03	1.293282E-15	1.906476E-17
5.060000E+03	1.293694E-15	1.899984E-17
5.070000E+03	1.294453E-15	1.894072E-17
5.080000E+03	1.295596E-15	1.888784E-17
5.090000E+03	1.297195E-15	1.884213E-17
5.100000E+03	1.299306E-15	1.880431E-17
5.110000E+03	1.301966E-15	1.877479E-17
5.120000E+03	1.305236E-15	1.875434E-17
5.130000E+03	1.309158E-15	1.874341E-17
5.140000E+03	1.313772E-15	1.874243E-17
5.150000E+03	1.319080E-15	1.875132E-17
5.160000E+03	1.325090E-15	1.877005E-17
5.170000E+03	1.331792E-15	1.879831E-17
5.180000E+03	1.339208E-15	1.883630E-17
5.190000E+03	1.347300E-15	1.888336E-17
5.200000E+03	1.356053E-15	1.893911E-17
5.210000E+03	1.365443E-15	1.900314E-17
5.220000E+03	1.375454E-15	1.907506E-17
5.230000E+03	1.386023E-15	1.915390E-17
5.240000E+03	1.397098E-15	1.923881E-17
5.250000E+03	1.408648E-15	1.932929E-17
5.260000E+03	1.420561E-15	1.942370E-17
5.270000E+03	1.432768E-15	1.952099E-17
5.280000E+03	1.445148E-15	1.961949E-17
5.290000E+03	1.457590E-15	1.971759E-17
5.300000E+03	1.469992E-15	1.981391E-17
5.310000E+03	1.482211E-15	1.990649E-17
5.320000E+03	1.494147E-15	1.999399E-17
5.330000E+03	1.505689E-15	2.007495E-17
5.340000E+03	1.516733E-15	2.014799E-17
5.350000E+03	1.527192E-15	2.021202E-17
5.360000E+03	1.536939E-15	2.026541E-17
5.370000E+03	1.545899E-15	2.030727E-17
5.380000E+03	1.553982E-15	2.033648E-17
5.390000E+03	1.561083E-15	2.035180E-17
5.400000E+03	1.567146E-15	2.035260E-17
5.410000E+03	1.572057E-15	2.033756E-17
5.420000E+03	1.575707E-15	2.030541E-17
5.430000E+03	1.577994E-15	2.025501E-17
5.440000E+03	1.578829E-15	2.018540E-17
5.450000E+03	1.578087E-15	2.009519E-17
5.460000E+03	1.575695E-15	1.998370E-17
5.470000E+03	1.571585E-15	1.985029E-17
5.480000E+03	1.565679E-15	1.969425E-17
5.490000E+03	1.557958E-15	1.951560E-17
5.500000E+03	1.548443E-15	1.931489E-17
5.510000E+03	1.537145E-15	1.909253E-17
5.520000E+03	1.524107E-15	1.884936E-17
5.530000E+03	1.509399E-15	1.858649E-17
5.540000E+03	1.493166E-15	1.830600E-17
5.550000E+03	1.475503E-15	1.800931E-17
5.560000E+03	1.456600E-15	1.769896E-17
5.570000E+03	1.436655E-15	1.737759E-17
5.580000E+03	1.415906E-15	1.704823E-17
5.590000E+03	1.394619E-15	1.671423E-17
5.600000E+03	1.373083E-15	1.637917E-17
5.610000E+03	1.351635E-15	1.604710E-17
5.620000E+03	1.330590E-15	1.572176E-17
5.630000E+03	1.310300E-15	1.540725E-17
5.640000E+03	1.291151E-15	1.510799E-17
5.650000E+03	1.273478E-15	1.482771E-17
5.660000E+03	1.257598E-15	1.456983E-17
5.670000E+03	1.243835E-15	1.433783E-17
5.680000E+03	1.232485E-15	1.413474E-17
5.690000E+03	1.223770E-15	1.396270E-17
5.700000E+03	1.217928E-15	1.382397E-17
5.710000E+03	1.215161E-15	1.372033E-17
5.720000E+03	1.215582E-15	1.365254E-17
5.730000E+03	1.219298E-15	1.362123E-17
5.740000E+03	1.226349E-15	1.362627E-17
5.750000E+03	1.236735E-15	1.366709E-17
5.760000E+03	1.250397E-15	1.374243E-17
5.770000E+03	1.267238E-15	1.385068E-17
5.780000E+03	1.287021E-15	1.398869E-17
5.790000E+03	1.309513E-15	1.415345E-17
5.800000E+03	1.334362E-15	1.434068E-17
5.810000E+03	1.361189E-15	1.454596E-17
5.820000E+03	1.389548E-15	1.476419E-17
5.830000E+03	1.418949E-15	1.498996E-17
5.840000E+03	1.448886E-15	1.521783E-17
5.850000E+03	1.478812E-15	1.544201E-17
5.860000E+03	1.508168E-15	1.565677E-17
5.870000E+03	1.536393E-15	1.585648E-17
5.880000E+03	1.562992E-15	1.603633E-17
5.890000E+03	1.587453E-15	1.619147E-17
5.900000E+03	1.609355E-15	1.631810E-17
5.910000E+03	1.628295E-15	1.641269E-17
5.920000E+03	1.643983E-15	1.647295E-17
5.930000E+03	1.656201E-15	1.649739E-17
5.940000E+03	1.664822E-15	1.648543E-17
5.950000E+03	1.669804E-15	1.643739E-17
5.960000E+03	1.671245E-15	1.635495E-17
5.970000E+03	1.669348E-15	1.624078E-17
5.980000E+03	1.664321E-15	1.609755E-17
5.990000E+03	1.656514E-15	1.592922E-17
6.000000E+03	1.646258E-15	1.573948E-17
6.010000E+03	1.633934E-15	1.553247E-17
6.020000E+03	1.619957E-15	1.531246E-17
6.030000E+03	1.604692E-15	1.508323E-17
6.040000E+03	1.588561E-15	1.484897E-17
6.050000E+03	1.571873E-15	1.461273E-17
6.060000E+03	1.554963E-15	1.437775E-17
6.070000E+03	1.538096E-15	1.414651E-17
6.080000E+03	1.521387E-15	1.392012E-17
6.090000E+03	1.504916E-15	1.369930E-17
6.100000E+03	1.488742E-15	1.348457E-17
6.110000E+03	1.472877E-15	1.327606E-17
6.120000E+03	1.457316E-15	1.307366E-17
6.130000E+03	1.442043E-15	1.287726E-17
6.140000E+03	1.427026E-15	1.268653E-17
6.150000E+03	1.412235E-15	1.250118E-17
6.160000E+03	1.397663E-15	1.232117E-17
6.170000E+03	1.383322E-15	1.214657E-17
6.180000E+03	1.369238E-15	1.197758E-17
6.190000E+03	1.355435E-15	1.181440E-17
6.200000E+03	1.341960E-15	1.165736E-17
6.210000E+03	1.328864E-15	1.150677E-17
6.220000E+03	1.316228E-15	1.136317E-17
6.230000E+03	1.304140E-15	1.122718E-17
6.240000E+03	1.292674E-15	1.109928E-17
6.250000E+03	1.281928E-15	1.098015E-17
6.260000E+03	1.271991E-15	1.087042E-17
6.270000E+03	1.262888E-15	1.077015E-17
6.280000E+03	1.254654E-15	1.067949E-17
6.290000E+03	1.247292E-15	1.059836E-17
6.300000E+03	1.240742E-15	1.052611E-17
6.310000E+03	1.234996E-15	1.046256E-17
6.320000E+03	1.229982E-15	1.040701E-17
6.330000E+03	1.225592E-15	1.035845E-17
6.340000E+03	1.221782E-15	1.031642E-17
6.350000E+03	1.218459E-15	1.028006E-17
6.360000E+03	1.215512E-15	1.024837E-17
6.370000E+03	1.212873E-15	1.022070E-17
6.380000E+03	1.210524E-15	1.019686E-17
6.390000E+03	1.208403E-15	1.017625E-17
6.400000E+03	1.206506E-15	1.015879E-17
6.410000E+03	1.204887E-15	1.014490E-17
6.420000E+03	1.203537E-15	1.013445E-17
6.430000E+03	1.202494E-15	1.012771E-17
6.440000E+03	1.201875E-15	1.012563E-17
6.450000E+03	1.201822E-15	1.012938E-17
6.460000E+03	1.202465E-15	1.014001E-17
6.470000E+03	1.203975E-15	1.015895E-17
6.480000E+03	1.206501E-15	1.018745E-17
6.490000E+03	1.210203E-15	1.022685E-17
6.500000E+03	1.215206E-15	1.027820E-17
6.510000E+03	1.221633E-15	1.034256E-17
6.520000E+03	1.229582E-15	1.042078E-17
6.530000E+03	1.239098E-15	1.051329E-17
6.540000E+03	1.250228E-15	1.062051E-17
6.550000E+03	1.262954E-15	1.074235E-17
6.560000E+03	1.277139E-15	1.087769E-17
6.570000E+03	1.292633E-15	1.102532E-17
6.580000E+03	1.309203E-15	1.118330E-17
6.590000E+03	1.326595E-15	1.134951E-17
6.600000E+03	1.344537E-15	1.152167E-17
6.610000E+03	1.362670E-15	1.169674E-17
6.620000E+03	1.380719E-15	1.187239E-17
6.630000E+03	1.398265E-15	1.204501E-17
6.640000E+03	1.414999E-15	1.221194E-17
6.650000E+03	1.430545E-15	1.236992E-17
6.660000E+03	1.444574E-15	1.251603E-17
6.670000E+03	1.456808E-15	1.264780E-17
6.680000E+03	1.466997E-15	1.276290E-17
6.690000E+03	1.474963E-15	1.285959E-17
6.700000E+03	1.480566E-15	1.293651E-17
6.710000E+03	1.483732E-15	1.299278E-17
6.720000E+03	1.484352E-15	1.302727E-17
6.730000E+03	1.482472E-15	1.304015E-17
6.740000E+03	1.478108E-15	1.303138E-17
6.750000E+03	1.471351E-15	1.300153E-17
6.760000E+03	1.462338E-15	1.295162E-17
6.770000E+03	1.451256E-15	1.288311E-17
6.780000E+03	1.438350E-15	1.279800E-17
6.790000E+03	1.423823E-15	1.269795E-17
6.800000E+03	1.407989E-15	1.258560E-17
6.810000E+03	1.391153E-15	1.246359E-17
6.820000E+03	1.373617E-15	1.233449E-17
6.830000E+03	1.355656E-15	1.220073E-17
6.840000E+03	1.337535E-15	1.206462E-17
6.850000E+03	1.319509E-15	1.192844E-17
6.860000E+03	1.301782E-15	1.179404E-17
6.870000E+03	1.284604E-15	1.166365E-17
6.880000E+03	1.268193E-15	1.153930E-17
6.890000E+03	1.252718E-15	1.142255E-17
6.900000E+03	1.238385E-15	1.131531E-17
6.910000E+03	1.225346E-15	1.121905E-17
6.920000E+03	1.213654E-15	1.113431E-17
6.930000E+03	1.203351E-15	1.106155E-17
6.940000E+03	1.194465E-15	1.100108E-17
6.950000E+03	1.186911E-15	1.095220E-17
6.960000E+03	1.180590E-15	1.091406E-17
6.970000E+03	1.175408E-15	1.088585E-17
6.980000E+03	1.171201E-15	1.086610E-17
6.990000E+03	1.167814E-15	1.085342E-17
7.000000E+03	1.165062E-15	1.084611E-17
7.010000E+03	1.162823E-15	1.084308E-17
7.020000E+03	1.160909E-15	1.084260E-17
7.030000E+03	1.159165E-15	1.084321E-17
7.040000E+03	1.157425E-15	1.084339E-17
7.050000E+03	1.155589E-15	1.084220E-17
7.060000E+03	1.153524E-15	1.083839E-17
7.070000E+03	1.151185E-15	1.083155E-17
7.080000E+03	1.148433E-15	1.082035E-17
7.090000E+03	1.145261E-15	1.080473E-17
7.100000E+03	1.141607E-15	1.078410E-17
7.110000E+03	1.137475E-15	1.075850E-17
7.120000E+03	1.132809E-15	1.072739E-17
7.130000E+03	1.127656E-15	1.069123E-17
7.140000E+03	1.121975E-15	1.064962E-17
7.150000E+03	1.115800E-15	1.060290E-17
7.160000E+03	1.109133E-15	1.055110E-17
7.170000E+03	1.101976E-15	1.049423E-17
7.180000E+03	1.094310E-15	1.043214E-17
7.190000E+03	1.086138E-15	1.036485E-17
7.200000E+03	1.077487E-15	1.029265E-17
7.210000E+03	1.068338E-15	1.021536E-17
7.220000E+03	1.058720E-15	1.013328E-17
7.230000E+03	1.048599E-15	1.004609E-17
7.240000E+03	1.038029E-15	9.954335E-18
7.250000E+03	1.026980E-15	9.857751E-18
7.260000E+03	1.015450E-15	9.756322E-18
7.270000E+03	1.003444E-15	9.650109E-18
7.280000E+03	9.909669E-16	9.539191E-18
7.290000E+03	9.780362E-16	9.423740E-18
7.300000E+03	9.647038E-16	9.304275E-18
7.310000E+03	9.509754E-16	9.180868E-18
7.320000E+03	9.369762E-16	9.054741E-18
7.330000E+03	9.227570E-16	8.926401E-18
7.340000E+03	9.083785E-16	8.796454E-18
7.350000E+03	8.939906E-16	8.666367E-18
7.360000E+03	8.796433E-16	8.536647E-18
7.370000E+03	8.654822E-16	8.408725E-18
7.380000E+03	8.515704E-16	8.283239E-18
7.390000E+03	8.380095E-16	8.161202E-18
7.400000E+03	8.248930E-16	8.043552E-18
7.410000E+03	8.122891E-16	7.930981E-18
7.420000E+03	8.003039E-16	7.824560E-18
7.430000E+03	7.890412E-16	7.725338E-18
7.440000E+03	7.785625E-16	7.633960E-18
7.450000E+03	7.689387E-16	7.551164E-18
7.460000E+03	7.602343E-16	7.477633E-18
7.470000E+03	7.524842E-16	7.413764E-18
7.480000E+03	7.457088E-16	7.359817E-18
7.490000E+03	7.399121E-16	7.315891E-18
7.500000E+03	7.351006E-16	7.282116E-18
7.510000E+03	7.312445E-16	7.258252E-18
7.520000E+03	7.282845E-16	7.243734E-18
7.530000E+03	7.261780E-16	7.238154E-18
7.540000E+03	7.248097E-16	7.240380E-18
7.550000E+03	7.240706E-16	7.249337E-18
7.560000E+03	7.238328E-16	7.263754E-18
7.570000E+03	7.239516E-16	7.282177E-18
7.580000E+03	7.242592E-16	7.302910E-18
7.590000E+03	7.245586E-16	7.323946E-18
7.600000E+03	7.246663E-16	7.343394E-18
7.610000E+03	7.244142E-16	7.359501E-18
7.620000E+03	7.236107E-16	7.370256E-18
7.630000E+03	7.221244E-16	7.374244E-18
7.640000E+03	7.198001E-16	7.369790E-18
7.650000E+03	7.166044E-16	7.356451E-18
7.660000E+03	7.125010E-16	7.333752E-18
7.670000E+03	7.075106E-16	7.301800E-18
7.680000E+03	7.016855E-16	7.261032E-18
7.690000E+03	6.951173E-16	7.212301E-18
7.700000E+03	6.878695E-16	7.156176E-18
7.710000E+03	6.800302E-16	7.093491E-18
7.720000E+03	6.717051E-16	7.025279E-18
7.730000E+03	6.629748E-16	6.952318E-18
7.740000E+03	6.538986E-16	6.875176E-18
7.750000E+03	6.445668E-16	6.794757E-18
7.760000E+03	6.350459E-16	6.711723E-18
