#wls	flux	fluxerr
1.600000E+03	5.275082E-18	3.457075E-19
1.640000E+03	5.206739E-18	3.401750E-19
1.680000E+03	5.144122E-18	3.350169E-19
1.720000E+03	5.088085E-18	3.302854E-19
1.760000E+03	5.038619E-18	3.259762E-19
1.800000E+03	4.996554E-18	3.221386E-19
1.840000E+03	4.961893E-18	3.187683E-19
1.880000E+03	4.934666E-18	3.158619E-19
1.920000E+03	4.917298E-18	3.135688E-19
1.960000E+03	4.909807E-18	3.118828E-19
2.000000E+03	4.912264E-18	3.108008E-19
2.040000E+03	4.926322E-18	3.104187E-19
2.080000E+03	4.952887E-18	3.107837E-19
2.120000E+03	4.994427E-18	3.120390E-19
2.160000E+03	5.050444E-18	3.141401E-19
2.200000E+03	5.124301E-18	3.172816E-19
2.240000E+03	5.215705E-18	3.214282E-19
2.280000E+03	5.325255E-18	3.265990E-19
2.320000E+03	5.454449E-18	3.328665E-19
2.360000E+03	5.602701E-18	3.401739E-19
2.400000E+03	5.771850E-18	3.486109E-19
2.440000E+03	5.963183E-18	3.582307E-19
2.480000E+03	6.177448E-18	3.690516E-19
2.520000E+03	6.416384E-18	3.811486E-19
2.560000E+03	6.682000E-18	3.946094E-19
2.600000E+03	6.977402E-18	4.095819E-19
2.640000E+03	7.303712E-18	4.260925E-19
2.680000E+03	7.665611E-18	4.443708E-19
2.720000E+03	8.066721E-18	4.645767E-19
2.760000E+03	8.512099E-18	4.869448E-19
2.800000E+03	9.008430E-18	5.117925E-19
2.840000E+03	9.561662E-18	5.393824E-19
2.880000E+03	1.017789E-17	5.699732E-19
2.920000E+03	1.086158E-17	6.037195E-19
2.960000E+03	1.162404E-17	6.411429E-19
3.000000E+03	1.247464E-17	6.826357E-19
3.010000E+03	1.270179E-17	6.936681E-19
3.020000E+03	1.293671E-17	7.050678E-19
3.030000E+03	1.317864E-17	7.167898E-19
3.040000E+03	1.342785E-17	7.288457E-19
3.050000E+03	1.368461E-17	7.412480E-19
3.060000E+03	1.394921E-17	7.540094E-19
3.070000E+03	1.422196E-17	7.671429E-19
3.080000E+03	1.450316E-17	7.806623E-19
3.090000E+03	1.479427E-17	7.946417E-19
3.100000E+03	1.509454E-17	8.090377E-19
3.110000E+03	1.540435E-17	8.238668E-19
3.120000E+03	1.572522E-17	8.392065E-19
3.130000E+03	1.605644E-17	8.550142E-19
3.140000E+03	1.639960E-17	8.713701E-19
3.150000E+03	1.675519E-17	8.882963E-19
3.160000E+03	1.712251E-17	9.057508E-19
3.170000E+03	1.750330E-17	9.238193E-19
3.180000E+03	1.789931E-17	9.425902E-19
3.190000E+03	1.830871E-17	9.619601E-19
3.200000E+03	1.873458E-17	9.820862E-19
3.210000E+03	1.917507E-17	1.002864E-18
3.220000E+03	1.963469E-17	1.024523E-18
3.230000E+03	2.011163E-17	1.046961E-18
3.240000E+03	2.060662E-17	1.070210E-18
3.250000E+03	2.112317E-17	1.094444E-18
3.260000E+03	2.165945E-17	1.119559E-18
3.270000E+03	2.221911E-17	1.145736E-18
3.280000E+03	2.280176E-17	1.172944E-18
3.290000E+03	2.340982E-17	1.201300E-18
3.300000E+03	2.404295E-17	1.230774E-18
3.310000E+03	2.470372E-17	1.261487E-18
3.320000E+03	2.539487E-17	1.293567E-18
3.330000E+03	2.611617E-17	1.326991E-18
3.340000E+03	2.687051E-17	1.361892E-18
3.350000E+03	2.765934E-17	1.398330E-18
3.360000E+03	2.848415E-17	1.436364E-18
3.370000E+03	2.934815E-17	1.476143E-18
3.380000E+03	3.025306E-17	1.517734E-18
3.390000E+03	3.120065E-17	1.561210E-18
3.400000E+03	3.219450E-17	1.606731E-18
3.410000E+03	3.323662E-17	1.654378E-18
3.420000E+03	3.433272E-17	1.704412E-18
3.430000E+03	3.548140E-17	1.756743E-18
3.440000E+03	3.668868E-17	1.811644E-18
3.450000E+03	3.795900E-17	1.869309E-18
3.460000E+03	3.929505E-17	1.929844E-18
3.470000E+03	4.070160E-17	1.993452E-18
3.480000E+03	4.218372E-17	2.060351E-18
3.490000E+03	4.374243E-17	2.130559E-18
3.500000E+03	4.538952E-17	2.204614E-18
3.510000E+03	4.712430E-17	2.282444E-18
3.520000E+03	4.895484E-17	2.364402E-18
3.530000E+03	5.088503E-17	2.450631E-18
3.540000E+03	5.292359E-17	2.541508E-18
3.550000E+03	5.507244E-17	2.637075E-18
3.560000E+03	5.733585E-17	2.737488E-18
3.570000E+03	5.971555E-17	2.842779E-18
3.580000E+03	6.221831E-17	2.953216E-18
3.590000E+03	6.484314E-17	3.068698E-18
3.600000E+03	6.759670E-17	3.189483E-18
3.610000E+03	7.048031E-17	3.315576E-18
3.620000E+03	7.349784E-17	3.447098E-18
3.630000E+03	7.664724E-17	3.583894E-18
3.640000E+03	7.993769E-17	3.726329E-18
3.650000E+03	8.336360E-17	3.874079E-18
3.660000E+03	8.693081E-17	4.027353E-18
3.670000E+03	9.063888E-17	4.186063E-18
3.680000E+03	9.449011E-17	4.350250E-18
3.690000E+03	9.847991E-17	4.519637E-18
3.700000E+03	1.026164E-16	4.694526E-18
3.710000E+03	1.068940E-16	4.874600E-18
3.720000E+03	1.113135E-16	5.059822E-18
3.730000E+03	1.158715E-16	5.249974E-18
3.740000E+03	1.205677E-16	5.444972E-18
3.750000E+03	1.253979E-16	5.644557E-18
3.760000E+03	1.303640E-16	5.848760E-18
3.770000E+03	1.354570E-16	6.057105E-18
3.780000E+03	1.406745E-16	6.269418E-18
3.790000E+03	1.460131E-16	6.485500E-18
3.800000E+03	1.514697E-16	6.705140E-18
3.810000E+03	1.570321E-16	6.927742E-18
3.820000E+03	1.627037E-16	7.153410E-18
3.830000E+03	1.684668E-16	7.381308E-18
3.840000E+03	1.743199E-16	7.611326E-18
3.850000E+03	1.802524E-16	7.842950E-18
3.860000E+03	1.862575E-16	8.075846E-18
3.870000E+03	1.923282E-16	8.309675E-18
3.880000E+03	1.984523E-16	8.543872E-18
3.890000E+03	2.046169E-16	8.777861E-18
3.900000E+03	2.108186E-16	9.011462E-18
3.910000E+03	2.170441E-16	9.244092E-18
3.920000E+03	2.232796E-16	9.475152E-18
3.930000E+03	2.295160E-16	9.704242E-18
3.940000E+03	2.357445E-16	9.930987E-18
3.950000E+03	2.419505E-16	1.015478E-17
3.960000E+03	2.481199E-16	1.037503E-17
3.970000E+03	2.542489E-16	1.059160E-17
3.980000E+03	2.603235E-16	1.080391E-17
3.990000E+03	2.663351E-16	1.101164E-17
4.000000E+03	2.722703E-16	1.121426E-17
4.010000E+03	2.781159E-16	1.141126E-17
4.020000E+03	2.838644E-16	1.160238E-17
4.030000E+03	2.895149E-16	1.178763E-17
4.040000E+03	2.950504E-16	1.196635E-17
4.050000E+03	3.004600E-16	1.213816E-17
4.060000E+03	3.057505E-16	1.230339E-17
4.070000E+03	3.109073E-16	1.246153E-17
4.080000E+03	3.159224E-16	1.261229E-17
4.090000E+03	3.207999E-16	1.275593E-17
4.100000E+03	3.255337E-16	1.289227E-17
4.110000E+03	3.301247E-16	1.302140E-17
4.120000E+03	3.345748E-16	1.314347E-17
4.130000E+03	3.388757E-16	1.325824E-17
4.140000E+03	3.430371E-16	1.336614E-17
4.150000E+03	3.470643E-16	1.346746E-17
4.160000E+03	3.509579E-16	1.356228E-17
4.170000E+03	3.547193E-16	1.365073E-17
4.180000E+03	3.583682E-16	1.373362E-17
4.190000E+03	3.619020E-16	1.381092E-17
4.200000E+03	3.653362E-16	1.388328E-17
4.210000E+03	3.686754E-16	1.395092E-17
4.220000E+03	3.719360E-16	1.401450E-17
4.230000E+03	3.751180E-16	1.407408E-17
4.240000E+03	3.782500E-16	1.413076E-17
4.250000E+03	3.813324E-16	1.418459E-17
4.260000E+03	3.843829E-16	1.423626E-17
4.270000E+03	3.874077E-16	1.428600E-17
4.280000E+03	3.904359E-16	1.433492E-17
4.290000E+03	3.934677E-16	1.438301E-17
4.300000E+03	3.965260E-16	1.443113E-17
4.310000E+03	3.996217E-16	1.447966E-17
4.320000E+03	4.027769E-16	1.452939E-17
4.330000E+03	4.059898E-16	1.458023E-17
4.340000E+03	4.092929E-16	1.463332E-17
4.350000E+03	4.126946E-16	1.468894E-17
4.360000E+03	4.162020E-16	1.474728E-17
4.370000E+03	4.198391E-16	1.480917E-17
4.380000E+03	4.236170E-16	1.487493E-17
4.390000E+03	4.275393E-16	1.494463E-17
4.400000E+03	4.316264E-16	1.501894E-17
4.410000E+03	4.358795E-16	1.509781E-17
4.420000E+03	4.403039E-16	1.518137E-17
4.430000E+03	4.449162E-16	1.527012E-17
4.440000E+03	4.497072E-16	1.536368E-17
4.450000E+03	4.546786E-16	1.546202E-17
4.460000E+03	4.598182E-16	1.556466E-17
4.470000E+03	4.651126E-16	1.567110E-17
4.480000E+03	4.705468E-16	1.578077E-17
4.490000E+03	4.761044E-16	1.589308E-17
4.500000E+03	4.817677E-16	1.600739E-17
4.510000E+03	4.875175E-16	1.612305E-17
4.520000E+03	4.933333E-16	1.623936E-17
4.530000E+03	4.991873E-16	1.635540E-17
4.540000E+03	5.050568E-16	1.647044E-17
4.550000E+03	5.109247E-16	1.658393E-17
4.560000E+03	5.167601E-16	1.669490E-17
4.570000E+03	5.225450E-16	1.680281E-17
4.580000E+03	5.282544E-16	1.690690E-17
4.590000E+03	5.338562E-16	1.700623E-17
4.600000E+03	5.393390E-16	1.710049E-17
4.610000E+03	5.446646E-16	1.718856E-17
4.620000E+03	5.498287E-16	1.727041E-17
4.630000E+03	5.547946E-16	1.734499E-17
4.640000E+03	5.595466E-16	1.741191E-17
4.650000E+03	5.640764E-16	1.747105E-17
4.660000E+03	5.683575E-16	1.752172E-17
4.670000E+03	5.723844E-16	1.756387E-17
4.680000E+03	5.761467E-16	1.759734E-17
4.690000E+03	5.796289E-16	1.762178E-17
4.700000E+03	5.828309E-16	1.763735E-17
4.710000E+03	5.857544E-16	1.764423E-17
4.720000E+03	5.883958E-16	1.764247E-17
4.730000E+03	5.907535E-16	1.763216E-17
4.740000E+03	5.928483E-16	1.761405E-17
4.750000E+03	5.946815E-16	1.758833E-17
4.760000E+03	5.962696E-16	1.755560E-17
4.770000E+03	5.976233E-16	1.751630E-17
4.780000E+03	5.987538E-16	1.747088E-17
4.790000E+03	5.996795E-16	1.741998E-17
4.800000E+03	6.003986E-16	1.736365E-17
4.810000E+03	6.009023E-16	1.730174E-17
4.820000E+03	6.011950E-16	1.723448E-17
4.830000E+03	6.012811E-16	1.716208E-17
4.840000E+03	6.011508E-16	1.708438E-17
4.850000E+03	6.008081E-16	1.700158E-17
4.860000E+03	6.002594E-16	1.691396E-17
4.870000E+03	5.995152E-16	1.682189E-17
4.880000E+03	5.986005E-16	1.672617E-17
4.890000E+03	5.975418E-16	1.662760E-17
4.900000E+03	5.963646E-16	1.652695E-17
4.910000E+03	5.950870E-16	1.642478E-17
4.920000E+03	5.937452E-16	1.632213E-17
4.930000E+03	5.923479E-16	1.621925E-17
4.940000E+03	5.909281E-16	1.611703E-17
4.950000E+03	5.894915E-16	1.601560E-17
4.960000E+03	5.880675E-16	1.591575E-17
4.970000E+03	5.866650E-16	1.581767E-17
4.980000E+03	5.852980E-16	1.572171E-17
4.990000E+03	5.839851E-16	1.562833E-17
5.000000E+03	5.827378E-16	1.553778E-17
5.010000E+03	5.815666E-16	1.545031E-17
5.020000E+03	5.804755E-16	1.536596E-17
5.030000E+03	5.794859E-16	1.528526E-17
5.040000E+03	5.785951E-16	1.520807E-17
5.050000E+03	5.778238E-16	1.513489E-17
5.060000E+03	5.771808E-16	1.506589E-17
5.070000E+03	5.766685E-16	1.500106E-17
5.080000E+03	5.763013E-16	1.494073E-17
5.090000E+03	5.760871E-16	1.488504E-17
5.100000E+03	5.760335E-16	1.483412E-17
5.110000E+03	5.761476E-16	1.478809E-17
5.120000E+03	5.764297E-16	1.474689E-17
5.130000E+03	5.769032E-16	1.471106E-17
5.140000E+03	5.775544E-16	1.468017E-17
5.150000E+03	5.783981E-16	1.465455E-17
5.160000E+03	5.794295E-16	1.463401E-17
5.170000E+03	5.806543E-16	1.461861E-17
5.180000E+03	5.820637E-16	1.460809E-17
5.190000E+03	5.836589E-16	1.460240E-17
5.200000E+03	5.854265E-16	1.460116E-17
5.210000E+03	5.873626E-16	1.460420E-17
5.220000E+03	5.894544E-16	1.461117E-17
5.230000E+03	5.916805E-16	1.462146E-17
5.240000E+03	5.940287E-16	1.463475E-17
5.250000E+03	5.964779E-16	1.465046E-17
5.260000E+03	5.989982E-16	1.466783E-17
5.270000E+03	6.015696E-16	1.468633E-17
5.280000E+03	6.041634E-16	1.470526E-17
5.290000E+03	6.067495E-16	1.472384E-17
5.300000E+03	6.092892E-16	1.474113E-17
5.310000E+03	6.117491E-16	1.475633E-17
5.320000E+03	6.141010E-16	1.476875E-17
5.330000E+03	6.163042E-16	1.477744E-17
5.340000E+03	6.183302E-16	1.478172E-17
5.350000E+03	6.201393E-16	1.478068E-17
5.360000E+03	6.217050E-16	1.477371E-17
5.370000E+03	6.229907E-16	1.475999E-17
5.380000E+03	6.239614E-16	1.473873E-17
5.390000E+03	6.246043E-16	1.470970E-17
5.400000E+03	6.248906E-16	1.467226E-17
5.410000E+03	6.247954E-16	1.462591E-17
5.420000E+03	6.243162E-16	1.457064E-17
5.430000E+03	6.234295E-16	1.450598E-17
5.440000E+03	6.221352E-16	1.443201E-17
5.450000E+03	6.204259E-16	1.434863E-17
5.460000E+03	6.183132E-16	1.425618E-17
5.470000E+03	6.158016E-16	1.415485E-17
5.480000E+03	6.129148E-16	1.404525E-17
5.490000E+03	6.096706E-16	1.392786E-17
5.500000E+03	6.060993E-16	1.380345E-17
5.510000E+03	6.022432E-16	1.367302E-17
5.520000E+03	5.981445E-16	1.353760E-17
5.530000E+03	5.938385E-16	1.339803E-17
5.540000E+03	5.893950E-16	1.325591E-17
5.550000E+03	5.848635E-16	1.311239E-17
5.560000E+03	5.802974E-16	1.296867E-17
5.570000E+03	5.757695E-16	1.282638E-17
5.580000E+03	5.713311E-16	1.268665E-17
5.590000E+03	5.670636E-16	1.255126E-17
5.600000E+03	5.630198E-16	1.242134E-17
5.610000E+03	5.592696E-16	1.229839E-17
5.620000E+03	5.558765E-16	1.218373E-17
5.630000E+03	5.529031E-16	1.207865E-17
5.640000E+03	5.504107E-16	1.198440E-17
5.650000E+03	5.484585E-16	1.190216E-17
5.660000E+03	5.471095E-16	1.183319E-17
5.670000E+03	5.464129E-16	1.177841E-17
5.680000E+03	5.464311E-16	1.173903E-17
5.690000E+03	5.471956E-16	1.171557E-17
5.700000E+03	5.487657E-16	1.170913E-17
5.710000E+03	5.511736E-16	1.172024E-17
5.720000E+03	5.544444E-16	1.174924E-17
5.730000E+03	5.586116E-16	1.179666E-17
5.740000E+03	5.636771E-16	1.186235E-17
5.750000E+03	5.696548E-16	1.194641E-17
5.760000E+03	5.765287E-16	1.204832E-17
5.770000E+03	5.842759E-16	1.216741E-17
5.780000E+03	5.928584E-16	1.230271E-17
5.790000E+03	6.022235E-16	1.245296E-17
5.800000E+03	6.123089E-16	1.261673E-17
5.810000E+03	6.230246E-16	1.279202E-17
5.820000E+03	6.342714E-16	1.297668E-17
5.830000E+03	6.459355E-16	1.316829E-17
5.840000E+03	6.578903E-16	1.336422E-17
5.850000E+03	6.699975E-16	1.356163E-17
5.860000E+03	6.821098E-16	1.375753E-17
5.870000E+03	6.940735E-16	1.394888E-17
5.880000E+03	7.057315E-16	1.413258E-17
5.890000E+03	7.169197E-16	1.430545E-17
5.900000E+03	7.274923E-16	1.446475E-17
5.910000E+03	7.373041E-16	1.460774E-17
5.920000E+03	7.462063E-16	1.473171E-17
5.930000E+03	7.540957E-16	1.483485E-17
5.940000E+03	7.608651E-16	1.491530E-17
5.950000E+03	7.664282E-16	1.497166E-17
5.960000E+03	7.707382E-16	1.500331E-17
5.970000E+03	7.737575E-16	1.500980E-17
5.980000E+03	7.754900E-16	1.499152E-17
5.990000E+03	7.759407E-16	1.494885E-17
6.000000E+03	7.751626E-16	1.488311E-17
6.010000E+03	7.732226E-16	1.479584E-17
6.020000E+03	7.702070E-16	1.468896E-17
6.030000E+03	7.662021E-16	1.456433E-17
6.040000E+03	7.613386E-16	1.442464E-17
6.050000E+03	7.557240E-16	1.427211E-17
6.060000E+03	7.495023E-16	1.410960E-17
6.070000E+03	7.427875E-16	1.393939E-17
6.080000E+03	7.357231E-16	1.376425E-17
6.090000E+03	7.284166E-16	1.358627E-17
6.100000E+03	7.209913E-16	1.340779E-17
6.110000E+03	7.135617E-16	1.323096E-17
6.120000E+03	7.062233E-16	1.305756E-17
6.130000E+03	6.990603E-16	1.288913E-17
6.140000E+03	6.921443E-16	1.272697E-17
6.150000E+03	6.855416E-16	1.257225E-17
6.160000E+03	6.793054E-16	1.242592E-17
6.170000E+03	6.734756E-16	1.228866E-17
6.180000E+03	6.680723E-16	1.216078E-17
6.190000E+03	6.631103E-16	1.204250E-17
6.200000E+03	6.585770E-16	1.193355E-17
6.210000E+03	6.544569E-16	1.183355E-17
6.220000E+03	6.506947E-16	1.174142E-17
6.230000E+03	6.472403E-16	1.165617E-17
6.240000E+03	6.440329E-16	1.157663E-17
6.250000E+03	6.410182E-16	1.150176E-17
6.260000E+03	6.381370E-16	1.143045E-17
6.270000E+03	6.353483E-16	1.136190E-17
6.280000E+03	6.326041E-16	1.129522E-17
6.290000E+03	6.298643E-16	1.122964E-17
6.300000E+03	6.271121E-16	1.116483E-17
6.310000E+03	6.243260E-16	1.110038E-17
6.320000E+03	6.215079E-16	1.103628E-17
6.330000E+03	6.186552E-16	1.097245E-17
6.340000E+03	6.157728E-16	1.090895E-17
6.350000E+03	6.128934E-16	1.084632E-17
6.360000E+03	6.100274E-16	1.078472E-17
6.370000E+03	6.072032E-16	1.072461E-17
6.380000E+03	6.044515E-16	1.066649E-17
6.390000E+03	6.018044E-16	1.061090E-17
6.400000E+03	5.992942E-16	1.055837E-17
6.410000E+03	5.969453E-16	1.050931E-17
6.420000E+03	5.947877E-16	1.046420E-17
6.430000E+03	5.928489E-16	1.042349E-17
6.440000E+03	5.911536E-16	1.038759E-17
6.450000E+03	5.897238E-16	1.035685E-17
6.460000E+03	5.885774E-16	1.033156E-17
6.470000E+03	5.877293E-16	1.031195E-17
6.480000E+03	5.872034E-16	1.029841E-17
6.490000E+03	5.870064E-16	1.029103E-17
6.500000E+03	5.871470E-16	1.028995E-17
6.510000E+03	5.876295E-16	1.029523E-17
6.520000E+03	5.884532E-16	1.030681E-17
6.530000E+03	5.895985E-16	1.032436E-17
6.540000E+03	5.910612E-16	1.034778E-17
6.550000E+03	5.928182E-16	1.037664E-17
6.560000E+03	5.948406E-16	1.041044E-17
6.570000E+03	5.970946E-16	1.044856E-17
6.580000E+03	5.995563E-16	1.049059E-17
6.590000E+03	6.021679E-16	1.053551E-17
6.600000E+03	6.049051E-16	1.058287E-17
6.610000E+03	6.077108E-16	1.063168E-17
6.620000E+03	6.105331E-16	1.068103E-17
6.630000E+03	6.133188E-16	1.072998E-17
6.640000E+03	6.160215E-16	1.077771E-17
6.650000E+03	6.185955E-16	1.082343E-17
6.660000E+03	6.209817E-16	1.086609E-17
6.670000E+03	6.231304E-16	1.090482E-17
6.680000E+03	6.250112E-16	1.093909E-17
6.690000E+03	6.265669E-16	1.096789E-17
6.700000E+03	6.277684E-16	1.099071E-17
6.710000E+03	6.285933E-16	1.100714E-17
6.720000E+03	6.290015E-16	1.101644E-17
6.730000E+03	6.290002E-16	1.101872E-17
6.740000E+03	6.285637E-16	1.101349E-17
6.750000E+03	6.276897E-16	1.100069E-17
6.760000E+03	6.263993E-16	1.098065E-17
6.770000E+03	6.246879E-16	1.095328E-17
6.780000E+03	6.225821E-16	1.091900E-17
6.790000E+03	6.201061E-16	1.087822E-17
6.800000E+03	6.172896E-16	1.083144E-17
6.810000E+03	6.141662E-16	1.077922E-17
6.820000E+03	6.107813E-16	1.072234E-17
6.830000E+03	6.071582E-16	1.066118E-17
6.840000E+03	6.033541E-16	1.059674E-17
6.850000E+03	5.994026E-16	1.052960E-17
6.860000E+03	5.953458E-16	1.046046E-17
6.870000E+03	5.912256E-16	1.039007E-17
6.880000E+03	5.870885E-16	1.031923E-17
6.890000E+03	5.829934E-16	1.024896E-17
6.900000E+03	5.789804E-16	1.017996E-17
6.910000E+03	5.750926E-16	1.011299E-17
6.920000E+03	5.713745E-16	1.004882E-17
6.930000E+03	5.678393E-16	9.987687E-18
6.940000E+03	5.645239E-16	9.930230E-18
6.950000E+03	5.614334E-16	9.876538E-18
6.960000E+03	5.585724E-16	9.826695E-18
6.970000E+03	5.559383E-16	9.780651E-18
6.980000E+03	5.535214E-16	9.738238E-18
6.990000E+03	5.513138E-16	9.699315E-18
7.000000E+03	5.492795E-16	9.663249E-18
7.010000E+03	5.474022E-16	9.629756E-18
7.020000E+03	5.456632E-16	9.598509E-18
7.030000E+03	5.440199E-16	9.568757E-18
7.040000E+03	5.424449E-16	9.540028E-18
7.050000E+03	5.409285E-16	9.512150E-18
7.060000E+03	5.394319E-16	9.484447E-18
7.070000E+03	5.379428E-16	9.456709E-18
7.080000E+03	5.364447E-16	9.428652E-18
7.090000E+03	5.349170E-16	9.399921E-18
7.100000E+03	5.333507E-16	9.370364E-18
7.110000E+03	5.317476E-16	9.340027E-18
7.120000E+03	5.300974E-16	9.308735E-18
7.130000E+03	5.283994E-16	9.276487E-18
7.140000E+03	5.266548E-16	9.243318E-18
7.150000E+03	5.248737E-16	9.209415E-18
7.160000E+03	5.230428E-16	9.174559E-18
7.170000E+03	5.211723E-16	9.138940E-18
7.180000E+03	5.192557E-16	9.102463E-18
7.190000E+03	5.173090E-16	9.065419E-18
7.200000E+03	5.153077E-16	9.027395E-18
7.210000E+03	5.132647E-16	8.988634E-18
7.220000E+03	5.111678E-16	8.948938E-18
7.230000E+03	5.090189E-16	8.908357E-18
7.240000E+03	5.067956E-16	8.866515E-18
7.250000E+03	5.044969E-16	8.823416E-18
7.260000E+03	5.021060E-16	8.778783E-18
7.270000E+03	4.996209E-16	8.732599E-18
7.280000E+03	4.970241E-16	8.684579E-18
7.290000E+03	4.943137E-16	8.634707E-18
7.300000E+03	4.914662E-16	8.582594E-18
7.310000E+03	4.884817E-16	8.528262E-18
7.320000E+03	4.853549E-16	8.471636E-18
7.330000E+03	4.820750E-16	8.412547E-18
7.340000E+03	4.786412E-16	8.351003E-18
7.350000E+03	4.750634E-16	8.287190E-18
7.360000E+03	4.713319E-16	8.220960E-18
7.370000E+03	4.674622E-16	8.152600E-18
7.380000E+03	4.634584E-16	8.082197E-18
7.390000E+03	4.593415E-16	8.010133E-18
7.400000E+03	4.551138E-16	7.936459E-18
7.410000E+03	4.508008E-16	7.861636E-18
7.420000E+03	4.464156E-16	7.785903E-18
7.430000E+03	4.419793E-16	7.709639E-18
7.440000E+03	4.375135E-16	7.633229E-18
7.450000E+03	4.330463E-16	7.557177E-18
7.460000E+03	4.285848E-16	7.481610E-18
7.470000E+03	4.241685E-16	7.407229E-18
7.480000E+03	4.198014E-16	7.334111E-18
7.490000E+03	4.155055E-16	7.262647E-18
7.500000E+03	4.112935E-16	7.193067E-18
7.510000E+03	4.071815E-16	7.125659E-18
7.520000E+03	4.031697E-16	7.060433E-18
7.530000E+03	3.992679E-16	6.997569E-18
7.540000E+03	3.954758E-16	6.937065E-18
7.550000E+03	3.917897E-16	6.878835E-18
7.560000E+03	3.882028E-16	6.822730E-18
7.570000E+03	3.847052E-16	6.768544E-18
7.580000E+03	3.812917E-16	6.716153E-18
7.590000E+03	3.779418E-16	6.665171E-18
7.600000E+03	3.746475E-16	6.615423E-18
7.610000E+03	3.713879E-16	6.566514E-18
7.620000E+03	3.681555E-16	6.518281E-18
7.630000E+03	3.649387E-16	6.470489E-18
7.640000E+03	3.617290E-16	6.422958E-18
7.650000E+03	3.585213E-16	6.375570E-18
7.660000E+03	3.553141E-16	6.328269E-18
7.670000E+03	3.521092E-16	6.281058E-18
7.680000E+03	3.489108E-16	6.233989E-18
7.690000E+03	3.457311E-16	6.187254E-18
7.700000E+03	3.425655E-16	6.140745E-18
7.710000E+03	3.394329E-16	6.094782E-18
7.720000E+03	3.363347E-16	6.049371E-18
7.730000E+03	3.332782E-16	6.004620E-18
7.740000E+03	3.302693E-16	5.960623E-18
7.750000E+03	3.273137E-16	5.917467E-18
7.760000E+03	3.244166E-16	5.875229E-18
