#wls	flux	fluxerr
1.600000E+03	4.524934E-18	3.262874E-19
1.640000E+03	4.464866E-18	3.212392E-19
1.680000E+03	4.410700E-18	3.166170E-19
1.720000E+03	4.360869E-18	3.123058E-19
1.760000E+03	4.316941E-18	3.084158E-19
1.800000E+03	4.278167E-18	3.048907E-19
1.840000E+03	4.246080E-18	3.018370E-19
1.880000E+03	4.220701E-18	2.992525E-19
1.920000E+03	4.202804E-18	2.971882E-19
1.960000E+03	4.192447E-18	2.956439E-19
2.000000E+03	4.190438E-18	2.946718E-19
2.040000E+03	4.196893E-18	2.942748E-19
2.080000E+03	4.214107E-18	2.946077E-19
2.120000E+03	4.242262E-18	2.956759E-19
2.160000E+03	4.283025E-18	2.975876E-19
2.200000E+03	4.336018E-18	3.003073E-19
2.240000E+03	4.402360E-18	3.039030E-19
2.280000E+03	4.483272E-18	3.084483E-19
2.320000E+03	4.577972E-18	3.138779E-19
2.360000E+03	4.687206E-18	3.202310E-19
2.400000E+03	4.811850E-18	3.275546E-19
2.440000E+03	4.952927E-18	3.359041E-19
2.480000E+03	5.110903E-18	3.452959E-19
2.520000E+03	5.286400E-18	3.557557E-19
2.560000E+03	5.481698E-18	3.674191E-19
2.600000E+03	5.697846E-18	3.803363E-19
2.640000E+03	5.937653E-18	3.946725E-19
2.680000E+03	6.203520E-18	4.105621E-19
2.720000E+03	6.497438E-18	4.281086E-19
2.760000E+03	6.824218E-18	4.475971E-19
2.800000E+03	7.186862E-18	4.691877E-19
2.840000E+03	7.590652E-18	4.931834E-19
2.880000E+03	8.039096E-18	5.197647E-19
2.920000E+03	8.536412E-18	5.491513E-19
2.960000E+03	9.090503E-18	5.817916E-19
3.000000E+03	9.708722E-18	6.180863E-19
3.010000E+03	9.874715E-18	6.278121E-19
3.020000E+03	1.004612E-17	6.378494E-19
3.030000E+03	1.022213E-17	6.481445E-19
3.040000E+03	1.040290E-17	6.587070E-19
3.050000E+03	1.059070E-17	6.696782E-19
3.060000E+03	1.078263E-17	6.808736E-19
3.070000E+03	1.098204E-17	6.925024E-19
3.080000E+03	1.118707E-17	7.044456E-19
3.090000E+03	1.139903E-17	7.167833E-19
3.100000E+03	1.161816E-17	7.295293E-19
3.110000E+03	1.184364E-17	7.426296E-19
3.120000E+03	1.207797E-17	7.562387E-19
3.130000E+03	1.231922E-17	7.702330E-19
3.140000E+03	1.256996E-17	7.847719E-19
3.150000E+03	1.282823E-17	7.997286E-19
3.160000E+03	1.309670E-17	8.152684E-19
3.170000E+03	1.337458E-17	8.313378E-19
3.180000E+03	1.366346E-17	8.480341E-19
3.190000E+03	1.396255E-17	8.653032E-19
3.200000E+03	1.427350E-17	8.832453E-19
3.210000E+03	1.459554E-17	9.018086E-19
3.220000E+03	1.493039E-17	9.210956E-19
3.230000E+03	1.527860E-17	9.411358E-19
3.240000E+03	1.564068E-17	9.619574E-19
3.250000E+03	1.601857E-17	9.836747E-19
3.260000E+03	1.641018E-17	1.006154E-18
3.270000E+03	1.681887E-17	1.029597E-18
3.280000E+03	1.724531E-17	1.054039E-18
3.290000E+03	1.769028E-17	1.079523E-18
3.300000E+03	1.815305E-17	1.105996E-18
3.310000E+03	1.863736E-17	1.133682E-18
3.320000E+03	1.914258E-17	1.162535E-18
3.330000E+03	1.967113E-17	1.192696E-18
3.340000E+03	2.022398E-17	1.224215E-18
3.350000E+03	2.080216E-17	1.257146E-18
3.360000E+03	2.140671E-17	1.291545E-18
3.370000E+03	2.204042E-17	1.327569E-18
3.380000E+03	2.270448E-17	1.365283E-18
3.390000E+03	2.340019E-17	1.404752E-18
3.400000E+03	2.413061E-17	1.446151E-18
3.410000E+03	2.489723E-17	1.489557E-18
3.420000E+03	2.570154E-17	1.535047E-18
3.430000E+03	2.654700E-17	1.582814E-18
3.440000E+03	2.743531E-17	1.632946E-18
3.450000E+03	2.836826E-17	1.685536E-18
3.460000E+03	2.934969E-17	1.740795E-18
3.470000E+03	3.038364E-17	1.798947E-18
3.480000E+03	3.147021E-17	1.859980E-18
3.490000E+03	3.261580E-17	1.924253E-18
3.500000E+03	3.382066E-17	1.991761E-18
3.510000E+03	3.509163E-17	2.062885E-18
3.520000E+03	3.642910E-17	2.137628E-18
3.530000E+03	3.783571E-17	2.216118E-18
3.540000E+03	3.931889E-17	2.298768E-18
3.550000E+03	4.087920E-17	2.385583E-18
3.560000E+03	4.252205E-17	2.476852E-18
3.570000E+03	4.424801E-17	2.572579E-18
3.580000E+03	4.606263E-17	2.673056E-18
3.590000E+03	4.796907E-17	2.778436E-18
3.600000E+03	4.996778E-17	2.888712E-18
3.610000E+03	5.206453E-17	3.004185E-18
3.620000E+03	5.426249E-17	3.125000E-18
3.630000E+03	5.655895E-17	3.250968E-18
3.640000E+03	5.896257E-17	3.382548E-18
3.650000E+03	6.147636E-17	3.519873E-18
3.660000E+03	6.409707E-17	3.662720E-18
3.670000E+03	6.683348E-17	3.811549E-18
3.680000E+03	6.968187E-17	3.966106E-18
3.690000E+03	7.264776E-17	4.126663E-18
3.700000E+03	7.572999E-17	4.293110E-18
3.710000E+03	7.893391E-17	4.465707E-18
3.720000E+03	8.225788E-17	4.644316E-18
3.730000E+03	8.570336E-17	4.828974E-18
3.740000E+03	8.927159E-17	5.019703E-18
3.750000E+03	9.296355E-17	5.216514E-18
3.760000E+03	9.677613E-17	5.419184E-18
3.770000E+03	1.007095E-16	5.627678E-18
3.780000E+03	1.047637E-16	5.841945E-18
3.790000E+03	1.089342E-16	6.061690E-18
3.800000E+03	1.132240E-16	6.287039E-18
3.810000E+03	1.176281E-16	6.517660E-18
3.820000E+03	1.221446E-16	6.753405E-18
3.830000E+03	1.267717E-16	6.994129E-18
3.840000E+03	1.314980E-16	7.239164E-18
3.850000E+03	1.363295E-16	7.488797E-18
3.860000E+03	1.412539E-16	7.742304E-18
3.870000E+03	1.462720E-16	7.999698E-18
3.880000E+03	1.513703E-16	8.260203E-18
3.890000E+03	1.565538E-16	8.524047E-18
3.900000E+03	1.618032E-16	8.790157E-18
3.910000E+03	1.671228E-16	9.058730E-18
3.920000E+03	1.724974E-16	9.328913E-18
3.930000E+03	1.779207E-16	9.600346E-18
3.940000E+03	1.833868E-16	9.872678E-18
3.950000E+03	1.888891E-16	1.014554E-17
3.960000E+03	1.944159E-16	1.041829E-17
3.970000E+03	1.999606E-16	1.069055E-17
3.980000E+03	2.055109E-16	1.096166E-17
3.990000E+03	2.110601E-16	1.123125E-17
4.000000E+03	2.166014E-16	1.149896E-17
4.010000E+03	2.221226E-16	1.176414E-17
4.020000E+03	2.276172E-16	1.202646E-17
4.030000E+03	2.330737E-16	1.228529E-17
4.040000E+03	2.384917E-16	1.254064E-17
4.050000E+03	2.438544E-16	1.279165E-17
4.060000E+03	2.491628E-16	1.303836E-17
4.070000E+03	2.544067E-16	1.328028E-17
4.080000E+03	2.595827E-16	1.351723E-17
4.090000E+03	2.646819E-16	1.374879E-17
4.100000E+03	2.697020E-16	1.397485E-17
4.110000E+03	2.746418E-16	1.419539E-17
4.120000E+03	2.794945E-16	1.441008E-17
4.130000E+03	2.842663E-16	1.461926E-17
4.140000E+03	2.889524E-16	1.482273E-17
4.150000E+03	2.935484E-16	1.502029E-17
4.160000E+03	2.980688E-16	1.521271E-17
4.170000E+03	3.024992E-16	1.539928E-17
4.180000E+03	3.068554E-16	1.558083E-17
4.190000E+03	3.111300E-16	1.575704E-17
4.200000E+03	3.153405E-16	1.592879E-17
4.210000E+03	3.194868E-16	1.609611E-17
4.220000E+03	3.235694E-16	1.625907E-17
4.230000E+03	3.276074E-16	1.641862E-17
4.240000E+03	3.315960E-16	1.657455E-17
4.250000E+03	3.355551E-16	1.672787E-17
4.260000E+03	3.394809E-16	1.687840E-17
4.270000E+03	3.433934E-16	1.702715E-17
4.280000E+03	3.473011E-16	1.717454E-17
4.290000E+03	3.512063E-16	1.732068E-17
4.300000E+03	3.551229E-16	1.746627E-17
4.310000E+03	3.590594E-16	1.761169E-17
4.320000E+03	3.630291E-16	1.775762E-17
4.330000E+03	3.670397E-16	1.790440E-17
4.340000E+03	3.710976E-16	1.805233E-17
4.350000E+03	3.752093E-16	1.820170E-17
4.360000E+03	3.793927E-16	1.835337E-17
4.370000E+03	3.836467E-16	1.850724E-17
4.380000E+03	3.879817E-16	1.866379E-17
4.390000E+03	3.923951E-16	1.882286E-17
4.400000E+03	3.969021E-16	1.898516E-17
4.410000E+03	4.015048E-16	1.915072E-17
4.420000E+03	4.061981E-16	1.931929E-17
4.430000E+03	4.109885E-16	1.949114E-17
4.440000E+03	4.158695E-16	1.966590E-17
4.450000E+03	4.208456E-16	1.984378E-17
4.460000E+03	4.259021E-16	2.002402E-17
4.470000E+03	4.310482E-16	2.020704E-17
4.480000E+03	4.362798E-16	2.039259E-17
4.490000E+03	4.415788E-16	2.057983E-17
4.500000E+03	4.469453E-16	2.076870E-17
4.510000E+03	4.523657E-16	2.095858E-17
4.520000E+03	4.578383E-16	2.114934E-17
4.530000E+03	4.633411E-16	2.133997E-17
4.540000E+03	4.688706E-16	2.153028E-17
4.550000E+03	4.744095E-16	2.171950E-17
4.560000E+03	4.799467E-16	2.190709E-17
4.570000E+03	4.854634E-16	2.209222E-17
4.580000E+03	4.909405E-16	2.227403E-17
4.590000E+03	4.963720E-16	2.245226E-17
4.600000E+03	5.017382E-16	2.262606E-17
4.610000E+03	5.070259E-16	2.279485E-17
4.620000E+03	5.122156E-16	2.295782E-17
4.630000E+03	5.172944E-16	2.311441E-17
4.640000E+03	5.222498E-16	2.326412E-17
4.650000E+03	5.270698E-16	2.340649E-17
4.660000E+03	5.317361E-16	2.354076E-17
4.670000E+03	5.362448E-16	2.366683E-17
4.680000E+03	5.405790E-16	2.378402E-17
4.690000E+03	5.447292E-16	2.389200E-17
4.700000E+03	5.486871E-16	2.399048E-17
4.710000E+03	5.524448E-16	2.407921E-17
4.720000E+03	5.559884E-16	2.415768E-17
4.730000E+03	5.593184E-16	2.422599E-17
4.740000E+03	5.624223E-16	2.428370E-17
4.750000E+03	5.652949E-16	2.433069E-17
4.760000E+03	5.679246E-16	2.436657E-17
4.770000E+03	5.703073E-16	2.439125E-17
4.780000E+03	5.724392E-16	2.440470E-17
4.790000E+03	5.743034E-16	2.440630E-17
4.800000E+03	5.758973E-16	2.439605E-17
4.810000E+03	5.772257E-16	2.437428E-17
4.820000E+03	5.782945E-16	2.434135E-17
4.830000E+03	5.790974E-16	2.429710E-17
4.840000E+03	5.796432E-16	2.424202E-17
4.850000E+03	5.799365E-16	2.417642E-17
4.860000E+03	5.799919E-16	2.410100E-17
4.870000E+03	5.798289E-16	2.401667E-17
4.880000E+03	5.794576E-16	2.392395E-17
4.890000E+03	5.788978E-16	2.382375E-17
4.900000E+03	5.781771E-16	2.371726E-17
4.910000E+03	5.773113E-16	2.360522E-17
4.920000E+03	5.763291E-16	2.348886E-17
4.930000E+03	5.752528E-16	2.336911E-17
4.940000E+03	5.741097E-16	2.324715E-17
4.950000E+03	5.729079E-16	2.312331E-17
4.960000E+03	5.716728E-16	2.299862E-17
4.970000E+03	5.704227E-16	2.287382E-17
4.980000E+03	5.691811E-16	2.274985E-17
4.990000E+03	5.679573E-16	2.262707E-17
5.000000E+03	5.667662E-16	2.250605E-17
5.010000E+03	5.656279E-16	2.238756E-17
5.020000E+03	5.645491E-16	2.227184E-17
5.030000E+03	5.635482E-16	2.215959E-17
5.040000E+03	5.626369E-16	2.205121E-17
5.050000E+03	5.618259E-16	2.194709E-17
5.060000E+03	5.611199E-16	2.184736E-17
5.070000E+03	5.605409E-16	2.175284E-17
5.080000E+03	5.600860E-16	2.166334E-17
5.090000E+03	5.597763E-16	2.157962E-17
5.100000E+03	5.596196E-16	2.150193E-17
5.110000E+03	5.596113E-16	2.143002E-17
5.120000E+03	5.597752E-16	2.136473E-17
5.130000E+03	5.600984E-16	2.130550E-17
5.140000E+03	5.606021E-16	2.125306E-17
5.150000E+03	5.612764E-16	2.120697E-17
5.160000E+03	5.621327E-16	2.116758E-17
5.170000E+03	5.631573E-16	2.113430E-17
5.180000E+03	5.643520E-16	2.110713E-17
5.190000E+03	5.657161E-16	2.108597E-17
5.200000E+03	5.672349E-16	2.107019E-17
5.210000E+03	5.688974E-16	2.105934E-17
5.220000E+03	5.706899E-16	2.105284E-17
5.230000E+03	5.725966E-16	2.105005E-17
5.240000E+03	5.746050E-16	2.105046E-17
5.250000E+03	5.766946E-16	2.105329E-17
5.260000E+03	5.788370E-16	2.105745E-17
5.270000E+03	5.810076E-16	2.106204E-17
5.280000E+03	5.831866E-16	2.106631E-17
5.290000E+03	5.853404E-16	2.106906E-17
5.300000E+03	5.874469E-16	2.106949E-17
5.310000E+03	5.894771E-16	2.106657E-17
5.320000E+03	5.913959E-16	2.105908E-17
5.330000E+03	5.931804E-16	2.104625E-17
5.340000E+03	5.947960E-16	2.102689E-17
5.350000E+03	5.962215E-16	2.100032E-17
5.360000E+03	5.974247E-16	2.096548E-17
5.370000E+03	5.983874E-16	2.092181E-17
5.380000E+03	5.990816E-16	2.086843E-17
5.390000E+03	5.994938E-16	2.080497E-17
5.400000E+03	5.996012E-16	2.073074E-17
5.410000E+03	5.993969E-16	2.064562E-17
5.420000E+03	5.988646E-16	2.054917E-17
5.430000E+03	5.980045E-16	2.044152E-17
5.440000E+03	5.968086E-16	2.032254E-17
5.450000E+03	5.952793E-16	2.019242E-17
5.460000E+03	5.934301E-16	2.005175E-17
5.470000E+03	5.912672E-16	1.990087E-17
5.480000E+03	5.888135E-16	1.974067E-17
5.490000E+03	5.860912E-16	1.957200E-17
5.500000E+03	5.831212E-16	1.939566E-17
5.510000E+03	5.799465E-16	1.921319E-17
5.520000E+03	5.766025E-16	1.902582E-17
5.530000E+03	5.731286E-16	1.883493E-17
5.540000E+03	5.695675E-16	1.864196E-17
5.550000E+03	5.659648E-16	1.844844E-17
5.560000E+03	5.623688E-16	1.825596E-17
5.570000E+03	5.588292E-16	1.806611E-17
5.580000E+03	5.553920E-16	1.788037E-17
5.590000E+03	5.521146E-16	1.770053E-17
5.600000E+03	5.490491E-16	1.752820E-17
5.610000E+03	5.462418E-16	1.736476E-17
5.620000E+03	5.437541E-16	1.721206E-17
5.630000E+03	5.416301E-16	1.707136E-17
5.640000E+03	5.399113E-16	1.694382E-17
5.650000E+03	5.386536E-16	1.683102E-17
5.660000E+03	5.378935E-16	1.673392E-17
5.670000E+03	5.376696E-16	1.665350E-17
5.680000E+03	5.380169E-16	1.659064E-17
5.690000E+03	5.389715E-16	1.654621E-17
5.700000E+03	5.405540E-16	1.652058E-17
5.710000E+03	5.427906E-16	1.651431E-17
5.720000E+03	5.456908E-16	1.652741E-17
5.730000E+03	5.492629E-16	1.655987E-17
5.740000E+03	5.535140E-16	1.661161E-17
5.750000E+03	5.584376E-16	1.668217E-17
5.760000E+03	5.640134E-16	1.677067E-17
5.770000E+03	5.702233E-16	1.687630E-17
5.780000E+03	5.770288E-16	1.699768E-17
5.790000E+03	5.843926E-16	1.713346E-17
5.800000E+03	5.922565E-16	1.728171E-17
5.810000E+03	6.005642E-16	1.744060E-17
5.820000E+03	6.092434E-16	1.760787E-17
5.830000E+03	6.182076E-16	1.778087E-17
5.840000E+03	6.273674E-16	1.795694E-17
5.850000E+03	6.366326E-16	1.813342E-17
5.860000E+03	6.458950E-16	1.830723E-17
5.870000E+03	6.550548E-16	1.847556E-17
5.880000E+03	6.639904E-16	1.863505E-17
5.890000E+03	6.726065E-16	1.878315E-17
5.900000E+03	6.807906E-16	1.891687E-17
5.910000E+03	6.884346E-16	1.903344E-17
5.920000E+03	6.954579E-16	1.913086E-17
5.930000E+03	7.017558E-16	1.920656E-17
5.940000E+03	7.072764E-16	1.925944E-17
5.950000E+03	7.119401E-16	1.928769E-17
5.960000E+03	7.157173E-16	1.929089E-17
5.970000E+03	7.185739E-16	1.926852E-17
5.980000E+03	7.204922E-16	1.922050E-17
5.990000E+03	7.214862E-16	1.914761E-17
6.000000E+03	7.215717E-16	1.905068E-17
6.010000E+03	7.207872E-16	1.893112E-17
6.020000E+03	7.191779E-16	1.879049E-17
6.030000E+03	7.168150E-16	1.863099E-17
6.040000E+03	7.137586E-16	1.845451E-17
6.050000E+03	7.100969E-16	1.826362E-17
6.060000E+03	7.059091E-16	1.806061E-17
6.070000E+03	7.012768E-16	1.784780E-17
6.080000E+03	6.962886E-16	1.762762E-17
6.090000E+03	6.910312E-16	1.740241E-17
6.100000E+03	6.855738E-16	1.717404E-17
6.110000E+03	6.799943E-16	1.694454E-17
6.120000E+03	6.743640E-16	1.671574E-17
6.130000E+03	6.687340E-16	1.648894E-17
6.140000E+03	6.631672E-16	1.626570E-17
6.150000E+03	6.577054E-16	1.604702E-17
6.160000E+03	6.523820E-16	1.583370E-17
6.170000E+03	6.472279E-16	1.562644E-17
6.180000E+03	6.422724E-16	1.542589E-17
6.190000E+03	6.375286E-16	1.523231E-17
6.200000E+03	6.329946E-16	1.504558E-17
6.210000E+03	6.286709E-16	1.486564E-17
6.220000E+03	6.245354E-16	1.469188E-17
6.230000E+03	6.205714E-16	1.452385E-17
6.240000E+03	6.167523E-16	1.436088E-17
6.250000E+03	6.130549E-16	1.420238E-17
6.260000E+03	6.094494E-16	1.404762E-17
6.270000E+03	6.059072E-16	1.389592E-17
6.280000E+03	6.024139E-16	1.374694E-17
6.290000E+03	5.989403E-16	1.360001E-17
6.300000E+03	5.954799E-16	1.345497E-17
6.310000E+03	5.920184E-16	1.331151E-17
6.320000E+03	5.885469E-16	1.316944E-17
6.330000E+03	5.850740E-16	1.302895E-17
6.340000E+03	5.815944E-16	1.288995E-17
6.350000E+03	5.781140E-16	1.275256E-17
6.360000E+03	5.746547E-16	1.261728E-17
6.370000E+03	5.712361E-16	1.248454E-17
6.380000E+03	5.678622E-16	1.235441E-17
6.390000E+03	5.645635E-16	1.222756E-17
6.400000E+03	5.613657E-16	1.210453E-17
6.410000E+03	5.582893E-16	1.198572E-17
6.420000E+03	5.553552E-16	1.187158E-17
6.430000E+03	5.525839E-16	1.176250E-17
6.440000E+03	5.500006E-16	1.165899E-17
6.450000E+03	5.476238E-16	1.156140E-17
6.460000E+03	5.454696E-16	1.147002E-17
6.470000E+03	5.435464E-16	1.138500E-17
6.480000E+03	5.418596E-16	1.130640E-17
6.490000E+03	5.404298E-16	1.123462E-17
6.500000E+03	5.392622E-16	1.116971E-17
6.510000E+03	5.383643E-16	1.111181E-17
6.520000E+03	5.377334E-16	1.106081E-17
6.530000E+03	5.373745E-16	1.101680E-17
6.540000E+03	5.372642E-16	1.097925E-17
6.550000E+03	5.373979E-16	1.094807E-17
6.560000E+03	5.377548E-16	1.092281E-17
6.570000E+03	5.383034E-16	1.090282E-17
6.580000E+03	5.390264E-16	1.088776E-17
6.590000E+03	5.398848E-16	1.087685E-17
6.600000E+03	5.408428E-16	1.086939E-17
6.610000E+03	5.418630E-16	1.086465E-17
6.620000E+03	5.429063E-16	1.086188E-17
6.630000E+03	5.439395E-16	1.086046E-17
6.640000E+03	5.449238E-16	1.085964E-17
6.650000E+03	5.458145E-16	1.085858E-17
6.660000E+03	5.465821E-16	1.085674E-17
6.670000E+03	5.471922E-16	1.085350E-17
6.680000E+03	5.476141E-16	1.084828E-17
6.690000E+03	5.478267E-16	1.084071E-17
6.700000E+03	5.477999E-16	1.083024E-17
6.710000E+03	5.475210E-16	1.081662E-17
6.720000E+03	5.469691E-16	1.079940E-17
6.730000E+03	5.461478E-16	1.077864E-17
6.740000E+03	5.450396E-16	1.075394E-17
6.750000E+03	5.436585E-16	1.072553E-17
6.760000E+03	5.420041E-16	1.069336E-17
6.770000E+03	5.400876E-16	1.065760E-17
6.780000E+03	5.379317E-16	1.061863E-17
6.790000E+03	5.355570E-16	1.057680E-17
6.800000E+03	5.329818E-16	1.053240E-17
6.810000E+03	5.302473E-16	1.048618E-17
6.820000E+03	5.273714E-16	1.043842E-17
6.830000E+03	5.243934E-16	1.038985E-17
6.840000E+03	5.213536E-16	1.034117E-17
6.850000E+03	5.182793E-16	1.029289E-17
6.860000E+03	5.152038E-16	1.024559E-17
6.870000E+03	5.121589E-16	1.019986E-17
6.880000E+03	5.091811E-16	1.015635E-17
6.890000E+03	5.062919E-16	1.011546E-17
6.900000E+03	5.035222E-16	1.007775E-17
6.910000E+03	5.008862E-16	1.004348E-17
6.920000E+03	4.984060E-16	1.001305E-17
6.930000E+03	4.960866E-16	9.986529E-18
6.940000E+03	4.939411E-16	9.964159E-18
6.950000E+03	4.919721E-16	9.945966E-18
6.960000E+03	4.901716E-16	9.931774E-18
6.970000E+03	4.885345E-16	9.921461E-18
6.980000E+03	4.870653E-16	9.915103E-18
6.990000E+03	4.857341E-16	9.912076E-18
7.000000E+03	4.845472E-16	9.912496E-18
7.010000E+03	4.834715E-16	9.915674E-18
7.020000E+03	4.825050E-16	9.921551E-18
7.030000E+03	4.816328E-16	9.929809E-18
7.040000E+03	4.808347E-16	9.940015E-18
7.050000E+03	4.800979E-16	9.951892E-18
7.060000E+03	4.794115E-16	9.965189E-18
7.070000E+03	4.787663E-16	9.979703E-18
7.080000E+03	4.781619E-16	9.995408E-18
7.090000E+03	4.775812E-16	1.001192E-17
7.100000E+03	4.770277E-16	1.002931E-17
7.110000E+03	4.765003E-16	1.004752E-17
7.120000E+03	4.759926E-16	1.006641E-17
7.130000E+03	4.755116E-16	1.008611E-17
7.140000E+03	4.750519E-16	1.010649E-17
7.150000E+03	4.746135E-16	1.012752E-17
7.160000E+03	4.741956E-16	1.014920E-17
7.170000E+03	4.737898E-16	1.017131E-17
7.180000E+03	4.734050E-16	1.019404E-17
7.190000E+03	4.730163E-16	1.021684E-17
7.200000E+03	4.726218E-16	1.023965E-17
7.210000E+03	4.722183E-16	1.026238E-17
7.220000E+03	4.717744E-16	1.028435E-17
7.230000E+03	4.712892E-16	1.030550E-17
7.240000E+03	4.707413E-16	1.032535E-17
7.250000E+03	4.701078E-16	1.034338E-17
7.260000E+03	4.693780E-16	1.035931E-17
7.270000E+03	4.685218E-16	1.037245E-17
7.280000E+03	4.675220E-16	1.038238E-17
7.290000E+03	4.663682E-16	1.038884E-17
7.300000E+03	4.650323E-16	1.039115E-17
7.310000E+03	4.635004E-16	1.038897E-17
7.320000E+03	4.617548E-16	1.038184E-17
7.330000E+03	4.597927E-16	1.036964E-17
7.340000E+03	4.575959E-16	1.035193E-17
7.350000E+03	4.551562E-16	1.032845E-17
7.360000E+03	4.524810E-16	1.029933E-17
7.370000E+03	4.495697E-16	1.026449E-17
7.380000E+03	4.464253E-16	1.022394E-17
7.390000E+03	4.430605E-16	1.017794E-17
7.400000E+03	4.394795E-16	1.012652E-17
7.410000E+03	4.357071E-16	1.007021E-17
7.420000E+03	4.317645E-16	1.000946E-17
7.430000E+03	4.276568E-16	9.944353E-18
7.440000E+03	4.234196E-16	9.875681E-18
7.450000E+03	4.190772E-16	9.803985E-18
7.460000E+03	4.146536E-16	9.729805E-18
7.470000E+03	4.101720E-16	9.653668E-18
7.480000E+03	4.056600E-16	9.576215E-18
7.490000E+03	4.011382E-16	9.497929E-18
7.500000E+03	3.966308E-16	9.419380E-18
7.510000E+03	3.921599E-16	9.341097E-18
7.520000E+03	3.877452E-16	9.263563E-18
7.530000E+03	3.833882E-16	9.186826E-18
7.540000E+03	3.791211E-16	9.111670E-18
7.550000E+03	3.749360E-16	9.037926E-18
7.560000E+03	3.708551E-16	8.966147E-18
7.570000E+03	3.668829E-16	8.896449E-18
7.580000E+03	3.630170E-16	8.828785E-18
7.590000E+03	3.592690E-16	8.763450E-18
7.600000E+03	3.556333E-16	8.700324E-18
7.610000E+03	3.521185E-16	8.639627E-18
7.620000E+03	3.487163E-16	8.581176E-18
7.630000E+03	3.454228E-16	8.524891E-18
7.640000E+03	3.422383E-16	8.470788E-18
7.650000E+03	3.391574E-16	8.418755E-18
7.660000E+03	3.361746E-16	8.368670E-18
7.670000E+03	3.332851E-16	8.320421E-18
7.680000E+03	3.304834E-16	8.273891E-18
7.690000E+03	3.277699E-16	8.229099E-18
7.700000E+03	3.251401E-16	8.185947E-18
7.710000E+03	3.225856E-16	8.144232E-18
7.720000E+03	3.201028E-16	8.103877E-18
7.730000E+03	3.176937E-16	8.064942E-18
7.740000E+03	3.153509E-16	8.027251E-18
7.750000E+03	3.130770E-16	7.990878E-18
7.760000E+03	3.108656E-16	7.955675E-18
