#wls	flux	fluxerr
1.600000E+03	4.633238E-18	3.154056E-19
1.640000E+03	4.572081E-18	3.105282E-19
1.680000E+03	4.515341E-18	3.059521E-19
1.720000E+03	4.464604E-18	3.017827E-19
1.760000E+03	4.419094E-18	2.979649E-19
1.800000E+03	4.380354E-18	2.946002E-19
1.840000E+03	4.346887E-18	2.915846E-19
1.880000E+03	4.320982E-18	2.890687E-19
1.920000E+03	4.302661E-18	2.870499E-19
1.960000E+03	4.291982E-18	2.855276E-19
2.000000E+03	4.290480E-18	2.845991E-19
2.040000E+03	4.298255E-18	2.842655E-19
2.080000E+03	4.316884E-18	2.846248E-19
2.120000E+03	4.346558E-18	2.856823E-19
2.160000E+03	4.388947E-18	2.875398E-19
2.200000E+03	4.445785E-18	2.903016E-19
2.240000E+03	4.516082E-18	2.938925E-19
2.280000E+03	4.601773E-18	2.984279E-19
2.320000E+03	4.702093E-18	3.038461E-19
2.360000E+03	4.818521E-18	3.102303E-19
2.400000E+03	4.950550E-18	3.175343E-19
2.440000E+03	5.099232E-18	3.258117E-19
2.480000E+03	5.265785E-18	3.351249E-19
2.520000E+03	5.451623E-18	3.455467E-19
2.560000E+03	5.658369E-18	3.571612E-19
2.600000E+03	5.887152E-18	3.700192E-19
2.640000E+03	6.140102E-18	3.842318E-19
2.680000E+03	6.419680E-18	3.999275E-19
2.720000E+03	6.730316E-18	4.173535E-19
2.760000E+03	7.074606E-18	4.366375E-19
2.800000E+03	7.458135E-18	4.580863E-19
2.840000E+03	7.884775E-18	4.818942E-19
2.880000E+03	8.359135E-18	5.082941E-19
2.920000E+03	8.885799E-18	5.375095E-19
2.960000E+03	9.471212E-18	5.698686E-19
3.000000E+03	1.012403E-17	6.058213E-19
3.010000E+03	1.029959E-17	6.154702E-19
3.020000E+03	1.047974E-17	6.253604E-19
3.030000E+03	1.066569E-17	6.355614E-19
3.040000E+03	1.085660E-17	6.460226E-19
3.050000E+03	1.105373E-17	6.568165E-19
3.060000E+03	1.125729E-17	6.679537E-19
3.070000E+03	1.146647E-17	6.793853E-19
3.080000E+03	1.168256E-17	6.911851E-19
3.090000E+03	1.190582E-17	7.033668E-19
3.100000E+03	1.213545E-17	7.158807E-19
3.110000E+03	1.237390E-17	7.288695E-19
3.120000E+03	1.261928E-17	7.422193E-19
3.130000E+03	1.287414E-17	7.560773E-19
3.140000E+03	1.313654E-17	7.703283E-19
3.150000E+03	1.340912E-17	7.851228E-19
3.160000E+03	1.369112E-17	8.004147E-19
3.170000E+03	1.398290E-17	8.162216E-19
3.180000E+03	1.428608E-17	8.326344E-19
3.190000E+03	1.459990E-17	8.496066E-19
3.200000E+03	1.492602E-17	8.672310E-19
3.210000E+03	1.526371E-17	8.854604E-19
3.220000E+03	1.561597E-17	9.044668E-19
3.230000E+03	1.598084E-17	9.241310E-19
3.240000E+03	1.636015E-17	9.445549E-19
3.250000E+03	1.675584E-17	9.658465E-19
3.260000E+03	1.716722E-17	9.879607E-19
3.270000E+03	1.759496E-17	1.010932E-18
3.280000E+03	1.804254E-17	1.034953E-18
3.290000E+03	1.850796E-17	1.059904E-18
3.300000E+03	1.899340E-17	1.085905E-18
3.310000E+03	1.949971E-17	1.112996E-18
3.320000E+03	2.002927E-17	1.141308E-18
3.330000E+03	2.058306E-17	1.170889E-18
3.340000E+03	2.116055E-17	1.201702E-18
3.350000E+03	2.176590E-17	1.233973E-18
3.360000E+03	2.240030E-17	1.267763E-18
3.370000E+03	2.306336E-17	1.303039E-18
3.380000E+03	2.375792E-17	1.339952E-18
3.390000E+03	2.448704E-17	1.378666E-18
3.400000E+03	2.525218E-17	1.419250E-18
3.410000E+03	2.605309E-17	1.461680E-18
3.420000E+03	2.689669E-17	1.506330E-18
3.430000E+03	2.778112E-17	1.553084E-18
3.440000E+03	2.871184E-17	1.602233E-18
3.450000E+03	2.969082E-17	1.653871E-18
3.460000E+03	3.072203E-17	1.708203E-18
3.470000E+03	3.180569E-17	1.765225E-18
3.480000E+03	3.294804E-17	1.825265E-18
3.490000E+03	3.415155E-17	1.888440E-18
3.500000E+03	3.541873E-17	1.954869E-18
3.510000E+03	3.675436E-17	2.024793E-18
3.520000E+03	3.816347E-17	2.098467E-18
3.530000E+03	3.964906E-17	2.176031E-18
3.540000E+03	4.121416E-17	2.257624E-18
3.550000E+03	4.286429E-17	2.343523E-18
3.560000E+03	4.460030E-17	2.433745E-18
3.570000E+03	4.643039E-17	2.528706E-18
3.580000E+03	4.835298E-17	2.628291E-18
3.590000E+03	5.037131E-17	2.732642E-18
3.600000E+03	5.249131E-17	2.842048E-18
3.610000E+03	5.471636E-17	2.956657E-18
3.620000E+03	5.704426E-17	3.076313E-18
3.630000E+03	5.948373E-17	3.201450E-18
3.640000E+03	6.203219E-17	3.331890E-18
3.650000E+03	6.469549E-17	3.467910E-18
3.660000E+03	6.747351E-17	3.609461E-18
3.670000E+03	7.037199E-17	3.756811E-18
3.680000E+03	7.338725E-17	3.909719E-18
3.690000E+03	7.652468E-17	4.068431E-18
3.700000E+03	7.978642E-17	4.233016E-18
3.710000E+03	8.317444E-17	4.403534E-18
3.720000E+03	8.668352E-17	4.579664E-18
3.730000E+03	9.032183E-17	4.761791E-18
3.740000E+03	9.408335E-17	4.949552E-18
3.750000E+03	9.796859E-17	5.142929E-18
3.760000E+03	1.019816E-16	5.342084E-18
3.770000E+03	1.061147E-16	5.546575E-18
3.780000E+03	1.103712E-16	5.756527E-18
3.790000E+03	1.147464E-16	5.971646E-18
3.800000E+03	1.192388E-16	6.191811E-18
3.810000E+03	1.238425E-16	6.416675E-18
3.820000E+03	1.285596E-16	6.646297E-18
3.830000E+03	1.333789E-16	6.880059E-18
3.840000E+03	1.383014E-16	7.117971E-18
3.850000E+03	1.433238E-16	7.359827E-18
3.860000E+03	1.484331E-16	7.604915E-18
3.870000E+03	1.536294E-16	7.853209E-18
3.880000E+03	1.589032E-16	8.104188E-18
3.890000E+03	1.642446E-16	8.357314E-18
3.900000E+03	1.696526E-16	8.612515E-18
3.910000E+03	1.751164E-16	8.869207E-18
3.920000E+03	1.806300E-16	9.127065E-18
3.930000E+03	1.861816E-16	9.385475E-18
3.940000E+03	1.917646E-16	9.644079E-18
3.950000E+03	1.973669E-16	9.902259E-18
3.960000E+03	2.029864E-16	1.015990E-17
3.970000E+03	2.086057E-16	1.041612E-17
3.980000E+03	2.142176E-16	1.067056E-17
3.990000E+03	2.198202E-16	1.092311E-17
4.000000E+03	2.253904E-16	1.117264E-17
4.010000E+03	2.309321E-16	1.141935E-17
4.020000E+03	2.364334E-16	1.166265E-17
4.030000E+03	2.418826E-16	1.190197E-17
4.040000E+03	2.472684E-16	1.213679E-17
4.050000E+03	2.525966E-16	1.236739E-17
4.060000E+03	2.578457E-16	1.259276E-17
4.070000E+03	2.630174E-16	1.281300E-17
4.080000E+03	2.681083E-16	1.302796E-17
4.090000E+03	2.731044E-16	1.323701E-17
4.100000E+03	2.780154E-16	1.344063E-17
4.110000E+03	2.828232E-16	1.363799E-17
4.120000E+03	2.875392E-16	1.382967E-17
4.130000E+03	2.921587E-16	1.401547E-17
4.140000E+03	2.966773E-16	1.419522E-17
4.150000E+03	3.011034E-16	1.436936E-17
4.160000E+03	3.054348E-16	1.453782E-17
4.170000E+03	3.096698E-16	1.470054E-17
4.180000E+03	3.138249E-16	1.485835E-17
4.190000E+03	3.178942E-16	1.501099E-17
4.200000E+03	3.218840E-16	1.515879E-17
4.210000E+03	3.258072E-16	1.530240E-17
4.220000E+03	3.296715E-16	1.544218E-17
4.230000E+03	3.334788E-16	1.557826E-17
4.240000E+03	3.372435E-16	1.571133E-17
4.250000E+03	3.409684E-16	1.584153E-17
4.260000E+03	3.446683E-16	1.596957E-17
4.270000E+03	3.483584E-16	1.609614E-17
4.280000E+03	3.520357E-16	1.622114E-17
4.290000E+03	3.557273E-16	1.634579E-17
4.300000E+03	3.594301E-16	1.646996E-17
4.310000E+03	3.631647E-16	1.659459E-17
4.320000E+03	3.669335E-16	1.671976E-17
4.330000E+03	3.707564E-16	1.684638E-17
4.340000E+03	3.746347E-16	1.697448E-17
4.350000E+03	3.785871E-16	1.710489E-17
4.360000E+03	3.826200E-16	1.723786E-17
4.370000E+03	3.867383E-16	1.737360E-17
4.380000E+03	3.909591E-16	1.751283E-17
4.390000E+03	3.952796E-16	1.765539E-17
4.400000E+03	3.997090E-16	1.780165E-17
4.410000E+03	4.042550E-16	1.795192E-17
4.420000E+03	4.089184E-16	1.810619E-17
4.430000E+03	4.136993E-16	1.826442E-17
4.440000E+03	4.186025E-16	1.842678E-17
4.450000E+03	4.236198E-16	1.859286E-17
4.460000E+03	4.287538E-16	1.876273E-17
4.470000E+03	4.339940E-16	1.893591E-17
4.480000E+03	4.393351E-16	1.911211E-17
4.490000E+03	4.447702E-16	1.929101E-17
4.500000E+03	4.502793E-16	1.947170E-17
4.510000E+03	4.558598E-16	1.965404E-17
4.520000E+03	4.614957E-16	1.983735E-17
4.530000E+03	4.671699E-16	2.002084E-17
4.540000E+03	4.728707E-16	2.020403E-17
4.550000E+03	4.785796E-16	2.038611E-17
4.560000E+03	4.842767E-16	2.056625E-17
4.570000E+03	4.899551E-16	2.074416E-17
4.580000E+03	4.955878E-16	2.091871E-17
4.590000E+03	5.011606E-16	2.108934E-17
4.600000E+03	5.066590E-16	2.125546E-17
4.610000E+03	5.120553E-16	2.141595E-17
4.620000E+03	5.173487E-16	2.157083E-17
4.630000E+03	5.225122E-16	2.171901E-17
4.640000E+03	5.275322E-16	2.186000E-17
4.650000E+03	5.323962E-16	2.199334E-17
4.660000E+03	5.370922E-16	2.211861E-17
4.670000E+03	5.416021E-16	2.223512E-17
4.680000E+03	5.459293E-16	2.234311E-17
4.690000E+03	5.500442E-16	2.244145E-17
4.700000E+03	5.539589E-16	2.253071E-17
4.710000E+03	5.576526E-16	2.261014E-17
4.720000E+03	5.611188E-16	2.267956E-17
4.730000E+03	5.643592E-16	2.273915E-17
4.740000E+03	5.673621E-16	2.278853E-17
4.750000E+03	5.701309E-16	2.282793E-17
4.760000E+03	5.726555E-16	2.285705E-17
4.770000E+03	5.749266E-16	2.287561E-17
4.780000E+03	5.769489E-16	2.288391E-17
4.790000E+03	5.787073E-16	2.288146E-17
4.800000E+03	5.802073E-16	2.286857E-17
4.810000E+03	5.814414E-16	2.284507E-17
4.820000E+03	5.824232E-16	2.281158E-17
4.830000E+03	5.831533E-16	2.276824E-17
4.840000E+03	5.836275E-16	2.271498E-17
4.850000E+03	5.838575E-16	2.265236E-17
4.860000E+03	5.838581E-16	2.258105E-17
4.870000E+03	5.836365E-16	2.250141E-17
4.880000E+03	5.832177E-16	2.241450E-17
4.890000E+03	5.826231E-16	2.232122E-17
4.900000E+03	5.818687E-16	2.222224E-17
4.910000E+03	5.809848E-16	2.211879E-17
4.920000E+03	5.799942E-16	2.201178E-17
4.930000E+03	5.789195E-16	2.190211E-17
4.940000E+03	5.777759E-16	2.179039E-17
4.950000E+03	5.765965E-16	2.167787E-17
4.960000E+03	5.753942E-16	2.156505E-17
4.970000E+03	5.741868E-16	2.145258E-17
4.980000E+03	5.729908E-16	2.134107E-17
4.990000E+03	5.718219E-16	2.123110E-17
5.000000E+03	5.707007E-16	2.112339E-17
5.010000E+03	5.696341E-16	2.101819E-17
5.020000E+03	5.686409E-16	2.091616E-17
5.030000E+03	5.677269E-16	2.081747E-17
5.040000E+03	5.669094E-16	2.072271E-17
5.050000E+03	5.661988E-16	2.063224E-17
5.060000E+03	5.655992E-16	2.054614E-17
5.070000E+03	5.651322E-16	2.046516E-17
5.080000E+03	5.648008E-16	2.038935E-17
5.090000E+03	5.646071E-16	2.031874E-17
5.100000E+03	5.645770E-16	2.025419E-17
5.110000E+03	5.646991E-16	2.019523E-17
5.120000E+03	5.649913E-16	2.014246E-17
5.130000E+03	5.654580E-16	2.009595E-17
5.140000E+03	5.661025E-16	2.005576E-17
5.150000E+03	5.669205E-16	2.002167E-17
5.160000E+03	5.679180E-16	1.999383E-17
5.170000E+03	5.690929E-16	1.997210E-17
5.180000E+03	5.704412E-16	1.995626E-17
5.190000E+03	5.719565E-16	1.994605E-17
5.200000E+03	5.736302E-16	1.994109E-17
5.210000E+03	5.754575E-16	1.994116E-17
5.220000E+03	5.774129E-16	1.994532E-17
5.230000E+03	5.794925E-16	1.995339E-17
5.240000E+03	5.816778E-16	1.996469E-17
5.250000E+03	5.839423E-16	1.997828E-17
5.260000E+03	5.862632E-16	1.999333E-17
5.270000E+03	5.886153E-16	2.000898E-17
5.280000E+03	5.909782E-16	2.002450E-17
5.290000E+03	5.933235E-16	2.003895E-17
5.300000E+03	5.956160E-16	2.005113E-17
5.310000E+03	5.978252E-16	2.006003E-17
5.320000E+03	5.999266E-16	2.006485E-17
5.330000E+03	6.018894E-16	2.006459E-17
5.340000E+03	6.036773E-16	2.005810E-17
5.350000E+03	6.052608E-16	2.004445E-17
5.360000E+03	6.066180E-16	2.002297E-17
5.370000E+03	6.077165E-16	1.999267E-17
5.380000E+03	6.085383E-16	1.995305E-17
5.390000E+03	6.090559E-16	1.990328E-17
5.400000E+03	6.092511E-16	1.984288E-17
5.410000E+03	6.091151E-16	1.977165E-17
5.420000E+03	6.086305E-16	1.968915E-17
5.430000E+03	6.077905E-16	1.959526E-17
5.440000E+03	6.065981E-16	1.949019E-17
5.450000E+03	6.050494E-16	1.937394E-17
5.460000E+03	6.031580E-16	1.924705E-17
5.470000E+03	6.009302E-16	1.910983E-17
5.480000E+03	5.983839E-16	1.896297E-17
5.490000E+03	5.955484E-16	1.880748E-17
5.500000E+03	5.924461E-16	1.864418E-17
5.510000E+03	5.891104E-16	1.847419E-17
5.520000E+03	5.855796E-16	1.829879E-17
5.530000E+03	5.819017E-16	1.811954E-17
5.540000E+03	5.781223E-16	1.793789E-17
5.550000E+03	5.742907E-16	1.775542E-17
5.560000E+03	5.704642E-16	1.757390E-17
5.570000E+03	5.666906E-16	1.739480E-17
5.580000E+03	5.630305E-16	1.721996E-17
5.590000E+03	5.595397E-16	1.705104E-17
5.600000E+03	5.562740E-16	1.688968E-17
5.610000E+03	5.532835E-16	1.673732E-17
5.620000E+03	5.506283E-16	1.659569E-17
5.630000E+03	5.483618E-16	1.646628E-17
5.640000E+03	5.465354E-16	1.635049E-17
5.650000E+03	5.452036E-16	1.624982E-17
5.660000E+03	5.444019E-16	1.616514E-17
5.670000E+03	5.441787E-16	1.609773E-17
5.680000E+03	5.445788E-16	1.604869E-17
5.690000E+03	5.456316E-16	1.601870E-17
5.700000E+03	5.473671E-16	1.600842E-17
5.710000E+03	5.498099E-16	1.601834E-17
5.720000E+03	5.529836E-16	1.604890E-17
5.730000E+03	5.568940E-16	1.610004E-17
5.740000E+03	5.615503E-16	1.617178E-17
5.750000E+03	5.669415E-16	1.626355E-17
5.760000E+03	5.730591E-16	1.637488E-17
5.770000E+03	5.798733E-16	1.650467E-17
5.780000E+03	5.873548E-16	1.665187E-17
5.790000E+03	5.954520E-16	1.681481E-17
5.800000E+03	6.041138E-16	1.699184E-17
5.810000E+03	6.132657E-16	1.718072E-17
5.820000E+03	6.228346E-16	1.737923E-17
5.830000E+03	6.327246E-16	1.758458E-17
5.840000E+03	6.428361E-16	1.779393E-17
5.850000E+03	6.530674E-16	1.800441E-17
5.860000E+03	6.632980E-16	1.821268E-17
5.870000E+03	6.734083E-16	1.841549E-17
5.880000E+03	6.832762E-16	1.860958E-17
5.890000E+03	6.927798E-16	1.879173E-17
5.900000E+03	7.017997E-16	1.895886E-17
5.910000E+03	7.102223E-16	1.910809E-17
5.920000E+03	7.179351E-16	1.923663E-17
5.930000E+03	7.248435E-16	1.934220E-17
5.940000E+03	7.308742E-16	1.942315E-17
5.950000E+03	7.359550E-16	1.947787E-17
5.960000E+03	7.400308E-16	1.950525E-17
5.970000E+03	7.430874E-16	1.950526E-17
5.980000E+03	7.450929E-16	1.947742E-17
5.990000E+03	7.460712E-16	1.942272E-17
6.000000E+03	7.460425E-16	1.934203E-17
6.010000E+03	7.450443E-16	1.923666E-17
6.020000E+03	7.431441E-16	1.910867E-17
6.030000E+03	7.404077E-16	1.896007E-17
6.040000E+03	7.369190E-16	1.879326E-17
6.050000E+03	7.327627E-16	1.861065E-17
6.060000E+03	7.280430E-16	1.841511E-17
6.070000E+03	7.228452E-16	1.820897E-17
6.080000E+03	7.172760E-16	1.799507E-17
6.090000E+03	7.114184E-16	1.777560E-17
6.100000E+03	7.053798E-16	1.755334E-17
6.110000E+03	6.992332E-16	1.733017E-17
6.120000E+03	6.930585E-16	1.710809E-17
6.130000E+03	6.869274E-16	1.688889E-17
6.140000E+03	6.808956E-16	1.667392E-17
6.150000E+03	6.750167E-16	1.646448E-17
6.160000E+03	6.693340E-16	1.626157E-17
6.170000E+03	6.638811E-16	1.606597E-17
6.180000E+03	6.586686E-16	1.587787E-17
6.190000E+03	6.537232E-16	1.569785E-17
6.200000E+03	6.490413E-16	1.552576E-17
6.210000E+03	6.446203E-16	1.536144E-17
6.220000E+03	6.404335E-16	1.520419E-17
6.230000E+03	6.364661E-16	1.505358E-17
6.240000E+03	6.326790E-16	1.490863E-17
6.250000E+03	6.290380E-16	1.476847E-17
6.260000E+03	6.255213E-16	1.463256E-17
6.270000E+03	6.220831E-16	1.449979E-17
6.280000E+03	6.187068E-16	1.436976E-17
6.290000E+03	6.153605E-16	1.424169E-17
6.300000E+03	6.120304E-16	1.411526E-17
6.310000E+03	6.087081E-16	1.399028E-17
6.320000E+03	6.053721E-16	1.386624E-17
6.330000E+03	6.020325E-16	1.374337E-17
6.340000E+03	5.986918E-16	1.362173E-17
6.350000E+03	5.953581E-16	1.350149E-17
6.360000E+03	5.920497E-16	1.338308E-17
6.370000E+03	5.887766E-16	1.326669E-17
6.380000E+03	5.855640E-16	1.315289E-17
6.390000E+03	5.824392E-16	1.304228E-17
6.400000E+03	5.794248E-16	1.293534E-17
6.410000E+03	5.765435E-16	1.283255E-17
6.420000E+03	5.738244E-16	1.273452E-17
6.430000E+03	5.712897E-16	1.264173E-17
6.440000E+03	5.689724E-16	1.255485E-17
6.450000E+03	5.668851E-16	1.247414E-17
6.460000E+03	5.650507E-16	1.240005E-17
6.470000E+03	5.634829E-16	1.233285E-17
6.480000E+03	5.621988E-16	1.227286E-17
6.490000E+03	5.612058E-16	1.222020E-17
6.500000E+03	5.605076E-16	1.217492E-17
6.510000E+03	5.601035E-16	1.213696E-17
6.520000E+03	5.599889E-16	1.210620E-17
6.530000E+03	5.601547E-16	1.208239E-17
6.540000E+03	5.605868E-16	1.206522E-17
6.550000E+03	5.612666E-16	1.205426E-17
6.560000E+03	5.621774E-16	1.204914E-17
6.570000E+03	5.632852E-16	1.204912E-17
6.580000E+03	5.645714E-16	1.205379E-17
6.590000E+03	5.659879E-16	1.206214E-17
6.600000E+03	5.675097E-16	1.207364E-17
6.610000E+03	5.690899E-16	1.208731E-17
6.620000E+03	5.706930E-16	1.210240E-17
6.630000E+03	5.722762E-16	1.211804E-17
6.640000E+03	5.737968E-16	1.213334E-17
6.650000E+03	5.752126E-16	1.214745E-17
6.660000E+03	5.764897E-16	1.215969E-17
6.670000E+03	5.775900E-16	1.216928E-17
6.680000E+03	5.784780E-16	1.217552E-17
6.690000E+03	5.791152E-16	1.217761E-17
6.700000E+03	5.794880E-16	1.217533E-17
6.710000E+03	5.795740E-16	1.216819E-17
6.720000E+03	5.793487E-16	1.215568E-17
6.730000E+03	5.788077E-16	1.213769E-17
6.740000E+03	5.779378E-16	1.211391E-17
6.750000E+03	5.767532E-16	1.208463E-17
6.760000E+03	5.752522E-16	1.204978E-17
6.770000E+03	5.734533E-16	1.200972E-17
6.780000E+03	5.713582E-16	1.196446E-17
6.790000E+03	5.690095E-16	1.191484E-17
6.800000E+03	5.664181E-16	1.186106E-17
6.810000E+03	5.636196E-16	1.180382E-17
6.820000E+03	5.606382E-16	1.174360E-17
6.830000E+03	5.575214E-16	1.168134E-17
6.840000E+03	5.542887E-16	1.161741E-17
6.850000E+03	5.509891E-16	1.155280E-17
6.860000E+03	5.476492E-16	1.148802E-17
6.870000E+03	5.442960E-16	1.142361E-17
6.880000E+03	5.409774E-16	1.136052E-17
6.890000E+03	5.377271E-16	1.129945E-17
6.900000E+03	5.345624E-16	1.124071E-17
6.910000E+03	5.315245E-16	1.118514E-17
6.920000E+03	5.286289E-16	1.113305E-17
6.930000E+03	5.258930E-16	1.108477E-17
6.940000E+03	5.233357E-16	1.104070E-17
6.950000E+03	5.209568E-16	1.100079E-17
6.960000E+03	5.187581E-16	1.096508E-17
6.970000E+03	5.167436E-16	1.093364E-17
6.980000E+03	5.148996E-16	1.090617E-17
6.990000E+03	5.132159E-16	1.088242E-17
7.000000E+03	5.116861E-16	1.086228E-17
7.010000E+03	5.102818E-16	1.084510E-17
7.020000E+03	5.090003E-16	1.083084E-17
7.030000E+03	5.078181E-16	1.081898E-17
7.040000E+03	5.067193E-16	1.080917E-17
7.050000E+03	5.056881E-16	1.080106E-17
7.060000E+03	5.047110E-16	1.079436E-17
7.070000E+03	5.037689E-16	1.078865E-17
7.080000E+03	5.028655E-16	1.078398E-17
7.090000E+03	5.019795E-16	1.077990E-17
7.100000E+03	5.011050E-16	1.077627E-17
7.110000E+03	5.002451E-16	1.077314E-17
7.120000E+03	4.993971E-16	1.077044E-17
7.130000E+03	4.985460E-16	1.076784E-17
7.140000E+03	4.977046E-16	1.076561E-17
7.150000E+03	4.968653E-16	1.076356E-17
7.160000E+03	4.960202E-16	1.076153E-17
7.170000E+03	4.951740E-16	1.075959E-17
7.180000E+03	4.943169E-16	1.075754E-17
7.190000E+03	4.934443E-16	1.075526E-17
7.200000E+03	4.925498E-16	1.075261E-17
7.210000E+03	4.916258E-16	1.074940E-17
7.220000E+03	4.906627E-16	1.074542E-17
7.230000E+03	4.896360E-16	1.074013E-17
7.240000E+03	4.885470E-16	1.073353E-17
7.250000E+03	4.873688E-16	1.072503E-17
7.260000E+03	4.860874E-16	1.071430E-17
7.270000E+03	4.846885E-16	1.070101E-17
7.280000E+03	4.831581E-16	1.068484E-17
7.290000E+03	4.814758E-16	1.066531E-17
7.300000E+03	4.796293E-16	1.064214E-17
7.310000E+03	4.776014E-16	1.061492E-17
7.320000E+03	4.753766E-16	1.058328E-17
7.330000E+03	4.729620E-16	1.054737E-17
7.340000E+03	4.703343E-16	1.050663E-17
7.350000E+03	4.674936E-16	1.046104E-17
7.360000E+03	4.644496E-16	1.041079E-17
7.370000E+03	4.611957E-16	1.035571E-17
7.380000E+03	4.577417E-16	1.029600E-17
7.390000E+03	4.540943E-16	1.023178E-17
7.400000E+03	4.502757E-16	1.016353E-17
7.410000E+03	4.462912E-16	1.009135E-17
7.420000E+03	4.421613E-16	1.001568E-17
7.430000E+03	4.379136E-16	9.937137E-18
7.440000E+03	4.335643E-16	9.856066E-18
7.450000E+03	4.291298E-16	9.772831E-18
7.460000E+03	4.246447E-16	9.688212E-18
7.470000E+03	4.201244E-16	9.602552E-18
7.480000E+03	4.156010E-16	9.516581E-18
7.490000E+03	4.110808E-16	9.430445E-18
7.500000E+03	4.065984E-16	9.344937E-18
7.510000E+03	4.021618E-16	9.260247E-18
7.520000E+03	3.977889E-16	9.176793E-18
7.530000E+03	3.934893E-16	9.094806E-18
7.540000E+03	3.892757E-16	9.014587E-18
7.550000E+03	3.851530E-16	8.936262E-18
7.560000E+03	3.811238E-16	8.859884E-18
7.570000E+03	3.771940E-16	8.785592E-18
7.580000E+03	3.733678E-16	8.713479E-18
7.590000E+03	3.696370E-16	8.643353E-18
7.600000E+03	3.660084E-16	8.575374E-18
7.610000E+03	3.624667E-16	8.509181E-18
7.620000E+03	3.590175E-16	8.444904E-18
7.630000E+03	3.556500E-16	8.382294E-18
7.640000E+03	3.523696E-16	8.321475E-18
7.650000E+03	3.491610E-16	8.262086E-18
7.660000E+03	3.460304E-16	8.204274E-18
7.670000E+03	3.429642E-16	8.147714E-18
7.680000E+03	3.399746E-16	8.092703E-18
7.690000E+03	3.370445E-16	8.038830E-18
7.700000E+03	3.341825E-16	7.986300E-18
7.710000E+03	3.313877E-16	7.935095E-18
7.720000E+03	3.286548E-16	7.885087E-18
7.730000E+03	3.259832E-16	7.836269E-18
7.740000E+03	3.233782E-16	7.788766E-18
7.750000E+03	3.208399E-16	7.742582E-18
7.760000E+03	3.183587E-16	7.697494E-18
