#wls	flux	fluxerr
1.600000E+03	3.841966E-18	3.061732E-19
1.640000E+03	3.809502E-18	3.025913E-19
1.680000E+03	3.782082E-18	2.994023E-19
1.720000E+03	3.758282E-18	2.964898E-19
1.760000E+03	3.738181E-18	2.938572E-19
1.800000E+03	3.723327E-18	2.916225E-19
1.840000E+03	3.713809E-18	2.897880E-19
1.880000E+03	3.709021E-18	2.883016E-19
1.920000E+03	3.709104E-18	2.871696E-19
1.960000E+03	3.715660E-18	2.865108E-19
2.000000E+03	3.728162E-18	2.862777E-19
2.040000E+03	3.747552E-18	2.865362E-19
2.080000E+03	3.773376E-18	2.872439E-19
2.120000E+03	3.807388E-18	2.885262E-19
2.160000E+03	3.848498E-18	2.902914E-19
2.200000E+03	3.898579E-18	2.926710E-19
2.240000E+03	3.958127E-18	2.956910E-19
2.280000E+03	4.027714E-18	2.993815E-19
2.320000E+03	4.107248E-18	3.037222E-19
2.360000E+03	4.198224E-18	3.088093E-19
2.400000E+03	4.302283E-18	3.147469E-19
2.440000E+03	4.420457E-18	3.215911E-19
2.480000E+03	4.552337E-18	3.292916E-19
2.520000E+03	4.701638E-18	3.380947E-19
2.560000E+03	4.869136E-18	3.480292E-19
2.600000E+03	5.057478E-18	3.592546E-19
2.640000E+03	5.267923E-18	3.718265E-19
2.680000E+03	5.504643E-18	3.860014E-19
2.720000E+03	5.769616E-18	4.018740E-19
2.760000E+03	6.068002E-18	4.197536E-19
2.800000E+03	6.403757E-18	4.398552E-19
2.840000E+03	6.782475E-18	4.624957E-19
2.880000E+03	7.210624E-18	4.880377E-19
2.920000E+03	7.696806E-18	5.169713E-19
2.960000E+03	8.249873E-18	5.497822E-19
3.000000E+03	8.881326E-18	5.871091E-19
3.010000E+03	9.053899E-18	5.972920E-19
3.020000E+03	9.232259E-18	6.078037E-19
3.030000E+03	9.415346E-18	6.185718E-19
3.040000E+03	9.605852E-18	6.297705E-19
3.050000E+03	9.804040E-18	6.414137E-19
3.060000E+03	1.000886E-17	6.534291E-19
3.070000E+03	1.022054E-17	6.658290E-19
3.080000E+03	1.044067E-17	6.787125E-19
3.090000E+03	1.066816E-17	6.920060E-19
3.100000E+03	1.090467E-17	7.058128E-19
3.110000E+03	1.114909E-17	7.200570E-19
3.120000E+03	1.140313E-17	7.348452E-19
3.130000E+03	1.166711E-17	7.501940E-19
3.140000E+03	1.193995E-17	7.660282E-19
3.150000E+03	1.222489E-17	7.825515E-19
3.160000E+03	1.251938E-17	7.995953E-19
3.170000E+03	1.282526E-17	8.172724E-19
3.180000E+03	1.314450E-17	8.357019E-19
3.190000E+03	1.347444E-17	8.547091E-19
3.200000E+03	1.381863E-17	8.745137E-19
3.210000E+03	1.417598E-17	8.950399E-19
3.220000E+03	1.454695E-17	9.163096E-19
3.230000E+03	1.493370E-17	9.384521E-19
3.240000E+03	1.533512E-17	9.613899E-19
3.250000E+03	1.575343E-17	9.852555E-19
3.260000E+03	1.618751E-17	1.009969E-18
3.270000E+03	1.663968E-17	1.035669E-18
3.280000E+03	1.711060E-17	1.062387E-18
3.290000E+03	1.760096E-17	1.090155E-18
3.300000E+03	1.811145E-17	1.119007E-18
3.310000E+03	1.864279E-17	1.148977E-18
3.320000E+03	1.919572E-17	1.180100E-18
3.330000E+03	1.977299E-17	1.212533E-18
3.340000E+03	2.037348E-17	1.246197E-18
3.350000E+03	2.099798E-17	1.281127E-18
3.360000E+03	2.164942E-17	1.317489E-18
3.370000E+03	2.232875E-17	1.355327E-18
3.380000E+03	2.303697E-17	1.394688E-18
3.390000E+03	2.377289E-17	1.435485E-18
3.400000E+03	2.454191E-17	1.478028E-18
3.410000E+03	2.534292E-17	1.522234E-18
3.420000E+03	2.617935E-17	1.568293E-18
3.430000E+03	2.704767E-17	1.615973E-18
3.440000E+03	2.795616E-17	1.665753E-18
3.450000E+03	2.890127E-17	1.717400E-18
3.460000E+03	2.988670E-17	1.771114E-18
3.470000E+03	3.091379E-17	1.826954E-18
3.480000E+03	3.198386E-17	1.884974E-18
3.490000E+03	3.309828E-17	1.945234E-18
3.500000E+03	3.426116E-17	2.007950E-18
3.510000E+03	3.547402E-17	2.073184E-18
3.520000E+03	3.673560E-17	2.140839E-18
3.530000E+03	3.805020E-17	2.211136E-18
3.540000E+03	3.941936E-17	2.284137E-18
3.550000E+03	4.084470E-17	2.359906E-18
3.560000E+03	4.233080E-17	2.438676E-18
3.570000E+03	4.387631E-17	2.520338E-18
3.580000E+03	4.548279E-17	2.604948E-18
3.590000E+03	4.715822E-17	2.692929E-18
3.600000E+03	4.889790E-17	2.783976E-18
3.610000E+03	5.071003E-17	2.878519E-18
3.620000E+03	5.259300E-17	2.976426E-18
3.630000E+03	5.454841E-17	3.077751E-18
3.640000E+03	5.658133E-17	3.182737E-18
3.650000E+03	5.869346E-17	3.291438E-18
3.660000E+03	6.088640E-17	3.403899E-18
3.670000E+03	6.316168E-17	3.520160E-18
3.680000E+03	6.552076E-17	3.640257E-18
3.690000E+03	6.796884E-17	3.764432E-18
3.700000E+03	7.050739E-17	3.892714E-18
3.710000E+03	7.313370E-17	4.024906E-18
3.720000E+03	7.585693E-17	4.161459E-18
3.730000E+03	7.866999E-17	4.301932E-18
3.740000E+03	8.158204E-17	4.446773E-18
3.750000E+03	8.459396E-17	4.595975E-18
3.760000E+03	8.770210E-17	4.749282E-18
3.770000E+03	9.091120E-17	4.906896E-18
3.780000E+03	9.422153E-17	5.068774E-18
3.790000E+03	9.763773E-17	5.235108E-18
3.800000E+03	1.011505E-16	5.405337E-18
3.810000E+03	1.047684E-16	5.579871E-18
3.820000E+03	1.084912E-16	5.758622E-18
3.830000E+03	1.123178E-16	5.941486E-18
3.840000E+03	1.162420E-16	6.128069E-18
3.850000E+03	1.202722E-16	6.318757E-18
3.860000E+03	1.244015E-16	6.513127E-18
3.870000E+03	1.286277E-16	6.711011E-18
3.880000E+03	1.329481E-16	6.912206E-18
3.890000E+03	1.373648E-16	7.116770E-18
3.900000E+03	1.418746E-16	7.324480E-18
3.910000E+03	1.464684E-16	7.534816E-18
3.920000E+03	1.511529E-16	7.748070E-18
3.930000E+03	1.559124E-16	7.963386E-18
3.940000E+03	1.607476E-16	8.180757E-18
3.950000E+03	1.656528E-16	8.399852E-18
3.960000E+03	1.706281E-16	8.620631E-18
3.970000E+03	1.756559E-16	8.842164E-18
3.980000E+03	1.807351E-16	9.064372E-18
3.990000E+03	1.858648E-16	9.287176E-18
4.000000E+03	1.910261E-16	9.509606E-18
4.010000E+03	1.962235E-16	9.731867E-18
4.020000E+03	2.014439E-16	9.953291E-18
4.030000E+03	2.066742E-16	1.017321E-17
4.040000E+03	2.119133E-16	1.039158E-17
4.050000E+03	2.171544E-16	1.060805E-17
4.060000E+03	2.223915E-16	1.082234E-17
4.070000E+03	2.276128E-16	1.103386E-17
4.080000E+03	2.328127E-16	1.124237E-17
4.090000E+03	2.379862E-16	1.144763E-17
4.100000E+03	2.431232E-16	1.164918E-17
4.110000E+03	2.482256E-16	1.184713E-17
4.120000E+03	2.532900E-16	1.204134E-17
4.130000E+03	2.582949E-16	1.223082E-17
4.140000E+03	2.632564E-16	1.241636E-17
4.150000E+03	2.681542E-16	1.259703E-17
4.160000E+03	2.729928E-16	1.277309E-17
4.170000E+03	2.777654E-16	1.294425E-17
4.180000E+03	2.824655E-16	1.311026E-17
4.190000E+03	2.870934E-16	1.327119E-17
4.200000E+03	2.916441E-16	1.342682E-17
4.210000E+03	2.961188E-16	1.357729E-17
4.220000E+03	3.005139E-16	1.372247E-17
4.230000E+03	3.048261E-16	1.386226E-17
4.240000E+03	3.090591E-16	1.399688E-17
4.250000E+03	3.132052E-16	1.412604E-17
4.260000E+03	3.172635E-16	1.424976E-17
4.270000E+03	3.212456E-16	1.436861E-17
4.280000E+03	3.251402E-16	1.448213E-17
4.290000E+03	3.289541E-16	1.459070E-17
4.300000E+03	3.326888E-16	1.469442E-17
4.310000E+03	3.363403E-16	1.479318E-17
4.320000E+03	3.399227E-16	1.488765E-17
4.330000E+03	3.434270E-16	1.497748E-17
4.340000E+03	3.468560E-16	1.506286E-17
4.350000E+03	3.502245E-16	1.514448E-17
4.360000E+03	3.535182E-16	1.522176E-17
4.370000E+03	3.567517E-16	1.529539E-17
4.380000E+03	3.599279E-16	1.536553E-17
4.390000E+03	3.630437E-16	1.543210E-17
4.400000E+03	3.661068E-16	1.549546E-17
4.410000E+03	3.691132E-16	1.555550E-17
4.420000E+03	3.720637E-16	1.561229E-17
4.430000E+03	3.749584E-16	1.566589E-17
4.440000E+03	3.777964E-16	1.571629E-17
4.450000E+03	3.805815E-16	1.576370E-17
4.460000E+03	3.833105E-16	1.580804E-17
4.470000E+03	3.859794E-16	1.584918E-17
4.480000E+03	3.885939E-16	1.588740E-17
4.490000E+03	3.911474E-16	1.592249E-17
4.500000E+03	3.936433E-16	1.595463E-17
4.510000E+03	3.960680E-16	1.598332E-17
4.520000E+03	3.984285E-16	1.600890E-17
4.530000E+03	4.007100E-16	1.603081E-17
4.540000E+03	4.029132E-16	1.604916E-17
4.550000E+03	4.050331E-16	1.606381E-17
4.560000E+03	4.070647E-16	1.607460E-17
4.570000E+03	4.090080E-16	1.608162E-17
4.580000E+03	4.108581E-16	1.608473E-17
4.590000E+03	4.126154E-16	1.608402E-17
4.600000E+03	4.142695E-16	1.607914E-17
4.610000E+03	4.158267E-16	1.607041E-17
4.620000E+03	4.172826E-16	1.605773E-17
4.630000E+03	4.186388E-16	1.604123E-17
4.640000E+03	4.198915E-16	1.602083E-17
4.650000E+03	4.210478E-16	1.599688E-17
4.660000E+03	4.220995E-16	1.596912E-17
4.670000E+03	4.230594E-16	1.593811E-17
4.680000E+03	4.239251E-16	1.590382E-17
4.690000E+03	4.246996E-16	1.586643E-17
4.700000E+03	4.253864E-16	1.582612E-17
4.710000E+03	4.259896E-16	1.578312E-17
4.720000E+03	4.265138E-16	1.573764E-17
4.730000E+03	4.269645E-16	1.568994E-17
4.740000E+03	4.273530E-16	1.564049E-17
4.750000E+03	4.276856E-16	1.558956E-17
4.760000E+03	4.279695E-16	1.553745E-17
4.770000E+03	4.282121E-16	1.548447E-17
4.780000E+03	4.284207E-16	1.543093E-17
4.790000E+03	4.285872E-16	1.537655E-17
4.800000E+03	4.287232E-16	1.532179E-17
4.810000E+03	4.288192E-16	1.526634E-17
4.820000E+03	4.288748E-16	1.521022E-17
4.830000E+03	4.288936E-16	1.515358E-17
4.840000E+03	4.288630E-16	1.509602E-17
4.850000E+03	4.287903E-16	1.503783E-17
4.860000E+03	4.286581E-16	1.497843E-17
4.870000E+03	4.284813E-16	1.491837E-17
4.880000E+03	4.282519E-16	1.485742E-17
4.890000E+03	4.279784E-16	1.479589E-17
4.900000E+03	4.276604E-16	1.473380E-17
4.910000E+03	4.273084E-16	1.467154E-17
4.920000E+03	4.269238E-16	1.460917E-17
4.930000E+03	4.265227E-16	1.454722E-17
4.940000E+03	4.261023E-16	1.448560E-17
4.950000E+03	4.256746E-16	1.442468E-17
4.960000E+03	4.252415E-16	1.436452E-17
4.970000E+03	4.248192E-16	1.430565E-17
4.980000E+03	4.244095E-16	1.424810E-17
4.990000E+03	4.240134E-16	1.419189E-17
5.000000E+03	4.236463E-16	1.413749E-17
5.010000E+03	4.233086E-16	1.408490E-17
5.020000E+03	4.230106E-16	1.403444E-17
5.030000E+03	4.227484E-16	1.398593E-17
5.040000E+03	4.225366E-16	1.393984E-17
5.050000E+03	4.223766E-16	1.389617E-17
5.060000E+03	4.222788E-16	1.385524E-17
5.070000E+03	4.222444E-16	1.381705E-17
5.080000E+03	4.222841E-16	1.378191E-17
5.090000E+03	4.224040E-16	1.374999E-17
5.100000E+03	4.226051E-16	1.372128E-17
5.110000E+03	4.228929E-16	1.369593E-17
5.120000E+03	4.232768E-16	1.367419E-17
5.130000E+03	4.237609E-16	1.365616E-17
5.140000E+03	4.243483E-16	1.364191E-17
5.150000E+03	4.250364E-16	1.363131E-17
5.160000E+03	4.258301E-16	1.362447E-17
5.170000E+03	4.267288E-16	1.362135E-17
5.180000E+03	4.277261E-16	1.362170E-17
5.190000E+03	4.288277E-16	1.362566E-17
5.200000E+03	4.300200E-16	1.363278E-17
5.210000E+03	4.312976E-16	1.364284E-17
5.220000E+03	4.326629E-16	1.365590E-17
5.230000E+03	4.340990E-16	1.367138E-17
5.240000E+03	4.356017E-16	1.368914E-17
5.250000E+03	4.371565E-16	1.370869E-17
5.260000E+03	4.387571E-16	1.372981E-17
5.270000E+03	4.403918E-16	1.375212E-17
5.280000E+03	4.420476E-16	1.377519E-17
5.290000E+03	4.437066E-16	1.379846E-17
5.300000E+03	4.453541E-16	1.382145E-17
5.310000E+03	4.469798E-16	1.384384E-17
5.320000E+03	4.485633E-16	1.386499E-17
5.330000E+03	4.500934E-16	1.388455E-17
5.340000E+03	4.515485E-16	1.390186E-17
5.350000E+03	4.529122E-16	1.391641E-17
5.360000E+03	4.541724E-16	1.392785E-17
5.370000E+03	4.553033E-16	1.393539E-17
5.380000E+03	4.562980E-16	1.393883E-17
5.390000E+03	4.571371E-16	1.393759E-17
5.400000E+03	4.578017E-16	1.393112E-17
5.410000E+03	4.582889E-16	1.391935E-17
5.420000E+03	4.585781E-16	1.390168E-17
5.430000E+03	4.586648E-16	1.387799E-17
5.440000E+03	4.585417E-16	1.384810E-17
5.450000E+03	4.582036E-16	1.381186E-17
5.460000E+03	4.576428E-16	1.376908E-17
5.470000E+03	4.568681E-16	1.372005E-17
5.480000E+03	4.558719E-16	1.366456E-17
5.490000E+03	4.546628E-16	1.360292E-17
5.500000E+03	4.532425E-16	1.353519E-17
5.510000E+03	4.516246E-16	1.346181E-17
5.520000E+03	4.498164E-16	1.338301E-17
5.530000E+03	4.478365E-16	1.329939E-17
5.540000E+03	4.456981E-16	1.321135E-17
5.550000E+03	4.434263E-16	1.311966E-17
5.560000E+03	4.410490E-16	1.302515E-17
5.570000E+03	4.385838E-16	1.292836E-17
5.580000E+03	4.360644E-16	1.283029E-17
5.590000E+03	4.335220E-16	1.273186E-17
5.600000E+03	4.309939E-16	1.263417E-17
5.610000E+03	4.285053E-16	1.253795E-17
5.620000E+03	4.260987E-16	1.244442E-17
5.630000E+03	4.237990E-16	1.235431E-17
5.640000E+03	4.216466E-16	1.226877E-17
5.650000E+03	4.196631E-16	1.218840E-17
5.660000E+03	4.178839E-16	1.211420E-17
5.670000E+03	4.163291E-16	1.204672E-17
5.680000E+03	4.150150E-16	1.198639E-17
5.690000E+03	4.139627E-16	1.193379E-17
5.700000E+03	4.131895E-16	1.188937E-17
5.710000E+03	4.126974E-16	1.185314E-17
5.720000E+03	4.124975E-16	1.182539E-17
5.730000E+03	4.125903E-16	1.180608E-17
5.740000E+03	4.129860E-16	1.179546E-17
5.750000E+03	4.136764E-16	1.179326E-17
5.760000E+03	4.146584E-16	1.179934E-17
5.770000E+03	4.159309E-16	1.181362E-17
5.780000E+03	4.174850E-16	1.183583E-17
5.790000E+03	4.192998E-16	1.186532E-17
5.800000E+03	4.213662E-16	1.190181E-17
5.810000E+03	4.236575E-16	1.194451E-17
5.820000E+03	4.261455E-16	1.199261E-17
5.830000E+03	4.287965E-16	1.204513E-17
5.840000E+03	4.315673E-16	1.210085E-17
5.850000E+03	4.344185E-16	1.215865E-17
5.860000E+03	4.372981E-16	1.221708E-17
5.870000E+03	4.401602E-16	1.227488E-17
5.880000E+03	4.429493E-16	1.233051E-17
5.890000E+03	4.456095E-16	1.238243E-17
5.900000E+03	4.480953E-16	1.242943E-17
5.910000E+03	4.503598E-16	1.247023E-17
5.920000E+03	4.523564E-16	1.250361E-17
5.930000E+03	4.540484E-16	1.252860E-17
5.940000E+03	4.554102E-16	1.254455E-17
5.950000E+03	4.564064E-16	1.255055E-17
5.960000E+03	4.570363E-16	1.254664E-17
5.970000E+03	4.572812E-16	1.253239E-17
5.980000E+03	4.571531E-16	1.250818E-17
5.990000E+03	4.566551E-16	1.247417E-17
6.000000E+03	4.558112E-16	1.243106E-17
6.010000E+03	4.546441E-16	1.237955E-17
6.020000E+03	4.531875E-16	1.232058E-17
6.030000E+03	4.514810E-16	1.225530E-17
6.040000E+03	4.495649E-16	1.218484E-17
6.050000E+03	4.474923E-16	1.211065E-17
6.060000E+03	4.453105E-16	1.203407E-17
6.070000E+03	4.430679E-16	1.195640E-17
6.080000E+03	4.408216E-16	1.187921E-17
6.090000E+03	4.386228E-16	1.180388E-17
6.100000E+03	4.365146E-16	1.173158E-17
6.110000E+03	4.345398E-16	1.166345E-17
6.120000E+03	4.327346E-16	1.160046E-17
6.130000E+03	4.311278E-16	1.154337E-17
6.140000E+03	4.297400E-16	1.149272E-17
6.150000E+03	4.285801E-16	1.144874E-17
6.160000E+03	4.276581E-16	1.141169E-17
6.170000E+03	4.269690E-16	1.138141E-17
6.180000E+03	4.265025E-16	1.135759E-17
6.190000E+03	4.262462E-16	1.133987E-17
6.200000E+03	4.261860E-16	1.132784E-17
6.210000E+03	4.262967E-16	1.132080E-17
6.220000E+03	4.265483E-16	1.131791E-17
6.230000E+03	4.269008E-16	1.131810E-17
6.240000E+03	4.273087E-16	1.132013E-17
6.250000E+03	4.277270E-16	1.132280E-17
6.260000E+03	4.281032E-16	1.132469E-17
6.270000E+03	4.283796E-16	1.132428E-17
6.280000E+03	4.285160E-16	1.132048E-17
6.290000E+03	4.284496E-16	1.131163E-17
6.300000E+03	4.281473E-16	1.129684E-17
6.310000E+03	4.275655E-16	1.127497E-17
6.320000E+03	4.266767E-16	1.124528E-17
6.330000E+03	4.254544E-16	1.120707E-17
6.340000E+03	4.238989E-16	1.116034E-17
6.350000E+03	4.219992E-16	1.110480E-17
6.360000E+03	4.197712E-16	1.104086E-17
6.370000E+03	4.172314E-16	1.096896E-17
6.380000E+03	4.144032E-16	1.088970E-17
6.390000E+03	4.113247E-16	1.080406E-17
6.400000E+03	4.080248E-16	1.071282E-17
6.410000E+03	4.045475E-16	1.061710E-17
6.420000E+03	4.009329E-16	1.051795E-17
6.430000E+03	3.972158E-16	1.041627E-17
6.440000E+03	3.934295E-16	1.031292E-17
6.450000E+03	3.896164E-16	1.020901E-17
6.460000E+03	3.857994E-16	1.010512E-17
6.470000E+03	3.820100E-16	1.000206E-17
6.480000E+03	3.782639E-16	9.900233E-18
6.490000E+03	3.745846E-16	9.800238E-18
6.500000E+03	3.709803E-16	9.702278E-18
6.510000E+03	3.674634E-16	9.606665E-18
6.520000E+03	3.640319E-16	9.513337E-18
6.530000E+03	3.606967E-16	9.422565E-18
6.540000E+03	3.574545E-16	9.334256E-18
6.550000E+03	3.543008E-16	9.248280E-18
6.560000E+03	3.512293E-16	9.164465E-18
6.570000E+03	3.482400E-16	9.082802E-18
6.580000E+03	3.453244E-16	9.003062E-18
6.590000E+03	3.424769E-16	8.925090E-18
6.600000E+03	3.396879E-16	8.848630E-18
6.610000E+03	3.369512E-16	8.773515E-18
6.620000E+03	3.342605E-16	8.699576E-18
6.630000E+03	3.316097E-16	8.626651E-18
6.640000E+03	3.289934E-16	8.554592E-18
6.650000E+03	3.264066E-16	8.483269E-18
6.660000E+03	3.238455E-16	8.412577E-18
6.670000E+03	3.213073E-16	8.342443E-18
6.680000E+03	3.187867E-16	8.272728E-18
6.690000E+03	3.162869E-16	8.203514E-18
6.700000E+03	3.138120E-16	8.134904E-18
6.710000E+03	3.113604E-16	8.066852E-18
6.720000E+03	3.089306E-16	7.999321E-18
6.730000E+03	3.065330E-16	7.932571E-18
6.740000E+03	3.041719E-16	7.866707E-18
6.750000E+03	3.018485E-16	7.801760E-18
6.760000E+03	2.995688E-16	7.737879E-18
6.770000E+03	2.973428E-16	7.675314E-18
6.780000E+03	2.951743E-16	7.614162E-18
6.790000E+03	2.930779E-16	7.554795E-18
6.800000E+03	2.910554E-16	7.497252E-18
6.810000E+03	2.891188E-16	7.441838E-18
6.820000E+03	2.872804E-16	7.388866E-18
6.830000E+03	2.855429E-16	7.338396E-18
6.840000E+03	2.839186E-16	7.290739E-18
6.850000E+03	2.824196E-16	7.246201E-18
6.860000E+03	2.810511E-16	7.204901E-18
6.870000E+03	2.798209E-16	7.167038E-18
6.880000E+03	2.787370E-16	7.132800E-18
6.890000E+03	2.778103E-16	7.102462E-18
6.900000E+03	2.770444E-16	7.076102E-18
6.910000E+03	2.764455E-16	7.053868E-18
6.920000E+03	2.760218E-16	7.035957E-18
6.930000E+03	2.757741E-16	7.022376E-18
6.940000E+03	2.757082E-16	7.013257E-18
6.950000E+03	2.758218E-16	7.008531E-18
6.960000E+03	2.761144E-16	7.008168E-18
6.970000E+03	2.765865E-16	7.012165E-18
6.980000E+03	2.772336E-16	7.020395E-18
6.990000E+03	2.780423E-16	7.032504E-18
7.000000E+03	2.790140E-16	7.048512E-18
7.010000E+03	2.801286E-16	7.067897E-18
7.020000E+03	2.813817E-16	7.090536E-18
7.030000E+03	2.827618E-16	7.116127E-18
7.040000E+03	2.842506E-16	7.144198E-18
7.050000E+03	2.858444E-16	7.174645E-18
7.060000E+03	2.875300E-16	7.207129E-18
7.070000E+03	2.893020E-16	7.241508E-18
7.080000E+03	2.911498E-16	7.277507E-18
7.090000E+03	2.930666E-16	7.314952E-18
7.100000E+03	2.950466E-16	7.353696E-18
7.110000E+03	2.970845E-16	7.393598E-18
7.120000E+03	2.991751E-16	7.434529E-18
7.130000E+03	3.013167E-16	7.476442E-18
7.140000E+03	3.034960E-16	7.519008E-18
7.150000E+03	3.057140E-16	7.562254E-18
7.160000E+03	3.079556E-16	7.605804E-18
7.170000E+03	3.102158E-16	7.649539E-18
7.180000E+03	3.124882E-16	7.693307E-18
7.190000E+03	3.147535E-16	7.736636E-18
7.200000E+03	3.170015E-16	7.779288E-18
7.210000E+03	3.192170E-16	7.820896E-18
7.220000E+03	3.213819E-16	7.861036E-18
7.230000E+03	3.234724E-16	7.899137E-18
7.240000E+03	3.254744E-16	7.934877E-18
7.250000E+03	3.273555E-16	7.967488E-18
7.260000E+03	3.290936E-16	7.996457E-18
7.270000E+03	3.306568E-16	8.021044E-18
7.280000E+03	3.320252E-16	8.040797E-18
7.290000E+03	3.331617E-16	8.054860E-18
7.300000E+03	3.340432E-16	8.062711E-18
7.310000E+03	3.346435E-16	8.063768E-18
7.320000E+03	3.349359E-16	8.057437E-18
7.330000E+03	3.349106E-16	8.043532E-18
7.340000E+03	3.345415E-16	8.021480E-18
7.350000E+03	3.338347E-16	7.991482E-18
7.360000E+03	3.327853E-16	7.953474E-18
7.370000E+03	3.313953E-16	7.907558E-18
7.380000E+03	3.296813E-16	7.854184E-18
7.390000E+03	3.276572E-16	7.793731E-18
7.400000E+03	3.253503E-16	7.726892E-18
7.410000E+03	3.227866E-16	7.654329E-18
7.420000E+03	3.199871E-16	7.576580E-18
7.430000E+03	3.169909E-16	7.494600E-18
7.440000E+03	3.138212E-16	7.408967E-18
7.450000E+03	3.105133E-16	7.320544E-18
7.460000E+03	3.070974E-16	7.230057E-18
7.470000E+03	3.036062E-16	7.138298E-18
7.480000E+03	3.000624E-16	7.045807E-18
7.490000E+03	2.964906E-16	6.953172E-18
7.500000E+03	2.929165E-16	6.861004E-18
7.510000E+03	2.893555E-16	6.769665E-18
7.520000E+03	2.858245E-16	6.679550E-18
7.530000E+03	2.823413E-16	6.591076E-18
7.540000E+03	2.789134E-16	6.504415E-18
7.550000E+03	2.755533E-16	6.419856E-18
7.560000E+03	2.722597E-16	6.337361E-18
7.570000E+03	2.690437E-16	6.257185E-18
7.580000E+03	2.659026E-16	6.179256E-18
7.590000E+03	2.628355E-16	6.103525E-18
7.600000E+03	2.598398E-16	6.029896E-18
7.610000E+03	2.569116E-16	5.958252E-18
7.620000E+03	2.540465E-16	5.888460E-18
7.630000E+03	2.512371E-16	5.820321E-18
7.640000E+03	2.484880E-16	5.753913E-18
7.650000E+03	2.457964E-16	5.689148E-18
7.660000E+03	2.431637E-16	5.626029E-18
7.670000E+03	2.405988E-16	5.564741E-18
7.680000E+03	2.381072E-16	5.505391E-18
7.690000E+03	2.356936E-16	5.448057E-18
7.700000E+03	2.333612E-16	5.392798E-18
7.710000E+03	2.311088E-16	5.339565E-18
7.720000E+03	2.289406E-16	5.288433E-18
7.730000E+03	2.268566E-16	5.239385E-18
7.740000E+03	2.248560E-16	5.192385E-18
7.750000E+03	2.229376E-16	5.147389E-18
7.760000E+03	2.210972E-16	5.104280E-18
