#wls	flux	fluxerr
1.600000E+03	7.488261E-18	6.611198E-19
1.640000E+03	7.596524E-18	6.680626E-19
1.680000E+03	7.715397E-18	6.757983E-19
1.720000E+03	7.845512E-18	6.843667E-19
1.760000E+03	7.987555E-18	6.938108E-19
1.800000E+03	8.143696E-18	7.043002E-19
1.840000E+03	8.313379E-18	7.157660E-19
1.880000E+03	8.498970E-18	7.283895E-19
1.920000E+03	8.701530E-18	7.422361E-19
1.960000E+03	8.922221E-18	7.573771E-19
2.000000E+03	9.162321E-18	7.738904E-19
2.040000E+03	9.424803E-18	7.919932E-19
2.080000E+03	9.711302E-18	8.117843E-19
2.120000E+03	1.002361E-17	8.333713E-19
2.160000E+03	1.036372E-17	8.568725E-19
2.200000E+03	1.073549E-17	8.825565E-19
2.240000E+03	1.114147E-17	9.105724E-19
2.280000E+03	1.158441E-17	9.410803E-19
2.320000E+03	1.206919E-17	9.744058E-19
2.360000E+03	1.259932E-17	1.010748E-18
2.400000E+03	1.318064E-17	1.050485E-18
2.440000E+03	1.381750E-17	1.093861E-18
2.480000E+03	1.451688E-17	1.141310E-18
2.520000E+03	1.528205E-17	1.192962E-18
2.560000E+03	1.612561E-17	1.249655E-18
2.600000E+03	1.704988E-17	1.311402E-18
2.640000E+03	1.806935E-17	1.379136E-18
2.680000E+03	1.919263E-17	1.453301E-18
2.720000E+03	2.042904E-17	1.534369E-18
2.760000E+03	2.179421E-17	1.623247E-18
2.800000E+03	2.330254E-17	1.720705E-18
2.840000E+03	2.496675E-17	1.827344E-18
2.880000E+03	2.680668E-17	1.944235E-18
2.920000E+03	2.884075E-17	2.072282E-18
2.960000E+03	3.108876E-17	2.212422E-18
3.000000E+03	3.357899E-17	2.366122E-18
3.010000E+03	3.424063E-17	2.406682E-18
3.020000E+03	3.491773E-17	2.448065E-18
3.030000E+03	3.561434E-17	2.490543E-18
3.040000E+03	3.632704E-17	2.533866E-18
3.050000E+03	3.705995E-17	2.578310E-18
3.060000E+03	3.780957E-17	2.623620E-18
3.070000E+03	3.858011E-17	2.670076E-18
3.080000E+03	3.936799E-17	2.717418E-18
3.090000E+03	4.017749E-17	2.765929E-18
3.100000E+03	4.100493E-17	2.815344E-18
3.110000E+03	4.185470E-17	2.865949E-18
3.120000E+03	4.272721E-17	2.917759E-18
3.130000E+03	4.361860E-17	2.970498E-18
3.140000E+03	4.453341E-17	3.024458E-18
3.150000E+03	4.547201E-17	3.079652E-18
3.160000E+03	4.643478E-17	3.136089E-18
3.170000E+03	4.741768E-17	3.193480E-18
3.180000E+03	4.842540E-17	3.252128E-18
3.190000E+03	4.945829E-17	3.312039E-18
3.200000E+03	5.052130E-17	3.373526E-18
3.210000E+03	5.160565E-17	3.435986E-18
3.220000E+03	5.271620E-17	3.499725E-18
3.230000E+03	5.385328E-17	3.564749E-18
3.240000E+03	5.501719E-17	3.631059E-18
3.250000E+03	5.620823E-17	3.698655E-18
3.260000E+03	5.743160E-17	3.767862E-18
3.270000E+03	5.867778E-17	3.838033E-18
3.280000E+03	5.995691E-17	3.909814E-18
3.290000E+03	6.126427E-17	3.982876E-18
3.300000E+03	6.260526E-17	4.057549E-18
3.310000E+03	6.396980E-17	4.133157E-18
3.320000E+03	6.537367E-17	4.210702E-18
3.330000E+03	6.680138E-17	4.289160E-18
3.340000E+03	6.826901E-17	4.369544E-18
3.350000E+03	6.976069E-17	4.450813E-18
3.360000E+03	7.129277E-17	4.533989E-18
3.370000E+03	7.285450E-17	4.618363E-18
3.380000E+03	7.445151E-17	4.704268E-18
3.390000E+03	7.607822E-17	4.791329E-18
3.400000E+03	7.774030E-17	4.879878E-18
3.410000E+03	7.943778E-17	4.969892E-18
3.420000E+03	8.117654E-17	5.061713E-18
3.430000E+03	8.293897E-17	5.154216E-18
3.440000E+03	8.474256E-17	5.248466E-18
3.450000E+03	8.658135E-17	5.344064E-18
3.460000E+03	8.846121E-17	5.441347E-18
3.470000E+03	9.036984E-17	5.539529E-18
3.480000E+03	9.231296E-17	5.638939E-18
3.490000E+03	9.429651E-17	5.739912E-18
3.500000E+03	9.631395E-17	5.842021E-18
3.510000E+03	9.837121E-17	5.945598E-18
3.520000E+03	1.004615E-16	6.050206E-18
3.530000E+03	1.025843E-16	6.155785E-18
3.540000E+03	1.047454E-16	6.262661E-18
3.550000E+03	1.069444E-16	6.370776E-18
3.560000E+03	1.091740E-16	6.479668E-18
3.570000E+03	1.114399E-16	6.589654E-18
3.580000E+03	1.137416E-16	6.700675E-18
3.590000E+03	1.160781E-16	6.812644E-18
3.600000E+03	1.184417E-16	6.925077E-18
3.610000E+03	1.208451E-16	7.038700E-18
3.620000E+03	1.232734E-16	7.152618E-18
3.630000E+03	1.257394E-16	7.267546E-18
3.640000E+03	1.282351E-16	7.382993E-18
3.650000E+03	1.307589E-16	7.498845E-18
3.660000E+03	1.333098E-16	7.615020E-18
3.670000E+03	1.358932E-16	7.731805E-18
3.680000E+03	1.385006E-16	7.848694E-18
3.690000E+03	1.411304E-16	7.965573E-18
3.700000E+03	1.437883E-16	8.082746E-18
3.710000E+03	1.464725E-16	8.200083E-18
3.720000E+03	1.491740E-16	8.317068E-18
3.730000E+03	1.518983E-16	8.433986E-18
3.740000E+03	1.546361E-16	8.550302E-18
3.750000E+03	1.573928E-16	8.666308E-18
3.760000E+03	1.601663E-16	8.781866E-18
3.770000E+03	1.629547E-16	8.896858E-18
3.780000E+03	1.657557E-16	9.011148E-18
3.790000E+03	1.685671E-16	9.124600E-18
3.800000E+03	1.713868E-16	9.237093E-18
3.810000E+03	1.742122E-16	9.348484E-18
3.820000E+03	1.770335E-16	9.458235E-18
3.830000E+03	1.798636E-16	9.567034E-18
3.840000E+03	1.826999E-16	9.674736E-18
3.850000E+03	1.855247E-16	9.780407E-18
3.860000E+03	1.883509E-16	9.884720E-18
3.870000E+03	1.911605E-16	9.986735E-18
3.880000E+03	1.939741E-16	1.008754E-17
3.890000E+03	1.967660E-16	1.018579E-17
3.900000E+03	1.995491E-16	1.028218E-17
3.910000E+03	2.023133E-16	1.037618E-17
3.920000E+03	2.050559E-16	1.046767E-17
3.930000E+03	2.077821E-16	1.055694E-17
3.940000E+03	2.104741E-16	1.064308E-17
3.950000E+03	2.131524E-16	1.072717E-17
3.960000E+03	2.157917E-16	1.080794E-17
3.970000E+03	2.184049E-16	1.088606E-17
3.980000E+03	2.209822E-16	1.096107E-17
3.990000E+03	2.235212E-16	1.103288E-17
4.000000E+03	2.260276E-16	1.110179E-17
4.010000E+03	2.284842E-16	1.116699E-17
4.020000E+03	2.309042E-16	1.122917E-17
4.030000E+03	2.332784E-16	1.128790E-17
4.040000E+03	2.355979E-16	1.134279E-17
4.050000E+03	2.378761E-16	1.139453E-17
4.060000E+03	2.400973E-16	1.144240E-17
4.070000E+03	2.422680E-16	1.148676E-17
4.080000E+03	2.443876E-16	1.152761E-17
4.090000E+03	2.464485E-16	1.156465E-17
4.100000E+03	2.484579E-16	1.159825E-17
4.110000E+03	2.504020E-16	1.162782E-17
4.120000E+03	2.522957E-16	1.165410E-17
4.130000E+03	2.541398E-16	1.167718E-17
4.140000E+03	2.559144E-16	1.169617E-17
4.150000E+03	2.576425E-16	1.171219E-17
4.160000E+03	2.593118E-16	1.172471E-17
4.170000E+03	2.609315E-16	1.173421E-17
4.180000E+03	2.624974E-16	1.174053E-17
4.190000E+03	2.640055E-16	1.174355E-17
4.200000E+03	2.654728E-16	1.174407E-17
4.210000E+03	2.668888E-16	1.174167E-17
4.220000E+03	2.682645E-16	1.173686E-17
4.230000E+03	2.695899E-16	1.172926E-17
4.240000E+03	2.708828E-16	1.171967E-17
4.250000E+03	2.721341E-16	1.170775E-17
4.260000E+03	2.733547E-16	1.169400E-17
4.270000E+03	2.745426E-16	1.167835E-17
4.280000E+03	2.757022E-16	1.166105E-17
4.290000E+03	2.768319E-16	1.164204E-17
4.300000E+03	2.779424E-16	1.162181E-17
4.310000E+03	2.790320E-16	1.160030E-17
4.320000E+03	2.800987E-16	1.157748E-17
4.330000E+03	2.811596E-16	1.155405E-17
4.340000E+03	2.822000E-16	1.152945E-17
4.350000E+03	2.832365E-16	1.150438E-17
4.360000E+03	2.842607E-16	1.147850E-17
4.370000E+03	2.852823E-16	1.145223E-17
4.380000E+03	2.862989E-16	1.142549E-17
4.390000E+03	2.873139E-16	1.139844E-17
4.400000E+03	2.883245E-16	1.137097E-17
4.410000E+03	2.893394E-16	1.134344E-17
4.420000E+03	2.903497E-16	1.131553E-17
4.430000E+03	2.913692E-16	1.128779E-17
4.440000E+03	2.923886E-16	1.125985E-17
4.450000E+03	2.934095E-16	1.123181E-17
4.460000E+03	2.944332E-16	1.120373E-17
4.470000E+03	2.954663E-16	1.117588E-17
4.480000E+03	2.964925E-16	1.114764E-17
4.490000E+03	2.975230E-16	1.111947E-17
4.500000E+03	2.985518E-16	1.109115E-17
4.510000E+03	2.995779E-16	1.106268E-17
4.520000E+03	3.006001E-16	1.103401E-17
4.530000E+03	3.016111E-16	1.100493E-17
4.540000E+03	3.026139E-16	1.097555E-17
4.550000E+03	3.036008E-16	1.094563E-17
4.560000E+03	3.045634E-16	1.091489E-17
4.570000E+03	3.055092E-16	1.088365E-17
4.580000E+03	3.064299E-16	1.085164E-17
4.590000E+03	3.073168E-16	1.081859E-17
4.600000E+03	3.081719E-16	1.078461E-17
4.610000E+03	3.089868E-16	1.074947E-17
4.620000E+03	3.097590E-16	1.071311E-17
4.630000E+03	3.104912E-16	1.067568E-17
4.640000E+03	3.111760E-16	1.063697E-17
4.650000E+03	3.118171E-16	1.059716E-17
4.660000E+03	3.124029E-16	1.055591E-17
4.670000E+03	3.129430E-16	1.051360E-17
4.680000E+03	3.134269E-16	1.046992E-17
4.690000E+03	3.138645E-16	1.042526E-17
4.700000E+03	3.142511E-16	1.037951E-17
4.710000E+03	3.145819E-16	1.033256E-17
4.720000E+03	3.148676E-16	1.028482E-17
4.730000E+03	3.151034E-16	1.023619E-17
4.740000E+03	3.152949E-16	1.018687E-17
4.750000E+03	3.154322E-16	1.013661E-17
4.760000E+03	3.155255E-16	1.008578E-17
4.770000E+03	3.155696E-16	1.003426E-17
4.780000E+03	3.155693E-16	9.982241E-18
4.790000E+03	3.155189E-16	9.929588E-18
4.800000E+03	3.154178E-16	9.876323E-18
4.810000E+03	3.152747E-16	9.822760E-18
4.820000E+03	3.150789E-16	9.768605E-18
4.830000E+03	3.148336E-16	9.714000E-18
4.840000E+03	3.145376E-16	9.658944E-18
4.850000E+03	3.141895E-16	9.603430E-18
4.860000E+03	3.137930E-16	9.547607E-18
4.870000E+03	3.133430E-16	9.491329E-18
4.880000E+03	3.128397E-16	9.434602E-18
4.890000E+03	3.122883E-16	9.377576E-18
4.900000E+03	3.116946E-16	9.320408E-18
4.910000E+03	3.110455E-16	9.262702E-18
4.920000E+03	3.103608E-16	9.205035E-18
4.930000E+03	3.096284E-16	9.147029E-18
4.940000E+03	3.088587E-16	9.088982E-18
4.950000E+03	3.080492E-16	9.030798E-18
4.960000E+03	3.072059E-16	8.972638E-18
4.970000E+03	3.063262E-16	8.914406E-18
4.980000E+03	3.054208E-16	8.856390E-18
4.990000E+03	3.044871E-16	8.798495E-18
5.000000E+03	3.035226E-16	8.740625E-18
5.010000E+03	3.025424E-16	8.683194E-18
5.020000E+03	3.015355E-16	8.625857E-18
5.030000E+03	3.005131E-16	8.568913E-18
5.040000E+03	2.994775E-16	8.512401E-18
5.050000E+03	2.984317E-16	8.456376E-18
5.060000E+03	2.973743E-16	8.400778E-18
5.070000E+03	2.963129E-16	8.345789E-18
5.080000E+03	2.952550E-16	8.291591E-18
5.090000E+03	2.941957E-16	8.238023E-18
5.100000E+03	2.931466E-16	8.185379E-18
5.110000E+03	2.921071E-16	8.133611E-18
5.120000E+03	2.910804E-16	8.082777E-18
5.130000E+03	2.900693E-16	8.032931E-18
5.140000E+03	2.890804E-16	7.984222E-18
5.150000E+03	2.881119E-16	7.936571E-18
5.160000E+03	2.871654E-16	7.889994E-18
5.170000E+03	2.862462E-16	7.844608E-18
5.180000E+03	2.853549E-16	7.800402E-18
5.190000E+03	2.844881E-16	7.757250E-18
5.200000E+03	2.836455E-16	7.715123E-18
5.210000E+03	2.828268E-16	7.673984E-18
5.220000E+03	2.820350E-16	7.633889E-18
5.230000E+03	2.812690E-16	7.594785E-18
5.240000E+03	2.805196E-16	7.556396E-18
5.250000E+03	2.797928E-16	7.518865E-18
5.260000E+03	2.790829E-16	7.482015E-18
5.270000E+03	2.783876E-16	7.445766E-18
5.280000E+03	2.777088E-16	7.410149E-18
5.290000E+03	2.770366E-16	7.374877E-18
5.300000E+03	2.763727E-16	7.339982E-18
5.310000E+03	2.757150E-16	7.305392E-18
5.320000E+03	2.750617E-16	7.271040E-18
5.330000E+03	2.744112E-16	7.236872E-18
5.340000E+03	2.737619E-16	7.202834E-18
5.350000E+03	2.731092E-16	7.168786E-18
5.360000E+03	2.724559E-16	7.134794E-18
5.370000E+03	2.717979E-16	7.100740E-18
5.380000E+03	2.711391E-16	7.066711E-18
5.390000E+03	2.704755E-16	7.032596E-18
5.400000E+03	2.698075E-16	6.998391E-18
5.410000E+03	2.691380E-16	6.964164E-18
5.420000E+03	2.684608E-16	6.929731E-18
5.430000E+03	2.677677E-16	6.894879E-18
5.440000E+03	2.670496E-16	6.859360E-18
5.450000E+03	2.663009E-16	6.823024E-18
5.460000E+03	2.655094E-16	6.785552E-18
5.470000E+03	2.646635E-16	6.746650E-18
5.480000E+03	2.637632E-16	6.706315E-18
5.490000E+03	2.628025E-16	6.664397E-18
5.500000E+03	2.617690E-16	6.620587E-18
5.510000E+03	2.606659E-16	6.574972E-18
5.520000E+03	2.594867E-16	6.527397E-18
5.530000E+03	2.582339E-16	6.477930E-18
5.540000E+03	2.569002E-16	6.426402E-18
5.550000E+03	2.554979E-16	6.373133E-18
5.560000E+03	2.540232E-16	6.318035E-18
5.570000E+03	2.524845E-16	6.261331E-18
5.580000E+03	2.508851E-16	6.203117E-18
5.590000E+03	2.492399E-16	6.143769E-18
5.600000E+03	2.475519E-16	6.083373E-18
5.610000E+03	2.458390E-16	6.022376E-18
5.620000E+03	2.441098E-16	5.960996E-18
5.630000E+03	2.423776E-16	5.899560E-18
5.640000E+03	2.406592E-16	5.838478E-18
5.650000E+03	2.389654E-16	5.778011E-18
5.660000E+03	2.373134E-16	5.718574E-18
5.670000E+03	2.357170E-16	5.660488E-18
5.680000E+03	2.341900E-16	5.604070E-18
5.690000E+03	2.327448E-16	5.549611E-18
5.700000E+03	2.313970E-16	5.497457E-18
5.710000E+03	2.301513E-16	5.447703E-18
5.720000E+03	2.290239E-16	5.400706E-18
5.730000E+03	2.280237E-16	5.356649E-18
5.740000E+03	2.271548E-16	5.315599E-18
5.750000E+03	2.264260E-16	5.277732E-18
5.760000E+03	2.258416E-16	5.243111E-18
5.770000E+03	2.254042E-16	5.211760E-18
5.780000E+03	2.251145E-16	5.183661E-18
5.790000E+03	2.249718E-16	5.158759E-18
5.800000E+03	2.249733E-16	5.136953E-18
5.810000E+03	2.251149E-16	5.118113E-18
5.820000E+03	2.253908E-16	5.102069E-18
5.830000E+03	2.257967E-16	5.088693E-18
5.840000E+03	2.263210E-16	5.077688E-18
5.850000E+03	2.269536E-16	5.068800E-18
5.860000E+03	2.276871E-16	5.061835E-18
5.870000E+03	2.285066E-16	5.056441E-18
5.880000E+03	2.294032E-16	5.052401E-18
5.890000E+03	2.303620E-16	5.049370E-18
5.900000E+03	2.313708E-16	5.047072E-18
5.910000E+03	2.324216E-16	5.045325E-18
5.920000E+03	2.335007E-16	5.043828E-18
5.930000E+03	2.345990E-16	5.042385E-18
5.940000E+03	2.357118E-16	5.040903E-18
5.950000E+03	2.368298E-16	5.039187E-18
5.960000E+03	2.379521E-16	5.037230E-18
5.970000E+03	2.390697E-16	5.034853E-18
5.980000E+03	2.401889E-16	5.032206E-18
5.990000E+03	2.413084E-16	5.029271E-18
6.000000E+03	2.424319E-16	5.026144E-18
6.010000E+03	2.435650E-16	5.022954E-18
6.020000E+03	2.447152E-16	5.019869E-18
6.030000E+03	2.458948E-16	5.017150E-18
6.040000E+03	2.471068E-16	5.014872E-18
6.050000E+03	2.483622E-16	5.013263E-18
6.060000E+03	2.496796E-16	5.012702E-18
6.070000E+03	2.510670E-16	5.013356E-18
6.080000E+03	2.525323E-16	5.015377E-18
6.090000E+03	2.540862E-16	5.018977E-18
6.100000E+03	2.557458E-16	5.024491E-18
6.110000E+03	2.575127E-16	5.031940E-18
6.120000E+03	2.593934E-16	5.041448E-18
6.130000E+03	2.613971E-16	5.053183E-18
6.140000E+03	2.635226E-16	5.067118E-18
6.150000E+03	2.657706E-16	5.083259E-18
6.160000E+03	2.681423E-16	5.101628E-18
6.170000E+03	2.706283E-16	5.122047E-18
6.180000E+03	2.732238E-16	5.144427E-18
6.190000E+03	2.759083E-16	5.168394E-18
6.200000E+03	2.786737E-16	5.193813E-18
6.210000E+03	2.814997E-16	5.220327E-18
6.220000E+03	2.843720E-16	5.247694E-18
6.230000E+03	2.872737E-16	5.275604E-18
6.240000E+03	2.901843E-16	5.303684E-18
6.250000E+03	2.930838E-16	5.331578E-18
6.260000E+03	2.959363E-16	5.358647E-18
6.270000E+03	2.987202E-16	5.384522E-18
6.280000E+03	3.013992E-16	5.408578E-18
6.290000E+03	3.039405E-16	5.430262E-18
6.300000E+03	3.063117E-16	5.449038E-18
6.310000E+03	3.084814E-16	5.464399E-18
6.320000E+03	3.104258E-16	5.475974E-18
6.330000E+03	3.121151E-16	5.483300E-18
6.340000E+03	3.135285E-16	5.486072E-18
6.350000E+03	3.146501E-16	5.484077E-18
6.360000E+03	3.154738E-16	5.477272E-18
6.370000E+03	3.159897E-16	5.465553E-18
6.380000E+03	3.161976E-16	5.448978E-18
6.390000E+03	3.161071E-16	5.427775E-18
6.400000E+03	3.157271E-16	5.402154E-18
6.410000E+03	3.150656E-16	5.372305E-18
6.420000E+03	3.141427E-16	5.338621E-18
6.430000E+03	3.129759E-16	5.301444E-18
6.440000E+03	3.115789E-16	5.261047E-18
6.450000E+03	3.099754E-16	5.217867E-18
6.460000E+03	3.081843E-16	5.172252E-18
6.470000E+03	3.062242E-16	5.124542E-18
6.480000E+03	3.041169E-16	5.075126E-18
6.490000E+03	3.018701E-16	5.024150E-18
6.500000E+03	2.995083E-16	4.972043E-18
6.510000E+03	2.970412E-16	4.918978E-18
6.520000E+03	2.944868E-16	4.865263E-18
6.530000E+03	2.918523E-16	4.811029E-18
6.540000E+03	2.891535E-16	4.756542E-18
6.550000E+03	2.863999E-16	4.701964E-18
6.560000E+03	2.835960E-16	4.647375E-18
6.570000E+03	2.807587E-16	4.593053E-18
6.580000E+03	2.778864E-16	4.538971E-18
6.590000E+03	2.749942E-16	4.485379E-18
6.600000E+03	2.720841E-16	4.432308E-18
6.610000E+03	2.691617E-16	4.379847E-18
6.620000E+03	2.662367E-16	4.328150E-18
6.630000E+03	2.633139E-16	4.277293E-18
6.640000E+03	2.603944E-16	4.227289E-18
6.650000E+03	2.574869E-16	4.178275E-18
6.660000E+03	2.545961E-16	4.130320E-18
6.670000E+03	2.517261E-16	4.083486E-18
6.680000E+03	2.488812E-16	4.037833E-18
6.690000E+03	2.460650E-16	3.993414E-18
6.700000E+03	2.432846E-16	3.950336E-18
6.710000E+03	2.405391E-16	3.908577E-18
6.720000E+03	2.378305E-16	3.868152E-18
6.730000E+03	2.351638E-16	3.829103E-18
6.740000E+03	2.325399E-16	3.791390E-18
6.750000E+03	2.299544E-16	3.754894E-18
6.760000E+03	2.274136E-16	3.719668E-18
6.770000E+03	2.249080E-16	3.685513E-18
6.780000E+03	2.224383E-16	3.652394E-18
6.790000E+03	2.200041E-16	3.620262E-18
6.800000E+03	2.175933E-16	3.588878E-18
6.810000E+03	2.152071E-16	3.558222E-18
6.820000E+03	2.128352E-16	3.528084E-18
6.830000E+03	2.104700E-16	3.498301E-18
6.840000E+03	2.081067E-16	3.468755E-18
6.850000E+03	2.057340E-16	3.439222E-18
6.860000E+03	2.033456E-16	3.409560E-18
6.870000E+03	2.009431E-16	3.379762E-18
6.880000E+03	1.985358E-16	3.349950E-18
6.890000E+03	1.961556E-16	3.320633E-18
6.900000E+03	1.938346E-16	3.292335E-18
6.910000E+03	1.916007E-16	3.265512E-18
6.920000E+03	1.894817E-16	3.240633E-18
6.930000E+03	1.875044E-16	3.218155E-18
6.940000E+03	1.856884E-16	3.198421E-18
6.950000E+03	1.840488E-16	3.181703E-18
6.960000E+03	1.825908E-16	3.168109E-18
6.970000E+03	1.813314E-16	3.157955E-18
6.980000E+03	1.802699E-16	3.151252E-18
6.990000E+03	1.794088E-16	3.148072E-18
7.000000E+03	1.787522E-16	3.148517E-18
7.010000E+03	1.782992E-16	3.152606E-18
7.020000E+03	1.780452E-16	3.160289E-18
7.030000E+03	1.779875E-16	3.171553E-18
7.040000E+03	1.781228E-16	3.186375E-18
7.050000E+03	1.784501E-16	3.204776E-18
7.060000E+03	1.789622E-16	3.226663E-18
7.070000E+03	1.796570E-16	3.252036E-18
7.080000E+03	1.805233E-16	3.280733E-18
7.090000E+03	1.815581E-16	3.312735E-18
7.100000E+03	1.827549E-16	3.347965E-18
7.110000E+03	1.841097E-16	3.386385E-18
7.120000E+03	1.856050E-16	3.427716E-18
7.130000E+03	1.872413E-16	3.472003E-18
7.140000E+03	1.890020E-16	3.518976E-18
7.150000E+03	1.908792E-16	3.568524E-18
7.160000E+03	1.928571E-16	3.620386E-18
7.170000E+03	1.949246E-16	3.674390E-18
7.180000E+03	1.970631E-16	3.730215E-18
7.190000E+03	1.992552E-16	3.787562E-18
7.200000E+03	2.014788E-16	3.846036E-18
7.210000E+03	2.037198E-16	3.905393E-18
7.220000E+03	2.059528E-16	3.965164E-18
7.230000E+03	2.081503E-16	4.024834E-18
7.240000E+03	2.102905E-16	4.083991E-18
7.250000E+03	2.123468E-16	4.142127E-18
7.260000E+03	2.142881E-16	4.198629E-18
7.270000E+03	2.160868E-16	4.252946E-18
7.280000E+03	2.177148E-16	4.304513E-18
7.290000E+03	2.191452E-16	4.352771E-18
7.300000E+03	2.203560E-16	4.397254E-18
7.310000E+03	2.213164E-16	4.437304E-18
7.320000E+03	2.220094E-16	4.472536E-18
7.330000E+03	2.224142E-16	4.502474E-18
7.340000E+03	2.225217E-16	4.526871E-18
7.350000E+03	2.223234E-16	4.545485E-18
7.360000E+03	2.218122E-16	4.558099E-18
7.370000E+03	2.209893E-16	4.564659E-18
7.380000E+03	2.198654E-16	4.565301E-18
7.390000E+03	2.184476E-16	4.560092E-18
7.400000E+03	2.167513E-16	4.549270E-18
7.410000E+03	2.147923E-16	4.533081E-18
7.420000E+03	2.126004E-16	4.512075E-18
7.430000E+03	2.101966E-16	4.486621E-18
7.440000E+03	2.076079E-16	4.457221E-18
7.450000E+03	2.048582E-16	4.424325E-18
7.460000E+03	2.019830E-16	4.388634E-18
7.470000E+03	1.990032E-16	4.350552E-18
7.480000E+03	1.959494E-16	4.310703E-18
7.490000E+03	1.928477E-16	4.269621E-18
7.500000E+03	1.897192E-16	4.227744E-18
7.510000E+03	1.865896E-16	4.185625E-18
7.520000E+03	1.834796E-16	4.143709E-18
7.530000E+03	1.804070E-16	4.102400E-18
7.540000E+03	1.773845E-16	4.061983E-18
7.550000E+03	1.744287E-16	4.022848E-18
7.560000E+03	1.715507E-16	3.985251E-18
7.570000E+03	1.687559E-16	3.949317E-18
7.580000E+03	1.660568E-16	3.915335E-18
7.590000E+03	1.634520E-16	3.883273E-18
7.600000E+03	1.609437E-16	3.853195E-18
7.610000E+03	1.585383E-16	3.825267E-18
7.620000E+03	1.562295E-16	3.799348E-18
7.630000E+03	1.540180E-16	3.775478E-18
7.640000E+03	1.519012E-16	3.753611E-18
7.650000E+03	1.498774E-16	3.733726E-18
7.660000E+03	1.479463E-16	3.715839E-18
7.670000E+03	1.461050E-16	3.699900E-18
7.680000E+03	1.443551E-16	3.685975E-18
7.690000E+03	1.426947E-16	3.674045E-18
7.700000E+03	1.411214E-16	3.664080E-18
7.710000E+03	1.396320E-16	3.656028E-18
7.720000E+03	1.382230E-16	3.649821E-18
7.730000E+03	1.368877E-16	3.645317E-18
7.740000E+03	1.356243E-16	3.642492E-18
7.750000E+03	1.344281E-16	3.641249E-18
7.760000E+03	1.332946E-16	3.641490E-18
