#wls	flux	fluxerr
1.600000E+03	6.799589E-18	4.211684E-19
1.640000E+03	6.879041E-18	4.253599E-19
1.680000E+03	6.966303E-18	4.299978E-19
1.720000E+03	7.064346E-18	4.352613E-19
1.760000E+03	7.172494E-18	4.411042E-19
1.800000E+03	7.291347E-18	4.475584E-19
1.840000E+03	7.422862E-18	4.547385E-19
1.880000E+03	7.567817E-18	4.626860E-19
1.920000E+03	7.727065E-18	4.714462E-19
1.960000E+03	7.901547E-18	4.810688E-19
2.000000E+03	8.093673E-18	4.916923E-19
2.040000E+03	8.303251E-18	5.032958E-19
2.080000E+03	8.532965E-18	5.160316E-19
2.120000E+03	8.784280E-18	5.299770E-19
2.160000E+03	9.060296E-18	5.453062E-19
2.200000E+03	9.361369E-18	5.620262E-19
2.240000E+03	9.692577E-18	5.804262E-19
2.280000E+03	1.005471E-17	6.005350E-19
2.320000E+03	1.045192E-17	6.225812E-19
2.360000E+03	1.088879E-17	6.468146E-19
2.400000E+03	1.136693E-17	6.733054E-19
2.440000E+03	1.189343E-17	7.024452E-19
2.480000E+03	1.247067E-17	7.343418E-19
2.520000E+03	1.310687E-17	7.694441E-19
2.560000E+03	1.380929E-17	8.081358E-19
2.600000E+03	1.458186E-17	8.506002E-19
2.640000E+03	1.543302E-17	8.972777E-19
2.680000E+03	1.637651E-17	9.489071E-19
2.720000E+03	1.741633E-17	1.005651E-18
2.760000E+03	1.856835E-17	1.068350E-18
2.800000E+03	1.984291E-17	1.137511E-18
2.840000E+03	2.125892E-17	1.214118E-18
2.880000E+03	2.282398E-17	1.298492E-18
2.920000E+03	2.456529E-17	1.392053E-18
2.960000E+03	2.649571E-17	1.495382E-18
3.000000E+03	2.863762E-17	1.609577E-18
3.010000E+03	2.921123E-17	1.640089E-18
3.020000E+03	2.979851E-17	1.671290E-18
3.030000E+03	3.039974E-17	1.703194E-18
3.040000E+03	3.101839E-17	1.735991E-18
3.050000E+03	3.165481E-17	1.769698E-18
3.060000E+03	3.230607E-17	1.804147E-18
3.070000E+03	3.297578E-17	1.839536E-18
3.080000E+03	3.366428E-17	1.875880E-18
3.090000E+03	3.436854E-17	1.913006E-18
3.100000E+03	3.509227E-17	1.951117E-18
3.110000E+03	3.583583E-17	1.990228E-18
3.120000E+03	3.659606E-17	2.030160E-18
3.130000E+03	3.738035E-17	2.071320E-18
3.140000E+03	3.818196E-17	2.113327E-18
3.150000E+03	3.900478E-17	2.156392E-18
3.160000E+03	3.985291E-17	2.200739E-18
3.170000E+03	4.071929E-17	2.245972E-18
3.180000E+03	4.160796E-17	2.292307E-18
3.190000E+03	4.252312E-17	2.339973E-18
3.200000E+03	4.345743E-17	2.388560E-18
3.210000E+03	4.441900E-17	2.438506E-18
3.220000E+03	4.540430E-17	2.489614E-18
3.230000E+03	4.641363E-17	2.541894E-18
3.240000E+03	4.745140E-17	2.595581E-18
3.250000E+03	4.851390E-17	2.650466E-18
3.260000E+03	4.960142E-17	2.706559E-18
3.270000E+03	5.071845E-17	2.764098E-18
3.280000E+03	5.186541E-17	2.823099E-18
3.290000E+03	5.303834E-17	2.883340E-18
3.300000E+03	5.423746E-17	2.944826E-18
3.310000E+03	5.546740E-17	3.007802E-18
3.320000E+03	5.672850E-17	3.072278E-18
3.330000E+03	5.802107E-17	3.138264E-18
3.340000E+03	5.934540E-17	3.205766E-18
3.350000E+03	6.069710E-17	3.274542E-18
3.360000E+03	6.208564E-17	3.345094E-18
3.370000E+03	6.350190E-17	3.416922E-18
3.380000E+03	6.495549E-17	3.490534E-18
3.390000E+03	6.643701E-17	3.565418E-18
3.400000E+03	6.795622E-17	3.642089E-18
3.410000E+03	6.950840E-17	3.720284E-18
3.420000E+03	7.109859E-17	3.800265E-18
3.430000E+03	7.272188E-17	3.881759E-18
3.440000E+03	7.437823E-17	3.964756E-18
3.450000E+03	7.607271E-17	4.049516E-18
3.460000E+03	7.780012E-17	4.135754E-18
3.470000E+03	7.956554E-17	4.223729E-18
3.480000E+03	8.136888E-17	4.313427E-18
3.490000E+03	8.321002E-17	4.404832E-18
3.500000E+03	8.508333E-17	4.497634E-18
3.510000E+03	8.699387E-17	4.592093E-18
3.520000E+03	8.894685E-17	4.688473E-18
3.530000E+03	9.093091E-17	4.786165E-18
3.540000E+03	9.295669E-17	4.885717E-18
3.550000E+03	9.501814E-17	4.986802E-18
3.560000E+03	9.711471E-17	5.089381E-18
3.570000E+03	9.925148E-17	5.193707E-18
3.580000E+03	1.014221E-16	5.299443E-18
3.590000E+03	1.036257E-16	5.406526E-18
3.600000E+03	1.058673E-16	5.515211E-18
3.610000E+03	1.081463E-16	5.625453E-18
3.620000E+03	1.104613E-16	5.737178E-18
3.630000E+03	1.128058E-16	5.850025E-18
3.640000E+03	1.151905E-16	5.964548E-18
3.650000E+03	1.176021E-16	6.080046E-18
3.660000E+03	1.200516E-16	6.197073E-18
3.670000E+03	1.225255E-16	6.314926E-18
3.680000E+03	1.250346E-16	6.434151E-18
3.690000E+03	1.275774E-16	6.554662E-18
3.700000E+03	1.301464E-16	6.676060E-18
3.710000E+03	1.327396E-16	6.798240E-18
3.720000E+03	1.353618E-16	6.921432E-18
3.730000E+03	1.380048E-16	7.045208E-18
3.740000E+03	1.406730E-16	7.169793E-18
3.750000E+03	1.433646E-16	7.295079E-18
3.760000E+03	1.460776E-16	7.420956E-18
3.770000E+03	1.488098E-16	7.547308E-18
3.780000E+03	1.515592E-16	7.674022E-18
3.790000E+03	1.543233E-16	7.800971E-18
3.800000E+03	1.571000E-16	7.928035E-18
3.810000E+03	1.598868E-16	8.055094E-18
3.820000E+03	1.626880E-16	8.182346E-18
3.830000E+03	1.654945E-16	8.309334E-18
3.840000E+03	1.683104E-16	8.436256E-18
3.850000E+03	1.711197E-16	8.562315E-18
3.860000E+03	1.739400E-16	8.688382E-18
3.870000E+03	1.767552E-16	8.813649E-18
3.880000E+03	1.795693E-16	8.938318E-18
3.890000E+03	1.823730E-16	9.061918E-18
3.900000E+03	1.851703E-16	9.184656E-18
3.910000E+03	1.879585E-16	9.306393E-18
3.920000E+03	1.907350E-16	9.426996E-18
3.930000E+03	1.934904E-16	9.546010E-18
3.940000E+03	1.962288E-16	9.663638E-18
3.950000E+03	1.989475E-16	9.779750E-18
3.960000E+03	2.016441E-16	9.894230E-18
3.970000E+03	2.043161E-16	1.000696E-17
3.980000E+03	2.069545E-16	1.011749E-17
3.990000E+03	2.095635E-16	1.022606E-17
4.000000E+03	2.121412E-16	1.033256E-17
4.010000E+03	2.146853E-16	1.043690E-17
4.020000E+03	2.171939E-16	1.053899E-17
4.030000E+03	2.196588E-16	1.063844E-17
4.040000E+03	2.220849E-16	1.073549E-17
4.050000E+03	2.244643E-16	1.082978E-17
4.060000E+03	2.267959E-16	1.092126E-17
4.070000E+03	2.290853E-16	1.101021E-17
4.080000E+03	2.313316E-16	1.109660E-17
4.090000E+03	2.335216E-16	1.117981E-17
4.100000E+03	2.356615E-16	1.126015E-17
4.110000E+03	2.377516E-16	1.133765E-17
4.120000E+03	2.397920E-16	1.141232E-17
4.130000E+03	2.417772E-16	1.148392E-17
4.140000E+03	2.437147E-16	1.155281E-17
4.150000E+03	2.455990E-16	1.161875E-17
4.160000E+03	2.474261E-16	1.168157E-17
4.170000E+03	2.492097E-16	1.174192E-17
4.180000E+03	2.509399E-16	1.179934E-17
4.190000E+03	2.526191E-16	1.185398E-17
4.200000E+03	2.542441E-16	1.190569E-17
4.210000E+03	2.558296E-16	1.195517E-17
4.220000E+03	2.573669E-16	1.200203E-17
4.230000E+03	2.588594E-16	1.204644E-17
4.240000E+03	2.603106E-16	1.208858E-17
4.250000E+03	2.617184E-16	1.212835E-17
4.260000E+03	2.630867E-16	1.216596E-17
4.270000E+03	2.644138E-16	1.220134E-17
4.280000E+03	2.657094E-16	1.223494E-17
4.290000E+03	2.669718E-16	1.226669E-17
4.300000E+03	2.682053E-16	1.229681E-17
4.310000E+03	2.694030E-16	1.232498E-17
4.320000E+03	2.705797E-16	1.235190E-17
4.330000E+03	2.717235E-16	1.237702E-17
4.340000E+03	2.728490E-16	1.240102E-17
4.350000E+03	2.739494E-16	1.242359E-17
4.360000E+03	2.750287E-16	1.244493E-17
4.370000E+03	2.760903E-16	1.246520E-17
4.380000E+03	2.771326E-16	1.248433E-17
4.390000E+03	2.781589E-16	1.250247E-17
4.400000E+03	2.791673E-16	1.251954E-17
4.410000E+03	2.801606E-16	1.253568E-17
4.420000E+03	2.811415E-16	1.255101E-17
4.430000E+03	2.821073E-16	1.256541E-17
4.440000E+03	2.830652E-16	1.257921E-17
4.450000E+03	2.840023E-16	1.259184E-17
4.460000E+03	2.849297E-16	1.260381E-17
4.470000E+03	2.858440E-16	1.261495E-17
4.480000E+03	2.867459E-16	1.262531E-17
4.490000E+03	2.876265E-16	1.263451E-17
4.500000E+03	2.884956E-16	1.264297E-17
4.510000E+03	2.893484E-16	1.265049E-17
4.520000E+03	2.901797E-16	1.265686E-17
4.530000E+03	2.909889E-16	1.266205E-17
4.540000E+03	2.917798E-16	1.266623E-17
4.550000E+03	2.925421E-16	1.266898E-17
4.560000E+03	2.932790E-16	1.267042E-17
4.570000E+03	2.939891E-16	1.267053E-17
4.580000E+03	2.946663E-16	1.266903E-17
4.590000E+03	2.953090E-16	1.266587E-17
4.600000E+03	2.959157E-16	1.266101E-17
4.610000E+03	2.964894E-16	1.265458E-17
4.620000E+03	2.970242E-16	1.264635E-17
4.630000E+03	2.975143E-16	1.263608E-17
4.640000E+03	2.979676E-16	1.262411E-17
4.650000E+03	2.983743E-16	1.261005E-17
4.660000E+03	2.987381E-16	1.259408E-17
4.670000E+03	2.990584E-16	1.257618E-17
4.680000E+03	2.993350E-16	1.255636E-17
4.690000E+03	2.995635E-16	1.253444E-17
4.700000E+03	2.997524E-16	1.251081E-17
4.710000E+03	2.998934E-16	1.248513E-17
4.720000E+03	2.999952E-16	1.245777E-17
4.730000E+03	3.000498E-16	1.242843E-17
4.740000E+03	3.000661E-16	1.239748E-17
4.750000E+03	3.000403E-16	1.236479E-17
4.760000E+03	2.999727E-16	1.233037E-17
4.770000E+03	2.998641E-16	1.229428E-17
4.780000E+03	2.997227E-16	1.225688E-17
4.790000E+03	2.995409E-16	1.221785E-17
4.800000E+03	2.993229E-16	1.217739E-17
4.810000E+03	2.990688E-16	1.213551E-17
4.820000E+03	2.987787E-16	1.209223E-17
4.830000E+03	2.984565E-16	1.204773E-17
4.840000E+03	2.980982E-16	1.200184E-17
4.850000E+03	2.977076E-16	1.195475E-17
4.860000E+03	2.972885E-16	1.190661E-17
4.870000E+03	2.968330E-16	1.185712E-17
4.880000E+03	2.963488E-16	1.180659E-17
4.890000E+03	2.958359E-16	1.175503E-17
4.900000E+03	2.952944E-16	1.170246E-17
4.910000E+03	2.947243E-16	1.164888E-17
4.920000E+03	2.941296E-16	1.159445E-17
4.930000E+03	2.935067E-16	1.153905E-17
4.940000E+03	2.928597E-16	1.148284E-17
4.950000E+03	2.921929E-16	1.142600E-17
4.960000E+03	2.914992E-16	1.136825E-17
4.970000E+03	2.907904E-16	1.131006E-17
4.980000E+03	2.900598E-16	1.125118E-17
4.990000E+03	2.893119E-16	1.119178E-17
5.000000E+03	2.885479E-16	1.113192E-17
5.010000E+03	2.877724E-16	1.107178E-17
5.020000E+03	2.869830E-16	1.101126E-17
5.030000E+03	2.861885E-16	1.095071E-17
5.040000E+03	2.853829E-16	1.088990E-17
5.050000E+03	2.845717E-16	1.082905E-17
5.060000E+03	2.837565E-16	1.076820E-17
5.070000E+03	2.829428E-16	1.070759E-17
5.080000E+03	2.821323E-16	1.064726E-17
5.090000E+03	2.813233E-16	1.058715E-17
5.100000E+03	2.805177E-16	1.052733E-17
5.110000E+03	2.797243E-16	1.046813E-17
5.120000E+03	2.789379E-16	1.040935E-17
5.130000E+03	2.781667E-16	1.035130E-17
5.140000E+03	2.774053E-16	1.029377E-17
5.150000E+03	2.766584E-16	1.023692E-17
5.160000E+03	2.759303E-16	1.018092E-17
5.170000E+03	2.752147E-16	1.012553E-17
5.180000E+03	2.745192E-16	1.007101E-17
5.190000E+03	2.738403E-16	1.001724E-17
5.200000E+03	2.731748E-16	9.964088E-18
5.210000E+03	2.725290E-16	9.911790E-18
5.220000E+03	2.718960E-16	9.860084E-18
5.230000E+03	2.712816E-16	9.809175E-18
5.240000E+03	2.706786E-16	9.758799E-18
5.250000E+03	2.700858E-16	9.708909E-18
5.260000E+03	2.695091E-16	9.659711E-18
5.270000E+03	2.689372E-16	9.610801E-18
5.280000E+03	2.683758E-16	9.562381E-18
5.290000E+03	2.678206E-16	9.514290E-18
5.300000E+03	2.672737E-16	9.466606E-18
5.310000E+03	2.667278E-16	9.419069E-18
5.320000E+03	2.661822E-16	9.371648E-18
5.330000E+03	2.656428E-16	9.324557E-18
5.340000E+03	2.650996E-16	9.277444E-18
5.350000E+03	2.645588E-16	9.230526E-18
5.360000E+03	2.640175E-16	9.183699E-18
5.370000E+03	2.634758E-16	9.136975E-18
5.380000E+03	2.629308E-16	9.090248E-18
5.390000E+03	2.623893E-16	9.043757E-18
5.400000E+03	2.618416E-16	8.997165E-18
5.410000E+03	2.612928E-16	8.950655E-18
5.420000E+03	2.607372E-16	8.904027E-18
5.430000E+03	2.601698E-16	8.857114E-18
5.440000E+03	2.595845E-16	8.809710E-18
5.450000E+03	2.589746E-16	8.761594E-18
5.460000E+03	2.583333E-16	8.712548E-18
5.470000E+03	2.576515E-16	8.662271E-18
5.480000E+03	2.569296E-16	8.610793E-18
5.490000E+03	2.561568E-16	8.557760E-18
5.500000E+03	2.553323E-16	8.503164E-18
5.510000E+03	2.544531E-16	8.446923E-18
5.520000E+03	2.535173E-16	8.388992E-18
5.530000E+03	2.525245E-16	8.329370E-18
5.540000E+03	2.514779E-16	8.268189E-18
5.550000E+03	2.503763E-16	8.205419E-18
5.560000E+03	2.492224E-16	8.141169E-18
5.570000E+03	2.480230E-16	8.075682E-18
5.580000E+03	2.467834E-16	8.009135E-18
5.590000E+03	2.455125E-16	7.941836E-18
5.600000E+03	2.442111E-16	7.873822E-18
5.610000E+03	2.428962E-16	7.805643E-18
5.620000E+03	2.415701E-16	7.737385E-18
5.630000E+03	2.402450E-16	7.669437E-18
5.640000E+03	2.389301E-16	7.602093E-18
5.650000E+03	2.376381E-16	7.535753E-18
5.660000E+03	2.363756E-16	7.470621E-18
5.670000E+03	2.351553E-16	7.407088E-18
5.680000E+03	2.339893E-16	7.345520E-18
5.690000E+03	2.328837E-16	7.286091E-18
5.700000E+03	2.318470E-16	7.229051E-18
5.710000E+03	2.308897E-16	7.174703E-18
5.720000E+03	2.300188E-16	7.123242E-18
5.730000E+03	2.292406E-16	7.074834E-18
5.740000E+03	2.285601E-16	7.029606E-18
5.750000E+03	2.279841E-16	6.987739E-18
5.760000E+03	2.275134E-16	6.949220E-18
5.770000E+03	2.271495E-16	6.914068E-18
5.780000E+03	2.268964E-16	6.882370E-18
5.790000E+03	2.267565E-16	6.854164E-18
5.800000E+03	2.267201E-16	6.829128E-18
5.810000E+03	2.267933E-16	6.807412E-18
5.820000E+03	2.269699E-16	6.788799E-18
5.830000E+03	2.272458E-16	6.773136E-18
5.840000E+03	2.276159E-16	6.760245E-18
5.850000E+03	2.280744E-16	6.749926E-18
5.860000E+03	2.286154E-16	6.741975E-18
5.870000E+03	2.292321E-16	6.736178E-18
5.880000E+03	2.299177E-16	6.732312E-18
5.890000E+03	2.306685E-16	6.730248E-18
5.900000E+03	2.314718E-16	6.729606E-18
5.910000E+03	2.323245E-16	6.730279E-18
5.920000E+03	2.332208E-16	6.732088E-18
5.930000E+03	2.341554E-16	6.734876E-18
5.940000E+03	2.351212E-16	6.738431E-18
5.950000E+03	2.361179E-16	6.742736E-18
5.960000E+03	2.371432E-16	6.747724E-18
5.970000E+03	2.381931E-16	6.753277E-18
5.980000E+03	2.392674E-16	6.759389E-18
5.990000E+03	2.403705E-16	6.766182E-18
6.000000E+03	2.415015E-16	6.773627E-18
6.010000E+03	2.426639E-16	6.781818E-18
6.020000E+03	2.438620E-16	6.790876E-18
6.030000E+03	2.450977E-16	6.800848E-18
6.040000E+03	2.463830E-16	6.812060E-18
6.050000E+03	2.477149E-16	6.824424E-18
6.060000E+03	2.491092E-16	6.838368E-18
6.070000E+03	2.505629E-16	6.853801E-18
6.080000E+03	2.520887E-16	6.871059E-18
6.090000E+03	2.536893E-16	6.890204E-18
6.100000E+03	2.553700E-16	6.911366E-18
6.110000E+03	2.571350E-16	6.934646E-18
6.120000E+03	2.589873E-16	6.960114E-18
6.130000E+03	2.609253E-16	6.987711E-18
6.140000E+03	2.629524E-16	7.017514E-18
6.150000E+03	2.650633E-16	7.049374E-18
6.160000E+03	2.672579E-16	7.083274E-18
6.170000E+03	2.695268E-16	7.118961E-18
6.180000E+03	2.718661E-16	7.156321E-18
6.190000E+03	2.742625E-16	7.195007E-18
6.200000E+03	2.767050E-16	7.234727E-18
6.210000E+03	2.791811E-16	7.275161E-18
6.220000E+03	2.816775E-16	7.315972E-18
6.230000E+03	2.841831E-16	7.356881E-18
6.240000E+03	2.866743E-16	7.397297E-18
6.250000E+03	2.891413E-16	7.436985E-18
6.260000E+03	2.915615E-16	7.475388E-18
6.270000E+03	2.939115E-16	7.511934E-18
6.280000E+03	2.961779E-16	7.546318E-18
6.290000E+03	2.983363E-16	7.577955E-18
6.300000E+03	3.003658E-16	7.606363E-18
6.310000E+03	3.022466E-16	7.631082E-18
6.320000E+03	3.039637E-16	7.651790E-18
6.330000E+03	3.054922E-16	7.667914E-18
6.340000E+03	3.068252E-16	7.679337E-18
6.350000E+03	3.079460E-16	7.685707E-18
6.360000E+03	3.088491E-16	7.686939E-18
6.370000E+03	3.095236E-16	7.682826E-18
6.380000E+03	3.099653E-16	7.673327E-18
6.390000E+03	3.101772E-16	7.658573E-18
6.400000E+03	3.101568E-16	7.638558E-18
6.410000E+03	3.099165E-16	7.613643E-18
6.420000E+03	3.094540E-16	7.583824E-18
6.430000E+03	3.087817E-16	7.549454E-18
6.440000E+03	3.079091E-16	7.510807E-18
6.450000E+03	3.068427E-16	7.468085E-18
6.460000E+03	3.056066E-16	7.421911E-18
6.470000E+03	3.042006E-16	7.372313E-18
6.480000E+03	3.026452E-16	7.319814E-18
6.490000E+03	3.009489E-16	7.264649E-18
6.500000E+03	2.991279E-16	7.207229E-18
6.510000E+03	2.971944E-16	7.147863E-18
6.520000E+03	2.951558E-16	7.086750E-18
6.530000E+03	2.930315E-16	7.024362E-18
6.540000E+03	2.908240E-16	6.960770E-18
6.550000E+03	2.885552E-16	6.896506E-18
6.560000E+03	2.862228E-16	6.831515E-18
6.570000E+03	2.838435E-16	6.766200E-18
6.580000E+03	2.814257E-16	6.700762E-18
6.590000E+03	2.789771E-16	6.635380E-18
6.600000E+03	2.765049E-16	6.570224E-18
6.610000E+03	2.740200E-16	6.505544E-18
6.620000E+03	2.715208E-16	6.441301E-18
6.630000E+03	2.690248E-16	6.377902E-18
6.640000E+03	2.665299E-16	6.315285E-18
6.650000E+03	2.640448E-16	6.253651E-18
6.660000E+03	2.615739E-16	6.193097E-18
6.670000E+03	2.591216E-16	6.133712E-18
6.680000E+03	2.566949E-16	6.075656E-18
6.690000E+03	2.542932E-16	6.018902E-18
6.700000E+03	2.519224E-16	5.963581E-18
6.710000E+03	2.495843E-16	5.909724E-18
6.720000E+03	2.472797E-16	5.857342E-18
6.730000E+03	2.450089E-16	5.806425E-18
6.740000E+03	2.427712E-16	5.756932E-18
6.750000E+03	2.405685E-16	5.708885E-18
6.760000E+03	2.383949E-16	5.662114E-18
6.770000E+03	2.362503E-16	5.616594E-18
6.780000E+03	2.341268E-16	5.572114E-18
6.790000E+03	2.320222E-16	5.528597E-18
6.800000E+03	2.299337E-16	5.485951E-18
6.810000E+03	2.278473E-16	5.443815E-18
6.820000E+03	2.257586E-16	5.402065E-18
6.830000E+03	2.236635E-16	5.360573E-18
6.840000E+03	2.215513E-16	5.319057E-18
6.850000E+03	2.194166E-16	5.277361E-18
6.860000E+03	2.172596E-16	5.235464E-18
6.870000E+03	2.150790E-16	5.193305E-18
6.880000E+03	2.128880E-16	5.151177E-18
6.890000E+03	2.107024E-16	5.109437E-18
6.900000E+03	2.085483E-16	5.068699E-18
6.910000E+03	2.064497E-16	5.029526E-18
6.920000E+03	2.044267E-16	4.992400E-18
6.930000E+03	2.025014E-16	4.957855E-18
6.940000E+03	2.006992E-16	4.926506E-18
6.950000E+03	1.990306E-16	4.898623E-18
6.960000E+03	1.975128E-16	4.874634E-18
6.970000E+03	1.961542E-16	4.854760E-18
6.980000E+03	1.949661E-16	4.839304E-18
6.990000E+03	1.939551E-16	4.828449E-18
7.000000E+03	1.931225E-16	4.822253E-18
7.010000E+03	1.924736E-16	4.820878E-18
7.020000E+03	1.920062E-16	4.824302E-18
7.030000E+03	1.917228E-16	4.832618E-18
7.040000E+03	1.916157E-16	4.845669E-18
7.050000E+03	1.916906E-16	4.863632E-18
7.060000E+03	1.919347E-16	4.886226E-18
7.070000E+03	1.923489E-16	4.913511E-18
7.080000E+03	1.929246E-16	4.945302E-18
7.090000E+03	1.936523E-16	4.981395E-18
7.100000E+03	1.945301E-16	5.021781E-18
7.110000E+03	1.955438E-16	5.066128E-18
7.120000E+03	1.966870E-16	5.114307E-18
7.130000E+03	1.979464E-16	5.166005E-18
7.140000E+03	1.993137E-16	5.221037E-18
7.150000E+03	2.007734E-16	5.279025E-18
7.160000E+03	2.023152E-16	5.339726E-18
7.170000E+03	2.039182E-16	5.402612E-18
7.180000E+03	2.055699E-16	5.467365E-18
7.190000E+03	2.072534E-16	5.533551E-18
7.200000E+03	2.089475E-16	5.600613E-18
7.210000E+03	2.106365E-16	5.668131E-18
7.220000E+03	2.122941E-16	5.735392E-18
7.230000E+03	2.139062E-16	5.802004E-18
7.240000E+03	2.154485E-16	5.867292E-18
7.250000E+03	2.168963E-16	5.930554E-18
7.260000E+03	2.182313E-16	5.991257E-18
7.270000E+03	2.194326E-16	6.048790E-18
7.280000E+03	2.204732E-16	6.102354E-18
7.290000E+03	2.213404E-16	6.151542E-18
7.300000E+03	2.220098E-16	6.195612E-18
7.310000E+03	2.224689E-16	6.234145E-18
7.320000E+03	2.227044E-16	6.266684E-18
7.330000E+03	2.227017E-16	6.292743E-18
7.340000E+03	2.224534E-16	6.312015E-18
7.350000E+03	2.219543E-16	6.324268E-18
7.360000E+03	2.212033E-16	6.329372E-18
7.370000E+03	2.202024E-16	6.327287E-18
7.380000E+03	2.189567E-16	6.318066E-18
7.390000E+03	2.174713E-16	6.301760E-18
7.400000E+03	2.157611E-16	6.278712E-18
7.410000E+03	2.138367E-16	6.249135E-18
7.420000E+03	2.117180E-16	6.213531E-18
7.430000E+03	2.094197E-16	6.172253E-18
7.440000E+03	2.069617E-16	6.125815E-18
7.450000E+03	2.043681E-16	6.074862E-18
7.460000E+03	2.016537E-16	6.019782E-18
7.470000E+03	1.988467E-16	5.961362E-18
7.480000E+03	1.959651E-16	5.900107E-18
7.490000E+03	1.930329E-16	5.836699E-18
7.500000E+03	1.900639E-16	5.771536E-18
7.510000E+03	1.870832E-16	5.705355E-18
7.520000E+03	1.841052E-16	5.638592E-18
7.530000E+03	1.811461E-16	5.571738E-18
7.540000E+03	1.782233E-16	5.505328E-18
7.550000E+03	1.753470E-16	5.439687E-18
7.560000E+03	1.725311E-16	5.375260E-18
7.570000E+03	1.697824E-16	5.312277E-18
7.580000E+03	1.671115E-16	5.251089E-18
7.590000E+03	1.645250E-16	5.191927E-18
7.600000E+03	1.620253E-16	5.134893E-18
7.610000E+03	1.596186E-16	5.080212E-18
7.620000E+03	1.573074E-16	5.028001E-18
7.630000E+03	1.550934E-16	4.978341E-18
7.640000E+03	1.529772E-16	4.931286E-18
7.650000E+03	1.509586E-16	4.886869E-18
7.660000E+03	1.490363E-16	4.845080E-18
7.670000E+03	1.472088E-16	4.805901E-18
7.680000E+03	1.454738E-16	4.769297E-18
7.690000E+03	1.438310E-16	4.735290E-18
7.700000E+03	1.422728E-16	4.703662E-18
7.710000E+03	1.408004E-16	4.674486E-18
7.720000E+03	1.394079E-16	4.647596E-18
7.730000E+03	1.380937E-16	4.622971E-18
7.740000E+03	1.368494E-16	4.600354E-18
7.750000E+03	1.356754E-16	4.579783E-18
7.760000E+03	1.345653E-16	4.561076E-18
