#wls	flux	fluxerr
1.600000E+03	1.081333E-17	2.861347E-18
1.640000E+03	1.110865E-17	2.925454E-18
1.680000E+03	1.142163E-17	2.993136E-18
1.720000E+03	1.175951E-17	3.066187E-18
1.760000E+03	1.211994E-17	3.143863E-18
1.800000E+03	1.250452E-17	3.226452E-18
1.840000E+03	1.291934E-17	3.315382E-18
1.880000E+03	1.336442E-17	3.410484E-18
1.920000E+03	1.384198E-17	3.512151E-18
1.960000E+03	1.435445E-17	3.620805E-18
2.000000E+03	1.490693E-17	3.737515E-18
2.040000E+03	1.549995E-17	3.862177E-18
2.080000E+03	1.613927E-17	3.995960E-18
2.120000E+03	1.682845E-17	4.139462E-18
2.160000E+03	1.756865E-17	4.292646E-18
2.200000E+03	1.836959E-17	4.457542E-18
2.240000E+03	1.923316E-17	4.634216E-18
2.280000E+03	2.016744E-17	4.824186E-18
2.320000E+03	2.117487E-17	5.027556E-18
2.360000E+03	2.226799E-17	5.246783E-18
2.400000E+03	2.344676E-17	5.481271E-18
2.440000E+03	2.472519E-17	5.733663E-18
2.480000E+03	2.610752E-17	6.004229E-18
2.520000E+03	2.760586E-17	6.294979E-18
2.560000E+03	2.922939E-17	6.607139E-18
2.600000E+03	3.099226E-17	6.942942E-18
2.640000E+03	3.290077E-17	7.302744E-18
2.680000E+03	3.497060E-17	7.688871E-18
2.720000E+03	3.721881E-17	8.103785E-18
2.760000E+03	3.965340E-17	8.547802E-18
2.800000E+03	4.229287E-17	9.023375E-18
2.840000E+03	4.515131E-17	9.531811E-18
2.880000E+03	4.824914E-17	1.007556E-17
2.920000E+03	5.159518E-17	1.065445E-17
2.960000E+03	5.522375E-17	1.127335E-17
3.000000E+03	5.913744E-17	1.193037E-17
3.010000E+03	6.016028E-17	1.210026E-17
3.020000E+03	6.120561E-17	1.227328E-17
3.030000E+03	6.227376E-17	1.244943E-17
3.040000E+03	6.335765E-17	1.262726E-17
3.050000E+03	6.446483E-17	1.280824E-17
3.060000E+03	6.558806E-17	1.299087E-17
3.070000E+03	6.673504E-17	1.317664E-17
3.080000E+03	6.790608E-17	1.336556E-17
3.090000E+03	6.909366E-17	1.355610E-17
3.100000E+03	7.030572E-17	1.374977E-17
3.110000E+03	7.154255E-17	1.394657E-17
3.120000E+03	7.279630E-17	1.414493E-17
3.130000E+03	7.407522E-17	1.434640E-17
3.140000E+03	7.537120E-17	1.454936E-17
3.150000E+03	7.670109E-17	1.475701E-17
3.160000E+03	7.804837E-17	1.496610E-17
3.170000E+03	7.941301E-17	1.517658E-17
3.180000E+03	8.080360E-17	1.539006E-17
3.190000E+03	8.222040E-17	1.560651E-17
3.200000E+03	8.366358E-17	1.582591E-17
3.210000E+03	8.513333E-17	1.604824E-17
3.220000E+03	8.662070E-17	1.627175E-17
3.230000E+03	8.813477E-17	1.649809E-17
3.240000E+03	8.966635E-17	1.672549E-17
3.250000E+03	9.122467E-17	1.695562E-17
3.260000E+03	9.281938E-17	1.719020E-17
3.270000E+03	9.442195E-17	1.742388E-17
3.280000E+03	9.606107E-17	1.766192E-17
3.290000E+03	9.771739E-17	1.790067E-17
3.300000E+03	9.941056E-17	1.814369E-17
3.310000E+03	1.011207E-16	1.838727E-17
3.320000E+03	1.028476E-16	1.863133E-17
3.330000E+03	1.046114E-16	1.887944E-17
3.340000E+03	1.063916E-16	1.912785E-17
3.350000E+03	1.081982E-16	1.937831E-17
3.360000E+03	1.100312E-16	1.963073E-17
3.370000E+03	1.118904E-16	1.988504E-17
3.380000E+03	1.137757E-16	2.014112E-17
3.390000E+03	1.156759E-16	2.039696E-17
3.400000E+03	1.176016E-16	2.065435E-17
3.410000E+03	1.195525E-16	2.091320E-17
3.420000E+03	1.215283E-16	2.117338E-17
3.430000E+03	1.235288E-16	2.143478E-17
3.440000E+03	1.255536E-16	2.169728E-17
3.450000E+03	1.276023E-16	2.196075E-17
3.460000E+03	1.296630E-16	2.222307E-17
3.470000E+03	1.317465E-16	2.248608E-17
3.480000E+03	1.338527E-16	2.274965E-17
3.490000E+03	1.359927E-16	2.301565E-17
3.500000E+03	1.381302E-16	2.327785E-17
3.510000E+03	1.403008E-16	2.354220E-17
3.520000E+03	1.424917E-16	2.380653E-17
3.530000E+03	1.447025E-16	2.407067E-17
3.540000E+03	1.469198E-16	2.433238E-17
3.550000E+03	1.491682E-16	2.459565E-17
3.560000E+03	1.514215E-16	2.485614E-17
3.570000E+03	1.537044E-16	2.511784E-17
3.580000E+03	1.559908E-16	2.537644E-17
3.590000E+03	1.582927E-16	2.563385E-17
3.600000E+03	1.606090E-16	2.588986E-17
3.610000E+03	1.629390E-16	2.614432E-17
3.620000E+03	1.652818E-16	2.639703E-17
3.630000E+03	1.676365E-16	2.664781E-17
3.640000E+03	1.699889E-16	2.689437E-17
3.650000E+03	1.723646E-16	2.714078E-17
3.660000E+03	1.747496E-16	2.738473E-17
3.670000E+03	1.771290E-16	2.762390E-17
3.680000E+03	1.795292E-16	2.786237E-17
3.690000E+03	1.819216E-16	2.809568E-17
3.700000E+03	1.843330E-16	2.832796E-17
3.710000E+03	1.867345E-16	2.855473E-17
3.720000E+03	1.891388E-16	2.877795E-17
3.730000E+03	1.915450E-16	2.899745E-17
3.740000E+03	1.939519E-16	2.921306E-17
3.750000E+03	1.963585E-16	2.942462E-17
3.760000E+03	1.987640E-16	2.963198E-17
3.770000E+03	2.011523E-16	2.983279E-17
3.780000E+03	2.035518E-16	3.003125E-17
3.790000E+03	2.059468E-16	3.022502E-17
3.800000E+03	2.083215E-16	3.041182E-17
3.810000E+03	2.106897E-16	3.059369E-17
3.820000E+03	2.130502E-16	3.077047E-17
3.830000E+03	2.154021E-16	3.094205E-17
3.840000E+03	2.177446E-16	3.110833E-17
3.850000E+03	2.200767E-16	3.126918E-17
3.860000E+03	2.223825E-16	3.142241E-17
3.870000E+03	2.246913E-16	3.157216E-17
3.880000E+03	2.269721E-16	3.171412E-17
3.890000E+03	2.292393E-16	3.185036E-17
3.900000E+03	2.314924E-16	3.198083E-17
3.910000E+03	2.337155E-16	3.210340E-17
3.920000E+03	2.359232E-16	3.222013E-17
3.930000E+03	2.381301E-16	3.233305E-17
3.940000E+03	2.402907E-16	3.243602E-17
3.950000E+03	2.424500E-16	3.253520E-17
3.960000E+03	2.445774E-16	3.262653E-17
3.970000E+03	2.466883E-16	3.271211E-17
3.980000E+03	2.487826E-16	3.279201E-17
3.990000E+03	2.508450E-16	3.286426E-17
4.000000E+03	2.528913E-16	3.293101E-17
4.010000E+03	2.549217E-16	3.299232E-17
4.020000E+03	2.569217E-16	3.304640E-17
4.030000E+03	2.589069E-16	3.309533E-17
4.040000E+03	2.608630E-16	3.313733E-17
4.050000E+03	2.628063E-16	3.317456E-17
4.060000E+03	2.647225E-16	3.320527E-17
4.070000E+03	2.666281E-16	3.323160E-17
4.080000E+03	2.685247E-16	3.325379E-17
4.090000E+03	2.703982E-16	3.327015E-17
4.100000E+03	2.722504E-16	3.328100E-17
4.110000E+03	2.740985E-16	3.328847E-17
4.120000E+03	2.759293E-16	3.329103E-17
4.130000E+03	2.777599E-16	3.329078E-17
4.140000E+03	2.795623E-16	3.328442E-17
4.150000E+03	2.813845E-16	3.327774E-17
4.160000E+03	2.831836E-16	3.326566E-17
4.170000E+03	2.849923E-16	3.325210E-17
4.180000E+03	2.867983E-16	3.323564E-17
4.190000E+03	2.886047E-16	3.321667E-17
4.200000E+03	2.904296E-16	3.319732E-17
4.210000E+03	2.922455E-16	3.317444E-17
4.220000E+03	2.940862E-16	3.315191E-17
4.230000E+03	2.959397E-16	3.312837E-17
4.240000E+03	2.978092E-16	3.310419E-17
4.250000E+03	2.996830E-16	3.307808E-17
4.260000E+03	3.015946E-16	3.305377E-17
4.270000E+03	3.035324E-16	3.302995E-17
4.280000E+03	3.054996E-16	3.300696E-17
4.290000E+03	3.075000E-16	3.298517E-17
4.300000E+03	3.095364E-16	3.296490E-17
4.310000E+03	3.115974E-16	3.294489E-17
4.320000E+03	3.137163E-16	3.292866E-17
4.330000E+03	3.158662E-16	3.291332E-17
4.340000E+03	3.180651E-16	3.290075E-17
4.350000E+03	3.203160E-16	3.289120E-17
4.360000E+03	3.226069E-16	3.288342E-17
4.370000E+03	3.249554E-16	3.287916E-17
4.380000E+03	3.273640E-16	3.287865E-17
4.390000E+03	3.298201E-16	3.288056E-17
4.400000E+03	3.323410E-16	3.288660E-17
4.410000E+03	3.349288E-16	3.289692E-17
4.420000E+03	3.375697E-16	3.291014E-17
4.430000E+03	3.402807E-16	3.292786E-17
4.440000E+03	3.430477E-16	3.294871E-17
4.450000E+03	3.458872E-16	3.297422E-17
4.460000E+03	3.487843E-16	3.300297E-17
4.470000E+03	3.517391E-16	3.303497E-17
4.480000E+03	3.547675E-16	3.307169E-17
4.490000E+03	3.578535E-16	3.311163E-17
4.500000E+03	3.609963E-16	3.315473E-17
4.510000E+03	3.642107E-16	3.320238E-17
4.520000E+03	3.674796E-16	3.325303E-17
4.530000E+03	3.708009E-16	3.330653E-17
4.540000E+03	3.741883E-16	3.336416E-17
4.550000E+03	3.776073E-16	3.342290E-17
4.560000E+03	3.810868E-16	3.348540E-17
4.570000E+03	3.846069E-16	3.355000E-17
4.580000E+03	3.881635E-16	3.361643E-17
4.590000E+03	3.917681E-16	3.368582E-17
4.600000E+03	3.953832E-16	3.375507E-17
4.610000E+03	3.990193E-16	3.382525E-17
4.620000E+03	4.026697E-16	3.389598E-17
4.630000E+03	4.063441E-16	3.396825E-17
4.640000E+03	4.100019E-16	3.403887E-17
4.650000E+03	4.136680E-16	3.411014E-17
4.660000E+03	4.172998E-16	3.417881E-17
4.670000E+03	4.209042E-16	3.424571E-17
4.680000E+03	4.244878E-16	3.431166E-17
4.690000E+03	4.280050E-16	3.437328E-17
4.700000E+03	4.314606E-16	3.443131E-17
4.710000E+03	4.348415E-16	3.448503E-17
4.720000E+03	4.381333E-16	3.453369E-17
4.730000E+03	4.413039E-16	3.457512E-17
4.740000E+03	4.443719E-16	3.461121E-17
4.750000E+03	4.472858E-16	3.463836E-17
4.760000E+03	4.500623E-16	3.465829E-17
4.770000E+03	4.526483E-16	3.466735E-17
4.780000E+03	4.550243E-16	3.466453E-17
4.790000E+03	4.572054E-16	3.465145E-17
4.800000E+03	4.591538E-16	3.462571E-17
4.810000E+03	4.608318E-16	3.458494E-17
4.820000E+03	4.622367E-16	3.452941E-17
4.830000E+03	4.633497E-16	3.445820E-17
4.840000E+03	4.641360E-16	3.436918E-17
4.850000E+03	4.646164E-16	3.426433E-17
4.860000E+03	4.647476E-16	3.414087E-17
4.870000E+03	4.645483E-16	3.400054E-17
4.880000E+03	4.640279E-16	3.384419E-17
4.890000E+03	4.631840E-16	3.367171E-17
4.900000E+03	4.620517E-16	3.348565E-17
4.910000E+03	4.606501E-16	3.328736E-17
4.920000E+03	4.589993E-16	3.307822E-17
4.930000E+03	4.571028E-16	3.285838E-17
4.940000E+03	4.549976E-16	3.263034E-17
4.950000E+03	4.527038E-16	3.239540E-17
4.960000E+03	4.502405E-16	3.215470E-17
4.970000E+03	4.476102E-16	3.190823E-17
4.980000E+03	4.448467E-16	3.165817E-17
4.990000E+03	4.419671E-16	3.140549E-17
5.000000E+03	4.389873E-16	3.115106E-17
5.010000E+03	4.359064E-16	3.089456E-17
5.020000E+03	4.327696E-16	3.063892E-17
5.030000E+03	4.295589E-16	3.038261E-17
5.040000E+03	4.262866E-16	3.012621E-17
5.050000E+03	4.229939E-16	2.987239E-17
5.060000E+03	4.196608E-16	2.961945E-17
5.070000E+03	4.163113E-16	2.936883E-17
5.080000E+03	4.129535E-16	2.912085E-17
5.090000E+03	4.095803E-16	2.887475E-17
5.100000E+03	4.062269E-16	2.863276E-17
5.110000E+03	4.028703E-16	2.839302E-17
5.120000E+03	3.995296E-16	2.815666E-17
5.130000E+03	3.962086E-16	2.792372E-17
5.140000E+03	3.928969E-16	2.769325E-17
5.150000E+03	3.896247E-16	2.746717E-17
5.160000E+03	3.863665E-16	2.724348E-17
5.170000E+03	3.831373E-16	2.702306E-17
5.180000E+03	3.799376E-16	2.680576E-17
5.190000E+03	3.767678E-16	2.659143E-17
5.200000E+03	3.736145E-16	2.637896E-17
5.210000E+03	3.704901E-16	2.616907E-17
5.220000E+03	3.674057E-16	2.596239E-17
5.230000E+03	3.643345E-16	2.575689E-17
5.240000E+03	3.612874E-16	2.555320E-17
5.250000E+03	3.582620E-16	2.535102E-17
5.260000E+03	3.552436E-16	2.514919E-17
5.270000E+03	3.522541E-16	2.494914E-17
5.280000E+03	3.492785E-16	2.474970E-17
5.290000E+03	3.463019E-16	2.454971E-17
5.300000E+03	3.433333E-16	2.434972E-17
5.310000E+03	3.403815E-16	2.415026E-17
5.320000E+03	3.374203E-16	2.394937E-17
5.330000E+03	3.344583E-16	2.374760E-17
5.340000E+03	3.314930E-16	2.354469E-17
5.350000E+03	3.285219E-16	2.334039E-17
5.360000E+03	3.255423E-16	2.313445E-17
5.370000E+03	3.225524E-16	2.292667E-17
5.380000E+03	3.195504E-16	2.271690E-17
5.390000E+03	3.165347E-16	2.250494E-17
5.400000E+03	3.135039E-16	2.229069E-17
5.410000E+03	3.104577E-16	2.207406E-17
5.420000E+03	3.073850E-16	2.185425E-17
5.430000E+03	3.043068E-16	2.163272E-17
5.440000E+03	3.012129E-16	2.140871E-17
5.450000E+03	2.981043E-16	2.118230E-17
5.460000E+03	2.949825E-16	2.095356E-17
5.470000E+03	2.918490E-16	2.072262E-17
5.480000E+03	2.887062E-16	2.048962E-17
5.490000E+03	2.855665E-16	2.025545E-17
5.500000E+03	2.824136E-16	2.001896E-17
5.510000E+03	2.792610E-16	1.978112E-17
5.520000E+03	2.761216E-16	1.954286E-17
5.530000E+03	2.729815E-16	1.930320E-17
5.540000E+03	2.698638E-16	1.906379E-17
5.550000E+03	2.667639E-16	1.882433E-17
5.560000E+03	2.636874E-16	1.858523E-17
5.570000E+03	2.606398E-16	1.834690E-17
5.580000E+03	2.576266E-16	1.810974E-17
5.590000E+03	2.546537E-16	1.787421E-17
5.600000E+03	2.517354E-16	1.764130E-17
5.610000E+03	2.488689E-16	1.741086E-17
5.620000E+03	2.460600E-16	1.718330E-17
5.630000E+03	2.433147E-16	1.695905E-17
5.640000E+03	2.406384E-16	1.673850E-17
5.650000E+03	2.380446E-16	1.652261E-17
5.660000E+03	2.355304E-16	1.631116E-17
5.670000E+03	2.331009E-16	1.610451E-17
5.680000E+03	2.307604E-16	1.590296E-17
5.690000E+03	2.285210E-16	1.570733E-17
5.700000E+03	2.263789E-16	1.551734E-17
5.710000E+03	2.243377E-16	1.533323E-17
5.720000E+03	2.224079E-16	1.515567E-17
5.730000E+03	2.205774E-16	1.498382E-17
5.740000E+03	2.188707E-16	1.481929E-17
5.750000E+03	2.172675E-16	1.466068E-17
5.760000E+03	2.157841E-16	1.450904E-17
5.770000E+03	2.144141E-16	1.436388E-17
5.780000E+03	2.131656E-16	1.422567E-17
5.790000E+03	2.120245E-16	1.409343E-17
5.800000E+03	2.110124E-16	1.396850E-17
5.810000E+03	2.101075E-16	1.384937E-17
5.820000E+03	2.093307E-16	1.373733E-17
5.830000E+03	2.086599E-16	1.363086E-17
5.840000E+03	2.081084E-16	1.353071E-17
5.850000E+03	2.076679E-16	1.343627E-17
5.860000E+03	2.073440E-16	1.334780E-17
5.870000E+03	2.071356E-16	1.326512E-17
5.880000E+03	2.070271E-16	1.318712E-17
5.890000E+03	2.070381E-16	1.311494E-17
5.900000E+03	2.071462E-16	1.304704E-17
5.910000E+03	2.073638E-16	1.298410E-17
5.920000E+03	2.076898E-16	1.292592E-17
5.930000E+03	2.081155E-16	1.287184E-17
5.940000E+03	2.086471E-16	1.282211E-17
5.950000E+03	2.092762E-16	1.277607E-17
5.960000E+03	2.100089E-16	1.273398E-17
5.970000E+03	2.108370E-16	1.269519E-17
5.980000E+03	2.117669E-16	1.265995E-17
5.990000E+03	2.127976E-16	1.262806E-17
6.000000E+03	2.139209E-16	1.259888E-17
6.010000E+03	2.151361E-16	1.257222E-17
6.020000E+03	2.164564E-16	1.254870E-17
6.030000E+03	2.178589E-16	1.252684E-17
6.040000E+03	2.193642E-16	1.250767E-17
6.050000E+03	2.209558E-16	1.249009E-17
6.060000E+03	2.226315E-16	1.247381E-17
6.070000E+03	2.244040E-16	1.245939E-17
6.080000E+03	2.262551E-16	1.244567E-17
6.090000E+03	2.281811E-16	1.243228E-17
6.100000E+03	2.301854E-16	1.241926E-17
6.110000E+03	2.322629E-16	1.240620E-17
6.120000E+03	2.344078E-16	1.239264E-17
6.130000E+03	2.366054E-16	1.237767E-17
6.140000E+03	2.388560E-16	1.236120E-17
6.150000E+03	2.411426E-16	1.234225E-17
6.160000E+03	2.434723E-16	1.232108E-17
6.170000E+03	2.458180E-16	1.229627E-17
6.180000E+03	2.481765E-16	1.226759E-17
6.190000E+03	2.505270E-16	1.223400E-17
6.200000E+03	2.528651E-16	1.219529E-17
6.210000E+03	2.551775E-16	1.215082E-17
6.220000E+03	2.574506E-16	1.209998E-17
6.230000E+03	2.596615E-16	1.204174E-17
6.240000E+03	2.618050E-16	1.197597E-17
6.250000E+03	2.638666E-16	1.190212E-17
6.260000E+03	2.658320E-16	1.181972E-17
6.270000E+03	2.676869E-16	1.172832E-17
6.280000E+03	2.694080E-16	1.162714E-17
6.290000E+03	2.709910E-16	1.151627E-17
6.300000E+03	2.724230E-16	1.139548E-17
6.310000E+03	2.736922E-16	1.126462E-17
6.320000E+03	2.747875E-16	1.112360E-17
6.330000E+03	2.756895E-16	1.097209E-17
6.340000E+03	2.763995E-16	1.081057E-17
6.350000E+03	2.769104E-16	1.063927E-17
6.360000E+03	2.772170E-16	1.045850E-17
6.370000E+03	2.773157E-16	1.026865E-17
6.380000E+03	2.772046E-16	1.007023E-17
6.390000E+03	2.768834E-16	9.863793E-18
6.400000E+03	2.763440E-16	9.649664E-18
6.410000E+03	2.756089E-16	9.429247E-18
6.420000E+03	2.746637E-16	9.202662E-18
6.430000E+03	2.735240E-16	8.971078E-18
6.440000E+03	2.721975E-16	8.735384E-18
6.450000E+03	2.707026E-16	8.496795E-18
6.460000E+03	2.690296E-16	8.255640E-18
6.470000E+03	2.671988E-16	8.013194E-18
6.480000E+03	2.652121E-16	7.770148E-18
6.490000E+03	2.631001E-16	7.528036E-18
6.500000E+03	2.608654E-16	7.287551E-18
6.510000E+03	2.585201E-16	7.049655E-18
6.520000E+03	2.560770E-16	6.815314E-18
6.530000E+03	2.535480E-16	6.585469E-18
6.540000E+03	2.509453E-16	6.361054E-18
6.550000E+03	2.482717E-16	6.142765E-18
6.560000E+03	2.455564E-16	5.931949E-18
6.570000E+03	2.428014E-16	5.729259E-18
6.580000E+03	2.400172E-16	5.535557E-18
6.590000E+03	2.372134E-16	5.351679E-18
6.600000E+03	2.343994E-16	5.178431E-18
6.610000E+03	2.315838E-16	5.016589E-18
6.620000E+03	2.287746E-16	4.866880E-18
6.630000E+03	2.259791E-16	4.729976E-18
6.640000E+03	2.232043E-16	4.606484E-18
6.650000E+03	2.204641E-16	4.497087E-18
6.660000E+03	2.177480E-16	4.401873E-18
6.670000E+03	2.150690E-16	4.321315E-18
6.680000E+03	2.124390E-16	4.255738E-18
6.690000E+03	2.098538E-16	4.205019E-18
6.700000E+03	2.073089E-16	4.168794E-18
6.710000E+03	2.048219E-16	4.146705E-18
6.720000E+03	2.023868E-16	4.137765E-18
6.730000E+03	2.000047E-16	4.141061E-18
6.740000E+03	1.976762E-16	4.155634E-18
6.750000E+03	1.954083E-16	4.180638E-18
6.760000E+03	1.931860E-16	4.214776E-18
6.770000E+03	1.910222E-16	4.257364E-18
6.780000E+03	1.889009E-16	4.307135E-18
6.790000E+03	1.868336E-16	4.363475E-18
6.800000E+03	1.848099E-16	4.425341E-18
6.810000E+03	1.828259E-16	4.491891E-18
6.820000E+03	1.808771E-16	4.562320E-18
6.830000E+03	1.789648E-16	4.636033E-18
6.840000E+03	1.770699E-16	4.711962E-18
6.850000E+03	1.751994E-16	4.789755E-18
6.860000E+03	1.733409E-16	4.868595E-18
6.870000E+03	1.714913E-16	4.947948E-18
6.880000E+03	1.696558E-16	5.027565E-18
6.890000E+03	1.678482E-16	5.107521E-18
6.900000E+03	1.660856E-16	5.188077E-18
6.910000E+03	1.643905E-16	5.269758E-18
6.920000E+03	1.627655E-16	5.352553E-18
6.930000E+03	1.612358E-16	5.437246E-18
6.940000E+03	1.598072E-16	5.524069E-18
6.950000E+03	1.584896E-16	5.613437E-18
6.960000E+03	1.572912E-16	5.705779E-18
6.970000E+03	1.562251E-16	5.801737E-18
6.980000E+03	1.552851E-16	5.901297E-18
6.990000E+03	1.544875E-16	6.005302E-18
7.000000E+03	1.538241E-16	6.113706E-18
7.010000E+03	1.533089E-16	6.227339E-18
7.020000E+03	1.529375E-16	6.346332E-18
7.030000E+03	1.527105E-16	6.471024E-18
7.040000E+03	1.526279E-16	6.601733E-18
7.050000E+03	1.526884E-16	6.738734E-18
7.060000E+03	1.528964E-16	6.882546E-18
7.070000E+03	1.532379E-16	7.032879E-18
7.080000E+03	1.537154E-16	7.190168E-18
7.090000E+03	1.543310E-16	7.354829E-18
7.100000E+03	1.550686E-16	7.526420E-18
7.110000E+03	1.559345E-16	7.705543E-18
7.120000E+03	1.569169E-16	7.891921E-18
7.130000E+03	1.580093E-16	8.085495E-18
7.140000E+03	1.591979E-16	8.285823E-18
7.150000E+03	1.604865E-16	8.493336E-18
7.160000E+03	1.618602E-16	8.707474E-18
7.170000E+03	1.633091E-16	8.927902E-18
7.180000E+03	1.648226E-16	9.154210E-18
7.190000E+03	1.663829E-16	9.385550E-18
7.200000E+03	1.679907E-16	9.622070E-18
7.210000E+03	1.696268E-16	9.862764E-18
7.220000E+03	1.712778E-16	1.010691E-17
7.230000E+03	1.729300E-16	1.035370E-17
7.240000E+03	1.745622E-16	1.060187E-17
7.250000E+03	1.761732E-16	1.085125E-17
7.260000E+03	1.777347E-16	1.110004E-17
7.270000E+03	1.792455E-16	1.134803E-17
7.280000E+03	1.806774E-16	1.159327E-17
7.290000E+03	1.820298E-16	1.183552E-17
7.300000E+03	1.832751E-16	1.207276E-17
7.310000E+03	1.844071E-16	1.230431E-17
7.320000E+03	1.854136E-16	1.252905E-17
7.330000E+03	1.862838E-16	1.274593E-17
7.340000E+03	1.870003E-16	1.295341E-17
7.350000E+03	1.875692E-16	1.315153E-17
7.360000E+03	1.879692E-16	1.333842E-17
7.370000E+03	1.882091E-16	1.351429E-17
7.380000E+03	1.882709E-16	1.367744E-17
7.390000E+03	1.881596E-16	1.382780E-17
7.400000E+03	1.878676E-16	1.396440E-17
7.410000E+03	1.874108E-16	1.408796E-17
7.420000E+03	1.867775E-16	1.419723E-17
7.430000E+03	1.859791E-16	1.429264E-17
7.440000E+03	1.850216E-16	1.437424E-17
7.450000E+03	1.839045E-16	1.444164E-17
7.460000E+03	1.826501E-16	1.449623E-17
7.470000E+03	1.812532E-16	1.453723E-17
7.480000E+03	1.797232E-16	1.456509E-17
7.490000E+03	1.780847E-16	1.458150E-17
7.500000E+03	1.763338E-16	1.458589E-17
7.510000E+03	1.744885E-16	1.457947E-17
7.520000E+03	1.725592E-16	1.456294E-17
7.530000E+03	1.705500E-16	1.453642E-17
7.540000E+03	1.684781E-16	1.450121E-17
7.550000E+03	1.663535E-16	1.445804E-17
7.560000E+03	1.641799E-16	1.440705E-17
7.570000E+03	1.619730E-16	1.434952E-17
7.580000E+03	1.597416E-16	1.428614E-17
7.590000E+03	1.574877E-16	1.421701E-17
7.600000E+03	1.552255E-16	1.414336E-17
7.610000E+03	1.529557E-16	1.406524E-17
7.620000E+03	1.506975E-16	1.398437E-17
7.630000E+03	1.484387E-16	1.389967E-17
7.640000E+03	1.462028E-16	1.381331E-17
7.650000E+03	1.439832E-16	1.372473E-17
7.660000E+03	1.417845E-16	1.363443E-17
7.670000E+03	1.396225E-16	1.354394E-17
7.680000E+03	1.374839E-16	1.345209E-17
7.690000E+03	1.353887E-16	1.336088E-17
7.700000E+03	1.333289E-16	1.326962E-17
7.710000E+03	1.313067E-16	1.317864E-17
7.720000E+03	1.293298E-16	1.308878E-17
7.730000E+03	1.273997E-16	1.300033E-17
7.740000E+03	1.255123E-16	1.291296E-17
7.750000E+03	1.236738E-16	1.282744E-17
7.760000E+03	1.218798E-16	1.274341E-17
