#wls	flux	fluxerr
1.600000E+03	2.390596E-17	5.780803E-18
1.640000E+03	2.459485E-17	5.941704E-18
1.680000E+03	2.531888E-17	6.110577E-18
1.720000E+03	2.607990E-17	6.287819E-18
1.760000E+03	2.687985E-17	6.473849E-18
1.800000E+03	2.772564E-17	6.670271E-18
1.840000E+03	2.861482E-17	6.876437E-18
1.880000E+03	2.954960E-17	7.092810E-18
1.920000E+03	3.053231E-17	7.319880E-18
1.960000E+03	3.157092E-17	7.559480E-18
2.000000E+03	3.266274E-17	7.810881E-18
2.040000E+03	3.381040E-17	8.074621E-18
2.080000E+03	3.502272E-17	8.352709E-18
2.120000E+03	3.629045E-17	8.642833E-18
2.160000E+03	3.762892E-17	8.948536E-18
2.200000E+03	3.904172E-17	9.270543E-18
2.240000E+03	4.052557E-17	9.607940E-18
2.280000E+03	4.208354E-17	9.961315E-18
2.320000E+03	4.371871E-17	1.033124E-17
2.360000E+03	4.543417E-17	1.071830E-17
2.400000E+03	4.724116E-17	1.112495E-17
2.440000E+03	4.914365E-17	1.155194E-17
2.480000E+03	5.112805E-17	1.199587E-17
2.520000E+03	5.321453E-17	1.246126E-17
2.560000E+03	5.539746E-17	1.294656E-17
2.600000E+03	5.768928E-17	1.345442E-17
2.640000E+03	6.008333E-17	1.398303E-17
2.680000E+03	6.258177E-17	1.453262E-17
2.720000E+03	6.518643E-17	1.510331E-17
2.760000E+03	6.791023E-17	1.569779E-17
2.800000E+03	7.074358E-17	1.631350E-17
2.840000E+03	7.369934E-17	1.695307E-17
2.880000E+03	7.675313E-17	1.761052E-17
2.920000E+03	7.992945E-17	1.829111E-17
2.960000E+03	8.322833E-17	1.899444E-17
3.000000E+03	8.662018E-17	1.971333E-17
3.010000E+03	8.748803E-17	1.989667E-17
3.020000E+03	8.836236E-17	2.008109E-17
3.030000E+03	8.924307E-17	2.026658E-17
3.040000E+03	9.013011E-17	2.045311E-17
3.050000E+03	9.102341E-17	2.064067E-17
3.060000E+03	9.192288E-17	2.082923E-17
3.070000E+03	9.282846E-17	2.101876E-17
3.080000E+03	9.374005E-17	2.120923E-17
3.090000E+03	9.465758E-17	2.140063E-17
3.100000E+03	9.559675E-17	2.159649E-17
3.110000E+03	9.652599E-17	2.178968E-17
3.120000E+03	9.746085E-17	2.198370E-17
3.130000E+03	9.840125E-17	2.217852E-17
3.140000E+03	9.934707E-17	2.237412E-17
3.150000E+03	1.002982E-16	2.257045E-17
3.160000E+03	1.012712E-16	2.277124E-17
3.170000E+03	1.022327E-16	2.296898E-17
3.180000E+03	1.031991E-16	2.316736E-17
3.190000E+03	1.041704E-16	2.336632E-17
3.200000E+03	1.051635E-16	2.356973E-17
3.210000E+03	1.061441E-16	2.376980E-17
3.220000E+03	1.071289E-16	2.397036E-17
3.230000E+03	1.081180E-16	2.417135E-17
3.240000E+03	1.091290E-16	2.437673E-17
3.250000E+03	1.101262E-16	2.457850E-17
3.260000E+03	1.111453E-16	2.478463E-17
3.270000E+03	1.121498E-16	2.498699E-17
3.280000E+03	1.131577E-16	2.518957E-17
3.290000E+03	1.141873E-16	2.539645E-17
3.300000E+03	1.152016E-16	2.559936E-17
3.310000E+03	1.162375E-16	2.580651E-17
3.320000E+03	1.172572E-16	2.600952E-17
3.330000E+03	1.182793E-16	2.621250E-17
3.340000E+03	1.193229E-16	2.641967E-17
3.350000E+03	1.203492E-16	2.662244E-17
3.360000E+03	1.213970E-16	2.682935E-17
3.370000E+03	1.224267E-16	2.703170E-17
3.380000E+03	1.234778E-16	2.723817E-17
3.390000E+03	1.245098E-16	2.743985E-17
3.400000E+03	1.255632E-16	2.764561E-17
3.410000E+03	1.266174E-16	2.785094E-17
3.420000E+03	1.276515E-16	2.805124E-17
3.430000E+03	1.287066E-16	2.825551E-17
3.440000E+03	1.297407E-16	2.845456E-17
3.450000E+03	1.307955E-16	2.865752E-17
3.460000E+03	1.318286E-16	2.885508E-17
3.470000E+03	1.328821E-16	2.905647E-17
3.480000E+03	1.339346E-16	2.925700E-17
3.490000E+03	1.349642E-16	2.945185E-17
3.500000E+03	1.360138E-16	2.965043E-17
3.510000E+03	1.370616E-16	2.984794E-17
3.520000E+03	1.380852E-16	3.003951E-17
3.530000E+03	1.391284E-16	3.023469E-17
3.540000E+03	1.401689E-16	3.042859E-17
3.550000E+03	1.411839E-16	3.061627E-17
3.560000E+03	1.422180E-16	3.080742E-17
3.570000E+03	1.432486E-16	3.099714E-17
3.580000E+03	1.442523E-16	3.118031E-17
3.590000E+03	1.452747E-16	3.136685E-17
3.600000E+03	1.462927E-16	3.155172E-17
3.610000E+03	1.473058E-16	3.173485E-17
3.620000E+03	1.482902E-16	3.191109E-17
3.630000E+03	1.492929E-16	3.209055E-17
3.640000E+03	1.502898E-16	3.226805E-17
3.650000E+03	1.512807E-16	3.244354E-17
3.660000E+03	1.522411E-16	3.261178E-17
3.670000E+03	1.532189E-16	3.278303E-17
3.680000E+03	1.541899E-16	3.295210E-17
3.690000E+03	1.551536E-16	3.311889E-17
3.700000E+03	1.560851E-16	3.327807E-17
3.710000E+03	1.570333E-16	3.344011E-17
3.720000E+03	1.579735E-16	3.359969E-17
3.730000E+03	1.589054E-16	3.375677E-17
3.740000E+03	1.598285E-16	3.391126E-17
3.750000E+03	1.607172E-16	3.405771E-17
3.760000E+03	1.616220E-16	3.420686E-17
3.770000E+03	1.625173E-16	3.435324E-17
3.780000E+03	1.634027E-16	3.449680E-17
3.790000E+03	1.642780E-16	3.463750E-17
3.800000E+03	1.651170E-16	3.476981E-17
3.810000E+03	1.659714E-16	3.490463E-17
3.820000E+03	1.668149E-16	3.503640E-17
3.830000E+03	1.676472E-16	3.516513E-17
3.840000E+03	1.684683E-16	3.529073E-17
3.850000E+03	1.692513E-16	3.540763E-17
3.860000E+03	1.700489E-16	3.552689E-17
3.870000E+03	1.708344E-16	3.564287E-17
3.880000E+03	1.716079E-16	3.575559E-17
3.890000E+03	1.723419E-16	3.585939E-17
3.900000E+03	1.730902E-16	3.596544E-17
3.910000E+03	1.738257E-16	3.606811E-17
3.920000E+03	1.745482E-16	3.616736E-17
3.930000E+03	1.752575E-16	3.626317E-17
3.940000E+03	1.759262E-16	3.634986E-17
3.950000E+03	1.766088E-16	3.643870E-17
3.960000E+03	1.772777E-16	3.652403E-17
3.970000E+03	1.779330E-16	3.660583E-17
3.980000E+03	1.785466E-16	3.667839E-17
3.990000E+03	1.791741E-16	3.675308E-17
4.000000E+03	1.797874E-16	3.682418E-17
4.010000E+03	1.803866E-16	3.689170E-17
4.020000E+03	1.809436E-16	3.694990E-17
4.030000E+03	1.815143E-16	3.701024E-17
4.040000E+03	1.820705E-16	3.706693E-17
4.050000E+03	1.826124E-16	3.712005E-17
4.060000E+03	1.831115E-16	3.716380E-17
4.070000E+03	1.836243E-16	3.720969E-17
4.080000E+03	1.841227E-16	3.725199E-17
4.090000E+03	1.845781E-16	3.728496E-17
4.100000E+03	1.850472E-16	3.732005E-17
4.110000E+03	1.855019E-16	3.735159E-17
4.120000E+03	1.859133E-16	3.737380E-17
4.130000E+03	1.863389E-16	3.739821E-17
4.140000E+03	1.867498E-16	3.741908E-17
4.150000E+03	1.871177E-16	3.743071E-17
4.160000E+03	1.874996E-16	3.744455E-17
4.170000E+03	1.878671E-16	3.745490E-17
4.180000E+03	1.881915E-16	3.745607E-17
4.190000E+03	1.885302E-16	3.745950E-17
4.200000E+03	1.888258E-16	3.745379E-17
4.210000E+03	1.891359E-16	3.745039E-17
4.220000E+03	1.894030E-16	3.743791E-17
4.230000E+03	1.896848E-16	3.742778E-17
4.240000E+03	1.899235E-16	3.740860E-17
4.250000E+03	1.901772E-16	3.739181E-17
4.260000E+03	1.903879E-16	3.736607E-17
4.270000E+03	1.906137E-16	3.734273E-17
4.280000E+03	1.907965E-16	3.731046E-17
4.290000E+03	1.909946E-16	3.728067E-17
4.300000E+03	1.911498E-16	3.724201E-17
4.310000E+03	1.913204E-16	3.720585E-17
4.320000E+03	1.914483E-16	3.716089E-17
4.330000E+03	1.915626E-16	3.711281E-17
4.340000E+03	1.916923E-16	3.706725E-17
4.350000E+03	1.917795E-16	3.701301E-17
4.360000E+03	1.918821E-16	3.696129E-17
4.370000E+03	1.919423E-16	3.690094E-17
4.380000E+03	1.919890E-16	3.683759E-17
4.390000E+03	1.920223E-16	3.677122E-17
4.400000E+03	1.920711E-16	3.670740E-17
4.410000E+03	1.920776E-16	3.663509E-17
4.420000E+03	1.920706E-16	3.655982E-17
4.430000E+03	1.920502E-16	3.648160E-17
4.440000E+03	1.920453E-16	3.640593E-17
4.450000E+03	1.919980E-16	3.632187E-17
4.460000E+03	1.919372E-16	3.623490E-17
4.470000E+03	1.918630E-16	3.614502E-17
4.480000E+03	1.917752E-16	3.605227E-17
4.490000E+03	1.916739E-16	3.595665E-17
4.500000E+03	1.915588E-16	3.585814E-17
4.510000E+03	1.914303E-16	3.575679E-17
4.520000E+03	1.913166E-16	3.565793E-17
4.530000E+03	1.911605E-16	3.555084E-17
4.540000E+03	1.909906E-16	3.544093E-17
4.550000E+03	1.908068E-16	3.532818E-17
4.560000E+03	1.905806E-16	3.520735E-17
4.570000E+03	1.903690E-16	3.508897E-17
4.580000E+03	1.901433E-16	3.496779E-17
4.590000E+03	1.899035E-16	3.484380E-17
4.600000E+03	1.896496E-16	3.471701E-17
4.610000E+03	1.893815E-16	3.458744E-17
4.620000E+03	1.890992E-16	3.445511E-17
4.630000E+03	1.888026E-16	3.432001E-17
4.640000E+03	1.884637E-16	3.417709E-17
4.650000E+03	1.881387E-16	3.403655E-17
4.660000E+03	1.877992E-16	3.389329E-17
4.670000E+03	1.874454E-16	3.374733E-17
4.680000E+03	1.870497E-16	3.359374E-17
4.690000E+03	1.866674E-16	3.344250E-17
4.700000E+03	1.862433E-16	3.328371E-17
4.710000E+03	1.858326E-16	3.312729E-17
4.720000E+03	1.854078E-16	3.296831E-17
4.730000E+03	1.849416E-16	3.280196E-17
4.740000E+03	1.844887E-16	3.263799E-17
4.750000E+03	1.839949E-16	3.246679E-17
4.760000E+03	1.835145E-16	3.229800E-17
4.770000E+03	1.829936E-16	3.212213E-17
4.780000E+03	1.824864E-16	3.194872E-17
4.790000E+03	1.819390E-16	3.176838E-17
4.800000E+03	1.813788E-16	3.158589E-17
4.810000E+03	1.808325E-16	3.140595E-17
4.820000E+03	1.802472E-16	3.121936E-17
4.830000E+03	1.796498E-16	3.103081E-17
4.840000E+03	1.790668E-16	3.084491E-17
4.850000E+03	1.784458E-16	3.065262E-17
4.860000E+03	1.778136E-16	3.045861E-17
4.870000E+03	1.771705E-16	3.026291E-17
4.880000E+03	1.765168E-16	3.006564E-17
4.890000E+03	1.758788E-16	2.987121E-17
4.900000E+03	1.752050E-16	2.967094E-17
4.910000E+03	1.745217E-16	2.946932E-17
4.920000E+03	1.738294E-16	2.926643E-17
4.930000E+03	1.731285E-16	2.906234E-17
4.940000E+03	1.724194E-16	2.885715E-17
4.950000E+03	1.717025E-16	2.865094E-17
4.960000E+03	1.709783E-16	2.844382E-17
4.970000E+03	1.702472E-16	2.823585E-17
4.980000E+03	1.695096E-16	2.802712E-17
4.990000E+03	1.687416E-16	2.781370E-17
5.000000E+03	1.679928E-16	2.760378E-17
5.010000E+03	1.672391E-16	2.739340E-17
5.020000E+03	1.664809E-16	2.718263E-17
5.030000E+03	1.657187E-16	2.697156E-17
5.040000E+03	1.649290E-16	2.675639E-17
5.050000E+03	1.641605E-16	2.654504E-17
5.060000E+03	1.633895E-16	2.633366E-17
5.070000E+03	1.625929E-16	2.611854E-17
5.080000E+03	1.618185E-16	2.590740E-17
5.090000E+03	1.610431E-16	2.569650E-17
5.100000E+03	1.602441E-16	2.548222E-17
5.110000E+03	1.594683E-16	2.527206E-17
5.120000E+03	1.586700E-16	2.505874E-17
5.130000E+03	1.578958E-16	2.484966E-17
5.140000E+03	1.571003E-16	2.463763E-17
5.150000E+03	1.563069E-16	2.442639E-17
5.160000E+03	1.555387E-16	2.421950E-17
5.170000E+03	1.547509E-16	2.401000E-17
5.180000E+03	1.539666E-16	2.380148E-17
5.190000E+03	1.532084E-16	2.359743E-17
5.200000E+03	1.524323E-16	2.339105E-17
5.210000E+03	1.516611E-16	2.318586E-17
5.220000E+03	1.508951E-16	2.298192E-17
5.230000E+03	1.501565E-16	2.278257E-17
5.240000E+03	1.494020E-16	2.258126E-17
5.250000E+03	1.486540E-16	2.238134E-17
5.260000E+03	1.479128E-16	2.218290E-17
5.270000E+03	1.471788E-16	2.198596E-17
5.280000E+03	1.464525E-16	2.179060E-17
5.290000E+03	1.457340E-16	2.159683E-17
5.300000E+03	1.450238E-16	2.140471E-17
5.310000E+03	1.443222E-16	2.121427E-17
5.320000E+03	1.436295E-16	2.102555E-17
5.330000E+03	1.429460E-16	2.083859E-17
5.340000E+03	1.422721E-16	2.065342E-17
5.350000E+03	1.416080E-16	2.047007E-17
5.360000E+03	1.409338E-16	2.028565E-17
5.370000E+03	1.402903E-16	2.010605E-17
5.380000E+03	1.396575E-16	1.992834E-17
5.390000E+03	1.390357E-16	1.975257E-17
5.400000E+03	1.384051E-16	1.957590E-17
5.410000E+03	1.378058E-16	1.940404E-17
5.420000E+03	1.372182E-16	1.923415E-17
5.430000E+03	1.366227E-16	1.906349E-17
5.440000E+03	1.360590E-16	1.889759E-17
5.450000E+03	1.354880E-16	1.873100E-17
5.460000E+03	1.349488E-16	1.856912E-17
5.470000E+03	1.344030E-16	1.840661E-17
5.480000E+03	1.338893E-16	1.824879E-17
5.490000E+03	1.333692E-16	1.809037E-17
5.500000E+03	1.328813E-16	1.793659E-17
5.510000E+03	1.323876E-16	1.778227E-17
5.520000E+03	1.319262E-16	1.763253E-17
5.530000E+03	1.314593E-16	1.748228E-17
5.540000E+03	1.310060E-16	1.733406E-17
5.550000E+03	1.305852E-16	1.719035E-17
5.560000E+03	1.301595E-16	1.704616E-17
5.570000E+03	1.297476E-16	1.690399E-17
5.580000E+03	1.293498E-16	1.676381E-17
5.590000E+03	1.289661E-16	1.662562E-17
5.600000E+03	1.286148E-16	1.649175E-17
5.610000E+03	1.282593E-16	1.635745E-17
5.620000E+03	1.279181E-16	1.622508E-17
5.630000E+03	1.275910E-16	1.609463E-17
5.640000E+03	1.272784E-16	1.596607E-17
5.650000E+03	1.269800E-16	1.583937E-17
5.660000E+03	1.266958E-16	1.571452E-17
5.670000E+03	1.264260E-16	1.559148E-17
5.680000E+03	1.261705E-16	1.547025E-17
5.690000E+03	1.259291E-16	1.535076E-17
5.700000E+03	1.257020E-16	1.523300E-17
5.710000E+03	1.254889E-16	1.511694E-17
5.720000E+03	1.252898E-16	1.500254E-17
5.730000E+03	1.250867E-16	1.488762E-17
5.740000E+03	1.249152E-16	1.477643E-17
5.750000E+03	1.247573E-16	1.466679E-17
5.760000E+03	1.246128E-16	1.455864E-17
5.770000E+03	1.244636E-16	1.444985E-17
5.780000E+03	1.243453E-16	1.434456E-17
5.790000E+03	1.242395E-16	1.424060E-17
5.800000E+03	1.241284E-16	1.413592E-17
5.810000E+03	1.240470E-16	1.403449E-17
5.820000E+03	1.239773E-16	1.393424E-17
5.830000E+03	1.239012E-16	1.383313E-17
5.840000E+03	1.238537E-16	1.373505E-17
5.850000E+03	1.237989E-16	1.363601E-17
5.860000E+03	1.237716E-16	1.353983E-17
5.870000E+03	1.237360E-16	1.344258E-17
5.880000E+03	1.237269E-16	1.334802E-17
5.890000E+03	1.237082E-16	1.325226E-17
5.900000E+03	1.237146E-16	1.315901E-17
5.910000E+03	1.237101E-16	1.306442E-17
5.920000E+03	1.237294E-16	1.297216E-17
5.930000E+03	1.237362E-16	1.287843E-17
5.940000E+03	1.237473E-16	1.278499E-17
5.950000E+03	1.237797E-16	1.269358E-17
5.960000E+03	1.237970E-16	1.260048E-17
5.970000E+03	1.238159E-16	1.250741E-17
5.980000E+03	1.238355E-16	1.241430E-17
5.990000E+03	1.238724E-16	1.232281E-17
6.000000E+03	1.238901E-16	1.222932E-17
6.010000E+03	1.239052E-16	1.213550E-17
6.020000E+03	1.239165E-16	1.204129E-17
6.030000E+03	1.239230E-16	1.194658E-17
6.040000E+03	1.239411E-16	1.185300E-17
6.050000E+03	1.239342E-16	1.175706E-17
6.060000E+03	1.239186E-16	1.166037E-17
6.070000E+03	1.238933E-16	1.156288E-17
6.080000E+03	1.238567E-16	1.146449E-17
6.090000E+03	1.238079E-16	1.136516E-17
6.100000E+03	1.237454E-16	1.126481E-17
6.110000E+03	1.236680E-16	1.116340E-17
6.120000E+03	1.235744E-16	1.106086E-17
6.130000E+03	1.234634E-16	1.095715E-17
6.140000E+03	1.233338E-16	1.085223E-17
6.150000E+03	1.231845E-16	1.074608E-17
6.160000E+03	1.230143E-16	1.063867E-17
6.170000E+03	1.228222E-16	1.052999E-17
6.180000E+03	1.225898E-16	1.041856E-17
6.190000E+03	1.223511E-16	1.030736E-17
6.200000E+03	1.220876E-16	1.019490E-17
6.210000E+03	1.217988E-16	1.008122E-17
6.220000E+03	1.214838E-16	9.966349E-18
6.230000E+03	1.211248E-16	9.848916E-18
6.240000E+03	1.207560E-16	9.731821E-18
6.250000E+03	1.203597E-16	9.613703E-18
6.260000E+03	1.199355E-16	9.494626E-18
6.270000E+03	1.194661E-16	9.373336E-18
6.280000E+03	1.189856E-16	9.252615E-18
6.290000E+03	1.184771E-16	9.131221E-18
6.300000E+03	1.179236E-16	9.007954E-18
6.310000E+03	1.173592E-16	8.885532E-18
6.320000E+03	1.167673E-16	8.762765E-18
6.330000E+03	1.161316E-16	8.638537E-18
6.340000E+03	1.154861E-16	8.515479E-18
6.350000E+03	1.147981E-16	8.391268E-18
6.360000E+03	1.141013E-16	8.268457E-18
6.370000E+03	1.133637E-16	8.144810E-18
6.380000E+03	1.126187E-16	8.022817E-18
6.390000E+03	1.118351E-16	7.900324E-18
6.400000E+03	1.110458E-16	7.779741E-18
6.410000E+03	1.102202E-16	7.658988E-18
6.420000E+03	1.093911E-16	7.540425E-18
6.430000E+03	1.085282E-16	7.422014E-18
6.440000E+03	1.076641E-16	7.306059E-18
6.450000E+03	1.067692E-16	7.190592E-18
6.460000E+03	1.058604E-16	7.076823E-18
6.470000E+03	1.049541E-16	6.965883E-18
6.480000E+03	1.040217E-16	6.855909E-18
6.490000E+03	1.030797E-16	6.748039E-18
6.500000E+03	1.021443E-16	6.643362E-18
6.510000E+03	1.011878E-16	6.540085E-18
6.520000E+03	1.002263E-16	6.439285E-18
6.530000E+03	9.927556E-17	6.341989E-18
6.540000E+03	9.830863E-17	6.246474E-18
6.550000E+03	9.734138E-17	6.153767E-18
6.560000E+03	9.637517E-17	6.063951E-18
6.570000E+03	9.542531E-17	5.977979E-18
6.580000E+03	9.446575E-17	5.894209E-18
6.590000E+03	9.351166E-17	5.813576E-18
6.600000E+03	9.256436E-17	5.736144E-18
6.610000E+03	9.162535E-17	5.661983E-18
6.620000E+03	9.069580E-17	5.591137E-18
6.630000E+03	8.978980E-17	5.524441E-18
6.640000E+03	8.888278E-17	5.460347E-18
6.650000E+03	8.798881E-17	5.399686E-18
6.660000E+03	8.710892E-17	5.342477E-18
6.670000E+03	8.624419E-17	5.288744E-18
6.680000E+03	8.539552E-17	5.238489E-18
6.690000E+03	8.456366E-17	5.191665E-18
6.700000E+03	8.374947E-17	5.148224E-18
6.710000E+03	8.295368E-17	5.108112E-18
6.720000E+03	8.217687E-17	5.071265E-18
6.730000E+03	8.141960E-17	5.037623E-18
6.740000E+03	8.068244E-17	5.007127E-18
6.750000E+03	7.996583E-17	4.979712E-18
6.760000E+03	7.927026E-17	4.955321E-18
6.770000E+03	7.859608E-17	4.933892E-18
6.780000E+03	7.794367E-17	4.915366E-18
6.790000E+03	7.731337E-17	4.899687E-18
6.800000E+03	7.670551E-17	4.886804E-18
6.810000E+03	7.612045E-17	4.876669E-18
6.820000E+03	7.554768E-17	4.868540E-18
6.830000E+03	7.500941E-17	4.863782E-18
6.840000E+03	7.449510E-17	4.861666E-18
6.850000E+03	7.400520E-17	4.862170E-18
6.860000E+03	7.354012E-17	4.865273E-18
6.870000E+03	7.310009E-17	4.870949E-18
6.880000E+03	7.267469E-17	4.878463E-18
6.890000E+03	7.228467E-17	4.889167E-18
6.900000E+03	7.191913E-17	4.902307E-18
6.910000E+03	7.157766E-17	4.917829E-18
6.920000E+03	7.124961E-17	4.934971E-18
6.930000E+03	7.095518E-17	4.955110E-18
6.940000E+03	7.068377E-17	4.977500E-18
6.950000E+03	7.043510E-17	5.002107E-18
6.960000E+03	7.019880E-17	5.028179E-18
6.970000E+03	6.999489E-17	5.057135E-18
6.980000E+03	6.981296E-17	5.088231E-18
6.990000E+03	6.964270E-17	5.120708E-18
7.000000E+03	6.950394E-17	5.156015E-18
7.010000E+03	6.937628E-17	5.192649E-18
7.020000E+03	6.927939E-17	5.232078E-18
7.030000E+03	6.920286E-17	5.273535E-18
7.040000E+03	6.913628E-17	5.316229E-18
7.050000E+03	6.909914E-17	5.361658E-18
7.060000E+03	6.907099E-17	5.408251E-18
7.070000E+03	6.907121E-17	5.457530E-18
7.080000E+03	6.907925E-17	5.507889E-18
7.090000E+03	6.911445E-17	5.560873E-18
7.100000E+03	6.915616E-17	5.614840E-18
7.110000E+03	6.922367E-17	5.671359E-18
7.120000E+03	6.929621E-17	5.728749E-18
7.130000E+03	6.939307E-17	5.788605E-18
7.140000E+03	6.949334E-17	5.849203E-18
7.150000E+03	6.961632E-17	5.912167E-18
7.160000E+03	6.974098E-17	5.975729E-18
7.170000E+03	6.988661E-17	6.041540E-18
7.180000E+03	7.003209E-17	6.107789E-18
7.190000E+03	7.018656E-17	6.175263E-18
7.200000E+03	7.035926E-17	6.244785E-18
7.210000E+03	7.052885E-17	6.314472E-18
7.220000E+03	7.071475E-17	6.386054E-18
7.230000E+03	7.089549E-17	6.457598E-18
7.240000E+03	7.108026E-17	6.529924E-18
7.250000E+03	7.126805E-17	6.602932E-18
7.260000E+03	7.146820E-17	6.677489E-18
7.270000E+03	7.165895E-17	6.751562E-18
7.280000E+03	7.184964E-17	6.826001E-18
7.290000E+03	7.204967E-17	6.901698E-18
7.300000E+03	7.223716E-17	6.976547E-18
7.310000E+03	7.242153E-17	7.051425E-18
7.320000E+03	7.260177E-17	7.126214E-18
7.330000E+03	7.277691E-17	7.200800E-18
7.340000E+03	7.295659E-17	7.276120E-18
7.350000E+03	7.311872E-17	7.349954E-18
7.360000E+03	7.327294E-17	7.423229E-18
7.370000E+03	7.341839E-17	7.495828E-18
7.380000E+03	7.355422E-17	7.567634E-18
7.390000E+03	7.367963E-17	7.638534E-18
7.400000E+03	7.379384E-17	7.708412E-18
7.410000E+03	7.390689E-17	7.778291E-18
7.420000E+03	7.399657E-17	7.845807E-18
7.430000E+03	7.407300E-17	7.911976E-18
7.440000E+03	7.413558E-17	7.976696E-18
7.450000E+03	7.418376E-17	8.039870E-18
7.460000E+03	7.421705E-17	8.101403E-18
7.470000E+03	7.423502E-17	8.161206E-18
7.480000E+03	7.423725E-17	8.219194E-18
7.490000E+03	7.422343E-17	8.275286E-18
7.500000E+03	7.419326E-17	8.329410E-18
7.510000E+03	7.414652E-17	8.381495E-18
7.520000E+03	7.408302E-17	8.431479E-18
7.530000E+03	7.400265E-17	8.479306E-18
7.540000E+03	7.390533E-17	8.524924E-18
7.550000E+03	7.378025E-17	8.567035E-18
7.560000E+03	7.364906E-17	8.608101E-18
7.570000E+03	7.350101E-17	8.646843E-18
7.580000E+03	7.333624E-17	8.683235E-18
7.590000E+03	7.315494E-17	8.717261E-18
7.600000E+03	7.295733E-17	8.748905E-18
7.610000E+03	7.274368E-17	8.778161E-18
7.620000E+03	7.250369E-17	8.803740E-18
7.630000E+03	7.225899E-17	8.828223E-18
7.640000E+03	7.199932E-17	8.850338E-18
7.650000E+03	7.172509E-17	8.870100E-18
7.660000E+03	7.142629E-17	8.886229E-18
7.670000E+03	7.112441E-17	8.901359E-18
7.680000E+03	7.080944E-17	8.914223E-18
7.690000E+03	7.048189E-17	8.924859E-18
7.700000E+03	7.013204E-17	8.931996E-18
7.710000E+03	6.978109E-17	8.938304E-18
7.720000E+03	6.941926E-17	8.942522E-18
7.730000E+03	6.903699E-17	8.943386E-18
7.740000E+03	6.865524E-17	8.943584E-18
7.750000E+03	6.826439E-17	8.941858E-18
7.760000E+03	6.785504E-17	8.936953E-18
