#wls	flux	fluxerr
1.600000E+03	1.963541E-17	5.151119E-18
1.640000E+03	2.021144E-17	5.296612E-18
1.680000E+03	2.081755E-17	5.449484E-18
1.720000E+03	2.145542E-17	5.610124E-18
1.760000E+03	2.213063E-17	5.779945E-18
1.800000E+03	2.284136E-17	5.958413E-18
1.840000E+03	2.358952E-17	6.145964E-18
1.880000E+03	2.438140E-17	6.344173E-18
1.920000E+03	2.521507E-17	6.552468E-18
1.960000E+03	2.609276E-17	6.771351E-18
2.000000E+03	2.702148E-17	7.002556E-18
2.040000E+03	2.799922E-17	7.245476E-18
2.080000E+03	2.902847E-17	7.500656E-18
2.120000E+03	3.011703E-17	7.770008E-18
2.160000E+03	3.126274E-17	8.052858E-18
2.200000E+03	3.247392E-17	8.351230E-18
2.240000E+03	3.374823E-17	8.664386E-18
2.280000E+03	3.508857E-17	8.992931E-18
2.320000E+03	3.650414E-17	9.339067E-18
2.360000E+03	3.799213E-17	9.701912E-18
2.400000E+03	3.955556E-17	1.008206E-17
2.440000E+03	4.120445E-17	1.048187E-17
2.480000E+03	4.294257E-17	1.090210E-17
2.520000E+03	4.476615E-17	1.134156E-17
2.560000E+03	4.667805E-17	1.180076E-17
2.600000E+03	4.868099E-17	1.228012E-17
2.640000E+03	5.079460E-17	1.278433E-17
2.680000E+03	5.299663E-17	1.330750E-17
2.720000E+03	5.530662E-17	1.385424E-17
2.760000E+03	5.771784E-17	1.442254E-17
2.800000E+03	6.024169E-17	1.501492E-17
2.840000E+03	6.288039E-17	1.563155E-17
2.880000E+03	6.561395E-17	1.626709E-17
2.920000E+03	6.846358E-17	1.692644E-17
2.960000E+03	7.142983E-17	1.760929E-17
3.000000E+03	7.450043E-17	1.831218E-17
3.010000E+03	7.528413E-17	1.849093E-17
3.020000E+03	7.607419E-17	1.867085E-17
3.030000E+03	7.687052E-17	1.885192E-17
3.040000E+03	7.767311E-17	1.903414E-17
3.050000E+03	7.848189E-17	1.921747E-17
3.060000E+03	7.929680E-17	1.940190E-17
3.070000E+03	8.013081E-17	1.959058E-17
3.080000E+03	8.095791E-17	1.977716E-17
3.090000E+03	8.179094E-17	1.996476E-17
3.100000E+03	8.262983E-17	2.015336E-17
3.110000E+03	8.348805E-17	2.034624E-17
3.120000E+03	8.433855E-17	2.053680E-17
3.130000E+03	8.519467E-17	2.072827E-17
3.140000E+03	8.607023E-17	2.092401E-17
3.150000E+03	8.693742E-17	2.111726E-17
3.160000E+03	8.780994E-17	2.131134E-17
3.170000E+03	8.870201E-17	2.150968E-17
3.180000E+03	8.958500E-17	2.170535E-17
3.190000E+03	9.048757E-17	2.190527E-17
3.200000E+03	9.138060E-17	2.210238E-17
3.210000E+03	9.229324E-17	2.230374E-17
3.220000E+03	9.319580E-17	2.250215E-17
3.230000E+03	9.411800E-17	2.270480E-17
3.240000E+03	9.502959E-17	2.290436E-17
3.250000E+03	9.596080E-17	2.310813E-17
3.260000E+03	9.689637E-17	2.331241E-17
3.270000E+03	9.782051E-17	2.351340E-17
3.280000E+03	9.876423E-17	2.371855E-17
3.290000E+03	9.969594E-17	2.392027E-17
3.300000E+03	1.006472E-16	2.412612E-17
3.310000E+03	1.016020E-16	2.433225E-17
3.320000E+03	1.025602E-16	2.453863E-17
3.330000E+03	1.035052E-16	2.474127E-17
3.340000E+03	1.044696E-16	2.494796E-17
3.350000E+03	1.054368E-16	2.515473E-17
3.360000E+03	1.064067E-16	2.536155E-17
3.370000E+03	1.073792E-16	2.556837E-17
3.380000E+03	1.083367E-16	2.577101E-17
3.390000E+03	1.093134E-16	2.597763E-17
3.400000E+03	1.102919E-16	2.618404E-17
3.410000E+03	1.112721E-16	2.639021E-17
3.420000E+03	1.122538E-16	2.659612E-17
3.430000E+03	1.132366E-16	2.680165E-17
3.440000E+03	1.142205E-16	2.700679E-17
3.450000E+03	1.152052E-16	2.721147E-17
3.460000E+03	1.161904E-16	2.741561E-17
3.470000E+03	1.171761E-16	2.761919E-17
3.480000E+03	1.181617E-16	2.782209E-17
3.490000E+03	1.191473E-16	2.802430E-17
3.500000E+03	1.201325E-16	2.822574E-17
3.510000E+03	1.211170E-16	2.842634E-17
3.520000E+03	1.221005E-16	2.862603E-17
3.530000E+03	1.230830E-16	2.882477E-17
3.540000E+03	1.240642E-16	2.902249E-17
3.550000E+03	1.250436E-16	2.921911E-17
3.560000E+03	1.260212E-16	2.941458E-17
3.570000E+03	1.270164E-16	2.961345E-17
3.580000E+03	1.279894E-16	2.980643E-17
3.590000E+03	1.289599E-16	2.999809E-17
3.600000E+03	1.299273E-16	3.018832E-17
3.610000E+03	1.308916E-16	3.037708E-17
3.620000E+03	1.318525E-16	3.056432E-17
3.630000E+03	1.328301E-16	3.075469E-17
3.640000E+03	1.337834E-16	3.093867E-17
3.650000E+03	1.347323E-16	3.112090E-17
3.660000E+03	1.356768E-16	3.130136E-17
3.670000E+03	1.366164E-16	3.147995E-17
3.680000E+03	1.375723E-16	3.166151E-17
3.690000E+03	1.385017E-16	3.183624E-17
3.700000E+03	1.394256E-16	3.200890E-17
3.710000E+03	1.403436E-16	3.217949E-17
3.720000E+03	1.412773E-16	3.235288E-17
3.730000E+03	1.421831E-16	3.251910E-17
3.740000E+03	1.430823E-16	3.268305E-17
3.750000E+03	1.439748E-16	3.284468E-17
3.760000E+03	1.448822E-16	3.300895E-17
3.770000E+03	1.457605E-16	3.316579E-17
3.780000E+03	1.466312E-16	3.332013E-17
3.790000E+03	1.475165E-16	3.347701E-17
3.800000E+03	1.483716E-16	3.362625E-17
3.810000E+03	1.492185E-16	3.377285E-17
3.820000E+03	1.500569E-16	3.391674E-17
3.830000E+03	1.509098E-16	3.406311E-17
3.840000E+03	1.517309E-16	3.420153E-17
3.850000E+03	1.525431E-16	3.433715E-17
3.860000E+03	1.533692E-16	3.447512E-17
3.870000E+03	1.541630E-16	3.460503E-17
3.880000E+03	1.549470E-16	3.473197E-17
3.890000E+03	1.557215E-16	3.485599E-17
3.900000E+03	1.565097E-16	3.498228E-17
3.910000E+03	1.572643E-16	3.510028E-17
3.920000E+03	1.580087E-16	3.521523E-17
3.930000E+03	1.587667E-16	3.533243E-17
3.940000E+03	1.594904E-16	3.544121E-17
3.950000E+03	1.602037E-16	3.554690E-17
3.960000E+03	1.609061E-16	3.564941E-17
3.970000E+03	1.616221E-16	3.575415E-17
3.980000E+03	1.623031E-16	3.585035E-17
3.990000E+03	1.629730E-16	3.594335E-17
4.000000E+03	1.636319E-16	3.603315E-17
4.010000E+03	1.643041E-16	3.612512E-17
4.020000E+03	1.649407E-16	3.620849E-17
4.030000E+03	1.655661E-16	3.628865E-17
4.040000E+03	1.661802E-16	3.636557E-17
4.050000E+03	1.668076E-16	3.644465E-17
4.060000E+03	1.673990E-16	3.651510E-17
4.070000E+03	1.679789E-16	3.658232E-17
4.080000E+03	1.685474E-16	3.664628E-17
4.090000E+03	1.691044E-16	3.670703E-17
4.100000E+03	1.696750E-16	3.676997E-17
4.110000E+03	1.702091E-16	3.682427E-17
4.120000E+03	1.707317E-16	3.687536E-17
4.130000E+03	1.712428E-16	3.692324E-17
4.140000E+03	1.717424E-16	3.696793E-17
4.150000E+03	1.722305E-16	3.700942E-17
4.160000E+03	1.727072E-16	3.704774E-17
4.170000E+03	1.731725E-16	3.708293E-17
4.180000E+03	1.736263E-16	3.711495E-17
4.190000E+03	1.740688E-16	3.714384E-17
4.200000E+03	1.745255E-16	3.717507E-17
4.210000E+03	1.749453E-16	3.719774E-17
4.220000E+03	1.753537E-16	3.721732E-17
4.230000E+03	1.757509E-16	3.723381E-17
4.240000E+03	1.761111E-16	3.724183E-17
4.250000E+03	1.764858E-16	3.725223E-17
4.260000E+03	1.768491E-16	3.725959E-17
4.270000E+03	1.772015E-16	3.726397E-17
4.280000E+03	1.775425E-16	3.726532E-17
4.290000E+03	1.778725E-16	3.726370E-17
4.300000E+03	1.781913E-16	3.725908E-17
4.310000E+03	1.784990E-16	3.725154E-17
4.320000E+03	1.787955E-16	3.724100E-17
4.330000E+03	1.790551E-16	3.722216E-17
4.340000E+03	1.793294E-16	3.720578E-17
4.350000E+03	1.795926E-16	3.718649E-17
4.360000E+03	1.798447E-16	3.716429E-17
4.370000E+03	1.800597E-16	3.713381E-17
4.380000E+03	1.802894E-16	3.710580E-17
4.390000E+03	1.805079E-16	3.707491E-17
4.400000E+03	1.806892E-16	3.703579E-17
4.410000E+03	1.808852E-16	3.699912E-17
4.420000E+03	1.810699E-16	3.695958E-17
4.430000E+03	1.812171E-16	3.691184E-17
4.440000E+03	1.813789E-16	3.686654E-17
4.450000E+03	1.815032E-16	3.681306E-17
4.460000E+03	1.816418E-16	3.676199E-17
4.470000E+03	1.817428E-16	3.670276E-17
4.480000E+03	1.818581E-16	3.664592E-17
4.490000E+03	1.819354E-16	3.658094E-17
4.500000E+03	1.820008E-16	3.651308E-17
4.510000E+03	1.820802E-16	3.644753E-17
4.520000E+03	1.821213E-16	3.637387E-17
4.530000E+03	1.821502E-16	3.629730E-17
4.540000E+03	1.821927E-16	3.622299E-17
4.550000E+03	1.821968E-16	3.614059E-17
4.560000E+03	1.821881E-16	3.605526E-17
4.570000E+03	1.821667E-16	3.596699E-17
4.580000E+03	1.821325E-16	3.587579E-17
4.590000E+03	1.821111E-16	3.578672E-17
4.600000E+03	1.820506E-16	3.568957E-17
4.610000E+03	1.819770E-16	3.558949E-17
4.620000E+03	1.818899E-16	3.548642E-17
4.630000E+03	1.817893E-16	3.538038E-17
4.640000E+03	1.816751E-16	3.527136E-17
4.650000E+03	1.815472E-16	3.515934E-17
4.660000E+03	1.814053E-16	3.504435E-17
4.670000E+03	1.812496E-16	3.492637E-17
4.680000E+03	1.810543E-16	3.480051E-17
4.690000E+03	1.808704E-16	3.467661E-17
4.700000E+03	1.806723E-16	3.454973E-17
4.710000E+03	1.804600E-16	3.441989E-17
4.720000E+03	1.802079E-16	3.428226E-17
4.730000E+03	1.799670E-16	3.414658E-17
4.740000E+03	1.797117E-16	3.400797E-17
4.750000E+03	1.794168E-16	3.386172E-17
4.760000E+03	1.791329E-16	3.371738E-17
4.770000E+03	1.788095E-16	3.356550E-17
4.780000E+03	1.784971E-16	3.341555E-17
4.790000E+03	1.781455E-16	3.325819E-17
4.800000E+03	1.778049E-16	3.310279E-17
4.810000E+03	1.774254E-16	3.294010E-17
4.820000E+03	1.770570E-16	3.277942E-17
4.830000E+03	1.766504E-16	3.261163E-17
4.840000E+03	1.762305E-16	3.244138E-17
4.850000E+03	1.758219E-16	3.227322E-17
4.860000E+03	1.753760E-16	3.209820E-17
4.870000E+03	1.749174E-16	3.192091E-17
4.880000E+03	1.744465E-16	3.174145E-17
4.890000E+03	1.739637E-16	3.155986E-17
4.900000E+03	1.734691E-16	3.137622E-17
4.910000E+03	1.729633E-16	3.119063E-17
4.920000E+03	1.724465E-16	3.100317E-17
4.930000E+03	1.719191E-16	3.081393E-17
4.940000E+03	1.713814E-16	3.062296E-17
4.950000E+03	1.708340E-16	3.043041E-17
4.960000E+03	1.702772E-16	3.023634E-17
4.970000E+03	1.697114E-16	3.004084E-17
4.980000E+03	1.691372E-16	2.984401E-17
4.990000E+03	1.685315E-16	2.964184E-17
5.000000E+03	1.679416E-16	2.944267E-17
5.010000E+03	1.673447E-16	2.924247E-17
5.020000E+03	1.667181E-16	2.903731E-17
5.030000E+03	1.661085E-16	2.883535E-17
5.040000E+03	1.654702E-16	2.862868E-17
5.050000E+03	1.648497E-16	2.842534E-17
5.060000E+03	1.642018E-16	2.821755E-17
5.070000E+03	1.635725E-16	2.801321E-17
5.080000E+03	1.629168E-16	2.780466E-17
5.090000E+03	1.622803E-16	2.759967E-17
5.100000E+03	1.616187E-16	2.739072E-17
5.110000E+03	1.609550E-16	2.718172E-17
5.120000E+03	1.602895E-16	2.697274E-17
5.130000E+03	1.596446E-16	2.676756E-17
5.140000E+03	1.589769E-16	2.655887E-17
5.150000E+03	1.583087E-16	2.635043E-17
5.160000E+03	1.576405E-16	2.614235E-17
5.170000E+03	1.569729E-16	2.593470E-17
5.180000E+03	1.563059E-16	2.572752E-17
5.190000E+03	1.556404E-16	2.552093E-17
5.200000E+03	1.549764E-16	2.531494E-17
5.210000E+03	1.543146E-16	2.510967E-17
5.220000E+03	1.536552E-16	2.490516E-17
5.230000E+03	1.529776E-16	2.469807E-17
5.240000E+03	1.523244E-16	2.449529E-17
5.250000E+03	1.516748E-16	2.429345E-17
5.260000E+03	1.510290E-16	2.409260E-17
5.270000E+03	1.503669E-16	2.388952E-17
5.280000E+03	1.497303E-16	2.369085E-17
5.290000E+03	1.490783E-16	2.349013E-17
5.300000E+03	1.484520E-16	2.329384E-17
5.310000E+03	1.478315E-16	2.309879E-17
5.320000E+03	1.471969E-16	2.290192E-17
5.330000E+03	1.465687E-16	2.270642E-17
5.340000E+03	1.459675E-16	2.251545E-17
5.350000E+03	1.453533E-16	2.232284E-17
5.360000E+03	1.447466E-16	2.213175E-17
5.370000E+03	1.441675E-16	2.194522E-17
5.380000E+03	1.435766E-16	2.175724E-17
5.390000E+03	1.429941E-16	2.157088E-17
5.400000E+03	1.424205E-16	2.138620E-17
5.410000E+03	1.418557E-16	2.120318E-17
5.420000E+03	1.413196E-16	2.102475E-17
5.430000E+03	1.407737E-16	2.084518E-17
5.440000E+03	1.402377E-16	2.066738E-17
5.450000E+03	1.397117E-16	2.049137E-17
5.460000E+03	1.391964E-16	2.031721E-17
5.470000E+03	1.386727E-16	2.014213E-17
5.480000E+03	1.381790E-16	1.997169E-17
5.490000E+03	1.376966E-16	1.980315E-17
5.500000E+03	1.372256E-16	1.963650E-17
5.510000E+03	1.367664E-16	1.947178E-17
5.520000E+03	1.363007E-16	1.930638E-17
5.530000E+03	1.358659E-16	1.914559E-17
5.540000E+03	1.354435E-16	1.898676E-17
5.550000E+03	1.350156E-16	1.882735E-17
5.560000E+03	1.346191E-16	1.867251E-17
5.570000E+03	1.342357E-16	1.851967E-17
5.580000E+03	1.338476E-16	1.836633E-17
5.590000E+03	1.334913E-16	1.821752E-17
5.600000E+03	1.331308E-16	1.806826E-17
5.610000E+03	1.327845E-16	1.792106E-17
5.620000E+03	1.324704E-16	1.777831E-17
5.630000E+03	1.321526E-16	1.763516E-17
5.640000E+03	1.318495E-16	1.749405E-17
5.650000E+03	1.315789E-16	1.735732E-17
5.660000E+03	1.313053E-16	1.722022E-17
5.670000E+03	1.310466E-16	1.708513E-17
5.680000E+03	1.308030E-16	1.695201E-17
5.690000E+03	1.305743E-16	1.682084E-17
5.700000E+03	1.303783E-16	1.669385E-17
5.710000E+03	1.301798E-16	1.656649E-17
5.720000E+03	1.299965E-16	1.644101E-17
5.730000E+03	1.298281E-16	1.631736E-17
5.740000E+03	1.296747E-16	1.619551E-17
5.750000E+03	1.295362E-16	1.607542E-17
5.760000E+03	1.293950E-16	1.595489E-17
5.770000E+03	1.292859E-16	1.583821E-17
5.780000E+03	1.291912E-16	1.572314E-17
5.790000E+03	1.291107E-16	1.560965E-17
5.800000E+03	1.290441E-16	1.549765E-17
5.810000E+03	1.289911E-16	1.538710E-17
5.820000E+03	1.289339E-16	1.527586E-17
5.830000E+03	1.289071E-16	1.516802E-17
5.840000E+03	1.288928E-16	1.506142E-17
5.850000E+03	1.288731E-16	1.495396E-17
5.860000E+03	1.288823E-16	1.484962E-17
5.870000E+03	1.288849E-16	1.474429E-17
5.880000E+03	1.289154E-16	1.464189E-17
5.890000E+03	1.289554E-16	1.454032E-17
5.900000E+03	1.289872E-16	1.443755E-17
5.910000E+03	1.290270E-16	1.433544E-17
5.920000E+03	1.290918E-16	1.423584E-17
5.930000E+03	1.291458E-16	1.413479E-17
5.940000E+03	1.292229E-16	1.403602E-17
5.950000E+03	1.292873E-16	1.393561E-17
5.960000E+03	1.293553E-16	1.383538E-17
5.970000E+03	1.294437E-16	1.373708E-17
5.980000E+03	1.295162E-16	1.363689E-17
5.990000E+03	1.295892E-16	1.353655E-17
6.000000E+03	1.296615E-16	1.343598E-17
6.010000E+03	1.297320E-16	1.333507E-17
6.020000E+03	1.298169E-16	1.323549E-17
6.030000E+03	1.298799E-16	1.313358E-17
6.040000E+03	1.299371E-16	1.303101E-17
6.050000E+03	1.299874E-16	1.292771E-17
6.060000E+03	1.300293E-16	1.282357E-17
6.070000E+03	1.300614E-16	1.271851E-17
6.080000E+03	1.300824E-16	1.261244E-17
6.090000E+03	1.300909E-16	1.250530E-17
6.100000E+03	1.300855E-16	1.239700E-17
6.110000E+03	1.300648E-16	1.228748E-17
6.120000E+03	1.300276E-16	1.217668E-17
6.130000E+03	1.299723E-16	1.206453E-17
6.140000E+03	1.298802E-16	1.194941E-17
6.150000E+03	1.297853E-16	1.183450E-17
6.160000E+03	1.296685E-16	1.171816E-17
6.170000E+03	1.295288E-16	1.160036E-17
6.180000E+03	1.293650E-16	1.148110E-17
6.190000E+03	1.291589E-16	1.135886E-17
6.200000E+03	1.289441E-16	1.123673E-17
6.210000E+03	1.287024E-16	1.111318E-17
6.220000E+03	1.284157E-16	1.098677E-17
6.230000E+03	1.281180E-16	1.086054E-17
6.240000E+03	1.277913E-16	1.073303E-17
6.250000E+03	1.274178E-16	1.060290E-17
6.260000E+03	1.270317E-16	1.047309E-17
6.270000E+03	1.265983E-16	1.034085E-17
6.280000E+03	1.261516E-16	1.020909E-17
6.290000E+03	1.256575E-16	1.007516E-17
6.300000E+03	1.251500E-16	9.941899E-18
6.310000E+03	1.245953E-16	9.806734E-18
6.320000E+03	1.240276E-16	9.672476E-18
6.330000E+03	1.234135E-16	9.536625E-18
6.340000E+03	1.227704E-16	9.400660E-18
6.350000E+03	1.221153E-16	9.265988E-18
6.360000E+03	1.214160E-16	9.130240E-18
6.370000E+03	1.207060E-16	8.996074E-18
6.380000E+03	1.199538E-16	8.861212E-18
6.390000E+03	1.191764E-16	8.727040E-18
6.400000E+03	1.183751E-16	8.593746E-18
6.410000E+03	1.175669E-16	8.462642E-18
6.420000E+03	1.167213E-16	8.331596E-18
6.430000E+03	1.158554E-16	8.201949E-18
6.440000E+03	1.149707E-16	8.073859E-18
6.450000E+03	1.140685E-16	7.947505E-18
6.460000E+03	1.131657E-16	7.824109E-18
6.470000E+03	1.122330E-16	7.701705E-18
6.480000E+03	1.112876E-16	7.581529E-18
6.490000E+03	1.103308E-16	7.463731E-18
6.500000E+03	1.093643E-16	7.348454E-18
6.510000E+03	1.083897E-16	7.235852E-18
6.520000E+03	1.074088E-16	7.126060E-18
6.530000E+03	1.064230E-16	7.019206E-18
6.540000E+03	1.054339E-16	6.915411E-18
6.550000E+03	1.044433E-16	6.814791E-18
6.560000E+03	1.034525E-16	6.717451E-18
6.570000E+03	1.024633E-16	6.623489E-18
6.580000E+03	1.014771E-16	6.533005E-18
6.590000E+03	1.004954E-16	6.446075E-18
6.600000E+03	9.951962E-17	6.362767E-18
6.610000E+03	9.855115E-17	6.283153E-18
6.620000E+03	9.757812E-17	6.206446E-18
6.630000E+03	9.662840E-17	6.134386E-18
6.640000E+03	9.568981E-17	6.066161E-18
6.650000E+03	9.476361E-17	6.001807E-18
6.660000E+03	9.385079E-17	5.941339E-18
6.670000E+03	9.295248E-17	5.884780E-18
6.680000E+03	9.205703E-17	5.831313E-18
6.690000E+03	9.119058E-17	5.782475E-18
6.700000E+03	9.034117E-17	5.737395E-18
6.710000E+03	8.949756E-17	5.695240E-18
6.720000E+03	8.868462E-17	5.657474E-18
6.730000E+03	8.789093E-17	5.623262E-18
6.740000E+03	8.710515E-17	5.591763E-18
6.750000E+03	8.635159E-17	5.564428E-18
6.760000E+03	8.561873E-17	5.540417E-18
6.770000E+03	8.489542E-17	5.518903E-18
6.780000E+03	8.420542E-17	5.501330E-18
6.790000E+03	8.352596E-17	5.486121E-18
6.800000E+03	8.288024E-17	5.474709E-18
6.810000E+03	8.225716E-17	5.466283E-18
6.820000E+03	8.164595E-17	5.460047E-18
6.830000E+03	8.106929E-17	5.457437E-18
6.840000E+03	8.050537E-17	5.456923E-18
6.850000E+03	7.997662E-17	5.459954E-18
6.860000E+03	7.946156E-17	5.465014E-18
6.870000E+03	7.897157E-17	5.472821E-18
6.880000E+03	7.851744E-17	5.484081E-18
6.890000E+03	7.807741E-17	5.497238E-18
6.900000E+03	7.767250E-17	5.513729E-18
6.910000E+03	7.728120E-17	5.531998E-18
6.920000E+03	7.691388E-17	5.552746E-18
6.930000E+03	7.658075E-17	5.576691E-18
6.940000E+03	7.626067E-17	5.602278E-18
6.950000E+03	7.596392E-17	5.630229E-18
6.960000E+03	7.570065E-17	5.661290E-18
6.970000E+03	7.544992E-17	5.693890E-18
6.980000E+03	7.522188E-17	5.728774E-18
6.990000E+03	7.501628E-17	5.765916E-18
7.000000E+03	7.484307E-17	5.806087E-18
7.010000E+03	7.468146E-17	5.847681E-18
7.020000E+03	7.454133E-17	5.891460E-18
7.030000E+03	7.442229E-17	5.937398E-18
7.040000E+03	7.432392E-17	5.985467E-18
7.050000E+03	7.425587E-17	6.036460E-18
7.060000E+03	7.419729E-17	6.088700E-18
7.070000E+03	7.415780E-17	6.142970E-18
7.080000E+03	7.413675E-17	6.199228E-18
7.090000E+03	7.413351E-17	6.257432E-18
7.100000E+03	7.414734E-17	6.317532E-18
7.110000E+03	7.417752E-17	6.379479E-18
7.120000E+03	7.422324E-17	6.443213E-18
7.130000E+03	7.428369E-17	6.508677E-18
7.140000E+03	7.435798E-17	6.575802E-18
7.150000E+03	7.444522E-17	6.644521E-18
7.160000E+03	7.454447E-17	6.714756E-18
7.170000E+03	7.465476E-17	6.786429E-18
7.180000E+03	7.477508E-17	6.859453E-18
7.190000E+03	7.490442E-17	6.933741E-18
7.200000E+03	7.504173E-17	7.009197E-18
7.210000E+03	7.518592E-17	7.085721E-18
7.220000E+03	7.533591E-17	7.163210E-18
7.230000E+03	7.549059E-17	7.241555E-18
7.240000E+03	7.563844E-17	7.319638E-18
7.250000E+03	7.579912E-17	7.399344E-18
7.260000E+03	7.596110E-17	7.479556E-18
7.270000E+03	7.612326E-17	7.560150E-18
7.280000E+03	7.628448E-17	7.641002E-18
7.290000E+03	7.643307E-17	7.720915E-18
7.300000E+03	7.658898E-17	7.801876E-18
7.310000E+03	7.674060E-17	7.882697E-18
7.320000E+03	7.688683E-17	7.963242E-18
7.330000E+03	7.701600E-17	8.042268E-18
7.340000E+03	7.714829E-17	8.121843E-18
7.350000E+03	7.727209E-17	8.200734E-18
7.360000E+03	7.737577E-17	8.277660E-18
7.370000E+03	7.747971E-17	8.354763E-18
7.380000E+03	7.756165E-17	8.429611E-18
7.390000E+03	7.764216E-17	8.504392E-18
7.400000E+03	7.770974E-17	8.577824E-18
7.410000E+03	7.775286E-17	8.648585E-18
7.420000E+03	7.779233E-17	8.718935E-18
7.430000E+03	7.780598E-17	8.786354E-18
7.440000E+03	7.781476E-17	8.853153E-18
7.450000E+03	7.779661E-17	8.916782E-18
7.460000E+03	7.777259E-17	8.979601E-18
7.470000E+03	7.772073E-17	9.039032E-18
7.480000E+03	7.766226E-17	9.097485E-18
7.490000E+03	7.757533E-17	9.152362E-18
7.500000E+03	7.747051E-17	9.204839E-18
7.510000E+03	7.735836E-17	9.256134E-18
7.520000E+03	7.721730E-17	9.303622E-18
7.530000E+03	7.706875E-17	9.349825E-18
7.540000E+03	7.689130E-17	9.392106E-18
7.550000E+03	7.669577E-17	9.431719E-18
7.560000E+03	7.648226E-17	9.468631E-18
7.570000E+03	7.626160E-17	9.504144E-18
7.580000E+03	7.601277E-17	9.535600E-18
7.590000E+03	7.574671E-17	9.564309E-18
7.600000E+03	7.546377E-17	9.590272E-18
7.610000E+03	7.517482E-17	9.614833E-18
7.620000E+03	7.485930E-17	9.635333E-18
7.630000E+03	7.452820E-17	9.653126E-18
7.640000E+03	7.418202E-17	9.668238E-18
7.650000E+03	7.382130E-17	9.680706E-18
7.660000E+03	7.344663E-17	9.690569E-18
7.670000E+03	7.305858E-17	9.697870E-18
7.680000E+03	7.266792E-17	9.704016E-18
7.690000E+03	7.225494E-17	9.706352E-18
7.700000E+03	7.183049E-17	9.706292E-18
7.710000E+03	7.139523E-17	9.703900E-18
7.720000E+03	7.094982E-17	9.699242E-18
7.730000E+03	7.049495E-17	9.692389E-18
7.740000E+03	7.003129E-17	9.683412E-18
7.750000E+03	6.955951E-17	9.672388E-18
7.760000E+03	6.907059E-17	9.658040E-18
