#wls	flux	fluxerr
1.600000E+03	2.488960E-17	5.389634E-18
1.640000E+03	2.566850E-17	5.537972E-18
1.680000E+03	2.648737E-17	5.693097E-18
1.720000E+03	2.734839E-17	5.855312E-18
1.760000E+03	2.825886E-17	6.025994E-18
1.800000E+03	2.921122E-17	6.203340E-18
1.840000E+03	3.021824E-17	6.389856E-18
1.880000E+03	3.127748E-17	6.584795E-18
1.920000E+03	3.238596E-17	6.787296E-18
1.960000E+03	3.356374E-17	7.001306E-18
2.000000E+03	3.479659E-17	7.223561E-18
2.040000E+03	3.609334E-17	7.455608E-18
2.080000E+03	3.746380E-17	7.699144E-18
2.120000E+03	3.890516E-17	7.953240E-18
2.160000E+03	4.042087E-17	8.218224E-18
2.200000E+03	4.201448E-17	8.494425E-18
2.240000E+03	4.368962E-17	8.782152E-18
2.280000E+03	4.545799E-17	9.083293E-18
2.320000E+03	4.730769E-17	9.394977E-18
2.360000E+03	4.925890E-17	9.720696E-18
2.400000E+03	5.130749E-17	1.005906E-17
2.440000E+03	5.345734E-17	1.041025E-17
2.480000E+03	5.572208E-17	1.077627E-17
2.520000E+03	5.808643E-17	1.115348E-17
2.560000E+03	6.057400E-17	1.154573E-17
2.600000E+03	6.317869E-17	1.195107E-17
2.640000E+03	6.590396E-17	1.236936E-17
2.680000E+03	6.875301E-17	1.280037E-17
2.720000E+03	7.174119E-17	1.324606E-17
2.760000E+03	7.484673E-17	1.370148E-17
2.800000E+03	7.809717E-17	1.417073E-17
2.840000E+03	8.148181E-17	1.465081E-17
2.880000E+03	8.500174E-17	1.514089E-17
2.920000E+03	8.865742E-17	1.563997E-17
2.960000E+03	9.246440E-17	1.614967E-17
3.000000E+03	9.640695E-17	1.666604E-17
3.010000E+03	9.740522E-17	1.679457E-17
3.020000E+03	9.841162E-17	1.692337E-17
3.030000E+03	9.944313E-17	1.705534E-17
3.040000E+03	1.004658E-16	1.718464E-17
3.050000E+03	1.015139E-16	1.731709E-17
3.060000E+03	1.025526E-16	1.744678E-17
3.070000E+03	1.036170E-16	1.757960E-17
3.080000E+03	1.046716E-16	1.770955E-17
3.090000E+03	1.057519E-16	1.784262E-17
3.100000E+03	1.068221E-16	1.797271E-17
3.110000E+03	1.079181E-16	1.810591E-17
3.120000E+03	1.090034E-16	1.823601E-17
3.130000E+03	1.101148E-16	1.836919E-17
3.140000E+03	1.112149E-16	1.849918E-17
3.150000E+03	1.123413E-16	1.863221E-17
3.160000E+03	1.134558E-16	1.876193E-17
3.170000E+03	1.145966E-16	1.889467E-17
3.180000E+03	1.157447E-16	1.902721E-17
3.190000E+03	1.168799E-16	1.915626E-17
3.200000E+03	1.180418E-16	1.928828E-17
3.210000E+03	1.191902E-16	1.941669E-17
3.220000E+03	1.203651E-16	1.954800E-17
3.230000E+03	1.215467E-16	1.967895E-17
3.240000E+03	1.227137E-16	1.980608E-17
3.250000E+03	1.239075E-16	1.993608E-17
3.260000E+03	1.250862E-16	2.006216E-17
3.270000E+03	1.262915E-16	2.019103E-17
3.280000E+03	1.275026E-16	2.031930E-17
3.290000E+03	1.286973E-16	2.044344E-17
3.300000E+03	1.299188E-16	2.057032E-17
3.310000E+03	1.311454E-16	2.069644E-17
3.320000E+03	1.323544E-16	2.081824E-17
3.330000E+03	1.335902E-16	2.094268E-17
3.340000E+03	1.348304E-16	2.106622E-17
3.350000E+03	1.360518E-16	2.118524E-17
3.360000E+03	1.372999E-16	2.130681E-17
3.370000E+03	1.385517E-16	2.142733E-17
3.380000E+03	1.398068E-16	2.154675E-17
3.390000E+03	1.410415E-16	2.166136E-17
3.400000E+03	1.423025E-16	2.177838E-17
3.410000E+03	1.435663E-16	2.189417E-17
3.420000E+03	1.448080E-16	2.200492E-17
3.430000E+03	1.460760E-16	2.211800E-17
3.440000E+03	1.473457E-16	2.222964E-17
3.450000E+03	1.486168E-16	2.233981E-17
3.460000E+03	1.498640E-16	2.244468E-17
3.470000E+03	1.511371E-16	2.255172E-17
3.480000E+03	1.524106E-16	2.265712E-17
3.490000E+03	1.536845E-16	2.276083E-17
3.500000E+03	1.549322E-16	2.285896E-17
3.510000E+03	1.562052E-16	2.295909E-17
3.520000E+03	1.574775E-16	2.305737E-17
3.530000E+03	1.587485E-16	2.315372E-17
3.540000E+03	1.600181E-16	2.324811E-17
3.550000E+03	1.612588E-16	2.333657E-17
3.560000E+03	1.625240E-16	2.342683E-17
3.570000E+03	1.637867E-16	2.351498E-17
3.580000E+03	1.650463E-16	2.360091E-17
3.590000E+03	1.662748E-16	2.368066E-17
3.600000E+03	1.675271E-16	2.376206E-17
3.610000E+03	1.687753E-16	2.384110E-17
3.620000E+03	1.700188E-16	2.391774E-17
3.630000E+03	1.712574E-16	2.399192E-17
3.640000E+03	1.724906E-16	2.406360E-17
3.650000E+03	1.736891E-16	2.412872E-17
3.660000E+03	1.749102E-16	2.419524E-17
3.670000E+03	1.761245E-16	2.425910E-17
3.680000E+03	1.773319E-16	2.432025E-17
3.690000E+03	1.785318E-16	2.437866E-17
3.700000E+03	1.796940E-16	2.443023E-17
3.710000E+03	1.808775E-16	2.448300E-17
3.720000E+03	1.820522E-16	2.453288E-17
3.730000E+03	1.832178E-16	2.457985E-17
3.740000E+03	1.843737E-16	2.462384E-17
3.750000E+03	1.855197E-16	2.466483E-17
3.760000E+03	1.866242E-16	2.469869E-17
3.770000E+03	1.877487E-16	2.473356E-17
3.780000E+03	1.888619E-16	2.476533E-17
3.790000E+03	1.899633E-16	2.479394E-17
3.800000E+03	1.910525E-16	2.481937E-17
3.810000E+03	1.920975E-16	2.483751E-17
3.820000E+03	1.931610E-16	2.485650E-17
3.830000E+03	1.942111E-16	2.487223E-17
3.840000E+03	1.952475E-16	2.488469E-17
3.850000E+03	1.962697E-16	2.489385E-17
3.860000E+03	1.972448E-16	2.489559E-17
3.870000E+03	1.982374E-16	2.489809E-17
3.880000E+03	1.992147E-16	2.489726E-17
3.890000E+03	2.001761E-16	2.489305E-17
3.900000E+03	2.011217E-16	2.488550E-17
3.910000E+03	2.020509E-16	2.487456E-17
3.920000E+03	2.029299E-16	2.485616E-17
3.930000E+03	2.038252E-16	2.483848E-17
3.940000E+03	2.047032E-16	2.481743E-17
3.950000E+03	2.055635E-16	2.479301E-17
3.960000E+03	2.064059E-16	2.476523E-17
3.970000E+03	2.071962E-16	2.473005E-17
3.980000E+03	2.080019E-16	2.469561E-17
3.990000E+03	2.087888E-16	2.465784E-17
4.000000E+03	2.095570E-16	2.461679E-17
4.010000E+03	2.102716E-16	2.456844E-17
4.020000E+03	2.110013E-16	2.452088E-17
4.030000E+03	2.117115E-16	2.447011E-17
4.040000E+03	2.124022E-16	2.441616E-17
4.050000E+03	2.130383E-16	2.435508E-17
4.060000E+03	2.136893E-16	2.429488E-17
4.070000E+03	2.143204E-16	2.423164E-17
4.080000E+03	2.149314E-16	2.416536E-17
4.090000E+03	2.154874E-16	2.409220E-17
4.100000E+03	2.160582E-16	2.402004E-17
4.110000E+03	2.166091E-16	2.394503E-17
4.120000E+03	2.171397E-16	2.386720E-17
4.130000E+03	2.176149E-16	2.378276E-17
4.140000E+03	2.181054E-16	2.369950E-17
4.150000E+03	2.185759E-16	2.361361E-17
4.160000E+03	2.189909E-16	2.352134E-17
4.170000E+03	2.194216E-16	2.343041E-17
4.180000E+03	2.198325E-16	2.333705E-17
4.190000E+03	2.201883E-16	2.323758E-17
4.200000E+03	2.205601E-16	2.313961E-17
4.210000E+03	2.209128E-16	2.303943E-17
4.220000E+03	2.212104E-16	2.293341E-17
4.230000E+03	2.215249E-16	2.282906E-17
4.240000E+03	2.218206E-16	2.272274E-17
4.250000E+03	2.220617E-16	2.261086E-17
4.260000E+03	2.223204E-16	2.250085E-17
4.270000E+03	2.225249E-16	2.238549E-17
4.280000E+03	2.227473E-16	2.227210E-17
4.290000E+03	2.229519E-16	2.215712E-17
4.300000E+03	2.231030E-16	2.203710E-17
4.310000E+03	2.232725E-16	2.191924E-17
4.320000E+03	2.233890E-16	2.179653E-17
4.330000E+03	2.235244E-16	2.167609E-17
4.340000E+03	2.236070E-16	2.155101E-17
4.350000E+03	2.237090E-16	2.142831E-17
4.360000E+03	2.237946E-16	2.130458E-17
4.370000E+03	2.238277E-16	2.117649E-17
4.380000E+03	2.238807E-16	2.105095E-17
4.390000E+03	2.238817E-16	2.092124E-17
4.400000E+03	2.239028E-16	2.079418E-17
4.410000E+03	2.238721E-16	2.066312E-17
4.420000E+03	2.238256E-16	2.053151E-17
4.430000E+03	2.237994E-16	2.040268E-17
4.440000E+03	2.237216E-16	2.027013E-17
4.450000E+03	2.236641E-16	2.014044E-17
4.460000E+03	2.235551E-16	2.000720E-17
4.470000E+03	2.234664E-16	1.987689E-17
4.480000E+03	2.233262E-16	1.974319E-17
4.490000E+03	2.231703E-16	1.960936E-17
4.500000E+03	2.230344E-16	1.947857E-17
4.510000E+03	2.228470E-16	1.934461E-17
4.520000E+03	2.226793E-16	1.921376E-17
4.530000E+03	2.224600E-16	1.907989E-17
4.540000E+03	2.222247E-16	1.894616E-17
4.550000E+03	2.220085E-16	1.881560E-17
4.560000E+03	2.217405E-16	1.868225E-17
4.570000E+03	2.214561E-16	1.854917E-17
4.580000E+03	2.211550E-16	1.841641E-17
4.590000E+03	2.208726E-16	1.828695E-17
4.600000E+03	2.205379E-16	1.815497E-17
4.610000E+03	2.201862E-16	1.802344E-17
4.620000E+03	2.198176E-16	1.789243E-17
4.630000E+03	2.194667E-16	1.776481E-17
4.640000E+03	2.190635E-16	1.763495E-17
4.650000E+03	2.186429E-16	1.750572E-17
4.660000E+03	2.182049E-16	1.737721E-17
4.670000E+03	2.177495E-16	1.724944E-17
4.680000E+03	2.173111E-16	1.712518E-17
4.690000E+03	2.168205E-16	1.699903E-17
4.700000E+03	2.163124E-16	1.687375E-17
4.710000E+03	2.157869E-16	1.674942E-17
4.720000E+03	2.152439E-16	1.662607E-17
4.730000E+03	2.146837E-16	1.650375E-17
4.740000E+03	2.141063E-16	1.638252E-17
4.750000E+03	2.135117E-16	1.626240E-17
4.760000E+03	2.129003E-16	1.614347E-17
4.770000E+03	2.122721E-16	1.602575E-17
4.780000E+03	2.116275E-16	1.590931E-17
4.790000E+03	2.109667E-16	1.579418E-17
4.800000E+03	2.102899E-16	1.568041E-17
4.810000E+03	2.095974E-16	1.556802E-17
4.820000E+03	2.088895E-16	1.545701E-17
4.830000E+03	2.081664E-16	1.534731E-17
4.840000E+03	2.074285E-16	1.523893E-17
4.850000E+03	2.066760E-16	1.513180E-17
4.860000E+03	2.059092E-16	1.502590E-17
4.870000E+03	2.051288E-16	1.492121E-17
4.880000E+03	2.043349E-16	1.481768E-17
4.890000E+03	2.035282E-16	1.471529E-17
4.900000E+03	2.026769E-16	1.461170E-17
4.910000E+03	2.018459E-16	1.451152E-17
4.920000E+03	2.010034E-16	1.441238E-17
4.930000E+03	2.001499E-16	1.431427E-17
4.940000E+03	1.992860E-16	1.421716E-17
4.950000E+03	1.983809E-16	1.411879E-17
4.960000E+03	1.974979E-16	1.402361E-17
4.970000E+03	1.966061E-16	1.392935E-17
4.980000E+03	1.957061E-16	1.383598E-17
4.990000E+03	1.947678E-16	1.374132E-17
5.000000E+03	1.938533E-16	1.364970E-17
5.010000E+03	1.929323E-16	1.355890E-17
5.020000E+03	1.919752E-16	1.346678E-17
5.030000E+03	1.910431E-16	1.337760E-17
5.040000E+03	1.901065E-16	1.328918E-17
5.050000E+03	1.891358E-16	1.319943E-17
5.060000E+03	1.881916E-16	1.311251E-17
5.070000E+03	1.872150E-16	1.302426E-17
5.080000E+03	1.862656E-16	1.293877E-17
5.090000E+03	1.852853E-16	1.285195E-17
5.100000E+03	1.843331E-16	1.276783E-17
5.110000E+03	1.833514E-16	1.268238E-17
5.120000E+03	1.823985E-16	1.259958E-17
5.130000E+03	1.814176E-16	1.251545E-17
5.140000E+03	1.804663E-16	1.243392E-17
5.150000E+03	1.794884E-16	1.235106E-17
5.160000E+03	1.785407E-16	1.227076E-17
5.170000E+03	1.775677E-16	1.218914E-17
5.180000E+03	1.766257E-16	1.211002E-17
5.190000E+03	1.756597E-16	1.202960E-17
5.200000E+03	1.746980E-16	1.194978E-17
5.210000E+03	1.737682E-16	1.187240E-17
5.220000E+03	1.728163E-16	1.179374E-17
5.230000E+03	1.718700E-16	1.171564E-17
5.240000E+03	1.709566E-16	1.163995E-17
5.250000E+03	1.700226E-16	1.156299E-17
5.260000E+03	1.690956E-16	1.148659E-17
5.270000E+03	1.682023E-16	1.141254E-17
5.280000E+03	1.672902E-16	1.133726E-17
5.290000E+03	1.663861E-16	1.126253E-17
5.300000E+03	1.654904E-16	1.118835E-17
5.310000E+03	1.646037E-16	1.111473E-17
5.320000E+03	1.637516E-16	1.104339E-17
5.330000E+03	1.628832E-16	1.097087E-17
5.340000E+03	1.620246E-16	1.089888E-17
5.350000E+03	1.611761E-16	1.082746E-17
5.360000E+03	1.603379E-16	1.075658E-17
5.370000E+03	1.595103E-16	1.068624E-17
5.380000E+03	1.586935E-16	1.061644E-17
5.390000E+03	1.578878E-16	1.054718E-17
5.400000E+03	1.570931E-16	1.047845E-17
5.410000E+03	1.563097E-16	1.041024E-17
5.420000E+03	1.555375E-16	1.034254E-17
5.430000E+03	1.547767E-16	1.027533E-17
5.440000E+03	1.540270E-16	1.020860E-17
5.450000E+03	1.532887E-16	1.014233E-17
5.460000E+03	1.525615E-16	1.007652E-17
5.470000E+03	1.518451E-16	1.001112E-17
5.480000E+03	1.511397E-16	9.946132E-18
5.490000E+03	1.504450E-16	9.881535E-18
5.500000E+03	1.497609E-16	9.817305E-18
5.510000E+03	1.490873E-16	9.753435E-18
5.520000E+03	1.484240E-16	9.689897E-18
5.530000E+03	1.477709E-16	9.626685E-18
5.540000E+03	1.471281E-16	9.563785E-18
5.550000E+03	1.464722E-16	9.499693E-18
5.560000E+03	1.458494E-16	9.437381E-18
5.570000E+03	1.452363E-16	9.375339E-18
5.580000E+03	1.446330E-16	9.313561E-18
5.590000E+03	1.440170E-16	9.250598E-18
5.600000E+03	1.434332E-16	9.189337E-18
5.610000E+03	1.428590E-16	9.128314E-18
5.620000E+03	1.422945E-16	9.067533E-18
5.630000E+03	1.417174E-16	9.005578E-18
5.640000E+03	1.411721E-16	8.945268E-18
5.650000E+03	1.406365E-16	8.885188E-18
5.660000E+03	1.400885E-16	8.823953E-18
5.670000E+03	1.395720E-16	8.764323E-18
5.680000E+03	1.390649E-16	8.704906E-18
5.690000E+03	1.385458E-16	8.644360E-18
5.700000E+03	1.380579E-16	8.585385E-18
5.710000E+03	1.375581E-16	8.525291E-18
5.720000E+03	1.370892E-16	8.466745E-18
5.730000E+03	1.366296E-16	8.408395E-18
5.740000E+03	1.361582E-16	8.348953E-18
5.750000E+03	1.357173E-16	8.291006E-18
5.760000E+03	1.352645E-16	8.231971E-18
5.770000E+03	1.348420E-16	8.174412E-18
5.780000E+03	1.344075E-16	8.115765E-18
5.790000E+03	1.340028E-16	8.058558E-18
5.800000E+03	1.335859E-16	8.000264E-18
5.810000E+03	1.331776E-16	7.942135E-18
5.820000E+03	1.327983E-16	7.885392E-18
5.830000E+03	1.324064E-16	7.827553E-18
5.840000E+03	1.320428E-16	7.771048E-18
5.850000E+03	1.316661E-16	7.713434E-18
5.860000E+03	1.312966E-16	7.655919E-18
5.870000E+03	1.309542E-16	7.599659E-18
5.880000E+03	1.305976E-16	7.542257E-18
5.890000E+03	1.302672E-16	7.486058E-18
5.900000E+03	1.299218E-16	7.428685E-18
5.910000E+03	1.295812E-16	7.371298E-18
5.920000E+03	1.292448E-16	7.313863E-18
5.930000E+03	1.289320E-16	7.257483E-18
5.940000E+03	1.286019E-16	7.199856E-18
5.950000E+03	1.282738E-16	7.142084E-18
5.960000E+03	1.279471E-16	7.084142E-18
5.970000E+03	1.276404E-16	7.027076E-18
5.980000E+03	1.273134E-16	6.968659E-18
5.990000E+03	1.269849E-16	6.909951E-18
6.000000E+03	1.266538E-16	6.850908E-18
6.010000E+03	1.263188E-16	6.791486E-18
6.020000E+03	1.259988E-16	6.732693E-18
6.030000E+03	1.256528E-16	6.672372E-18
6.040000E+03	1.252995E-16	6.611533E-18
6.050000E+03	1.249374E-16	6.550134E-18
6.060000E+03	1.245651E-16	6.488121E-18
6.070000E+03	1.241813E-16	6.425448E-18
6.080000E+03	1.237842E-16	6.362061E-18
6.090000E+03	1.233723E-16	6.297909E-18
6.100000E+03	1.229632E-16	6.233916E-18
6.110000E+03	1.225169E-16	6.168085E-18
6.120000E+03	1.220510E-16	6.101347E-18
6.130000E+03	1.215637E-16	6.033635E-18
6.140000E+03	1.210538E-16	5.964907E-18
6.150000E+03	1.205200E-16	5.895115E-18
6.160000E+03	1.199611E-16	5.824236E-18
6.170000E+03	1.193761E-16	5.752238E-18
6.180000E+03	1.187639E-16	5.679106E-18
6.190000E+03	1.181235E-16	5.604821E-18
6.200000E+03	1.174542E-16	5.529384E-18
6.210000E+03	1.167370E-16	5.451944E-18
6.220000E+03	1.160084E-16	5.374256E-18
6.230000E+03	1.152500E-16	5.295491E-18
6.240000E+03	1.144619E-16	5.215697E-18
6.250000E+03	1.136443E-16	5.134927E-18
6.260000E+03	1.127974E-16	5.053236E-18
6.270000E+03	1.119214E-16	4.970677E-18
6.280000E+03	1.110168E-16	4.887324E-18
6.290000E+03	1.100839E-16	4.803238E-18
6.300000E+03	1.091064E-16	4.717763E-18
6.310000E+03	1.081191E-16	4.632460E-18
6.320000E+03	1.071054E-16	4.546665E-18
6.330000E+03	1.060663E-16	4.460465E-18
6.340000E+03	1.050028E-16	4.373952E-18
6.350000E+03	1.038997E-16	4.286563E-18
6.360000E+03	1.027907E-16	4.199739E-18
6.370000E+03	1.016607E-16	4.112910E-18
6.380000E+03	1.005111E-16	4.026182E-18
6.390000E+03	9.932798E-17	3.939054E-18
6.400000E+03	9.814381E-17	3.852874E-18
6.410000E+03	9.694472E-17	3.767136E-18
6.420000E+03	9.573239E-17	3.681955E-18
6.430000E+03	9.449393E-17	3.596889E-18
6.440000E+03	9.326071E-17	3.513185E-18
6.450000E+03	9.201970E-17	3.430386E-18
6.460000E+03	9.075882E-17	3.348090E-18
6.470000E+03	8.950843E-17	3.267465E-18
6.480000E+03	8.825609E-17	3.188087E-18
6.490000E+03	8.699041E-17	3.109584E-18
6.500000E+03	8.574057E-17	3.033043E-18
6.510000E+03	8.449483E-17	2.958070E-18
6.520000E+03	8.324219E-17	2.884315E-18
6.530000E+03	8.201081E-17	2.812786E-18
6.540000E+03	8.077672E-17	2.742684E-18
6.550000E+03	7.956724E-17	2.674963E-18
6.560000E+03	7.835930E-17	2.608862E-18
6.570000E+03	7.717909E-17	2.545278E-18
6.580000E+03	7.601604E-17	2.483868E-18
6.590000E+03	7.486025E-17	2.424325E-18
6.600000E+03	7.373665E-17	2.367471E-18
6.610000E+03	7.262373E-17	2.312620E-18
6.620000E+03	7.154577E-17	2.260553E-18
6.630000E+03	7.048167E-17	2.210602E-18
6.640000E+03	6.945494E-17	2.163509E-18
6.650000E+03	6.844501E-17	2.118627E-18
6.660000E+03	6.747456E-17	2.076656E-18
6.670000E+03	6.652354E-17	2.036969E-18
6.680000E+03	6.561402E-17	2.000235E-18
6.690000E+03	6.472622E-17	1.965838E-18
6.700000E+03	6.387145E-17	1.934108E-18
6.710000E+03	6.306011E-17	1.905344E-18
6.720000E+03	6.227307E-17	1.878949E-18
6.730000E+03	6.153032E-17	1.855507E-18
6.740000E+03	6.081290E-17	1.834410E-18
6.750000E+03	6.014012E-17	1.816158E-18
6.760000E+03	5.949331E-17	1.800103E-18
6.770000E+03	5.888214E-17	1.786454E-18
6.780000E+03	5.831591E-17	1.775413E-18
6.790000E+03	5.777654E-17	1.766353E-18
6.800000E+03	5.727340E-17	1.759489E-18
6.810000E+03	5.681556E-17	1.755032E-18
6.820000E+03	5.638548E-17	1.752377E-18
6.830000E+03	5.599235E-17	1.751751E-18
6.840000E+03	5.564520E-17	1.753383E-18
6.850000E+03	5.532708E-17	1.756694E-18
6.860000E+03	5.504730E-17	1.761934E-18
6.870000E+03	5.481519E-17	1.769367E-18
6.880000E+03	5.461357E-17	1.778409E-18
6.890000E+03	5.444980E-17	1.789269E-18
6.900000E+03	5.432280E-17	1.801888E-18
6.910000E+03	5.424012E-17	1.816501E-18
6.920000E+03	5.418403E-17	1.832501E-18
6.930000E+03	5.416234E-17	1.850134E-18
6.940000E+03	5.417443E-17	1.869370E-18
6.950000E+03	5.422818E-17	1.890476E-18
6.960000E+03	5.430612E-17	1.912843E-18
6.970000E+03	5.441616E-17	1.936743E-18
6.980000E+03	5.455780E-17	1.962158E-18
6.990000E+03	5.473053E-17	1.989074E-18
7.000000E+03	5.494242E-17	2.017793E-18
7.010000E+03	5.517584E-17	2.047676E-18
7.020000E+03	5.543884E-17	2.079024E-18
7.030000E+03	5.573089E-17	2.111827E-18
7.040000E+03	5.605148E-17	2.146075E-18
7.050000E+03	5.640009E-17	2.181762E-18
7.060000E+03	5.677615E-17	2.218877E-18
7.070000E+03	5.718805E-17	2.257765E-18
7.080000E+03	5.761737E-17	2.297716E-18
7.090000E+03	5.807237E-17	2.339068E-18
7.100000E+03	5.855241E-17	2.381808E-18
7.110000E+03	5.905681E-17	2.425924E-18
7.120000E+03	5.958485E-17	2.471402E-18
7.130000E+03	6.013579E-17	2.518225E-18
7.140000E+03	6.070881E-17	2.566376E-18
7.150000E+03	6.130309E-17	2.615833E-18
7.160000E+03	6.191774E-17	2.666574E-18
7.170000E+03	6.255183E-17	2.718573E-18
7.180000E+03	6.320438E-17	2.771802E-18
7.190000E+03	6.387434E-17	2.826229E-18
7.200000E+03	6.456064E-17	2.881818E-18
7.210000E+03	6.526215E-17	2.938534E-18
7.220000E+03	6.597767E-17	2.996334E-18
7.230000E+03	6.670596E-17	3.055174E-18
7.240000E+03	6.744575E-17	3.115007E-18
7.250000E+03	6.819571E-17	3.175781E-18
7.260000E+03	6.895445E-17	3.237443E-18
7.270000E+03	6.972056E-17	3.299935E-18
7.280000E+03	7.049259E-17	3.363198E-18
7.290000E+03	7.126906E-17	3.427168E-18
7.300000E+03	7.204844E-17	3.491780E-18
7.310000E+03	7.282921E-17	3.556967E-18
7.320000E+03	7.360981E-17	3.622657E-18
7.330000E+03	7.438867E-17	3.688780E-18
7.340000E+03	7.516422E-17	3.755262E-18
7.350000E+03	7.592296E-17	3.821429E-18
7.360000E+03	7.668708E-17	3.888394E-18
7.370000E+03	7.744322E-17	3.955493E-18
7.380000E+03	7.818986E-17	4.022650E-18
7.390000E+03	7.892549E-17	4.089790E-18
7.400000E+03	7.964866E-17	4.156836E-18
7.410000E+03	8.035796E-17	4.223716E-18
7.420000E+03	8.103924E-17	4.289681E-18
7.430000E+03	8.171661E-17	4.356001E-18
7.440000E+03	8.237613E-17	4.421942E-18
7.450000E+03	8.301662E-17	4.487438E-18
7.460000E+03	8.363694E-17	4.552424E-18
7.470000E+03	8.422276E-17	4.616113E-18
7.480000E+03	8.479953E-17	4.679890E-18
7.490000E+03	8.535317E-17	4.742985E-18
7.500000E+03	8.588282E-17	4.805346E-18
7.510000E+03	8.637412E-17	4.866157E-18
7.520000E+03	8.685353E-17	4.926900E-18
7.530000E+03	8.730690E-17	4.986775E-18
7.540000E+03	8.773373E-17	5.045747E-18
7.550000E+03	8.811964E-17	5.102977E-18
7.560000E+03	8.849200E-17	5.160035E-18
7.570000E+03	8.883667E-17	5.216101E-18
7.580000E+03	8.913934E-17	5.270319E-18
7.590000E+03	8.942793E-17	5.324325E-18
7.600000E+03	8.968839E-17	5.377284E-18
7.610000E+03	8.990654E-17	5.428328E-18
7.620000E+03	9.011088E-17	5.479163E-18
7.630000E+03	9.028748E-17	5.528938E-18
7.640000E+03	9.042234E-17	5.576782E-18
7.650000E+03	9.054445E-17	5.624462E-18
7.660000E+03	9.064012E-17	5.671125E-18
7.670000E+03	9.069562E-17	5.715882E-18
7.680000E+03	9.074035E-17	5.760533E-18
7.690000E+03	9.074634E-17	5.803262E-18
7.700000E+03	9.074304E-17	5.845900E-18
7.710000E+03	9.071690E-17	5.887541E-18
7.720000E+03	9.065433E-17	5.927252E-18
7.730000E+03	9.058483E-17	5.966909E-18
7.740000E+03	9.048053E-17	6.004637E-18
7.750000E+03	9.037087E-17	6.042341E-18
7.760000E+03	9.022803E-17	6.078124E-18
