#wls	flux	fluxerr
1.600000E+03	4.336627E-17	1.189959E-17
1.640000E+03	4.454721E-17	1.220550E-17
1.680000E+03	4.577581E-17	1.252288E-17
1.720000E+03	4.707078E-17	1.285670E-17
1.760000E+03	4.842691E-17	1.320538E-17
1.800000E+03	4.984698E-17	1.356954E-17
1.840000E+03	5.133395E-17	1.394981E-17
1.880000E+03	5.289078E-17	1.434680E-17
1.920000E+03	5.452059E-17	1.476117E-17
1.960000E+03	5.623656E-17	1.519628E-17
2.000000E+03	5.803254E-17	1.565022E-17
2.040000E+03	5.990129E-17	1.612081E-17
2.080000E+03	6.186714E-17	1.661434E-17
2.120000E+03	6.392322E-17	1.712868E-17
2.160000E+03	6.608475E-17	1.766761E-17
2.200000E+03	6.833222E-17	1.822560E-17
2.240000E+03	7.069293E-17	1.880958E-17
2.280000E+03	7.314583E-17	1.941361E-17
2.320000E+03	7.571970E-17	2.004493E-17
2.360000E+03	7.840544E-17	2.070074E-17
2.400000E+03	8.120627E-17	2.138143E-17
2.440000E+03	8.412526E-17	2.208738E-17
2.480000E+03	8.718057E-17	2.282286E-17
2.520000E+03	9.034473E-17	2.358015E-17
2.560000E+03	9.365121E-17	2.436748E-17
2.600000E+03	9.708668E-17	2.518078E-17
2.640000E+03	1.006526E-16	2.601987E-17
2.680000E+03	1.043501E-16	2.688440E-17
2.720000E+03	1.081984E-16	2.777868E-17
2.760000E+03	1.121603E-16	2.869247E-17
2.800000E+03	1.162732E-16	2.963466E-17
2.840000E+03	1.205164E-16	3.059927E-17
2.880000E+03	1.248657E-16	3.157941E-17
2.920000E+03	1.293598E-16	3.258418E-17
2.960000E+03	1.339961E-16	3.361210E-17
3.000000E+03	1.387232E-16	3.464946E-17
3.010000E+03	1.399217E-16	3.491086E-17
3.020000E+03	1.411268E-16	3.517299E-17
3.030000E+03	1.423382E-16	3.543582E-17
3.040000E+03	1.435558E-16	3.569929E-17
3.050000E+03	1.448044E-16	3.596954E-17
3.060000E+03	1.460342E-16	3.623420E-17
3.070000E+03	1.472697E-16	3.649935E-17
3.080000E+03	1.485108E-16	3.676495E-17
3.090000E+03	1.497573E-16	3.703094E-17
3.100000E+03	1.510091E-16	3.729726E-17
3.110000E+03	1.522659E-16	3.756386E-17
3.120000E+03	1.535539E-16	3.783719E-17
3.130000E+03	1.548205E-16	3.810422E-17
3.140000E+03	1.560915E-16	3.837135E-17
3.150000E+03	1.573668E-16	3.863852E-17
3.160000E+03	1.586461E-16	3.890567E-17
3.170000E+03	1.599566E-16	3.917943E-17
3.180000E+03	1.612436E-16	3.944639E-17
3.190000E+03	1.625338E-16	3.971310E-17
3.200000E+03	1.638272E-16	3.997954E-17
3.210000E+03	1.651234E-16	4.024559E-17
3.220000E+03	1.664507E-16	4.051815E-17
3.230000E+03	1.677520E-16	4.078330E-17
3.240000E+03	1.690555E-16	4.104788E-17
3.250000E+03	1.703609E-16	4.131182E-17
3.260000E+03	1.716968E-16	4.158208E-17
3.270000E+03	1.730049E-16	4.184447E-17
3.280000E+03	1.743141E-16	4.210600E-17
3.290000E+03	1.756538E-16	4.237375E-17
3.300000E+03	1.769638E-16	4.263321E-17
3.310000E+03	1.782740E-16	4.289157E-17
3.320000E+03	1.795837E-16	4.314868E-17
3.330000E+03	1.809236E-16	4.341187E-17
3.340000E+03	1.822318E-16	4.366627E-17
3.350000E+03	1.835386E-16	4.391920E-17
3.360000E+03	1.848752E-16	4.417806E-17
3.370000E+03	1.861783E-16	4.442772E-17
3.380000E+03	1.874790E-16	4.467564E-17
3.390000E+03	1.888089E-16	4.492930E-17
3.400000E+03	1.901037E-16	4.517342E-17
3.410000E+03	1.913949E-16	4.541547E-17
3.420000E+03	1.927147E-16	4.566311E-17
3.430000E+03	1.939975E-16	4.590075E-17
3.440000E+03	1.952755E-16	4.613607E-17
3.450000E+03	1.965815E-16	4.637676E-17
3.460000E+03	1.978487E-16	4.660709E-17
3.470000E+03	1.991100E-16	4.683479E-17
3.480000E+03	2.003984E-16	4.706765E-17
3.490000E+03	2.016461E-16	4.728972E-17
3.500000E+03	2.029207E-16	4.751686E-17
3.510000E+03	2.041532E-16	4.773291E-17
3.520000E+03	2.053774E-16	4.794580E-17
3.530000E+03	2.066276E-16	4.816352E-17
3.540000E+03	2.078340E-16	4.836980E-17
3.550000E+03	2.090304E-16	4.857253E-17
3.560000E+03	2.102522E-16	4.877992E-17
3.570000E+03	2.114278E-16	4.897539E-17
3.580000E+03	2.126281E-16	4.917534E-17
3.590000E+03	2.137811E-16	4.936314E-17
3.600000E+03	2.149219E-16	4.954689E-17
3.610000E+03	2.160864E-16	4.973489E-17
3.620000E+03	2.172015E-16	4.991034E-17
3.630000E+03	2.183395E-16	5.008983E-17
3.640000E+03	2.194270E-16	5.025652E-17
3.650000E+03	2.204997E-16	5.041866E-17
3.660000E+03	2.215945E-16	5.058464E-17
3.670000E+03	2.226365E-16	5.073742E-17
3.680000E+03	2.236999E-16	5.089389E-17
3.690000E+03	2.247093E-16	5.103689E-17
3.700000E+03	2.257014E-16	5.117486E-17
3.710000E+03	2.267139E-16	5.131628E-17
3.720000E+03	2.276703E-16	5.144389E-17
3.730000E+03	2.286463E-16	5.157478E-17
3.740000E+03	2.295650E-16	5.169166E-17
3.750000E+03	2.304641E-16	5.180302E-17
3.760000E+03	2.313817E-16	5.191748E-17
3.770000E+03	2.322401E-16	5.201757E-17
3.780000E+03	2.331166E-16	5.212064E-17
3.790000E+03	2.339325E-16	5.220914E-17
3.800000E+03	2.347656E-16	5.230045E-17
3.810000E+03	2.355373E-16	5.237705E-17
3.820000E+03	2.362861E-16	5.244760E-17
3.830000E+03	2.370511E-16	5.252075E-17
3.840000E+03	2.377529E-16	5.257895E-17
3.850000E+03	2.384703E-16	5.263966E-17
3.860000E+03	2.391237E-16	5.268530E-17
3.870000E+03	2.397520E-16	5.272455E-17
3.880000E+03	2.403951E-16	5.276616E-17
3.890000E+03	2.409727E-16	5.279253E-17
3.900000E+03	2.415644E-16	5.282115E-17
3.910000E+03	2.420898E-16	5.283447E-17
3.920000E+03	2.425887E-16	5.284120E-17
3.930000E+03	2.431011E-16	5.285011E-17
3.940000E+03	2.435460E-16	5.284363E-17
3.950000E+03	2.439638E-16	5.283052E-17
3.960000E+03	2.443944E-16	5.281951E-17
3.970000E+03	2.447567E-16	5.279307E-17
3.980000E+03	2.451319E-16	5.276874E-17
3.990000E+03	2.454383E-16	5.272901E-17
4.000000E+03	2.457166E-16	5.268264E-17
4.010000E+03	2.460073E-16	5.263837E-17
4.020000E+03	2.462290E-16	5.257879E-17
4.030000E+03	2.464223E-16	5.251266E-17
4.040000E+03	2.466281E-16	5.244872E-17
4.050000E+03	2.467647E-16	5.236959E-17
4.060000E+03	2.468730E-16	5.228404E-17
4.070000E+03	2.469937E-16	5.220073E-17
4.080000E+03	2.470456E-16	5.210252E-17
4.090000E+03	2.470694E-16	5.199804E-17
4.100000E+03	2.471063E-16	5.189601E-17
4.110000E+03	2.470746E-16	5.177930E-17
4.120000E+03	2.470154E-16	5.165660E-17
4.130000E+03	2.469697E-16	5.153649E-17
4.140000E+03	2.468564E-16	5.140209E-17
4.150000E+03	2.467165E-16	5.126199E-17
4.160000E+03	2.465909E-16	5.112474E-17
4.170000E+03	2.463986E-16	5.097356E-17
4.180000E+03	2.461809E-16	5.081705E-17
4.190000E+03	2.459379E-16	5.065530E-17
4.200000E+03	2.457105E-16	5.049676E-17
4.210000E+03	2.454184E-16	5.032492E-17
4.220000E+03	2.451022E-16	5.014822E-17
4.230000E+03	2.448030E-16	4.997504E-17
4.240000E+03	2.444405E-16	4.978906E-17
4.250000E+03	2.440557E-16	4.959865E-17
4.260000E+03	2.436488E-16	4.940396E-17
4.270000E+03	2.432206E-16	4.920513E-17
4.280000E+03	2.428114E-16	4.901034E-17
4.290000E+03	2.423416E-16	4.880358E-17
4.300000E+03	2.418521E-16	4.859312E-17
4.310000E+03	2.413433E-16	4.837908E-17
4.320000E+03	2.408155E-16	4.816158E-17
4.330000E+03	2.403086E-16	4.794859E-17
4.340000E+03	2.397445E-16	4.772454E-17
4.350000E+03	2.391628E-16	4.749740E-17
4.360000E+03	2.385641E-16	4.726733E-17
4.370000E+03	2.379488E-16	4.703441E-17
4.380000E+03	2.373172E-16	4.679875E-17
4.390000E+03	2.367086E-16	4.656811E-17
4.400000E+03	2.360456E-16	4.632727E-17
4.410000E+03	2.353672E-16	4.608398E-17
4.420000E+03	2.346741E-16	4.583836E-17
4.430000E+03	2.339663E-16	4.559045E-17
4.440000E+03	2.332440E-16	4.534035E-17
4.450000E+03	2.325075E-16	4.508812E-17
4.460000E+03	2.317567E-16	4.483378E-17
4.470000E+03	2.309920E-16	4.457743E-17
4.480000E+03	2.302134E-16	4.431909E-17
4.490000E+03	2.294208E-16	4.405881E-17
4.500000E+03	2.286145E-16	4.379662E-17
4.510000E+03	2.277944E-16	4.353255E-17
4.520000E+03	2.269604E-16	4.326663E-17
4.530000E+03	2.261126E-16	4.299888E-17
4.540000E+03	2.252508E-16	4.272931E-17
4.550000E+03	2.243751E-16	4.245795E-17
4.560000E+03	2.234854E-16	4.218480E-17
4.570000E+03	2.225815E-16	4.190990E-17
4.580000E+03	2.216634E-16	4.163321E-17
4.590000E+03	2.207310E-16	4.135480E-17
4.600000E+03	2.197843E-16	4.107465E-17
4.610000E+03	2.188231E-16	4.079279E-17
4.620000E+03	2.178475E-16	4.050922E-17
4.630000E+03	2.168573E-16	4.022399E-17
4.640000E+03	2.158524E-16	3.993707E-17
4.650000E+03	2.148330E-16	3.964853E-17
4.660000E+03	2.137644E-16	3.935201E-17
4.670000E+03	2.127160E-16	3.906034E-17
4.680000E+03	2.116532E-16	3.876714E-17
4.690000E+03	2.105759E-16	3.847243E-17
4.700000E+03	2.094843E-16	3.817629E-17
4.710000E+03	2.083786E-16	3.787877E-17
4.720000E+03	2.072253E-16	3.757381E-17
4.730000E+03	2.060921E-16	3.727373E-17
4.740000E+03	2.049452E-16	3.697244E-17
4.750000E+03	2.037852E-16	3.667001E-17
4.760000E+03	2.025794E-16	3.636065E-17
4.770000E+03	2.013938E-16	3.605622E-17
4.780000E+03	2.001961E-16	3.575092E-17
4.790000E+03	1.989865E-16	3.544476E-17
4.800000E+03	1.977335E-16	3.513219E-17
4.810000E+03	1.965016E-16	3.482465E-17
4.820000E+03	1.952593E-16	3.451653E-17
4.830000E+03	1.939757E-16	3.420239E-17
4.840000E+03	1.927143E-16	3.389343E-17
4.850000E+03	1.914442E-16	3.358416E-17
4.860000E+03	1.901352E-16	3.326934E-17
4.870000E+03	1.888495E-16	3.295984E-17
4.880000E+03	1.875569E-16	3.265036E-17
4.890000E+03	1.862282E-16	3.233582E-17
4.900000E+03	1.849242E-16	3.202678E-17
4.910000E+03	1.835859E-16	3.171300E-17
4.920000E+03	1.822730E-16	3.140484E-17
4.930000E+03	1.809278E-16	3.109229E-17
4.940000E+03	1.796092E-16	3.078547E-17
4.950000E+03	1.782599E-16	3.047457E-17
4.960000E+03	1.769381E-16	3.016955E-17
4.970000E+03	1.755876E-16	2.986077E-17
4.980000E+03	1.742655E-16	2.955797E-17
4.990000E+03	1.729166E-16	2.925175E-17
5.000000E+03	1.715971E-16	2.895161E-17
5.010000E+03	1.702524E-16	2.864832E-17
5.020000E+03	1.689380E-16	2.835125E-17
5.030000E+03	1.676003E-16	2.805134E-17
5.040000E+03	1.662672E-16	2.775327E-17
5.050000E+03	1.649657E-16	2.746154E-17
5.060000E+03	1.636432E-16	2.716738E-17
5.070000E+03	1.623272E-16	2.687533E-17
5.080000E+03	1.610439E-16	2.658971E-17
5.090000E+03	1.597422E-16	2.630206E-17
5.100000E+03	1.584485E-16	2.601675E-17
5.110000E+03	1.571886E-16	2.573796E-17
5.120000E+03	1.559124E-16	2.545748E-17
5.130000E+03	1.546457E-16	2.517952E-17
5.140000E+03	1.534137E-16	2.490814E-17
5.150000E+03	1.521673E-16	2.463537E-17
5.160000E+03	1.509319E-16	2.436530E-17
5.170000E+03	1.497077E-16	2.409795E-17
5.180000E+03	1.484953E-16	2.383341E-17
5.190000E+03	1.473185E-16	2.357545E-17
5.200000E+03	1.461304E-16	2.331654E-17
5.210000E+03	1.449549E-16	2.306051E-17
5.220000E+03	1.437925E-16	2.280740E-17
5.230000E+03	1.426435E-16	2.255723E-17
5.240000E+03	1.415080E-16	2.231002E-17
5.250000E+03	1.404088E-16	2.206930E-17
5.260000E+03	1.393012E-16	2.182802E-17
5.270000E+03	1.382078E-16	2.158973E-17
5.280000E+03	1.371291E-16	2.135446E-17
5.290000E+03	1.360651E-16	2.112222E-17
5.300000E+03	1.350160E-16	2.089299E-17
5.310000E+03	1.339822E-16	2.066681E-17
5.320000E+03	1.329636E-16	2.044366E-17
5.330000E+03	1.319606E-16	2.022355E-17
5.340000E+03	1.309733E-16	2.000649E-17
5.350000E+03	1.300019E-16	1.979249E-17
5.360000E+03	1.290464E-16	1.958152E-17
5.370000E+03	1.281072E-16	1.937360E-17
5.380000E+03	1.271843E-16	1.916872E-17
5.390000E+03	1.262778E-16	1.896688E-17
5.400000E+03	1.253878E-16	1.876806E-17
5.410000E+03	1.245142E-16	1.857221E-17
5.420000E+03	1.236375E-16	1.837641E-17
5.430000E+03	1.227968E-16	1.818648E-17
5.440000E+03	1.219722E-16	1.799938E-17
5.450000E+03	1.211633E-16	1.781509E-17
5.460000E+03	1.203699E-16	1.763350E-17
5.470000E+03	1.195917E-16	1.745459E-17
5.480000E+03	1.188097E-16	1.727553E-17
5.490000E+03	1.180613E-16	1.710178E-17
5.500000E+03	1.173274E-16	1.693051E-17
5.510000E+03	1.166077E-16	1.676167E-17
5.520000E+03	1.159021E-16	1.659522E-17
5.530000E+03	1.151921E-16	1.642849E-17
5.540000E+03	1.145142E-16	1.626670E-17
5.550000E+03	1.138499E-16	1.610716E-17
5.560000E+03	1.131812E-16	1.594731E-17
5.570000E+03	1.125441E-16	1.579223E-17
5.580000E+03	1.119204E-16	1.563931E-17
5.590000E+03	1.112922E-16	1.548606E-17
5.600000E+03	1.106953E-16	1.533742E-17
5.610000E+03	1.101116E-16	1.519089E-17
5.620000E+03	1.095239E-16	1.504404E-17
5.630000E+03	1.089671E-16	1.490166E-17
5.640000E+03	1.084236E-16	1.476134E-17
5.650000E+03	1.078766E-16	1.462074E-17
5.660000E+03	1.073601E-16	1.448449E-17
5.670000E+03	1.068403E-16	1.434798E-17
5.680000E+03	1.063512E-16	1.421576E-17
5.690000E+03	1.058589E-16	1.408329E-17
5.700000E+03	1.053974E-16	1.395506E-17
5.710000E+03	1.049329E-16	1.382659E-17
5.720000E+03	1.044992E-16	1.370229E-17
5.730000E+03	1.040629E-16	1.357777E-17
5.740000E+03	1.036571E-16	1.345735E-17
5.750000E+03	1.032491E-16	1.333672E-17
5.760000E+03	1.028717E-16	1.322012E-17
5.770000E+03	1.024923E-16	1.310333E-17
5.780000E+03	1.021434E-16	1.299049E-17
5.790000E+03	1.017926E-16	1.287744E-17
5.800000E+03	1.014723E-16	1.276829E-17
5.810000E+03	1.011502E-16	1.265892E-17
5.820000E+03	1.008425E-16	1.255135E-17
5.830000E+03	1.005651E-16	1.244754E-17
5.840000E+03	1.002860E-16	1.234350E-17
5.850000E+03	1.000211E-16	1.224118E-17
5.860000E+03	9.978612E-17	1.214247E-17
5.870000E+03	9.954928E-17	1.204346E-17
5.880000E+03	9.932638E-17	1.194608E-17
5.890000E+03	9.913291E-17	1.185214E-17
5.900000E+03	9.893720E-17	1.175784E-17
5.910000E+03	9.875479E-17	1.166502E-17
5.920000E+03	9.858544E-17	1.157363E-17
5.930000E+03	9.844454E-17	1.148545E-17
5.940000E+03	9.830038E-17	1.139675E-17
5.950000E+03	9.816833E-17	1.130931E-17
5.960000E+03	9.804789E-17	1.122307E-17
5.970000E+03	9.795419E-17	1.113972E-17
5.980000E+03	9.785566E-17	1.105565E-17
5.990000E+03	9.776721E-17	1.097256E-17
6.000000E+03	9.768831E-17	1.089037E-17
6.010000E+03	9.761813E-17	1.080899E-17
6.020000E+03	9.757156E-17	1.073004E-17
6.030000E+03	9.751668E-17	1.065000E-17
6.040000E+03	9.746810E-17	1.057049E-17
6.050000E+03	9.742496E-17	1.049140E-17
6.060000E+03	9.738610E-17	1.041263E-17
6.070000E+03	9.735043E-17	1.033406E-17
6.080000E+03	9.731673E-17	1.025557E-17
6.090000E+03	9.728376E-17	1.017705E-17
6.100000E+03	9.725018E-17	1.009837E-17
6.110000E+03	9.721442E-17	1.001939E-17
6.120000E+03	9.717513E-17	9.939995E-18
6.130000E+03	9.714596E-17	9.861605E-18
6.140000E+03	9.709458E-17	9.780957E-18
6.150000E+03	9.703465E-17	9.699491E-18
6.160000E+03	9.696441E-17	9.617073E-18
6.170000E+03	9.688226E-17	9.533588E-18
6.180000E+03	9.678643E-17	9.448916E-18
6.190000E+03	9.667517E-17	9.362942E-18
6.200000E+03	9.653165E-17	9.274109E-18
6.210000E+03	9.638473E-17	9.185270E-18
6.220000E+03	9.621769E-17	9.094878E-18
6.230000E+03	9.602912E-17	9.002877E-18
6.240000E+03	9.581760E-17	8.909213E-18
6.250000E+03	9.558191E-17	8.813860E-18
6.260000E+03	9.532088E-17	8.716794E-18
6.270000E+03	9.503330E-17	8.618000E-18
6.280000E+03	9.471824E-17	8.517488E-18
6.290000E+03	9.437472E-17	8.415268E-18
6.300000E+03	9.400196E-17	8.311369E-18
6.310000E+03	9.358444E-17	8.204537E-18
6.320000E+03	9.315134E-17	8.097443E-18
6.330000E+03	9.268724E-17	7.988832E-18
6.340000E+03	9.219200E-17	7.878797E-18
6.350000E+03	9.166537E-17	7.767426E-18
6.360000E+03	9.110737E-17	7.654828E-18
6.370000E+03	9.050398E-17	7.539941E-18
6.380000E+03	8.988422E-17	7.425297E-18
6.390000E+03	8.923426E-17	7.309838E-18
6.400000E+03	8.855469E-17	7.193713E-18
6.410000E+03	8.784641E-17	7.077093E-18
6.420000E+03	8.709665E-17	6.959054E-18
6.430000E+03	8.633420E-17	6.841995E-18
6.440000E+03	8.554641E-17	6.724982E-18
6.450000E+03	8.473485E-17	6.608221E-18
6.460000E+03	8.388756E-17	6.490863E-18
6.470000E+03	8.303302E-17	6.375190E-18
6.480000E+03	8.215952E-17	6.260353E-18
6.490000E+03	8.125603E-17	6.145577E-18
6.500000E+03	8.035022E-17	6.033015E-18
6.510000E+03	7.943106E-17	5.921869E-18
6.520000E+03	7.848813E-17	5.811410E-18
6.530000E+03	7.754845E-17	5.703675E-18
6.540000E+03	7.660142E-17	5.597900E-18
6.550000E+03	7.563707E-17	5.493381E-18
6.560000E+03	7.468164E-17	5.392041E-18
6.570000E+03	7.372488E-17	5.293135E-18
6.580000E+03	7.275731E-17	5.195990E-18
6.590000E+03	7.180407E-17	5.102397E-18
6.600000E+03	7.085541E-17	5.011643E-18
6.610000E+03	6.990207E-17	4.923062E-18
6.620000E+03	6.896816E-17	4.838329E-18
6.630000E+03	6.803350E-17	4.756001E-18
6.640000E+03	6.712137E-17	4.677675E-18
6.650000E+03	6.621209E-17	4.601940E-18
6.660000E+03	6.532826E-17	4.530330E-18
6.670000E+03	6.446086E-17	4.462173E-18
6.680000E+03	6.360119E-17	4.396823E-18
6.690000E+03	6.277091E-17	4.335731E-18
6.700000E+03	6.195129E-17	4.277552E-18
6.710000E+03	6.116325E-17	4.223681E-18
6.720000E+03	6.038838E-17	4.172792E-18
6.730000E+03	5.964702E-17	4.126202E-18
6.740000E+03	5.892110E-17	4.082560E-18
6.750000E+03	5.823043E-17	4.043142E-18
6.760000E+03	5.755738E-17	4.006632E-18
6.770000E+03	5.692131E-17	3.974286E-18
6.780000E+03	5.630498E-17	3.944822E-18
6.790000E+03	5.571853E-17	3.918867E-18
6.800000E+03	5.517171E-17	3.897038E-18
6.810000E+03	5.464793E-17	3.878102E-18
6.820000E+03	5.416572E-17	3.863313E-18
6.830000E+03	5.370886E-17	3.851467E-18
6.840000E+03	5.329561E-17	3.843827E-18
6.850000E+03	5.291004E-17	3.839212E-18
6.860000E+03	5.256171E-17	3.838282E-18
6.870000E+03	5.225982E-17	3.841693E-18
6.880000E+03	5.198775E-17	3.848213E-18
6.890000E+03	5.176089E-17	3.858973E-18
6.900000E+03	5.156148E-17	3.872650E-18
6.910000E+03	5.139649E-17	3.889760E-18
6.920000E+03	5.127281E-17	3.910833E-18
6.930000E+03	5.117292E-17	3.934546E-18
6.940000E+03	5.110389E-17	3.961442E-18
6.950000E+03	5.107282E-17	3.992089E-18
6.960000E+03	5.106251E-17	4.025162E-18
6.970000E+03	5.108025E-17	4.061241E-18
6.980000E+03	5.113335E-17	4.100934E-18
6.990000E+03	5.120483E-17	4.142901E-18
7.000000E+03	5.130209E-17	4.187752E-18
7.010000E+03	5.142447E-17	4.235458E-18
7.020000E+03	5.157953E-17	4.286670E-18
7.030000E+03	5.175022E-17	4.340004E-18
7.040000E+03	5.194410E-17	4.396107E-18
7.050000E+03	5.216885E-17	4.455663E-18
7.060000E+03	5.240725E-17	4.517234E-18
7.070000E+03	5.266690E-17	4.581491E-18
7.080000E+03	5.294714E-17	4.648404E-18
7.090000E+03	5.325574E-17	4.718691E-18
7.100000E+03	5.357506E-17	4.790821E-18
7.110000E+03	5.391278E-17	4.865494E-18
7.120000E+03	5.426808E-17	4.942665E-18
7.130000E+03	5.464015E-17	5.022283E-18
7.140000E+03	5.503687E-17	5.105105E-18
7.150000E+03	5.543985E-17	5.189455E-18
7.160000E+03	5.585684E-17	5.276064E-18
7.170000E+03	5.628681E-17	5.364855E-18
7.180000E+03	5.672873E-17	5.455747E-18
7.190000E+03	5.718148E-17	5.548647E-18
7.200000E+03	5.764392E-17	5.643459E-18
7.210000E+03	5.812414E-17	5.740992E-18
7.220000E+03	5.860242E-17	5.839313E-18
7.230000E+03	5.908670E-17	5.939204E-18
7.240000E+03	5.957567E-17	6.040535E-18
7.250000E+03	6.006799E-17	6.143167E-18
7.260000E+03	6.056229E-17	6.246956E-18
7.270000E+03	6.105718E-17	6.351751E-18
7.280000E+03	6.155126E-17	6.457396E-18
7.290000E+03	6.204313E-17	6.563728E-18
7.300000E+03	6.254135E-17	6.671644E-18
7.310000E+03	6.302461E-17	6.778857E-18
7.320000E+03	6.350142E-17	6.886240E-18
7.330000E+03	6.397042E-17	6.993617E-18
7.340000E+03	6.443023E-17	7.100806E-18
7.350000E+03	6.487956E-17	7.207630E-18
7.360000E+03	6.531713E-17	7.313907E-18
7.370000E+03	6.574173E-17	7.419461E-18
7.380000E+03	6.615219E-17	7.524117E-18
7.390000E+03	6.654741E-17	7.627701E-18
7.400000E+03	6.692637E-17	7.730049E-18
7.410000E+03	6.728812E-17	7.830999E-18
7.420000E+03	6.763180E-17	7.930396E-18
7.430000E+03	6.795661E-17	8.028093E-18
7.440000E+03	6.826185E-17	8.123952E-18
7.450000E+03	6.854693E-17	8.217841E-18
7.460000E+03	6.881133E-17	8.309641E-18
7.470000E+03	6.905461E-17	8.399238E-18
7.480000E+03	6.927646E-17	8.486534E-18
7.490000E+03	6.946549E-17	8.570063E-18
7.500000E+03	6.964378E-17	8.652480E-18
7.510000E+03	6.980016E-17	8.732356E-18
7.520000E+03	6.993465E-17	8.809631E-18
7.530000E+03	7.004733E-17	8.884257E-18
7.540000E+03	7.013837E-17	8.956196E-18
7.550000E+03	7.020799E-17	9.025419E-18
7.560000E+03	7.025649E-17	9.091908E-18
7.570000E+03	7.028424E-17	9.155654E-18
7.580000E+03	7.029162E-17	9.216654E-18
7.590000E+03	7.026782E-17	9.273428E-18
7.600000E+03	7.023591E-17	9.328960E-18
7.610000E+03	7.018516E-17	9.381796E-18
7.620000E+03	7.011617E-17	9.431968E-18
7.630000E+03	7.002960E-17	9.479518E-18
7.640000E+03	6.992609E-17	9.524491E-18
7.650000E+03	6.979516E-17	9.565400E-18
7.660000E+03	6.965996E-17	9.605368E-18
7.670000E+03	6.950999E-17	9.642921E-18
7.680000E+03	6.934597E-17	9.678120E-18
7.690000E+03	6.916861E-17	9.711029E-18
7.700000E+03	6.896757E-17	9.740149E-18
7.710000E+03	6.876578E-17	9.768676E-18
7.720000E+03	6.855282E-17	9.795118E-18
7.730000E+03	6.832939E-17	9.819545E-18
7.740000E+03	6.808519E-17	9.840441E-18
7.750000E+03	6.784285E-17	9.861044E-18
7.760000E+03	6.759200E-17	9.879841E-18
