#wls	flux	fluxerr
1.600000E+03	6.019836E-15	6.435307E-16
1.640000E+03	5.016364E-15	5.350431E-16
1.680000E+03	4.149997E-15	4.416097E-16
1.720000E+03	3.411020E-15	3.621110E-16
1.760000E+03	2.788544E-15	2.953088E-16
1.800000E+03	2.270783E-15	2.398779E-16
1.840000E+03	1.844740E-15	1.943746E-16
1.880000E+03	1.498540E-15	1.574837E-16
1.920000E+03	1.220280E-15	1.278975E-16
1.960000E+03	9.990226E-16	1.044204E-16
2.000000E+03	8.249168E-16	8.598039E-17
2.040000E+03	6.894467E-16	7.165390E-17
2.080000E+03	5.852751E-16	6.064839E-17
2.120000E+03	5.062799E-16	5.230458E-17
2.160000E+03	4.476205E-16	4.610178E-17
2.200000E+03	4.053719E-16	4.161870E-17
2.240000E+03	3.765400E-16	3.853372E-17
2.280000E+03	3.588896E-16	3.660603E-17
2.320000E+03	3.507593E-16	3.565573E-17
2.360000E+03	3.509069E-16	3.554727E-17
2.400000E+03	3.583098E-16	3.616865E-17
2.440000E+03	3.719914E-16	3.741366E-17
2.480000E+03	3.909175E-16	3.917148E-17
2.520000E+03	4.137733E-16	4.130457E-17
2.560000E+03	4.389697E-16	4.364991E-17
2.600000E+03	4.645683E-16	4.601223E-17
2.640000E+03	4.884592E-16	4.818236E-17
2.680000E+03	5.085219E-16	4.995352E-17
2.720000E+03	5.229344E-16	5.115170E-17
2.760000E+03	5.304421E-16	5.166143E-17
2.800000E+03	5.305277E-16	5.144116E-17
2.840000E+03	5.234800E-16	5.052832E-17
2.880000E+03	5.103292E-16	4.903143E-17
2.920000E+03	4.925900E-16	4.710380E-17
2.960000E+03	4.721138E-16	4.492823E-17
3.000000E+03	4.507587E-16	4.268492E-17
3.010000E+03	4.455067E-16	4.213491E-17
3.020000E+03	4.403308E-16	4.159313E-17
3.030000E+03	4.352556E-16	4.106188E-17
3.040000E+03	4.303241E-16	4.054516E-17
3.050000E+03	4.255487E-16	4.004412E-17
3.060000E+03	4.209510E-16	3.956074E-17
3.070000E+03	4.165611E-16	3.909777E-17
3.080000E+03	4.123901E-16	3.865619E-17
3.090000E+03	4.084578E-16	3.823779E-17
3.100000E+03	4.048004E-16	3.784586E-17
3.110000E+03	4.014194E-16	3.748044E-17
3.120000E+03	3.983414E-16	3.714394E-17
3.130000E+03	3.955766E-16	3.683716E-17
3.140000E+03	3.931663E-16	3.656387E-17
3.150000E+03	3.911046E-16	3.632337E-17
3.160000E+03	3.894172E-16	3.611793E-17
3.170000E+03	3.881295E-16	3.594976E-17
3.180000E+03	3.872593E-16	3.582034E-17
3.190000E+03	3.868102E-16	3.572987E-17
3.200000E+03	3.868227E-16	3.568192E-17
3.210000E+03	3.873013E-16	3.567672E-17
3.220000E+03	3.882723E-16	3.571653E-17
3.230000E+03	3.897485E-16	3.580232E-17
3.240000E+03	3.917565E-16	3.593635E-17
3.250000E+03	3.943163E-16	3.612022E-17
3.260000E+03	3.974474E-16	3.635552E-17
3.270000E+03	4.011622E-16	3.664315E-17
3.280000E+03	4.054856E-16	3.698514E-17
3.290000E+03	4.104337E-16	3.738273E-17
3.300000E+03	4.160134E-16	3.783628E-17
3.310000E+03	4.222410E-16	3.834702E-17
3.320000E+03	4.291137E-16	3.891444E-17
3.330000E+03	4.366349E-16	3.953858E-17
3.340000E+03	4.447851E-16	4.021741E-17
3.350000E+03	4.535400E-16	4.094846E-17
3.360000E+03	4.628617E-16	4.172808E-17
3.370000E+03	4.726970E-16	4.255125E-17
3.380000E+03	4.829760E-16	4.341145E-17
3.390000E+03	4.936040E-16	4.429999E-17
3.400000E+03	5.044825E-16	4.520790E-17
3.410000E+03	5.154742E-16	4.612278E-17
3.420000E+03	5.264552E-16	4.703349E-17
3.430000E+03	5.372600E-16	4.792527E-17
3.440000E+03	5.477297E-16	4.878403E-17
3.450000E+03	5.577036E-16	4.959560E-17
3.460000E+03	5.670186E-16	5.034570E-17
3.470000E+03	5.755407E-16	5.102271E-17
3.480000E+03	5.831434E-16	5.161574E-17
3.490000E+03	5.897316E-16	5.211679E-17
3.500000E+03	5.952581E-16	5.252209E-17
3.510000E+03	5.997145E-16	5.283135E-17
3.520000E+03	6.031588E-16	5.305012E-17
3.530000E+03	6.056724E-16	5.318596E-17
3.540000E+03	6.074192E-16	5.325365E-17
3.550000E+03	6.085979E-16	5.327089E-17
3.560000E+03	6.094577E-16	5.325972E-17
3.570000E+03	6.102703E-16	5.324395E-17
3.580000E+03	6.113429E-16	5.325040E-17
3.590000E+03	6.130181E-16	5.330872E-17
3.600000E+03	6.156229E-16	5.344706E-17
3.610000E+03	6.195207E-16	5.369650E-17
3.620000E+03	6.250637E-16	5.408698E-17
3.630000E+03	6.325985E-16	5.464771E-17
3.640000E+03	6.424786E-16	5.540833E-17
3.650000E+03	6.550665E-16	5.639901E-17
3.660000E+03	6.707108E-16	5.764852E-17
3.670000E+03	6.897857E-16	5.918765E-17
3.680000E+03	7.126420E-16	6.104492E-17
3.690000E+03	7.396530E-16	6.325058E-17
3.700000E+03	7.711910E-16	6.583458E-17
3.710000E+03	8.076325E-16	6.882699E-17
3.720000E+03	8.493299E-16	7.225560E-17
3.730000E+03	8.966372E-16	7.614812E-17
3.740000E+03	9.498692E-16	8.052873E-17
3.750000E+03	1.009308E-15	8.541865E-17
3.760000E+03	1.075163E-15	9.083281E-17
3.770000E+03	1.147577E-15	9.678019E-17
3.780000E+03	1.226576E-15	1.032602E-16
3.790000E+03	1.312066E-15	1.102620E-16
3.800000E+03	1.403853E-15	1.177661E-16
3.810000E+03	1.501524E-15	1.257353E-16
3.820000E+03	1.604558E-15	1.341233E-16
3.830000E+03	1.712279E-15	1.428710E-16
3.840000E+03	1.823810E-15	1.519035E-16
3.850000E+03	1.938174E-15	1.611377E-16
3.860000E+03	2.054308E-15	1.704840E-16
3.870000E+03	2.171068E-15	1.798468E-16
3.880000E+03	2.287286E-15	1.891292E-16
3.890000E+03	2.401793E-15	1.982349E-16
3.900000E+03	2.513526E-15	2.070771E-16
3.910000E+03	2.621508E-15	2.155767E-16
3.920000E+03	2.724898E-15	2.236663E-16
3.930000E+03	2.823010E-15	2.312917E-16
3.940000E+03	2.915323E-15	2.384127E-16
3.950000E+03	3.001505E-15	2.450050E-16
3.960000E+03	3.081348E-15	2.510542E-16
3.970000E+03	3.154736E-15	2.565539E-16
3.980000E+03	3.221731E-15	2.615120E-16
3.990000E+03	3.282366E-15	2.659342E-16
4.000000E+03	3.336753E-15	2.698325E-16
4.010000E+03	3.384963E-15	2.732153E-16
4.020000E+03	3.426994E-15	2.760855E-16
4.030000E+03	3.462878E-15	2.784484E-16
4.040000E+03	3.492485E-15	2.802965E-16
4.050000E+03	3.515682E-15	2.816219E-16
4.060000E+03	3.532247E-15	2.824100E-16
4.070000E+03	3.541931E-15	2.826439E-16
4.080000E+03	3.544482E-15	2.823068E-16
4.090000E+03	3.539708E-15	2.813866E-16
4.100000E+03	3.527426E-15	2.798723E-16
4.110000E+03	3.507582E-15	2.777631E-16
4.120000E+03	3.480313E-15	2.750732E-16
4.130000E+03	3.445782E-15	2.718189E-16
4.140000E+03	3.404406E-15	2.680366E-16
4.150000E+03	3.356743E-15	2.637731E-16
4.160000E+03	3.303515E-15	2.590880E-16
4.170000E+03	3.245597E-15	2.540523E-16
4.180000E+03	3.184000E-15	2.487472E-16
4.190000E+03	3.119842E-15	2.432615E-16
4.200000E+03	3.054319E-15	2.376896E-16
4.210000E+03	2.988672E-15	2.321284E-16
4.220000E+03	2.924143E-15	2.266742E-16
4.230000E+03	2.861920E-15	2.214185E-16
4.240000E+03	2.803148E-15	2.164487E-16
4.250000E+03	2.748902E-15	2.118460E-16
4.260000E+03	2.700106E-15	2.076794E-16
4.270000E+03	2.657495E-15	2.040030E-16
4.280000E+03	2.621725E-15	2.008642E-16
4.290000E+03	2.593267E-15	1.982960E-16
4.300000E+03	2.572435E-15	1.963189E-16
4.310000E+03	2.559386E-15	1.949418E-16
4.320000E+03	2.554105E-15	1.941599E-16
4.330000E+03	2.556505E-15	1.939631E-16
4.340000E+03	2.566271E-15	1.943244E-16
4.350000E+03	2.583054E-15	1.952140E-16
4.360000E+03	2.606335E-15	1.965897E-16
4.370000E+03	2.635502E-15	1.984029E-16
4.380000E+03	2.669810E-15	2.005948E-16
4.390000E+03	2.708432E-15	2.031014E-16
4.400000E+03	2.750423E-15	2.058502E-16
4.410000E+03	2.794797E-15	2.087660E-16
4.420000E+03	2.840447E-15	2.117655E-16
4.430000E+03	2.886197E-15	2.147608E-16
4.440000E+03	2.930896E-15	2.176663E-16
4.450000E+03	2.973349E-15	2.203941E-16
4.460000E+03	3.012436E-15	2.228623E-16
4.470000E+03	3.047154E-15	2.249986E-16
4.480000E+03	3.076546E-15	2.267342E-16
4.490000E+03	3.099901E-15	2.280193E-16
4.500000E+03	3.116666E-15	2.288159E-16
4.510000E+03	3.126469E-15	2.290994E-16
4.520000E+03	3.129169E-15	2.288628E-16
4.530000E+03	3.124832E-15	2.281138E-16
4.540000E+03	3.113707E-15	2.268733E-16
4.550000E+03	3.096199E-15	2.251738E-16
4.560000E+03	3.072813E-15	2.230546E-16
4.570000E+03	3.044152E-15	2.205617E-16
4.580000E+03	3.010968E-15	2.177516E-16
4.590000E+03	2.973930E-15	2.146745E-16
4.600000E+03	2.933752E-15	2.113832E-16
4.610000E+03	2.891188E-15	2.079333E-16
4.620000E+03	2.846934E-15	2.043756E-16
4.630000E+03	2.801564E-15	2.007518E-16
4.640000E+03	2.755757E-15	1.971110E-16
4.650000E+03	2.709940E-15	1.934835E-16
4.660000E+03	2.664629E-15	1.899064E-16
4.670000E+03	2.620189E-15	1.864051E-16
4.680000E+03	2.576902E-15	1.829994E-16
4.690000E+03	2.534979E-15	1.797035E-16
4.700000E+03	2.494552E-15	1.765266E-16
4.710000E+03	2.455743E-15	1.734762E-16
4.720000E+03	2.418539E-15	1.705510E-16
4.730000E+03	2.382915E-15	1.677487E-16
4.740000E+03	2.348845E-15	1.650665E-16
4.750000E+03	2.316226E-15	1.624968E-16
4.760000E+03	2.285088E-15	1.600410E-16
4.770000E+03	2.255355E-15	1.576934E-16
4.780000E+03	2.227119E-15	1.554596E-16
4.790000E+03	2.200486E-15	1.533466E-16
4.800000E+03	2.175589E-15	1.513631E-16
4.810000E+03	2.152697E-15	1.495270E-16
4.820000E+03	2.132143E-15	1.478607E-16
4.830000E+03	2.114241E-15	1.463853E-16
4.840000E+03	2.099404E-15	1.451283E-16
4.850000E+03	2.088031E-15	1.441163E-16
4.860000E+03	2.080486E-15	1.433731E-16
4.870000E+03	2.077114E-15	1.429215E-16
4.880000E+03	2.078227E-15	1.427815E-16
4.890000E+03	2.084021E-15	1.429652E-16
4.900000E+03	2.094652E-15	1.434819E-16
4.910000E+03	2.110126E-15	1.443307E-16
4.920000E+03	2.130423E-15	1.455089E-16
4.930000E+03	2.155424E-15	1.470071E-16
4.940000E+03	2.184906E-15	1.488088E-16
4.950000E+03	2.218625E-15	1.508964E-16
4.960000E+03	2.256230E-15	1.532451E-16
4.970000E+03	2.297359E-15	1.558294E-16
4.980000E+03	2.341559E-15	1.586181E-16
4.990000E+03	2.388355E-15	1.615783E-16
5.000000E+03	2.437205E-15	1.646731E-16
5.010000E+03	2.487603E-15	1.678682E-16
5.020000E+03	2.538907E-15	1.711200E-16
5.030000E+03	2.590488E-15	1.743866E-16
5.040000E+03	2.641717E-15	1.776258E-16
5.050000E+03	2.691890E-15	1.807907E-16
5.060000E+03	2.740317E-15	1.838358E-16
5.070000E+03	2.786312E-15	1.867157E-16
5.080000E+03	2.829204E-15	1.893865E-16
5.090000E+03	2.868333E-15	1.918049E-16
5.100000E+03	2.903119E-15	1.939333E-16
5.110000E+03	2.933086E-15	1.957413E-16
5.120000E+03	2.957756E-15	1.971979E-16
5.130000E+03	2.976867E-15	1.982873E-16
5.140000E+03	2.990115E-15	1.989902E-16
5.150000E+03	2.997451E-15	1.993047E-16
5.160000E+03	2.998844E-15	1.992299E-16
5.170000E+03	2.994396E-15	1.987736E-16
5.180000E+03	2.984311E-15	1.979505E-16
5.190000E+03	2.968860E-15	1.967793E-16
5.200000E+03	2.948431E-15	1.952865E-16
5.210000E+03	2.923465E-15	1.935020E-16
5.220000E+03	2.894563E-15	1.914660E-16
5.230000E+03	2.862233E-15	1.892126E-16
5.240000E+03	2.827138E-15	1.867858E-16
5.250000E+03	2.789923E-15	1.842282E-16
5.260000E+03	2.751220E-15	1.815819E-16
5.270000E+03	2.711569E-15	1.788821E-16
5.280000E+03	2.671532E-15	1.761660E-16
5.290000E+03	2.631537E-15	1.734615E-16
5.300000E+03	2.591955E-15	1.707928E-16
5.310000E+03	2.553034E-15	1.681761E-16
5.320000E+03	2.514994E-15	1.656256E-16
5.330000E+03	2.477900E-15	1.631452E-16
5.340000E+03	2.441820E-15	1.607391E-16
5.350000E+03	2.406757E-15	1.584075E-16
5.360000E+03	2.372758E-15	1.561529E-16
5.370000E+03	2.339775E-15	1.539721E-16
5.380000E+03	2.307881E-15	1.518697E-16
5.390000E+03	2.277138E-15	1.498493E-16
5.400000E+03	2.247641E-15	1.479168E-16
5.410000E+03	2.219473E-15	1.460775E-16
5.420000E+03	2.192794E-15	1.443415E-16
5.430000E+03	2.167770E-15	1.427197E-16
5.440000E+03	2.144484E-15	1.412172E-16
5.450000E+03	2.123078E-15	1.398432E-16
5.460000E+03	2.103583E-15	1.385997E-16
5.470000E+03	2.086007E-15	1.374870E-16
5.480000E+03	2.070409E-15	1.365090E-16
5.490000E+03	2.056701E-15	1.356599E-16
5.500000E+03	2.044819E-15	1.349353E-16
5.510000E+03	2.034595E-15	1.343243E-16
5.520000E+03	2.025871E-15	1.338163E-16
5.530000E+03	2.018338E-15	1.333911E-16
5.540000E+03	2.011714E-15	1.330299E-16
5.550000E+03	2.005646E-15	1.327094E-16
5.560000E+03	1.999831E-15	1.324096E-16
5.570000E+03	1.993881E-15	1.321045E-16
5.580000E+03	1.987460E-15	1.317719E-16
5.590000E+03	1.980238E-15	1.313896E-16
5.600000E+03	1.971954E-15	1.309402E-16
5.610000E+03	1.962338E-15	1.304054E-16
5.620000E+03	1.951211E-15	1.297728E-16
5.630000E+03	1.938450E-15	1.290341E-16
5.640000E+03	1.923976E-15	1.281835E-16
5.650000E+03	1.907792E-15	1.272207E-16
5.660000E+03	1.889913E-15	1.261463E-16
5.670000E+03	1.870451E-15	1.249674E-16
5.680000E+03	1.849552E-15	1.236932E-16
5.690000E+03	1.827380E-15	1.223342E-16
5.700000E+03	1.804118E-15	1.209022E-16
5.710000E+03	1.779957E-15	1.194098E-16
5.720000E+03	1.755123E-15	1.178716E-16
5.730000E+03	1.729751E-15	1.162965E-16
5.740000E+03	1.704025E-15	1.146965E-16
5.750000E+03	1.678052E-15	1.130786E-16
5.760000E+03	1.651877E-15	1.114456E-16
5.770000E+03	1.625529E-15	1.097993E-16
5.780000E+03	1.598980E-15	1.081375E-16
5.790000E+03	1.572115E-15	1.064521E-16
5.800000E+03	1.544787E-15	1.047332E-16
5.810000E+03	1.516846E-15	1.029701E-16
5.820000E+03	1.488052E-15	1.011462E-16
5.830000E+03	1.458211E-15	9.924801E-17
5.840000E+03	1.427127E-15	9.726169E-17
5.850000E+03	1.394644E-15	9.517605E-17
5.860000E+03	1.360677E-15	9.298472E-17
5.870000E+03	1.325166E-15	9.068308E-17
5.880000E+03	1.288200E-15	8.827663E-17
5.890000E+03	1.249913E-15	8.577392E-17
5.900000E+03	1.210545E-15	8.319093E-17
5.910000E+03	1.170419E-15	8.054936E-17
5.920000E+03	1.129926E-15	7.787588E-17
5.930000E+03	1.089527E-15	7.520191E-17
5.940000E+03	1.049671E-15	7.255845E-17
5.950000E+03	1.010846E-15	6.997923E-17
5.960000E+03	9.735366E-16	6.749803E-17
5.970000E+03	9.381838E-16	6.514585E-17
5.980000E+03	9.051602E-16	6.294909E-17
5.990000E+03	8.748258E-16	6.093343E-17
6.000000E+03	8.474251E-16	5.911670E-17
6.010000E+03	8.232034E-16	5.751689E-17
6.020000E+03	8.022872E-16	5.614382E-17
6.030000E+03	7.847834E-16	5.500600E-17
6.040000E+03	7.707663E-16	5.410971E-17
6.050000E+03	7.602582E-16	5.345765E-17
6.060000E+03	7.532670E-16	5.305151E-17
6.070000E+03	7.497685E-16	5.289075E-17
6.080000E+03	7.497636E-16	5.297662E-17
6.090000E+03	7.532018E-16	5.330671E-17
6.100000E+03	7.600756E-16	5.388170E-17
6.110000E+03	7.703422E-16	5.469975E-17
6.120000E+03	7.839538E-16	5.575865E-17
6.130000E+03	8.008562E-16	5.705574E-17
6.140000E+03	8.209868E-16	5.858773E-17
6.150000E+03	8.442345E-16	6.034787E-17
6.160000E+03	8.704620E-16	6.232748E-17
6.170000E+03	8.995084E-16	6.451612E-17
6.180000E+03	9.311176E-16	6.689645E-17
6.190000E+03	9.650095E-16	6.944929E-17
6.200000E+03	1.000844E-15	7.215103E-17
6.210000E+03	1.038228E-15	7.497395E-17
6.220000E+03	1.076686E-15	7.788433E-17
6.230000E+03	1.115713E-15	8.084604E-17
6.240000E+03	1.154790E-15	8.382161E-17
6.250000E+03	1.193353E-15	8.677017E-17
6.260000E+03	1.230874E-15	8.965302E-17
6.270000E+03	1.266832E-15	9.243183E-17
6.280000E+03	1.300762E-15	9.507196E-17
6.290000E+03	1.332237E-15	9.754158E-17
6.300000E+03	1.360899E-15	9.981333E-17
6.310000E+03	1.386482E-15	1.018668E-16
6.320000E+03	1.408801E-15	1.036870E-16
6.330000E+03	1.427719E-15	1.052628E-16
6.340000E+03	1.443211E-15	1.065908E-16
6.350000E+03	1.455328E-15	1.076736E-16
6.360000E+03	1.464145E-15	1.085154E-16
6.370000E+03	1.469859E-15	1.091295E-16
6.380000E+03	1.472667E-15	1.095294E-16
6.390000E+03	1.472806E-15	1.097316E-16
6.400000E+03	1.470539E-15	1.097545E-16
6.410000E+03	1.466186E-15	1.096213E-16
6.420000E+03	1.460012E-15	1.093509E-16
6.430000E+03	1.452343E-15	1.089669E-16
6.440000E+03	1.443448E-15	1.084892E-16
6.450000E+03	1.433578E-15	1.079358E-16
6.460000E+03	1.422974E-15	1.073248E-16
6.470000E+03	1.411813E-15	1.066691E-16
6.480000E+03	1.400252E-15	1.059804E-16
6.490000E+03	1.388348E-15	1.052627E-16
6.500000E+03	1.376211E-15	1.045244E-16
6.510000E+03	1.363883E-15	1.037685E-16
6.520000E+03	1.351369E-15	1.029952E-16
6.530000E+03	1.338696E-15	1.022067E-16
6.540000E+03	1.325866E-15	1.014028E-16
6.550000E+03	1.312873E-15	1.005831E-16
6.560000E+03	1.299709E-15	9.974689E-17
6.570000E+03	1.286388E-15	9.889516E-17
6.580000E+03	1.272887E-15	9.802598E-17
6.590000E+03	1.259205E-15	9.713933E-17
6.600000E+03	1.245370E-15	9.623722E-17
6.610000E+03	1.231392E-15	9.532032E-17
6.620000E+03	1.217266E-15	9.438829E-17
6.630000E+03	1.203034E-15	9.344411E-17
6.640000E+03	1.188697E-15	9.248802E-17
6.650000E+03	1.174320E-15	9.152494E-17
6.660000E+03	1.159889E-15	9.055375E-17
6.670000E+03	1.145431E-15	8.957657E-17
6.680000E+03	1.130994E-15	8.859706E-17
6.690000E+03	1.116604E-15	8.761736E-17
6.700000E+03	1.102271E-15	8.663819E-17
6.710000E+03	1.088023E-15	8.566182E-17
6.720000E+03	1.073908E-15	8.469210E-17
6.730000E+03	1.059939E-15	8.372998E-17
6.740000E+03	1.046163E-15	8.277934E-17
6.750000E+03	1.032572E-15	8.183969E-17
6.760000E+03	1.019235E-15	8.091634E-17
6.770000E+03	1.006140E-15	8.000868E-17
6.780000E+03	9.933506E-16	7.912173E-17
6.790000E+03	9.808533E-16	7.825458E-17
6.800000E+03	9.686866E-16	7.741040E-17
6.810000E+03	9.568682E-16	7.659075E-17
6.820000E+03	9.453947E-16	7.579550E-17
6.830000E+03	9.342955E-16	7.502713E-17
6.840000E+03	9.235610E-16	7.428502E-17
6.850000E+03	9.132150E-16	7.357124E-17
6.860000E+03	9.032263E-16	7.288342E-17
6.870000E+03	8.936275E-16	7.222432E-17
6.880000E+03	8.843996E-16	7.159257E-17
6.890000E+03	8.755362E-16	7.098780E-17
6.900000E+03	8.670107E-16	7.040799E-17
6.910000E+03	8.588455E-16	6.985509E-17
6.920000E+03	8.509752E-16	6.932390E-17
6.930000E+03	8.434334E-16	6.881729E-17
6.940000E+03	8.361676E-16	6.833111E-17
6.950000E+03	8.291594E-16	6.786394E-17
6.960000E+03	8.224043E-16	6.741552E-17
6.970000E+03	8.158664E-16	6.698300E-17
6.980000E+03	8.095264E-16	6.656488E-17
6.990000E+03	8.033640E-16	6.615956E-17
7.000000E+03	7.973602E-16	6.576555E-17
7.010000E+03	7.914956E-16	6.538131E-17
7.020000E+03	7.857330E-16	6.500381E-17
7.030000E+03	7.800833E-16	6.463399E-17
7.040000E+03	7.744769E-16	6.426614E-17
7.050000E+03	7.689363E-16	6.390212E-17
7.060000E+03	7.633930E-16	6.353628E-17
7.070000E+03	7.578526E-16	6.316907E-17
7.080000E+03	7.522763E-16	6.279727E-17
7.090000E+03	7.466432E-16	6.241912E-17
7.100000E+03	7.409487E-16	6.203421E-17
7.110000E+03	7.351463E-16	6.163863E-17
7.120000E+03	7.292387E-16	6.123257E-17
7.130000E+03	7.232046E-16	6.081420E-17
7.140000E+03	7.170558E-16	6.038448E-17
7.150000E+03	7.107940E-16	5.994349E-17
7.160000E+03	7.044129E-16	5.949070E-17
7.170000E+03	6.979371E-16	5.902813E-17
7.180000E+03	6.913530E-16	5.855460E-17
7.190000E+03	6.847063E-16	5.807395E-17
7.200000E+03	6.780015E-16	5.758656E-17
7.210000E+03	6.712442E-16	5.709288E-17
7.220000E+03	6.644681E-16	5.659576E-17
7.230000E+03	6.576906E-16	5.609670E-17
7.240000E+03	6.509157E-16	5.559603E-17
7.250000E+03	6.441571E-16	5.509495E-17
7.260000E+03	6.374286E-16	5.459464E-17
7.270000E+03	6.307406E-16	5.409601E-17
7.280000E+03	6.241022E-16	5.359987E-17
7.290000E+03	6.174934E-16	5.310451E-17
7.300000E+03	6.109456E-16	5.261266E-17
7.310000E+03	6.044496E-16	5.212354E-17
7.320000E+03	5.979943E-16	5.163625E-17
7.330000E+03	5.915932E-16	5.115194E-17
7.340000E+03	5.852225E-16	5.066860E-17
7.350000E+03	5.788805E-16	5.018609E-17
7.360000E+03	5.725665E-16	4.970436E-17
7.370000E+03	5.662655E-16	4.922214E-17
7.380000E+03	5.599863E-16	4.874018E-17
7.390000E+03	5.536897E-16	4.825511E-17
7.400000E+03	5.473946E-16	4.776855E-17
7.410000E+03	5.410737E-16	4.727814E-17
7.420000E+03	5.347337E-16	4.678447E-17
7.430000E+03	5.283588E-16	4.628613E-17
7.440000E+03	5.219452E-16	4.578279E-17
7.450000E+03	5.155004E-16	4.527513E-17
7.460000E+03	5.090107E-16	4.476191E-17
7.470000E+03	5.025064E-16	4.424580E-17
7.480000E+03	4.959627E-16	4.372461E-17
7.490000E+03	4.893974E-16	4.319992E-17
7.500000E+03	4.827942E-16	4.267027E-17
7.510000E+03	4.761762E-16	4.213772E-17
7.520000E+03	4.695204E-16	4.160022E-17
7.530000E+03	4.628104E-16	4.105631E-17
7.540000E+03	4.560346E-16	4.050495E-17
7.550000E+03	4.491656E-16	3.994369E-17
7.560000E+03	4.421898E-16	3.937131E-17
7.570000E+03	4.350484E-16	3.878251E-17
7.580000E+03	4.277065E-16	3.817414E-17
7.590000E+03	4.201233E-16	3.754251E-17
7.600000E+03	4.122347E-16	3.688182E-17
7.610000E+03	4.039921E-16	3.618760E-17
7.620000E+03	3.953262E-16	3.545354E-17
7.630000E+03	3.861949E-16	3.467574E-17
7.640000E+03	3.765228E-16	3.384728E-17
7.650000E+03	3.662756E-16	3.296489E-17
7.660000E+03	3.553941E-16	3.202310E-17
7.670000E+03	3.438669E-16	3.102066E-17
7.680000E+03	3.316689E-16	2.995512E-17
7.690000E+03	3.188292E-16	2.882890E-17
7.700000E+03	3.053798E-16	2.764473E-17
7.710000E+03	2.913889E-16	2.640859E-17
7.720000E+03	2.769524E-16	2.512903E-17
7.730000E+03	2.621917E-16	2.381695E-17
7.740000E+03	2.472492E-16	2.248521E-17
7.750000E+03	2.322768E-16	2.114759E-17
7.760000E+03	2.174499E-16	1.982009E-17
