#wls	flux	fluxerr
1.600000E+03	8.043658E-15	5.826145E-16
1.640000E+03	6.709106E-15	4.745809E-16
1.680000E+03	5.523713E-15	3.812768E-16
1.720000E+03	4.485754E-15	3.018878E-16
1.760000E+03	3.590785E-15	2.354127E-16
1.800000E+03	2.831589E-15	1.806858E-16
1.840000E+03	2.197579E-15	1.363670E-16
1.880000E+03	1.677673E-15	1.011483E-16
1.920000E+03	1.258943E-15	7.368149E-17
1.960000E+03	9.280801E-16	5.268125E-17
2.000000E+03	6.718738E-16	3.695740E-17
2.040000E+03	4.782944E-16	2.547351E-17
2.080000E+03	3.367546E-16	1.735170E-17
2.120000E+03	2.379282E-16	1.185197E-17
2.160000E+03	1.740154E-16	8.374609E-18
2.200000E+03	1.368392E-16	6.358895E-18
2.240000E+03	1.200640E-16	5.385159E-18
2.280000E+03	1.210162E-16	5.237662E-18
2.320000E+03	1.408269E-16	5.881254E-18
2.360000E+03	1.857500E-16	7.486711E-18
2.400000E+03	2.707261E-16	1.053616E-17
2.440000E+03	4.243323E-16	1.595882E-17
2.480000E+03	6.959869E-16	2.532482E-17
2.520000E+03	1.162874E-15	4.100084E-17
2.560000E+03	1.928941E-15	6.600954E-17
2.600000E+03	3.101610E-15	1.031752E-16
2.640000E+03	4.741278E-15	1.535316E-16
2.680000E+03	6.830959E-15	2.155959E-16
2.720000E+03	9.279578E-15	2.857629E-16
2.760000E+03	1.192909E-14	3.587421E-16
2.800000E+03	1.458493E-14	4.286206E-16
2.840000E+03	1.705813E-14	4.901335E-16
2.880000E+03	1.920460E-14	5.397060E-16
2.920000E+03	2.095157E-14	5.760242E-16
2.960000E+03	2.230540E-14	6.000331E-16
3.000000E+03	2.332969E-14	6.141435E-16
3.010000E+03	2.354649E-14	6.165171E-16
3.020000E+03	2.375062E-14	6.185234E-16
3.030000E+03	2.394394E-14	6.202170E-16
3.040000E+03	2.412946E-14	6.216813E-16
3.050000E+03	2.430856E-14	6.229564E-16
3.060000E+03	2.448327E-14	6.240977E-16
3.070000E+03	2.465612E-14	6.251730E-16
3.080000E+03	2.482861E-14	6.262228E-16
3.090000E+03	2.500276E-14	6.272995E-16
3.100000E+03	2.518163E-14	6.284809E-16
3.110000E+03	2.536614E-14	6.297904E-16
3.120000E+03	2.555884E-14	6.312910E-16
3.130000E+03	2.576122E-14	6.330186E-16
3.140000E+03	2.597689E-14	6.350575E-16
3.150000E+03	2.620634E-14	6.374141E-16
3.160000E+03	2.645214E-14	6.401452E-16
3.170000E+03	2.671687E-14	6.433060E-16
3.180000E+03	2.700254E-14	6.469379E-16
3.190000E+03	2.731022E-14	6.510587E-16
3.200000E+03	2.764350E-14	6.557456E-16
3.210000E+03	2.800341E-14	6.610144E-16
3.220000E+03	2.839253E-14	6.669169E-16
3.230000E+03	2.881242E-14	6.734799E-16
3.240000E+03	2.926557E-14	6.807520E-16
3.250000E+03	2.975398E-14	6.887689E-16
3.260000E+03	3.027949E-14	6.975631E-16
3.270000E+03	3.084334E-14	7.071522E-16
3.280000E+03	3.144765E-14	7.175737E-16
3.290000E+03	3.209383E-14	7.288490E-16
3.300000E+03	3.278252E-14	7.409817E-16
3.310000E+03	3.351514E-14	7.539934E-16
3.320000E+03	3.429181E-14	7.678760E-16
3.330000E+03	3.511338E-14	7.826386E-16
3.340000E+03	3.597924E-14	7.982582E-16
3.350000E+03	3.688899E-14	8.147175E-16
3.360000E+03	3.784187E-14	8.319915E-16
3.370000E+03	3.883663E-14	8.500461E-16
3.380000E+03	3.987163E-14	8.688397E-16
3.390000E+03	4.094409E-14	8.883071E-16
3.400000E+03	4.205182E-14	9.083983E-16
3.410000E+03	4.319014E-14	9.290107E-16
3.420000E+03	4.435600E-14	9.500793E-16
3.430000E+03	4.554289E-14	9.714673E-16
3.440000E+03	4.674425E-14	9.930400E-16
3.450000E+03	4.795191E-14	1.014631E-15
3.460000E+03	4.915454E-14	1.036010E-15
3.470000E+03	5.033812E-14	1.056897E-15
3.480000E+03	5.359523E-14	1.121078E-15
3.481470E+03	5.378194E-14	1.124373E-15
3.482940E+03	5.399635E-14	1.128246E-15
3.484410E+03	5.420849E-14	1.132069E-15
3.485880E+03	5.439269E-14	1.135306E-15
3.487350E+03	5.454890E-14	1.137959E-15
3.488820E+03	5.470709E-14	1.140652E-15
3.490290E+03	5.490371E-14	1.144145E-15
3.491760E+03	5.514737E-14	1.148616E-15
3.493230E+03	5.538878E-14	1.153038E-15
3.494700E+03	5.562151E-14	1.157277E-15
3.496170E+03	5.585199E-14	1.161467E-15
3.497640E+03	5.608448E-14	1.165696E-15
3.499110E+03	5.632976E-14	1.170189E-15
3.500580E+03	5.658351E-14	1.174855E-15
3.502050E+03	5.684361E-14	1.179650E-15
3.503520E+03	5.711005E-14	1.184573E-15
3.504990E+03	5.735057E-14	1.188957E-15
3.506460E+03	5.762109E-14	1.193959E-15
3.507930E+03	5.791088E-14	1.199357E-15
3.509400E+03	5.817903E-14	1.204304E-15
3.510870E+03	5.845785E-14	1.209469E-15
3.512340E+03	5.874085E-14	1.214716E-15
3.513810E+03	5.901297E-14	1.219735E-15
3.515280E+03	5.927634E-14	1.224570E-15
3.516750E+03	5.956978E-14	1.230023E-15
3.518220E+03	5.985015E-14	1.235203E-15
3.519690E+03	6.014119E-14	1.240599E-15
3.521160E+03	6.043210E-14	1.245988E-15
3.522630E+03	6.072506E-14	1.251416E-15
3.524100E+03	6.106971E-14	1.257906E-15
3.525570E+03	6.141641E-14	1.264432E-15
3.527040E+03	6.173277E-14	1.270329E-15
3.528510E+03	6.204683E-14	1.276175E-15
3.529980E+03	6.235212E-14	1.281836E-15
3.531450E+03	6.267240E-14	1.287801E-15
3.532920E+03	6.301202E-14	1.294159E-15
3.534390E+03	6.335151E-14	1.300509E-15
3.535860E+03	6.368654E-14	1.306763E-15
3.537330E+03	6.403225E-14	1.313231E-15
3.538800E+03	6.438217E-14	1.319780E-15
3.540270E+03	6.474493E-14	1.326588E-15
3.541740E+03	6.511622E-14	1.333564E-15
3.543210E+03	6.547221E-14	1.340222E-15
3.544680E+03	6.582806E-14	1.346872E-15
3.546150E+03	6.617291E-14	1.353291E-15
3.547620E+03	6.650678E-14	1.359480E-15
3.549090E+03	6.683613E-14	1.365573E-15
3.550560E+03	6.716532E-14	1.371657E-15
3.552030E+03	6.749867E-14	1.377821E-15
3.553500E+03	6.782317E-14	1.383799E-15
3.554970E+03	6.813446E-14	1.389503E-15
3.556440E+03	6.845208E-14	1.395331E-15
3.557910E+03	6.874997E-14	1.400752E-15
3.559380E+03	6.903031E-14	1.405811E-15
3.560850E+03	6.930607E-14	1.410773E-15
3.562320E+03	6.955124E-14	1.415108E-15
3.563790E+03	6.977446E-14	1.418993E-15
3.565260E+03	6.999093E-14	1.422738E-15
3.566730E+03	7.018543E-14	1.426033E-15
3.568200E+03	7.036666E-14	1.429055E-15
3.569670E+03	7.054112E-14	1.431937E-15
3.571140E+03	7.069795E-14	1.434459E-15
3.572610E+03	7.082408E-14	1.436356E-15
3.574080E+03	7.092385E-14	1.437717E-15
3.575550E+03	7.099728E-14	1.438542E-15
3.577020E+03	7.104651E-14	1.438877E-15
3.578490E+03	7.107371E-14	1.438764E-15
3.579960E+03	7.107016E-14	1.438030E-15
3.581430E+03	7.104241E-14	1.436807E-15
3.582900E+03	7.095562E-14	1.434390E-15
3.584370E+03	7.082722E-14	1.431135E-15
3.585840E+03	7.067237E-14	1.427347E-15
3.587310E+03	7.048241E-14	1.422854E-15
3.588780E+03	7.023992E-14	1.417305E-15
3.590250E+03	6.995575E-14	1.410919E-15
3.591720E+03	6.966474E-14	1.404401E-15
3.593190E+03	6.929505E-14	1.396302E-15
3.594660E+03	6.886846E-14	1.387064E-15
3.596130E+03	6.841978E-14	1.377389E-15
3.597600E+03	6.795553E-14	1.367409E-15
3.599070E+03	6.746701E-14	1.356949E-15
3.600540E+03	6.694554E-14	1.345835E-15
3.602010E+03	6.639110E-14	1.334067E-15
3.603480E+03	6.577540E-14	1.321079E-15
3.604950E+03	6.512673E-14	1.307441E-15
3.606420E+03	6.447124E-14	1.293677E-15
3.607890E+03	6.378279E-14	1.279263E-15
3.609360E+03	6.307665E-14	1.264507E-15
3.610830E+03	6.235282E-14	1.249410E-15
3.612300E+03	6.155468E-14	1.232836E-15
3.613770E+03	6.071274E-14	1.215400E-15
3.615240E+03	5.985531E-14	1.197670E-15
3.616710E+03	5.897587E-14	1.179514E-15
3.618180E+03	5.807877E-14	1.161021E-15
3.619650E+03	5.717494E-14	1.142410E-15
3.621120E+03	5.624258E-14	1.123245E-15
3.622590E+03	5.526867E-14	1.103267E-15
3.624060E+03	5.425755E-14	1.082565E-15
3.625530E+03	5.322449E-14	1.061443E-15
3.627000E+03	5.219781E-14	1.040467E-15
3.628470E+03	5.114704E-14	1.019030E-15
3.629940E+03	5.005259E-14	9.967426E-16
3.631410E+03	4.896020E-14	9.745158E-16
3.632880E+03	4.781982E-14	9.513542E-16
3.634350E+03	4.666846E-14	9.279954E-16
3.635820E+03	4.552575E-14	9.048296E-16
3.637290E+03	4.435467E-14	8.811214E-16
3.638760E+03	4.315960E-14	8.569588E-16
3.640230E+03	4.198845E-14	8.332930E-16
3.641700E+03	4.080422E-14	8.093897E-16
3.643170E+03	3.961564E-14	7.854222E-16
3.644640E+03	3.844665E-14	7.618654E-16
3.646110E+03	3.727768E-14	7.383310E-16
3.647580E+03	3.612615E-14	7.151640E-16
3.649050E+03	3.501165E-14	6.927516E-16
3.650520E+03	3.392767E-14	6.709637E-16
3.651990E+03	3.282633E-14	6.488535E-16
3.653460E+03	3.176422E-14	6.275394E-16
3.654930E+03	3.073915E-14	6.069772E-16
3.656400E+03	2.976637E-14	5.874665E-16
3.657870E+03	2.878497E-14	5.678047E-16
3.659340E+03	2.781236E-14	5.483350E-16
3.660810E+03	2.687463E-14	5.295719E-16
3.662280E+03	2.595659E-14	5.112145E-16
3.663750E+03	2.505603E-14	4.932192E-16
3.665220E+03	2.419472E-14	4.760140E-16
3.666690E+03	2.337480E-14	4.596396E-16
3.668160E+03	2.256153E-14	4.434118E-16
3.669630E+03	2.179618E-14	4.281416E-16
3.671100E+03	2.109719E-14	4.141895E-16
3.672570E+03	2.042352E-14	4.007479E-16
3.674040E+03	1.976189E-14	3.875559E-16
3.675510E+03	1.915358E-14	3.754223E-16
3.676980E+03	1.857316E-14	3.638472E-16
3.678450E+03	1.801825E-14	3.527832E-16
3.679920E+03	1.750055E-14	3.424583E-16
3.681390E+03	1.700616E-14	3.325999E-16
3.682860E+03	1.652706E-14	3.230504E-16
3.684330E+03	1.604068E-14	3.133681E-16
3.685800E+03	1.557913E-14	3.041807E-16
3.687270E+03	1.516886E-14	2.960031E-16
3.688740E+03	1.482481E-14	2.891256E-16
3.690210E+03	1.453263E-14	2.832661E-16
3.691680E+03	1.425829E-14	2.777597E-16
3.693150E+03	1.394780E-14	2.715549E-16
3.694620E+03	1.365494E-14	2.656995E-16
3.696090E+03	1.340741E-14	2.607316E-16
3.697560E+03	1.320779E-14	2.566997E-16
3.699030E+03	1.305629E-14	2.536063E-16
3.700500E+03	1.291996E-14	2.508102E-16
3.701970E+03	1.279295E-14	2.481973E-16
3.703440E+03	1.268608E-14	2.459774E-16
3.704910E+03	1.260712E-14	2.442999E-16
3.706380E+03	1.257878E-14	2.436039E-16
3.707850E+03	1.257592E-14	2.434012E-16
3.709320E+03	1.257974E-14	2.433269E-16
3.710790E+03	1.264384E-14	2.444172E-16
3.712260E+03	1.273683E-14	2.460633E-16
3.713730E+03	1.285589E-14	2.482097E-16
3.715200E+03	1.301051E-14	2.510387E-16
3.716670E+03	1.322355E-14	2.549899E-16
3.718140E+03	1.344034E-14	2.590074E-16
3.719610E+03	1.369865E-14	2.638184E-16
3.721080E+03	1.397387E-14	2.689476E-16
3.722550E+03	1.427847E-14	2.746344E-16
3.724020E+03	1.462819E-14	2.811802E-16
3.725490E+03	1.493951E-14	2.869788E-16
3.726960E+03	1.527112E-14	2.931582E-16
3.728430E+03	1.563313E-14	2.999115E-16
3.729900E+03	1.599707E-14	3.066918E-16
3.731370E+03	1.641378E-14	3.144728E-16
3.732840E+03	1.685608E-14	3.227323E-16
3.734310E+03	1.729982E-14	3.310067E-16
3.735780E+03	1.774327E-14	3.392633E-16
3.737250E+03	1.822519E-14	3.482423E-16
3.738720E+03	1.872141E-14	3.574808E-16
3.740190E+03	1.921301E-14	3.666168E-16
3.741660E+03	1.969353E-14	3.755276E-16
3.743130E+03	2.019050E-14	3.847376E-16
3.744600E+03	2.071270E-14	3.944137E-16
3.746070E+03	2.123927E-14	4.041578E-16
3.747540E+03	2.177279E-14	4.140183E-16
3.749010E+03	2.232269E-14	4.241745E-16
3.750480E+03	2.289796E-14	4.347959E-16
3.751950E+03	2.348142E-14	4.455556E-16
3.753420E+03	2.404730E-14	4.559642E-16
3.754890E+03	2.463421E-14	4.667542E-16
3.756360E+03	2.522498E-14	4.775996E-16
3.757830E+03	2.579175E-14	4.879725E-16
3.759300E+03	2.635809E-14	4.983198E-16
3.760770E+03	2.691544E-14	5.084796E-16
3.762240E+03	2.746164E-14	5.184112E-16
3.763710E+03	2.802885E-14	5.287216E-16
3.765180E+03	2.859561E-14	5.390054E-16
3.766650E+03	2.915550E-14	5.491417E-16
3.768120E+03	2.971495E-14	5.592514E-16
3.769590E+03	3.026111E-14	5.690930E-16
3.771060E+03	3.077904E-14	5.783859E-16
3.772530E+03	3.130083E-14	5.877339E-16
3.774000E+03	3.181150E-14	5.968556E-16
3.775470E+03	3.230465E-14	6.056315E-16
3.776940E+03	3.279310E-14	6.143024E-16
3.778410E+03	3.326193E-14	6.225890E-16
3.779880E+03	3.371968E-14	6.306516E-16
3.781350E+03	3.416848E-14	6.385308E-16
3.782820E+03	3.459983E-14	6.460681E-16
3.784290E+03	3.503291E-14	6.536218E-16
3.785760E+03	3.544003E-14	6.606756E-16
3.787230E+03	3.581055E-14	6.670326E-16
3.788700E+03	3.615305E-14	6.728538E-16
3.790170E+03	3.651436E-14	6.790112E-16
3.791640E+03	3.684977E-14	6.846735E-16
3.793110E+03	3.718060E-14	6.902372E-16
3.794580E+03	3.749407E-14	6.954655E-16
3.796050E+03	3.779234E-14	7.003995E-16
3.797520E+03	3.807330E-14	7.050003E-16
3.798990E+03	3.833909E-14	7.093084E-16
3.800460E+03	3.857910E-14	7.131284E-16
3.801930E+03	3.880823E-14	7.167366E-16
3.803400E+03	3.904555E-14	7.204856E-16
3.804870E+03	3.928896E-14	7.243358E-16
3.806340E+03	3.952148E-14	7.279742E-16
3.807810E+03	3.974101E-14	7.313628E-16
3.809280E+03	3.994121E-14	7.343855E-16
3.810750E+03	4.014116E-14	7.373935E-16
3.812220E+03	4.033026E-14	7.401926E-16
3.813690E+03	4.053604E-14	7.432877E-16
3.815160E+03	4.072674E-14	7.460964E-16
3.816630E+03	4.089184E-14	7.484267E-16
3.818100E+03	4.105458E-14	7.507049E-16
3.819570E+03	4.124665E-14	7.535099E-16
3.821040E+03	4.144689E-14	7.564540E-16
3.822510E+03	4.164476E-14	7.593444E-16
3.823980E+03	4.184448E-14	7.622581E-16
3.825450E+03	4.204181E-14	7.651181E-16
3.826920E+03	4.222625E-14	7.677331E-16
3.828390E+03	4.242305E-14	7.705626E-16
3.829860E+03	4.264485E-14	7.738351E-16
3.831330E+03	4.286634E-14	7.770907E-16
3.832800E+03	4.308755E-14	7.803297E-16
3.834270E+03	4.334841E-14	7.842743E-16
3.835740E+03	4.364467E-14	7.888457E-16
3.837210E+03	4.396996E-14	7.939270E-16
3.838680E+03	4.431377E-14	7.993265E-16
3.840150E+03	4.468235E-14	8.051561E-16
3.841620E+03	4.505888E-14	8.111116E-16
3.843090E+03	4.545805E-14	8.174563E-16
3.844560E+03	4.586722E-14	8.239620E-16
3.846030E+03	4.628849E-14	8.306658E-16
3.847500E+03	4.674277E-14	8.379415E-16
3.848970E+03	4.724049E-14	8.459740E-16
3.850440E+03	4.776693E-14	8.544975E-16
3.851910E+03	4.828650E-14	8.628741E-16
3.853380E+03	4.883685E-14	8.717761E-16
3.854850E+03	4.940745E-14	8.810140E-16
3.856320E+03	4.996072E-14	8.899171E-16
3.857790E+03	5.051334E-14	8.987830E-16
3.859260E+03	5.107786E-14	9.078343E-16
3.860730E+03	5.165841E-14	9.171441E-16
3.862200E+03	5.228414E-14	9.272278E-16
3.863670E+03	5.295292E-14	9.380449E-16
3.865140E+03	5.363551E-14	9.490756E-16
3.866610E+03	5.430693E-14	9.598770E-16
3.868080E+03	5.498173E-14	9.707068E-16
3.869550E+03	5.568072E-14	9.819313E-16
3.871020E+03	5.638722E-14	9.932552E-16
3.872490E+03	5.708667E-14	1.004422E-15
3.873960E+03	5.779986E-14	1.015796E-15
3.875430E+03	5.850807E-14	1.027050E-15
3.876900E+03	5.920301E-14	1.038036E-15
3.878370E+03	5.987848E-14	1.048648E-15
3.879840E+03	6.053036E-14	1.058814E-15
3.881310E+03	6.114831E-14	1.068356E-15
3.882780E+03	6.175519E-14	1.077673E-15
3.884250E+03	6.235717E-14	1.086874E-15
3.885720E+03	6.296256E-14	1.096104E-15
3.887190E+03	6.355687E-14	1.105110E-15
3.888660E+03	6.412977E-14	1.113714E-15
3.890130E+03	6.469785E-14	1.122204E-15
3.891600E+03	6.524456E-14	1.130295E-15
3.893070E+03	6.576171E-14	1.137845E-15
3.894540E+03	6.629055E-14	1.145569E-15
3.896010E+03	6.681873E-14	1.153253E-15
3.897480E+03	6.734620E-14	1.160897E-15
3.898950E+03	6.787712E-14	1.168571E-15
3.900420E+03	6.841352E-14	1.176310E-15
3.901890E+03	6.894098E-14	1.183867E-15
3.903360E+03	6.946572E-14	1.191348E-15
3.904830E+03	7.000002E-14	1.198963E-15
3.906300E+03	7.051515E-14	1.206221E-15
3.907770E+03	7.104804E-14	1.213754E-15
3.909240E+03	7.158844E-14	1.221385E-15
3.910710E+03	7.214248E-14	1.229218E-15
3.912180E+03	7.268553E-14	1.236833E-15
3.913650E+03	7.320329E-14	1.243988E-15
3.915120E+03	7.371217E-14	1.250962E-15
3.916590E+03	7.422445E-14	1.257965E-15
3.918060E+03	7.472376E-14	1.264719E-15
3.919530E+03	7.521830E-14	1.271363E-15
3.921000E+03	7.569786E-14	1.277725E-15
3.922470E+03	7.615636E-14	1.283703E-15
3.923940E+03	7.661216E-14	1.289609E-15
3.925410E+03	7.705305E-14	1.295237E-15
3.926880E+03	7.747090E-14	1.300451E-15
3.928350E+03	7.785964E-14	1.305151E-15
3.929820E+03	7.824984E-14	1.309851E-15
3.931290E+03	7.864759E-14	1.314652E-15
3.932760E+03	7.901833E-14	1.318978E-15
3.934230E+03	7.935803E-14	1.322762E-15
3.935700E+03	7.967894E-14	1.326211E-15
3.937170E+03	7.999732E-14	1.329595E-15
3.938640E+03	8.028475E-14	1.332445E-15
3.940110E+03	8.054741E-14	1.334864E-15
3.941580E+03	8.080962E-14	1.337257E-15
3.943050E+03	8.106734E-14	1.339556E-15
3.944520E+03	8.128820E-14	1.341228E-15
3.945990E+03	8.149450E-14	1.342643E-15
3.947460E+03	8.169840E-14	1.344002E-15
3.948930E+03	8.186961E-14	1.344808E-15
3.950400E+03	8.203644E-14	1.345528E-15
3.951870E+03	8.216459E-14	1.345599E-15
3.953340E+03	8.225011E-14	1.344961E-15
3.954810E+03	8.231524E-14	1.343979E-15
3.956280E+03	8.234792E-14	1.342459E-15
3.957750E+03	8.234418E-14	1.340338E-15
3.959220E+03	8.231818E-14	1.337850E-15
3.960690E+03	8.226593E-14	1.334931E-15
3.962160E+03	8.220355E-14	1.331844E-15
3.963630E+03	8.210698E-14	1.328201E-15
3.965100E+03	8.197625E-14	1.324005E-15
3.966570E+03	8.182147E-14	1.319423E-15
3.968040E+03	8.164270E-14	1.314456E-15
3.969510E+03	8.144796E-14	1.309235E-15
3.970980E+03	8.122729E-14	1.303603E-15
3.972450E+03	8.097474E-14	1.297465E-15
3.973920E+03	8.069236E-14	1.290858E-15
3.975390E+03	8.039618E-14	1.284039E-15
3.976860E+03	8.008027E-14	1.276916E-15
3.978330E+03	7.972467E-14	1.269171E-15
3.979800E+03	7.936938E-14	1.261445E-15
3.981270E+03	7.899646E-14	1.253452E-15
3.982740E+03	7.858997E-14	1.244941E-15
3.984210E+03	7.815995E-14	1.236075E-15
3.985680E+03	7.769651E-14	1.226699E-15
3.987150E+03	7.721560E-14	1.217066E-15
3.988620E+03	7.672522E-14	1.207305E-15
3.990090E+03	7.624924E-14	1.197791E-15
3.991560E+03	7.575188E-14	1.187963E-15
3.993030E+03	7.525104E-14	1.178101E-15
3.994500E+03	7.473088E-14	1.167960E-15
3.995970E+03	7.419539E-14	1.157603E-15
3.997440E+03	7.365252E-14	1.147155E-15
3.998910E+03	7.311418E-14	1.136803E-15
4.000380E+03	7.256255E-14	1.126269E-15
4.001850E+03	7.202930E-14	1.116045E-15
4.003320E+03	7.149659E-14	1.105854E-15
4.004790E+03	7.094668E-14	1.095423E-15
4.006260E+03	7.041314E-14	1.085269E-15
4.007730E+03	6.988411E-14	1.075211E-15
4.009200E+03	6.935564E-14	1.065185E-15
4.010670E+03	6.885137E-14	1.055557E-15
4.012140E+03	6.834764E-14	1.045960E-15
4.013610E+03	6.784641E-14	1.036425E-15
4.015080E+03	6.734572E-14	1.026923E-15
4.016550E+03	6.686326E-14	1.017722E-15
4.018020E+03	6.640291E-14	1.008881E-15
4.019490E+03	6.598229E-14	1.000664E-15
4.020960E+03	6.556016E-14	9.924451E-16
4.022430E+03	6.514828E-14	9.844008E-16
4.023900E+03	6.476816E-14	9.768556E-16
4.025370E+03	6.440998E-14	9.696588E-16
4.026840E+03	6.407174E-14	9.627786E-16
4.028310E+03	6.378075E-14	9.566233E-16
4.029780E+03	6.353109E-14	9.511001E-16
4.031250E+03	6.329532E-14	9.457960E-16
4.032720E+03	6.310076E-14	9.411170E-16
4.034190E+03	6.295900E-14	9.372325E-16
4.035660E+03	6.284075E-14	9.337026E-16
4.037130E+03	6.273034E-14	9.302935E-16
4.038600E+03	6.263753E-14	9.271486E-16
4.040070E+03	6.257975E-14	9.245244E-16
4.041540E+03	6.254726E-14	9.222739E-16
4.043010E+03	6.255357E-14	9.205943E-16
4.044480E+03	6.259087E-14	9.193674E-16
4.045950E+03	6.267459E-14	9.188170E-16
4.047420E+03	6.279497E-14	9.187962E-16
4.048890E+03	6.292675E-14	9.189332E-16
4.050360E+03	6.308538E-14	9.194522E-16
4.051830E+03	6.324955E-14	9.200410E-16
4.053300E+03	6.344049E-14	9.210074E-16
4.054770E+03	6.365239E-14	9.222649E-16
4.056240E+03	6.388517E-14	9.238107E-16
4.057710E+03	6.415039E-14	9.258100E-16
4.059180E+03	6.446341E-14	9.284811E-16
4.060650E+03	6.481449E-14	9.316801E-16
4.062120E+03	6.518431E-14	9.351264E-16
4.063590E+03	6.554588E-14	9.384323E-16
4.065060E+03	6.589344E-14	9.415161E-16
4.066530E+03	6.623856E-14	9.445441E-16
4.068000E+03	6.661196E-14	9.479539E-16
4.069470E+03	6.698866E-14	9.513880E-16
4.070940E+03	6.734943E-14	9.545741E-16
4.072410E+03	6.769434E-14	9.575142E-16
4.073880E+03	6.801956E-14	9.601560E-16
4.075350E+03	6.832705E-14	9.625288E-16
4.076820E+03	6.863790E-14	9.649306E-16
4.078290E+03	6.891577E-14	9.668515E-16
4.079760E+03	6.917792E-14	9.685362E-16
4.081230E+03	6.943965E-14	9.701996E-16
4.082700E+03	6.969526E-14	9.717626E-16
4.084170E+03	6.992757E-14	9.729868E-16
4.085640E+03	7.015380E-14	9.741132E-16
4.087110E+03	7.034348E-14	9.747205E-16
4.088580E+03	7.049667E-14	9.748127E-16
4.090050E+03	7.064200E-14	9.747880E-16
4.091520E+03	7.078517E-14	9.747258E-16
4.092990E+03	7.090150E-14	9.742873E-16
4.094460E+03	7.100241E-14	9.736316E-16
4.095930E+03	7.108608E-14	9.727349E-16
4.097400E+03	7.115439E-14	9.716249E-16
4.098870E+03	7.122445E-14	9.705359E-16
4.100340E+03	7.126219E-14	9.690047E-16
4.101810E+03	7.124683E-14	9.667521E-16
4.103280E+03	7.121632E-14	9.642970E-16
4.104750E+03	7.116689E-14	9.615896E-16
4.106220E+03	7.108160E-14	9.584033E-16
4.107690E+03	7.100581E-14	9.553515E-16
4.109160E+03	7.091874E-14	9.521548E-16
