#wls	flux	fluxerr
1.600000E+03	1.005057E-14	7.511736E-16
1.640000E+03	8.546486E-15	6.260064E-16
1.680000E+03	7.181674E-15	5.153088E-16
1.720000E+03	5.960547E-15	4.187889E-16
1.760000E+03	4.882307E-15	3.357589E-16
1.800000E+03	3.944917E-15	2.654438E-16
1.840000E+03	3.142552E-15	2.068254E-16
1.880000E+03	2.467625E-15	1.588037E-16
1.920000E+03	1.910178E-15	1.201743E-16
1.960000E+03	1.458831E-15	8.970645E-17
2.000000E+03	1.101196E-15	6.617892E-17
2.040000E+03	8.250678E-16	4.845907E-17
2.080000E+03	6.183836E-16	3.549852E-17
2.120000E+03	4.698788E-16	2.636882E-17
2.160000E+03	3.697580E-16	2.029154E-17
2.200000E+03	3.089234E-16	1.658601E-17
2.240000E+03	2.805902E-16	1.474770E-17
2.280000E+03	2.820272E-16	1.452247E-17
2.320000E+03	3.150266E-16	1.590764E-17
2.360000E+03	3.878219E-16	1.922585E-17
2.400000E+03	5.182720E-16	2.525459E-17
2.440000E+03	7.376274E-16	3.537438E-17
2.480000E+03	1.094829E-15	5.173499E-17
2.520000E+03	1.658339E-15	7.729907E-17
2.560000E+03	2.510147E-15	1.155291E-16
2.600000E+03	3.726112E-15	1.694791E-16
2.640000E+03	5.342277E-15	2.403122E-16
2.680000E+03	7.327243E-15	3.261691E-16
2.720000E+03	9.571473E-15	4.218322E-16
2.760000E+03	1.190034E-14	5.194317E-16
2.800000E+03	1.410596E-14	6.099213E-16
2.840000E+03	1.599470E-14	6.851575E-16
2.880000E+03	1.742793E-14	7.395963E-16
2.920000E+03	1.834711E-14	7.712514E-16
2.960000E+03	1.877382E-14	7.815599E-16
3.000000E+03	1.878995E-14	7.744226E-16
3.010000E+03	1.874287E-14	7.705011E-16
3.020000E+03	1.867950E-14	7.659062E-16
3.030000E+03	1.860133E-14	7.607035E-16
3.040000E+03	1.851108E-14	7.550088E-16
3.050000E+03	1.841023E-14	7.488849E-16
3.060000E+03	1.830066E-14	7.424113E-16
3.070000E+03	1.818418E-14	7.356642E-16
3.080000E+03	1.806336E-14	7.287487E-16
3.090000E+03	1.793914E-14	7.217044E-16
3.100000E+03	1.781395E-14	7.146288E-16
3.110000E+03	1.768904E-14	7.075718E-16
3.120000E+03	1.756634E-14	7.006086E-16
3.130000E+03	1.744733E-14	6.937964E-16
3.140000E+03	1.733345E-14	6.871902E-16
3.150000E+03	1.722610E-14	6.808427E-16
3.160000E+03	1.712697E-14	6.748170E-16
3.170000E+03	1.703708E-14	6.691491E-16
3.180000E+03	1.695809E-14	6.638999E-16
3.190000E+03	1.689139E-14	6.591188E-16
3.200000E+03	1.683846E-14	6.548571E-16
3.210000E+03	1.680121E-14	6.511834E-16
3.220000E+03	1.678089E-14	6.481384E-16
3.230000E+03	1.678046E-14	6.458275E-16
3.240000E+03	1.680136E-14	6.442978E-16
3.250000E+03	1.684703E-14	6.436696E-16
3.260000E+03	1.691965E-14	6.440144E-16
3.270000E+03	1.702243E-14	6.454405E-16
3.280000E+03	1.715837E-14	6.480463E-16
3.290000E+03	1.733024E-14	6.519193E-16
3.300000E+03	1.754163E-14	6.571752E-16
3.310000E+03	1.779501E-14	6.638851E-16
3.320000E+03	1.809330E-14	6.721349E-16
3.330000E+03	1.843988E-14	6.820245E-16
3.340000E+03	1.883690E-14	6.936059E-16
3.350000E+03	1.928689E-14	7.069429E-16
3.360000E+03	1.979224E-14	7.220906E-16
3.370000E+03	2.035544E-14	7.391056E-16
3.380000E+03	2.097796E-14	7.580051E-16
3.390000E+03	2.166157E-14	7.788151E-16
3.400000E+03	2.240807E-14	8.015588E-16
3.410000E+03	2.321818E-14	8.262204E-16
3.420000E+03	2.409225E-14	8.527674E-16
3.430000E+03	2.502897E-14	8.811079E-16
3.440000E+03	2.602652E-14	9.111327E-16
3.450000E+03	2.708092E-14	9.426557E-16
3.460000E+03	2.818492E-14	9.753817E-16
3.470000E+03	2.932882E-14	1.008934E-15
3.480000E+03	3.049880E-14	1.042802E-15
3.490000E+03	3.167749E-14	1.076369E-15
3.500000E+03	3.284143E-14	1.108821E-15
3.510000E+03	3.396407E-14	1.139265E-15
3.520000E+03	3.501355E-14	1.166655E-15
3.530000E+03	3.595526E-14	1.189882E-15
3.540000E+03	3.675313E-14	1.207822E-15
3.550000E+03	3.737170E-14	1.219407E-15
3.560000E+03	3.778003E-14	1.223755E-15
3.570000E+03	3.795263E-14	1.220190E-15
3.580000E+03	3.787446E-14	1.208399E-15
3.590000E+03	3.754278E-14	1.188481E-15
3.600000E+03	3.696690E-14	1.160919E-15
3.610000E+03	3.616934E-14	1.126606E-15
3.620000E+03	3.518381E-14	1.086762E-15
3.630000E+03	3.405273E-14	1.042844E-15
3.640000E+03	3.282417E-14	9.964364E-16
3.650000E+03	3.154741E-14	9.491161E-16
3.660000E+03	3.027123E-14	9.023898E-16
3.670000E+03	2.903910E-14	8.575554E-16
3.680000E+03	2.788914E-14	8.157051E-16
3.690000E+03	2.685283E-14	7.776938E-16
3.700000E+03	2.595377E-14	7.441120E-16
3.710000E+03	2.520950E-14	7.153487E-16
3.720000E+03	2.463287E-14	6.916362E-16
3.730000E+03	2.423214E-14	6.730605E-16
3.740000E+03	2.401299E-14	6.596233E-16
3.750000E+03	2.398009E-14	6.512873E-16
3.760000E+03	2.413686E-14	6.479712E-16
3.770000E+03	2.448698E-14	6.495935E-16
3.780000E+03	2.503482E-14	6.560802E-16
3.790000E+03	2.578504E-14	6.673553E-16
3.800000E+03	2.674314E-14	6.833544E-16
3.810000E+03	2.791482E-14	7.040056E-16
3.820000E+03	2.930521E-14	7.292110E-16
3.830000E+03	3.091769E-14	7.588179E-16
3.840000E+03	3.275126E-14	7.925587E-16
3.850000E+03	3.479910E-14	8.300238E-16
3.860000E+03	3.704564E-14	8.706029E-16
3.870000E+03	3.946453E-14	9.134545E-16
3.880000E+03	4.201941E-14	9.575426E-16
3.890000E+03	4.466505E-14	1.001682E-15
3.900000E+03	4.734742E-14	1.044558E-15
3.910000E+03	5.000657E-14	1.084804E-15
3.920000E+03	5.258197E-14	1.121133E-15
3.930000E+03	5.501493E-14	1.152387E-15
3.940000E+03	5.725191E-14	1.177605E-15
3.950000E+03	5.925222E-14	1.196173E-15
3.960000E+03	6.098862E-14	1.207807E-15
3.970000E+03	6.244901E-14	1.212569E-15
3.980000E+03	6.363700E-14	1.210839E-15
3.990000E+03	6.457283E-14	1.203312E-15
4.000000E+03	6.528634E-14	1.190828E-15
4.010000E+03	6.581566E-14	1.174334E-15
4.020000E+03	6.620317E-14	1.154795E-15
4.030000E+03	6.648728E-14	1.133042E-15
4.040000E+03	6.670130E-14	1.109764E-15
4.050000E+03	6.686755E-14	1.085418E-15
4.060000E+03	6.700057E-14	1.060305E-15
4.070000E+03	6.710157E-14	1.034498E-15
4.080000E+03	6.716264E-14	1.007934E-15
4.090000E+03	6.716966E-14	9.804722E-16
4.100000E+03	6.710151E-14	9.518991E-16
4.110000E+03	6.693824E-14	9.220545E-16
4.120000E+03	6.665953E-14	8.908077E-16
4.130000E+03	6.625119E-14	8.581434E-16
4.140000E+03	6.570387E-14	8.241326E-16
4.150000E+03	6.501106E-14	7.888977E-16
4.160000E+03	6.417019E-14	7.526195E-16
4.170000E+03	6.318095E-14	7.155094E-16
4.180000E+03	6.204521E-14	6.778038E-16
4.190000E+03	6.076953E-14	6.397852E-16
4.200000E+03	5.936276E-14	6.017481E-16
4.210000E+03	5.784142E-14	5.640462E-16
4.220000E+03	5.622669E-14	5.270494E-16
4.230000E+03	5.454751E-14	4.911626E-16
4.240000E+03	5.283822E-14	4.567921E-16
4.250000E+03	5.113700E-14	4.243248E-16
4.260000E+03	4.948564E-14	3.941229E-16
4.270000E+03	4.792375E-14	3.664780E-16
4.280000E+03	4.648769E-14	3.416132E-16
4.290000E+03	4.520821E-14	3.196778E-16
4.300000E+03	4.410853E-14	3.007502E-16
4.310000E+03	4.320222E-14	2.848401E-16
4.320000E+03	4.249376E-14	2.719091E-16
4.330000E+03	4.198244E-14	2.619059E-16
4.340000E+03	4.165912E-14	2.547505E-16
4.350000E+03	4.151025E-14	2.503598E-16
4.360000E+03	4.151447E-14	2.486207E-16
4.370000E+03	4.164407E-14	2.493615E-16
4.380000E+03	4.186401E-14	2.523082E-16
4.390000E+03	4.213127E-14	2.571177E-16
4.400000E+03	4.239608E-14	2.633799E-16
4.410000E+03	4.260858E-14	2.706472E-16
4.420000E+03	4.273535E-14	2.785366E-16
4.430000E+03	4.280415E-14	2.870412E-16
4.440000E+03	4.286748E-14	2.963425E-16
4.450000E+03	4.297703E-14	3.066674E-16
4.460000E+03	4.317680E-14	3.182460E-16
4.470000E+03	4.349679E-14	3.312605E-16
4.480000E+03	4.395136E-14	3.458168E-16
4.490000E+03	4.453654E-14	3.619012E-16
4.500000E+03	4.523202E-14	3.793707E-16
4.510000E+03	4.600466E-14	3.979587E-16
4.520000E+03	4.681152E-14	4.172826E-16
4.530000E+03	4.760362E-14	4.368637E-16
4.540000E+03	4.833437E-14	4.561979E-16
4.550000E+03	4.896159E-14	4.747792E-16
4.560000E+03	4.945240E-14	4.921557E-16
4.570000E+03	4.978301E-14	5.079402E-16
4.580000E+03	4.994025E-14	5.218396E-16
4.590000E+03	4.991841E-14	5.336358E-16
4.600000E+03	4.971687E-14	5.431693E-16
4.610000E+03	4.934030E-14	5.503484E-16
4.620000E+03	4.879477E-14	5.551111E-16
4.630000E+03	4.809024E-14	5.574549E-16
4.640000E+03	4.724117E-14	5.574489E-16
4.650000E+03	4.626512E-14	5.552197E-16
4.660000E+03	4.518158E-14	5.509402E-16
4.670000E+03	4.401465E-14	5.448624E-16
4.680000E+03	4.278815E-14	5.372590E-16
4.690000E+03	4.152533E-14	5.284172E-16
4.700000E+03	4.024797E-14	5.186246E-16
4.710000E+03	3.897492E-14	5.081473E-16
4.720000E+03	3.772239E-14	4.972291E-16
4.730000E+03	3.650239E-14	4.860674E-16
4.740000E+03	3.532508E-14	4.748409E-16
4.750000E+03	3.419811E-14	4.636979E-16
4.760000E+03	3.312568E-14	4.527414E-16
4.770000E+03	3.211189E-14	4.420725E-16
4.780000E+03	3.115856E-14	4.317597E-16
4.790000E+03	3.026661E-14	4.218570E-16
4.800000E+03	2.943728E-14	4.124202E-16
4.810000E+03	2.867034E-14	4.034813E-16
4.820000E+03	2.796758E-14	3.950983E-16
4.830000E+03	2.732989E-14	3.873132E-16
4.840000E+03	2.676063E-14	3.801998E-16
4.850000E+03	2.626349E-14	3.738337E-16
4.860000E+03	2.584393E-14	3.683126E-16
4.870000E+03	2.550656E-14	3.637181E-16
4.880000E+03	2.525570E-14	3.601236E-16
4.890000E+03	2.509260E-14	3.575547E-16
4.900000E+03	2.501338E-14	3.559587E-16
4.910000E+03	2.500828E-14	3.551959E-16
4.920000E+03	2.506234E-14	3.550491E-16
4.930000E+03	2.515736E-14	3.552553E-16
4.940000E+03	2.527326E-14	3.555254E-16
4.950000E+03	2.539263E-14	3.556108E-16
4.960000E+03	2.550213E-14	3.553240E-16
4.970000E+03	2.559668E-14	3.545960E-16
4.980000E+03	2.567826E-14	3.534574E-16
4.990000E+03	2.575566E-14	3.520326E-16
5.000000E+03	2.584292E-14	3.505137E-16
5.010000E+03	2.595712E-14	3.491284E-16
5.020000E+03	2.611479E-14	3.480882E-16
5.030000E+03	2.633143E-14	3.475817E-16
5.040000E+03	2.661911E-14	3.477425E-16
5.050000E+03	2.698655E-14	3.486514E-16
5.060000E+03	2.743733E-14	3.503161E-16
5.070000E+03	2.796982E-14	3.526729E-16
5.080000E+03	2.857715E-14	3.555914E-16
5.090000E+03	2.924602E-14	3.588643E-16
5.100000E+03	2.995670E-14	3.622141E-16
5.110000E+03	3.068413E-14	3.653132E-16
5.120000E+03	3.140009E-14	3.678159E-16
5.130000E+03	3.207274E-14	3.693582E-16
5.140000E+03	3.267083E-14	3.696100E-16
5.150000E+03	3.316551E-14	3.682975E-16
5.160000E+03	3.353182E-14	3.652178E-16
5.170000E+03	3.374938E-14	3.602432E-16
5.180000E+03	3.380435E-14	3.533377E-16
5.190000E+03	3.368786E-14	3.445337E-16
5.200000E+03	3.339800E-14	3.339462E-16
5.210000E+03	3.293786E-14	3.217453E-16
5.220000E+03	3.231840E-14	3.081767E-16
5.230000E+03	3.155642E-14	2.935328E-16
5.240000E+03	3.067691E-14	2.781660E-16
5.250000E+03	2.971035E-14	2.624539E-16
5.260000E+03	2.869362E-14	2.468001E-16
5.270000E+03	2.766691E-14	2.316001E-16
5.280000E+03	2.667022E-14	2.172093E-16
5.290000E+03	2.574125E-14	2.039274E-16
5.300000E+03	2.491308E-14	1.919852E-16
5.310000E+03	2.421196E-14	1.815352E-16
5.320000E+03	2.365652E-14	1.726566E-16
5.330000E+03	2.325743E-14	1.653637E-16
5.340000E+03	2.301725E-14	1.596161E-16
5.350000E+03	2.292957E-14	1.553228E-16
5.360000E+03	2.297765E-14	1.523427E-16
5.370000E+03	2.313622E-14	1.505031E-16
5.380000E+03	2.337144E-14	1.496031E-16
5.390000E+03	2.364230E-14	1.494201E-16
5.400000E+03	2.390167E-14	1.497109E-16
5.410000E+03	2.410085E-14	1.502292E-16
5.420000E+03	2.419287E-14	1.507235E-16
5.430000E+03	2.413803E-14	1.509323E-16
5.440000E+03	2.391256E-14	1.506526E-16
5.450000E+03	2.351606E-14	1.497965E-16
5.460000E+03	2.299815E-14	1.485741E-16
5.470000E+03	2.244025E-14	1.474064E-16
5.480000E+03	2.191687E-14	1.466999E-16
5.490000E+03	2.148929E-14	1.468137E-16
5.500000E+03	2.120284E-14	1.480415E-16
5.510000E+03	2.108560E-14	1.505949E-16
5.520000E+03	2.115101E-14	1.546101E-16
5.530000E+03	2.139968E-14	1.601480E-16
5.540000E+03	2.181835E-14	1.671723E-16
5.550000E+03	2.238293E-14	1.755584E-16
5.560000E+03	2.306031E-14	1.850947E-16
5.570000E+03	2.381018E-14	1.954877E-16
5.580000E+03	2.458828E-14	2.063808E-16
5.590000E+03	2.534989E-14	2.173806E-16
5.600000E+03	2.605450E-14	2.280980E-16
5.610000E+03	2.666878E-14	2.381789E-16
5.620000E+03	2.716774E-14	2.473237E-16
5.630000E+03	2.753614E-14	2.553088E-16
5.640000E+03	2.776867E-14	2.619976E-16
5.650000E+03	2.786776E-14	2.673297E-16
5.660000E+03	2.784244E-14	2.713158E-16
5.670000E+03	2.770569E-14	2.740167E-16
5.680000E+03	2.747265E-14	2.755283E-16
5.690000E+03	2.715912E-14	2.759666E-16
5.700000E+03	2.678013E-14	2.754533E-16
5.710000E+03	2.634988E-14	2.741128E-16
5.720000E+03	2.588183E-14	2.720723E-16
5.730000E+03	2.538868E-14	2.694598E-16
5.740000E+03	2.488361E-14	2.664158E-16
5.750000E+03	2.437990E-14	2.630888E-16
5.760000E+03	2.389218E-14	2.596472E-16
5.770000E+03	2.343456E-14	2.562583E-16
5.780000E+03	2.302108E-14	2.530921E-16
5.790000E+03	2.266486E-14	2.503098E-16
5.800000E+03	2.237527E-14	2.480317E-16
5.810000E+03	2.215897E-14	2.463464E-16
5.820000E+03	2.201815E-14	2.452904E-16
5.830000E+03	2.195084E-14	2.448500E-16
5.840000E+03	2.195088E-14	2.449609E-16
5.850000E+03	2.201000E-14	2.455321E-16
5.860000E+03	2.211792E-14	2.464471E-16
5.870000E+03	2.226462E-14	2.475902E-16
5.880000E+03	2.244038E-14	2.488483E-16
5.890000E+03	2.263618E-14	2.501157E-16
5.900000E+03	2.284468E-14	2.513062E-16
5.910000E+03	2.305967E-14	2.523465E-16
5.920000E+03	2.327500E-14	2.531661E-16
5.930000E+03	2.348574E-14	2.537094E-16
5.940000E+03	2.368664E-14	2.539197E-16
5.950000E+03	2.387177E-14	2.537360E-16
5.960000E+03	2.403268E-14	2.530745E-16
5.970000E+03	2.415971E-14	2.518438E-16
5.980000E+03	2.423938E-14	2.499197E-16
5.990000E+03	2.425572E-14	2.471615E-16
6.000000E+03	2.418957E-14	2.434075E-16
6.010000E+03	2.401912E-14	2.384837E-16
6.020000E+03	2.372196E-14	2.322263E-16
6.030000E+03	2.327668E-14	2.244986E-16
6.040000E+03	2.266825E-14	2.152422E-16
6.050000E+03	2.188925E-14	2.044833E-16
6.060000E+03	2.094629E-14	1.923855E-16
6.070000E+03	1.986016E-14	1.792389E-16
6.080000E+03	1.866688E-14	1.654563E-16
6.090000E+03	1.741197E-14	1.515090E-16
6.100000E+03	1.614615E-14	1.378804E-16
6.110000E+03	1.491906E-14	1.250087E-16
6.120000E+03	1.377441E-14	1.132472E-16
6.130000E+03	1.274621E-14	1.028404E-16
6.140000E+03	1.185879E-14	9.393317E-17
6.150000E+03	1.112736E-14	8.658539E-17
6.160000E+03	1.055934E-14	8.079155E-17
6.170000E+03	1.015645E-14	7.650503E-17
6.180000E+03	9.918181E-15	7.367034E-17
6.190000E+03	9.842795E-15	7.223487E-17
6.200000E+03	9.928096E-15	7.215773E-17
6.210000E+03	1.017172E-14	7.341491E-17
6.220000E+03	1.056991E-14	7.599283E-17
6.230000E+03	1.111549E-14	7.987582E-17
6.240000E+03	1.179651E-14	8.503701E-17
6.250000E+03	1.259433E-14	9.142223E-17
6.260000E+03	1.348255E-14	9.892719E-17
6.270000E+03	1.442802E-14	1.073881E-16
6.280000E+03	1.539178E-14	1.165857E-16
6.290000E+03	1.633248E-14	1.262585E-16
6.300000E+03	1.721125E-14	1.361287E-16
6.310000E+03	1.799250E-14	1.459033E-16
6.320000E+03	1.864946E-14	1.553174E-16
6.330000E+03	1.916356E-14	1.641343E-16
6.340000E+03	1.952562E-14	1.721654E-16
6.350000E+03	1.973416E-14	1.792667E-16
6.360000E+03	1.979450E-14	1.853435E-16
6.370000E+03	1.971748E-14	1.903500E-16
6.380000E+03	1.951766E-14	1.942826E-16
6.390000E+03	1.921330E-14	1.971885E-16
6.400000E+03	1.882676E-14	1.991781E-16
6.410000E+03	1.838280E-14	2.004158E-16
6.420000E+03	1.790979E-14	2.011390E-16
6.430000E+03	1.743785E-14	2.016444E-16
6.440000E+03	1.699807E-14	2.022833E-16
6.450000E+03	1.661970E-14	2.034295E-16
6.460000E+03	1.632637E-14	2.054283E-16
6.470000E+03	1.612295E-14	2.084186E-16
6.480000E+03	1.599217E-14	2.122539E-16
6.490000E+03	1.591220E-14	2.167038E-16
6.500000E+03	1.586168E-14	2.215153E-16
6.510000E+03	1.582310E-14	2.264619E-16
6.520000E+03	1.578235E-14	2.313427E-16
6.530000E+03	1.572891E-14	2.359924E-16
6.540000E+03	1.565654E-14	2.402967E-16
6.550000E+03	1.556124E-14	2.441689E-16
6.560000E+03	1.544149E-14	2.475571E-16
6.570000E+03	1.529843E-14	2.504515E-16
6.580000E+03	1.513381E-14	2.528546E-16
6.590000E+03	1.495045E-14	2.547904E-16
6.600000E+03	1.475189E-14	2.562999E-16
6.610000E+03	1.454113E-14	2.574194E-16
6.620000E+03	1.432151E-14	2.581966E-16
6.630000E+03	1.409661E-14	2.586876E-16
6.640000E+03	1.386869E-14	2.589296E-16
6.650000E+03	1.364002E-14	2.589629E-16
6.660000E+03	1.341264E-14	2.588264E-16
6.670000E+03	1.318761E-14	2.585430E-16
6.680000E+03	1.296580E-14	2.581330E-16
6.690000E+03	1.274787E-14	2.576135E-16
6.700000E+03	1.253350E-14	2.569830E-16
6.710000E+03	1.232264E-14	2.562443E-16
6.720000E+03	1.211549E-14	2.554064E-16
6.730000E+03	1.191142E-14	2.544608E-16
6.740000E+03	1.171038E-14	2.534101E-16
6.750000E+03	1.151264E-14	2.522650E-16
6.760000E+03	1.131836E-14	2.510333E-16
6.770000E+03	1.112818E-14	2.497339E-16
6.780000E+03	1.094291E-14	2.483904E-16
6.790000E+03	1.076349E-14	2.470302E-16
6.800000E+03	1.059071E-14	2.456777E-16
6.810000E+03	1.042560E-14	2.443641E-16
6.820000E+03	1.026884E-14	2.431129E-16
6.830000E+03	1.012065E-14	2.419371E-16
6.840000E+03	9.981354E-15	2.408522E-16
6.850000E+03	9.850647E-15	2.398584E-16
6.860000E+03	9.728177E-15	2.389543E-16
6.870000E+03	9.613425E-15	2.381339E-16
6.880000E+03	9.505607E-15	2.373837E-16
6.890000E+03	9.404440E-15	2.367022E-16
6.900000E+03	9.309124E-15	2.360743E-16
6.910000E+03	9.218913E-15	2.354854E-16
6.920000E+03	9.133488E-15	2.349314E-16
6.930000E+03	9.052256E-15	2.344005E-16
6.940000E+03	8.974850E-15	2.338865E-16
6.950000E+03	8.901122E-15	2.333882E-16
6.960000E+03	8.830591E-15	2.328959E-16
6.970000E+03	8.762937E-15	2.324033E-16
6.980000E+03	8.697797E-15	2.319031E-16
6.990000E+03	8.634773E-15	2.313865E-16
7.000000E+03	8.573267E-15	2.308391E-16
7.010000E+03	8.513171E-15	2.302595E-16
7.020000E+03	8.453741E-15	2.296289E-16
7.030000E+03	8.394638E-15	2.289390E-16
7.040000E+03	8.335797E-15	2.281892E-16
7.050000E+03	8.276931E-15	2.273724E-16
7.060000E+03	8.218015E-15	2.264890E-16
7.070000E+03	8.159104E-15	2.255414E-16
7.080000E+03	8.100298E-15	2.245333E-16
7.090000E+03	8.041871E-15	2.234732E-16
7.100000E+03	7.983605E-15	2.223563E-16
7.110000E+03	7.925587E-15	2.211859E-16
7.120000E+03	7.868042E-15	2.199694E-16
7.130000E+03	7.811012E-15	2.187090E-16
7.140000E+03	7.754359E-15	2.174020E-16
7.150000E+03	7.698241E-15	2.160538E-16
7.160000E+03	7.642325E-15	2.146562E-16
7.170000E+03	7.586878E-15	2.132177E-16
7.180000E+03	7.531656E-15	2.117325E-16
7.190000E+03	7.476535E-15	2.101982E-16
7.200000E+03	7.421179E-15	2.086064E-16
7.210000E+03	7.365647E-15	2.069598E-16
7.220000E+03	7.309321E-15	2.052422E-16
7.230000E+03	7.251976E-15	2.034485E-16
7.240000E+03	7.193023E-15	2.015633E-16
7.250000E+03	7.132129E-15	1.995788E-16
7.260000E+03	7.068614E-15	1.974773E-16
7.270000E+03	7.001913E-15	1.952448E-16
7.280000E+03	6.931605E-15	1.928715E-16
7.290000E+03	6.856982E-15	1.903400E-16
7.300000E+03	6.777698E-15	1.876429E-16
7.310000E+03	6.693085E-15	1.847646E-16
7.320000E+03	6.603078E-15	1.817065E-16
7.330000E+03	6.507813E-15	1.784755E-16
7.340000E+03	6.407251E-15	1.750741E-16
7.350000E+03	6.302015E-15	1.715231E-16
7.360000E+03	6.192664E-15	1.678413E-16
7.370000E+03	6.080201E-15	1.640595E-16
7.380000E+03	5.965462E-15	1.602038E-16
7.390000E+03	5.849440E-15	1.563041E-16
7.400000E+03	5.733092E-15	1.523887E-16
7.410000E+03	5.617153E-15	1.484798E-16
7.420000E+03	5.502369E-15	1.445993E-16
7.430000E+03	5.389370E-15	1.407656E-16
7.440000E+03	5.278719E-15	1.369948E-16
7.450000E+03	5.171106E-15	1.333061E-16
7.460000E+03	5.067051E-15	1.297134E-16
7.470000E+03	4.967508E-15	1.262414E-16
7.480000E+03	4.873292E-15	1.229103E-16
7.490000E+03	4.785296E-15	1.197414E-16
7.500000E+03	4.704453E-15	1.167562E-16
7.510000E+03	4.631667E-15	1.139744E-16
7.520000E+03	4.567973E-15	1.114178E-16
7.530000E+03	4.513829E-15	1.090932E-16
7.540000E+03	4.469797E-15	1.070089E-16
7.550000E+03	4.436075E-15	1.051640E-16
7.560000E+03	4.412730E-15	1.035540E-16
7.570000E+03	4.399310E-15	1.021616E-16
7.580000E+03	4.395501E-15	1.009734E-16
7.590000E+03	4.400766E-15	9.997045E-17
7.600000E+03	4.414597E-15	9.913504E-17
7.610000E+03	4.436134E-15	9.844191E-17
7.620000E+03	4.464909E-15	9.787514E-17
7.630000E+03	4.500125E-15	9.741208E-17
7.640000E+03	4.540958E-15	9.703025E-17
7.650000E+03	4.586879E-15	9.671432E-17
7.660000E+03	4.637012E-15	9.644227E-17
7.670000E+03	4.690568E-15	9.619499E-17
7.680000E+03	4.746775E-15	9.595464E-17
7.690000E+03	4.804916E-15	9.570551E-17
7.700000E+03	4.864381E-15	9.543499E-17
7.710000E+03	4.924820E-15	9.513646E-17
7.720000E+03	4.985688E-15	9.480018E-17
7.730000E+03	5.047062E-15	9.442900E-17
7.740000E+03	5.108741E-15	9.402083E-17
7.750000E+03	5.170629E-15	9.357607E-17
7.760000E+03	5.232516E-15	9.309350E-17
