#wls	flux	fluxerr
1.600000E+03	5.873879E-15	5.367120E-16
1.640000E+03	4.921899E-15	4.448274E-16
1.680000E+03	4.094412E-15	3.659568E-16
1.720000E+03	3.383675E-15	2.990527E-16
1.760000E+03	2.781449E-15	2.430512E-16
1.800000E+03	2.276453E-15	1.966551E-16
1.840000E+03	1.858530E-15	1.587064E-16
1.880000E+03	1.516497E-15	1.280002E-16
1.920000E+03	1.239936E-15	1.034395E-16
1.960000E+03	1.018795E-15	8.399900E-17
2.000000E+03	8.442617E-16	6.879479E-17
2.040000E+03	7.086013E-16	5.706541E-17
2.080000E+03	6.052863E-16	4.817662E-17
2.120000E+03	5.294151E-16	4.164849E-17
2.160000E+03	4.775979E-16	3.713880E-17
2.200000E+03	4.476894E-16	3.441533E-17
2.240000E+03	4.389672E-16	3.336365E-17
2.280000E+03	4.522514E-16	3.398957E-17
2.320000E+03	4.893629E-16	3.637293E-17
2.360000E+03	5.536382E-16	4.070128E-17
2.400000E+03	6.502289E-16	4.728509E-17
2.440000E+03	7.860420E-16	5.654654E-17
2.480000E+03	9.688625E-16	6.895027E-17
2.520000E+03	1.205660E-15	8.488039E-17
2.560000E+03	1.500086E-15	1.044688E-16
2.600000E+03	1.849209E-15	1.273817E-16
2.640000E+03	2.241038E-15	1.526745E-16
2.680000E+03	2.656577E-15	1.789635E-16
2.720000E+03	3.071817E-15	2.045850E-16
2.760000E+03	3.461028E-15	2.278316E-16
2.800000E+03	3.799977E-15	2.471708E-16
2.840000E+03	4.070479E-15	2.615343E-16
2.880000E+03	4.262479E-15	2.704299E-16
2.920000E+03	4.375916E-15	2.740286E-16
2.960000E+03	4.419731E-15	2.730644E-16
3.000000E+03	4.409420E-15	2.686480E-16
3.010000E+03	4.400590E-15	2.671539E-16
3.020000E+03	4.389846E-15	2.655424E-16
3.030000E+03	4.377598E-15	2.638395E-16
3.040000E+03	4.364125E-15	2.620629E-16
3.050000E+03	4.349833E-15	2.602376E-16
3.060000E+03	4.334997E-15	2.583806E-16
3.070000E+03	4.319896E-15	2.565087E-16
3.080000E+03	4.304919E-15	2.546453E-16
3.090000E+03	4.290339E-15	2.528061E-16
3.100000E+03	4.276639E-15	2.510193E-16
3.110000E+03	4.263859E-15	2.492867E-16
3.120000E+03	4.252579E-15	2.476412E-16
3.130000E+03	4.242836E-15	2.460839E-16
3.140000E+03	4.235190E-15	2.446461E-16
3.150000E+03	4.229677E-15	2.433283E-16
3.160000E+03	4.226741E-15	2.421543E-16
3.170000E+03	4.226717E-15	2.411413E-16
3.180000E+03	4.229743E-15	2.402950E-16
3.190000E+03	4.236246E-15	2.396374E-16
3.200000E+03	4.246372E-15	2.391739E-16
3.210000E+03	4.260455E-15	2.389205E-16
3.220000E+03	4.278829E-15	2.388929E-16
3.230000E+03	4.301745E-15	2.391015E-16
3.240000E+03	4.329546E-15	2.395619E-16
3.250000E+03	4.362492E-15	2.402844E-16
3.260000E+03	4.400857E-15	2.412800E-16
3.270000E+03	4.445007E-15	2.425644E-16
3.280000E+03	4.495232E-15	2.441484E-16
3.290000E+03	4.551835E-15	2.460435E-16
3.300000E+03	4.615213E-15	2.482657E-16
3.310000E+03	4.685689E-15	2.508267E-16
3.320000E+03	4.763682E-15	2.537427E-16
3.330000E+03	4.849369E-15	2.570169E-16
3.340000E+03	4.943268E-15	2.606697E-16
3.350000E+03	5.045564E-15	2.647039E-16
3.360000E+03	5.156858E-15	2.691433E-16
3.370000E+03	5.277227E-15	2.739841E-16
3.380000E+03	5.406978E-15	2.792340E-16
3.390000E+03	5.546554E-15	2.849073E-16
3.400000E+03	5.695928E-15	2.909937E-16
3.410000E+03	5.855273E-15	2.974930E-16
3.420000E+03	6.024700E-15	3.044016E-16
3.430000E+03	6.204157E-15	3.117073E-16
3.440000E+03	6.393496E-15	3.193934E-16
3.450000E+03	6.592369E-15	3.274329E-16
3.460000E+03	6.800484E-15	3.358023E-16
3.470000E+03	7.017138E-15	3.444580E-16
3.480000E+03	7.241853E-15	3.533679E-16
3.490000E+03	7.473431E-15	3.624658E-16
3.500000E+03	7.711063E-15	3.717054E-16
3.510000E+03	7.953265E-15	3.810091E-16
3.520000E+03	8.198533E-15	3.902998E-16
3.530000E+03	8.445057E-15	3.994882E-16
3.540000E+03	8.691055E-15	4.084880E-16
3.550000E+03	8.934224E-15	4.171910E-16
3.560000E+03	9.172495E-15	4.255028E-16
3.570000E+03	9.403783E-15	4.333306E-16
3.580000E+03	9.626221E-15	4.405945E-16
3.590000E+03	9.838014E-15	4.472200E-16
3.600000E+03	1.003793E-14	4.531606E-16
3.610000E+03	1.022500E-14	4.583833E-16
3.620000E+03	1.039885E-14	4.628825E-16
3.630000E+03	1.055953E-14	4.666725E-16
3.640000E+03	1.070742E-14	4.697824E-16
3.650000E+03	1.084345E-14	4.722637E-16
3.660000E+03	1.096903E-14	4.741888E-16
3.670000E+03	1.108589E-14	4.756418E-16
3.680000E+03	1.119647E-14	4.767343E-16
3.690000E+03	1.130306E-14	4.775699E-16
3.700000E+03	1.140903E-14	4.782927E-16
3.710000E+03	1.151766E-14	4.790406E-16
3.720000E+03	1.163296E-14	4.799752E-16
3.730000E+03	1.175913E-14	4.812624E-16
3.740000E+03	1.190053E-14	4.830683E-16
3.750000E+03	1.206200E-14	4.855717E-16
3.760000E+03	1.224843E-14	4.889482E-16
3.770000E+03	1.246499E-14	4.933764E-16
3.780000E+03	1.271677E-14	4.990256E-16
3.790000E+03	1.300903E-14	5.060642E-16
3.800000E+03	1.334676E-14	5.146427E-16
3.810000E+03	1.373497E-14	5.249059E-16
3.820000E+03	1.417792E-14	5.369624E-16
3.830000E+03	1.467912E-14	5.508877E-16
3.840000E+03	1.524079E-14	5.667028E-16
3.850000E+03	1.586284E-14	5.843422E-16
3.860000E+03	1.654335E-14	6.036722E-16
3.870000E+03	1.727657E-14	6.244241E-16
3.880000E+03	1.805397E-14	6.462369E-16
3.890000E+03	1.886410E-14	6.686591E-16
3.900000E+03	1.969178E-14	6.911243E-16
3.910000E+03	2.052018E-14	7.130291E-16
3.920000E+03	2.133013E-14	7.337146E-16
3.930000E+03	2.210205E-14	7.525347E-16
3.940000E+03	2.281695E-14	7.688915E-16
3.950000E+03	2.345691E-14	7.822486E-16
3.960000E+03	2.400714E-14	7.921994E-16
3.970000E+03	2.445673E-14	7.984845E-16
3.980000E+03	2.479900E-14	8.009970E-16
3.990000E+03	2.503312E-14	7.998257E-16
4.000000E+03	2.516228E-14	7.951877E-16
4.010000E+03	2.519496E-14	7.874610E-16
4.020000E+03	2.514289E-14	7.771125E-16
4.030000E+03	2.502027E-14	7.646672E-16
4.040000E+03	2.484276E-14	7.506748E-16
4.050000E+03	2.462582E-14	7.356571E-16
4.060000E+03	2.438464E-14	7.201056E-16
4.070000E+03	2.413278E-14	7.044444E-16
4.080000E+03	2.388238E-14	6.890371E-16
4.090000E+03	2.364334E-14	6.741671E-16
4.100000E+03	2.342409E-14	6.600635E-16
4.110000E+03	2.323110E-14	6.468893E-16
4.120000E+03	2.306909E-14	6.347514E-16
4.130000E+03	2.294103E-14	6.237029E-16
4.140000E+03	2.284806E-14	6.137448E-16
4.150000E+03	2.278948E-14	6.048282E-16
4.160000E+03	2.276288E-14	5.968612E-16
4.170000E+03	2.276380E-14	5.897022E-16
4.180000E+03	2.278666E-14	5.831883E-16
4.190000E+03	2.282443E-14	5.771262E-16
4.200000E+03	2.286986E-14	5.713276E-16
4.210000E+03	2.291460E-14	5.655855E-16
4.220000E+03	2.295125E-14	5.597270E-16
4.230000E+03	2.297187E-14	5.535742E-16
4.240000E+03	2.296970E-14	5.469866E-16
4.250000E+03	2.293903E-14	5.398558E-16
4.260000E+03	2.287444E-14	5.320858E-16
4.270000E+03	2.277179E-14	5.236146E-16
4.280000E+03	2.262800E-14	5.144071E-16
4.290000E+03	2.244068E-14	5.044464E-16
4.300000E+03	2.220855E-14	4.937396E-16
4.310000E+03	2.193176E-14	4.823251E-16
4.320000E+03	2.161209E-14	4.702748E-16
4.330000E+03	2.125269E-14	4.576848E-16
4.340000E+03	2.085915E-14	4.446994E-16
4.350000E+03	2.043817E-14	4.314783E-16
4.360000E+03	1.999870E-14	4.182210E-16
4.370000E+03	1.954948E-14	4.051139E-16
4.380000E+03	1.910048E-14	3.923600E-16
4.390000E+03	1.866210E-14	3.801632E-16
4.400000E+03	1.824489E-14	3.687232E-16
4.410000E+03	1.786162E-14	3.582773E-16
4.420000E+03	1.752712E-14	3.490975E-16
4.430000E+03	1.726014E-14	3.415267E-16
4.440000E+03	1.708071E-14	3.359207E-16
4.450000E+03	1.700791E-14	3.326094E-16
4.460000E+03	1.705797E-14	3.318647E-16
4.470000E+03	1.724423E-14	3.339022E-16
4.480000E+03	1.757724E-14	3.388855E-16
4.490000E+03	1.806437E-14	3.469206E-16
4.500000E+03	1.871020E-14	3.580642E-16
4.510000E+03	1.951587E-14	3.723125E-16
4.520000E+03	2.047855E-14	3.895915E-16
4.530000E+03	2.158946E-14	4.097200E-16
4.540000E+03	2.283334E-14	4.323993E-16
4.550000E+03	2.418661E-14	4.571789E-16
4.560000E+03	2.561680E-14	4.834456E-16
4.570000E+03	2.708187E-14	5.104099E-16
4.580000E+03	2.853150E-14	5.371293E-16
4.590000E+03	2.990876E-14	5.625395E-16
4.600000E+03	3.115425E-14	5.855297E-16
4.610000E+03	3.221046E-14	6.050242E-16
4.620000E+03	3.302801E-14	6.200979E-16
4.630000E+03	3.356925E-14	6.300426E-16
4.640000E+03	3.381464E-14	6.344875E-16
4.650000E+03	3.376190E-14	6.333823E-16
4.660000E+03	3.342718E-14	6.270206E-16
4.670000E+03	3.284063E-14	6.159574E-16
4.680000E+03	3.204420E-14	6.009686E-16
4.690000E+03	3.108433E-14	5.829155E-16
4.700000E+03	3.000966E-14	5.627017E-16
4.710000E+03	2.886584E-14	5.411763E-16
4.720000E+03	2.769367E-14	5.190987E-16
4.730000E+03	2.652729E-14	4.971055E-16
4.740000E+03	2.539371E-14	4.757004E-16
4.750000E+03	2.431376E-14	4.552714E-16
4.760000E+03	2.330271E-14	4.361037E-16
4.770000E+03	2.237067E-14	4.183851E-16
4.780000E+03	2.152413E-14	4.022359E-16
4.790000E+03	2.076597E-14	3.877079E-16
4.800000E+03	2.009655E-14	3.748057E-16
4.810000E+03	1.951400E-14	3.634914E-16
4.820000E+03	1.901473E-14	3.536942E-16
4.830000E+03	1.859403E-14	3.453224E-16
4.840000E+03	1.824606E-14	3.382624E-16
4.850000E+03	1.796470E-14	3.323952E-16
4.860000E+03	1.774349E-14	3.275953E-16
4.870000E+03	1.757584E-14	3.237350E-16
4.880000E+03	1.745440E-14	3.206724E-16
4.890000E+03	1.737137E-14	3.182583E-16
4.900000E+03	1.731770E-14	3.163216E-16
4.910000E+03	1.728349E-14	3.146766E-16
4.920000E+03	1.725815E-14	3.131278E-16
4.930000E+03	1.723072E-14	3.114750E-16
4.940000E+03	1.719065E-14	3.095288E-16
4.950000E+03	1.712868E-14	3.071264E-16
4.960000E+03	1.703765E-14	3.041455E-16
4.970000E+03	1.691306E-14	3.005146E-16
4.980000E+03	1.675421E-14	2.962316E-16
4.990000E+03	1.656347E-14	2.913499E-16
5.000000E+03	1.634616E-14	2.859743E-16
5.010000E+03	1.611075E-14	2.802632E-16
5.020000E+03	1.586754E-14	2.744040E-16
5.030000E+03	1.562775E-14	2.685960E-16
5.040000E+03	1.540248E-14	2.630321E-16
5.050000E+03	1.520300E-14	2.579025E-16
5.060000E+03	1.503918E-14	2.533689E-16
5.070000E+03	1.492003E-14	2.495730E-16
5.080000E+03	1.485306E-14	2.466270E-16
5.090000E+03	1.484487E-14	2.446235E-16
5.100000E+03	1.490133E-14	2.436388E-16
5.110000E+03	1.502730E-14	2.437294E-16
5.120000E+03	1.522777E-14	2.449505E-16
5.130000E+03	1.550689E-14	2.473406E-16
5.140000E+03	1.586825E-14	2.509264E-16
5.150000E+03	1.631439E-14	2.557163E-16
5.160000E+03	1.684604E-14	2.616888E-16
5.170000E+03	1.746200E-14	2.687922E-16
5.180000E+03	1.815712E-14	2.769162E-16
5.190000E+03	1.892272E-14	2.859009E-16
5.200000E+03	1.974508E-14	2.955162E-16
5.210000E+03	2.060562E-14	3.054704E-16
5.220000E+03	2.148119E-14	3.154162E-16
5.230000E+03	2.234441E-14	3.249599E-16
5.240000E+03	2.316570E-14	3.336932E-16
5.250000E+03	2.391514E-14	3.412209E-16
5.260000E+03	2.456485E-14	3.471940E-16
5.270000E+03	2.509107E-14	3.513368E-16
5.280000E+03	2.547699E-14	3.534817E-16
5.290000E+03	2.571315E-14	3.535693E-16
5.300000E+03	2.579854E-14	3.516578E-16
5.310000E+03	2.574009E-14	3.479097E-16
5.320000E+03	2.555011E-14	3.425525E-16
5.330000E+03	2.524599E-14	3.358710E-16
5.340000E+03	2.484702E-14	3.281639E-16
5.350000E+03	2.437385E-14	3.197347E-16
5.360000E+03	2.384637E-14	3.108655E-16
5.370000E+03	2.328285E-14	3.018067E-16
5.380000E+03	2.270093E-14	2.927920E-16
5.390000E+03	2.211667E-14	2.840268E-16
5.400000E+03	2.154496E-14	2.756962E-16
5.410000E+03	2.100003E-14	2.679728E-16
5.420000E+03	2.049604E-14	2.610240E-16
5.430000E+03	2.004468E-14	2.549747E-16
5.440000E+03	1.965549E-14	2.499205E-16
5.450000E+03	1.933188E-14	2.458827E-16
5.460000E+03	1.907018E-14	2.427959E-16
5.470000E+03	1.886037E-14	2.405177E-16
5.480000E+03	1.868955E-14	2.388704E-16
5.490000E+03	1.854466E-14	2.376751E-16
5.500000E+03	1.841419E-14	2.367729E-16
5.510000E+03	1.828814E-14	2.360231E-16
5.520000E+03	1.815853E-14	2.353101E-16
5.530000E+03	1.801860E-14	2.345329E-16
5.540000E+03	1.786319E-14	2.336100E-16
5.550000E+03	1.768737E-14	2.324618E-16
5.560000E+03	1.748688E-14	2.310170E-16
5.570000E+03	1.725840E-14	2.292153E-16
5.580000E+03	1.699978E-14	2.270120E-16
5.590000E+03	1.670979E-14	2.243739E-16
5.600000E+03	1.638889E-14	2.212918E-16
5.610000E+03	1.603932E-14	2.177808E-16
5.620000E+03	1.566503E-14	2.138812E-16
5.630000E+03	1.527163E-14	2.096583E-16
5.640000E+03	1.486608E-14	2.051984E-16
5.650000E+03	1.445622E-14	2.006034E-16
5.660000E+03	1.405036E-14	1.959845E-16
5.670000E+03	1.365721E-14	1.914625E-16
5.680000E+03	1.328513E-14	1.871558E-16
5.690000E+03	1.294245E-14	1.831852E-16
5.700000E+03	1.263685E-14	1.796651E-16
5.710000E+03	1.237531E-14	1.767017E-16
5.720000E+03	1.216444E-14	1.743974E-16
5.730000E+03	1.201006E-14	1.728444E-16
5.740000E+03	1.191713E-14	1.721231E-16
5.750000E+03	1.189010E-14	1.723067E-16
5.760000E+03	1.193241E-14	1.734536E-16
5.770000E+03	1.204627E-14	1.756033E-16
5.780000E+03	1.223271E-14	1.787775E-16
5.790000E+03	1.249108E-14	1.829718E-16
5.800000E+03	1.281820E-14	1.881431E-16
5.810000E+03	1.320884E-14	1.942161E-16
5.820000E+03	1.365500E-14	2.010733E-16
5.830000E+03	1.414561E-14	2.085496E-16
5.840000E+03	1.466694E-14	2.164395E-16
5.850000E+03	1.520309E-14	2.245036E-16
5.860000E+03	1.573615E-14	2.324726E-16
5.870000E+03	1.624733E-14	2.400636E-16
5.880000E+03	1.671780E-14	2.469942E-16
5.890000E+03	1.712990E-14	2.530003E-16
5.900000E+03	1.746831E-14	2.578543E-16
5.910000E+03	1.772066E-14	2.613748E-16
5.920000E+03	1.787829E-14	2.634376E-16
5.930000E+03	1.793743E-14	2.639933E-16
5.940000E+03	1.789806E-14	2.630497E-16
5.950000E+03	1.776471E-14	2.606839E-16
5.960000E+03	1.754429E-14	2.570086E-16
5.970000E+03	1.724683E-14	2.521833E-16
5.980000E+03	1.688311E-14	2.463782E-16
5.990000E+03	1.646421E-14	2.397673E-16
6.000000E+03	1.600103E-14	2.325212E-16
6.010000E+03	1.550345E-14	2.247941E-16
6.020000E+03	1.498050E-14	2.167266E-16
6.030000E+03	1.443991E-14	2.084391E-16
6.040000E+03	1.388843E-14	2.000364E-16
6.050000E+03	1.333232E-14	1.916144E-16
6.060000E+03	1.277686E-14	1.832537E-16
6.070000E+03	1.222702E-14	1.750290E-16
6.080000E+03	1.168771E-14	1.670127E-16
6.090000E+03	1.116373E-14	1.592748E-16
6.100000E+03	1.065993E-14	1.518840E-16
6.110000E+03	1.018108E-14	1.449080E-16
6.120000E+03	9.731832E-15	1.384114E-16
6.130000E+03	9.317026E-15	1.324614E-16
6.140000E+03	8.941278E-15	1.271220E-16
6.150000E+03	8.608600E-15	1.224488E-16
6.160000E+03	8.322838E-15	1.184961E-16
6.170000E+03	8.086894E-15	1.153061E-16
6.180000E+03	7.902877E-15	1.129114E-16
6.190000E+03	7.772327E-15	1.113386E-16
6.200000E+03	7.696499E-15	1.106126E-16
6.210000E+03	7.675512E-15	1.107451E-16
6.220000E+03	7.709029E-15	1.117438E-16
6.230000E+03	7.795451E-15	1.136013E-16
6.240000E+03	7.932015E-15	1.162958E-16
6.250000E+03	8.114933E-15	1.197918E-16
6.260000E+03	8.338742E-15	1.240264E-16
6.270000E+03	8.596909E-15	1.289197E-16
6.280000E+03	8.881273E-15	1.343659E-16
6.290000E+03	9.182623E-15	1.402400E-16
6.300000E+03	9.490464E-15	1.463922E-16
6.310000E+03	9.793663E-15	1.526566E-16
6.320000E+03	1.008117E-14	1.588605E-16
6.330000E+03	1.034267E-14	1.648341E-16
6.340000E+03	1.056871E-14	1.704125E-16
6.350000E+03	1.075207E-14	1.754584E-16
6.360000E+03	1.088792E-14	1.798656E-16
6.370000E+03	1.097427E-14	1.835702E-16
6.380000E+03	1.101243E-14	1.865598E-16
6.390000E+03	1.100614E-14	1.888636E-16
6.400000E+03	1.096251E-14	1.905709E-16
6.410000E+03	1.089041E-14	1.918076E-16
6.420000E+03	1.080080E-14	1.927441E-16
6.430000E+03	1.070462E-14	1.935604E-16
6.440000E+03	1.061312E-14	1.944527E-16
6.450000E+03	1.053533E-14	1.955871E-16
6.460000E+03	1.047825E-14	1.971007E-16
6.470000E+03	1.044381E-14	1.990412E-16
6.480000E+03	1.043058E-14	2.013942E-16
6.490000E+03	1.043328E-14	2.040686E-16
6.500000E+03	1.044544E-14	2.069451E-16
6.510000E+03	1.045966E-14	2.098789E-16
6.520000E+03	1.046876E-14	2.127230E-16
6.530000E+03	1.046617E-14	2.153352E-16
6.540000E+03	1.044624E-14	2.175862E-16
6.550000E+03	1.040448E-14	2.193652E-16
6.560000E+03	1.033757E-14	2.205821E-16
6.570000E+03	1.024370E-14	2.211765E-16
6.580000E+03	1.012240E-14	2.211155E-16
6.590000E+03	9.974304E-15	2.203901E-16
6.600000E+03	9.801569E-15	2.190270E-16
6.610000E+03	9.606435E-15	2.170571E-16
6.620000E+03	9.392560E-15	2.145460E-16
6.630000E+03	9.163525E-15	2.115621E-16
6.640000E+03	8.923244E-15	2.081853E-16
6.650000E+03	8.675463E-15	2.044955E-16
6.660000E+03	8.424161E-15	2.005824E-16
6.670000E+03	8.172435E-15	1.965184E-16
6.680000E+03	7.923265E-15	1.923764E-16
6.690000E+03	7.679321E-15	1.882245E-16
6.700000E+03	7.442681E-15	1.841187E-16
6.710000E+03	7.214879E-15	1.801034E-16
6.720000E+03	6.997301E-15	1.762208E-16
6.730000E+03	6.790742E-15	1.724991E-16
6.740000E+03	6.595813E-15	1.689624E-16
6.750000E+03	6.412976E-15	1.656315E-16
6.760000E+03	6.242245E-15	1.625156E-16
6.770000E+03	6.083564E-15	1.596221E-16
6.780000E+03	5.936822E-15	1.569566E-16
6.790000E+03	5.801676E-15	1.545183E-16
6.800000E+03	5.677495E-15	1.522981E-16
6.810000E+03	5.563992E-15	1.502956E-16
6.820000E+03	5.460657E-15	1.485038E-16
6.830000E+03	5.366888E-15	1.469128E-16
6.840000E+03	5.282279E-15	1.455173E-16
6.850000E+03	5.206240E-15	1.443064E-16
6.860000E+03	5.138354E-15	1.432735E-16
6.870000E+03	5.078007E-15	1.424060E-16
6.880000E+03	5.024745E-15	1.416953E-16
6.890000E+03	4.977997E-15	1.411288E-16
6.900000E+03	4.937074E-15	1.406903E-16
6.910000E+03	4.901426E-15	1.403668E-16
6.920000E+03	4.870381E-15	1.401415E-16
6.930000E+03	4.843238E-15	1.399962E-16
6.940000E+03	4.819201E-15	1.399094E-16
6.950000E+03	4.797746E-15	1.398671E-16
6.960000E+03	4.778027E-15	1.398457E-16
6.970000E+03	4.759605E-15	1.398329E-16
6.980000E+03	4.741758E-15	1.398079E-16
6.990000E+03	4.724191E-15	1.397622E-16
7.000000E+03	4.706417E-15	1.396816E-16
7.010000E+03	4.688020E-15	1.395536E-16
7.020000E+03	4.668911E-15	1.393756E-16
7.030000E+03	4.648879E-15	1.391413E-16
7.040000E+03	4.627594E-15	1.388405E-16
7.050000E+03	4.605121E-15	1.384753E-16
7.060000E+03	4.581401E-15	1.380439E-16
7.070000E+03	4.556327E-15	1.375429E-16
7.080000E+03	4.529928E-15	1.369734E-16
7.090000E+03	4.502454E-15	1.363431E-16
7.100000E+03	4.473848E-15	1.356504E-16
7.110000E+03	4.444286E-15	1.349009E-16
7.120000E+03	4.414172E-15	1.341072E-16
7.130000E+03	4.383699E-15	1.332756E-16
7.140000E+03	4.353097E-15	1.324134E-16
7.150000E+03	4.322876E-15	1.315366E-16
7.160000E+03	4.293288E-15	1.306534E-16
7.170000E+03	4.264731E-15	1.297763E-16
7.180000E+03	4.237398E-15	1.289116E-16
7.190000E+03	4.211510E-15	1.280664E-16
7.200000E+03	4.187316E-15	1.272487E-16
7.210000E+03	4.164904E-15	1.264614E-16
7.220000E+03	4.144293E-15	1.257053E-16
7.230000E+03	4.125419E-15	1.249787E-16
7.240000E+03	4.108050E-15	1.242746E-16
7.250000E+03	4.092132E-15	1.235915E-16
7.260000E+03	4.077260E-15	1.229173E-16
7.270000E+03	4.063112E-15	1.222423E-16
7.280000E+03	4.049013E-15	1.215465E-16
7.290000E+03	4.034554E-15	1.208178E-16
7.300000E+03	4.019088E-15	1.200372E-16
7.310000E+03	4.001759E-15	1.191799E-16
7.320000E+03	3.982060E-15	1.182315E-16
7.330000E+03	3.959260E-15	1.171715E-16
7.340000E+03	3.932716E-15	1.159823E-16
7.350000E+03	3.902075E-15	1.146552E-16
7.360000E+03	3.866958E-15	1.131810E-16
7.370000E+03	3.827151E-15	1.115558E-16
7.380000E+03	3.782702E-15	1.097833E-16
7.390000E+03	3.733744E-15	1.078701E-16
7.400000E+03	3.680656E-15	1.058297E-16
7.410000E+03	3.623782E-15	1.036749E-16
7.420000E+03	3.563652E-15	1.014233E-16
7.430000E+03	3.501031E-15	9.909926E-17
7.440000E+03	3.436556E-15	9.672303E-17
7.450000E+03	3.371030E-15	9.431923E-17
7.460000E+03	3.305394E-15	9.191582E-17
7.470000E+03	3.240239E-15	8.953039E-17
7.480000E+03	3.176261E-15	8.718307E-17
7.490000E+03	3.114170E-15	8.489376E-17
7.500000E+03	3.054454E-15	8.267585E-17
7.510000E+03	2.997462E-15	8.053846E-17
7.520000E+03	2.943764E-15	7.849628E-17
7.530000E+03	2.893510E-15	7.655236E-17
7.540000E+03	2.847020E-15	7.471389E-17
7.550000E+03	2.804503E-15	7.298491E-17
7.560000E+03	2.766144E-15	7.136841E-17
7.570000E+03	2.732093E-15	6.986636E-17
7.580000E+03	2.702553E-15	6.848165E-17
7.590000E+03	2.677498E-15	6.721124E-17
7.600000E+03	2.657153E-15	6.605823E-17
7.610000E+03	2.641459E-15	6.501834E-17
7.620000E+03	2.630600E-15	6.409321E-17
7.630000E+03	2.624464E-15	6.327705E-17
7.640000E+03	2.623087E-15	6.256765E-17
7.650000E+03	2.626377E-15	6.195960E-17
7.660000E+03	2.634078E-15	6.144379E-17
7.670000E+03	2.645975E-15	6.101220E-17
7.680000E+03	2.661710E-15	6.065374E-17
7.690000E+03	2.680886E-15	6.035688E-17
7.700000E+03	2.703034E-15	6.010889E-17
7.710000E+03	2.727785E-15	5.989977E-17
7.720000E+03	2.754896E-15	5.972270E-17
7.730000E+03	2.784109E-15	5.957090E-17
7.740000E+03	2.815218E-15	5.943909E-17
7.750000E+03	2.848049E-15	5.932288E-17
7.760000E+03	2.882350E-15	5.921667E-17
