#wls	flux	fluxerr
1.600000E+03	3.488644E-15	2.761758E-16
1.640000E+03	2.998468E-15	2.357212E-16
1.680000E+03	2.572609E-15	2.007971E-16
1.720000E+03	2.205159E-15	1.708518E-16
1.760000E+03	1.891315E-15	1.454280E-16
1.800000E+03	1.624884E-15	1.239703E-16
1.840000E+03	1.400471E-15	1.059947E-16
1.880000E+03	1.212921E-15	9.104525E-17
1.920000E+03	1.057593E-15	7.871473E-17
1.960000E+03	9.301256E-16	6.862559E-17
2.000000E+03	8.267154E-16	6.045034E-17
2.040000E+03	7.442525E-16	5.391991E-17
2.080000E+03	6.802213E-16	4.881458E-17
2.120000E+03	6.327392E-16	4.496506E-17
2.160000E+03	6.006901E-16	4.225994E-17
2.200000E+03	5.831984E-16	4.060643E-17
2.240000E+03	5.801327E-16	3.996434E-17
2.280000E+03	5.915460E-16	4.030526E-17
2.320000E+03	6.180084E-16	4.163428E-17
2.360000E+03	6.600748E-16	4.395240E-17
2.400000E+03	7.185946E-16	4.727691E-17
2.440000E+03	7.940898E-16	5.159964E-17
2.480000E+03	8.867474E-16	5.688767E-17
2.520000E+03	9.958026E-16	6.304555E-17
2.560000E+03	1.119122E-15	6.989331E-17
2.600000E+03	1.253258E-15	7.717591E-17
2.640000E+03	1.393279E-15	8.455899E-17
2.680000E+03	1.533817E-15	9.169889E-17
2.720000E+03	1.669168E-15	9.825117E-17
2.760000E+03	1.794403E-15	1.039379E-16
2.800000E+03	1.905517E-15	1.085527E-16
2.840000E+03	1.999860E-15	1.119819E-16
2.880000E+03	2.076419E-15	1.142138E-16
2.920000E+03	2.135481E-15	1.153125E-16
2.960000E+03	2.179473E-15	1.154563E-16
3.000000E+03	2.211932E-15	1.148728E-16
3.010000E+03	2.218827E-15	1.146474E-16
3.020000E+03	2.225268E-15	1.143926E-16
3.030000E+03	2.231417E-15	1.141171E-16
3.040000E+03	2.237331E-15	1.138239E-16
3.050000E+03	2.243167E-15	1.135213E-16
3.060000E+03	2.248982E-15	1.132120E-16
3.070000E+03	2.254731E-15	1.128939E-16
3.080000E+03	2.260668E-15	1.125795E-16
3.090000E+03	2.266747E-15	1.122667E-16
3.100000E+03	2.273120E-15	1.119625E-16
3.110000E+03	2.279745E-15	1.116647E-16
3.120000E+03	2.286860E-15	1.113848E-16
3.130000E+03	2.294422E-15	1.111201E-16
3.140000E+03	2.302571E-15	1.108771E-16
3.150000E+03	2.311356E-15	1.106575E-16
3.160000E+03	2.320820E-15	1.104628E-16
3.170000E+03	2.331096E-15	1.102989E-16
3.180000E+03	2.342227E-15	1.101669E-16
3.190000E+03	2.354252E-15	1.100679E-16
3.200000E+03	2.367297E-15	1.100070E-16
3.210000E+03	2.381397E-15	1.099850E-16
3.220000E+03	2.396587E-15	1.100024E-16
3.230000E+03	2.412985E-15	1.100638E-16
3.240000E+03	2.430622E-15	1.101693E-16
3.250000E+03	2.449528E-15	1.103193E-16
3.260000E+03	2.469813E-15	1.105175E-16
3.270000E+03	2.491584E-15	1.107675E-16
3.280000E+03	2.514785E-15	1.110654E-16
3.290000E+03	2.539600E-15	1.114178E-16
3.300000E+03	2.565889E-15	1.118174E-16
3.310000E+03	2.593914E-15	1.122741E-16
3.320000E+03	2.623614E-15	1.127835E-16
3.330000E+03	2.655009E-15	1.133451E-16
3.340000E+03	2.688275E-15	1.139646E-16
3.350000E+03	2.723355E-15	1.146380E-16
3.360000E+03	2.760267E-15	1.153641E-16
3.370000E+03	2.799190E-15	1.161489E-16
3.380000E+03	2.840071E-15	1.169881E-16
3.390000E+03	2.882936E-15	1.178809E-16
3.400000E+03	2.927891E-15	1.188297E-16
3.410000E+03	2.974965E-15	1.198337E-16
3.420000E+03	3.024188E-15	1.208921E-16
3.430000E+03	3.075583E-15	1.220036E-16
3.440000E+03	3.129092E-15	1.231638E-16
3.450000E+03	3.184801E-15	1.243741E-16
3.460000E+03	3.242709E-15	1.256322E-16
3.470000E+03	3.302578E-15	1.269268E-16
3.480000E+03	3.364538E-15	1.282609E-16
3.490000E+03	3.428400E-15	1.296253E-16
3.500000E+03	3.494032E-15	1.310131E-16
3.510000E+03	3.561289E-15	1.324170E-16
3.520000E+03	3.629931E-15	1.338267E-16
3.530000E+03	3.699790E-15	1.352345E-16
3.540000E+03	3.770610E-15	1.366298E-16
3.550000E+03	3.842299E-15	1.380083E-16
3.560000E+03	3.914625E-15	1.393607E-16
3.570000E+03	3.987383E-15	1.406792E-16
3.580000E+03	4.060482E-15	1.419600E-16
3.590000E+03	4.133802E-15	1.431984E-16
3.600000E+03	4.207197E-15	1.443892E-16
3.610000E+03	4.280727E-15	1.455342E-16
3.620000E+03	4.354348E-15	1.466317E-16
3.630000E+03	4.428447E-15	1.476944E-16
3.640000E+03	4.503068E-15	1.487233E-16
3.650000E+03	4.578682E-15	1.497330E-16
3.660000E+03	4.655722E-15	1.507367E-16
3.670000E+03	4.734437E-15	1.517408E-16
3.680000E+03	4.815363E-15	1.527607E-16
3.690000E+03	4.899104E-15	1.538131E-16
3.700000E+03	4.986266E-15	1.549139E-16
3.710000E+03	5.077465E-15	1.560787E-16
3.720000E+03	5.173487E-15	1.573274E-16
3.730000E+03	5.275298E-15	1.586842E-16
3.740000E+03	5.383789E-15	1.601700E-16
3.750000E+03	5.500099E-15	1.618114E-16
3.760000E+03	5.625259E-15	1.636309E-16
3.770000E+03	5.760506E-15	1.656550E-16
3.780000E+03	5.906828E-15	1.679019E-16
3.790000E+03	6.065507E-15	1.703965E-16
3.800000E+03	6.237388E-15	1.731501E-16
3.810000E+03	6.423403E-15	1.761749E-16
3.820000E+03	6.624142E-15	1.794729E-16
3.830000E+03	6.839829E-15	1.830354E-16
3.840000E+03	7.070114E-15	1.868384E-16
3.850000E+03	7.314135E-15	1.908448E-16
3.860000E+03	7.570426E-15	1.950032E-16
3.870000E+03	7.836677E-15	1.992429E-16
3.880000E+03	8.109615E-15	2.034719E-16
3.890000E+03	8.385688E-15	2.075960E-16
3.900000E+03	8.660456E-15	2.115039E-16
3.910000E+03	8.929187E-15	2.150835E-16
3.920000E+03	9.186955E-15	2.182243E-16
3.930000E+03	9.428963E-15	2.208254E-16
3.940000E+03	9.650315E-15	2.227903E-16
3.950000E+03	9.846896E-15	2.240467E-16
3.960000E+03	1.001527E-14	2.245431E-16
3.970000E+03	1.015244E-14	2.242422E-16
3.980000E+03	1.025689E-14	2.231432E-16
3.990000E+03	1.032770E-14	2.212595E-16
4.000000E+03	1.036558E-14	2.186407E-16
4.010000E+03	1.037187E-14	2.153478E-16
4.020000E+03	1.034939E-14	2.114709E-16
4.030000E+03	1.030126E-14	2.071016E-16
4.040000E+03	1.023166E-14	2.023489E-16
4.050000E+03	1.014476E-14	1.973156E-16
4.060000E+03	1.004483E-14	1.921011E-16
4.070000E+03	9.936448E-15	1.868045E-16
4.080000E+03	9.823655E-15	1.815098E-16
4.090000E+03	9.710193E-15	1.762896E-16
4.100000E+03	9.599732E-15	1.712107E-16
4.110000E+03	9.495548E-15	1.663281E-16
4.120000E+03	9.400093E-15	1.616789E-16
4.130000E+03	9.316040E-15	1.573007E-16
4.140000E+03	9.245123E-15	1.532121E-16
4.150000E+03	9.188817E-15	1.494260E-16
4.160000E+03	9.148162E-15	1.459463E-16
4.170000E+03	9.123786E-15	1.427697E-16
4.180000E+03	9.115864E-15	1.398855E-16
4.190000E+03	9.124463E-15	1.372813E-16
4.200000E+03	9.149104E-15	1.349373E-16
4.210000E+03	9.189379E-15	1.328354E-16
4.220000E+03	9.244397E-15	1.309519E-16
4.230000E+03	9.313269E-15	1.292643E-16
4.240000E+03	9.394903E-15	1.277491E-16
4.250000E+03	9.487766E-15	1.263788E-16
4.260000E+03	9.590200E-15	1.251262E-16
4.270000E+03	9.700081E-15	1.239608E-16
4.280000E+03	9.814816E-15	1.228489E-16
4.290000E+03	9.931416E-15	1.217550E-16
4.300000E+03	1.004644E-14	1.206421E-16
4.310000E+03	1.015638E-14	1.194757E-16
4.320000E+03	1.025734E-14	1.182208E-16
4.330000E+03	1.034589E-14	1.168511E-16
4.340000E+03	1.041841E-14	1.153414E-16
4.350000E+03	1.047201E-14	1.136772E-16
4.360000E+03	1.050427E-14	1.118509E-16
4.370000E+03	1.051355E-14	1.098642E-16
4.380000E+03	1.049945E-14	1.077317E-16
4.390000E+03	1.046253E-14	1.054766E-16
4.400000E+03	1.040530E-14	1.031399E-16
4.410000E+03	1.033211E-14	1.007770E-16
4.420000E+03	1.024970E-14	9.846265E-17
4.430000E+03	1.016734E-14	9.628999E-17
4.440000E+03	1.009574E-14	9.436033E-17
4.450000E+03	1.004590E-14	9.277237E-17
4.460000E+03	1.002816E-14	9.161459E-17
4.470000E+03	1.005173E-14	9.096293E-17
4.480000E+03	1.012437E-14	9.087869E-17
4.490000E+03	1.025244E-14	9.140748E-17
4.500000E+03	1.044048E-14	9.257953E-17
4.510000E+03	1.069115E-14	9.441063E-17
4.520000E+03	1.100484E-14	9.689974E-17
4.530000E+03	1.137940E-14	1.000266E-16
4.540000E+03	1.181018E-14	1.037516E-16
4.550000E+03	1.228974E-14	1.080130E-16
4.560000E+03	1.280752E-14	1.127227E-16
4.570000E+03	1.335028E-14	1.177694E-16
4.580000E+03	1.390209E-14	1.230164E-16
4.590000E+03	1.444475E-14	1.283048E-16
4.600000E+03	1.495925E-14	1.334642E-16
4.610000E+03	1.542638E-14	1.383174E-16
4.620000E+03	1.582910E-14	1.427016E-16
4.630000E+03	1.615343E-14	1.464756E-16
4.640000E+03	1.638973E-14	1.495332E-16
4.650000E+03	1.653399E-14	1.518153E-16
4.660000E+03	1.658640E-14	1.532999E-16
4.670000E+03	1.655242E-14	1.540128E-16
4.680000E+03	1.644058E-14	1.540097E-16
4.690000E+03	1.626217E-14	1.533745E-16
4.700000E+03	1.603006E-14	1.522095E-16
4.710000E+03	1.575754E-14	1.506251E-16
4.720000E+03	1.545790E-14	1.487355E-16
4.730000E+03	1.514367E-14	1.466524E-16
4.740000E+03	1.482582E-14	1.444760E-16
4.750000E+03	1.451380E-14	1.422951E-16
4.760000E+03	1.421568E-14	1.401878E-16
4.770000E+03	1.393730E-14	1.382126E-16
4.780000E+03	1.368356E-14	1.364200E-16
4.790000E+03	1.345749E-14	1.348432E-16
4.800000E+03	1.326090E-14	1.335036E-16
4.810000E+03	1.309441E-14	1.324110E-16
4.820000E+03	1.295732E-14	1.315617E-16
4.830000E+03	1.284777E-14	1.309396E-16
4.840000E+03	1.276321E-14	1.305212E-16
4.850000E+03	1.270030E-14	1.302741E-16
4.860000E+03	1.265528E-14	1.301608E-16
4.870000E+03	1.262393E-14	1.301388E-16
4.880000E+03	1.260146E-14	1.301587E-16
4.890000E+03	1.258276E-14	1.301677E-16
4.900000E+03	1.256209E-14	1.301056E-16
4.910000E+03	1.253368E-14	1.299125E-16
4.920000E+03	1.249158E-14	1.295260E-16
4.930000E+03	1.243015E-14	1.288877E-16
4.940000E+03	1.234453E-14	1.279478E-16
4.950000E+03	1.223077E-14	1.266665E-16
4.960000E+03	1.208647E-14	1.250209E-16
4.970000E+03	1.191117E-14	1.230094E-16
4.980000E+03	1.170580E-14	1.206454E-16
4.990000E+03	1.147331E-14	1.179640E-16
5.000000E+03	1.121845E-14	1.150188E-16
5.010000E+03	1.094672E-14	1.118718E-16
5.020000E+03	1.066510E-14	1.085994E-16
5.030000E+03	1.038051E-14	1.052768E-16
5.040000E+03	1.010013E-14	1.019809E-16
5.050000E+03	9.830988E-15	9.878580E-17
5.060000E+03	9.579544E-15	9.575815E-17
5.070000E+03	9.351614E-15	9.295671E-17
5.080000E+03	9.152543E-15	9.043372E-17
5.090000E+03	8.987182E-15	8.823477E-17
5.100000E+03	8.859983E-15	8.639967E-17
5.110000E+03	8.775192E-15	8.496436E-17
5.120000E+03	8.736611E-15	8.395860E-17
5.130000E+03	8.748237E-15	8.341213E-17
5.140000E+03	8.813575E-15	8.334815E-17
5.150000E+03	8.936092E-15	8.378762E-17
5.160000E+03	9.119086E-15	8.474821E-17
5.170000E+03	9.364841E-15	8.623650E-17
5.180000E+03	9.675177E-15	8.825364E-17
5.190000E+03	1.005032E-14	9.078535E-17
5.200000E+03	1.048883E-14	9.380227E-17
5.210000E+03	1.098658E-14	9.725162E-17
5.220000E+03	1.153683E-14	1.010596E-16
5.230000E+03	1.212947E-14	1.051264E-16
5.240000E+03	1.275096E-14	1.093267E-16
5.250000E+03	1.338472E-14	1.135159E-16
5.260000E+03	1.401192E-14	1.175374E-16
5.270000E+03	1.461217E-14	1.212302E-16
5.280000E+03	1.516530E-14	1.244432E-16
5.290000E+03	1.565269E-14	1.270463E-16
5.300000E+03	1.605937E-14	1.289459E-16
5.310000E+03	1.637469E-14	1.300881E-16
5.320000E+03	1.659389E-14	1.304685E-16
5.330000E+03	1.671773E-14	1.301263E-16
5.340000E+03	1.675306E-14	1.291461E-16
5.350000E+03	1.671137E-14	1.276441E-16
5.360000E+03	1.660761E-14	1.257575E-16
5.370000E+03	1.645931E-14	1.236370E-16
5.380000E+03	1.628446E-14	1.214304E-16
5.390000E+03	1.610131E-14	1.192823E-16
5.400000E+03	1.592695E-14	1.173237E-16
5.410000E+03	1.577643E-14	1.156677E-16
5.420000E+03	1.566301E-14	1.144121E-16
5.430000E+03	1.559609E-14	1.136262E-16
5.440000E+03	1.558063E-14	1.133469E-16
5.450000E+03	1.561473E-14	1.135566E-16
5.460000E+03	1.568791E-14	1.141734E-16
5.470000E+03	1.578260E-14	1.150645E-16
5.480000E+03	1.587791E-14	1.160729E-16
5.490000E+03	1.595333E-14	1.170426E-16
5.500000E+03	1.599100E-14	1.178337E-16
5.510000E+03	1.597726E-14	1.183339E-16
5.520000E+03	1.590375E-14	1.184666E-16
5.530000E+03	1.576632E-14	1.181840E-16
5.540000E+03	1.556441E-14	1.174629E-16
5.550000E+03	1.530132E-14	1.163086E-16
5.560000E+03	1.498190E-14	1.147380E-16
5.570000E+03	1.461285E-14	1.127834E-16
5.580000E+03	1.420224E-14	1.104895E-16
5.590000E+03	1.375808E-14	1.079028E-16
5.600000E+03	1.328916E-14	1.050787E-16
5.610000E+03	1.280420E-14	1.020752E-16
5.620000E+03	1.231191E-14	9.895338E-17
5.630000E+03	1.182101E-14	9.577765E-17
5.640000E+03	1.133968E-14	9.261138E-17
5.650000E+03	1.087589E-14	8.951899E-17
5.660000E+03	1.043722E-14	8.656448E-17
5.670000E+03	1.003037E-14	8.380715E-17
5.680000E+03	9.661552E-15	8.130415E-17
5.690000E+03	9.336071E-15	7.910672E-17
5.700000E+03	9.058418E-15	7.726040E-17
5.710000E+03	8.832264E-15	7.580456E-17
5.720000E+03	8.660511E-15	7.477238E-17
5.730000E+03	8.545429E-15	7.419159E-17
5.740000E+03	8.488432E-15	7.408225E-17
5.750000E+03	8.490352E-15	7.445874E-17
5.760000E+03	8.551411E-15	7.532929E-17
5.770000E+03	8.670838E-15	7.669232E-17
5.780000E+03	8.847181E-15	7.853903E-17
5.790000E+03	9.077584E-15	8.084680E-17
5.800000E+03	9.357862E-15	8.357967E-17
5.810000E+03	9.682596E-15	8.668911E-17
5.820000E+03	1.004445E-14	9.010799E-17
5.830000E+03	1.043403E-14	9.374916E-17
5.840000E+03	1.084062E-14	9.751270E-17
5.850000E+03	1.125133E-14	1.012779E-16
5.860000E+03	1.165249E-14	1.049168E-16
5.870000E+03	1.202926E-14	1.082912E-16
5.880000E+03	1.236742E-14	1.112686E-16
5.890000E+03	1.265322E-14	1.137226E-16
5.900000E+03	1.287493E-14	1.155465E-16
5.910000E+03	1.302330E-14	1.166578E-16
5.920000E+03	1.309226E-14	1.170051E-16
5.930000E+03	1.307997E-14	1.165770E-16
5.940000E+03	1.298816E-14	1.153960E-16
5.950000E+03	1.282249E-14	1.135212E-16
5.960000E+03	1.259186E-14	1.110412E-16
5.970000E+03	1.230699E-14	1.080607E-16
5.980000E+03	1.197985E-14	1.046951E-16
5.990000E+03	1.162170E-14	1.010522E-16
6.000000E+03	1.124337E-14	9.723514E-17
6.010000E+03	1.085395E-14	9.333017E-17
6.020000E+03	1.046123E-14	8.941067E-17
6.030000E+03	1.007115E-14	8.553267E-17
6.040000E+03	9.688408E-15	8.174055E-17
6.050000E+03	9.316365E-15	7.806582E-17
6.060000E+03	8.957285E-15	7.452999E-17
6.070000E+03	8.613071E-15	7.115068E-17
6.080000E+03	8.284894E-15	6.793871E-17
6.090000E+03	7.973746E-15	6.490284E-17
6.100000E+03	7.680872E-15	6.205336E-17
6.110000E+03	7.407226E-15	5.939762E-17
6.120000E+03	7.154090E-15	5.694515E-17
6.130000E+03	6.922885E-15	5.470610E-17
6.140000E+03	6.715067E-15	5.269048E-17
6.150000E+03	6.532158E-15	5.090847E-17
6.160000E+03	6.375586E-15	4.936934E-17
6.170000E+03	6.246635E-15	4.808121E-17
6.180000E+03	6.146679E-15	4.705300E-17
6.190000E+03	6.077165E-15	4.629457E-17
6.200000E+03	6.038870E-15	4.581121E-17
6.210000E+03	6.032541E-15	4.560880E-17
6.220000E+03	6.058055E-15	4.568774E-17
6.230000E+03	6.114928E-15	4.604701E-17
6.240000E+03	6.202033E-15	4.668221E-17
6.250000E+03	6.317472E-15	4.758470E-17
6.260000E+03	6.459221E-15	4.874644E-17
6.270000E+03	6.624432E-15	5.015458E-17
6.280000E+03	6.809708E-15	5.179334E-17
6.290000E+03	7.011342E-15	5.364537E-17
6.300000E+03	7.224779E-15	5.568545E-17
6.310000E+03	7.444975E-15	5.788115E-17
6.320000E+03	7.666486E-15	6.019518E-17
6.330000E+03	7.883333E-15	6.258388E-17
6.340000E+03	8.089526E-15	6.500060E-17
6.350000E+03	8.279389E-15	6.739787E-17
6.360000E+03	8.447638E-15	6.972780E-17
6.370000E+03	8.590359E-15	7.195005E-17
6.380000E+03	8.704720E-15	7.403014E-17
6.390000E+03	8.790226E-15	7.595083E-17
6.400000E+03	8.848808E-15	7.771455E-17
6.410000E+03	8.884943E-15	7.934649E-17
6.420000E+03	8.905730E-15	8.089745E-17
6.430000E+03	8.920504E-15	8.244274E-17
6.440000E+03	8.939818E-15	8.407488E-17
6.450000E+03	8.974137E-15	8.589253E-17
6.460000E+03	9.031310E-15	8.797626E-17
6.470000E+03	9.115023E-15	9.037121E-17
6.480000E+03	9.223338E-15	9.306884E-17
6.490000E+03	9.350402E-15	9.601953E-17
6.500000E+03	9.487734E-15	9.914229E-17
6.510000E+03	9.625790E-15	1.023389E-16
6.520000E+03	9.754638E-15	1.055000E-16
6.530000E+03	9.865072E-15	1.085168E-16
6.540000E+03	9.948644E-15	1.112823E-16
6.550000E+03	9.998497E-15	1.137011E-16
6.560000E+03	1.000956E-14	1.156933E-16
6.570000E+03	9.978613E-15	1.171970E-16
6.580000E+03	9.904851E-15	1.181769E-16
6.590000E+03	9.789003E-15	1.186159E-16
6.600000E+03	9.633648E-15	1.185204E-16
6.610000E+03	9.442771E-15	1.179166E-16
6.620000E+03	9.221516E-15	1.168489E-16
6.630000E+03	8.975384E-15	1.153702E-16
6.640000E+03	8.710513E-15	1.135463E-16
6.650000E+03	8.432310E-15	1.114383E-16
6.660000E+03	8.146589E-15	1.091167E-16
6.670000E+03	7.858128E-15	1.066426E-16
6.680000E+03	7.571185E-15	1.040736E-16
6.690000E+03	7.289437E-15	1.014624E-16
6.700000E+03	7.015653E-15	9.885135E-17
6.710000E+03	6.752176E-15	9.627899E-17
6.720000E+03	6.500561E-15	9.377398E-17
6.730000E+03	6.262063E-15	9.136160E-17
6.740000E+03	6.037498E-15	8.906152E-17
6.750000E+03	5.827061E-15	8.688449E-17
6.760000E+03	5.630933E-15	8.484114E-17
6.770000E+03	5.448975E-15	8.293714E-17
6.780000E+03	5.280950E-15	8.117647E-17
6.790000E+03	5.126314E-15	7.955803E-17
6.800000E+03	4.984515E-15	7.808007E-17
6.810000E+03	4.854930E-15	7.673927E-17
6.820000E+03	4.736974E-15	7.553235E-17
6.830000E+03	4.629967E-15	7.445402E-17
6.840000E+03	4.533153E-15	7.349722E-17
6.850000E+03	4.445849E-15	7.265552E-17
6.860000E+03	4.367447E-15	7.192320E-17
6.870000E+03	4.297271E-15	7.129295E-17
6.880000E+03	4.234582E-15	7.075593E-17
6.890000E+03	4.178785E-15	7.030525E-17
6.900000E+03	4.129224E-15	6.993256E-17
6.910000E+03	4.085192E-15	6.962825E-17
6.920000E+03	4.046133E-15	6.938485E-17
6.930000E+03	4.011384E-15	6.919277E-17
6.940000E+03	3.980457E-15	6.904504E-17
6.950000E+03	3.952848E-15	6.893417E-17
6.960000E+03	3.928113E-15	6.885347E-17
6.970000E+03	3.905804E-15	6.879598E-17
6.980000E+03	3.885678E-15	6.875811E-17
6.990000E+03	3.867429E-15	6.873508E-17
7.000000E+03	3.850953E-15	6.872557E-17
7.010000E+03	3.836152E-15	6.872825E-17
7.020000E+03	3.822989E-15	6.874291E-17
7.030000E+03	3.811421E-15	6.876913E-17
7.040000E+03	3.801580E-15	6.880963E-17
7.050000E+03	3.793499E-15	6.886532E-17
7.060000E+03	3.787421E-15	6.894091E-17
7.070000E+03	3.783327E-15	6.903633E-17
7.080000E+03	3.781304E-15	6.915343E-17
7.090000E+03	3.781478E-15	6.929468E-17
7.100000E+03	3.783867E-15	6.946059E-17
7.110000E+03	3.788441E-15	6.965073E-17
7.120000E+03	3.795059E-15	6.986253E-17
7.130000E+03	3.803673E-15	7.009511E-17
7.140000E+03	3.814130E-15	7.034562E-17
7.150000E+03	3.826184E-15	7.060938E-17
7.160000E+03	3.839782E-15	7.088525E-17
7.170000E+03	3.854590E-15	7.116689E-17
7.180000E+03	3.870484E-15	7.145178E-17
7.190000E+03	3.887288E-15	7.173638E-17
7.200000E+03	3.904910E-15	7.201876E-17
7.210000E+03	3.923128E-15	7.229450E-17
7.220000E+03	3.941794E-15	7.256060E-17
7.230000E+03	3.960761E-15	7.281407E-17
7.240000E+03	3.979939E-15	7.305293E-17
7.250000E+03	3.999136E-15	7.327340E-17
7.260000E+03	4.018126E-15	7.347107E-17
7.270000E+03	4.036631E-15	7.364064E-17
7.280000E+03	4.054328E-15	7.377605E-17
7.290000E+03	4.070927E-15	7.387188E-17
7.300000E+03	4.086015E-15	7.392067E-17
7.310000E+03	4.099161E-15	7.391467E-17
7.320000E+03	4.109918E-15	7.384606E-17
7.330000E+03	4.118014E-15	7.371031E-17
7.340000E+03	4.122887E-15	7.349785E-17
7.350000E+03	4.124261E-15	7.320450E-17
7.360000E+03	4.121933E-15	7.282746E-17
7.370000E+03	4.115699E-15	7.236416E-17
7.380000E+03	4.105445E-15	7.181375E-17
7.390000E+03	4.091158E-15	7.117727E-17
7.400000E+03	4.072926E-15	7.045766E-17
7.410000E+03	4.051018E-15	6.966102E-17
7.420000E+03	4.025554E-15	6.879093E-17
7.430000E+03	3.996990E-15	6.785669E-17
7.440000E+03	3.965695E-15	6.686601E-17
7.450000E+03	3.932350E-15	6.583176E-17
7.460000E+03	3.897361E-15	6.476199E-17
7.470000E+03	3.861333E-15	6.366784E-17
7.480000E+03	3.824964E-15	6.256172E-17
7.490000E+03	3.788710E-15	6.145176E-17
7.500000E+03	3.753308E-15	6.035036E-17
7.510000E+03	3.719050E-15	5.926245E-17
7.520000E+03	3.686550E-15	5.819778E-17
7.530000E+03	3.656097E-15	5.716071E-17
7.540000E+03	3.627814E-15	5.615277E-17
7.550000E+03	3.602036E-15	5.517864E-17
7.560000E+03	3.578777E-15	5.423787E-17
7.570000E+03	3.558046E-15	5.332988E-17
7.580000E+03	3.539701E-15	5.245183E-17
7.590000E+03	3.523610E-15	5.160108E-17
7.600000E+03	3.509585E-15	5.077424E-17
7.610000E+03	3.497462E-15	4.996836E-17
7.620000E+03	3.486730E-15	4.917575E-17
7.630000E+03	3.477301E-15	4.839491E-17
7.640000E+03	3.468681E-15	4.761892E-17
7.650000E+03	3.460601E-15	4.684425E-17
7.660000E+03	3.452652E-15	4.606572E-17
7.670000E+03	3.444538E-15	4.528003E-17
7.680000E+03	3.436087E-15	4.448576E-17
7.690000E+03	3.427047E-15	4.368062E-17
7.700000E+03	3.417314E-15	4.286450E-17
7.710000E+03	3.406942E-15	4.203935E-17
7.720000E+03	3.395904E-15	4.120616E-17
7.730000E+03	3.384308E-15	4.036764E-17
7.740000E+03	3.372312E-15	3.952708E-17
7.750000E+03	3.360178E-15	3.868890E-17
7.760000E+03	3.348033E-15	3.785588E-17
