#wls	flux	fluxerr
1.600000E+03	1.576709E-15	1.492056E-16
1.640000E+03	1.404374E-15	1.320423E-16
1.680000E+03	1.252366E-15	1.169710E-16
1.720000E+03	1.119236E-15	1.038253E-16
1.760000E+03	1.003305E-15	9.241969E-17
1.800000E+03	9.031077E-16	8.259128E-17
1.840000E+03	8.170775E-16	7.417052E-17
1.880000E+03	7.437791E-16	6.700282E-17
1.920000E+03	6.822434E-16	6.097814E-17
1.960000E+03	6.312394E-16	5.596499E-17
2.000000E+03	5.897119E-16	5.184997E-17
2.040000E+03	5.569435E-16	4.855137E-17
2.080000E+03	5.322437E-16	4.599122E-17
2.120000E+03	5.152013E-16	4.411682E-17
2.160000E+03	5.051949E-16	4.285823E-17
2.200000E+03	5.021086E-16	4.218929E-17
2.240000E+03	5.055629E-16	4.206166E-17
2.280000E+03	5.153613E-16	4.244262E-17
2.320000E+03	5.314488E-16	4.331110E-17
2.360000E+03	5.535798E-16	4.463020E-17
2.400000E+03	5.817029E-16	4.637873E-17
2.440000E+03	6.156201E-16	4.852355E-17
2.480000E+03	6.549288E-16	5.101568E-17
2.520000E+03	6.991317E-16	5.379975E-17
2.560000E+03	7.475409E-16	5.680727E-17
2.600000E+03	7.993715E-16	5.996460E-17
2.640000E+03	8.534238E-16	6.317010E-17
2.680000E+03	9.087753E-16	6.634682E-17
2.720000E+03	9.643251E-16	6.940854E-17
2.760000E+03	1.019145E-15	7.228580E-17
2.800000E+03	1.072555E-15	7.493033E-17
2.840000E+03	1.123876E-15	7.729701E-17
2.880000E+03	1.172553E-15	7.935231E-17
2.920000E+03	1.217964E-15	8.106104E-17
2.960000E+03	1.260374E-15	8.244894E-17
3.000000E+03	1.299860E-15	8.352920E-17
3.010000E+03	1.309247E-15	8.375029E-17
3.020000E+03	1.318613E-15	8.396321E-17
3.030000E+03	1.327866E-15	8.416191E-17
3.040000E+03	1.337014E-15	8.434711E-17
3.050000E+03	1.346068E-15	8.451952E-17
3.060000E+03	1.355038E-15	8.467983E-17
3.070000E+03	1.363937E-15	8.482887E-17
3.080000E+03	1.372774E-15	8.496730E-17
3.090000E+03	1.381665E-15	8.510221E-17
3.100000E+03	1.390518E-15	8.522792E-17
3.110000E+03	1.399344E-15	8.534512E-17
3.120000E+03	1.408258E-15	8.546081E-17
3.130000E+03	1.417167E-15	8.556925E-17
3.140000E+03	1.426186E-15	8.567731E-17
3.150000E+03	1.435325E-15	8.578545E-17
3.160000E+03	1.444493E-15	8.588818E-17
3.170000E+03	1.453801E-15	8.599199E-17
3.180000E+03	1.463360E-15	8.610328E-17
3.190000E+03	1.472979E-15	8.621060E-17
3.200000E+03	1.482866E-15	8.632594E-17
3.210000E+03	1.492831E-15	8.643811E-17
3.220000E+03	1.503181E-15	8.656456E-17
3.230000E+03	1.513723E-15	8.669397E-17
3.240000E+03	1.524465E-15	8.682656E-17
3.250000E+03	1.535611E-15	8.697366E-17
3.260000E+03	1.546967E-15	8.712393E-17
3.270000E+03	1.558737E-15	8.728858E-17
3.280000E+03	1.570825E-15	8.746178E-17
3.290000E+03	1.583332E-15	8.764889E-17
3.300000E+03	1.596161E-15	8.784411E-17
3.310000E+03	1.609412E-15	8.805257E-17
3.320000E+03	1.623184E-15	8.827913E-17
3.330000E+03	1.637376E-15	8.851794E-17
3.340000E+03	1.652085E-15	8.877370E-17
3.350000E+03	1.667306E-15	8.904565E-17
3.360000E+03	1.683037E-15	8.933306E-17
3.370000E+03	1.699369E-15	8.964030E-17
3.380000E+03	1.716296E-15	8.996636E-17
3.390000E+03	1.733810E-15	9.031025E-17
3.400000E+03	1.752000E-15	9.067594E-17
3.410000E+03	1.770855E-15	9.106224E-17
3.420000E+03	1.790559E-15	9.147774E-17
3.430000E+03	1.810909E-15	9.191128E-17
3.440000E+03	1.832082E-15	9.237114E-17
3.450000E+03	1.854163E-15	9.286075E-17
3.460000E+03	1.877138E-15	9.337839E-17
3.470000E+03	1.901088E-15	9.392716E-17
3.480000E+03	1.926095E-15	9.451005E-17
3.490000E+03	1.952049E-15	9.512061E-17
3.500000E+03	1.979317E-15	9.577556E-17
3.510000E+03	2.007694E-15	9.646376E-17
3.520000E+03	2.037359E-15	9.719250E-17
3.530000E+03	2.068300E-15	9.795988E-17
3.540000E+03	2.100697E-15	9.877306E-17
3.550000E+03	2.134452E-15	9.962585E-17
3.560000E+03	2.169563E-15	1.005168E-16
3.570000E+03	2.205941E-15	1.014404E-16
3.580000E+03	2.243689E-15	1.023999E-16
3.590000E+03	2.282639E-15	1.033863E-16
3.600000E+03	2.322911E-15	1.044038E-16
3.610000E+03	2.364449E-15	1.054483E-16
3.620000E+03	2.407300E-15	1.065208E-16
3.630000E+03	2.451342E-15	1.076143E-16
3.640000E+03	2.496838E-15	1.087392E-16
3.650000E+03	2.543606E-15	1.098859E-16
3.660000E+03	2.591859E-15	1.110624E-16
3.670000E+03	2.641648E-15	1.122692E-16
3.680000E+03	2.693150E-15	1.135121E-16
3.690000E+03	2.746389E-15	1.147904E-16
3.700000E+03	2.801800E-15	1.161202E-16
3.710000E+03	2.859489E-15	1.175037E-16
3.720000E+03	2.919789E-15	1.189520E-16
3.730000E+03	2.982988E-15	1.204740E-16
3.740000E+03	3.049506E-15	1.220836E-16
3.750000E+03	3.119704E-15	1.237916E-16
3.760000E+03	3.194160E-15	1.256168E-16
3.770000E+03	3.273181E-15	1.275668E-16
3.780000E+03	3.357263E-15	1.296560E-16
3.790000E+03	3.446875E-15	1.318971E-16
3.800000E+03	3.542440E-15	1.343003E-16
3.810000E+03	3.644115E-15	1.368654E-16
3.820000E+03	3.752330E-15	1.396020E-16
3.830000E+03	3.866891E-15	1.424961E-16
3.840000E+03	3.987814E-15	1.455419E-16
3.850000E+03	4.114706E-15	1.487187E-16
3.860000E+03	4.247037E-15	1.520013E-16
3.870000E+03	4.384011E-15	1.553561E-16
3.880000E+03	4.524451E-15	1.587372E-16
3.890000E+03	4.666895E-15	1.620906E-16
3.900000E+03	4.809831E-15	1.653625E-16
3.910000E+03	4.951297E-15	1.684861E-16
3.920000E+03	5.089141E-15	1.713910E-16
3.930000E+03	5.221202E-15	1.740094E-16
3.940000E+03	5.345283E-15	1.762755E-16
3.950000E+03	5.459139E-15	1.781251E-16
3.960000E+03	5.560680E-15	1.795020E-16
3.970000E+03	5.648323E-15	1.803690E-16
3.980000E+03	5.720618E-15	1.806955E-16
3.990000E+03	5.776672E-15	1.804701E-16
4.000000E+03	5.815974E-15	1.796945E-16
4.010000E+03	5.838540E-15	1.783870E-16
4.020000E+03	5.845016E-15	1.765849E-16
4.030000E+03	5.836631E-15	1.743419E-16
4.040000E+03	5.814690E-15	1.717122E-16
4.050000E+03	5.780937E-15	1.687610E-16
4.060000E+03	5.737671E-15	1.655668E-16
4.070000E+03	5.686888E-15	1.621966E-16
4.080000E+03	5.630748E-15	1.587191E-16
4.090000E+03	5.571575E-15	1.552046E-16
4.100000E+03	5.511394E-15	1.517122E-16
4.110000E+03	5.452175E-15	1.482966E-16
4.120000E+03	5.395704E-15	1.450050E-16
4.130000E+03	5.343372E-15	1.418721E-16
4.140000E+03	5.296627E-15	1.389320E-16
4.150000E+03	5.256588E-15	1.362086E-16
4.160000E+03	5.224059E-15	1.337164E-16
4.170000E+03	5.199619E-15	1.314635E-16
4.180000E+03	5.183882E-15	1.294579E-16
4.190000E+03	5.176903E-15	1.276934E-16
4.200000E+03	5.178779E-15	1.261652E-16
4.210000E+03	5.189230E-15	1.248590E-16
4.220000E+03	5.207934E-15	1.237603E-16
4.230000E+03	5.234109E-15	1.228444E-16
4.240000E+03	5.267168E-15	1.220923E-16
4.250000E+03	5.305900E-15	1.214713E-16
4.260000E+03	5.349122E-15	1.209511E-16
4.270000E+03	5.395286E-15	1.204949E-16
4.280000E+03	5.442979E-15	1.200704E-16
4.290000E+03	5.490236E-15	1.196352E-16
4.300000E+03	5.535312E-15	1.191536E-16
4.310000E+03	5.576273E-15	1.185880E-16
4.320000E+03	5.611393E-15	1.179067E-16
4.330000E+03	5.638762E-15	1.170762E-16
4.340000E+03	5.657194E-15	1.160794E-16
4.350000E+03	5.665496E-15	1.148999E-16
4.360000E+03	5.662878E-15	1.135305E-16
4.370000E+03	5.649258E-15	1.119780E-16
4.380000E+03	5.624896E-15	1.102558E-16
4.390000E+03	5.590511E-15	1.083856E-16
4.400000E+03	5.547577E-15	1.064024E-16
4.410000E+03	5.497813E-15	1.043442E-16
4.420000E+03	5.443932E-15	1.022662E-16
4.430000E+03	5.391716E-15	1.002780E-16
4.440000E+03	5.347356E-15	9.849252E-17
4.450000E+03	5.316783E-15	9.701361E-17
4.460000E+03	5.305198E-15	9.592829E-17
4.470000E+03	5.317083E-15	9.530801E-17
4.480000E+03	5.356109E-15	9.520794E-17
4.490000E+03	5.425073E-15	9.566608E-17
4.500000E+03	5.525839E-15	9.670266E-17
4.510000E+03	5.659267E-15	9.832066E-17
4.520000E+03	5.825126E-15	1.005050E-16
4.530000E+03	6.021909E-15	1.032200E-16
4.540000E+03	6.246861E-15	1.064104E-16
4.550000E+03	6.495898E-15	1.100004E-16
4.560000E+03	6.763313E-15	1.138893E-16
4.570000E+03	7.042152E-15	1.179579E-16
4.580000E+03	7.324135E-15	1.220675E-16
4.590000E+03	7.599976E-15	1.260652E-16
4.600000E+03	7.860227E-15	1.297981E-16
4.610000E+03	8.095232E-15	1.331120E-16
4.620000E+03	8.296660E-15	1.358761E-16
4.630000E+03	8.457173E-15	1.379770E-16
4.640000E+03	8.571772E-15	1.393403E-16
4.650000E+03	8.637965E-15	1.399322E-16
4.660000E+03	8.655498E-15	1.397547E-16
4.670000E+03	8.626881E-15	1.388536E-16
4.680000E+03	8.556658E-15	1.373061E-16
4.690000E+03	8.450953E-15	1.352133E-16
4.700000E+03	8.317214E-15	1.326962E-16
4.710000E+03	8.163442E-15	1.298831E-16
4.720000E+03	7.997565E-15	1.268995E-16
4.730000E+03	7.827126E-15	1.238641E-16
4.740000E+03	7.659218E-15	1.208868E-16
4.750000E+03	7.499743E-15	1.180584E-16
4.760000E+03	7.353772E-15	1.154554E-16
4.770000E+03	7.225254E-15	1.131364E-16
4.780000E+03	7.117154E-15	1.111441E-16
4.790000E+03	7.031594E-15	1.095075E-16
4.800000E+03	6.969627E-15	1.082390E-16
4.810000E+03	6.931478E-15	1.073378E-16
4.820000E+03	6.916851E-15	1.067949E-16
4.830000E+03	6.924826E-15	1.065919E-16
4.840000E+03	6.953739E-15	1.066989E-16
4.850000E+03	7.001504E-15	1.070796E-16
4.860000E+03	7.065455E-15	1.076895E-16
4.870000E+03	7.142251E-15	1.084739E-16
4.880000E+03	7.228010E-15	1.093706E-16
4.890000E+03	7.318232E-15	1.103088E-16
4.900000E+03	7.407851E-15	1.112104E-16
4.910000E+03	7.491275E-15	1.119905E-16
4.920000E+03	7.562905E-15	1.125657E-16
4.930000E+03	7.616871E-15	1.128501E-16
4.940000E+03	7.648040E-15	1.127707E-16
4.950000E+03	7.651758E-15	1.122632E-16
4.960000E+03	7.624897E-15	1.112877E-16
4.970000E+03	7.565580E-15	1.098237E-16
4.980000E+03	7.473708E-15	1.078777E-16
4.990000E+03	7.350990E-15	1.054829E-16
5.000000E+03	7.200653E-15	1.026939E-16
5.010000E+03	7.027259E-15	9.958386E-17
5.020000E+03	6.836263E-15	9.623742E-17
5.030000E+03	6.633892E-15	9.274823E-17
5.040000E+03	6.426229E-15	8.920590E-17
5.050000E+03	6.219440E-15	8.569889E-17
5.060000E+03	6.019072E-15	8.230479E-17
5.070000E+03	5.829972E-15	7.908926E-17
5.080000E+03	5.656385E-15	7.610765E-17
5.090000E+03	5.501755E-15	7.340251E-17
5.100000E+03	5.368840E-15	7.100551E-17
5.110000E+03	5.259796E-15	6.893878E-17
5.120000E+03	5.176207E-15	6.721571E-17
5.130000E+03	5.119459E-15	6.584599E-17
5.140000E+03	5.090271E-15	6.482980E-17
5.150000E+03	5.089344E-15	6.416638E-17
5.160000E+03	5.116957E-15	6.384907E-17
5.170000E+03	5.173229E-15	6.386877E-17
5.180000E+03	5.257868E-15	6.421111E-17
5.190000E+03	5.370316E-15	6.485848E-17
5.200000E+03	5.509458E-15	6.578679E-17
5.210000E+03	5.673730E-15	6.696724E-17
5.220000E+03	5.860871E-15	6.836378E-17
5.230000E+03	6.067835E-15	6.993268E-17
5.240000E+03	6.290937E-15	7.162486E-17
5.250000E+03	6.525707E-15	7.338469E-17
5.260000E+03	6.766981E-15	7.515174E-17
5.270000E+03	7.009297E-15	7.686557E-17
5.280000E+03	7.246996E-15	7.846708E-17
5.290000E+03	7.474650E-15	7.990324E-17
5.300000E+03	7.687416E-15	8.113056E-17
5.310000E+03	7.881630E-15	8.212084E-17
5.320000E+03	8.055215E-15	8.286446E-17
5.330000E+03	8.207749E-15	8.336988E-17
5.340000E+03	8.340961E-15	8.366744E-17
5.350000E+03	8.458403E-15	8.380477E-17
5.360000E+03	8.565627E-15	8.384727E-17
5.370000E+03	8.669557E-15	8.387105E-17
5.380000E+03	8.778273E-15	8.396033E-17
5.390000E+03	8.900888E-15	8.420586E-17
5.400000E+03	9.046653E-15	8.469659E-17
5.410000E+03	9.224919E-15	8.551980E-17
5.420000E+03	9.445225E-15	8.676255E-17
5.430000E+03	9.716584E-15	8.850590E-17
5.440000E+03	1.004822E-14	9.083254E-17
5.450000E+03	1.044840E-14	9.381738E-17
5.460000E+03	1.091234E-14	9.742037E-17
5.470000E+03	1.142328E-14	1.015003E-16
5.480000E+03	1.196157E-14	1.058963E-16
5.490000E+03	1.250486E-14	1.104267E-16
5.500000E+03	1.302950E-14	1.148945E-16
5.510000E+03	1.351202E-14	1.191021E-16
5.520000E+03	1.393055E-14	1.228630E-16
5.530000E+03	1.426615E-14	1.260119E-16
5.540000E+03	1.450516E-14	1.284242E-16
5.550000E+03	1.463856E-14	1.300105E-16
5.560000E+03	1.466286E-14	1.307250E-16
5.570000E+03	1.458022E-14	1.305674E-16
5.580000E+03	1.439681E-14	1.295703E-16
5.590000E+03	1.412319E-14	1.278046E-16
5.600000E+03	1.377197E-14	1.253597E-16
5.610000E+03	1.335790E-14	1.223466E-16
5.620000E+03	1.289651E-14	1.188865E-16
5.630000E+03	1.240348E-14	1.151057E-16
5.640000E+03	1.189403E-14	1.111312E-16
5.650000E+03	1.138240E-14	1.070858E-16
5.660000E+03	1.088164E-14	1.030853E-16
5.670000E+03	1.040292E-14	9.923265E-17
5.680000E+03	9.955993E-15	9.562125E-17
5.690000E+03	9.548255E-15	9.232519E-17
5.700000E+03	9.185928E-15	8.940980E-17
5.710000E+03	8.873149E-15	8.692216E-17
5.720000E+03	8.612549E-15	8.489585E-17
5.730000E+03	8.405671E-15	8.335437E-17
5.740000E+03	8.252533E-15	8.230622E-17
5.750000E+03	8.152447E-15	8.175253E-17
5.760000E+03	8.103526E-15	8.168166E-17
5.770000E+03	8.103073E-15	8.207277E-17
5.780000E+03	8.147495E-15	8.289468E-17
5.790000E+03	8.232293E-15	8.410558E-17
5.800000E+03	8.352113E-15	8.565333E-17
5.810000E+03	8.500496E-15	8.747290E-17
5.820000E+03	8.670147E-15	8.948914E-17
5.830000E+03	8.852967E-15	9.161710E-17
5.840000E+03	9.040220E-15	9.376409E-17
5.850000E+03	9.222802E-15	9.583262E-17
5.860000E+03	9.391580E-15	9.772432E-17
5.870000E+03	9.537796E-15	9.934458E-17
5.880000E+03	9.653491E-15	1.006073E-16
5.890000E+03	9.731844E-15	1.014390E-16
5.900000E+03	9.767832E-15	1.017858E-16
5.910000E+03	9.758236E-15	1.016141E-16
5.920000E+03	9.701699E-15	1.009108E-16
5.930000E+03	9.599349E-15	9.969029E-17
5.940000E+03	9.453960E-15	9.798520E-17
5.950000E+03	9.269980E-15	9.584654E-17
5.960000E+03	9.053328E-15	9.334121E-17
5.970000E+03	8.810547E-15	9.054279E-17
5.980000E+03	8.548701E-15	8.753011E-17
5.990000E+03	8.274477E-15	8.437766E-17
6.000000E+03	7.994345E-15	8.115698E-17
6.010000E+03	7.713921E-15	7.792999E-17
6.020000E+03	7.437892E-15	7.474821E-17
6.030000E+03	7.169803E-15	7.165064E-17
6.040000E+03	6.912532E-15	6.866866E-17
6.050000E+03	6.667775E-15	6.582104E-17
6.060000E+03	6.436764E-15	6.312128E-17
6.070000E+03	6.219861E-15	6.057379E-17
6.080000E+03	6.017274E-15	5.818108E-17
6.090000E+03	5.828704E-15	5.594047E-17
6.100000E+03	5.653940E-15	5.384993E-17
6.110000E+03	5.492794E-15	5.190751E-17
6.120000E+03	5.345136E-15	5.011164E-17
6.130000E+03	5.211015E-15	4.846233E-17
6.140000E+03	5.090681E-15	4.696133E-17
6.150000E+03	4.984633E-15	4.561249E-17
6.160000E+03	4.893518E-15	4.442087E-17
6.170000E+03	4.818083E-15	4.339230E-17
6.180000E+03	4.759054E-15	4.253232E-17
6.190000E+03	4.717172E-15	4.184666E-17
6.200000E+03	4.692975E-15	4.133933E-17
6.210000E+03	4.686950E-15	4.101421E-17
6.220000E+03	4.699227E-15	4.087251E-17
6.230000E+03	4.729821E-15	4.091506E-17
6.240000E+03	4.778463E-15	4.114102E-17
6.250000E+03	4.844704E-15	4.154892E-17
6.260000E+03	4.927823E-15	4.213597E-17
6.270000E+03	5.026981E-15	4.289948E-17
6.280000E+03	5.141008E-15	4.383506E-17
6.290000E+03	5.268494E-15	4.493735E-17
6.300000E+03	5.407878E-15	4.620070E-17
6.310000E+03	5.557199E-15	4.761692E-17
6.320000E+03	5.714317E-15	4.917685E-17
6.330000E+03	5.876675E-15	5.086797E-17
6.340000E+03	6.041469E-15	5.267314E-17
6.350000E+03	6.205959E-15	5.457258E-17
6.360000E+03	6.367199E-15	5.654314E-17
6.370000E+03	6.522701E-15	5.856398E-17
6.380000E+03	6.670636E-15	6.061840E-17
6.390000E+03	6.810217E-15	6.269748E-17
6.400000E+03	6.942052E-15	6.480399E-17
6.410000E+03	7.068343E-15	6.695524E-17
6.420000E+03	7.193210E-15	6.918753E-17
6.430000E+03	7.322616E-15	7.155713E-17
6.440000E+03	7.464264E-15	7.414110E-17
6.450000E+03	7.627403E-15	7.703723E-17
6.460000E+03	7.822574E-15	8.036326E-17
6.470000E+03	8.053954E-15	8.417843E-17
6.480000E+03	8.314265E-15	8.842397E-17
6.490000E+03	8.594190E-15	9.301424E-17
6.500000E+03	8.883588E-15	9.784780E-17
6.510000E+03	9.171622E-15	1.028076E-16
6.520000E+03	9.447167E-15	1.077644E-16
6.530000E+03	9.699076E-15	1.125799E-16
6.540000E+03	9.917281E-15	1.171186E-16
6.550000E+03	1.009275E-14	1.212491E-16
6.560000E+03	1.021814E-14	1.248527E-16
6.570000E+03	1.028815E-14	1.278298E-16
6.580000E+03	1.030001E-14	1.301077E-16
6.590000E+03	1.025277E-14	1.316351E-16
6.600000E+03	1.014835E-14	1.323973E-16
6.610000E+03	9.990216E-15	1.324022E-16
6.620000E+03	9.783708E-15	1.316856E-16
6.630000E+03	9.535486E-15	1.303066E-16
6.640000E+03	9.253218E-15	1.283444E-16
6.650000E+03	8.945003E-15	1.258907E-16
6.660000E+03	8.618724E-15	1.230416E-16
6.670000E+03	8.282030E-15	1.198966E-16
6.680000E+03	7.942118E-15	1.165552E-16
6.690000E+03	7.604905E-15	1.131040E-16
6.700000E+03	7.275629E-15	1.096241E-16
6.710000E+03	6.958476E-15	1.061853E-16
6.720000E+03	6.656345E-15	1.028403E-16
6.730000E+03	6.371637E-15	9.963655E-17
6.740000E+03	6.105484E-15	9.660321E-17
6.750000E+03	5.858502E-15	9.376177E-17
6.760000E+03	5.630884E-15	9.112723E-17
6.770000E+03	5.422093E-15	8.870260E-17
6.780000E+03	5.231503E-15	8.648880E-17
6.790000E+03	5.058206E-15	8.448139E-17
6.800000E+03	4.901170E-15	8.267296E-17
6.810000E+03	4.759304E-15	8.105417E-17
6.820000E+03	4.631569E-15	7.961562E-17
6.830000E+03	4.516754E-15	7.834401E-17
6.840000E+03	4.413937E-15	7.723011E-17
6.850000E+03	4.322052E-15	7.626142E-17
6.860000E+03	4.240141E-15	7.542644E-17
6.870000E+03	4.167286E-15	7.471367E-17
6.880000E+03	4.102601E-15	7.411150E-17
6.890000E+03	4.045286E-15	7.360920E-17
6.900000E+03	3.994452E-15	7.319384E-17
6.910000E+03	3.949287E-15	7.285332E-17
6.920000E+03	3.909057E-15	7.257644E-17
6.930000E+03	3.872892E-15	7.234903E-17
6.940000E+03	3.840181E-15	7.216125E-17
6.950000E+03	3.810196E-15	7.200072E-17
6.960000E+03	3.782327E-15	7.185693E-17
6.970000E+03	3.756044E-15	7.172058E-17
6.980000E+03	3.730904E-15	7.158384E-17
6.990000E+03	3.706617E-15	7.144162E-17
7.000000E+03	3.682840E-15	7.128767E-17
7.010000E+03	3.659496E-15	7.112081E-17
7.020000E+03	3.636608E-15	7.094179E-17
7.030000E+03	3.614140E-15	7.075017E-17
7.040000E+03	3.592239E-15	7.054915E-17
7.050000E+03	3.571225E-15	7.034533E-17
7.060000E+03	3.551259E-15	7.014224E-17
7.070000E+03	3.532690E-15	6.994714E-17
7.080000E+03	3.515831E-15	6.976661E-17
7.090000E+03	3.500946E-15	6.960629E-17
7.100000E+03	3.488336E-15	6.947253E-17
7.110000E+03	3.478331E-15	6.937227E-17
7.120000E+03	3.471131E-15	6.930973E-17
7.130000E+03	3.466947E-15	6.928941E-17
7.140000E+03	3.465948E-15	6.931484E-17
7.150000E+03	3.468313E-15	6.938968E-17
7.160000E+03	3.474029E-15	6.951361E-17
7.170000E+03	3.483186E-15	6.968837E-17
7.180000E+03	3.495745E-15	6.991290E-17
7.190000E+03	3.511787E-15	7.018854E-17
7.200000E+03	3.531110E-15	7.051082E-17
7.210000E+03	3.553762E-15	7.088016E-17
7.220000E+03	3.579616E-15	7.129341E-17
7.230000E+03	3.608653E-15	7.174950E-17
7.240000E+03	3.640689E-15	7.224397E-17
7.250000E+03	3.675704E-15	7.277551E-17
7.260000E+03	3.713565E-15	7.334056E-17
7.270000E+03	3.754245E-15	7.393758E-17
7.280000E+03	3.797595E-15	7.456249E-17
7.290000E+03	3.843558E-15	7.521301E-17
7.300000E+03	3.891867E-15	7.588275E-17
7.310000E+03	3.942388E-15	7.656783E-17
7.320000E+03	3.994875E-15	7.726219E-17
7.330000E+03	4.048950E-15	7.795733E-17
7.340000E+03	4.104226E-15	7.864460E-17
7.350000E+03	4.160300E-15	7.931514E-17
7.360000E+03	4.216498E-15	7.995515E-17
7.370000E+03	4.272264E-15	8.055327E-17
7.380000E+03	4.326848E-15	8.109485E-17
7.390000E+03	4.379589E-15	8.156716E-17
7.400000E+03	4.429601E-15	8.195380E-17
7.410000E+03	4.476218E-15	8.224289E-17
7.420000E+03	4.518689E-15	8.242144E-17
7.430000E+03	4.556423E-15	8.247992E-17
7.440000E+03	4.588963E-15	8.241168E-17
7.450000E+03	4.616090E-15	8.221477E-17
7.460000E+03	4.637557E-15	8.188705E-17
7.470000E+03	4.653683E-15	8.143656E-17
7.480000E+03	4.664609E-15	8.086833E-17
7.490000E+03	4.670873E-15	8.019423E-17
7.500000E+03	4.673076E-15	7.942704E-17
7.510000E+03	4.671991E-15	7.858215E-17
7.520000E+03	4.668298E-15	7.767297E-17
7.530000E+03	4.662838E-15	7.671519E-17
7.540000E+03	4.656352E-15	7.572233E-17
7.550000E+03	4.649533E-15	7.470664E-17
7.560000E+03	4.643001E-15	7.367875E-17
7.570000E+03	4.637299E-15	7.264758E-17
7.580000E+03	4.632952E-15	7.162139E-17
7.590000E+03	4.630247E-15	7.060440E-17
7.600000E+03	4.629523E-15	6.960137E-17
7.610000E+03	4.630873E-15	6.861316E-17
7.620000E+03	4.634432E-15	6.764118E-17
7.630000E+03	4.640149E-15	6.668407E-17
7.640000E+03	4.647848E-15	6.573883E-17
7.650000E+03	4.657225E-15	6.480086E-17
7.660000E+03	4.667844E-15	6.386410E-17
7.670000E+03	4.679135E-15	6.292125E-17
7.680000E+03	4.690410E-15	6.196407E-17
7.690000E+03	4.700960E-15	6.098485E-17
7.700000E+03	4.709773E-15	5.997288E-17
7.710000E+03	4.716121E-15	5.892212E-17
7.720000E+03	4.719047E-15	5.782466E-17
7.730000E+03	4.717723E-15	5.667528E-17
7.740000E+03	4.711408E-15	5.547078E-17
7.750000E+03	4.699488E-15	5.421036E-17
7.760000E+03	4.681492E-15	5.289563E-17
