#wls	flux	fluxerr
1.600000E+03	3.070098E-16	2.831070E-18
1.640000E+03	2.964922E-16	2.729973E-18
1.680000E+03	2.867725E-16	2.636401E-18
1.720000E+03	2.779932E-16	2.551637E-18
1.760000E+03	2.700133E-16	2.474355E-18
1.800000E+03	2.629091E-16	2.405224E-18
1.840000E+03	2.565473E-16	2.342991E-18
1.880000E+03	2.510487E-16	2.288731E-18
1.920000E+03	2.462836E-16	2.241224E-18
1.960000E+03	2.422724E-16	2.200624E-18
2.000000E+03	2.389872E-16	2.166643E-18
2.040000E+03	2.364015E-16	2.139006E-18
2.080000E+03	2.345355E-16	2.117858E-18
2.120000E+03	2.333640E-16	2.102935E-18
2.160000E+03	2.328638E-16	2.093989E-18
2.200000E+03	2.330134E-16	2.090787E-18
2.240000E+03	2.338357E-16	2.093494E-18
2.280000E+03	2.352681E-16	2.101508E-18
2.320000E+03	2.373352E-16	2.115008E-18
2.360000E+03	2.400632E-16	2.134180E-18
2.400000E+03	2.433920E-16	2.158446E-18
2.440000E+03	2.473061E-16	2.187620E-18
2.480000E+03	2.518775E-16	2.222291E-18
2.520000E+03	2.570489E-16	2.261902E-18
2.560000E+03	2.628514E-16	2.306672E-18
2.600000E+03	2.693177E-16	2.356834E-18
2.640000E+03	2.763927E-16	2.411844E-18
2.680000E+03	2.841571E-16	2.472347E-18
2.720000E+03	2.926040E-16	2.538215E-18
2.760000E+03	3.017736E-16	2.609728E-18
2.800000E+03	3.117095E-16	2.687186E-18
2.840000E+03	3.224581E-16	2.770908E-18
2.880000E+03	3.341171E-16	2.861643E-18
2.920000E+03	3.466920E-16	2.959340E-18
2.960000E+03	3.603868E-16	3.065631E-18
3.000000E+03	3.752650E-16	3.180931E-18
3.010000E+03	3.791481E-16	3.210967E-18
3.020000E+03	3.831469E-16	3.241910E-18
3.030000E+03	3.872621E-16	3.273761E-18
3.040000E+03	3.914440E-16	3.306098E-18
3.050000E+03	3.956928E-16	3.338921E-18
3.060000E+03	4.000592E-16	3.372656E-18
3.070000E+03	4.044932E-16	3.406877E-18
3.080000E+03	4.090457E-16	3.442010E-18
3.090000E+03	4.137176E-16	3.478061E-18
3.100000E+03	4.185091E-16	3.515028E-18
3.110000E+03	4.233698E-16	3.552483E-18
3.120000E+03	4.283511E-16	3.590856E-18
3.130000E+03	4.334538E-16	3.630151E-18
3.140000E+03	4.386784E-16	3.670368E-18
3.150000E+03	4.440255E-16	3.711508E-18
3.160000E+03	4.494957E-16	3.753573E-18
3.170000E+03	4.551415E-16	3.796997E-18
3.180000E+03	4.608597E-16	3.840915E-18
3.190000E+03	4.667551E-16	3.886196E-18
3.200000E+03	4.727760E-16	3.932408E-18
3.210000E+03	4.789231E-16	3.979551E-18
3.220000E+03	4.852497E-16	4.028063E-18
3.230000E+03	4.917566E-16	4.077947E-18
3.240000E+03	4.983920E-16	4.128767E-18
3.250000E+03	5.052092E-16	4.180962E-18
3.260000E+03	5.122094E-16	4.234535E-18
3.270000E+03	5.193399E-16	4.289046E-18
3.280000E+03	5.267083E-16	4.345379E-18
3.290000E+03	5.342086E-16	4.402652E-18
3.300000E+03	5.419487E-16	4.461751E-18
3.310000E+03	5.498760E-16	4.522236E-18
3.320000E+03	5.579913E-16	4.584106E-18
3.330000E+03	5.663496E-16	4.647808E-18
3.340000E+03	5.748977E-16	4.712899E-18
3.350000E+03	5.836909E-16	4.779824E-18
3.360000E+03	5.926755E-16	4.848139E-18
3.370000E+03	6.019619E-16	4.918738E-18
3.380000E+03	6.114417E-16	4.990728E-18
3.390000E+03	6.212256E-16	5.065006E-18
3.400000E+03	6.312047E-16	5.140674E-18
3.410000E+03	6.414903E-16	5.218632E-18
3.420000E+03	6.520279E-16	5.298430E-18
3.430000E+03	6.628744E-16	5.380518E-18
3.440000E+03	6.740306E-16	5.464895E-18
3.450000E+03	6.854423E-16	5.551112E-18
3.460000E+03	6.971660E-16	5.639618E-18
3.470000E+03	7.092027E-16	5.730411E-18
3.480000E+03	7.216096E-16	5.823943E-18
3.490000E+03	7.342755E-16	5.919307E-18
3.500000E+03	7.473137E-16	6.017404E-18
3.510000E+03	7.607250E-16	6.118231E-18
3.520000E+03	7.745106E-16	6.221785E-18
3.530000E+03	7.886148E-16	6.327607E-18
3.540000E+03	8.030945E-16	6.436143E-18
3.550000E+03	8.180073E-16	6.547842E-18
3.560000E+03	8.332970E-16	6.662240E-18
3.570000E+03	8.489639E-16	6.779327E-18
3.580000E+03	8.650651E-16	6.899546E-18
3.590000E+03	8.816010E-16	7.022888E-18
3.600000E+03	8.985718E-16	7.149338E-18
3.610000E+03	9.159775E-16	7.278883E-18
3.620000E+03	9.338183E-16	7.411510E-18
3.630000E+03	9.521521E-16	7.547664E-18
3.640000E+03	9.709219E-16	7.686876E-18
3.650000E+03	9.901866E-16	7.829598E-18
3.660000E+03	1.009948E-15	7.975829E-18
3.670000E+03	1.030209E-15	8.125574E-18
3.680000E+03	1.051032E-15	8.279305E-18
3.690000E+03	1.072364E-15	8.436590E-18
3.700000E+03	1.094271E-15	8.597929E-18
3.710000E+03	1.116702E-15	8.762906E-18
3.720000E+03	1.139785E-15	8.932505E-18
3.730000E+03	1.163476E-15	9.106351E-18
3.740000E+03	1.187788E-15	9.284537E-18
3.750000E+03	1.212793E-15	9.467601E-18
3.760000E+03	1.238450E-15	9.655195E-18
3.770000E+03	1.264891E-15	9.848333E-18
3.780000E+03	1.292010E-15	1.004615E-17
3.790000E+03	1.319936E-15	1.024964E-17
3.800000E+03	1.348611E-15	1.045833E-17
3.810000E+03	1.378034E-15	1.067217E-17
3.820000E+03	1.408251E-15	1.089149E-17
3.830000E+03	1.439238E-15	1.111609E-17
3.840000E+03	1.471014E-15	1.134608E-17
3.850000E+03	1.503409E-15	1.158013E-17
3.860000E+03	1.536408E-15	1.181811E-17
3.870000E+03	1.569984E-15	1.205977E-17
3.880000E+03	1.604026E-15	1.230426E-17
3.890000E+03	1.638347E-15	1.255011E-17
3.900000E+03	1.672861E-15	1.279667E-17
3.910000E+03	1.707467E-15	1.304314E-17
3.920000E+03	1.741867E-15	1.328726E-17
3.930000E+03	1.775937E-15	1.352808E-17
3.940000E+03	1.809484E-15	1.376415E-17
3.950000E+03	1.842380E-15	1.399450E-17
3.960000E+03	1.874317E-15	1.421682E-17
3.970000E+03	1.905299E-15	1.443117E-17
3.980000E+03	1.934987E-15	1.463501E-17
3.990000E+03	1.963363E-15	1.482826E-17
4.000000E+03	1.990313E-15	1.501008E-17
4.010000E+03	2.015697E-15	1.517948E-17
4.020000E+03	2.039465E-15	1.533611E-17
4.030000E+03	2.061601E-15	1.547994E-17
4.040000E+03	2.082179E-15	1.561155E-17
4.050000E+03	2.101190E-15	1.573092E-17
4.060000E+03	2.118714E-15	1.583872E-17
4.070000E+03	2.134801E-15	1.593536E-17
4.080000E+03	2.149688E-15	1.602266E-17
4.090000E+03	2.163411E-15	1.610092E-17
4.100000E+03	2.176124E-15	1.617133E-17
4.110000E+03	2.188045E-15	1.623555E-17
4.120000E+03	2.199234E-15	1.629402E-17
4.130000E+03	2.209900E-15	1.634835E-17
4.140000E+03	2.220148E-15	1.639931E-17
4.150000E+03	2.230069E-15	1.644759E-17
4.160000E+03	2.239886E-15	1.649485E-17
4.170000E+03	2.249563E-15	1.654083E-17
4.180000E+03	2.259193E-15	1.658620E-17
4.190000E+03	2.268896E-15	1.663186E-17
4.200000E+03	2.278584E-15	1.667717E-17
4.210000E+03	2.288388E-15	1.672307E-17
4.220000E+03	2.298191E-15	1.676871E-17
4.230000E+03	2.308048E-15	1.681450E-17
4.240000E+03	2.317868E-15	1.685977E-17
4.250000E+03	2.327645E-15	1.690448E-17
4.260000E+03	2.337285E-15	1.694795E-17
4.270000E+03	2.346781E-15	1.699014E-17
4.280000E+03	2.356091E-15	1.703075E-17
4.290000E+03	2.365146E-15	1.706928E-17
4.300000E+03	2.373930E-15	1.710564E-17
4.310000E+03	2.382448E-15	1.713987E-17
4.320000E+03	2.390722E-15	1.717213E-17
4.330000E+03	2.398716E-15	1.720219E-17
4.340000E+03	2.406573E-15	1.723107E-17
4.350000E+03	2.414260E-15	1.725855E-17
4.360000E+03	2.421947E-15	1.728585E-17
4.370000E+03	2.429587E-15	1.731263E-17
4.380000E+03	2.437361E-15	1.734018E-17
4.390000E+03	2.445328E-15	1.736892E-17
4.400000E+03	2.453531E-15	1.739916E-17
4.410000E+03	2.461986E-15	1.743100E-17
4.420000E+03	2.470770E-15	1.746496E-17
4.430000E+03	2.480232E-15	1.750353E-17
4.440000E+03	2.490771E-15	1.754946E-17
4.450000E+03	2.502721E-15	1.760510E-17
4.460000E+03	2.516307E-15	1.767196E-17
4.470000E+03	2.531776E-15	1.775173E-17
4.480000E+03	2.549187E-15	1.784476E-17
4.490000E+03	2.568580E-15	1.795125E-17
4.500000E+03	2.589935E-15	1.807102E-17
4.510000E+03	2.613078E-15	1.820277E-17
4.520000E+03	2.637846E-15	1.834531E-17
4.530000E+03	2.663925E-15	1.849642E-17
4.540000E+03	2.690927E-15	1.865334E-17
4.550000E+03	2.718429E-15	1.881314E-17
4.560000E+03	2.745996E-15	1.897278E-17
4.570000E+03	2.773083E-15	1.912850E-17
4.580000E+03	2.799195E-15	1.927693E-17
4.590000E+03	2.823770E-15	1.941421E-17
4.600000E+03	2.846296E-15	1.953691E-17
4.610000E+03	2.866381E-15	1.964239E-17
4.620000E+03	2.883542E-15	1.972744E-17
4.630000E+03	2.897486E-15	1.979016E-17
4.640000E+03	2.908006E-15	1.982924E-17
4.650000E+03	2.914925E-15	1.984361E-17
4.660000E+03	2.918206E-15	1.983313E-17
4.670000E+03	2.917987E-15	1.979885E-17
4.680000E+03	2.914357E-15	1.974151E-17
4.690000E+03	2.907604E-15	1.966316E-17
4.700000E+03	2.898054E-15	1.956612E-17
4.710000E+03	2.886090E-15	1.945306E-17
4.720000E+03	2.872101E-15	1.932668E-17
4.730000E+03	2.856605E-15	1.919052E-17
4.740000E+03	2.839982E-15	1.904719E-17
4.750000E+03	2.822639E-15	1.889946E-17
4.760000E+03	2.805026E-15	1.875035E-17
4.770000E+03	2.787452E-15	1.860193E-17
4.780000E+03	2.770253E-15	1.845644E-17
4.790000E+03	2.753704E-15	1.831571E-17
4.800000E+03	2.738001E-15	1.818100E-17
4.810000E+03	2.723276E-15	1.805318E-17
4.820000E+03	2.709672E-15	1.793316E-17
4.830000E+03	2.697150E-15	1.782063E-17
4.840000E+03	2.685747E-15	1.771581E-17
4.850000E+03	2.675363E-15	1.761801E-17
4.860000E+03	2.665887E-15	1.752646E-17
4.870000E+03	2.657211E-15	1.744043E-17
4.880000E+03	2.649106E-15	1.735838E-17
4.890000E+03	2.641420E-15	1.727932E-17
4.900000E+03	2.633960E-15	1.720197E-17
4.910000E+03	2.626475E-15	1.712468E-17
4.920000E+03	2.618839E-15	1.704663E-17
4.930000E+03	2.610851E-15	1.696653E-17
4.940000E+03	2.602368E-15	1.688346E-17
4.950000E+03	2.593245E-15	1.679651E-17
4.960000E+03	2.583404E-15	1.670518E-17
4.970000E+03	2.572838E-15	1.660946E-17
4.980000E+03	2.561498E-15	1.650905E-17
4.990000E+03	2.549492E-15	1.640469E-17
5.000000E+03	2.536863E-15	1.629665E-17
5.010000E+03	2.523749E-15	1.618586E-17
5.020000E+03	2.510355E-15	1.607364E-17
5.030000E+03	2.496864E-15	1.596117E-17
5.040000E+03	2.483540E-15	1.585014E-17
5.050000E+03	2.470607E-15	1.574198E-17
5.060000E+03	2.458336E-15	1.563838E-17
5.070000E+03	2.446996E-15	1.554106E-17
5.080000E+03	2.436856E-15	1.545167E-17
5.090000E+03	2.428208E-15	1.537205E-17
5.100000E+03	2.421246E-15	1.530336E-17
5.110000E+03	2.416257E-15	1.524737E-17
5.120000E+03	2.413399E-15	1.520502E-17
5.130000E+03	2.412915E-15	1.517777E-17
5.140000E+03	2.414941E-15	1.516642E-17
5.150000E+03	2.419615E-15	1.517175E-17
5.160000E+03	2.427046E-15	1.519437E-17
5.170000E+03	2.437316E-15	1.523472E-17
5.180000E+03	2.450505E-15	1.529321E-17
5.190000E+03	2.466586E-15	1.536960E-17
5.200000E+03	2.485611E-15	1.546414E-17
5.210000E+03	2.507525E-15	1.557640E-17
5.220000E+03	2.532274E-15	1.570598E-17
5.230000E+03	2.559809E-15	1.585248E-17
5.240000E+03	2.589974E-15	1.601489E-17
5.250000E+03	2.622702E-15	1.619273E-17
5.260000E+03	2.657827E-15	1.638490E-17
5.270000E+03	2.695221E-15	1.659057E-17
5.280000E+03	2.734660E-15	1.680830E-17
5.290000E+03	2.776025E-15	1.703733E-17
5.300000E+03	2.819102E-15	1.727630E-17
5.310000E+03	2.863739E-15	1.752424E-17
5.320000E+03	2.909694E-15	1.777966E-17
5.330000E+03	2.956851E-15	1.804183E-17
5.340000E+03	3.005019E-15	1.830956E-17
5.350000E+03	3.054044E-15	1.858191E-17
5.360000E+03	3.103828E-15	1.885827E-17
5.370000E+03	3.154194E-15	1.913758E-17
5.380000E+03	3.205116E-15	1.941968E-17
5.390000E+03	3.256468E-15	1.970380E-17
5.400000E+03	3.308273E-15	1.999010E-17
5.410000E+03	3.360490E-15	2.027834E-17
5.420000E+03	3.413103E-15	2.056843E-17
5.430000E+03	3.466231E-15	2.086111E-17
5.440000E+03	3.519892E-15	2.115648E-17
5.450000E+03	3.574201E-15	2.145524E-17
5.460000E+03	3.628667E-15	2.175446E-17
5.470000E+03	3.682332E-15	2.204843E-17
5.480000E+03	3.734292E-15	2.233177E-17
5.490000E+03	3.783574E-15	2.259874E-17
5.500000E+03	3.829274E-15	2.284400E-17
5.510000E+03	3.870484E-15	2.306225E-17
5.520000E+03	3.906415E-15	2.324889E-17
5.530000E+03	3.936401E-15	2.340008E-17
5.540000E+03	3.959863E-15	2.351252E-17
5.550000E+03	3.976402E-15	2.358398E-17
5.560000E+03	3.985701E-15	2.361273E-17
5.570000E+03	3.987743E-15	2.359882E-17
5.580000E+03	3.982535E-15	2.354242E-17
5.590000E+03	3.970432E-15	2.344576E-17
5.600000E+03	3.951885E-15	2.331165E-17
5.610000E+03	3.927438E-15	2.314339E-17
5.620000E+03	3.897928E-15	2.294601E-17
5.630000E+03	3.864232E-15	2.272476E-17
5.640000E+03	3.827271E-15	2.248511E-17
5.650000E+03	3.788051E-15	2.223301E-17
5.660000E+03	3.747629E-15	2.197467E-17
5.670000E+03	3.706962E-15	2.171573E-17
5.680000E+03	3.667031E-15	2.146191E-17
5.690000E+03	3.628625E-15	2.121780E-17
5.700000E+03	3.592572E-15	2.098820E-17
5.710000E+03	3.559502E-15	2.077674E-17
5.720000E+03	3.529877E-15	2.058606E-17
5.730000E+03	3.504044E-15	2.041813E-17
5.740000E+03	3.482200E-15	2.027401E-17
5.750000E+03	3.464386E-15	2.015390E-17
5.760000E+03	3.450493E-15	2.005710E-17
5.770000E+03	3.440302E-15	1.998227E-17
5.780000E+03	3.433355E-15	1.992670E-17
5.790000E+03	3.429173E-15	1.988757E-17
5.800000E+03	3.427137E-15	1.986126E-17
5.810000E+03	3.426542E-15	1.984365E-17
5.820000E+03	3.426589E-15	1.983011E-17
5.830000E+03	3.426507E-15	1.981617E-17
5.840000E+03	3.425488E-15	1.979716E-17
5.850000E+03	3.422675E-15	1.976816E-17
5.860000E+03	3.417399E-15	1.972530E-17
5.870000E+03	3.408971E-15	1.966464E-17
5.880000E+03	3.396834E-15	1.958302E-17
5.890000E+03	3.380560E-15	1.947799E-17
5.900000E+03	3.359856E-15	1.934791E-17
5.910000E+03	3.334542E-15	1.919177E-17
5.920000E+03	3.304617E-15	1.900961E-17
5.930000E+03	3.270253E-15	1.880246E-17
5.940000E+03	3.231691E-15	1.857171E-17
5.950000E+03	3.189281E-15	1.831943E-17
5.960000E+03	3.143532E-15	1.804853E-17
5.970000E+03	3.094963E-15	1.776202E-17
5.980000E+03	3.044168E-15	1.746330E-17
5.990000E+03	2.991768E-15	1.715595E-17
6.000000E+03	2.938384E-15	1.684352E-17
6.010000E+03	2.884595E-15	1.652930E-17
6.020000E+03	2.830946E-15	1.621643E-17
6.030000E+03	2.777991E-15	1.590804E-17
6.040000E+03	2.726201E-15	1.560682E-17
6.050000E+03	2.675935E-15	1.531479E-17
6.060000E+03	2.627561E-15	1.503405E-17
6.070000E+03	2.581310E-15	1.476590E-17
6.080000E+03	2.537425E-15	1.451168E-17
6.090000E+03	2.496034E-15	1.427213E-17
6.100000E+03	2.457240E-15	1.404780E-17
6.110000E+03	2.421070E-15	1.383883E-17
6.120000E+03	2.387508E-15	1.364512E-17
6.130000E+03	2.356528E-15	1.346649E-17
6.140000E+03	2.328068E-15	1.330258E-17
6.150000E+03	2.302048E-15	1.315292E-17
6.160000E+03	2.278345E-15	1.301680E-17
6.170000E+03	2.256871E-15	1.289370E-17
6.180000E+03	2.237509E-15	1.278295E-17
6.190000E+03	2.220165E-15	1.268400E-17
6.200000E+03	2.204726E-15	1.259621E-17
6.210000E+03	2.191067E-15	1.251886E-17
6.220000E+03	2.179140E-15	1.245168E-17
6.230000E+03	2.168845E-15	1.239408E-17
6.240000E+03	2.160121E-15	1.234574E-17
6.250000E+03	2.152992E-15	1.230677E-17
6.260000E+03	2.147387E-15	1.227679E-17
6.270000E+03	2.143321E-15	1.225588E-17
6.280000E+03	2.140820E-15	1.224419E-17
6.290000E+03	2.139947E-15	1.224210E-17
6.300000E+03	2.140689E-15	1.224952E-17
6.310000E+03	2.143098E-15	1.226677E-17
6.320000E+03	2.147253E-15	1.229429E-17
6.330000E+03	2.153159E-15	1.233212E-17
6.340000E+03	2.160877E-15	1.238062E-17
6.350000E+03	2.170366E-15	1.243956E-17
6.360000E+03	2.181647E-15	1.250908E-17
6.370000E+03	2.194676E-15	1.258892E-17
6.380000E+03	2.209400E-15	1.267881E-17
6.390000E+03	2.225688E-15	1.277799E-17
6.400000E+03	2.243421E-15	1.288580E-17
6.410000E+03	2.262446E-15	1.300137E-17
6.420000E+03	2.282529E-15	1.312337E-17
6.430000E+03	2.303429E-15	1.325043E-17
6.440000E+03	2.324928E-15	1.338128E-17
6.450000E+03	2.346714E-15	1.351416E-17
6.460000E+03	2.368512E-15	1.364747E-17
6.470000E+03	2.389847E-15	1.377848E-17
6.480000E+03	2.409973E-15	1.390288E-17
6.490000E+03	2.428158E-15	1.401644E-17
6.500000E+03	2.443616E-15	1.411459E-17
6.510000E+03	2.455724E-15	1.419370E-17
6.520000E+03	2.463796E-15	1.424977E-17
6.530000E+03	2.467295E-15	1.427963E-17
6.540000E+03	2.465758E-15	1.428055E-17
6.550000E+03	2.458802E-15	1.425026E-17
6.560000E+03	2.446222E-15	1.418747E-17
6.570000E+03	2.427887E-15	1.409135E-17
6.580000E+03	2.403852E-15	1.396215E-17
6.590000E+03	2.374271E-15	1.380069E-17
6.600000E+03	2.339427E-15	1.360850E-17
6.610000E+03	2.299679E-15	1.338761E-17
6.620000E+03	2.255562E-15	1.314107E-17
6.630000E+03	2.207605E-15	1.287187E-17
6.640000E+03	2.156421E-15	1.258353E-17
6.650000E+03	2.102652E-15	1.227974E-17
6.660000E+03	2.046979E-15	1.196443E-17
6.670000E+03	1.990028E-15	1.164123E-17
6.680000E+03	1.932448E-15	1.131390E-17
6.690000E+03	1.874829E-15	1.098587E-17
6.700000E+03	1.817689E-15	1.066018E-17
6.710000E+03	1.761534E-15	1.033979E-17
6.720000E+03	1.706788E-15	1.002718E-17
6.730000E+03	1.653790E-15	9.724374E-18
6.740000E+03	1.602876E-15	9.433360E-18
6.750000E+03	1.554244E-15	9.155324E-18
6.760000E+03	1.508091E-15	8.891461E-18
6.770000E+03	1.464562E-15	8.642655E-18
6.780000E+03	1.423702E-15	8.409204E-18
6.790000E+03	1.385567E-15	8.191482E-18
6.800000E+03	1.350161E-15	7.989543E-18
6.810000E+03	1.317458E-15	7.803275E-18
6.820000E+03	1.287407E-15	7.632422E-18
6.830000E+03	1.259941E-15	7.476613E-18
6.840000E+03	1.234972E-15	7.335376E-18
6.850000E+03	1.212420E-15	7.208265E-18
6.860000E+03	1.192152E-15	7.094532E-18
6.870000E+03	1.174072E-15	6.993634E-18
6.880000E+03	1.158079E-15	6.905011E-18
6.890000E+03	1.144032E-15	6.827850E-18
6.900000E+03	1.131842E-15	6.761653E-18
6.910000E+03	1.121367E-15	6.705606E-18
6.920000E+03	1.112525E-15	6.659234E-18
6.930000E+03	1.105192E-15	6.621829E-18
6.940000E+03	1.099263E-15	6.592782E-18
6.950000E+03	1.094623E-15	6.571433E-18
6.960000E+03	1.091205E-15	6.557391E-18
6.970000E+03	1.088914E-15	6.550121E-18
6.980000E+03	1.087642E-15	6.548975E-18
6.990000E+03	1.087323E-15	6.553580E-18
7.000000E+03	1.087881E-15	6.563497E-18
7.010000E+03	1.089265E-15	6.578433E-18
7.020000E+03	1.091387E-15	6.597864E-18
7.030000E+03	1.094220E-15	6.621642E-18
7.040000E+03	1.097701E-15	6.649400E-18
7.050000E+03	1.101776E-15	6.680820E-18
7.060000E+03	1.106432E-15	6.715836E-18
7.070000E+03	1.111627E-15	6.754196E-18
7.080000E+03	1.117329E-15	6.795727E-18
7.090000E+03	1.123515E-15	6.840292E-18
7.100000E+03	1.130165E-15	6.887776E-18
7.110000E+03	1.137260E-15	6.938073E-18
7.120000E+03	1.144795E-15	6.991165E-18
7.130000E+03	1.152727E-15	7.046788E-18
7.140000E+03	1.161054E-15	7.104949E-18
7.150000E+03	1.169775E-15	7.165638E-18
7.160000E+03	1.178858E-15	7.228675E-18
7.170000E+03	1.188287E-15	7.293960E-18
7.180000E+03	1.198041E-15	7.361378E-18
7.190000E+03	1.208098E-15	7.430799E-18
7.200000E+03	1.218451E-15	7.502187E-18
7.210000E+03	1.229045E-15	7.575203E-18
7.220000E+03	1.239883E-15	7.649876E-18
7.230000E+03	1.250921E-15	7.725933E-18
7.240000E+03	1.262143E-15	7.803289E-18
7.250000E+03	1.273503E-15	7.881658E-18
7.260000E+03	1.284967E-15	7.960830E-18
7.270000E+03	1.296519E-15	8.040706E-18
7.280000E+03	1.308106E-15	8.120973E-18
7.290000E+03	1.319699E-15	8.201434E-18
7.300000E+03	1.331277E-15	8.281978E-18
7.310000E+03	1.342813E-15	8.362418E-18
7.320000E+03	1.354255E-15	8.442444E-18
7.330000E+03	1.365592E-15	8.521979E-18
7.340000E+03	1.376776E-15	8.600729E-18
7.350000E+03	1.387801E-15	8.678643E-18
7.360000E+03	1.398640E-15	8.755559E-18
7.370000E+03	1.409249E-15	8.831202E-18
7.380000E+03	1.419626E-15	8.905543E-18
7.390000E+03	1.429750E-15	8.978451E-18
7.400000E+03	1.439581E-15	9.049682E-18
7.410000E+03	1.449124E-15	9.119242E-18
7.420000E+03	1.458380E-15	9.187152E-18
7.430000E+03	1.467319E-15	9.253209E-18
7.440000E+03	1.475929E-15	9.317335E-18
7.450000E+03	1.484225E-15	9.379616E-18
7.460000E+03	1.492182E-15	9.439892E-18
7.470000E+03	1.499781E-15	9.498038E-18
7.480000E+03	1.507067E-15	9.554326E-18
7.490000E+03	1.513987E-15	9.608426E-18
7.500000E+03	1.520596E-15	9.660666E-18
7.510000E+03	1.526888E-15	9.711023E-18
7.520000E+03	1.532906E-15	9.759747E-18
7.530000E+03	1.538631E-15	9.806725E-18
7.540000E+03	1.544131E-15	9.852380E-18
7.550000E+03	1.549412E-15	9.896746E-18
7.560000E+03	1.554477E-15	9.939849E-18
7.570000E+03	1.559397E-15	9.982126E-18
7.580000E+03	1.564147E-15	1.002343E-17
7.590000E+03	1.568766E-15	1.006400E-17
7.600000E+03	1.573266E-15	1.010391E-17
7.610000E+03	1.577645E-15	1.014315E-17
7.620000E+03	1.581875E-15	1.018155E-17
7.630000E+03	1.585937E-15	1.021897E-17
7.640000E+03	1.589843E-15	1.025548E-17
7.650000E+03	1.593483E-15	1.029039E-17
7.660000E+03	1.596843E-15	1.032360E-17
7.670000E+03	1.599853E-15	1.035464E-17
7.680000E+03	1.602408E-15	1.038283E-17
7.690000E+03	1.604415E-15	1.040756E-17
7.700000E+03	1.605792E-15	1.042828E-17
7.710000E+03	1.606406E-15	1.044413E-17
7.720000E+03	1.606141E-15	1.045433E-17
7.730000E+03	1.604904E-15	1.045825E-17
7.740000E+03	1.602559E-15	1.045499E-17
7.750000E+03	1.599019E-15	1.044395E-17
7.760000E+03	1.594164E-15	1.042433E-17
