#wls	flux	fluxerr
1.600000E+03	2.680433E-16	3.413298E-18
1.640000E+03	2.607629E-16	3.314254E-18
1.680000E+03	2.540535E-16	3.222647E-18
1.720000E+03	2.479504E-16	3.138891E-18
1.760000E+03	2.423905E-16	3.062153E-18
1.800000E+03	2.374518E-16	2.993378E-18
1.840000E+03	2.330701E-16	2.931718E-18
1.880000E+03	2.292735E-16	2.877484E-18
1.920000E+03	2.260008E-16	2.829865E-18
1.960000E+03	2.233220E-16	2.789695E-18
2.000000E+03	2.211351E-16	2.755649E-18
2.040000E+03	2.195088E-16	2.728543E-18
2.080000E+03	2.183861E-16	2.707615E-18
2.120000E+03	2.177934E-16	2.693144E-18
2.160000E+03	2.177569E-16	2.685399E-18
2.200000E+03	2.181822E-16	2.683160E-18
2.240000E+03	2.191372E-16	2.687209E-18
2.280000E+03	2.206096E-16	2.697333E-18
2.320000E+03	2.225881E-16	2.713333E-18
2.360000E+03	2.250619E-16	2.735013E-18
2.400000E+03	2.281006E-16	2.763150E-18
2.440000E+03	2.316150E-16	2.796591E-18
2.480000E+03	2.356764E-16	2.836126E-18
2.520000E+03	2.403172E-16	2.882063E-18
2.560000E+03	2.454903E-16	2.933750E-18
2.600000E+03	2.512297E-16	2.991509E-18
2.640000E+03	2.575710E-16	3.055667E-18
2.680000E+03	2.645511E-16	3.126562E-18
2.720000E+03	2.721675E-16	3.204051E-18
2.760000E+03	2.805017E-16	3.288979E-18
2.800000E+03	2.895540E-16	3.381220E-18
2.840000E+03	2.994535E-16	3.482139E-18
2.880000E+03	3.102046E-16	3.591632E-18
2.920000E+03	3.218991E-16	3.710591E-18
2.960000E+03	3.346767E-16	3.840435E-18
3.000000E+03	3.485482E-16	3.981076E-18
3.010000E+03	3.522050E-16	4.018103E-18
3.020000E+03	3.559647E-16	4.056180E-18
3.030000E+03	3.597828E-16	4.094796E-18
3.040000E+03	3.637043E-16	4.134460E-18
3.050000E+03	3.677295E-16	4.175170E-18
3.060000E+03	3.718140E-16	4.216416E-18
3.070000E+03	3.760028E-16	4.258705E-18
3.080000E+03	3.802510E-16	4.301526E-18
3.090000E+03	3.846497E-16	4.345902E-18
3.100000E+03	3.891083E-16	4.390806E-18
3.110000E+03	3.937184E-16	4.437264E-18
3.120000E+03	3.983891E-16	4.484247E-18
3.130000E+03	4.032119E-16	4.532781E-18
3.140000E+03	4.080960E-16	4.581838E-18
3.150000E+03	4.131332E-16	4.632443E-18
3.160000E+03	4.182783E-16	4.684083E-18
3.170000E+03	4.235314E-16	4.736754E-18
3.180000E+03	4.288930E-16	4.790454E-18
3.190000E+03	4.344098E-16	4.845700E-18
3.200000E+03	4.400826E-16	4.902491E-18
3.210000E+03	4.458651E-16	4.960306E-18
3.220000E+03	4.518045E-16	5.019662E-18
3.230000E+03	4.578546E-16	5.080039E-18
3.240000E+03	4.640627E-16	5.141953E-18
3.250000E+03	4.704292E-16	5.205402E-18
3.260000E+03	4.769548E-16	5.270384E-18
3.270000E+03	4.836400E-16	5.336896E-18
3.280000E+03	4.904853E-16	5.404937E-18
3.290000E+03	4.974915E-16	5.474503E-18
3.300000E+03	5.047062E-16	5.546113E-18
3.310000E+03	5.120354E-16	5.618720E-18
3.320000E+03	5.196222E-16	5.693888E-18
3.330000E+03	5.273241E-16	5.770044E-18
3.340000E+03	5.352852E-16	5.848754E-18
3.350000E+03	5.434105E-16	5.928969E-18
3.360000E+03	5.517482E-16	6.011205E-18
3.370000E+03	5.602994E-16	6.095460E-18
3.380000E+03	5.690643E-16	6.181727E-18
3.390000E+03	5.780438E-16	6.270001E-18
3.400000E+03	5.872867E-16	6.360801E-18
3.410000E+03	5.967455E-16	6.453597E-18
3.420000E+03	6.064204E-16	6.548380E-18
3.430000E+03	6.163608E-16	6.645670E-18
3.440000E+03	6.265186E-16	6.744933E-18
3.450000E+03	6.369917E-16	6.847209E-18
3.460000E+03	6.476834E-16	6.951443E-18
3.470000E+03	6.586916E-16	7.058673E-18
3.480000E+03	6.699681E-16	7.168361E-18
3.490000E+03	6.815133E-16	7.280500E-18
3.500000E+03	6.933769E-16	7.395603E-18
3.510000E+03	7.055098E-16	7.513127E-18
3.520000E+03	7.179618E-16	7.633587E-18
3.530000E+03	7.307332E-16	7.756968E-18
3.540000E+03	7.438242E-16	7.883253E-18
3.550000E+03	7.572348E-16	8.012423E-18
3.560000E+03	7.710148E-16	8.144984E-18
3.570000E+03	7.851144E-16	8.280391E-18
3.580000E+03	7.995333E-16	8.418623E-18
3.590000E+03	8.143711E-16	8.560703E-18
3.600000E+03	8.295273E-16	8.705555E-18
3.610000E+03	8.451012E-16	8.854199E-18
3.620000E+03	8.610420E-16	9.006079E-18
3.630000E+03	8.773484E-16	9.161161E-18
3.640000E+03	8.940692E-16	9.319928E-18
3.650000E+03	9.111522E-16	9.481813E-18
3.660000E+03	9.286961E-16	9.647820E-18
3.670000E+03	9.465971E-16	9.816844E-18
3.680000E+03	9.649532E-16	9.989877E-18
3.690000E+03	9.837097E-16	1.016633E-17
3.700000E+03	1.002862E-15	1.034612E-17
3.710000E+03	1.022506E-15	1.053022E-17
3.720000E+03	1.042534E-15	1.071749E-17
3.730000E+03	1.062989E-15	1.090834E-17
3.740000E+03	1.083862E-15	1.110267E-17
3.750000E+03	1.105194E-15	1.130085E-17
3.760000E+03	1.126923E-15	1.150223E-17
3.770000E+03	1.149085E-15	1.170715E-17
3.780000E+03	1.171666E-15	1.191544E-17
3.790000E+03	1.194597E-15	1.212637E-17
3.800000E+03	1.217962E-15	1.234077E-17
3.810000E+03	1.241687E-15	1.255786E-17
3.820000E+03	1.265749E-15	1.277739E-17
3.830000E+03	1.290173E-15	1.299959E-17
3.840000E+03	1.314930E-15	1.322414E-17
3.850000E+03	1.339939E-15	1.345019E-17
3.860000E+03	1.365218E-15	1.367793E-17
3.870000E+03	1.390730E-15	1.390696E-17
3.880000E+03	1.416440E-15	1.413691E-17
3.890000E+03	1.442309E-15	1.436738E-17
3.900000E+03	1.468347E-15	1.459844E-17
3.910000E+03	1.494411E-15	1.482869E-17
3.920000E+03	1.520562E-15	1.505870E-17
3.930000E+03	1.546758E-15	1.528806E-17
3.940000E+03	1.572906E-15	1.551585E-17
3.950000E+03	1.598966E-15	1.574167E-17
3.960000E+03	1.624949E-15	1.596563E-17
3.970000E+03	1.650817E-15	1.618736E-17
3.980000E+03	1.676437E-15	1.640556E-17
3.990000E+03	1.701926E-15	1.662139E-17
4.000000E+03	1.727106E-15	1.683312E-17
4.010000E+03	1.752054E-15	1.704149E-17
4.020000E+03	1.776746E-15	1.724632E-17
4.030000E+03	1.801069E-15	1.744650E-17
4.040000E+03	1.825063E-15	1.764245E-17
4.050000E+03	1.848767E-15	1.783456E-17
4.060000E+03	1.872083E-15	1.802189E-17
4.070000E+03	1.895016E-15	1.820453E-17
4.080000E+03	1.917619E-15	1.838300E-17
4.090000E+03	1.939857E-15	1.855699E-17
4.100000E+03	1.961746E-15	1.872665E-17
4.110000E+03	1.983257E-15	1.889176E-17
4.120000E+03	2.004460E-15	1.905297E-17
4.130000E+03	2.025289E-15	1.920970E-17
4.140000E+03	2.045861E-15	1.936307E-17
4.150000E+03	2.066071E-15	1.951210E-17
4.160000E+03	2.085995E-15	1.965755E-17
4.170000E+03	2.105666E-15	1.979971E-17
4.180000E+03	2.125028E-15	1.993809E-17
4.190000E+03	2.144159E-15	2.007345E-17
4.200000E+03	2.163050E-15	2.020571E-17
4.210000E+03	2.181692E-15	2.033479E-17
4.220000E+03	2.200120E-15	2.046105E-17
4.230000E+03	2.218365E-15	2.058478E-17
4.240000E+03	2.236379E-15	2.070555E-17
4.250000E+03	2.254194E-15	2.082367E-17
4.260000E+03	2.271803E-15	2.093910E-17
4.270000E+03	2.289237E-15	2.105213E-17
4.280000E+03	2.306450E-15	2.116235E-17
4.290000E+03	2.323514E-15	2.127043E-17
4.300000E+03	2.340343E-15	2.137560E-17
4.310000E+03	2.357050E-15	2.147890E-17
4.320000E+03	2.373512E-15	2.157924E-17
4.330000E+03	2.389804E-15	2.167730E-17
4.340000E+03	2.405887E-15	2.177275E-17
4.350000E+03	2.421797E-15	2.186592E-17
4.360000E+03	2.437459E-15	2.195616E-17
4.370000E+03	2.452915E-15	2.204385E-17
4.380000E+03	2.468127E-15	2.212868E-17
4.390000E+03	2.483098E-15	2.221069E-17
4.400000E+03	2.497754E-15	2.228924E-17
4.410000E+03	2.512096E-15	2.236435E-17
4.420000E+03	2.526042E-15	2.243533E-17
4.430000E+03	2.539514E-15	2.250151E-17
4.440000E+03	2.552459E-15	2.256245E-17
4.450000E+03	2.564786E-15	2.261741E-17
4.460000E+03	2.576471E-15	2.266618E-17
4.470000E+03	2.587585E-15	2.270946E-17
4.480000E+03	2.598162E-15	2.274758E-17
4.490000E+03	2.608185E-15	2.278042E-17
4.500000E+03	2.617778E-15	2.280910E-17
4.510000E+03	2.626840E-15	2.283278E-17
4.520000E+03	2.635412E-15	2.285184E-17
4.530000E+03	2.643485E-15	2.286624E-17
4.540000E+03	2.651051E-15	2.287594E-17
4.550000E+03	2.658062E-15	2.288055E-17
4.560000E+03	2.664498E-15	2.287996E-17
4.570000E+03	2.670308E-15	2.287375E-17
4.580000E+03	2.675468E-15	2.286177E-17
4.590000E+03	2.679927E-15	2.284361E-17
4.600000E+03	2.683665E-15	2.281917E-17
4.610000E+03	2.686668E-15	2.278835E-17
4.620000E+03	2.688856E-15	2.275054E-17
4.630000E+03	2.690293E-15	2.270634E-17
4.640000E+03	2.690881E-15	2.265496E-17
4.650000E+03	2.690660E-15	2.259679E-17
4.660000E+03	2.689647E-15	2.253203E-17
4.670000E+03	2.687834E-15	2.246068E-17
4.680000E+03	2.685221E-15	2.238276E-17
4.690000E+03	2.681911E-15	2.229921E-17
4.700000E+03	2.677889E-15	2.220993E-17
4.710000E+03	2.673206E-15	2.211541E-17
4.720000E+03	2.667956E-15	2.201645E-17
4.730000E+03	2.662201E-15	2.191360E-17
4.740000E+03	2.655977E-15	2.180720E-17
4.750000E+03	2.649385E-15	2.169810E-17
4.760000E+03	2.642497E-15	2.158692E-17
4.770000E+03	2.635382E-15	2.147424E-17
4.780000E+03	2.628175E-15	2.136118E-17
4.790000E+03	2.620882E-15	2.124779E-17
4.800000E+03	2.613541E-15	2.113438E-17
4.810000E+03	2.606186E-15	2.102124E-17
4.820000E+03	2.598821E-15	2.090841E-17
4.830000E+03	2.591476E-15	2.079612E-17
4.840000E+03	2.584150E-15	2.068438E-17
4.850000E+03	2.576869E-15	2.057338E-17
4.860000E+03	2.569626E-15	2.046308E-17
4.870000E+03	2.562443E-15	2.035366E-17
4.880000E+03	2.555341E-15	2.024526E-17
4.890000E+03	2.548310E-15	2.013783E-17
4.900000E+03	2.541365E-15	2.003147E-17
4.910000E+03	2.534555E-15	1.992657E-17
4.920000E+03	2.527840E-15	1.982281E-17
4.930000E+03	2.521297E-15	1.972079E-17
4.940000E+03	2.514889E-15	1.962021E-17
4.950000E+03	2.508667E-15	1.952147E-17
4.960000E+03	2.502655E-15	1.942475E-17
4.970000E+03	2.496856E-15	1.933005E-17
4.980000E+03	2.491323E-15	1.923779E-17
4.990000E+03	2.486095E-15	1.914825E-17
5.000000E+03	2.481203E-15	1.906165E-17
5.010000E+03	2.476662E-15	1.897810E-17
5.020000E+03	2.472542E-15	1.889811E-17
5.030000E+03	2.468882E-15	1.882197E-17
5.040000E+03	2.465733E-15	1.875003E-17
5.050000E+03	2.463137E-15	1.868260E-17
5.060000E+03	2.461146E-15	1.862003E-17
5.070000E+03	2.459806E-15	1.856264E-17
5.080000E+03	2.459164E-15	1.851077E-17
5.090000E+03	2.459294E-15	1.846491E-17
5.100000E+03	2.460213E-15	1.842519E-17
5.110000E+03	2.461964E-15	1.839187E-17
5.120000E+03	2.464586E-15	1.836519E-17
5.130000E+03	2.468140E-15	1.834559E-17
5.140000E+03	2.472658E-15	1.833324E-17
5.150000E+03	2.478142E-15	1.832812E-17
5.160000E+03	2.484613E-15	1.833034E-17
5.170000E+03	2.492140E-15	1.834036E-17
5.180000E+03	2.500684E-15	1.835785E-17
5.190000E+03	2.510276E-15	1.838299E-17
5.200000E+03	2.520918E-15	1.841574E-17
5.210000E+03	2.532602E-15	1.845601E-17
5.220000E+03	2.545318E-15	1.850369E-17
5.230000E+03	2.559049E-15	1.855859E-17
5.240000E+03	2.573773E-15	1.862052E-17
5.250000E+03	2.589459E-15	1.868924E-17
5.260000E+03	2.606077E-15	1.876448E-17
5.270000E+03	2.623613E-15	1.884610E-17
5.280000E+03	2.641996E-15	1.893358E-17
5.290000E+03	2.661177E-15	1.902654E-17
5.300000E+03	2.681129E-15	1.912475E-17
5.310000E+03	2.701738E-15	1.922740E-17
5.320000E+03	2.723021E-15	1.933458E-17
5.330000E+03	2.744827E-15	1.944522E-17
5.340000E+03	2.767135E-15	1.955916E-17
5.350000E+03	2.789862E-15	1.967581E-17
5.360000E+03	2.812866E-15	1.979417E-17
5.370000E+03	2.836107E-15	1.991399E-17
5.380000E+03	2.859484E-15	2.003456E-17
5.390000E+03	2.882832E-15	2.015473E-17
5.400000E+03	2.906091E-15	2.027413E-17
5.410000E+03	2.929113E-15	2.039175E-17
5.420000E+03	2.951805E-15	2.050697E-17
5.430000E+03	2.973977E-15	2.061853E-17
5.440000E+03	2.995565E-15	2.072602E-17
5.450000E+03	3.016386E-15	2.082823E-17
5.460000E+03	3.036381E-15	2.092481E-17
5.470000E+03	3.055379E-15	2.101463E-17
5.480000E+03	3.073337E-15	2.109746E-17
5.490000E+03	3.090099E-15	2.117226E-17
5.500000E+03	3.105637E-15	2.123890E-17
5.510000E+03	3.119874E-15	2.129691E-17
5.520000E+03	3.132678E-15	2.134544E-17
5.530000E+03	3.144083E-15	2.138478E-17
5.540000E+03	3.153944E-15	2.141401E-17
5.550000E+03	3.162289E-15	2.143336E-17
5.560000E+03	3.169065E-15	2.144254E-17
5.570000E+03	3.174261E-15	2.144152E-17
5.580000E+03	3.177886E-15	2.143043E-17
5.590000E+03	3.179962E-15	2.140946E-17
5.600000E+03	3.180525E-15	2.137890E-17
5.610000E+03	3.179626E-15	2.133914E-17
5.620000E+03	3.177361E-15	2.129086E-17
5.630000E+03	3.173772E-15	2.123439E-17
5.640000E+03	3.168940E-15	2.117031E-17
5.650000E+03	3.162958E-15	2.109926E-17
5.660000E+03	3.155951E-15	2.102211E-17
5.670000E+03	3.147949E-15	2.093908E-17
5.680000E+03	3.139110E-15	2.085124E-17
5.690000E+03	3.129495E-15	2.075900E-17
5.700000E+03	3.119216E-15	2.066314E-17
5.710000E+03	3.108292E-15	2.056377E-17
5.720000E+03	3.096819E-15	2.046156E-17
5.730000E+03	3.084885E-15	2.035707E-17
5.740000E+03	3.072474E-15	2.025022E-17
5.750000E+03	3.059648E-15	2.014141E-17
5.760000E+03	3.046428E-15	2.003077E-17
5.770000E+03	3.032823E-15	1.991838E-17
5.780000E+03	3.018829E-15	1.980421E-17
5.790000E+03	3.004403E-15	1.968797E-17
5.800000E+03	2.989527E-15	1.956955E-17
5.810000E+03	2.974199E-15	1.944894E-17
5.820000E+03	2.958357E-15	1.932572E-17
5.830000E+03	2.941996E-15	1.919988E-17
5.840000E+03	2.925019E-15	1.907077E-17
5.850000E+03	2.907450E-15	1.893856E-17
5.860000E+03	2.889199E-15	1.880266E-17
5.870000E+03	2.870297E-15	1.866328E-17
5.880000E+03	2.850668E-15	1.851992E-17
5.890000E+03	2.830330E-15	1.837271E-17
5.900000E+03	2.809256E-15	1.822147E-17
5.910000E+03	2.787481E-15	1.806642E-17
5.920000E+03	2.765002E-15	1.790755E-17
5.930000E+03	2.741852E-15	1.774507E-17
5.940000E+03	2.718073E-15	1.757925E-17
5.950000E+03	2.693747E-15	1.741061E-17
5.960000E+03	2.668887E-15	1.723924E-17
5.970000E+03	2.643592E-15	1.706577E-17
5.980000E+03	2.617941E-15	1.689069E-17
5.990000E+03	2.591998E-15	1.671442E-17
6.000000E+03	2.565852E-15	1.653752E-17
6.010000E+03	2.539600E-15	1.636059E-17
6.020000E+03	2.513359E-15	1.618439E-17
6.030000E+03	2.487177E-15	1.600921E-17
6.040000E+03	2.461148E-15	1.583564E-17
6.050000E+03	2.435387E-15	1.566440E-17
6.060000E+03	2.409934E-15	1.549575E-17
6.070000E+03	2.384918E-15	1.533048E-17
6.080000E+03	2.360345E-15	1.516863E-17
6.090000E+03	2.336331E-15	1.501094E-17
6.100000E+03	2.312896E-15	1.485750E-17
6.110000E+03	2.290118E-15	1.470882E-17
6.120000E+03	2.268023E-15	1.456504E-17
6.130000E+03	2.246632E-15	1.442629E-17
6.140000E+03	2.226024E-15	1.429306E-17
6.150000E+03	2.206204E-15	1.416538E-17
6.160000E+03	2.187194E-15	1.404337E-17
6.170000E+03	2.169032E-15	1.392727E-17
6.180000E+03	2.151725E-15	1.381711E-17
6.190000E+03	2.135297E-15	1.371306E-17
6.200000E+03	2.119705E-15	1.361482E-17
6.210000E+03	2.104943E-15	1.352234E-17
6.220000E+03	2.091022E-15	1.343571E-17
6.230000E+03	2.077904E-15	1.335467E-17
6.240000E+03	2.065596E-15	1.327925E-17
6.250000E+03	2.054091E-15	1.320943E-17
6.260000E+03	2.043346E-15	1.314492E-17
6.270000E+03	2.033371E-15	1.308578E-17
6.280000E+03	2.024114E-15	1.303169E-17
6.290000E+03	2.015577E-15	1.298266E-17
6.300000E+03	2.007720E-15	1.293841E-17
6.310000E+03	2.000500E-15	1.289866E-17
6.320000E+03	1.993888E-15	1.286322E-17
6.330000E+03	1.987831E-15	1.283174E-17
6.340000E+03	1.982292E-15	1.280397E-17
6.350000E+03	1.977189E-15	1.277937E-17
6.360000E+03	1.972457E-15	1.275752E-17
6.370000E+03	1.968059E-15	1.273817E-17
6.380000E+03	1.963921E-15	1.272083E-17
6.390000E+03	1.959918E-15	1.270468E-17
6.400000E+03	1.955984E-15	1.268929E-17
6.410000E+03	1.952043E-15	1.267416E-17
6.420000E+03	1.947958E-15	1.265837E-17
6.430000E+03	1.943651E-15	1.264142E-17
6.440000E+03	1.938997E-15	1.262247E-17
6.450000E+03	1.933875E-15	1.260071E-17
6.460000E+03	1.928201E-15	1.257558E-17
6.470000E+03	1.921817E-15	1.254603E-17
6.480000E+03	1.914610E-15	1.251129E-17
6.490000E+03	1.906510E-15	1.247088E-17
6.500000E+03	1.897398E-15	1.242398E-17
6.510000E+03	1.887199E-15	1.237009E-17
6.520000E+03	1.875894E-15	1.230903E-17
6.530000E+03	1.863469E-15	1.224068E-17
6.540000E+03	1.849887E-15	1.216476E-17
6.550000E+03	1.835140E-15	1.208118E-17
6.560000E+03	1.819276E-15	1.199022E-17
6.570000E+03	1.802257E-15	1.189159E-17
6.580000E+03	1.784142E-15	1.178564E-17
6.590000E+03	1.764978E-15	1.167265E-17
6.600000E+03	1.744795E-15	1.155277E-17
6.610000E+03	1.723669E-15	1.142649E-17
6.620000E+03	1.701694E-15	1.129438E-17
6.630000E+03	1.678914E-15	1.115670E-17
6.640000E+03	1.655478E-15	1.101443E-17
6.650000E+03	1.631449E-15	1.086795E-17
6.660000E+03	1.606954E-15	1.071807E-17
6.670000E+03	1.582102E-15	1.056551E-17
6.680000E+03	1.556989E-15	1.041089E-17
6.690000E+03	1.531763E-15	1.025519E-17
6.700000E+03	1.506519E-15	1.009903E-17
6.710000E+03	1.481350E-15	9.943021E-18
6.720000E+03	1.456395E-15	9.788091E-18
6.730000E+03	1.431720E-15	9.634690E-18
6.740000E+03	1.407435E-15	9.483549E-18
6.750000E+03	1.383627E-15	9.335263E-18
6.760000E+03	1.360389E-15	9.190471E-18
6.770000E+03	1.337761E-15	9.049445E-18
6.780000E+03	1.315822E-15	8.912727E-18
6.790000E+03	1.294608E-15	8.780585E-18
6.800000E+03	1.274197E-15	8.653558E-18
6.810000E+03	1.254611E-15	8.531805E-18
6.820000E+03	1.235866E-15	8.415464E-18
6.830000E+03	1.218013E-15	8.304899E-18
6.840000E+03	1.201041E-15	8.200052E-18
6.850000E+03	1.184975E-15	8.101110E-18
6.860000E+03	1.169817E-15	8.008119E-18
6.870000E+03	1.155554E-15	7.921007E-18
6.880000E+03	1.142209E-15	7.839949E-18
6.890000E+03	1.129745E-15	7.764717E-18
6.900000E+03	1.118177E-15	7.695438E-18
6.910000E+03	1.107461E-15	7.631829E-18
6.920000E+03	1.097594E-15	7.573889E-18
6.930000E+03	1.088553E-15	7.521491E-18
6.940000E+03	1.080306E-15	7.474420E-18
6.950000E+03	1.072855E-15	7.432716E-18
6.960000E+03	1.066162E-15	7.396136E-18
6.970000E+03	1.060188E-15	7.364431E-18
6.980000E+03	1.054921E-15	7.337535E-18
6.990000E+03	1.050349E-15	7.315379E-18
7.000000E+03	1.046418E-15	7.297609E-18
7.010000E+03	1.043117E-15	7.284166E-18
7.020000E+03	1.040418E-15	7.274870E-18
7.030000E+03	1.038310E-15	7.269656E-18
7.040000E+03	1.036742E-15	7.268183E-18
7.050000E+03	1.035701E-15	7.270380E-18
7.060000E+03	1.035164E-15	7.276090E-18
7.070000E+03	1.035108E-15	7.285168E-18
7.080000E+03	1.035508E-15	7.297457E-18
7.090000E+03	1.036356E-15	7.312905E-18
7.100000E+03	1.037603E-15	7.331179E-18
7.110000E+03	1.039254E-15	7.352329E-18
7.120000E+03	1.041273E-15	7.376110E-18
7.130000E+03	1.043642E-15	7.402401E-18
7.140000E+03	1.046340E-15	7.431066E-18
7.150000E+03	1.049346E-15	7.461957E-18
7.160000E+03	1.052655E-15	7.495056E-18
7.170000E+03	1.056232E-15	7.530124E-18
7.180000E+03	1.060062E-15	7.567046E-18
7.190000E+03	1.064122E-15	7.605678E-18
7.200000E+03	1.068408E-15	7.646005E-18
7.210000E+03	1.072889E-15	7.687791E-18
7.220000E+03	1.077560E-15	7.731021E-18
7.230000E+03	1.082389E-15	7.775460E-18
7.240000E+03	1.087371E-15	7.821083E-18
7.250000E+03	1.092475E-15	7.867679E-18
7.260000E+03	1.097697E-15	7.915215E-18
7.270000E+03	1.103007E-15	7.963472E-18
7.280000E+03	1.108400E-15	8.012431E-18
7.290000E+03	1.113860E-15	8.061971E-18
7.300000E+03	1.119370E-15	8.111976E-18
7.310000E+03	1.124900E-15	8.162226E-18
7.320000E+03	1.130447E-15	8.212710E-18
7.330000E+03	1.135999E-15	8.263327E-18
7.340000E+03	1.141537E-15	8.313960E-18
7.350000E+03	1.147050E-15	8.364508E-18
7.360000E+03	1.152536E-15	8.414980E-18
7.370000E+03	1.157968E-15	8.465165E-18
7.380000E+03	1.163333E-15	8.514973E-18
7.390000E+03	1.168635E-15	8.564428E-18
7.400000E+03	1.173861E-15	8.613442E-18
7.410000E+03	1.179016E-15	8.662046E-18
7.420000E+03	1.184057E-15	8.709936E-18
7.430000E+03	1.189009E-15	8.757276E-18
7.440000E+03	1.193859E-15	8.803990E-18
7.450000E+03	1.198585E-15	8.849902E-18
7.460000E+03	1.203177E-15	8.894936E-18
7.470000E+03	1.207627E-15	8.939040E-18
7.480000E+03	1.211910E-15	8.982028E-18
7.490000E+03	1.216018E-15	9.023832E-18
7.500000E+03	1.219945E-15	9.064408E-18
7.510000E+03	1.223665E-15	9.103561E-18
7.520000E+03	1.227187E-15	9.141356E-18
7.530000E+03	1.230501E-15	9.177720E-18
7.540000E+03	1.233569E-15	9.212354E-18
7.550000E+03	1.236412E-15	9.245421E-18
7.560000E+03	1.238989E-15	9.276607E-18
7.570000E+03	1.241305E-15	9.305951E-18
7.580000E+03	1.243351E-15	9.333369E-18
7.590000E+03	1.245096E-15	9.358639E-18
7.600000E+03	1.246547E-15	9.381797E-18
7.610000E+03	1.247689E-15	9.402732E-18
7.620000E+03	1.248492E-15	9.421207E-18
7.630000E+03	1.248941E-15	9.437095E-18
7.640000E+03	1.249037E-15	9.450410E-18
7.650000E+03	1.248746E-15	9.460887E-18
7.660000E+03	1.248053E-15	9.468389E-18
7.670000E+03	1.246957E-15	9.472910E-18
7.680000E+03	1.245406E-15	9.474047E-18
7.690000E+03	1.243419E-15	9.471930E-18
7.700000E+03	1.240961E-15	9.466276E-18
7.710000E+03	1.238034E-15	9.457097E-18
7.720000E+03	1.234589E-15	9.443999E-18
7.730000E+03	1.230644E-15	9.427120E-18
7.740000E+03	1.226174E-15	9.406236E-18
7.750000E+03	1.221183E-15	9.381370E-18
7.760000E+03	1.215629E-15	9.352190E-18
