#wls	flux	fluxerr
1.589729E+03	7.893263E-02	5.941011E-03
1.629472E+03	6.706902E-02	4.946450E-03
1.669215E+03	5.630388E-02	4.067087E-03
1.708958E+03	4.668385E-02	3.301401E-03
1.748702E+03	3.819906E-02	2.643588E-03
1.788445E+03	3.082731E-02	2.086996E-03
1.828188E+03	2.452581E-02	1.623700E-03
1.867931E+03	1.922747E-02	1.244433E-03
1.907675E+03	1.485333E-02	9.395816E-04
1.947418E+03	1.131337E-02	6.993356E-04
1.987161E+03	8.509905E-03	5.139919E-04
2.026904E+03	6.347734E-03	3.746117E-04
2.066647E+03	4.730875E-03	2.728174E-04
2.106391E+03	3.571127E-03	2.012756E-04
2.146134E+03	2.791246E-03	1.538094E-04
2.185877E+03	2.318230E-03	1.249526E-04
2.225620E+03	2.096724E-03	1.106134E-04
2.265363E+03	2.103853E-03	1.087189E-04
2.305107E+03	2.352126E-03	1.191778E-04
2.344850E+03	2.904412E-03	1.444564E-04
2.384593E+03	3.899174E-03	1.906097E-04
2.424336E+03	5.580500E-03	2.684702E-04
2.464080E+03	8.332782E-03	3.950013E-04
2.503823E+03	1.269646E-02	5.937034E-04
2.543566E+03	1.932635E-02	8.923986E-04
2.583309E+03	2.883046E-02	1.315748E-03
2.623052E+03	4.150873E-02	1.873721E-03
2.662796E+03	5.712150E-02	2.552010E-03
2.702539E+03	7.481350E-02	3.309738E-03
2.742282E+03	9.320060E-02	4.084299E-03
2.782025E+03	1.106428E-01	4.804020E-03
2.821769E+03	1.256169E-01	5.404493E-03
2.861512E+03	1.370300E-01	5.841704E-03
2.901255E+03	1.444270E-01	6.100040E-03
2.940998E+03	1.479761E-01	6.190630E-03
2.980741E+03	1.483134E-01	6.143852E-03
2.990677E+03	1.479978E-01	6.115304E-03
3.000613E+03	1.475533E-01	6.081381E-03
3.010549E+03	1.469947E-01	6.042731E-03
3.020485E+03	1.463402E-01	6.000133E-03
3.030420E+03	1.456017E-01	5.954090E-03
3.040356E+03	1.447937E-01	5.905229E-03
3.050292E+03	1.439368E-01	5.854403E-03
3.060228E+03	1.430390E-01	5.801947E-03
3.070164E+03	1.421198E-01	5.748666E-03
3.080099E+03	1.411896E-01	5.694978E-03
3.090035E+03	1.402612E-01	5.641397E-03
3.099971E+03	1.393526E-01	5.588633E-03
3.109907E+03	1.384701E-01	5.536926E-03
3.119843E+03	1.376283E-01	5.486833E-03
3.129779E+03	1.368382E-01	5.438778E-03
3.139714E+03	1.361136E-01	5.393276E-03
3.149650E+03	1.354627E-01	5.350627E-03
3.159586E+03	1.348994E-01	5.311335E-03
3.169522E+03	1.344352E-01	5.275812E-03
3.179458E+03	1.340798E-01	5.244398E-03
3.189393E+03	1.338491E-01	5.217659E-03
3.199329E+03	1.337601E-01	5.196198E-03
3.209265E+03	1.338245E-01	5.180401E-03
3.219201E+03	1.340647E-01	5.171060E-03
3.229137E+03	1.344958E-01	5.168671E-03
3.239072E+03	1.351452E-01	5.174192E-03
3.249008E+03	1.360281E-01	5.188095E-03
3.258944E+03	1.371694E-01	5.211204E-03
3.268880E+03	1.385942E-01	5.244342E-03
3.278816E+03	1.403236E-01	5.288149E-03
3.288751E+03	1.423826E-01	5.343408E-03
3.298687E+03	1.447897E-01	5.410626E-03
3.308623E+03	1.475693E-01	5.490514E-03
3.318559E+03	1.507422E-01	5.583637E-03
3.328495E+03	1.543284E-01	5.690492E-03
3.338430E+03	1.583459E-01	5.811494E-03
3.348366E+03	1.628090E-01	5.946906E-03
3.358302E+03	1.677331E-01	6.096997E-03
3.368238E+03	1.731311E-01	6.261943E-03
3.378174E+03	1.790138E-01	6.441810E-03
3.388109E+03	1.853855E-01	6.636424E-03
3.398045E+03	1.922472E-01	6.845478E-03
3.407981E+03	1.995919E-01	7.068370E-03
3.417917E+03	2.073981E-01	7.303974E-03
3.427853E+03	2.156316E-01	7.550742E-03
3.437788E+03	2.242379E-01	7.806427E-03
3.447724E+03	2.331313E-01	8.067738E-03
3.457660E+03	2.422047E-01	8.330710E-03
3.467596E+03	2.513110E-01	8.590105E-03
3.477532E+03	2.602652E-01	8.839514E-03
3.487467E+03	2.688495E-01	9.071579E-03
3.497403E+03	2.768088E-01	9.277903E-03
3.507339E+03	2.838718E-01	9.449782E-03
3.517275E+03	2.897557E-01	9.578392E-03
3.527211E+03	2.941882E-01	9.655545E-03
3.537146E+03	2.969296E-01	9.674402E-03
3.547082E+03	2.977944E-01	9.630136E-03
3.557018E+03	2.966715E-01	9.520541E-03
3.566954E+03	2.935528E-01	9.346836E-03
3.576890E+03	2.885246E-01	9.113272E-03
3.586826E+03	2.817802E-01	8.827419E-03
3.596761E+03	2.735967E-01	8.499288E-03
3.606697E+03	2.643286E-01	8.141020E-03
3.616633E+03	2.543539E-01	7.765121E-03
3.626569E+03	2.440743E-01	7.384434E-03
3.636505E+03	2.338703E-01	7.010731E-03
3.646440E+03	2.240879E-01	6.654339E-03
3.656376E+03	2.150152E-01	6.323492E-03
3.666312E+03	2.068917E-01	6.024660E-03
3.676248E+03	1.998944E-01	5.762212E-03
3.686184E+03	1.941501E-01	5.538862E-03
3.696119E+03	1.897420E-01	5.355903E-03
3.706055E+03	1.867306E-01	5.213869E-03
3.715991E+03	1.851497E-01	5.112450E-03
3.725927E+03	1.850303E-01	5.051186E-03
3.735863E+03	1.863970E-01	5.029370E-03
3.745798E+03	1.892762E-01	5.046276E-03
3.755734E+03	1.936961E-01	5.101158E-03
3.765670E+03	1.996947E-01	5.193453E-03
3.775606E+03	2.073094E-01	5.322499E-03
3.785542E+03	2.165844E-01	5.487716E-03
3.795477E+03	2.275572E-01	5.688269E-03
3.805413E+03	2.402512E-01	5.922872E-03
3.815349E+03	2.546605E-01	6.189474E-03
3.825285E+03	2.707261E-01	6.484713E-03
3.835221E+03	2.883228E-01	6.803717E-03
3.845156E+03	3.072390E-01	7.139755E-03
3.855092E+03	3.271825E-01	7.484523E-03
3.865028E+03	3.477962E-01	7.828669E-03
3.874964E+03	3.686602E-01	8.161957E-03
3.884900E+03	3.893188E-01	8.473990E-03
3.894835E+03	4.092998E-01	8.754707E-03
3.904771E+03	4.281599E-01	8.995387E-03
3.914707E+03	4.454984E-01	9.188884E-03
3.924643E+03	4.610126E-01	9.330685E-03
3.934579E+03	4.744951E-01	9.418683E-03
3.944514E+03	4.858610E-01	9.453514E-03
3.954450E+03	4.951559E-01	9.438487E-03
3.964386E+03	5.025237E-01	9.378717E-03
3.974322E+03	5.082040E-01	9.280880E-03
3.984258E+03	5.124933E-01	9.152314E-03
3.994194E+03	5.157164E-01	9.000413E-03
4.004129E+03	5.181733E-01	8.831637E-03
4.014065E+03	5.201059E-01	8.651017E-03
4.024001E+03	5.216899E-01	8.462126E-03
4.033937E+03	5.230190E-01	8.266964E-03
4.043873E+03	5.240825E-01	8.065788E-03
4.053808E+03	5.248142E-01	7.858054E-03
4.063744E+03	5.250701E-01	7.642208E-03
4.073680E+03	5.246844E-01	7.416650E-03
4.083616E+03	5.234662E-01	7.179732E-03
4.093552E+03	5.212580E-01	6.930588E-03
4.103487E+03	5.179478E-01	6.669224E-03
4.113423E+03	5.134690E-01	6.396415E-03
4.123359E+03	5.077858E-01	6.113437E-03
4.133295E+03	5.008873E-01	5.821924E-03
4.143231E+03	4.927897E-01	5.523846E-03
4.153166E+03	4.835287E-01	5.221359E-03
4.163102E+03	4.731620E-01	4.916792E-03
4.173038E+03	4.617862E-01	4.612763E-03
4.182974E+03	4.495428E-01	4.312156E-03
4.192910E+03	4.366273E-01	4.018116E-03
4.202845E+03	4.232735E-01	3.733806E-03
4.212781E+03	4.097602E-01	3.462401E-03
4.222717E+03	3.963936E-01	3.206877E-03
4.232653E+03	3.834969E-01	2.969913E-03
4.242589E+03	3.713763E-01	2.753643E-03
4.252524E+03	3.603131E-01	2.559682E-03
4.262460E+03	3.505428E-01	2.389082E-03
4.272396E+03	3.422286E-01	2.242284E-03
4.282332E+03	3.354672E-01	2.119315E-03
4.292268E+03	3.302800E-01	2.019846E-03
4.302203E+03	3.266422E-01	1.943463E-03
4.312139E+03	3.244781E-01	1.889660E-03
4.322075E+03	3.236748E-01	1.857901E-03
4.332011E+03	3.240577E-01	1.847416E-03
4.341947E+03	3.254117E-01	1.856966E-03
4.351882E+03	3.274585E-01	1.884426E-03
4.361818E+03	3.298534E-01	1.927086E-03
4.371754E+03	3.321868E-01	1.981602E-03
4.381690E+03	3.340434E-01	2.044255E-03
4.391626E+03	3.352023E-01	2.112172E-03
4.401562E+03	3.358234E-01	2.184707E-03
4.411497E+03	3.363175E-01	2.263023E-03
4.421433E+03	3.371012E-01	2.348761E-03
4.431369E+03	3.385120E-01	2.443517E-03
4.441305E+03	3.407869E-01	2.548623E-03
4.451241E+03	3.440261E-01	2.664745E-03
4.461176E+03	3.482119E-01	2.791835E-03
4.471112E+03	3.531891E-01	2.928779E-03
4.481048E+03	3.587209E-01	3.073671E-03
4.490984E+03	3.644857E-01	3.223643E-03
4.500920E+03	3.701239E-01	3.375167E-03
4.510855E+03	3.752841E-01	3.524429E-03
4.520791E+03	3.796573E-01	3.667679E-03
4.530727E+03	3.830123E-01	3.801649E-03
4.540663E+03	3.851752E-01	3.923457E-03
4.550599E+03	3.860511E-01	4.030927E-03
4.560534E+03	3.856068E-01	4.122503E-03
4.570470E+03	3.838459E-01	4.197073E-03
4.580406E+03	3.807882E-01	4.253779E-03
4.590342E+03	3.764747E-01	4.292098E-03
4.600278E+03	3.709791E-01	4.311995E-03
4.610213E+03	3.644046E-01	4.313923E-03
4.620149E+03	3.568831E-01	4.298839E-03
4.630085E+03	3.485652E-01	4.268098E-03
4.640021E+03	3.396311E-01	4.223600E-03
4.649957E+03	3.302619E-01	4.167442E-03
4.659892E+03	3.206334E-01	4.101818E-03
4.669828E+03	3.109083E-01	4.028908E-03
4.679764E+03	3.012268E-01	3.950719E-03
4.689700E+03	2.917061E-01	3.869049E-03
4.699636E+03	2.824390E-01	3.785440E-03
4.709571E+03	2.734961E-01	3.701182E-03
4.719507E+03	2.649301E-01	3.617345E-03
4.729443E+03	2.567772E-01	3.534781E-03
4.739379E+03	2.490611E-01	3.454170E-03
4.749315E+03	2.417939E-01	3.376018E-03
4.759250E+03	2.349863E-01	3.300795E-03
4.769186E+03	2.286382E-01	3.228801E-03
4.779122E+03	2.227589E-01	3.160443E-03
4.789058E+03	2.173519E-01	3.096025E-03
4.798994E+03	2.124322E-01	3.035994E-03
4.808930E+03	2.080224E-01	2.980877E-03
4.818865E+03	2.041516E-01	2.931279E-03
4.828801E+03	2.008639E-01	2.887990E-03
4.838737E+03	1.981997E-01	2.851722E-03
4.848673E+03	1.961984E-01	2.823141E-03
4.858609E+03	1.948743E-01	2.802515E-03
4.868544E+03	1.942124E-01	2.789661E-03
4.878480E+03	1.941347E-01	2.783449E-03
4.888416E+03	1.945256E-01	2.782195E-03
4.898352E+03	1.952398E-01	2.783779E-03
4.908288E+03	1.961236E-01	2.785969E-03
4.918223E+03	1.970273E-01	2.786610E-03
4.928159E+03	1.978497E-01	2.784269E-03
4.938095E+03	1.985565E-01	2.778477E-03
4.948031E+03	1.991691E-01	2.769560E-03
4.957967E+03	1.997613E-01	2.758567E-03
4.967902E+03	2.004496E-01	2.747106E-03
4.977838E+03	2.013698E-01	2.737001E-03
4.987774E+03	2.026498E-01	2.729900E-03
4.997710E+03	2.044023E-01	2.727171E-03
5.007646E+03	2.067123E-01	2.729745E-03
5.017581E+03	2.096364E-01	2.738110E-03
5.027517E+03	2.131940E-01	2.752219E-03
5.037453E+03	2.173683E-01	2.771530E-03
5.047389E+03	2.221022E-01	2.794983E-03
5.057325E+03	2.272822E-01	2.820836E-03
5.067260E+03	2.327545E-01	2.846923E-03
5.077196E+03	2.383226E-01	2.870666E-03
5.087132E+03	2.437606E-01	2.889295E-03
5.097068E+03	2.488256E-01	2.900020E-03
5.107004E+03	2.532784E-01	2.900316E-03
5.116939E+03	2.569012E-01	2.888119E-03
5.126875E+03	2.595151E-01	2.862014E-03
5.136811E+03	2.609715E-01	2.821109E-03
5.146747E+03	2.611745E-01	2.765236E-03
5.156683E+03	2.600694E-01	2.694789E-03
5.166618E+03	2.576488E-01	2.610723E-03
5.176554E+03	2.539493E-01	2.514471E-03
5.186490E+03	2.490552E-01	2.407918E-03
5.196426E+03	2.430973E-01	2.293329E-03
5.206362E+03	2.362669E-01	2.173412E-03
5.216298E+03	2.287894E-01	2.051003E-03
5.226233E+03	2.209451E-01	1.929198E-03
5.236169E+03	2.130374E-01	1.811019E-03
5.246105E+03	2.053802E-01	1.699281E-03
5.256041E+03	1.982594E-01	1.596281E-03
5.265977E+03	1.919225E-01	1.503761E-03
5.275912E+03	1.865730E-01	1.422926E-03
5.285848E+03	1.823526E-01	1.354383E-03
5.295784E+03	1.793490E-01	1.298290E-03
5.305720E+03	1.775869E-01	1.254365E-03
5.315656E+03	1.770198E-01	1.221912E-03
5.325591E+03	1.775193E-01	1.199824E-03
5.335527E+03	1.788855E-01	1.186706E-03
5.345463E+03	1.808577E-01	1.180974E-03
5.355399E+03	1.831147E-01	1.180841E-03
5.365335E+03	1.852981E-01	1.184423E-03
5.375270E+03	1.870267E-01	1.189744E-03
5.385206E+03	1.879316E-01	1.194789E-03
5.395142E+03	1.876852E-01	1.197379E-03
5.405078E+03	1.860737E-01	1.195743E-03
5.415014E+03	1.831041E-01	1.189274E-03
5.424949E+03	1.791636E-01	1.179671E-03
5.434885E+03	1.748686E-01	1.170181E-03
5.444821E+03	1.708126E-01	1.164122E-03
5.454757E+03	1.674797E-01	1.164390E-03
5.464693E+03	1.652235E-01	1.173307E-03
5.474628E+03	1.642665E-01	1.192563E-03
5.484564E+03	1.647093E-01	1.223186E-03
5.494500E+03	1.665583E-01	1.265645E-03
5.504436E+03	1.697043E-01	1.319582E-03
5.514372E+03	1.739544E-01	1.383939E-03
5.524307E+03	1.790505E-01	1.457016E-03
5.534243E+03	1.846839E-01	1.536512E-03
5.544179E+03	1.905106E-01	1.619601E-03
5.554115E+03	1.961955E-01	1.703280E-03
5.564051E+03	2.014463E-01	1.784680E-03
5.573986E+03	2.060254E-01	1.861227E-03
5.583922E+03	2.097568E-01	1.930759E-03
5.593858E+03	2.125364E-01	1.991687E-03
5.603794E+03	2.143194E-01	2.042952E-03
5.613730E+03	2.151224E-01	2.084094E-03
5.623665E+03	2.150044E-01	2.115125E-03
5.633601E+03	2.140584E-01	2.136473E-03
5.643537E+03	2.123910E-01	2.148800E-03
5.653473E+03	2.101105E-01	2.152884E-03
5.663409E+03	2.073244E-01	2.149587E-03
5.673345E+03	2.041348E-01	2.139801E-03
5.683280E+03	2.006318E-01	2.124367E-03
5.693216E+03	1.969068E-01	2.104203E-03
5.703152E+03	1.930538E-01	2.080309E-03
5.713088E+03	1.891761E-01	2.053837E-03
5.723024E+03	1.853872E-01	2.026091E-03
5.732959E+03	1.817973E-01	1.998376E-03
5.742895E+03	1.785268E-01	1.972135E-03
5.752831E+03	1.756819E-01	1.948668E-03
5.762767E+03	1.733497E-01	1.929064E-03
5.772703E+03	1.715848E-01	1.914039E-03
5.782638E+03	1.704106E-01	1.903941E-03
5.792574E+03	1.698187E-01	1.898732E-03
5.802510E+03	1.697606E-01	1.897897E-03
5.812446E+03	1.701679E-01	1.900670E-03
5.822382E+03	1.709623E-01	1.906152E-03
5.832317E+03	1.720644E-01	1.913419E-03
5.842253E+03	1.734055E-01	1.921657E-03
5.852189E+03	1.749157E-01	1.930039E-03
5.862125E+03	1.765406E-01	1.937913E-03
5.872061E+03	1.782277E-01	1.944657E-03
5.881996E+03	1.799312E-01	1.949736E-03
5.891932E+03	1.816108E-01	1.952689E-03
5.901868E+03	1.832189E-01	1.952998E-03
5.911804E+03	1.847061E-01	1.950149E-03
5.921740E+03	1.860100E-01	1.943528E-03
5.931675E+03	1.870455E-01	1.932323E-03
5.941611E+03	1.877128E-01	1.915633E-03
5.951547E+03	1.878860E-01	1.892371E-03
5.961483E+03	1.874159E-01	1.861307E-03
5.971419E+03	1.861362E-01	1.821167E-03
5.981354E+03	1.838695E-01	1.770704E-03
5.991290E+03	1.804481E-01	1.708916E-03
6.001226E+03	1.757476E-01	1.635355E-03
6.011162E+03	1.697142E-01	1.550342E-03
6.021098E+03	1.623815E-01	1.455059E-03
6.031033E+03	1.539151E-01	1.351849E-03
6.040969E+03	1.445927E-01	1.243917E-03
6.050905E+03	1.347813E-01	1.135018E-03
6.060841E+03	1.248756E-01	1.028854E-03
6.070777E+03	1.152745E-01	9.288469E-04
6.080713E+03	1.063234E-01	8.376757E-04
6.090648E+03	9.829537E-02	7.571874E-04
6.100584E+03	9.138049E-02	6.883970E-04
6.110520E+03	8.569745E-02	6.316616E-04
6.120456E+03	8.130387E-02	5.868412E-04
6.130392E+03	7.820892E-02	5.534619E-04
6.140327E+03	7.640479E-02	5.309968E-04
6.150263E+03	7.587783E-02	5.189789E-04
6.160199E+03	7.661475E-02	5.170729E-04
6.170135E+03	7.860335E-02	5.251057E-04
6.180071E+03	8.182091E-02	5.430125E-04
6.190006E+03	8.620736E-02	5.706802E-04
6.199942E+03	9.165761E-02	6.079054E-04
6.209878E+03	9.801505E-02	6.543322E-04
6.219814E+03	1.050675E-01	7.092979E-04
6.229750E+03	1.125368E-01	7.716029E-04
6.239685E+03	1.201058E-01	8.396652E-04
6.249621E+03	1.274533E-01	9.116540E-04
6.259557E+03	1.342725E-01	9.855381E-04
6.269493E+03	1.402934E-01	1.059201E-03
6.279429E+03	1.453128E-01	1.130661E-03
6.289364E+03	1.492056E-01	1.198219E-03
6.299300E+03	1.519083E-01	1.260417E-03
6.309236E+03	1.534206E-01	1.316142E-03
6.319172E+03	1.537912E-01	1.364613E-03
6.329108E+03	1.531059E-01	1.405375E-03
6.339043E+03	1.514765E-01	1.438269E-03
6.348979E+03	1.490387E-01	1.463480E-03
6.358915E+03	1.459559E-01	1.481640E-03
6.368851E+03	1.424168E-01	1.493857E-03
6.378787E+03	1.386358E-01	1.501788E-03
6.388722E+03	1.348504E-01	1.507657E-03
6.398658E+03	1.313218E-01	1.514316E-03
6.408594E+03	1.283053E-01	1.524938E-03
6.418530E+03	1.259933E-01	1.542313E-03
6.428466E+03	1.244249E-01	1.567596E-03
6.438401E+03	1.234525E-01	1.599597E-03
6.448337E+03	1.228721E-01	1.636178E-03
6.458273E+03	1.225033E-01	1.675237E-03
6.468209E+03	1.222085E-01	1.715017E-03
6.478145E+03	1.218773E-01	1.753966E-03
6.488081E+03	1.214368E-01	1.790928E-03
6.498016E+03	1.208381E-01	1.825008E-03
6.507952E+03	1.200574E-01	1.855638E-03
6.517888E+03	1.190903E-01	1.882527E-03
6.527824E+03	1.179413E-01	1.905524E-03
6.537760E+03	1.166292E-01	1.924733E-03
6.547695E+03	1.151790E-01	1.940385E-03
6.557631E+03	1.136131E-01	1.952715E-03
6.567567E+03	1.119623E-01	1.962134E-03
6.577503E+03	1.102484E-01	1.968942E-03
6.587439E+03	1.084986E-01	1.973569E-03
6.597374E+03	1.067303E-01	1.976302E-03
6.607310E+03	1.049623E-01	1.977480E-03
6.617246E+03	1.032079E-01	1.977365E-03
6.627182E+03	1.014753E-01	1.976134E-03
6.637118E+03	9.977161E-02	1.973958E-03
6.647053E+03	9.809772E-02	1.970892E-03
6.656989E+03	9.645377E-02	1.966975E-03
6.666925E+03	9.483979E-02	1.962248E-03
6.676861E+03	9.325161E-02	1.956660E-03
6.686797E+03	9.168566E-02	1.950173E-03
6.696732E+03	9.014414E-02	1.942866E-03
6.706668E+03	8.862443E-02	1.934718E-03
6.716604E+03	8.713113E-02	1.925862E-03
6.726540E+03	8.566984E-02	1.916462E-03
6.736476E+03	8.424654E-02	1.906694E-03
6.746411E+03	8.286956E-02	1.896794E-03
6.756347E+03	8.154709E-02	1.887003E-03
6.766283E+03	8.028822E-02	1.877591E-03
6.776219E+03	7.909686E-02	1.868712E-03
6.786155E+03	7.797450E-02	1.860465E-03
6.796090E+03	7.692298E-02	1.852956E-03
6.806026E+03	7.594063E-02	1.846207E-03
6.815962E+03	7.502374E-02	1.840185E-03
6.825898E+03	7.416585E-02	1.834785E-03
6.835834E+03	7.336145E-02	1.829917E-03
6.845769E+03	7.260637E-02	1.825521E-03
6.855705E+03	7.189395E-02	1.821465E-03
6.865641E+03	7.121959E-02	1.817668E-03
6.875577E+03	7.057975E-02	1.814067E-03
6.885513E+03	6.997168E-02	1.810620E-03
6.895449E+03	6.939311E-02	1.807292E-03
6.905384E+03	6.884229E-02	1.804059E-03
6.915320E+03	6.831630E-02	1.800865E-03
6.925256E+03	6.781318E-02	1.797678E-03
6.935192E+03	6.733167E-02	1.794481E-03
6.945128E+03	6.686871E-02	1.791207E-03
6.955063E+03	6.641823E-02	1.787708E-03
6.964999E+03	6.597903E-02	1.783963E-03
6.974935E+03	6.554613E-02	1.779846E-03
6.984871E+03	6.511657E-02	1.775286E-03
6.994807E+03	6.468715E-02	1.770202E-03
7.004742E+03	6.425822E-02	1.764611E-03
7.014678E+03	6.382969E-02	1.758518E-03
7.024614E+03	6.340212E-02	1.751944E-03
7.034550E+03	6.297529E-02	1.744891E-03
7.044486E+03	6.255026E-02	1.737396E-03
7.054421E+03	6.212913E-02	1.729524E-03
7.064357E+03	6.171130E-02	1.721268E-03
7.074293E+03	6.129591E-02	1.712610E-03
7.084229E+03	6.088556E-02	1.703632E-03
7.094165E+03	6.047886E-02	1.694302E-03
7.104100E+03	6.007557E-02	1.684621E-03
7.114036E+03	5.967408E-02	1.674552E-03
7.123972E+03	5.927508E-02	1.664122E-03
7.133908E+03	5.887777E-02	1.653316E-03
7.143844E+03	5.847986E-02	1.642078E-03
7.153779E+03	5.807989E-02	1.630373E-03
7.163715E+03	5.767700E-02	1.618187E-03
7.173651E+03	5.726736E-02	1.605420E-03
7.183587E+03	5.684774E-02	1.591989E-03
7.193523E+03	5.641448E-02	1.577804E-03
7.203458E+03	5.596358E-02	1.562760E-03
7.213394E+03	5.548957E-02	1.546720E-03
7.223330E+03	5.499029E-02	1.529635E-03
7.233266E+03	5.446010E-02	1.511363E-03
7.243202E+03	5.389245E-02	1.491743E-03
7.253137E+03	5.328709E-02	1.470786E-03
7.263073E+03	5.263799E-02	1.448349E-03
7.273009E+03	5.194606E-02	1.424482E-03
7.282945E+03	5.121056E-02	1.399192E-03
7.292881E+03	5.043396E-02	1.372576E-03
7.302817E+03	4.961952E-02	1.344753E-03
7.312752E+03	4.877319E-02	1.315912E-03
7.322688E+03	4.790225E-02	1.286282E-03
7.332624E+03	4.701474E-02	1.256104E-03
7.342560E+03	4.611670E-02	1.225565E-03
7.352496E+03	4.521664E-02	1.194916E-03
7.362431E+03	4.431928E-02	1.164300E-03
7.372367E+03	4.342924E-02	1.133858E-03
7.382303E+03	4.254986E-02	1.103691E-03
7.392239E+03	4.168570E-02	1.073933E-03
7.402175E+03	4.084072E-02	1.044694E-03
7.412110E+03	4.002152E-02	1.016151E-03
7.422046E+03	3.923549E-02	9.884941E-04
7.431982E+03	3.848825E-02	9.618620E-04
7.441918E+03	3.778808E-02	9.364530E-04
7.451854E+03	3.714445E-02	9.124864E-04
7.461789E+03	3.656339E-02	8.900876E-04
7.471725E+03	3.605374E-02	8.694413E-04
7.481661E+03	3.562164E-02	8.506581E-04
7.491597E+03	3.527123E-02	8.337924E-04
7.501533E+03	3.500410E-02	8.188320E-04
7.511468E+03	3.481971E-02	8.057111E-04
7.521404E+03	3.471660E-02	7.943409E-04
7.531340E+03	3.469016E-02	7.845597E-04
7.541276E+03	3.473624E-02	7.762189E-04
7.551212E+03	3.484866E-02	7.691275E-04
7.561147E+03	3.502264E-02	7.631299E-04
7.571083E+03	3.525243E-02	7.580537E-04
7.581019E+03	3.553137E-02	7.537122E-04
7.590955E+03	3.585443E-02	7.499603E-04
7.600891E+03	3.621560E-02	7.466381E-04
7.610826E+03	3.660798E-02	7.435742E-04
7.620762E+03	3.702650E-02	7.406431E-04
7.630698E+03	3.746465E-02	7.376969E-04
7.640634E+03	3.791904E-02	7.346580E-04
7.650570E+03	3.838371E-02	7.314049E-04
7.660505E+03	3.885647E-02	7.278960E-04
7.670441E+03	3.933440E-02	7.240806E-04
7.680377E+03	3.981759E-02	7.199686E-04
7.690313E+03	4.030579E-02	7.155658E-04
7.700249E+03	4.079832E-02	7.108736E-04
7.710184E+03	4.129198E-02	7.058541E-04
