#wls	flux	fluxerr
1.589729E+03	4.805849E-03	4.672781E-04
1.629472E+03	4.457116E-03	4.311159E-04
1.669215E+03	4.144895E-03	3.987702E-04
1.708958E+03	3.864547E-03	3.697512E-04
1.748702E+03	3.616194E-03	3.440292E-04
1.788445E+03	3.397583E-03	3.213473E-04
1.828188E+03	3.206015E-03	3.014099E-04
1.867931E+03	3.040228E-03	2.840598E-04
1.907675E+03	2.898997E-03	2.691442E-04
1.947418E+03	2.780653E-03	2.564704E-04
1.987161E+03	2.684204E-03	2.459103E-04
2.026904E+03	2.608271E-03	2.373007E-04
2.066647E+03	2.551626E-03	2.304947E-04
2.106391E+03	2.514077E-03	2.254392E-04
2.146134E+03	2.494110E-03	2.219628E-04
2.185877E+03	2.491238E-03	2.199873E-04
2.225620E+03	2.504158E-03	2.193626E-04
2.265363E+03	2.532982E-03	2.200640E-04
2.305107E+03	2.576099E-03	2.219168E-04
2.344850E+03	2.633256E-03	2.248654E-04
2.384593E+03	2.703756E-03	2.288160E-04
2.424336E+03	2.786404E-03	2.336342E-04
2.464080E+03	2.880859E-03	2.392587E-04
2.503823E+03	2.985783E-03	2.455466E-04
2.543566E+03	3.100227E-03	2.523895E-04
2.583309E+03	3.223200E-03	2.596781E-04
2.623052E+03	3.353716E-03	2.673058E-04
2.662796E+03	3.490852E-03	2.751737E-04
2.702539E+03	3.633789E-03	2.831934E-04
2.742282E+03	3.781836E-03	2.912890E-04
2.782025E+03	3.933895E-03	2.993552E-04
2.821769E+03	4.090105E-03	3.073838E-04
2.861512E+03	4.249101E-03	3.152538E-04
2.901255E+03	4.411930E-03	3.230260E-04
2.940998E+03	4.579303E-03	3.307326E-04
2.980741E+03	4.752136E-03	3.384171E-04
2.990677E+03	4.795954E-03	3.403146E-04
3.000613E+03	4.841053E-03	3.422754E-04
3.010549E+03	4.886246E-03	3.442148E-04
3.020485E+03	4.932147E-03	3.461755E-04
3.030420E+03	4.978769E-03	3.481579E-04
3.040356E+03	5.025518E-03	3.501199E-04
3.050292E+03	5.073625E-03	3.521467E-04
3.060228E+03	5.121887E-03	3.541538E-04
3.070164E+03	5.171544E-03	3.562266E-04
3.080099E+03	5.222000E-03	3.583228E-04
3.090035E+03	5.272655E-03	3.604006E-04
3.099971E+03	5.324762E-03	3.625452E-04
3.109907E+03	5.377723E-03	3.647144E-04
3.119843E+03	5.432182E-03	3.669512E-04
3.129779E+03	5.487535E-03	3.692136E-04
3.139714E+03	5.543803E-03	3.715020E-04
3.149650E+03	5.601637E-03	3.738589E-04
3.159586E+03	5.660429E-03	3.762427E-04
3.169522E+03	5.721474E-03	3.787380E-04
3.179458E+03	5.783527E-03	3.812608E-04
3.189393E+03	5.847251E-03	3.838536E-04
3.199329E+03	5.912673E-03	3.865168E-04
3.209265E+03	5.979824E-03	3.892506E-04
3.219201E+03	6.048732E-03	3.920553E-04
3.229137E+03	6.119427E-03	3.949314E-04
3.239072E+03	6.192592E-03	3.979208E-04
3.249008E+03	6.268264E-03	4.010239E-04
3.258944E+03	6.345827E-03	4.041990E-04
3.268880E+03	6.425970E-03	4.074882E-04
3.278816E+03	6.508736E-03	4.108916E-04
3.288751E+03	6.594165E-03	4.144096E-04
3.298687E+03	6.682301E-03	4.180422E-04
3.308623E+03	6.773854E-03	4.218312E-04
3.318559E+03	6.868208E-03	4.257354E-04
3.328495E+03	6.966083E-03	4.297965E-04
3.338430E+03	7.067534E-03	4.340147E-04
3.348366E+03	7.171943E-03	4.383489E-04
3.358302E+03	7.280721E-03	4.428822E-04
3.368238E+03	7.393258E-03	4.475734E-04
3.378174E+03	7.510304E-03	4.524645E-04
3.388109E+03	7.631935E-03	4.575557E-04
3.398045E+03	7.757542E-03	4.628065E-04
3.407981E+03	7.888586E-03	4.682998E-04
3.417917E+03	8.023771E-03	4.739541E-04
3.427853E+03	8.164580E-03	4.798525E-04
3.437788E+03	8.311115E-03	4.859959E-04
3.447724E+03	8.463497E-03	4.923858E-04
3.457660E+03	8.621824E-03	4.990227E-04
3.467596E+03	8.786213E-03	5.059074E-04
3.477532E+03	8.957459E-03	5.130799E-04
3.487467E+03	9.134907E-03	5.204964E-04
3.497403E+03	9.319328E-03	5.281949E-04
3.507339E+03	9.510707E-03	5.361677E-04
3.517275E+03	9.709003E-03	5.444062E-04
3.527211E+03	9.914145E-03	5.528997E-04
3.537146E+03	1.012671E-02	5.616739E-04
3.547082E+03	1.034651E-02	5.707111E-04
3.557018E+03	1.057332E-02	5.799923E-04
3.566954E+03	1.080613E-02	5.894553E-04
3.576890E+03	1.104613E-02	5.991594E-04
3.586826E+03	1.129228E-02	6.090421E-04
3.596761E+03	1.154507E-02	6.191228E-04
3.606697E+03	1.180349E-02	6.293415E-04
3.616633E+03	1.206801E-02	6.397181E-04
3.626569E+03	1.233829E-02	6.502285E-04
3.636505E+03	1.261323E-02	6.608092E-04
3.646440E+03	1.289389E-02	6.715120E-04
3.656376E+03	1.317906E-02	6.822679E-04
3.666312E+03	1.346821E-02	6.930455E-04
3.676248E+03	1.376082E-02	7.038149E-04
3.686184E+03	1.405731E-02	7.145937E-04
3.696119E+03	1.435665E-02	7.253259E-04
3.706055E+03	1.465879E-02	7.360068E-04
3.715991E+03	1.496586E-02	7.467401E-04
3.725927E+03	1.527649E-02	7.574525E-04
3.735863E+03	1.559425E-02	7.683179E-04
3.745798E+03	1.591883E-02	7.793139E-04
3.755734E+03	1.625499E-02	7.906657E-04
3.765670E+03	1.660377E-02	8.024134E-04
3.775606E+03	1.696801E-02	8.146808E-04
3.785542E+03	1.735221E-02	8.276691E-04
3.795477E+03	1.775693E-02	8.413857E-04
3.805413E+03	1.818673E-02	8.560265E-04
3.815349E+03	1.864125E-02	8.715517E-04
3.825285E+03	1.912413E-02	8.881067E-04
3.835221E+03	1.963229E-02	9.055244E-04
3.845156E+03	2.016556E-02	9.237729E-04
3.855092E+03	2.072039E-02	9.426680E-04
3.865028E+03	2.129194E-02	9.619711E-04
3.874964E+03	2.187325E-02	9.813555E-04
3.884900E+03	2.245892E-02	1.000573E-03
3.894835E+03	2.304001E-02	1.019224E-03
3.904771E+03	2.360672E-02	1.036884E-03
3.914707E+03	2.414964E-02	1.053157E-03
3.924643E+03	2.466037E-02	1.067705E-03
3.934579E+03	2.512881E-02	1.080123E-03
3.944514E+03	2.554626E-02	1.090082E-03
3.954450E+03	2.590506E-02	1.097308E-03
3.964386E+03	2.620117E-02	1.101687E-03
3.974322E+03	2.642800E-02	1.103003E-03
3.984258E+03	2.658619E-02	1.101350E-03
3.994194E+03	2.667575E-02	1.096793E-03
4.004129E+03	2.669850E-02	1.089472E-03
4.014065E+03	2.666064E-02	1.079701E-03
4.024001E+03	2.656833E-02	1.067786E-03
4.033937E+03	2.642992E-02	1.054109E-03
4.043873E+03	2.625242E-02	1.038993E-03
4.053808E+03	2.604468E-02	1.022821E-03
4.063744E+03	2.581601E-02	1.005985E-03
4.073680E+03	2.557394E-02	9.887958E-04
4.083616E+03	2.532633E-02	9.715678E-04
4.093552E+03	2.507981E-02	9.545589E-04
4.103487E+03	2.484125E-02	9.380281E-04
4.113423E+03	2.461508E-02	9.221344E-04
4.123359E+03	2.440665E-02	9.070668E-04
4.133295E+03	2.421851E-02	8.929036E-04
4.143231E+03	2.405353E-02	8.797323E-04
4.153166E+03	2.391207E-02	8.675468E-04
4.163102E+03	2.379435E-02	8.563347E-04
4.173038E+03	2.369872E-02	8.460177E-04
4.182974E+03	2.362360E-02	8.365213E-04
4.192910E+03	2.356628E-02	8.277339E-04
4.202845E+03	2.352309E-02	8.195139E-04
4.212781E+03	2.349067E-02	8.117335E-04
4.222717E+03	2.346499E-02	8.042478E-04
4.232653E+03	2.344185E-02	7.969094E-04
4.242589E+03	2.341641E-02	7.895547E-04
4.252524E+03	2.338360E-02	7.820169E-04
4.262460E+03	2.333956E-02	7.741763E-04
4.272396E+03	2.327887E-02	7.658646E-04
4.282332E+03	2.319695E-02	7.569476E-04
4.292268E+03	2.309088E-02	7.473483E-04
4.302203E+03	2.295702E-02	7.369704E-04
4.312139E+03	2.279500E-02	7.258251E-04
4.322075E+03	2.260442E-02	7.139213E-04
4.332011E+03	2.238790E-02	7.013642E-04
4.341947E+03	2.215147E-02	6.883606E-04
4.351882E+03	2.190237E-02	6.751485E-04
4.361818E+03	2.164902E-02	6.619940E-04
4.371754E+03	2.140139E-02	6.492023E-04
4.381690E+03	2.116978E-02	6.370785E-04
4.391626E+03	2.096674E-02	6.259853E-04
4.401562E+03	2.080888E-02	6.163933E-04
4.411497E+03	2.071459E-02	6.088115E-04
4.421433E+03	2.070068E-02	6.036865E-04
4.431369E+03	2.077915E-02	6.013120E-04
4.441305E+03	2.095972E-02	6.019071E-04
4.451241E+03	2.125177E-02	6.056735E-04
4.461176E+03	2.166081E-02	6.126952E-04
4.471112E+03	2.219073E-02	6.230085E-04
4.481048E+03	2.284407E-02	6.366102E-04
4.490984E+03	2.361774E-02	6.533412E-04
4.500920E+03	2.450555E-02	6.729628E-04
4.510855E+03	2.549867E-02	6.951697E-04
4.520791E+03	2.658193E-02	7.194938E-04
4.530727E+03	2.773603E-02	7.453695E-04
4.540663E+03	2.893696E-02	7.721203E-04
4.550599E+03	3.015646E-02	7.989766E-04
4.560534E+03	3.136275E-02	8.250964E-04
4.570470E+03	3.252137E-02	8.495911E-04
4.580406E+03	3.359925E-02	8.716331E-04
4.590342E+03	3.456412E-02	8.904374E-04
4.600278E+03	3.538569E-02	9.052914E-04
4.610213E+03	3.604321E-02	9.157452E-04
4.620149E+03	3.652108E-02	9.214913E-04
4.630085E+03	3.680991E-02	9.223865E-04
4.640021E+03	3.691297E-02	9.186078E-04
4.649957E+03	3.684076E-02	9.105076E-04
4.659892E+03	3.660982E-02	8.985771E-04
4.669828E+03	3.624568E-02	8.835151E-04
4.679764E+03	3.577715E-02	8.660817E-04
4.689700E+03	3.523402E-02	8.470405E-04
4.699636E+03	3.464399E-02	8.270857E-04
4.709571E+03	3.403412E-02	8.068776E-04
4.719507E+03	3.342768E-02	7.869699E-04
4.729443E+03	3.284382E-02	7.678039E-04
4.739379E+03	3.229890E-02	7.497450E-04
4.749315E+03	3.180577E-02	7.330667E-04
4.759250E+03	3.137270E-02	7.179296E-04
4.769186E+03	3.100550E-02	7.044333E-04
4.779122E+03	3.070663E-02	6.925984E-04
4.789058E+03	3.047417E-02	6.823459E-04
4.798994E+03	3.030275E-02	6.735215E-04
4.808930E+03	3.018796E-02	6.659959E-04
4.818865E+03	3.012369E-02	6.596052E-04
4.828801E+03	3.010307E-02	6.541734E-04
4.838737E+03	3.011963E-02	6.495376E-04
4.848673E+03	3.016565E-02	6.455125E-04
4.858609E+03	3.023288E-02	6.419063E-04
4.868544E+03	3.031122E-02	6.384943E-04
4.878480E+03	3.038657E-02	6.349751E-04
4.888416E+03	3.044262E-02	6.310104E-04
4.898352E+03	3.046255E-02	6.262633E-04
4.908288E+03	3.042895E-02	6.203962E-04
4.918223E+03	3.032512E-02	6.130982E-04
4.928159E+03	3.013746E-02	6.041322E-04
4.938095E+03	2.985990E-02	5.934206E-04
4.948031E+03	2.949085E-02	5.809792E-04
4.957967E+03	2.903312E-02	5.669110E-04
4.967902E+03	2.849979E-02	5.515164E-04
4.977838E+03	2.790759E-02	5.351574E-04
4.987774E+03	2.727314E-02	5.181823E-04
4.997710E+03	2.661588E-02	5.009816E-04
5.007646E+03	2.595329E-02	4.838954E-04
5.017581E+03	2.530238E-02	4.672425E-04
5.027517E+03	2.467865E-02	4.513025E-04
5.037453E+03	2.409551E-02	4.363060E-04
5.047389E+03	2.356456E-02	4.224413E-04
5.057325E+03	2.309464E-02	4.098391E-04
5.067260E+03	2.269289E-02	3.985938E-04
5.077196E+03	2.236543E-02	3.887771E-04
5.087132E+03	2.211682E-02	3.804287E-04
5.097068E+03	2.195144E-02	3.735823E-04
5.107004E+03	2.187253E-02	3.682490E-04
5.116939E+03	2.188312E-02	3.644342E-04
5.126875E+03	2.198472E-02	3.621163E-04
5.136811E+03	2.217987E-02	3.612895E-04
5.146747E+03	2.246909E-02	3.619140E-04
5.156683E+03	2.285263E-02	3.639457E-04
5.166618E+03	2.332965E-02	3.673241E-04
5.176554E+03	2.389651E-02	3.719465E-04
5.186490E+03	2.454768E-02	3.776845E-04
5.196426E+03	2.527580E-02	3.843873E-04
5.206362E+03	2.607092E-02	3.918714E-04
5.216298E+03	2.691977E-02	3.999127E-04
5.226233E+03	2.780753E-02	4.082747E-04
5.236169E+03	2.871947E-02	4.167344E-04
5.246105E+03	2.963816E-02	4.250412E-04
5.256041E+03	3.054653E-02	4.329634E-04
5.265977E+03	3.142974E-02	4.403124E-04
5.275912E+03	3.227252E-02	4.469047E-04
5.285848E+03	3.306301E-02	4.526141E-04
5.295784E+03	3.379695E-02	4.574246E-04
5.305720E+03	3.447453E-02	4.613829E-04
5.315656E+03	3.510036E-02	4.645938E-04
5.325591E+03	3.569248E-02	4.673351E-04
5.335527E+03	3.627484E-02	4.699504E-04
5.345463E+03	3.687519E-02	4.728201E-04
5.355399E+03	3.752816E-02	4.763975E-04
5.365335E+03	3.827226E-02	4.811698E-04
5.375270E+03	3.914616E-02	4.876109E-04
5.385206E+03	4.018778E-02	4.961726E-04
5.395142E+03	4.143467E-02	5.072927E-04
5.405078E+03	4.292690E-02	5.214330E-04
5.415014E+03	4.469240E-02	5.389046E-04
5.424949E+03	4.672217E-02	5.595794E-04
5.434885E+03	4.896801E-02	5.828793E-04
5.444821E+03	5.136645E-02	6.080724E-04
5.454757E+03	5.383833E-02	6.342678E-04
5.464693E+03	5.629392E-02	6.604673E-04
5.474628E+03	5.864189E-02	6.856506E-04
5.484564E+03	6.078771E-02	7.087630E-04
5.494500E+03	6.263922E-02	7.287777E-04
5.504436E+03	6.412562E-02	7.449092E-04
5.514372E+03	6.519242E-02	7.565488E-04
5.524307E+03	6.580177E-02	7.632645E-04
5.534243E+03	6.594697E-02	7.649682E-04
5.544179E+03	6.564002E-02	7.617722E-04
5.554115E+03	6.491056E-02	7.539796E-04
5.564051E+03	6.380603E-02	7.420901E-04
5.573986E+03	6.238299E-02	7.267041E-04
5.583922E+03	6.070382E-02	7.084890E-04
5.593858E+03	5.883720E-02	6.881882E-04
5.603794E+03	5.684979E-02	6.665283E-04
5.613730E+03	5.480561E-02	6.442139E-04
5.623665E+03	5.276702E-02	6.219401E-04
5.633601E+03	5.078910E-02	6.003280E-04
5.643537E+03	4.891816E-02	5.799059E-04
5.653473E+03	4.719033E-02	5.610920E-04
5.663409E+03	4.563361E-02	5.442158E-04
5.673345E+03	4.426824E-02	5.295220E-04
5.683280E+03	4.310486E-02	5.171452E-04
5.693216E+03	4.214850E-02	5.071559E-04
5.703152E+03	4.140035E-02	4.995809E-04
5.713088E+03	4.085203E-02	4.943314E-04
5.723024E+03	4.049216E-02	4.912812E-04
5.732959E+03	4.030749E-02	4.902800E-04
5.742895E+03	4.027267E-02	4.910270E-04
5.752831E+03	4.036105E-02	4.932023E-04
5.762767E+03	4.054181E-02	4.964307E-04
5.772703E+03	4.078092E-02	5.002942E-04
5.782638E+03	4.104053E-02	5.043238E-04
5.792574E+03	4.128400E-02	5.080627E-04
5.802510E+03	4.147879E-02	5.111024E-04
5.812446E+03	4.159422E-02	5.130563E-04
5.822382E+03	4.160361E-02	5.135873E-04
5.832317E+03	4.149182E-02	5.125020E-04
5.842253E+03	4.124850E-02	5.096682E-04
5.852189E+03	4.086845E-02	5.050204E-04
5.862125E+03	4.035539E-02	4.986059E-04
5.872061E+03	3.971624E-02	4.905146E-04
5.881996E+03	3.896167E-02	4.808859E-04
5.891932E+03	3.810717E-02	4.699204E-04
5.901868E+03	3.716967E-02	4.578385E-04
5.911804E+03	3.616633E-02	4.448644E-04
5.921740E+03	3.511717E-02	4.312581E-04
5.931675E+03	3.404164E-02	4.172719E-04
5.941611E+03	3.295785E-02	4.031411E-04
5.951547E+03	3.188352E-02	3.890944E-04
5.961483E+03	3.083481E-02	3.753397E-04
5.971419E+03	2.982555E-02	3.620542E-04
5.981354E+03	2.886649E-02	3.493756E-04
5.991290E+03	2.796699E-02	3.374221E-04
6.001226E+03	2.713311E-02	3.262707E-04
6.011162E+03	2.636674E-02	3.159455E-04
6.021098E+03	2.566854E-02	3.064555E-04
6.031033E+03	2.503748E-02	2.977883E-04
6.040969E+03	2.446968E-02	2.898971E-04
6.050905E+03	2.396045E-02	2.827261E-04
6.060841E+03	2.350582E-02	2.762276E-04
6.070777E+03	2.310063E-02	2.703410E-04
6.080713E+03	2.273983E-02	2.650078E-04
6.090648E+03	2.241963E-02	2.601845E-04
6.100584E+03	2.213766E-02	2.558452E-04
6.110520E+03	2.189176E-02	2.519666E-04
6.120456E+03	2.168096E-02	2.485402E-04
6.130392E+03	2.150620E-02	2.455793E-04
6.140327E+03	2.136837E-02	2.430969E-04
6.150263E+03	2.126866E-02	2.411099E-04
6.160199E+03	2.120678E-02	2.396190E-04
6.170135E+03	2.118271E-02	2.386286E-04
6.180071E+03	2.119541E-02	2.381328E-04
6.190006E+03	2.124311E-02	2.381183E-04
6.199942E+03	2.132340E-02	2.385664E-04
6.209878E+03	2.143401E-02	2.394609E-04
6.219814E+03	2.157301E-02	2.407911E-04
6.229750E+03	2.173841E-02	2.425466E-04
6.239685E+03	2.192930E-02	2.447306E-04
6.249621E+03	2.214661E-02	2.473679E-04
6.259557E+03	2.239195E-02	2.504921E-04
6.269493E+03	2.266899E-02	2.541615E-04
6.279429E+03	2.298643E-02	2.584927E-04
6.289364E+03	2.335555E-02	2.636346E-04
6.299300E+03	2.378681E-02	2.697311E-04
6.309236E+03	2.428696E-02	2.768874E-04
6.319172E+03	2.486207E-02	2.851962E-04
6.329108E+03	2.551547E-02	2.947199E-04
6.339043E+03	2.624566E-02	3.054684E-04
6.348979E+03	2.704758E-02	3.174120E-04
6.358915E+03	2.791535E-02	3.305112E-04
6.368851E+03	2.884463E-02	3.447439E-04
6.378787E+03	2.983024E-02	3.600776E-04
6.388722E+03	3.087017E-02	3.765161E-04
6.398658E+03	3.197142E-02	3.941742E-04
6.408594E+03	3.314719E-02	4.132477E-04
6.418530E+03	3.441306E-02	4.339708E-04
6.428466E+03	3.576819E-02	4.563776E-04
6.438401E+03	3.717237E-02	4.799945E-04
6.448337E+03	3.857090E-02	5.041336E-04
6.458273E+03	3.991802E-02	5.281891E-04
6.468209E+03	4.116984E-02	5.515483E-04
6.478145E+03	4.228312E-02	5.735753E-04
6.488081E+03	4.322664E-02	5.937663E-04
6.498016E+03	4.397407E-02	6.116609E-04
6.507952E+03	4.450500E-02	6.268603E-04
6.517888E+03	4.480769E-02	6.390720E-04
6.527824E+03	4.487904E-02	6.481175E-04
6.537760E+03	4.472006E-02	6.538747E-04
6.547695E+03	4.434106E-02	6.563585E-04
6.557631E+03	4.375542E-02	6.556369E-04
6.567567E+03	4.298230E-02	6.518757E-04
6.577503E+03	4.204396E-02	6.453028E-04
6.587439E+03	4.096578E-02	6.362118E-04
6.597374E+03	3.977333E-02	6.249193E-04
6.607310E+03	3.849443E-02	6.117981E-04
6.617246E+03	3.715626E-02	5.972323E-04
6.627182E+03	3.578368E-02	5.815897E-04
6.637118E+03	3.440043E-02	5.652396E-04
6.647053E+03	3.302836E-02	5.485376E-04
6.656989E+03	3.168585E-02	5.317985E-04
6.666925E+03	3.038809E-02	5.152960E-04
6.676861E+03	2.914749E-02	4.992682E-04
6.686797E+03	2.797353E-02	4.839109E-04
6.696732E+03	2.687237E-02	4.693690E-04
6.706668E+03	2.584749E-02	4.557439E-04
6.716604E+03	2.490103E-02	4.431150E-04
6.726540E+03	2.403202E-02	4.315073E-04
6.736476E+03	2.323838E-02	4.209241E-04
6.746411E+03	2.251709E-02	4.113495E-04
6.756347E+03	2.186444E-02	4.027525E-04
6.766283E+03	2.127567E-02	3.950794E-04
6.776219E+03	2.074641E-02	3.882800E-04
6.786155E+03	2.027240E-02	3.823033E-04
6.796090E+03	1.984909E-02	3.770889E-04
6.806026E+03	1.947248E-02	3.725838E-04
6.815962E+03	1.913894E-02	3.687397E-04
6.825898E+03	1.884465E-02	3.655014E-04
6.835834E+03	1.858645E-02	3.628239E-04
6.845769E+03	1.836092E-02	3.606551E-04
6.855705E+03	1.816521E-02	3.589518E-04
6.865641E+03	1.799639E-02	3.576673E-04
6.875577E+03	1.785129E-02	3.567483E-04
6.885513E+03	1.772726E-02	3.561498E-04
6.895449E+03	1.762139E-02	3.558201E-04
6.905384E+03	1.753141E-02	3.557189E-04
6.915320E+03	1.745498E-02	3.558034E-04
6.925256E+03	1.738981E-02	3.560306E-04
6.935192E+03	1.733426E-02	3.563697E-04
6.945128E+03	1.728716E-02	3.567986E-04
6.955063E+03	1.724714E-02	3.572912E-04
6.964999E+03	1.721378E-02	3.578396E-04
6.974935E+03	1.718647E-02	3.584328E-04
6.984871E+03	1.716483E-02	3.590633E-04
6.994807E+03	1.714961E-02	3.597477E-04
7.004742E+03	1.714113E-02	3.604932E-04
7.014678E+03	1.713984E-02	3.613102E-04
7.024614E+03	1.714708E-02	3.622271E-04
7.034550E+03	1.716322E-02	3.632527E-04
7.044486E+03	1.718972E-02	3.644180E-04
7.054421E+03	1.722755E-02	3.657438E-04
7.064357E+03	1.727725E-02	3.672416E-04
7.074293E+03	1.733992E-02	3.689346E-04
7.084229E+03	1.741620E-02	3.708360E-04
7.094165E+03	1.750664E-02	3.729566E-04
7.104100E+03	1.761143E-02	3.752992E-04
7.114036E+03	1.773037E-02	3.778582E-04
7.123972E+03	1.786376E-02	3.806376E-04
7.133908E+03	1.801084E-02	3.836192E-04
7.143844E+03	1.817114E-02	3.867900E-04
7.153779E+03	1.834332E-02	3.901185E-04
7.163715E+03	1.852661E-02	3.935848E-04
7.173651E+03	1.871981E-02	3.971600E-04
7.183587E+03	1.892115E-02	4.008027E-04
7.193523E+03	1.912977E-02	4.044906E-04
7.203458E+03	1.934393E-02	4.081834E-04
7.213394E+03	1.956241E-02	4.118509E-04
7.223330E+03	1.978376E-02	4.154594E-04
7.233266E+03	2.000729E-02	4.189903E-04
7.243202E+03	2.023189E-02	4.224169E-04
7.253137E+03	2.045678E-02	4.257195E-04
7.263073E+03	2.068085E-02	4.288721E-04
7.273009E+03	2.090413E-02	4.318723E-04
7.282945E+03	2.112561E-02	4.346963E-04
7.292881E+03	2.134459E-02	4.373276E-04
7.302817E+03	2.156117E-02	4.397658E-04
7.312752E+03	2.177434E-02	4.419884E-04
7.322688E+03	2.198312E-02	4.439740E-04
7.332624E+03	2.218703E-02	4.457117E-04
7.342560E+03	2.238488E-02	4.471774E-04
7.352496E+03	2.257578E-02	4.483530E-04
7.362431E+03	2.275790E-02	4.492030E-04
7.372367E+03	2.293019E-02	4.497083E-04
7.382303E+03	2.309126E-02	4.498444E-04
7.392239E+03	2.323974E-02	4.495876E-04
7.402175E+03	2.337414E-02	4.489139E-04
7.412110E+03	2.349430E-02	4.478255E-04
7.422046E+03	2.359913E-02	4.463077E-04
7.431982E+03	2.368885E-02	4.443718E-04
7.441918E+03	2.376432E-02	4.420411E-04
7.451854E+03	2.382713E-02	4.393526E-04
7.461789E+03	2.387864E-02	4.363382E-04
7.471725E+03	2.392142E-02	4.330520E-04
7.481661E+03	2.395777E-02	4.295413E-04
7.491597E+03	2.399099E-02	4.258699E-04
7.501533E+03	2.402381E-02	4.220899E-04
7.511468E+03	2.405873E-02	4.182474E-04
7.521404E+03	2.409862E-02	4.143936E-04
7.531340E+03	2.414594E-02	4.105701E-04
7.541276E+03	2.420226E-02	4.068027E-04
7.551212E+03	2.427010E-02	4.031309E-04
7.561147E+03	2.435051E-02	3.995691E-04
7.571083E+03	2.444547E-02	3.961455E-04
7.581019E+03	2.455684E-02	3.928854E-04
7.590955E+03	2.468590E-02	3.898036E-04
7.600891E+03	2.483346E-02	3.869065E-04
7.610826E+03	2.500012E-02	3.841974E-04
7.620762E+03	2.518241E-02	3.816177E-04
7.630698E+03	2.537685E-02	3.791121E-04
7.640634E+03	2.557816E-02	3.766030E-04
7.650570E+03	2.577977E-02	3.739988E-04
7.660505E+03	2.597463E-02	3.712086E-04
7.670441E+03	2.615481E-02	3.681356E-04
7.680377E+03	2.631289E-02	3.646985E-04
7.690313E+03	2.644075E-02	3.608135E-04
7.700249E+03	2.653117E-02	3.564175E-04
7.710184E+03	2.657698E-02	3.514547E-04
