#wls	flux	fluxerr
1.589729E+03	2.977286E-03	2.047954E-05
1.629472E+03	2.835407E-03	1.947771E-05
1.669215E+03	2.706524E-03	1.856700E-05
1.708958E+03	2.589540E-03	1.773960E-05
1.748702E+03	2.484422E-03	1.699502E-05
1.788445E+03	2.390598E-03	1.632907E-05
1.828188E+03	2.307975E-03	1.574082E-05
1.867931E+03	2.235549E-03	1.522315E-05
1.907675E+03	2.173252E-03	1.477532E-05
1.947418E+03	2.120585E-03	1.439364E-05
1.987161E+03	2.077485E-03	1.407740E-05
2.026904E+03	2.043497E-03	1.382321E-05
2.066647E+03	2.017819E-03	1.362537E-05
2.106391E+03	2.000846E-03	1.348625E-05
2.146134E+03	1.991834E-03	1.340052E-05
2.185877E+03	1.990829E-03	1.336820E-05
2.225620E+03	1.997150E-03	1.338440E-05
2.265363E+03	2.011249E-03	1.345185E-05
2.305107E+03	2.032109E-03	1.356341E-05
2.344850E+03	2.060208E-03	1.372198E-05
2.384593E+03	2.094919E-03	1.392302E-05
2.424336E+03	2.135989E-03	1.416455E-05
2.464080E+03	2.183550E-03	1.444709E-05
2.503823E+03	2.237361E-03	1.476872E-05
2.543566E+03	2.297191E-03	1.512756E-05
2.583309E+03	2.362810E-03	1.552174E-05
2.623052E+03	2.434001E-03	1.594949E-05
2.662796E+03	2.510970E-03	1.641178E-05
2.702539E+03	2.593548E-03	1.690715E-05
2.742282E+03	2.681592E-03	1.743429E-05
2.782025E+03	2.775838E-03	1.799755E-05
2.821769E+03	2.876235E-03	1.859619E-05
2.861512E+03	2.982769E-03	1.922965E-05
2.901255E+03	3.096795E-03	1.990617E-05
2.940998E+03	3.218880E-03	2.062884E-05
2.980741E+03	3.350121E-03	2.140405E-05
2.990677E+03	3.384577E-03	2.160735E-05
3.000613E+03	3.419657E-03	2.181421E-05
3.010549E+03	3.455364E-03	2.202464E-05
3.020485E+03	3.491704E-03	2.223866E-05
3.030420E+03	3.528683E-03	2.245629E-05
3.040356E+03	3.566771E-03	2.268052E-05
3.050292E+03	3.605513E-03	2.290843E-05
3.060228E+03	3.644914E-03	2.314003E-05
3.070164E+03	3.685451E-03	2.337836E-05
3.080099E+03	3.726661E-03	2.362045E-05
3.090035E+03	3.769028E-03	2.386934E-05
3.099971E+03	3.812085E-03	2.412206E-05
3.109907E+03	3.856316E-03	2.438167E-05
3.119843E+03	3.901735E-03	2.464823E-05
3.129779E+03	3.947869E-03	2.491873E-05
3.139714E+03	3.995696E-03	2.519932E-05
3.149650E+03	4.044261E-03	2.548395E-05
3.159586E+03	4.094056E-03	2.577572E-05
3.169522E+03	4.145096E-03	2.607468E-05
3.179458E+03	4.197393E-03	2.638089E-05
3.189393E+03	4.251450E-03	2.669748E-05
3.199329E+03	4.306794E-03	2.702146E-05
3.209265E+03	4.363434E-03	2.735285E-05
3.219201E+03	4.421386E-03	2.769174E-05
3.229137E+03	4.481158E-03	2.804127E-05
3.239072E+03	4.542772E-03	2.840154E-05
3.249008E+03	4.605740E-03	2.876948E-05
3.258944E+03	4.670579E-03	2.914828E-05
3.268880E+03	4.737308E-03	2.953802E-05
3.278816E+03	4.805943E-03	2.993878E-05
3.288751E+03	4.876502E-03	3.035062E-05
3.298687E+03	4.949001E-03	3.077360E-05
3.308623E+03	5.023970E-03	3.121098E-05
3.318559E+03	5.100403E-03	3.165647E-05
3.328495E+03	5.179856E-03	3.211969E-05
3.338430E+03	5.261321E-03	3.259433E-05
3.348366E+03	5.344813E-03	3.308045E-05
3.358302E+03	5.431389E-03	3.358453E-05
3.368238E+03	5.520027E-03	3.410022E-05
3.378174E+03	5.611790E-03	3.463401E-05
3.388109E+03	5.705646E-03	3.517951E-05
3.398045E+03	5.802665E-03	3.574324E-05
3.407981E+03	5.902867E-03	3.632527E-05
3.417917E+03	6.005742E-03	3.692240E-05
3.427853E+03	6.111836E-03	3.753793E-05
3.437788E+03	6.221167E-03	3.817190E-05
3.447724E+03	6.333217E-03	3.882108E-05
3.457660E+03	6.449073E-03	3.949206E-05
3.467596E+03	6.568756E-03	4.018490E-05
3.477532E+03	6.691201E-03	4.089301E-05
3.487467E+03	6.818047E-03	4.162634E-05
3.497403E+03	6.948225E-03	4.237826E-05
3.507339E+03	7.082293E-03	4.315213E-05
3.517275E+03	7.220264E-03	4.394794E-05
3.527211E+03	7.362150E-03	4.476567E-05
3.537146E+03	7.507962E-03	4.560532E-05
3.547082E+03	7.658259E-03	4.647019E-05
3.557018E+03	7.813050E-03	4.736024E-05
3.566954E+03	7.972336E-03	4.827539E-05
3.576890E+03	8.136113E-03	4.921552E-05
3.586826E+03	8.304369E-03	5.018045E-05
3.596761E+03	8.477072E-03	5.116990E-05
3.606697E+03	8.654753E-03	5.218698E-05
3.616633E+03	8.836793E-03	5.322785E-05
3.626569E+03	9.023683E-03	5.429537E-05
3.636505E+03	9.215929E-03	5.539248E-05
3.646440E+03	9.412293E-03	5.651163E-05
3.656376E+03	9.613845E-03	5.765915E-05
3.666312E+03	9.819941E-03	5.883106E-05
3.676248E+03	1.003111E-02	6.003044E-05
3.686184E+03	1.024737E-02	6.125729E-05
3.696119E+03	1.046883E-02	6.251209E-05
3.706055E+03	1.069564E-02	6.379569E-05
3.715991E+03	1.092811E-02	6.510978E-05
3.725927E+03	1.116723E-02	6.646016E-05
3.735863E+03	1.141294E-02	6.784636E-05
3.745798E+03	1.166709E-02	6.927912E-05
3.755734E+03	1.192926E-02	7.075581E-05
3.765670E+03	1.220085E-02	7.228456E-05
3.775606E+03	1.248271E-02	7.387020E-05
3.785542E+03	1.277623E-02	7.552072E-05
3.795477E+03	1.308214E-02	7.724016E-05
3.805413E+03	1.339977E-02	7.902438E-05
3.815349E+03	1.373119E-02	8.088519E-05
3.825285E+03	1.407573E-02	8.281847E-05
3.835221E+03	1.443230E-02	8.481745E-05
3.845156E+03	1.480108E-02	8.688297E-05
3.855092E+03	1.517933E-02	8.899867E-05
3.865028E+03	1.556608E-02	9.115867E-05
3.874964E+03	1.595859E-02	9.334674E-05
3.884900E+03	1.635230E-02	9.553608E-05
3.894835E+03	1.674457E-02	9.771131E-05
3.904771E+03	1.713115E-02	9.984767E-05
3.914707E+03	1.750688E-02	1.019152E-04
3.924643E+03	1.786773E-02	1.038906E-04
3.934579E+03	1.820910E-02	1.057476E-04
3.944514E+03	1.852606E-02	1.074579E-04
3.954450E+03	1.881476E-02	1.089997E-04
3.964386E+03	1.907321E-02	1.103622E-04
3.974322E+03	1.929722E-02	1.115217E-04
3.984258E+03	1.948652E-02	1.124774E-04
3.994194E+03	1.964065E-02	1.132273E-04
4.004129E+03	1.975953E-02	1.137719E-04
4.014065E+03	1.984467E-02	1.141205E-04
4.024001E+03	1.989839E-02	1.142871E-04
4.033937E+03	1.992374E-02	1.142900E-04
4.043873E+03	1.992432E-02	1.141503E-04
4.053808E+03	1.990356E-02	1.138883E-04
4.063744E+03	1.986615E-02	1.135313E-04
4.073680E+03	1.981579E-02	1.131006E-04
4.083616E+03	1.975606E-02	1.126170E-04
4.093552E+03	1.969133E-02	1.121056E-04
4.103487E+03	1.962463E-02	1.115837E-04
4.113423E+03	1.955905E-02	1.110690E-04
4.123359E+03	1.949716E-02	1.105759E-04
4.133295E+03	1.944013E-02	1.101111E-04
4.143231E+03	1.938991E-02	1.096855E-04
4.153166E+03	1.934699E-02	1.093016E-04
4.163102E+03	1.931173E-02	1.089615E-04
4.173038E+03	1.928356E-02	1.086616E-04
4.182974E+03	1.926144E-02	1.083962E-04
4.192910E+03	1.924432E-02	1.081590E-04
4.202845E+03	1.923078E-02	1.079419E-04
4.212781E+03	1.921834E-02	1.077312E-04
4.222717E+03	1.920517E-02	1.075164E-04
4.232653E+03	1.918893E-02	1.072846E-04
4.242589E+03	1.916773E-02	1.070252E-04
4.252524E+03	1.913909E-02	1.067245E-04
4.262460E+03	1.910190E-02	1.063766E-04
4.272396E+03	1.905408E-02	1.059700E-04
4.282332E+03	1.899510E-02	1.055021E-04
4.292268E+03	1.892512E-02	1.049740E-04
4.302203E+03	1.884439E-02	1.043873E-04
4.312139E+03	1.875463E-02	1.037519E-04
4.322075E+03	1.865782E-02	1.030787E-04
4.332011E+03	1.855708E-02	1.023853E-04
4.341947E+03	1.845667E-02	1.016952E-04
4.351882E+03	1.836124E-02	1.010340E-04
4.361818E+03	1.827545E-02	1.004272E-04
4.371754E+03	1.820558E-02	9.990900E-05
4.381690E+03	1.815729E-02	9.951020E-05
4.391626E+03	1.813664E-02	9.926337E-05
4.401562E+03	1.814952E-02	9.920017E-05
4.411497E+03	1.820148E-02	9.935017E-05
4.421433E+03	1.829727E-02	9.973837E-05
4.431369E+03	1.844168E-02	1.003899E-04
4.441305E+03	1.863805E-02	1.013219E-04
4.451241E+03	1.888916E-02	1.025483E-04
4.461176E+03	1.919626E-02	1.040747E-04
4.471112E+03	1.955868E-02	1.058961E-04
4.481048E+03	1.997553E-02	1.080067E-04
4.490984E+03	2.044288E-02	1.103840E-04
4.500920E+03	2.095609E-02	1.130018E-04
4.510855E+03	2.150748E-02	1.158179E-04
4.520791E+03	2.208834E-02	1.187845E-04
4.530727E+03	2.268815E-02	1.218445E-04
4.540663E+03	2.329452E-02	1.249312E-04
4.550599E+03	2.389381E-02	1.279712E-04
4.560534E+03	2.447163E-02	1.308879E-04
4.570470E+03	2.501381E-02	1.336060E-04
4.580406E+03	2.550649E-02	1.360523E-04
4.590342E+03	2.593710E-02	1.381611E-04
4.600278E+03	2.629550E-02	1.398797E-04
4.610213E+03	2.657391E-02	1.411685E-04
4.620149E+03	2.676799E-02	1.420060E-04
4.630085E+03	2.687675E-02	1.423889E-04
4.640021E+03	2.690189E-02	1.423282E-04
4.649957E+03	2.684885E-02	1.418543E-04
4.659892E+03	2.672572E-02	1.410115E-04
4.669828E+03	2.654264E-02	1.398550E-04
4.679764E+03	2.631052E-02	1.384433E-04
4.689700E+03	2.604192E-02	1.368435E-04
4.699636E+03	2.574857E-02	1.351179E-04
4.709571E+03	2.544259E-02	1.333307E-04
4.719507E+03	2.513419E-02	1.315355E-04
4.729443E+03	2.483286E-02	1.297818E-04
4.739379E+03	2.454616E-02	1.281092E-04
4.749315E+03	2.427997E-02	1.265478E-04
4.759250E+03	2.403901E-02	1.251219E-04
4.769186E+03	2.382519E-02	1.238407E-04
4.779122E+03	2.364010E-02	1.227120E-04
4.789058E+03	2.348350E-02	1.217340E-04
4.798994E+03	2.335399E-02	1.208987E-04
4.808930E+03	2.324933E-02	1.201941E-04
4.818865E+03	2.316651E-02	1.196041E-04
4.828801E+03	2.310218E-02	1.191109E-04
4.838737E+03	2.305222E-02	1.186930E-04
4.848673E+03	2.301209E-02	1.183268E-04
4.858609E+03	2.297717E-02	1.179883E-04
4.868544E+03	2.294187E-02	1.176487E-04
4.878480E+03	2.290149E-02	1.172840E-04
4.888416E+03	2.285086E-02	1.168679E-04
4.898352E+03	2.278507E-02	1.163755E-04
4.908288E+03	2.269996E-02	1.157859E-04
4.918223E+03	2.259135E-02	1.150783E-04
4.928159E+03	2.245712E-02	1.142423E-04
4.938095E+03	2.229584E-02	1.132711E-04
4.948031E+03	2.210718E-02	1.121638E-04
4.957967E+03	2.189295E-02	1.109299E-04
4.967902E+03	2.165524E-02	1.095806E-04
4.977838E+03	2.139830E-02	1.081378E-04
4.987774E+03	2.112657E-02	1.066244E-04
4.997710E+03	2.084543E-02	1.050677E-04
5.007646E+03	2.056090E-02	1.034982E-04
5.017581E+03	2.027870E-02	1.019446E-04
5.027517E+03	2.000494E-02	1.004378E-04
5.037453E+03	1.974526E-02	9.900566E-05
5.047389E+03	1.950469E-02	9.767315E-05
5.057325E+03	1.928820E-02	9.646480E-05
5.067260E+03	1.910003E-02	9.540128E-05
5.077196E+03	1.894387E-02	9.450045E-05
5.087132E+03	1.882290E-02	9.377755E-05
5.097068E+03	1.873981E-02	9.324524E-05
5.107004E+03	1.869683E-02	9.291397E-05
5.116939E+03	1.869576E-02	9.279193E-05
5.126875E+03	1.873806E-02	9.288553E-05
5.136811E+03	1.882478E-02	9.319920E-05
5.146747E+03	1.895664E-02	9.373573E-05
5.156683E+03	1.913400E-02	9.449606E-05
5.166618E+03	1.935689E-02	9.547954E-05
5.176554E+03	1.962502E-02	9.668403E-05
5.186490E+03	1.993778E-02	9.810569E-05
5.196426E+03	2.029428E-02	9.973937E-05
5.206362E+03	2.069352E-02	1.015796E-04
5.216298E+03	2.113365E-02	1.036164E-04
5.226233E+03	2.161321E-02	1.058422E-04
5.236169E+03	2.213028E-02	1.082468E-04
5.246105E+03	2.268280E-02	1.108198E-04
5.256041E+03	2.326831E-02	1.135485E-04
5.265977E+03	2.388494E-02	1.164235E-04
5.275912E+03	2.452987E-02	1.194305E-04
5.285848E+03	2.520106E-02	1.225593E-04
5.295784E+03	2.589616E-02	1.257981E-04
5.305720E+03	2.661362E-02	1.291392E-04
5.315656E+03	2.735204E-02	1.325756E-04
5.325591E+03	2.811020E-02	1.361012E-04
5.335527E+03	2.888785E-02	1.397146E-04
5.345463E+03	2.968452E-02	1.434134E-04
5.355399E+03	3.050017E-02	1.471972E-04
5.365335E+03	3.133502E-02	1.510671E-04
5.375270E+03	3.218826E-02	1.550189E-04
5.385206E+03	3.305835E-02	1.590452E-04
5.395142E+03	3.394367E-02	1.631382E-04
5.405078E+03	3.484017E-02	1.672784E-04
5.415014E+03	3.574201E-02	1.714378E-04
5.424949E+03	3.664238E-02	1.755839E-04
5.434885E+03	3.753085E-02	1.796670E-04
5.444821E+03	3.839540E-02	1.836300E-04
5.454757E+03	3.922227E-02	1.874078E-04
5.464693E+03	3.999541E-02	1.909244E-04
5.474628E+03	4.069691E-02	1.940951E-04
5.484564E+03	4.130846E-02	1.968339E-04
5.494500E+03	4.181224E-02	1.990572E-04
5.504436E+03	4.219028E-02	2.006809E-04
5.514372E+03	4.242895E-02	2.016420E-04
5.524307E+03	4.251595E-02	2.018837E-04
5.534243E+03	4.244470E-02	2.013766E-04
5.544179E+03	4.221305E-02	2.001125E-04
5.554115E+03	4.182586E-02	1.981162E-04
5.564051E+03	4.129211E-02	1.954319E-04
5.573986E+03	4.062750E-02	1.921353E-04
5.583922E+03	3.985240E-02	1.883240E-04
5.593858E+03	3.898969E-02	1.841072E-04
5.603794E+03	3.806627E-02	1.796125E-04
5.613730E+03	3.710867E-02	1.749655E-04
5.623665E+03	3.614478E-02	1.702978E-04
5.633601E+03	3.519984E-02	1.657279E-04
5.643537E+03	3.429830E-02	1.613707E-04
5.653473E+03	3.346039E-02	1.573207E-04
5.663409E+03	3.270412E-02	1.536616E-04
5.673345E+03	3.204357E-02	1.504586E-04
5.683280E+03	3.148925E-02	1.477602E-04
5.693216E+03	3.104777E-02	1.455960E-04
5.703152E+03	3.072278E-02	1.439823E-04
5.713088E+03	3.051389E-02	1.429160E-04
5.723024E+03	3.041779E-02	1.423807E-04
5.732959E+03	3.042690E-02	1.423399E-04
5.742895E+03	3.053144E-02	1.427470E-04
5.752831E+03	3.071746E-02	1.435361E-04
5.762767E+03	3.096829E-02	1.446287E-04
5.772703E+03	3.126461E-02	1.459341E-04
5.782638E+03	3.158478E-02	1.473511E-04
5.792574E+03	3.190654E-02	1.487759E-04
5.802510E+03	3.220676E-02	1.501006E-04
5.812446E+03	3.246342E-02	1.512228E-04
5.822382E+03	3.265671E-02	1.520507E-04
5.832317E+03	3.276871E-02	1.525013E-04
5.842253E+03	3.278610E-02	1.525132E-04
5.852189E+03	3.269940E-02	1.520429E-04
5.862125E+03	3.250331E-02	1.510664E-04
5.872061E+03	3.219729E-02	1.495818E-04
5.881996E+03	3.178530E-02	1.476081E-04
5.891932E+03	3.127418E-02	1.451776E-04
5.901868E+03	3.067513E-02	1.423427E-04
5.911804E+03	3.000032E-02	1.391601E-04
5.921740E+03	2.926534E-02	1.357026E-04
5.931675E+03	2.848490E-02	1.320384E-04
5.941611E+03	2.767530E-02	1.282431E-04
5.951547E+03	2.685143E-02	1.243857E-04
5.961483E+03	2.602740E-02	1.205315E-04
5.971419E+03	2.521558E-02	1.167376E-04
5.981354E+03	2.442712E-02	1.130554E-04
5.991290E+03	2.367101E-02	1.095264E-04
6.001226E+03	2.295413E-02	1.061820E-04
6.011162E+03	2.228155E-02	1.030455E-04
6.021098E+03	2.165734E-02	1.001354E-04
6.031033E+03	2.108319E-02	9.745928E-05
6.040969E+03	2.056011E-02	9.502153E-05
6.050905E+03	2.008763E-02	9.281977E-05
6.060841E+03	1.966456E-02	9.084829E-05
6.070777E+03	1.928902E-02	8.909818E-05
6.080713E+03	1.895838E-02	8.755713E-05
6.090648E+03	1.866979E-02	8.621186E-05
6.100584E+03	1.842017E-02	8.504798E-05
6.110520E+03	1.820626E-02	8.405034E-05
6.120456E+03	1.802464E-02	8.320304E-05
6.130392E+03	1.787241E-02	8.249269E-05
6.140327E+03	1.774651E-02	8.190502E-05
6.150263E+03	1.764405E-02	8.142668E-05
6.160199E+03	1.756206E-02	8.104392E-05
6.170135E+03	1.749856E-02	8.074764E-05
6.180071E+03	1.745147E-02	8.052812E-05
6.190006E+03	1.741928E-02	8.037845E-05
6.199942E+03	1.740116E-02	8.029482E-05
6.209878E+03	1.739649E-02	8.027433E-05
6.219814E+03	1.740578E-02	8.031928E-05
6.229750E+03	1.742961E-02	8.043251E-05
6.239685E+03	1.746961E-02	8.062143E-05
6.249621E+03	1.752800E-02	8.089638E-05
6.259557E+03	1.760742E-02	8.126953E-05
6.269493E+03	1.771095E-02	8.175518E-05
6.279429E+03	1.784202E-02	8.236914E-05
6.289364E+03	1.800455E-02	8.312960E-05
6.299300E+03	1.820172E-02	8.405134E-05
6.309236E+03	1.843723E-02	8.515141E-05
6.319172E+03	1.871394E-02	8.644325E-05
6.329108E+03	1.903395E-02	8.793660E-05
6.339043E+03	1.939932E-02	8.964111E-05
6.348979E+03	1.981017E-02	9.155752E-05
6.358915E+03	2.026609E-02	9.368411E-05
6.368851E+03	2.076536E-02	9.601306E-05
6.378787E+03	2.130461E-02	9.852903E-05
6.388722E+03	2.187887E-02	1.012092E-04
6.398658E+03	2.248169E-02	1.040239E-04
6.408594E+03	2.310486E-02	1.069352E-04
6.418530E+03	2.373845E-02	1.098974E-04
6.428466E+03	2.437061E-02	1.128557E-04
6.438401E+03	2.498826E-02	1.157495E-04
6.448337E+03	2.557743E-02	1.185142E-04
6.458273E+03	2.612268E-02	1.210780E-04
6.468209E+03	2.660914E-02	1.233719E-04
6.478145E+03	2.702095E-02	1.253221E-04
6.488081E+03	2.734415E-02	1.268636E-04
6.498016E+03	2.756683E-02	1.279406E-04
6.507952E+03	2.767827E-02	1.285028E-04
6.517888E+03	2.767211E-02	1.285203E-04
6.527824E+03	2.754445E-02	1.279743E-04
6.537760E+03	2.729488E-02	1.268621E-04
6.547695E+03	2.692743E-02	1.252020E-04
6.557631E+03	2.644862E-02	1.230234E-04
6.567567E+03	2.586820E-02	1.203711E-04
6.577503E+03	2.519839E-02	1.173014E-04
6.587439E+03	2.445325E-02	1.138791E-04
6.597374E+03	2.364821E-02	1.101755E-04
6.607310E+03	2.279862E-02	1.062620E-04
6.617246E+03	2.191994E-02	1.022100E-04
6.627182E+03	2.102715E-02	9.808936E-05
6.637118E+03	2.013378E-02	9.396292E-05
6.647053E+03	1.925166E-02	8.988591E-05
6.656989E+03	1.839160E-02	8.590871E-05
6.666925E+03	1.756175E-02	8.206955E-05
6.676861E+03	1.676911E-02	7.840128E-05
6.686797E+03	1.601879E-02	7.492789E-05
6.696732E+03	1.531432E-02	7.166617E-05
6.706668E+03	1.465784E-02	6.862640E-05
6.716604E+03	1.405048E-02	6.581408E-05
6.726540E+03	1.349201E-02	6.322849E-05
6.736476E+03	1.298177E-02	6.086678E-05
6.746411E+03	1.251818E-02	5.872181E-05
6.756347E+03	1.209936E-02	5.678505E-05
6.766283E+03	1.172341E-02	5.504792E-05
6.776219E+03	1.138772E-02	5.349833E-05
6.786155E+03	1.108983E-02	5.212509E-05
6.796090E+03	1.082757E-02	5.091812E-05
6.806026E+03	1.059825E-02	4.986509E-05
6.815962E+03	1.039966E-02	4.895578E-05
6.825898E+03	1.022954E-02	4.817979E-05
6.835834E+03	1.008572E-02	4.752705E-05
6.845769E+03	9.966151E-03	4.698809E-05
6.855705E+03	9.868857E-03	4.655376E-05
6.865641E+03	9.791845E-03	4.621481E-05
6.875577E+03	9.733554E-03	4.596402E-05
6.885513E+03	9.692047E-03	4.579237E-05
6.895449E+03	9.665916E-03	4.569332E-05
6.905384E+03	9.653395E-03	4.565864E-05
6.915320E+03	9.653265E-03	4.568266E-05
6.925256E+03	9.663928E-03	4.575789E-05
6.935192E+03	9.684273E-03	4.587917E-05
6.945128E+03	9.713180E-03	4.604126E-05
6.955063E+03	9.749679E-03	4.623962E-05
6.964999E+03	9.792804E-03	4.646972E-05
6.974935E+03	9.842088E-03	4.672941E-05
6.984871E+03	9.896755E-03	4.701503E-05
6.994807E+03	9.956364E-03	4.732455E-05
7.004742E+03	1.002086E-02	4.765773E-05
7.014678E+03	1.008968E-02	4.801194E-05
7.024614E+03	1.016308E-02	4.838847E-05
7.034550E+03	1.024069E-02	4.878552E-05
7.044486E+03	1.032278E-02	4.920445E-05
7.054421E+03	1.040942E-02	4.964566E-05
7.064357E+03	1.050048E-02	5.010854E-05
7.074293E+03	1.059633E-02	5.059489E-05
7.084229E+03	1.069695E-02	5.110466E-05
7.094165E+03	1.080245E-02	5.163842E-05
7.104100E+03	1.091272E-02	5.219575E-05
7.114036E+03	1.102809E-02	5.277815E-05
7.123972E+03	1.114820E-02	5.338405E-05
7.133908E+03	1.127324E-02	5.401436E-05
7.143844E+03	1.140259E-02	5.466618E-05
7.153779E+03	1.153642E-02	5.534033E-05
7.163715E+03	1.167409E-02	5.603385E-05
7.173651E+03	1.181523E-02	5.674487E-05
7.183587E+03	1.195947E-02	5.747179E-05
7.193523E+03	1.210617E-02	5.821153E-05
7.203458E+03	1.225477E-02	5.896135E-05
7.213394E+03	1.240482E-02	5.971920E-05
7.223330E+03	1.255543E-02	6.048079E-05
7.233266E+03	1.270634E-02	6.124482E-05
7.243202E+03	1.285682E-02	6.200790E-05
7.253137E+03	1.300621E-02	6.276673E-05
7.263073E+03	1.315435E-02	6.352063E-05
7.273009E+03	1.330051E-02	6.426601E-05
7.282945E+03	1.344449E-02	6.500191E-05
7.292881E+03	1.358598E-02	6.572686E-05
7.302817E+03	1.372475E-02	6.643967E-05
7.312752E+03	1.386056E-02	6.713926E-05
7.322688E+03	1.399307E-02	6.782387E-05
7.332624E+03	1.412225E-02	6.849338E-05
7.342560E+03	1.424793E-02	6.914697E-05
7.352496E+03	1.436991E-02	6.978361E-05
7.362431E+03	1.448796E-02	7.040215E-05
7.372367E+03	1.460164E-02	7.100046E-05
7.382303E+03	1.471102E-02	7.157889E-05
7.392239E+03	1.481584E-02	7.213608E-05
7.402175E+03	1.491562E-02	7.266965E-05
7.412110E+03	1.501030E-02	7.317934E-05
7.422046E+03	1.509934E-02	7.366243E-05
7.431982E+03	1.518285E-02	7.411945E-05
7.441918E+03	1.526091E-02	7.455075E-05
7.451854E+03	1.533355E-02	7.495640E-05
7.461789E+03	1.540137E-02	7.533932E-05
7.471725E+03	1.546473E-02	7.570126E-05
7.481661E+03	1.552457E-02	7.604676E-05
7.491597E+03	1.558157E-02	7.637911E-05
7.501533E+03	1.563668E-02	7.670301E-05
7.511468E+03	1.569094E-02	7.702357E-05
7.521404E+03	1.574544E-02	7.734608E-05
7.531340E+03	1.580143E-02	7.767676E-05
7.541276E+03	1.585949E-02	7.801844E-05
7.551212E+03	1.592094E-02	7.837773E-05
7.561147E+03	1.598633E-02	7.875737E-05
7.571083E+03	1.605624E-02	7.916024E-05
7.581019E+03	1.613102E-02	7.958818E-05
7.590955E+03	1.621093E-02	8.004254E-05
7.600891E+03	1.629528E-02	8.051993E-05
7.610826E+03	1.638359E-02	8.101813E-05
7.620762E+03	1.647501E-02	8.153295E-05
7.630698E+03	1.656778E-02	8.205575E-05
7.640634E+03	1.665971E-02	8.257570E-05
7.650570E+03	1.674885E-02	8.308316E-05
7.660505E+03	1.683246E-02	8.356452E-05
7.670441E+03	1.690706E-02	8.400238E-05
7.680377E+03	1.696985E-02	8.438284E-05
7.690313E+03	1.701707E-02	8.468702E-05
7.700249E+03	1.704591E-02	8.490070E-05
7.710184E+03	1.705324E-02	8.500814E-05
