#wls	flux	fluxerr
1.581028E+03	3.303135E-03	3.008380E-04
1.620553E+03	3.417670E-03	3.095953E-04
1.660079E+03	3.536897E-03	3.186238E-04
1.699605E+03	3.660681E-03	3.278997E-04
1.739130E+03	3.788999E-03	3.374091E-04
1.778656E+03	3.921436E-03	3.471029E-04
1.818182E+03	4.055781E-03	3.567748E-04
1.857708E+03	4.190960E-03	3.663221E-04
1.897233E+03	4.324543E-03	3.755268E-04
1.936759E+03	4.454258E-03	3.841900E-04
1.976285E+03	4.579044E-03	3.922221E-04
2.015810E+03	4.702029E-03	3.998922E-04
2.055336E+03	4.832137E-03	4.079517E-04
2.094862E+03	4.984105E-03	4.176161E-04
2.134387E+03	5.174544E-03	4.302182E-04
2.173913E+03	5.411203E-03	4.463139E-04
2.213439E+03	5.690214E-03	4.654845E-04
2.252964E+03	6.000001E-03	4.866931E-04
2.292490E+03	6.328070E-03	5.088580E-04
2.332016E+03	6.665761E-03	5.312358E-04
2.371542E+03	7.008580E-03	5.534360E-04
2.411067E+03	7.355052E-03	5.753166E-04
2.450593E+03	7.706478E-03	5.969547E-04
2.490119E+03	8.064125E-03	6.184203E-04
2.529644E+03	8.430261E-03	6.398550E-04
2.569170E+03	8.806241E-03	6.613238E-04
2.608696E+03	9.193657E-03	6.829043E-04
2.648221E+03	9.593303E-03	7.046094E-04
2.687747E+03	1.000581E-02	7.264366E-04
2.727273E+03	1.043166E-02	7.483688E-04
2.766798E+03	1.087084E-02	7.703532E-04
2.806324E+03	1.132326E-02	7.923275E-04
2.845850E+03	1.178930E-02	8.142648E-04
2.885375E+03	1.226863E-02	8.360857E-04
2.924901E+03	1.276240E-02	8.578107E-04
2.964427E+03	1.327072E-02	8.793870E-04
2.974308E+03	1.340053E-02	8.847810E-04
2.984190E+03	1.353112E-02	8.901520E-04
2.994071E+03	1.366247E-02	8.954978E-04
3.003953E+03	1.379523E-02	9.008603E-04
3.013834E+03	1.392929E-02	9.062310E-04
3.023715E+03	1.406485E-02	9.116222E-04
3.033597E+03	1.420215E-02	9.170466E-04
3.043478E+03	1.434079E-02	9.224779E-04
3.053360E+03	1.448070E-02	9.279096E-04
3.063241E+03	1.462240E-02	9.333748E-04
3.073123E+03	1.476524E-02	9.388289E-04
3.083004E+03	1.490943E-02	9.442860E-04
3.092885E+03	1.505463E-02	9.497218E-04
3.102767E+03	1.520167E-02	9.551880E-04
3.112648E+03	1.534960E-02	9.606237E-04
3.122530E+03	1.549867E-02	9.660430E-04
3.132411E+03	1.564913E-02	9.714603E-04
3.142292E+03	1.580093E-02	9.768715E-04
3.152174E+03	1.595344E-02	9.822360E-04
3.162055E+03	1.610750E-02	9.876050E-04
3.171937E+03	1.626248E-02	9.929386E-04
3.181818E+03	1.641864E-02	9.982516E-04
3.191700E+03	1.657566E-02	1.003523E-03
3.201581E+03	1.673379E-02	1.008767E-03
3.211462E+03	1.689301E-02	1.013982E-03
3.221344E+03	1.705329E-02	1.019165E-03
3.231225E+03	1.721432E-02	1.024295E-03
3.241107E+03	1.737636E-02	1.029388E-03
3.250988E+03	1.753939E-02	1.034442E-03
3.260870E+03	1.770310E-02	1.039437E-03
3.270751E+03	1.786777E-02	1.044389E-03
3.280632E+03	1.803309E-02	1.049279E-03
3.290514E+03	1.819935E-02	1.054122E-03
3.300395E+03	1.836623E-02	1.058901E-03
3.310277E+03	1.853374E-02	1.063614E-03
3.320158E+03	1.870187E-02	1.068260E-03
3.330040E+03	1.887062E-02	1.072838E-03
3.339921E+03	1.903998E-02	1.077348E-03
3.349802E+03	1.920968E-02	1.081774E-03
3.359684E+03	1.938000E-02	1.086130E-03
3.369565E+03	1.955038E-02	1.090385E-03
3.379447E+03	1.972139E-02	1.094571E-03
3.389328E+03	1.989250E-02	1.098657E-03
3.399209E+03	2.006370E-02	1.102643E-03
3.409091E+03	2.023503E-02	1.106531E-03
3.418972E+03	2.040621E-02	1.110307E-03
3.428854E+03	2.057756E-02	1.113985E-03
3.438735E+03	2.074882E-02	1.117554E-03
3.448617E+03	2.091975E-02	1.120999E-03
3.458498E+03	2.109038E-02	1.124324E-03
3.468379E+03	2.126048E-02	1.127516E-03
3.478261E+03	2.143035E-02	1.130591E-03
3.488142E+03	2.159923E-02	1.133509E-03
3.498024E+03	2.176743E-02	1.136289E-03
3.507905E+03	2.193474E-02	1.138920E-03
3.517787E+03	2.210121E-02	1.141404E-03
3.527668E+03	2.226636E-02	1.143720E-03
3.537549E+03	2.243000E-02	1.145857E-03
3.547431E+03	2.259244E-02	1.147833E-03
3.557312E+03	2.275299E-02	1.149615E-03
3.567194E+03	2.291197E-02	1.151220E-03
3.577075E+03	2.306919E-02	1.152641E-03
3.586957E+03	2.322423E-02	1.153860E-03
3.596838E+03	2.337689E-02	1.154866E-03
3.596885E+03	2.572364E-02	1.270766E-03
3.602338E+03	2.563671E-02	1.262488E-03
3.607791E+03	2.561482E-02	1.257428E-03
3.613243E+03	2.538331E-02	1.242115E-03
3.618696E+03	2.526927E-02	1.232604E-03
3.624147E+03	2.511352E-02	1.221098E-03
3.629600E+03	2.495704E-02	1.209604E-03
3.635052E+03	2.489697E-02	1.202814E-03
3.640505E+03	2.473311E-02	1.191044E-03
3.645958E+03	2.450488E-02	1.176234E-03
3.651410E+03	2.436430E-02	1.165688E-03
3.656863E+03	2.422742E-02	1.155362E-03
3.662315E+03	2.419275E-02	1.149935E-03
3.667768E+03	2.392911E-02	1.133671E-03
3.673220E+03	2.371531E-02	1.119842E-03
3.678673E+03	2.342306E-02	1.102387E-03
3.684125E+03	2.329149E-02	1.092560E-03
3.689578E+03	2.298711E-02	1.074695E-03
3.695031E+03	2.264601E-02	1.055213E-03
3.700483E+03	2.231448E-02	1.036283E-03
3.705935E+03	2.217158E-02	1.026187E-03
3.711387E+03	2.199260E-02	1.014471E-03
3.716840E+03	2.187208E-02	1.005498E-03
3.722292E+03	2.196181E-02	1.006196E-03
3.727745E+03	2.197689E-02	1.003459E-03
3.733198E+03	2.218156E-02	1.009344E-03
3.738650E+03	2.249019E-02	1.019880E-03
3.744103E+03	2.289632E-02	1.034728E-03
3.749555E+03	2.337735E-02	1.052822E-03
3.755008E+03	2.339348E-02	1.049904E-03
3.760460E+03	2.378375E-02	1.063714E-03
3.765913E+03	2.423901E-02	1.080301E-03
3.771366E+03	2.469488E-02	1.096775E-03
3.776818E+03	2.494139E-02	1.103843E-03
3.782270E+03	2.541054E-02	1.120656E-03
3.787722E+03	2.561661E-02	1.125762E-03
3.793175E+03	2.570469E-02	1.125640E-03
3.798627E+03	2.615073E-02	1.141113E-03
3.804080E+03	2.646889E-02	1.150890E-03
3.809533E+03	2.658851E-02	1.151969E-03
3.814985E+03	2.694598E-02	1.163282E-03
3.820438E+03	2.710084E-02	1.165772E-03
3.825890E+03	2.733373E-02	1.171561E-03
3.831343E+03	2.761065E-02	1.179163E-03
3.836795E+03	2.758355E-02	1.173746E-03
3.842248E+03	2.759631E-02	1.170032E-03
3.847701E+03	2.780499E-02	1.174594E-03
3.853152E+03	2.800500E-02	1.178732E-03
3.858605E+03	2.809516E-02	1.178205E-03
3.864057E+03	2.804767E-02	1.171905E-03
3.869510E+03	2.793996E-02	1.163116E-03
3.874962E+03	2.781301E-02	1.153568E-03
3.880415E+03	2.785047E-02	1.150858E-03
3.885868E+03	2.759371E-02	1.136029E-03
3.891320E+03	2.740493E-02	1.124073E-03
3.896773E+03	2.731247E-02	1.116116E-03
3.902225E+03	2.724083E-02	1.109041E-03
3.907678E+03	2.704704E-02	1.097039E-03
3.913130E+03	2.701312E-02	1.091563E-03
3.918583E+03	2.684221E-02	1.080589E-03
3.924036E+03	2.671926E-02	1.071597E-03
3.929488E+03	2.669365E-02	1.066538E-03
3.934940E+03	2.684669E-02	1.068606E-03
3.940392E+03	2.684052E-02	1.064321E-03
3.945845E+03	2.693940E-02	1.064195E-03
3.951297E+03	2.701631E-02	1.063183E-03
3.956750E+03	2.728098E-02	1.069517E-03
3.962203E+03	2.747550E-02	1.073041E-03
3.967655E+03	2.763159E-02	1.075020E-03
3.973108E+03	2.774633E-02	1.075359E-03
3.978560E+03	2.794736E-02	1.079005E-03
3.984013E+03	2.776756E-02	1.067954E-03
3.989465E+03	2.772973E-02	1.062405E-03
3.994918E+03	2.785812E-02	1.063221E-03
4.000371E+03	2.783235E-02	1.058149E-03
4.005822E+03	2.791414E-02	1.057170E-03
4.011275E+03	2.807221E-02	1.059054E-03
4.016727E+03	2.800425E-02	1.052409E-03
4.022180E+03	2.799413E-02	1.047961E-03
4.027632E+03	2.799893E-02	1.044084E-03
4.033085E+03	2.787117E-02	1.035293E-03
4.038538E+03	2.784896E-02	1.030457E-03
4.043990E+03	2.788768E-02	1.027886E-03
4.049443E+03	2.779073E-02	1.020335E-03
4.054895E+03	2.771670E-02	1.013664E-03
4.060348E+03	2.774856E-02	1.010884E-03
4.065800E+03	2.753613E-02	9.992437E-04
4.071253E+03	2.756277E-02	9.963196E-04
4.076706E+03	2.751562E-02	9.907447E-04
4.082158E+03	2.744241E-02	9.842630E-04
4.087610E+03	2.733099E-02	9.764520E-04
4.093062E+03	2.719572E-02	9.678374E-04
4.098515E+03	2.704869E-02	9.588586E-04
4.103967E+03	2.677869E-02	9.455935E-04
4.109420E+03	2.667586E-02	9.382986E-04
4.114873E+03	2.641454E-02	9.254944E-04
4.120325E+03	2.618886E-02	9.140212E-04
4.125778E+03	2.609007E-02	9.070369E-04
4.131230E+03	2.601327E-02	9.008570E-04
4.136683E+03	2.587936E-02	8.927443E-04
4.142135E+03	2.592746E-02	8.909389E-04
4.147588E+03	2.599315E-02	8.897394E-04
4.153041E+03	2.611898E-02	8.905911E-04
4.158493E+03	2.612658E-02	8.874114E-04
4.163945E+03	2.618499E-02	8.859676E-04
4.169397E+03	2.614185E-02	8.811042E-04
4.174850E+03	2.619105E-02	8.793710E-04
4.180302E+03	2.619467E-02	8.761198E-04
4.185755E+03	2.628556E-02	8.757949E-04
4.191208E+03	2.639593E-02	8.761135E-04
4.196660E+03	2.647421E-02	8.753632E-04
4.202113E+03	2.666293E-02	8.782516E-04
4.207565E+03	2.684839E-02	8.810074E-04
4.213018E+03	2.695423E-02	8.811358E-04
4.218470E+03	2.709258E-02	8.823189E-04
4.223923E+03	2.722703E-02	8.833643E-04
4.229375E+03	2.731222E-02	8.828076E-04
4.234827E+03	2.726847E-02	8.781024E-04
4.240280E+03	2.718280E-02	8.720860E-04
4.245732E+03	2.707755E-02	8.654886E-04
4.251185E+03	2.707136E-02	8.620949E-04
4.256637E+03	2.700607E-02	8.568525E-04
4.262090E+03	2.696670E-02	8.524695E-04
4.267542E+03	2.707052E-02	8.526312E-04
4.272995E+03	2.700509E-02	8.474834E-04
4.278448E+03	2.701072E-02	8.445985E-04
4.283900E+03	2.697363E-02	8.404081E-04
4.289353E+03	2.694657E-02	8.365640E-04
4.294805E+03	2.682028E-02	8.296832E-04
4.300258E+03	2.686502E-02	8.281300E-04
4.305710E+03	2.703236E-02	8.303605E-04
4.311162E+03	2.714341E-02	8.308606E-04
4.316615E+03	2.729335E-02	8.325517E-04
4.322067E+03	2.751923E-02	8.365488E-04
4.327520E+03	2.773171E-02	8.401227E-04
4.332972E+03	2.793613E-02	8.434398E-04
4.338425E+03	2.822273E-02	8.492187E-04
4.343877E+03	2.857315E-02	8.568852E-04
4.349330E+03	2.891210E-02	8.641710E-04
4.354783E+03	2.921981E-02	8.704924E-04
4.360235E+03	2.952798E-02	8.768014E-04
4.365688E+03	2.975203E-02	8.805953E-04
4.371140E+03	3.008624E-02	8.876320E-04
4.376593E+03	3.037530E-02	8.933135E-04
4.382045E+03	3.056676E-02	8.961156E-04
4.387498E+03	3.078554E-02	8.997168E-04
4.392950E+03	3.094862E-02	9.016913E-04
4.398402E+03	3.102634E-02	9.011922E-04
4.403855E+03	3.110894E-02	9.008560E-04
4.409307E+03	3.118314E-02	9.002979E-04
4.414760E+03	3.126885E-02	9.000932E-04
4.420212E+03	3.130261E-02	8.984174E-04
4.425665E+03	3.147301E-02	9.006803E-04
4.431118E+03	3.144385E-02	8.972548E-04
4.436570E+03	3.147871E-02	8.956893E-04
4.442023E+03	3.154985E-02	8.951813E-04
4.447475E+03	3.149908E-02	8.912452E-04
4.452928E+03	3.147903E-02	8.882170E-04
4.458380E+03	3.159363E-02	8.890132E-04
4.463833E+03	3.165232E-02	8.882548E-04
4.469285E+03	3.156251E-02	8.833639E-04
4.474737E+03	3.155885E-02	8.809220E-04
4.480190E+03	3.155740E-02	8.785732E-04
4.485642E+03	3.143327E-02	8.728487E-04
4.491095E+03	3.132462E-02	8.676010E-04
4.496547E+03	3.134560E-02	8.659795E-04
4.502000E+03	3.122288E-02	8.604247E-04
4.507453E+03	3.107166E-02	8.541323E-04
4.512905E+03	3.093834E-02	8.483795E-04
4.518358E+03	3.071223E-02	8.401345E-04
4.523810E+03	3.055107E-02	8.337193E-04
4.529263E+03	3.025286E-02	8.236208E-04
4.534715E+03	2.999079E-02	8.145687E-04
4.540168E+03	2.978392E-02	8.070712E-04
4.545620E+03	2.947711E-02	7.969237E-04
4.551072E+03	2.928696E-02	7.899848E-04
4.556525E+03	2.911347E-02	7.835419E-04
4.561977E+03	2.896715E-02	7.778732E-04
4.567430E+03	2.885914E-02	7.732714E-04
4.572882E+03	2.863805E-02	7.656820E-04
4.578335E+03	2.848721E-02	7.600146E-04
4.583788E+03	2.831865E-02	7.539148E-04
4.589240E+03	2.812122E-02	7.470882E-04
4.594693E+03	2.791526E-02	7.400786E-04
4.600145E+03	2.773404E-02	7.337665E-04
4.605598E+03	2.765290E-02	7.301369E-04
4.611050E+03	2.761398E-02	7.276480E-04
4.616502E+03	2.749555E-02	7.230922E-04
4.621955E+03	2.751760E-02	7.222548E-04
4.627407E+03	2.745458E-02	7.192053E-04
4.632860E+03	2.737068E-02	7.156350E-04
4.638312E+03	2.735938E-02	7.139860E-04
4.643765E+03	2.725479E-02	7.099261E-04
4.649217E+03	2.722592E-02	7.078624E-04
4.654670E+03	2.730319E-02	7.085735E-04
4.660123E+03	2.736520E-02	7.088992E-04
4.665575E+03	2.730223E-02	7.060041E-04
4.671028E+03	2.742545E-02	7.079377E-04
4.676480E+03	2.748067E-02	7.081245E-04
4.681933E+03	2.763601E-02	7.108979E-04
4.687385E+03	2.780899E-02	7.141265E-04
4.692837E+03	2.789775E-02	7.151974E-04
4.698290E+03	2.791961E-02	7.145638E-04
4.703742E+03	2.804473E-02	7.165826E-04
4.709195E+03	2.813893E-02	7.178175E-04
4.714647E+03	2.824946E-02	7.194758E-04
4.720100E+03	2.849869E-02	7.246670E-04
4.725552E+03	2.855476E-02	7.249492E-04
4.731005E+03	2.863704E-02	7.259060E-04
4.736458E+03	2.884187E-02	7.299728E-04
4.741910E+03	2.899022E-02	7.326110E-04
4.747363E+03	2.919084E-02	7.365712E-04
4.752815E+03	2.940705E-02	7.409236E-04
4.758268E+03	2.964070E-02	7.457126E-04
4.763720E+03	2.972633E-02	7.467802E-04
4.769173E+03	2.972306E-02	7.456253E-04
4.774625E+03	2.977631E-02	7.459006E-04
4.780077E+03	2.973876E-02	7.439143E-04
4.785530E+03	2.972043E-02	7.424243E-04
4.790982E+03	2.968218E-02	7.404520E-04
4.796435E+03	2.965131E-02	7.386794E-04
4.801887E+03	2.967258E-02	7.382188E-04
4.807340E+03	2.956389E-02	7.345407E-04
4.812792E+03	2.939120E-02	7.292940E-04
4.818245E+03	2.934084E-02	7.271022E-04
4.823698E+03	2.927430E-02	7.245247E-04
4.829150E+03	2.909662E-02	7.192160E-04
4.834603E+03	2.903813E-02	7.168718E-04
4.840055E+03	2.894611E-02	7.137156E-04
4.845508E+03	2.884607E-02	7.103780E-04
4.850959E+03	2.882788E-02	7.090704E-04
4.856412E+03	2.875330E-02	7.063885E-04
4.861865E+03	2.867441E-02	7.036152E-04
4.867317E+03	2.877697E-02	7.053035E-04
4.872770E+03	2.887385E-02	7.068564E-04
4.878222E+03	2.890506E-02	7.068074E-04
4.883675E+03	2.877675E-02	7.028697E-04
4.889127E+03	2.874864E-02	7.013929E-04
4.894580E+03	2.866562E-02	6.985882E-04
4.900033E+03	2.867157E-02	6.979626E-04
4.905485E+03	2.876264E-02	6.994148E-04
4.910938E+03	2.875560E-02	6.984876E-04
4.916390E+03	2.887489E-02	7.006345E-04
4.921842E+03	2.894169E-02	7.015111E-04
4.927294E+03	2.901338E-02	7.025105E-04
4.932747E+03	2.903580E-02	7.023224E-04
4.938200E+03	2.907480E-02	7.025419E-04
4.943652E+03	2.914016E-02	7.034032E-04
4.949105E+03	2.925331E-02	7.054215E-04
4.954557E+03	2.931852E-02	7.062869E-04
4.960010E+03	2.929302E-02	7.049735E-04
4.965462E+03	2.938266E-02	7.064371E-04
4.970915E+03	2.949175E-02	7.083712E-04
4.976368E+03	2.955794E-02	7.092777E-04
4.981820E+03	2.962284E-02	7.101575E-04
4.987273E+03	2.970780E-02	7.115220E-04
4.992725E+03	2.982981E-02	7.137764E-04
4.998177E+03	2.999976E-02	7.171788E-04
5.003629E+03	3.014208E-02	7.199206E-04
5.009082E+03	3.025684E-02	7.220058E-04
5.014535E+03	3.033623E-02	7.232496E-04
5.019987E+03	3.038518E-02	7.237724E-04
5.025440E+03	3.037288E-02	7.228422E-04
5.030892E+03	3.037822E-02	7.223395E-04
5.036345E+03	3.043201E-02	7.229944E-04
5.041797E+03	3.038365E-02	7.212296E-04
5.047250E+03	3.036081E-02	7.200789E-04
5.052703E+03	3.039414E-02	7.202674E-04
5.058155E+03	3.050874E-02	7.223863E-04
5.063608E+03	3.070313E-02	7.263954E-04
5.069060E+03	3.082090E-02	7.285930E-04
5.074513E+03	3.069724E-02	7.250908E-04
5.079964E+03	3.065008E-02	7.234064E-04
5.085417E+03	3.074557E-02	7.250951E-04
5.090870E+03	3.079428E-02	7.256857E-04
5.096322E+03	3.089970E-02	7.276173E-04
5.101775E+03	3.113319E-02	7.325661E-04
5.107227E+03	3.120056E-02	7.336088E-04
5.112680E+03	3.133984E-02	7.363468E-04
5.118132E+03	3.152522E-02	7.401702E-04
5.123585E+03	3.158914E-02	7.411460E-04
5.129038E+03	3.157892E-02	7.403897E-04
5.134490E+03	3.166590E-02	7.419194E-04
5.139943E+03	3.177930E-02	7.440737E-04
5.145395E+03	3.179452E-02	7.439357E-04
5.150848E+03	3.172374E-02	7.417951E-04
5.156299E+03	3.165974E-02	7.398242E-04
5.161752E+03	3.160246E-02	7.380210E-04
5.167205E+03	3.149205E-02	7.349885E-04
5.172657E+03	3.127066E-02	7.293801E-04
5.178110E+03	3.116709E-02	7.265336E-04
5.183562E+03	3.100843E-02	7.224159E-04
5.189015E+03	3.086493E-02	7.186649E-04
5.194467E+03	3.090616E-02	7.192264E-04
5.199920E+03	3.098987E-02	7.207846E-04
5.205373E+03	3.104269E-02	7.216326E-04
5.210825E+03	3.107690E-02	7.220573E-04
5.216278E+03	3.114186E-02	7.232054E-04
5.221730E+03	3.114775E-02	7.229916E-04
5.227182E+03	3.120228E-02	7.239168E-04
5.232634E+03	3.122332E-02	7.240749E-04
5.238087E+03	3.117937E-02	7.227368E-04
5.243540E+03	3.112992E-02	7.212835E-04
5.248992E+03	3.108365E-02	7.199158E-04
5.254445E+03	3.109210E-02	7.198270E-04
5.259897E+03	3.108408E-02	7.193685E-04
5.265350E+03	3.100538E-02	7.172865E-04
5.270802E+03	3.073771E-02	7.108474E-04
5.276255E+03	3.057183E-02	7.067775E-04
5.281708E+03	3.046520E-02	7.040912E-04
5.287160E+03	3.033974E-02	7.009834E-04
5.292613E+03	3.020179E-02	6.976001E-04
5.298065E+03	3.005989E-02	6.941387E-04
5.303517E+03	2.985928E-02	6.893343E-04
5.308969E+03	2.960137E-02	6.832201E-04
5.314422E+03	2.940014E-02	6.784260E-04
5.319875E+03	2.913005E-02	6.720547E-04
5.325327E+03	2.887276E-02	6.659900E-04
5.330780E+03	2.872622E-02	6.624901E-04
5.336232E+03	2.854735E-02	6.582537E-04
5.341685E+03	2.822867E-02	6.508031E-04
5.347137E+03	2.803376E-02	6.462150E-04
5.352590E+03	2.781859E-02	6.411677E-04
5.358042E+03	2.756940E-02	6.353441E-04
5.363495E+03	2.735343E-02	6.302934E-04
5.368948E+03	2.708259E-02	6.239850E-04
5.374400E+03	2.689403E-02	6.195787E-04
5.379852E+03	2.659183E-02	6.125600E-04
5.385304E+03	2.634812E-02	6.068945E-04
5.390757E+03	2.629210E-02	6.055565E-04
5.396209E+03	2.616255E-02	6.025292E-04
5.401662E+03	2.609716E-02	6.009832E-04
5.407115E+03	2.601751E-02	5.991120E-04
5.412567E+03	2.591989E-02	5.968302E-04
5.418020E+03	2.587942E-02	5.958668E-04
5.423472E+03	2.584589E-02	5.950656E-04
5.428925E+03	2.571043E-02	5.919197E-04
5.434377E+03	2.559576E-02	5.892542E-04
5.439830E+03	2.540147E-02	5.847574E-04
5.445283E+03	2.523139E-02	5.808192E-04
5.450735E+03	2.512133E-02	5.782639E-04
5.456188E+03	2.491929E-02	5.735922E-04
5.461639E+03	2.475473E-02	5.697835E-04
5.467092E+03	2.452013E-02	5.643633E-04
5.472544E+03	2.438378E-02	5.612045E-04
5.477997E+03	2.427543E-02	5.586898E-04
5.483450E+03	2.418431E-02	5.565714E-04
5.488902E+03	2.396307E-02	5.514577E-04
5.494355E+03	2.383241E-02	5.484279E-04
5.499807E+03	2.363617E-02	5.438880E-04
5.505260E+03	2.344003E-02	5.393494E-04
5.510712E+03	2.323297E-02	5.345585E-04
5.516165E+03	2.303134E-02	5.298910E-04
5.521618E+03	2.276025E-02	5.236241E-04
5.527070E+03	2.256849E-02	5.191808E-04
5.532523E+03	2.225800E-02	5.120049E-04
5.537974E+03	2.199966E-02	5.060268E-04
5.543427E+03	2.181859E-02	5.018246E-04
5.548879E+03	2.157184E-02	4.961097E-04
5.554332E+03	2.134722E-02	4.909019E-04
5.559785E+03	2.115389E-02	4.864117E-04
5.565237E+03	2.096489E-02	4.820189E-04
5.570690E+03	2.085628E-02	4.794722E-04
5.576142E+03	2.074449E-02	4.768497E-04
5.581595E+03	2.061007E-02	4.737045E-04
5.587047E+03	2.061620E-02	4.737867E-04
5.592500E+03	2.049019E-02	4.708293E-04
5.597953E+03	2.048838E-02	4.707225E-04
5.603405E+03	2.053078E-02	4.716278E-04
5.608857E+03	2.055072E-02	4.720133E-04
5.614309E+03	2.063387E-02	4.738463E-04
5.619762E+03	2.068338E-02	4.749028E-04
5.625214E+03	2.069242E-02	4.750258E-04
5.630667E+03	2.066073E-02	4.742099E-04
5.636120E+03	2.059006E-02	4.724957E-04
5.641572E+03	2.051222E-02	4.706134E-04
5.647025E+03	2.045025E-02	4.690920E-04
5.652477E+03	2.038811E-02	4.675631E-04
5.657930E+03	2.041748E-02	4.681288E-04
5.663382E+03	2.039760E-02	4.675612E-04
5.668835E+03	2.035459E-02	4.664593E-04
5.674288E+03	2.038766E-02	4.670968E-04
5.679740E+03	2.042074E-02	4.677297E-04
5.685192E+03	2.038818E-02	4.668551E-04
5.690644E+03	2.052834E-02	4.699301E-04
5.696097E+03	2.061846E-02	4.718542E-04
5.701549E+03	2.069910E-02	4.735555E-04
5.707002E+03	2.076346E-02	4.748789E-04
5.712455E+03	2.082386E-02	4.761066E-04
5.717907E+03	2.081102E-02	4.756549E-04
5.723360E+03	2.086959E-02	4.768306E-04
5.728812E+03	2.088925E-02	4.771124E-04
5.734265E+03	2.099746E-02	4.794113E-04
5.739717E+03	2.117681E-02	4.833277E-04
5.745170E+03	2.128272E-02	4.855612E-04
5.750623E+03	2.127741E-02	4.852521E-04
5.756075E+03	2.125407E-02	4.845278E-04
5.761528E+03	2.120269E-02	4.831607E-04
5.766979E+03	2.121716E-02	4.832905E-04
5.772432E+03	2.114982E-02	4.815534E-04
5.777884E+03	2.098480E-02	4.775902E-04
5.783337E+03	2.092923E-02	4.761165E-04
5.788790E+03	2.072850E-02	4.713393E-04
5.794242E+03	2.058645E-02	4.678963E-04
5.799695E+03	2.051662E-02	4.660935E-04
5.805147E+03	2.043882E-02	4.641076E-04
5.810600E+03	2.038963E-02	4.627696E-04
5.816052E+03	2.026467E-02	4.597103E-04
5.821505E+03	2.009549E-02	4.556483E-04
5.826958E+03	1.999622E-02	4.531713E-04
5.832410E+03	1.993115E-02	4.514685E-04
5.837863E+03	1.986057E-02	4.496395E-04
