#wls	flux	fluxerr
1.581028E+03	3.569166E-03	2.165387E-04
1.620553E+03	3.694236E-03	2.229410E-04
1.660079E+03	3.824495E-03	2.295446E-04
1.699605E+03	3.959809E-03	2.363326E-04
1.739130E+03	4.100161E-03	2.432951E-04
1.778656E+03	4.245112E-03	2.503969E-04
1.818182E+03	4.392273E-03	2.574889E-04
1.857708E+03	4.540487E-03	2.644969E-04
1.897233E+03	4.687117E-03	2.712627E-04
1.936759E+03	4.829707E-03	2.776423E-04
1.976285E+03	4.967096E-03	2.835697E-04
2.015810E+03	5.102674E-03	2.892387E-04
2.055336E+03	5.246125E-03	2.951921E-04
2.094862E+03	5.413466E-03	3.023097E-04
2.134387E+03	5.622770E-03	3.115572E-04
2.173913E+03	5.882519E-03	3.233391E-04
2.213439E+03	6.188570E-03	3.373542E-04
2.252964E+03	6.528377E-03	3.528516E-04
2.292490E+03	6.888382E-03	3.690469E-04
2.332016E+03	7.259163E-03	3.853994E-04
2.371542E+03	7.635830E-03	4.016241E-04
2.411067E+03	8.016763E-03	4.176153E-04
2.450593E+03	8.403365E-03	4.334262E-04
2.490119E+03	8.796994E-03	4.491042E-04
2.529644E+03	9.200104E-03	4.647488E-04
2.569170E+03	9.614147E-03	4.804036E-04
2.608696E+03	1.004082E-02	4.961204E-04
2.648221E+03	1.048096E-02	5.119040E-04
2.687747E+03	1.093520E-02	5.277470E-04
2.727273E+03	1.140400E-02	5.436312E-04
2.766798E+03	1.188729E-02	5.595115E-04
2.806324E+03	1.238483E-02	5.753350E-04
2.845850E+03	1.289698E-02	5.910740E-04
2.885375E+03	1.342322E-02	6.066617E-04
2.924901E+03	1.396465E-02	6.221030E-04
2.964427E+03	1.452123E-02	6.373485E-04
2.974308E+03	1.466321E-02	6.411446E-04
2.984190E+03	1.480598E-02	6.449177E-04
2.994071E+03	1.494952E-02	6.486658E-04
3.003953E+03	1.509452E-02	6.524192E-04
3.013834E+03	1.524087E-02	6.561715E-04
3.023715E+03	1.538879E-02	6.599313E-04
3.033597E+03	1.553852E-02	6.637075E-04
3.043478E+03	1.568962E-02	6.674808E-04
3.053360E+03	1.584202E-02	6.712467E-04
3.063241E+03	1.599629E-02	6.750284E-04
3.073123E+03	1.615169E-02	6.787935E-04
3.083004E+03	1.630847E-02	6.825520E-04
3.092885E+03	1.646623E-02	6.862861E-04
3.102767E+03	1.662589E-02	6.900329E-04
3.112648E+03	1.678640E-02	6.937479E-04
3.122530E+03	1.694803E-02	6.974414E-04
3.132411E+03	1.711104E-02	7.011233E-04
3.142292E+03	1.727537E-02	7.047905E-04
3.152174E+03	1.744033E-02	7.084132E-04
3.162055E+03	1.760683E-02	7.120282E-04
3.171937E+03	1.777417E-02	7.156065E-04
3.181818E+03	1.794264E-02	7.191582E-04
3.191700E+03	1.811188E-02	7.226682E-04
3.201581E+03	1.828215E-02	7.261468E-04
3.211462E+03	1.845342E-02	7.295915E-04
3.221344E+03	1.862565E-02	7.330002E-04
3.231225E+03	1.879850E-02	7.363583E-04
3.241107E+03	1.897224E-02	7.396763E-04
3.250988E+03	1.914684E-02	7.429523E-04
3.260870E+03	1.932197E-02	7.461724E-04
3.270751E+03	1.949790E-02	7.493469E-04
3.280632E+03	1.967431E-02	7.524626E-04
3.290514E+03	1.985148E-02	7.555298E-04
3.300395E+03	2.002908E-02	7.585356E-04
3.310277E+03	2.020709E-02	7.614787E-04
3.320158E+03	2.038551E-02	7.643581E-04
3.330040E+03	2.056431E-02	7.671731E-04
3.339921E+03	2.074350E-02	7.699228E-04
3.349802E+03	2.092274E-02	7.725952E-04
3.359684E+03	2.110235E-02	7.752012E-04
3.369565E+03	2.128171E-02	7.777182E-04
3.379447E+03	2.146143E-02	7.801681E-04
3.389328E+03	2.164091E-02	7.825289E-04
3.399209E+03	2.182015E-02	7.848008E-04
3.409091E+03	2.199917E-02	7.869843E-04
3.418972E+03	2.217768E-02	7.890692E-04
3.428854E+03	2.235600E-02	7.910668E-04
3.438735E+03	2.253383E-02	7.929673E-04
3.448617E+03	2.271092E-02	7.947615E-04
3.458498E+03	2.288729E-02	7.964506E-04
3.468379E+03	2.306268E-02	7.980260E-04
3.478261E+03	2.323741E-02	7.994996E-04
3.488142E+03	2.341065E-02	8.008428E-04
3.498024E+03	2.358274E-02	8.020687E-04
3.507905E+03	2.375342E-02	8.031687E-04
3.517787E+03	2.392279E-02	8.041474E-04
3.527668E+03	2.409028E-02	8.049863E-04
3.537549E+03	2.425570E-02	8.056802E-04
3.547431E+03	2.441939E-02	8.062421E-04
3.557312E+03	2.458060E-02	8.066483E-04
3.567194E+03	2.473967E-02	8.069113E-04
3.577075E+03	2.489643E-02	8.070275E-04
3.586957E+03	2.505042E-02	8.069830E-04
3.596838E+03	2.520142E-02	8.067732E-04
3.606719E+03	2.534958E-02	8.064048E-04
3.616601E+03	2.549448E-02	8.058661E-04
3.626482E+03	2.563648E-02	8.051710E-04
3.636364E+03	2.577493E-02	8.043008E-04
3.646245E+03	2.590991E-02	8.032609E-04
3.656126E+03	2.604130E-02	8.020498E-04
3.666008E+03	2.616925E-02	8.006749E-04
3.675889E+03	2.629332E-02	7.991248E-04
3.685771E+03	2.641366E-02	7.974071E-04
3.695652E+03	2.653009E-02	7.955192E-04
3.705534E+03	2.664271E-02	7.934667E-04
3.715415E+03	2.675137E-02	7.912475E-04
3.725296E+03	2.685612E-02	7.888668E-04
3.735178E+03	2.695672E-02	7.863200E-04
3.745059E+03	2.705297E-02	7.836048E-04
3.754941E+03	2.714541E-02	7.807391E-04
3.764822E+03	2.723324E-02	7.777040E-04
3.774704E+03	2.731670E-02	7.745087E-04
3.784585E+03	2.739602E-02	7.711638E-04
3.794466E+03	2.747063E-02	7.676562E-04
3.804348E+03	2.754051E-02	7.639887E-04
3.814229E+03	2.760585E-02	7.601706E-04
3.824111E+03	2.766662E-02	7.562040E-04
3.833992E+03	2.772275E-02	7.520912E-04
3.843874E+03	2.777400E-02	7.478287E-04
3.853755E+03	2.782060E-02	7.434265E-04
3.863636E+03	2.786253E-02	7.388881E-04
3.873518E+03	2.789981E-02	7.342176E-04
3.883399E+03	2.793252E-02	7.294204E-04
3.893281E+03	2.796070E-02	7.245012E-04
3.903162E+03	2.798470E-02	7.194732E-04
3.913043E+03	2.800463E-02	7.143420E-04
3.922925E+03	2.802040E-02	7.091092E-04
3.932806E+03	2.803266E-02	7.037944E-04
3.942688E+03	2.804137E-02	6.983995E-04
3.952569E+03	2.804703E-02	6.929401E-04
3.962451E+03	2.804987E-02	6.874247E-04
3.972332E+03	2.804998E-02	6.818582E-04
3.982213E+03	2.804819E-02	6.762635E-04
3.992095E+03	2.804465E-02	6.706459E-04
4.001976E+03	2.804007E-02	6.650248E-04
4.011858E+03	2.803490E-02	6.594123E-04
4.021739E+03	2.802970E-02	6.538229E-04
4.031621E+03	2.802502E-02	6.482708E-04
4.041502E+03	2.802174E-02	6.427768E-04
4.051383E+03	2.802027E-02	6.373508E-04
4.061265E+03	2.802128E-02	6.320081E-04
4.071146E+03	2.802597E-02	6.267751E-04
4.081028E+03	2.803457E-02	6.216565E-04
4.090909E+03	2.804802E-02	6.166722E-04
4.100791E+03	2.806711E-02	6.118378E-04
4.110672E+03	2.809253E-02	6.071666E-04
4.120553E+03	2.812502E-02	6.026724E-04
4.130435E+03	2.816523E-02	5.983670E-04
4.140316E+03	2.821388E-02	5.942624E-04
4.150198E+03	2.827155E-02	5.903683E-04
4.160079E+03	2.833884E-02	5.866940E-04
4.169960E+03	2.841631E-02	5.832473E-04
4.179842E+03	2.850411E-02	5.800282E-04
4.189723E+03	2.860274E-02	5.770433E-04
4.199605E+03	2.871271E-02	5.742992E-04
4.209486E+03	2.883437E-02	5.717993E-04
4.219368E+03	2.896737E-02	5.695329E-04
4.229249E+03	2.911206E-02	5.675039E-04
4.239130E+03	2.926847E-02	5.657093E-04
4.249012E+03	2.943657E-02	5.641457E-04
4.258893E+03	2.961615E-02	5.628059E-04
4.268775E+03	2.980670E-02	5.616779E-04
4.278656E+03	3.000830E-02	5.607612E-04
4.288538E+03	3.021987E-02	5.600335E-04
4.298419E+03	3.044122E-02	5.594904E-04
4.308300E+03	3.067145E-02	5.591142E-04
4.318182E+03	3.090978E-02	5.588906E-04
4.328063E+03	3.115490E-02	5.587961E-04
4.337945E+03	3.140566E-02	5.588110E-04
4.347826E+03	3.166034E-02	5.589067E-04
4.357708E+03	3.191762E-02	5.590623E-04
4.367589E+03	3.217528E-02	5.592422E-04
4.377470E+03	3.243048E-02	5.594014E-04
4.387352E+03	3.268022E-02	5.594928E-04
4.397233E+03	3.292058E-02	5.594534E-04
4.407115E+03	3.314784E-02	5.592244E-04
4.416996E+03	3.335870E-02	5.587551E-04
4.426877E+03	3.354913E-02	5.579845E-04
4.436759E+03	3.371640E-02	5.568746E-04
4.446640E+03	3.385784E-02	5.553890E-04
4.456522E+03	3.397104E-02	5.534963E-04
4.466403E+03	3.405456E-02	5.511815E-04
4.476285E+03	3.410757E-02	5.484397E-04
4.486166E+03	3.413006E-02	5.452786E-04
4.496047E+03	3.412277E-02	5.417177E-04
4.505929E+03	3.408680E-02	5.377816E-04
4.515810E+03	3.402399E-02	5.335052E-04
4.525692E+03	3.393764E-02	5.289456E-04
4.535573E+03	3.383033E-02	5.241468E-04
4.545455E+03	3.370525E-02	5.191614E-04
4.555336E+03	3.356649E-02	5.140542E-04
4.565217E+03	3.341788E-02	5.088844E-04
4.575099E+03	3.326232E-02	5.036960E-04
4.584980E+03	3.310452E-02	4.985592E-04
4.594862E+03	3.294680E-02	4.935066E-04
4.604743E+03	3.279310E-02	4.885945E-04
4.614625E+03	3.264618E-02	4.838604E-04
4.624506E+03	3.250833E-02	4.793342E-04
4.634387E+03	3.238159E-02	4.750417E-04
4.644269E+03	3.226747E-02	4.710003E-04
4.654150E+03	3.216770E-02	4.672306E-04
4.664032E+03	3.208269E-02	4.637335E-04
4.673913E+03	3.201266E-02	4.605075E-04
4.683794E+03	3.195771E-02	4.575493E-04
4.693676E+03	3.191665E-02	4.548377E-04
4.703557E+03	3.188950E-02	4.523690E-04
4.713439E+03	3.187402E-02	4.501073E-04
4.723320E+03	3.186933E-02	4.480374E-04
4.733202E+03	3.187374E-02	4.461323E-04
4.743083E+03	3.188473E-02	4.443547E-04
4.752964E+03	3.190067E-02	4.426799E-04
4.762846E+03	3.191993E-02	4.410838E-04
4.772727E+03	3.193995E-02	4.395302E-04
4.782609E+03	3.195924E-02	4.379979E-04
4.792490E+03	3.197616E-02	4.364642E-04
4.802372E+03	3.198917E-02	4.349080E-04
4.812253E+03	3.199767E-02	4.333216E-04
4.822134E+03	3.200217E-02	4.317109E-04
4.832016E+03	3.200283E-02	4.300777E-04
4.841897E+03	3.200069E-02	4.284354E-04
4.851779E+03	3.199611E-02	4.267880E-04
4.861660E+03	3.199054E-02	4.251542E-04
4.871542E+03	3.198524E-02	4.235498E-04
4.881423E+03	3.198129E-02	4.219884E-04
4.891304E+03	3.198044E-02	4.204919E-04
4.901186E+03	3.198377E-02	4.190735E-04
4.911067E+03	3.199308E-02	4.177553E-04
4.920949E+03	3.200934E-02	4.165489E-04
4.930830E+03	3.203378E-02	4.154690E-04
4.940711E+03	3.206712E-02	4.145233E-04
4.950593E+03	3.211090E-02	4.137308E-04
4.960474E+03	3.216518E-02	4.130905E-04
4.970356E+03	3.223033E-02	4.126062E-04
4.980237E+03	3.230695E-02	4.122843E-04
4.990119E+03	3.239459E-02	4.121182E-04
5.000000E+03	3.249296E-02	4.121030E-04
5.009881E+03	3.260147E-02	4.122310E-04
5.019763E+03	3.271927E-02	4.124906E-04
5.029644E+03	3.284495E-02	4.128641E-04
5.039526E+03	3.297719E-02	4.133349E-04
5.049407E+03	3.311480E-02	4.138885E-04
5.059289E+03	3.325536E-02	4.144954E-04
5.069170E+03	3.339769E-02	4.151417E-04
5.079051E+03	3.353867E-02	4.157903E-04
5.088933E+03	3.367686E-02	4.164246E-04
5.098814E+03	3.380958E-02	4.170135E-04
5.108696E+03	3.393452E-02	4.175309E-04
5.118577E+03	3.404932E-02	4.179502E-04
5.128458E+03	3.415127E-02	4.182409E-04
5.138340E+03	3.423809E-02	4.183780E-04
5.148221E+03	3.430730E-02	4.183346E-04
5.158103E+03	3.435766E-02	4.180985E-04
5.167984E+03	3.438640E-02	4.176397E-04
5.177866E+03	3.439248E-02	4.169490E-04
5.187747E+03	3.437486E-02	4.160169E-04
5.197628E+03	3.433283E-02	4.148384E-04
5.207510E+03	3.426544E-02	4.134049E-04
5.217391E+03	3.417314E-02	4.117250E-04
5.227273E+03	3.405616E-02	4.098039E-04
5.237154E+03	3.391547E-02	4.076551E-04
5.247036E+03	3.375204E-02	4.052922E-04
5.256917E+03	3.356796E-02	4.027420E-04
5.266798E+03	3.336461E-02	4.000220E-04
5.276680E+03	3.314442E-02	3.971622E-04
5.286561E+03	3.290974E-02	3.941915E-04
5.296443E+03	3.266391E-02	3.911492E-04
5.306324E+03	3.240923E-02	3.880592E-04
5.316206E+03	3.214953E-02	3.849629E-04
5.326087E+03	3.188794E-02	3.818934E-04
5.335968E+03	3.162728E-02	3.788800E-04
5.345850E+03	3.136815E-02	3.759257E-04
5.355731E+03	3.110970E-02	3.730163E-04
5.365613E+03	3.084991E-02	3.701235E-04
5.375494E+03	3.058528E-02	3.672014E-04
5.385375E+03	3.031387E-02	3.642227E-04
5.395257E+03	3.003319E-02	3.611537E-04
5.405138E+03	2.974183E-02	3.579736E-04
5.415020E+03	2.944030E-02	3.546848E-04
5.424901E+03	2.912837E-02	3.512808E-04
5.434783E+03	2.880726E-02	3.477729E-04
5.444664E+03	2.847801E-02	3.441703E-04
5.454545E+03	2.814276E-02	3.404959E-04
5.464427E+03	2.780253E-02	3.367590E-04
5.474308E+03	2.745932E-02	3.329811E-04
5.484190E+03	2.711475E-02	3.291797E-04
5.494071E+03	2.677136E-02	3.253834E-04
5.503953E+03	2.643070E-02	3.216091E-04
5.513834E+03	2.609482E-02	3.178801E-04
5.523715E+03	2.576550E-02	3.142168E-04
5.533597E+03	2.544498E-02	3.106454E-04
5.543478E+03	2.513463E-02	3.071814E-04
5.553360E+03	2.483619E-02	3.038456E-04
5.563241E+03	2.455122E-02	3.006563E-04
5.573123E+03	2.428088E-02	2.976276E-04
5.583004E+03	2.402633E-02	2.947731E-04
5.592885E+03	2.378809E-02	2.920992E-04
5.602767E+03	2.356694E-02	2.896154E-04
5.612648E+03	2.336345E-02	2.873287E-04
5.622530E+03	2.317776E-02	2.852406E-04
5.632411E+03	2.300970E-02	2.833494E-04
5.642292E+03	2.285895E-02	2.816509E-04
5.652174E+03	2.272539E-02	2.801441E-04
5.662055E+03	2.260773E-02	2.788127E-04
5.671937E+03	2.250537E-02	2.776497E-04
5.681818E+03	2.241703E-02	2.766393E-04
5.691700E+03	2.234099E-02	2.757602E-04
5.701581E+03	2.227581E-02	2.749948E-04
5.711462E+03	2.221995E-02	2.743239E-04
5.721344E+03	2.217127E-02	2.737213E-04
5.731225E+03	2.212782E-02	2.731632E-04
5.741107E+03	2.208816E-02	2.726316E-04
5.750988E+03	2.204989E-02	2.720973E-04
5.760870E+03	2.201144E-02	2.715410E-04
5.770751E+03	2.197109E-02	2.709419E-04
5.780632E+03	2.192724E-02	2.702810E-04
5.790514E+03	2.187871E-02	2.695439E-04
5.800395E+03	2.182372E-02	2.687097E-04
5.810277E+03	2.176166E-02	2.677715E-04
5.820158E+03	2.169134E-02	2.667156E-04
5.830040E+03	2.161197E-02	2.655334E-04
5.839921E+03	2.152295E-02	2.642187E-04
5.849802E+03	2.142380E-02	2.627668E-04
5.859684E+03	2.131446E-02	2.611785E-04
5.869565E+03	2.119427E-02	2.594473E-04
5.879447E+03	2.106320E-02	2.575741E-04
5.889328E+03	2.092158E-02	2.555648E-04
5.899209E+03	2.076962E-02	2.534237E-04
5.909091E+03	2.060715E-02	2.511506E-04
5.918972E+03	2.043510E-02	2.487585E-04
5.928854E+03	2.025330E-02	2.462473E-04
5.938735E+03	2.006310E-02	2.436352E-04
5.948617E+03	1.986458E-02	2.409251E-04
5.958498E+03	1.965864E-02	2.381296E-04
5.968379E+03	1.944651E-02	2.352657E-04
5.978261E+03	1.922913E-02	2.323461E-04
5.988142E+03	1.900778E-02	2.293881E-04
5.998024E+03	1.878340E-02	2.264048E-04
6.007905E+03	1.855800E-02	2.234216E-04
6.017787E+03	1.833251E-02	2.204513E-04
6.027668E+03	1.810909E-02	2.175210E-04
6.037549E+03	1.788925E-02	2.146501E-04
6.047431E+03	1.767451E-02	2.118578E-04
6.057312E+03	1.746654E-02	2.091651E-04
6.067194E+03	1.726710E-02	2.065939E-04
6.077075E+03	1.707733E-02	2.041589E-04
6.086957E+03	1.689837E-02	2.018741E-04
6.096838E+03	1.673146E-02	1.997552E-04
6.106719E+03	1.657665E-02	1.978037E-04
6.116601E+03	1.643439E-02	1.960255E-04
6.126482E+03	1.630524E-02	1.944278E-04
6.136364E+03	1.619089E-02	1.930304E-04
6.146245E+03	1.609406E-02	1.918645E-04
6.156126E+03	1.601809E-02	1.909694E-04
6.166008E+03	1.596620E-02	1.903826E-04
6.175889E+03	1.594061E-02	1.901303E-04
6.185771E+03	1.594341E-02	1.902372E-04
6.195652E+03	1.597592E-02	1.907191E-04
6.205534E+03	1.603921E-02	1.915891E-04
6.215415E+03	1.613368E-02	1.928524E-04
6.225296E+03	1.625930E-02	1.945097E-04
6.235178E+03	1.641593E-02	1.965602E-04
6.245059E+03	1.660307E-02	1.989993E-04
6.254941E+03	1.681949E-02	2.018136E-04
6.264822E+03	1.706409E-02	2.049917E-04
6.274704E+03	1.733555E-02	2.085194E-04
6.284585E+03	1.763180E-02	2.123738E-04
6.294466E+03	1.795128E-02	2.165381E-04
6.304348E+03	1.829173E-02	2.209873E-04
6.314229E+03	1.865072E-02	2.256940E-04
6.324111E+03	1.902560E-02	2.306285E-04
6.333992E+03	1.941419E-02	2.357665E-04
6.343874E+03	1.981336E-02	2.410720E-04
6.353755E+03	2.022078E-02	2.465187E-04
6.363636E+03	2.063352E-02	2.520730E-04
6.373518E+03	2.104866E-02	2.577011E-04
6.383399E+03	2.146365E-02	2.633733E-04
6.393281E+03	2.187567E-02	2.690567E-04
6.403162E+03	2.228236E-02	2.747237E-04
6.413043E+03	2.268042E-02	2.803345E-04
6.422925E+03	2.306800E-02	2.858676E-04
6.432806E+03	2.344269E-02	2.912936E-04
6.442688E+03	2.380179E-02	2.965794E-04
6.452569E+03	2.414341E-02	3.017019E-04
6.462451E+03	2.446539E-02	3.066339E-04
6.472332E+03	2.476567E-02	3.113492E-04
6.482213E+03	2.504230E-02	3.158227E-04
6.492095E+03	2.529388E-02	3.200358E-04
6.501976E+03	2.551837E-02	3.239611E-04
6.511858E+03	2.571432E-02	3.275786E-04
6.521739E+03	2.588091E-02	3.308760E-04
6.531621E+03	2.601718E-02	3.338383E-04
6.541502E+03	2.612199E-02	3.364484E-04
6.551383E+03	2.619535E-02	3.387032E-04
6.561265E+03	2.623669E-02	3.405921E-04
6.571146E+03	2.624710E-02	3.421254E-04
6.581028E+03	2.622622E-02	3.432943E-04
6.590909E+03	2.617494E-02	3.441039E-04
6.600791E+03	2.609483E-02	3.445678E-04
6.610672E+03	2.598725E-02	3.446971E-04
6.620553E+03	2.585333E-02	3.444998E-04
6.630435E+03	2.569478E-02	3.439920E-04
6.640316E+03	2.551392E-02	3.431980E-04
6.650198E+03	2.531228E-02	3.421321E-04
6.660079E+03	2.509236E-02	3.408221E-04
6.669960E+03	2.485539E-02	3.392789E-04
6.679842E+03	2.460442E-02	3.375386E-04
6.689723E+03	2.434074E-02	3.356143E-04
6.699605E+03	2.406741E-02	3.335436E-04
6.709486E+03	2.378571E-02	3.313404E-04
6.719368E+03	2.349822E-02	3.290371E-04
6.729249E+03	2.320700E-02	3.266597E-04
6.739130E+03	2.291365E-02	3.242281E-04
6.749012E+03	2.262047E-02	3.217732E-04
6.758893E+03	2.232885E-02	3.193132E-04
6.768775E+03	2.204083E-02	3.168763E-04
6.778656E+03	2.175705E-02	3.144713E-04
6.788538E+03	2.147954E-02	3.121276E-04
6.798419E+03	2.120876E-02	3.098520E-04
6.808300E+03	2.094522E-02	3.076523E-04
6.818182E+03	2.068875E-02	3.055272E-04
6.828063E+03	2.044019E-02	3.034897E-04
6.837945E+03	2.019828E-02	3.015220E-04
6.847826E+03	1.996395E-02	2.996390E-04
6.857708E+03	1.973607E-02	2.978249E-04
6.867589E+03	1.951420E-02	2.960738E-04
6.877470E+03	1.929821E-02	2.943847E-04
6.887352E+03	1.908713E-02	2.927437E-04
6.897233E+03	1.888038E-02	2.911426E-04
6.907115E+03	1.867733E-02	2.895724E-04
6.916996E+03	1.847738E-02	2.880244E-04
6.926877E+03	1.827996E-02	2.864898E-04
6.936759E+03	1.808415E-02	2.849549E-04
6.946640E+03	1.789018E-02	2.834235E-04
6.956522E+03	1.769657E-02	2.818720E-04
6.966403E+03	1.750399E-02	2.803113E-04
6.976285E+03	1.731110E-02	2.787201E-04
6.986166E+03	1.711839E-02	2.771058E-04
6.996047E+03	1.692535E-02	2.754604E-04
7.005929E+03	1.673191E-02	2.737826E-04
7.015810E+03	1.653841E-02	2.720777E-04
7.025692E+03	1.634425E-02	2.703357E-04
7.035573E+03	1.614989E-02	2.685643E-04
7.045455E+03	1.595519E-02	2.667610E-04
7.055336E+03	1.576070E-02	2.649351E-04
7.065217E+03	1.556671E-02	2.630914E-04
7.075099E+03	1.537318E-02	2.612296E-04
7.084980E+03	1.518074E-02	2.593606E-04
7.094862E+03	1.498910E-02	2.574796E-04
7.104743E+03	1.479920E-02	2.556032E-04
7.114625E+03	1.461105E-02	2.537322E-04
7.124506E+03	1.442467E-02	2.518675E-04
7.134387E+03	1.424065E-02	2.500200E-04
7.144269E+03	1.405930E-02	2.481958E-04
7.154150E+03	1.388059E-02	2.463952E-04
7.164032E+03	1.370478E-02	2.446239E-04
7.173913E+03	1.353212E-02	2.428872E-04
7.183794E+03	1.336284E-02	2.411900E-04
7.193676E+03	1.319716E-02	2.395375E-04
7.203557E+03	1.303471E-02	2.379242E-04
7.213439E+03	1.287624E-02	2.363646E-04
7.223320E+03	1.272162E-02	2.348579E-04
7.233202E+03	1.257075E-02	2.334033E-04
7.243083E+03	1.242403E-02	2.320095E-04
7.252964E+03	1.228106E-02	2.306703E-04
7.262846E+03	1.214197E-02	2.293894E-04
7.272727E+03	1.200688E-02	2.281702E-04
7.282609E+03	1.187561E-02	2.270111E-04
7.292490E+03	1.174853E-02	2.259198E-04
7.302372E+03	1.162495E-02	2.248849E-04
7.312253E+03	1.150544E-02	2.239185E-04
7.322134E+03	1.138955E-02	2.230133E-04
7.332016E+03	1.127758E-02	2.221762E-04
7.341897E+03	1.116927E-02	2.214038E-04
7.351779E+03	1.106463E-02	2.206974E-04
7.361660E+03	1.096386E-02	2.200623E-04
7.371542E+03	1.086665E-02	2.194937E-04
7.381423E+03	1.077360E-02	2.190054E-04
7.391304E+03	1.068413E-02	2.185868E-04
7.401186E+03	1.059856E-02	2.182457E-04
7.411067E+03	1.051646E-02	2.179753E-04
7.420949E+03	1.043834E-02	2.177869E-04
7.430830E+03	1.036373E-02	2.176728E-04
7.440711E+03	1.029239E-02	2.176281E-04
7.450593E+03	1.022426E-02	2.176524E-04
7.460474E+03	1.015904E-02	2.177398E-04
7.470356E+03	1.009686E-02	2.178933E-04
7.480237E+03	1.003691E-02	2.180962E-04
7.490119E+03	9.979052E-03	2.183455E-04
7.500000E+03	9.923116E-03	2.186377E-04
7.509881E+03	9.868467E-03	2.189589E-04
7.519763E+03	9.814877E-03	2.193038E-04
7.529644E+03	9.761664E-03	2.196569E-04
7.539526E+03	9.708799E-03	2.200171E-04
7.549407E+03	9.655435E-03	2.203645E-04
7.559289E+03	9.601815E-03	2.207037E-04
7.569170E+03	9.547557E-03	2.210252E-04
7.579051E+03	9.493254E-03	2.213417E-04
7.588933E+03	9.438629E-03	2.216462E-04
7.598814E+03	9.384245E-03	2.219512E-04
7.608696E+03	9.329994E-03	2.222535E-04
7.618577E+03	9.275962E-03	2.225547E-04
7.628458E+03	9.222228E-03	2.228562E-04
7.638340E+03	9.168854E-03	2.231592E-04
7.648221E+03	9.115902E-03	2.234647E-04
7.658103E+03	9.063224E-03	2.237688E-04
7.667984E+03	9.011302E-03	2.240830E-04
