#wls	flux	fluxerr
1.581028E+03	2.128256E-03	1.857426E-04
1.620553E+03	2.192120E-03	1.904573E-04
1.660079E+03	2.258004E-03	1.952735E-04
1.699605E+03	2.326154E-03	2.002072E-04
1.739130E+03	2.396198E-03	2.052214E-04
1.778656E+03	2.468298E-03	2.103244E-04
1.818182E+03	2.541127E-03	2.153984E-04
1.857708E+03	2.614022E-03	2.203833E-04
1.897233E+03	2.685634E-03	2.251632E-04
1.936759E+03	2.754980E-03	2.296547E-04
1.976285E+03	2.821778E-03	2.338346E-04
2.015810E+03	2.888339E-03	2.378942E-04
2.055336E+03	2.960621E-03	2.423183E-04
2.094862E+03	3.048639E-03	2.479093E-04
2.134387E+03	3.162485E-03	2.554532E-04
2.173913E+03	3.308064E-03	2.653769E-04
2.213439E+03	3.483906E-03	2.775041E-04
2.252964E+03	3.684281E-03	2.913224E-04
2.292490E+03	3.902831E-03	3.062813E-04
2.332016E+03	4.134719E-03	3.219620E-04
2.371542E+03	4.378107E-03	3.381878E-04
2.411067E+03	4.632699E-03	3.549036E-04
2.450593E+03	4.899261E-03	3.721345E-04
2.490119E+03	5.179073E-03	3.899411E-04
2.529644E+03	5.473357E-03	4.083754E-04
2.569170E+03	5.783827E-03	4.275207E-04
2.608696E+03	6.111616E-03	4.474114E-04
2.648221E+03	6.457477E-03	4.680500E-04
2.687747E+03	6.822256E-03	4.894414E-04
2.727273E+03	7.205896E-03	5.115222E-04
2.766798E+03	7.607938E-03	5.341993E-04
2.806324E+03	8.027275E-03	5.573342E-04
2.845850E+03	8.462409E-03	5.807635E-04
2.885375E+03	8.913906E-03	6.044669E-04
2.924901E+03	9.384120E-03	6.285410E-04
2.964427E+03	9.877104E-03	6.531852E-04
2.974308E+03	1.000433E-02	6.594539E-04
2.984190E+03	1.013355E-02	6.657889E-04
2.994071E+03	1.026424E-02	6.721550E-04
3.003953E+03	1.039715E-02	6.785989E-04
3.013834E+03	1.053215E-02	6.851112E-04
3.023715E+03	1.066939E-02	6.916995E-04
3.033597E+03	1.080902E-02	6.983717E-04
3.043478E+03	1.095121E-02	7.051361E-04
3.053360E+03	1.109562E-02	7.119702E-04
3.063241E+03	1.124266E-02	7.188974E-04
3.073123E+03	1.139201E-02	7.258953E-04
3.083004E+03	1.154384E-02	7.329723E-04
3.092885E+03	1.169830E-02	7.401364E-04
3.102767E+03	1.185531E-02	7.473804E-04
3.112648E+03	1.201456E-02	7.546826E-04
3.122530E+03	1.217669E-02	7.620808E-04
3.132411E+03	1.234115E-02	7.695383E-04
3.142292E+03	1.250833E-02	7.770776E-04
3.152174E+03	1.267815E-02	7.846915E-04
3.162055E+03	1.285054E-02	7.923731E-04
3.171937E+03	1.302542E-02	8.001154E-04
3.181818E+03	1.320318E-02	8.079399E-04
3.191700E+03	1.338351E-02	8.158251E-04
3.201581E+03	1.356632E-02	8.237640E-04
3.211462E+03	1.375177E-02	8.317635E-04
3.221344E+03	1.394001E-02	8.398302E-04
3.231225E+03	1.413072E-02	8.479430E-04
3.241107E+03	1.432405E-02	8.561081E-04
3.250988E+03	1.451992E-02	8.643183E-04
3.260870E+03	1.471846E-02	8.725797E-04
3.270751E+03	1.491936E-02	8.808712E-04
3.280632E+03	1.512254E-02	8.891857E-04
3.290514E+03	1.532835E-02	8.975420E-04
3.300395E+03	1.553626E-02	9.059065E-04
3.310277E+03	1.574640E-02	9.142845E-04
3.320158E+03	1.595889E-02	9.226818E-04
3.330040E+03	1.617320E-02	9.310650E-04
3.339921E+03	1.638968E-02	9.394522E-04
3.349802E+03	1.660780E-02	9.478109E-04
3.359684E+03	1.682744E-02	9.561340E-04
3.369565E+03	1.704875E-02	9.644267E-04
3.379447E+03	1.727140E-02	9.726698E-04
3.389328E+03	1.749529E-02	9.808562E-04
3.399209E+03	1.771990E-02	9.889552E-04
3.409091E+03	1.794535E-02	9.969724E-04
3.418972E+03	1.817133E-02	1.004890E-03
3.428854E+03	1.839731E-02	1.012678E-03
3.438735E+03	1.862321E-02	1.020331E-03
3.448617E+03	1.884851E-02	1.027821E-03
3.458498E+03	1.907292E-02	1.035133E-03
3.468379E+03	1.929613E-02	1.042250E-03
3.478261E+03	1.951748E-02	1.049136E-03
3.488142E+03	1.973623E-02	1.055754E-03
3.498024E+03	1.995149E-02	1.062058E-03
3.507905E+03	2.016222E-02	1.067996E-03
3.517787E+03	2.036734E-02	1.073513E-03
3.527668E+03	2.056583E-02	1.078562E-03
3.537549E+03	2.075646E-02	1.083081E-03
3.547431E+03	2.093803E-02	1.087016E-03
3.557312E+03	2.110982E-02	1.090336E-03
3.567194E+03	2.127048E-02	1.092980E-03
3.577075E+03	2.141928E-02	1.094919E-03
3.586957E+03	2.155636E-02	1.096169E-03
3.596838E+03	2.168140E-02	1.096725E-03
3.606719E+03	2.179452E-02	1.096602E-03
3.616601E+03	2.189588E-02	1.095817E-03
3.626482E+03	2.198574E-02	1.094393E-03
3.636364E+03	2.206427E-02	1.092348E-03
3.646245E+03	2.213139E-02	1.089688E-03
3.656126E+03	2.218783E-02	1.086457E-03
3.666008E+03	2.223332E-02	1.082652E-03
3.675889E+03	2.226839E-02	1.078308E-03
3.685771E+03	2.229317E-02	1.073439E-03
3.695652E+03	2.230803E-02	1.068072E-03
3.705534E+03	2.231309E-02	1.062222E-03
3.715415E+03	2.230849E-02	1.055903E-03
3.725296E+03	2.229481E-02	1.049151E-03
3.735178E+03	2.227215E-02	1.041980E-03
3.745059E+03	2.224090E-02	1.034413E-03
3.754941E+03	2.220103E-02	1.026459E-03
3.764822E+03	2.215323E-02	1.018156E-03
3.774704E+03	2.209752E-02	1.009513E-03
3.784585E+03	2.203445E-02	1.000560E-03
3.794466E+03	2.196398E-02	9.913039E-04
3.804348E+03	2.188684E-02	9.817838E-04
3.814229E+03	2.180289E-02	9.719987E-04
3.824111E+03	2.171282E-02	9.619865E-04
3.833992E+03	2.161685E-02	9.517615E-04
3.843874E+03	2.151516E-02	9.413379E-04
3.853755E+03	2.140816E-02	9.307383E-04
3.863636E+03	2.129619E-02	9.199831E-04
3.873518E+03	2.117967E-02	9.090943E-04
3.883399E+03	2.105880E-02	8.980855E-04
3.893281E+03	2.093383E-02	8.869712E-04
3.903162E+03	2.080530E-02	8.757781E-04
3.913043E+03	2.067363E-02	8.645274E-04
3.922925E+03	2.053872E-02	8.532183E-04
3.932806E+03	2.040130E-02	8.418840E-04
3.942688E+03	2.026163E-02	8.305379E-04
3.952569E+03	2.012009E-02	8.191984E-04
3.962451E+03	1.997683E-02	8.078731E-04
3.972332E+03	1.983224E-02	7.965799E-04
3.982213E+03	1.968689E-02	7.853432E-04
3.992095E+03	1.954090E-02	7.741690E-04
4.001976E+03	1.939468E-02	7.630747E-04
4.011858E+03	1.924851E-02	7.520717E-04
4.021739E+03	1.910279E-02	7.411766E-04
4.031621E+03	1.895781E-02	7.303999E-04
4.041502E+03	1.881396E-02	7.197572E-04
4.051383E+03	1.867151E-02	7.092583E-04
4.061265E+03	1.853073E-02	6.989125E-04
4.071146E+03	1.839202E-02	6.887340E-04
4.081028E+03	1.825576E-02	6.787360E-04
4.090909E+03	1.812207E-02	6.689213E-04
4.100791E+03	1.799146E-02	6.593073E-04
4.110672E+03	1.786404E-02	6.498957E-04
4.120553E+03	1.774016E-02	6.406976E-04
4.130435E+03	1.762018E-02	6.317234E-04
4.140316E+03	1.750432E-02	6.229783E-04
4.150198E+03	1.739278E-02	6.144666E-04
4.160079E+03	1.728588E-02	6.061972E-04
4.169960E+03	1.718382E-02	5.981732E-04
4.179842E+03	1.708689E-02	5.904024E-04
4.189723E+03	1.699540E-02	5.828913E-04
4.199605E+03	1.690950E-02	5.756419E-04
4.209486E+03	1.682921E-02	5.686509E-04
4.219368E+03	1.675506E-02	5.619324E-04
4.229249E+03	1.668703E-02	5.554824E-04
4.239130E+03	1.662539E-02	5.493051E-04
4.249012E+03	1.657010E-02	5.433957E-04
4.258893E+03	1.652152E-02	5.377618E-04
4.268775E+03	1.647973E-02	5.324020E-04
4.278656E+03	1.644480E-02	5.273147E-04
4.288538E+03	1.641695E-02	5.225019E-04
4.298419E+03	1.639620E-02	5.179610E-04
4.308300E+03	1.638300E-02	5.137015E-04
4.318182E+03	1.637724E-02	5.097161E-04
4.328063E+03	1.637908E-02	5.060053E-04
4.337945E+03	1.638865E-02	5.025690E-04
4.347826E+03	1.640581E-02	4.993992E-04
4.357708E+03	1.643068E-02	4.964952E-04
4.367589E+03	1.646320E-02	4.938519E-04
4.377470E+03	1.650317E-02	4.914588E-04
4.387352E+03	1.655064E-02	4.893136E-04
4.397233E+03	1.660528E-02	4.874017E-04
4.407115E+03	1.666687E-02	4.857123E-04
4.416996E+03	1.673503E-02	4.842305E-04
4.426877E+03	1.680979E-02	4.829534E-04
4.436759E+03	1.689088E-02	4.818702E-04
4.446640E+03	1.697778E-02	4.809620E-04
4.456522E+03	1.707049E-02	4.802263E-04
4.466403E+03	1.716859E-02	4.796486E-04
4.476285E+03	1.727180E-02	4.792188E-04
4.486166E+03	1.737999E-02	4.789306E-04
4.496047E+03	1.749287E-02	4.787744E-04
4.505929E+03	1.761002E-02	4.787366E-04
4.515810E+03	1.773114E-02	4.788079E-04
4.525692E+03	1.785610E-02	4.789832E-04
4.535573E+03	1.798460E-02	4.792536E-04
4.545455E+03	1.811605E-02	4.796024E-04
4.555336E+03	1.825045E-02	4.800293E-04
4.565217E+03	1.838751E-02	4.805257E-04
4.575099E+03	1.852659E-02	4.810755E-04
4.584980E+03	1.866754E-02	4.816744E-04
4.594862E+03	1.881004E-02	4.823143E-04
4.604743E+03	1.895357E-02	4.829829E-04
4.614625E+03	1.909813E-02	4.836805E-04
4.624506E+03	1.924319E-02	4.843946E-04
4.634387E+03	1.938855E-02	4.851212E-04
4.644269E+03	1.953382E-02	4.858520E-04
4.654150E+03	1.967877E-02	4.865826E-04
4.664032E+03	1.982284E-02	4.873003E-04
4.673913E+03	1.996592E-02	4.880050E-04
4.683794E+03	2.010743E-02	4.886836E-04
4.693676E+03	2.024744E-02	4.893402E-04
4.703557E+03	2.038513E-02	4.899573E-04
4.713439E+03	2.052021E-02	4.905305E-04
4.723320E+03	2.065259E-02	4.910595E-04
4.733202E+03	2.078161E-02	4.915317E-04
4.743083E+03	2.090717E-02	4.919474E-04
4.752964E+03	2.102845E-02	4.922900E-04
4.762846E+03	2.114537E-02	4.925608E-04
4.772727E+03	2.125752E-02	4.927533E-04
4.782609E+03	2.136432E-02	4.928570E-04
4.792490E+03	2.146559E-02	4.928713E-04
4.802372E+03	2.156123E-02	4.927971E-04
4.812253E+03	2.165075E-02	4.926262E-04
4.822134E+03	2.173439E-02	4.923674E-04
4.832016E+03	2.181244E-02	4.920304E-04
4.841897E+03	2.188467E-02	4.916125E-04
4.851779E+03	2.195151E-02	4.911244E-04
4.861660E+03	2.201321E-02	4.905720E-04
4.871542E+03	2.207005E-02	4.899620E-04
4.881423E+03	2.212234E-02	4.893017E-04
4.891304E+03	2.217022E-02	4.885936E-04
4.901186E+03	2.221421E-02	4.878496E-04
4.911067E+03	2.225446E-02	4.870727E-04
4.920949E+03	2.229132E-02	4.862700E-04
4.930830E+03	2.232514E-02	4.854487E-04
4.940711E+03	2.235626E-02	4.846158E-04
4.950593E+03	2.238500E-02	4.837778E-04
4.960474E+03	2.241171E-02	4.829410E-04
4.970356E+03	2.243646E-02	4.821068E-04
4.980237E+03	2.245954E-02	4.812807E-04
4.990119E+03	2.248124E-02	4.804677E-04
5.000000E+03	2.250179E-02	4.796723E-04
5.009881E+03	2.252143E-02	4.788986E-04
5.019763E+03	2.254036E-02	4.781502E-04
5.029644E+03	2.255834E-02	4.774212E-04
5.039526E+03	2.257594E-02	4.767231E-04
5.049407E+03	2.259331E-02	4.760581E-04
5.059289E+03	2.261013E-02	4.754188E-04
5.069170E+03	2.262647E-02	4.748063E-04
5.079051E+03	2.264263E-02	4.742261E-04
5.088933E+03	2.265865E-02	4.736786E-04
5.098814E+03	2.267413E-02	4.731548E-04
5.108696E+03	2.268929E-02	4.726591E-04
5.118577E+03	2.270436E-02	4.721957E-04
5.128458E+03	2.271888E-02	4.717548E-04
5.138340E+03	2.273283E-02	4.713357E-04
5.148221E+03	2.274617E-02	4.709375E-04
5.158103E+03	2.275909E-02	4.705639E-04
5.167984E+03	2.277133E-02	4.702095E-04
5.177866E+03	2.278285E-02	4.698733E-04
5.187747E+03	2.279338E-02	4.695501E-04
5.197628E+03	2.280311E-02	4.692436E-04
5.207510E+03	2.281201E-02	4.689533E-04
5.217391E+03	2.281983E-02	4.686744E-04
5.227273E+03	2.282677E-02	4.684110E-04
5.237154E+03	2.283258E-02	4.681586E-04
5.247036E+03	2.283727E-02	4.679172E-04
5.256917E+03	2.284104E-02	4.676917E-04
5.266798E+03	2.284368E-02	4.674779E-04
5.276680E+03	2.284519E-02	4.672763E-04
5.286561E+03	2.284557E-02	4.670872E-04
5.296443E+03	2.284483E-02	4.669113E-04
5.306324E+03	2.284297E-02	4.667490E-04
5.316206E+03	2.283998E-02	4.666006E-04
5.326087E+03	2.283586E-02	4.664665E-04
5.335968E+03	2.283035E-02	4.663413E-04
5.345850E+03	2.282350E-02	4.662241E-04
5.355731E+03	2.281560E-02	4.661185E-04
5.365613E+03	2.280629E-02	4.660152E-04
5.375494E+03	2.279542E-02	4.659088E-04
5.385375E+03	2.278259E-02	4.657892E-04
5.395257E+03	2.276788E-02	4.656558E-04
5.405138E+03	2.275070E-02	4.654946E-04
5.415020E+03	2.273141E-02	4.653106E-04
5.424901E+03	2.270922E-02	4.650862E-04
5.434783E+03	2.268433E-02	4.648230E-04
5.444664E+03	2.265673E-02	4.645190E-04
5.454545E+03	2.262621E-02	4.641682E-04
5.464427E+03	2.259286E-02	4.637702E-04
5.474308E+03	2.255655E-02	4.633210E-04
5.484190E+03	2.251744E-02	4.628221E-04
5.494071E+03	2.247573E-02	4.622758E-04
5.503953E+03	2.243166E-02	4.616854E-04
5.513834E+03	2.238526E-02	4.610502E-04
5.523715E+03	2.233683E-02	4.603749E-04
5.533597E+03	2.228670E-02	4.596649E-04
5.543478E+03	2.223519E-02	4.589258E-04
5.553360E+03	2.218244E-02	4.581591E-04
5.563241E+03	2.212881E-02	4.573710E-04
5.573123E+03	2.207487E-02	4.565728E-04
5.583004E+03	2.202075E-02	4.557660E-04
5.592885E+03	2.196656E-02	4.549520E-04
5.602767E+03	2.191306E-02	4.541462E-04
5.612648E+03	2.186055E-02	4.533537E-04
5.622530E+03	2.180882E-02	4.525701E-04
5.632411E+03	2.175831E-02	4.518039E-04
5.642292E+03	2.170943E-02	4.510632E-04
5.652174E+03	2.166208E-02	4.503457E-04
5.662055E+03	2.161633E-02	4.496528E-04
5.671937E+03	2.157245E-02	4.489898E-04
5.681818E+03	2.153019E-02	4.483512E-04
5.691700E+03	2.148991E-02	4.477450E-04
5.701581E+03	2.145103E-02	4.471590E-04
5.711462E+03	2.141359E-02	4.465942E-04
5.721344E+03	2.137737E-02	4.460459E-04
5.731225E+03	2.134229E-02	4.455131E-04
5.741107E+03	2.130780E-02	4.449844E-04
5.750988E+03	2.127377E-02	4.444574E-04
5.760870E+03	2.123977E-02	4.439238E-04
5.770751E+03	2.120514E-02	4.433699E-04
5.780632E+03	2.116987E-02	4.427963E-04
5.790514E+03	2.113324E-02	4.421884E-04
5.800395E+03	2.109498E-02	4.415413E-04
5.810277E+03	2.105435E-02	4.408400E-04
5.820158E+03	2.101106E-02	4.400795E-04
5.830040E+03	2.096463E-02	4.392501E-04
5.839921E+03	2.091455E-02	4.383422E-04
5.849802E+03	2.086059E-02	4.373519E-04
5.859684E+03	2.080185E-02	4.362609E-04
5.869565E+03	2.073838E-02	4.350715E-04
5.879447E+03	2.066981E-02	4.337771E-04
5.889328E+03	2.059584E-02	4.323717E-04
5.899209E+03	2.051593E-02	4.308459E-04
5.909091E+03	2.043012E-02	4.292008E-04
5.918972E+03	2.033848E-02	4.274394E-04
5.928854E+03	2.024043E-02	4.255504E-04
5.938735E+03	2.013641E-02	4.235441E-04
5.948617E+03	2.002621E-02	4.214171E-04
5.958498E+03	1.991013E-02	4.191772E-04
5.968379E+03	1.978787E-02	4.168184E-04
5.978261E+03	1.966010E-02	4.143563E-04
5.988142E+03	1.952709E-02	4.117974E-04
5.998024E+03	1.938892E-02	4.091445E-04
6.007905E+03	1.924597E-02	4.064064E-04
6.017787E+03	1.909891E-02	4.035981E-04
6.027668E+03	1.894797E-02	4.007254E-04
6.037549E+03	1.879392E-02	3.978052E-04
6.047431E+03	1.863706E-02	3.948449E-04
6.057312E+03	1.847824E-02	3.918630E-04
6.067194E+03	1.831832E-02	3.888786E-04
6.077075E+03	1.815774E-02	3.859015E-04
6.086957E+03	1.799742E-02	3.829521E-04
6.096838E+03	1.783854E-02	3.800562E-04
6.106719E+03	1.768184E-02	3.772303E-04
6.116601E+03	1.752829E-02	3.744937E-04
6.126482E+03	1.737839E-02	3.718558E-04
6.136364E+03	1.723293E-02	3.693321E-04
6.146245E+03	1.709256E-02	3.669355E-04
6.156126E+03	1.695819E-02	3.646838E-04
6.166008E+03	1.683090E-02	3.625996E-04
6.175889E+03	1.671128E-02	3.606951E-04
6.185771E+03	1.660012E-02	3.589864E-04
6.195652E+03	1.649835E-02	3.574935E-04
6.205534E+03	1.640685E-02	3.562352E-04
6.215415E+03	1.632619E-02	3.552239E-04
6.225296E+03	1.625684E-02	3.544703E-04
6.235178E+03	1.619989E-02	3.539985E-04
6.245059E+03	1.615521E-02	3.538062E-04
6.254941E+03	1.612392E-02	3.539191E-04
6.264822E+03	1.610596E-02	3.543366E-04
6.274704E+03	1.610161E-02	3.550662E-04
6.284585E+03	1.611157E-02	3.561245E-04
6.294466E+03	1.613575E-02	3.575112E-04
6.304348E+03	1.617426E-02	3.592299E-04
6.314229E+03	1.622711E-02	3.612828E-04
6.324111E+03	1.629451E-02	3.636763E-04
6.333992E+03	1.637590E-02	3.663996E-04
6.343874E+03	1.647039E-02	3.694345E-04
6.353755E+03	1.657727E-02	3.727669E-04
6.363636E+03	1.669575E-02	3.763806E-04
6.373518E+03	1.682497E-02	3.802580E-04
6.383399E+03	1.696376E-02	3.843736E-04
6.393281E+03	1.711112E-02	3.887061E-04
6.403162E+03	1.726597E-02	3.932323E-04
6.413043E+03	1.742745E-02	3.979336E-04
6.422925E+03	1.759438E-02	4.027838E-04
6.432806E+03	1.776551E-02	4.077551E-04
6.442688E+03	1.794012E-02	4.128313E-04
6.452569E+03	1.811660E-02	4.179757E-04
6.462451E+03	1.829414E-02	4.231702E-04
6.472332E+03	1.847138E-02	4.283827E-04
6.482213E+03	1.864748E-02	4.335941E-04
6.492095E+03	1.882105E-02	4.387714E-04
6.501976E+03	1.899096E-02	4.438879E-04
6.511858E+03	1.915612E-02	4.489175E-04
6.521739E+03	1.931577E-02	4.538414E-04
6.531621E+03	1.946825E-02	4.586196E-04
6.541502E+03	1.961319E-02	4.632422E-04
6.551383E+03	1.974934E-02	4.676783E-04
6.561265E+03	1.987581E-02	4.719056E-04
6.571146E+03	1.999213E-02	4.759112E-04
6.581028E+03	2.009691E-02	4.796601E-04
6.590909E+03	2.019017E-02	4.831512E-04
6.600791E+03	2.027107E-02	4.863617E-04
6.610672E+03	2.033920E-02	4.892787E-04
6.620553E+03	2.039459E-02	4.918996E-04
6.630435E+03	2.043667E-02	4.942080E-04
6.640316E+03	2.046532E-02	4.961977E-04
6.650198E+03	2.048052E-02	4.978648E-04
6.660079E+03	2.048267E-02	4.992165E-04
6.669960E+03	2.047157E-02	5.002446E-04
6.679842E+03	2.044746E-02	5.009520E-04
6.689723E+03	2.041100E-02	5.013518E-04
6.699605E+03	2.036219E-02	5.014419E-04
6.709486E+03	2.030148E-02	5.012302E-04
6.719368E+03	2.022970E-02	5.007351E-04
6.729249E+03	2.014667E-02	4.999495E-04
6.739130E+03	2.005366E-02	4.989029E-04
6.749012E+03	1.995126E-02	4.976081E-04
6.758893E+03	1.983938E-02	4.960605E-04
6.768775E+03	1.971934E-02	4.942920E-04
6.778656E+03	1.959142E-02	4.923078E-04
6.788538E+03	1.945625E-02	4.901224E-04
6.798419E+03	1.931453E-02	4.877524E-04
6.808300E+03	1.916705E-02	4.852164E-04
6.818182E+03	1.901492E-02	4.825420E-04
6.828063E+03	1.885819E-02	4.797298E-04
6.837945E+03	1.869827E-02	4.768151E-04
6.847826E+03	1.853513E-02	4.737969E-04
6.857708E+03	1.837011E-02	4.707093E-04
6.867589E+03	1.820311E-02	4.675494E-04
6.877470E+03	1.803537E-02	4.643497E-04
6.887352E+03	1.786670E-02	4.611055E-04
6.897233E+03	1.769793E-02	4.578382E-04
6.907115E+03	1.752948E-02	4.545594E-04
6.916996E+03	1.736139E-02	4.512708E-04
6.926877E+03	1.719469E-02	4.479995E-04
6.936759E+03	1.702901E-02	4.447368E-04
6.946640E+03	1.686463E-02	4.414907E-04
6.956522E+03	1.670213E-02	4.382772E-04
6.966403E+03	1.654170E-02	4.351024E-04
6.976285E+03	1.638321E-02	4.319636E-04
6.986166E+03	1.622681E-02	4.288658E-04
6.996047E+03	1.607296E-02	4.258221E-04
7.005929E+03	1.592143E-02	4.228278E-04
7.015810E+03	1.577232E-02	4.198862E-04
7.025692E+03	1.562570E-02	4.170004E-04
7.035573E+03	1.548194E-02	4.141813E-04
7.045455E+03	1.534043E-02	4.114141E-04
7.055336E+03	1.520184E-02	4.087174E-04
7.065217E+03	1.506555E-02	4.060759E-04
7.075099E+03	1.493187E-02	4.034991E-04
7.084980E+03	1.480079E-02	4.009880E-04
7.094862E+03	1.467230E-02	3.985431E-04
7.104743E+03	1.454607E-02	3.961566E-04
7.114625E+03	1.442236E-02	3.938373E-04
7.124506E+03	1.430114E-02	3.915849E-04
7.134387E+03	1.418207E-02	3.893914E-04
7.144269E+03	1.406509E-02	3.872564E-04
7.154150E+03	1.395046E-02	3.851880E-04
7.164032E+03	1.383783E-02	3.831775E-04
7.173913E+03	1.372712E-02	3.812241E-04
7.183794E+03	1.361859E-02	3.793357E-04
7.193676E+03	1.351187E-02	3.775031E-04
7.203557E+03	1.340689E-02	3.757254E-04
7.213439E+03	1.330417E-02	3.740183E-04
7.223320E+03	1.320276E-02	3.723559E-04
7.233202E+03	1.310345E-02	3.707618E-04
7.243083E+03	1.300559E-02	3.692182E-04
7.252964E+03	1.290968E-02	3.677403E-04
7.262846E+03	1.281534E-02	3.663183E-04
7.272727E+03	1.272277E-02	3.649590E-04
7.282609E+03	1.263217E-02	3.636689E-04
7.292490E+03	1.254316E-02	3.624379E-04
7.302372E+03	1.245649E-02	3.612890E-04
7.312253E+03	1.237177E-02	3.602120E-04
7.322134E+03	1.228890E-02	3.592044E-04
7.332016E+03	1.220889E-02	3.582976E-04
7.341897E+03	1.213078E-02	3.574639E-04
7.351779E+03	1.205528E-02	3.567260E-04
7.361660E+03	1.198228E-02	3.560811E-04
7.371542E+03	1.191105E-02	3.555094E-04
7.381423E+03	1.184117E-02	3.549990E-04
7.391304E+03	1.177250E-02	3.545464E-04
7.401186E+03	1.170461E-02	3.541391E-04
7.411067E+03	1.163735E-02	3.537734E-04
7.420949E+03	1.157028E-02	3.534362E-04
7.430830E+03	1.150296E-02	3.531143E-04
7.440711E+03	1.143525E-02	3.528014E-04
7.450593E+03	1.136699E-02	3.524912E-04
7.460474E+03	1.129773E-02	3.521684E-04
7.470356E+03	1.122761E-02	3.518351E-04
7.480237E+03	1.115593E-02	3.514673E-04
7.490119E+03	1.108311E-02	3.510762E-04
7.500000E+03	1.100875E-02	3.506470E-04
7.509881E+03	1.093248E-02	3.501653E-04
7.519763E+03	1.085447E-02	3.496345E-04
7.529644E+03	1.077438E-02	3.490411E-04
7.539526E+03	1.069245E-02	3.483898E-04
7.549407E+03	1.060864E-02	3.476774E-04
7.559289E+03	1.052272E-02	3.468935E-04
7.569170E+03	1.043505E-02	3.460475E-04
7.579051E+03	1.034550E-02	3.451322E-04
7.588933E+03	1.025448E-02	3.441590E-04
7.598814E+03	1.016213E-02	3.431306E-04
7.608696E+03	1.006836E-02	3.420413E-04
7.618577E+03	9.973603E-03	3.409038E-04
7.628458E+03	9.878028E-03	3.397219E-04
7.638340E+03	9.781814E-03	3.385001E-04
7.648221E+03	9.685132E-03	3.372424E-04
7.658103E+03	9.588149E-03	3.359532E-04
7.667984E+03	9.491033E-03	3.346368E-04
