#wls	flux	fluxerr
1.581028E+03	2.573317E-03	1.986928E-04
1.620553E+03	2.654483E-03	2.039303E-04
1.660079E+03	2.738680E-03	2.093090E-04
1.699605E+03	2.826155E-03	2.148410E-04
1.739130E+03	2.916725E-03	2.205050E-04
1.778656E+03	3.009935E-03	2.262596E-04
1.818182E+03	3.104701E-03	2.320169E-04
1.857708E+03	3.200123E-03	2.377041E-04
1.897233E+03	3.294746E-03	2.432091E-04
1.936759E+03	3.386971E-03	2.484119E-04
1.976285E+03	3.476887E-03	2.533186E-04
2.015810E+03	3.566941E-03	2.581056E-04
2.055336E+03	3.664405E-03	2.632915E-04
2.094862E+03	3.781897E-03	2.697606E-04
2.134387E+03	3.931491E-03	2.783313E-04
2.173913E+03	4.119597E-03	2.893961E-04
2.213439E+03	4.342908E-03	3.026535E-04
2.252964E+03	4.589923E-03	3.172400E-04
2.292490E+03	4.853931E-03	3.326444E-04
2.332016E+03	5.131030E-03	3.485604E-04
2.371542E+03	5.419489E-03	3.648361E-04
2.411067E+03	5.719317E-03	3.814384E-04
2.450593E+03	6.031873E-03	3.984225E-04
2.490119E+03	6.358903E-03	4.158641E-04
2.529644E+03	6.701815E-03	4.338112E-04
2.569170E+03	7.062301E-03	4.523250E-04
2.608696E+03	7.441664E-03	4.714354E-04
2.648221E+03	7.840761E-03	4.911394E-04
2.687747E+03	8.259982E-03	5.114008E-04
2.727273E+03	8.699823E-03	5.321868E-04
2.766798E+03	9.159186E-03	5.533651E-04
2.806324E+03	9.636806E-03	5.747951E-04
2.845850E+03	1.013210E-02	5.963786E-04
2.885375E+03	1.064518E-02	6.180572E-04
2.924901E+03	1.117818E-02	6.398880E-04
2.964427E+03	1.173437E-02	6.619837E-04
2.974308E+03	1.187736E-02	6.675569E-04
2.984190E+03	1.202202E-02	6.731526E-04
2.994071E+03	1.216859E-02	6.787826E-04
3.003953E+03	1.231709E-02	6.844465E-04
3.013834E+03	1.246768E-02	6.901511E-04
3.023715E+03	1.262080E-02	6.959192E-04
3.033597E+03	1.277608E-02	7.017284E-04
3.043478E+03	1.293397E-02	7.076016E-04
3.053360E+03	1.309411E-02	7.135170E-04
3.063241E+03	1.325668E-02	7.194826E-04
3.073123E+03	1.342159E-02	7.254915E-04
3.083004E+03	1.358904E-02	7.315521E-04
3.092885E+03	1.375892E-02	7.376574E-04
3.102767E+03	1.393117E-02	7.438009E-04
3.112648E+03	1.410597E-02	7.499907E-04
3.122530E+03	1.428296E-02	7.562060E-04
3.132411E+03	1.446261E-02	7.624689E-04
3.142292E+03	1.464456E-02	7.687591E-04
3.152174E+03	1.482900E-02	7.750840E-04
3.162055E+03	1.501586E-02	7.814375E-04
3.171937E+03	1.520504E-02	7.878135E-04
3.181818E+03	1.539675E-02	7.942193E-04
3.191700E+03	1.559089E-02	8.006486E-04
3.201581E+03	1.578712E-02	8.070819E-04
3.211462E+03	1.598616E-02	8.135531E-04
3.221344E+03	1.618713E-02	8.200160E-04
3.231225E+03	1.639073E-02	8.265043E-04
3.241107E+03	1.659637E-02	8.329854E-04
3.250988E+03	1.680423E-02	8.394662E-04
3.260870E+03	1.701447E-02	8.459536E-04
3.270751E+03	1.722651E-02	8.524158E-04
3.280632E+03	1.744076E-02	8.588725E-04
3.290514E+03	1.765716E-02	8.653173E-04
3.300395E+03	1.787535E-02	8.717316E-04
3.310277E+03	1.809526E-02	8.781099E-04
3.320158E+03	1.831679E-02	8.844463E-04
3.330040E+03	1.854013E-02	8.907475E-04
3.339921E+03	1.876468E-02	8.969834E-04
3.349802E+03	1.899085E-02	9.031726E-04
3.359684E+03	1.921807E-02	9.092860E-04
3.369565E+03	1.944625E-02	9.153187E-04
3.379447E+03	1.967555E-02	9.212762E-04
3.389328E+03	1.990514E-02	9.271201E-04
3.399209E+03	2.013547E-02	9.328692E-04
3.409091E+03	2.036616E-02	9.385063E-04
3.418972E+03	2.059643E-02	9.439940E-04
3.428854E+03	2.082671E-02	9.493525E-04
3.438735E+03	2.105615E-02	9.545433E-04
3.448617E+03	2.128471E-02	9.595639E-04
3.458498E+03	2.151209E-02	9.644021E-04
3.468379E+03	2.173726E-02	9.690124E-04
3.478261E+03	2.196016E-02	9.733934E-04
3.488142E+03	2.218005E-02	9.775143E-04
3.498024E+03	2.239619E-02	9.813446E-04
3.507905E+03	2.260806E-02	9.848644E-04
3.517787E+03	2.281472E-02	9.880359E-04
3.527668E+03	2.301549E-02	9.908338E-04
3.537549E+03	2.320941E-02	9.932220E-04
3.547431E+03	2.339607E-02	9.951876E-04
3.557312E+03	2.357482E-02	9.967090E-04
3.567194E+03	2.374478E-02	9.977555E-04
3.577075E+03	2.390557E-02	9.983177E-04
3.586957E+03	2.405683E-02	9.983881E-04
3.596838E+03	2.419770E-02	9.979393E-04
3.606719E+03	2.432854E-02	9.969932E-04
3.616601E+03	2.444855E-02	9.955265E-04
3.626482E+03	2.455786E-02	9.935523E-04
3.636364E+03	2.465636E-02	9.910750E-04
3.646245E+03	2.474397E-02	9.881007E-04
3.656126E+03	2.482081E-02	9.846426E-04
3.666008E+03	2.488727E-02	9.807248E-04
3.675889E+03	2.494283E-02	9.763359E-04
3.685771E+03	2.498828E-02	9.715160E-04
3.695652E+03	2.502335E-02	9.662625E-04
3.705534E+03	2.504845E-02	9.606000E-04
3.715415E+03	2.506395E-02	9.545507E-04
3.725296E+03	2.506958E-02	9.481133E-04
3.735178E+03	2.506616E-02	9.413268E-04
3.745059E+03	2.505365E-02	9.341975E-04
3.754941E+03	2.503246E-02	9.267481E-04
3.764822E+03	2.500278E-02	9.189935E-04
3.774704E+03	2.496502E-02	9.109557E-04
3.784585E+03	2.491935E-02	9.026483E-04
3.794466E+03	2.486620E-02	8.940941E-04
3.804348E+03	2.480577E-02	8.853062E-04
3.814229E+03	2.473869E-02	8.763137E-04
3.824111E+03	2.466517E-02	8.671305E-04
3.833992E+03	2.458544E-02	8.577700E-04
3.843874E+03	2.449991E-02	8.482520E-04
3.853755E+03	2.440884E-02	8.385913E-04
3.863636E+03	2.431284E-02	8.288139E-04
3.873518E+03	2.421214E-02	8.189318E-04
3.883399E+03	2.410721E-02	8.089659E-04
3.893281E+03	2.399831E-02	7.989284E-04
3.903162E+03	2.388565E-02	7.888308E-04
3.913043E+03	2.377011E-02	7.787052E-04
3.922925E+03	2.365154E-02	7.685504E-04
3.932806E+03	2.353061E-02	7.583905E-04
3.942688E+03	2.340757E-02	7.482369E-04
3.952569E+03	2.328291E-02	7.381070E-04
3.962451E+03	2.315705E-02	7.280165E-04
3.972332E+03	2.303012E-02	7.179713E-04
3.982213E+03	2.290278E-02	7.079927E-04
3.992095E+03	2.277526E-02	6.980900E-04
4.001976E+03	2.264808E-02	6.882791E-04
4.011858E+03	2.252146E-02	6.785679E-04
4.021739E+03	2.239577E-02	6.689670E-04
4.031621E+03	2.227158E-02	6.594940E-04
4.041502E+03	2.214901E-02	6.501522E-04
4.051383E+03	2.202852E-02	6.409542E-04
4.061265E+03	2.191058E-02	6.319130E-04
4.071146E+03	2.179528E-02	6.230299E-04
4.081028E+03	2.168324E-02	6.143215E-04
4.090909E+03	2.157455E-02	6.057887E-04
4.100791E+03	2.146966E-02	5.974421E-04
4.110672E+03	2.136897E-02	5.892916E-04
4.120553E+03	2.127260E-02	5.813375E-04
4.130435E+03	2.118110E-02	5.735926E-04
4.140316E+03	2.109442E-02	5.660530E-04
4.150198E+03	2.101321E-02	5.587338E-04
4.160079E+03	2.093746E-02	5.516310E-04
4.169960E+03	2.086748E-02	5.447505E-04
4.179842E+03	2.080350E-02	5.380950E-04
4.189723E+03	2.074586E-02	5.316702E-04
4.199605E+03	2.069445E-02	5.254695E-04
4.209486E+03	2.064974E-02	5.195019E-04
4.219368E+03	2.061174E-02	5.137642E-04
4.229249E+03	2.058042E-02	5.082526E-04
4.239130E+03	2.055608E-02	5.029709E-04
4.249012E+03	2.053882E-02	4.979186E-04
4.258893E+03	2.052843E-02	4.930870E-04
4.268775E+03	2.052496E-02	4.884747E-04
4.278656E+03	2.052848E-02	4.840800E-04
4.288538E+03	2.053900E-02	4.799008E-04
4.298419E+03	2.055652E-02	4.759342E-04
4.308300E+03	2.058118E-02	4.721809E-04
4.318182E+03	2.061292E-02	4.686369E-04
4.328063E+03	2.065165E-02	4.652980E-04
4.337945E+03	2.069775E-02	4.621703E-04
4.347826E+03	2.075106E-02	4.592483E-04
4.357708E+03	2.081157E-02	4.565295E-04
4.367589E+03	2.087937E-02	4.540146E-04
4.377470E+03	2.095433E-02	4.516986E-04
4.387352E+03	2.103600E-02	4.495694E-04
4.397233E+03	2.112420E-02	4.476201E-04
4.407115E+03	2.121841E-02	4.458363E-04
4.416996E+03	2.131825E-02	4.442073E-04
4.426877E+03	2.142334E-02	4.427227E-04
4.436759E+03	2.153294E-02	4.413653E-04
4.446640E+03	2.164687E-02	4.401292E-04
4.456522E+03	2.176457E-02	4.390019E-04
4.466403E+03	2.188554E-02	4.379717E-04
4.476285E+03	2.200944E-02	4.370311E-04
4.486166E+03	2.213563E-02	4.361667E-04
4.496047E+03	2.226385E-02	4.353729E-04
4.505929E+03	2.239389E-02	4.346452E-04
4.515810E+03	2.252534E-02	4.339759E-04
4.525692E+03	2.265775E-02	4.333560E-04
4.535573E+03	2.279094E-02	4.327827E-04
4.545455E+03	2.292466E-02	4.322514E-04
4.555336E+03	2.305871E-02	4.317591E-04
4.565217E+03	2.319304E-02	4.313051E-04
4.575099E+03	2.332728E-02	4.308835E-04
4.584980E+03	2.346146E-02	4.304956E-04
4.594862E+03	2.359543E-02	4.301394E-04
4.604743E+03	2.372907E-02	4.298136E-04
4.614625E+03	2.386220E-02	4.295161E-04
4.624506E+03	2.399471E-02	4.292456E-04
4.634387E+03	2.412644E-02	4.290005E-04
4.644269E+03	2.425763E-02	4.287864E-04
4.654150E+03	2.438812E-02	4.286014E-04
4.664032E+03	2.451770E-02	4.284431E-04
4.673913E+03	2.464655E-02	4.283158E-04
4.683794E+03	2.477420E-02	4.282128E-04
4.693676E+03	2.490037E-02	4.281305E-04
4.703557E+03	2.502496E-02	4.280687E-04
4.713439E+03	2.514755E-02	4.280220E-04
4.723320E+03	2.526757E-02	4.279824E-04
4.733202E+03	2.538478E-02	4.279474E-04
4.743083E+03	2.549876E-02	4.279119E-04
4.752964E+03	2.560881E-02	4.278662E-04
4.762846E+03	2.571469E-02	4.278084E-04
4.772727E+03	2.581593E-02	4.277329E-04
4.782609E+03	2.591209E-02	4.276343E-04
4.792490E+03	2.600273E-02	4.275079E-04
4.802372E+03	2.608734E-02	4.273472E-04
4.812253E+03	2.616628E-02	4.271605E-04
4.822134E+03	2.623925E-02	4.269450E-04
4.832016E+03	2.630651E-02	4.267066E-04
4.841897E+03	2.636861E-02	4.264546E-04
4.851779E+03	2.642592E-02	4.261935E-04
4.861660E+03	2.647887E-02	4.259284E-04
4.871542E+03	2.652736E-02	4.256563E-04
4.881423E+03	2.657237E-02	4.253910E-04
4.891304E+03	2.661409E-02	4.251336E-04
4.901186E+03	2.665297E-02	4.248893E-04
4.911067E+03	2.668948E-02	4.246636E-04
4.920949E+03	2.672404E-02	4.244612E-04
4.930830E+03	2.675687E-02	4.242834E-04
4.940711E+03	2.678832E-02	4.241339E-04
4.950593E+03	2.681908E-02	4.240214E-04
4.960474E+03	2.684920E-02	4.239448E-04
4.970356E+03	2.687876E-02	4.239034E-04
4.980237E+03	2.690854E-02	4.239075E-04
4.990119E+03	2.693800E-02	4.239471E-04
5.000000E+03	2.696785E-02	4.240310E-04
5.009881E+03	2.699819E-02	4.241598E-04
5.019763E+03	2.702835E-02	4.243207E-04
5.029644E+03	2.705914E-02	4.245254E-04
5.039526E+03	2.709001E-02	4.247637E-04
5.049407E+03	2.712091E-02	4.250334E-04
5.059289E+03	2.715197E-02	4.253354E-04
5.069170E+03	2.718249E-02	4.256579E-04
5.079051E+03	2.721235E-02	4.259974E-04
5.088933E+03	2.724151E-02	4.263528E-04
5.098814E+03	2.726949E-02	4.267157E-04
5.108696E+03	2.729599E-02	4.270805E-04
5.118577E+03	2.732046E-02	4.274381E-04
5.128458E+03	2.734290E-02	4.277879E-04
5.138340E+03	2.736242E-02	4.281155E-04
5.148221E+03	2.737933E-02	4.284253E-04
5.158103E+03	2.739302E-02	4.287075E-04
5.167984E+03	2.740306E-02	4.289552E-04
5.177866E+03	2.740915E-02	4.291632E-04
5.187747E+03	2.741145E-02	4.293343E-04
5.197628E+03	2.740923E-02	4.294567E-04
5.207510E+03	2.740268E-02	4.295336E-04
5.217391E+03	2.739204E-02	4.295687E-04
5.227273E+03	2.737651E-02	4.295496E-04
5.237154E+03	2.735698E-02	4.294905E-04
5.247036E+03	2.733277E-02	4.293806E-04
5.256917E+03	2.730484E-02	4.292357E-04
5.266798E+03	2.727267E-02	4.290474E-04
5.276680E+03	2.723698E-02	4.288277E-04
5.286561E+03	2.719814E-02	4.285826E-04
5.296443E+03	2.715618E-02	4.283130E-04
5.306324E+03	2.711191E-02	4.280322E-04
5.316206E+03	2.706487E-02	4.277330E-04
5.326087E+03	2.701613E-02	4.274316E-04
5.335968E+03	2.696570E-02	4.271255E-04
5.345850E+03	2.691367E-02	4.268131E-04
5.355731E+03	2.685994E-02	4.264900E-04
5.365613E+03	2.680428E-02	4.261498E-04
5.375494E+03	2.674613E-02	4.257808E-04
5.385375E+03	2.668521E-02	4.253760E-04
5.395257E+03	2.662119E-02	4.249274E-04
5.405138E+03	2.655379E-02	4.244278E-04
5.415020E+03	2.648255E-02	4.238672E-04
5.424901E+03	2.640699E-02	4.232356E-04
5.434783E+03	2.632728E-02	4.225333E-04
5.444664E+03	2.624317E-02	4.217536E-04
5.454545E+03	2.615444E-02	4.208909E-04
5.464427E+03	2.606098E-02	4.199413E-04
5.474308E+03	2.596331E-02	4.189110E-04
5.484190E+03	2.586123E-02	4.177948E-04
5.494071E+03	2.575541E-02	4.166017E-04
5.503953E+03	2.564581E-02	4.153295E-04
5.513834E+03	2.553300E-02	4.139856E-04
5.523715E+03	2.541782E-02	4.125824E-04
5.533597E+03	2.530039E-02	4.111206E-04
5.543478E+03	2.518163E-02	4.096139E-04
5.553360E+03	2.506221E-02	4.080722E-04
5.563241E+03	2.494252E-02	4.065012E-04
5.573123E+03	2.482328E-02	4.049116E-04
5.583004E+03	2.470536E-02	4.033173E-04
5.592885E+03	2.458937E-02	4.017275E-04
5.602767E+03	2.447559E-02	4.001467E-04
5.612648E+03	2.436475E-02	3.985867E-04
5.622530E+03	2.425760E-02	3.970592E-04
5.632411E+03	2.415395E-02	3.955611E-04
5.642292E+03	2.405435E-02	3.941017E-04
5.652174E+03	2.395926E-02	3.926884E-04
5.662055E+03	2.386877E-02	3.913228E-04
5.671937E+03	2.378294E-02	3.900062E-04
5.681818E+03	2.370169E-02	3.887375E-04
5.691700E+03	2.362489E-02	3.875148E-04
5.701581E+03	2.355258E-02	3.863392E-04
5.711462E+03	2.348420E-02	3.852017E-04
5.721344E+03	2.341988E-02	3.841052E-04
5.731225E+03	2.335891E-02	3.830385E-04
5.741107E+03	2.330079E-02	3.819939E-04
5.750988E+03	2.324550E-02	3.809717E-04
5.760870E+03	2.319188E-02	3.799538E-04
5.770751E+03	2.313961E-02	3.789354E-04
5.780632E+03	2.308820E-02	3.779098E-04
5.790514E+03	2.303676E-02	3.768629E-04
5.800395E+03	2.298482E-02	3.757883E-04
5.810277E+03	2.293142E-02	3.746715E-04
5.820158E+03	2.287638E-02	3.735105E-04
5.830040E+03	2.281874E-02	3.722915E-04
5.839921E+03	2.275787E-02	3.710051E-04
5.849802E+03	2.269339E-02	3.696468E-04
5.859684E+03	2.262446E-02	3.682048E-04
5.869565E+03	2.255081E-02	3.666762E-04
5.879447E+03	2.247173E-02	3.650512E-04
5.889328E+03	2.238704E-02	3.633292E-04
5.899209E+03	2.229643E-02	3.615068E-04
5.909091E+03	2.219965E-02	3.595821E-04
5.918972E+03	2.209626E-02	3.575500E-04
5.928854E+03	2.198643E-02	3.554156E-04
5.938735E+03	2.187016E-02	3.531810E-04
5.948617E+03	2.174728E-02	3.508456E-04
5.958498E+03	2.161819E-02	3.484184E-04
5.968379E+03	2.148291E-02	3.459014E-04
5.978261E+03	2.134149E-02	3.432982E-04
5.988142E+03	2.119485E-02	3.406253E-04
5.998024E+03	2.104294E-02	3.378843E-04
6.007905E+03	2.088654E-02	3.350896E-04
6.017787E+03	2.072573E-02	3.322446E-04
6.027668E+03	2.056139E-02	3.293652E-04
6.037549E+03	2.039394E-02	3.264602E-04
6.047431E+03	2.022411E-02	3.235426E-04
6.057312E+03	2.005263E-02	3.206261E-04
6.067194E+03	1.988004E-02	3.177208E-04
6.077075E+03	1.970717E-02	3.148412E-04
6.086957E+03	1.953485E-02	3.120023E-04
6.096838E+03	1.936397E-02	3.092192E-04
6.106719E+03	1.919543E-02	3.065076E-04
6.116601E+03	1.902987E-02	3.038780E-04
6.126482E+03	1.886839E-02	3.013473E-04
6.136364E+03	1.871218E-02	2.989320E-04
6.146245E+03	1.856273E-02	2.966549E-04
6.156126E+03	1.842185E-02	2.945431E-04
6.166008E+03	1.829128E-02	2.926229E-04
6.175889E+03	1.817262E-02	2.909190E-04
6.185771E+03	1.806738E-02	2.894541E-04
6.195652E+03	1.797690E-02	2.882491E-04
6.205534E+03	1.790260E-02	2.873260E-04
6.215415E+03	1.784501E-02	2.866930E-04
6.225296E+03	1.780571E-02	2.863751E-04
6.235178E+03	1.778490E-02	2.863755E-04
6.245059E+03	1.778333E-02	2.867066E-04
6.254941E+03	1.780137E-02	2.873747E-04
6.264822E+03	1.783925E-02	2.883840E-04
6.274704E+03	1.789681E-02	2.897326E-04
6.284585E+03	1.797401E-02	2.914208E-04
6.294466E+03	1.807069E-02	2.934472E-04
6.304348E+03	1.818636E-02	2.958046E-04
6.314229E+03	1.832037E-02	2.984841E-04
6.324111E+03	1.847230E-02	3.014798E-04
6.333992E+03	1.864079E-02	3.047710E-04
6.343874E+03	1.882493E-02	3.083443E-04
6.353755E+03	1.902344E-02	3.121802E-04
6.363636E+03	1.923467E-02	3.162528E-04
6.373518E+03	1.945770E-02	3.205485E-04
6.383399E+03	1.969070E-02	3.250383E-04
6.393281E+03	1.993262E-02	3.297061E-04
6.403162E+03	2.018204E-02	3.345300E-04
6.413043E+03	2.043720E-02	3.394818E-04
6.422925E+03	2.069658E-02	3.445369E-04
6.432806E+03	2.095858E-02	3.496704E-04
6.442688E+03	2.122161E-02	3.548558E-04
6.452569E+03	2.148400E-02	3.600665E-04
6.462451E+03	2.174444E-02	3.652808E-04
6.472332E+03	2.200090E-02	3.704652E-04
6.482213E+03	2.225135E-02	3.755857E-04
6.492095E+03	2.249482E-02	3.806263E-04
6.501976E+03	2.272897E-02	3.855469E-04
6.511858E+03	2.295253E-02	3.903263E-04
6.521739E+03	2.316400E-02	3.949380E-04
6.531621E+03	2.336190E-02	3.993567E-04
6.541502E+03	2.354489E-02	4.035583E-04
6.551383E+03	2.371135E-02	4.075139E-04
6.561265E+03	2.386053E-02	4.112099E-04
6.571146E+03	2.399108E-02	4.146214E-04
6.581028E+03	2.410264E-02	4.177403E-04
6.590909E+03	2.419426E-02	4.205471E-04
6.600791E+03	2.426560E-02	4.230316E-04
6.610672E+03	2.431693E-02	4.251938E-04
6.620553E+03	2.434824E-02	4.270293E-04
6.630435E+03	2.435889E-02	4.285224E-04
6.640316E+03	2.435006E-02	4.296890E-04
6.650198E+03	2.432141E-02	4.305186E-04
6.660079E+03	2.427440E-02	4.310325E-04
6.669960E+03	2.420936E-02	4.312325E-04
6.679842E+03	2.412674E-02	4.311220E-04
6.689723E+03	2.402833E-02	4.307290E-04
6.699605E+03	2.391430E-02	4.300529E-04
6.709486E+03	2.378616E-02	4.291170E-04
6.719368E+03	2.364503E-02	4.279380E-04
6.729249E+03	2.349204E-02	4.265333E-04
6.739130E+03	2.332791E-02	4.249131E-04
6.749012E+03	2.315422E-02	4.231033E-04
6.758893E+03	2.297164E-02	4.211141E-04
6.768775E+03	2.278170E-02	4.189712E-04
6.778656E+03	2.258503E-02	4.166843E-04
6.788538E+03	2.238263E-02	4.142703E-04
6.798419E+03	2.217584E-02	4.117526E-04
6.808300E+03	2.196469E-02	4.091305E-04
6.818182E+03	2.175077E-02	4.064329E-04
6.828063E+03	2.153440E-02	4.036650E-04
6.837945E+03	2.131625E-02	4.008387E-04
6.847826E+03	2.109693E-02	3.979653E-04
6.857708E+03	2.087700E-02	3.950549E-04
6.867589E+03	2.065656E-02	3.921096E-04
6.877470E+03	2.043646E-02	3.891456E-04
6.887352E+03	2.021712E-02	3.861708E-04
6.897233E+03	1.999888E-02	3.831923E-04
6.907115E+03	1.978129E-02	3.802019E-04
6.916996E+03	1.956578E-02	3.772277E-04
6.926877E+03	1.935146E-02	3.742528E-04
6.936759E+03	1.913929E-02	3.712968E-04
6.946640E+03	1.892909E-02	3.683567E-04
6.956522E+03	1.872101E-02	3.654363E-04
6.966403E+03	1.851518E-02	3.625394E-04
6.976285E+03	1.831174E-02	3.596691E-04
6.986166E+03	1.811042E-02	3.568212E-04
6.996047E+03	1.791166E-02	3.540056E-04
7.005929E+03	1.771556E-02	3.512249E-04
7.015810E+03	1.752182E-02	3.484744E-04
7.025692E+03	1.733084E-02	3.457634E-04
7.035573E+03	1.714234E-02	3.430870E-04
7.045455E+03	1.695636E-02	3.404474E-04
7.055336E+03	1.677295E-02	3.378463E-04
7.065217E+03	1.659248E-02	3.352928E-04
7.075099E+03	1.641430E-02	3.327747E-04
7.084980E+03	1.623845E-02	3.302940E-04
7.094862E+03	1.606564E-02	3.278662E-04
7.104743E+03	1.589521E-02	3.254790E-04
7.114625E+03	1.572719E-02	3.231343E-04
7.124506E+03	1.556194E-02	3.208405E-04
7.134387E+03	1.539914E-02	3.185924E-04
7.144269E+03	1.523881E-02	3.163915E-04
7.154150E+03	1.508098E-02	3.142393E-04
7.164032E+03	1.492566E-02	3.121373E-04
7.173913E+03	1.477319E-02	3.100938E-04
7.183794E+03	1.462293E-02	3.080968E-04
7.193676E+03	1.447555E-02	3.061612E-04
7.203557E+03	1.433074E-02	3.042816E-04
7.213439E+03	1.418851E-02	3.024595E-04
7.223320E+03	1.404917E-02	3.007029E-04
7.233202E+03	1.391244E-02	2.990066E-04
7.243083E+03	1.377862E-02	2.973784E-04
7.252964E+03	1.364771E-02	2.958196E-04
7.262846E+03	1.352002E-02	2.943379E-04
7.272727E+03	1.339553E-02	2.929344E-04
7.282609E+03	1.327453E-02	2.916165E-04
7.292490E+03	1.315668E-02	2.903785E-04
7.302372E+03	1.304286E-02	2.892408E-04
7.312253E+03	1.293300E-02	2.882038E-04
7.322134E+03	1.282676E-02	2.872612E-04
7.332016E+03	1.272495E-02	2.864326E-04
7.341897E+03	1.262718E-02	2.857113E-04
7.351779E+03	1.253365E-02	2.851032E-04
7.361660E+03	1.244394E-02	2.846007E-04
7.371542E+03	1.235821E-02	2.842092E-04
7.381423E+03	1.227544E-02	2.839066E-04
7.391304E+03	1.219605E-02	2.837042E-04
7.401186E+03	1.211898E-02	2.835787E-04
7.411067E+03	1.204433E-02	2.835336E-04
7.420949E+03	1.197159E-02	2.835579E-04
7.430830E+03	1.190023E-02	2.836394E-04
7.440711E+03	1.183030E-02	2.837778E-04
7.450593E+03	1.176066E-02	2.839449E-04
7.460474E+03	1.169159E-02	2.841462E-04
7.470356E+03	1.162252E-02	2.843664E-04
7.480237E+03	1.155317E-02	2.845967E-04
7.490119E+03	1.148294E-02	2.848213E-04
7.500000E+03	1.141186E-02	2.850381E-04
7.509881E+03	1.133935E-02	2.852311E-04
7.519763E+03	1.126518E-02	2.853918E-04
7.529644E+03	1.118938E-02	2.855189E-04
7.539526E+03	1.111148E-02	2.855976E-04
7.549407E+03	1.103159E-02	2.856283E-04
7.559289E+03	1.094912E-02	2.855924E-04
7.569170E+03	1.086469E-02	2.855038E-04
7.579051E+03	1.077817E-02	2.853560E-04
7.588933E+03	1.068998E-02	2.851576E-04
7.598814E+03	1.060003E-02	2.849036E-04
7.608696E+03	1.050850E-02	2.845965E-04
7.618577E+03	1.041558E-02	2.842392E-04
7.628458E+03	1.032202E-02	2.838496E-04
7.638340E+03	1.022721E-02	2.834091E-04
7.648221E+03	1.013215E-02	2.829434E-04
7.658103E+03	1.003648E-02	2.824413E-04
7.667984E+03	9.940662E-03	2.819138E-04
