#wls	flux	fluxerr
1.581028E+03	3.389741E-04	3.589286E-05
1.620553E+03	3.447447E-04	3.646116E-05
1.660079E+03	3.503652E-04	3.701106E-05
1.699605E+03	3.558668E-04	3.754584E-05
1.739130E+03	3.613214E-04	3.807305E-05
1.778656E+03	3.665754E-04	3.857646E-05
1.818182E+03	3.716091E-04	3.905399E-05
1.857708E+03	3.762606E-04	3.948868E-05
1.897233E+03	3.804083E-04	3.986785E-05
1.936759E+03	3.839626E-04	4.018229E-05
1.976285E+03	3.870314E-04	4.044346E-05
2.015810E+03	3.899854E-04	4.069020E-05
2.055336E+03	3.937464E-04	4.101853E-05
2.094862E+03	3.996878E-04	4.157083E-05
2.134387E+03	4.091282E-04	4.248281E-05
2.173913E+03	4.227381E-04	4.382204E-05
2.213439E+03	4.402724E-04	4.556076E-05
2.252964E+03	4.609578E-04	4.761670E-05
2.292490E+03	4.838489E-04	4.989034E-05
2.332016E+03	5.083111E-04	5.231477E-05
2.371542E+03	5.339516E-04	5.484835E-05
2.411067E+03	5.605980E-04	5.747230E-05
2.450593E+03	5.882695E-04	6.018754E-05
2.490119E+03	6.170482E-04	6.300137E-05
2.529644E+03	6.468431E-04	6.590333E-05
2.569170E+03	6.778188E-04	6.890896E-05
2.608696E+03	7.100008E-04	7.201955E-05
2.648221E+03	7.433987E-04	7.523467E-05
2.687747E+03	7.782069E-04	7.857248E-05
2.727273E+03	8.142688E-04	8.201558E-05
2.766798E+03	8.517475E-04	8.557875E-05
2.806324E+03	8.905189E-04	8.924778E-05
2.845850E+03	9.304408E-04	9.300673E-05
2.885375E+03	9.714222E-04	9.684483E-05
2.924901E+03	1.013424E-03	1.007565E-04
2.964427E+03	1.056459E-03	1.047414E-04
2.974308E+03	1.067371E-03	1.057481E-04
2.984190E+03	1.078354E-03	1.067598E-04
2.994071E+03	1.089474E-03	1.077830E-04
3.003953E+03	1.100664E-03	1.088113E-04
3.013834E+03	1.111940E-03	1.098459E-04
3.023715E+03	1.123316E-03	1.108883E-04
3.033597E+03	1.134853E-03	1.119446E-04
3.043478E+03	1.146544E-03	1.130139E-04
3.053360E+03	1.158313E-03	1.140886E-04
3.063241E+03	1.170221E-03	1.151749E-04
3.073123E+03	1.182261E-03	1.162719E-04
3.083004E+03	1.194426E-03	1.173789E-04
3.092885E+03	1.206710E-03	1.184953E-04
3.102767E+03	1.219174E-03	1.196271E-04
3.112648E+03	1.231744E-03	1.207668E-04
3.122530E+03	1.244415E-03	1.219140E-04
3.132411E+03	1.257247E-03	1.230745E-04
3.142292E+03	1.270234E-03	1.242477E-04
3.152174E+03	1.283440E-03	1.254397E-04
3.162055E+03	1.296721E-03	1.266365E-04
3.171937E+03	1.310207E-03	1.278506E-04
3.181818E+03	1.323825E-03	1.290750E-04
3.191700E+03	1.337636E-03	1.303155E-04
3.201581E+03	1.351635E-03	1.315714E-04
3.211462E+03	1.365814E-03	1.328421E-04
3.221344E+03	1.380235E-03	1.341334E-04
3.231225E+03	1.394824E-03	1.354382E-04
3.241107E+03	1.409642E-03	1.367622E-04
3.250988E+03	1.424682E-03	1.381047E-04
3.260870E+03	1.440004E-03	1.394714E-04
3.270751E+03	1.455534E-03	1.408551E-04
3.280632E+03	1.471332E-03	1.422615E-04
3.290514E+03	1.487389E-03	1.436896E-04
3.300395E+03	1.503765E-03	1.451452E-04
3.310277E+03	1.520385E-03	1.466210E-04
3.320158E+03	1.537373E-03	1.481287E-04
3.330040E+03	1.554655E-03	1.496610E-04
3.339921E+03	1.572286E-03	1.512233E-04
3.349802E+03	1.590257E-03	1.528147E-04
3.359684E+03	1.608625E-03	1.544402E-04
3.369565E+03	1.627378E-03	1.560988E-04
3.379447E+03	1.646506E-03	1.577894E-04
3.389328E+03	1.666063E-03	1.595169E-04
3.399209E+03	1.686102E-03	1.612862E-04
3.409091E+03	1.706545E-03	1.630900E-04
3.418972E+03	1.727509E-03	1.649390E-04
3.428854E+03	1.748916E-03	1.668258E-04
3.438735E+03	1.770881E-03	1.687610E-04
3.448617E+03	1.793451E-03	1.707490E-04
3.458498E+03	1.816484E-03	1.727763E-04
3.468379E+03	1.840155E-03	1.748590E-04
3.478261E+03	1.864383E-03	1.769895E-04
3.488142E+03	1.889216E-03	1.791719E-04
3.498024E+03	1.914573E-03	1.813985E-04
3.507905E+03	1.940560E-03	1.836792E-04
3.517787E+03	1.966975E-03	1.859945E-04
3.527668E+03	1.993801E-03	1.883428E-04
3.537549E+03	2.021080E-03	1.907279E-04
3.547431E+03	2.048616E-03	1.931310E-04
3.557312E+03	2.076453E-03	1.955562E-04
3.567194E+03	2.104454E-03	1.979905E-04
3.577075E+03	2.132664E-03	2.004380E-04
3.586957E+03	2.160952E-03	2.028864E-04
3.596838E+03	2.189240E-03	2.053283E-04
3.606719E+03	2.217519E-03	2.077627E-04
3.616601E+03	2.245778E-03	2.101886E-04
3.626482E+03	2.273886E-03	2.125937E-04
3.636364E+03	2.301832E-03	2.149770E-04
3.646245E+03	2.329553E-03	2.173326E-04
3.656126E+03	2.357037E-03	2.196595E-04
3.666008E+03	2.384221E-03	2.219516E-04
3.675889E+03	2.411096E-03	2.242085E-04
3.685771E+03	2.437659E-03	2.264297E-04
3.695652E+03	2.463788E-03	2.286040E-04
3.705534E+03	2.489485E-03	2.307317E-04
3.715415E+03	2.514741E-03	2.328121E-04
3.725296E+03	2.539615E-03	2.348506E-04
3.735178E+03	2.563935E-03	2.368316E-04
3.745059E+03	2.587758E-03	2.387603E-04
3.754941E+03	2.611033E-03	2.406322E-04
3.764822E+03	2.633814E-03	2.424525E-04
3.774704E+03	2.655996E-03	2.442115E-04
3.784585E+03	2.677639E-03	2.459149E-04
3.794466E+03	2.698691E-03	2.475583E-04
3.804348E+03	2.719112E-03	2.491378E-04
3.814229E+03	2.738954E-03	2.506587E-04
3.824111E+03	2.758181E-03	2.521175E-04
3.833992E+03	2.776749E-03	2.535107E-04
3.843874E+03	2.794719E-03	2.548439E-04
3.853755E+03	2.812053E-03	2.561139E-04
3.863636E+03	2.828716E-03	2.573175E-04
3.873518E+03	2.844772E-03	2.584608E-04
3.883399E+03	2.860185E-03	2.595409E-04
3.893281E+03	2.874927E-03	2.605551E-04
3.903162E+03	2.889062E-03	2.615097E-04
3.913043E+03	2.902561E-03	2.624021E-04
3.922925E+03	2.915446E-03	2.632345E-04
3.932806E+03	2.927690E-03	2.640047E-04
3.942688E+03	2.939316E-03	2.647149E-04
3.952569E+03	2.950348E-03	2.653676E-04
3.962451E+03	2.960813E-03	2.659653E-04
3.972332E+03	2.970640E-03	2.665017E-04
3.982213E+03	2.979951E-03	2.669882E-04
3.992095E+03	2.988683E-03	2.674192E-04
4.001976E+03	2.996863E-03	2.677972E-04
4.011858E+03	3.004521E-03	2.681252E-04
4.021739E+03	3.011689E-03	2.684062E-04
4.031621E+03	3.018352E-03	2.686390E-04
4.041502E+03	3.024542E-03	2.688265E-04
4.051383E+03	3.030293E-03	2.689722E-04
4.061265E+03	3.035548E-03	2.690709E-04
4.071146E+03	3.040431E-03	2.691338E-04
4.081028E+03	3.044930E-03	2.691601E-04
4.090909E+03	3.049037E-03	2.691491E-04
4.100791E+03	3.052786E-03	2.691041E-04
4.110672E+03	3.056171E-03	2.690244E-04
4.120553E+03	3.059270E-03	2.689172E-04
4.130435E+03	3.062117E-03	2.687856E-04
4.140316E+03	3.064662E-03	2.686252E-04
4.150198E+03	3.066984E-03	2.684431E-04
4.160079E+03	3.069074E-03	2.682385E-04
4.169960E+03	3.071006E-03	2.680181E-04
4.179842E+03	3.072738E-03	2.677782E-04
4.189723E+03	3.074379E-03	2.675284E-04
4.199605E+03	3.075884E-03	2.672648E-04
4.209486E+03	3.077361E-03	2.669967E-04
4.219368E+03	3.078765E-03	2.667204E-04
4.229249E+03	3.080164E-03	2.664418E-04
4.239130E+03	3.081626E-03	2.661666E-04
4.249012E+03	3.083138E-03	2.658939E-04
4.258893E+03	3.084803E-03	2.656323E-04
4.268775E+03	3.086571E-03	2.653776E-04
4.278656E+03	3.088616E-03	2.651447E-04
4.288538E+03	3.090885E-03	2.649288E-04
4.298419E+03	3.093472E-03	2.647380E-04
4.308300E+03	3.096470E-03	2.645801E-04
4.318182E+03	3.099933E-03	2.644594E-04
4.328063E+03	3.103911E-03	2.643802E-04
4.337945E+03	3.108496E-03	2.643499E-04
4.347826E+03	3.113806E-03	2.643784E-04
4.357708E+03	3.119851E-03	2.644662E-04
4.367589E+03	3.126711E-03	2.646198E-04
4.377470E+03	3.134397E-03	2.648397E-04
4.387352E+03	3.142908E-03	2.651255E-04
4.397233E+03	3.152249E-03	2.654774E-04
4.407115E+03	3.162423E-03	2.658951E-04
4.416996E+03	3.173432E-03	2.663786E-04
4.426877E+03	3.185240E-03	2.669243E-04
4.436759E+03	3.197845E-03	2.675319E-04
4.446640E+03	3.211210E-03	2.681978E-04
4.456522E+03	3.225371E-03	2.689247E-04
4.466403E+03	3.240284E-03	2.697087E-04
4.476285E+03	3.255878E-03	2.705433E-04
4.486166E+03	3.272178E-03	2.714306E-04
4.496047E+03	3.289149E-03	2.723671E-04
4.505929E+03	3.306743E-03	2.733486E-04
4.515810E+03	3.324921E-03	2.743717E-04
4.525692E+03	3.343670E-03	2.754350E-04
4.535573E+03	3.362913E-03	2.765318E-04
4.545455E+03	3.382677E-03	2.776642E-04
4.555336E+03	3.402839E-03	2.788218E-04
4.565217E+03	3.423426E-03	2.800066E-04
4.575099E+03	3.444355E-03	2.812116E-04
4.584980E+03	3.465576E-03	2.824327E-04
4.594862E+03	3.487039E-03	2.836655E-04
4.604743E+03	3.508733E-03	2.849089E-04
4.614625E+03	3.530600E-03	2.861584E-04
4.624506E+03	3.552594E-03	2.874099E-04
4.634387E+03	3.574618E-03	2.886556E-04
4.644269E+03	3.596736E-03	2.899006E-04
4.654150E+03	3.618855E-03	2.911373E-04
4.664032E+03	3.640995E-03	2.923674E-04
4.673913E+03	3.663100E-03	2.935863E-04
4.683794E+03	3.685192E-03	2.947956E-04
4.693676E+03	3.707331E-03	2.960004E-04
4.703557E+03	3.729502E-03	2.971992E-04
4.713439E+03	3.751764E-03	2.983968E-04
4.723320E+03	3.774184E-03	2.995984E-04
4.733202E+03	3.796747E-03	3.008027E-04
4.743083E+03	3.819516E-03	3.020146E-04
4.752964E+03	3.842479E-03	3.032331E-04
4.762846E+03	3.865704E-03	3.044634E-04
4.772727E+03	3.889099E-03	3.056982E-04
4.782609E+03	3.912772E-03	3.069457E-04
4.792490E+03	3.936675E-03	3.082021E-04
4.802372E+03	3.960792E-03	3.094661E-04
4.812253E+03	3.985158E-03	3.107401E-04
4.822134E+03	4.009717E-03	3.120198E-04
4.832016E+03	4.034499E-03	3.133074E-04
4.841897E+03	4.059493E-03	3.146019E-04
4.851779E+03	4.084688E-03	3.159022E-04
4.861660E+03	4.110030E-03	3.172042E-04
4.871542E+03	4.135550E-03	3.185102E-04
4.881423E+03	4.161241E-03	3.198194E-04
4.891304E+03	4.187090E-03	3.211309E-04
4.901186E+03	4.213088E-03	3.224437E-04
4.911067E+03	4.239183E-03	3.237539E-04
4.920949E+03	4.265451E-03	3.250671E-04
4.930830E+03	4.291841E-03	3.263795E-04
4.940711E+03	4.318300E-03	3.276867E-04
4.950593E+03	4.344905E-03	3.289948E-04
4.960474E+03	4.371608E-03	3.302998E-04
4.970356E+03	4.398354E-03	3.315977E-04
4.980237E+03	4.425223E-03	3.328944E-04
4.990119E+03	4.452164E-03	3.341860E-04
5.000000E+03	4.479211E-03	3.354750E-04
5.009881E+03	4.506270E-03	3.367542E-04
5.019763E+03	4.533372E-03	3.380260E-04
5.029644E+03	4.560557E-03	3.392932E-04
5.039526E+03	4.587766E-03	3.405516E-04
5.049407E+03	4.614993E-03	3.418006E-04
5.059289E+03	4.642269E-03	3.430425E-04
5.069170E+03	4.669493E-03	3.442697E-04
5.079051E+03	4.696741E-03	3.454880E-04
5.088933E+03	4.723953E-03	3.466928E-04
5.098814E+03	4.751114E-03	3.478831E-04
5.108696E+03	4.778210E-03	3.490579E-04
5.118577E+03	4.805218E-03	3.502155E-04
5.128458E+03	4.832121E-03	3.513548E-04
5.138340E+03	4.858948E-03	3.524779E-04
5.148221E+03	4.885579E-03	3.535761E-04
5.158103E+03	4.912039E-03	3.546513E-04
5.167984E+03	4.938304E-03	3.557020E-04
5.177866E+03	4.964347E-03	3.567262E-04
5.187747E+03	4.990091E-03	3.577186E-04
5.197628E+03	5.015557E-03	3.586809E-04
5.207510E+03	5.040718E-03	3.596112E-04
5.217391E+03	5.065493E-03	3.605040E-04
5.227273E+03	5.089847E-03	3.613570E-04
5.237154E+03	5.113804E-03	3.621721E-04
5.247036E+03	5.137226E-03	3.629398E-04
5.256917E+03	5.160186E-03	3.636656E-04
5.266798E+03	5.182546E-03	3.643399E-04
5.276680E+03	5.204329E-03	3.649648E-04
5.286561E+03	5.225501E-03	3.655382E-04
5.296443E+03	5.245983E-03	3.660550E-04
5.306324E+03	5.265743E-03	3.665132E-04
5.316206E+03	5.284757E-03	3.669118E-04
5.326087E+03	5.303051E-03	3.672527E-04
5.335968E+03	5.320499E-03	3.675278E-04
5.345850E+03	5.337135E-03	3.677399E-04
5.355731E+03	5.352891E-03	3.678849E-04
5.365613E+03	5.367809E-03	3.679660E-04
5.375494E+03	5.381829E-03	3.679797E-04
5.385375E+03	5.394947E-03	3.679262E-04
5.395257E+03	5.407164E-03	3.678059E-04
5.405138E+03	5.418491E-03	3.676203E-04
5.415020E+03	5.428934E-03	3.673703E-04
5.424901E+03	5.438459E-03	3.670539E-04
5.434783E+03	5.447194E-03	3.666805E-04
5.444664E+03	5.455061E-03	3.662451E-04
5.454545E+03	5.462091E-03	3.657504E-04
5.464427E+03	5.468429E-03	3.652066E-04
5.474308E+03	5.474067E-03	3.646134E-04
5.484190E+03	5.478994E-03	3.639707E-04
5.494071E+03	5.483379E-03	3.632900E-04
5.503953E+03	5.487271E-03	3.625749E-04
5.513834E+03	5.490626E-03	3.618228E-04
5.523715E+03	5.493673E-03	3.610492E-04
5.533597E+03	5.496365E-03	3.602511E-04
5.543478E+03	5.498828E-03	3.594371E-04
5.553360E+03	5.501132E-03	3.586119E-04
5.563241E+03	5.503347E-03	3.577802E-04
5.573123E+03	5.505544E-03	3.569467E-04
5.583004E+03	5.507846E-03	3.561194E-04
5.592885E+03	5.510319E-03	3.553026E-04
5.602767E+03	5.512966E-03	3.544965E-04
5.612648E+03	5.515906E-03	3.537087E-04
5.622530E+03	5.519240E-03	3.529456E-04
5.632411E+03	5.522905E-03	3.522030E-04
5.642292E+03	5.526990E-03	3.514865E-04
5.652174E+03	5.531577E-03	3.508012E-04
5.662055E+03	5.536627E-03	3.501444E-04
5.671937E+03	5.542204E-03	3.495199E-04
5.681818E+03	5.548299E-03	3.489271E-04
5.691700E+03	5.554840E-03	3.483613E-04
5.701581E+03	5.561855E-03	3.478239E-04
5.711462E+03	5.569294E-03	3.473120E-04
5.721344E+03	5.577109E-03	3.468221E-04
5.731225E+03	5.585232E-03	3.463502E-04
5.741107E+03	5.593583E-03	3.458911E-04
5.750988E+03	5.602076E-03	3.454397E-04
5.760870E+03	5.610608E-03	3.449895E-04
5.770751E+03	5.619138E-03	3.445382E-04
5.780632E+03	5.627490E-03	3.440752E-04
5.790514E+03	5.635545E-03	3.435933E-04
5.800395E+03	5.643244E-03	3.430893E-04
5.810277E+03	5.650398E-03	3.425522E-04
5.820158E+03	5.656945E-03	3.419784E-04
5.830040E+03	5.662700E-03	3.413574E-04
5.839921E+03	5.667546E-03	3.406826E-04
5.849802E+03	5.671423E-03	3.399512E-04
5.859684E+03	5.674167E-03	3.391538E-04
5.869565E+03	5.675680E-03	3.382853E-04
5.879447E+03	5.675930E-03	3.373448E-04
5.889328E+03	5.674780E-03	3.363248E-04
5.899209E+03	5.672170E-03	3.352226E-04
5.909091E+03	5.668112E-03	3.340398E-04
5.918972E+03	5.662448E-03	3.327680E-04
5.928854E+03	5.655225E-03	3.314110E-04
5.938735E+03	5.646445E-03	3.299696E-04
5.948617E+03	5.636122E-03	3.284458E-04
5.958498E+03	5.624234E-03	3.268390E-04
5.968379E+03	5.610831E-03	3.251531E-04
5.978261E+03	5.596043E-03	3.233965E-04
5.988142E+03	5.579831E-03	3.215678E-04
5.998024E+03	5.562421E-03	3.196806E-04
6.007905E+03	5.543795E-03	3.177348E-04
6.017787E+03	5.524081E-03	3.157383E-04
6.027668E+03	5.503472E-03	3.137028E-04
6.037549E+03	5.482049E-03	3.116334E-04
6.047431E+03	5.460020E-03	3.095425E-04
6.057312E+03	5.437478E-03	3.074355E-04
6.067194E+03	5.414576E-03	3.053217E-04
6.077075E+03	5.391596E-03	3.032170E-04
6.086957E+03	5.368693E-03	3.011304E-04
6.096838E+03	5.346080E-03	2.990738E-04
6.106719E+03	5.323912E-03	2.970558E-04
6.116601E+03	5.302330E-03	2.950842E-04
6.126482E+03	5.281542E-03	2.931706E-04
6.136364E+03	5.261620E-03	2.913184E-04
6.146245E+03	5.242749E-03	2.895379E-04
6.156126E+03	5.224931E-03	2.878286E-04
6.166008E+03	5.208399E-03	2.862030E-04
6.175889E+03	5.193137E-03	2.846598E-04
6.185771E+03	5.179357E-03	2.832103E-04
6.195652E+03	5.167148E-03	2.818587E-04
6.205534E+03	5.156468E-03	2.806024E-04
6.215415E+03	5.147565E-03	2.794542E-04
6.225296E+03	5.140316E-03	2.784071E-04
6.235178E+03	5.134958E-03	2.774732E-04
6.245059E+03	5.131405E-03	2.766475E-04
6.254941E+03	5.129753E-03	2.759346E-04
6.264822E+03	5.130022E-03	2.753352E-04
6.274704E+03	5.132162E-03	2.748459E-04
6.284585E+03	5.136239E-03	2.744700E-04
6.294466E+03	5.142125E-03	2.742000E-04
6.304348E+03	5.149854E-03	2.740376E-04
6.314229E+03	5.159345E-03	2.739780E-04
6.324111E+03	5.170491E-03	2.740152E-04
6.333992E+03	5.183248E-03	2.741467E-04
6.343874E+03	5.197428E-03	2.743624E-04
6.353755E+03	5.212896E-03	2.746550E-04
6.363636E+03	5.229568E-03	2.750200E-04
6.373518E+03	5.247167E-03	2.754430E-04
6.383399E+03	5.265713E-03	2.759249E-04
6.393281E+03	5.284968E-03	2.764536E-04
6.403162E+03	5.304880E-03	2.770264E-04
6.413043E+03	5.325387E-03	2.776404E-04
6.422925E+03	5.346427E-03	2.782925E-04
6.432806E+03	5.367935E-03	2.789797E-04
6.442688E+03	5.389843E-03	2.796987E-04
6.452569E+03	5.412083E-03	2.804463E-04
6.462451E+03	5.434522E-03	2.812161E-04
6.472332E+03	5.457092E-03	2.820049E-04
6.482213E+03	5.479659E-03	2.828061E-04
6.492095E+03	5.502232E-03	2.836208E-04
6.501976E+03	5.524614E-03	2.844392E-04
6.511858E+03	5.546753E-03	2.852591E-04
6.521739E+03	5.568604E-03	2.860787E-04
6.531621E+03	5.589982E-03	2.868891E-04
6.541502E+03	5.610858E-03	2.876892E-04
6.551383E+03	5.631138E-03	2.884748E-04
6.561265E+03	5.650808E-03	2.892458E-04
6.571146E+03	5.669716E-03	2.899948E-04
6.581028E+03	5.687796E-03	2.907190E-04
6.590909E+03	5.705144E-03	2.914238E-04
6.600791E+03	5.721561E-03	2.920996E-04
6.610672E+03	5.737088E-03	2.927491E-04
6.620553E+03	5.751780E-03	2.933754E-04
6.630435E+03	5.765549E-03	2.939745E-04
6.640316E+03	5.778388E-03	2.945466E-04
6.650198E+03	5.790309E-03	2.950927E-04
6.660079E+03	5.801408E-03	2.956179E-04
6.669960E+03	5.811716E-03	2.961245E-04
6.679842E+03	5.821183E-03	2.966100E-04
6.689723E+03	5.829858E-03	2.970775E-04
6.699605E+03	5.837952E-03	2.975379E-04
6.709486E+03	5.845361E-03	2.979857E-04
6.719368E+03	5.852153E-03	2.984242E-04
6.729249E+03	5.858562E-03	2.988652E-04
6.739130E+03	5.864488E-03	2.993033E-04
6.749012E+03	5.870096E-03	2.997469E-04
6.758893E+03	5.875374E-03	3.001950E-04
6.768775E+03	5.880568E-03	3.006599E-04
6.778656E+03	5.885583E-03	3.011366E-04
6.788538E+03	5.890578E-03	3.016330E-04
6.798419E+03	5.895606E-03	3.021517E-04
6.808300E+03	5.900626E-03	3.026901E-04
6.818182E+03	5.905755E-03	3.032543E-04
6.828063E+03	5.911023E-03	3.038454E-04
6.837945E+03	5.916358E-03	3.044595E-04
6.847826E+03	5.921867E-03	3.051020E-04
6.857708E+03	5.927557E-03	3.057731E-04
6.867589E+03	5.933341E-03	3.064681E-04
6.877470E+03	5.939300E-03	3.071908E-04
6.887352E+03	5.945422E-03	3.079406E-04
6.897233E+03	5.951596E-03	3.087114E-04
6.907115E+03	5.957795E-03	3.095017E-04
6.916996E+03	5.964077E-03	3.103142E-04
6.926877E+03	5.970398E-03	3.111465E-04
6.936759E+03	5.976529E-03	3.119863E-04
6.946640E+03	5.982602E-03	3.128404E-04
6.956522E+03	5.988564E-03	3.137056E-04
6.966403E+03	5.994167E-03	3.145688E-04
6.976285E+03	5.999532E-03	3.154359E-04
6.986166E+03	6.004504E-03	3.162984E-04
6.996047E+03	6.009010E-03	3.171521E-04
7.005929E+03	6.013074E-03	3.179980E-04
7.015810E+03	6.016440E-03	3.188222E-04
7.025692E+03	6.019221E-03	3.196300E-04
7.035573E+03	6.021162E-03	3.204076E-04
7.045455E+03	6.022379E-03	3.211605E-04
7.055336E+03	6.022611E-03	3.218744E-04
7.065217E+03	6.021887E-03	3.225501E-04
7.075099E+03	6.020234E-03	3.231886E-04
7.084980E+03	6.017396E-03	3.237754E-04
7.094862E+03	6.013409E-03	3.243119E-04
7.104743E+03	6.008209E-03	3.247937E-04
7.114625E+03	6.001743E-03	3.252174E-04
7.124506E+03	5.993952E-03	3.255789E-04
7.134387E+03	5.984695E-03	3.258698E-04
7.144269E+03	5.974116E-03	3.260971E-04
7.154150E+03	5.961975E-03	3.262467E-04
7.164032E+03	5.948336E-03	3.263214E-04
7.173913E+03	5.933165E-03	3.263183E-04
7.183794E+03	5.916428E-03	3.262346E-04
7.193676E+03	5.898107E-03	3.260683E-04
7.203557E+03	5.878180E-03	3.258172E-04
7.213439E+03	5.856540E-03	3.254745E-04
7.223320E+03	5.833374E-03	3.250494E-04
7.233202E+03	5.808586E-03	3.245356E-04
7.243083E+03	5.782085E-03	3.239269E-04
7.252964E+03	5.754077E-03	3.232340E-04
7.262846E+03	5.724488E-03	3.224515E-04
7.272727E+03	5.693344E-03	3.215800E-04
7.282609E+03	5.660674E-03	3.206201E-04
7.292490E+03	5.626519E-03	3.195729E-04
7.302372E+03	5.591027E-03	3.184462E-04
7.312253E+03	5.554147E-03	3.172358E-04
7.322134E+03	5.516134E-03	3.159554E-04
7.332016E+03	5.476853E-03	3.145965E-04
7.341897E+03	5.436562E-03	3.131731E-04
7.351779E+03	5.395328E-03	3.116882E-04
7.361660E+03	5.353225E-03	3.101453E-04
7.371542E+03	5.310135E-03	3.085368E-04
7.381423E+03	5.266138E-03	3.068668E-04
7.391304E+03	5.221402E-03	3.051441E-04
7.401186E+03	5.175827E-03	3.033624E-04
7.411067E+03	5.129672E-03	3.015362E-04
7.420949E+03	5.082835E-03	2.996589E-04
7.430830E+03	5.035396E-03	2.977345E-04
7.440711E+03	4.987436E-03	2.957675E-04
7.450593E+03	4.939119E-03	2.937668E-04
7.460474E+03	4.890432E-03	2.917313E-04
7.470356E+03	4.841450E-03	2.896650E-04
7.480237E+03	4.792240E-03	2.875715E-04
7.490119E+03	4.742871E-03	2.854546E-04
7.500000E+03	4.693410E-03	2.833180E-04
7.509881E+03	4.643831E-03	2.811597E-04
7.519763E+03	4.594285E-03	2.789887E-04
7.529644E+03	4.544825E-03	2.768080E-04
7.539526E+03	4.495507E-03	2.746208E-04
7.549407E+03	4.446380E-03	2.724300E-04
7.559289E+03	4.397412E-03	2.702336E-04
7.569170E+03	4.348655E-03	2.680346E-04
7.579051E+03	4.300321E-03	2.658460E-04
7.588933E+03	4.252289E-03	2.636604E-04
7.598814E+03	4.204606E-03	2.614808E-04
7.608696E+03	4.157386E-03	2.593142E-04
7.618577E+03	4.110664E-03	2.571630E-04
7.628458E+03	4.064392E-03	2.550243E-04
7.638340E+03	4.018601E-03	2.529000E-04
7.648221E+03	3.973394E-03	2.507968E-04
7.658103E+03	3.928788E-03	2.487161E-04
7.667984E+03	3.884729E-03	2.466546E-04
