#wls	flux	fluxerr
1.581028E+03	3.490261E-04	2.235246E-05
1.620553E+03	3.528273E-04	2.252551E-05
1.660079E+03	3.564387E-04	2.268323E-05
1.699605E+03	3.597771E-04	2.282034E-05
1.739130E+03	3.629354E-04	2.294280E-05
1.778656E+03	3.658206E-04	2.304480E-05
1.818182E+03	3.682440E-04	2.311459E-05
1.857708E+03	3.702517E-04	2.315527E-05
1.897233E+03	3.716185E-04	2.315305E-05
1.936759E+03	3.722868E-04	2.310473E-05
1.976285E+03	3.723397E-04	2.301593E-05
2.015810E+03	3.721019E-04	2.290702E-05
2.055336E+03	3.724875E-04	2.283425E-05
2.094862E+03	3.747431E-04	2.287317E-05
2.134387E+03	3.800070E-04	2.309139E-05
2.173913E+03	3.888378E-04	2.352011E-05
2.213439E+03	4.008686E-04	2.413406E-05
2.252964E+03	4.152097E-04	2.487694E-05
2.292490E+03	4.309482E-04	2.569200E-05
2.332016E+03	4.474303E-04	2.653887E-05
2.371542E+03	4.642230E-04	2.739093E-05
2.411067E+03	4.810988E-04	2.823418E-05
2.450593E+03	4.980922E-04	2.907014E-05
2.490119E+03	5.151506E-04	2.989525E-05
2.529644E+03	5.322361E-04	3.070686E-05
2.569170E+03	5.495349E-04	3.151519E-05
2.608696E+03	5.669280E-04	3.231283E-05
2.648221E+03	5.845090E-04	3.310455E-05
2.687747E+03	6.022863E-04	3.389017E-05
2.727273E+03	6.203345E-04	3.467322E-05
2.766798E+03	6.385654E-04	3.544802E-05
2.806324E+03	6.568805E-04	3.620850E-05
2.845850E+03	6.752509E-04	3.695250E-05
2.885375E+03	6.935644E-04	3.767339E-05
2.924901E+03	7.117018E-04	3.836436E-05
2.964427E+03	7.296959E-04	3.902693E-05
2.974308E+03	7.342100E-04	3.919013E-05
2.984190E+03	7.387597E-04	3.935389E-05
2.994071E+03	7.431892E-04	3.950992E-05
3.003953E+03	7.477337E-04	3.967073E-05
3.013834E+03	7.522488E-04	3.982863E-05
3.023715E+03	7.567457E-04	3.998421E-05
3.033597E+03	7.612972E-04	4.014131E-05
3.043478E+03	7.658991E-04	4.029968E-05
3.053360E+03	7.705472E-04	4.045909E-05
3.063241E+03	7.752373E-04	4.061928E-05
3.073123E+03	7.798891E-04	4.077604E-05
3.083004E+03	7.846532E-04	4.093722E-05
3.092885E+03	7.893725E-04	4.109462E-05
3.102767E+03	7.941975E-04	4.125605E-05
3.112648E+03	7.989717E-04	4.141335E-05
3.122530E+03	8.038465E-04	4.157437E-05
3.132411E+03	8.087421E-04	4.173496E-05
3.142292E+03	8.137327E-04	4.189891E-05
3.152174E+03	8.187395E-04	4.206213E-05
3.162055E+03	8.237599E-04	4.222448E-05
3.171937E+03	8.289454E-04	4.239370E-05
3.181818E+03	8.341402E-04	4.256177E-05
3.191700E+03	8.394187E-04	4.273247E-05
3.201581E+03	8.447792E-04	4.290567E-05
3.211462E+03	8.502195E-04	4.308123E-05
3.221344E+03	8.558131E-04	4.326282E-05
3.231225E+03	8.614827E-04	4.344649E-05
3.241107E+03	8.672255E-04	4.363206E-05
3.250988E+03	8.731915E-04	4.382702E-05
3.260870E+03	8.793019E-04	4.402734E-05
3.270751E+03	8.854799E-04	4.422912E-05
3.280632E+03	8.918733E-04	4.443969E-05
3.290514E+03	8.984796E-04	4.465885E-05
3.300395E+03	9.052213E-04	4.488265E-05
3.310277E+03	9.122457E-04	4.511834E-05
3.320158E+03	9.194744E-04	4.536192E-05
3.330040E+03	9.269050E-04	4.561319E-05
3.339921E+03	9.346086E-04	4.587556E-05
3.349802E+03	9.426561E-04	4.615238E-05
3.359684E+03	9.508954E-04	4.643610E-05
3.369565E+03	9.595446E-04	4.673724E-05
3.379447E+03	9.684523E-04	4.704829E-05
3.389328E+03	9.777614E-04	4.737606E-05
3.399209E+03	9.874666E-04	4.772013E-05
3.409091E+03	9.974903E-04	4.807660E-05
3.418972E+03	1.008046E-03	4.845560E-05
3.428854E+03	1.018911E-03	4.884618E-05
3.438735E+03	1.030296E-03	4.925837E-05
3.448617E+03	1.042195E-03	4.969163E-05
3.458498E+03	1.054530E-03	5.014203E-05
3.468379E+03	1.067437E-03	5.061586E-05
3.478261E+03	1.080839E-03	5.110918E-05
3.488142E+03	1.094800E-03	5.162481E-05
3.498024E+03	1.109311E-03	5.216215E-05
3.507905E+03	1.124366E-03	5.272061E-05
3.517787E+03	1.140027E-03	5.330289E-05
3.527668E+03	1.156216E-03	5.390508E-05
3.537549E+03	1.173063E-03	5.453306E-05
3.547431E+03	1.190423E-03	5.517970E-05
3.557312E+03	1.208285E-03	5.584439E-05
3.567194E+03	1.226782E-03	5.653292E-05
3.577075E+03	1.245835E-03	5.724145E-05
3.586957E+03	1.265366E-03	5.796617E-05
3.596838E+03	1.285437E-03	5.870964E-05
3.606719E+03	1.306039E-03	5.947126E-05
3.616601E+03	1.327163E-03	6.025040E-05
3.626482E+03	1.348735E-03	6.104338E-05
3.636364E+03	1.370813E-03	6.185270E-05
3.646245E+03	1.393391E-03	6.267779E-05
3.656126E+03	1.416393E-03	6.351503E-05
3.666008E+03	1.439812E-03	6.436393E-05
3.675889E+03	1.463641E-03	6.522399E-05
3.685771E+03	1.487873E-03	6.609471E-05
3.695652E+03	1.512569E-03	6.697852E-05
3.705534E+03	1.537589E-03	6.786911E-05
3.715415E+03	1.562929E-03	6.876610E-05
3.725296E+03	1.588648E-03	6.967194E-05
3.735178E+03	1.614675E-03	7.058336E-05
3.745059E+03	1.641007E-03	7.150003E-05
3.754941E+03	1.667639E-03	7.242161E-05
3.764822E+03	1.694502E-03	7.334498E-05
3.774704E+03	1.721594E-03	7.426991E-05
3.784585E+03	1.748976E-03	7.519889E-05
3.794466E+03	1.776580E-03	7.612894E-05
3.804348E+03	1.804280E-03	7.705447E-05
3.814229E+03	1.832262E-03	7.798340E-05
3.824111E+03	1.860338E-03	7.890759E-05
3.833992E+03	1.888569E-03	7.982959E-05
3.843874E+03	1.916894E-03	8.074675E-05
3.853755E+03	1.945376E-03	8.166162E-05
3.863636E+03	1.973893E-03	8.256902E-05
3.873518E+03	2.002508E-03	8.347159E-05
3.883399E+03	2.031162E-03	8.436683E-05
3.893281E+03	2.059859E-03	8.525486E-05
3.903162E+03	2.088543E-03	8.613330E-05
3.913043E+03	2.117277E-03	8.700483E-05
3.922925E+03	2.145947E-03	8.786468E-05
3.932806E+03	2.174618E-03	8.871559E-05
3.942688E+03	2.203237E-03	8.955535E-05
3.952569E+03	2.231752E-03	9.038190E-05
3.962451E+03	2.260229E-03	9.119796E-05
3.972332E+03	2.288676E-03	9.200385E-05
3.982213E+03	2.316925E-03	9.279292E-05
3.992095E+03	2.345162E-03	9.357260E-05
4.001976E+03	2.373221E-03	9.433636E-05
4.011858E+03	2.401171E-03	9.508699E-05
4.021739E+03	2.429021E-03	9.582498E-05
4.031621E+03	2.456670E-03	9.654632E-05
4.041502E+03	2.484242E-03	9.725604E-05
4.051383E+03	2.511580E-03	9.794801E-05
4.061265E+03	2.538809E-03	9.862727E-05
4.071146E+03	2.565885E-03	9.929218E-05
4.081028E+03	2.592766E-03	9.994121E-05
4.090909E+03	2.619523E-03	1.005772E-04
4.100791E+03	2.646112E-03	1.011984E-04
4.110672E+03	2.672549E-03	1.018058E-04
4.120553E+03	2.698851E-03	1.024000E-04
4.130435E+03	2.724972E-03	1.029794E-04
4.140316E+03	2.750989E-03	1.035469E-04
4.150198E+03	2.776855E-03	1.041010E-04
4.160079E+03	2.802593E-03	1.046425E-04
4.169960E+03	2.828270E-03	1.051741E-04
4.179842E+03	2.853794E-03	1.056924E-04
4.189723E+03	2.879290E-03	1.062021E-04
4.199605E+03	2.904717E-03	1.067019E-04
4.209486E+03	2.930147E-03	1.071944E-04
4.219368E+03	2.955540E-03	1.076783E-04
4.229249E+03	2.980916E-03	1.081543E-04
4.239130E+03	3.006336E-03	1.086246E-04
4.249012E+03	3.031821E-03	1.090902E-04
4.258893E+03	3.057331E-03	1.095495E-04
4.268775E+03	3.082985E-03	1.100070E-04
4.278656E+03	3.108743E-03	1.104612E-04
4.288538E+03	3.134674E-03	1.109145E-04
4.298419E+03	3.160732E-03	1.113653E-04
4.308300E+03	3.186986E-03	1.118162E-04
4.318182E+03	3.213495E-03	1.122690E-04
4.328063E+03	3.240168E-03	1.127207E-04
4.337945E+03	3.267118E-03	1.131751E-04
4.347826E+03	3.294299E-03	1.136307E-04
4.357708E+03	3.321767E-03	1.140894E-04
4.367589E+03	3.349481E-03	1.145498E-04
4.377470E+03	3.377393E-03	1.150101E-04
4.387352E+03	3.405611E-03	1.154741E-04
4.397233E+03	3.434140E-03	1.159420E-04
4.407115E+03	3.462878E-03	1.164102E-04
4.416996E+03	3.491825E-03	1.168788E-04
4.426877E+03	3.521091E-03	1.173516E-04
4.436759E+03	3.550566E-03	1.178248E-04
4.446640E+03	3.580252E-03	1.182986E-04
4.456522E+03	3.610195E-03	1.187745E-04
4.466403E+03	3.640392E-03	1.192524E-04
4.476285E+03	3.670732E-03	1.197288E-04
4.486166E+03	3.701261E-03	1.202051E-04
4.496047E+03	3.731916E-03	1.206795E-04
4.505929E+03	3.762742E-03	1.211534E-04
4.515810E+03	3.793624E-03	1.216233E-04
4.525692E+03	3.824602E-03	1.220905E-04
4.535573E+03	3.855660E-03	1.225547E-04
4.545455E+03	3.886732E-03	1.230139E-04
4.555336E+03	3.917751E-03	1.234661E-04
4.565217E+03	3.948747E-03	1.239125E-04
4.575099E+03	3.979655E-03	1.243512E-04
4.584980E+03	4.010448E-03	1.247816E-04
4.594862E+03	4.041052E-03	1.252016E-04
4.604743E+03	4.071551E-03	1.256141E-04
4.614625E+03	4.101761E-03	1.260137E-04
4.624506E+03	4.131754E-03	1.264027E-04
4.634387E+03	4.161453E-03	1.267793E-04
4.644269E+03	4.190820E-03	1.271425E-04
4.654150E+03	4.219826E-03	1.274918E-04
4.664032E+03	4.248377E-03	1.278247E-04
4.673913E+03	4.276490E-03	1.281421E-04
4.683794E+03	4.304013E-03	1.284399E-04
4.693676E+03	4.330960E-03	1.287188E-04
4.703557E+03	4.357280E-03	1.289777E-04
4.713439E+03	4.382821E-03	1.292128E-04
4.723320E+03	4.407527E-03	1.294227E-04
4.733202E+03	4.431343E-03	1.296064E-04
4.743083E+03	4.454161E-03	1.297612E-04
4.752964E+03	4.475969E-03	1.298875E-04
4.762846E+03	4.496705E-03	1.299839E-04
4.772727E+03	4.516358E-03	1.300507E-04
4.782609E+03	4.534801E-03	1.300849E-04
4.792490E+03	4.552072E-03	1.300881E-04
4.802372E+03	4.567992E-03	1.300558E-04
4.812253E+03	4.582720E-03	1.299932E-04
4.822134E+03	4.596200E-03	1.298992E-04
4.832016E+03	4.608577E-03	1.297785E-04
4.841897E+03	4.619848E-03	1.296316E-04
4.851779E+03	4.630058E-03	1.294603E-04
4.861660E+03	4.639296E-03	1.292674E-04
4.871542E+03	4.647558E-03	1.290532E-04
4.881423E+03	4.654931E-03	1.288203E-04
4.891304E+03	4.661459E-03	1.285701E-04
4.901186E+03	4.667176E-03	1.283036E-04
4.911067E+03	4.672117E-03	1.280221E-04
4.920949E+03	4.676318E-03	1.277266E-04
4.930830E+03	4.679807E-03	1.274180E-04
4.940711E+03	4.682672E-03	1.270988E-04
4.950593E+03	4.684886E-03	1.267683E-04
4.960474E+03	4.686525E-03	1.264286E-04
4.970356E+03	4.687569E-03	1.260794E-04
4.980237E+03	4.688085E-03	1.257223E-04
4.990119E+03	4.688101E-03	1.253583E-04
5.000000E+03	4.687632E-03	1.249876E-04
5.009881E+03	4.686701E-03	1.246111E-04
5.019763E+03	4.685322E-03	1.242289E-04
5.029644E+03	4.683511E-03	1.238416E-04
5.039526E+03	4.681331E-03	1.234508E-04
5.049407E+03	4.678795E-03	1.230569E-04
5.059289E+03	4.675861E-03	1.226586E-04
5.069170E+03	4.672594E-03	1.222577E-04
5.079051E+03	4.668995E-03	1.218542E-04
5.088933E+03	4.665073E-03	1.214483E-04
5.098814E+03	4.660784E-03	1.210388E-04
5.108696E+03	4.656228E-03	1.206282E-04
5.118577E+03	4.651360E-03	1.202154E-04
5.128458E+03	4.646180E-03	1.198004E-04
5.138340E+03	4.640735E-03	1.193842E-04
5.148221E+03	4.634977E-03	1.189657E-04
5.158103E+03	4.628900E-03	1.185446E-04
5.167984E+03	4.622556E-03	1.181222E-04
5.177866E+03	4.615886E-03	1.176969E-04
5.187747E+03	4.608940E-03	1.172701E-04
5.197628E+03	4.601655E-03	1.168401E-04
5.207510E+03	4.594082E-03	1.164081E-04
5.217391E+03	4.586209E-03	1.159738E-04
5.227273E+03	4.578033E-03	1.155370E-04
5.237154E+03	4.569495E-03	1.150964E-04
5.247036E+03	4.560643E-03	1.146530E-04
5.256917E+03	4.551415E-03	1.142052E-04
5.266798E+03	4.541859E-03	1.137543E-04
5.276680E+03	4.531965E-03	1.132999E-04
5.286561E+03	4.521730E-03	1.128421E-04
5.296443E+03	4.511105E-03	1.123794E-04
5.306324E+03	4.500131E-03	1.119129E-04
5.316206E+03	4.488808E-03	1.114427E-04
5.326087E+03	4.477138E-03	1.109686E-04
5.335968E+03	4.465071E-03	1.104895E-04
5.345850E+03	4.452662E-03	1.100064E-04
5.355731E+03	4.439870E-03	1.095185E-04
5.365613E+03	4.426754E-03	1.090269E-04
5.375494E+03	4.413323E-03	1.085318E-04
5.385375E+03	4.399596E-03	1.080337E-04
5.395257E+03	4.385540E-03	1.075316E-04
5.405138E+03	4.371269E-03	1.070282E-04
5.415020E+03	4.356712E-03	1.065217E-04
5.424901E+03	4.341985E-03	1.060148E-04
5.434783E+03	4.327070E-03	1.055071E-04
5.444664E+03	4.312039E-03	1.050001E-04
5.454545E+03	4.296925E-03	1.044947E-04
5.464427E+03	4.281765E-03	1.039915E-04
5.474308E+03	4.266592E-03	1.034914E-04
5.484190E+03	4.251487E-03	1.029962E-04
5.494071E+03	4.236447E-03	1.025057E-04
5.503953E+03	4.221519E-03	1.020210E-04
5.513834E+03	4.206699E-03	1.015419E-04
5.523715E+03	4.192119E-03	1.010715E-04
5.533597E+03	4.177779E-03	1.006097E-04
5.543478E+03	4.163687E-03	1.001567E-04
5.553360E+03	4.149971E-03	9.971534E-05
5.563241E+03	4.136631E-03	9.928565E-05
5.573123E+03	4.123713E-03	9.886865E-05
5.583004E+03	4.111300E-03	9.846624E-05
5.592885E+03	4.099349E-03	9.807730E-05
5.602767E+03	4.087978E-03	9.770456E-05
5.612648E+03	4.077222E-03	9.734882E-05
5.622530E+03	4.067066E-03	9.700964E-05
5.632411E+03	4.057535E-03	9.668753E-05
5.642292E+03	4.048689E-03	9.638389E-05
5.652174E+03	4.040503E-03	9.609804E-05
5.662055E+03	4.033023E-03	9.583103E-05
5.671937E+03	4.026208E-03	9.558183E-05
5.681818E+03	4.020092E-03	9.535121E-05
5.691700E+03	4.014664E-03	9.513887E-05
5.701581E+03	4.009864E-03	9.494333E-05
5.711462E+03	4.005700E-03	9.476479E-05
5.721344E+03	4.002101E-03	9.460155E-05
5.731225E+03	3.999066E-03	9.445353E-05
5.741107E+03	3.996548E-03	9.431964E-05
5.750988E+03	3.994453E-03	9.419767E-05
5.760870E+03	3.992726E-03	9.408631E-05
5.770751E+03	3.991342E-03	9.398501E-05
5.780632E+03	3.990234E-03	9.389220E-05
5.790514E+03	3.989292E-03	9.380535E-05
5.800395E+03	3.988449E-03	9.372290E-05
5.810277E+03	3.987631E-03	9.364314E-05
5.820158E+03	3.986805E-03	9.356539E-05
5.830040E+03	3.985820E-03	9.348614E-05
5.839921E+03	3.984685E-03	9.340565E-05
5.849802E+03	3.983256E-03	9.332066E-05
5.859684E+03	3.981506E-03	9.323057E-05
5.869565E+03	3.979380E-03	9.313417E-05
5.879447E+03	3.976785E-03	9.302939E-05
5.889328E+03	3.973713E-03	9.291612E-05
5.899209E+03	3.970048E-03	9.279172E-05
5.909091E+03	3.965797E-03	9.265643E-05
5.918972E+03	3.960936E-03	9.250981E-05
5.928854E+03	3.955450E-03	9.235159E-05
5.938735E+03	3.949258E-03	9.217994E-05
5.948617E+03	3.942440E-03	9.199682E-05
5.958498E+03	3.934892E-03	9.179991E-05
5.968379E+03	3.926714E-03	9.159160E-05
5.978261E+03	3.917897E-03	9.137179E-05
5.988142E+03	3.908400E-03	9.113956E-05
5.998024E+03	3.898312E-03	9.089706E-05
6.007905E+03	3.887646E-03	9.064470E-05
6.017787E+03	3.876423E-03	9.038302E-05
6.027668E+03	3.864672E-03	9.011273E-05
6.037549E+03	3.852459E-03	8.983547E-05
6.047431E+03	3.839819E-03	8.955210E-05
6.057312E+03	3.826756E-03	8.926276E-05
6.067194E+03	3.813382E-03	8.897014E-05
6.077075E+03	3.799668E-03	8.867355E-05
6.086957E+03	3.785721E-03	8.837561E-05
6.096838E+03	3.771588E-03	8.807739E-05
6.106719E+03	3.757305E-03	8.777980E-05
6.116601E+03	3.742980E-03	8.748530E-05
6.126482E+03	3.728684E-03	8.719533E-05
6.136364E+03	3.714482E-03	8.691125E-05
6.146245E+03	3.700435E-03	8.663433E-05
6.156126E+03	3.686640E-03	8.636666E-05
6.166008E+03	3.673149E-03	8.610930E-05
6.175889E+03	3.660084E-03	8.586497E-05
6.185771E+03	3.647489E-03	8.563457E-05
6.195652E+03	3.635432E-03	8.541954E-05
6.205534E+03	3.623985E-03	8.522148E-05
6.215415E+03	3.613210E-03	8.504171E-05
6.225296E+03	3.603123E-03	8.488050E-05
6.235178E+03	3.593778E-03	8.473903E-05
6.245059E+03	3.585218E-03	8.461824E-05
6.254941E+03	3.577445E-03	8.451808E-05
6.264822E+03	3.570533E-03	8.444022E-05
6.274704E+03	3.564395E-03	8.438256E-05
6.284585E+03	3.559129E-03	8.434734E-05
6.294466E+03	3.554719E-03	8.433413E-05
6.304348E+03	3.551101E-03	8.434138E-05
6.314229E+03	3.548321E-03	8.437010E-05
6.324111E+03	3.546344E-03	8.441948E-05
6.333992E+03	3.545169E-03	8.448939E-05
6.343874E+03	3.544720E-03	8.457800E-05
6.353755E+03	3.544980E-03	8.468493E-05
6.363636E+03	3.545943E-03	8.480993E-05
6.373518E+03	3.547514E-03	8.495072E-05
6.383399E+03	3.549637E-03	8.510595E-05
6.393281E+03	3.552214E-03	8.527319E-05
6.403162E+03	3.555220E-03	8.545183E-05
6.413043E+03	3.558590E-03	8.564026E-05
6.422925E+03	3.562221E-03	8.583595E-05
6.432806E+03	3.566203E-03	8.604104E-05
6.442688E+03	3.570393E-03	8.625201E-05
6.452569E+03	3.574802E-03	8.646911E-05
6.462451E+03	3.579326E-03	8.668974E-05
6.472332E+03	3.583985E-03	8.691436E-05
6.482213E+03	3.588715E-03	8.714136E-05
6.492095E+03	3.593376E-03	8.736727E-05
6.501976E+03	3.597995E-03	8.759274E-05
6.511858E+03	3.602516E-03	8.781629E-05
6.521739E+03	3.606851E-03	8.803574E-05
6.531621E+03	3.610992E-03	8.825084E-05
6.541502E+03	3.614860E-03	8.845956E-05
6.551383E+03	3.618455E-03	8.866190E-05
6.561265E+03	3.621744E-03	8.885691E-05
6.571146E+03	3.624663E-03	8.904301E-05
6.581028E+03	3.627266E-03	8.922145E-05
6.590909E+03	3.629501E-03	8.939086E-05
6.600791E+03	3.631353E-03	8.955086E-05
6.610672E+03	3.632856E-03	8.970219E-05
6.620553E+03	3.633967E-03	8.984376E-05
6.630435E+03	3.634732E-03	8.997664E-05
6.640316E+03	3.635159E-03	9.010101E-05
6.650198E+03	3.635217E-03	9.021602E-05
6.660079E+03	3.635007E-03	9.032417E-05
6.669960E+03	3.634505E-03	9.042482E-05
6.679842E+03	3.633780E-03	9.051968E-05
6.689723E+03	3.632809E-03	9.060812E-05
6.699605E+03	3.631667E-03	9.069204E-05
6.709486E+03	3.630338E-03	9.077099E-05
6.719368E+03	3.628938E-03	9.084790E-05
6.729249E+03	3.627413E-03	9.092139E-05
6.739130E+03	3.625880E-03	9.099444E-05
6.749012E+03	3.624326E-03	9.106672E-05
6.758893E+03	3.622781E-03	9.113901E-05
6.768775E+03	3.621273E-03	9.121206E-05
6.778656E+03	3.619871E-03	9.128763E-05
6.788538E+03	3.618558E-03	9.136535E-05
6.798419E+03	3.617398E-03	9.144685E-05
6.808300E+03	3.616407E-03	9.153262E-05
6.818182E+03	3.615558E-03	9.162199E-05
6.828063E+03	3.614905E-03	9.171645E-05
6.837945E+03	3.614409E-03	9.181504E-05
6.847826E+03	3.614165E-03	9.192024E-05
6.857708E+03	3.614078E-03	9.202969E-05
6.867589E+03	3.614142E-03	9.214337E-05
6.877470E+03	3.614440E-03	9.226343E-05
6.887352E+03	3.614867E-03	9.238726E-05
6.897233E+03	3.615447E-03	9.251559E-05
6.907115E+03	3.616159E-03	9.264795E-05
6.916996E+03	3.616933E-03	9.278261E-05
6.926877E+03	3.617829E-03	9.292123E-05
6.936759E+03	3.618675E-03	9.305946E-05
6.946640E+03	3.619583E-03	9.320023E-05
6.956522E+03	3.620369E-03	9.333895E-05
6.966403E+03	3.621137E-03	9.347830E-05
6.976285E+03	3.621707E-03	9.361380E-05
6.986166E+03	3.622133E-03	9.374686E-05
6.996047E+03	3.622323E-03	9.387518E-05
7.005929E+03	3.622240E-03	9.399790E-05
7.015810E+03	3.621838E-03	9.411388E-05
7.025692E+03	3.621079E-03	9.422220E-05
7.035573E+03	3.619920E-03	9.432181E-05
7.045455E+03	3.618279E-03	9.441062E-05
7.055336E+03	3.616113E-03	9.448757E-05
7.065217E+03	3.613436E-03	9.455309E-05
7.075099E+03	3.610122E-03	9.460388E-05
7.084980E+03	3.606228E-03	9.464152E-05
7.094862E+03	3.601583E-03	9.466154E-05
7.104743E+03	3.596304E-03	9.466705E-05
7.114625E+03	3.590225E-03	9.465367E-05
7.124506E+03	3.583365E-03	9.462197E-05
7.134387E+03	3.575662E-03	9.457027E-05
7.144269E+03	3.567148E-03	9.449944E-05
7.154150E+03	3.557759E-03	9.440779E-05
7.164032E+03	3.547397E-03	9.429267E-05
7.173913E+03	3.536143E-03	9.415624E-05
7.183794E+03	3.523956E-03	9.399734E-05
7.193676E+03	3.510782E-03	9.381454E-05
7.203557E+03	3.496587E-03	9.360683E-05
7.213439E+03	3.481427E-03	9.337566E-05
7.223320E+03	3.465266E-03	9.312001E-05
7.233202E+03	3.448080E-03	9.283916E-05
7.243083E+03	3.429845E-03	9.253238E-05
7.252964E+03	3.410633E-03	9.220147E-05
7.262846E+03	3.390388E-03	9.184484E-05
7.272727E+03	3.369098E-03	9.146205E-05
7.282609E+03	3.346853E-03	9.105539E-05
7.292490E+03	3.323652E-03	9.062472E-05
7.302372E+03	3.299453E-03	9.016872E-05
7.312253E+03	3.274356E-03	8.969001E-05
7.322134E+03	3.248328E-03	8.918751E-05
7.332016E+03	3.221472E-03	8.866389E-05
7.341897E+03	3.193725E-03	8.811721E-05
7.351779E+03	3.165277E-03	8.755256E-05
7.361660E+03	3.136109E-03	8.696924E-05
7.371542E+03	3.106291E-03	8.636901E-05
7.381423E+03	3.076011E-03	8.575696E-05
7.391304E+03	3.045258E-03	8.513259E-05
7.401186E+03	3.014217E-03	8.450096E-05
7.411067E+03	2.982874E-03	8.386153E-05
7.420949E+03	2.951413E-03	8.321935E-05
7.430830E+03	2.919854E-03	8.257489E-05
7.440711E+03	2.888334E-03	8.193193E-05
7.450593E+03	2.856875E-03	8.129085E-05
7.460474E+03	2.825567E-03	8.065403E-05
7.470356E+03	2.794541E-03	8.002494E-05
7.480237E+03	2.763770E-03	7.940265E-05
7.490119E+03	2.733377E-03	7.879050E-05
7.500000E+03	2.703443E-03	7.819074E-05
7.509881E+03	2.673935E-03	7.760220E-05
7.519763E+03	2.645006E-03	7.702931E-05
7.529644E+03	2.616618E-03	7.647083E-05
7.539526E+03	2.588878E-03	7.592988E-05
7.549407E+03	2.561822E-03	7.540748E-05
7.559289E+03	2.535424E-03	7.490286E-05
7.569170E+03	2.509707E-03	7.441671E-05
7.579051E+03	2.484657E-03	7.394864E-05
7.588933E+03	2.460258E-03	7.349818E-05
7.598814E+03	2.436527E-03	7.306583E-05
7.608696E+03	2.413414E-03	7.265023E-05
7.618577E+03	2.390903E-03	7.225084E-05
7.628458E+03	2.369012E-03	7.186826E-05
7.638340E+03	2.347692E-03	7.150108E-05
7.648221E+03	2.326928E-03	7.114885E-05
7.658103E+03	2.306737E-03	7.081218E-05
7.667984E+03	2.287104E-03	7.049062E-05
