#wls	flux	fluxerr
1.581028E+03	2.214833E-04	1.996879E-05
1.620553E+03	2.233547E-04	2.012310E-05
1.660079E+03	2.251461E-04	2.026962E-05
1.699605E+03	2.267616E-04	2.039969E-05
1.739130E+03	2.282237E-04	2.051538E-05
1.778656E+03	2.294754E-04	2.061159E-05
1.818182E+03	2.304855E-04	2.068553E-05
1.857708E+03	2.311638E-04	2.072916E-05
1.897233E+03	2.314140E-04	2.073392E-05
1.936759E+03	2.312092E-04	2.069747E-05
1.976285E+03	2.305660E-04	2.062143E-05
2.015810E+03	2.296922E-04	2.052444E-05
2.055336E+03	2.291204E-04	2.045410E-05
2.094862E+03	2.295769E-04	2.047511E-05
2.134387E+03	2.317920E-04	2.065227E-05
2.173913E+03	2.360031E-04	2.100621E-05
2.213439E+03	2.420039E-04	2.151802E-05
2.252964E+03	2.492326E-04	2.213726E-05
2.292490E+03	2.571255E-04	2.281351E-05
2.332016E+03	2.652853E-04	2.351129E-05
2.371542E+03	2.734493E-04	2.420721E-05
2.411067E+03	2.815789E-04	2.489780E-05
2.450593E+03	2.897121E-04	2.558635E-05
2.490119E+03	2.977734E-04	2.626612E-05
2.529644E+03	3.057950E-04	2.693991E-05
2.569170E+03	3.139108E-04	2.761944E-05
2.608696E+03	3.220492E-04	2.829832E-05
2.648221E+03	3.302841E-04	2.898296E-05
2.687747E+03	3.386334E-04	2.967480E-05
2.727273E+03	3.471092E-04	3.037477E-05
2.766798E+03	3.557186E-04	3.108341E-05
2.806324E+03	3.644654E-04	3.180087E-05
2.845850E+03	3.734026E-04	3.253165E-05
2.885375E+03	3.825277E-04	3.327536E-05
2.924901E+03	3.919956E-04	3.404531E-05
2.964427E+03	4.018008E-04	3.484078E-05
2.974308E+03	4.043405E-04	3.504670E-05
2.984190E+03	4.068674E-04	3.525125E-05
2.994071E+03	4.094879E-04	3.546366E-05
3.003953E+03	4.120969E-04	3.567481E-05
3.013834E+03	4.147544E-04	3.588989E-05
3.023715E+03	4.175200E-04	3.611406E-05
3.033597E+03	4.202848E-04	3.633788E-05
3.043478E+03	4.231534E-04	3.657039E-05
3.053360E+03	4.260173E-04	3.680221E-05
3.063241E+03	4.289815E-04	3.704239E-05
3.073123E+03	4.320443E-04	3.729080E-05
3.083004E+03	4.350974E-04	3.753805E-05
3.092885E+03	4.382461E-04	3.779324E-05
3.102767E+03	4.414894E-04	3.805626E-05
3.112648E+03	4.447725E-04	3.832238E-05
3.122530E+03	4.480943E-04	3.859151E-05
3.132411E+03	4.515606E-04	3.887274E-05
3.142292E+03	4.550637E-04	3.915678E-05
3.152174E+03	4.586559E-04	3.944812E-05
3.162055E+03	4.622831E-04	3.974212E-05
3.171937E+03	4.660514E-04	4.004786E-05
3.181818E+03	4.699064E-04	4.036067E-05
3.191700E+03	4.738474E-04	4.068047E-05
3.201581E+03	4.779275E-04	4.101179E-05
3.211462E+03	4.820921E-04	4.134996E-05
3.221344E+03	4.863410E-04	4.169493E-05
3.231225E+03	4.907268E-04	4.205119E-05
3.241107E+03	4.951954E-04	4.241410E-05
3.250988E+03	4.998529E-04	4.279271E-05
3.260870E+03	5.045924E-04	4.317788E-05
3.270751E+03	5.094662E-04	4.357404E-05
3.280632E+03	5.145270E-04	4.398569E-05
3.290514E+03	5.196681E-04	4.440368E-05
3.300395E+03	5.250480E-04	4.484154E-05
3.310277E+03	5.305066E-04	4.528557E-05
3.320158E+03	5.362030E-04	4.574932E-05
3.330040E+03	5.420301E-04	4.622364E-05
3.339921E+03	5.480405E-04	4.671298E-05
3.349802E+03	5.542331E-04	4.721723E-05
3.359684E+03	5.606604E-04	4.774082E-05
3.369565E+03	5.672687E-04	4.827915E-05
3.379447E+03	5.740570E-04	4.883213E-05
3.389328E+03	5.810774E-04	4.940413E-05
3.399209E+03	5.883294E-04	4.999508E-05
3.409091E+03	5.958114E-04	5.060482E-05
3.418972E+03	6.035232E-04	5.123330E-05
3.428854E+03	6.115160E-04	5.188481E-05
3.438735E+03	6.197362E-04	5.255479E-05
3.448617E+03	6.282356E-04	5.324757E-05
3.458498E+03	6.369606E-04	5.395858E-05
3.468379E+03	6.460148E-04	5.469655E-05
3.478261E+03	6.552925E-04	5.545249E-05
3.488142E+03	6.648970E-04	5.623510E-05
3.498024E+03	6.748272E-04	5.704424E-05
3.507905E+03	6.850297E-04	5.787533E-05
3.517787E+03	6.955554E-04	5.873265E-05
3.527668E+03	7.063510E-04	5.961164E-05
3.537549E+03	7.175193E-04	6.052093E-05
3.547431E+03	7.290585E-04	6.146030E-05
3.557312E+03	7.408641E-04	6.242088E-05
3.567194E+03	7.530898E-04	6.341560E-05
3.577075E+03	7.656310E-04	6.443556E-05
3.586957E+03	7.785378E-04	6.548493E-05
3.596838E+03	7.918088E-04	6.656354E-05
3.606719E+03	8.054431E-04	6.767125E-05
3.616601E+03	8.194899E-04	6.881213E-05
3.626482E+03	8.338974E-04	6.998176E-05
3.636364E+03	8.487148E-04	7.118422E-05
3.646245E+03	8.639410E-04	7.241934E-05
3.656126E+03	8.795237E-04	7.368267E-05
3.666008E+03	8.955636E-04	7.498258E-05
3.675889E+03	9.119575E-04	7.631035E-05
3.685771E+03	9.288057E-04	7.767432E-05
3.695652E+03	9.460567E-04	7.907010E-05
3.705534E+03	9.637090E-04	8.049749E-05
3.715415E+03	9.818121E-04	8.196057E-05
3.725296E+03	1.000365E-03	8.345916E-05
3.735178E+03	1.019316E-03	8.498892E-05
3.745059E+03	1.038716E-03	8.655386E-05
3.754941E+03	1.058562E-03	8.815384E-05
3.764822E+03	1.078854E-03	8.978872E-05
3.774704E+03	1.099591E-03	9.145834E-05
3.784585E+03	1.120773E-03	9.316258E-05
3.794466E+03	1.142349E-03	9.489717E-05
3.804348E+03	1.164419E-03	9.667027E-05
3.814229E+03	1.186932E-03	9.847763E-05
3.824111E+03	1.209888E-03	1.003191E-04
3.833992E+03	1.233287E-03	1.021947E-04
3.843874E+03	1.257128E-03	1.041042E-04
3.853755E+03	1.281412E-03	1.060476E-04
3.863636E+03	1.306140E-03	1.080248E-04
3.873518E+03	1.331310E-03	1.100358E-04
3.883399E+03	1.356973E-03	1.120845E-04
3.893281E+03	1.383031E-03	1.141628E-04
3.903162E+03	1.409484E-03	1.162707E-04
3.913043E+03	1.436432E-03	1.184162E-04
3.922925E+03	1.463777E-03	1.205912E-04
3.932806E+03	1.491569E-03	1.227998E-04
3.942688E+03	1.519760E-03	1.250379E-04
3.952569E+03	1.548401E-03	1.273096E-04
3.962451E+03	1.577444E-03	1.296109E-04
3.972332E+03	1.606889E-03	1.319418E-04
3.982213E+03	1.636692E-03	1.342984E-04
3.992095E+03	1.666949E-03	1.366886E-04
4.001976E+03	1.697517E-03	1.391007E-04
4.011858E+03	1.728545E-03	1.415467E-04
4.021739E+03	1.759887E-03	1.440146E-04
4.031621E+03	1.791596E-03	1.465086E-04
4.041502E+03	1.823672E-03	1.490288E-04
4.051383E+03	1.856119E-03	1.515753E-04
4.061265E+03	1.888842E-03	1.541402E-04
4.071146E+03	1.921891E-03	1.567277E-04
4.081028E+03	1.955269E-03	1.593379E-04
4.090909E+03	1.988979E-03	1.619709E-04
4.100791E+03	2.022927E-03	1.646191E-04
4.110672E+03	2.057163E-03	1.672864E-04
4.120553E+03	2.091642E-03	1.699691E-04
4.130435E+03	2.126366E-03	1.726673E-04
4.140316E+03	2.161290E-03	1.753774E-04
4.150198E+03	2.196465E-03	1.781033E-04
4.160079E+03	2.231844E-03	1.808413E-04
4.169960E+03	2.267382E-03	1.835875E-04
4.179842E+03	2.303081E-03	1.863423E-04
4.189723E+03	2.338942E-03	1.891055E-04
4.199605E+03	2.374923E-03	1.918738E-04
4.209486E+03	2.410972E-03	1.946429E-04
4.219368E+03	2.447145E-03	1.974172E-04
4.229249E+03	2.483343E-03	2.001890E-04
4.239130E+03	2.519616E-03	2.029618E-04
4.249012E+03	2.555872E-03	2.057287E-04
4.258893E+03	2.592154E-03	2.084928E-04
4.268775E+03	2.628373E-03	2.112471E-04
4.278656E+03	2.664574E-03	2.139950E-04
4.288538E+03	2.700660E-03	2.167290E-04
4.298419E+03	2.736680E-03	2.194528E-04
4.308300E+03	2.772537E-03	2.221587E-04
4.318182E+03	2.808278E-03	2.248506E-04
4.328063E+03	2.843854E-03	2.275244E-04
4.337945E+03	2.879215E-03	2.301762E-04
4.347826E+03	2.914358E-03	2.328057E-04
4.357708E+03	2.949281E-03	2.354130E-04
4.367589E+03	2.983930E-03	2.379937E-04
4.377470E+03	3.018258E-03	2.405440E-04
4.387352E+03	3.052303E-03	2.430671E-04
4.397233E+03	3.086019E-03	2.455593E-04
4.407115E+03	3.119347E-03	2.480160E-04
4.416996E+03	3.152284E-03	2.504371E-04
4.426877E+03	3.184872E-03	2.528258E-04
4.436759E+03	3.217010E-03	2.551743E-04
4.446640E+03	3.248736E-03	2.574858E-04
4.456522E+03	3.280044E-03	2.597596E-04
4.466403E+03	3.310876E-03	2.619914E-04
4.476285E+03	3.341275E-03	2.641846E-04
4.486166E+03	3.371134E-03	2.663309E-04
4.496047E+03	3.400540E-03	2.684372E-04
4.505929E+03	3.429437E-03	2.704992E-04
4.515810E+03	3.457766E-03	2.725124E-04
4.525692E+03	3.485615E-03	2.744836E-04
4.535573E+03	3.512874E-03	2.764045E-04
4.545455E+03	3.539585E-03	2.782785E-04
4.555336E+03	3.565735E-03	2.801045E-04
4.565217E+03	3.591265E-03	2.818780E-04
4.575099E+03	3.616167E-03	2.835987E-04
4.584980E+03	3.640524E-03	2.852730E-04
4.594862E+03	3.664183E-03	2.868892E-04
4.604743E+03	3.687182E-03	2.884503E-04
4.614625E+03	3.709555E-03	2.899591E-04
4.624506E+03	3.731201E-03	2.914080E-04
4.634387E+03	3.752155E-03	2.927996E-04
4.644269E+03	3.772365E-03	2.941301E-04
4.654150E+03	3.791818E-03	2.953987E-04
4.664032E+03	3.810507E-03	2.966051E-04
4.673913E+03	3.828378E-03	2.977450E-04
4.683794E+03	3.845469E-03	2.988217E-04
4.693676E+03	3.861637E-03	2.998242E-04
4.703557E+03	3.876967E-03	3.007592E-04
4.713439E+03	3.891411E-03	3.016233E-04
4.723320E+03	3.904914E-03	3.024124E-04
4.733202E+03	3.917520E-03	3.031301E-04
4.743083E+03	3.929233E-03	3.037767E-04
4.752964E+03	3.940088E-03	3.043554E-04
4.762846E+03	3.950139E-03	3.048704E-04
4.772727E+03	3.959377E-03	3.053211E-04
4.782609E+03	3.967807E-03	3.057082E-04
4.792490E+03	3.975517E-03	3.060386E-04
4.802372E+03	3.982554E-03	3.063161E-04
4.812253E+03	3.988872E-03	3.065371E-04
4.822134E+03	3.994513E-03	3.067053E-04
4.832016E+03	3.999524E-03	3.068243E-04
4.841897E+03	4.003952E-03	3.068978E-04
4.851779E+03	4.007793E-03	3.069256E-04
4.861660E+03	4.011047E-03	3.069080E-04
4.871542E+03	4.013717E-03	3.068452E-04
4.881423E+03	4.015891E-03	3.067442E-04
4.891304E+03	4.017574E-03	3.066053E-04
4.901186E+03	4.018719E-03	3.064251E-04
4.911067E+03	4.019375E-03	3.062074E-04
4.920949E+03	4.019544E-03	3.059526E-04
4.930830E+03	4.019278E-03	3.056646E-04
4.940711E+03	4.018578E-03	3.053437E-04
4.950593E+03	4.017447E-03	3.049903E-04
4.960474E+03	4.015898E-03	3.046051E-04
4.970356E+03	4.013930E-03	3.041885E-04
4.980237E+03	4.011596E-03	3.037444E-04
4.990119E+03	4.008906E-03	3.032738E-04
5.000000E+03	4.005865E-03	3.027770E-04
5.009881E+03	4.002435E-03	3.022513E-04
5.019763E+03	3.998716E-03	3.017043E-04
5.029644E+03	3.994670E-03	3.011331E-04
5.039526E+03	3.990307E-03	3.005388E-04
5.049407E+03	3.985682E-03	2.999254E-04
5.059289E+03	3.980715E-03	2.992869E-04
5.069170E+03	3.975547E-03	2.986342E-04
5.079051E+03	3.970099E-03	2.979612E-04
5.088933E+03	3.964429E-03	2.972724E-04
5.098814E+03	3.958499E-03	2.965651E-04
5.108696E+03	3.952365E-03	2.958434E-04
5.118577E+03	3.945995E-03	2.951051E-04
5.128458E+03	3.939481E-03	2.943570E-04
5.138340E+03	3.932754E-03	2.935940E-04
5.148221E+03	3.925865E-03	2.928201E-04
5.158103E+03	3.918781E-03	2.920327E-04
5.167984E+03	3.911596E-03	2.912390E-04
5.177866E+03	3.904241E-03	2.904338E-04
5.187747E+03	3.896763E-03	2.896207E-04
5.197628E+03	3.889137E-03	2.887978E-04
5.207510E+03	3.881452E-03	2.879719E-04
5.217391E+03	3.873636E-03	2.871376E-04
5.227273E+03	3.865703E-03	2.862959E-04
5.237154E+03	3.857701E-03	2.854505E-04
5.247036E+03	3.849646E-03	2.846025E-04
5.256917E+03	3.841499E-03	2.837492E-04
5.266798E+03	3.833321E-03	2.828949E-04
5.276680E+03	3.825074E-03	2.820370E-04
5.286561E+03	3.816811E-03	2.811795E-04
5.296443E+03	3.808504E-03	2.803202E-04
5.306324E+03	3.800160E-03	2.794596E-04
5.316206E+03	3.791791E-03	2.785988E-04
5.326087E+03	3.783446E-03	2.777412E-04
5.335968E+03	3.775094E-03	2.768846E-04
5.345850E+03	3.766709E-03	2.760272E-04
5.355731E+03	3.758371E-03	2.751748E-04
5.365613E+03	3.750054E-03	2.743255E-04
5.375494E+03	3.741730E-03	2.734773E-04
5.385375E+03	3.733480E-03	2.726360E-04
5.395257E+03	3.725237E-03	2.717968E-04
5.405138E+03	3.717049E-03	2.709632E-04
5.415020E+03	3.708885E-03	2.701329E-04
5.424901E+03	3.700828E-03	2.693120E-04
5.434783E+03	3.692809E-03	2.684954E-04
5.444664E+03	3.684911E-03	2.676892E-04
5.454545E+03	3.677140E-03	2.668938E-04
5.464427E+03	3.669503E-03	2.661097E-04
5.474308E+03	3.661967E-03	2.653344E-04
5.484190E+03	3.654618E-03	2.645743E-04
5.494071E+03	3.647382E-03	2.638238E-04
5.503953E+03	3.640267E-03	2.630837E-04
5.513834E+03	3.633283E-03	2.623546E-04
5.523715E+03	3.626466E-03	2.616390E-04
5.533597E+03	3.619790E-03	2.609351E-04
5.543478E+03	3.613257E-03	2.602430E-04
5.553360E+03	3.606871E-03	2.595630E-04
5.563241E+03	3.600642E-03	2.588958E-04
5.573123E+03	3.594569E-03	2.582413E-04
5.583004E+03	3.588657E-03	2.575999E-04
5.592885E+03	3.582913E-03	2.569720E-04
5.602767E+03	3.577303E-03	2.563552E-04
5.612648E+03	3.571903E-03	2.557548E-04
5.622530E+03	3.566642E-03	2.551659E-04
5.632411E+03	3.561564E-03	2.545916E-04
5.642292E+03	3.556664E-03	2.540313E-04
5.652174E+03	3.551915E-03	2.534833E-04
5.662055E+03	3.547316E-03	2.529475E-04
5.671937E+03	3.542906E-03	2.524266E-04
5.681818E+03	3.538651E-03	2.519181E-04
5.691700E+03	3.534552E-03	2.514222E-04
5.701581E+03	3.530646E-03	2.509414E-04
5.711462E+03	3.526864E-03	2.504709E-04
5.721344E+03	3.523208E-03	2.500107E-04
5.731225E+03	3.519744E-03	2.495657E-04
5.741107E+03	3.516374E-03	2.491287E-04
5.750988E+03	3.513200E-03	2.487070E-04
5.760870E+03	3.510120E-03	2.482934E-04
5.770751E+03	3.507168E-03	2.478903E-04
5.780632E+03	3.504345E-03	2.474978E-04
5.790514E+03	3.501618E-03	2.471135E-04
5.800395E+03	3.499021E-03	2.467398E-04
5.810277E+03	3.496554E-03	2.463768E-04
5.820158E+03	3.494148E-03	2.460196E-04
5.830040E+03	3.491841E-03	2.456708E-04
5.839921E+03	3.489631E-03	2.453304E-04
5.849802E+03	3.487521E-03	2.449986E-04
5.859684E+03	3.485446E-03	2.446707E-04
5.869565E+03	3.483472E-03	2.443515E-04
5.879447E+03	3.481566E-03	2.440386E-04
5.889328E+03	3.479699E-03	2.437301E-04
5.899209E+03	3.477906E-03	2.434284E-04
5.909091E+03	3.476186E-03	2.431333E-04
5.918972E+03	3.474513E-03	2.428433E-04
5.928854E+03	3.472851E-03	2.425556E-04
5.938735E+03	3.471271E-03	2.422755E-04
5.948617E+03	3.469744E-03	2.420007E-04
5.958498E+03	3.468274E-03	2.417316E-04
5.968379E+03	3.466828E-03	2.414659E-04
5.978261E+03	3.465480E-03	2.412089E-04
5.988142E+03	3.464163E-03	2.409559E-04
5.998024E+03	3.462920E-03	2.407098E-04
6.007905E+03	3.461779E-03	2.404727E-04
6.017787E+03	3.460688E-03	2.402409E-04
6.027668E+03	3.459711E-03	2.400189E-04
6.037549E+03	3.458853E-03	2.398071E-04
6.047431E+03	3.458120E-03	2.396058E-04
6.057312E+03	3.457548E-03	2.394178E-04
6.067194E+03	3.457143E-03	2.392432E-04
6.077075E+03	3.456903E-03	2.390820E-04
6.086957E+03	3.456937E-03	2.389418E-04
6.096838E+03	3.457211E-03	2.388203E-04
6.106719E+03	3.457798E-03	2.387224E-04
6.116601E+03	3.458663E-03	2.386457E-04
6.126482E+03	3.459805E-03	2.385902E-04
6.136364E+03	3.461188E-03	2.385534E-04
6.146245E+03	3.462716E-03	2.385286E-04
6.156126E+03	3.464446E-03	2.385199E-04
6.166008E+03	3.466307E-03	2.385222E-04
6.175889E+03	3.468295E-03	2.385355E-04
6.185771E+03	3.470368E-03	2.385567E-04
6.195652E+03	3.472552E-03	2.385878E-04
6.205534E+03	3.474838E-03	2.386280E-04
6.215415E+03	3.477184E-03	2.386745E-04
6.225296E+03	3.479580E-03	2.387267E-04
6.235178E+03	3.482047E-03	2.387861E-04
6.245059E+03	3.484541E-03	2.388495E-04
6.254941E+03	3.487085E-03	2.389188E-04
6.264822E+03	3.489662E-03	2.389927E-04
6.274704E+03	3.492227E-03	2.390681E-04
6.284585E+03	3.494838E-03	2.391490E-04
6.294466E+03	3.497402E-03	2.392292E-04
6.304348E+03	3.499982E-03	2.393130E-04
6.314229E+03	3.502522E-03	2.393966E-04
6.324111E+03	3.505007E-03	2.394789E-04
6.333992E+03	3.507421E-03	2.395590E-04
6.343874E+03	3.509782E-03	2.396381E-04
6.353755E+03	3.512068E-03	2.397147E-04
6.363636E+03	3.514265E-03	2.397880E-04
6.373518E+03	3.516353E-03	2.398566E-04
6.383399E+03	3.518352E-03	2.399218E-04
6.393281E+03	3.520274E-03	2.399847E-04
6.403162E+03	3.522103E-03	2.400440E-04
6.413043E+03	3.523893E-03	2.401037E-04
6.422925E+03	3.525587E-03	2.401597E-04
6.432806E+03	3.527206E-03	2.402135E-04
6.442688E+03	3.528651E-03	2.402585E-04
6.452569E+03	3.529946E-03	2.402964E-04
6.462451E+03	3.531030E-03	2.403230E-04
6.472332E+03	3.531921E-03	2.403396E-04
6.482213E+03	3.532637E-03	2.403475E-04
6.492095E+03	3.533122E-03	2.403429E-04
6.501976E+03	3.533434E-03	2.403297E-04
6.511858E+03	3.533550E-03	2.403065E-04
6.521739E+03	3.533457E-03	2.402724E-04
6.531621E+03	3.533173E-03	2.402288E-04
6.541502E+03	3.532721E-03	2.401770E-04
6.551383E+03	3.532082E-03	2.401160E-04
6.561265E+03	3.531242E-03	2.400449E-04
6.571146E+03	3.530186E-03	2.399625E-04
6.581028E+03	3.528977E-03	2.398733E-04
6.590909E+03	3.527520E-03	2.397707E-04
6.600791E+03	3.525881E-03	2.396594E-04
6.610672E+03	3.524009E-03	2.395359E-04
6.620553E+03	3.521929E-03	2.394019E-04
6.630435E+03	3.519630E-03	2.392567E-04
6.640316E+03	3.517099E-03	2.390994E-04
6.650198E+03	3.514370E-03	2.389323E-04
6.660079E+03	3.511348E-03	2.387489E-04
6.669960E+03	3.508106E-03	2.385542E-04
6.679842E+03	3.504597E-03	2.383447E-04
6.689723E+03	3.500853E-03	2.381228E-04
6.699605E+03	3.496824E-03	2.378848E-04
6.709486E+03	3.492546E-03	2.376332E-04
6.719368E+03	3.488012E-03	2.373676E-04
6.729249E+03	3.483172E-03	2.370844E-04
6.739130E+03	3.478067E-03	2.367862E-04
6.749012E+03	3.472725E-03	2.364752E-04
6.758893E+03	3.467024E-03	2.361427E-04
6.768775E+03	3.461080E-03	2.357967E-04
6.778656E+03	3.454848E-03	2.354341E-04
6.788538E+03	3.448282E-03	2.350515E-04
6.798419E+03	3.441461E-03	2.346545E-04
6.808300E+03	3.434302E-03	2.342371E-04
6.818182E+03	3.426840E-03	2.338018E-04
6.828063E+03	3.419071E-03	2.333482E-04
6.837945E+03	3.410998E-03	2.328763E-04
6.847826E+03	3.402611E-03	2.323856E-04
6.857708E+03	3.393876E-03	2.318736E-04
6.867589E+03	3.384827E-03	2.313424E-04
6.877470E+03	3.375464E-03	2.307921E-04
6.887352E+03	3.365746E-03	2.302198E-04
6.897233E+03	3.355714E-03	2.296280E-04
6.907115E+03	3.345366E-03	2.290169E-04
6.916996E+03	3.334621E-03	2.283805E-04
6.926877E+03	3.323605E-03	2.277275E-04
6.936759E+03	3.312195E-03	2.270493E-04
6.946640E+03	3.300475E-03	2.263517E-04
6.956522E+03	3.288366E-03	2.256291E-04
6.966403E+03	3.275950E-03	2.248871E-04
6.976285E+03	3.263154E-03	2.241205E-04
6.986166E+03	3.250019E-03	2.233322E-04
6.996047E+03	3.236552E-03	2.225224E-04
7.005929E+03	3.222717E-03	2.216886E-04
7.015810E+03	3.208518E-03	2.208311E-04
7.025692E+03	3.194005E-03	2.199530E-04
7.035573E+03	3.179102E-03	2.190492E-04
7.045455E+03	3.163900E-03	2.181258E-04
7.055336E+03	3.148287E-03	2.171749E-04
7.065217E+03	3.132390E-03	2.162052E-04
7.075099E+03	3.116105E-03	2.152096E-04
7.084980E+03	3.099517E-03	2.141937E-04
7.094862E+03	3.082559E-03	2.131527E-04
7.104743E+03	3.065286E-03	2.120905E-04
7.114625E+03	3.047671E-03	2.110050E-04
7.124506E+03	3.029765E-03	2.098997E-04
7.134387E+03	3.011504E-03	2.087701E-04
7.144269E+03	2.992981E-03	2.076225E-04
7.154150E+03	2.974102E-03	2.064503E-04
7.164032E+03	2.954988E-03	2.052617E-04
7.173913E+03	2.935549E-03	2.040505E-04
7.183794E+03	2.915841E-03	2.028204E-04
7.193676E+03	2.895840E-03	2.015698E-04
7.203557E+03	2.875641E-03	2.003050E-04
7.213439E+03	2.855152E-03	1.990196E-04
7.223320E+03	2.834432E-03	1.977177E-04
7.233202E+03	2.813499E-03	1.964004E-04
7.243083E+03	2.792374E-03	1.950690E-04
7.252964E+03	2.771073E-03	1.937247E-04
7.262846E+03	2.749585E-03	1.923666E-04
7.272727E+03	2.727931E-03	1.909961E-04
7.282609E+03	2.706131E-03	1.896143E-04
7.292490E+03	2.684210E-03	1.882232E-04
7.302372E+03	2.662182E-03	1.868237E-04
7.312253E+03	2.640108E-03	1.854198E-04
7.322134E+03	2.617935E-03	1.840078E-04
7.332016E+03	2.595725E-03	1.825921E-04
7.341897E+03	2.573494E-03	1.811736E-04
7.351779E+03	2.551229E-03	1.797516E-04
7.361660E+03	2.529016E-03	1.783318E-04
7.371542E+03	2.506809E-03	1.769112E-04
7.381423E+03	2.484660E-03	1.754932E-04
7.391304E+03	2.462556E-03	1.740770E-04
7.401186E+03	2.440577E-03	1.726682E-04
7.411067E+03	2.418647E-03	1.712614E-04
7.420949E+03	2.396877E-03	1.698643E-04
7.430830E+03	2.375220E-03	1.684738E-04
7.440711E+03	2.353724E-03	1.670930E-04
7.450593E+03	2.332401E-03	1.657230E-04
7.460474E+03	2.311238E-03	1.643627E-04
7.470356E+03	2.290276E-03	1.630151E-04
7.480237E+03	2.269558E-03	1.616830E-04
7.490119E+03	2.249035E-03	1.603633E-04
7.500000E+03	2.228748E-03	1.590587E-04
7.509881E+03	2.208706E-03	1.577698E-04
7.519763E+03	2.188946E-03	1.564993E-04
7.529644E+03	2.169447E-03	1.552458E-04
7.539526E+03	2.150215E-03	1.540097E-04
7.549407E+03	2.131284E-03	1.527933E-04
7.559289E+03	2.112630E-03	1.515950E-04
7.569170E+03	2.094284E-03	1.504171E-04
7.579051E+03	2.076247E-03	1.492596E-04
7.588933E+03	2.058521E-03	1.481228E-04
7.598814E+03	2.041078E-03	1.470046E-04
7.608696E+03	2.023973E-03	1.459090E-04
7.618577E+03	2.007177E-03	1.448339E-04
7.628458E+03	1.990688E-03	1.437794E-04
7.638340E+03	1.974504E-03	1.427451E-04
7.648221E+03	1.958623E-03	1.417311E-04
7.658103E+03	1.943041E-03	1.407371E-04
7.667984E+03	1.927781E-03	1.397647E-04
