#wls	flux	fluxerr
1.581028E+03	1.734107E-04	2.190317E-05
1.620553E+03	1.747359E-04	2.203002E-05
1.660079E+03	1.759622E-04	2.214278E-05
1.699605E+03	1.770819E-04	2.224051E-05
1.739130E+03	1.780450E-04	2.231698E-05
1.778656E+03	1.788421E-04	2.237108E-05
1.818182E+03	1.794501E-04	2.240004E-05
1.857708E+03	1.797997E-04	2.239531E-05
1.897233E+03	1.797823E-04	2.234361E-05
1.936759E+03	1.793792E-04	2.224287E-05
1.976285E+03	1.786058E-04	2.209533E-05
2.015810E+03	1.776598E-04	2.192568E-05
2.055336E+03	1.769204E-04	2.178077E-05
2.094862E+03	1.769481E-04	2.172922E-05
2.134387E+03	1.782344E-04	2.183052E-05
2.173913E+03	1.810546E-04	2.211702E-05
2.213439E+03	1.852077E-04	2.256266E-05
2.252964E+03	1.902208E-04	2.310852E-05
2.292490E+03	1.957277E-04	2.370924E-05
2.332016E+03	2.013527E-04	2.431877E-05
2.371542E+03	2.070057E-04	2.492595E-05
2.411067E+03	2.125883E-04	2.551879E-05
2.450593E+03	2.181326E-04	2.610104E-05
2.490119E+03	2.236594E-04	2.667505E-05
2.529644E+03	2.291983E-04	2.724420E-05
2.569170E+03	2.348180E-04	2.781643E-05
2.608696E+03	2.405453E-04	2.839461E-05
2.648221E+03	2.464419E-04	2.898572E-05
2.687747E+03	2.524865E-04	2.958681E-05
2.727273E+03	2.588129E-04	3.021316E-05
2.766798E+03	2.653920E-04	3.086077E-05
2.806324E+03	2.723133E-04	3.153945E-05
2.845850E+03	2.796231E-04	3.225385E-05
2.885375E+03	2.873248E-04	3.300358E-05
2.924901E+03	2.955848E-04	3.380682E-05
2.964427E+03	3.044445E-04	3.466723E-05
2.974308E+03	3.067672E-04	3.489271E-05
2.984190E+03	3.091247E-04	3.512138E-05
2.994071E+03	3.115583E-04	3.535788E-05
3.003953E+03	3.139867E-04	3.559297E-05
3.013834E+03	3.165387E-04	3.584123E-05
3.023715E+03	3.190955E-04	3.608917E-05
3.033597E+03	3.217379E-04	3.634591E-05
3.043478E+03	3.244235E-04	3.660662E-05
3.053360E+03	3.271919E-04	3.687577E-05
3.063241E+03	3.300423E-04	3.715320E-05
3.073123E+03	3.329318E-04	3.743406E-05
3.083004E+03	3.359011E-04	3.772289E-05
3.092885E+03	3.389488E-04	3.801951E-05
3.102767E+03	3.420742E-04	3.832379E-05
3.112648E+03	3.452350E-04	3.863097E-05
3.122530E+03	3.485134E-04	3.895021E-05
3.132411E+03	3.518255E-04	3.927209E-05
3.142292E+03	3.552540E-04	3.960581E-05
3.152174E+03	3.587564E-04	3.994659E-05
3.162055E+03	3.623325E-04	4.029435E-05
3.171937E+03	3.659814E-04	4.064898E-05
3.181818E+03	3.697026E-04	4.101037E-05
3.191700E+03	3.735373E-04	4.138304E-05
3.201581E+03	3.774849E-04	4.176689E-05
3.211462E+03	3.815037E-04	4.215724E-05
3.221344E+03	3.856346E-04	4.255856E-05
3.231225E+03	3.898775E-04	4.297080E-05
3.241107E+03	3.941899E-04	4.338922E-05
3.250988E+03	3.986551E-04	4.382293E-05
3.260870E+03	4.031893E-04	4.426267E-05
3.270751E+03	4.078755E-04	4.471748E-05
3.280632E+03	4.126714E-04	4.518267E-05
3.290514E+03	4.175773E-04	4.565820E-05
3.300395E+03	4.226338E-04	4.614846E-05
3.310277E+03	4.277992E-04	4.664882E-05
3.320158E+03	4.331147E-04	4.716371E-05
3.330040E+03	4.385799E-04	4.769301E-05
3.339921E+03	4.441530E-04	4.823210E-05
3.349802E+03	4.499166E-04	4.878988E-05
3.359684E+03	4.557873E-04	4.935721E-05
3.369565E+03	4.618478E-04	4.994299E-05
3.379447E+03	4.680560E-04	5.054257E-05
3.389328E+03	4.744530E-04	5.116029E-05
3.399209E+03	4.809970E-04	5.179157E-05
3.409091E+03	4.877289E-04	5.244071E-05
3.418972E+03	4.946482E-04	5.310758E-05
3.428854E+03	5.017546E-04	5.379201E-05
3.438735E+03	5.090473E-04	5.449384E-05
3.448617E+03	5.165673E-04	5.521735E-05
3.458498E+03	5.242317E-04	5.595355E-05
3.468379E+03	5.321631E-04	5.671545E-05
3.478261E+03	5.402789E-04	5.749411E-05
3.488142E+03	5.486199E-04	5.829376E-05
3.498024E+03	5.571439E-04	5.910979E-05
3.507905E+03	5.659327E-04	5.995077E-05
3.517787E+03	5.749857E-04	6.081649E-05
3.527668E+03	5.842611E-04	6.170239E-05
3.537549E+03	5.937580E-04	6.260826E-05
3.547431E+03	6.035580E-04	6.354256E-05
3.557312E+03	6.135781E-04	6.449639E-05
3.567194E+03	6.238587E-04	6.547388E-05
3.577075E+03	6.344399E-04	6.647906E-05
3.586957E+03	6.452800E-04	6.750742E-05
3.596838E+03	6.564189E-04	6.856297E-05
3.606719E+03	6.678556E-04	6.964545E-05
3.616601E+03	6.795893E-04	7.075459E-05
3.626482E+03	6.916191E-04	7.189013E-05
3.636364E+03	7.039442E-04	7.305182E-05
3.646245E+03	7.166038E-04	7.424356E-05
3.656126E+03	7.295571E-04	7.546092E-05
3.666008E+03	7.428431E-04	7.670776E-05
3.675889E+03	7.564607E-04	7.798378E-05
3.685771E+03	7.704494E-04	7.929285E-05
3.695652E+03	7.847679E-04	8.063051E-05
3.705534E+03	7.994148E-04	8.199642E-05
3.715415E+03	8.144292E-04	8.339440E-05
3.725296E+03	8.298102E-04	8.482413E-05
3.735178E+03	8.455567E-04	8.628528E-05
3.745059E+03	8.617071E-04	8.778155E-05
3.754941E+03	8.781804E-04	8.930447E-05
3.764822E+03	8.950953E-04	9.086588E-05
3.774704E+03	9.123705E-04	9.245730E-05
3.784585E+03	9.300046E-04	9.407835E-05
3.794466E+03	9.480762E-04	9.573676E-05
3.804348E+03	9.665441E-04	9.742812E-05
3.814229E+03	9.854068E-04	9.915202E-05
3.824111E+03	1.004703E-03	1.009121E-04
3.833992E+03	1.024390E-03	1.027039E-04
3.843874E+03	1.044508E-03	1.045311E-04
3.853755E+03	1.065014E-03	1.063892E-04
3.863636E+03	1.085987E-03	1.082858E-04
3.873518E+03	1.107346E-03	1.102126E-04
3.883399E+03	1.129128E-03	1.121730E-04
3.893281E+03	1.151372E-03	1.141706E-04
3.903162E+03	1.173996E-03	1.161971E-04
3.913043E+03	1.197079E-03	1.182599E-04
3.922925E+03	1.220578E-03	1.203545E-04
3.932806E+03	1.244531E-03	1.224846E-04
3.942688E+03	1.268857E-03	1.246418E-04
3.952569E+03	1.293634E-03	1.268334E-04
3.962451E+03	1.318820E-03	1.290552E-04
3.972332E+03	1.344414E-03	1.313067E-04
3.982213E+03	1.370451E-03	1.335912E-04
3.992095E+03	1.396853E-03	1.359007E-04
4.001976E+03	1.423655E-03	1.382385E-04
4.011858E+03	1.450895E-03	1.406079E-04
4.021739E+03	1.478453E-03	1.429971E-04
4.031621E+03	1.506406E-03	1.454133E-04
4.041502E+03	1.534751E-03	1.478559E-04
4.051383E+03	1.563407E-03	1.503170E-04
4.061265E+03	1.592412E-03	1.528000E-04
4.071146E+03	1.621724E-03	1.553006E-04
4.081028E+03	1.651341E-03	1.578184E-04
4.090909E+03	1.681260E-03	1.603530E-04
4.100791E+03	1.711441E-03	1.629003E-04
4.110672E+03	1.741880E-03	1.654599E-04
4.120553E+03	1.772537E-03	1.680276E-04
4.130435E+03	1.803409E-03	1.706032E-04
4.140316E+03	1.834416E-03	1.731789E-04
4.150198E+03	1.865595E-03	1.757582E-04
4.160079E+03	1.896904E-03	1.783369E-04
4.169960E+03	1.928303E-03	1.809112E-04
4.179842E+03	1.959750E-03	1.834772E-04
4.189723E+03	1.991205E-03	1.860310E-04
4.199605E+03	2.022628E-03	1.885689E-04
4.209486E+03	2.054015E-03	1.910906E-04
4.219368E+03	2.085326E-03	1.935923E-04
4.229249E+03	2.116483E-03	1.960669E-04
4.239130E+03	2.147445E-03	1.985108E-04
4.249012E+03	2.178173E-03	2.009203E-04
4.258893E+03	2.208626E-03	2.032918E-04
4.268775E+03	2.238801E-03	2.056255E-04
4.278656E+03	2.268547E-03	2.079073E-04
4.288538E+03	2.297936E-03	2.101444E-04
4.298419E+03	2.326817E-03	2.123230E-04
4.308300E+03	2.355224E-03	2.144467E-04
4.318182E+03	2.383082E-03	2.165089E-04
4.328063E+03	2.410351E-03	2.185063E-04
4.337945E+03	2.436995E-03	2.204362E-04
4.347826E+03	2.462971E-03	2.222948E-04
4.357708E+03	2.488282E-03	2.240831E-04
4.367589E+03	2.512889E-03	2.257978E-04
4.377470E+03	2.536750E-03	2.274358E-04
4.387352E+03	2.559909E-03	2.290013E-04
4.397233E+03	2.582283E-03	2.304875E-04
4.407115E+03	2.603842E-03	2.318921E-04
4.416996E+03	2.624580E-03	2.332153E-04
4.426877E+03	2.644501E-03	2.344578E-04
4.436759E+03	2.663492E-03	2.356102E-04
4.446640E+03	2.681627E-03	2.366797E-04
4.456522E+03	2.698837E-03	2.376607E-04
4.466403E+03	2.715118E-03	2.385534E-04
4.476285E+03	2.730472E-03	2.393587E-04
4.486166E+03	2.744903E-03	2.400775E-04
4.496047E+03	2.758444E-03	2.407134E-04
4.505929E+03	2.771064E-03	2.412640E-04
4.515810E+03	2.782798E-03	2.417332E-04
4.525692E+03	2.793687E-03	2.421251E-04
4.535573E+03	2.803727E-03	2.424398E-04
4.545455E+03	2.812959E-03	2.426816E-04
4.555336E+03	2.821385E-03	2.428510E-04
4.565217E+03	2.829076E-03	2.429548E-04
4.575099E+03	2.836035E-03	2.429936E-04
4.584980E+03	2.842298E-03	2.429710E-04
4.594862E+03	2.847902E-03	2.428908E-04
4.604743E+03	2.852885E-03	2.427565E-04
4.614625E+03	2.857284E-03	2.425717E-04
4.624506E+03	2.861136E-03	2.423400E-04
4.634387E+03	2.864508E-03	2.420675E-04
4.644269E+03	2.867406E-03	2.417548E-04
4.654150E+03	2.869863E-03	2.414054E-04
4.664032E+03	2.871985E-03	2.410281E-04
4.673913E+03	2.873774E-03	2.406237E-04
4.683794E+03	2.875261E-03	2.401948E-04
4.693676E+03	2.876554E-03	2.397507E-04
4.703557E+03	2.877651E-03	2.392915E-04
4.713439E+03	2.878619E-03	2.388229E-04
4.723320E+03	2.879461E-03	2.383452E-04
4.733202E+03	2.880171E-03	2.378581E-04
4.743083E+03	2.880715E-03	2.373590E-04
4.752964E+03	2.881097E-03	2.368483E-04
4.762846E+03	2.881279E-03	2.363232E-04
4.772727E+03	2.881298E-03	2.357867E-04
4.782609E+03	2.881087E-03	2.352336E-04
4.792490E+03	2.880710E-03	2.346693E-04
4.802372E+03	2.880071E-03	2.340863E-04
4.812253E+03	2.879272E-03	2.334928E-04
4.822134E+03	2.878246E-03	2.328837E-04
4.832016E+03	2.876997E-03	2.322596E-04
4.841897E+03	2.875561E-03	2.316234E-04
4.851779E+03	2.873871E-03	2.309698E-04
4.861660E+03	2.872002E-03	2.303051E-04
4.871542E+03	2.869950E-03	2.296290E-04
4.881423E+03	2.867662E-03	2.289372E-04
4.891304E+03	2.865199E-03	2.282349E-04
4.901186E+03	2.862539E-03	2.275203E-04
4.911067E+03	2.859682E-03	2.267935E-04
4.920949E+03	2.856665E-03	2.260575E-04
4.930830E+03	2.853461E-03	2.253103E-04
4.940711E+03	2.850076E-03	2.245524E-04
4.950593E+03	2.846510E-03	2.237840E-04
4.960474E+03	2.842804E-03	2.230082E-04
4.970356E+03	2.838930E-03	2.222230E-04
4.980237E+03	2.834893E-03	2.214289E-04
4.990119E+03	2.830727E-03	2.206287E-04
5.000000E+03	2.826408E-03	2.198203E-04
5.009881E+03	2.821941E-03	2.190043E-04
5.019763E+03	2.817362E-03	2.181836E-04
5.029644E+03	2.812643E-03	2.173561E-04
5.039526E+03	2.807826E-03	2.165249E-04
5.049407E+03	2.802911E-03	2.156904E-04
5.059289E+03	2.797842E-03	2.148480E-04
5.069170E+03	2.792721E-03	2.140059E-04
5.079051E+03	2.787487E-03	2.131591E-04
5.088933E+03	2.782150E-03	2.123086E-04
5.098814E+03	2.776746E-03	2.114572E-04
5.108696E+03	2.771276E-03	2.106051E-04
5.118577E+03	2.765719E-03	2.097505E-04
5.128458E+03	2.760112E-03	2.088964E-04
5.138340E+03	2.754428E-03	2.080408E-04
5.148221E+03	2.748704E-03	2.071864E-04
5.158103E+03	2.742915E-03	2.063314E-04
5.167984E+03	2.737099E-03	2.054787E-04
5.177866E+03	2.731258E-03	2.046285E-04
5.187747E+03	2.725374E-03	2.037794E-04
5.197628E+03	2.719448E-03	2.029315E-04
5.207510E+03	2.713518E-03	2.020877E-04
5.217391E+03	2.707587E-03	2.012482E-04
5.227273E+03	2.701635E-03	2.004115E-04
5.237154E+03	2.695666E-03	1.995780E-04
5.247036E+03	2.689714E-03	1.987502E-04
5.256917E+03	2.683760E-03	1.979265E-04
5.266798E+03	2.677804E-03	1.971073E-04
5.276680E+03	2.671885E-03	1.962950E-04
5.286561E+03	2.665950E-03	1.954861E-04
5.296443E+03	2.660060E-03	1.946850E-04
5.306324E+03	2.654168E-03	1.938881E-04
5.316206E+03	2.648307E-03	1.930979E-04
5.326087E+03	2.642505E-03	1.923165E-04
5.335968E+03	2.636715E-03	1.915405E-04
5.345850E+03	2.630944E-03	1.907700E-04
5.355731E+03	2.625222E-03	1.900076E-04
5.365613E+03	2.619552E-03	1.892531E-04
5.375494E+03	2.613914E-03	1.885051E-04
5.385375E+03	2.608337E-03	1.877656E-04
5.395257E+03	2.602800E-03	1.870331E-04
5.405138E+03	2.597333E-03	1.863097E-04
5.415020E+03	2.591913E-03	1.855937E-04
5.424901E+03	2.586569E-03	1.848871E-04
5.434783E+03	2.581281E-03	1.841884E-04
5.444664E+03	2.576105E-03	1.835015E-04
5.454545E+03	2.571042E-03	1.828264E-04
5.464427E+03	2.566069E-03	1.821615E-04
5.474308E+03	2.561190E-03	1.815071E-04
5.484190E+03	2.556436E-03	1.808650E-04
5.494071E+03	2.551781E-03	1.802336E-04
5.503953E+03	2.547230E-03	1.796131E-04
5.513834E+03	2.542764E-03	1.790021E-04
5.523715E+03	2.538431E-03	1.784039E-04
5.533597E+03	2.534214E-03	1.778173E-04
5.543478E+03	2.530110E-03	1.772420E-04
5.553360E+03	2.526105E-03	1.766769E-04
5.563241E+03	2.522219E-03	1.761236E-04
5.573123E+03	2.518485E-03	1.755841E-04
5.583004E+03	2.514856E-03	1.750551E-04
5.592885E+03	2.511357E-03	1.745385E-04
5.602767E+03	2.507994E-03	1.740344E-04
5.612648E+03	2.504766E-03	1.735429E-04
5.622530E+03	2.501681E-03	1.730643E-04
5.632411E+03	2.498737E-03	1.725986E-04
5.642292E+03	2.495939E-03	1.721461E-04
5.652174E+03	2.493265E-03	1.717051E-04
5.662055E+03	2.490765E-03	1.712791E-04
5.671937E+03	2.488396E-03	1.708652E-04
5.681818E+03	2.486184E-03	1.704649E-04
5.691700E+03	2.484130E-03	1.700785E-04
5.701581E+03	2.482215E-03	1.697045E-04
5.711462E+03	2.480463E-03	1.693447E-04
5.721344E+03	2.478858E-03	1.689977E-04
5.731225E+03	2.477395E-03	1.686633E-04
5.741107E+03	2.476106E-03	1.683438E-04
5.750988E+03	2.474969E-03	1.680373E-04
5.760870E+03	2.473984E-03	1.677442E-04
5.770751E+03	2.473158E-03	1.674647E-04
5.780632E+03	2.472467E-03	1.671972E-04
5.790514E+03	2.471937E-03	1.669435E-04
5.800395E+03	2.471570E-03	1.667038E-04
5.810277E+03	2.471326E-03	1.664753E-04
5.820158E+03	2.471248E-03	1.662609E-04
5.830040E+03	2.471320E-03	1.660596E-04
5.839921E+03	2.471520E-03	1.658698E-04
5.849802E+03	2.471872E-03	1.656931E-04
5.859684E+03	2.472381E-03	1.655301E-04
5.869565E+03	2.473000E-03	1.653774E-04
5.879447E+03	2.473755E-03	1.652369E-04
5.889328E+03	2.474649E-03	1.651088E-04
5.899209E+03	2.475639E-03	1.649902E-04
5.909091E+03	2.476771E-03	1.648843E-04
5.918972E+03	2.478024E-03	1.647896E-04
5.928854E+03	2.479380E-03	1.647050E-04
5.938735E+03	2.480834E-03	1.646303E-04
5.948617E+03	2.482394E-03	1.645659E-04
5.958498E+03	2.484060E-03	1.645120E-04
5.968379E+03	2.485807E-03	1.644669E-04
5.978261E+03	2.487614E-03	1.644294E-04
5.988142E+03	2.489532E-03	1.644027E-04
5.998024E+03	2.491511E-03	1.643837E-04
6.007905E+03	2.493554E-03	1.643726E-04
6.017787E+03	2.495659E-03	1.643694E-04
6.027668E+03	2.497827E-03	1.643742E-04
6.037549E+03	2.500061E-03	1.643872E-04
6.047431E+03	2.502358E-03	1.644084E-04
6.057312E+03	2.504691E-03	1.644360E-04
6.067194E+03	2.507087E-03	1.644719E-04
6.077075E+03	2.509519E-03	1.645144E-04
6.086957E+03	2.511984E-03	1.645634E-04
6.096838E+03	2.514481E-03	1.646188E-04
6.106719E+03	2.517006E-03	1.646806E-04
6.116601E+03	2.519531E-03	1.647469E-04
6.126482E+03	2.522098E-03	1.648205E-04
6.136364E+03	2.524681E-03	1.649000E-04
6.146245E+03	2.527270E-03	1.649846E-04
6.156126E+03	2.529907E-03	1.650770E-04
6.166008E+03	2.532559E-03	1.651751E-04
6.175889E+03	2.535214E-03	1.652781E-04
6.185771E+03	2.537893E-03	1.653873E-04
6.195652E+03	2.540580E-03	1.655016E-04
6.205534E+03	2.543266E-03	1.656205E-04
6.215415E+03	2.545940E-03	1.657433E-04
6.225296E+03	2.548614E-03	1.658706E-04
6.235178E+03	2.551280E-03	1.660020E-04
6.245059E+03	2.553949E-03	1.661381E-04
6.254941E+03	2.556608E-03	1.662782E-04
6.264822E+03	2.559244E-03	1.664213E-04
6.274704E+03	2.561872E-03	1.665684E-04
6.284585E+03	2.564503E-03	1.667203E-04
6.294466E+03	2.567127E-03	1.668762E-04
6.304348E+03	2.569727E-03	1.670351E-04
6.314229E+03	2.572347E-03	1.671998E-04
6.324111E+03	2.574969E-03	1.673691E-04
6.333992E+03	2.577609E-03	1.675441E-04
6.343874E+03	2.580253E-03	1.677238E-04
6.353755E+03	2.582943E-03	1.679111E-04
6.363636E+03	2.585664E-03	1.681048E-04
6.373518E+03	2.588433E-03	1.683061E-04
6.383399E+03	2.591258E-03	1.685156E-04
6.393281E+03	2.594107E-03	1.687312E-04
6.403162E+03	2.597041E-03	1.689568E-04
6.413043E+03	2.599999E-03	1.691884E-04
6.422925E+03	2.602963E-03	1.694250E-04
6.432806E+03	2.605951E-03	1.696677E-04
6.442688E+03	2.608975E-03	1.699173E-04
6.452569E+03	2.611967E-03	1.701693E-04
6.462451E+03	2.614942E-03	1.704248E-04
6.472332E+03	2.617853E-03	1.706807E-04
6.482213E+03	2.620693E-03	1.709366E-04
6.492095E+03	2.623413E-03	1.711893E-04
6.501976E+03	2.626031E-03	1.714400E-04
6.511858E+03	2.628470E-03	1.716836E-04
6.521739E+03	2.630748E-03	1.719213E-04
6.531621E+03	2.632847E-03	1.721520E-04
6.541502E+03	2.634695E-03	1.723709E-04
6.551383E+03	2.636330E-03	1.725805E-04
6.561265E+03	2.637683E-03	1.727764E-04
6.571146E+03	2.638762E-03	1.729589E-04
6.581028E+03	2.639555E-03	1.731274E-04
6.590909E+03	2.640042E-03	1.732805E-04
6.600791E+03	2.640209E-03	1.734172E-04
6.610672E+03	2.640008E-03	1.735343E-04
6.620553E+03	2.639485E-03	1.736350E-04
6.630435E+03	2.638592E-03	1.737158E-04
6.640316E+03	2.637287E-03	1.737740E-04
6.650198E+03	2.635612E-03	1.738122E-04
6.660079E+03	2.633525E-03	1.738275E-04
6.669960E+03	2.631039E-03	1.738207E-04
6.679842E+03	2.628086E-03	1.737870E-04
6.689723E+03	2.624740E-03	1.737312E-04
6.699605E+03	2.620926E-03	1.736482E-04
6.709486E+03	2.616634E-03	1.735373E-04
6.719368E+03	2.611882E-03	1.733994E-04
6.729249E+03	2.606658E-03	1.732335E-04
6.739130E+03	2.600955E-03	1.730390E-04
6.749012E+03	2.594761E-03	1.728151E-04
6.758893E+03	2.588075E-03	1.725613E-04
6.768775E+03	2.580861E-03	1.722752E-04
6.778656E+03	2.573174E-03	1.719602E-04
6.788538E+03	2.564986E-03	1.716143E-04
6.798419E+03	2.556302E-03	1.712376E-04
6.808300E+03	2.547125E-03	1.708300E-04
6.818182E+03	2.537490E-03	1.703939E-04
6.828063E+03	2.527351E-03	1.699259E-04
6.837945E+03	2.516779E-03	1.694306E-04
6.847826E+03	2.505756E-03	1.689066E-04
6.857708E+03	2.494296E-03	1.683546E-04
6.867589E+03	2.482444E-03	1.677775E-04
6.877470E+03	2.470187E-03	1.671743E-04
6.887352E+03	2.457541E-03	1.665458E-04
6.897233E+03	2.444520E-03	1.658929E-04
6.907115E+03	2.431175E-03	1.652187E-04
6.916996E+03	2.417490E-03	1.645222E-04
6.926877E+03	2.403483E-03	1.638042E-04
6.936759E+03	2.389200E-03	1.630679E-04
6.946640E+03	2.374626E-03	1.623120E-04
6.956522E+03	2.359781E-03	1.615377E-04
6.966403E+03	2.344679E-03	1.607459E-04
6.976285E+03	2.329337E-03	1.599375E-04
6.986166E+03	2.313800E-03	1.591155E-04
6.996047E+03	2.298053E-03	1.582789E-04
7.005929E+03	2.282113E-03	1.574285E-04
7.015810E+03	2.265995E-03	1.565653E-04
7.025692E+03	2.249714E-03	1.556903E-04
7.035573E+03	2.233284E-03	1.548043E-04
7.045455E+03	2.216720E-03	1.539081E-04
7.055336E+03	2.200063E-03	1.530047E-04
7.065217E+03	2.183272E-03	1.520910E-04
7.075099E+03	2.166416E-03	1.511717E-04
7.084980E+03	2.149454E-03	1.502438E-04
7.094862E+03	2.132451E-03	1.493119E-04
7.104743E+03	2.115368E-03	1.483731E-04
7.114625E+03	2.098270E-03	1.474319E-04
7.124506E+03	2.081117E-03	1.464854E-04
7.134387E+03	2.063972E-03	1.455380E-04
7.144269E+03	2.046795E-03	1.445867E-04
7.154150E+03	2.029648E-03	1.436361E-04
7.164032E+03	2.012492E-03	1.426831E-04
7.173913E+03	1.995388E-03	1.417322E-04
7.183794E+03	1.978295E-03	1.407802E-04
7.193676E+03	1.961274E-03	1.398316E-04
7.203557E+03	1.944284E-03	1.388834E-04
7.213439E+03	1.927385E-03	1.379398E-04
7.223320E+03	1.910535E-03	1.369979E-04
7.233202E+03	1.893794E-03	1.360617E-04
7.243083E+03	1.877119E-03	1.351285E-04
7.252964E+03	1.860569E-03	1.342022E-04
7.262846E+03	1.844126E-03	1.332816E-04
7.272727E+03	1.827774E-03	1.323656E-04
7.282609E+03	1.811568E-03	1.314581E-04
7.292490E+03	1.795490E-03	1.305579E-04
7.302372E+03	1.779525E-03	1.296638E-04
7.312253E+03	1.763702E-03	1.287780E-04
7.322134E+03	1.748028E-03	1.279009E-04
7.332016E+03	1.732484E-03	1.270313E-04
7.341897E+03	1.717100E-03	1.261713E-04
7.351779E+03	1.701859E-03	1.253197E-04
7.361660E+03	1.686787E-03	1.244784E-04
7.371542E+03	1.671890E-03	1.236480E-04
7.381423E+03	1.657128E-03	1.228255E-04
7.391304E+03	1.642571E-03	1.220161E-04
7.401186E+03	1.628180E-03	1.212169E-04
7.411067E+03	1.613958E-03	1.204282E-04
7.420949E+03	1.599952E-03	1.196536E-04
7.430830E+03	1.586101E-03	1.188886E-04
7.440711E+03	1.572471E-03	1.181381E-04
7.450593E+03	1.559023E-03	1.173992E-04
7.460474E+03	1.545780E-03	1.166735E-04
7.470356E+03	1.532723E-03	1.159598E-04
7.480237E+03	1.519875E-03	1.152595E-04
7.490119E+03	1.507216E-03	1.145714E-04
7.500000E+03	1.494749E-03	1.138956E-04
7.509881E+03	1.482495E-03	1.132335E-04
7.519763E+03	1.470433E-03	1.125839E-04
7.529644E+03	1.458567E-03	1.119468E-04
7.539526E+03	1.446915E-03	1.113237E-04
7.549407E+03	1.435439E-03	1.107117E-04
7.559289E+03	1.424178E-03	1.101138E-04
7.569170E+03	1.413113E-03	1.095285E-04
7.579051E+03	1.402243E-03	1.089560E-04
7.588933E+03	1.391569E-03	1.083961E-04
7.598814E+03	1.381089E-03	1.078488E-04
7.608696E+03	1.370821E-03	1.073156E-04
7.618577E+03	1.360729E-03	1.067936E-04
7.628458E+03	1.350828E-03	1.062841E-04
7.638340E+03	1.341137E-03	1.057887E-04
7.648221E+03	1.331618E-03	1.053042E-04
7.658103E+03	1.322305E-03	1.048336E-04
7.667984E+03	1.313162E-03	1.043739E-04
