#wls	flux	fluxerr
1.598715E+03	1.922929E-16	1.612819E-17
1.638682E+03	2.582867E-16	2.104209E-17
1.678650E+03	3.503697E-16	2.769410E-17
1.718618E+03	4.789808E-16	3.668936E-17
1.758586E+03	6.582256E-16	4.880038E-17
1.798554E+03	9.066432E-16	6.497603E-17
1.838522E+03	1.247158E-15	8.628299E-17
1.878490E+03	1.704759E-15	1.136969E-16
1.918458E+03	2.296426E-15	1.474321E-16
1.958425E+03	3.008226E-15	1.856323E-16
1.998393E+03	3.749993E-15	2.220781E-16
2.038361E+03	4.309396E-15	2.445316E-16
2.078329E+03	4.387060E-15	2.381400E-16
2.118297E+03	3.896877E-15	2.020249E-16
2.158265E+03	3.238193E-15	1.600700E-16
2.198233E+03	2.721445E-15	1.280642E-16
2.238200E+03	2.412555E-15	1.079088E-16
2.278168E+03	2.272954E-15	9.649418E-17
2.318136E+03	2.275292E-15	9.156629E-17
2.358104E+03	2.431365E-15	9.266313E-17
2.398072E+03	2.806122E-15	1.012163E-16
2.438040E+03	3.583472E-15	1.223139E-16
2.478008E+03	5.176121E-15	1.672684E-16
2.517976E+03	8.386918E-15	2.568520E-16
2.557943E+03	1.436090E-14	4.173986E-16
2.597911E+03	2.302181E-14	6.362694E-16
2.637879E+03	2.997699E-14	7.898575E-16
2.677847E+03	3.354733E-14	8.455854E-16
2.717815E+03	3.788884E-14	9.176170E-16
2.757783E+03	4.638269E-14	1.085369E-15
2.797751E+03	6.153537E-14	1.400896E-15
2.837718E+03	8.519118E-14	1.902397E-15
2.877686E+03	1.161455E-13	2.567391E-15
2.917654E+03	1.481071E-13	3.271485E-15
2.957622E+03	1.737501E-13	3.871415E-15
2.997590E+03	1.912023E-13	4.336830E-15
3.007582E+03	1.946512E-13	4.440705E-15
3.017574E+03	1.978801E-13	4.542795E-15
3.027566E+03	2.009553E-13	4.644559E-15
3.037558E+03	2.039309E-13	4.747199E-15
3.047550E+03	2.068135E-13	4.850819E-15
3.057542E+03	2.095836E-13	4.954901E-15
3.067534E+03	2.121925E-13	5.058213E-15
3.077526E+03	2.145444E-13	5.158335E-15
3.087518E+03	2.165184E-13	5.252143E-15
3.097510E+03	2.179918E-13	5.336350E-15
3.107502E+03	2.188298E-13	5.407241E-15
3.117494E+03	2.189165E-13	5.461413E-15
3.127486E+03	2.181495E-13	5.495670E-15
3.137477E+03	2.164976E-13	5.508493E-15
3.147469E+03	2.139389E-13	5.498540E-15
3.157461E+03	2.105090E-13	5.465911E-15
3.167453E+03	2.063065E-13	5.412373E-15
3.177445E+03	2.014560E-13	5.340467E-15
3.187437E+03	1.960883E-13	5.253027E-15
3.197429E+03	1.903706E-13	5.154003E-15
3.207421E+03	1.844480E-13	5.046940E-15
3.217413E+03	1.784623E-13	4.935452E-15
3.227405E+03	1.725349E-13	4.822755E-15
3.237397E+03	1.667727E-13	4.711810E-15
3.247389E+03	1.612524E-13	4.604857E-15
3.257381E+03	1.560238E-13	4.503460E-15
3.267373E+03	1.511114E-13	4.408520E-15
3.277365E+03	1.465270E-13	4.320606E-15
3.287357E+03	1.422638E-13	4.239756E-15
3.297349E+03	1.383004E-13	4.165570E-15
3.307341E+03	1.346130E-13	4.097556E-15
3.317333E+03	1.311697E-13	4.034950E-15
3.327325E+03	1.279396E-13	3.976987E-15
3.337317E+03	1.248873E-13	3.922720E-15
3.347309E+03	1.219838E-13	3.871371E-15
3.357301E+03	1.192010E-13	3.822153E-15
3.367293E+03	1.165135E-13	3.774332E-15
3.377285E+03	1.139016E-13	3.727319E-15
3.387277E+03	1.113459E-13	3.680522E-15
3.397269E+03	1.088315E-13	3.633469E-15
3.407261E+03	1.063439E-13	3.585686E-15
3.417253E+03	1.038767E-13	3.536957E-15
3.427244E+03	1.014190E-13	3.486909E-15
3.437236E+03	9.896862E-14	3.435454E-15
3.447228E+03	9.652356E-14	3.382518E-15
3.457220E+03	9.408015E-14	3.327960E-15
3.467212E+03	9.163707E-14	3.271726E-15
3.477204E+03	8.918396E-14	3.213432E-15
3.487196E+03	8.670098E-14	3.152341E-15
3.497188E+03	8.416902E-14	3.087717E-15
3.507180E+03	8.157236E-14	3.018930E-15
3.517172E+03	7.890554E-14	2.945712E-15
3.527164E+03	7.617049E-14	2.868069E-15
3.537156E+03	7.338345E-14	2.786556E-15
3.547148E+03	7.056774E-14	2.702025E-15
3.557140E+03	6.775586E-14	2.615709E-15
3.567132E+03	6.498349E-14	2.529013E-15
3.577124E+03	6.228937E-14	2.443503E-15
3.587116E+03	5.971389E-14	2.360863E-15
3.597108E+03	5.729221E-14	2.282615E-15
3.607100E+03	5.505821E-14	2.210274E-15
3.617092E+03	5.303984E-14	2.145153E-15
3.627084E+03	5.125934E-14	2.088365E-15
3.637076E+03	4.973450E-14	2.040862E-15
3.647068E+03	4.847930E-14	2.003458E-15
3.657060E+03	4.750277E-14	1.976770E-15
3.667052E+03	4.681229E-14	1.961353E-15
3.677044E+03	4.641073E-14	1.957578E-15
3.687036E+03	4.630075E-14	1.965800E-15
3.697028E+03	4.648311E-14	1.986292E-15
3.707020E+03	4.695778E-14	2.019290E-15
3.717012E+03	4.772276E-14	2.064935E-15
3.727003E+03	4.877576E-14	2.123349E-15
3.736995E+03	5.011215E-14	2.194544E-15
3.746987E+03	5.172563E-14	2.278444E-15
3.756979E+03	5.360670E-14	2.374821E-15
3.766971E+03	5.574268E-14	2.483288E-15
3.776963E+03	5.811632E-14	2.603233E-15
3.786955E+03	6.070564E-14	2.733813E-15
3.796947E+03	6.348527E-14	2.873999E-15
3.806939E+03	6.642179E-14	3.022371E-15
3.816931E+03	6.947959E-14	3.177371E-15
3.826923E+03	7.261902E-14	3.337221E-15
3.836915E+03	7.579562E-14	3.499881E-15
3.846907E+03	7.896508E-14	3.663280E-15
3.856899E+03	8.208427E-14	3.825360E-15
3.866891E+03	8.511177E-14	3.984110E-15
3.876883E+03	8.801065E-14	4.137696E-15
3.886875E+03	9.074866E-14	4.284480E-15
3.896867E+03	9.330258E-14	4.423228E-15
3.906859E+03	9.565619E-14	4.553027E-15
3.916851E+03	9.780120E-14	4.673334E-15
3.926843E+03	9.973669E-14	4.783962E-15
3.936835E+03	1.014685E-13	4.885050E-15
3.946827E+03	1.030080E-13	4.977015E-15
3.956819E+03	1.043691E-13	5.060416E-15
3.966811E+03	1.055656E-13	5.135817E-15
3.976803E+03	1.066137E-13	5.203906E-15
3.986795E+03	1.075244E-13	5.265139E-15
3.996787E+03	1.083071E-13	5.319902E-15
4.006779E+03	1.089654E-13	5.368306E-15
4.016771E+03	1.094979E-13	5.410222E-15
4.026762E+03	1.099020E-13	5.445461E-15
4.036754E+03	1.101686E-13	5.473506E-15
4.046746E+03	1.102879E-13	5.493824E-15
4.056738E+03	1.102488E-13	5.505790E-15
4.066730E+03	1.100397E-13	5.508777E-15
4.076722E+03	1.096507E-13	5.502225E-15
4.086714E+03	1.090751E-13	5.485741E-15
4.096706E+03	1.083074E-13	5.458994E-15
4.106698E+03	1.073468E-13	5.421897E-15
4.116690E+03	1.061987E-13	5.374667E-15
4.126682E+03	1.048683E-13	5.317538E-15
4.136674E+03	1.033684E-13	5.251123E-15
4.146666E+03	1.017149E-13	5.176202E-15
4.156658E+03	9.992732E-14	5.093752E-15
4.166650E+03	9.802890E-14	5.004955E-15
4.176642E+03	9.604654E-14	4.911181E-15
4.186634E+03	9.400976E-14	4.813949E-15
4.196626E+03	9.195060E-14	4.714917E-15
4.206618E+03	8.990274E-14	4.615839E-15
4.216610E+03	8.790040E-14	4.518500E-15
4.226602E+03	8.597728E-14	4.424670E-15
4.236594E+03	8.416695E-14	4.336117E-15
4.246586E+03	8.250133E-14	4.254529E-15
4.256578E+03	8.100930E-14	4.181441E-15
4.266570E+03	7.971528E-14	4.118159E-15
4.276562E+03	7.864092E-14	4.065845E-15
4.286554E+03	7.780322E-14	4.025421E-15
4.296546E+03	7.721460E-14	3.997567E-15
4.306538E+03	7.688099E-14	3.982627E-15
4.316530E+03	7.680328E-14	3.980676E-15
4.326521E+03	7.698023E-14	3.991675E-15
4.336513E+03	7.740219E-14	4.015145E-15
4.346505E+03	7.805913E-14	4.050578E-15
4.356497E+03	7.893745E-14	4.097276E-15
4.366489E+03	8.002148E-14	4.154425E-15
4.376481E+03	8.129310E-14	4.221078E-15
4.386473E+03	8.273373E-14	4.296259E-15
4.396465E+03	8.432095E-14	4.378792E-15
4.406457E+03	8.603208E-14	4.467479E-15
4.416449E+03	8.784051E-14	4.560919E-15
4.426441E+03	8.971537E-14	4.657489E-15
4.436433E+03	9.162545E-14	4.755545E-15
4.446425E+03	9.353614E-14	4.853267E-15
4.456417E+03	9.541193E-14	4.948794E-15
4.466409E+03	9.721844E-14	5.040323E-15
4.476401E+03	9.892020E-14	5.125999E-15
4.486393E+03	1.004864E-13	5.204215E-15
4.496385E+03	1.018889E-13	5.273506E-15
4.506377E+03	1.031030E-13	5.332601E-15
4.516369E+03	1.041094E-13	5.380495E-15
4.526361E+03	1.048939E-13	5.416482E-15
4.536353E+03	1.054482E-13	5.440141E-15
4.546345E+03	1.057684E-13	5.451302E-15
4.556337E+03	1.058554E-13	5.450040E-15
4.566329E+03	1.057155E-13	5.436715E-15
4.576321E+03	1.053622E-13	5.412061E-15
4.586313E+03	1.048095E-13	5.376836E-15
4.596305E+03	1.040760E-13	5.332038E-15
4.606297E+03	1.031849E-13	5.278900E-15
4.616289E+03	1.021597E-13	5.218666E-15
4.626280E+03	1.010216E-13	5.152452E-15
4.636272E+03	9.979636E-14	5.081619E-15
4.646264E+03	9.850173E-14	5.007097E-15
4.656256E+03	9.715904E-14	4.930002E-15
4.666248E+03	9.578398E-14	4.851157E-15
4.676240E+03	9.438994E-14	4.771263E-15
4.686232E+03	9.298813E-14	4.690908E-15
4.696224E+03	9.158808E-14	4.610589E-15
4.706216E+03	9.019966E-14	4.530817E-15
4.716208E+03	8.882873E-14	4.451898E-15
4.726200E+03	8.748154E-14	4.374153E-15
4.736192E+03	8.616458E-14	4.297914E-15
4.746184E+03	8.488185E-14	4.223385E-15
4.756176E+03	8.364225E-14	4.151008E-15
4.766168E+03	8.245015E-14	4.080999E-15
4.776160E+03	8.131597E-14	4.013867E-15
4.786152E+03	8.025026E-14	3.950121E-15
4.796144E+03	7.926394E-14	3.890282E-15
4.806136E+03	7.837214E-14	3.835068E-15
4.816128E+03	7.759203E-14	3.785286E-15
4.826120E+03	7.693920E-14	3.741653E-15
4.836112E+03	7.643122E-14	3.704972E-15
4.846104E+03	7.608377E-14	3.675940E-15
4.856096E+03	7.590975E-14	3.655106E-15
4.866088E+03	7.591992E-14	3.642903E-15
4.876080E+03	7.612211E-14	3.639618E-15
4.886072E+03	7.651919E-14	3.645287E-15
4.896064E+03	7.711236E-14	3.659864E-15
4.906056E+03	7.789732E-14	3.683038E-15
4.916047E+03	7.886951E-14	3.714484E-15
4.926039E+03	8.002155E-14	3.753747E-15
4.936031E+03	8.134360E-14	3.800256E-15
4.946023E+03	8.282599E-14	3.853454E-15
4.956015E+03	8.445599E-14	3.912648E-15
4.966007E+03	8.622142E-14	3.977176E-15
4.975999E+03	8.810686E-14	4.046235E-15
4.985991E+03	9.009597E-14	4.118991E-15
4.995983E+03	9.216945E-14	4.194488E-15
5.005975E+03	9.430864E-14	4.271812E-15
5.015967E+03	9.648852E-14	4.349779E-15
5.025959E+03	9.868374E-14	4.427212E-15
5.035951E+03	1.008678E-13	4.502902E-15
5.045943E+03	1.030103E-13	4.575493E-15
5.055935E+03	1.050812E-13	4.643674E-15
5.065927E+03	1.070499E-13	4.706140E-15
5.075919E+03	1.088864E-13	4.761632E-15
5.085911E+03	1.105615E-13	4.808968E-15
5.095903E+03	1.120491E-13	4.847127E-15
5.105895E+03	1.133268E-13	4.875272E-15
5.115887E+03	1.143727E-13	4.892612E-15
5.125879E+03	1.151731E-13	4.898737E-15
5.135871E+03	1.157126E-13	4.893174E-15
5.145863E+03	1.159870E-13	4.875946E-15
5.155855E+03	1.159941E-13	4.847161E-15
5.165847E+03	1.157397E-13	4.807270E-15
5.175839E+03	1.152381E-13	4.757070E-15
5.185831E+03	1.145096E-13	4.697594E-15
5.195823E+03	1.135841E-13	4.630249E-15
5.205815E+03	1.124990E-13	4.556716E-15
5.215806E+03	1.113007E-13	4.479004E-15
5.225798E+03	1.100324E-13	4.398932E-15
5.235790E+03	1.087427E-13	4.318514E-15
5.245782E+03	1.074769E-13	4.239557E-15
5.255774E+03	1.062736E-13	4.163578E-15
5.265766E+03	1.051613E-13	4.091641E-15
5.275758E+03	1.041627E-13	4.024562E-15
5.285750E+03	1.032890E-13	3.962693E-15
5.295742E+03	1.025425E-13	3.906033E-15
5.305734E+03	1.019167E-13	3.854238E-15
5.315726E+03	1.014021E-13	3.806867E-15
5.325718E+03	1.009836E-13	3.763269E-15
5.335710E+03	1.006465E-13	3.722836E-15
5.345702E+03	1.003770E-13	3.684996E-15
5.355694E+03	1.001699E-13	3.649517E-15
5.365686E+03	1.000198E-13	3.616159E-15
5.375678E+03	9.992965E-14	3.584989E-15
5.385670E+03	9.990840E-14	3.556282E-15
5.395662E+03	9.996762E-14	3.530396E-15
5.405654E+03	1.001160E-13	3.507575E-15
5.415646E+03	1.003633E-13	3.488095E-15
5.425638E+03	1.007196E-13	3.472225E-15
5.435630E+03	1.011939E-13	3.460183E-15
5.445622E+03	1.018006E-13	3.452348E-15
5.455614E+03	1.025518E-13	3.448995E-15
5.465606E+03	1.034555E-13	3.450252E-15
5.475598E+03	1.045115E-13	3.455959E-15
5.485590E+03	1.057040E-13	3.465449E-15
5.495582E+03	1.070134E-13	3.477943E-15
5.505574E+03	1.084115E-13	3.492405E-15
5.515565E+03	1.098667E-13	3.507733E-15
5.525557E+03	1.113380E-13	3.522543E-15
5.535549E+03	1.127871E-13	3.535596E-15
5.545541E+03	1.141716E-13	3.545565E-15
5.555533E+03	1.154519E-13	3.551261E-15
5.565525E+03	1.165877E-13	3.551513E-15
5.575517E+03	1.175428E-13	3.545328E-15
5.585509E+03	1.182827E-13	3.531814E-15
5.595501E+03	1.187841E-13	3.510448E-15
5.605493E+03	1.190256E-13	3.480796E-15
5.615485E+03	1.189962E-13	3.442760E-15
5.625477E+03	1.186979E-13	3.396627E-15
5.635469E+03	1.181404E-13	3.342911E-15
5.645461E+03	1.173443E-13	3.282427E-15
5.655453E+03	1.163418E-13	3.216280E-15
5.665445E+03	1.151754E-13	3.145831E-15
5.675437E+03	1.138941E-13	3.072560E-15
5.685429E+03	1.125545E-13	2.998090E-15
5.695421E+03	1.112152E-13	2.924025E-15
5.705413E+03	1.099333E-13	2.851845E-15
5.715405E+03	1.087679E-13	2.783005E-15
5.725397E+03	1.077672E-13	2.718600E-15
5.735389E+03	1.069756E-13	2.659560E-15
5.745381E+03	1.064268E-13	2.606474E-15
5.755373E+03	1.061431E-13	2.559607E-15
5.765365E+03	1.061377E-13	2.518970E-15
5.775357E+03	1.064135E-13	2.484294E-15
5.785349E+03	1.069605E-13	2.455009E-15
5.795341E+03	1.077605E-13	2.430364E-15
5.805333E+03	1.087896E-13	2.409503E-15
5.815324E+03	1.100113E-13	2.391325E-15
5.825316E+03	1.113869E-13	2.374737E-15
5.835308E+03	1.128719E-13	2.358583E-15
5.845300E+03	1.144168E-13	2.341675E-15
5.855292E+03	1.159684E-13	2.322837E-15
5.865284E+03	1.174659E-13	2.300833E-15
5.875276E+03	1.188481E-13	2.274532E-15
5.885268E+03	1.200441E-13	2.242738E-15
5.895260E+03	1.209805E-13	2.204343E-15
5.905252E+03	1.215796E-13	2.158313E-15
5.915244E+03	1.217614E-13	2.103732E-15
5.925236E+03	1.214505E-13	2.039935E-15
5.935228E+03	1.205739E-13	1.966455E-15
5.945220E+03	1.190737E-13	1.883236E-15
5.955212E+03	1.169147E-13	1.790707E-15
5.965204E+03	1.140859E-13	1.689752E-15
5.975196E+03	1.106052E-13	1.581719E-15
5.985188E+03	1.065325E-13	1.468523E-15
5.995180E+03	1.019550E-13	1.352337E-15
6.005172E+03	9.699751E-14	1.235653E-15
6.015164E+03	9.180524E-14	1.120960E-15
6.025156E+03	8.653972E-14	1.010636E-15
6.035148E+03	8.136668E-14	9.067653E-16
6.045140E+03	7.644777E-14	8.110325E-16
6.055132E+03	7.192911E-14	7.246156E-16
6.065124E+03	6.793278E-14	6.481491E-16
6.075116E+03	6.456341E-14	5.818562E-16
6.085108E+03	6.189979E-14	5.255382E-16
6.095100E+03	6.000303E-14	4.787311E-16
6.105092E+03	5.891154E-14	4.407479E-16
6.115083E+03	5.865515E-14	4.108813E-16
6.125075E+03	5.925370E-14	3.884795E-16
6.135067E+03	6.070202E-14	3.729596E-16
6.145059E+03	6.297840E-14	3.640051E-16
6.155051E+03	6.604405E-14	3.616871E-16
6.165043E+03	6.982782E-14	3.664713E-16
6.175035E+03	7.421383E-14	3.791633E-16
6.185027E+03	7.905297E-14	4.008219E-16
6.195019E+03	8.418328E-14	4.325155E-16
6.205011E+03	8.941529E-14	4.746820E-16
6.215003E+03	9.454288E-14	5.269728E-16
6.224995E+03	9.939314E-14	5.884922E-16
6.234987E+03	1.038203E-13	6.578396E-16
6.244979E+03	1.077063E-13	7.332567E-16
6.254971E+03	1.109854E-13	8.129564E-16
6.264963E+03	1.136325E-13	8.952382E-16
6.274955E+03	1.156573E-13	9.786004E-16
6.284947E+03	1.170957E-13	1.061797E-15
6.294939E+03	1.180065E-13	1.143908E-15
6.304931E+03	1.184629E-13	1.224334E-15
6.314923E+03	1.185420E-13	1.302737E-15
6.324915E+03	1.183161E-13	1.378959E-15
6.334907E+03	1.178549E-13	1.453032E-15
6.344899E+03	1.172152E-13	1.525038E-15
6.354891E+03	1.164395E-13	1.595038E-15
6.364883E+03	1.155643E-13	1.663150E-15
6.374875E+03	1.146123E-13	1.729404E-15
6.384867E+03	1.135988E-13	1.793788E-15
6.394859E+03	1.125338E-13	1.856259E-15
6.404851E+03	1.114279E-13	1.916830E-15
6.414842E+03	1.102855E-13	1.975433E-15
6.424834E+03	1.091154E-13	2.032107E-15
6.434826E+03	1.079244E-13	2.086885E-15
6.444818E+03	1.067199E-13	2.139834E-15
6.454810E+03	1.055103E-13	2.191068E-15
6.464802E+03	1.043029E-13	2.240706E-15
6.474794E+03	1.031057E-13	2.288908E-15
6.484786E+03	1.019202E-13	2.335709E-15
6.494778E+03	1.007540E-13	2.381296E-15
6.504770E+03	9.960958E-14	2.425757E-15
6.514762E+03	9.848673E-14	2.469119E-15
6.524754E+03	9.738786E-14	2.511478E-15
6.534746E+03	9.631282E-14	2.552874E-15
6.544738E+03	9.526064E-14	2.593320E-15
6.554730E+03	9.423052E-14	2.632836E-15
6.564722E+03	9.322258E-14	2.671466E-15
6.574714E+03	9.223339E-14	2.709151E-15
6.584706E+03	9.126124E-14	2.745875E-15
6.594698E+03	9.030550E-14	2.781650E-15
6.604690E+03	8.936363E-14	2.816426E-15
6.614682E+03	8.843200E-14	2.850115E-15
6.624674E+03	8.750980E-14	2.882707E-15
6.634666E+03	8.659328E-14	2.914095E-15
6.644658E+03	8.568373E-14	2.944332E-15
6.654650E+03	8.477682E-14	2.973282E-15
6.664642E+03	8.387145E-14	3.000908E-15
6.674634E+03	8.296876E-14	3.027254E-15
6.684626E+03	8.206871E-14	3.052324E-15
6.694618E+03	8.117016E-14	3.076082E-15
6.704609E+03	8.027400E-14	3.098563E-15
6.714601E+03	7.938270E-14	3.119871E-15
6.724593E+03	7.849594E-14	3.140005E-15
6.734585E+03	7.761668E-14	3.159093E-15
6.744577E+03	7.674366E-14	3.177103E-15
6.754569E+03	7.588114E-14	3.194226E-15
6.764561E+03	7.502823E-14	3.210449E-15
6.774553E+03	7.418944E-14	3.225988E-15
6.784545E+03	7.336386E-14	3.240836E-15
6.794537E+03	7.255501E-14	3.255178E-15
6.804529E+03	7.176495E-14	3.269146E-15
6.814521E+03	7.099439E-14	3.282813E-15
6.824513E+03	7.024692E-14	3.296390E-15
6.834505E+03	6.952335E-14	3.309964E-15
6.844497E+03	6.882678E-14	3.323737E-15
6.854489E+03	6.815641E-14	3.337726E-15
6.864481E+03	6.751622E-14	3.352184E-15
6.874473E+03	6.690593E-14	3.367162E-15
6.884465E+03	6.632630E-14	3.382760E-15
6.894457E+03	6.577645E-14	3.398996E-15
6.904449E+03	6.525893E-14	3.416067E-15
6.914441E+03	6.476988E-14	3.433833E-15
6.924433E+03	6.431261E-14	3.452532E-15
6.934425E+03	6.388391E-14	3.472054E-15
6.944417E+03	6.348299E-14	3.492414E-15
6.954409E+03	6.310983E-14	3.513668E-15
6.964401E+03	6.276151E-14	3.535707E-15
6.974393E+03	6.243601E-14	3.558467E-15
6.984385E+03	6.213076E-14	3.581845E-15
6.994377E+03	6.184251E-14	3.605693E-15
7.004368E+03	6.156765E-14	3.629832E-15
7.014360E+03	6.130088E-14	3.653973E-15
7.024352E+03	6.104015E-14	3.678010E-15
7.034344E+03	6.077740E-14	3.701464E-15
7.044336E+03	6.051177E-14	3.724279E-15
7.054328E+03	6.023533E-14	3.745957E-15
7.064320E+03	5.994670E-14	3.766392E-15
7.074312E+03	5.964130E-14	3.785271E-15
7.084304E+03	5.931628E-14	3.802380E-15
7.094296E+03	5.897083E-14	3.817631E-15
7.104288E+03	5.860117E-14	3.830739E-15
7.114280E+03	5.820773E-14	3.841690E-15
7.124272E+03	5.778949E-14	3.850372E-15
7.134264E+03	5.734835E-14	3.856867E-15
7.144256E+03	5.688555E-14	3.861220E-15
7.154248E+03	5.640190E-14	3.863447E-15
7.164240E+03	5.590079E-14	3.863748E-15
7.174232E+03	5.538248E-14	3.862111E-15
7.184224E+03	5.485205E-14	3.858864E-15
7.194216E+03	5.431119E-14	3.854107E-15
7.204208E+03	5.376146E-14	3.847937E-15
7.214200E+03	5.320667E-14	3.840615E-15
7.224192E+03	5.264922E-14	3.832310E-15
7.234184E+03	5.209012E-14	3.823095E-15
7.244176E+03	5.153134E-14	3.813116E-15
7.254168E+03	5.097447E-14	3.802495E-15
7.264160E+03	5.042081E-14	3.791338E-15
7.274152E+03	4.987150E-14	3.779738E-15
7.284144E+03	4.932528E-14	3.767613E-15
7.294136E+03	4.878479E-14	3.755172E-15
7.304127E+03	4.824942E-14	3.742385E-15
7.314119E+03	4.771842E-14	3.729202E-15
7.324111E+03	4.719282E-14	3.715718E-15
7.334103E+03	4.667074E-14	3.701795E-15
7.344095E+03	4.615229E-14	3.687452E-15
7.354087E+03	4.563756E-14	3.672705E-15
7.364079E+03	4.512604E-14	3.657524E-15
7.374071E+03	4.461937E-14	3.642051E-15
7.384063E+03	4.411572E-14	3.626146E-15
7.394055E+03	4.361853E-14	3.610104E-15
7.404047E+03	4.312789E-14	3.593947E-15
7.414039E+03	4.264706E-14	3.577960E-15
7.424031E+03	4.217793E-14	3.562325E-15
7.434023E+03	4.172353E-14	3.547322E-15
7.444015E+03	4.128783E-14	3.533317E-15
7.454007E+03	4.087314E-14	3.520546E-15
7.463999E+03	4.048510E-14	3.509533E-15
7.473991E+03	4.012464E-14	3.500407E-15
7.483983E+03	3.979592E-14	3.493582E-15
7.493975E+03	3.950003E-14	3.489207E-15
7.503967E+03	3.924100E-14	3.487698E-15
7.513959E+03	3.901901E-14	3.489132E-15
7.523951E+03	3.883456E-14	3.493615E-15
7.533943E+03	3.868850E-14	3.501288E-15
7.543935E+03	3.858047E-14	3.512179E-15
7.553927E+03	3.851124E-14	3.526423E-15
7.563919E+03	3.847775E-14	3.543798E-15
7.573911E+03	3.847903E-14	3.564272E-15
7.583903E+03	3.851364E-14	3.587767E-15
7.593895E+03	3.857793E-14	3.613994E-15
7.603886E+03	3.866947E-14	3.642769E-15
7.613878E+03	3.878358E-14	3.673692E-15
7.623870E+03	3.891770E-14	3.706553E-15
7.633862E+03	3.906521E-14	3.740749E-15
7.643854E+03	3.922256E-14	3.775956E-15
7.653846E+03	3.938217E-14	3.811458E-15
7.663838E+03	3.953964E-14	3.846827E-15
7.673830E+03	3.968670E-14	3.881251E-15
7.683822E+03	3.981851E-14	3.914237E-15
7.693814E+03	3.992759E-14	3.945021E-15
7.703806E+03	4.000745E-14	3.972926E-15
7.713798E+03	4.005187E-14	3.997286E-15
7.723790E+03	4.005517E-14	4.017478E-15
7.733782E+03	4.001221E-14	4.032922E-15
7.743774E+03	3.991763E-14	4.043009E-15
7.753766E+03	3.976978E-14	4.047493E-15
