#wls	flux	fluxerr
1.598715E+03	1.185702E-15	1.013462E-16
1.638682E+03	1.409716E-15	1.164944E-16
1.678650E+03	1.678875E-15	1.339588E-16
1.718618E+03	2.002028E-15	1.540349E-16
1.758586E+03	2.388924E-15	1.769876E-16
1.798554E+03	2.847793E-15	2.028691E-16
1.838522E+03	3.378671E-15	2.310880E-16
1.878490E+03	3.966660E-15	2.600895E-16
1.918458E+03	4.569884E-15	2.868143E-16
1.958425E+03	5.112762E-15	3.066731E-16
1.998393E+03	5.488693E-15	3.141556E-16
2.038361E+03	5.586577E-15	3.046663E-16
2.078329E+03	5.347526E-15	2.774677E-16
2.118297E+03	4.846514E-15	2.389461E-16
2.158265E+03	4.295328E-15	2.009951E-16
2.198233E+03	3.872774E-15	1.718493E-16
2.238200E+03	3.666250E-15	1.541885E-16
2.278168E+03	3.712286E-15	1.479586E-16
2.318136E+03	4.036825E-15	1.525531E-16
2.358104E+03	4.681699E-15	1.679509E-16
2.398072E+03	5.724847E-15	1.953206E-16
2.438040E+03	7.302369E-15	2.374533E-16
2.478008E+03	9.613014E-15	2.985986E-16
2.517976E+03	1.281732E-14	3.812093E-16
2.557943E+03	1.674597E-14	4.780414E-16
2.597911E+03	2.054564E-14	5.643318E-16
2.637879E+03	2.302506E-14	6.100478E-16
2.677847E+03	2.422081E-14	6.205283E-16
2.717815E+03	2.530522E-14	6.280359E-16
2.757783E+03	2.715200E-14	6.534538E-16
2.797751E+03	3.002142E-14	7.007758E-16
2.837718E+03	3.373146E-14	7.633226E-16
2.877686E+03	3.776117E-14	8.275299E-16
2.917654E+03	4.134250E-14	8.761189E-16
2.957622E+03	4.377653E-14	8.955964E-16
2.997590E+03	4.483604E-14	8.841022E-16
3.007582E+03	4.491854E-14	8.774193E-16
3.017574E+03	4.494389E-14	8.696155E-16
3.027566E+03	4.492180E-14	8.609182E-16
3.037558E+03	4.486407E-14	8.515879E-16
3.047550E+03	4.477915E-14	8.418141E-16
3.057542E+03	4.467599E-14	8.317901E-16
3.067534E+03	4.456289E-14	8.216907E-16
3.077526E+03	4.444510E-14	8.116298E-16
3.087518E+03	4.432770E-14	8.017146E-16
3.097510E+03	4.421641E-14	7.920603E-16
3.107502E+03	4.411221E-14	7.826946E-16
3.117494E+03	4.401793E-14	7.736771E-16
3.127486E+03	4.393397E-14	7.650227E-16
3.137477E+03	4.386379E-14	7.567834E-16
3.147469E+03	4.380545E-14	7.488992E-16
3.157461E+03	4.376078E-14	7.413746E-16
3.167453E+03	4.373217E-14	7.342228E-16
3.177445E+03	4.372210E-14	7.274580E-16
3.187437E+03	4.373277E-14	7.210887E-16
3.197429E+03	4.377202E-14	7.152153E-16
3.207421E+03	4.384537E-14	7.098972E-16
3.217413E+03	4.396275E-14	7.052619E-16
3.227405E+03	4.413451E-14	7.014393E-16
3.237397E+03	4.437455E-14	6.986095E-16
3.247389E+03	4.469774E-14	6.969611E-16
3.257381E+03	4.512048E-14	6.966982E-16
3.267373E+03	4.565989E-14	6.980269E-16
3.277365E+03	4.633585E-14	7.011854E-16
3.287357E+03	4.716836E-14	7.064025E-16
3.297349E+03	4.817805E-14	7.139045E-16
3.307341E+03	4.938890E-14	7.239550E-16
3.317333E+03	5.082508E-14	7.368067E-16
3.327325E+03	5.251405E-14	7.527458E-16
3.337317E+03	5.448203E-14	7.720260E-16
3.347309E+03	5.675485E-14	7.948828E-16
3.357301E+03	5.935737E-14	8.215274E-16
3.367293E+03	6.231326E-14	8.521471E-16
3.377285E+03	6.564365E-14	8.868908E-16
3.387277E+03	6.936492E-14	9.258459E-16
3.397269E+03	7.348904E-14	9.690519E-16
3.407261E+03	7.801393E-14	1.016383E-15
3.417253E+03	8.292467E-14	1.067583E-15
3.427244E+03	8.817201E-14	1.122007E-15
3.437236E+03	9.366396E-14	1.178545E-15
3.447228E+03	9.925768E-14	1.235559E-15
3.457220E+03	1.047516E-13	1.290813E-15
3.467212E+03	1.098948E-13	1.341611E-15
3.477204E+03	1.144607E-13	1.385699E-15
3.487196E+03	1.183749E-13	1.422746E-15
3.497188E+03	1.216646E-13	1.453643E-15
3.507180E+03	1.243943E-13	1.479694E-15
3.517172E+03	1.266525E-13	1.502432E-15
3.527164E+03	1.285267E-13	1.523323E-15
3.537156E+03	1.301105E-13	1.543856E-15
3.547148E+03	1.314894E-13	1.565385E-15
3.557140E+03	1.327394E-13	1.589118E-15
3.567132E+03	1.339234E-13	1.616086E-15
3.577124E+03	1.350961E-13	1.647204E-15
3.587116E+03	1.363029E-13	1.683138E-15
3.597108E+03	1.375694E-13	1.724174E-15
3.607100E+03	1.389102E-13	1.770443E-15
3.617092E+03	1.403133E-13	1.821730E-15
3.627084E+03	1.417461E-13	1.877525E-15
3.637076E+03	1.431650E-13	1.937121E-15
3.647068E+03	1.445172E-13	1.999626E-15
3.657060E+03	1.457417E-13	2.063953E-15
3.667052E+03	1.467844E-13	2.129017E-15
3.677044E+03	1.475929E-13	2.193672E-15
3.687036E+03	1.481317E-13	2.256934E-15
3.697028E+03	1.483825E-13	2.318024E-15
3.707020E+03	1.483545E-13	2.376557E-15
3.717012E+03	1.480808E-13	2.432553E-15
3.727003E+03	1.476303E-13	2.486682E-15
3.736995E+03	1.471078E-13	2.540355E-15
3.746987E+03	1.466451E-13	2.595645E-15
3.756979E+03	1.463849E-13	2.655065E-15
3.766971E+03	1.464776E-13	2.721538E-15
3.776963E+03	1.470760E-13	2.798313E-15
3.786955E+03	1.483318E-13	2.888912E-15
3.796947E+03	1.503981E-13	2.997178E-15
3.806939E+03	1.534105E-13	3.126886E-15
3.816931E+03	1.574755E-13	3.281462E-15
3.826923E+03	1.626404E-13	3.463269E-15
3.836915E+03	1.688874E-13	3.673345E-15
3.846907E+03	1.761328E-13	3.911224E-15
3.856899E+03	1.842022E-13	4.174220E-15
3.866891E+03	1.928342E-13	4.457314E-15
3.876883E+03	2.017105E-13	4.753649E-15
3.886875E+03	2.104777E-13	5.054942E-15
3.896867E+03	2.187687E-13	5.351928E-15
3.906859E+03	2.262287E-13	5.634992E-15
3.916851E+03	2.325578E-13	5.895280E-15
3.926843E+03	2.375214E-13	6.125119E-15
3.936835E+03	2.409630E-13	6.318484E-15
3.946827E+03	2.428227E-13	6.471696E-15
3.956819E+03	2.431258E-13	6.583313E-15
3.966811E+03	2.419709E-13	6.653992E-15
3.976803E+03	2.395324E-13	6.686723E-15
3.986795E+03	2.360254E-13	6.685974E-15
3.996787E+03	2.316938E-13	6.657442E-15
4.006779E+03	2.267896E-13	6.607481E-15
4.016771E+03	2.215557E-13	6.542617E-15
4.026762E+03	2.162175E-13	6.469247E-15
4.036754E+03	2.109620E-13	6.392979E-15
4.046746E+03	2.059490E-13	6.318861E-15
4.056738E+03	2.013053E-13	6.251175E-15
4.066730E+03	1.971288E-13	6.193459E-15
4.076722E+03	1.934952E-13	6.148687E-15
4.086714E+03	1.904660E-13	6.119461E-15
4.096706E+03	1.880852E-13	6.107889E-15
4.106698E+03	1.863830E-13	6.115654E-15
4.116690E+03	1.853659E-13	6.143675E-15
4.126682E+03	1.849984E-13	6.191447E-15
4.136674E+03	1.852203E-13	6.257551E-15
4.146666E+03	1.859427E-13	6.339499E-15
4.156658E+03	1.870472E-13	6.433645E-15
4.166650E+03	1.883939E-13	6.535437E-15
4.176642E+03	1.898336E-13	6.639823E-15
4.186634E+03	1.912151E-13	6.741510E-15
4.196626E+03	1.923912E-13	6.835161E-15
4.206618E+03	1.932277E-13	6.915774E-15
4.216610E+03	1.936149E-13	6.979086E-15
4.226602E+03	1.934622E-13	7.021439E-15
4.236594E+03	1.927006E-13	7.039907E-15
4.246586E+03	1.912845E-13	7.032384E-15
4.256578E+03	1.891865E-13	6.997422E-15
4.266570E+03	1.863953E-13	6.934187E-15
4.276562E+03	1.829264E-13	6.842870E-15
4.286554E+03	1.788139E-13	6.724417E-15
4.296546E+03	1.741152E-13	6.580705E-15
4.306538E+03	1.689134E-13	6.414671E-15
4.316530E+03	1.633128E-13	6.230145E-15
4.326521E+03	1.574470E-13	6.032174E-15
4.336513E+03	1.514707E-13	5.826730E-15
4.346505E+03	1.455601E-13	5.620710E-15
4.356497E+03	1.399009E-13	5.421488E-15
4.366489E+03	1.346913E-13	5.237017E-15
4.376481E+03	1.301202E-13	5.074973E-15
4.386473E+03	1.263525E-13	4.942147E-15
4.396465E+03	1.235239E-13	4.844229E-15
4.406457E+03	1.217506E-13	4.786149E-15
4.416449E+03	1.211257E-13	4.771910E-15
4.426441E+03	1.217202E-13	4.804630E-15
4.436433E+03	1.235997E-13	4.887156E-15
4.446425E+03	1.268226E-13	5.022016E-15
4.456417E+03	1.314370E-13	5.211258E-15
4.466409E+03	1.374838E-13	5.456589E-15
4.476401E+03	1.449880E-13	5.759015E-15
4.486393E+03	1.539493E-13	6.118458E-15
4.496385E+03	1.643271E-13	6.533160E-15
4.506377E+03	1.760254E-13	6.999080E-15
4.516369E+03	1.888736E-13	7.509146E-15
4.526361E+03	2.026093E-13	8.052559E-15
4.536353E+03	2.168681E-13	8.614450E-15
4.546345E+03	2.311800E-13	9.175741E-15
4.556337E+03	2.449767E-13	9.713517E-15
4.566329E+03	2.576324E-13	1.020268E-14
4.576321E+03	2.685276E-13	1.061858E-14
4.586313E+03	2.770863E-13	1.093850E-14
4.596305E+03	2.828643E-13	1.114517E-14
4.606297E+03	2.856279E-13	1.122990E-14
4.616289E+03	2.853512E-13	1.119236E-14
4.626280E+03	2.821951E-13	1.103973E-14
4.636272E+03	2.765164E-13	1.078689E-14
4.646264E+03	2.687737E-13	1.045269E-14
4.656256E+03	2.595024E-13	1.005882E-14
4.666248E+03	2.492452E-13	9.627096E-15
4.676240E+03	2.385152E-13	9.177936E-15
4.686232E+03	2.277581E-13	8.728917E-15
4.696224E+03	2.173355E-13	8.294138E-15
4.706216E+03	2.075303E-13	7.884466E-15
4.716208E+03	1.985401E-13	7.507310E-15
4.726200E+03	1.904915E-13	7.167232E-15
4.736192E+03	1.834582E-13	6.866677E-15
4.746184E+03	1.774659E-13	6.606188E-15
4.756176E+03	1.725123E-13	6.385207E-15
4.766168E+03	1.685616E-13	6.201883E-15
4.776160E+03	1.655686E-13	6.054011E-15
4.786152E+03	1.634671E-13	5.938623E-15
4.796144E+03	1.621800E-13	5.852361E-15
4.806136E+03	1.616345E-13	5.792072E-15
4.816128E+03	1.617588E-13	5.754667E-15
4.826120E+03	1.624773E-13	5.736974E-15
4.836112E+03	1.637195E-13	5.736052E-15
4.846104E+03	1.654099E-13	5.748834E-15
4.856096E+03	1.674621E-13	5.771952E-15
4.866088E+03	1.697708E-13	5.801468E-15
4.876080E+03	1.722020E-13	5.832590E-15
4.886072E+03	1.745957E-13	5.859818E-15
4.896064E+03	1.767890E-13	5.877739E-15
4.906056E+03	1.786176E-13	5.881119E-15
4.916047E+03	1.799353E-13	5.865536E-15
4.926039E+03	1.806178E-13	5.827488E-15
4.936031E+03	1.805757E-13	5.764775E-15
4.946023E+03	1.797629E-13	5.676708E-15
4.956015E+03	1.781750E-13	5.564000E-15
4.966007E+03	1.758638E-13	5.429122E-15
4.975999E+03	1.729235E-13	5.275801E-15
4.985991E+03	1.694944E-13	5.109025E-15
4.995983E+03	1.657558E-13	4.934759E-15
5.005975E+03	1.619083E-13	4.759337E-15
5.015967E+03	1.581349E-13	4.588281E-15
5.025959E+03	1.545968E-13	4.426211E-15
5.035951E+03	1.514323E-13	4.276845E-15
5.045943E+03	1.487533E-13	4.142942E-15
5.055935E+03	1.466518E-13	4.026529E-15
5.065927E+03	1.452073E-13	3.929140E-15
5.075919E+03	1.444980E-13	3.852138E-15
5.085911E+03	1.446056E-13	3.796837E-15
5.095903E+03	1.456199E-13	3.764631E-15
5.105895E+03	1.476388E-13	3.756963E-15
5.115887E+03	1.507601E-13	3.775115E-15
5.125879E+03	1.550873E-13	3.820346E-15
5.135871E+03	1.606961E-13	3.893088E-15
5.145863E+03	1.676263E-13	3.992804E-15
5.155855E+03	1.758659E-13	4.117700E-15
5.165847E+03	1.853485E-13	4.264778E-15
5.175839E+03	1.959288E-13	4.429400E-15
5.185831E+03	2.073724E-13	4.605228E-15
5.195823E+03	2.193620E-13	4.784541E-15
5.205815E+03	2.314960E-13	4.958365E-15
5.215806E+03	2.433139E-13	5.117168E-15
5.225798E+03	2.543253E-13	5.251555E-15
5.235790E+03	2.640940E-13	5.353999E-15
5.245782E+03	2.722544E-13	5.419045E-15
5.255774E+03	2.785497E-13	5.443876E-15
5.265766E+03	2.828685E-13	5.428785E-15
5.275758E+03	2.852491E-13	5.376981E-15
5.285750E+03	2.858420E-13	5.293595E-15
5.295742E+03	2.849012E-13	5.185341E-15
5.305734E+03	2.827392E-13	5.059554E-15
5.315726E+03	2.796889E-13	4.923438E-15
5.325718E+03	2.760500E-13	4.783141E-15
5.335710E+03	2.720884E-13	4.643830E-15
5.345702E+03	2.680029E-13	4.509210E-15
5.355694E+03	2.639103E-13	4.381386E-15
5.365686E+03	2.598532E-13	4.261115E-15
5.375678E+03	2.558458E-13	4.148628E-15
5.385670E+03	2.518705E-13	4.043611E-15
5.395662E+03	2.479090E-13	3.945715E-15
5.405654E+03	2.439891E-13	3.855299E-15
5.415646E+03	2.402342E-13	3.774094E-15
5.425638E+03	2.367611E-13	3.703422E-15
5.435630E+03	2.335674E-13	3.642677E-15
5.445622E+03	2.305236E-13	3.589304E-15
5.455614E+03	2.274037E-13	3.539282E-15
5.465606E+03	2.240025E-13	3.488922E-15
5.475598E+03	2.202169E-13	3.436104E-15
5.485590E+03	2.160095E-13	3.379705E-15
5.495582E+03	2.113938E-13	3.319382E-15
5.505574E+03	2.064064E-13	3.255151E-15
5.515565E+03	2.011031E-13	3.187348E-15
5.525557E+03	1.955285E-13	3.116161E-15
5.535549E+03	1.897246E-13	3.041780E-15
5.545541E+03	1.837249E-13	2.964298E-15
5.555533E+03	1.775718E-13	2.884004E-15
5.565525E+03	1.713088E-13	2.801255E-15
5.575517E+03	1.649918E-13	2.716672E-15
5.585509E+03	1.586875E-13	2.631120E-15
5.595501E+03	1.524808E-13	2.545832E-15
5.605493E+03	1.464606E-13	2.462183E-15
5.615485E+03	1.407256E-13	2.381792E-15
5.625477E+03	1.353816E-13	2.306467E-15
5.635469E+03	1.305329E-13	2.238060E-15
5.645461E+03	1.262843E-13	2.178493E-15
5.655453E+03	1.227376E-13	2.129688E-15
5.665445E+03	1.199927E-13	2.093571E-15
5.675437E+03	1.181380E-13	2.071901E-15
5.685429E+03	1.172496E-13	2.066233E-15
5.695421E+03	1.173965E-13	2.077995E-15
5.705413E+03	1.186382E-13	2.108438E-15
5.715405E+03	1.210228E-13	2.158583E-15
5.725397E+03	1.245849E-13	2.229182E-15
5.735389E+03	1.293558E-13	2.320882E-15
5.745381E+03	1.353441E-13	2.433871E-15
5.755373E+03	1.425322E-13	2.567815E-15
5.765365E+03	1.508668E-13	2.721672E-15
5.775357E+03	1.602344E-13	2.893251E-15
5.785349E+03	1.704470E-13	3.078963E-15
5.795341E+03	1.812399E-13	3.273780E-15
5.805333E+03	1.922677E-13	3.471191E-15
5.815324E+03	2.030963E-13	3.663094E-15
5.825316E+03	2.132404E-13	3.840504E-15
5.835308E+03	2.221942E-13	3.994161E-15
5.845300E+03	2.294776E-13	4.115401E-15
5.855292E+03	2.347105E-13	4.197518E-15
5.865284E+03	2.376735E-13	4.236849E-15
5.875276E+03	2.383340E-13	4.233220E-15
5.885268E+03	2.368220E-13	4.189453E-15
5.895260E+03	2.334303E-13	4.111302E-15
5.905252E+03	2.285509E-13	4.006253E-15
5.915244E+03	2.226046E-13	3.882225E-15
5.925236E+03	2.159952E-13	3.746735E-15
5.935228E+03	2.090685E-13	3.606170E-15
5.945220E+03	2.020917E-13	3.465439E-15
5.955212E+03	1.952311E-13	3.327620E-15
5.965204E+03	1.885740E-13	3.194377E-15
5.975196E+03	1.821453E-13	3.066274E-15
5.985188E+03	1.759229E-13	2.943068E-15
5.995180E+03	1.698449E-13	2.823851E-15
6.005172E+03	1.638471E-13	2.707688E-15
6.015164E+03	1.578428E-13	2.593289E-15
6.025156E+03	1.517635E-13	2.479675E-15
6.035148E+03	1.455777E-13	2.366467E-15
6.045140E+03	1.392969E-13	2.253969E-15
6.055132E+03	1.329736E-13	2.143100E-15
6.065124E+03	1.266932E-13	2.035262E-15
6.075116E+03	1.205843E-13	1.932496E-15
6.085108E+03	1.147843E-13	1.836932E-15
6.095100E+03	1.094438E-13	1.750889E-15
6.105092E+03	1.047153E-13	1.676711E-15
6.115083E+03	1.007446E-13	1.616673E-15
6.125075E+03	9.766657E-14	1.572948E-15
6.135067E+03	9.560908E-14	1.547711E-15
6.145059E+03	9.468678E-14	1.543086E-15
6.155051E+03	9.498787E-14	1.560960E-15
6.165043E+03	9.655518E-14	1.602701E-15
6.175035E+03	9.939676E-14	1.669314E-15
6.185027E+03	1.034854E-13	1.761326E-15
6.195019E+03	1.087166E-13	1.878071E-15
6.205011E+03	1.149102E-13	2.017626E-15
6.215003E+03	1.218091E-13	2.176633E-15
6.224995E+03	1.290843E-13	2.350201E-15
6.234987E+03	1.363806E-13	2.532548E-15
6.244979E+03	1.433928E-13	2.718311E-15
6.254971E+03	1.499251E-13	2.903708E-15
6.264963E+03	1.558778E-13	3.086449E-15
6.274955E+03	1.612197E-13	3.265360E-15
6.284947E+03	1.659515E-13	3.439777E-15
6.294939E+03	1.700969E-13	3.609426E-15
6.304931E+03	1.736949E-13	3.774339E-15
6.314923E+03	1.767864E-13	3.934594E-15
6.324915E+03	1.794104E-13	4.090263E-15
6.334907E+03	1.816140E-13	4.241634E-15
6.344899E+03	1.834430E-13	4.389037E-15
6.354891E+03	1.849389E-13	4.532764E-15
6.364883E+03	1.861486E-13	4.673319E-15
6.374875E+03	1.871061E-13	4.810967E-15
6.384867E+03	1.878393E-13	4.945886E-15
6.394859E+03	1.883677E-13	5.078078E-15
6.404851E+03	1.887031E-13	5.207380E-15
6.414842E+03	1.888387E-13	5.333136E-15
6.424834E+03	1.887679E-13	5.454657E-15
6.434826E+03	1.884670E-13	5.570744E-15
6.444818E+03	1.879058E-13	5.679922E-15
6.454810E+03	1.870537E-13	5.780627E-15
6.464802E+03	1.858743E-13	5.871025E-15
6.474794E+03	1.843357E-13	5.949312E-15
6.484786E+03	1.824024E-13	6.013485E-15
6.494778E+03	1.800580E-13	6.062067E-15
6.504770E+03	1.772896E-13	6.093660E-15
6.514762E+03	1.740945E-13	6.107179E-15
6.524754E+03	1.704895E-13	6.102219E-15
6.534746E+03	1.665021E-13	6.078815E-15
6.544738E+03	1.621728E-13	6.037566E-15
6.554730E+03	1.575545E-13	5.979654E-15
6.564722E+03	1.527113E-13	5.906842E-15
6.574714E+03	1.477067E-13	5.821061E-15
6.584706E+03	1.426088E-13	5.724624E-15
6.594698E+03	1.374867E-13	5.620073E-15
6.604690E+03	1.324025E-13	5.509878E-15
6.614682E+03	1.274091E-13	5.396307E-15
6.624674E+03	1.225571E-13	5.281680E-15
6.634666E+03	1.178838E-13	5.167908E-15
6.644658E+03	1.134240E-13	5.056891E-15
6.654650E+03	1.091963E-13	4.949918E-15
6.664642E+03	1.052171E-13	4.848219E-15
6.674634E+03	1.014971E-13	4.752832E-15
6.684626E+03	9.804018E-14	4.664495E-15
6.694618E+03	9.484440E-14	4.583682E-15
6.704609E+03	9.190550E-14	4.510752E-15
6.714601E+03	8.921814E-14	4.446002E-15
6.724593E+03	8.677204E-14	4.389464E-15
6.734585E+03	8.455810E-14	4.341202E-15
6.744577E+03	8.256181E-14	4.300974E-15
6.754569E+03	8.077424E-14	4.268789E-15
6.764561E+03	7.917981E-14	4.244277E-15
6.774553E+03	7.776858E-14	4.227326E-15
6.784545E+03	7.652470E-14	4.217470E-15
6.794537E+03	7.543601E-14	4.214403E-15
6.804529E+03	7.448872E-14	4.217689E-15
6.814521E+03	7.366758E-14	4.226768E-15
6.824513E+03	7.295963E-14	4.241166E-15
6.834505E+03	7.234930E-14	4.260220E-15
6.844497E+03	7.182420E-14	4.283407E-15
6.854489E+03	7.136844E-14	4.309955E-15
6.864481E+03	7.097237E-14	4.339427E-15
6.874473E+03	7.062366E-14	4.371190E-15
6.884465E+03	7.031273E-14	4.404749E-15
6.894457E+03	7.003027E-14	4.439594E-15
6.904449E+03	6.977266E-14	4.475555E-15
6.914441E+03	6.953129E-14	4.512125E-15
6.924433E+03	6.930715E-14	4.549402E-15
6.934425E+03	6.909603E-14	4.587143E-15
6.944417E+03	6.889762E-14	4.625353E-15
6.954409E+03	6.871400E-14	4.664200E-15
6.964401E+03	6.854535E-14	4.703726E-15
6.974393E+03	6.839364E-14	4.744100E-15
6.984385E+03	6.826113E-14	4.785513E-15
6.994377E+03	6.814983E-14	4.828150E-15
7.004368E+03	6.806118E-14	4.872159E-15
7.014360E+03	6.799461E-14	4.917545E-15
7.024352E+03	6.795261E-14	4.964538E-15
7.034344E+03	6.792951E-14	5.012771E-15
7.044336E+03	6.792656E-14	5.062376E-15
7.054328E+03	6.793577E-14	5.112795E-15
7.064320E+03	6.795455E-14	5.163854E-15
7.074312E+03	6.797538E-14	5.214996E-15
7.084304E+03	6.799187E-14	5.265728E-15
7.094296E+03	6.799890E-14	5.315638E-15
7.104288E+03	6.798781E-14	5.364021E-15
7.114280E+03	6.795533E-14	5.410574E-15
7.124272E+03	6.789724E-14	5.454911E-15
7.134264E+03	6.781377E-14	5.496994E-15
7.144256E+03	6.770533E-14	5.536798E-15
7.154248E+03	6.757234E-14	5.574307E-15
7.164240E+03	6.741903E-14	5.609814E-15
7.174232E+03	6.724568E-14	5.643303E-15
7.184224E+03	6.705779E-14	5.675194E-15
7.194216E+03	6.685622E-14	5.705528E-15
7.204208E+03	6.664087E-14	5.734268E-15
7.214200E+03	6.641288E-14	5.761484E-15
7.224192E+03	6.617091E-14	5.787031E-15
7.234184E+03	6.591130E-14	5.810558E-15
7.244176E+03	6.563083E-14	5.831741E-15
7.254168E+03	6.532570E-14	5.850196E-15
7.264160E+03	6.499204E-14	5.865525E-15
7.274152E+03	6.462600E-14	5.877317E-15
7.284144E+03	6.422149E-14	5.884947E-15
7.294136E+03	6.377848E-14	5.888337E-15
7.304127E+03	6.329395E-14	5.887126E-15
7.314119E+03	6.276604E-14	5.881056E-15
7.324111E+03	6.219679E-14	5.870234E-15
7.334103E+03	6.158589E-14	5.854546E-15
7.344095E+03	6.093698E-14	5.834260E-15
7.354087E+03	6.025501E-14	5.809779E-15
7.364079E+03	5.954488E-14	5.781515E-15
7.374071E+03	5.881498E-14	5.750234E-15
7.384063E+03	5.806939E-14	5.716304E-15
7.394055E+03	5.731884E-14	5.680758E-15
7.404047E+03	5.656930E-14	5.644189E-15
7.414039E+03	5.583032E-14	5.607560E-15
7.424031E+03	5.510857E-14	5.571571E-15
7.434023E+03	5.441146E-14	5.537015E-15
7.444015E+03	5.374687E-14	5.504752E-15
7.454007E+03	5.311933E-14	5.475317E-15
7.463999E+03	5.253708E-14	5.449641E-15
7.473991E+03	5.200159E-14	5.427970E-15
7.483983E+03	5.151752E-14	5.410888E-15
7.493975E+03	5.108508E-14	5.398520E-15
7.503967E+03	5.070784E-14	5.391348E-15
7.513959E+03	5.038360E-14	5.389246E-15
7.523951E+03	5.011033E-14	5.392100E-15
7.533943E+03	4.988638E-14	5.399829E-15
7.543935E+03	4.970816E-14	5.412139E-15
7.553927E+03	4.957378E-14	5.428913E-15
7.563919E+03	4.947675E-14	5.449517E-15
7.573911E+03	4.941357E-14	5.473636E-15
7.583903E+03	4.938077E-14	5.500947E-15
7.593895E+03	4.937292E-14	5.530900E-15
7.603886E+03	4.938711E-14	5.563211E-15
7.613878E+03	4.941864E-14	5.597391E-15
7.623870E+03	4.946667E-14	5.633377E-15
7.633862E+03	4.952644E-14	5.670651E-15
7.643854E+03	4.959820E-14	5.709266E-15
7.653846E+03	4.967836E-14	5.748825E-15
7.663838E+03	4.976825E-14	5.789498E-15
7.673830E+03	4.986510E-14	5.830981E-15
7.683822E+03	4.997092E-14	5.873518E-15
7.693814E+03	5.008423E-14	5.916954E-15
7.703806E+03	5.020457E-14	5.961242E-15
7.713798E+03	5.033102E-14	6.006287E-15
7.723790E+03	5.046193E-14	6.051901E-15
7.733782E+03	5.059502E-14	6.097816E-15
7.743774E+03	5.072626E-14	6.143546E-15
7.753766E+03	5.085442E-14	6.188938E-15
