#wls	flux	fluxerr
1.598715E+03	5.172339E-16	2.975927E-17
1.638682E+03	5.098236E-16	2.910643E-17
1.678650E+03	5.011257E-16	2.838386E-17
1.718618E+03	4.912453E-16	2.759941E-17
1.758586E+03	4.803554E-16	2.676456E-17
1.798554E+03	4.686567E-16	2.589207E-17
1.838522E+03	4.562038E-16	2.498635E-17
1.878490E+03	4.432681E-16	2.406350E-17
1.918458E+03	4.300311E-16	2.313429E-17
1.958425E+03	4.167362E-16	2.221243E-17
1.998393E+03	4.037209E-16	2.131614E-17
2.038361E+03	3.915809E-16	2.047644E-17
2.078329E+03	3.812255E-16	1.973937E-17
2.118297E+03	3.740091E-16	1.917186E-17
2.158265E+03	3.717272E-16	1.886033E-17
2.198233E+03	3.760415E-16	1.888057E-17
2.238200E+03	3.884071E-16	1.929448E-17
2.278168E+03	4.101717E-16	2.015534E-17
2.318136E+03	4.425911E-16	2.150891E-17
2.358104E+03	4.869616E-16	2.339993E-17
2.398072E+03	5.447492E-16	2.587816E-17
2.438040E+03	6.175398E-16	2.899549E-17
2.478008E+03	7.069188E-16	3.280010E-17
2.517976E+03	8.139874E-16	3.731422E-17
2.557943E+03	9.390985E-16	4.252356E-17
2.597911E+03	1.081356E-15	4.835704E-17
2.637879E+03	1.238822E-15	5.469930E-17
2.677847E+03	1.409078E-15	6.141831E-17
2.717815E+03	1.589818E-15	6.839219E-17
2.757783E+03	1.778816E-15	7.550789E-17
2.797751E+03	1.973790E-15	8.265515E-17
2.837718E+03	2.172501E-15	8.973080E-17
2.877686E+03	2.372996E-15	9.664893E-17
2.917654E+03	2.573512E-15	1.033360E-16
2.957622E+03	2.773052E-15	1.097534E-16
2.997590E+03	2.970971E-15	1.158790E-16
3.007582E+03	3.020281E-15	1.173686E-16
3.017574E+03	3.069460E-15	1.188391E-16
3.027566E+03	3.118511E-15	1.202908E-16
3.037558E+03	3.167589E-15	1.217297E-16
3.047550E+03	3.216653E-15	1.231543E-16
3.057542E+03	3.265752E-15	1.245665E-16
3.067534E+03	3.314963E-15	1.259692E-16
3.077526E+03	3.364225E-15	1.273603E-16
3.087518E+03	3.413551E-15	1.287401E-16
3.097510E+03	3.463099E-15	1.301146E-16
3.107502E+03	3.512744E-15	1.314792E-16
3.117494E+03	3.562579E-15	1.328374E-16
3.127486E+03	3.612556E-15	1.341872E-16
3.137477E+03	3.662917E-15	1.355378E-16
3.147469E+03	3.713475E-15	1.368821E-16
3.157461E+03	3.764336E-15	1.382240E-16
3.167453E+03	3.815605E-15	1.395673E-16
3.177445E+03	3.867319E-15	1.409133E-16
3.187437E+03	3.919375E-15	1.422581E-16
3.197429E+03	3.972031E-15	1.436110E-16
3.207421E+03	4.025187E-15	1.449683E-16
3.217413E+03	4.078963E-15	1.463341E-16
3.227405E+03	4.133336E-15	1.477075E-16
3.237397E+03	4.188429E-15	1.490927E-16
3.247389E+03	4.244297E-15	1.504915E-16
3.257381E+03	4.300997E-15	1.519056E-16
3.267373E+03	4.358513E-15	1.533344E-16
3.277365E+03	4.416980E-15	1.547822E-16
3.287357E+03	4.476459E-15	1.562511E-16
3.297349E+03	4.536943E-15	1.577404E-16
3.307341E+03	4.598572E-15	1.592548E-16
3.317333E+03	4.661340E-15	1.607937E-16
3.327325E+03	4.725393E-15	1.623618E-16
3.337317E+03	4.790730E-15	1.639588E-16
3.347309E+03	4.857426E-15	1.655868E-16
3.357301E+03	4.925557E-15	1.672481E-16
3.367293E+03	4.995205E-15	1.689450E-16
3.377285E+03	5.066453E-15	1.706800E-16
3.387277E+03	5.139312E-15	1.724530E-16
3.397269E+03	5.213948E-15	1.742691E-16
3.407261E+03	5.290308E-15	1.761260E-16
3.417253E+03	5.368642E-15	1.780316E-16
3.427244E+03	5.448909E-15	1.799841E-16
3.437236E+03	5.531224E-15	1.819867E-16
3.447228E+03	5.615710E-15	1.840428E-16
3.457220E+03	5.702414E-15	1.861536E-16
3.467212E+03	5.791539E-15	1.883250E-16
3.477204E+03	5.883117E-15	1.905574E-16
3.487196E+03	5.977172E-15	1.928511E-16
3.497188E+03	6.073788E-15	1.952081E-16
3.507180E+03	6.172966E-15	1.976277E-16
3.517172E+03	6.274859E-15	2.001144E-16
3.527164E+03	6.379312E-15	2.026626E-16
3.537156E+03	6.486487E-15	2.052768E-16
3.547148E+03	6.596391E-15	2.079567E-16
3.557140E+03	6.709117E-15	2.107046E-16
3.567132E+03	6.824596E-15	2.135176E-16
3.577124E+03	6.942844E-15	2.163954E-16
3.587116E+03	7.064038E-15	2.193428E-16
3.597108E+03	7.188032E-15	2.223545E-16
3.607100E+03	7.315004E-15	2.254351E-16
3.617092E+03	7.444968E-15	2.285843E-16
3.627084E+03	7.577852E-15	2.317990E-16
3.637076E+03	7.713663E-15	2.350789E-16
3.647068E+03	7.852492E-15	2.384257E-16
3.657060E+03	7.994254E-15	2.418361E-16
3.667052E+03	8.139122E-15	2.453147E-16
3.677044E+03	8.286913E-15	2.488552E-16
3.687036E+03	8.437701E-15	2.524589E-16
3.697028E+03	8.591477E-15	2.561250E-16
3.707020E+03	8.748309E-15	2.598548E-16
3.717012E+03	8.908077E-15	2.636438E-16
3.727003E+03	9.070843E-15	2.674933E-16
3.736995E+03	9.236563E-15	2.714012E-16
3.746987E+03	9.405291E-15	2.753686E-16
3.756979E+03	9.576971E-15	2.793930E-16
3.766971E+03	9.751659E-15	2.834754E-16
3.776963E+03	9.929271E-15	2.876127E-16
3.786955E+03	1.010975E-14	2.918027E-16
3.796947E+03	1.029330E-14	2.960507E-16
3.806939E+03	1.047966E-14	3.003485E-16
3.816931E+03	1.066892E-14	3.046981E-16
3.826923E+03	1.086118E-14	3.091020E-16
3.836915E+03	1.105625E-14	3.135537E-16
3.846907E+03	1.125410E-14	3.180526E-16
3.856899E+03	1.145484E-14	3.226005E-16
3.866891E+03	1.165842E-14	3.271960E-16
3.876883E+03	1.186483E-14	3.318381E-16
3.886875E+03	1.207390E-14	3.365219E-16
3.896867E+03	1.228571E-14	3.412490E-16
3.906859E+03	1.250020E-14	3.460174E-16
3.916851E+03	1.271731E-14	3.508250E-16
3.926843E+03	1.293698E-14	3.556695E-16
3.936835E+03	1.315909E-14	3.605483E-16
3.946827E+03	1.338371E-14	3.654619E-16
3.956819E+03	1.361073E-14	3.704080E-16
3.966811E+03	1.383992E-14	3.753795E-16
3.976803E+03	1.407141E-14	3.803802E-16
3.986795E+03	1.430496E-14	3.854033E-16
3.996787E+03	1.454054E-14	3.904482E-16
4.006779E+03	1.477803E-14	3.955114E-16
4.016771E+03	1.501712E-14	4.005848E-16
4.026762E+03	1.525793E-14	4.056717E-16
4.036754E+03	1.550013E-14	4.107635E-16
4.046746E+03	1.574367E-14	4.158593E-16
4.056738E+03	1.598836E-14	4.209542E-16
4.066730E+03	1.623397E-14	4.260428E-16
4.076722E+03	1.648029E-14	4.311197E-16
4.086714E+03	1.672722E-14	4.361831E-16
4.096706E+03	1.697437E-14	4.412235E-16
4.106698E+03	1.722149E-14	4.462348E-16
4.116690E+03	1.746859E-14	4.512183E-16
4.126682E+03	1.771511E-14	4.561602E-16
4.136674E+03	1.796088E-14	4.610574E-16
4.146666E+03	1.820561E-14	4.659034E-16
4.156658E+03	1.844898E-14	4.706911E-16
4.166650E+03	1.869069E-14	4.754140E-16
4.176642E+03	1.893037E-14	4.800646E-16
4.186634E+03	1.916770E-14	4.846356E-16
4.196626E+03	1.940234E-14	4.891203E-16
4.206618E+03	1.963394E-14	4.935113E-16
4.216610E+03	1.986215E-14	4.978019E-16
4.226602E+03	2.008644E-14	5.019802E-16
4.236594E+03	2.030648E-14	5.060401E-16
4.246586E+03	2.052208E-14	5.099790E-16
4.256578E+03	2.073294E-14	5.137913E-16
4.266570E+03	2.093837E-14	5.174624E-16
4.276562E+03	2.113827E-14	5.209917E-16
4.286554E+03	2.133235E-14	5.243744E-16
4.296546E+03	2.152038E-14	5.276073E-16
4.306538E+03	2.170214E-14	5.306874E-16
4.316530E+03	2.187725E-14	5.336078E-16
4.326521E+03	2.204594E-14	5.363765E-16
4.336513E+03	2.220770E-14	5.389834E-16
4.346505E+03	2.236278E-14	5.414370E-16
4.356497E+03	2.251102E-14	5.437360E-16
4.366489E+03	2.265246E-14	5.458835E-16
4.376481E+03	2.278682E-14	5.478751E-16
4.386473E+03	2.291402E-14	5.497114E-16
4.396465E+03	2.303373E-14	5.513869E-16
4.406457E+03	2.314608E-14	5.529067E-16
4.416449E+03	2.325079E-14	5.542659E-16
4.426441E+03	2.334763E-14	5.554603E-16
4.436433E+03	2.343684E-14	5.564960E-16
4.446425E+03	2.351824E-14	5.573701E-16
4.456417E+03	2.359196E-14	5.580857E-16
4.466409E+03	2.365834E-14	5.586516E-16
4.476401E+03	2.371713E-14	5.590627E-16
4.486393E+03	2.376873E-14	5.593289E-16
4.496385E+03	2.381340E-14	5.594564E-16
4.506377E+03	2.385117E-14	5.594463E-16
4.516369E+03	2.388233E-14	5.593059E-16
4.526361E+03	2.390717E-14	5.590419E-16
4.536353E+03	2.392603E-14	5.586625E-16
4.546345E+03	2.393923E-14	5.581755E-16
4.556337E+03	2.394692E-14	5.575839E-16
4.566329E+03	2.394922E-14	5.568909E-16
4.576321E+03	2.394695E-14	5.561153E-16
4.586313E+03	2.394005E-14	5.552555E-16
4.596305E+03	2.392867E-14	5.543150E-16
4.606297E+03	2.391341E-14	5.533077E-16
4.616289E+03	2.389469E-14	5.522431E-16
4.626280E+03	2.387221E-14	5.511135E-16
4.636272E+03	2.384705E-14	5.499444E-16
4.646264E+03	2.381870E-14	5.487233E-16
4.656256E+03	2.378802E-14	5.474698E-16
4.666248E+03	2.375517E-14	5.461876E-16
4.676240E+03	2.372032E-14	5.448800E-16
4.686232E+03	2.368365E-14	5.435511E-16
4.696224E+03	2.364530E-14	5.422038E-16
4.706216E+03	2.360592E-14	5.408526E-16
4.716208E+03	2.356541E-14	5.394953E-16
4.726200E+03	2.352394E-14	5.381354E-16
4.736192E+03	2.348189E-14	5.367814E-16
4.746184E+03	2.343895E-14	5.354260E-16
4.756176E+03	2.339595E-14	5.340879E-16
4.766168E+03	2.335235E-14	5.327548E-16
4.776160E+03	2.330874E-14	5.314399E-16
4.786152E+03	2.326526E-14	5.301465E-16
4.796144E+03	2.322157E-14	5.288664E-16
4.806136E+03	2.317803E-14	5.276082E-16
4.816128E+03	2.313500E-14	5.263798E-16
4.826120E+03	2.309213E-14	5.251732E-16
4.836112E+03	2.304977E-14	5.239966E-16
4.846104E+03	2.300803E-14	5.228523E-16
4.856096E+03	2.296680E-14	5.217380E-16
4.866088E+03	2.292617E-14	5.206560E-16
4.876080E+03	2.288647E-14	5.196138E-16
4.886072E+03	2.284757E-14	5.186089E-16
4.896064E+03	2.280981E-14	5.176487E-16
4.906056E+03	2.277280E-14	5.167250E-16
4.916047E+03	2.273687E-14	5.158456E-16
4.926039E+03	2.270211E-14	5.150127E-16
4.936031E+03	2.266836E-14	5.142230E-16
4.946023E+03	2.263593E-14	5.134840E-16
4.956015E+03	2.260468E-14	5.127929E-16
4.966007E+03	2.257489E-14	5.121567E-16
4.975999E+03	2.254643E-14	5.115725E-16
4.985991E+03	2.251935E-14	5.110423E-16
4.995983E+03	2.249348E-14	5.105627E-16
5.005975E+03	2.246936E-14	5.101466E-16
5.015967E+03	2.244657E-14	5.097851E-16
5.025959E+03	2.242519E-14	5.094804E-16
5.035951E+03	2.240548E-14	5.092396E-16
5.045943E+03	2.238729E-14	5.090596E-16
5.055935E+03	2.237065E-14	5.089420E-16
5.065927E+03	2.235563E-14	5.088891E-16
5.075919E+03	2.234225E-14	5.089025E-16
5.085911E+03	2.233035E-14	5.089790E-16
5.095903E+03	2.231996E-14	5.091205E-16
5.105895E+03	2.231136E-14	5.093342E-16
5.115887E+03	2.230412E-14	5.096114E-16
5.125879E+03	2.229875E-14	5.099645E-16
5.135871E+03	2.229460E-14	5.103799E-16
5.145863E+03	2.229215E-14	5.108696E-16
5.155855E+03	2.229121E-14	5.114304E-16
5.165847E+03	2.229182E-14	5.120643E-16
5.175839E+03	2.229403E-14	5.127733E-16
5.185831E+03	2.229760E-14	5.135538E-16
5.195823E+03	2.230260E-14	5.144079E-16
5.205815E+03	2.230881E-14	5.153322E-16
5.215806E+03	2.231674E-14	5.163396E-16
5.225798E+03	2.232571E-14	5.174157E-16
5.235790E+03	2.233600E-14	5.185683E-16
5.245782E+03	2.234762E-14	5.197991E-16
5.255774E+03	2.236062E-14	5.211103E-16
5.265766E+03	2.237457E-14	5.224936E-16
5.275758E+03	2.238973E-14	5.239564E-16
5.285750E+03	2.240592E-14	5.254956E-16
5.295742E+03	2.242316E-14	5.271133E-16
5.305734E+03	2.244128E-14	5.288071E-16
5.315726E+03	2.246055E-14	5.305845E-16
5.325718E+03	2.248057E-14	5.324375E-16
5.335710E+03	2.250140E-14	5.343691E-16
5.345702E+03	2.252288E-14	5.363769E-16
5.355694E+03	2.254533E-14	5.384696E-16
5.365686E+03	2.256814E-14	5.406346E-16
5.375678E+03	2.259164E-14	5.428811E-16
5.385670E+03	2.261574E-14	5.452078E-16
5.395662E+03	2.264030E-14	5.476133E-16
5.405654E+03	2.266477E-14	5.500856E-16
5.415646E+03	2.268905E-14	5.526230E-16
5.425638E+03	2.271297E-14	5.552231E-16
5.435630E+03	2.273543E-14	5.578589E-16
5.445622E+03	2.275613E-14	5.605230E-16
5.455614E+03	2.277408E-14	5.631891E-16
5.465606E+03	2.278867E-14	5.658403E-16
5.475598E+03	2.280045E-14	5.684881E-16
5.485590E+03	2.280903E-14	5.711207E-16
5.495582E+03	2.281495E-14	5.737502E-16
5.505574E+03	2.281832E-14	5.763765E-16
5.515565E+03	2.281992E-14	5.790179E-16
5.525557E+03	2.281942E-14	5.816640E-16
5.535549E+03	2.281719E-14	5.843223E-16
5.545541E+03	2.281313E-14	5.869884E-16
5.555533E+03	2.280786E-14	5.896764E-16
5.565525E+03	2.280107E-14	5.923765E-16
5.575517E+03	2.279294E-14	5.950913E-16
5.585509E+03	2.278337E-14	5.978169E-16
5.595501E+03	2.277279E-14	6.005624E-16
5.605493E+03	2.276090E-14	6.033181E-16
5.615485E+03	2.274789E-14	6.060874E-16
5.625477E+03	2.273392E-14	6.088729E-16
5.635469E+03	2.271895E-14	6.116719E-16
5.645461E+03	2.270317E-14	6.144875E-16
5.655453E+03	2.268629E-14	6.173103E-16
5.665445E+03	2.266849E-14	6.201435E-16
5.675437E+03	2.264996E-14	6.229911E-16
5.685429E+03	2.263067E-14	6.258500E-16
5.695421E+03	2.261057E-14	6.287175E-16
5.705413E+03	2.258959E-14	6.315904E-16
5.715405E+03	2.256819E-14	6.344794E-16
5.725397E+03	2.254584E-14	6.373687E-16
5.735389E+03	2.252297E-14	6.402686E-16
5.745381E+03	2.249953E-14	6.431766E-16
5.755373E+03	2.247526E-14	6.460832E-16
5.765365E+03	2.245033E-14	6.489925E-16
5.775357E+03	2.242497E-14	6.519090E-16
5.785349E+03	2.239887E-14	6.548231E-16
5.795341E+03	2.237200E-14	6.577321E-16
5.805333E+03	2.234481E-14	6.606477E-16
5.815324E+03	2.231675E-14	6.635528E-16
5.825316E+03	2.228805E-14	6.664524E-16
5.835308E+03	2.225865E-14	6.693437E-16
5.845300E+03	2.222852E-14	6.722242E-16
5.855292E+03	2.219785E-14	6.750989E-16
5.865284E+03	2.216613E-14	6.779501E-16
5.875276E+03	2.213380E-14	6.807906E-16
5.885268E+03	2.210056E-14	6.836097E-16
5.895260E+03	2.206640E-14	6.864056E-16
5.905252E+03	2.203125E-14	6.891750E-16
5.915244E+03	2.199510E-14	6.919158E-16
5.925236E+03	2.195814E-14	6.946331E-16
5.935228E+03	2.191983E-14	6.973085E-16
5.945220E+03	2.188015E-14	6.999395E-16
5.955212E+03	2.183929E-14	7.025309E-16
5.965204E+03	2.179723E-14	7.050806E-16
5.975196E+03	2.175342E-14	7.075693E-16
5.985188E+03	2.170831E-14	7.100105E-16
5.995180E+03	2.166114E-14	7.123771E-16
6.005172E+03	2.161260E-14	7.146908E-16
6.015164E+03	2.156191E-14	7.169237E-16
6.025156E+03	2.150904E-14	7.190731E-16
6.035148E+03	2.145419E-14	7.211442E-16
6.045140E+03	2.139708E-14	7.231256E-16
6.055132E+03	2.133766E-14	7.250139E-16
6.065124E+03	2.127542E-14	7.267898E-16
6.075116E+03	2.121082E-14	7.284665E-16
6.085108E+03	2.114305E-14	7.300149E-16
6.095100E+03	2.107260E-14	7.314496E-16
6.105092E+03	2.099919E-14	7.327586E-16
6.115083E+03	2.092255E-14	7.339299E-16
6.125075E+03	2.084261E-14	7.349599E-16
6.135067E+03	2.075964E-14	7.358549E-16
6.145059E+03	2.067336E-14	7.366029E-16
6.155051E+03	2.058372E-14	7.372004E-16
6.165043E+03	2.049125E-14	7.376634E-16
6.175035E+03	2.039540E-14	7.379708E-16
6.185027E+03	2.029640E-14	7.381286E-16
6.195019E+03	2.019453E-14	7.381445E-16
6.205011E+03	2.009002E-14	7.380250E-16
6.215003E+03	1.998260E-14	7.377590E-16
6.224995E+03	1.987228E-14	7.373442E-16
6.234987E+03	1.975930E-14	7.367880E-16
6.244979E+03	1.964341E-14	7.360793E-16
6.254971E+03	1.952488E-14	7.352260E-16
6.264963E+03	1.940369E-14	7.342264E-16
6.274955E+03	1.928013E-14	7.330889E-16
6.284947E+03	1.915419E-14	7.318123E-16
6.294939E+03	1.902588E-14	7.303954E-16
6.304931E+03	1.889550E-14	7.288476E-16
6.314923E+03	1.876328E-14	7.271774E-16
6.324915E+03	1.862901E-14	7.253749E-16
6.334907E+03	1.849296E-14	7.234492E-16
6.344899E+03	1.835540E-14	7.214104E-16
6.354891E+03	1.821610E-14	7.192482E-16
6.364883E+03	1.807559E-14	7.169826E-16
6.374875E+03	1.793390E-14	7.146140E-16
6.384867E+03	1.779106E-14	7.121427E-16
6.394859E+03	1.764709E-14	7.095690E-16
6.404851E+03	1.750252E-14	7.069138E-16
6.414842E+03	1.735715E-14	7.041683E-16
6.424834E+03	1.721150E-14	7.013534E-16
6.434826E+03	1.706559E-14	6.984697E-16
6.444818E+03	1.691948E-14	6.955193E-16
6.454810E+03	1.677342E-14	6.925129E-16
6.464802E+03	1.662746E-14	6.894520E-16
6.474794E+03	1.648188E-14	6.863489E-16
6.484786E+03	1.633619E-14	6.831832E-16
6.494778E+03	1.619094E-14	6.799779E-16
6.504770E+03	1.604617E-14	6.767345E-16
6.514762E+03	1.590163E-14	6.734436E-16
6.524754E+03	1.575762E-14	6.701177E-16
6.534746E+03	1.561418E-14	6.667586E-16
6.544738E+03	1.547132E-14	6.633675E-16
6.554730E+03	1.532908E-14	6.599460E-16
6.564722E+03	1.518774E-14	6.565071E-16
6.574714E+03	1.504707E-14	6.530414E-16
6.584706E+03	1.490710E-14	6.495505E-16
6.594698E+03	1.476812E-14	6.460474E-16
6.604690E+03	1.463015E-14	6.425336E-16
6.614682E+03	1.449296E-14	6.390002E-16
6.624674E+03	1.435683E-14	6.354593E-16
6.634666E+03	1.422156E-14	6.319029E-16
6.644658E+03	1.408762E-14	6.283529E-16
6.654650E+03	1.395460E-14	6.247911E-16
6.664642E+03	1.382247E-14	6.212178E-16
6.674634E+03	1.369155E-14	6.176466E-16
6.684626E+03	1.356182E-14	6.140785E-16
6.694618E+03	1.343309E-14	6.105051E-16
6.704609E+03	1.330536E-14	6.069275E-16
6.714601E+03	1.317891E-14	6.033585E-16
6.724593E+03	1.305352E-14	5.997890E-16
6.734585E+03	1.292943E-14	5.962313E-16
6.744577E+03	1.280621E-14	5.926653E-16
6.754569E+03	1.268433E-14	5.891145E-16
6.764561E+03	1.256336E-14	5.855588E-16
6.774553E+03	1.244377E-14	5.820211E-16
6.784545E+03	1.232513E-14	5.784820E-16
6.794537E+03	1.220767E-14	5.749529E-16
6.804529E+03	1.209140E-14	5.714357E-16
6.814521E+03	1.197613E-14	5.679210E-16
6.824513E+03	1.186209E-14	5.644213E-16
6.834505E+03	1.174907E-14	5.609267E-16
6.844497E+03	1.163731E-14	5.574498E-16
6.854489E+03	1.152638E-14	5.539704E-16
6.864481E+03	1.141673E-14	5.505109E-16
6.874473E+03	1.130815E-14	5.470619E-16
6.884465E+03	1.120067E-14	5.436252E-16
6.894457E+03	1.109407E-14	5.401914E-16
6.904449E+03	1.098878E-14	5.367819E-16
6.914441E+03	1.088419E-14	5.333675E-16
6.924433E+03	1.078095E-14	5.299799E-16
6.934425E+03	1.067862E-14	5.265998E-16
6.944417E+03	1.057724E-14	5.232284E-16
6.954409E+03	1.047701E-14	5.198764E-16
6.964401E+03	1.037773E-14	5.165353E-16
6.974393E+03	1.027941E-14	5.132057E-16
6.984385E+03	1.018207E-14	5.098887E-16
6.994377E+03	1.008570E-14	5.065853E-16
7.004368E+03	9.990309E-15	5.032962E-16
7.014360E+03	9.895719E-15	5.000130E-16
7.024352E+03	9.802320E-15	4.967558E-16
7.034344E+03	9.709524E-15	4.934956E-16
7.044336E+03	9.617938E-15	4.902638E-16
7.054328E+03	9.526975E-15	4.870310E-16
7.064320E+03	9.437028E-15	4.838178E-16
7.074312E+03	9.347904E-15	4.806149E-16
7.084304E+03	9.259626E-15	4.774240E-16
7.094296E+03	9.172372E-15	4.742547E-16
7.104288E+03	9.085778E-15	4.710890E-16
7.114280E+03	9.000032E-15	4.679368E-16
7.124272E+03	8.914959E-15	4.647898E-16
7.134264E+03	8.830753E-15	4.616584E-16
7.144256E+03	8.747403E-15	4.585425E-16
7.154248E+03	8.664752E-15	4.554345E-16
7.164240E+03	8.582968E-15	4.523436E-16
7.174232E+03	8.501710E-15	4.492523E-16
7.184224E+03	8.421331E-15	4.461798E-16
7.194216E+03	8.341658E-15	4.431173E-16
7.204208E+03	8.262538E-15	4.400571E-16
7.214200E+03	8.184144E-15	4.370088E-16
7.224192E+03	8.106468E-15	4.339725E-16
7.234184E+03	8.029367E-15	4.309409E-16
7.244176E+03	7.952838E-15	4.279143E-16
7.254168E+03	7.876892E-15	4.248935E-16
7.264160E+03	7.801535E-15	4.218793E-16
7.274152E+03	7.726776E-15	4.188726E-16
7.284144E+03	7.652302E-15	4.158567E-16
7.294136E+03	7.578445E-15	4.128500E-16
7.304127E+03	7.505055E-15	4.098446E-16
7.314119E+03	7.431986E-15	4.068330E-16
7.324111E+03	7.359406E-15	4.038245E-16
7.334103E+03	7.287021E-15	4.008034E-16
7.344095E+03	7.214846E-15	3.977706E-16
7.354087E+03	7.142900E-15	3.947274E-16
7.364079E+03	7.071049E-15	3.916667E-16
7.374071E+03	6.999462E-15	3.885980E-16
7.384063E+03	6.927714E-15	3.854979E-16
7.394055E+03	6.856124E-15	3.823842E-16
7.404047E+03	6.784422E-15	3.792421E-16
7.414039E+03	6.712778E-15	3.760810E-16
7.424031E+03	6.641070E-15	3.728945E-16
7.434023E+03	6.569324E-15	3.696840E-16
7.444015E+03	6.497704E-15	3.664590E-16
7.454007E+03	6.426093E-15	3.632128E-16
7.463999E+03	6.354923E-15	3.599703E-16
7.473991E+03	6.283938E-15	3.567171E-16
7.483983E+03	6.213425E-15	3.534697E-16
7.493975E+03	6.143262E-15	3.502216E-16
7.503967E+03	6.073862E-15	3.469966E-16
7.513959E+03	6.005097E-15	3.437877E-16
7.523951E+03	5.936978E-15	3.405959E-16
7.533943E+03	5.869637E-15	3.374293E-16
7.543935E+03	5.803081E-15	3.342885E-16
7.553927E+03	5.737567E-15	3.311887E-16
7.563919E+03	5.672839E-15	3.281159E-16
7.573911E+03	5.609027E-15	3.250777E-16
7.583903E+03	5.546253E-15	3.220818E-16
7.593895E+03	5.484392E-15	3.191214E-16
7.603886E+03	5.423566E-15	3.162039E-16
7.613878E+03	5.363649E-15	3.133225E-16
7.623870E+03	5.304882E-15	3.104918E-16
7.633862E+03	5.247020E-15	3.076978E-16
7.643854E+03	5.190298E-15	3.049548E-16
7.653846E+03	5.134476E-15	3.022491E-16
7.663838E+03	5.079784E-15	2.995948E-16
7.673830E+03	5.025986E-15	2.969783E-16
7.683822E+03	4.973310E-15	2.944135E-16
7.693814E+03	4.921635E-15	2.918938E-16
7.703806E+03	4.870958E-15	2.894193E-16
7.713798E+03	4.821273E-15	2.869902E-16
7.723790E+03	4.772580E-15	2.846067E-16
7.733782E+03	4.724872E-15	2.822690E-16
7.743774E+03	4.678036E-15	2.799708E-16
7.753766E+03	4.632289E-15	2.777252E-16
