#wls	flux	fluxerr
1.598715E+03	1.401923E-04	8.972524E-06
1.638682E+03	1.492891E-04	9.409911E-06
1.678650E+03	1.579739E-04	9.803118E-06
1.718618E+03	1.658778E-04	1.013082E-05
1.758586E+03	1.725888E-04	1.037057E-05
1.798554E+03	1.776723E-04	1.050030E-05
1.838522E+03	1.806489E-04	1.049712E-05
1.878490E+03	1.811971E-04	1.034913E-05
1.918458E+03	1.791152E-04	1.005244E-05
1.958425E+03	1.744474E-04	9.617543E-06
1.998393E+03	1.675317E-04	9.070656E-06
2.038361E+03	1.590478E-04	8.454748E-06
2.078329E+03	1.499573E-04	7.824758E-06
2.118297E+03	1.414275E-04	7.242319E-06
2.158265E+03	1.347019E-04	6.768330E-06
2.198233E+03	1.308550E-04	6.450602E-06
2.238200E+03	1.308051E-04	6.325451E-06
2.278168E+03	1.353967E-04	6.422531E-06
2.318136E+03	1.454078E-04	6.765686E-06
2.358104E+03	1.616829E-04	7.379574E-06
2.398072E+03	1.852775E-04	8.295764E-06
2.438040E+03	2.174026E-04	9.549562E-06
2.478008E+03	2.592480E-04	1.117204E-05
2.517976E+03	3.115584E-04	1.317235E-05
2.557943E+03	3.741648E-04	1.552018E-05
2.597911E+03	4.453881E-04	1.812485E-05
2.637879E+03	5.220141E-04	2.083999E-05
2.677847E+03	6.002879E-04	2.350815E-05
2.717815E+03	6.768308E-04	2.599760E-05
2.757783E+03	7.487397E-04	2.820447E-05
2.797751E+03	8.137449E-04	3.005659E-05
2.837718E+03	8.704297E-04	3.151907E-05
2.877686E+03	9.183864E-04	3.259673E-05
2.917654E+03	9.581442E-04	3.332807E-05
2.957622E+03	9.912731E-04	3.378552E-05
2.997590E+03	1.020071E-03	3.406159E-05
3.007582E+03	1.026962E-03	3.411582E-05
3.017574E+03	1.033806E-03	3.416683E-05
3.027566E+03	1.040653E-03	3.421637E-05
3.037558E+03	1.047605E-03	3.426783E-05
3.047550E+03	1.054698E-03	3.432234E-05
3.057542E+03	1.061993E-03	3.438190E-05
3.067534E+03	1.069569E-03	3.444894E-05
3.077526E+03	1.077458E-03	3.452448E-05
3.087518E+03	1.085717E-03	3.461020E-05
3.097510E+03	1.094450E-03	3.470928E-05
3.107502E+03	1.103669E-03	3.482198E-05
3.117494E+03	1.113458E-03	3.495071E-05
3.127486E+03	1.123852E-03	3.509645E-05
3.137477E+03	1.134981E-03	3.526294E-05
3.147469E+03	1.146835E-03	3.544971E-05
3.157461E+03	1.159500E-03	3.565909E-05
3.167453E+03	1.173055E-03	3.589328E-05
3.177445E+03	1.187562E-03	3.615382E-05
3.187437E+03	1.203033E-03	3.644078E-05
3.197429E+03	1.219594E-03	3.675763E-05
3.207421E+03	1.237258E-03	3.710440E-05
3.217413E+03	1.256100E-03	3.748296E-05
3.227405E+03	1.276152E-03	3.789394E-05
3.237397E+03	1.297488E-03	3.833911E-05
3.247389E+03	1.320153E-03	3.881944E-05
3.257381E+03	1.344193E-03	3.933592E-05
3.267373E+03	1.369625E-03	3.988868E-05
3.277365E+03	1.396506E-03	4.047899E-05
3.287357E+03	1.424867E-03	4.110740E-05
3.297349E+03	1.454708E-03	4.177359E-05
3.307341E+03	1.486069E-03	4.247839E-05
3.317333E+03	1.518935E-03	4.322107E-05
3.327325E+03	1.553331E-03	4.400207E-05
3.337317E+03	1.589224E-03	4.482022E-05
3.347309E+03	1.626593E-03	4.567480E-05
3.357301E+03	1.665411E-03	4.656484E-05
3.367293E+03	1.705635E-03	4.748909E-05
3.377285E+03	1.747215E-03	4.844606E-05
3.387277E+03	1.790059E-03	4.943328E-05
3.397269E+03	1.834116E-03	5.044937E-05
3.407261E+03	1.879245E-03	5.149060E-05
3.417253E+03	1.925400E-03	5.255594E-05
3.427244E+03	1.972415E-03	5.364110E-05
3.437236E+03	2.020174E-03	5.474327E-05
3.447228E+03	2.068553E-03	5.585950E-05
3.457220E+03	2.117397E-03	5.698613E-05
3.467212E+03	2.166620E-03	5.812132E-05
3.477204E+03	2.216087E-03	5.926206E-05
3.487196E+03	2.265682E-03	6.040593E-05
3.497188E+03	2.315338E-03	6.155177E-05
3.507180E+03	2.364977E-03	6.269826E-05
3.517172E+03	2.414595E-03	6.384600E-05
3.527164E+03	2.464083E-03	6.499292E-05
3.537156E+03	2.513465E-03	6.614040E-05
3.547148E+03	2.562714E-03	6.728852E-05
3.557140E+03	2.611847E-03	6.843857E-05
3.567132E+03	2.660833E-03	6.959045E-05
3.577124E+03	2.709675E-03	7.074494E-05
3.587116E+03	2.758459E-03	7.190455E-05
3.597108E+03	2.807148E-03	7.306860E-05
3.607100E+03	2.855842E-03	7.423992E-05
3.617092E+03	2.904585E-03	7.541988E-05
3.627084E+03	2.953393E-03	7.660908E-05
3.637076E+03	3.002320E-03	7.780905E-05
3.647068E+03	3.051458E-03	7.902230E-05
3.657060E+03	3.100834E-03	8.024960E-05
3.667052E+03	3.150577E-03	8.149437E-05
3.677044E+03	3.200682E-03	8.275651E-05
3.687036E+03	3.251241E-03	8.403844E-05
3.697028E+03	3.302309E-03	8.534160E-05
3.707020E+03	3.353973E-03	8.666818E-05
3.717012E+03	3.406241E-03	8.801838E-05
3.727003E+03	3.459184E-03	8.939398E-05
3.736995E+03	3.512828E-03	9.079560E-05
3.746987E+03	3.567220E-03	9.222440E-05
3.756979E+03	3.622365E-03	9.368041E-05
3.766971E+03	3.678284E-03	9.516407E-05
3.776963E+03	3.734954E-03	9.667467E-05
3.786955E+03	3.792327E-03	9.821090E-05
3.796947E+03	3.850459E-03	9.977401E-05
3.806939E+03	3.909200E-03	1.013600E-04
3.816931E+03	3.968530E-03	1.029682E-04
3.826923E+03	4.028423E-03	1.045977E-04
3.836915E+03	4.088716E-03	1.062440E-04
3.846907E+03	4.149309E-03	1.079045E-04
3.856899E+03	4.210134E-03	1.095770E-04
3.866891E+03	4.271069E-03	1.112582E-04
3.876883E+03	4.331988E-03	1.129444E-04
3.886875E+03	4.392712E-03	1.146308E-04
3.896867E+03	4.453147E-03	1.163144E-04
3.906859E+03	4.513152E-03	1.179913E-04
3.916851E+03	4.572589E-03	1.196575E-04
3.926843E+03	4.631327E-03	1.213092E-04
3.936835E+03	4.689239E-03	1.229427E-04
3.946827E+03	4.746247E-03	1.245554E-04
3.956819E+03	4.802248E-03	1.261443E-04
3.966811E+03	4.857104E-03	1.277052E-04
3.976803E+03	4.910821E-03	1.292379E-04
3.986795E+03	4.963291E-03	1.307391E-04
3.996787E+03	5.014506E-03	1.322080E-04
4.006779E+03	5.064431E-03	1.336433E-04
4.016771E+03	5.112999E-03	1.350427E-04
4.026762E+03	5.160292E-03	1.364080E-04
4.036754E+03	5.206270E-03	1.377376E-04
4.046746E+03	5.250994E-03	1.390326E-04
4.056738E+03	5.294487E-03	1.402933E-04
4.066730E+03	5.336784E-03	1.415202E-04
4.076722E+03	5.377922E-03	1.427137E-04
4.086714E+03	5.417992E-03	1.438759E-04
4.096706E+03	5.456995E-03	1.450065E-04
4.106698E+03	5.494977E-03	1.461062E-04
4.116690E+03	5.532086E-03	1.471787E-04
4.126682E+03	5.568274E-03	1.482222E-04
4.136674E+03	5.603641E-03	1.492393E-04
4.146666E+03	5.638237E-03	1.502307E-04
4.156658E+03	5.672115E-03	1.511977E-04
4.166650E+03	5.705324E-03	1.521412E-04
4.176642E+03	5.737919E-03	1.530625E-04
4.186634E+03	5.769955E-03	1.539627E-04
4.196626E+03	5.801494E-03	1.548433E-04
4.206618E+03	5.832597E-03	1.557056E-04
4.216610E+03	5.863336E-03	1.565512E-04
4.226602E+03	5.893734E-03	1.573808E-04
4.236594E+03	5.923876E-03	1.581961E-04
4.246586E+03	5.953903E-03	1.590010E-04
4.256578E+03	5.983912E-03	1.597977E-04
4.266570E+03	6.013905E-03	1.605861E-04
4.276562E+03	6.044044E-03	1.613704E-04
4.286554E+03	6.074445E-03	1.621536E-04
4.296546E+03	6.105228E-03	1.629386E-04
4.306538E+03	6.136513E-03	1.637285E-04
4.316530E+03	6.168364E-03	1.645250E-04
4.326521E+03	6.201009E-03	1.653338E-04
4.336513E+03	6.234445E-03	1.661548E-04
4.346505E+03	6.268884E-03	1.669935E-04
4.356497E+03	6.304416E-03	1.678521E-04
4.366489E+03	6.341176E-03	1.687340E-04
4.376481E+03	6.379220E-03	1.696406E-04
4.386473E+03	6.418642E-03	1.705741E-04
4.396465E+03	6.459451E-03	1.715347E-04
4.406457E+03	6.501742E-03	1.725246E-04
4.416449E+03	6.545452E-03	1.735414E-04
4.426441E+03	6.590484E-03	1.745821E-04
4.436433E+03	6.636809E-03	1.756452E-04
4.446425E+03	6.684244E-03	1.767251E-04
4.456417E+03	6.732617E-03	1.778168E-04
4.466409E+03	6.781777E-03	1.789155E-04
4.476401E+03	6.831346E-03	1.800106E-04
4.486393E+03	6.881098E-03	1.810956E-04
4.496385E+03	6.930709E-03	1.821613E-04
4.506377E+03	6.979765E-03	1.831963E-04
4.516369E+03	7.027897E-03	1.841904E-04
4.526361E+03	7.074719E-03	1.851330E-04
4.536353E+03	7.119844E-03	1.860135E-04
4.546345E+03	7.162889E-03	1.868218E-04
4.556337E+03	7.203415E-03	1.875459E-04
4.566329E+03	7.241004E-03	1.881749E-04
4.576321E+03	7.275472E-03	1.887041E-04
4.586313E+03	7.306403E-03	1.891224E-04
4.596305E+03	7.333491E-03	1.894223E-04
4.606297E+03	7.356617E-03	1.896008E-04
4.616289E+03	7.375654E-03	1.896549E-04
4.626280E+03	7.390316E-03	1.895778E-04
4.636272E+03	7.400802E-03	1.893750E-04
4.646264E+03	7.406869E-03	1.890409E-04
4.656256E+03	7.408763E-03	1.885823E-04
4.666248E+03	7.406566E-03	1.880021E-04
4.676240E+03	7.400405E-03	1.873042E-04
4.686232E+03	7.390454E-03	1.864938E-04
4.696224E+03	7.376917E-03	1.855769E-04
4.706216E+03	7.360178E-03	1.845638E-04
4.716208E+03	7.340418E-03	1.834601E-04
4.726200E+03	7.317912E-03	1.822733E-04
4.736192E+03	7.293010E-03	1.810129E-04
4.746184E+03	7.265850E-03	1.796833E-04
4.756176E+03	7.236928E-03	1.782973E-04
4.766168E+03	7.206300E-03	1.768572E-04
4.776160E+03	7.174371E-03	1.753734E-04
4.786152E+03	7.141390E-03	1.738529E-04
4.796144E+03	7.107448E-03	1.722983E-04
4.806136E+03	7.072836E-03	1.707174E-04
4.816128E+03	7.037835E-03	1.691175E-04
4.826120E+03	7.002497E-03	1.675003E-04
4.836112E+03	6.967079E-03	1.658726E-04
4.846104E+03	6.931759E-03	1.642389E-04
4.856096E+03	6.896641E-03	1.626021E-04
4.866088E+03	6.861901E-03	1.609668E-04
4.876080E+03	6.827785E-03	1.593391E-04
4.886072E+03	6.794406E-03	1.577218E-04
4.896064E+03	6.762026E-03	1.561213E-04
4.906056E+03	6.730710E-03	1.545392E-04
4.916047E+03	6.700745E-03	1.529822E-04
4.926039E+03	6.672362E-03	1.514556E-04
4.936031E+03	6.645743E-03	1.499636E-04
4.946023E+03	6.621220E-03	1.485133E-04
4.956015E+03	6.599008E-03	1.471094E-04
4.966007E+03	6.579469E-03	1.457596E-04
4.975999E+03	6.562842E-03	1.444687E-04
4.985991E+03	6.549448E-03	1.432432E-04
4.995983E+03	6.539546E-03	1.420879E-04
5.005975E+03	6.533602E-03	1.410122E-04
5.015967E+03	6.531811E-03	1.400193E-04
5.025959E+03	6.534507E-03	1.391152E-04
5.035951E+03	6.542077E-03	1.383069E-04
5.045943E+03	6.554765E-03	1.375982E-04
5.055935E+03	6.572869E-03	1.369939E-04
5.065927E+03	6.596667E-03	1.364983E-04
5.075919E+03	6.626416E-03	1.361150E-04
5.085911E+03	6.662274E-03	1.358457E-04
5.095903E+03	6.704445E-03	1.356929E-04
5.105895E+03	6.753164E-03	1.356596E-04
5.115887E+03	6.808426E-03	1.357441E-04
5.125879E+03	6.870466E-03	1.359496E-04
5.135871E+03	6.939127E-03	1.362715E-04
5.145863E+03	7.014567E-03	1.367117E-04
5.155855E+03	7.096686E-03	1.372670E-04
5.165847E+03	7.185412E-03	1.379353E-04
5.175839E+03	7.280636E-03	1.387137E-04
5.185831E+03	7.382126E-03	1.395977E-04
5.195823E+03	7.489687E-03	1.405836E-04
5.205815E+03	7.603008E-03	1.416660E-04
5.215806E+03	7.721970E-03	1.428436E-04
5.225798E+03	7.846035E-03	1.441078E-04
5.235790E+03	7.974945E-03	1.454555E-04
5.245782E+03	8.108335E-03	1.468826E-04
5.255774E+03	8.245819E-03	1.483849E-04
5.265766E+03	8.386820E-03	1.499554E-04
5.275758E+03	8.530992E-03	1.515917E-04
5.285750E+03	8.677801E-03	1.532891E-04
5.295742E+03	8.826777E-03	1.550441E-04
5.305734E+03	8.977345E-03	1.568522E-04
5.315726E+03	9.129085E-03	1.587122E-04
5.325718E+03	9.281277E-03	1.606182E-04
5.335710E+03	9.433341E-03	1.625671E-04
5.345702E+03	9.584559E-03	1.645540E-04
5.355694E+03	9.734350E-03	1.665767E-04
5.365686E+03	9.881672E-03	1.686255E-04
5.375678E+03	1.002580E-02	1.706962E-04
5.385670E+03	1.016572E-02	1.727802E-04
5.395662E+03	1.030036E-02	1.748676E-04
5.405654E+03	1.042841E-02	1.769443E-04
5.415646E+03	1.054879E-02	1.790002E-04
5.425638E+03	1.066059E-02	1.810274E-04
5.435630E+03	1.076277E-02	1.830151E-04
5.445622E+03	1.085507E-02	1.849650E-04
5.455614E+03	1.093723E-02	1.868783E-04
5.465606E+03	1.100944E-02	1.887626E-04
5.475598E+03	1.107260E-02	1.906361E-04
5.485590E+03	1.112720E-02	1.925069E-04
5.495582E+03	1.117418E-02	1.943893E-04
5.505574E+03	1.121429E-02	1.962929E-04
5.515565E+03	1.124858E-02	1.982331E-04
5.525557E+03	1.127753E-02	2.002143E-04
5.535549E+03	1.130196E-02	2.022471E-04
5.545541E+03	1.132244E-02	2.043375E-04
5.555533E+03	1.133992E-02	2.064977E-04
5.565525E+03	1.135485E-02	2.087317E-04
5.575517E+03	1.136792E-02	2.110478E-04
5.585509E+03	1.137969E-02	2.134521E-04
5.595501E+03	1.139096E-02	2.159554E-04
5.605493E+03	1.140212E-02	2.185617E-04
5.615485E+03	1.141380E-02	2.212793E-04
5.625477E+03	1.142658E-02	2.241165E-04
5.635469E+03	1.144086E-02	2.270785E-04
5.645461E+03	1.145712E-02	2.301726E-04
5.655453E+03	1.147552E-02	2.334003E-04
5.665445E+03	1.149640E-02	2.367669E-04
5.675437E+03	1.152002E-02	2.402766E-04
5.685429E+03	1.154643E-02	2.439294E-04
5.695421E+03	1.157559E-02	2.477241E-04
5.705413E+03	1.160737E-02	2.516573E-04
5.715405E+03	1.164180E-02	2.557293E-04
5.725397E+03	1.167835E-02	2.599277E-04
5.735389E+03	1.171687E-02	2.642488E-04
5.745381E+03	1.175691E-02	2.686816E-04
5.755373E+03	1.179783E-02	2.732103E-04
5.765365E+03	1.183917E-02	2.778229E-04
5.775357E+03	1.188044E-02	2.825059E-04
5.785349E+03	1.192087E-02	2.872387E-04
5.795341E+03	1.195980E-02	2.920022E-04
5.805333E+03	1.199682E-02	2.967831E-04
5.815324E+03	1.203105E-02	3.015554E-04
5.825316E+03	1.206201E-02	3.063023E-04
5.835308E+03	1.208914E-02	3.110048E-04
5.845300E+03	1.211196E-02	3.156443E-04
5.855292E+03	1.213019E-02	3.202072E-04
5.865284E+03	1.214324E-02	3.246721E-04
5.875276E+03	1.215117E-02	3.290329E-04
5.885268E+03	1.215372E-02	3.332759E-04
5.895260E+03	1.215085E-02	3.373930E-04
5.905252E+03	1.214268E-02	3.413804E-04
5.915244E+03	1.212942E-02	3.452365E-04
5.925236E+03	1.211146E-02	3.489664E-04
5.935228E+03	1.208896E-02	3.525680E-04
5.945220E+03	1.206239E-02	3.560491E-04
5.955212E+03	1.203245E-02	3.594248E-04
5.965204E+03	1.199972E-02	3.627083E-04
5.975196E+03	1.196465E-02	3.659084E-04
5.985188E+03	1.192820E-02	3.690518E-04
5.995180E+03	1.189072E-02	3.721465E-04
6.005172E+03	1.185338E-02	3.752275E-04
6.015164E+03	1.181654E-02	3.783055E-04
6.025156E+03	1.178097E-02	3.814046E-04
6.035148E+03	1.174756E-02	3.845548E-04
6.045140E+03	1.171689E-02	3.877770E-04
6.055132E+03	1.168968E-02	3.910968E-04
6.065124E+03	1.166629E-02	3.945297E-04
6.075116E+03	1.164761E-02	3.981095E-04
6.085108E+03	1.163377E-02	4.018452E-04
6.095100E+03	1.162554E-02	4.057680E-04
6.105092E+03	1.162319E-02	4.098931E-04
6.115083E+03	1.162692E-02	4.142335E-04
6.125075E+03	1.163700E-02	4.188046E-04
6.135067E+03	1.165375E-02	4.236245E-04
6.145059E+03	1.167709E-02	4.286972E-04
6.155051E+03	1.170704E-02	4.340300E-04
6.165043E+03	1.174379E-02	4.396362E-04
6.175035E+03	1.178683E-02	4.455041E-04
6.185027E+03	1.183603E-02	4.516346E-04
6.195019E+03	1.189116E-02	4.580250E-04
6.205011E+03	1.195187E-02	4.646677E-04
6.215003E+03	1.201743E-02	4.715399E-04
6.224995E+03	1.208715E-02	4.786190E-04
6.234987E+03	1.216047E-02	4.858858E-04
6.244979E+03	1.223634E-02	4.933025E-04
6.254971E+03	1.231402E-02	5.008406E-04
6.264963E+03	1.239250E-02	5.084604E-04
6.274955E+03	1.247093E-02	5.161269E-04
6.284947E+03	1.254818E-02	5.237927E-04
6.294939E+03	1.262315E-02	5.314094E-04
6.304931E+03	1.269486E-02	5.389326E-04
6.314923E+03	1.276230E-02	5.463156E-04
6.324915E+03	1.282417E-02	5.534968E-04
6.334907E+03	1.287949E-02	5.604273E-04
6.344899E+03	1.292737E-02	5.670611E-04
6.354891E+03	1.296655E-02	5.733340E-04
6.364883E+03	1.299645E-02	5.792102E-04
6.374875E+03	1.301614E-02	5.846391E-04
6.384867E+03	1.302482E-02	5.895723E-04
6.394859E+03	1.302177E-02	5.939654E-04
6.404851E+03	1.300675E-02	5.977957E-04
6.414842E+03	1.297911E-02	6.010196E-04
6.424834E+03	1.293885E-02	6.036241E-04
6.434826E+03	1.288576E-02	6.055862E-04
6.444818E+03	1.281971E-02	6.068868E-04
6.454810E+03	1.274095E-02	6.075238E-04
6.464802E+03	1.264960E-02	6.074903E-04
6.474794E+03	1.254613E-02	6.067966E-04
6.484786E+03	1.243056E-02	6.054307E-04
6.494778E+03	1.230375E-02	6.034231E-04
6.504770E+03	1.216631E-02	6.007927E-04
6.514762E+03	1.201872E-02	5.975529E-04
6.524754E+03	1.186194E-02	5.937414E-04
6.534746E+03	1.169679E-02	5.893915E-04
6.544738E+03	1.152415E-02	5.845385E-04
6.554730E+03	1.134491E-02	5.792221E-04
6.564722E+03	1.116022E-02	5.734943E-04
6.574714E+03	1.097083E-02	5.673897E-04
6.584706E+03	1.077770E-02	5.609531E-04
6.594698E+03	1.058193E-02	5.542401E-04
6.604690E+03	1.038444E-02	5.472966E-04
6.614682E+03	1.018594E-02	5.401591E-04
6.624674E+03	9.987444E-03	5.328815E-04
6.634666E+03	9.789586E-03	5.254982E-04
6.644658E+03	9.593441E-03	5.180685E-04
6.654650E+03	9.399367E-03	5.106141E-04
6.664642E+03	9.208002E-03	5.031726E-04
6.674634E+03	9.020075E-03	4.957871E-04
6.684626E+03	8.836091E-03	4.884895E-04
6.694618E+03	8.656345E-03	4.813005E-04
6.704609E+03	8.481230E-03	4.742467E-04
6.714601E+03	8.311222E-03	4.673598E-04
6.724593E+03	8.146448E-03	4.606524E-04
6.734585E+03	7.987273E-03	4.541507E-04
6.744577E+03	7.833586E-03	4.478542E-04
6.754569E+03	7.685795E-03	4.417918E-04
6.764561E+03	7.543705E-03	4.359584E-04
6.774553E+03	7.407638E-03	4.303784E-04
6.784545E+03	7.277333E-03	4.250425E-04
6.794537E+03	7.152906E-03	4.199634E-04
6.804529E+03	7.034308E-03	4.151440E-04
6.814521E+03	6.921339E-03	4.105780E-04
6.824513E+03	6.814037E-03	4.062734E-04
6.834505E+03	6.712165E-03	4.022213E-04
6.844497E+03	6.615725E-03	3.984272E-04
6.854489E+03	6.524334E-03	3.948731E-04
6.864481E+03	6.438089E-03	3.915698E-04
6.874473E+03	6.356718E-03	3.885054E-04
6.884465E+03	6.280056E-03	3.856746E-04
6.894457E+03	6.207824E-03	3.830644E-04
6.904449E+03	6.140088E-03	3.806833E-04
6.914441E+03	6.076326E-03	3.785028E-04
6.924433E+03	6.016718E-03	3.765379E-04
6.934425E+03	5.960859E-03	3.747669E-04
6.944417E+03	5.908579E-03	3.731827E-04
6.954409E+03	5.859821E-03	3.717848E-04
6.964401E+03	5.814305E-03	3.705586E-04
6.974393E+03	5.771862E-03	3.694962E-04
6.984385E+03	5.732328E-03	3.685899E-04
6.994377E+03	5.695540E-03	3.678317E-04
7.004368E+03	5.661336E-03	3.672136E-04
7.014360E+03	5.629448E-03	3.667205E-04
7.024352E+03	5.599942E-03	3.663587E-04
7.034344E+03	5.572333E-03	3.660984E-04
7.044336E+03	5.546803E-03	3.659533E-04
7.054328E+03	5.522871E-03	3.658935E-04
7.064320E+03	5.500614E-03	3.659254E-04
7.074312E+03	5.479781E-03	3.660336E-04
7.084304E+03	5.460231E-03	3.662101E-04
7.094296E+03	5.441939E-03	3.664542E-04
7.104288E+03	5.424553E-03	3.667432E-04
7.114280E+03	5.408054E-03	3.670767E-04
7.124272E+03	5.392208E-03	3.674394E-04
7.134264E+03	5.377002E-03	3.678311E-04
7.144256E+03	5.362318E-03	3.682443E-04
7.154248E+03	5.347935E-03	3.686640E-04
7.164240E+03	5.333852E-03	3.690908E-04
7.174232E+03	5.319747E-03	3.695023E-04
7.184224E+03	5.305741E-03	3.699071E-04
7.194216E+03	5.291630E-03	3.702911E-04
7.204208E+03	5.277216E-03	3.706403E-04
7.214200E+03	5.262528E-03	3.709566E-04
7.224192E+03	5.247486E-03	3.712343E-04
7.234184E+03	5.231913E-03	3.714604E-04
7.244176E+03	5.215745E-03	3.716301E-04
7.254168E+03	5.198925E-03	3.717391E-04
7.264160E+03	5.181400E-03	3.717829E-04
7.274152E+03	5.163129E-03	3.717583E-04
7.284144E+03	5.143858E-03	3.716463E-04
7.294136E+03	5.123771E-03	3.714598E-04
7.304127E+03	5.102739E-03	3.711886E-04
7.314119E+03	5.080638E-03	3.708233E-04
7.324111E+03	5.057565E-03	3.703702E-04
7.334103E+03	5.033304E-03	3.698128E-04
7.344095E+03	5.007860E-03	3.691506E-04
7.354087E+03	4.981240E-03	3.683836E-04
7.364079E+03	4.953357E-03	3.675044E-04
7.374071E+03	4.924334E-03	3.665215E-04
7.384063E+03	4.893883E-03	3.654126E-04
7.394055E+03	4.862245E-03	3.641949E-04
7.404047E+03	4.829243E-03	3.628544E-04
7.414039E+03	4.795019E-03	3.614008E-04
7.424031E+03	4.759508E-03	3.598287E-04
7.434023E+03	4.722753E-03	3.581405E-04
7.444015E+03	4.684895E-03	3.563462E-04
7.454007E+03	4.645876E-03	3.544407E-04
7.463999E+03	4.606035E-03	3.524493E-04
7.473991E+03	4.565213E-03	3.503594E-04
7.483983E+03	4.523643E-03	3.481886E-04
7.493975E+03	4.481265E-03	3.459316E-04
7.503967E+03	4.438402E-03	3.436131E-04
7.513959E+03	4.394985E-03	3.412278E-04
7.523951E+03	4.351040E-03	3.387773E-04
7.533943E+03	4.306689E-03	3.362709E-04
7.543935E+03	4.261952E-03	3.337102E-04
7.553927E+03	4.217032E-03	3.311109E-04
7.563919E+03	4.171760E-03	3.284599E-04
7.573911E+03	4.126242E-03	3.257654E-04
7.583903E+03	4.080580E-03	3.230355E-04
7.593895E+03	4.034692E-03	3.202637E-04
7.603886E+03	3.988678E-03	3.174581E-04
7.613878E+03	3.942454E-03	3.146119E-04
7.623870E+03	3.896204E-03	3.117400E-04
7.633862E+03	3.849756E-03	3.088287E-04
7.643854E+03	3.803290E-03	3.058925E-04
7.653846E+03	3.756638E-03	3.029180E-04
7.663838E+03	3.709976E-03	2.999195E-04
7.673830E+03	3.663139E-03	2.968838E-04
7.683822E+03	3.616305E-03	2.938253E-04
7.693814E+03	3.569393E-03	2.907377E-04
7.703806E+03	3.522412E-03	2.876217E-04
7.713798E+03	3.475372E-03	2.844784E-04
7.723790E+03	3.428285E-03	2.813088E-04
7.733782E+03	3.381162E-03	2.781140E-04
7.743774E+03	3.333940E-03	2.748888E-04
7.753766E+03	3.286791E-03	2.716477E-04
