#wls	flux	fluxerr
1.598715E+03	1.578815E-04	4.910821E-06
1.638682E+03	1.638769E-04	5.067554E-06
1.678650E+03	1.690059E-04	5.195048E-06
1.718618E+03	1.730248E-04	5.286300E-06
1.758586E+03	1.757131E-04	5.335221E-06
1.798554E+03	1.768857E-04	5.336970E-06
1.838522E+03	1.763469E-04	5.286546E-06
1.878490E+03	1.740473E-04	5.183491E-06
1.918458E+03	1.699865E-04	5.028859E-06
1.958425E+03	1.642773E-04	4.827047E-06
1.998393E+03	1.571502E-04	4.585823E-06
2.038361E+03	1.489964E-04	4.317440E-06
2.078329E+03	1.403729E-04	4.038614E-06
2.118297E+03	1.321183E-04	3.773651E-06
2.158265E+03	1.253804E-04	3.554921E-06
2.198233E+03	1.211903E-04	3.410537E-06
2.238200E+03	1.203619E-04	3.361648E-06
2.278168E+03	1.235736E-04	3.424937E-06
2.318136E+03	1.313779E-04	3.613010E-06
2.358104E+03	1.443303E-04	3.938060E-06
2.398072E+03	1.631372E-04	4.415845E-06
2.438040E+03	1.886298E-04	5.064840E-06
2.478008E+03	2.216469E-04	5.902966E-06
2.517976E+03	2.627431E-04	6.939865E-06
2.557943E+03	3.119030E-04	8.169714E-06
2.597911E+03	3.681663E-04	9.562133E-06
2.637879E+03	4.296123E-04	1.106281E-05
2.677847E+03	4.938429E-04	1.260694E-05
2.717815E+03	5.585066E-04	1.413301E-05
2.757783E+03	6.214500E-04	1.558660E-05
2.797751E+03	6.808743E-04	1.692406E-05
2.837718E+03	7.355194E-04	1.811663E-05
2.877686E+03	7.848050E-04	1.915337E-05
2.917654E+03	8.287662E-04	2.003877E-05
2.957622E+03	8.681448E-04	2.079425E-05
2.997590E+03	9.041133E-04	2.145086E-05
3.007582E+03	9.127768E-04	2.160469E-05
3.017574E+03	9.213390E-04	2.175514E-05
3.027566E+03	9.298264E-04	2.190287E-05
3.037558E+03	9.383074E-04	2.204950E-05
3.047550E+03	9.467941E-04	2.219531E-05
3.057542E+03	9.553192E-04	2.234107E-05
3.067534E+03	9.639288E-04	2.248786E-05
3.077526E+03	9.726285E-04	2.263580E-05
3.087518E+03	9.814438E-04	2.278546E-05
3.097510E+03	9.904427E-04	2.293841E-05
3.107502E+03	9.996103E-04	2.309427E-05
3.117494E+03	1.008992E-03	2.325406E-05
3.127486E+03	1.018593E-03	2.341788E-05
3.137477E+03	1.028500E-03	2.358768E-05
3.147469E+03	1.038675E-03	2.376256E-05
3.157461E+03	1.049165E-03	2.394351E-05
3.167453E+03	1.060011E-03	2.413145E-05
3.177445E+03	1.071237E-03	2.432686E-05
3.187437E+03	1.082822E-03	2.452922E-05
3.197429E+03	1.094848E-03	2.474032E-05
3.207421E+03	1.107295E-03	2.495963E-05
3.217413E+03	1.120202E-03	2.518795E-05
3.227405E+03	1.133564E-03	2.542514E-05
3.237397E+03	1.147417E-03	2.567194E-05
3.247389E+03	1.161778E-03	2.592860E-05
3.257381E+03	1.176658E-03	2.619534E-05
3.267373E+03	1.192050E-03	2.647190E-05
3.277365E+03	1.207983E-03	2.675886E-05
3.287357E+03	1.224467E-03	2.705636E-05
3.297349E+03	1.241490E-03	2.736404E-05
3.307341E+03	1.259076E-03	2.768238E-05
3.317333E+03	1.277209E-03	2.801093E-05
3.327325E+03	1.295914E-03	2.835014E-05
3.337317E+03	1.315172E-03	2.869955E-05
3.347309E+03	1.334983E-03	2.905907E-05
3.357301E+03	1.355346E-03	2.942861E-05
3.367293E+03	1.376262E-03	2.980810E-05
3.377285E+03	1.397729E-03	3.019745E-05
3.387277E+03	1.419724E-03	3.059606E-05
3.397269E+03	1.442267E-03	3.100432E-05
3.407261E+03	1.465318E-03	3.142127E-05
3.417253E+03	1.488919E-03	3.184779E-05
3.427244E+03	1.513030E-03	3.228293E-05
3.437236E+03	1.537659E-03	3.272679E-05
3.447228E+03	1.562809E-03	3.317943E-05
3.457220E+03	1.588471E-03	3.364053E-05
3.467212E+03	1.614668E-03	3.411059E-05
3.477204E+03	1.641385E-03	3.458918E-05
3.487196E+03	1.668596E-03	3.507572E-05
3.497188E+03	1.696295E-03	3.557003E-05
3.507180E+03	1.724448E-03	3.607138E-05
3.517172E+03	1.753070E-03	3.658001E-05
3.527164E+03	1.782087E-03	3.709435E-05
3.537156E+03	1.811516E-03	3.761472E-05
3.547148E+03	1.841332E-03	3.814059E-05
3.557140E+03	1.871536E-03	3.867195E-05
3.567132E+03	1.902088E-03	3.920793E-05
3.577124E+03	1.932973E-03	3.974818E-05
3.587116E+03	1.964223E-03	4.029334E-05
3.597108E+03	1.995781E-03	4.084222E-05
3.607100E+03	2.027684E-03	4.139553E-05
3.617092E+03	2.059927E-03	4.195314E-05
3.627084E+03	2.092480E-03	4.251443E-05
3.637076E+03	2.125339E-03	4.307926E-05
3.647068E+03	2.158523E-03	4.364803E-05
3.657060E+03	2.192007E-03	4.422018E-05
3.667052E+03	2.225834E-03	4.479658E-05
3.677044E+03	2.259954E-03	4.537618E-05
3.687036E+03	2.294390E-03	4.595942E-05
3.697028E+03	2.329136E-03	4.654618E-05
3.707020E+03	2.364214E-03	4.713684E-05
3.717012E+03	2.399592E-03	4.773078E-05
3.727003E+03	2.435289E-03	4.832835E-05
3.736995E+03	2.471295E-03	4.892933E-05
3.746987E+03	2.507626E-03	4.953401E-05
3.756979E+03	2.544270E-03	5.014213E-05
3.766971E+03	2.581237E-03	5.075389E-05
3.776963E+03	2.618510E-03	5.136895E-05
3.786955E+03	2.656072E-03	5.198692E-05
3.796947E+03	2.693978E-03	5.260889E-05
3.806939E+03	2.732151E-03	5.323334E-05
3.816931E+03	2.770618E-03	5.386080E-05
3.826923E+03	2.809402E-03	5.449169E-05
3.836915E+03	2.848446E-03	5.512490E-05
3.846907E+03	2.887741E-03	5.576029E-05
3.856899E+03	2.927307E-03	5.639817E-05
3.866891E+03	2.967130E-03	5.703834E-05
3.876883E+03	3.007200E-03	5.768058E-05
3.886875E+03	3.047472E-03	5.832403E-05
3.896867E+03	3.087957E-03	5.896894E-05
3.906859E+03	3.128640E-03	5.961499E-05
3.916851E+03	3.169499E-03	6.026182E-05
3.926843E+03	3.210515E-03	6.090906E-05
3.936835E+03	3.251667E-03	6.155633E-05
3.946827E+03	3.292962E-03	6.220382E-05
3.956819E+03	3.334378E-03	6.285111E-05
3.966811E+03	3.375863E-03	6.349726E-05
3.976803E+03	3.417453E-03	6.414300E-05
3.986795E+03	3.459097E-03	6.478738E-05
3.996787E+03	3.500801E-03	6.543059E-05
4.006779E+03	3.542544E-03	6.607225E-05
4.016771E+03	3.584270E-03	6.671138E-05
4.026762E+03	3.626023E-03	6.734883E-05
4.036754E+03	3.667746E-03	6.798365E-05
4.046746E+03	3.709453E-03	6.861609E-05
4.056738E+03	3.751119E-03	6.924579E-05
4.066730E+03	3.792724E-03	6.987243E-05
4.076722E+03	3.834247E-03	7.049571E-05
4.086714E+03	3.875701E-03	7.111591E-05
4.096706E+03	3.917029E-03	7.173207E-05
4.106698E+03	3.958211E-03	7.234391E-05
4.116690E+03	3.999292E-03	7.295232E-05
4.126682E+03	4.040182E-03	7.355575E-05
4.136674E+03	4.080893E-03	7.415449E-05
4.146666E+03	4.121398E-03	7.474817E-05
4.156658E+03	4.161673E-03	7.533644E-05
4.166650E+03	4.201694E-03	7.591895E-05
4.176642E+03	4.241430E-03	7.649524E-05
4.186634E+03	4.280853E-03	7.706493E-05
4.196626E+03	4.319930E-03	7.762753E-05
4.206618E+03	4.358629E-03	7.818258E-05
4.216610E+03	4.396912E-03	7.872953E-05
4.226602E+03	4.434704E-03	7.926712E-05
4.236594E+03	4.471961E-03	7.979475E-05
4.246586E+03	4.508678E-03	8.031244E-05
4.256578E+03	4.544807E-03	8.081947E-05
4.266570E+03	4.580218E-03	8.131367E-05
4.276562E+03	4.614892E-03	8.179488E-05
4.286554E+03	4.648774E-03	8.226224E-05
4.296546E+03	4.681799E-03	8.271480E-05
4.306538E+03	4.713902E-03	8.315156E-05
4.316530E+03	4.744972E-03	8.357074E-05
4.326521E+03	4.775025E-03	8.397279E-05
4.336513E+03	4.803905E-03	8.435514E-05
4.346505E+03	4.831626E-03	8.471824E-05
4.356497E+03	4.858130E-03	8.506122E-05
4.366489E+03	4.883400E-03	8.538400E-05
4.376481E+03	4.907395E-03	8.568602E-05
4.386473E+03	4.930118E-03	8.596752E-05
4.396465E+03	4.951536E-03	8.622811E-05
4.406457E+03	4.971713E-03	8.646904E-05
4.416449E+03	4.990623E-03	8.668994E-05
4.426441E+03	5.008242E-03	8.689048E-05
4.436433E+03	5.024634E-03	8.707185E-05
4.446425E+03	5.039770E-03	8.723361E-05
4.456417E+03	5.053667E-03	8.737612E-05
4.466409E+03	5.066385E-03	8.750048E-05
4.476401E+03	5.077841E-03	8.760534E-05
4.486393E+03	5.088096E-03	8.769175E-05
4.496385E+03	5.097160E-03	8.776001E-05
4.506377E+03	5.104998E-03	8.780949E-05
4.516369E+03	5.111619E-03	8.784044E-05
4.526361E+03	5.117037E-03	8.785311E-05
4.536353E+03	5.121265E-03	8.784778E-05
4.546345E+03	5.124322E-03	8.782479E-05
4.556337E+03	5.126177E-03	8.778367E-05
4.566329E+03	5.126807E-03	8.772404E-05
4.576321E+03	5.126338E-03	8.764808E-05
4.586313E+03	5.124704E-03	8.755467E-05
4.596305E+03	5.121894E-03	8.744367E-05
4.606297E+03	5.118004E-03	8.731670E-05
4.616289E+03	5.113081E-03	8.717461E-05
4.626280E+03	5.107036E-03	8.701588E-05
4.636272E+03	5.100081E-03	8.684412E-05
4.646264E+03	5.092086E-03	8.665713E-05
4.656256E+03	5.083228E-03	8.645794E-05
4.666248E+03	5.073539E-03	8.624706E-05
4.676240E+03	5.063061E-03	8.602522E-05
4.686232E+03	5.051837E-03	8.579313E-05
4.696224E+03	5.039920E-03	8.555172E-05
4.706216E+03	5.027464E-03	8.530356E-05
4.716208E+03	5.014485E-03	8.504891E-05
4.726200E+03	5.001046E-03	8.478884E-05
4.736192E+03	4.987269E-03	8.452539E-05
4.746184E+03	4.973129E-03	8.425813E-05
4.756176E+03	4.958854E-03	8.399089E-05
4.766168E+03	4.944373E-03	8.372247E-05
4.776160E+03	4.929872E-03	8.345600E-05
4.786152E+03	4.915438E-03	8.319292E-05
4.796144E+03	4.901057E-03	8.293299E-05
4.806136E+03	4.886871E-03	8.267859E-05
4.816128E+03	4.873018E-03	8.243204E-05
4.826120E+03	4.859494E-03	8.219326E-05
4.836112E+03	4.846443E-03	8.196467E-05
4.846104E+03	4.833956E-03	8.174779E-05
4.856096E+03	4.822079E-03	8.154342E-05
4.866088E+03	4.810910E-03	8.135319E-05
4.876080E+03	4.800591E-03	8.117948E-05
4.886072E+03	4.791170E-03	8.102312E-05
4.896064E+03	4.782791E-03	8.088657E-05
4.906056E+03	4.775451E-03	8.076975E-05
4.916047E+03	4.769294E-03	8.067513E-05
4.926039E+03	4.764414E-03	8.060432E-05
4.936031E+03	4.760856E-03	8.055811E-05
4.946023E+03	4.758762E-03	8.053891E-05
4.956015E+03	4.758176E-03	8.054750E-05
4.966007E+03	4.759235E-03	8.058626E-05
4.975999E+03	4.761980E-03	8.065593E-05
4.985991E+03	4.766497E-03	8.075801E-05
4.995983E+03	4.772821E-03	8.089317E-05
5.005975E+03	4.781134E-03	8.106454E-05
5.015967E+03	4.791415E-03	8.127188E-05
5.025959E+03	4.803740E-03	8.151656E-05
5.035951E+03	4.818231E-03	8.180072E-05
5.045943E+03	4.834904E-03	8.212479E-05
5.055935E+03	4.853825E-03	8.248997E-05
5.065927E+03	4.875051E-03	8.289736E-05
5.075919E+03	4.898635E-03	8.334801E-05
5.085911E+03	4.924576E-03	8.384206E-05
5.095903E+03	4.952911E-03	8.438030E-05
5.105895E+03	4.983727E-03	8.496438E-05
5.115887E+03	5.016948E-03	8.559320E-05
5.125879E+03	5.052699E-03	8.626907E-05
5.135871E+03	5.090834E-03	8.698971E-05
5.145863E+03	5.131462E-03	8.775720E-05
5.155855E+03	5.174524E-03	8.857077E-05
5.165847E+03	5.220007E-03	8.943043E-05
5.175839E+03	5.267889E-03	9.033606E-05
5.185831E+03	5.318084E-03	9.128643E-05
5.195823E+03	5.370549E-03	9.228110E-05
5.205815E+03	5.425180E-03	9.331854E-05
5.215806E+03	5.482026E-03	9.439989E-05
5.225798E+03	5.540853E-03	9.552142E-05
5.235790E+03	5.601638E-03	9.668302E-05
5.245782E+03	5.664296E-03	9.788354E-05
5.255774E+03	5.728734E-03	9.912169E-05
5.265766E+03	5.794738E-03	1.003941E-04
5.275758E+03	5.862260E-03	1.017002E-04
5.285750E+03	5.931132E-03	1.030374E-04
5.295742E+03	6.001244E-03	1.044042E-04
5.305734E+03	6.072422E-03	1.057978E-04
5.315726E+03	6.144619E-03	1.072178E-04
5.325718E+03	6.217606E-03	1.086604E-04
5.335710E+03	6.291281E-03	1.101242E-04
5.345702E+03	6.365492E-03	1.116069E-04
5.355694E+03	6.440218E-03	1.131083E-04
5.365686E+03	6.515202E-03	1.146243E-04
5.375678E+03	6.590449E-03	1.161552E-04
5.385670E+03	6.665853E-03	1.176995E-04
5.395662E+03	6.741312E-03	1.192556E-04
5.405654E+03	6.816594E-03	1.208198E-04
5.415646E+03	6.891594E-03	1.223904E-04
5.425638E+03	6.966193E-03	1.239656E-04
5.435630E+03	7.039965E-03	1.255380E-04
5.445622E+03	7.112727E-03	1.271046E-04
5.455614E+03	7.184057E-03	1.286578E-04
5.465606E+03	7.253648E-03	1.301925E-04
5.475598E+03	7.321550E-03	1.317095E-04
5.485590E+03	7.387531E-03	1.332046E-04
5.495582E+03	7.451663E-03	1.346789E-04
5.505574E+03	7.513891E-03	1.361313E-04
5.515565E+03	7.574410E-03	1.375650E-04
5.525557E+03	7.633057E-03	1.389770E-04
5.535549E+03	7.689923E-03	1.403688E-04
5.545541E+03	7.744960E-03	1.417391E-04
5.555533E+03	7.798377E-03	1.430916E-04
5.565525E+03	7.850084E-03	1.444244E-04
5.575517E+03	7.900163E-03	1.457388E-04
5.585509E+03	7.948622E-03	1.470347E-04
5.595501E+03	7.995646E-03	1.483152E-04
5.605493E+03	8.041179E-03	1.495791E-04
5.615485E+03	8.085331E-03	1.508281E-04
5.625477E+03	8.128219E-03	1.520643E-04
5.635469E+03	8.169876E-03	1.532880E-04
5.645461E+03	8.210414E-03	1.545010E-04
5.655453E+03	8.249777E-03	1.557020E-04
5.665445E+03	8.288073E-03	1.568930E-04
5.675437E+03	8.325405E-03	1.580755E-04
5.685429E+03	8.361790E-03	1.592497E-04
5.695421E+03	8.397232E-03	1.604154E-04
5.705413E+03	8.431733E-03	1.615725E-04
5.715405E+03	8.465465E-03	1.627240E-04
5.725397E+03	8.498242E-03	1.638662E-04
5.735389E+03	8.530223E-03	1.650018E-04
5.745381E+03	8.561391E-03	1.661303E-04
5.755373E+03	8.591630E-03	1.672492E-04
5.765365E+03	8.621003E-03	1.683596E-04
5.775357E+03	8.649574E-03	1.694624E-04
5.785349E+03	8.677220E-03	1.705549E-04
5.795341E+03	8.703909E-03	1.716363E-04
5.805333E+03	8.729805E-03	1.727096E-04
5.815324E+03	8.754691E-03	1.737702E-04
5.825316E+03	8.778640E-03	1.748192E-04
5.835308E+03	8.801637E-03	1.758562E-04
5.845300E+03	8.823671E-03	1.768806E-04
5.855292E+03	8.844836E-03	1.778940E-04
5.865284E+03	8.864943E-03	1.788923E-04
5.875276E+03	8.884201E-03	1.798795E-04
5.885268E+03	8.902533E-03	1.808537E-04
5.895260E+03	8.919972E-03	1.818153E-04
5.905252E+03	8.936559E-03	1.827649E-04
5.915244E+03	8.952345E-03	1.837033E-04
5.925236E+03	8.967491E-03	1.846336E-04
5.935228E+03	8.981863E-03	1.855526E-04
5.945220E+03	8.995538E-03	1.864618E-04
5.955212E+03	9.008699E-03	1.873647E-04
5.965204E+03	9.021439E-03	1.882631E-04
5.975196E+03	9.033644E-03	1.891545E-04
5.985188E+03	9.045619E-03	1.900449E-04
5.995180E+03	9.057152E-03	1.909298E-04
6.005172E+03	9.068656E-03	1.918178E-04
6.015164E+03	9.079916E-03	1.927042E-04
6.025156E+03	9.091023E-03	1.935908E-04
6.035148E+03	9.102181E-03	1.944818E-04
6.045140E+03	9.113363E-03	1.953766E-04
6.055132E+03	9.124649E-03	1.962768E-04
6.065124E+03	9.135887E-03	1.971791E-04
6.075116E+03	9.147354E-03	1.980893E-04
6.085108E+03	9.158759E-03	1.990012E-04
6.095100E+03	9.170356E-03	1.999202E-04
6.105092E+03	9.182045E-03	2.008440E-04
6.115083E+03	9.193711E-03	2.017701E-04
6.125075E+03	9.205333E-03	2.026979E-04
6.135067E+03	9.216984E-03	2.036289E-04
6.145059E+03	9.228494E-03	2.045594E-04
6.155051E+03	9.239784E-03	2.054874E-04
6.165043E+03	9.250991E-03	2.064159E-04
6.175035E+03	9.261770E-03	2.073371E-04
6.185027E+03	9.272103E-03	2.082504E-04
6.195019E+03	9.281958E-03	2.091549E-04
6.205011E+03	9.291288E-03	2.100494E-04
6.215003E+03	9.299792E-03	2.109268E-04
6.224995E+03	9.307272E-03	2.117824E-04
6.234987E+03	9.313637E-03	2.126139E-04
6.244979E+03	9.318542E-03	2.134131E-04
6.254971E+03	9.321873E-03	2.141768E-04
6.264963E+03	9.323390E-03	2.148992E-04
6.274955E+03	9.322967E-03	2.155770E-04
6.284947E+03	9.320354E-03	2.162037E-04
6.294939E+03	9.315297E-03	2.167730E-04
6.304931E+03	9.307675E-03	2.172815E-04
6.314923E+03	9.297367E-03	2.177256E-04
6.324915E+03	9.284006E-03	2.180961E-04
6.334907E+03	9.267492E-03	2.183900E-04
6.344899E+03	9.247734E-03	2.186043E-04
6.354891E+03	9.224398E-03	2.187304E-04
6.364883E+03	9.197558E-03	2.187691E-04
6.374875E+03	9.167044E-03	2.187156E-04
6.384867E+03	9.132707E-03	2.185656E-04
6.394859E+03	9.094423E-03	2.183150E-04
6.404851E+03	9.052349E-03	2.179669E-04
6.414842E+03	9.006276E-03	2.175152E-04
6.424834E+03	8.956415E-03	2.169642E-04
6.434826E+03	8.902737E-03	2.163124E-04
6.444818E+03	8.845242E-03	2.155589E-04
6.454810E+03	8.784087E-03	2.147066E-04
6.464802E+03	8.719318E-03	2.137559E-04
6.474794E+03	8.651142E-03	2.127110E-04
6.484786E+03	8.579390E-03	2.115671E-04
6.494778E+03	8.504445E-03	2.103329E-04
6.504770E+03	8.426447E-03	2.090110E-04
6.514762E+03	8.345423E-03	2.076015E-04
6.524754E+03	8.261681E-03	2.061114E-04
6.534746E+03	8.175411E-03	2.045450E-04
6.544738E+03	8.086819E-03	2.029068E-04
6.554730E+03	7.996123E-03	2.012018E-04
6.564722E+03	7.903673E-03	1.994385E-04
6.574714E+03	7.809576E-03	1.976192E-04
6.584706E+03	7.714067E-03	1.957495E-04
6.594698E+03	7.617516E-03	1.938385E-04
6.604690E+03	7.520158E-03	1.918920E-04
6.614682E+03	7.422109E-03	1.899129E-04
6.624674E+03	7.323729E-03	1.879103E-04
6.634666E+03	7.225125E-03	1.858869E-04
6.644658E+03	7.126765E-03	1.838547E-04
6.654650E+03	7.028624E-03	1.818132E-04
6.664642E+03	6.930909E-03	1.797678E-04
6.674634E+03	6.833940E-03	1.777270E-04
6.684626E+03	6.737903E-03	1.756959E-04
6.694618E+03	6.642857E-03	1.736760E-04
6.704609E+03	6.548967E-03	1.716722E-04
6.714601E+03	6.456501E-03	1.696916E-04
6.724593E+03	6.365483E-03	1.677353E-04
6.734585E+03	6.276154E-03	1.658099E-04
6.744577E+03	6.188405E-03	1.639130E-04
6.754569E+03	6.102559E-03	1.620534E-04
6.764561E+03	6.018488E-03	1.602282E-04
6.774553E+03	5.936488E-03	1.584457E-04
6.784545E+03	5.856409E-03	1.567024E-04
6.794537E+03	5.778414E-03	1.550030E-04
6.804529E+03	5.702549E-03	1.533493E-04
6.814521E+03	5.628744E-03	1.517397E-04
6.824513E+03	5.557129E-03	1.501783E-04
6.834505E+03	5.487615E-03	1.486632E-04
6.844497E+03	5.420316E-03	1.471978E-04
6.854489E+03	5.355029E-03	1.457772E-04
6.864481E+03	5.291948E-03	1.444070E-04
6.874473E+03	5.230959E-03	1.430846E-04
6.884465E+03	5.172044E-03	1.418100E-04
6.894457E+03	5.115081E-03	1.405802E-04
6.904449E+03	5.060233E-03	1.394002E-04
6.914441E+03	5.007176E-03	1.382614E-04
6.924433E+03	4.956161E-03	1.371712E-04
6.934425E+03	4.906953E-03	1.361234E-04
6.944417E+03	4.859508E-03	1.351172E-04
6.954409E+03	4.813870E-03	1.341543E-04
6.964401E+03	4.769895E-03	1.332309E-04
6.974393E+03	4.727531E-03	1.323459E-04
6.984385E+03	4.686722E-03	1.314981E-04
6.994377E+03	4.647414E-03	1.306864E-04
7.004368E+03	4.609547E-03	1.299092E-04
7.014360E+03	4.572972E-03	1.291627E-04
7.024352E+03	4.537811E-03	1.284507E-04
7.034344E+03	4.503735E-03	1.277640E-04
7.044336E+03	4.470952E-03	1.271089E-04
7.054328E+03	4.439135E-03	1.264761E-04
7.064320E+03	4.408402E-03	1.258694E-04
7.074312E+03	4.378604E-03	1.252846E-04
7.084304E+03	4.349682E-03	1.247203E-04
7.094296E+03	4.321666E-03	1.241775E-04
7.104288E+03	4.294323E-03	1.236496E-04
7.114280E+03	4.267683E-03	1.231377E-04
7.124272E+03	4.241605E-03	1.226379E-04
7.134264E+03	4.216121E-03	1.221512E-04
7.144256E+03	4.191175E-03	1.216760E-04
7.154248E+03	4.166634E-03	1.212087E-04
7.164240E+03	4.142529E-03	1.207502E-04
7.174232E+03	4.118644E-03	1.202942E-04
7.184224E+03	4.095101E-03	1.198446E-04
7.194216E+03	4.071772E-03	1.193974E-04
7.204208E+03	4.048529E-03	1.189491E-04
7.214200E+03	4.025415E-03	1.185009E-04
7.224192E+03	4.002391E-03	1.180518E-04
7.234184E+03	3.979338E-03	1.175982E-04
7.244176E+03	3.956224E-03	1.171392E-04
7.254168E+03	3.933015E-03	1.166738E-04
7.264160E+03	3.909683E-03	1.162012E-04
7.274152E+03	3.886198E-03	1.157205E-04
7.284144E+03	3.862378E-03	1.152262E-04
7.294136E+03	3.838360E-03	1.147224E-04
7.304127E+03	3.814045E-03	1.142060E-04
7.314119E+03	3.789335E-03	1.136743E-04
7.324111E+03	3.764297E-03	1.131290E-04
7.334103E+03	3.738760E-03	1.125651E-04
7.344095E+03	3.712716E-03	1.119822E-04
7.354087E+03	3.686161E-03	1.113801E-04
7.364079E+03	3.659012E-03	1.107563E-04
7.374071E+03	3.631346E-03	1.101130E-04
7.384063E+03	3.602935E-03	1.094432E-04
7.394055E+03	3.573937E-03	1.087517E-04
7.404047E+03	3.544205E-03	1.080339E-04
7.414039E+03	3.513827E-03	1.072923E-04
7.424031E+03	3.482736E-03	1.065249E-04
7.434023E+03	3.450947E-03	1.057321E-04
7.444015E+03	3.418551E-03	1.049164E-04
7.454007E+03	3.385486E-03	1.040761E-04
7.463999E+03	3.351990E-03	1.032182E-04
7.473991E+03	3.317932E-03	1.023388E-04
7.483983E+03	3.283474E-03	1.014427E-04
7.493975E+03	3.248563E-03	1.005283E-04
7.503967E+03	3.213427E-03	9.960271E-05
7.513959E+03	3.178013E-03	9.866413E-05
7.523951E+03	3.142335E-03	9.771306E-05
7.533943E+03	3.106483E-03	9.675225E-05
7.543935E+03	3.070472E-03	9.578220E-05
7.553927E+03	3.034454E-03	9.480764E-05
7.563919E+03	2.998308E-03	9.382485E-05
7.573911E+03	2.962121E-03	9.283650E-05
7.583903E+03	2.925972E-03	9.184515E-05
7.593895E+03	2.889813E-03	9.084931E-05
7.603886E+03	2.853725E-03	8.985152E-05
7.613878E+03	2.817659E-03	8.885032E-05
7.623870E+03	2.781759E-03	8.785025E-05
7.633862E+03	2.745916E-03	8.684793E-05
7.643854E+03	2.710269E-03	8.584781E-05
7.653846E+03	2.674711E-03	8.484652E-05
7.663838E+03	2.639382E-03	8.384859E-05
7.673830E+03	2.604177E-03	8.285069E-05
7.683822E+03	2.569234E-03	8.185728E-05
7.693814E+03	2.534509E-03	8.086702E-05
7.703806E+03	2.500018E-03	7.988050E-05
7.713798E+03	2.465782E-03	7.889840E-05
7.723790E+03	2.431818E-03	7.792135E-05
7.733782E+03	2.398142E-03	7.694995E-05
7.743774E+03	2.364720E-03	7.598312E-05
7.753766E+03	2.331680E-03	7.502507E-05
