#wls	flux	fluxerr
1.598715E+03	9.236800E-05	3.115507E-06
1.638682E+03	9.288287E-05	3.100574E-06
1.678650E+03	9.284647E-05	3.066694E-06
1.718618E+03	9.221434E-05	3.013011E-06
1.758586E+03	9.096606E-05	2.939525E-06
1.798554E+03	8.910474E-05	2.847032E-06
1.838522E+03	8.662678E-05	2.736123E-06
1.878490E+03	8.359445E-05	2.609466E-06
1.918458E+03	8.007978E-05	2.469945E-06
1.958425E+03	7.619318E-05	2.321514E-06
1.998393E+03	7.208521E-05	2.169174E-06
2.038361E+03	6.796722E-05	2.019504E-06
2.078329E+03	6.410332E-05	1.880309E-06
2.118297E+03	6.080683E-05	1.760411E-06
2.158265E+03	5.842668E-05	1.669165E-06
2.198233E+03	5.728138E-05	1.614528E-06
2.238200E+03	5.768816E-05	1.603929E-06
2.278168E+03	6.001304E-05	1.645654E-06
2.318136E+03	6.451158E-05	1.744457E-06
2.358104E+03	7.140616E-05	1.903838E-06
2.398072E+03	8.103060E-05	2.129915E-06
2.438040E+03	9.380393E-05	2.430545E-06
2.478008E+03	1.101961E-04	2.814313E-06
2.517976E+03	1.306317E-04	3.288042E-06
2.557943E+03	1.554097E-04	3.854910E-06
2.597911E+03	1.845557E-04	4.511094E-06
2.637879E+03	2.177400E-04	5.244277E-06
2.677847E+03	2.544546E-04	6.038481E-06
2.717815E+03	2.941106E-04	6.876667E-06
2.757783E+03	3.359736E-04	7.739384E-06
2.797751E+03	3.792264E-04	8.606431E-06
2.837718E+03	4.230615E-04	9.459055E-06
2.877686E+03	4.667888E-04	1.028228E-05
2.917654E+03	5.098552E-04	1.106511E-05
2.957622E+03	5.519754E-04	1.180310E-05
2.997590E+03	5.930499E-04	1.249618E-05
3.007582E+03	6.031848E-04	1.266331E-05
3.017574E+03	6.132586E-04	1.282790E-05
3.027566E+03	6.232749E-04	1.299004E-05
3.037558E+03	6.332672E-04	1.315048E-05
3.047550E+03	6.432301E-04	1.330912E-05
3.057542E+03	6.531719E-04	1.346617E-05
3.067534E+03	6.631111E-04	1.362204E-05
3.077526E+03	6.730384E-04	1.377655E-05
3.087518E+03	6.829593E-04	1.392986E-05
3.097510E+03	6.929082E-04	1.408268E-05
3.107502E+03	7.028631E-04	1.423459E-05
3.117494E+03	7.128451E-04	1.438604E-05
3.127486E+03	7.228473E-04	1.453692E-05
3.137477E+03	7.329206E-04	1.468826E-05
3.147469E+03	7.430301E-04	1.483939E-05
3.157461E+03	7.531987E-04	1.499079E-05
3.167453E+03	7.634498E-04	1.514292E-05
3.177445E+03	7.737925E-04	1.529600E-05
3.187437E+03	7.842074E-04	1.544965E-05
3.197429E+03	7.947479E-04	1.560495E-05
3.207421E+03	8.053947E-04	1.576151E-05
3.217413E+03	8.161728E-04	1.591985E-05
3.227405E+03	8.270774E-04	1.607987E-05
3.237397E+03	8.381338E-04	1.624208E-05
3.247389E+03	8.493526E-04	1.640667E-05
3.257381E+03	8.607445E-04	1.657387E-05
3.267373E+03	8.723056E-04	1.674358E-05
3.277365E+03	8.840621E-04	1.691632E-05
3.287357E+03	8.960246E-04	1.709228E-05
3.297349E+03	9.081890E-04	1.727138E-05
3.307341E+03	9.205836E-04	1.745417E-05
3.317333E+03	9.332028E-04	1.764053E-05
3.327325E+03	9.460736E-04	1.783097E-05
3.337317E+03	9.591933E-04	1.802544E-05
3.347309E+03	9.725722E-04	1.822412E-05
3.357301E+03	9.862222E-04	1.842724E-05
3.367293E+03	1.000156E-03	1.863503E-05
3.377285E+03	1.014384E-03	1.884769E-05
3.387277E+03	1.028902E-03	1.906513E-05
3.397269E+03	1.043738E-03	1.928790E-05
3.407261E+03	1.058873E-03	1.951559E-05
3.417253E+03	1.074349E-03	1.974903E-05
3.427244E+03	1.090147E-03	1.998784E-05
3.437236E+03	1.106280E-03	2.023228E-05
3.447228E+03	1.122760E-03	2.048258E-05
3.457220E+03	1.139584E-03	2.073868E-05
3.467212E+03	1.156781E-03	2.100112E-05
3.477204E+03	1.174349E-03	2.126987E-05
3.487196E+03	1.192286E-03	2.154490E-05
3.497188E+03	1.210601E-03	2.182639E-05
3.507180E+03	1.229293E-03	2.211436E-05
3.517172E+03	1.248389E-03	2.240929E-05
3.527164E+03	1.267857E-03	2.271061E-05
3.537156E+03	1.287725E-03	2.301889E-05
3.547148E+03	1.307991E-03	2.333409E-05
3.557140E+03	1.328674E-03	2.365655E-05
3.567132E+03	1.349756E-03	2.398595E-05
3.577124E+03	1.371235E-03	2.432225E-05
3.587116E+03	1.393145E-03	2.466601E-05
3.597108E+03	1.415450E-03	2.501661E-05
3.607100E+03	1.438185E-03	2.537462E-05
3.617092E+03	1.461347E-03	2.573996E-05
3.627084E+03	1.484916E-03	2.611230E-05
3.637076E+03	1.508892E-03	2.649158E-05
3.647068E+03	1.533287E-03	2.687802E-05
3.657060E+03	1.558082E-03	2.727124E-05
3.667052E+03	1.583306E-03	2.767176E-05
3.677044E+03	1.608921E-03	2.807887E-05
3.687036E+03	1.634939E-03	2.849277E-05
3.697028E+03	1.661352E-03	2.891330E-05
3.707020E+03	1.688173E-03	2.934065E-05
3.717012E+03	1.715375E-03	2.977435E-05
3.727003E+03	1.742970E-03	3.021455E-05
3.736995E+03	1.770945E-03	3.066105E-05
3.746987E+03	1.799311E-03	3.111396E-05
3.756979E+03	1.828056E-03	3.157310E-05
3.766971E+03	1.857187E-03	3.203852E-05
3.776963E+03	1.886690E-03	3.250998E-05
3.786955E+03	1.916553E-03	3.298721E-05
3.796947E+03	1.946814E-03	3.347089E-05
3.806939E+03	1.977424E-03	3.396008E-05
3.816931E+03	2.008401E-03	3.445510E-05
3.826923E+03	2.039766E-03	3.495628E-05
3.836915E+03	2.071481E-03	3.546290E-05
3.846907E+03	2.103544E-03	3.597492E-05
3.856899E+03	2.135975E-03	3.649263E-05
3.866891E+03	2.168769E-03	3.701592E-05
3.876883E+03	2.201923E-03	3.754469E-05
3.886875E+03	2.235411E-03	3.807845E-05
3.896867E+03	2.269248E-03	3.861744E-05
3.906859E+03	2.303426E-03	3.916146E-05
3.916851E+03	2.337936E-03	3.971033E-05
3.926843E+03	2.372769E-03	4.026382E-05
3.936835E+03	2.407911E-03	4.082170E-05
3.946827E+03	2.443375E-03	4.138410E-05
3.956819E+03	2.479143E-03	4.195072E-05
3.966811E+03	2.515180E-03	4.252087E-05
3.976803E+03	2.551512E-03	4.309498E-05
3.986795E+03	2.588100E-03	4.367232E-05
3.996787E+03	2.624943E-03	4.425284E-05
4.006779E+03	2.662022E-03	4.483619E-05
4.016771E+03	2.699290E-03	4.542151E-05
4.026762E+03	2.736768E-03	4.600911E-05
4.036754E+03	2.774406E-03	4.659810E-05
4.046746E+03	2.812198E-03	4.718837E-05
4.056738E+03	2.850116E-03	4.777937E-05
4.066730E+03	2.888126E-03	4.837048E-05
4.076722E+03	2.926194E-03	4.896113E-05
4.086714E+03	2.964309E-03	4.955106E-05
4.096706E+03	3.002409E-03	5.013921E-05
4.106698E+03	3.040450E-03	5.072483E-05
4.116690E+03	3.078447E-03	5.130810E-05
4.126682E+03	3.116301E-03	5.188735E-05
4.136674E+03	3.153992E-03	5.246224E-05
4.146666E+03	3.191475E-03	5.303196E-05
4.156658E+03	3.228700E-03	5.359569E-05
4.166650E+03	3.265614E-03	5.415251E-05
4.176642E+03	3.302165E-03	5.470155E-05
4.186634E+03	3.338300E-03	5.524191E-05
4.196626E+03	3.373962E-03	5.577265E-05
4.206618E+03	3.409093E-03	5.629281E-05
4.216610E+03	3.443635E-03	5.680145E-05
4.226602E+03	3.477497E-03	5.729704E-05
4.236594E+03	3.510617E-03	5.777860E-05
4.246586E+03	3.542962E-03	5.824560E-05
4.256578E+03	3.574470E-03	5.869704E-05
4.266570E+03	3.605012E-03	5.913084E-05
4.276562E+03	3.634551E-03	5.954644E-05
4.286554E+03	3.663021E-03	5.994278E-05
4.296546E+03	3.690350E-03	6.031874E-05
4.306538E+03	3.716465E-03	6.067321E-05
4.316530E+03	3.741260E-03	6.100451E-05
4.326521E+03	3.764724E-03	6.131253E-05
4.336513E+03	3.786708E-03	6.159493E-05
4.346505E+03	3.807196E-03	6.185154E-05
4.356497E+03	3.826102E-03	6.208105E-05
4.366489E+03	3.843393E-03	6.228306E-05
4.376481E+03	3.859069E-03	6.245765E-05
4.386473E+03	3.873182E-03	6.260576E-05
4.396465E+03	3.885741E-03	6.272769E-05
4.406457E+03	3.896833E-03	6.282489E-05
4.416449E+03	3.906469E-03	6.289761E-05
4.426441E+03	3.914667E-03	6.294616E-05
4.436433E+03	3.921510E-03	6.297193E-05
4.446425E+03	3.927014E-03	6.297522E-05
4.456417E+03	3.931228E-03	6.295688E-05
4.466409E+03	3.934244E-03	6.291841E-05
4.476401E+03	3.936045E-03	6.285958E-05
4.486393E+03	3.936722E-03	6.278190E-05
4.496385E+03	3.936334E-03	6.268635E-05
4.506377E+03	3.934905E-03	6.257337E-05
4.516369E+03	3.932498E-03	6.244398E-05
4.526361E+03	3.929176E-03	6.229925E-05
4.536353E+03	3.925004E-03	6.214024E-05
4.546345E+03	3.920050E-03	6.196809E-05
4.556337E+03	3.914345E-03	6.178332E-05
4.566329E+03	3.907923E-03	6.158650E-05
4.576321E+03	3.900927E-03	6.137994E-05
4.586313E+03	3.893354E-03	6.116363E-05
4.596305E+03	3.885241E-03	6.093821E-05
4.606297E+03	3.876699E-03	6.070543E-05
4.616289E+03	3.867800E-03	6.046646E-05
4.626280E+03	3.858507E-03	6.022079E-05
4.636272E+03	3.849006E-03	5.997132E-05
4.646264E+03	3.839224E-03	5.971697E-05
4.656256E+03	3.829308E-03	5.946007E-05
4.666248E+03	3.819297E-03	5.920123E-05
4.676240E+03	3.809229E-03	5.894109E-05
4.686232E+03	3.799141E-03	5.868022E-05
4.696224E+03	3.789069E-03	5.841925E-05
4.706216E+03	3.779125E-03	5.815991E-05
4.716208E+03	3.769310E-03	5.790224E-05
4.726200E+03	3.759659E-03	5.764680E-05
4.736192E+03	3.750246E-03	5.739475E-05
4.746184E+03	3.741031E-03	5.714552E-05
4.756176E+03	3.732162E-03	5.690136E-05
4.766168E+03	3.723562E-03	5.666114E-05
4.776160E+03	3.715340E-03	5.642653E-05
4.786152E+03	3.707529E-03	5.619805E-05
4.796144E+03	3.700091E-03	5.597515E-05
4.806136E+03	3.693091E-03	5.575886E-05
4.816128E+03	3.686604E-03	5.555028E-05
4.826120E+03	3.680584E-03	5.534878E-05
4.836112E+03	3.675102E-03	5.515543E-05
4.846104E+03	3.670186E-03	5.497069E-05
4.856096E+03	3.665833E-03	5.479451E-05
4.866088E+03	3.662068E-03	5.462732E-05
4.876080E+03	3.658963E-03	5.447019E-05
4.886072E+03	3.656504E-03	5.432296E-05
4.896064E+03	3.654760E-03	5.418667E-05
4.906056E+03	3.653681E-03	5.406061E-05
4.916047E+03	3.653332E-03	5.394577E-05
4.926039E+03	3.653740E-03	5.384258E-05
4.936031E+03	3.654891E-03	5.375088E-05
4.946023E+03	3.656847E-03	5.367161E-05
4.956015E+03	3.659594E-03	5.360462E-05
4.966007E+03	3.663195E-03	5.355087E-05
4.975999E+03	3.667631E-03	5.351014E-05
4.985991E+03	3.672925E-03	5.348281E-05
4.995983E+03	3.679059E-03	5.346868E-05
5.005975E+03	3.686129E-03	5.346921E-05
5.015967E+03	3.694078E-03	5.348365E-05
5.025959E+03	3.702922E-03	5.351230E-05
5.035951E+03	3.712716E-03	5.355606E-05
5.045943E+03	3.723437E-03	5.361466E-05
5.055935E+03	3.735100E-03	5.368844E-05
5.065927E+03	3.747717E-03	5.377767E-05
5.075919E+03	3.761300E-03	5.388265E-05
5.085911E+03	3.775821E-03	5.400310E-05
5.095903E+03	3.791287E-03	5.413926E-05
5.105895E+03	3.807747E-03	5.429197E-05
5.115887E+03	3.825126E-03	5.446033E-05
5.125879E+03	3.843509E-03	5.464572E-05
5.135871E+03	3.862776E-03	5.484663E-05
5.145863E+03	3.883010E-03	5.506443E-05
5.155855E+03	3.904167E-03	5.529870E-05
5.165847E+03	3.926244E-03	5.554962E-05
5.175839E+03	3.949234E-03	5.581735E-05
5.185831E+03	3.973088E-03	5.610144E-05
5.195823E+03	3.997794E-03	5.640199E-05
5.205815E+03	4.023300E-03	5.671854E-05
5.215806E+03	4.049666E-03	5.705227E-05
5.225798E+03	4.076752E-03	5.740150E-05
5.235790E+03	4.104575E-03	5.776680E-05
5.245782E+03	4.133109E-03	5.814816E-05
5.255774E+03	4.162328E-03	5.854556E-05
5.265766E+03	4.192113E-03	5.895773E-05
5.275758E+03	4.222475E-03	5.938518E-05
5.285750E+03	4.253333E-03	5.982720E-05
5.295742E+03	4.284650E-03	6.028366E-05
5.305734E+03	4.316343E-03	6.075384E-05
5.315726E+03	4.348418E-03	6.123825E-05
5.325718E+03	4.380750E-03	6.173557E-05
5.335710E+03	4.413303E-03	6.224576E-05
5.345702E+03	4.446007E-03	6.276828E-05
5.355694E+03	4.478882E-03	6.330388E-05
5.365686E+03	4.511786E-03	6.385103E-05
5.375678E+03	4.544769E-03	6.441090E-05
5.385670E+03	4.577811E-03	6.498366E-05
5.395662E+03	4.610910E-03	6.556981E-05
5.405654E+03	4.644006E-03	6.616891E-05
5.415646E+03	4.677153E-03	6.678227E-05
5.425638E+03	4.710447E-03	6.741171E-05
5.435630E+03	4.743758E-03	6.805586E-05
5.445622E+03	4.776884E-03	6.871231E-05
5.455614E+03	4.809435E-03	6.937587E-05
5.465606E+03	4.841137E-03	7.004289E-05
5.475598E+03	4.871988E-03	7.071332E-05
5.485590E+03	4.901814E-03	7.138459E-05
5.495582E+03	4.930666E-03	7.205730E-05
5.505574E+03	4.958515E-03	7.273093E-05
5.515565E+03	4.985502E-03	7.340735E-05
5.525557E+03	5.011535E-03	7.408509E-05
5.535549E+03	5.036683E-03	7.476493E-05
5.545541E+03	5.060925E-03	7.544636E-05
5.555533E+03	5.084403E-03	7.613127E-05
5.565525E+03	5.107057E-03	7.681852E-05
5.575517E+03	5.128937E-03	7.750862E-05
5.585509E+03	5.150043E-03	7.820128E-05
5.595501E+03	5.170479E-03	7.889785E-05
5.605493E+03	5.190200E-03	7.959732E-05
5.615485E+03	5.209260E-03	8.030025E-05
5.625477E+03	5.227720E-03	8.100728E-05
5.635469E+03	5.245582E-03	8.171815E-05
5.645461E+03	5.262906E-03	8.243349E-05
5.655453E+03	5.279644E-03	8.315224E-05
5.665445E+03	5.295851E-03	8.387497E-05
5.675437E+03	5.311588E-03	8.460233E-05
5.685429E+03	5.326857E-03	8.533404E-05
5.695421E+03	5.341660E-03	8.606984E-05
5.705413E+03	5.356000E-03	8.680944E-05
5.715405E+03	5.369991E-03	8.755441E-05
5.725397E+03	5.383522E-03	8.830261E-05
5.735389E+03	5.396705E-03	8.905559E-05
5.745381E+03	5.409542E-03	8.981308E-05
5.755373E+03	5.421975E-03	9.057381E-05
5.765365E+03	5.434062E-03	9.133845E-05
5.775357E+03	5.445860E-03	9.210766E-05
5.785349E+03	5.457310E-03	9.288014E-05
5.795341E+03	5.468410E-03	9.365558E-05
5.805333E+03	5.479278E-03	9.443569E-05
5.815324E+03	5.489792E-03	9.521811E-05
5.825316E+03	5.500012E-03	9.600355E-05
5.835308E+03	5.509932E-03	9.679166E-05
5.845300E+03	5.519553E-03	9.758216E-05
5.855292E+03	5.528934E-03	9.837578E-05
5.865284E+03	5.537946E-03	9.917000E-05
5.875276E+03	5.546711E-03	9.996668E-05
5.885268E+03	5.555162E-03	1.007644E-04
5.895260E+03	5.563297E-03	1.015627E-04
5.905252E+03	5.571111E-03	1.023614E-04
5.915244E+03	5.578598E-03	1.031599E-04
5.925236E+03	5.585818E-03	1.039592E-04
5.935228E+03	5.592636E-03	1.047564E-04
5.945220E+03	5.599048E-03	1.055512E-04
5.955212E+03	5.605108E-03	1.063443E-04
5.965204E+03	5.610810E-03	1.071353E-04
5.975196E+03	5.616016E-03	1.079212E-04
5.985188E+03	5.620848E-03	1.087040E-04
5.995180E+03	5.625098E-03	1.094795E-04
6.005172E+03	5.628952E-03	1.102509E-04
6.015164E+03	5.632202E-03	1.110139E-04
6.025156E+03	5.634832E-03	1.117676E-04
6.035148E+03	5.636896E-03	1.125129E-04
6.045140E+03	5.638313E-03	1.132478E-04
6.055132E+03	5.639064E-03	1.139715E-04
6.065124E+03	5.639000E-03	1.146806E-04
6.075116E+03	5.638235E-03	1.153769E-04
6.085108E+03	5.636548E-03	1.160557E-04
6.095100E+03	5.634055E-03	1.167186E-04
6.105092E+03	5.630662E-03	1.173635E-04
6.115083E+03	5.626282E-03	1.179880E-04
6.125075E+03	5.620891E-03	1.185911E-04
6.135067E+03	5.614533E-03	1.191732E-04
6.145059E+03	5.607114E-03	1.197319E-04
6.155051E+03	5.598610E-03	1.202661E-04
6.165043E+03	5.589136E-03	1.207777E-04
6.175035E+03	5.578525E-03	1.212628E-04
6.185027E+03	5.566823E-03	1.217218E-04
6.195019E+03	5.554076E-03	1.221550E-04
6.205011E+03	5.540331E-03	1.225632E-04
6.215003E+03	5.525492E-03	1.229437E-04
6.224995E+03	5.509538E-03	1.232955E-04
6.234987E+03	5.492513E-03	1.236191E-04
6.244979E+03	5.474326E-03	1.239119E-04
6.254971E+03	5.455027E-03	1.241746E-04
6.264963E+03	5.434594E-03	1.244061E-04
6.274955E+03	5.413082E-03	1.246073E-04
6.284947E+03	5.390473E-03	1.247771E-04
6.294939E+03	5.366749E-03	1.249148E-04
6.304931E+03	5.341969E-03	1.250212E-04
6.314923E+03	5.316194E-03	1.250973E-04
6.324915E+03	5.289337E-03	1.251405E-04
6.334907E+03	5.261464E-03	1.251521E-04
6.344899E+03	5.232642E-03	1.251331E-04
6.354891E+03	5.202790E-03	1.250812E-04
6.364883E+03	5.172053E-03	1.249995E-04
6.374875E+03	5.140430E-03	1.248876E-04
6.384867E+03	5.107921E-03	1.247451E-04
6.394859E+03	5.074530E-03	1.245718E-04
6.404851E+03	5.040412E-03	1.243711E-04
6.414842E+03	5.005498E-03	1.241409E-04
6.424834E+03	4.969946E-03	1.238850E-04
6.434826E+03	4.933768E-03	1.236033E-04
6.444818E+03	4.896978E-03	1.232960E-04
6.454810E+03	4.859665E-03	1.229650E-04
6.464802E+03	4.821846E-03	1.226106E-04
6.474794E+03	4.783613E-03	1.222350E-04
6.484786E+03	4.744841E-03	1.218348E-04
6.494778E+03	4.705699E-03	1.214141E-04
6.504770E+03	4.666211E-03	1.209734E-04
6.514762E+03	4.626329E-03	1.205113E-04
6.524754E+03	4.586152E-03	1.200303E-04
6.534746E+03	4.545708E-03	1.195311E-04
6.544738E+03	4.505025E-03	1.190142E-04
6.554730E+03	4.464133E-03	1.184804E-04
6.564722E+03	4.423132E-03	1.179323E-04
6.574714E+03	4.381984E-03	1.173689E-04
6.584706E+03	4.340717E-03	1.167908E-04
6.594698E+03	4.299436E-03	1.162009E-04
6.604690E+03	4.258170E-03	1.156000E-04
6.614682E+03	4.216881E-03	1.149871E-04
6.624674E+03	4.175670E-03	1.143649E-04
6.634666E+03	4.134498E-03	1.137325E-04
6.644658E+03	4.093538E-03	1.130946E-04
6.654650E+03	4.052677E-03	1.124482E-04
6.664642E+03	4.011946E-03	1.117943E-04
6.674634E+03	3.971446E-03	1.111357E-04
6.684626E+03	3.931203E-03	1.104733E-04
6.694618E+03	3.891177E-03	1.098061E-04
6.704609E+03	3.851394E-03	1.091350E-04
6.714601E+03	3.811949E-03	1.084626E-04
6.724593E+03	3.772798E-03	1.077881E-04
6.734585E+03	3.734032E-03	1.071140E-04
6.744577E+03	3.695541E-03	1.064374E-04
6.754569E+03	3.657479E-03	1.057628E-04
6.764561E+03	3.619736E-03	1.050873E-04
6.774553E+03	3.582460E-03	1.044154E-04
6.784545E+03	3.545540E-03	1.037439E-04
6.794537E+03	3.509057E-03	1.030754E-04
6.804529E+03	3.473027E-03	1.024106E-04
6.814521E+03	3.437400E-03	1.017481E-04
6.824513E+03	3.402252E-03	1.010904E-04
6.834505E+03	3.367533E-03	1.004363E-04
6.844497E+03	3.333316E-03	9.978799E-05
6.854489E+03	3.299485E-03	9.914230E-05
6.864481E+03	3.266174E-03	9.850340E-05
6.874473E+03	3.233327E-03	9.786979E-05
6.884465E+03	3.200950E-03	9.724190E-05
6.894457E+03	3.168989E-03	9.661821E-05
6.904449E+03	3.137566E-03	9.600265E-05
6.914441E+03	3.106506E-03	9.539009E-05
6.924433E+03	3.075991E-03	9.478624E-05
6.934425E+03	3.045902E-03	9.418763E-05
6.944417E+03	3.016240E-03	9.359451E-05
6.954409E+03	2.987061E-03	9.300880E-05
6.964401E+03	2.958308E-03	9.242884E-05
6.974393E+03	2.929978E-03	9.185478E-05
6.984385E+03	2.902069E-03	9.128669E-05
6.994377E+03	2.874577E-03	9.072461E-05
7.004368E+03	2.847498E-03	9.016858E-05
7.014360E+03	2.820773E-03	8.961688E-05
7.024352E+03	2.794507E-03	8.907303E-05
7.034344E+03	2.768530E-03	8.853173E-05
7.044336E+03	2.743000E-03	8.799821E-05
7.054328E+03	2.717748E-03	8.746720E-05
7.064320E+03	2.692876E-03	8.694206E-05
7.074312E+03	2.668324E-03	8.642106E-05
7.084304E+03	2.644085E-03	8.590408E-05
7.094296E+03	2.620206E-03	8.539273E-05
7.104288E+03	2.596572E-03	8.488346E-05
7.114280E+03	2.573232E-03	8.437793E-05
7.124272E+03	2.550124E-03	8.387426E-05
7.134264E+03	2.527295E-03	8.337409E-05
7.144256E+03	2.504738E-03	8.287724E-05
7.154248E+03	2.482392E-03	8.238191E-05
7.164240E+03	2.460305E-03	8.188968E-05
7.174232E+03	2.438366E-03	8.139703E-05
7.184224E+03	2.416672E-03	8.090722E-05
7.194216E+03	2.395164E-03	8.041840E-05
7.204208E+03	2.373790E-03	7.992889E-05
7.214200E+03	2.352590E-03	7.944015E-05
7.224192E+03	2.331562E-03	7.895212E-05
7.234184E+03	2.310651E-03	7.846306E-05
7.244176E+03	2.289853E-03	7.797286E-05
7.254168E+03	2.269164E-03	7.748149E-05
7.264160E+03	2.248579E-03	7.698880E-05
7.274152E+03	2.228098E-03	7.649485E-05
7.284144E+03	2.207622E-03	7.599630E-05
7.294136E+03	2.187244E-03	7.549640E-05
7.304127E+03	2.166914E-03	7.499347E-05
7.314119E+03	2.146589E-03	7.448600E-05
7.324111E+03	2.126312E-03	7.397560E-05
7.334103E+03	2.105993E-03	7.345914E-05
7.344095E+03	2.085635E-03	7.293675E-05
7.354087E+03	2.065241E-03	7.240851E-05
7.364079E+03	2.044769E-03	7.187302E-05
7.374071E+03	2.024267E-03	7.133191E-05
7.384063E+03	2.003610E-03	7.078086E-05
7.394055E+03	1.982889E-03	7.022303E-05
7.404047E+03	1.962027E-03	6.965570E-05
7.414039E+03	1.941071E-03	6.908057E-05
7.424031E+03	1.919988E-03	6.849642E-05
7.434023E+03	1.898784E-03	6.790350E-05
7.444015E+03	1.877509E-03	6.730358E-05
7.454007E+03	1.856131E-03	6.669549E-05
7.463999E+03	1.834776E-03	6.608384E-05
7.473991E+03	1.813373E-03	6.546604E-05
7.483983E+03	1.792006E-03	6.484519E-05
7.493975E+03	1.770644E-03	6.422020E-05
7.503967E+03	1.749409E-03	6.359547E-05
7.513959E+03	1.728266E-03	6.296987E-05
7.523951E+03	1.707223E-03	6.234371E-05
7.533943E+03	1.686322E-03	6.171856E-05
7.543935E+03	1.665568E-03	6.109472E-05
7.553927E+03	1.645039E-03	6.047504E-05
7.563919E+03	1.624666E-03	5.985714E-05
7.573911E+03	1.604491E-03	5.924257E-05
7.583903E+03	1.584551E-03	5.863285E-05
7.593895E+03	1.564818E-03	5.802694E-05
7.603886E+03	1.545330E-03	5.742635E-05
7.613878E+03	1.526055E-03	5.683004E-05
7.623870E+03	1.507068E-03	5.624077E-05
7.633862E+03	1.488301E-03	5.565622E-05
7.643854E+03	1.469830E-03	5.507918E-05
7.653846E+03	1.451588E-03	5.450733E-05
7.663838E+03	1.433647E-03	5.394341E-05
7.673830E+03	1.415944E-03	5.338515E-05
7.683822E+03	1.398549E-03	5.283527E-05
7.693814E+03	1.381431E-03	5.229271E-05
7.703806E+03	1.364598E-03	5.175778E-05
7.713798E+03	1.348049E-03	5.123063E-05
7.723790E+03	1.331791E-03	5.071155E-05
7.733782E+03	1.315826E-03	5.020072E-05
7.743774E+03	1.300129E-03	4.969725E-05
7.753766E+03	1.284762E-03	4.920365E-05
