#wls	flux	fluxerr
1.598715E+03	9.961625E-05	7.881140E-06
1.638682E+03	9.895706E-05	7.742505E-06
1.678650E+03	9.779056E-05	7.564750E-06
1.718618E+03	9.611029E-05	7.348800E-06
1.758586E+03	9.393385E-05	7.097447E-06
1.798554E+03	9.129929E-05	6.814981E-06
1.838522E+03	8.823181E-05	6.504626E-06
1.878490E+03	8.481517E-05	6.173803E-06
1.918458E+03	8.113200E-05	5.829553E-06
1.958425E+03	7.729058E-05	5.480435E-06
1.998393E+03	7.342420E-05	5.136354E-06
2.038361E+03	6.970814E-05	4.809597E-06
2.078329E+03	6.635012E-05	4.513978E-06
2.118297E+03	6.360769E-05	4.265838E-06
2.158265E+03	6.180091E-05	4.084631E-06
2.198233E+03	6.121192E-05	3.986076E-06
2.238200E+03	6.208337E-05	3.982242E-06
2.278168E+03	6.464627E-05	4.083506E-06
2.318136E+03	6.913269E-05	4.299412E-06
2.358104E+03	7.580125E-05	4.640242E-06
2.398072E+03	8.495374E-05	5.117871E-06
2.438040E+03	9.692498E-05	5.744989E-06
2.478008E+03	1.120650E-04	6.533927E-06
2.517976E+03	1.306637E-04	7.492302E-06
2.557943E+03	1.529109E-04	8.621029E-06
2.597911E+03	1.788157E-04	9.910275E-06
2.637879E+03	2.081943E-04	1.133969E-05
2.677847E+03	2.406395E-04	1.287773E-05
2.717815E+03	2.755669E-04	1.448514E-05
2.757783E+03	3.122846E-04	1.611939E-05
2.797751E+03	3.500495E-04	1.773806E-05
2.837718E+03	3.881351E-04	1.930245E-05
2.877686E+03	4.259112E-04	2.078143E-05
2.917654E+03	4.628465E-04	2.215111E-05
2.957622E+03	4.986214E-04	2.339968E-05
2.997590E+03	5.330524E-04	2.452298E-05
3.007582E+03	5.414631E-04	2.478541E-05
3.017574E+03	5.497843E-04	2.504014E-05
3.027566E+03	5.580170E-04	2.528730E-05
3.037558E+03	5.661890E-04	2.552824E-05
3.047550E+03	5.742934E-04	2.576271E-05
3.057542E+03	5.823364E-04	2.599107E-05
3.067534E+03	5.903334E-04	2.621405E-05
3.077526E+03	5.982746E-04	2.643131E-05
3.087518E+03	6.061638E-04	2.664306E-05
3.097510E+03	6.140303E-04	2.685066E-05
3.107502E+03	6.218534E-04	2.705325E-05
3.117494E+03	6.296508E-04	2.725167E-05
3.127486E+03	6.374151E-04	2.744565E-05
3.137477E+03	6.451905E-04	2.763714E-05
3.147469E+03	6.529449E-04	2.782481E-05
3.157461E+03	6.606976E-04	2.800953E-05
3.167453E+03	6.684683E-04	2.819217E-05
3.177445E+03	6.762642E-04	2.837306E-05
3.187437E+03	6.840673E-04	2.855149E-05
3.197429E+03	6.919234E-04	2.872940E-05
3.207421E+03	6.998153E-04	2.890608E-05
3.217413E+03	7.077639E-04	2.908242E-05
3.227405E+03	7.157653E-04	2.925827E-05
3.237397E+03	7.238410E-04	2.943452E-05
3.247389E+03	7.320000E-04	2.961154E-05
3.257381E+03	7.402518E-04	2.978973E-05
3.267373E+03	7.485936E-04	2.996896E-05
3.277365E+03	7.570478E-04	3.015013E-05
3.287357E+03	7.656248E-04	3.033364E-05
3.297349E+03	7.743224E-04	3.051941E-05
3.307341E+03	7.831643E-04	3.070835E-05
3.317333E+03	7.921492E-04	3.090038E-05
3.327325E+03	8.013011E-04	3.109644E-05
3.337317E+03	8.106199E-04	3.129648E-05
3.347309E+03	8.201178E-04	3.150097E-05
3.357301E+03	8.298080E-04	3.171037E-05
3.367293E+03	8.397041E-04	3.192517E-05
3.377285E+03	8.498201E-04	3.214588E-05
3.387277E+03	8.601583E-04	3.237255E-05
3.397269E+03	8.707465E-04	3.260618E-05
3.407261E+03	8.815755E-04	3.284639E-05
3.417253E+03	8.926868E-04	3.309468E-05
3.427244E+03	9.040724E-04	3.335071E-05
3.437236E+03	9.157493E-04	3.361507E-05
3.447228E+03	9.277350E-04	3.388835E-05
3.457220E+03	9.400338E-04	3.417065E-05
3.467212E+03	9.526750E-04	3.446301E-05
3.477204E+03	9.656614E-04	3.476547E-05
3.487196E+03	9.789956E-04	3.507807E-05
3.497188E+03	9.926896E-04	3.540121E-05
3.507180E+03	1.006744E-03	3.573486E-05
3.517172E+03	1.021183E-03	3.607990E-05
3.527164E+03	1.035980E-03	3.643528E-05
3.537156E+03	1.051159E-03	3.680187E-05
3.547148E+03	1.066717E-03	3.717953E-05
3.557140E+03	1.082667E-03	3.756860E-05
3.567132E+03	1.098992E-03	3.796844E-05
3.577124E+03	1.115693E-03	3.837887E-05
3.587116E+03	1.132794E-03	3.880066E-05
3.597108E+03	1.150265E-03	3.923265E-05
3.607100E+03	1.168134E-03	3.967565E-05
3.617092E+03	1.186400E-03	4.012951E-05
3.627084E+03	1.205045E-03	4.059355E-05
3.637076E+03	1.224070E-03	4.106762E-05
3.647068E+03	1.243487E-03	4.155206E-05
3.657060E+03	1.263280E-03	4.204617E-05
3.667052E+03	1.283473E-03	4.255070E-05
3.677044E+03	1.304038E-03	4.306455E-05
3.687036E+03	1.324984E-03	4.358792E-05
3.697028E+03	1.346309E-03	4.412067E-05
3.707020E+03	1.368022E-03	4.466293E-05
3.717012E+03	1.390104E-03	4.521399E-05
3.727003E+03	1.412566E-03	4.577409E-05
3.736995E+03	1.435400E-03	4.634289E-05
3.746987E+03	1.458614E-03	4.692052E-05
3.756979E+03	1.482202E-03	4.750667E-05
3.766971E+03	1.506169E-03	4.810140E-05
3.776963E+03	1.530507E-03	4.870435E-05
3.786955E+03	1.555205E-03	4.931504E-05
3.796947E+03	1.580298E-03	4.993453E-05
3.806939E+03	1.605744E-03	5.056131E-05
3.816931E+03	1.631561E-03	5.119590E-05
3.826923E+03	1.657765E-03	5.183868E-05
3.836915E+03	1.684327E-03	5.248863E-05
3.846907E+03	1.711246E-03	5.314561E-05
3.856899E+03	1.738537E-03	5.381002E-05
3.866891E+03	1.766197E-03	5.448167E-05
3.876883E+03	1.794225E-03	5.516040E-05
3.886875E+03	1.822599E-03	5.584546E-05
3.896867E+03	1.851331E-03	5.653712E-05
3.906859E+03	1.880414E-03	5.723508E-05
3.916851E+03	1.909841E-03	5.793907E-05
3.926843E+03	1.939604E-03	5.864872E-05
3.936835E+03	1.969692E-03	5.936367E-05
3.946827E+03	2.000112E-03	6.008403E-05
3.956819E+03	2.030851E-03	6.080938E-05
3.966811E+03	2.061878E-03	6.153872E-05
3.976803E+03	2.093215E-03	6.227266E-05
3.986795E+03	2.124826E-03	6.301006E-05
3.996787E+03	2.156712E-03	6.375095E-05
4.006779E+03	2.188854E-03	6.449474E-05
4.016771E+03	2.221212E-03	6.524021E-05
4.026762E+03	2.253801E-03	6.598785E-05
4.036754E+03	2.286580E-03	6.673640E-05
4.046746E+03	2.319541E-03	6.748568E-05
4.056738E+03	2.352657E-03	6.823496E-05
4.066730E+03	2.385899E-03	6.898342E-05
4.076722E+03	2.419238E-03	6.973024E-05
4.086714E+03	2.452659E-03	7.047515E-05
4.096706E+03	2.486110E-03	7.121665E-05
4.106698E+03	2.519554E-03	7.195384E-05
4.116690E+03	2.552996E-03	7.268697E-05
4.126682E+03	2.586353E-03	7.341381E-05
4.136674E+03	2.619606E-03	7.413399E-05
4.146666E+03	2.652713E-03	7.484648E-05
4.156658E+03	2.685628E-03	7.555018E-05
4.166650E+03	2.718305E-03	7.624401E-05
4.176642E+03	2.750697E-03	7.692690E-05
4.186634E+03	2.782754E-03	7.759770E-05
4.196626E+03	2.814427E-03	7.825528E-05
4.206618E+03	2.845663E-03	7.889851E-05
4.216610E+03	2.876411E-03	7.952626E-05
4.226602E+03	2.906593E-03	8.013669E-05
4.236594E+03	2.936155E-03	8.072869E-05
4.246586E+03	2.965068E-03	8.130186E-05
4.256578E+03	2.993282E-03	8.185515E-05
4.266570E+03	3.020690E-03	8.238609E-05
4.276562E+03	3.047270E-03	8.289445E-05
4.286554E+03	3.072972E-03	8.337937E-05
4.296546E+03	3.097751E-03	8.384005E-05
4.306538E+03	3.121567E-03	8.427583E-05
4.316530E+03	3.144356E-03	8.468547E-05
4.326521E+03	3.166141E-03	8.507005E-05
4.336513E+03	3.186837E-03	8.542779E-05
4.346505E+03	3.206478E-03	8.576002E-05
4.356497E+03	3.225038E-03	8.606657E-05
4.366489E+03	3.242519E-03	8.634790E-05
4.376481E+03	3.258887E-03	8.660361E-05
4.386473E+03	3.274136E-03	8.683397E-05
4.396465E+03	3.288233E-03	8.703853E-05
4.406457E+03	3.301204E-03	8.721842E-05
4.416449E+03	3.313028E-03	8.737312E-05
4.426441E+03	3.323687E-03	8.750205E-05
4.436433E+03	3.333229E-03	8.760640E-05
4.446425E+03	3.341650E-03	8.768589E-05
4.456417E+03	3.348979E-03	8.774115E-05
4.466409E+03	3.355281E-03	8.777373E-05
4.476401E+03	3.360534E-03	8.778289E-05
4.486393E+03	3.364812E-03	8.777035E-05
4.496385E+03	3.368158E-03	8.773704E-05
4.506377E+03	3.370594E-03	8.768330E-05
4.516369E+03	3.372166E-03	8.761016E-05
4.526361E+03	3.372930E-03	8.751881E-05
4.536353E+03	3.372939E-03	8.741045E-05
4.546345E+03	3.372252E-03	8.728632E-05
4.556337E+03	3.370892E-03	8.714682E-05
4.566329E+03	3.368888E-03	8.699247E-05
4.576321E+03	3.366364E-03	8.682623E-05
4.586313E+03	3.363315E-03	8.664775E-05
4.596305E+03	3.359771E-03	8.645760E-05
4.606297E+03	3.355825E-03	8.625792E-05
4.616289E+03	3.351541E-03	8.605016E-05
4.626280E+03	3.346882E-03	8.583318E-05
4.636272E+03	3.342008E-03	8.561084E-05
4.646264E+03	3.336855E-03	8.538130E-05
4.656256E+03	3.331546E-03	8.514757E-05
4.666248E+03	3.326112E-03	8.491023E-05
4.676240E+03	3.320585E-03	8.466989E-05
4.686232E+03	3.314993E-03	8.442717E-05
4.696224E+03	3.309364E-03	8.418257E-05
4.706216E+03	3.303793E-03	8.393837E-05
4.716208E+03	3.298276E-03	8.369435E-05
4.726200E+03	3.292840E-03	8.345102E-05
4.736192E+03	3.287546E-03	8.320986E-05
4.746184E+03	3.282356E-03	8.296974E-05
4.756176E+03	3.277392E-03	8.273371E-05
4.766168E+03	3.272585E-03	8.249985E-05
4.776160E+03	3.268024E-03	8.227039E-05
4.786152E+03	3.263735E-03	8.204588E-05
4.796144E+03	3.259676E-03	8.182521E-05
4.806136E+03	3.255905E-03	8.160976E-05
4.816128E+03	3.252476E-03	8.140090E-05
4.826120E+03	3.249349E-03	8.119752E-05
4.836112E+03	3.246577E-03	8.100099E-05
4.846104E+03	3.244183E-03	8.081180E-05
4.856096E+03	3.242153E-03	8.062967E-05
4.866088E+03	3.240511E-03	8.045515E-05
4.876080E+03	3.239307E-03	8.028956E-05
4.886072E+03	3.238530E-03	8.013260E-05
4.896064E+03	3.238231E-03	7.998562E-05
4.906056E+03	3.238363E-03	7.984747E-05
4.916047E+03	3.238976E-03	7.971948E-05
4.926039E+03	3.240089E-03	7.960220E-05
4.936031E+03	3.241684E-03	7.949528E-05
4.946023E+03	3.243812E-03	7.940005E-05
4.956015E+03	3.246456E-03	7.931624E-05
4.966007E+03	3.249664E-03	7.924516E-05
4.975999E+03	3.253417E-03	7.918649E-05
4.985991E+03	3.257731E-03	7.914078E-05
4.995983E+03	3.262585E-03	7.910773E-05
5.005975E+03	3.268060E-03	7.908948E-05
5.015967E+03	3.274103E-03	7.908498E-05
5.025959E+03	3.280724E-03	7.909470E-05
5.035951E+03	3.287971E-03	7.912008E-05
5.045943E+03	3.295821E-03	7.916084E-05
5.055935E+03	3.304283E-03	7.921753E-05
5.065927E+03	3.313370E-03	7.929074E-05
5.075919E+03	3.323089E-03	7.938105E-05
5.085911E+03	3.333418E-03	7.948827E-05
5.095903E+03	3.344365E-03	7.961303E-05
5.105895E+03	3.355972E-03	7.975676E-05
5.115887E+03	3.368178E-03	7.991849E-05
5.125879E+03	3.381059E-03	8.010050E-05
5.135871E+03	3.394518E-03	8.030107E-05
5.145863E+03	3.408631E-03	8.052250E-05
5.155855E+03	3.423368E-03	8.076472E-05
5.165847E+03	3.438733E-03	8.102849E-05
5.175839E+03	3.454732E-03	8.131455E-05
5.185831E+03	3.471329E-03	8.162284E-05
5.195823E+03	3.488531E-03	8.195421E-05
5.205815E+03	3.506302E-03	8.230861E-05
5.215806E+03	3.524712E-03	8.268856E-05
5.225798E+03	3.543655E-03	8.309239E-05
5.235790E+03	3.563165E-03	8.352181E-05
5.245782E+03	3.583237E-03	8.397767E-05
5.255774E+03	3.603868E-03	8.446085E-05
5.265766E+03	3.624976E-03	8.497048E-05
5.275758E+03	3.646589E-03	8.550827E-05
5.285750E+03	3.668659E-03	8.607417E-05
5.295742E+03	3.691170E-03	8.666896E-05
5.305734E+03	3.714063E-03	8.729242E-05
5.315726E+03	3.737355E-03	8.794612E-05
5.325718E+03	3.760938E-03	8.862877E-05
5.335710E+03	3.784778E-03	8.934077E-05
5.345702E+03	3.808790E-03	9.008142E-05
5.355694E+03	3.832962E-03	9.085166E-05
5.365686E+03	3.857112E-03	9.164847E-05
5.375678E+03	3.881204E-03	9.247225E-05
5.385670E+03	3.905111E-03	9.332122E-05
5.395662E+03	3.928698E-03	9.419334E-05
5.405654E+03	3.951740E-03	9.508444E-05
5.415646E+03	3.974097E-03	9.599213E-05
5.425638E+03	3.995645E-03	9.691452E-05
5.435630E+03	4.016134E-03	9.784641E-05
5.445622E+03	4.035516E-03	9.878742E-05
5.455614E+03	4.053658E-03	9.973481E-05
5.465606E+03	4.070528E-03	1.006875E-04
5.475598E+03	4.086305E-03	1.016492E-04
5.485590E+03	4.101007E-03	1.026199E-04
5.495582E+03	4.114808E-03	1.036030E-04
5.505574E+03	4.127793E-03	1.046001E-04
5.515565E+03	4.140164E-03	1.056156E-04
5.525557E+03	4.151905E-03	1.066484E-04
5.535549E+03	4.163125E-03	1.077005E-04
5.545541E+03	4.173835E-03	1.087714E-04
5.555533E+03	4.184176E-03	1.098641E-04
5.565525E+03	4.194107E-03	1.109768E-04
5.575517E+03	4.203677E-03	1.121100E-04
5.585509E+03	4.212885E-03	1.132628E-04
5.595501E+03	4.221812E-03	1.144368E-04
5.605493E+03	4.230414E-03	1.156299E-04
5.615485E+03	4.238728E-03	1.168424E-04
5.625477E+03	4.246790E-03	1.180744E-04
5.635469E+03	4.254593E-03	1.193250E-04
5.645461E+03	4.262174E-03	1.205945E-04
5.655453E+03	4.269480E-03	1.218805E-04
5.665445E+03	4.276545E-03	1.231833E-04
5.675437E+03	4.283409E-03	1.245032E-04
5.685429E+03	4.290059E-03	1.258391E-04
5.695421E+03	4.296489E-03	1.271901E-04
5.705413E+03	4.302689E-03	1.285551E-04
5.715405E+03	4.308740E-03	1.299357E-04
5.725397E+03	4.314545E-03	1.313284E-04
5.735389E+03	4.320183E-03	1.327347E-04
5.745381E+03	4.325651E-03	1.341539E-04
5.755373E+03	4.330890E-03	1.355835E-04
5.765365E+03	4.335940E-03	1.370239E-04
5.775357E+03	4.340839E-03	1.384758E-04
5.785349E+03	4.345532E-03	1.399366E-04
5.795341E+03	4.350013E-03	1.414054E-04
5.805333E+03	4.354365E-03	1.428844E-04
5.815324E+03	4.358490E-03	1.443696E-04
5.825316E+03	4.362424E-03	1.458616E-04
5.835308E+03	4.366160E-03	1.473595E-04
5.845300E+03	4.369690E-03	1.488624E-04
5.855292E+03	4.373057E-03	1.503710E-04
5.865284E+03	4.376153E-03	1.518812E-04
5.875276E+03	4.379068E-03	1.533953E-04
5.885268E+03	4.381747E-03	1.549108E-04
5.895260E+03	4.384180E-03	1.564267E-04
5.905252E+03	4.386359E-03	1.579421E-04
5.915244E+03	4.388276E-03	1.594561E-04
5.925236E+03	4.389973E-03	1.609696E-04
5.935228E+03	4.391339E-03	1.624778E-04
5.945220E+03	4.392367E-03	1.639800E-04
5.955212E+03	4.393097E-03	1.654768E-04
5.965204E+03	4.393520E-03	1.669673E-04
5.975196E+03	4.393527E-03	1.684467E-04
5.985188E+03	4.393206E-03	1.699176E-04
5.995180E+03	4.392397E-03	1.713732E-04
6.005172E+03	4.391241E-03	1.728182E-04
6.015164E+03	4.389574E-03	1.742456E-04
6.025156E+03	4.387386E-03	1.756539E-04
6.035148E+03	4.384717E-03	1.770442E-04
6.045140E+03	4.381503E-03	1.784129E-04
6.055132E+03	4.377733E-03	1.797589E-04
6.065124E+03	4.373291E-03	1.810765E-04
6.075116E+03	4.368270E-03	1.823686E-04
6.085108E+03	4.362500E-03	1.836274E-04
6.095100E+03	4.356074E-03	1.848556E-04
6.105092E+03	4.348926E-03	1.860496E-04
6.115083E+03	4.340993E-03	1.872058E-04
6.125075E+03	4.332261E-03	1.883225E-04
6.135067E+03	4.322773E-03	1.894005E-04
6.145059E+03	4.312463E-03	1.904359E-04
6.155051E+03	4.301319E-03	1.914273E-04
6.165043E+03	4.289439E-03	1.923779E-04
6.175035E+03	4.276704E-03	1.932815E-04
6.185027E+03	4.263158E-03	1.941390E-04
6.195019E+03	4.248847E-03	1.949515E-04
6.205011E+03	4.233815E-03	1.957201E-04
6.215003E+03	4.218001E-03	1.964412E-04
6.224995E+03	4.201396E-03	1.971132E-04
6.234987E+03	4.184049E-03	1.977377E-04
6.244979E+03	4.165900E-03	1.983108E-04
6.254971E+03	4.146997E-03	1.988340E-04
6.264963E+03	4.127335E-03	1.993061E-04
6.274955E+03	4.106965E-03	1.997287E-04
6.284947E+03	4.085886E-03	2.001009E-04
6.294939E+03	4.064093E-03	2.004217E-04
6.304931E+03	4.041643E-03	2.006931E-04
6.314923E+03	4.018586E-03	2.009170E-04
6.324915E+03	3.994873E-03	2.010900E-04
6.334907E+03	3.970556E-03	2.012141E-04
6.344899E+03	3.945694E-03	2.012917E-04
6.354891E+03	3.920234E-03	2.013195E-04
6.364883E+03	3.894293E-03	2.013028E-04
6.374875E+03	3.867872E-03	2.012412E-04
6.384867E+03	3.840978E-03	2.011346E-04
6.394859E+03	3.813619E-03	2.009827E-04
6.404851E+03	3.785909E-03	2.007913E-04
6.414842E+03	3.757802E-03	2.005575E-04
6.424834E+03	3.729418E-03	2.002873E-04
6.434826E+03	3.700762E-03	1.999808E-04
6.444818E+03	3.671847E-03	1.996383E-04
6.454810E+03	3.642737E-03	1.992631E-04
6.464802E+03	3.613442E-03	1.988556E-04
6.474794E+03	3.584027E-03	1.984193E-04
6.484786E+03	3.554393E-03	1.979484E-04
6.494778E+03	3.524664E-03	1.974497E-04
6.504770E+03	3.494849E-03	1.969238E-04
6.514762E+03	3.464908E-03	1.963682E-04
6.524754E+03	3.434906E-03	1.957867E-04
6.534746E+03	3.404857E-03	1.951798E-04
6.544738E+03	3.374775E-03	1.945485E-04
6.554730E+03	3.344670E-03	1.938934E-04
6.564722E+03	3.314612E-03	1.932186E-04
6.574714E+03	3.284559E-03	1.925216E-04
6.584706E+03	3.254525E-03	1.918033E-04
6.594698E+03	3.224575E-03	1.910679E-04
6.604690E+03	3.194725E-03	1.903161E-04
6.614682E+03	3.164933E-03	1.895458E-04
6.624674E+03	3.135266E-03	1.887610E-04
6.634666E+03	3.105683E-03	1.879595E-04
6.644658E+03	3.076303E-03	1.871486E-04
6.654650E+03	3.047033E-03	1.863229E-04
6.664642E+03	3.017886E-03	1.854834E-04
6.674634E+03	2.988925E-03	1.846342E-04
6.684626E+03	2.960162E-03	1.837761E-04
6.694618E+03	2.931558E-03	1.829071E-04
6.704609E+03	2.903124E-03	1.820281E-04
6.714601E+03	2.874921E-03	1.811431E-04
6.724593E+03	2.846909E-03	1.802499E-04
6.734585E+03	2.819149E-03	1.793526E-04
6.744577E+03	2.791550E-03	1.784457E-04
6.754569E+03	2.764223E-03	1.775365E-04
6.764561E+03	2.737075E-03	1.766194E-04
6.774553E+03	2.710216E-03	1.757017E-04
6.784545E+03	2.683554E-03	1.747778E-04
6.794537E+03	2.657148E-03	1.738518E-04
6.804529E+03	2.631003E-03	1.729242E-04
6.814521E+03	2.605079E-03	1.719929E-04
6.824513E+03	2.579430E-03	1.710616E-04
6.834505E+03	2.554016E-03	1.701280E-04
6.844497E+03	2.528888E-03	1.691958E-04
6.854489E+03	2.503960E-03	1.682595E-04
6.864481E+03	2.479328E-03	1.673259E-04
6.874473E+03	2.454952E-03	1.663925E-04
6.884465E+03	2.430834E-03	1.654599E-04
6.894457E+03	2.406935E-03	1.645256E-04
6.904449E+03	2.383347E-03	1.635962E-04
6.914441E+03	2.359939E-03	1.626631E-04
6.924433E+03	2.336850E-03	1.617360E-04
6.934425E+03	2.313989E-03	1.608091E-04
6.944417E+03	2.291361E-03	1.598829E-04
6.954409E+03	2.269011E-03	1.589608E-04
6.964401E+03	2.246899E-03	1.580403E-04
6.974393E+03	2.225023E-03	1.571217E-04
6.984385E+03	2.203386E-03	1.562053E-04
6.994377E+03	2.181988E-03	1.552914E-04
7.004368E+03	2.160830E-03	1.543803E-04
7.014360E+03	2.139869E-03	1.534694E-04
7.024352E+03	2.119192E-03	1.525649E-04
7.034344E+03	2.098670E-03	1.516580E-04
7.044336E+03	2.078430E-03	1.507580E-04
7.054328E+03	2.058346E-03	1.498561E-04
7.064320E+03	2.038502E-03	1.489585E-04
7.074312E+03	2.018854E-03	1.480624E-04
7.084304E+03	1.999404E-03	1.471681E-04
7.094296E+03	1.980189E-03	1.462784E-04
7.104288E+03	1.961129E-03	1.453879E-04
7.114280E+03	1.942264E-03	1.444996E-04
7.124272E+03	1.923553E-03	1.436107E-04
7.134264E+03	1.905034E-03	1.427241E-04
7.144256E+03	1.886706E-03	1.418402E-04
7.154248E+03	1.868530E-03	1.409561E-04
7.164240E+03	1.850543E-03	1.400749E-04
7.174232E+03	1.832668E-03	1.391908E-04
7.184224E+03	1.814981E-03	1.383098E-04
7.194216E+03	1.797443E-03	1.374291E-04
7.204208E+03	1.780015E-03	1.365460E-04
7.214200E+03	1.762736E-03	1.356635E-04
7.224192E+03	1.745603E-03	1.347816E-04
7.234184E+03	1.728581E-03	1.338979E-04
7.244176E+03	1.711671E-03	1.330123E-04
7.254168E+03	1.694871E-03	1.321251E-04
7.264160E+03	1.678183E-03	1.312364E-04
7.274152E+03	1.661606E-03	1.303464E-04
7.284144E+03	1.645072E-03	1.294498E-04
7.294136E+03	1.628653E-03	1.285524E-04
7.304127E+03	1.612314E-03	1.276515E-04
7.314119E+03	1.596022E-03	1.267448E-04
7.324111E+03	1.579815E-03	1.258352E-04
7.334103E+03	1.563627E-03	1.249176E-04
7.344095E+03	1.547461E-03	1.239924E-04
7.354087E+03	1.531322E-03	1.230600E-04
7.364079E+03	1.515181E-03	1.221181E-04
7.374071E+03	1.499073E-03	1.211696E-04
7.384063E+03	1.482907E-03	1.202073E-04
7.394055E+03	1.466753E-03	1.192368E-04
7.404047E+03	1.450552E-03	1.182535E-04
7.414039E+03	1.434341E-03	1.172603E-04
7.424031E+03	1.418096E-03	1.162553E-04
7.434023E+03	1.401822E-03	1.152390E-04
7.444015E+03	1.385555E-03	1.142144E-04
7.454007E+03	1.369272E-03	1.131796E-04
7.463999E+03	1.353066E-03	1.121424E-04
7.473991E+03	1.336881E-03	1.110983E-04
7.483983E+03	1.320783E-03	1.100527E-04
7.493975E+03	1.304745E-03	1.090037E-04
7.503967E+03	1.288856E-03	1.079587E-04
7.513959E+03	1.273091E-03	1.069157E-04
7.523951E+03	1.257453E-03	1.058753E-04
7.533943E+03	1.241972E-03	1.048399E-04
7.543935E+03	1.226651E-03	1.038101E-04
7.553927E+03	1.211544E-03	1.027906E-04
7.563919E+03	1.196601E-03	1.017773E-04
7.573911E+03	1.181848E-03	1.007726E-04
7.583903E+03	1.167314E-03	9.977913E-05
7.593895E+03	1.152974E-03	9.879497E-05
7.603886E+03	1.138855E-03	9.782250E-05
7.613878E+03	1.124932E-03	9.685991E-05
7.623870E+03	1.111255E-03	9.591165E-05
7.633862E+03	1.097778E-03	9.497385E-05
7.643854E+03	1.084549E-03	9.405090E-05
7.653846E+03	1.071520E-03	9.313884E-05
7.663838E+03	1.058741E-03	9.224214E-05
7.673830E+03	1.046163E-03	9.135674E-05
7.683822E+03	1.033837E-03	9.048729E-05
7.693814E+03	1.021738E-03	8.963171E-05
7.703806E+03	1.009866E-03	8.879027E-05
7.713798E+03	9.982231E-04	8.796336E-05
7.723790E+03	9.868088E-04	8.715101E-05
7.733782E+03	9.756239E-04	8.635350E-05
7.743774E+03	9.646482E-04	8.556921E-05
7.753766E+03	9.539253E-04	8.480217E-05
