#wls	flux	fluxerr
1.598715E+03	2.919181E-05	2.672551E-06
1.638682E+03	2.880681E-05	2.616961E-06
1.678650E+03	2.843506E-05	2.562710E-06
1.718618E+03	2.808294E-05	2.510355E-06
1.758586E+03	2.775992E-05	2.460701E-06
1.798554E+03	2.747232E-05	2.414249E-06
1.838522E+03	2.723168E-05	2.371931E-06
1.878490E+03	2.704772E-05	2.334486E-06
1.918458E+03	2.692957E-05	2.302562E-06
1.958425E+03	2.688965E-05	2.277057E-06
1.998393E+03	2.694663E-05	2.259340E-06
2.038361E+03	2.713197E-05	2.251775E-06
2.078329E+03	2.748423E-05	2.257191E-06
2.118297E+03	2.806439E-05	2.280090E-06
2.158265E+03	2.893707E-05	2.325033E-06
2.198233E+03	3.015186E-05	2.395131E-06
2.238200E+03	3.175063E-05	2.492680E-06
2.278168E+03	3.376099E-05	2.618675E-06
2.318136E+03	3.621775E-05	2.774530E-06
2.358104E+03	3.916358E-05	2.962076E-06
2.398072E+03	4.264964E-05	3.183566E-06
2.438040E+03	4.673613E-05	3.441671E-06
2.478008E+03	5.147562E-05	3.738213E-06
2.517976E+03	5.692373E-05	4.074958E-06
2.557943E+03	6.312845E-05	4.452846E-06
2.597911E+03	7.012274E-05	4.871504E-06
2.637879E+03	7.793312E-05	5.329912E-06
2.677847E+03	8.657259E-05	5.825957E-06
2.717815E+03	9.605005E-05	6.357130E-06
2.757783E+03	1.063626E-04	6.920047E-06
2.797751E+03	1.175024E-04	7.510960E-06
2.837718E+03	1.294554E-04	8.125687E-06
2.877686E+03	1.422224E-04	8.760991E-06
2.917654E+03	1.558065E-04	9.413697E-06
2.957622E+03	1.702204E-04	1.008117E-05
2.997590E+03	1.855135E-04	1.076275E-05
3.007582E+03	1.894829E-04	1.093543E-05
3.017574E+03	1.935112E-04	1.110892E-05
3.027566E+03	1.975994E-04	1.128323E-05
3.037558E+03	2.017530E-04	1.145859E-05
3.047550E+03	2.059744E-04	1.163507E-05
3.057542E+03	2.102660E-04	1.181275E-05
3.067534E+03	2.146289E-04	1.199161E-05
3.077526E+03	2.190645E-04	1.217164E-05
3.087518E+03	2.235739E-04	1.235285E-05
3.097510E+03	2.281635E-04	1.253551E-05
3.107502E+03	2.328351E-04	1.271962E-05
3.117494E+03	2.375858E-04	1.290495E-05
3.127486E+03	2.424273E-04	1.309204E-05
3.137477E+03	2.473522E-04	1.328042E-05
3.147469E+03	2.523679E-04	1.347038E-05
3.157461E+03	2.574817E-04	1.366222E-05
3.167453E+03	2.626918E-04	1.385575E-05
3.177445E+03	2.680062E-04	1.405129E-05
3.187437E+03	2.734233E-04	1.424865E-05
3.197429E+03	2.789516E-04	1.444815E-05
3.207421E+03	2.845948E-04	1.464989E-05
3.217413E+03	2.903520E-04	1.485371E-05
3.227405E+03	2.962327E-04	1.505995E-05
3.237397E+03	3.022411E-04	1.526873E-05
3.247389E+03	3.083823E-04	1.548015E-05
3.257381E+03	3.146613E-04	1.569435E-05
3.267373E+03	3.210836E-04	1.591145E-05
3.277365E+03	3.276549E-04	1.613159E-05
3.287357E+03	3.343758E-04	1.635466E-05
3.297349E+03	3.412633E-04	1.658132E-05
3.307341E+03	3.483135E-04	1.681123E-05
3.317333E+03	3.555386E-04	1.704481E-05
3.327325E+03	3.629404E-04	1.728196E-05
3.337317E+03	3.705320E-04	1.752315E-05
3.347309E+03	3.783217E-04	1.776857E-05
3.357301E+03	3.863064E-04	1.801788E-05
3.367293E+03	3.945060E-04	1.827181E-05
3.377285E+03	4.029182E-04	1.853004E-05
3.387277E+03	4.115580E-04	1.879305E-05
3.397269E+03	4.204351E-04	1.906106E-05
3.407261E+03	4.295475E-04	1.933375E-05
3.417253E+03	4.389174E-04	1.961188E-05
3.427244E+03	4.485431E-04	1.989512E-05
3.437236E+03	4.584352E-04	2.018371E-05
3.447228E+03	4.686046E-04	2.047784E-05
3.457220E+03	4.790558E-04	2.077746E-05
3.467212E+03	4.898059E-04	2.108304E-05
3.477204E+03	5.008533E-04	2.139421E-05
3.487196E+03	5.122086E-04	2.171114E-05
3.497188E+03	5.238758E-04	2.203372E-05
3.507180E+03	5.358719E-04	2.236235E-05
3.517172E+03	5.481939E-04	2.269661E-05
3.527164E+03	5.608453E-04	2.303632E-05
3.537156E+03	5.738426E-04	2.338187E-05
3.547148E+03	5.871752E-04	2.373250E-05
3.557140E+03	6.008524E-04	2.408827E-05
3.567132E+03	6.148832E-04	2.444924E-05
3.577124E+03	6.292624E-04	2.481487E-05
3.587116E+03	6.439979E-04	2.518516E-05
3.597108E+03	6.590827E-04	2.555951E-05
3.607100E+03	6.745166E-04	2.593761E-05
3.617092E+03	6.903062E-04	2.631937E-05
3.627084E+03	7.064353E-04	2.670388E-05
3.637076E+03	7.229171E-04	2.709132E-05
3.647068E+03	7.397415E-04	2.748102E-05
3.657060E+03	7.569054E-04	2.787255E-05
3.667052E+03	7.743971E-04	2.826520E-05
3.677044E+03	7.922199E-04	2.865881E-05
3.687036E+03	8.103686E-04	2.905293E-05
3.697028E+03	8.288293E-04	2.944678E-05
3.707020E+03	8.476032E-04	2.984017E-05
3.717012E+03	8.666832E-04	3.023260E-05
3.727003E+03	8.860522E-04	3.062324E-05
3.736995E+03	9.057274E-04	3.101248E-05
3.746987E+03	9.256817E-04	3.139916E-05
3.756979E+03	9.459134E-04	3.178304E-05
3.766971E+03	9.664296E-04	3.216417E-05
3.776963E+03	9.872001E-04	3.254136E-05
3.786955E+03	1.008240E-03	3.291497E-05
3.796947E+03	1.029527E-03	3.328411E-05
3.806939E+03	1.051066E-03	3.364880E-05
3.816931E+03	1.072852E-03	3.400878E-05
3.826923E+03	1.094871E-03	3.436346E-05
3.836915E+03	1.117115E-03	3.471255E-05
3.846907E+03	1.139590E-03	3.505610E-05
3.856899E+03	1.162278E-03	3.539353E-05
3.866891E+03	1.185183E-03	3.572488E-05
3.876883E+03	1.208285E-03	3.604955E-05
3.886875E+03	1.231588E-03	3.636764E-05
3.896867E+03	1.255083E-03	3.667887E-05
3.906859E+03	1.278763E-03	3.698305E-05
3.916851E+03	1.302628E-03	3.728021E-05
3.926843E+03	1.326659E-03	3.756987E-05
3.936835E+03	1.350855E-03	3.785209E-05
3.946827E+03	1.375220E-03	3.812707E-05
3.956819E+03	1.399718E-03	3.839390E-05
3.966811E+03	1.424376E-03	3.865348E-05
3.976803E+03	1.449170E-03	3.890530E-05
3.986795E+03	1.474088E-03	3.914921E-05
3.996787E+03	1.499130E-03	3.938542E-05
4.006779E+03	1.524272E-03	3.961353E-05
4.016771E+03	1.549526E-03	3.983409E-05
4.026762E+03	1.574880E-03	4.004709E-05
4.036754E+03	1.600320E-03	4.025243E-05
4.046746E+03	1.625816E-03	4.044973E-05
4.056738E+03	1.651383E-03	4.063969E-05
4.066730E+03	1.677005E-03	4.082232E-05
4.076722E+03	1.702664E-03	4.099759E-05
4.086714E+03	1.728345E-03	4.116557E-05
4.096706E+03	1.754029E-03	4.132630E-05
4.106698E+03	1.779711E-03	4.148019E-05
4.116690E+03	1.805356E-03	4.162694E-05
4.126682E+03	1.830960E-03	4.176707E-05
4.136674E+03	1.856499E-03	4.190061E-05
4.146666E+03	1.881951E-03	4.202774E-05
4.156658E+03	1.907290E-03	4.214856E-05
4.166650E+03	1.932490E-03	4.226321E-05
4.176642E+03	1.957541E-03	4.237222E-05
4.186634E+03	1.982383E-03	4.247508E-05
4.196626E+03	2.006999E-03	4.257227E-05
4.206618E+03	2.031377E-03	4.266440E-05
4.216610E+03	2.055452E-03	4.275096E-05
4.226602E+03	2.079208E-03	4.283256E-05
4.236594E+03	2.102593E-03	4.290910E-05
4.246586E+03	2.125594E-03	4.298124E-05
4.256578E+03	2.148158E-03	4.304896E-05
4.266570E+03	2.170238E-03	4.311230E-05
4.276562E+03	2.191838E-03	4.317237E-05
4.286554E+03	2.212873E-03	4.322851E-05
4.296546E+03	2.233352E-03	4.328194E-05
4.306538E+03	2.253228E-03	4.333280E-05
4.316530E+03	2.272474E-03	4.338158E-05
4.326521E+03	2.291046E-03	4.342843E-05
4.336513E+03	2.308936E-03	4.347417E-05
4.346505E+03	2.326121E-03	4.351932E-05
4.356497E+03	2.342562E-03	4.356368E-05
4.366489E+03	2.358307E-03	4.360831E-05
4.376481E+03	2.373318E-03	4.365268E-05
4.386473E+03	2.387623E-03	4.369737E-05
4.396465E+03	2.401210E-03	4.374214E-05
4.406457E+03	2.414106E-03	4.378752E-05
4.416449E+03	2.426278E-03	4.383273E-05
4.426441E+03	2.437774E-03	4.387851E-05
4.436433E+03	2.448581E-03	4.392433E-05
4.446425E+03	2.458683E-03	4.396962E-05
4.456417E+03	2.468133E-03	4.401496E-05
4.466409E+03	2.476915E-03	4.405973E-05
4.476401E+03	2.485040E-03	4.410369E-05
4.486393E+03	2.492516E-03	4.414657E-05
4.496385E+03	2.499356E-03	4.418812E-05
4.506377E+03	2.505549E-03	4.422767E-05
4.516369E+03	2.511130E-03	4.426535E-05
4.526361E+03	2.516111E-03	4.430089E-05
4.536353E+03	2.520488E-03	4.433366E-05
4.546345E+03	2.524252E-03	4.436299E-05
4.556337E+03	2.527442E-03	4.438907E-05
4.566329E+03	2.530080E-03	4.441172E-05
4.576321E+03	2.532134E-03	4.442991E-05
4.586313E+03	2.533676E-03	4.444434E-05
4.596305E+03	2.534655E-03	4.445363E-05
4.606297E+03	2.535117E-03	4.445809E-05
4.616289E+03	2.535086E-03	4.445767E-05
4.626280E+03	2.534563E-03	4.445188E-05
4.636272E+03	2.533575E-03	4.444078E-05
4.646264E+03	2.532100E-03	4.442351E-05
4.656256E+03	2.530213E-03	4.440099E-05
4.666248E+03	2.527869E-03	4.437205E-05
4.676240E+03	2.525124E-03	4.433727E-05
4.686232E+03	2.521981E-03	4.429635E-05
4.696224E+03	2.518473E-03	4.424952E-05
4.706216E+03	2.514580E-03	4.419617E-05
4.716208E+03	2.510336E-03	4.413655E-05
4.726200E+03	2.505721E-03	4.407010E-05
4.736192E+03	2.500795E-03	4.399759E-05
4.746184E+03	2.495516E-03	4.391810E-05
4.756176E+03	2.489918E-03	4.383201E-05
4.766168E+03	2.484009E-03	4.373930E-05
4.776160E+03	2.477777E-03	4.363962E-05
4.786152E+03	2.471253E-03	4.353341E-05
4.796144E+03	2.464426E-03	4.342035E-05
4.806136E+03	2.457303E-03	4.330052E-05
4.816128E+03	2.449897E-03	4.317406E-05
4.826120E+03	2.442217E-03	4.304115E-05
4.836112E+03	2.434251E-03	4.290154E-05
4.846104E+03	2.426059E-03	4.275630E-05
4.856096E+03	2.417578E-03	4.260439E-05
4.866088E+03	2.408868E-03	4.244691E-05
4.876080E+03	2.399917E-03	4.228373E-05
4.886072E+03	2.390761E-03	4.211559E-05
4.896064E+03	2.381362E-03	4.194193E-05
4.906056E+03	2.371757E-03	4.176356E-05
4.916047E+03	2.361956E-03	4.158082E-05
4.926039E+03	2.351950E-03	4.139370E-05
4.936031E+03	2.341771E-03	4.120299E-05
4.946023E+03	2.331410E-03	4.100870E-05
4.956015E+03	2.320898E-03	4.081167E-05
4.966007E+03	2.310204E-03	4.061154E-05
4.975999E+03	2.299383E-03	4.040958E-05
4.985991E+03	2.288403E-03	4.020546E-05
4.995983E+03	2.277295E-03	4.000003E-05
5.005975E+03	2.266050E-03	3.979343E-05
5.015967E+03	2.254702E-03	3.958655E-05
5.025959E+03	2.243260E-03	3.937990E-05
5.035951E+03	2.231691E-03	3.917322E-05
5.045943E+03	2.220028E-03	3.896741E-05
5.055935E+03	2.208282E-03	3.876304E-05
5.065927E+03	2.196466E-03	3.856066E-05
5.075919E+03	2.184542E-03	3.836000E-05
5.085911E+03	2.172568E-03	3.816242E-05
5.095903E+03	2.160554E-03	3.796845E-05
5.105895E+03	2.148445E-03	3.777753E-05
5.115887E+03	2.136315E-03	3.759133E-05
5.125879E+03	2.124134E-03	3.740967E-05
5.135871E+03	2.111911E-03	3.723310E-05
5.145863E+03	2.099656E-03	3.706216E-05
5.155855E+03	2.087359E-03	3.689702E-05
5.165847E+03	2.075052E-03	3.673864E-05
5.175839E+03	2.062724E-03	3.658717E-05
5.185831E+03	2.050386E-03	3.644312E-05
5.195823E+03	2.038049E-03	3.630705E-05
5.205815E+03	2.025682E-03	3.617872E-05
5.215806E+03	2.013339E-03	3.605940E-05
5.225798E+03	2.001007E-03	3.594919E-05
5.235790E+03	1.988682E-03	3.584825E-05
5.245782E+03	1.976374E-03	3.575706E-05
5.255774E+03	1.964095E-03	3.567607E-05
5.265766E+03	1.951838E-03	3.560539E-05
5.275758E+03	1.939633E-03	3.554579E-05
5.285750E+03	1.927458E-03	3.549702E-05
5.295742E+03	1.915343E-03	3.545983E-05
5.305734E+03	1.903265E-03	3.543393E-05
5.315726E+03	1.891256E-03	3.541974E-05
5.325718E+03	1.879313E-03	3.541682E-05
5.335710E+03	1.867450E-03	3.542502E-05
5.345702E+03	1.855682E-03	3.544419E-05
5.355694E+03	1.843988E-03	3.547352E-05
5.365686E+03	1.832403E-03	3.551325E-05
5.375678E+03	1.820927E-03	3.556297E-05
5.385670E+03	1.809577E-03	3.562263E-05
5.395662E+03	1.798334E-03	3.569142E-05
5.405654E+03	1.787251E-03	3.576999E-05
5.415646E+03	1.776289E-03	3.585713E-05
5.425638E+03	1.765462E-03	3.595267E-05
5.435630E+03	1.754778E-03	3.605633E-05
5.445622E+03	1.744159E-03	3.616607E-05
5.455614E+03	1.733520E-03	3.627968E-05
5.465606E+03	1.722782E-03	3.639497E-05
5.475598E+03	1.712012E-03	3.651289E-05
5.485590E+03	1.701264E-03	3.663408E-05
5.495582E+03	1.690551E-03	3.675840E-05
5.505574E+03	1.679887E-03	3.688575E-05
5.515565E+03	1.669284E-03	3.701599E-05
5.525557E+03	1.658718E-03	3.714823E-05
5.535549E+03	1.648235E-03	3.728313E-05
5.545541E+03	1.637812E-03	3.741982E-05
5.555533E+03	1.627439E-03	3.755779E-05
5.565525E+03	1.617146E-03	3.769733E-05
5.575517E+03	1.606908E-03	3.783764E-05
5.585509E+03	1.596734E-03	3.797862E-05
5.595501E+03	1.586634E-03	3.812023E-05
5.605493E+03	1.576603E-03	3.826207E-05
5.615485E+03	1.566647E-03	3.840411E-05
5.625477E+03	1.556763E-03	3.854598E-05
5.635469E+03	1.546943E-03	3.868730E-05
5.645461E+03	1.537198E-03	3.882814E-05
5.655453E+03	1.527505E-03	3.896770E-05
5.665445E+03	1.517908E-03	3.910696E-05
5.675437E+03	1.508369E-03	3.924472E-05
5.685429E+03	1.498915E-03	3.938157E-05
5.695421E+03	1.489541E-03	3.951720E-05
5.705413E+03	1.480227E-03	3.965095E-05
5.715405E+03	1.470998E-03	3.978339E-05
5.725397E+03	1.461835E-03	3.991385E-05
5.735389E+03	1.452750E-03	4.004256E-05
5.745381E+03	1.443737E-03	4.016926E-05
5.755373E+03	1.434809E-03	4.029422E-05
5.765365E+03	1.425946E-03	4.041677E-05
5.775357E+03	1.417175E-03	4.053762E-05
5.785349E+03	1.408462E-03	4.065571E-05
5.795341E+03	1.399819E-03	4.077135E-05
5.805333E+03	1.391257E-03	4.088476E-05
5.815324E+03	1.382772E-03	4.099581E-05
5.825316E+03	1.374347E-03	4.110393E-05
5.835308E+03	1.365992E-03	4.120937E-05
5.845300E+03	1.357721E-03	4.131253E-05
5.855292E+03	1.349499E-03	4.141234E-05
5.865284E+03	1.341339E-03	4.150909E-05
5.875276E+03	1.333254E-03	4.160321E-05
5.885268E+03	1.325210E-03	4.169357E-05
5.895260E+03	1.317233E-03	4.178101E-05
5.905252E+03	1.309322E-03	4.186549E-05
5.915244E+03	1.301444E-03	4.194590E-05
5.925236E+03	1.293612E-03	4.202264E-05
5.935228E+03	1.285836E-03	4.209606E-05
5.945220E+03	1.278088E-03	4.216517E-05
5.955212E+03	1.270377E-03	4.223030E-05
5.965204E+03	1.262701E-03	4.229138E-05
5.975196E+03	1.255044E-03	4.234779E-05
5.985188E+03	1.247406E-03	4.239956E-05
5.995180E+03	1.239781E-03	4.244646E-05
6.005172E+03	1.232156E-03	4.248803E-05
6.015164E+03	1.224541E-03	4.252457E-05
6.025156E+03	1.216922E-03	4.255561E-05
6.035148E+03	1.209295E-03	4.258098E-05
6.045140E+03	1.201632E-03	4.259966E-05
6.055132E+03	1.193959E-03	4.261252E-05
6.065124E+03	1.186231E-03	4.261794E-05
6.075116E+03	1.178477E-03	4.261693E-05
6.085108E+03	1.170652E-03	4.260785E-05
6.095100E+03	1.162783E-03	4.259159E-05
6.105092E+03	1.154829E-03	4.256660E-05
6.115083E+03	1.146800E-03	4.253325E-05
6.125075E+03	1.138698E-03	4.249151E-05
6.135067E+03	1.130505E-03	4.244071E-05
6.145059E+03	1.122209E-03	4.238034E-05
6.155051E+03	1.113824E-03	4.231081E-05
6.165043E+03	1.105347E-03	4.223207E-05
6.175035E+03	1.096779E-03	4.214400E-05
6.185027E+03	1.088119E-03	4.204661E-05
6.195019E+03	1.079394E-03	4.194086E-05
6.205011E+03	1.070618E-03	4.182727E-05
6.215003E+03	1.061761E-03	4.170472E-05
6.224995E+03	1.052853E-03	4.157430E-05
6.234987E+03	1.043877E-03	4.143538E-05
6.244979E+03	1.034835E-03	4.128799E-05
6.254971E+03	1.025752E-03	4.113318E-05
6.264963E+03	1.016630E-03	4.097098E-05
6.274955E+03	1.007481E-03	4.080190E-05
6.284947E+03	9.983045E-04	4.062595E-05
6.294939E+03	9.891002E-04	4.044315E-05
6.304931E+03	9.799087E-04	4.025519E-05
6.314923E+03	9.707024E-04	4.006098E-05
6.324915E+03	9.615079E-04	3.986165E-05
6.334907E+03	9.523121E-04	3.965671E-05
6.344899E+03	9.431412E-04	3.944729E-05
6.354891E+03	9.339818E-04	3.923290E-05
6.364883E+03	9.248471E-04	3.901415E-05
6.374875E+03	9.157502E-04	3.879164E-05
6.384867E+03	9.066652E-04	3.856435E-05
6.394859E+03	8.976181E-04	3.833345E-05
6.404851E+03	8.886090E-04	3.809900E-05
6.414842E+03	8.796381E-04	3.786108E-05
6.424834E+03	8.707183E-04	3.762033E-05
6.434826E+03	8.618626E-04	3.737738E-05
6.444818E+03	8.530836E-04	3.713287E-05
6.454810E+03	8.443813E-04	3.688688E-05
6.464802E+03	8.357558E-04	3.663950E-05
6.474794E+03	8.272196E-04	3.639138E-05
6.484786E+03	8.187476E-04	3.614151E-05
6.494778E+03	8.103652E-04	3.589107E-05
6.504770E+03	8.020721E-04	3.564016E-05
6.514762E+03	7.938686E-04	3.538888E-05
6.524754E+03	7.857544E-04	3.513731E-05
6.534746E+03	7.777297E-04	3.488555E-05
6.544738E+03	7.698068E-04	3.463424E-05
6.554730E+03	7.619734E-04	3.438291E-05
6.564722E+03	7.542416E-04	3.413221E-05
6.574714E+03	7.466114E-04	3.388222E-05
6.584706E+03	7.390706E-04	3.363248E-05
6.594698E+03	7.316312E-04	3.338362E-05
6.604690E+03	7.242931E-04	3.313573E-05
6.614682E+03	7.170561E-04	3.288888E-05
6.624674E+03	7.099201E-04	3.264316E-05
6.634666E+03	7.028850E-04	3.239864E-05
6.644658E+03	6.959505E-04	3.215539E-05
6.654650E+03	6.891047E-04	3.191296E-05
6.664642E+03	6.823593E-04	3.167194E-05
6.674634E+03	6.757023E-04	3.143187E-05
6.684626E+03	6.691453E-04	3.119337E-05
6.694618E+03	6.626879E-04	3.095648E-05
6.704609E+03	6.563184E-04	3.072075E-05
6.714601E+03	6.500366E-04	3.048622E-05
6.724593E+03	6.438537E-04	3.025351E-05
6.734585E+03	6.377469E-04	3.002160E-05
6.744577E+03	6.317383E-04	2.979160E-05
6.754569E+03	6.258165E-04	2.956305E-05
6.764561E+03	6.199702E-04	2.933547E-05
6.774553E+03	6.142102E-04	2.910944E-05
6.784545E+03	6.085362E-04	2.888500E-05
6.794537E+03	6.029371E-04	2.866170E-05
6.804529E+03	5.974234E-04	2.844009E-05
6.814521E+03	5.919841E-04	2.821970E-05
6.824513E+03	5.866297E-04	2.800109E-05
6.834505E+03	5.813383E-04	2.778327E-05
6.844497E+03	5.761313E-04	2.756732E-05
6.854489E+03	5.709870E-04	2.735226E-05
6.864481E+03	5.659264E-04	2.713913E-05
6.874473E+03	5.609280E-04	2.692697E-05
6.884465E+03	5.560023E-04	2.671632E-05
6.894457E+03	5.511385E-04	2.650672E-05
6.904449E+03	5.463468E-04	2.629869E-05
6.914441E+03	5.416165E-04	2.609178E-05
6.924433E+03	5.369579E-04	2.588651E-05
6.934425E+03	5.323500E-04	2.568194E-05
6.944417E+03	5.278132E-04	2.547907E-05
6.954409E+03	5.233372E-04	2.527746E-05
6.964401E+03	5.189114E-04	2.507664E-05
6.974393E+03	5.145561E-04	2.487761E-05
6.984385E+03	5.102509E-04	2.467945E-05
6.994377E+03	5.060054E-04	2.448265E-05
7.004368E+03	5.018099E-04	2.428678E-05
7.014360E+03	4.976739E-04	2.409233E-05
7.024352E+03	4.935874E-04	2.389886E-05
7.034344E+03	4.895601E-04	2.370687E-05
7.044336E+03	4.855726E-04	2.351546E-05
7.054328E+03	4.816437E-04	2.332556E-05
7.064320E+03	4.777544E-04	2.313630E-05
7.074312E+03	4.739237E-04	2.294862E-05
7.084304E+03	4.701324E-04	2.276162E-05
7.094296E+03	4.663899E-04	2.257580E-05
7.104288E+03	4.626867E-04	2.239072E-05
7.114280E+03	4.590322E-04	2.220686E-05
7.124272E+03	4.554263E-04	2.202425E-05
7.134264E+03	4.518505E-04	2.184201E-05
7.144256E+03	4.483231E-04	2.166107E-05
7.154248E+03	4.448440E-04	2.148145E-05
7.164240E+03	4.413950E-04	2.130229E-05
7.174232E+03	4.379853E-04	2.112406E-05
7.184224E+03	4.346149E-04	2.094679E-05
7.194216E+03	4.312749E-04	2.077008E-05
7.204208E+03	4.279831E-04	2.059479E-05
7.214200E+03	4.247217E-04	2.042011E-05
7.224192E+03	4.214909E-04	2.024607E-05
7.234184E+03	4.182996E-04	2.007311E-05
7.244176E+03	4.151304E-04	1.990042E-05
7.254168E+03	4.120007E-04	1.972887E-05
7.264160E+03	4.089021E-04	1.955806E-05
7.274152E+03	4.058346E-04	1.938802E-05
7.284144E+03	4.027898E-04	1.921838E-05
7.294136E+03	3.997680E-04	1.904917E-05
7.304127E+03	3.967780E-04	1.888082E-05
7.314119E+03	3.938114E-04	1.871297E-05
7.324111E+03	3.908602E-04	1.854525E-05
7.334103E+03	3.879248E-04	1.837769E-05
7.344095E+03	3.850055E-04	1.821035E-05
7.354087E+03	3.821027E-04	1.804326E-05
7.364079E+03	3.792088E-04	1.787608E-05
7.374071E+03	3.763160E-04	1.770847E-05
7.384063E+03	3.734251E-04	1.754050E-05
7.394055E+03	3.705208E-04	1.737146E-05
7.404047E+03	3.676196E-04	1.720216E-05
7.414039E+03	3.646987E-04	1.703156E-05
7.424031E+03	3.617588E-04	1.685973E-05
7.434023E+03	3.588087E-04	1.668710E-05
7.444015E+03	3.558568E-04	1.651410E-05
7.454007E+03	3.528960E-04	1.634042E-05
7.463999E+03	3.499424E-04	1.616683E-05
7.473991E+03	3.469963E-04	1.599337E-05
7.483983E+03	3.440733E-04	1.582079E-05
7.493975E+03	3.411661E-04	1.564876E-05
7.503967E+03	3.382898E-04	1.547800E-05
7.513959E+03	3.354446E-04	1.530852E-05
7.523951E+03	3.326304E-04	1.514035E-05
7.533943E+03	3.298546E-04	1.497383E-05
7.543935E+03	3.271100E-04	1.480864E-05
7.553927E+03	3.244110E-04	1.464545E-05
7.563919E+03	3.217502E-04	1.448393E-05
7.573911E+03	3.191274E-04	1.432408E-05
7.583903E+03	3.165500E-04	1.416624E-05
7.593895E+03	3.140174E-04	1.401040E-05
7.603886E+03	3.115296E-04	1.385654E-05
7.613878E+03	3.090793E-04	1.370436E-05
7.623870E+03	3.066805E-04	1.355448E-05
7.633862E+03	3.043188E-04	1.340626E-05
7.643854E+03	3.020082E-04	1.326033E-05
7.653846E+03	2.997344E-04	1.311606E-05
7.663838E+03	2.975111E-04	1.297404E-05
7.673830E+03	2.953243E-04	1.283368E-05
7.683822E+03	2.931875E-04	1.269557E-05
7.693814E+03	2.910937E-04	1.255938E-05
7.703806E+03	2.890427E-04	1.242512E-05
7.713798E+03	2.870276E-04	1.229250E-05
7.723790E+03	2.850615E-04	1.216206E-05
7.733782E+03	2.831377E-04	1.203353E-05
7.743774E+03	2.812559E-04	1.190689E-05
7.753766E+03	2.794092E-04	1.178185E-05
