#wls	flux	fluxerr
1.598715E+03	2.502477E-05	4.142058E-07
1.638682E+03	2.440701E-05	4.029983E-07
1.678650E+03	2.382348E-05	3.923818E-07
1.718618E+03	2.328450E-05	3.825224E-07
1.758586E+03	2.278533E-05	3.733386E-07
1.798554E+03	2.233753E-05	3.650149E-07
1.838522E+03	2.193804E-05	3.574956E-07
1.878490E+03	2.159327E-05	3.508794E-07
1.918458E+03	2.130587E-05	3.452021E-07
1.958425E+03	2.107903E-05	3.405082E-07
1.998393E+03	2.091852E-05	3.368817E-07
2.038361E+03	2.083867E-05	3.345433E-07
2.078329E+03	2.086250E-05	3.338492E-07
2.118297E+03	2.101830E-05	3.352341E-07
2.158265E+03	2.133735E-05	3.391734E-07
2.198233E+03	2.183949E-05	3.459540E-07
2.238200E+03	2.252641E-05	3.555701E-07
2.278168E+03	2.339120E-05	3.678791E-07
2.318136E+03	2.442811E-05	3.827574E-07
2.358104E+03	2.563781E-05	4.001810E-07
2.398072E+03	2.702766E-05	4.202291E-07
2.438040E+03	2.861011E-05	4.430559E-07
2.478008E+03	3.039458E-05	4.687653E-07
2.517976E+03	3.239846E-05	4.975789E-07
2.557943E+03	3.464057E-05	5.297347E-07
2.597911E+03	3.714086E-05	5.654813E-07
2.637879E+03	3.991343E-05	6.049707E-07
2.677847E+03	4.298360E-05	6.485191E-07
2.717815E+03	4.637096E-05	6.963473E-07
2.757783E+03	5.010412E-05	7.488031E-07
2.797751E+03	5.420207E-05	8.060809E-07
2.837718E+03	5.869779E-05	8.685739E-07
2.877686E+03	6.361047E-05	9.364597E-07
2.917654E+03	6.897007E-05	1.010066E-06
2.957622E+03	7.482907E-05	1.090034E-06
2.997590E+03	8.123264E-05	1.176884E-06
3.007582E+03	8.293101E-05	1.199834E-06
3.017574E+03	8.466659E-05	1.223247E-06
3.027566E+03	8.644522E-05	1.247205E-06
3.037558E+03	8.826797E-05	1.271721E-06
3.047550E+03	9.013637E-05	1.296814E-06
3.057542E+03	9.204681E-05	1.322429E-06
3.067534E+03	9.401054E-05	1.348724E-06
3.077526E+03	9.602874E-05	1.375712E-06
3.087518E+03	9.809192E-05	1.403255E-06
3.097510E+03	1.002118E-04	1.431515E-06
3.107502E+03	1.023897E-04	1.460509E-06
3.117494E+03	1.046268E-04	1.490250E-06
3.127486E+03	1.069247E-04	1.520755E-06
3.137477E+03	1.092847E-04	1.552039E-06
3.147469E+03	1.117084E-04	1.584119E-06
3.157461E+03	1.142030E-04	1.617095E-06
3.167453E+03	1.167703E-04	1.650985E-06
3.177445E+03	1.194062E-04	1.685730E-06
3.187437E+03	1.221244E-04	1.721514E-06
3.197429E+03	1.249210E-04	1.758278E-06
3.207421E+03	1.277979E-04	1.796045E-06
3.217413E+03	1.307635E-04	1.834924E-06
3.227405E+03	1.338262E-04	1.875029E-06
3.237397E+03	1.369762E-04	1.916215E-06
3.247389E+03	1.402283E-04	1.958683E-06
3.257381E+03	1.435791E-04	2.002378E-06
3.267373E+03	1.470440E-04	2.047508E-06
3.277365E+03	1.506195E-04	2.094018E-06
3.287357E+03	1.543090E-04	2.141944E-06
3.297349E+03	1.581221E-04	2.191412E-06
3.307341E+03	1.620622E-04	2.242462E-06
3.317333E+03	1.661396E-04	2.295228E-06
3.327325E+03	1.703514E-04	2.349657E-06
3.337317E+03	1.747152E-04	2.405986E-06
3.347309E+03	1.792283E-04	2.464163E-06
3.357301E+03	1.839020E-04	2.524335E-06
3.367293E+03	1.887337E-04	2.586456E-06
3.377285E+03	1.937495E-04	2.650869E-06
3.387277E+03	1.989403E-04	2.717439E-06
3.397269E+03	2.043182E-04	2.786319E-06
3.407261E+03	2.098961E-04	2.857670E-06
3.417253E+03	2.156799E-04	2.931558E-06
3.427244E+03	2.216753E-04	3.008047E-06
3.437236E+03	2.278963E-04	3.087311E-06
3.447228E+03	2.343490E-04	3.169418E-06
3.457220E+03	2.410484E-04	3.254552E-06
3.467212E+03	2.479852E-04	3.342571E-06
3.477204E+03	2.551907E-04	3.433880E-06
3.487196E+03	2.626641E-04	3.528448E-06
3.497188E+03	2.704133E-04	3.626363E-06
3.507180E+03	2.784543E-04	3.727820E-06
3.517172E+03	2.867868E-04	3.832792E-06
3.527164E+03	2.954277E-04	3.941487E-06
3.537156E+03	3.043766E-04	4.053877E-06
3.547148E+03	3.136422E-04	4.170054E-06
3.557140E+03	3.232149E-04	4.289870E-06
3.567132E+03	3.331120E-04	4.413532E-06
3.577124E+03	3.433330E-04	4.541010E-06
3.587116E+03	3.538674E-04	4.672143E-06
3.597108E+03	3.647229E-04	4.807010E-06
3.607100E+03	3.758981E-04	4.945570E-06
3.617092E+03	3.874003E-04	5.087895E-06
3.627084E+03	3.992175E-04	5.233807E-06
3.637076E+03	4.113568E-04	5.383375E-06
3.647068E+03	4.238148E-04	5.536533E-06
3.657060E+03	4.365981E-04	5.693344E-06
3.667052E+03	4.496928E-04	5.853603E-06
3.677044E+03	4.631250E-04	6.017630E-06
3.687036E+03	4.768695E-04	6.185073E-06
3.697028E+03	4.909316E-04	6.355979E-06
3.707020E+03	5.053268E-04	6.530526E-06
3.717012E+03	5.200386E-04	6.708479E-06
3.727003E+03	5.350709E-04	6.889867E-06
3.736995E+03	5.504393E-04	7.074868E-06
3.746987E+03	5.661252E-04	7.263219E-06
3.756979E+03	5.821315E-04	7.454939E-06
3.766971E+03	5.984616E-04	7.650047E-06
3.776963E+03	6.151177E-04	7.848550E-06
3.786955E+03	6.320904E-04	8.050307E-06
3.796947E+03	6.493811E-04	8.255316E-06
3.806939E+03	6.669789E-04	8.463416E-06
3.816931E+03	6.848964E-04	8.674748E-06
3.826923E+03	7.031218E-04	8.889141E-06
3.836915E+03	7.216542E-04	9.106566E-06
3.846907E+03	7.404672E-04	9.326671E-06
3.856899E+03	7.595846E-04	9.549736E-06
3.866891E+03	7.789913E-04	9.775554E-06
3.876883E+03	7.986843E-04	1.000407E-05
3.886875E+03	8.186333E-04	1.023489E-05
3.896867E+03	8.388609E-04	1.046828E-05
3.906859E+03	8.593346E-04	1.070382E-05
3.916851E+03	8.800625E-04	1.094159E-05
3.926843E+03	9.010244E-04	1.118134E-05
3.936835E+03	9.221984E-04	1.142278E-05
3.946827E+03	9.436054E-04	1.166615E-05
3.956819E+03	9.651930E-04	1.191080E-05
3.966811E+03	9.869811E-04	1.215697E-05
3.976803E+03	1.008945E-03	1.240434E-05
3.986795E+03	1.031058E-03	1.265258E-05
3.996787E+03	1.053323E-03	1.290173E-05
4.006779E+03	1.075699E-03	1.315127E-05
4.016771E+03	1.098201E-03	1.340139E-05
4.026762E+03	1.120786E-03	1.365156E-05
4.036754E+03	1.143438E-03	1.390159E-05
4.046746E+03	1.166159E-03	1.415151E-05
4.056738E+03	1.188900E-03	1.440072E-05
4.066730E+03	1.211662E-03	1.464924E-05
4.076722E+03	1.234410E-03	1.489667E-05
4.086714E+03	1.257128E-03	1.514281E-05
4.096706E+03	1.279799E-03	1.538746E-05
4.106698E+03	1.302405E-03	1.563044E-05
4.116690E+03	1.324892E-03	1.587110E-05
4.126682E+03	1.347277E-03	1.610967E-05
4.136674E+03	1.369509E-03	1.634555E-05
4.146666E+03	1.391584E-03	1.657872E-05
4.156658E+03	1.413450E-03	1.680857E-05
4.166650E+03	1.435106E-03	1.703513E-05
4.176642E+03	1.456533E-03	1.725818E-05
4.186634E+03	1.477696E-03	1.747735E-05
4.196626E+03	1.498556E-03	1.769220E-05
4.206618E+03	1.519135E-03	1.790302E-05
4.216610E+03	1.539358E-03	1.810896E-05
4.226602E+03	1.559242E-03	1.831025E-05
4.236594E+03	1.578732E-03	1.850628E-05
4.246586E+03	1.597829E-03	1.869710E-05
4.256578E+03	1.616492E-03	1.888227E-05
4.266570E+03	1.634721E-03	1.906183E-05
4.276562E+03	1.652478E-03	1.923536E-05
4.286554E+03	1.669724E-03	1.940248E-05
4.296546E+03	1.686502E-03	1.956371E-05
4.306538E+03	1.702736E-03	1.971822E-05
4.316530E+03	1.718446E-03	1.986628E-05
4.326521E+03	1.733615E-03	2.000774E-05
4.336513E+03	1.748246E-03	2.014269E-05
4.346505E+03	1.762342E-03	2.027120E-05
4.356497E+03	1.775867E-03	2.039289E-05
4.366489E+03	1.788866E-03	2.050833E-05
4.376481E+03	1.801325E-03	2.061739E-05
4.386473E+03	1.813271E-03	2.072044E-05
4.396465E+03	1.824714E-03	2.081758E-05
4.406457E+03	1.835683E-03	2.090922E-05
4.416449E+03	1.846170E-03	2.099527E-05
4.426441E+03	1.856227E-03	2.107636E-05
4.436433E+03	1.865827E-03	2.115222E-05
4.446425E+03	1.875005E-03	2.122326E-05
4.456417E+03	1.883734E-03	2.128921E-05
4.466409E+03	1.892032E-03	2.135029E-05
4.476401E+03	1.899891E-03	2.140645E-05
4.486393E+03	1.907332E-03	2.145795E-05
4.496385E+03	1.914310E-03	2.150430E-05
4.506377E+03	1.920865E-03	2.154598E-05
4.516369E+03	1.926976E-03	2.158278E-05
4.526361E+03	1.932619E-03	2.161445E-05
4.536353E+03	1.937818E-03	2.164131E-05
4.546345E+03	1.942552E-03	2.166311E-05
4.556337E+03	1.946800E-03	2.167967E-05
4.566329E+03	1.950589E-03	2.169129E-05
4.576321E+03	1.953856E-03	2.169732E-05
4.586313E+03	1.956646E-03	2.169828E-05
4.596305E+03	1.958901E-03	2.169354E-05
4.606297E+03	1.960626E-03	2.168319E-05
4.616289E+03	1.961807E-03	2.166709E-05
4.626280E+03	1.962447E-03	2.164531E-05
4.636272E+03	1.962492E-03	2.161729E-05
4.646264E+03	1.961950E-03	2.158312E-05
4.656256E+03	1.960808E-03	2.154270E-05
4.666248E+03	1.959033E-03	2.149568E-05
4.676240E+03	1.956617E-03	2.144201E-05
4.686232E+03	1.953545E-03	2.138156E-05
4.696224E+03	1.949814E-03	2.131430E-05
4.706216E+03	1.945411E-03	2.124014E-05
4.716208E+03	1.940330E-03	2.115903E-05
4.726200E+03	1.934584E-03	2.107113E-05
4.736192E+03	1.928188E-03	2.097663E-05
4.746184E+03	1.921193E-03	2.087612E-05
4.756176E+03	1.913635E-03	2.076999E-05
4.766168E+03	1.905544E-03	2.065862E-05
4.776160E+03	1.896994E-03	2.054279E-05
4.786152E+03	1.888015E-03	2.042287E-05
4.796144E+03	1.878661E-03	2.029944E-05
4.806136E+03	1.868942E-03	2.017261E-05
4.816128E+03	1.858908E-03	2.004295E-05
4.826120E+03	1.848589E-03	1.991077E-05
4.836112E+03	1.837997E-03	1.977623E-05
4.846104E+03	1.827160E-03	1.963961E-05
4.856096E+03	1.816090E-03	1.950107E-05
4.866088E+03	1.804815E-03	1.936089E-05
4.876080E+03	1.793327E-03	1.921901E-05
4.886072E+03	1.781673E-03	1.907591E-05
4.896064E+03	1.769843E-03	1.893151E-05
4.906056E+03	1.757848E-03	1.878591E-05
4.916047E+03	1.745715E-03	1.863940E-05
4.926039E+03	1.733416E-03	1.849171E-05
4.936031E+03	1.721014E-03	1.834347E-05
4.946023E+03	1.708467E-03	1.819426E-05
4.956015E+03	1.695832E-03	1.804468E-05
4.966007E+03	1.683070E-03	1.789431E-05
4.975999E+03	1.670221E-03	1.774358E-05
4.985991E+03	1.657294E-03	1.759257E-05
4.995983E+03	1.644281E-03	1.744120E-05
5.005975E+03	1.631188E-03	1.728953E-05
5.015967E+03	1.618024E-03	1.713766E-05
5.025959E+03	1.604814E-03	1.698584E-05
5.035951E+03	1.591547E-03	1.683396E-05
5.045943E+03	1.578231E-03	1.668208E-05
5.055935E+03	1.564890E-03	1.653048E-05
5.065927E+03	1.551512E-03	1.637902E-05
5.075919E+03	1.538108E-03	1.622779E-05
5.085911E+03	1.524681E-03	1.607684E-05
5.095903E+03	1.511241E-03	1.592625E-05
5.105895E+03	1.497791E-03	1.577607E-05
5.115887E+03	1.484354E-03	1.562652E-05
5.125879E+03	1.470904E-03	1.547734E-05
5.135871E+03	1.457465E-03	1.532874E-05
5.145863E+03	1.444054E-03	1.518093E-05
5.155855E+03	1.430650E-03	1.503366E-05
5.165847E+03	1.417272E-03	1.488713E-05
5.175839E+03	1.403911E-03	1.474124E-05
5.185831E+03	1.390586E-03	1.459619E-05
5.195823E+03	1.377305E-03	1.445204E-05
5.205815E+03	1.364054E-03	1.430865E-05
5.215806E+03	1.350857E-03	1.416626E-05
5.225798E+03	1.337702E-03	1.402474E-05
5.235790E+03	1.324609E-03	1.388428E-05
5.245782E+03	1.311556E-03	1.374467E-05
5.255774E+03	1.298559E-03	1.360605E-05
5.265766E+03	1.285640E-03	1.346863E-05
5.275758E+03	1.272774E-03	1.333218E-05
5.285750E+03	1.259981E-03	1.319685E-05
5.295742E+03	1.247253E-03	1.306257E-05
5.305734E+03	1.234594E-03	1.292937E-05
5.315726E+03	1.222022E-03	1.279741E-05
5.325718E+03	1.209528E-03	1.266659E-05
5.335710E+03	1.197118E-03	1.253695E-05
5.345702E+03	1.184785E-03	1.240842E-05
5.355694E+03	1.172545E-03	1.228114E-05
5.365686E+03	1.160392E-03	1.215504E-05
5.375678E+03	1.148338E-03	1.203025E-05
5.385670E+03	1.136365E-03	1.190653E-05
5.395662E+03	1.124482E-03	1.178400E-05
5.405654E+03	1.112692E-03	1.166266E-05
5.415646E+03	1.100996E-03	1.154252E-05
5.425638E+03	1.089383E-03	1.142344E-05
5.435630E+03	1.077855E-03	1.130545E-05
5.445622E+03	1.066425E-03	1.118866E-05
5.455614E+03	1.055072E-03	1.107285E-05
5.465606E+03	1.043809E-03	1.095814E-05
5.475598E+03	1.032637E-03	1.084453E-05
5.485590E+03	1.021547E-03	1.073193E-05
5.495582E+03	1.010540E-03	1.062033E-05
5.505574E+03	9.996295E-04	1.050986E-05
5.515565E+03	9.888054E-04	1.040041E-05
5.525557E+03	9.780890E-04	1.029219E-05
5.535549E+03	9.674615E-04	1.018501E-05
5.545541E+03	9.569339E-04	1.007897E-05
5.555533E+03	9.465070E-04	9.974071E-06
5.565525E+03	9.361815E-04	9.870312E-06
5.575517E+03	9.259579E-04	9.767694E-06
5.585509E+03	9.158462E-04	9.666315E-06
5.595501E+03	9.058371E-04	9.566071E-06
5.605493E+03	8.959311E-04	9.466963E-06
5.615485E+03	8.861463E-04	9.369175E-06
5.625477E+03	8.764645E-04	9.272511E-06
5.635469E+03	8.669032E-04	9.177149E-06
5.645461E+03	8.574445E-04	9.082898E-06
5.655453E+03	8.481053E-04	8.989930E-06
5.665445E+03	8.388851E-04	8.898237E-06
5.675437E+03	8.297742E-04	8.807712E-06
5.685429E+03	8.207805E-04	8.718437E-06
5.695421E+03	8.118947E-04	8.630306E-06
5.705413E+03	8.031326E-04	8.543485E-06
5.715405E+03	7.944762E-04	8.457782E-06
5.725397E+03	7.859408E-04	8.373354E-06
5.735389E+03	7.775252E-04	8.290188E-06
5.745381E+03	7.692117E-04	8.208092E-06
5.755373E+03	7.610152E-04	8.127222E-06
5.765365E+03	7.529340E-04	8.047559E-06
5.775357E+03	7.449666E-04	7.969084E-06
5.785349E+03	7.371114E-04	7.891779E-06
5.795341E+03	7.293590E-04	7.815543E-06
5.805333E+03	7.217233E-04	7.740520E-06
5.815324E+03	7.141872E-04	7.666530E-06
5.825316E+03	7.067643E-04	7.593713E-06
5.835308E+03	6.994454E-04	7.521973E-06
5.845300E+03	6.922359E-04	7.451366E-06
5.855292E+03	6.851269E-04	7.381795E-06
5.865284E+03	6.781240E-04	7.313319E-06
5.875276E+03	6.712179E-04	7.245840E-06
5.885268E+03	6.644144E-04	7.179418E-06
5.895260E+03	6.577113E-04	7.114030E-06
5.905252E+03	6.511002E-04	7.049584E-06
5.915244E+03	6.445864E-04	6.986137E-06
5.925236E+03	6.381748E-04	6.923744E-06
5.935228E+03	6.318500E-04	6.862236E-06
5.945220E+03	6.256172E-04	6.801670E-06
5.955212E+03	6.194815E-04	6.742102E-06
5.965204E+03	6.134277E-04	6.683368E-06
5.975196E+03	6.074676E-04	6.625595E-06
5.985188E+03	6.015864E-04	6.568622E-06
5.995180E+03	5.957955E-04	6.512576E-06
6.005172E+03	5.900870E-04	6.457369E-06
6.015164E+03	5.844530E-04	6.402915E-06
6.025156E+03	5.788984E-04	6.349270E-06
6.035148E+03	5.734282E-04	6.296487E-06
6.045140E+03	5.680220E-04	6.244344E-06
6.055132E+03	5.626913E-04	6.192967E-06
6.065124E+03	5.574284E-04	6.142274E-06
6.075116E+03	5.522323E-04	6.092252E-06
6.085108E+03	5.470957E-04	6.042822E-06
6.095100E+03	5.420237E-04	5.994040E-06
6.105092E+03	5.370034E-04	5.945763E-06
6.115083E+03	5.320337E-04	5.897981E-06
6.125075E+03	5.271200E-04	5.850754E-06
6.135067E+03	5.222437E-04	5.803873E-06
6.145059E+03	5.174219E-04	5.757529E-06
6.155051E+03	5.126420E-04	5.711583E-06
6.165043E+03	5.079035E-04	5.666025E-06
6.175035E+03	5.032171E-04	5.620973E-06
6.185027E+03	4.985818E-04	5.576417E-06
6.195019E+03	4.939970E-04	5.532344E-06
6.205011E+03	4.894617E-04	5.488747E-06
6.215003E+03	4.849808E-04	5.445677E-06
6.224995E+03	4.805589E-04	5.403186E-06
6.234987E+03	4.761895E-04	5.361200E-06
6.244979E+03	4.718887E-04	5.319899E-06
6.254971E+03	4.676384E-04	5.279081E-06
6.264963E+03	4.634546E-04	5.238925E-06
6.274955E+03	4.593360E-04	5.199417E-06
6.284947E+03	4.552762E-04	5.160486E-06
6.294939E+03	4.512797E-04	5.122181E-06
6.304931E+03	4.473401E-04	5.084430E-06
6.314923E+03	4.434669E-04	5.047343E-06
6.324915E+03	4.396483E-04	5.010787E-06
6.334907E+03	4.358887E-04	4.974810E-06
6.344899E+03	4.321866E-04	4.939398E-06
6.354891E+03	4.285410E-04	4.904538E-06
6.364883E+03	4.249451E-04	4.870154E-06
6.374875E+03	4.213975E-04	4.836232E-06
6.384867E+03	4.178968E-04	4.802754E-06
6.394859E+03	4.144363E-04	4.769644E-06
6.404851E+03	4.110193E-04	4.736940E-06
6.414842E+03	4.076302E-04	4.704463E-06
6.424834E+03	4.042789E-04	4.672328E-06
6.434826E+03	4.009506E-04	4.640361E-06
6.444818E+03	3.976496E-04	4.608616E-06
6.454810E+03	3.943660E-04	4.576974E-06
6.464802E+03	3.911041E-04	4.545488E-06
6.474794E+03	3.878588E-04	4.514094E-06
6.484786E+03	3.846291E-04	4.482785E-06
6.494778E+03	3.814147E-04	4.451554E-06
6.504770E+03	3.782198E-04	4.420449E-06
6.514762E+03	3.750388E-04	4.389406E-06
6.524754E+03	3.718852E-04	4.358583E-06
6.534746E+03	3.687488E-04	4.327860E-06
6.544738E+03	3.656381E-04	4.297336E-06
6.554730E+03	3.625524E-04	4.267006E-06
6.564722E+03	3.594908E-04	4.236856E-06
6.574714E+03	3.564573E-04	4.206936E-06
6.584706E+03	3.534509E-04	4.177233E-06
6.594698E+03	3.504707E-04	4.147739E-06
6.604690E+03	3.475207E-04	4.118502E-06
6.614682E+03	3.446000E-04	4.089510E-06
6.624674E+03	3.417080E-04	4.060757E-06
6.634666E+03	3.388483E-04	4.032289E-06
6.644658E+03	3.360156E-04	4.004043E-06
6.654650E+03	3.332140E-04	3.976066E-06
6.664642E+03	3.304425E-04	3.948352E-06
6.674634E+03	3.277051E-04	3.920945E-06
6.684626E+03	3.249922E-04	3.893734E-06
6.694618E+03	3.223119E-04	3.866817E-06
6.704609E+03	3.196640E-04	3.840191E-06
6.714601E+03	3.170433E-04	3.813796E-06
6.724593E+03	3.144535E-04	3.787678E-06
6.734585E+03	3.118942E-04	3.761834E-06
6.744577E+03	3.093650E-04	3.736257E-06
6.754569E+03	3.068609E-04	3.710891E-06
6.764561E+03	3.043903E-04	3.685838E-06
6.774553E+03	3.019439E-04	3.660986E-06
6.784545E+03	2.995300E-04	3.636438E-06
6.794537E+03	2.971396E-04	3.612084E-06
6.804529E+03	2.947809E-04	3.588027E-06
6.814521E+03	2.924492E-04	3.564209E-06
6.824513E+03	2.901441E-04	3.540628E-06
6.834505E+03	2.878654E-04	3.517282E-06
6.844497E+03	2.856168E-04	3.494219E-06
6.854489E+03	2.833897E-04	3.471332E-06
6.864481E+03	2.811921E-04	3.448722E-06
6.874473E+03	2.790196E-04	3.426337E-06
6.884465E+03	2.768719E-04	3.404173E-06
6.894457E+03	2.747488E-04	3.382230E-06
6.904449E+03	2.726539E-04	3.360553E-06
6.914441E+03	2.705791E-04	3.339043E-06
6.924433E+03	2.685320E-04	3.317796E-06
6.934425E+03	2.665086E-04	3.296763E-06
6.944417E+03	2.645044E-04	3.275889E-06
6.954409E+03	2.625275E-04	3.255276E-06
6.964401E+03	2.605733E-04	3.234869E-06
6.974393E+03	2.586420E-04	3.214671E-06
6.984385E+03	2.567333E-04	3.194678E-06
6.994377E+03	2.548429E-04	3.174841E-06
7.004368E+03	2.529787E-04	3.155256E-06
7.014360E+03	2.511366E-04	3.135875E-06
7.024352E+03	2.493123E-04	3.116646E-06
7.034344E+03	2.475099E-04	3.097619E-06
7.044336E+03	2.457291E-04	3.078793E-06
7.054328E+03	2.439696E-04	3.060166E-06
7.064320E+03	2.422277E-04	3.041691E-06
7.074312E+03	2.405068E-04	3.023414E-06
7.084304E+03	2.388072E-04	3.005336E-06
7.094296E+03	2.371283E-04	2.987455E-06
7.104288E+03	2.354665E-04	2.969724E-06
7.114280E+03	2.338254E-04	2.952191E-06
7.124272E+03	2.322012E-04	2.934808E-06
7.134264E+03	2.305975E-04	2.917620E-06
7.144256E+03	2.290141E-04	2.900629E-06
7.154248E+03	2.274512E-04	2.883837E-06
7.164240E+03	2.259046E-04	2.867191E-06
7.174232E+03	2.243744E-04	2.850695E-06
7.184224E+03	2.228681E-04	2.834444E-06
7.194216E+03	2.213780E-04	2.818341E-06
7.204208E+03	2.199041E-04	2.802388E-06
7.214200E+03	2.184537E-04	2.786679E-06
7.224192E+03	2.170193E-04	2.771119E-06
7.234184E+03	2.156083E-04	2.755803E-06
7.244176E+03	2.142133E-04	2.740639E-06
7.254168E+03	2.128378E-04	2.725670E-06
7.264160E+03	2.114817E-04	2.710899E-06
7.274152E+03	2.101487E-04	2.696372E-06
7.284144E+03	2.088350E-04	2.682044E-06
7.294136E+03	2.075406E-04	2.667913E-06
7.304127E+03	2.062654E-04	2.653981E-06
7.314119E+03	2.050130E-04	2.640294E-06
7.324111E+03	2.037834E-04	2.626854E-06
7.334103E+03	2.025726E-04	2.613610E-06
7.344095E+03	2.013845E-04	2.600614E-06
7.354087E+03	2.002189E-04	2.587865E-06
7.364079E+03	1.990757E-04	2.575361E-06
7.374071E+03	1.979550E-04	2.563105E-06
7.384063E+03	1.968602E-04	2.551142E-06
7.394055E+03	1.957876E-04	2.539426E-06
7.404047E+03	1.947372E-04	2.527959E-06
7.414039E+03	1.937160E-04	2.516831E-06
7.424031E+03	1.927170E-04	2.505953E-06
7.434023E+03	1.917472E-04	2.495415E-06
7.444015E+03	1.908028E-04	2.485173E-06
7.454007E+03	1.898805E-04	2.475183E-06
7.463999E+03	1.889800E-04	2.465442E-06
7.473991E+03	1.881050E-04	2.455999E-06
7.483983E+03	1.872483E-04	2.446761E-06
7.493975E+03	1.864101E-04	2.437733E-06
7.503967E+03	1.855939E-04	2.428959E-06
7.513959E+03	1.847925E-04	2.420348E-06
7.523951E+03	1.840131E-04	2.411994E-06
7.533943E+03	1.832487E-04	2.403807E-06
7.543935E+03	1.824994E-04	2.395788E-06
7.553927E+03	1.817722E-04	2.388029E-06
7.563919E+03	1.810565E-04	2.380395E-06
7.573911E+03	1.803562E-04	2.372933E-06
7.583903E+03	1.796745E-04	2.365690E-06
7.593895E+03	1.790046E-04	2.358577E-06
7.603886E+03	1.783537E-04	2.351686E-06
7.613878E+03	1.777146E-04	2.344926E-06
7.623870E+03	1.770878E-04	2.338303E-06
7.633862E+03	1.764799E-04	2.331905E-06
7.643854E+03	1.758842E-04	2.325645E-06
7.653846E+03	1.753009E-04	2.319524E-06
7.663838E+03	1.747334E-04	2.313591E-06
7.673830E+03	1.741785E-04	2.307800E-06
7.683822E+03	1.736395E-04	2.302200E-06
7.693814E+03	1.731131E-04	2.296744E-06
7.703806E+03	1.725995E-04	2.291439E-06
7.713798E+03	1.721022E-04	2.286329E-06
7.723790E+03	1.716179E-04	2.281371E-06
7.733782E+03	1.711499E-04	2.276612E-06
7.743774E+03	1.706918E-04	2.271964E-06
7.753766E+03	1.702504E-04	2.267521E-06
