#wls	flux	fluxerr
1.598715E+03	2.637916E-05	4.098868E-07
1.638682E+03	2.573068E-05	3.988320E-07
1.678650E+03	2.511854E-05	3.883657E-07
1.718618E+03	2.454986E-05	3.785947E-07
1.758586E+03	2.402749E-05	3.695588E-07
1.798554E+03	2.355633E-05	3.613287E-07
1.838522E+03	2.313718E-05	3.539112E-07
1.878490E+03	2.277996E-05	3.474518E-07
1.918458E+03	2.248126E-05	3.418913E-07
1.958425E+03	2.224796E-05	3.373267E-07
1.998393E+03	2.208929E-05	3.338889E-07
2.038361E+03	2.202029E-05	3.317944E-07
2.078329E+03	2.205972E-05	3.313118E-07
2.118297E+03	2.224635E-05	3.330052E-07
2.158265E+03	2.261335E-05	3.373467E-07
2.198233E+03	2.317949E-05	3.445861E-07
2.238200E+03	2.395002E-05	3.547681E-07
2.278168E+03	2.492404E-05	3.678439E-07
2.318136E+03	2.609645E-05	3.837019E-07
2.358104E+03	2.746899E-05	4.023304E-07
2.398072E+03	2.905641E-05	4.239059E-07
2.438040E+03	3.086734E-05	4.485107E-07
2.478008E+03	3.292562E-05	4.764439E-07
2.517976E+03	3.524219E-05	5.078114E-07
2.557943E+03	3.784791E-05	5.430002E-07
2.597911E+03	4.075580E-05	5.821330E-07
2.637879E+03	4.399602E-05	6.255707E-07
2.677847E+03	4.758988E-05	6.735389E-07
2.717815E+03	5.156321E-05	7.263192E-07
2.757783E+03	5.595100E-05	7.843115E-07
2.797751E+03	6.077140E-05	8.476691E-07
2.837718E+03	6.606392E-05	9.168337E-07
2.877686E+03	7.185526E-05	9.920559E-07
2.917654E+03	7.818805E-05	1.073795E-06
2.957622E+03	8.511958E-05	1.162693E-06
2.997590E+03	9.272950E-05	1.259678E-06
3.007582E+03	9.475272E-05	1.285367E-06
3.017574E+03	9.682141E-05	1.311589E-06
3.027566E+03	9.894143E-05	1.338419E-06
3.037558E+03	1.011190E-04	1.365939E-06
3.047550E+03	1.033560E-04	1.394171E-06
3.057542E+03	1.056494E-04	1.423068E-06
3.067534E+03	1.080054E-04	1.452711E-06
3.077526E+03	1.104252E-04	1.483114E-06
3.087518E+03	1.129102E-04	1.514289E-06
3.097510E+03	1.154671E-04	1.546323E-06
3.107502E+03	1.180922E-04	1.579161E-06
3.117494E+03	1.207978E-04	1.612962E-06
3.127486E+03	1.235749E-04	1.647602E-06
3.137477E+03	1.264416E-04	1.683317E-06
3.147469E+03	1.293834E-04	1.719908E-06
3.157461E+03	1.324190E-04	1.757619E-06
3.167453E+03	1.355449E-04	1.796397E-06
3.177445E+03	1.387691E-04	1.836341E-06
3.187437E+03	1.420884E-04	1.877405E-06
3.197429E+03	1.455109E-04	1.919686E-06
3.207421E+03	1.490451E-04	1.963293E-06
3.217413E+03	1.526881E-04	2.008177E-06
3.227405E+03	1.564488E-04	2.054448E-06
3.237397E+03	1.603359E-04	2.102215E-06
3.247389E+03	1.643532E-04	2.151517E-06
3.257381E+03	1.684978E-04	2.202308E-06
3.267373E+03	1.727855E-04	2.254786E-06
3.277365E+03	1.772204E-04	2.308995E-06
3.287357E+03	1.817999E-04	2.364891E-06
3.297349E+03	1.865409E-04	2.422685E-06
3.307341E+03	1.914479E-04	2.482422E-06
3.317333E+03	1.965317E-04	2.544234E-06
3.327325E+03	2.017909E-04	2.608088E-06
3.337317E+03	2.072302E-04	2.674035E-06
3.347309E+03	2.128749E-04	2.742388E-06
3.357301E+03	2.187169E-04	2.813030E-06
3.367293E+03	2.247688E-04	2.886108E-06
3.377285E+03	2.310363E-04	2.961683E-06
3.387277E+03	2.375327E-04	3.039909E-06
3.397269E+03	2.442712E-04	3.120939E-06
3.407261E+03	2.512443E-04	3.204662E-06
3.417253E+03	2.584731E-04	3.291332E-06
3.427244E+03	2.659647E-04	3.381020E-06
3.437236E+03	2.737190E-04	3.473709E-06
3.447228E+03	2.817432E-04	3.569470E-06
3.457220E+03	2.900599E-04	3.668573E-06
3.467212E+03	2.986542E-04	3.770808E-06
3.477204E+03	3.075414E-04	3.876350E-06
3.487196E+03	3.167294E-04	3.985279E-06
3.497188E+03	3.262102E-04	4.097474E-06
3.507180E+03	3.359916E-04	4.213013E-06
3.517172E+03	3.460652E-04	4.331769E-06
3.527164E+03	3.564383E-04	4.453815E-06
3.537156E+03	3.671101E-04	4.579119E-06
3.547148E+03	3.780708E-04	4.707541E-06
3.557140E+03	3.893188E-04	4.839040E-06
3.567132E+03	4.008606E-04	4.973676E-06
3.577124E+03	4.126853E-04	5.111295E-06
3.587116E+03	4.247899E-04	5.251841E-06
3.597108E+03	4.371620E-04	5.395142E-06
3.607100E+03	4.497887E-04	5.541020E-06
3.617092E+03	4.626739E-04	5.689506E-06
3.627084E+03	4.758032E-04	5.840406E-06
3.637076E+03	4.891800E-04	5.993745E-06
3.647068E+03	5.028072E-04	6.149542E-06
3.657060E+03	5.166880E-04	6.307818E-06
3.667052E+03	5.308250E-04	6.468589E-06
3.677044E+03	5.452210E-04	6.631870E-06
3.687036E+03	5.598780E-04	6.797671E-06
3.697028E+03	5.747986E-04	6.966004E-06
3.707020E+03	5.899741E-04	7.136746E-06
3.717012E+03	6.054265E-04	7.310148E-06
3.727003E+03	6.211365E-04	7.485959E-06
3.736995E+03	6.371051E-04	7.664172E-06
3.746987E+03	6.533323E-04	7.844771E-06
3.756979E+03	6.698288E-04	8.027869E-06
3.766971E+03	6.865729E-04	8.213190E-06
3.776963E+03	7.035744E-04	8.400833E-06
3.786955E+03	7.208322E-04	8.590769E-06
3.796947E+03	7.383330E-04	8.782826E-06
3.806939E+03	7.560746E-04	8.976960E-06
3.816931E+03	7.740539E-04	9.173124E-06
3.826923E+03	7.922675E-04	9.371259E-06
3.836915E+03	8.106996E-04	9.571167E-06
3.846907E+03	8.293573E-04	9.772918E-06
3.856899E+03	8.482235E-04	9.976300E-06
3.866891E+03	8.672922E-04	1.018123E-05
3.876883E+03	8.865695E-04	1.038777E-05
3.886875E+03	9.060234E-04	1.059553E-05
3.896867E+03	9.256461E-04	1.080441E-05
3.906859E+03	9.454417E-04	1.101446E-05
3.916851E+03	9.654017E-04	1.122556E-05
3.926843E+03	9.855035E-04	1.143745E-05
3.936835E+03	1.005737E-03	1.165000E-05
3.946827E+03	1.026092E-03	1.186309E-05
3.956819E+03	1.046556E-03	1.207658E-05
3.966811E+03	1.067118E-03	1.229033E-05
3.976803E+03	1.087766E-03	1.250421E-05
3.986795E+03	1.108474E-03	1.271790E-05
3.996787E+03	1.129242E-03	1.293143E-05
4.006779E+03	1.150057E-03	1.314463E-05
4.016771E+03	1.170892E-03	1.335720E-05
4.026762E+03	1.191732E-03	1.356899E-05
4.036754E+03	1.212563E-03	1.377983E-05
4.046746E+03	1.233387E-03	1.398976E-05
4.056738E+03	1.254161E-03	1.419828E-05
4.066730E+03	1.274901E-03	1.440560E-05
4.076722E+03	1.295564E-03	1.461124E-05
4.086714E+03	1.316152E-03	1.481524E-05
4.096706E+03	1.336640E-03	1.501732E-05
4.106698E+03	1.357033E-03	1.521756E-05
4.116690E+03	1.377305E-03	1.541567E-05
4.126682E+03	1.397449E-03	1.561161E-05
4.136674E+03	1.417458E-03	1.580531E-05
4.146666E+03	1.437312E-03	1.599654E-05
4.156658E+03	1.457026E-03	1.618552E-05
4.166650E+03	1.476585E-03	1.637208E-05
4.176642E+03	1.495989E-03	1.655625E-05
4.186634E+03	1.515227E-03	1.673794E-05
4.196626E+03	1.534307E-03	1.691722E-05
4.206618E+03	1.553238E-03	1.709425E-05
4.216610E+03	1.572014E-03	1.726896E-05
4.226602E+03	1.590647E-03	1.744150E-05
4.236594E+03	1.609109E-03	1.761161E-05
4.246586E+03	1.627445E-03	1.777976E-05
4.256578E+03	1.645607E-03	1.794548E-05
4.266570E+03	1.663590E-03	1.810874E-05
4.276562E+03	1.681390E-03	1.826949E-05
4.286554E+03	1.698971E-03	1.842738E-05
4.296546E+03	1.716294E-03	1.858202E-05
4.306538E+03	1.733333E-03	1.873313E-05
4.316530E+03	1.750014E-03	1.887997E-05
4.326521E+03	1.766322E-03	1.902239E-05
4.336513E+03	1.782161E-03	1.915942E-05
4.346505E+03	1.797548E-03	1.929124E-05
4.356497E+03	1.812369E-03	1.941670E-05
4.366489E+03	1.826640E-03	1.953599E-05
4.376481E+03	1.840307E-03	1.964858E-05
4.386473E+03	1.853354E-03	1.975434E-05
4.396465E+03	1.865768E-03	1.985316E-05
4.406457E+03	1.877596E-03	1.994558E-05
4.416449E+03	1.888831E-03	2.003157E-05
4.426441E+03	1.899489E-03	2.011133E-05
4.436433E+03	1.909589E-03	2.018509E-05
4.446425E+03	1.919150E-03	2.025308E-05
4.456417E+03	1.928198E-03	2.031562E-05
4.466409E+03	1.936717E-03	2.037258E-05
4.476401E+03	1.944738E-03	2.042428E-05
4.486393E+03	1.952268E-03	2.047086E-05
4.496385E+03	1.959342E-03	2.051268E-05
4.506377E+03	1.965914E-03	2.054931E-05
4.516369E+03	1.972056E-03	2.058152E-05
4.526361E+03	1.977726E-03	2.060890E-05
4.536353E+03	1.982921E-03	2.063143E-05
4.546345E+03	1.987682E-03	2.064957E-05
4.556337E+03	1.992006E-03	2.066332E-05
4.566329E+03	1.995854E-03	2.067228E-05
4.576321E+03	1.999248E-03	2.067672E-05
4.586313E+03	2.002189E-03	2.067667E-05
4.596305E+03	2.004659E-03	2.067196E-05
4.606297E+03	2.006645E-03	2.066248E-05
4.616289E+03	2.008148E-03	2.064826E-05
4.626280E+03	2.009153E-03	2.062918E-05
4.636272E+03	2.009626E-03	2.060491E-05
4.646264E+03	2.009554E-03	2.057533E-05
4.656256E+03	2.008924E-03	2.054035E-05
4.666248E+03	2.007703E-03	2.049964E-05
4.676240E+03	2.005841E-03	2.045272E-05
4.686232E+03	2.003345E-03	2.039970E-05
4.696224E+03	2.000129E-03	2.033973E-05
4.706216E+03	1.996204E-03	2.027294E-05
4.716208E+03	1.991543E-03	2.019908E-05
4.726200E+03	1.986137E-03	2.011811E-05
4.736192E+03	1.980021E-03	2.003039E-05
4.746184E+03	1.973265E-03	1.993667E-05
4.756176E+03	1.965922E-03	1.983749E-05
4.766168E+03	1.958004E-03	1.973302E-05
4.776160E+03	1.949582E-03	1.962397E-05
4.786152E+03	1.940690E-03	1.951071E-05
4.796144E+03	1.931397E-03	1.939394E-05
4.806136E+03	1.921696E-03	1.927361E-05
4.816128E+03	1.911655E-03	1.915041E-05
4.826120E+03	1.901271E-03	1.902431E-05
4.836112E+03	1.890609E-03	1.889600E-05
4.846104E+03	1.879682E-03	1.876558E-05
4.856096E+03	1.868483E-03	1.863300E-05
4.866088E+03	1.857077E-03	1.849892E-05
4.876080E+03	1.845459E-03	1.836329E-05
4.886072E+03	1.833638E-03	1.822621E-05
4.896064E+03	1.821642E-03	1.808794E-05
4.906056E+03	1.809485E-03	1.794864E-05
4.916047E+03	1.797173E-03	1.780837E-05
4.926039E+03	1.784734E-03	1.766741E-05
4.936031E+03	1.772145E-03	1.752552E-05
4.946023E+03	1.759450E-03	1.738313E-05
4.956015E+03	1.746656E-03	1.724034E-05
4.966007E+03	1.733757E-03	1.709706E-05
4.975999E+03	1.720760E-03	1.695338E-05
4.985991E+03	1.707675E-03	1.680938E-05
4.995983E+03	1.694528E-03	1.666532E-05
5.005975E+03	1.681309E-03	1.652110E-05
5.015967E+03	1.668027E-03	1.637681E-05
5.025959E+03	1.654689E-03	1.623251E-05
5.035951E+03	1.641321E-03	1.608845E-05
5.045943E+03	1.627895E-03	1.594437E-05
5.055935E+03	1.614438E-03	1.580050E-05
5.065927E+03	1.600955E-03	1.565691E-05
5.075919E+03	1.587453E-03	1.551366E-05
5.085911E+03	1.573940E-03	1.537082E-05
5.095903E+03	1.560421E-03	1.522843E-05
5.105895E+03	1.546874E-03	1.508627E-05
5.115887E+03	1.533348E-03	1.494483E-05
5.125879E+03	1.519821E-03	1.480388E-05
5.135871E+03	1.506299E-03	1.466346E-05
5.145863E+03	1.492787E-03	1.452364E-05
5.155855E+03	1.479291E-03	1.438446E-05
5.165847E+03	1.465818E-03	1.424597E-05
5.175839E+03	1.452387E-03	1.410836E-05
5.185831E+03	1.438959E-03	1.397126E-05
5.195823E+03	1.425584E-03	1.383513E-05
5.205815E+03	1.412239E-03	1.369973E-05
5.215806E+03	1.398942E-03	1.356526E-05
5.225798E+03	1.385686E-03	1.343162E-05
5.235790E+03	1.372460E-03	1.329871E-05
5.245782E+03	1.359299E-03	1.316686E-05
5.255774E+03	1.346193E-03	1.303596E-05
5.265766E+03	1.333147E-03	1.290607E-05
5.275758E+03	1.320154E-03	1.277709E-05
5.285750E+03	1.307220E-03	1.264908E-05
5.295742E+03	1.294361E-03	1.252218E-05
5.305734E+03	1.281558E-03	1.239619E-05
5.315726E+03	1.268841E-03	1.227139E-05
5.325718E+03	1.256191E-03	1.214759E-05
5.335710E+03	1.243613E-03	1.202481E-05
5.345702E+03	1.231124E-03	1.190320E-05
5.355694E+03	1.218716E-03	1.178269E-05
5.365686E+03	1.206382E-03	1.166318E-05
5.375678E+03	1.194149E-03	1.154493E-05
5.385670E+03	1.181982E-03	1.142760E-05
5.395662E+03	1.169899E-03	1.131133E-05
5.405654E+03	1.157899E-03	1.119611E-05
5.415646E+03	1.145975E-03	1.108186E-05
5.425638E+03	1.134138E-03	1.096868E-05
5.435630E+03	1.122368E-03	1.085636E-05
5.445622E+03	1.110679E-03	1.074503E-05
5.455614E+03	1.099062E-03	1.063459E-05
5.465606E+03	1.087530E-03	1.052516E-05
5.475598E+03	1.076094E-03	1.041684E-05
5.485590E+03	1.064726E-03	1.030934E-05
5.495582E+03	1.053459E-03	1.020297E-05
5.505574E+03	1.042262E-03	1.009744E-05
5.515565E+03	1.031150E-03	9.992854E-06
5.525557E+03	1.020132E-03	9.889331E-06
5.535549E+03	1.009202E-03	9.786774E-06
5.545541E+03	9.983600E-04	9.685190E-06
5.555533E+03	9.876180E-04	9.584684E-06
5.565525E+03	9.769669E-04	9.485161E-06
5.575517E+03	9.664177E-04	9.386722E-06
5.585509E+03	9.559710E-04	9.289366E-06
5.595501E+03	9.456278E-04	9.193095E-06
5.605493E+03	9.353977E-04	9.097999E-06
5.615485E+03	9.252619E-04	9.003888E-06
5.625477E+03	9.152397E-04	8.910944E-06
5.635469E+03	9.053310E-04	8.819160E-06
5.645461E+03	8.955262E-04	8.728440E-06
5.655453E+03	8.858341E-04	8.638864E-06
5.665445E+03	8.762544E-04	8.550423E-06
5.675437E+03	8.667862E-04	8.463107E-06
5.685429E+03	8.574291E-04	8.376906E-06
5.695421E+03	8.481821E-04	8.291805E-06
5.705413E+03	8.390530E-04	8.207880E-06
5.715405E+03	8.300320E-04	8.125030E-06
5.725397E+03	8.211268E-04	8.043326E-06
5.735389E+03	8.123358E-04	7.962750E-06
5.745381E+03	8.036577E-04	7.883288E-06
5.755373E+03	7.950829E-04	7.804841E-06
5.765365E+03	7.866265E-04	7.727556E-06
5.775357E+03	7.782788E-04	7.651334E-06
5.785349E+03	7.700380E-04	7.576157E-06
5.795341E+03	7.619108E-04	7.502087E-06
5.805333E+03	7.538955E-04	7.429107E-06
5.815324E+03	7.459822E-04	7.357117E-06
5.825316E+03	7.381852E-04	7.286256E-06
5.835308E+03	7.304868E-04	7.216349E-06
5.845300E+03	7.228933E-04	7.147455E-06
5.855292E+03	7.154104E-04	7.079632E-06
5.865284E+03	7.080287E-04	7.012783E-06
5.875276E+03	7.007538E-04	6.946965E-06
5.885268E+03	6.935842E-04	6.882160E-06
5.895260E+03	6.865100E-04	6.818271E-06
5.905252E+03	6.795447E-04	6.755431E-06
5.915244E+03	6.726713E-04	6.693470E-06
5.925236E+03	6.659030E-04	6.632518E-06
5.935228E+03	6.592377E-04	6.572556E-06
5.945220E+03	6.526661E-04	6.513490E-06
5.955212E+03	6.461939E-04	6.455377E-06
5.965204E+03	6.398192E-04	6.398198E-06
5.975196E+03	6.335400E-04	6.341933E-06
5.985188E+03	6.273616E-04	6.286636E-06
5.995180E+03	6.212752E-04	6.232218E-06
6.005172E+03	6.152791E-04	6.178662E-06
6.015164E+03	6.093784E-04	6.126020E-06
6.025156E+03	6.035715E-04	6.074278E-06
6.035148E+03	5.978564E-04	6.023415E-06
6.045140E+03	5.922249E-04	5.973350E-06
6.055132E+03	5.866888E-04	5.924201E-06
6.065124E+03	5.812331E-04	5.875819E-06
6.075116E+03	5.758630E-04	5.828255E-06
6.085108E+03	5.705768E-04	5.781496E-06
6.095100E+03	5.653602E-04	5.735394E-06
6.105092E+03	5.602184E-04	5.690005E-06
6.115083E+03	5.551372E-04	5.645183E-06
6.125075E+03	5.501157E-04	5.600921E-06
6.135067E+03	5.451334E-04	5.557010E-06
6.145059E+03	5.401837E-04	5.513381E-06
6.155051E+03	5.352596E-04	5.469961E-06
6.165043E+03	5.303417E-04	5.426548E-06
6.175035E+03	5.254360E-04	5.383200E-06
6.185027E+03	5.205484E-04	5.339974E-06
6.195019E+03	5.156908E-04	5.296990E-06
6.205011E+03	5.108809E-04	5.254427E-06
6.215003E+03	5.061240E-04	5.212338E-06
6.224995E+03	5.014309E-04	5.170833E-06
6.234987E+03	4.968007E-04	5.129901E-06
6.244979E+03	4.922379E-04	5.089589E-06
6.254971E+03	4.877413E-04	5.049884E-06
6.264963E+03	4.833213E-04	5.010895E-06
6.274955E+03	4.789706E-04	4.972543E-06
6.284947E+03	4.746877E-04	4.934815E-06
6.294939E+03	4.704711E-04	4.897696E-06
6.304931E+03	4.663251E-04	4.861228E-06
6.314923E+03	4.622423E-04	4.825337E-06
6.324915E+03	4.582268E-04	4.790066E-06
6.334907E+03	4.542712E-04	4.755337E-06
6.344899E+03	4.503738E-04	4.721132E-06
6.354891E+03	4.465386E-04	4.687495E-06
6.364883E+03	4.427583E-04	4.654348E-06
6.374875E+03	4.390366E-04	4.621732E-06
6.384867E+03	4.353665E-04	4.589572E-06
6.394859E+03	4.317574E-04	4.557969E-06
6.404851E+03	4.282028E-04	4.526855E-06
6.414842E+03	4.247071E-04	4.496276E-06
6.424834E+03	4.212696E-04	4.466227E-06
6.434826E+03	4.178841E-04	4.436643E-06
6.444818E+03	4.145450E-04	4.407463E-06
6.454810E+03	4.112465E-04	4.378629E-06
6.464802E+03	4.079775E-04	4.350022E-06
6.474794E+03	4.047487E-04	4.321754E-06
6.484786E+03	4.015437E-04	4.293652E-06
6.494778E+03	3.983622E-04	4.265713E-06
6.504770E+03	3.951987E-04	4.237876E-06
6.514762E+03	3.920633E-04	4.210251E-06
6.524754E+03	3.889453E-04	4.182722E-06
6.534746E+03	3.858440E-04	4.155281E-06
6.544738E+03	3.827644E-04	4.127982E-06
6.554730E+03	3.797007E-04	4.100762E-06
6.564722E+03	3.766576E-04	4.073673E-06
6.574714E+03	3.736347E-04	4.046707E-06
6.584706E+03	3.706312E-04	4.019860E-06
6.594698E+03	3.676468E-04	3.993126E-06
6.604690E+03	3.646859E-04	3.966553E-06
6.614682E+03	3.617428E-04	3.940080E-06
6.624674E+03	3.588221E-04	3.913758E-06
6.634666E+03	3.559231E-04	3.887577E-06
6.644658E+03	3.530455E-04	3.861537E-06
6.654650E+03	3.501935E-04	3.835683E-06
6.664642E+03	3.473617E-04	3.809955E-06
6.674634E+03	3.445545E-04	3.784405E-06
6.684626E+03	3.417665E-04	3.758971E-06
6.694618E+03	3.390069E-04	3.733757E-06
6.704609E+03	3.362705E-04	3.708705E-06
6.714601E+03	3.335566E-04	3.683809E-06
6.724593E+03	3.308649E-04	3.659066E-06
6.734585E+03	3.281999E-04	3.634526E-06
6.744577E+03	3.255560E-04	3.610128E-06
6.754569E+03	3.229379E-04	3.585925E-06
6.764561E+03	3.203404E-04	3.561861E-06
6.774553E+03	3.177725E-04	3.538035E-06
6.784545E+03	3.152244E-04	3.514340E-06
6.794537E+03	3.127005E-04	3.490826E-06
6.804529E+03	3.102004E-04	3.467488E-06
6.814521E+03	3.077192E-04	3.444274E-06
6.824513E+03	3.052660E-04	3.421285E-06
6.834505E+03	3.028355E-04	3.398466E-06
6.844497E+03	3.004278E-04	3.375814E-06
6.854489E+03	2.980424E-04	3.353327E-06
6.864481E+03	2.956790E-04	3.331004E-06
6.874473E+03	2.933376E-04	3.308843E-06
6.884465E+03	2.910177E-04	3.286842E-06
6.894457E+03	2.887193E-04	3.265000E-06
6.904449E+03	2.864421E-04	3.243315E-06
6.914441E+03	2.841858E-04	3.221785E-06
6.924433E+03	2.819548E-04	3.200461E-06
6.934425E+03	2.797399E-04	3.179239E-06
6.944417E+03	2.775499E-04	3.158220E-06
6.954409E+03	2.753801E-04	3.137353E-06
6.964401E+03	2.732305E-04	3.116636E-06
6.974393E+03	2.710963E-04	3.096019E-06
6.984385E+03	2.689863E-04	3.075600E-06
6.994377E+03	2.668960E-04	3.055331E-06
7.004368E+03	2.648251E-04	3.035209E-06
7.014360E+03	2.627737E-04	3.015235E-06
7.024352E+03	2.607415E-04	2.995407E-06
7.034344E+03	2.587284E-04	2.975727E-06
7.044336E+03	2.567344E-04	2.956193E-06
7.054328E+03	2.547551E-04	2.936756E-06
7.064320E+03	2.527988E-04	2.917514E-06
7.074312E+03	2.508612E-04	2.898418E-06
7.084304E+03	2.489423E-04	2.879467E-06
7.094296E+03	2.470376E-04	2.860613E-06
7.104288E+03	2.451558E-04	2.841956E-06
7.114280E+03	2.432879E-04	2.823394E-06
7.124272E+03	2.414427E-04	2.805027E-06
7.134264E+03	2.396156E-04	2.786806E-06
7.144256E+03	2.378026E-04	2.768683E-06
7.154248E+03	2.360116E-04	2.750754E-06
7.164240E+03	2.342388E-04	2.732972E-06
7.174232E+03	2.324839E-04	2.715337E-06
7.184224E+03	2.307468E-04	2.697849E-06
7.194216E+03	2.290316E-04	2.680556E-06
7.204208E+03	2.273342E-04	2.663411E-06
7.214200E+03	2.256586E-04	2.646462E-06
7.224192E+03	2.240004E-04	2.629659E-06
7.234184E+03	2.223640E-04	2.613054E-06
7.244176E+03	2.207490E-04	2.596644E-06
7.254168E+03	2.191595E-04	2.580478E-06
7.264160E+03	2.175872E-04	2.564461E-06
7.274152E+03	2.160403E-04	2.548688E-06
7.284144E+03	2.145186E-04	2.533159E-06
7.294136E+03	2.130219E-04	2.517874E-06
7.304127E+03	2.115462E-04	2.502785E-06
7.314119E+03	2.101035E-04	2.488036E-06
7.324111E+03	2.086854E-04	2.473530E-06
7.334103E+03	2.072920E-04	2.459268E-06
7.344095E+03	2.059311E-04	2.445343E-06
7.354087E+03	2.045987E-04	2.431711E-06
7.364079E+03	2.032983E-04	2.418414E-06
7.374071E+03	2.020262E-04	2.405409E-06
7.384063E+03	2.007820E-04	2.392694E-06
7.394055E+03	1.995698E-04	2.380317E-06
7.404047E+03	1.983893E-04	2.368276E-06
7.414039E+03	1.972366E-04	2.356526E-06
7.424031E+03	1.961116E-04	2.345068E-06
7.434023E+03	1.950140E-04	2.333899E-06
7.444015E+03	1.939441E-04	2.323023E-06
7.454007E+03	1.929055E-04	2.312486E-06
7.463999E+03	1.918904E-04	2.302194E-06
7.473991E+03	1.909027E-04	2.292195E-06
7.483983E+03	1.899422E-04	2.282489E-06
7.493975E+03	1.890090E-04	2.273077E-06
7.503967E+03	1.880954E-04	2.263867E-06
7.513959E+03	1.872090E-04	2.254954E-06
7.523951E+03	1.863422E-04	2.246245E-06
7.533943E+03	1.854988E-04	2.237787E-06
7.543935E+03	1.846751E-04	2.229537E-06
7.553927E+03	1.838709E-04	2.221493E-06
7.563919E+03	1.830865E-04	2.213659E-06
7.573911E+03	1.823181E-04	2.205992E-06
7.583903E+03	1.815693E-04	2.198533E-06
7.593895E+03	1.808330E-04	2.191199E-06
7.603886E+03	1.801165E-04	2.184079E-06
7.613878E+03	1.794124E-04	2.177084E-06
7.623870E+03	1.787245E-04	2.170260E-06
7.633862E+03	1.780530E-04	2.163610E-06
7.643854E+03	1.773942E-04	2.157091E-06
7.653846E+03	1.767518E-04	2.150746E-06
7.663838E+03	1.761186E-04	2.144492E-06
7.673830E+03	1.755057E-04	2.138461E-06
7.683822E+03	1.749021E-04	2.132522E-06
7.693814E+03	1.743153E-04	2.126766E-06
7.703806E+03	1.737379E-04	2.121104E-06
7.713798E+03	1.731775E-04	2.115629E-06
7.723790E+03	1.726305E-04	2.110297E-06
7.733782E+03	1.720970E-04	2.105110E-06
7.743774E+03	1.715808E-04	2.100116E-06
7.753766E+03	1.710745E-04	2.095224E-06
