#wls	flux	fluxerr
1.598715E+03	1.425230E-05	5.268381E-07
1.638682E+03	1.411239E-05	5.197434E-07
1.678650E+03	1.398390E-05	5.130620E-07
1.718618E+03	1.387579E-05	5.071167E-07
1.758586E+03	1.378311E-05	5.017194E-07
1.798554E+03	1.371103E-05	4.970501E-07
1.838522E+03	1.365359E-05	4.928855E-07
1.878490E+03	1.361787E-05	4.894726E-07
1.918458E+03	1.359756E-05	4.865750E-07
1.958425E+03	1.359476E-05	4.842604E-07
1.998393E+03	1.361068E-05	4.825617E-07
2.038361E+03	1.365041E-05	4.816490E-07
2.078329E+03	1.372768E-05	4.819910E-07
2.118297E+03	1.385910E-05	4.841467E-07
2.158265E+03	1.406116E-05	4.886582E-07
2.198233E+03	1.434209E-05	4.957694E-07
2.238200E+03	1.470184E-05	5.054301E-07
2.278168E+03	1.512850E-05	5.171849E-07
2.318136E+03	1.561603E-05	5.307834E-07
2.358104E+03	1.616257E-05	5.461216E-07
2.398072E+03	1.676484E-05	5.630462E-07
2.438040E+03	1.742539E-05	5.816009E-07
2.478008E+03	1.815493E-05	6.020961E-07
2.517976E+03	1.895634E-05	6.245735E-07
2.557943E+03	1.983950E-05	6.493003E-07
2.597911E+03	2.081537E-05	6.765672E-07
2.637879E+03	2.188875E-05	7.064555E-07
2.677847E+03	2.307580E-05	7.394026E-07
2.717815E+03	2.438670E-05	7.756390E-07
2.757783E+03	2.583653E-05	8.155369E-07
2.797751E+03	2.744199E-05	8.595026E-07
2.837718E+03	2.922159E-05	9.079783E-07
2.877686E+03	3.120037E-05	9.615855E-07
2.917654E+03	3.339706E-05	1.020724E-06
2.957622E+03	3.585177E-05	1.086418E-06
2.997590E+03	3.859470E-05	1.159347E-06
3.007582E+03	3.932628E-05	1.178704E-06
3.017574E+03	4.008229E-05	1.198685E-06
3.027566E+03	4.086334E-05	1.219303E-06
3.037558E+03	4.166479E-05	1.240413E-06
3.047550E+03	4.248733E-05	1.262033E-06
3.057542E+03	4.333716E-05	1.284341E-06
3.067534E+03	4.420937E-05	1.307185E-06
3.077526E+03	4.511002E-05	1.330740E-06
3.087518E+03	4.603977E-05	1.355018E-06
3.097510E+03	4.699928E-05	1.380033E-06
3.107502E+03	4.798346E-05	1.405628E-06
3.117494E+03	4.899867E-05	1.431984E-06
3.127486E+03	5.004567E-05	1.459116E-06
3.137477E+03	5.112520E-05	1.487039E-06
3.147469E+03	5.223803E-05	1.515766E-06
3.157461E+03	5.338496E-05	1.545314E-06
3.167453E+03	5.457302E-05	1.575879E-06
3.177445E+03	5.579065E-05	1.607117E-06
3.187437E+03	5.705125E-05	1.639408E-06
3.197429E+03	5.834945E-05	1.672586E-06
3.207421E+03	5.968614E-05	1.706670E-06
3.217413E+03	6.106885E-05	1.741866E-06
3.227405E+03	6.249879E-05	1.778196E-06
3.237397E+03	6.397030E-05	1.815490E-06
3.247389E+03	6.549129E-05	1.853962E-06
3.257381E+03	6.706296E-05	1.893635E-06
3.267373E+03	6.867955E-05	1.934334E-06
3.277365E+03	7.035637E-05	1.976481E-06
3.287357E+03	7.208054E-05	2.019698E-06
3.297349E+03	7.386779E-05	2.064417E-06
3.307341E+03	7.571234E-05	2.110460E-06
3.317333E+03	7.761557E-05	2.157854E-06
3.327325E+03	7.958652E-05	2.206835E-06
3.337317E+03	8.161921E-05	2.257222E-06
3.347309E+03	8.372290E-05	2.309256E-06
3.357301E+03	8.589147E-05	2.362754E-06
3.367293E+03	8.814245E-05	2.418180E-06
3.377285E+03	9.046176E-05	2.475131E-06
3.387277E+03	9.286739E-05	2.534081E-06
3.397269E+03	9.534488E-05	2.594618E-06
3.407261E+03	9.791271E-05	2.657226E-06
3.417253E+03	1.005646E-04	2.721713E-06
3.427244E+03	1.033111E-04	2.788349E-06
3.437236E+03	1.061546E-04	2.857171E-06
3.447228E+03	1.090885E-04	2.927984E-06
3.457220E+03	1.121239E-04	3.001060E-06
3.467212E+03	1.152630E-04	3.076439E-06
3.477204E+03	1.185177E-04	3.154409E-06
3.487196E+03	1.218718E-04	3.234519E-06
3.497188E+03	1.253465E-04	3.317301E-06
3.507180E+03	1.289446E-04	3.402807E-06
3.517172E+03	1.326687E-04	3.491075E-06
3.527164E+03	1.365121E-04	3.581899E-06
3.537156E+03	1.404870E-04	3.675575E-06
3.547148E+03	1.446065E-04	3.772410E-06
3.557140E+03	1.488635E-04	3.872189E-06
3.567132E+03	1.532610E-04	3.974956E-06
3.577124E+03	1.578120E-04	4.081021E-06
3.587116E+03	1.625200E-04	4.190435E-06
3.597108E+03	1.673881E-04	4.303242E-06
3.607100E+03	1.724195E-04	4.419490E-06
3.617092E+03	1.776175E-04	4.539225E-06
3.627084E+03	1.829961E-04	4.662768E-06
3.637076E+03	1.885476E-04	4.789884E-06
3.647068E+03	1.942866E-04	4.920902E-06
3.657060E+03	2.002164E-04	5.055865E-06
3.667052E+03	2.063402E-04	5.194812E-06
3.677044E+03	2.126734E-04	5.338084E-06
3.687036E+03	2.192073E-04	5.485421E-06
3.697028E+03	2.259573E-04	5.637160E-06
3.707020E+03	2.329147E-04	5.793042E-06
3.717012E+03	2.401069E-04	5.953697E-06
3.727003E+03	2.475252E-04	6.118861E-06
3.736995E+03	2.551725E-04	6.288559E-06
3.746987E+03	2.630646E-04	6.463129E-06
3.756979E+03	2.711919E-04	6.642282E-06
3.766971E+03	2.795828E-04	6.826666E-06
3.776963E+03	2.882144E-04	7.015667E-06
3.786955E+03	2.971154E-04	7.209931E-06
3.796947E+03	3.062753E-04	7.409149E-06
3.806939E+03	3.156960E-04	7.613315E-06
3.816931E+03	3.253935E-04	7.822760E-06
3.826923E+03	3.353697E-04	8.037474E-06
3.836915E+03	3.456402E-04	8.257775E-06
3.846907E+03	3.561789E-04	8.482983E-06
3.856899E+03	3.670005E-04	8.713397E-06
3.866891E+03	3.781203E-04	8.949323E-06
3.876883E+03	3.895392E-04	9.190728E-06
3.886875E+03	4.012427E-04	9.437213E-06
3.896867E+03	4.132455E-04	9.689071E-06
3.906859E+03	4.255621E-04	9.946588E-06
3.916851E+03	4.381619E-04	1.020899E-05
3.926843E+03	4.510582E-04	1.047655E-05
3.936835E+03	4.642495E-04	1.074917E-05
3.946827E+03	4.777489E-04	1.102711E-05
3.956819E+03	4.915228E-04	1.130954E-05
3.966811E+03	5.056147E-04	1.159742E-05
3.976803E+03	5.199743E-04	1.188956E-05
3.986795E+03	5.346286E-04	1.218652E-05
3.996787E+03	5.495733E-04	1.248816E-05
4.006779E+03	5.647871E-04	1.279397E-05
4.016771E+03	5.802642E-04	1.310378E-05
4.026762E+03	5.959984E-04	1.341742E-05
4.036754E+03	6.119995E-04	1.373508E-05
4.046746E+03	6.282438E-04	1.405620E-05
4.056738E+03	6.447237E-04	1.438058E-05
4.066730E+03	6.614141E-04	1.470765E-05
4.076722E+03	6.783406E-04	1.503797E-05
4.086714E+03	6.954606E-04	1.537058E-05
4.096706E+03	7.127648E-04	1.570526E-05
4.106698E+03	7.302616E-04	1.604220E-05
4.116690E+03	7.479069E-04	1.638043E-05
4.126682E+03	7.657090E-04	1.672013E-05
4.136674E+03	7.836412E-04	1.706074E-05
4.146666E+03	8.016771E-04	1.740170E-05
4.156658E+03	8.198432E-04	1.774359E-05
4.166650E+03	8.380788E-04	1.808514E-05
4.176642E+03	8.563764E-04	1.842620E-05
4.186634E+03	8.747474E-04	1.876707E-05
4.196626E+03	8.931326E-04	1.910649E-05
4.206618E+03	9.115633E-04	1.944519E-05
4.216610E+03	9.299820E-04	1.978200E-05
4.226602E+03	9.484044E-04	2.011728E-05
4.236594E+03	9.667925E-04	2.045029E-05
4.246586E+03	9.851444E-04	2.078105E-05
4.256578E+03	1.003421E-03	2.110880E-05
4.266570E+03	1.021617E-03	2.143350E-05
4.276562E+03	1.039705E-03	2.175466E-05
4.286554E+03	1.057637E-03	2.207131E-05
4.296546E+03	1.075376E-03	2.238281E-05
4.306538E+03	1.092885E-03	2.268846E-05
4.316530E+03	1.110124E-03	2.298754E-05
4.326521E+03	1.127016E-03	2.327856E-05
4.336513E+03	1.143557E-03	2.356157E-05
4.346505E+03	1.159653E-03	2.383474E-05
4.356497E+03	1.175302E-03	2.409814E-05
4.366489E+03	1.190392E-03	2.434965E-05
4.376481E+03	1.204925E-03	2.458940E-05
4.386473E+03	1.218846E-03	2.481646E-05
4.396465E+03	1.232106E-03	2.502991E-05
4.406457E+03	1.244653E-03	2.522887E-05
4.416449E+03	1.256460E-03	2.541288E-05
4.426441E+03	1.267499E-03	2.558150E-05
4.436433E+03	1.277746E-03	2.573438E-05
4.446425E+03	1.287174E-03	2.587111E-05
4.456417E+03	1.295746E-03	2.599104E-05
4.466409E+03	1.303478E-03	2.609464E-05
4.476401E+03	1.310332E-03	2.618125E-05
4.486393E+03	1.316312E-03	2.625108E-05
4.496385E+03	1.321437E-03	2.630458E-05
4.506377E+03	1.325695E-03	2.634166E-05
4.516369E+03	1.329126E-03	2.636318E-05
4.526361E+03	1.331739E-03	2.636942E-05
4.536353E+03	1.333540E-03	2.636058E-05
4.546345E+03	1.334556E-03	2.633728E-05
4.556337E+03	1.334834E-03	2.630050E-05
4.566329E+03	1.334381E-03	2.625049E-05
4.576321E+03	1.333247E-03	2.618823E-05
4.586313E+03	1.331440E-03	2.611398E-05
4.596305E+03	1.328990E-03	2.602836E-05
4.606297E+03	1.325961E-03	2.593268E-05
4.616289E+03	1.322349E-03	2.582686E-05
4.626280E+03	1.318201E-03	2.571189E-05
4.636272E+03	1.313561E-03	2.558862E-05
4.646264E+03	1.308444E-03	2.545738E-05
4.656256E+03	1.302877E-03	2.531873E-05
4.666248E+03	1.296923E-03	2.517387E-05
4.676240E+03	1.290577E-03	2.502276E-05
4.686232E+03	1.283885E-03	2.486624E-05
4.696224E+03	1.276872E-03	2.470484E-05
4.706216E+03	1.269567E-03	2.453912E-05
4.716208E+03	1.261982E-03	2.436926E-05
4.726200E+03	1.254172E-03	2.419637E-05
4.736192E+03	1.246133E-03	2.402035E-05
4.746184E+03	1.237877E-03	2.384141E-05
4.756176E+03	1.229442E-03	2.366028E-05
4.766168E+03	1.220825E-03	2.347688E-05
4.776160E+03	1.212049E-03	2.329164E-05
4.786152E+03	1.203138E-03	2.310503E-05
4.796144E+03	1.194101E-03	2.291717E-05
4.806136E+03	1.184947E-03	2.272824E-05
4.816128E+03	1.175711E-03	2.253887E-05
4.826120E+03	1.166375E-03	2.234871E-05
4.836112E+03	1.156974E-03	2.215841E-05
4.846104E+03	1.147501E-03	2.196782E-05
4.856096E+03	1.137963E-03	2.177707E-05
4.866088E+03	1.128383E-03	2.158652E-05
4.876080E+03	1.118739E-03	2.139580E-05
4.886072E+03	1.109053E-03	2.120526E-05
4.896064E+03	1.099331E-03	2.101502E-05
4.906056E+03	1.089555E-03	2.082470E-05
4.916047E+03	1.079757E-03	2.063489E-05
4.926039E+03	1.069931E-03	2.044546E-05
4.936031E+03	1.060083E-03	2.025651E-05
4.946023E+03	1.050207E-03	2.006790E-05
4.956015E+03	1.040311E-03	1.987975E-05
4.966007E+03	1.030412E-03	1.969237E-05
4.975999E+03	1.020492E-03	1.950540E-05
4.985991E+03	1.010581E-03	1.931937E-05
4.995983E+03	1.000661E-03	1.913395E-05
5.005975E+03	9.907376E-04	1.894921E-05
5.015967E+03	9.808280E-04	1.876544E-05
5.025959E+03	9.709258E-04	1.858252E-05
5.035951E+03	9.610469E-04	1.840072E-05
5.045943E+03	9.511851E-04	1.821990E-05
5.055935E+03	9.413451E-04	1.804014E-05
5.065927E+03	9.315313E-04	1.786149E-05
5.075919E+03	9.217475E-04	1.768401E-05
5.085911E+03	9.120077E-04	1.750795E-05
5.095903E+03	9.022956E-04	1.733298E-05
5.105895E+03	8.926343E-04	1.715951E-05
5.115887E+03	8.830073E-04	1.698722E-05
5.125879E+03	8.734369E-04	1.681650E-05
5.135871E+03	8.639160E-04	1.664722E-05
5.145863E+03	8.544473E-04	1.647938E-05
5.155855E+03	8.450327E-04	1.631303E-05
5.165847E+03	8.356746E-04	1.614818E-05
5.175839E+03	8.263830E-04	1.598502E-05
5.185831E+03	8.171424E-04	1.582321E-05
5.195823E+03	8.079712E-04	1.566311E-05
5.205815E+03	7.988621E-04	1.550455E-05
5.215806E+03	7.898158E-04	1.534753E-05
5.225798E+03	7.808416E-04	1.519222E-05
5.235790E+03	7.719235E-04	1.503828E-05
5.245782E+03	7.630784E-04	1.488602E-05
5.255774E+03	7.542985E-04	1.473530E-05
5.265766E+03	7.455919E-04	1.458622E-05
5.275758E+03	7.369429E-04	1.443848E-05
5.285750E+03	7.283671E-04	1.429233E-05
5.295742E+03	7.198567E-04	1.414759E-05
5.305734E+03	7.114189E-04	1.400438E-05
5.315726E+03	7.030389E-04	1.386237E-05
5.325718E+03	6.947313E-04	1.372183E-05
5.335710E+03	6.864891E-04	1.358259E-05
5.345702E+03	6.783123E-04	1.344462E-05
5.355694E+03	6.702085E-04	1.330806E-05
5.365686E+03	6.621646E-04	1.317261E-05
5.375678E+03	6.541956E-04	1.303855E-05
5.385670E+03	6.462895E-04	1.290563E-05
5.395662E+03	6.384614E-04	1.277412E-05
5.405654E+03	6.307069E-04	1.264392E-05
5.415646E+03	6.230213E-04	1.251491E-05
5.425638E+03	6.154197E-04	1.238738E-05
5.435630E+03	6.078914E-04	1.226109E-05
5.445622E+03	6.004446E-04	1.213621E-05
5.455614E+03	5.930812E-04	1.201275E-05
5.465606E+03	5.857966E-04	1.189060E-05
5.475598E+03	5.785987E-04	1.176992E-05
5.485590E+03	5.714829E-04	1.165060E-05
5.495582E+03	5.644507E-04	1.153267E-05
5.505574E+03	5.574977E-04	1.141601E-05
5.515565E+03	5.506251E-04	1.130066E-05
5.525557E+03	5.438396E-04	1.118673E-05
5.535549E+03	5.371418E-04	1.107423E-05
5.545541E+03	5.305376E-04	1.096329E-05
5.555533E+03	5.240220E-04	1.085379E-05
5.565525E+03	5.176054E-04	1.074595E-05
5.575517E+03	5.112776E-04	1.063954E-05
5.585509E+03	5.050484E-04	1.053478E-05
5.595501E+03	4.989175E-04	1.043166E-05
5.605493E+03	4.928743E-04	1.032995E-05
5.615485E+03	4.869282E-04	1.022985E-05
5.625477E+03	4.810784E-04	1.013135E-05
5.635469E+03	4.753196E-04	1.003434E-05
5.645461E+03	4.696506E-04	9.938788E-06
5.655453E+03	4.640755E-04	9.844792E-06
5.665445E+03	4.585888E-04	9.752235E-06
5.675437E+03	4.531938E-04	9.661190E-06
5.685429E+03	4.478808E-04	9.571457E-06
5.695421E+03	4.426576E-04	9.483202E-06
5.705413E+03	4.375230E-04	9.396407E-06
5.715405E+03	4.324717E-04	9.310962E-06
5.725397E+03	4.275025E-04	9.226846E-06
5.735389E+03	4.226145E-04	9.144045E-06
5.745381E+03	4.178067E-04	9.062540E-06
5.755373E+03	4.130778E-04	8.982313E-06
5.765365E+03	4.084307E-04	8.903430E-06
5.775357E+03	4.038566E-04	8.825704E-06
5.785349E+03	3.993582E-04	8.749202E-06
5.795341E+03	3.949344E-04	8.673906E-06
5.805333E+03	3.905843E-04	8.599802E-06
5.815324E+03	3.863029E-04	8.526786E-06
5.825316E+03	3.820933E-04	8.454931E-06
5.835308E+03	3.779539E-04	8.384213E-06
5.845300E+03	3.738770E-04	8.314462E-06
5.855292E+03	3.698687E-04	8.245823E-06
5.865284E+03	3.659243E-04	8.178198E-06
5.875276E+03	3.620431E-04	8.111579E-06
5.885268E+03	3.582242E-04	8.045951E-06
5.895260E+03	3.544667E-04	7.981299E-06
5.905252E+03	3.507663E-04	7.917533E-06
5.915244E+03	3.471222E-04	7.854646E-06
5.925236E+03	3.435372E-04	7.792700E-06
5.935228E+03	3.400070E-04	7.731611E-06
5.945220E+03	3.365275E-04	7.671291E-06
5.955212E+03	3.331015E-04	7.611806E-06
5.965204E+03	3.297250E-04	7.553074E-06
5.975196E+03	3.263974E-04	7.495087E-06
5.985188E+03	3.231181E-04	7.437835E-06
5.995180E+03	3.198864E-04	7.381313E-06
6.005172E+03	3.166986E-04	7.325436E-06
6.015164E+03	3.135511E-04	7.270131E-06
6.025156E+03	3.104467E-04	7.215463E-06
6.035148E+03	3.073845E-04	7.161420E-06
6.045140E+03	3.043581E-04	7.107861E-06
6.055132E+03	3.013703E-04	7.054850E-06
6.065124E+03	2.984145E-04	7.002243E-06
6.075116E+03	2.954934E-04	6.950103E-06
6.085108E+03	2.926037E-04	6.898362E-06
6.095100E+03	2.897449E-04	6.847008E-06
6.105092E+03	2.869139E-04	6.795975E-06
6.115083E+03	2.841075E-04	6.745191E-06
6.125075E+03	2.813255E-04	6.694652E-06
6.135067E+03	2.785675E-04	6.644355E-06
6.145059E+03	2.758331E-04	6.594291E-06
6.155051E+03	2.731192E-04	6.544390E-06
6.165043E+03	2.704280E-04	6.494708E-06
6.175035E+03	2.677589E-04	6.445233E-06
6.185027E+03	2.651141E-04	6.396019E-06
6.195019E+03	2.624930E-04	6.347053E-06
6.205011E+03	2.598922E-04	6.298262E-06
6.215003E+03	2.573162E-04	6.249755E-06
6.224995E+03	2.547618E-04	6.201455E-06
6.234987E+03	2.522282E-04	6.153348E-06
6.244979E+03	2.497219E-04	6.105598E-06
6.254971E+03	2.472372E-04	6.058065E-06
6.264963E+03	2.447756E-04	6.010793E-06
6.274955E+03	2.423387E-04	5.963821E-06
6.284947E+03	2.399300E-04	5.917243E-06
6.294939E+03	2.375438E-04	5.870922E-06
6.304931E+03	2.351814E-04	5.824890E-06
6.314923E+03	2.328465E-04	5.779247E-06
6.324915E+03	2.305354E-04	5.733906E-06
6.334907E+03	2.282519E-04	5.688962E-06
6.344899E+03	2.259900E-04	5.644273E-06
6.354891E+03	2.237533E-04	5.599932E-06
6.364883E+03	2.215409E-04	5.555920E-06
6.374875E+03	2.193542E-04	5.512273E-06
6.384867E+03	2.171897E-04	5.468915E-06
6.394859E+03	2.150492E-04	5.425891E-06
6.404851E+03	2.129343E-04	5.383247E-06
6.414842E+03	2.108424E-04	5.340918E-06
6.424834E+03	2.087734E-04	5.298910E-06
6.434826E+03	2.067315E-04	5.257333E-06
6.444818E+03	2.047144E-04	5.216133E-06
6.454810E+03	2.027246E-04	5.175376E-06
6.464802E+03	2.007619E-04	5.135064E-06
6.474794E+03	1.988264E-04	5.095206E-06
6.484786E+03	1.969204E-04	5.055862E-06
6.494778E+03	1.950396E-04	5.016930E-06
6.504770E+03	1.931905E-04	4.978578E-06
6.514762E+03	1.913686E-04	4.940700E-06
6.524754E+03	1.895762E-04	4.903355E-06
6.534746E+03	1.878131E-04	4.866549E-06
6.544738E+03	1.860770E-04	4.830226E-06
6.554730E+03	1.843699E-04	4.794439E-06
6.564722E+03	1.826897E-04	4.759141E-06
6.574714E+03	1.810382E-04	4.724381E-06
6.584706E+03	1.794148E-04	4.690154E-06
6.594698E+03	1.778196E-04	4.656463E-06
6.604690E+03	1.762501E-04	4.623248E-06
6.614682E+03	1.747100E-04	4.590612E-06
6.624674E+03	1.731969E-04	4.558494E-06
6.634666E+03	1.717105E-04	4.526894E-06
6.644658E+03	1.702504E-04	4.495804E-06
6.654650E+03	1.688179E-04	4.465265E-06
6.664642E+03	1.674110E-04	4.435224E-06
6.674634E+03	1.660309E-04	4.405721E-06
6.684626E+03	1.646771E-04	4.376748E-06
6.694618E+03	1.633475E-04	4.348252E-06
6.704609E+03	1.620434E-04	4.320270E-06
6.714601E+03	1.607644E-04	4.292797E-06
6.724593E+03	1.595081E-04	4.265774E-06
6.734585E+03	1.582776E-04	4.239288E-06
6.744577E+03	1.570690E-04	4.213236E-06
6.754569E+03	1.558835E-04	4.187655E-06
6.764561E+03	1.547225E-04	4.162588E-06
6.774553E+03	1.535820E-04	4.137929E-06
6.784545E+03	1.524632E-04	4.113716E-06
6.794537E+03	1.513658E-04	4.089943E-06
6.804529E+03	1.502892E-04	4.066596E-06
6.814521E+03	1.492332E-04	4.043675E-06
6.824513E+03	1.481971E-04	4.021164E-06
6.834505E+03	1.471806E-04	3.999058E-06
6.844497E+03	1.461849E-04	3.977393E-06
6.854489E+03	1.452064E-04	3.956071E-06
6.864481E+03	1.442462E-04	3.935130E-06
6.874473E+03	1.433057E-04	3.914607E-06
6.884465E+03	1.423810E-04	3.894403E-06
6.894457E+03	1.414753E-04	3.874601E-06
6.904449E+03	1.405848E-04	3.855105E-06
6.914441E+03	1.397124E-04	3.835998E-06
6.924433E+03	1.388561E-04	3.817225E-06
6.934425E+03	1.380156E-04	3.798783E-06
6.944417E+03	1.371889E-04	3.780614E-06
6.954409E+03	1.363790E-04	3.762808E-06
6.964401E+03	1.355856E-04	3.745357E-06
6.974393E+03	1.348050E-04	3.728164E-06
6.984385E+03	1.340386E-04	3.711267E-06
6.994377E+03	1.332861E-04	3.694660E-06
7.004368E+03	1.325489E-04	3.678385E-06
7.014360E+03	1.318233E-04	3.662342E-06
7.024352E+03	1.311126E-04	3.646620E-06
7.034344E+03	1.304145E-04	3.631164E-06
7.044336E+03	1.297274E-04	3.615928E-06
7.054328E+03	1.290543E-04	3.600998E-06
7.064320E+03	1.283931E-04	3.586318E-06
7.074312E+03	1.277438E-04	3.571887E-06
7.084304E+03	1.271061E-04	3.557702E-06
7.094296E+03	1.264798E-04	3.543758E-06
7.104288E+03	1.258646E-04	3.530046E-06
7.114280E+03	1.252620E-04	3.516612E-06
7.124272E+03	1.246685E-04	3.503358E-06
7.134264E+03	1.240855E-04	3.490330E-06
7.144256E+03	1.235146E-04	3.477567E-06
7.154248E+03	1.229537E-04	3.465017E-06
7.164240E+03	1.224028E-04	3.452679E-06
7.174232E+03	1.218618E-04	3.440552E-06
7.184224E+03	1.213304E-04	3.428630E-06
7.194216E+03	1.208101E-04	3.416954E-06
7.204208E+03	1.202975E-04	3.405434E-06
7.214200E+03	1.197956E-04	3.394153E-06
7.224192E+03	1.193027E-04	3.383065E-06
7.234184E+03	1.188202E-04	3.372210E-06
7.244176E+03	1.183465E-04	3.361546E-06
7.254168E+03	1.178812E-04	3.351063E-06
7.264160E+03	1.174261E-04	3.340809E-06
7.274152E+03	1.169792E-04	3.330733E-06
7.284144E+03	1.165405E-04	3.320838E-06
7.294136E+03	1.161114E-04	3.311159E-06
7.304127E+03	1.156917E-04	3.301696E-06
7.314119E+03	1.152799E-04	3.292404E-06
7.324111E+03	1.148773E-04	3.283328E-06
7.334103E+03	1.144824E-04	3.274418E-06
7.344095E+03	1.140964E-04	3.265714E-06
7.354087E+03	1.137194E-04	3.257219E-06
7.364079E+03	1.133497E-04	3.248885E-06
7.374071E+03	1.129887E-04	3.240755E-06
7.384063E+03	1.126364E-04	3.232826E-06
7.394055E+03	1.122911E-04	3.225055E-06
7.404047E+03	1.119542E-04	3.217483E-06
7.414039E+03	1.116271E-04	3.210150E-06
7.424031E+03	1.113084E-04	3.203014E-06
7.434023E+03	1.109978E-04	3.196071E-06
7.444015E+03	1.106969E-04	3.189365E-06
7.454007E+03	1.104039E-04	3.182852E-06
7.463999E+03	1.101175E-04	3.176487E-06
7.473991E+03	1.098405E-04	3.170355E-06
7.483983E+03	1.095683E-04	3.164327E-06
7.493975E+03	1.093039E-04	3.158488E-06
7.503967E+03	1.090458E-04	3.152794E-06
7.513959E+03	1.087954E-04	3.147288E-06
7.523951E+03	1.085496E-04	3.141883E-06
7.533943E+03	1.083114E-04	3.136664E-06
7.543935E+03	1.080793E-04	3.131588E-06
7.553927E+03	1.078517E-04	3.126612E-06
7.563919E+03	1.076315E-04	3.121820E-06
7.573911E+03	1.074158E-04	3.117128E-06
7.583903E+03	1.072060E-04	3.112577E-06
7.593895E+03	1.070020E-04	3.108168E-06
7.603886E+03	1.068039E-04	3.103899E-06
7.613878E+03	1.066101E-04	3.099729E-06
7.623870E+03	1.064206E-04	3.095657E-06
7.633862E+03	1.062383E-04	3.091767E-06
7.643854E+03	1.060587E-04	3.087935E-06
7.653846E+03	1.058849E-04	3.084242E-06
7.663838E+03	1.057167E-04	3.080690E-06
7.673830E+03	1.055527E-04	3.077236E-06
7.683822E+03	1.053928E-04	3.073881E-06
7.693814E+03	1.052386E-04	3.070667E-06
7.703806E+03	1.050884E-04	3.067552E-06
7.713798E+03	1.049424E-04	3.064536E-06
7.723790E+03	1.048020E-04	3.061662E-06
7.733782E+03	1.046656E-04	3.058889E-06
7.743774E+03	1.045347E-04	3.056257E-06
7.753766E+03	1.044079E-04	3.053727E-06
