#wls	flux	fluxerr
1.598715E+03	1.306066E-05	7.160252E-07
1.638682E+03	1.309415E-05	7.146618E-07
1.678650E+03	1.314118E-05	7.139453E-07
1.718618E+03	1.320247E-05	7.139014E-07
1.758586E+03	1.327855E-05	7.145462E-07
1.798554E+03	1.337167E-05	7.159859E-07
1.838522E+03	1.347888E-05	7.180468E-07
1.878490E+03	1.360176E-05	7.207977E-07
1.918458E+03	1.373932E-05	7.241705E-07
1.958425E+03	1.389101E-05	7.281195E-07
1.998393E+03	1.405803E-05	7.326909E-07
2.038361E+03	1.424823E-05	7.382740E-07
2.078329E+03	1.447355E-05	7.454576E-07
2.118297E+03	1.475218E-05	7.551349E-07
2.158265E+03	1.510540E-05	7.683304E-07
2.198233E+03	1.554091E-05	7.853532E-07
2.238200E+03	1.606246E-05	8.063000E-07
2.278168E+03	1.665573E-05	8.303587E-07
2.318136E+03	1.732016E-05	8.574141E-07
2.358104E+03	1.805124E-05	8.871554E-07
2.398072E+03	1.884590E-05	9.193454E-07
2.438040E+03	1.971350E-05	9.543496E-07
2.478008E+03	2.065650E-05	9.921865E-07
2.517976E+03	2.169165E-05	1.033548E-06
2.557943E+03	2.282397E-05	1.078541E-06
2.597911E+03	2.406589E-05	1.127610E-06
2.637879E+03	2.543090E-05	1.181224E-06
2.677847E+03	2.693370E-05	1.239879E-06
2.717815E+03	2.859422E-05	1.304281E-06
2.757783E+03	3.042617E-05	1.374816E-06
2.797751E+03	3.244848E-05	1.452073E-06
2.837718E+03	3.468619E-05	1.536872E-06
2.877686E+03	3.717151E-05	1.630294E-06
2.917654E+03	3.992076E-05	1.732665E-06
2.957622E+03	4.297592E-05	1.845375E-06
2.997590E+03	4.637312E-05	1.969475E-06
3.007582E+03	4.728098E-05	2.002432E-06
3.017574E+03	4.821482E-05	2.036253E-06
3.027566E+03	4.916975E-05	2.070720E-06
3.037558E+03	5.015171E-05	2.106074E-06
3.047550E+03	5.116153E-05	2.142339E-06
3.057542E+03	5.220005E-05	2.179540E-06
3.067534E+03	5.326779E-05	2.217686E-06
3.077526E+03	5.436524E-05	2.256786E-06
3.087518E+03	5.549291E-05	2.296849E-06
3.097510E+03	5.665135E-05	2.337885E-06
3.107502E+03	5.784105E-05	2.379904E-06
3.117494E+03	5.906259E-05	2.422915E-06
3.127486E+03	6.031647E-05	2.466926E-06
3.137477E+03	6.160937E-05	2.512196E-06
3.147469E+03	6.294204E-05	2.558741E-06
3.157461E+03	6.430276E-05	2.606068E-06
3.167453E+03	6.570451E-05	2.654692E-06
3.177445E+03	6.714804E-05	2.704626E-06
3.187437E+03	6.862774E-05	2.755626E-06
3.197429E+03	7.015065E-05	2.807961E-06
3.207421E+03	7.171099E-05	2.861382E-06
3.217413E+03	7.332265E-05	2.916426E-06
3.227405E+03	7.497319E-05	2.972580E-06
3.237397E+03	7.666998E-05	3.030117E-06
3.247389E+03	7.841382E-05	3.089052E-06
3.257381E+03	8.020551E-05	3.149396E-06
3.267373E+03	8.205285E-05	3.211434E-06
3.277365E+03	8.394269E-05	3.274632E-06
3.287357E+03	8.588993E-05	3.339550E-06
3.297349E+03	8.788833E-05	3.405924E-06
3.307341E+03	8.994599E-05	3.474045E-06
3.317333E+03	9.205653E-05	3.543644E-06
3.327325E+03	9.422818E-05	3.615013E-06
3.337317E+03	9.645438E-05	3.687879E-06
3.347309E+03	9.874350E-05	3.762537E-06
3.357301E+03	1.010965E-04	3.838998E-06
3.367293E+03	1.035144E-04	3.917273E-06
3.377285E+03	1.059981E-04	3.997370E-06
3.387277E+03	1.085564E-04	4.079596E-06
3.397269E+03	1.111745E-04	4.163362E-06
3.407261E+03	1.138692E-04	4.249273E-06
3.417253E+03	1.166335E-04	4.337034E-06
3.427244E+03	1.194765E-04	4.426956E-06
3.437236E+03	1.223908E-04	4.518736E-06
3.447228E+03	1.253857E-04	4.612684E-06
3.457220E+03	1.284707E-04	4.709116E-06
3.467212E+03	1.316297E-04	4.807413E-06
3.477204E+03	1.348723E-04	4.907884E-06
3.487196E+03	1.381993E-04	5.010530E-06
3.497188E+03	1.416204E-04	5.115669E-06
3.507180E+03	1.451276E-04	5.222975E-06
3.517172E+03	1.487219E-04	5.332446E-06
3.527164E+03	1.524129E-04	5.444390E-06
3.537156E+03	1.562016E-04	5.558806E-06
3.547148E+03	1.600888E-04	5.675688E-06
3.557140E+03	1.640754E-04	5.795019E-06
3.567132E+03	1.681714E-04	5.917121E-06
3.577124E+03	1.723588E-04	6.041313E-06
3.587116E+03	1.766570E-04	6.168240E-06
3.597108E+03	1.810572E-04	6.297555E-06
3.607100E+03	1.855696E-04	6.429568E-06
3.617092E+03	1.901946E-04	6.564252E-06
3.627084E+03	1.949329E-04	6.701589E-06
3.637076E+03	1.997849E-04	6.841543E-06
3.647068E+03	2.047507E-04	6.984084E-06
3.657060E+03	2.098411E-04	7.129528E-06
3.667052E+03	2.150458E-04	7.277484E-06
3.677044E+03	2.203754E-04	7.428269E-06
3.687036E+03	2.258195E-04	7.581482E-06
3.697028E+03	2.313884E-04	7.737432E-06
3.707020E+03	2.370925E-04	7.896417E-06
3.717012E+03	2.429107E-04	8.057690E-06
3.727003E+03	2.488638E-04	8.221899E-06
3.736995E+03	2.549406E-04	8.388625E-06
3.746987E+03	2.611516E-04	8.558172E-06
3.756979E+03	2.674961E-04	8.730473E-06
3.766971E+03	2.739626E-04	8.905105E-06
3.776963E+03	2.805722E-04	9.082714E-06
3.786955E+03	2.873018E-04	9.262509E-06
3.796947E+03	2.941725E-04	9.445131E-06
3.806939E+03	3.011721E-04	9.630141E-06
3.816931E+03	3.083107E-04	9.817826E-06
3.826923E+03	3.155754E-04	1.000773E-05
3.836915E+03	3.229761E-04	1.020013E-05
3.846907E+03	3.304997E-04	1.039458E-05
3.856899E+03	3.381673E-04	1.059171E-05
3.866891E+03	3.459541E-04	1.079070E-05
3.876883E+03	3.538813E-04	1.099217E-05
3.886875E+03	3.619351E-04	1.119568E-05
3.896867E+03	3.701014E-04	1.140075E-05
3.906859E+03	3.784132E-04	1.160837E-05
3.916851E+03	3.868328E-04	1.181736E-05
3.926843E+03	3.953812E-04	1.202833E-05
3.936835E+03	4.040559E-04	1.224119E-05
3.946827E+03	4.128300E-04	1.245511E-05
3.956819E+03	4.217371E-04	1.267107E-05
3.966811E+03	4.307499E-04	1.288824E-05
3.976803E+03	4.398656E-04	1.310653E-05
3.986795E+03	4.490935E-04	1.332620E-05
3.996787E+03	4.584184E-04	1.354680E-05
4.006779E+03	4.678495E-04	1.376860E-05
4.016771E+03	4.773840E-04	1.399150E-05
4.026762E+03	4.869942E-04	1.421469E-05
4.036754E+03	4.967019E-04	1.443883E-05
4.046746E+03	5.064922E-04	1.466348E-05
4.056738E+03	5.163624E-04	1.488858E-05
4.066730E+03	5.263096E-04	1.511406E-05
4.076722E+03	5.363320E-04	1.533988E-05
4.086714E+03	5.464146E-04	1.556564E-05
4.096706E+03	5.565683E-04	1.579167E-05
4.106698E+03	5.667788E-04	1.601759E-05
4.116690E+03	5.770576E-04	1.624376E-05
4.126682E+03	5.873787E-04	1.646947E-05
4.136674E+03	5.977418E-04	1.669477E-05
4.146666E+03	6.081596E-04	1.692004E-05
4.156658E+03	6.186077E-04	1.714465E-05
4.166650E+03	6.291125E-04	1.736937E-05
4.176642E+03	6.396382E-04	1.759327E-05
4.186634E+03	6.502002E-04	1.781682E-05
4.196626E+03	6.608016E-04	1.804016E-05
4.206618E+03	6.714337E-04	1.826312E-05
4.216610E+03	6.820883E-04	1.848552E-05
4.226602E+03	6.927826E-04	1.870789E-05
4.236594E+03	7.034832E-04	1.892939E-05
4.246586E+03	7.142194E-04	1.915090E-05
4.256578E+03	7.249691E-04	1.937186E-05
4.266570E+03	7.357337E-04	1.959241E-05
4.276562E+03	7.464997E-04	1.981224E-05
4.286554E+03	7.572512E-04	2.003103E-05
4.296546E+03	7.679703E-04	2.024839E-05
4.306538E+03	7.786616E-04	2.046453E-05
4.316530E+03	7.892785E-04	2.067832E-05
4.326521E+03	7.998106E-04	2.088959E-05
4.336513E+03	8.102342E-04	2.109783E-05
4.346505E+03	8.205253E-04	2.130254E-05
4.356497E+03	8.306597E-04	2.150320E-05
4.366489E+03	8.406132E-04	2.169932E-05
4.376481E+03	8.503491E-04	2.189006E-05
4.386473E+03	8.598565E-04	2.207524E-05
4.396465E+03	8.690873E-04	2.225371E-05
4.406457E+03	8.780437E-04	2.242563E-05
4.416449E+03	8.866912E-04	2.259022E-05
4.426441E+03	8.949957E-04	2.274669E-05
4.436433E+03	9.029362E-04	2.289461E-05
4.446425E+03	9.105172E-04	2.303420E-05
4.456417E+03	9.176938E-04	2.316440E-05
4.466409E+03	9.244719E-04	2.328547E-05
4.476401E+03	9.308450E-04	2.339732E-05
4.486393E+03	9.368075E-04	2.349990E-05
4.496385E+03	9.423422E-04	2.359285E-05
4.506377E+03	9.474567E-04	2.367646E-05
4.516369E+03	9.521595E-04	2.375098E-05
4.526361E+03	9.564227E-04	2.381580E-05
4.536353E+03	9.602560E-04	2.387123E-05
4.546345E+03	9.636574E-04	2.391727E-05
4.556337E+03	9.666371E-04	2.395422E-05
4.566329E+03	9.691824E-04	2.398183E-05
4.576321E+03	9.713047E-04	2.400042E-05
4.586313E+03	9.730044E-04	2.401004E-05
4.596305E+03	9.742820E-04	2.401074E-05
4.606297E+03	9.751273E-04	2.400230E-05
4.616289E+03	9.755655E-04	2.398537E-05
4.626280E+03	9.755872E-04	2.395974E-05
4.636272E+03	9.751956E-04	2.392550E-05
4.646264E+03	9.744053E-04	2.388304E-05
4.656256E+03	9.732203E-04	2.383246E-05
4.666248E+03	9.716561E-04	2.377415E-05
4.676240E+03	9.697059E-04	2.370795E-05
4.686232E+03	9.673863E-04	2.363426E-05
4.696224E+03	9.647135E-04	2.355348E-05
4.706216E+03	9.617042E-04	2.346600E-05
4.716208E+03	9.583747E-04	2.337223E-05
4.726200E+03	9.547419E-04	2.327254E-05
4.736192E+03	9.508329E-04	2.316760E-05
4.746184E+03	9.466746E-04	2.305804E-05
4.756176E+03	9.423041E-04	2.294473E-05
4.766168E+03	9.377677E-04	2.282879E-05
4.776160E+03	9.330900E-04	2.271079E-05
4.786152E+03	9.282542E-04	2.259029E-05
4.796144E+03	9.232543E-04	2.246712E-05
4.806136E+03	9.180449E-04	2.234016E-05
4.816128E+03	9.126222E-04	2.220927E-05
4.826120E+03	9.069830E-04	2.207435E-05
4.836112E+03	9.011050E-04	2.193483E-05
4.846104E+03	8.950063E-04	2.179112E-05
4.856096E+03	8.886755E-04	2.164291E-05
4.866088E+03	8.821213E-04	2.149037E-05
4.876080E+03	8.753618E-04	2.133390E-05
4.886072E+03	8.683964E-04	2.117347E-05
4.896064E+03	8.612247E-04	2.100901E-05
4.906056E+03	8.538742E-04	2.084117E-05
4.916047E+03	8.463446E-04	2.066989E-05
4.926039E+03	8.386537E-04	2.049558E-05
4.936031E+03	8.308017E-04	2.031819E-05
4.946023E+03	8.228059E-04	2.013811E-05
4.956015E+03	8.146838E-04	1.995573E-05
4.966007E+03	8.064353E-04	1.977099E-05
4.975999E+03	7.980856E-04	1.958450E-05
4.985991E+03	7.896345E-04	1.939618E-05
4.995983E+03	7.810902E-04	1.920622E-05
5.005975E+03	7.724690E-04	1.901496E-05
5.015967E+03	7.637863E-04	1.882275E-05
5.025959E+03	7.550497E-04	1.862974E-05
5.035951E+03	7.462586E-04	1.843587E-05
5.045943E+03	7.374361E-04	1.824168E-05
5.055935E+03	7.285810E-04	1.804711E-05
5.065927E+03	7.197081E-04	1.785247E-05
5.075919E+03	7.108240E-04	1.765790E-05
5.085911E+03	7.019352E-04	1.746353E-05
5.095903E+03	6.930551E-04	1.726966E-05
5.105895E+03	6.841828E-04	1.707624E-05
5.115887E+03	6.753317E-04	1.688355E-05
5.125879E+03	6.665074E-04	1.669173E-05
5.135871E+03	6.577158E-04	1.650087E-05
5.145863E+03	6.489692E-04	1.631127E-05
5.155855E+03	6.402665E-04	1.612288E-05
5.165847E+03	6.316131E-04	1.593579E-05
5.175839E+03	6.230209E-04	1.575028E-05
5.185831E+03	6.144949E-04	1.556647E-05
5.195823E+03	6.060341E-04	1.538429E-05
5.205815E+03	5.976558E-04	1.520418E-05
5.215806E+03	5.893469E-04	1.502577E-05
5.225798E+03	5.811303E-04	1.484963E-05
5.235790E+03	5.730047E-04	1.467571E-05
5.245782E+03	5.649691E-04	1.450398E-05
5.255774E+03	5.570342E-04	1.433468E-05
5.265766E+03	5.492044E-04	1.416789E-05
5.275758E+03	5.414838E-04	1.400370E-05
5.285750E+03	5.338768E-04	1.384218E-05
5.295742E+03	5.263820E-04	1.368327E-05
5.305734E+03	5.190086E-04	1.352719E-05
5.315726E+03	5.117596E-04	1.337400E-05
5.325718E+03	5.046328E-04	1.322362E-05
5.335710E+03	4.976357E-04	1.307622E-05
5.345702E+03	4.907693E-04	1.293183E-05
5.355694E+03	4.840341E-04	1.279044E-05
5.365686E+03	4.774294E-04	1.265203E-05
5.375678E+03	4.709534E-04	1.251654E-05
5.385670E+03	4.646037E-04	1.238390E-05
5.395662E+03	4.583809E-04	1.225413E-05
5.405654E+03	4.522809E-04	1.212710E-05
5.415646E+03	4.463033E-04	1.200281E-05
5.425638E+03	4.404428E-04	1.188111E-05
5.435630E+03	4.346987E-04	1.176199E-05
5.445622E+03	4.290699E-04	1.164541E-05
5.455614E+03	4.235553E-04	1.153135E-05
5.465606E+03	4.181540E-04	1.141979E-05
5.475598E+03	4.128610E-04	1.131058E-05
5.485590E+03	4.076757E-04	1.120372E-05
5.495582E+03	4.025933E-04	1.109909E-05
5.505574E+03	3.976139E-04	1.099669E-05
5.515565E+03	3.927214E-04	1.089607E-05
5.525557E+03	3.879204E-04	1.079738E-05
5.535549E+03	3.832036E-04	1.070041E-05
5.545541E+03	3.785606E-04	1.060487E-05
5.555533E+03	3.739890E-04	1.051070E-05
5.565525E+03	3.694865E-04	1.041784E-05
5.575517E+03	3.650438E-04	1.032603E-05
5.585509E+03	3.606629E-04	1.023532E-05
5.595501E+03	3.563387E-04	1.014558E-05
5.605493E+03	3.520698E-04	1.005675E-05
5.615485E+03	3.478552E-04	9.968829E-06
5.625477E+03	3.436935E-04	9.881767E-06
5.635469E+03	3.395773E-04	9.795349E-06
5.645461E+03	3.355158E-04	9.709848E-06
5.655453E+03	3.315014E-04	9.625047E-06
5.665445E+03	3.275336E-04	9.540936E-06
5.675437E+03	3.236149E-04	9.457587E-06
5.685429E+03	3.197416E-04	9.374898E-06
5.695421E+03	3.159132E-04	9.292859E-06
5.705413E+03	3.121324E-04	9.211552E-06
5.715405E+03	3.083986E-04	9.130969E-06
5.725397E+03	3.047084E-04	9.051010E-06
5.735389E+03	3.010644E-04	8.971758E-06
5.745381E+03	2.974631E-04	8.893118E-06
5.755373E+03	2.939073E-04	8.815180E-06
5.765365E+03	2.903966E-04	8.737934E-06
5.775357E+03	2.869306E-04	8.661381E-06
5.785349E+03	2.835061E-04	8.585427E-06
5.795341E+03	2.801258E-04	8.510162E-06
5.805333E+03	2.767891E-04	8.435582E-06
5.815324E+03	2.734959E-04	8.361682E-06
5.825316E+03	2.702431E-04	8.288385E-06
5.835308E+03	2.670333E-04	8.215771E-06
5.845300E+03	2.638686E-04	8.143918E-06
5.855292E+03	2.607410E-04	8.072586E-06
5.865284E+03	2.576580E-04	8.002019E-06
5.875276E+03	2.546141E-04	7.932056E-06
5.885268E+03	2.516142E-04	7.862853E-06
5.895260E+03	2.486505E-04	7.794182E-06
5.905252E+03	2.457302E-04	7.726274E-06
5.915244E+03	2.428457E-04	7.658904E-06
5.925236E+03	2.400041E-04	7.592298E-06
5.935228E+03	2.371977E-04	7.526233E-06
5.945220E+03	2.344315E-04	7.460866E-06
5.955212E+03	2.317024E-04	7.396117E-06
5.965204E+03	2.290106E-04	7.331999E-06
5.975196E+03	2.263557E-04	7.268507E-06
5.985188E+03	2.237375E-04	7.205646E-06
5.995180E+03	2.211537E-04	7.143353E-06
6.005172E+03	2.186042E-04	7.081632E-06
6.015164E+03	2.160908E-04	7.020550E-06
6.025156E+03	2.136092E-04	6.959983E-06
6.035148E+03	2.111614E-04	6.900000E-06
6.045140E+03	2.087452E-04	6.840537E-06
6.055132E+03	2.063586E-04	6.781541E-06
6.065124E+03	2.040033E-04	6.723078E-06
6.075116E+03	2.016755E-04	6.665029E-06
6.085108E+03	1.993772E-04	6.607468E-06
6.095100E+03	1.971065E-04	6.550340E-06
6.105092E+03	1.948612E-04	6.493582E-06
6.115083E+03	1.926417E-04	6.437214E-06
6.125075E+03	1.904461E-04	6.381184E-06
6.135067E+03	1.882746E-04	6.325498E-06
6.145059E+03	1.861310E-04	6.270298E-06
6.155051E+03	1.840114E-04	6.215460E-06
6.165043E+03	1.819254E-04	6.161310E-06
6.175035E+03	1.798779E-04	6.108027E-06
6.185027E+03	1.778651E-04	6.055494E-06
6.195019E+03	1.758797E-04	6.003471E-06
6.205011E+03	1.739218E-04	5.951971E-06
6.215003E+03	1.719898E-04	5.900942E-06
6.224995E+03	1.700818E-04	5.850333E-06
6.234987E+03	1.682017E-04	5.800278E-06
6.244979E+03	1.663458E-04	5.750663E-06
6.254971E+03	1.645178E-04	5.701622E-06
6.264963E+03	1.627193E-04	5.653221E-06
6.274955E+03	1.609472E-04	5.605357E-06
6.284947E+03	1.592062E-04	5.558205E-06
6.294939E+03	1.574949E-04	5.511722E-06
6.304931E+03	1.558134E-04	5.465920E-06
6.314923E+03	1.541630E-04	5.420858E-06
6.324915E+03	1.525439E-04	5.376552E-06
6.334907E+03	1.509561E-04	5.333006E-06
6.344899E+03	1.493995E-04	5.290231E-06
6.354891E+03	1.478742E-04	5.248233E-06
6.364883E+03	1.463800E-04	5.207020E-06
6.374875E+03	1.449182E-04	5.166647E-06
6.384867E+03	1.434858E-04	5.127011E-06
6.394859E+03	1.420851E-04	5.088208E-06
6.404851E+03	1.407129E-04	5.050131E-06
6.414842E+03	1.393714E-04	5.012865E-06
6.424834E+03	1.380554E-04	4.976233E-06
6.434826E+03	1.367684E-04	4.940370E-06
6.444818E+03	1.355051E-04	4.905087E-06
6.454810E+03	1.342659E-04	4.870414E-06
6.464802E+03	1.330498E-04	4.836315E-06
6.474794E+03	1.318543E-04	4.802709E-06
6.484786E+03	1.306800E-04	4.769622E-06
6.494778E+03	1.295246E-04	4.736976E-06
6.504770E+03	1.283885E-04	4.704790E-06
6.514762E+03	1.272708E-04	4.673040E-06
6.524754E+03	1.261705E-04	4.641696E-06
6.534746E+03	1.250871E-04	4.610740E-06
6.544738E+03	1.240210E-04	4.580196E-06
6.554730E+03	1.229716E-04	4.550043E-06
6.564722E+03	1.219380E-04	4.520254E-06
6.574714E+03	1.209223E-04	4.490915E-06
6.584706E+03	1.199238E-04	4.462000E-06
6.594698E+03	1.189405E-04	4.433445E-06
6.604690E+03	1.179756E-04	4.405372E-06
6.614682E+03	1.170262E-04	4.377672E-06
6.624674E+03	1.160940E-04	4.350424E-06
6.634666E+03	1.151787E-04	4.323613E-06
6.644658E+03	1.142796E-04	4.297218E-06
6.654650E+03	1.133975E-04	4.271281E-06
6.664642E+03	1.125307E-04	4.245732E-06
6.674634E+03	1.116810E-04	4.220654E-06
6.684626E+03	1.108482E-04	4.196038E-06
6.694618E+03	1.100306E-04	4.171823E-06
6.704609E+03	1.092289E-04	4.148044E-06
6.714601E+03	1.084427E-04	4.124686E-06
6.724593E+03	1.076717E-04	4.101744E-06
6.734585E+03	1.069178E-04	4.079297E-06
6.744577E+03	1.061782E-04	4.057239E-06
6.754569E+03	1.054539E-04	4.035609E-06
6.764561E+03	1.047445E-04	4.014404E-06
6.774553E+03	1.040497E-04	3.993607E-06
6.784545E+03	1.033701E-04	3.973254E-06
6.794537E+03	1.027045E-04	3.953297E-06
6.804529E+03	1.020537E-04	3.933771E-06
6.814521E+03	1.014162E-04	3.914621E-06
6.824513E+03	1.007940E-04	3.895932E-06
6.834505E+03	1.001846E-04	3.877605E-06
6.844497E+03	9.958997E-05	3.859724E-06
6.854489E+03	9.900755E-05	3.842191E-06
6.864481E+03	9.843941E-05	3.825090E-06
6.874473E+03	9.788414E-05	3.808370E-06
6.884465E+03	9.734149E-05	3.792024E-06
6.894457E+03	9.681240E-05	3.776091E-06
6.904449E+03	9.629547E-05	3.760520E-06
6.914441E+03	9.579050E-05	3.745306E-06
6.924433E+03	9.529841E-05	3.730487E-06
6.934425E+03	9.481786E-05	3.716014E-06
6.944417E+03	9.434977E-05	3.701927E-06
6.954409E+03	9.389283E-05	3.688175E-06
6.964401E+03	9.344798E-05	3.674798E-06
6.974393E+03	9.301502E-05	3.661792E-06
6.984385E+03	9.259151E-05	3.649062E-06
6.994377E+03	9.218069E-05	3.636738E-06
7.004368E+03	9.178010E-05	3.624727E-06
7.014360E+03	9.138959E-05	3.613023E-06
7.024352E+03	9.100903E-05	3.601625E-06
7.034344E+03	9.063934E-05	3.590571E-06
7.044336E+03	9.027928E-05	3.579813E-06
7.054328E+03	8.992982E-05	3.569392E-06
7.064320E+03	8.958970E-05	3.559261E-06
7.074312E+03	8.925765E-05	3.549371E-06
7.084304E+03	8.893580E-05	3.539807E-06
7.094296E+03	8.862289E-05	3.530523E-06
7.104288E+03	8.831878E-05	3.521514E-06
7.114280E+03	8.802338E-05	3.512778E-06
7.124272E+03	8.773545E-05	3.504268E-06
7.134264E+03	8.745598E-05	3.496024E-06
7.144256E+03	8.718486E-05	3.488045E-06
7.154248E+03	8.692089E-05	3.480282E-06
7.164240E+03	8.666395E-05	3.472734E-06
7.174232E+03	8.641506E-05	3.465443E-06
7.184224E+03	8.617302E-05	3.458361E-06
7.194216E+03	8.593772E-05	3.451486E-06
7.204208E+03	8.570799E-05	3.444771E-06
7.214200E+03	8.548593E-05	3.438304E-06
7.224192E+03	8.526925E-05	3.431993E-06
7.234184E+03	8.505899E-05	3.425880E-06
7.244176E+03	8.485395E-05	3.419920E-06
7.254168E+03	8.465407E-05	3.414110E-06
7.264160E+03	8.446035E-05	3.408493E-06
7.274152E+03	8.427055E-05	3.402978E-06
7.284144E+03	8.408677E-05	3.397652E-06
7.294136E+03	8.390678E-05	3.392426E-06
7.304127E+03	8.373157E-05	3.387341E-06
7.314119E+03	8.356003E-05	3.382352E-06
7.324111E+03	8.339315E-05	3.377501E-06
7.334103E+03	8.322979E-05	3.372744E-06
7.344095E+03	8.307098E-05	3.368121E-06
7.354087E+03	8.291450E-05	3.363545E-06
7.364079E+03	8.276138E-05	3.359058E-06
7.374071E+03	8.261155E-05	3.354658E-06
7.384063E+03	8.246496E-05	3.350343E-06
7.394055E+03	8.231942E-05	3.346027E-06
7.404047E+03	8.217596E-05	3.341752E-06
7.414039E+03	8.203347E-05	3.337472E-06
7.424031E+03	8.189081E-05	3.333143E-06
7.434023E+03	8.174795E-05	3.328764E-06
7.444015E+03	8.160593E-05	3.324377E-06
7.454007E+03	8.146469E-05	3.319983E-06
7.463999E+03	8.132418E-05	3.315578E-06
7.473991E+03	8.118543E-05	3.311206E-06
7.483983E+03	8.104733E-05	3.306823E-06
7.493975E+03	8.090983E-05	3.302427E-06
7.503967E+03	8.077397E-05	3.298061E-06
7.513959E+03	8.063970E-05	3.293724E-06
7.523951E+03	8.050591E-05	3.289372E-06
7.533943E+03	8.037362E-05	3.285047E-06
7.543935E+03	8.024280E-05	3.280749E-06
7.553927E+03	8.011341E-05	3.276476E-06
7.563919E+03	7.998540E-05	3.272228E-06
7.573911E+03	7.985875E-05	3.268005E-06
7.583903E+03	7.973340E-05	3.263805E-06
7.593895E+03	7.961038E-05	3.259670E-06
7.603886E+03	7.948755E-05	3.255515E-06
7.613878E+03	7.936698E-05	3.251425E-06
7.623870E+03	7.924862E-05	3.247398E-06
7.633862E+03	7.913140E-05	3.243391E-06
7.643854E+03	7.901633E-05	3.239448E-06
7.653846E+03	7.890339E-05	3.235567E-06
7.663838E+03	7.879147E-05	3.231704E-06
7.673830E+03	7.868265E-05	3.227946E-06
7.683822E+03	7.857481E-05	3.224206E-06
7.693814E+03	7.846895E-05	3.220527E-06
7.703806E+03	7.836610E-05	3.216950E-06
7.713798E+03	7.826414E-05	3.213390E-06
7.723790E+03	7.816511E-05	3.209932E-06
7.733782E+03	7.806796E-05	3.206534E-06
7.743774E+03	7.797265E-05	3.203194E-06
7.753766E+03	7.787916E-05	3.199913E-06
