#wls	flux	fluxerr
1.593625E+03	1.576097E-15	9.841297E-17
1.633466E+03	1.459043E-15	9.070081E-17
1.673307E+03	1.344402E-15	8.319337E-17
1.713147E+03	1.232842E-15	7.593189E-17
1.752988E+03	1.125137E-15	6.896335E-17
1.792829E+03	1.022046E-15	6.233289E-17
1.832669E+03	9.239722E-16	5.606289E-17
1.872510E+03	8.318004E-16	5.020409E-17
1.912351E+03	7.462399E-16	4.479544E-17
1.952191E+03	6.681787E-16	3.988535E-17
1.992032E+03	5.987256E-16	3.553382E-17
2.031873E+03	5.393979E-16	3.182310E-17
2.071713E+03	4.919869E-16	2.884894E-17
2.111554E+03	4.578156E-16	2.667666E-17
2.151394E+03	4.366665E-16	2.527987E-17
2.191235E+03	4.282518E-16	2.462777E-17
2.231076E+03	4.328403E-16	2.472119E-17
2.270916E+03	4.512149E-16	2.558899E-17
2.310757E+03	4.846858E-16	2.728776E-17
2.350598E+03	5.351205E-16	2.990227E-17
2.390438E+03	6.048296E-16	3.353786E-17
2.430279E+03	6.963316E-16	3.830629E-17
2.470120E+03	8.121040E-16	4.431151E-17
2.509960E+03	9.540694E-16	5.162169E-17
2.549801E+03	1.123725E-15	6.027722E-17
2.589641E+03	1.322651E-15	7.031855E-17
2.629482E+03	1.553276E-15	8.182622E-17
2.669323E+03	1.812429E-15	9.458204E-17
2.709163E+03	2.090185E-15	1.080234E-16
2.749004E+03	2.375072E-15	1.215273E-16
2.788845E+03	2.655870E-15	1.345064E-16
2.828685E+03	2.922749E-15	1.464668E-16
2.868526E+03	3.168044E-15	1.570432E-16
2.908367E+03	3.386137E-15	1.659887E-16
2.948207E+03	3.573928E-15	1.731923E-16
2.988048E+03	3.729788E-15	1.786221E-16
2.998008E+03	3.763824E-15	1.797111E-16
3.007968E+03	3.795798E-15	1.806901E-16
3.017928E+03	3.825708E-15	1.815598E-16
3.027888E+03	3.853727E-15	1.823293E-16
3.037849E+03	3.879777E-15	1.829955E-16
3.047809E+03	3.903871E-15	1.835601E-16
3.057769E+03	3.926144E-15	1.840301E-16
3.067729E+03	3.946499E-15	1.844018E-16
3.077689E+03	3.964926E-15	1.846756E-16
3.087649E+03	3.981578E-15	1.848593E-16
3.097610E+03	3.996273E-15	1.849454E-16
3.107570E+03	4.009079E-15	1.849379E-16
3.117530E+03	4.019894E-15	1.848329E-16
3.127490E+03	4.028940E-15	1.846414E-16
3.137450E+03	4.035949E-15	1.843521E-16
3.147410E+03	4.040976E-15	1.839684E-16
3.157371E+03	4.044067E-15	1.834932E-16
3.167331E+03	4.045186E-15	1.829259E-16
3.177291E+03	4.044144E-15	1.822588E-16
3.187251E+03	4.041126E-15	1.815013E-16
3.197211E+03	4.035937E-15	1.806456E-16
3.207171E+03	4.028606E-15	1.796940E-16
3.217131E+03	4.019007E-15	1.786419E-16
3.227092E+03	4.007163E-15	1.774914E-16
3.237052E+03	3.993019E-15	1.762413E-16
3.247012E+03	3.976519E-15	1.748900E-16
3.256972E+03	3.957542E-15	1.734336E-16
3.266932E+03	3.936101E-15	1.718738E-16
3.276892E+03	3.912145E-15	1.702096E-16
3.286853E+03	3.885562E-15	1.684374E-16
3.296813E+03	3.856376E-15	1.665595E-16
3.306773E+03	3.824488E-15	1.645730E-16
3.316733E+03	3.789936E-15	1.624808E-16
3.326693E+03	3.752645E-15	1.602811E-16
3.336653E+03	3.712618E-15	1.579755E-16
3.346614E+03	3.669875E-15	1.555661E-16
3.356574E+03	3.624455E-15	1.530560E-16
3.366534E+03	3.576420E-15	1.504493E-16
3.376494E+03	3.525810E-15	1.477488E-16
3.386454E+03	3.472799E-15	1.449632E-16
3.396414E+03	3.417442E-15	1.420962E-16
3.406375E+03	3.360032E-15	1.391609E-16
3.416335E+03	3.300689E-15	1.361635E-16
3.426295E+03	3.239648E-15	1.331147E-16
3.436255E+03	3.177176E-15	1.300263E-16
3.446215E+03	3.113536E-15	1.269099E-16
3.456175E+03	3.049110E-15	1.237815E-16
3.466135E+03	2.984237E-15	1.206555E-16
3.476096E+03	2.919302E-15	1.175476E-16
3.486056E+03	2.854749E-15	1.144757E-16
3.496016E+03	2.791009E-15	1.114569E-16
3.505976E+03	2.728589E-15	1.085111E-16
3.515936E+03	2.667838E-15	1.056516E-16
3.525896E+03	2.609235E-15	1.028963E-16
3.535857E+03	2.553170E-15	1.002597E-16
3.545817E+03	2.500027E-15	9.775561E-17
3.555777E+03	2.450108E-15	9.539434E-17
3.565737E+03	2.403724E-15	9.318639E-17
3.575697E+03	2.361209E-15	9.114292E-17
3.585657E+03	2.322766E-15	8.926987E-17
3.595618E+03	2.288699E-15	8.757687E-17
3.605578E+03	2.259240E-15	8.607059E-17
3.615538E+03	2.234597E-15	8.475665E-17
3.625498E+03	2.215013E-15	8.364189E-17
3.635458E+03	2.200771E-15	8.273436E-17
3.645418E+03	2.192119E-15	8.204070E-17
3.655378E+03	2.189402E-15	8.157105E-17
3.665339E+03	2.192888E-15	8.133235E-17
3.675299E+03	2.202941E-15	8.133494E-17
3.685259E+03	2.219921E-15	8.158879E-17
3.695219E+03	2.244196E-15	8.210391E-17
3.705179E+03	2.276108E-15	8.288914E-17
3.715139E+03	2.316059E-15	8.395524E-17
3.725100E+03	2.364409E-15	8.531118E-17
3.735060E+03	2.421545E-15	8.696675E-17
3.745020E+03	2.487813E-15	8.892994E-17
3.754980E+03	2.563497E-15	9.120633E-17
3.764940E+03	2.648780E-15	9.379781E-17
3.774900E+03	2.743702E-15	9.670104E-17
3.784861E+03	2.848091E-15	9.990531E-17
3.794821E+03	2.961391E-15	1.033866E-16
3.804781E+03	3.082909E-15	1.071165E-16
3.814741E+03	3.211639E-15	1.110563E-16
3.824701E+03	3.346172E-15	1.151542E-16
3.834661E+03	3.484901E-15	1.193525E-16
3.844622E+03	3.626039E-15	1.235883E-16
3.854582E+03	3.767547E-15	1.277916E-16
3.864542E+03	3.907280E-15	1.318901E-16
3.874502E+03	4.043133E-15	1.358142E-16
3.884462E+03	4.173120E-15	1.394997E-16
3.894422E+03	4.295379E-15	1.428879E-16
3.904382E+03	4.408430E-15	1.459338E-16
3.914343E+03	4.511098E-15	1.486036E-16
3.924303E+03	4.602478E-15	1.508728E-16
3.934263E+03	4.682083E-15	1.527314E-16
3.944223E+03	4.749681E-15	1.541778E-16
3.954183E+03	4.805219E-15	1.552163E-16
3.964143E+03	4.849013E-15	1.558630E-16
3.974104E+03	4.881427E-15	1.561356E-16
3.984064E+03	4.903014E-15	1.560570E-16
3.994024E+03	4.914335E-15	1.556506E-16
4.003984E+03	4.915959E-15	1.549390E-16
4.013944E+03	4.908603E-15	1.539496E-16
4.023904E+03	4.892827E-15	1.527041E-16
4.033865E+03	4.869274E-15	1.512265E-16
4.043825E+03	4.838537E-15	1.495388E-16
4.053785E+03	4.801175E-15	1.476614E-16
4.063745E+03	4.757733E-15	1.456143E-16
4.073705E+03	4.708789E-15	1.434176E-16
4.083665E+03	4.654787E-15	1.410873E-16
4.093625E+03	4.596206E-15	1.386402E-16
4.103586E+03	4.533603E-15	1.360948E-16
4.113546E+03	4.467331E-15	1.334635E-16
4.123506E+03	4.397881E-15	1.307623E-16
4.133466E+03	4.325728E-15	1.280065E-16
4.143426E+03	4.251360E-15	1.252117E-16
4.153386E+03	4.175314E-15	1.223941E-16
4.163347E+03	4.098202E-15	1.195724E-16
4.173307E+03	4.020720E-15	1.167670E-16
4.183267E+03	3.943639E-15	1.140000E-16
4.193227E+03	3.867808E-15	1.112957E-16
4.203187E+03	3.794175E-15	1.086805E-16
4.213147E+03	3.723702E-15	1.061806E-16
4.223108E+03	3.657401E-15	1.038235E-16
4.233068E+03	3.596323E-15	1.016371E-16
4.243028E+03	3.541464E-15	9.964717E-17
4.252988E+03	3.493684E-15	9.787543E-17
4.262948E+03	3.453788E-15	9.634161E-17
4.272908E+03	3.422461E-15	9.506183E-17
4.282869E+03	3.400259E-15	9.404831E-17
4.292829E+03	3.387494E-15	9.330654E-17
4.302789E+03	3.384321E-15	9.283751E-17
4.312749E+03	3.390817E-15	9.264025E-17
4.322709E+03	3.406631E-15	9.270215E-17
4.332669E+03	3.431373E-15	9.300981E-17
4.342629E+03	3.464487E-15	9.354549E-17
4.352590E+03	3.505259E-15	9.428747E-17
4.362550E+03	3.552838E-15	9.521071E-17
4.372510E+03	3.606300E-15	9.628871E-17
4.382470E+03	3.664519E-15	9.748998E-17
4.392430E+03	3.726297E-15	9.878161E-17
4.402390E+03	3.790265E-15	1.001267E-16
4.412351E+03	3.854907E-15	1.014849E-16
4.422311E+03	3.918693E-15	1.028162E-16
4.432271E+03	3.980042E-15	1.040797E-16
4.442231E+03	4.037511E-15	1.052386E-16
4.452191E+03	4.089802E-15	1.062603E-16
4.462151E+03	4.135674E-15	1.071143E-16
4.472112E+03	4.174251E-15	1.077794E-16
4.482072E+03	4.204847E-15	1.082399E-16
4.492032E+03	4.226953E-15	1.084847E-16
4.501992E+03	4.240354E-15	1.085100E-16
4.511952E+03	4.245051E-15	1.083179E-16
4.521912E+03	4.241227E-15	1.079149E-16
4.531873E+03	4.229248E-15	1.073118E-16
4.541833E+03	4.209594E-15	1.065224E-16
4.551793E+03	4.182863E-15	1.055631E-16
4.561753E+03	4.149874E-15	1.044558E-16
4.571713E+03	4.111363E-15	1.032200E-16
4.581673E+03	4.068131E-15	1.018764E-16
4.591633E+03	4.021030E-15	1.004469E-16
4.601594E+03	3.970854E-15	9.895184E-17
4.611554E+03	3.918194E-15	9.740607E-17
4.621514E+03	3.863714E-15	9.582621E-17
4.631474E+03	3.807719E-15	9.421985E-17
4.641434E+03	3.750656E-15	9.259792E-17
4.651394E+03	3.692715E-15	9.096505E-17
4.661355E+03	3.634042E-15	8.932462E-17
4.671315E+03	3.574778E-15	8.767997E-17
4.681275E+03	3.515047E-15	8.603390E-17
4.691235E+03	3.455070E-15	8.439161E-17
4.701195E+03	3.395022E-15	8.275714E-17
4.711155E+03	3.335158E-15	8.113638E-17
4.721116E+03	3.275824E-15	7.953741E-17
4.731076E+03	3.217330E-15	7.796744E-17
4.741036E+03	3.160202E-15	7.643879E-17
4.750996E+03	3.104823E-15	7.496027E-17
4.760956E+03	3.051786E-15	7.354572E-17
4.770916E+03	3.001665E-15	7.220842E-17
4.780876E+03	2.955002E-15	7.096081E-17
4.790837E+03	2.912422E-15	6.981722E-17
4.800797E+03	2.874488E-15	6.879047E-17
4.810757E+03	2.841627E-15	6.789004E-17
4.820717E+03	2.814250E-15	6.712499E-17
4.830677E+03	2.792546E-15	6.649905E-17
4.840637E+03	2.776552E-15	6.601233E-17
4.850598E+03	2.766211E-15	6.566272E-17
4.860558E+03	2.761307E-15	6.544443E-17
4.870518E+03	2.761455E-15	6.534768E-17
4.880478E+03	2.766258E-15	6.536247E-17
4.890438E+03	2.775137E-15	6.547463E-17
4.900398E+03	2.787557E-15	6.567108E-17
4.910359E+03	2.802947E-15	6.593801E-17
4.920319E+03	2.820715E-15	6.626119E-17
4.930279E+03	2.840344E-15	6.662824E-17
4.940239E+03	2.861287E-15	6.702618E-17
4.950199E+03	2.883083E-15	6.744409E-17
4.960159E+03	2.905252E-15	6.787069E-17
4.970120E+03	2.927373E-15	6.829608E-17
4.980080E+03	2.949003E-15	6.871004E-17
4.990040E+03	2.969825E-15	6.910517E-17
5.000000E+03	2.989409E-15	6.947163E-17
5.009960E+03	3.007362E-15	6.980039E-17
5.019920E+03	3.023327E-15	7.008335E-17
5.029880E+03	3.036894E-15	7.031120E-17
5.039841E+03	3.047662E-15	7.047490E-17
5.049801E+03	3.055248E-15	7.056586E-17
5.059761E+03	3.059323E-15	7.057674E-17
5.069721E+03	3.059577E-15	7.050075E-17
5.079681E+03	3.055811E-15	7.033359E-17
5.089641E+03	3.047943E-15	7.007370E-17
5.099602E+03	3.035882E-15	6.971935E-17
5.109562E+03	3.019750E-15	6.927363E-17
5.119522E+03	2.999571E-15	6.873743E-17
5.129482E+03	2.975548E-15	6.811567E-17
5.139442E+03	2.947842E-15	6.741231E-17
5.149402E+03	2.916716E-15	6.663363E-17
5.159363E+03	2.882485E-15	6.578700E-17
5.169323E+03	2.845507E-15	6.488080E-17
5.179283E+03	2.806270E-15	6.392631E-17
5.189243E+03	2.765338E-15	6.293646E-17
5.199203E+03	2.723422E-15	6.192755E-17
5.209163E+03	2.681110E-15	6.091293E-17
5.219124E+03	2.639076E-15	5.990790E-17
5.229084E+03	2.597921E-15	5.892607E-17
5.239044E+03	2.558138E-15	5.797850E-17
5.249004E+03	2.519989E-15	5.707105E-17
5.258964E+03	2.483687E-15	5.620842E-17
5.268924E+03	2.449264E-15	5.539122E-17
5.278884E+03	2.416601E-15	5.461667E-17
5.288845E+03	2.385470E-15	5.387949E-17
5.298805E+03	2.355689E-15	5.317553E-17
5.308765E+03	2.327040E-15	5.249977E-17
5.318725E+03	2.299407E-15	5.184956E-17
5.328685E+03	2.272766E-15	5.122430E-17
5.338645E+03	2.247315E-15	5.062841E-17
5.348606E+03	2.223280E-15	5.006692E-17
5.358566E+03	2.201062E-15	4.954884E-17
5.368526E+03	2.181111E-15	4.908422E-17
5.378486E+03	2.163919E-15	4.868412E-17
5.388446E+03	2.149902E-15	4.835780E-17
5.398406E+03	2.139417E-15	4.811328E-17
5.408367E+03	2.132744E-15	4.795684E-17
5.418327E+03	2.129933E-15	4.788956E-17
5.428287E+03	2.130861E-15	4.790859E-17
5.438247E+03	2.135185E-15	4.800613E-17
5.448207E+03	2.142487E-15	4.817271E-17
5.458167E+03	2.152296E-15	4.839771E-17
5.468127E+03	2.163952E-15	4.866626E-17
5.478088E+03	2.176841E-15	4.896452E-17
5.488048E+03	2.190258E-15	4.927663E-17
5.498008E+03	2.203560E-15	4.958804E-17
5.507968E+03	2.216035E-15	4.988271E-17
5.517928E+03	2.227126E-15	5.014805E-17
5.527888E+03	2.236312E-15	5.037224E-17
5.537849E+03	2.243236E-15	5.054713E-17
5.547809E+03	2.247570E-15	5.066524E-17
5.557769E+03	2.249139E-15	5.072247E-17
5.567729E+03	2.247822E-15	5.071597E-17
5.577689E+03	2.243621E-15	5.064561E-17
5.587649E+03	2.236555E-15	5.051166E-17
5.597610E+03	2.226768E-15	5.031722E-17
5.607570E+03	2.214485E-15	5.006716E-17
5.617530E+03	2.199996E-15	4.976793E-17
5.627490E+03	2.183713E-15	4.942868E-17
5.637450E+03	2.166076E-15	4.905922E-17
5.647410E+03	2.147658E-15	4.867242E-17
5.657371E+03	2.129097E-15	4.828261E-17
5.667331E+03	2.111035E-15	4.790432E-17
5.677291E+03	2.094142E-15	4.755274E-17
5.687251E+03	2.079091E-15	4.724311E-17
5.697211E+03	2.066529E-15	4.699022E-17
5.707171E+03	2.056955E-15	4.680549E-17
5.717131E+03	2.050830E-15	4.669949E-17
5.727092E+03	2.048334E-15	4.667645E-17
5.737052E+03	2.049461E-15	4.673642E-17
5.747012E+03	2.054100E-15	4.687699E-17
5.756972E+03	2.061928E-15	4.709094E-17
5.766932E+03	2.072425E-15	4.736655E-17
5.776892E+03	2.084964E-15	4.768955E-17
5.786853E+03	2.098806E-15	4.804317E-17
5.796813E+03	2.113010E-15	4.840590E-17
5.806773E+03	2.126636E-15	4.875615E-17
5.816733E+03	2.138661E-15	4.907047E-17
5.826693E+03	2.148050E-15	4.932494E-17
5.836653E+03	2.153810E-15	4.949663E-17
5.846614E+03	2.154946E-15	4.956244E-17
5.856574E+03	2.150658E-15	4.950368E-17
5.866534E+03	2.140199E-15	4.930283E-17
5.876494E+03	2.123013E-15	4.894676E-17
5.886454E+03	2.098745E-15	4.842684E-17
5.896414E+03	2.067270E-15	4.773980E-17
5.906375E+03	2.028743E-15	4.688881E-17
5.916335E+03	1.983513E-15	4.588153E-17
5.926295E+03	1.932260E-15	4.473327E-17
5.936255E+03	1.875977E-15	4.346675E-17
5.946215E+03	1.815849E-15	4.210909E-17
5.956175E+03	1.753177E-15	4.069025E-17
5.966135E+03	1.689470E-15	3.924514E-17
5.976096E+03	1.626156E-15	3.780689E-17
5.986056E+03	1.564718E-15	3.640999E-17
5.996016E+03	1.506413E-15	3.508385E-17
6.005976E+03	1.452415E-15	3.385597E-17
6.015936E+03	1.403717E-15	3.274980E-17
6.025896E+03	1.361046E-15	3.178265E-17
6.035857E+03	1.324983E-15	3.096841E-17
6.045817E+03	1.295901E-15	3.031628E-17
6.055777E+03	1.274040E-15	2.983228E-17
6.065737E+03	1.259447E-15	2.951800E-17
6.075697E+03	1.252138E-15	2.937431E-17
6.085657E+03	1.251924E-15	2.939725E-17
6.095618E+03	1.258527E-15	2.958079E-17
6.105578E+03	1.271623E-15	2.991780E-17
6.115538E+03	1.290796E-15	3.039897E-17
6.125498E+03	1.315513E-15	3.101219E-17
6.135458E+03	1.345175E-15	3.174380E-17
6.145418E+03	1.379113E-15	3.257839E-17
6.155378E+03	1.416489E-15	3.349653E-17
6.165339E+03	1.456423E-15	3.447774E-17
6.175299E+03	1.497971E-15	3.549992E-17
6.185259E+03	1.540138E-15	3.653967E-17
6.195219E+03	1.581892E-15	3.757261E-17
6.205179E+03	1.622310E-15	3.857689E-17
6.215139E+03	1.660592E-15	3.953342E-17
6.225100E+03	1.696036E-15	4.042537E-17
6.235060E+03	1.728205E-15	4.124216E-17
6.245020E+03	1.756842E-15	4.197747E-17
6.254980E+03	1.781900E-15	4.262994E-17
6.264940E+03	1.803503E-15	4.320229E-17
6.274900E+03	1.821928E-15	4.370093E-17
6.284861E+03	1.837549E-15	4.413460E-17
6.294821E+03	1.850740E-15	4.451211E-17
6.304781E+03	1.861826E-15	4.484114E-17
6.314741E+03	1.871128E-15	4.512922E-17
6.324701E+03	1.878815E-15	4.538034E-17
6.334661E+03	1.884925E-15	4.559531E-17
6.344622E+03	1.889536E-15	4.577589E-17
6.354582E+03	1.892618E-15	4.592124E-17
6.364542E+03	1.894129E-15	4.603024E-17
6.374502E+03	1.894059E-15	4.610245E-17
6.384462E+03	1.892486E-15	4.613957E-17
6.394422E+03	1.889453E-15	4.614241E-17
6.404382E+03	1.885121E-15	4.611465E-17
6.414343E+03	1.879618E-15	4.605919E-17
6.424303E+03	1.873092E-15	4.597945E-17
6.434263E+03	1.865727E-15	4.587970E-17
6.444223E+03	1.857644E-15	4.576278E-17
6.454183E+03	1.848984E-15	4.563200E-17
6.464143E+03	1.839810E-15	4.548874E-17
6.474104E+03	1.830274E-15	4.533660E-17
6.484064E+03	1.820474E-15	4.517793E-17
6.494024E+03	1.810472E-15	4.501415E-17
6.503984E+03	1.800372E-15	4.484773E-17
6.513944E+03	1.790228E-15	4.467995E-17
6.523904E+03	1.780075E-15	4.451163E-17
6.533865E+03	1.769907E-15	4.434248E-17
6.543825E+03	1.759727E-15	4.417260E-17
6.553785E+03	1.749464E-15	4.400008E-17
6.563745E+03	1.739021E-15	4.382243E-17
6.573705E+03	1.728322E-15	4.363761E-17
6.583665E+03	1.717263E-15	4.344294E-17
6.593625E+03	1.705707E-15	4.323481E-17
6.603586E+03	1.693586E-15	4.301139E-17
6.613546E+03	1.680799E-15	4.276996E-17
6.623506E+03	1.667341E-15	4.251026E-17
6.633466E+03	1.653123E-15	4.222983E-17
6.643426E+03	1.638143E-15	4.192851E-17
6.653386E+03	1.622461E-15	4.160767E-17
6.663347E+03	1.606140E-15	4.126876E-17
6.673307E+03	1.589251E-15	4.091352E-17
6.683267E+03	1.571913E-15	4.054487E-17
6.693227E+03	1.554298E-15	4.016718E-17
6.703187E+03	1.536538E-15	3.978379E-17
6.713147E+03	1.518810E-15	3.939920E-17
6.723108E+03	1.501211E-15	3.901599E-17
6.733068E+03	1.483939E-15	3.863929E-17
6.743028E+03	1.467053E-15	3.827064E-17
6.752988E+03	1.450706E-15	3.791408E-17
6.762948E+03	1.434928E-15	3.757049E-17
6.772908E+03	1.419800E-15	3.724208E-17
6.782869E+03	1.405370E-15	3.693012E-17
6.792829E+03	1.391663E-15	3.663542E-17
6.802789E+03	1.378760E-15	3.636018E-17
6.812749E+03	1.366697E-15	3.610548E-17
6.822709E+03	1.355564E-15	3.587380E-17
6.832669E+03	1.345367E-15	3.566542E-17
6.842629E+03	1.336207E-15	3.548315E-17
6.852590E+03	1.328108E-15	3.532775E-17
6.862550E+03	1.321104E-15	3.520027E-17
6.872510E+03	1.315192E-15	3.510079E-17
6.882470E+03	1.310421E-15	3.503072E-17
6.892430E+03	1.306671E-15	3.498705E-17
6.902390E+03	1.303952E-15	3.497013E-17
6.912351E+03	1.302132E-15	3.497654E-17
6.922311E+03	1.301108E-15	3.500362E-17
6.932271E+03	1.300794E-15	3.504917E-17
6.942231E+03	1.301055E-15	3.510961E-17
6.952191E+03	1.301766E-15	3.518166E-17
6.962151E+03	1.302808E-15	3.526209E-17
6.972112E+03	1.304060E-15	3.534768E-17
6.982072E+03	1.305390E-15	3.543488E-17
6.992032E+03	1.306644E-15	3.551949E-17
7.001992E+03	1.307745E-15	3.559942E-17
7.011952E+03	1.308488E-15	3.566907E-17
7.021912E+03	1.308823E-15	3.572701E-17
7.031873E+03	1.308558E-15	3.576797E-17
7.041833E+03	1.307629E-15	3.579011E-17
7.051793E+03	1.305907E-15	3.578983E-17
7.061753E+03	1.303307E-15	3.576473E-17
7.071713E+03	1.299782E-15	3.571346E-17
7.081673E+03	1.295233E-15	3.563314E-17
7.091633E+03	1.289668E-15	3.552398E-17
7.101594E+03	1.283074E-15	3.538549E-17
7.111554E+03	1.275521E-15	3.521952E-17
7.121514E+03	1.267079E-15	3.502793E-17
7.131474E+03	1.257809E-15	3.481234E-17
7.141434E+03	1.247840E-15	3.457629E-17
7.151394E+03	1.237228E-15	3.432125E-17
7.161355E+03	1.226127E-15	3.405149E-17
7.171315E+03	1.214605E-15	3.376889E-17
7.181275E+03	1.202724E-15	3.347514E-17
7.191235E+03	1.190575E-15	3.317279E-17
7.201195E+03	1.178206E-15	3.286321E-17
7.211155E+03	1.165632E-15	3.254675E-17
7.221116E+03	1.152872E-15	3.222400E-17
7.231076E+03	1.139931E-15	3.189514E-17
7.241036E+03	1.126812E-15	3.156023E-17
7.250996E+03	1.113507E-15	3.121906E-17
7.260956E+03	1.099960E-15	3.087009E-17
7.270916E+03	1.086209E-15	3.051439E-17
7.280876E+03	1.072218E-15	3.015094E-17
7.290837E+03	1.057960E-15	2.977905E-17
7.300797E+03	1.043468E-15	2.939959E-17
7.310757E+03	1.028719E-15	2.901197E-17
7.320717E+03	1.013757E-15	2.861741E-17
7.330677E+03	9.986449E-16	2.821771E-17
7.340637E+03	9.834454E-16	2.781466E-17
7.350598E+03	9.682805E-16	2.741172E-17
7.360558E+03	9.532134E-16	2.701073E-17
7.370518E+03	9.384169E-16	2.661660E-17
7.380478E+03	9.239989E-16	2.623246E-17
7.390438E+03	9.101334E-16	2.586331E-17
7.400398E+03	8.969484E-16	2.551283E-17
7.410359E+03	8.845905E-16	2.518530E-17
7.420319E+03	8.732128E-16	2.488516E-17
7.430279E+03	8.629103E-16	2.461522E-17
7.440239E+03	8.538342E-16	2.437990E-17
7.450199E+03	8.460259E-16	2.418053E-17
7.460159E+03	8.395722E-16	2.401969E-17
7.470120E+03	8.344848E-16	2.389786E-17
7.480080E+03	8.308259E-16	2.381697E-17
7.490040E+03	8.285564E-16	2.377604E-17
7.500000E+03	8.276401E-16	2.377417E-17
7.509960E+03	8.280529E-16	2.381083E-17
7.519920E+03	8.297459E-16	2.388475E-17
7.529880E+03	8.327055E-16	2.399568E-17
7.539841E+03	8.368459E-16	2.414128E-17
7.549801E+03	8.421314E-16	2.432067E-17
7.559761E+03	8.485242E-16	2.453290E-17
7.569721E+03	8.559454E-16	2.477582E-17
7.579681E+03	8.643436E-16	2.504808E-17
7.589641E+03	8.736248E-16	2.534710E-17
7.599602E+03	8.837389E-16	2.567157E-17
7.609562E+03	8.945416E-16	2.601740E-17
7.619522E+03	9.059522E-16	2.638239E-17
7.629482E+03	9.177788E-16	2.676105E-17
7.639442E+03	9.298730E-16	2.714915E-17
7.649402E+03	9.419776E-16	2.753927E-17
7.659363E+03	9.539021E-16	2.792588E-17
7.669323E+03	9.653863E-16	2.830141E-17
7.679283E+03	9.761898E-16	2.865880E-17
7.689243E+03	9.860853E-16	2.899135E-17
7.699203E+03	9.948627E-16	2.929282E-17
7.709163E+03	1.002338E-15	2.955768E-17
7.719124E+03	1.008330E-15	2.978047E-17
7.729084E+03	1.012757E-15	2.995865E-17
