#wls	flux	fluxerr
1.593625E+03	1.083532E-15	3.470826E-17
1.633466E+03	1.048507E-15	3.305210E-17
1.673307E+03	1.011993E-15	3.138069E-17
1.713147E+03	9.740405E-16	2.969887E-17
1.752988E+03	9.347945E-16	2.801407E-17
1.792829E+03	8.943970E-16	2.633342E-17
1.832669E+03	8.526542E-16	2.465400E-17
1.872510E+03	8.097269E-16	2.298333E-17
1.912351E+03	7.655192E-16	2.132140E-17
1.952191E+03	7.199299E-16	1.966823E-17
1.992032E+03	6.728525E-16	1.802378E-17
2.031873E+03	6.244158E-16	1.639436E-17
2.071713E+03	5.752859E-16	1.479967E-17
2.111554E+03	5.286462E-16	1.332127E-17
2.151394E+03	4.918321E-16	1.213638E-17
2.191235E+03	4.714627E-16	1.138959E-17
2.231076E+03	4.726601E-16	1.117673E-17
2.270916E+03	5.006565E-16	1.158648E-17
2.310757E+03	5.613618E-16	1.271360E-17
2.350598E+03	6.630238E-16	1.469497E-17
2.390438E+03	8.183618E-16	1.775147E-17
2.430279E+03	1.045361E-15	2.219614E-17
2.470120E+03	1.366933E-15	2.841750E-17
2.509960E+03	1.807392E-15	3.680065E-17
2.549801E+03	2.384109E-15	4.756266E-17
2.589641E+03	3.091469E-15	6.045776E-17
2.629482E+03	3.888329E-15	7.458217E-17
2.669323E+03	4.727999E-15	8.899838E-17
2.709163E+03	5.583148E-15	1.031984E-16
2.749004E+03	6.434194E-15	1.168541E-16
2.788845E+03	7.265549E-15	1.297329E-16
2.828685E+03	8.065834E-15	1.416941E-16
2.868526E+03	8.828949E-15	1.526981E-16
2.908367E+03	9.553639E-15	1.627919E-16
2.948207E+03	1.024507E-14	1.721283E-16
2.988048E+03	1.091226E-14	1.809167E-16
2.998008E+03	1.107707E-14	1.830641E-16
3.007968E+03	1.124126E-14	1.851959E-16
3.017928E+03	1.140506E-14	1.873165E-16
3.027888E+03	1.156921E-14	1.894386E-16
3.037849E+03	1.173371E-14	1.915629E-16
3.047809E+03	1.189886E-14	1.936945E-16
3.057769E+03	1.206532E-14	1.958443E-16
3.067729E+03	1.223304E-14	1.980117E-16
3.077689E+03	1.240226E-14	2.002005E-16
3.087649E+03	1.257372E-14	2.024226E-16
3.097610E+03	1.274713E-14	2.046734E-16
3.107570E+03	1.292297E-14	2.069604E-16
3.117530E+03	1.310119E-14	2.092828E-16
3.127490E+03	1.328278E-14	2.116562E-16
3.137450E+03	1.346714E-14	2.140711E-16
3.147410E+03	1.365473E-14	2.165344E-16
3.157371E+03	1.384596E-14	2.190525E-16
3.167331E+03	1.404098E-14	2.216276E-16
3.177291E+03	1.423937E-14	2.242529E-16
3.187251E+03	1.444200E-14	2.269419E-16
3.197211E+03	1.464839E-14	2.296870E-16
3.207171E+03	1.485884E-14	2.324922E-16
3.217131E+03	1.507302E-14	2.353528E-16
3.227092E+03	1.529113E-14	2.382714E-16
3.237052E+03	1.551301E-14	2.412455E-16
3.247012E+03	1.573845E-14	2.442715E-16
3.256972E+03	1.596691E-14	2.473411E-16
3.266932E+03	1.619827E-14	2.504526E-16
3.276892E+03	1.643208E-14	2.535988E-16
3.286853E+03	1.666752E-14	2.567670E-16
3.296813E+03	1.690417E-14	2.599511E-16
3.306773E+03	1.714097E-14	2.631348E-16
3.316733E+03	1.737726E-14	2.663085E-16
3.326693E+03	1.761170E-14	2.694516E-16
3.336653E+03	1.784306E-14	2.725460E-16
3.346614E+03	1.806995E-14	2.755708E-16
3.356574E+03	1.829077E-14	2.785022E-16
3.366534E+03	1.850376E-14	2.813143E-16
3.376494E+03	1.870666E-14	2.839734E-16
3.386454E+03	1.889753E-14	2.864511E-16
3.396414E+03	1.907343E-14	2.887038E-16
3.406375E+03	1.923222E-14	2.907006E-16
3.416335E+03	1.937053E-14	2.923917E-16
3.426295E+03	1.948531E-14	2.937323E-16
3.436255E+03	1.957344E-14	2.946775E-16
3.446215E+03	1.963162E-14	2.951789E-16
3.456175E+03	1.965756E-14	2.952041E-16
3.466135E+03	1.964951E-14	2.947287E-16
3.476096E+03	1.960737E-14	2.937528E-16
3.486056E+03	1.953256E-14	2.922993E-16
3.496016E+03	1.942694E-14	2.903970E-16
3.505976E+03	1.929317E-14	2.880863E-16
3.515936E+03	1.913308E-14	2.853954E-16
3.525896E+03	1.894959E-14	2.823680E-16
3.535857E+03	1.874525E-14	2.790426E-16
3.545817E+03	1.852297E-14	2.754626E-16
3.555777E+03	1.828531E-14	2.716661E-16
3.565737E+03	1.803528E-14	2.676980E-16
3.575697E+03	1.777647E-14	2.636111E-16
3.585657E+03	1.751184E-14	2.594491E-16
3.595618E+03	1.724536E-14	2.552706E-16
3.605578E+03	1.698079E-14	2.511304E-16
3.615538E+03	1.672186E-14	2.470832E-16
3.625498E+03	1.647264E-14	2.431886E-16
3.635458E+03	1.623753E-14	2.395103E-16
3.645418E+03	1.602059E-14	2.361075E-16
3.655378E+03	1.582646E-14	2.330474E-16
3.665339E+03	1.565909E-14	2.303869E-16
3.675299E+03	1.552283E-14	2.281886E-16
3.685259E+03	1.542181E-14	2.265119E-16
3.695219E+03	1.536016E-14	2.254157E-16
3.705179E+03	1.534151E-14	2.249517E-16
3.715139E+03	1.536961E-14	2.251729E-16
3.725100E+03	1.544780E-14	2.261264E-16
3.735060E+03	1.557932E-14	2.278573E-16
3.745020E+03	1.576688E-14	2.304032E-16
3.754980E+03	1.601302E-14	2.337990E-16
3.764940E+03	1.631961E-14	2.380694E-16
3.774900E+03	1.668798E-14	2.432317E-16
3.784861E+03	1.711932E-14	2.493002E-16
3.794821E+03	1.761321E-14	2.562665E-16
3.804781E+03	1.816897E-14	2.641181E-16
3.814741E+03	1.878496E-14	2.728285E-16
3.824701E+03	1.945781E-14	2.823464E-16
3.834661E+03	2.018334E-14	2.926086E-16
3.844622E+03	2.095625E-14	3.035364E-16
3.854582E+03	2.176987E-14	3.150307E-16
3.864542E+03	2.261628E-14	3.269755E-16
3.874502E+03	2.348633E-14	3.392373E-16
3.884462E+03	2.437045E-14	3.516768E-16
3.894422E+03	2.525831E-14	3.641443E-16
3.904382E+03	2.613927E-14	3.764865E-16
3.914343E+03	2.700278E-14	3.885519E-16
3.924303E+03	2.783865E-14	4.001949E-16
3.934263E+03	2.863766E-14	4.112842E-16
3.944223E+03	2.939126E-14	4.216988E-16
3.954183E+03	3.009174E-14	4.313306E-16
3.964143E+03	3.073344E-14	4.401010E-16
3.974104E+03	3.131115E-14	4.479383E-16
3.984064E+03	3.182142E-14	4.547963E-16
3.994024E+03	3.226167E-14	4.606414E-16
4.003984E+03	3.262998E-14	4.654499E-16
4.013944E+03	3.292618E-14	4.692229E-16
4.023904E+03	3.314989E-14	4.719586E-16
4.033865E+03	3.330186E-14	4.736712E-16
4.043825E+03	3.338294E-14	4.743766E-16
4.053785E+03	3.339437E-14	4.740960E-16
4.063745E+03	3.333771E-14	4.728547E-16
4.073705E+03	3.321512E-14	4.706871E-16
4.083665E+03	3.302856E-14	4.676239E-16
4.093625E+03	3.278072E-14	4.637065E-16
4.103586E+03	3.247540E-14	4.589914E-16
4.113546E+03	3.211585E-14	4.535271E-16
4.123506E+03	3.170676E-14	4.473825E-16
4.133466E+03	3.125324E-14	4.406315E-16
4.143426E+03	3.076100E-14	4.333566E-16
4.153386E+03	3.023634E-14	4.256481E-16
4.163347E+03	2.968608E-14	4.176031E-16
4.173307E+03	2.911740E-14	4.093236E-16
4.183267E+03	2.853780E-14	4.009154E-16
4.193227E+03	2.795489E-14	3.924858E-16
4.203187E+03	2.737628E-14	3.841415E-16
4.213147E+03	2.680916E-14	3.759832E-16
4.223108E+03	2.626064E-14	3.681101E-16
4.233068E+03	2.573761E-14	3.606183E-16
4.243028E+03	2.524612E-14	3.535917E-16
4.252988E+03	2.479105E-14	3.470979E-16
4.262948E+03	2.437716E-14	3.412029E-16
4.272908E+03	2.400812E-14	3.359574E-16
4.282869E+03	2.368664E-14	3.313988E-16
4.292829E+03	2.341453E-14	3.275520E-16
4.302789E+03	2.319242E-14	3.244256E-16
4.312749E+03	2.302070E-14	3.220243E-16
4.322709E+03	2.289802E-14	3.203282E-16
4.332669E+03	2.282304E-14	3.193179E-16
4.342629E+03	2.279321E-14	3.189574E-16
4.352590E+03	2.280532E-14	3.192010E-16
4.362550E+03	2.285500E-14	3.199879E-16
4.372510E+03	2.293745E-14	3.212507E-16
4.382470E+03	2.304731E-14	3.229141E-16
4.392430E+03	2.317932E-14	3.249050E-16
4.402390E+03	2.332766E-14	3.271415E-16
4.412351E+03	2.348630E-14	3.295392E-16
4.422311E+03	2.364953E-14	3.320178E-16
4.432271E+03	2.381119E-14	3.344908E-16
4.442231E+03	2.396542E-14	3.368755E-16
4.452191E+03	2.410678E-14	3.390945E-16
4.462151E+03	2.422945E-14	3.410656E-16
4.472112E+03	2.432876E-14	3.427222E-16
4.482072E+03	2.440037E-14	3.440016E-16
4.492032E+03	2.444042E-14	3.448481E-16
4.501992E+03	2.444597E-14	3.452188E-16
4.511952E+03	2.441494E-14	3.450823E-16
4.521912E+03	2.434605E-14	3.444191E-16
4.531873E+03	2.423886E-14	3.432205E-16
4.541833E+03	2.409348E-14	3.414860E-16
4.551793E+03	2.391074E-14	3.392257E-16
4.561753E+03	2.369283E-14	3.364681E-16
4.571713E+03	2.344157E-14	3.332373E-16
4.581673E+03	2.315945E-14	3.295664E-16
4.591633E+03	2.284975E-14	3.255004E-16
4.601594E+03	2.251572E-14	3.210838E-16
4.611554E+03	2.216005E-14	3.163532E-16
4.621514E+03	2.178673E-14	3.113642E-16
4.631474E+03	2.139818E-14	3.061499E-16
4.641434E+03	2.099793E-14	3.007598E-16
4.651394E+03	2.058871E-14	2.952318E-16
4.661355E+03	2.017308E-14	2.896014E-16
4.671315E+03	1.975349E-14	2.839028E-16
4.681275E+03	1.933221E-14	2.781679E-16
4.691235E+03	1.891189E-14	2.724343E-16
4.701195E+03	1.849458E-14	2.667308E-16
4.711155E+03	1.808255E-14	2.610900E-16
4.721116E+03	1.767830E-14	2.555480E-16
4.731076E+03	1.728391E-14	2.501347E-16
4.741036E+03	1.690239E-14	2.448940E-16
4.750996E+03	1.653575E-14	2.398556E-16
4.760956E+03	1.618694E-14	2.350624E-16
4.770916E+03	1.585847E-14	2.305519E-16
4.780876E+03	1.555243E-14	2.263552E-16
4.790837E+03	1.527109E-14	2.225065E-16
4.800797E+03	1.501646E-14	2.190359E-16
4.810757E+03	1.478977E-14	2.159628E-16
4.820717E+03	1.459250E-14	2.133100E-16
4.830677E+03	1.442564E-14	2.110931E-16
4.840637E+03	1.428966E-14	2.093205E-16
4.850598E+03	1.418478E-14	2.079968E-16
4.860558E+03	1.411090E-14	2.071218E-16
4.870518E+03	1.406717E-14	2.066841E-16
4.880478E+03	1.405255E-14	2.066698E-16
4.890438E+03	1.406514E-14	2.070521E-16
4.900398E+03	1.410309E-14	2.078048E-16
4.910359E+03	1.416402E-14	2.088936E-16
4.920319E+03	1.424518E-14	2.102789E-16
4.930279E+03	1.434388E-14	2.119213E-16
4.940239E+03	1.445700E-14	2.137757E-16
4.950199E+03	1.458167E-14	2.157997E-16
4.960159E+03	1.471470E-14	2.179463E-16
4.970120E+03	1.485305E-14	2.201709E-16
4.980080E+03	1.499361E-14	2.224272E-16
4.990040E+03	1.513373E-14	2.246760E-16
5.000000E+03	1.527020E-14	2.268696E-16
5.009960E+03	1.540017E-14	2.289650E-16
5.019920E+03	1.552091E-14	2.309218E-16
5.029880E+03	1.562941E-14	2.326947E-16
5.039841E+03	1.572287E-14	2.342415E-16
5.049801E+03	1.579850E-14	2.355204E-16
5.059761E+03	1.585373E-14	2.364924E-16
5.069721E+03	1.588600E-14	2.371189E-16
5.079681E+03	1.589326E-14	2.373689E-16
5.089641E+03	1.587409E-14	2.372205E-16
5.099602E+03	1.582711E-14	2.366526E-16
5.109562E+03	1.575220E-14	2.356629E-16
5.119522E+03	1.564910E-14	2.342470E-16
5.129482E+03	1.551900E-14	2.324225E-16
5.139442E+03	1.536331E-14	2.302099E-16
5.149402E+03	1.518418E-14	2.276414E-16
5.159363E+03	1.498437E-14	2.247579E-16
5.169323E+03	1.476697E-14	2.216059E-16
5.179283E+03	1.453565E-14	2.182402E-16
5.189243E+03	1.429423E-14	2.147183E-16
5.199203E+03	1.404717E-14	2.111074E-16
5.209163E+03	1.379829E-14	2.074649E-16
5.219124E+03	1.355186E-14	2.038555E-16
5.229084E+03	1.331181E-14	2.003387E-16
5.239044E+03	1.308169E-14	1.969682E-16
5.249004E+03	1.286429E-14	1.937865E-16
5.258964E+03	1.266223E-14	1.908336E-16
5.268924E+03	1.247723E-14	1.881363E-16
5.278884E+03	1.231054E-14	1.857136E-16
5.288845E+03	1.216266E-14	1.835741E-16
5.298805E+03	1.203383E-14	1.817219E-16
5.308765E+03	1.192343E-14	1.801484E-16
5.318725E+03	1.183079E-14	1.788438E-16
5.328685E+03	1.175477E-14	1.777919E-16
5.338645E+03	1.169432E-14	1.769775E-16
5.348606E+03	1.164781E-14	1.763762E-16
5.358566E+03	1.161403E-14	1.759705E-16
5.368526E+03	1.159152E-14	1.757390E-16
5.378486E+03	1.157889E-14	1.756612E-16
5.388446E+03	1.157463E-14	1.757145E-16
5.398406E+03	1.157758E-14	1.758820E-16
5.408367E+03	1.158686E-14	1.761507E-16
5.418327E+03	1.160157E-14	1.765074E-16
5.428287E+03	1.162179E-14	1.769535E-16
5.438247E+03	1.164760E-14	1.774902E-16
5.448207E+03	1.167938E-14	1.781232E-16
5.458167E+03	1.171790E-14	1.788646E-16
5.468127E+03	1.176321E-14	1.797150E-16
5.478088E+03	1.181534E-14	1.806750E-16
5.488048E+03	1.187359E-14	1.817342E-16
5.498008E+03	1.193709E-14	1.828791E-16
5.507968E+03	1.200393E-14	1.840806E-16
5.517928E+03	1.207221E-14	1.853096E-16
5.527888E+03	1.213950E-14	1.865287E-16
5.537849E+03	1.220358E-14	1.877034E-16
5.547809E+03	1.226171E-14	1.887911E-16
5.557769E+03	1.231149E-14	1.897546E-16
5.567729E+03	1.235060E-14	1.905575E-16
5.577689E+03	1.237734E-14	1.911728E-16
5.587649E+03	1.239006E-14	1.915742E-16
5.597610E+03	1.238792E-14	1.917479E-16
5.607570E+03	1.237062E-14	1.916884E-16
5.617530E+03	1.233839E-14	1.913982E-16
5.627490E+03	1.229219E-14	1.908913E-16
5.637450E+03	1.223333E-14	1.901872E-16
5.647410E+03	1.216391E-14	1.893177E-16
5.657371E+03	1.208653E-14	1.883228E-16
5.667331E+03	1.200404E-14	1.872462E-16
5.677291E+03	1.191956E-14	1.861364E-16
5.687251E+03	1.183637E-14	1.850444E-16
5.697211E+03	1.175800E-14	1.840254E-16
5.707171E+03	1.168732E-14	1.831245E-16
5.717131E+03	1.162745E-14	1.823909E-16
5.727092E+03	1.158080E-14	1.818629E-16
5.737052E+03	1.154910E-14	1.815687E-16
5.747012E+03	1.153371E-14	1.815299E-16
5.756972E+03	1.153524E-14	1.817573E-16
5.766932E+03	1.155327E-14	1.822451E-16
5.776892E+03	1.158670E-14	1.829764E-16
5.786853E+03	1.163380E-14	1.839251E-16
5.796813E+03	1.169156E-14	1.850442E-16
5.806773E+03	1.175653E-14	1.862794E-16
5.816733E+03	1.182443E-14	1.875631E-16
5.826693E+03	1.189036E-14	1.888178E-16
5.836653E+03	1.194908E-14	1.899603E-16
5.846614E+03	1.199470E-14	1.908961E-16
5.856574E+03	1.202177E-14	1.915381E-16
5.866534E+03	1.202467E-14	1.917954E-16
5.876494E+03	1.199836E-14	1.915865E-16
5.886454E+03	1.193858E-14	1.908416E-16
5.896414E+03	1.184203E-14	1.895065E-16
5.906375E+03	1.170681E-14	1.875486E-16
5.916335E+03	1.153202E-14	1.849518E-16
5.926295E+03	1.131854E-14	1.817278E-16
5.936255E+03	1.106888E-14	1.779153E-16
5.946215E+03	1.078690E-14	1.735743E-16
5.956175E+03	1.047746E-14	1.687816E-16
5.966135E+03	1.014703E-14	1.636401E-16
5.976096E+03	9.802223E-15	1.582555E-16
5.986056E+03	9.450806E-15	1.527524E-16
5.996016E+03	9.099949E-15	1.472467E-16
6.005976E+03	8.756955E-15	1.418566E-16
6.015936E+03	8.428741E-15	1.366947E-16
6.025896E+03	8.121318E-15	1.318595E-16
6.035857E+03	7.839982E-15	1.274381E-16
6.045817E+03	7.588956E-15	1.235007E-16
6.055777E+03	7.371954E-15	1.201095E-16
6.065737E+03	7.191399E-15	1.173060E-16
6.075697E+03	7.049397E-15	1.151266E-16
6.085657E+03	6.947117E-15	1.135929E-16
6.095618E+03	6.885145E-15	1.127166E-16
6.105578E+03	6.863642E-15	1.125030E-16
6.115538E+03	6.882380E-15	1.129509E-16
6.125498E+03	6.940515E-15	1.140490E-16
6.135458E+03	7.036804E-15	1.157795E-16
6.145418E+03	7.169661E-15	1.181189E-16
6.155378E+03	7.336559E-15	1.210281E-16
6.165339E+03	7.534564E-15	1.244611E-16
6.175299E+03	7.760029E-15	1.283602E-16
6.185259E+03	8.008566E-15	1.326547E-16
6.195219E+03	8.274861E-15	1.372584E-16
6.205179E+03	8.553072E-15	1.420760E-16
6.215139E+03	8.837048E-15	1.470062E-16
6.225100E+03	9.120310E-15	1.519419E-16
6.235060E+03	9.396832E-15	1.567831E-16
6.245020E+03	9.660905E-15	1.614341E-16
6.254980E+03	9.907521E-15	1.658106E-16
6.264940E+03	1.013225E-14	1.698374E-16
6.274900E+03	1.033145E-14	1.734520E-16
6.284861E+03	1.050247E-14	1.766081E-16
6.294821E+03	1.064354E-14	1.792738E-16
6.304781E+03	1.075341E-14	1.814259E-16
6.314741E+03	1.083184E-14	1.830579E-16
6.324701E+03	1.087926E-14	1.841745E-16
6.334661E+03	1.089631E-14	1.847843E-16
6.344622E+03	1.088453E-14	1.849106E-16
6.354582E+03	1.084552E-14	1.845782E-16
6.364542E+03	1.078120E-14	1.838172E-16
6.374502E+03	1.069376E-14	1.826627E-16
6.384462E+03	1.058603E-14	1.811601E-16
6.394422E+03	1.046065E-14	1.793528E-16
6.404382E+03	1.032104E-14	1.772970E-16
6.414343E+03	1.017060E-14	1.750496E-16
6.424303E+03	1.001299E-14	1.726722E-16
6.434263E+03	9.852229E-15	1.702331E-16
6.444223E+03	9.692256E-15	1.677998E-16
6.454183E+03	9.537188E-15	1.654433E-16
6.464143E+03	9.390534E-15	1.632249E-16
6.474104E+03	9.256091E-15	1.612111E-16
6.484064E+03	9.136900E-15	1.594560E-16
6.494024E+03	9.035168E-15	1.579997E-16
6.503984E+03	8.952408E-15	1.568700E-16
6.513944E+03	8.888662E-15	1.560696E-16
6.523904E+03	8.842630E-15	1.555774E-16
6.533865E+03	8.812085E-15	1.553558E-16
6.543825E+03	8.794405E-15	1.553599E-16
6.553785E+03	8.786421E-15	1.555350E-16
6.563745E+03	8.785031E-15	1.558267E-16
6.573705E+03	8.787374E-15	1.561848E-16
6.583665E+03	8.790660E-15	1.565598E-16
6.593625E+03	8.792267E-15	1.569049E-16
6.603586E+03	8.790227E-15	1.571846E-16
6.613546E+03	8.782685E-15	1.573649E-16
6.623506E+03	8.768633E-15	1.574272E-16
6.633466E+03	8.746861E-15	1.573487E-16
6.643426E+03	8.716830E-15	1.571189E-16
6.653386E+03	8.678483E-15	1.567355E-16
6.663347E+03	8.631915E-15	1.561995E-16
6.673307E+03	8.577333E-15	1.555135E-16
6.683267E+03	8.515313E-15	1.546870E-16
6.693227E+03	8.446763E-15	1.537357E-16
6.703187E+03	8.372430E-15	1.526725E-16
6.713147E+03	8.293456E-15	1.515175E-16
6.723108E+03	8.210601E-15	1.502843E-16
6.733068E+03	8.125233E-15	1.489973E-16
6.743028E+03	8.038126E-15	1.476705E-16
6.752988E+03	7.950599E-15	1.463280E-16
6.762948E+03	7.863341E-15	1.449825E-16
6.772908E+03	7.777416E-15	1.436537E-16
6.782869E+03	7.693672E-15	1.423572E-16
6.792829E+03	7.612752E-15	1.411054E-16
6.802789E+03	7.535511E-15	1.399143E-16
6.812749E+03	7.462446E-15	1.387936E-16
6.822709E+03	7.394254E-15	1.377566E-16
6.832669E+03	7.331119E-15	1.368073E-16
6.842629E+03	7.273674E-15	1.359579E-16
6.852590E+03	7.222025E-15	1.352111E-16
6.862550E+03	7.176292E-15	1.345696E-16
6.872510E+03	7.136332E-15	1.340313E-16
6.882470E+03	7.102282E-15	1.335992E-16
6.892430E+03	7.073477E-15	1.332615E-16
6.902390E+03	7.049953E-15	1.330191E-16
6.912351E+03	7.030971E-15	1.328587E-16
6.922311E+03	7.015986E-15	1.327702E-16
6.932271E+03	7.004532E-15	1.327453E-16
6.942231E+03	6.995840E-15	1.327696E-16
6.952191E+03	6.989269E-15	1.328312E-16
6.962151E+03	6.984182E-15	1.329181E-16
6.972112E+03	6.979965E-15	1.330187E-16
6.982072E+03	6.976032E-15	1.331221E-16
6.992032E+03	6.971698E-15	1.332150E-16
7.001992E+03	6.966725E-15	1.332930E-16
7.011952E+03	6.960227E-15	1.333391E-16
7.021912E+03	6.952187E-15	1.333528E-16
7.031873E+03	6.941807E-15	1.333188E-16
7.041833E+03	6.929032E-15	1.332359E-16
7.051793E+03	6.913456E-15	1.330961E-16
7.061753E+03	6.894889E-15	1.328957E-16
7.071713E+03	6.873362E-15	1.326351E-16
7.081673E+03	6.848593E-15	1.323088E-16
7.091633E+03	6.820814E-15	1.319211E-16
7.101594E+03	6.790087E-15	1.314730E-16
7.111554E+03	6.756837E-15	1.309728E-16
7.121514E+03	6.721423E-15	1.304272E-16
7.131474E+03	6.684113E-15	1.298416E-16
7.141434E+03	6.645456E-15	1.292265E-16
7.151394E+03	6.605565E-15	1.285841E-16
7.161355E+03	6.565037E-15	1.279262E-16
7.171315E+03	6.523968E-15	1.272546E-16
7.181275E+03	6.482347E-15	1.265693E-16
7.191235E+03	6.440303E-15	1.258728E-16
7.201195E+03	6.397703E-15	1.251626E-16
7.211155E+03	6.354156E-15	1.244312E-16
7.221116E+03	6.309293E-15	1.236713E-16
7.231076E+03	6.262653E-15	1.228740E-16
7.241036E+03	6.213706E-15	1.220289E-16
7.250996E+03	6.161883E-15	1.211247E-16
7.260956E+03	6.106357E-15	1.201453E-16
7.270916E+03	6.046845E-15	1.190848E-16
7.280876E+03	5.982748E-15	1.179315E-16
7.290837E+03	5.913587E-15	1.166757E-16
7.300797E+03	5.839272E-15	1.153154E-16
7.310757E+03	5.759521E-15	1.138450E-16
7.320717E+03	5.674506E-15	1.122677E-16
7.330677E+03	5.584614E-15	1.105909E-16
7.340637E+03	5.490337E-15	1.088242E-16
7.350598E+03	5.392619E-15	1.069863E-16
7.360558E+03	5.292148E-15	1.050906E-16
7.370518E+03	5.190354E-15	1.031656E-16
7.380478E+03	5.088347E-15	1.012333E-16
7.390438E+03	4.987662E-15	9.932429E-17
7.400398E+03	4.889648E-15	9.746566E-17
7.410359E+03	4.795752E-15	9.568646E-17
7.420319E+03	4.707454E-15	9.401657E-17
7.430279E+03	4.625926E-15	9.247975E-17
7.440239E+03	4.552594E-15	9.110502E-17
7.450199E+03	4.488219E-15	8.990813E-17
7.460159E+03	4.433770E-15	8.890915E-17
7.470120E+03	4.389741E-15	8.811861E-17
7.480080E+03	4.356821E-15	8.755112E-17
7.490040E+03	4.335149E-15	8.721027E-17
7.500000E+03	4.324810E-15	8.709855E-17
7.509960E+03	4.325850E-15	8.721776E-17
7.519920E+03	4.338111E-15	8.756560E-17
7.529880E+03	4.361528E-15	8.814162E-17
7.539841E+03	4.395571E-15	8.893592E-17
7.549801E+03	4.439915E-15	8.994283E-17
7.559761E+03	4.494163E-15	9.115513E-17
7.569721E+03	4.557638E-15	9.255999E-17
7.579681E+03	4.629773E-15	9.414670E-17
7.589641E+03	4.709700E-15	9.589843E-17
7.599602E+03	4.796759E-15	9.780257E-17
7.609562E+03	4.889757E-15	9.983552E-17
7.619522E+03	4.987814E-15	1.019800E-16
7.629482E+03	5.089491E-15	1.042072E-16
7.639442E+03	5.193691E-15	1.064952E-16
7.649402E+03	5.298753E-15	1.088103E-16
7.659363E+03	5.403414E-15	1.111269E-16
7.669323E+03	5.506017E-15	1.134111E-16
7.679283E+03	5.605018E-15	1.156311E-16
7.689243E+03	5.698915E-15	1.177558E-16
7.699203E+03	5.786293E-15	1.197556E-16
7.709163E+03	5.865859E-15	1.216033E-16
7.719124E+03	5.936338E-15	1.232718E-16
7.729084E+03	5.997052E-15	1.247464E-16
