#wls	flux	fluxerr
1.593625E+03	1.395590E-15	3.851194E-17
1.633466E+03	1.355748E-15	3.682819E-17
1.673307E+03	1.313407E-15	3.510705E-17
1.713147E+03	1.268575E-15	3.335283E-17
1.752988E+03	1.221368E-15	3.157282E-17
1.792829E+03	1.171897E-15	2.977381E-17
1.832669E+03	1.119816E-15	2.795113E-17
1.872510E+03	1.065224E-15	2.611154E-17
1.912351E+03	1.007844E-15	2.425259E-17
1.952191E+03	9.473376E-16	2.237077E-17
1.992032E+03	8.832590E-16	2.046065E-17
2.031873E+03	8.153500E-16	1.852173E-17
2.071713E+03	7.439497E-16	1.656711E-17
2.111554E+03	6.733937E-16	1.469631E-17
2.151394E+03	6.153957E-16	1.315870E-17
2.191235E+03	5.796368E-16	1.214038E-17
2.231076E+03	5.726194E-16	1.174565E-17
2.270916E+03	6.005843E-16	1.206306E-17
2.310757E+03	6.703129E-16	1.318242E-17
2.350598E+03	7.916587E-16	1.524328E-17
2.390438E+03	9.806860E-16	1.848900E-17
2.430279E+03	1.260730E-15	2.327549E-17
2.470120E+03	1.662040E-15	3.005274E-17
2.509960E+03	2.217154E-15	3.927342E-17
2.549801E+03	2.949363E-15	5.119291E-17
2.589641E+03	3.849955E-15	6.550259E-17
2.629482E+03	4.857910E-15	8.104498E-17
2.669323E+03	5.905840E-15	9.664673E-17
2.709163E+03	6.955858E-15	1.116973E-16
2.749004E+03	7.980973E-15	1.258045E-16
2.788845E+03	8.960768E-15	1.387076E-16
2.828685E+03	9.881530E-15	1.502682E-16
2.868526E+03	1.073743E-14	1.604770E-16
2.908367E+03	1.152974E-14	1.694317E-16
2.948207E+03	1.226845E-14	1.773512E-16
2.988048E+03	1.296899E-14	1.845195E-16
2.998008E+03	1.314089E-14	1.862390E-16
3.007968E+03	1.331189E-14	1.879364E-16
3.017928E+03	1.348233E-14	1.896171E-16
3.027888E+03	1.365320E-14	1.912952E-16
3.037849E+03	1.382459E-14	1.929725E-16
3.047809E+03	1.399694E-14	1.946554E-16
3.057769E+03	1.417113E-14	1.963561E-16
3.067729E+03	1.434723E-14	1.980755E-16
3.077689E+03	1.452560E-14	1.998184E-16
3.087649E+03	1.470726E-14	2.015982E-16
3.097610E+03	1.489196E-14	2.034116E-16
3.107570E+03	1.508040E-14	2.052676E-16
3.117530E+03	1.527267E-14	2.071670E-16
3.127490E+03	1.547004E-14	2.091265E-16
3.137450E+03	1.567198E-14	2.111385E-16
3.147410E+03	1.587916E-14	2.132115E-16
3.157371E+03	1.609224E-14	2.153536E-16
3.167331E+03	1.631156E-14	2.175687E-16
3.177291E+03	1.653680E-14	2.198520E-16
3.187251E+03	1.676920E-14	2.222192E-16
3.197211E+03	1.700840E-14	2.246647E-16
3.207171E+03	1.725492E-14	2.271949E-16
3.217131E+03	1.750865E-14	2.298073E-16
3.227092E+03	1.777003E-14	2.325070E-16
3.237052E+03	1.803913E-14	2.352944E-16
3.247012E+03	1.831598E-14	2.381688E-16
3.256972E+03	1.860020E-14	2.411247E-16
3.266932E+03	1.889195E-14	2.441635E-16
3.276892E+03	1.919100E-14	2.472816E-16
3.286853E+03	1.949669E-14	2.504698E-16
3.296813E+03	1.980886E-14	2.537256E-16
3.306773E+03	2.012661E-14	2.570371E-16
3.316733E+03	2.044953E-14	2.603985E-16
3.326693E+03	2.077644E-14	2.637947E-16
3.336653E+03	2.110631E-14	2.672123E-16
3.346614E+03	2.143799E-14	2.706369E-16
3.356574E+03	2.177013E-14	2.740516E-16
3.366534E+03	2.210132E-14	2.774389E-16
3.376494E+03	2.242962E-14	2.807749E-16
3.386454E+03	2.275368E-14	2.840434E-16
3.396414E+03	2.307106E-14	2.872148E-16
3.406375E+03	2.338056E-14	2.902753E-16
3.416335E+03	2.367964E-14	2.931943E-16
3.426295E+03	2.396635E-14	2.959493E-16
3.436255E+03	2.423872E-14	2.985176E-16
3.446215E+03	2.449437E-14	3.008716E-16
3.456175E+03	2.473134E-14	3.029892E-16
3.466135E+03	2.494652E-14	3.048347E-16
3.476096E+03	2.513610E-14	3.063636E-16
3.486056E+03	2.529610E-14	3.075306E-16
3.496016E+03	2.542219E-14	3.082857E-16
3.505976E+03	2.551089E-14	3.085892E-16
3.515936E+03	2.555773E-14	3.083904E-16
3.525896E+03	2.556005E-14	3.076600E-16
3.535857E+03	2.551516E-14	3.063694E-16
3.545817E+03	2.542142E-14	3.045022E-16
3.555777E+03	2.527742E-14	3.020454E-16
3.565737E+03	2.508314E-14	2.990023E-16
3.575697E+03	2.484018E-14	2.953956E-16
3.585657E+03	2.455025E-14	2.912494E-16
3.595618E+03	2.421757E-14	2.866165E-16
3.605578E+03	2.384709E-14	2.815589E-16
3.615538E+03	2.344493E-14	2.761509E-16
3.625498E+03	2.301881E-14	2.704855E-16
3.635458E+03	2.257785E-14	2.646713E-16
3.645418E+03	2.213174E-14	2.588221E-16
3.655378E+03	2.169153E-14	2.530671E-16
3.665339E+03	2.126783E-14	2.475288E-16
3.675299E+03	2.087205E-14	2.423380E-16
3.685259E+03	2.051521E-14	2.376198E-16
3.695219E+03	2.020811E-14	2.334954E-16
3.705179E+03	1.996054E-14	2.300732E-16
3.715139E+03	1.978193E-14	2.274566E-16
3.725100E+03	1.968068E-14	2.257357E-16
3.735060E+03	1.966452E-14	2.249923E-16
3.745020E+03	1.974006E-14	2.252945E-16
3.754980E+03	1.991321E-14	2.267016E-16
3.764940E+03	2.018871E-14	2.292586E-16
3.774900E+03	2.057020E-14	2.329979E-16
3.784861E+03	2.106066E-14	2.379437E-16
3.794821E+03	2.166060E-14	2.440920E-16
3.804781E+03	2.236957E-14	2.514278E-16
3.814741E+03	2.318505E-14	2.599131E-16
3.824701E+03	2.410152E-14	2.694763E-16
3.834661E+03	2.511123E-14	2.800217E-16
3.844622E+03	2.620390E-14	2.914263E-16
3.854582E+03	2.736630E-14	3.035357E-16
3.864542E+03	2.858260E-14	3.161677E-16
3.874502E+03	2.983461E-14	3.291166E-16
3.884462E+03	3.110309E-14	3.421674E-16
3.894422E+03	3.236792E-14	3.550972E-16
3.904382E+03	3.360912E-14	3.676878E-16
3.914343E+03	3.480784E-14	3.797354E-16
3.924303E+03	3.594719E-14	3.910600E-16
3.934263E+03	3.701318E-14	4.015156E-16
3.944223E+03	3.799456E-14	4.109872E-16
3.954183E+03	3.888294E-14	4.193925E-16
3.964143E+03	3.967408E-14	4.266947E-16
3.974104E+03	4.036548E-14	4.328767E-16
3.984064E+03	4.095763E-14	4.379534E-16
3.994024E+03	4.145238E-14	4.419544E-16
4.003984E+03	4.185224E-14	4.449162E-16
4.013944E+03	4.216129E-14	4.468917E-16
4.023904E+03	4.238246E-14	4.479211E-16
4.033865E+03	4.251904E-14	4.480481E-16
4.043825E+03	4.257328E-14	4.473051E-16
4.053785E+03	4.254683E-14	4.457181E-16
4.063745E+03	4.244078E-14	4.433066E-16
4.073705E+03	4.225625E-14	4.400908E-16
4.083665E+03	4.199368E-14	4.360832E-16
4.093625E+03	4.165429E-14	4.313046E-16
4.103586E+03	4.124087E-14	4.257915E-16
4.113546E+03	4.075589E-14	4.195768E-16
4.123506E+03	4.020420E-14	4.127175E-16
4.133466E+03	3.959163E-14	4.052796E-16
4.143426E+03	3.892524E-14	3.973411E-16
4.153386E+03	3.821327E-14	3.889912E-16
4.163347E+03	3.746499E-14	3.803278E-16
4.173307E+03	3.669042E-14	3.714559E-16
4.183267E+03	3.590021E-14	3.624853E-16
4.193227E+03	3.510524E-14	3.535268E-16
4.203187E+03	3.431642E-14	3.446903E-16
4.213147E+03	3.354410E-14	3.360788E-16
4.223108E+03	3.279845E-14	3.277926E-16
4.233068E+03	3.208916E-14	3.199259E-16
4.243028E+03	3.142473E-14	3.125604E-16
4.252988E+03	3.081197E-14	3.057602E-16
4.262948E+03	3.025736E-14	2.995856E-16
4.272908E+03	2.976571E-14	2.940800E-16
4.282869E+03	2.934043E-14	2.892728E-16
4.292829E+03	2.898348E-14	2.851792E-16
4.302789E+03	2.869512E-14	2.817974E-16
4.312749E+03	2.847495E-14	2.791187E-16
4.322709E+03	2.832031E-14	2.771116E-16
4.332669E+03	2.822851E-14	2.757449E-16
4.342629E+03	2.819566E-14	2.749764E-16
4.352590E+03	2.821710E-14	2.747564E-16
4.362550E+03	2.828602E-14	2.750154E-16
4.372510E+03	2.839552E-14	2.756834E-16
4.382470E+03	2.853851E-14	2.766887E-16
4.392430E+03	2.870850E-14	2.779664E-16
4.402390E+03	2.889884E-14	2.794503E-16
4.412351E+03	2.910310E-14	2.810764E-16
4.422311E+03	2.931536E-14	2.827865E-16
4.432271E+03	2.952907E-14	2.845161E-16
4.442231E+03	2.973767E-14	2.862012E-16
4.452191E+03	2.993469E-14	2.877788E-16
4.462151E+03	3.011266E-14	2.891765E-16
4.472112E+03	3.026502E-14	2.903310E-16
4.482072E+03	3.038519E-14	2.911792E-16
4.492032E+03	3.046690E-14	2.916607E-16
4.501992E+03	3.050498E-14	2.917263E-16
4.511952E+03	3.049534E-14	2.913372E-16
4.521912E+03	3.043518E-14	2.904671E-16
4.531873E+03	3.032309E-14	2.891029E-16
4.541833E+03	3.015873E-14	2.872421E-16
4.551793E+03	2.994312E-14	2.848948E-16
4.561753E+03	2.967924E-14	2.820902E-16
4.571713E+03	2.936989E-14	2.788554E-16
4.581673E+03	2.901883E-14	2.752268E-16
4.591633E+03	2.863083E-14	2.712502E-16
4.601594E+03	2.821068E-14	2.669716E-16
4.611554E+03	2.776260E-14	2.624316E-16
4.621514E+03	2.729252E-14	2.576865E-16
4.631474E+03	2.680439E-14	2.527742E-16
4.641434E+03	2.630351E-14	2.477451E-16
4.651394E+03	2.579396E-14	2.426378E-16
4.661355E+03	2.527932E-14	2.374860E-16
4.671315E+03	2.476261E-14	2.323180E-16
4.681275E+03	2.424629E-14	2.271570E-16
4.691235E+03	2.373288E-14	2.220267E-16
4.701195E+03	2.322394E-14	2.169415E-16
4.711155E+03	2.272116E-14	2.119173E-16
4.721116E+03	2.222651E-14	2.069723E-16
4.731076E+03	2.174149E-14	2.021204E-16
4.741036E+03	2.126897E-14	1.973881E-16
4.750996E+03	2.081082E-14	1.927927E-16
4.760956E+03	2.037027E-14	1.883638E-16
4.770916E+03	1.995033E-14	1.841285E-16
4.780876E+03	1.955378E-14	1.801120E-16
4.790837E+03	1.918362E-14	1.763410E-16
4.800797E+03	1.884260E-14	1.728397E-16
4.810757E+03	1.853296E-14	1.696274E-16
4.820717E+03	1.825748E-14	1.667282E-16
4.830677E+03	1.801863E-14	1.641626E-16
4.840637E+03	1.781835E-14	1.619464E-16
4.850598E+03	1.765826E-14	1.600922E-16
4.860558E+03	1.753956E-14	1.586083E-16
4.870518E+03	1.746231E-14	1.574925E-16
4.880478E+03	1.742611E-14	1.567386E-16
4.890438E+03	1.742920E-14	1.563279E-16
4.900398E+03	1.746954E-14	1.562391E-16
4.910359E+03	1.754414E-14	1.564429E-16
4.920319E+03	1.764919E-14	1.569027E-16
4.930279E+03	1.778077E-14	1.575812E-16
4.940239E+03	1.793438E-14	1.584364E-16
4.950199E+03	1.810583E-14	1.594296E-16
4.960159E+03	1.829069E-14	1.605202E-16
4.970120E+03	1.848489E-14	1.616717E-16
4.980080E+03	1.868449E-14	1.628488E-16
4.990040E+03	1.888640E-14	1.640241E-16
5.000000E+03	1.908695E-14	1.651661E-16
5.009960E+03	1.928305E-14	1.662481E-16
5.019920E+03	1.947176E-14	1.672458E-16
5.029880E+03	1.964954E-14	1.681296E-16
5.039841E+03	1.981266E-14	1.688695E-16
5.049801E+03	1.995704E-14	1.694326E-16
5.059761E+03	2.007825E-14	1.697837E-16
5.069721E+03	2.017147E-14	1.698855E-16
5.079681E+03	2.023222E-14	1.697036E-16
5.089641E+03	2.025670E-14	1.692106E-16
5.099602E+03	2.024126E-14	1.683807E-16
5.109562E+03	2.018415E-14	1.672043E-16
5.119522E+03	2.008371E-14	1.656729E-16
5.129482E+03	1.994056E-14	1.637974E-16
5.139442E+03	1.975595E-14	1.615932E-16
5.149402E+03	1.953243E-14	1.590864E-16
5.159363E+03	1.927364E-14	1.563118E-16
5.169323E+03	1.898395E-14	1.533090E-16
5.179283E+03	1.866876E-14	1.501256E-16
5.189243E+03	1.833399E-14	1.468124E-16
5.199203E+03	1.798669E-14	1.434286E-16
5.209163E+03	1.763350E-14	1.400288E-16
5.219124E+03	1.728206E-14	1.366745E-16
5.229084E+03	1.693982E-14	1.334251E-16
5.239044E+03	1.661396E-14	1.303363E-16
5.249004E+03	1.631055E-14	1.274548E-16
5.258964E+03	1.603512E-14	1.248218E-16
5.268924E+03	1.579131E-14	1.224636E-16
5.278884E+03	1.558124E-14	1.203944E-16
5.288845E+03	1.540536E-14	1.186153E-16
5.298805E+03	1.526317E-14	1.171203E-16
5.308765E+03	1.515279E-14	1.158930E-16
5.318725E+03	1.507187E-14	1.149140E-16
5.328685E+03	1.501735E-14	1.141586E-16
5.338645E+03	1.498599E-14	1.136015E-16
5.348606E+03	1.497368E-14	1.132110E-16
5.358566E+03	1.497676E-14	1.129595E-16
5.368526E+03	1.499124E-14	1.128174E-16
5.378486E+03	1.501328E-14	1.127562E-16
5.388446E+03	1.503896E-14	1.127474E-16
5.398406E+03	1.506502E-14	1.127678E-16
5.408367E+03	1.508881E-14	1.127984E-16
5.418327E+03	1.510827E-14	1.128249E-16
5.428287E+03	1.512446E-14	1.128558E-16
5.438247E+03	1.513911E-14	1.129034E-16
5.448207E+03	1.515474E-14	1.129857E-16
5.458167E+03	1.517482E-14	1.131275E-16
5.468127E+03	1.520219E-14	1.133493E-16
5.478088E+03	1.523982E-14	1.136722E-16
5.488048E+03	1.528888E-14	1.141041E-16
5.498008E+03	1.535004E-14	1.146495E-16
5.507968E+03	1.542207E-14	1.152984E-16
5.517928E+03	1.550279E-14	1.160339E-16
5.527888E+03	1.558855E-14	1.168282E-16
5.537849E+03	1.567551E-14	1.176519E-16
5.547809E+03	1.575900E-14	1.184689E-16
5.557769E+03	1.583471E-14	1.192460E-16
5.567729E+03	1.589852E-14	1.199509E-16
5.577689E+03	1.594710E-14	1.205569E-16
5.587649E+03	1.597723E-14	1.210381E-16
5.597610E+03	1.598675E-14	1.213762E-16
5.607570E+03	1.597430E-14	1.215588E-16
5.617530E+03	1.593924E-14	1.215789E-16
5.627490E+03	1.588202E-14	1.214376E-16
5.637450E+03	1.580364E-14	1.211404E-16
5.647410E+03	1.570636E-14	1.207023E-16
5.657371E+03	1.559321E-14	1.201447E-16
5.667331E+03	1.546779E-14	1.194933E-16
5.677291E+03	1.533428E-14	1.187788E-16
5.687251E+03	1.519725E-14	1.180355E-16
5.697211E+03	1.506187E-14	1.173025E-16
5.707171E+03	1.493266E-14	1.166144E-16
5.717131E+03	1.481464E-14	1.160103E-16
5.727092E+03	1.471212E-14	1.155241E-16
5.737052E+03	1.462868E-14	1.151843E-16
5.747012E+03	1.456740E-14	1.150161E-16
5.756972E+03	1.453047E-14	1.150375E-16
5.766932E+03	1.451869E-14	1.152563E-16
5.776892E+03	1.453195E-14	1.156726E-16
5.786853E+03	1.456930E-14	1.162801E-16
5.796813E+03	1.462796E-14	1.170577E-16
5.806773E+03	1.470441E-14	1.179782E-16
5.816733E+03	1.479382E-14	1.190035E-16
5.826693E+03	1.489031E-14	1.200866E-16
5.836653E+03	1.498738E-14	1.211751E-16
5.846614E+03	1.507746E-14	1.222076E-16
5.856574E+03	1.515334E-14	1.231247E-16
5.866534E+03	1.520723E-14	1.238619E-16
5.876494E+03	1.523175E-14	1.243577E-16
5.886454E+03	1.522005E-14	1.245539E-16
5.896414E+03	1.516614E-14	1.243995E-16
5.906375E+03	1.506539E-14	1.238541E-16
5.916335E+03	1.491409E-14	1.228844E-16
5.926295E+03	1.471039E-14	1.214727E-16
5.936255E+03	1.445437E-14	1.196171E-16
5.946215E+03	1.414772E-14	1.173289E-16
5.956175E+03	1.379363E-14	1.146323E-16
5.966135E+03	1.339771E-14	1.115722E-16
5.976096E+03	1.296640E-14	1.082004E-16
5.986056E+03	1.250850E-14	1.045892E-16
5.996016E+03	1.203296E-14	1.008127E-16
6.005976E+03	1.154994E-14	9.695595E-17
6.015936E+03	1.107010E-14	9.310845E-17
6.025896E+03	1.060375E-14	8.935775E-17
6.035857E+03	1.016085E-14	8.578910E-17
6.045817E+03	9.750260E-15	8.247887E-17
6.055777E+03	9.380203E-15	7.949866E-17
6.065737E+03	9.057011E-15	7.690448E-17
6.075697E+03	8.786205E-15	7.474582E-17
6.085657E+03	8.571643E-15	7.305836E-17
6.095618E+03	8.416026E-15	7.186811E-17
6.105578E+03	8.321139E-15	7.119345E-17
6.115538E+03	8.287988E-15	7.104624E-17
6.125498E+03	8.316562E-15	7.142972E-17
6.135458E+03	8.406124E-15	7.234099E-17
6.145418E+03	8.555243E-15	7.377120E-17
6.155378E+03	8.761066E-15	7.569924E-17
6.165339E+03	9.019924E-15	7.809688E-17
6.175299E+03	9.326868E-15	8.092466E-17
6.185259E+03	9.675552E-15	8.413072E-17
6.195219E+03	1.005789E-14	8.764777E-17
6.205179E+03	1.046450E-14	9.139675E-17
6.215139E+03	1.088499E-14	9.528910E-17
6.225100E+03	1.130817E-14	9.922860E-17
6.235060E+03	1.172377E-14	1.031263E-16
6.245020E+03	1.212201E-14	1.068967E-16
6.254980E+03	1.249417E-14	1.104628E-16
6.264940E+03	1.283256E-14	1.137560E-16
6.274900E+03	1.313095E-14	1.167198E-16
6.284861E+03	1.338495E-14	1.193133E-16
6.294821E+03	1.359190E-14	1.215106E-16
6.304781E+03	1.375035E-14	1.232961E-16
6.314741E+03	1.386067E-14	1.246701E-16
6.324701E+03	1.392429E-14	1.256425E-16
6.334661E+03	1.394294E-14	1.262256E-16
6.344622E+03	1.391919E-14	1.264390E-16
6.354582E+03	1.385515E-14	1.262986E-16
6.364542E+03	1.375285E-14	1.258181E-16
6.374502E+03	1.361435E-14	1.250118E-16
6.384462E+03	1.344235E-14	1.238998E-16
6.394422E+03	1.323953E-14	1.225022E-16
6.404382E+03	1.300999E-14	1.208528E-16
6.414343E+03	1.275849E-14	1.189916E-16
6.424303E+03	1.249081E-14	1.169692E-16
6.434263E+03	1.221388E-14	1.148477E-16
6.444223E+03	1.193523E-14	1.126959E-16
6.454183E+03	1.166307E-14	1.105904E-16
6.464143E+03	1.140537E-14	1.086068E-16
6.474104E+03	1.117075E-14	1.068284E-16
6.484064E+03	1.096696E-14	1.053315E-16
6.494024E+03	1.080054E-14	1.041821E-16
6.503984E+03	1.067651E-14	1.034330E-16
6.513944E+03	1.059524E-14	1.030924E-16
6.523904E+03	1.055184E-14	1.031172E-16
6.533865E+03	1.053961E-14	1.034462E-16
6.543825E+03	1.055140E-14	1.040123E-16
6.553785E+03	1.057958E-14	1.047425E-16
6.563745E+03	1.061709E-14	1.055681E-16
6.573705E+03	1.065763E-14	1.064273E-16
6.583665E+03	1.069576E-14	1.072651E-16
6.593625E+03	1.072686E-14	1.080344E-16
6.603586E+03	1.074785E-14	1.087026E-16
6.613546E+03	1.075624E-14	1.092427E-16
6.623506E+03	1.075099E-14	1.096421E-16
6.633466E+03	1.073108E-14	1.098882E-16
6.643426E+03	1.069643E-14	1.099778E-16
6.653386E+03	1.064762E-14	1.099150E-16
6.663347E+03	1.058542E-14	1.097054E-16
6.673307E+03	1.051074E-14	1.093567E-16
6.683267E+03	1.042485E-14	1.088803E-16
6.693227E+03	1.032943E-14	1.082923E-16
6.703187E+03	1.022597E-14	1.076070E-16
6.713147E+03	1.011638E-14	1.068435E-16
6.723108E+03	1.000213E-14	1.060166E-16
6.733068E+03	9.885356E-15	1.051482E-16
6.743028E+03	9.767419E-15	1.042527E-16
6.752988E+03	9.650279E-15	1.033508E-16
6.762948E+03	9.534981E-15	1.024538E-16
6.772908E+03	9.422922E-15	1.015770E-16
6.782869E+03	9.315117E-15	1.007317E-16
6.792829E+03	9.212228E-15	9.992555E-17
6.802789E+03	9.115097E-15	9.916817E-17
6.812749E+03	9.024076E-15	9.846401E-17
6.822709E+03	8.939711E-15	9.781968E-17
6.832669E+03	8.861914E-15	9.723484E-17
6.842629E+03	8.791141E-15	9.671513E-17
6.852590E+03	8.727226E-15	9.625937E-17
6.862550E+03	8.670061E-15	9.586697E-17
6.872510E+03	8.619272E-15	9.553433E-17
6.882470E+03	8.574873E-15	9.526214E-17
6.892430E+03	8.535964E-15	9.504086E-17
6.902390E+03	8.502531E-15	9.487074E-17
6.912351E+03	8.473652E-15	9.474185E-17
6.922311E+03	8.448651E-15	9.464691E-17
6.932271E+03	8.426965E-15	9.457983E-17
6.942231E+03	8.407695E-15	9.453070E-17
6.952191E+03	8.390125E-15	9.449157E-17
6.962151E+03	8.373581E-15	9.445491E-17
6.972112E+03	8.357443E-15	9.441377E-17
6.982072E+03	8.341157E-15	9.436191E-17
6.992032E+03	8.324075E-15	9.429195E-17
7.001992E+03	8.306106E-15	9.420287E-17
7.011952E+03	8.286398E-15	9.408495E-17
7.021912E+03	8.265111E-15	9.394000E-17
7.031873E+03	8.241429E-15	9.375872E-17
7.041833E+03	8.215347E-15	9.354104E-17
7.051793E+03	8.186401E-15	9.328166E-17
7.061753E+03	8.154376E-15	9.297818E-17
7.071713E+03	8.119351E-15	9.263152E-17
7.081673E+03	8.081063E-15	9.223875E-17
7.091633E+03	8.039893E-15	9.180431E-17
7.101594E+03	7.996041E-15	9.133060E-17
7.111554E+03	7.950150E-15	9.082512E-17
7.121514E+03	7.902785E-15	9.029450E-17
7.131474E+03	7.854402E-15	8.974413E-17
7.141434E+03	7.805761E-15	8.918291E-17
7.151394E+03	7.757087E-15	8.861360E-17
7.161355E+03	7.709113E-15	8.804482E-17
7.171315E+03	7.661936E-15	8.747786E-17
7.181275E+03	7.615449E-15	8.691176E-17
7.191235E+03	7.569645E-15	8.634661E-17
7.201195E+03	7.524148E-15	8.577837E-17
7.211155E+03	7.478260E-15	8.519931E-17
7.221116E+03	7.431294E-15	8.460187E-17
7.231076E+03	7.382461E-15	8.397734E-17
7.241036E+03	7.330890E-15	8.331613E-17
7.250996E+03	7.275672E-15	8.260829E-17
7.260956E+03	7.215600E-15	8.184051E-17
7.270916E+03	7.150120E-15	8.100701E-17
7.280876E+03	7.078323E-15	8.009800E-17
7.290837E+03	6.999447E-15	7.910550E-17
7.300797E+03	6.913220E-15	7.802705E-17
7.310757E+03	6.819158E-15	7.685791E-17
7.320717E+03	6.717329E-15	7.559961E-17
7.330677E+03	6.608084E-15	7.425685E-17
7.340637E+03	6.491922E-15	7.283605E-17
7.350598E+03	6.369916E-15	7.135000E-17
7.360558E+03	6.242891E-15	6.980867E-17
7.370518E+03	6.112624E-15	6.823260E-17
7.380478E+03	5.980611E-15	6.663908E-17
7.390438E+03	5.848962E-15	6.505209E-17
7.400398E+03	5.719693E-15	6.349437E-17
7.410359E+03	5.595035E-15	6.199091E-17
7.420319E+03	5.477328E-15	6.056762E-17
7.430279E+03	5.368585E-15	5.924665E-17
7.440239E+03	5.271105E-15	5.805303E-17
7.450199E+03	5.186347E-15	5.700235E-17
7.460159E+03	5.115908E-15	5.611157E-17
7.470120E+03	5.060682E-15	5.538976E-17
7.480080E+03	5.021598E-15	5.484629E-17
7.490040E+03	4.998744E-15	5.448128E-17
7.500000E+03	4.991989E-15	5.429241E-17
7.509960E+03	5.001080E-15	5.427610E-17
7.519920E+03	5.025485E-15	5.442578E-17
7.529880E+03	5.064772E-15	5.473597E-17
7.539841E+03	5.117952E-15	5.519528E-17
7.549801E+03	5.184266E-15	5.579490E-17
7.559761E+03	5.262854E-15	5.652501E-17
7.569721E+03	5.352516E-15	5.737231E-17
7.579681E+03	5.452178E-15	5.832497E-17
7.589641E+03	5.560417E-15	5.936762E-17
7.599602E+03	5.676087E-15	6.048797E-17
7.609562E+03	5.797454E-15	6.166764E-17
7.619522E+03	5.923206E-15	6.289295E-17
7.629482E+03	6.051431E-15	6.414399E-17
7.639442E+03	6.180695E-15	6.540610E-17
7.649402E+03	6.308988E-15	6.665869E-17
7.659363E+03	6.434881E-15	6.788749E-17
7.669323E+03	6.556595E-15	6.907463E-17
7.679283E+03	6.672600E-15	7.020499E-17
7.689243E+03	6.781516E-15	7.126515E-17
7.699203E+03	6.882151E-15	7.224369E-17
7.709163E+03	6.973500E-15	7.313120E-17
7.719124E+03	7.054596E-15	7.391867E-17
7.729084E+03	7.125161E-15	7.460431E-17
