#wls	flux	fluxerr
1.593625E+03	2.213328E-15	6.514968E-17
1.633466E+03	2.122383E-15	6.152234E-17
1.673307E+03	2.023797E-15	5.775230E-17
1.713147E+03	1.918519E-15	5.387826E-17
1.752988E+03	1.806575E-15	4.991169E-17
1.792829E+03	1.688421E-15	4.587567E-17
1.832669E+03	1.564827E-15	4.180073E-17
1.872510E+03	1.436589E-15	3.771650E-17
1.912351E+03	1.305153E-15	3.366767E-17
1.952191E+03	1.172688E-15	2.971436E-17
1.992032E+03	1.042245E-15	2.593427E-17
2.031873E+03	9.184805E-16	2.243854E-17
2.071713E+03	8.071153E-16	1.935499E-17
2.111554E+03	7.141881E-16	1.680856E-17
2.151394E+03	6.442524E-16	1.487919E-17
2.191235E+03	6.007077E-16	1.361309E-17
2.231076E+03	5.865623E-16	1.304264E-17
2.270916E+03	6.057124E-16	1.321563E-17
2.310757E+03	6.626741E-16	1.418835E-17
2.350598E+03	7.644220E-16	1.606374E-17
2.390438E+03	9.221243E-16	1.902334E-17
2.430279E+03	1.151345E-15	2.332433E-17
2.470120E+03	1.471059E-15	2.927388E-17
2.509960E+03	1.900625E-15	3.716607E-17
2.549801E+03	2.455960E-15	4.720873E-17
2.589641E+03	3.145147E-15	5.944775E-17
2.629482E+03	3.966654E-15	7.374734E-17
2.669323E+03	4.898278E-15	8.960215E-17
2.709163E+03	5.896124E-15	1.061480E-16
2.749004E+03	6.908836E-15	1.224417E-16
2.788845E+03	7.887255E-15	1.376361E-16
2.828685E+03	8.791485E-15	1.510943E-16
2.868526E+03	9.594269E-15	1.624318E-16
2.908367E+03	1.028355E-14	1.715412E-16
2.948207E+03	1.086170E-14	1.785596E-16
2.988048E+03	1.134328E-14	1.838151E-16
2.998008E+03	1.145109E-14	1.849033E-16
3.007968E+03	1.155475E-14	1.859174E-16
3.017928E+03	1.165466E-14	1.868648E-16
3.027888E+03	1.175150E-14	1.877572E-16
3.037849E+03	1.184552E-14	1.885991E-16
3.047809E+03	1.193719E-14	1.893989E-16
3.057769E+03	1.202768E-14	1.901752E-16
3.067729E+03	1.211692E-14	1.909277E-16
3.077689E+03	1.220590E-14	1.916720E-16
3.087649E+03	1.229485E-14	1.924121E-16
3.097610E+03	1.238426E-14	1.931555E-16
3.107570E+03	1.247513E-14	1.939178E-16
3.117530E+03	1.256746E-14	1.946987E-16
3.127490E+03	1.266204E-14	1.955099E-16
3.137450E+03	1.275937E-14	1.963590E-16
3.147410E+03	1.286024E-14	1.972573E-16
3.157371E+03	1.296493E-14	1.982087E-16
3.167331E+03	1.307423E-14	1.992246E-16
3.177291E+03	1.318868E-14	2.003125E-16
3.187251E+03	1.330860E-14	2.014764E-16
3.197211E+03	1.343478E-14	2.027272E-16
3.207171E+03	1.356801E-14	2.040762E-16
3.217131E+03	1.370839E-14	2.055235E-16
3.227092E+03	1.385696E-14	2.070838E-16
3.237052E+03	1.401380E-14	2.087572E-16
3.247012E+03	1.418022E-14	2.105617E-16
3.256972E+03	1.435607E-14	2.124939E-16
3.266932E+03	1.454216E-14	2.145646E-16
3.276892E+03	1.473932E-14	2.167842E-16
3.286853E+03	1.494788E-14	2.191563E-16
3.296813E+03	1.516867E-14	2.216916E-16
3.306773E+03	1.540182E-14	2.243901E-16
3.316733E+03	1.564818E-14	2.272627E-16
3.326693E+03	1.590837E-14	2.303164E-16
3.336653E+03	1.618304E-14	2.335592E-16
3.346614E+03	1.647290E-14	2.369993E-16
3.356574E+03	1.677851E-14	2.406427E-16
3.366534E+03	1.710075E-14	2.445001E-16
3.376494E+03	1.744069E-14	2.485846E-16
3.386454E+03	1.779960E-14	2.529123E-16
3.396414E+03	1.817880E-14	2.574993E-16
3.406375E+03	1.858021E-14	2.623704E-16
3.416335E+03	1.900611E-14	2.675552E-16
3.426295E+03	1.945896E-14	2.730850E-16
3.436255E+03	1.994171E-14	2.789980E-16
3.446215E+03	2.045736E-14	2.853324E-16
3.456175E+03	2.100777E-14	2.921103E-16
3.466135E+03	2.159301E-14	2.993286E-16
3.476096E+03	2.220763E-14	3.069079E-16
3.486056E+03	2.284221E-14	3.147152E-16
3.496016E+03	2.348534E-14	3.225917E-16
3.505976E+03	2.412350E-14	3.303519E-16
3.515936E+03	2.474254E-14	3.378033E-16
3.525896E+03	2.532717E-14	3.447404E-16
3.535857E+03	2.586156E-14	3.509522E-16
3.545817E+03	2.632968E-14	3.562280E-16
3.555777E+03	2.671567E-14	3.603615E-16
3.565737E+03	2.700391E-14	3.631524E-16
3.575697E+03	2.718055E-14	3.644265E-16
3.585657E+03	2.723304E-14	3.640291E-16
3.595618E+03	2.715233E-14	3.618542E-16
3.605578E+03	2.693258E-14	3.578399E-16
3.615538E+03	2.657445E-14	3.520114E-16
3.625498E+03	2.608368E-14	3.444604E-16
3.635458E+03	2.547416E-14	3.353858E-16
3.645418E+03	2.476587E-14	3.250635E-16
3.655378E+03	2.398483E-14	3.138457E-16
3.665339E+03	2.316026E-14	3.021223E-16
3.675299E+03	2.232415E-14	2.903141E-16
3.685259E+03	2.150813E-14	2.788326E-16
3.695219E+03	2.074285E-14	2.680713E-16
3.705179E+03	2.005590E-14	2.583795E-16
3.715139E+03	1.947223E-14	2.500681E-16
3.725100E+03	1.901280E-14	2.433928E-16
3.735060E+03	1.869653E-14	2.385799E-16
3.745020E+03	1.853987E-14	2.358209E-16
3.754980E+03	1.855798E-14	2.352884E-16
3.764940E+03	1.876489E-14	2.371381E-16
3.774900E+03	1.917404E-14	2.415159E-16
3.784861E+03	1.979710E-14	2.485428E-16
3.794821E+03	2.064433E-14	2.583205E-16
3.804781E+03	2.172253E-14	2.709053E-16
3.814741E+03	2.303332E-14	2.862881E-16
3.824701E+03	2.457086E-14	3.043669E-16
3.834661E+03	2.631931E-14	3.249170E-16
3.844622E+03	2.825140E-14	3.475758E-16
3.854582E+03	3.032585E-14	3.718132E-16
3.864542E+03	3.248754E-14	3.969372E-16
3.874502E+03	3.467036E-14	4.221312E-16
3.884462E+03	3.680111E-14	4.465040E-16
3.894422E+03	3.880700E-14	4.691820E-16
3.904382E+03	4.062238E-14	4.893901E-16
3.914343E+03	4.219657E-14	5.065444E-16
3.924303E+03	4.349579E-14	5.202723E-16
3.934263E+03	4.450731E-14	5.304576E-16
3.944223E+03	4.523685E-14	5.372061E-16
3.954183E+03	4.570796E-14	5.408333E-16
3.964143E+03	4.595876E-14	5.418229E-16
3.974104E+03	4.603516E-14	5.407433E-16
3.984064E+03	4.598742E-14	5.382061E-16
3.994024E+03	4.586417E-14	5.347953E-16
4.003984E+03	4.570899E-14	5.310279E-16
4.013944E+03	4.555648E-14	5.273092E-16
4.023904E+03	4.543045E-14	5.239147E-16
4.033865E+03	4.534378E-14	5.209900E-16
4.043825E+03	4.529831E-14	5.185522E-16
4.053785E+03	4.528496E-14	5.164938E-16
4.063745E+03	4.528933E-14	5.146481E-16
4.073705E+03	4.529109E-14	5.127842E-16
4.083665E+03	4.527037E-14	5.106796E-16
4.093625E+03	4.520732E-14	5.081153E-16
4.103586E+03	4.508585E-14	5.049175E-16
4.113546E+03	4.489344E-14	5.009552E-16
4.123506E+03	4.462149E-14	4.961425E-16
4.133466E+03	4.426477E-14	4.904320E-16
4.143426E+03	4.382102E-14	4.838100E-16
4.153386E+03	4.329122E-14	4.762982E-16
4.163347E+03	4.267912E-14	4.679484E-16
4.173307E+03	4.199155E-14	4.588452E-16
4.183267E+03	4.123908E-14	4.491123E-16
4.193227E+03	4.043553E-14	4.389071E-16
4.203187E+03	3.959817E-14	4.284218E-16
4.213147E+03	3.874586E-14	4.178631E-16
4.223108E+03	3.789932E-14	4.074549E-16
4.233068E+03	3.707979E-14	3.974237E-16
4.243028E+03	3.630869E-14	3.879954E-16
4.252988E+03	3.560521E-14	3.793688E-16
4.262948E+03	3.498641E-14	3.717187E-16
4.272908E+03	3.446587E-14	3.651806E-16
4.282869E+03	3.405174E-14	3.598321E-16
4.292829E+03	3.374756E-14	3.557013E-16
4.302789E+03	3.355038E-14	3.527488E-16
4.312749E+03	3.345265E-14	3.508875E-16
4.322709E+03	3.344132E-14	3.499738E-16
4.332669E+03	3.350055E-14	3.498353E-16
4.342629E+03	3.361151E-14	3.502697E-16
4.352590E+03	3.375854E-14	3.511096E-16
4.362550E+03	3.393140E-14	3.522453E-16
4.372510E+03	3.412562E-14	3.536280E-16
4.382470E+03	3.434551E-14	3.552998E-16
4.392430E+03	3.460261E-14	3.573776E-16
4.402390E+03	3.491018E-14	3.599953E-16
4.412351E+03	3.527775E-14	3.632476E-16
4.422311E+03	3.571142E-14	3.671935E-16
4.432271E+03	3.621044E-14	3.718219E-16
4.442231E+03	3.676766E-14	3.770558E-16
4.452191E+03	3.736951E-14	3.827533E-16
4.462151E+03	3.799465E-14	3.886935E-16
4.472112E+03	3.861877E-14	3.946264E-16
4.482072E+03	3.921206E-14	4.002469E-16
4.492032E+03	3.974617E-14	4.052660E-16
4.501992E+03	4.019521E-14	4.094208E-16
4.511952E+03	4.053813E-14	4.124983E-16
4.521912E+03	4.075936E-14	4.143423E-16
4.531873E+03	4.084971E-14	4.148616E-16
4.541833E+03	4.080773E-14	4.140436E-16
4.551793E+03	4.063573E-14	4.119140E-16
4.561753E+03	4.034140E-14	4.085527E-16
4.571713E+03	3.993530E-14	4.040685E-16
4.581673E+03	3.942945E-14	3.985844E-16
4.591633E+03	3.883638E-14	3.922285E-16
4.601594E+03	3.816918E-14	3.851339E-16
4.611554E+03	3.744233E-14	3.774476E-16
4.621514E+03	3.667181E-14	3.693312E-16
4.631474E+03	3.587377E-14	3.609476E-16
4.641434E+03	3.506283E-14	3.524440E-16
4.651394E+03	3.425342E-14	3.439651E-16
4.661355E+03	3.345690E-14	3.356242E-16
4.671315E+03	3.268106E-14	3.274987E-16
4.681275E+03	3.193008E-14	3.196292E-16
4.691235E+03	3.120450E-14	3.120200E-16
4.701195E+03	3.050224E-14	3.046494E-16
4.711155E+03	2.981923E-14	2.974755E-16
4.721116E+03	2.915028E-14	2.904462E-16
4.731076E+03	2.849030E-14	2.835104E-16
4.741036E+03	2.783524E-14	2.766274E-16
4.750996E+03	2.718218E-14	2.697686E-16
4.760956E+03	2.652936E-14	2.629166E-16
4.770916E+03	2.587741E-14	2.560783E-16
4.780876E+03	2.522842E-14	2.492748E-16
4.790837E+03	2.458832E-14	2.425650E-16
4.800797E+03	2.396486E-14	2.360256E-16
4.810757E+03	2.336811E-14	2.297557E-16
4.820717E+03	2.280937E-14	2.238652E-16
4.830677E+03	2.230082E-14	2.184727E-16
4.840637E+03	2.185562E-14	2.137046E-16
4.850598E+03	2.148488E-14	2.096666E-16
4.860558E+03	2.119786E-14	2.064450E-16
4.870518E+03	2.100002E-14	2.040886E-16
4.880478E+03	2.089371E-14	2.026148E-16
4.890438E+03	2.087467E-14	2.019770E-16
4.900398E+03	2.093492E-14	2.020924E-16
4.910359E+03	2.106313E-14	2.028467E-16
4.920319E+03	2.124621E-14	2.041093E-16
4.930279E+03	2.146943E-14	2.057350E-16
4.940239E+03	2.171932E-14	2.075920E-16
4.950199E+03	2.198460E-14	2.095705E-16
4.960159E+03	2.225619E-14	2.115830E-16
4.970120E+03	2.252915E-14	2.135819E-16
4.980080E+03	2.280319E-14	2.155644E-16
4.990040E+03	2.308109E-14	2.175565E-16
5.000000E+03	2.336695E-14	2.195966E-16
5.009960E+03	2.366603E-14	2.217334E-16
5.019920E+03	2.398248E-14	2.240047E-16
5.029880E+03	2.431816E-14	2.264265E-16
5.039841E+03	2.467144E-14	2.289825E-16
5.049801E+03	2.503732E-14	2.316249E-16
5.059761E+03	2.540744E-14	2.342762E-16
5.069721E+03	2.576909E-14	2.368197E-16
5.079681E+03	2.610759E-14	2.391224E-16
5.089641E+03	2.640620E-14	2.410343E-16
5.099602E+03	2.664846E-14	2.424105E-16
5.109562E+03	2.681906E-14	2.431184E-16
5.119522E+03	2.690551E-14	2.430534E-16
5.129482E+03	2.689946E-14	2.421491E-16
5.139442E+03	2.679704E-14	2.403813E-16
5.149402E+03	2.659707E-14	2.377497E-16
5.159363E+03	2.630215E-14	2.342882E-16
5.169323E+03	2.591708E-14	2.300497E-16
5.179283E+03	2.544945E-14	2.251109E-16
5.189243E+03	2.490914E-14	2.195678E-16
5.199203E+03	2.430838E-14	2.135357E-16
5.209163E+03	2.366149E-14	2.071460E-16
5.219124E+03	2.298626E-14	2.005590E-16
5.229084E+03	2.230086E-14	1.939355E-16
5.239044E+03	2.162543E-14	1.874516E-16
5.249004E+03	2.097948E-14	1.812749E-16
5.258964E+03	2.038174E-14	1.755646E-16
5.268924E+03	1.984732E-14	1.704467E-16
5.278884E+03	1.938727E-14	1.660109E-16
5.288845E+03	1.900895E-14	1.623146E-16
5.298805E+03	1.871440E-14	1.593697E-16
5.308765E+03	1.850050E-14	1.571444E-16
5.318725E+03	1.835956E-14	1.555688E-16
5.328685E+03	1.828040E-14	1.545448E-16
5.338645E+03	1.824840E-14	1.539466E-16
5.348606E+03	1.824700E-14	1.536336E-16
5.358566E+03	1.826003E-14	1.534697E-16
5.368526E+03	1.827285E-14	1.533328E-16
5.378486E+03	1.827417E-14	1.531298E-16
5.388446E+03	1.825644E-14	1.527992E-16
5.398406E+03	1.821774E-14	1.523266E-16
5.408367E+03	1.816036E-14	1.517324E-16
5.418327E+03	1.809260E-14	1.510865E-16
5.428287E+03	1.802838E-14	1.505051E-16
5.438247E+03	1.798337E-14	1.501174E-16
5.448207E+03	1.796792E-14	1.500084E-16
5.458167E+03	1.798591E-14	1.502094E-16
5.468127E+03	1.803768E-14	1.507225E-16
5.478088E+03	1.812556E-14	1.515666E-16
5.488048E+03	1.825815E-14	1.528134E-16
5.498008E+03	1.844322E-14	1.545288E-16
5.507968E+03	1.868500E-14	1.567488E-16
5.517928E+03	1.897891E-14	1.594368E-16
5.527888E+03	1.931450E-14	1.625062E-16
5.537849E+03	1.967705E-14	1.658347E-16
5.547809E+03	2.004876E-14	1.692731E-16
5.557769E+03	2.040974E-14	1.726535E-16
5.567729E+03	2.074103E-14	1.758143E-16
5.577689E+03	2.102642E-14	1.786159E-16
5.587649E+03	2.125267E-14	1.809427E-16
5.597610E+03	2.140996E-14	1.827066E-16
5.607570E+03	2.149256E-14	1.838536E-16
5.617530E+03	2.149740E-14	1.843519E-16
5.627490E+03	2.142436E-14	1.841940E-16
5.637450E+03	2.127492E-14	1.833865E-16
5.647410E+03	2.105262E-14	1.819533E-16
5.657371E+03	2.076259E-14	1.799326E-16
5.667331E+03	2.041185E-14	1.773792E-16
5.677291E+03	2.000981E-14	1.743693E-16
5.687251E+03	1.956854E-14	1.710034E-16
5.697211E+03	1.910255E-14	1.674047E-16
5.707171E+03	1.862902E-14	1.637209E-16
5.717131E+03	1.816652E-14	1.601143E-16
5.727092E+03	1.773456E-14	1.567572E-16
5.737052E+03	1.735225E-14	1.538207E-16
5.747012E+03	1.703548E-14	1.514489E-16
5.756972E+03	1.679719E-14	1.497618E-16
5.766932E+03	1.664554E-14	1.488379E-16
5.776892E+03	1.658399E-14	1.487145E-16
5.786853E+03	1.661037E-14	1.493786E-16
5.796813E+03	1.671791E-14	1.507756E-16
5.806773E+03	1.689649E-14	1.528200E-16
5.816733E+03	1.713307E-14	1.553988E-16
5.826693E+03	1.741339E-14	1.583864E-16
5.836653E+03	1.772296E-14	1.616536E-16
5.846614E+03	1.804827E-14	1.650790E-16
5.856574E+03	1.837768E-14	1.685569E-16
5.866534E+03	1.869999E-14	1.719844E-16
5.876494E+03	1.900611E-14	1.752769E-16
5.886454E+03	1.928705E-14	1.783499E-16
5.896414E+03	1.953404E-14	1.811204E-16
5.906375E+03	1.973800E-14	1.835014E-16
5.916335E+03	1.988783E-14	1.853862E-16
5.926295E+03	1.997070E-14	1.866511E-16
5.936255E+03	1.997098E-14	1.871447E-16
5.946215E+03	1.987011E-14	1.866871E-16
5.956175E+03	1.964927E-14	1.850935E-16
5.966135E+03	1.929049E-14	1.821860E-16
5.976096E+03	1.877984E-14	1.778229E-16
5.986056E+03	1.811163E-14	1.719393E-16
5.996016E+03	1.729114E-14	1.645743E-16
6.005976E+03	1.633582E-14	1.558834E-16
6.015936E+03	1.527589E-14	1.461460E-16
6.025896E+03	1.415211E-14	1.357455E-16
6.035857E+03	1.300971E-14	1.251121E-16
6.045817E+03	1.189461E-14	1.146870E-16
6.055777E+03	1.084754E-14	1.048658E-16
6.065737E+03	9.901589E-15	9.597393E-17
6.075697E+03	9.079108E-15	8.823616E-17
6.085657E+03	8.393665E-15	8.179385E-17
6.095618E+03	7.851216E-15	7.671558E-17
6.105578E+03	7.452824E-15	7.302286E-17
6.115538E+03	7.196233E-15	7.070491E-17
6.125498E+03	7.078645E-15	6.974576E-17
6.135458E+03	7.097864E-15	7.013535E-17
6.145418E+03	7.251800E-15	7.186491E-17
6.155378E+03	7.539045E-15	7.493260E-17
6.165339E+03	7.957611E-15	7.933113E-17
6.175299E+03	8.503058E-15	8.502894E-17
6.185259E+03	9.166724E-15	9.195220E-17
6.195219E+03	9.934839E-15	9.997515E-17
6.205179E+03	1.078746E-14	1.089085E-16
6.215139E+03	1.169809E-14	1.184946E-16
6.225100E+03	1.263545E-14	1.284240E-16
6.235060E+03	1.356800E-14	1.383806E-16
6.245020E+03	1.446446E-14	1.480465E-16
6.254980E+03	1.529647E-14	1.571297E-16
6.264940E+03	1.604170E-14	1.653958E-16
6.274900E+03	1.668463E-14	1.726768E-16
6.284861E+03	1.721688E-14	1.788762E-16
6.294821E+03	1.763776E-14	1.839759E-16
6.304781E+03	1.795342E-14	1.880285E-16
6.314741E+03	1.817353E-14	1.911230E-16
6.324701E+03	1.831010E-14	1.933740E-16
6.334661E+03	1.837540E-14	1.948996E-16
6.344622E+03	1.838034E-14	1.958060E-16
6.354582E+03	1.833290E-14	1.961691E-16
6.364542E+03	1.823842E-14	1.960378E-16
6.374502E+03	1.810002E-14	1.954379E-16
6.384462E+03	1.791841E-14	1.943694E-16
6.394422E+03	1.769395E-14	1.928284E-16
6.404382E+03	1.742715E-14	1.908129E-16
6.414343E+03	1.711995E-14	1.883361E-16
6.424303E+03	1.677631E-14	1.854343E-16
6.434263E+03	1.640254E-14	1.821703E-16
6.444223E+03	1.600863E-14	1.786495E-16
6.454183E+03	1.560686E-14	1.750052E-16
6.464143E+03	1.521223E-14	1.714038E-16
6.474104E+03	1.484087E-14	1.680281E-16
6.484064E+03	1.450978E-14	1.650741E-16
6.494024E+03	1.423359E-14	1.627148E-16
6.503984E+03	1.402308E-14	1.610824E-16
6.513944E+03	1.387731E-14	1.601759E-16
6.523904E+03	1.378358E-14	1.598584E-16
6.533865E+03	1.372547E-14	1.599466E-16
6.543825E+03	1.368606E-14	1.602475E-16
6.553785E+03	1.365108E-14	1.605959E-16
6.563745E+03	1.360942E-14	1.608609E-16
6.573705E+03	1.355272E-14	1.609412E-16
6.583665E+03	1.347668E-14	1.607828E-16
6.593625E+03	1.337891E-14	1.603535E-16
6.603586E+03	1.326016E-14	1.596579E-16
6.613546E+03	1.312176E-14	1.587086E-16
6.623506E+03	1.296651E-14	1.575358E-16
6.633466E+03	1.279736E-14	1.561727E-16
6.643426E+03	1.261695E-14	1.546490E-16
6.653386E+03	1.242789E-14	1.529949E-16
6.663347E+03	1.223195E-14	1.512306E-16
6.673307E+03	1.203073E-14	1.493750E-16
6.683267E+03	1.182574E-14	1.474458E-16
6.693227E+03	1.161797E-14	1.454549E-16
6.703187E+03	1.140855E-14	1.434159E-16
6.713147E+03	1.119939E-14	1.413528E-16
6.723108E+03	1.099181E-14	1.392826E-16
6.733068E+03	1.078794E-14	1.372324E-16
6.743028E+03	1.058973E-14	1.352280E-16
6.752988E+03	1.039890E-14	1.332923E-16
6.762948E+03	1.021715E-14	1.314484E-16
6.772908E+03	1.004582E-14	1.297150E-16
6.782869E+03	9.886060E-15	1.281088E-16
6.792829E+03	9.738317E-15	1.266372E-16
6.802789E+03	9.602659E-15	1.253029E-16
6.812749E+03	9.479202E-15	1.241092E-16
6.822709E+03	9.367593E-15	1.230533E-16
6.832669E+03	9.267248E-15	1.221289E-16
6.842629E+03	9.177256E-15	1.213257E-16
6.852590E+03	9.096781E-15	1.206340E-16
6.862550E+03	9.025095E-15	1.200453E-16
6.872510E+03	8.961147E-15	1.195467E-16
6.882470E+03	8.904055E-15	1.191274E-16
6.892430E+03	8.852881E-15	1.187756E-16
6.902390E+03	8.806697E-15	1.184796E-16
6.912351E+03	8.764638E-15	1.182283E-16
6.922311E+03	8.725884E-15	1.180111E-16
6.932271E+03	8.689479E-15	1.178154E-16
6.942231E+03	8.654691E-15	1.176316E-16
6.952191E+03	8.621068E-15	1.174537E-16
6.962151E+03	8.588084E-15	1.172747E-16
6.972112E+03	8.554980E-15	1.170843E-16
6.982072E+03	8.521804E-15	1.168832E-16
6.992032E+03	8.488181E-15	1.166664E-16
7.001992E+03	8.453925E-15	1.164312E-16
7.011952E+03	8.418674E-15	1.161728E-16
7.021912E+03	8.382375E-15	1.158905E-16
7.031873E+03	8.344778E-15	1.155807E-16
7.041833E+03	8.305627E-15	1.152399E-16
7.051793E+03	8.264534E-15	1.148629E-16
7.061753E+03	8.221376E-15	1.144478E-16
7.071713E+03	8.176318E-15	1.139969E-16
7.081673E+03	8.129317E-15	1.135098E-16
7.091633E+03	8.080443E-15	1.129874E-16
7.101594E+03	8.030358E-15	1.124390E-16
7.111554E+03	7.979287E-15	1.118680E-16
7.121514E+03	7.927635E-15	1.112801E-16
7.131474E+03	7.875625E-15	1.106787E-16
7.141434E+03	7.823772E-15	1.100712E-16
7.151394E+03	7.772349E-15	1.094617E-16
7.161355E+03	7.721340E-15	1.088501E-16
7.171315E+03	7.670773E-15	1.082370E-16
7.181275E+03	7.620697E-15	1.076235E-16
7.191235E+03	7.570666E-15	1.070035E-16
7.201195E+03	7.520215E-15	1.063705E-16
7.211155E+03	7.468677E-15	1.057154E-16
7.221116E+03	7.415163E-15	1.050257E-16
7.231076E+03	7.358430E-15	1.042841E-16
7.241036E+03	7.297519E-15	1.034771E-16
7.250996E+03	7.230851E-15	1.025825E-16
7.260956E+03	7.156610E-15	1.015746E-16
7.270916E+03	7.073715E-15	1.004383E-16
7.280876E+03	6.980214E-15	9.914590E-17
7.290837E+03	6.875047E-15	9.768261E-17
7.300797E+03	6.756966E-15	9.603083E-17
7.310757E+03	6.625220E-15	9.418014E-17
7.320717E+03	6.479355E-15	9.212429E-17
7.330677E+03	6.319573E-15	8.986642E-17
7.340637E+03	6.146656E-15	8.741801E-17
7.350598E+03	5.961983E-15	8.479900E-17
7.360558E+03	5.767310E-15	8.203473E-17
7.370518E+03	5.565422E-15	7.916523E-17
7.380478E+03	5.359283E-15	7.623303E-17
7.390438E+03	5.152481E-15	7.328957E-17
7.400398E+03	4.949014E-15	7.039208E-17
7.410359E+03	4.753236E-15	6.760284E-17
7.420319E+03	4.569298E-15	6.498118E-17
7.430279E+03	4.401317E-15	6.258588E-17
7.440239E+03	4.252960E-15	6.046926E-17
7.450199E+03	4.127003E-15	5.867092E-17
7.460159E+03	4.025756E-15	5.722380E-17
7.470120E+03	3.950991E-15	5.615311E-17
7.480080E+03	3.903479E-15	5.546980E-17
7.490040E+03	3.883649E-15	5.517997E-17
7.500000E+03	3.891160E-15	5.527875E-17
7.509960E+03	3.925158E-15	5.575399E-17
7.519920E+03	3.984280E-15	5.658633E-17
7.529880E+03	4.066693E-15	5.774978E-17
7.539841E+03	4.170276E-15	5.921422E-17
7.549801E+03	4.292390E-15	6.094233E-17
7.559761E+03	4.430263E-15	6.289489E-17
7.569721E+03	4.580599E-15	6.502532E-17
7.579681E+03	4.739990E-15	6.728550E-17
7.589641E+03	4.904683E-15	6.962248E-17
7.599602E+03	5.070683E-15	7.197991E-17
7.609562E+03	5.234394E-15	7.430713E-17
7.619522E+03	5.392753E-15	7.656109E-17
7.629482E+03	5.543150E-15	7.870513E-17
7.639442E+03	5.683615E-15	8.071171E-17
7.649402E+03	5.812413E-15	8.255659E-17
7.659363E+03	5.928897E-15	8.423097E-17
7.669323E+03	6.032646E-15	8.572920E-17
7.679283E+03	6.124306E-15	8.706079E-17
7.689243E+03	6.204807E-15	8.823926E-17
7.699203E+03	6.275891E-15	8.928969E-17
7.709163E+03	6.339331E-15	9.023757E-17
7.719124E+03	6.396730E-15	9.110605E-17
7.729084E+03	6.449214E-15	9.191146E-17
