#wls	flux	fluxerr
1.593625E+03	1.331589E-15	7.412531E-17
1.633466E+03	1.225748E-15	6.694076E-17
1.673307E+03	1.119561E-15	5.995329E-17
1.713147E+03	1.014209E-15	5.322929E-17
1.752988E+03	9.112998E-16	4.685165E-17
1.792829E+03	8.121990E-16	4.088375E-17
1.832669E+03	7.181808E-16	3.537804E-17
1.872510E+03	6.303848E-16	3.037450E-17
1.912351E+03	5.497163E-16	2.589664E-17
1.952191E+03	4.770051E-16	2.196020E-17
1.992032E+03	4.128477E-16	1.856650E-17
2.031873E+03	3.576335E-16	1.570499E-17
2.071713E+03	3.116918E-16	1.336086E-17
2.111554E+03	2.754844E-16	1.152357E-17
2.151394E+03	2.495124E-16	1.018264E-17
2.191235E+03	2.341174E-16	9.319800E-18
2.231076E+03	2.297926E-16	8.922269E-18
2.270916E+03	2.374125E-16	8.991052E-18
2.310757E+03	2.580363E-16	9.532391E-18
2.350598E+03	2.932583E-16	1.057014E-17
2.390438E+03	3.457569E-16	1.216308E-17
2.430279E+03	4.194860E-16	1.440746E-17
2.470120E+03	5.191671E-16	1.741607E-17
2.509960E+03	6.499936E-16	2.130566E-17
2.549801E+03	8.165551E-16	2.616117E-17
2.589641E+03	1.021938E-15	3.201063E-17
2.629482E+03	1.266175E-15	3.878298E-17
2.669323E+03	1.545682E-15	4.630114E-17
2.709163E+03	1.852845E-15	5.428097E-17
2.749004E+03	2.176428E-15	6.235493E-17
2.788845E+03	2.502323E-15	7.010349E-17
2.828685E+03	2.816052E-15	7.713178E-17
2.868526E+03	3.104179E-15	8.310786E-17
2.908367E+03	3.357165E-15	8.783418E-17
2.948207E+03	3.570260E-15	9.125859E-17
2.988048E+03	3.744256E-15	9.347906E-17
2.998008E+03	3.782258E-15	9.387030E-17
3.007968E+03	3.818164E-15	9.420078E-17
3.017928E+03	3.852176E-15	9.447650E-17
3.027888E+03	3.884503E-15	9.470354E-17
3.037849E+03	3.915269E-15	9.488584E-17
3.047809E+03	3.944617E-15	9.502768E-17
3.057769E+03	3.972943E-15	9.513934E-17
3.067729E+03	4.000281E-15	9.522232E-17
3.077689E+03	4.026785E-15	9.528085E-17
3.087649E+03	4.052814E-15	9.532398E-17
3.097610E+03	4.078536E-15	9.535606E-17
3.107570E+03	4.104227E-15	9.538390E-17
3.117530E+03	4.129880E-15	9.540761E-17
3.127490E+03	4.156077E-15	9.544085E-17
3.137450E+03	4.182831E-15	9.548398E-17
3.147410E+03	4.210452E-15	9.554412E-17
3.157371E+03	4.239257E-15	9.562841E-17
3.167331E+03	4.269476E-15	9.574186E-17
3.177291E+03	4.301445E-15	9.589177E-17
3.187251E+03	4.335414E-15	9.608337E-17
3.197211E+03	4.371735E-15	9.632393E-17
3.207171E+03	4.410682E-15	9.661873E-17
3.217131E+03	4.452631E-15	9.697521E-17
3.227092E+03	4.497885E-15	9.739902E-17
3.237052E+03	4.546767E-15	9.789617E-17
3.247012E+03	4.599704E-15	9.847474E-17
3.256972E+03	4.657056E-15	9.914125E-17
3.266932E+03	4.719295E-15	9.990447E-17
3.276892E+03	4.786827E-15	1.007716E-16
3.286853E+03	4.860088E-15	1.017503E-16
3.296813E+03	4.939537E-15	1.028487E-16
3.306773E+03	5.025745E-15	1.040770E-16
3.316733E+03	5.119217E-15	1.054439E-16
3.326693E+03	5.220463E-15	1.069580E-16
3.336653E+03	5.329976E-15	1.086276E-16
3.346614E+03	5.448093E-15	1.104577E-16
3.356574E+03	5.575191E-15	1.124538E-16
3.366534E+03	5.711284E-15	1.146146E-16
3.376494E+03	5.856325E-15	1.169371E-16
3.386454E+03	6.009827E-15	1.194103E-16
3.396414E+03	6.170917E-15	1.220154E-16
3.406375E+03	6.338748E-15	1.247349E-16
3.416335E+03	6.511688E-15	1.275363E-16
3.426295E+03	6.688016E-15	1.303860E-16
3.436255E+03	6.865594E-15	1.332432E-16
3.446215E+03	7.041901E-15	1.360602E-16
3.456175E+03	7.213730E-15	1.387773E-16
3.466135E+03	7.378398E-15	1.413459E-16
3.476096E+03	7.535365E-15	1.437590E-16
3.486056E+03	7.684917E-15	1.460253E-16
3.496016E+03	7.827300E-15	1.481528E-16
3.505976E+03	7.962884E-15	1.501515E-16
3.515936E+03	8.091745E-15	1.520259E-16
3.525896E+03	8.213676E-15	1.537749E-16
3.535857E+03	8.328724E-15	1.554022E-16
3.545817E+03	8.436762E-15	1.569076E-16
3.555777E+03	8.537627E-15	1.582893E-16
3.565737E+03	8.631219E-15	1.595463E-16
3.575697E+03	8.717180E-15	1.606727E-16
3.585657E+03	8.795541E-15	1.616696E-16
3.595618E+03	8.865884E-15	1.625299E-16
3.605578E+03	8.927572E-15	1.632423E-16
3.615538E+03	8.979917E-15	1.637945E-16
3.625498E+03	9.022422E-15	1.641779E-16
3.635458E+03	9.054829E-15	1.643880E-16
3.645418E+03	9.077313E-15	1.644283E-16
3.655378E+03	9.090691E-15	1.643136E-16
3.665339E+03	9.096638E-15	1.640741E-16
3.675299E+03	9.097400E-15	1.637499E-16
3.685259E+03	9.096383E-15	1.634018E-16
3.695219E+03	9.098207E-15	1.631116E-16
3.705179E+03	9.108495E-15	1.629786E-16
3.715139E+03	9.133305E-15	1.631090E-16
3.725100E+03	9.179581E-15	1.636243E-16
3.735060E+03	9.254541E-15	1.646497E-16
3.745020E+03	9.365830E-15	1.663172E-16
3.754980E+03	9.521323E-15	1.687619E-16
3.764940E+03	9.729004E-15	1.721197E-16
3.774900E+03	9.997142E-15	1.765307E-16
3.784861E+03	1.033321E-14	1.821195E-16
3.794821E+03	1.074455E-14	1.890075E-16
3.804781E+03	1.123768E-14	1.973004E-16
3.814741E+03	1.181614E-14	2.070504E-16
3.824701E+03	1.248143E-14	2.182738E-16
3.834661E+03	1.323151E-14	2.309239E-16
3.844622E+03	1.405688E-14	2.448245E-16
3.854582E+03	1.494203E-14	2.596957E-16
3.864542E+03	1.586658E-14	2.751750E-16
3.874502E+03	1.680654E-14	2.908406E-16
3.884462E+03	1.773425E-14	3.062101E-16
3.894422E+03	1.862013E-14	3.207731E-16
3.904382E+03	1.943840E-14	3.340887E-16
3.914343E+03	2.016534E-14	3.457558E-16
3.924303E+03	2.078154E-14	3.554517E-16
3.934263E+03	2.127550E-14	3.629923E-16
3.944223E+03	2.164168E-14	3.682975E-16
3.954183E+03	2.188128E-14	3.714036E-16
3.964143E+03	2.200407E-14	3.724921E-16
3.974104E+03	2.202505E-14	3.718323E-16
3.984064E+03	2.196228E-14	3.697425E-16
3.994024E+03	2.183690E-14	3.665899E-16
4.003984E+03	2.167062E-14	3.627481E-16
4.013944E+03	2.148299E-14	3.585502E-16
4.023904E+03	2.128855E-14	3.542426E-16
4.033865E+03	2.109903E-14	3.500224E-16
4.043825E+03	2.092352E-14	3.460403E-16
4.053785E+03	2.076728E-14	3.423825E-16
4.063745E+03	2.063424E-14	3.391123E-16
4.073705E+03	2.052710E-14	3.362717E-16
4.083665E+03	2.044889E-14	3.339078E-16
4.093625E+03	2.040212E-14	3.320586E-16
4.103586E+03	2.038866E-14	3.307511E-16
4.113546E+03	2.041011E-14	3.300076E-16
4.123506E+03	2.046668E-14	3.298279E-16
4.133466E+03	2.055649E-14	3.301784E-16
4.143426E+03	2.067279E-14	3.309477E-16
4.153386E+03	2.080606E-14	3.319824E-16
4.163347E+03	2.094540E-14	3.331086E-16
4.173307E+03	2.107867E-14	3.341361E-16
4.183267E+03	2.119279E-14	3.348618E-16
4.193227E+03	2.127611E-14	3.351081E-16
4.203187E+03	2.132039E-14	3.347536E-16
4.213147E+03	2.131983E-14	3.337163E-16
4.223108E+03	2.127008E-14	3.319378E-16
4.233068E+03	2.117195E-14	3.294407E-16
4.243028E+03	2.102746E-14	3.262654E-16
4.252988E+03	2.083960E-14	3.224671E-16
4.262948E+03	2.061294E-14	3.181240E-16
4.272908E+03	2.035239E-14	3.133181E-16
4.282869E+03	2.006182E-14	3.081147E-16
4.292829E+03	1.974370E-14	3.025559E-16
4.302789E+03	1.940004E-14	2.966763E-16
4.312749E+03	1.903202E-14	2.904967E-16
4.322709E+03	1.864012E-14	2.840265E-16
4.332669E+03	1.822623E-14	2.772960E-16
4.342629E+03	1.779488E-14	2.703745E-16
4.352590E+03	1.735747E-14	2.634345E-16
4.362550E+03	1.694035E-14	2.568721E-16
4.372510E+03	1.657255E-14	2.511204E-16
4.382470E+03	1.627644E-14	2.465107E-16
4.392430E+03	1.607113E-14	2.433260E-16
4.402390E+03	1.597092E-14	2.417776E-16
4.412351E+03	1.598211E-14	2.419571E-16
4.422311E+03	1.610807E-14	2.439136E-16
4.432271E+03	1.635046E-14	2.476719E-16
4.442231E+03	1.670717E-14	2.532012E-16
4.452191E+03	1.717440E-14	2.604463E-16
4.462151E+03	1.774717E-14	2.693352E-16
4.472112E+03	1.841783E-14	2.797560E-16
4.482072E+03	1.917697E-14	2.915704E-16
4.492032E+03	2.001201E-14	3.045916E-16
4.501992E+03	2.090673E-14	3.185774E-16
4.511952E+03	2.184118E-14	3.332269E-16
4.521912E+03	2.279129E-14	3.481756E-16
4.531873E+03	2.373082E-14	3.630227E-16
4.541833E+03	2.462993E-14	3.773107E-16
4.551793E+03	2.545749E-14	3.905585E-16
4.561753E+03	2.618387E-14	4.023051E-16
4.571713E+03	2.678136E-14	4.121154E-16
4.581673E+03	2.722451E-14	4.195866E-16
4.591633E+03	2.749744E-14	4.244602E-16
4.601594E+03	2.758938E-14	4.265551E-16
4.611554E+03	2.749796E-14	4.258187E-16
4.621514E+03	2.723350E-14	4.223959E-16
4.631474E+03	2.681313E-14	4.165374E-16
4.641434E+03	2.625902E-14	4.085749E-16
4.651394E+03	2.560136E-14	3.989676E-16
4.661355E+03	2.487085E-14	3.881858E-16
4.671315E+03	2.409754E-14	3.766932E-16
4.681275E+03	2.330712E-14	3.648881E-16
4.691235E+03	2.252281E-14	3.531333E-16
4.701195E+03	2.176318E-14	3.417207E-16
4.711155E+03	2.104151E-14	3.308609E-16
4.721116E+03	2.036736E-14	3.207074E-16
4.731076E+03	1.974688E-14	3.113608E-16
4.741036E+03	1.918104E-14	3.028403E-16
4.750996E+03	1.866860E-14	2.951300E-16
4.760956E+03	1.820724E-14	2.881962E-16
4.770916E+03	1.779291E-14	2.819773E-16
4.780876E+03	1.742156E-14	2.764112E-16
4.790837E+03	1.709042E-14	2.714558E-16
4.800797E+03	1.679742E-14	2.670800E-16
4.810757E+03	1.654093E-14	2.632599E-16
4.820717E+03	1.631950E-14	2.599736E-16
4.830677E+03	1.613277E-14	2.572168E-16
4.840637E+03	1.598024E-14	2.549828E-16
4.850598E+03	1.586143E-14	2.532652E-16
4.860558E+03	1.577525E-14	2.520475E-16
4.870518E+03	1.571978E-14	2.512998E-16
4.880478E+03	1.569156E-14	2.509675E-16
4.890438E+03	1.568327E-14	2.509339E-16
4.900398E+03	1.568634E-14	2.510619E-16
4.910359E+03	1.569135E-14	2.512011E-16
4.920319E+03	1.569021E-14	2.512216E-16
4.930279E+03	1.567549E-14	2.510044E-16
4.940239E+03	1.564198E-14	2.504667E-16
4.950199E+03	1.558995E-14	2.496130E-16
4.960159E+03	1.552210E-14	2.484870E-16
4.970120E+03	1.544356E-14	2.471718E-16
4.980080E+03	1.536236E-14	2.457967E-16
4.990040E+03	1.528801E-14	2.445147E-16
5.000000E+03	1.522954E-14	2.434713E-16
5.009960E+03	1.519518E-14	2.427985E-16
5.019920E+03	1.519225E-14	2.426136E-16
5.029880E+03	1.522657E-14	2.430096E-16
5.039841E+03	1.530164E-14	2.440423E-16
5.049801E+03	1.541951E-14	2.457442E-16
5.059761E+03	1.558117E-14	2.481303E-16
5.069721E+03	1.578652E-14	2.511989E-16
5.079681E+03	1.603435E-14	2.549302E-16
5.089641E+03	1.632313E-14	2.592996E-16
5.099602E+03	1.665072E-14	2.642728E-16
5.109562E+03	1.701457E-14	2.698096E-16
5.119522E+03	1.741050E-14	2.758444E-16
5.129482E+03	1.783343E-14	2.822976E-16
5.139442E+03	1.827606E-14	2.890551E-16
5.149402E+03	1.872995E-14	2.959858E-16
5.159363E+03	1.918343E-14	3.029086E-16
5.169323E+03	1.962344E-14	3.096208E-16
5.179283E+03	2.003521E-14	3.158941E-16
5.189243E+03	2.040394E-14	3.215008E-16
5.199203E+03	2.071437E-14	3.262065E-16
5.209163E+03	2.095225E-14	3.297930E-16
5.219124E+03	2.110884E-14	3.321293E-16
5.229084E+03	2.117779E-14	3.331214E-16
5.239044E+03	2.115663E-14	3.327360E-16
5.249004E+03	2.105148E-14	3.310738E-16
5.258964E+03	2.087175E-14	3.282861E-16
5.268924E+03	2.062921E-14	3.245605E-16
5.278884E+03	2.033939E-14	3.201427E-16
5.288845E+03	2.001884E-14	3.152940E-16
5.298805E+03	1.968172E-14	3.102378E-16
5.308765E+03	1.934009E-14	3.051643E-16
5.318725E+03	1.900323E-14	3.002205E-16
5.328685E+03	1.867779E-14	2.955117E-16
5.338645E+03	1.836601E-14	2.910744E-16
5.348606E+03	1.806817E-14	2.869139E-16
5.358566E+03	1.778238E-14	2.830011E-16
5.368526E+03	1.750539E-14	2.792848E-16
5.378486E+03	1.723306E-14	2.756990E-16
5.388446E+03	1.696152E-14	2.721775E-16
5.398406E+03	1.668877E-14	2.686829E-16
5.408367E+03	1.641357E-14	2.651892E-16
5.418327E+03	1.613476E-14	2.616715E-16
5.428287E+03	1.585392E-14	2.581493E-16
5.438247E+03	1.557281E-14	2.546452E-16
5.448207E+03	1.529401E-14	2.511963E-16
5.458167E+03	1.502338E-14	2.478943E-16
5.468127E+03	1.476725E-14	2.448410E-16
5.478088E+03	1.453019E-14	2.421113E-16
5.488048E+03	1.431557E-14	2.397619E-16
5.498008E+03	1.412542E-14	2.378286E-16
5.507968E+03	1.395937E-14	2.363081E-16
5.517928E+03	1.381407E-14	2.351465E-16
5.527888E+03	1.368456E-14	2.342615E-16
5.537849E+03	1.356502E-14	2.335549E-16
5.547809E+03	1.344833E-14	2.329035E-16
5.557769E+03	1.332740E-14	2.321819E-16
5.567729E+03	1.319606E-14	2.312785E-16
5.577689E+03	1.305019E-14	2.301145E-16
5.587649E+03	1.288662E-14	2.286271E-16
5.597610E+03	1.270440E-14	2.267910E-16
5.607570E+03	1.250481E-14	2.246207E-16
5.617530E+03	1.229084E-14	2.221622E-16
5.627490E+03	1.206675E-14	2.194862E-16
5.637450E+03	1.183791E-14	2.166853E-16
5.647410E+03	1.161055E-14	2.138706E-16
5.657371E+03	1.139078E-14	2.111544E-16
5.667331E+03	1.118516E-14	2.086601E-16
5.677291E+03	1.100018E-14	2.065128E-16
5.687251E+03	1.084178E-14	2.048310E-16
5.697211E+03	1.071533E-14	2.037252E-16
5.707171E+03	1.062592E-14	2.033033E-16
5.717131E+03	1.057822E-14	2.036675E-16
5.727092E+03	1.057569E-14	2.048995E-16
5.737052E+03	1.062155E-14	2.070775E-16
5.747012E+03	1.071815E-14	2.102652E-16
5.756972E+03	1.086595E-14	2.144892E-16
5.766932E+03	1.106464E-14	2.197620E-16
5.776892E+03	1.131254E-14	2.260682E-16
5.786853E+03	1.160532E-14	2.333382E-16
5.796813E+03	1.193676E-14	2.414628E-16
5.806773E+03	1.229902E-14	2.502961E-16
5.816733E+03	1.268216E-14	2.596455E-16
5.826693E+03	1.307452E-14	2.692785E-16
5.836653E+03	1.346297E-14	2.789259E-16
5.846614E+03	1.383466E-14	2.883182E-16
5.856574E+03	1.417618E-14	2.971683E-16
5.866534E+03	1.447436E-14	3.051869E-16
5.876494E+03	1.471827E-14	3.121261E-16
5.886454E+03	1.489783E-14	3.177514E-16
5.896414E+03	1.500553E-14	3.218777E-16
5.906375E+03	1.503626E-14	3.243689E-16
5.916335E+03	1.498716E-14	3.251345E-16
5.926295E+03	1.485805E-14	3.241419E-16
5.936255E+03	1.465025E-14	3.213908E-16
5.946215E+03	1.436739E-14	3.169329E-16
5.956175E+03	1.401463E-14	3.108559E-16
5.966135E+03	1.359823E-14	3.032735E-16
5.976096E+03	1.312567E-14	2.943310E-16
5.986056E+03	1.260564E-14	2.842037E-16
5.996016E+03	1.204817E-14	2.731023E-16
6.005976E+03	1.146364E-14	2.612498E-16
6.015936E+03	1.086357E-14	2.489001E-16
6.025896E+03	1.026053E-14	2.363373E-16
6.035857E+03	9.666719E-15	2.238427E-16
6.045817E+03	9.093804E-15	2.116914E-16
6.055777E+03	8.553371E-15	2.001621E-16
6.065737E+03	8.055084E-15	1.894939E-16
6.075697E+03	7.607075E-15	1.798945E-16
6.085657E+03	7.215663E-15	1.715327E-16
6.095618E+03	6.885800E-15	1.645476E-16
6.105578E+03	6.620421E-15	1.590325E-16
6.115538E+03	6.420971E-15	1.550465E-16
6.125498E+03	6.288228E-15	1.526331E-16
6.135458E+03	6.222650E-15	1.518287E-16
6.145418E+03	6.223254E-15	1.526349E-16
6.155378E+03	6.289103E-15	1.550536E-16
6.165339E+03	6.418757E-15	1.590739E-16
6.175299E+03	6.609242E-15	1.646463E-16
6.185259E+03	6.856672E-15	1.716969E-16
6.195219E+03	7.155997E-15	1.801205E-16
6.205179E+03	7.499821E-15	1.897504E-16
6.215139E+03	7.879524E-15	2.003845E-16
6.225100E+03	8.285286E-15	2.117860E-16
6.235060E+03	8.708041E-15	2.237319E-16
6.245020E+03	9.138915E-15	2.359996E-16
6.254980E+03	9.568620E-15	2.483510E-16
6.264940E+03	9.988772E-15	2.605667E-16
6.274900E+03	1.039085E-14	2.724191E-16
6.284861E+03	1.076748E-14	2.837062E-16
6.294821E+03	1.111228E-14	2.942487E-16
6.304781E+03	1.142037E-14	3.039032E-16
6.314741E+03	1.168826E-14	3.125611E-16
6.324701E+03	1.191395E-14	3.201524E-16
6.334661E+03	1.209691E-14	3.266454E-16
6.344622E+03	1.223773E-14	3.320387E-16
6.354582E+03	1.233795E-14	3.363570E-16
6.364542E+03	1.239986E-14	3.396468E-16
6.374502E+03	1.242676E-14	3.419833E-16
6.384462E+03	1.242170E-14	3.434366E-16
6.394422E+03	1.238801E-14	3.440864E-16
6.404382E+03	1.232890E-14	3.440113E-16
6.414343E+03	1.224741E-14	3.432859E-16
6.424303E+03	1.214644E-14	3.419833E-16
6.434263E+03	1.202825E-14	3.401598E-16
6.444223E+03	1.189515E-14	3.378745E-16
6.454183E+03	1.174878E-14	3.351682E-16
6.464143E+03	1.159058E-14	3.320777E-16
6.474104E+03	1.142195E-14	3.286384E-16
6.484064E+03	1.124392E-14	3.248769E-16
6.494024E+03	1.105709E-14	3.208070E-16
6.503984E+03	1.086230E-14	3.164503E-16
6.513944E+03	1.065994E-14	3.118154E-16
6.523904E+03	1.045021E-14	3.069064E-16
6.533865E+03	1.023298E-14	3.017165E-16
6.543825E+03	1.000895E-14	2.962650E-16
6.553785E+03	9.778459E-15	2.905596E-16
6.563745E+03	9.542493E-15	2.846283E-16
6.573705E+03	9.302048E-15	2.784995E-16
6.583665E+03	9.058495E-15	2.722135E-16
6.593625E+03	8.813403E-15	2.658175E-16
6.603586E+03	8.568212E-15	2.593550E-16
6.613546E+03	8.324457E-15	2.528735E-16
6.623506E+03	8.083913E-15	2.464282E-16
6.633466E+03	7.847822E-15	2.400590E-16
6.643426E+03	7.617659E-15	2.338132E-16
6.653386E+03	7.394840E-15	2.277371E-16
6.663347E+03	7.180203E-15	2.218597E-16
6.673307E+03	6.974847E-15	2.162181E-16
6.683267E+03	6.779291E-15	2.108320E-16
6.693227E+03	6.594178E-15	2.057252E-16
6.703187E+03	6.419804E-15	2.009106E-16
6.713147E+03	6.256361E-15	1.963981E-16
6.723108E+03	6.103736E-15	1.921877E-16
6.733068E+03	5.961955E-15	1.882841E-16
6.743028E+03	5.830593E-15	1.846772E-16
6.752988E+03	5.709398E-15	1.813625E-16
6.762948E+03	5.598012E-15	1.783319E-16
6.772908E+03	5.495813E-15	1.755687E-16
6.782869E+03	5.402406E-15	1.730629E-16
6.792829E+03	5.317234E-15	1.707995E-16
6.802789E+03	5.239834E-15	1.687661E-16
6.812749E+03	5.169682E-15	1.669480E-16
6.822709E+03	5.106205E-15	1.653290E-16
6.832669E+03	5.048948E-15	1.638962E-16
6.842629E+03	4.997387E-15	1.626344E-16
6.852590E+03	4.951027E-15	1.615291E-16
6.862550E+03	4.909239E-15	1.605613E-16
6.872510E+03	4.871690E-15	1.597215E-16
6.882470E+03	4.837734E-15	1.589896E-16
6.892430E+03	4.806971E-15	1.583536E-16
6.902390E+03	4.778964E-15	1.577999E-16
6.912351E+03	4.753331E-15	1.573169E-16
6.922311E+03	4.729671E-15	1.568919E-16
6.932271E+03	4.707637E-15	1.565141E-16
6.942231E+03	4.686940E-15	1.561745E-16
6.952191E+03	4.667363E-15	1.558662E-16
6.962151E+03	4.648478E-15	1.555756E-16
6.972112E+03	4.630259E-15	1.553020E-16
6.982072E+03	4.612402E-15	1.550356E-16
6.992032E+03	4.594736E-15	1.547710E-16
7.001992E+03	4.577141E-15	1.545044E-16
7.011952E+03	4.559562E-15	1.542342E-16
7.021912E+03	4.541811E-15	1.539541E-16
7.031873E+03	4.523914E-15	1.536654E-16
7.041833E+03	4.505682E-15	1.533618E-16
7.051793E+03	4.487135E-15	1.530441E-16
7.061753E+03	4.468156E-15	1.527086E-16
7.071713E+03	4.448762E-15	1.523559E-16
7.081673E+03	4.428925E-15	1.519853E-16
7.091633E+03	4.408653E-15	1.515972E-16
7.101594E+03	4.387927E-15	1.511911E-16
7.111554E+03	4.366661E-15	1.507642E-16
7.121514E+03	4.345049E-15	1.503233E-16
7.131474E+03	4.322967E-15	1.498643E-16
7.141434E+03	4.300358E-15	1.493855E-16
7.151394E+03	4.277134E-15	1.488837E-16
7.161355E+03	4.253213E-15	1.483564E-16
7.171315E+03	4.228378E-15	1.477960E-16
7.181275E+03	4.202282E-15	1.471904E-16
7.191235E+03	4.174656E-15	1.465301E-16
7.201195E+03	4.145027E-15	1.457984E-16
7.211155E+03	4.113165E-15	1.449869E-16
7.221116E+03	4.078422E-15	1.440725E-16
7.231076E+03	4.040501E-15	1.430441E-16
7.241036E+03	3.998781E-15	1.418792E-16
7.250996E+03	3.952959E-15	1.405663E-16
7.260956E+03	3.902526E-15	1.390863E-16
7.270916E+03	3.847137E-15	1.374260E-16
7.280876E+03	3.786510E-15	1.355741E-16
7.290837E+03	3.720492E-15	1.335239E-16
7.300797E+03	3.649092E-15	1.312743E-16
7.310757E+03	3.572391E-15	1.288268E-16
7.320717E+03	3.490743E-15	1.261928E-16
7.330677E+03	3.404697E-15	1.233906E-16
7.340637E+03	3.314968E-15	1.204448E-16
7.350598E+03	3.222215E-15	1.173783E-16
7.360558E+03	3.127613E-15	1.142328E-16
7.370518E+03	3.032066E-15	1.110406E-16
7.380478E+03	2.936779E-15	1.078452E-16
7.390438E+03	2.842939E-15	1.046901E-16
7.400398E+03	2.751828E-15	1.016227E-16
7.410359E+03	2.664648E-15	9.868798E-17
7.420319E+03	2.582861E-15	9.594105E-17
7.430279E+03	2.507554E-15	9.342381E-17
7.440239E+03	2.439846E-15	9.117984E-17
7.450199E+03	2.380772E-15	8.925023E-17
7.460159E+03	2.331054E-15	8.766488E-17
7.470120E+03	2.291345E-15	8.645153E-17
7.480080E+03	2.262074E-15	8.562993E-17
7.490040E+03	2.243327E-15	8.520714E-17
7.500000E+03	2.235172E-15	8.518978E-17
7.509960E+03	2.237336E-15	8.557138E-17
7.519920E+03	2.249394E-15	8.633974E-17
7.529880E+03	2.270647E-15	8.747192E-17
7.539841E+03	2.300309E-15	8.894151E-17
7.549801E+03	2.337547E-15	9.071986E-17
7.559761E+03	2.381251E-15	9.276727E-17
7.569721E+03	2.430299E-15	9.504298E-17
7.579681E+03	2.483411E-15	9.749931E-17
7.589641E+03	2.539438E-15	1.000932E-16
7.599602E+03	2.596984E-15	1.027712E-16
7.609562E+03	2.654862E-15	1.054869E-16
7.619522E+03	2.712194E-15	1.082059E-16
7.629482E+03	2.768230E-15	1.108981E-16
7.639442E+03	2.822306E-15	1.135365E-16
7.649402E+03	2.874036E-15	1.161047E-16
7.659363E+03	2.923016E-15	1.185853E-16
7.669323E+03	2.969031E-15	1.209684E-16
7.679283E+03	3.012069E-15	1.232520E-16
7.689243E+03	3.052064E-15	1.254321E-16
7.699203E+03	3.089159E-15	1.275129E-16
7.709163E+03	3.123403E-15	1.294951E-16
7.719124E+03	3.155053E-15	1.313878E-16
7.729084E+03	3.184242E-15	1.331951E-16
