#wls	flux	fluxerr
1.593625E+03	8.095375E-16	3.842911E-17
1.633466E+03	7.323196E-16	3.463474E-17
1.673307E+03	6.593521E-16	3.106653E-17
1.713147E+03	5.913404E-16	2.775576E-17
1.752988E+03	5.285426E-16	2.471227E-17
1.792829E+03	4.713023E-16	2.194959E-17
1.832669E+03	4.196532E-16	1.946656E-17
1.872510E+03	3.736384E-16	1.726237E-17
1.912351E+03	3.330309E-16	1.532365E-17
1.952191E+03	2.977497E-16	1.364386E-17
1.992032E+03	2.675762E-16	1.221018E-17
2.031873E+03	2.423641E-16	1.101316E-17
2.071713E+03	2.220498E-16	1.004720E-17
2.111554E+03	2.066604E-16	9.310771E-18
2.151394E+03	1.964755E-16	8.813609E-18
2.191235E+03	1.916459E-16	8.559454E-18
2.231076E+03	1.922647E-16	8.549340E-18
2.270916E+03	1.985172E-16	8.788276E-18
2.310757E+03	2.106199E-16	9.282471E-18
2.350598E+03	2.289836E-16	1.004642E-17
2.390438E+03	2.541305E-16	1.109912E-17
2.430279E+03	2.866971E-16	1.246406E-17
2.470120E+03	3.271896E-16	1.415850E-17
2.509960E+03	3.757040E-16	1.618152E-17
2.549801E+03	4.317756E-16	1.850800E-17
2.589641E+03	4.940988E-16	2.107720E-17
2.629482E+03	5.606089E-16	2.379710E-17
2.669323E+03	6.288420E-16	2.656043E-17
2.709163E+03	6.966021E-16	2.927320E-17
2.749004E+03	7.618154E-16	3.184836E-17
2.788845E+03	8.226872E-16	3.421224E-17
2.828685E+03	8.777366E-16	3.630577E-17
2.868526E+03	9.260922E-16	3.809636E-17
2.908367E+03	9.676268E-16	3.958274E-17
2.948207E+03	1.002837E-15	4.078927E-17
2.988048E+03	1.033007E-15	4.177174E-17
2.998008E+03	1.039979E-15	4.199151E-17
3.007968E+03	1.046759E-15	4.220243E-17
3.017928E+03	1.053374E-15	4.240564E-17
3.027888E+03	1.059905E-15	4.260447E-17
3.037849E+03	1.066328E-15	4.279787E-17
3.047809E+03	1.072786E-15	4.299166E-17
3.057769E+03	1.079210E-15	4.318302E-17
3.067729E+03	1.085681E-15	4.337521E-17
3.077689E+03	1.092283E-15	4.357156E-17
3.087649E+03	1.098987E-15	4.377088E-17
3.097610E+03	1.105875E-15	4.397642E-17
3.107570E+03	1.112975E-15	4.418924E-17
3.117530E+03	1.120316E-15	4.441044E-17
3.127490E+03	1.127873E-15	4.463896E-17
3.137450E+03	1.135833E-15	4.488217E-17
3.147410E+03	1.144117E-15	4.513688E-17
3.157371E+03	1.152808E-15	4.540625E-17
3.167331E+03	1.161934E-15	4.569128E-17
3.177291E+03	1.171572E-15	4.599496E-17
3.187251E+03	1.181698E-15	4.631623E-17
3.197211E+03	1.192392E-15	4.665807E-17
3.207171E+03	1.203680E-15	4.702142E-17
3.217131E+03	1.215586E-15	4.740709E-17
3.227092E+03	1.228189E-15	4.781800E-17
3.237052E+03	1.241514E-15	4.825494E-17
3.247012E+03	1.255634E-15	4.872064E-17
3.256972E+03	1.270522E-15	4.921390E-17
3.266932E+03	1.286252E-15	4.973739E-17
3.276892E+03	1.302848E-15	5.029180E-17
3.286853E+03	1.320380E-15	5.087972E-17
3.296813E+03	1.338819E-15	5.149980E-17
3.306773E+03	1.358285E-15	5.215645E-17
3.316733E+03	1.378800E-15	5.285024E-17
3.326693E+03	1.400330E-15	5.357973E-17
3.336653E+03	1.422995E-15	5.434918E-17
3.346614E+03	1.446761E-15	5.515712E-17
3.356574E+03	1.471746E-15	5.600773E-17
3.366534E+03	1.497917E-15	5.689950E-17
3.376494E+03	1.525288E-15	5.783273E-17
3.386454E+03	1.553976E-15	5.881153E-17
3.396414E+03	1.583944E-15	5.983421E-17
3.406375E+03	1.615257E-15	6.090295E-17
3.416335E+03	1.647927E-15	6.201784E-17
3.426295E+03	1.681965E-15	6.317901E-17
3.436255E+03	1.717380E-15	6.438646E-17
3.446215E+03	1.754225E-15	6.564187E-17
3.456175E+03	1.792451E-15	6.694304E-17
3.466135E+03	1.832100E-15	6.829126E-17
3.476096E+03	1.873106E-15	6.968368E-17
3.486056E+03	1.915446E-15	7.111912E-17
3.496016E+03	1.959038E-15	7.259425E-17
3.505976E+03	2.003901E-15	7.410945E-17
3.515936E+03	2.049894E-15	7.565917E-17
3.525896E+03	2.096976E-15	7.724164E-17
3.535857E+03	2.145055E-15	7.885322E-17
3.545817E+03	2.194043E-15	8.049036E-17
3.555777E+03	2.243957E-15	8.215349E-17
3.565737E+03	2.294552E-15	8.383342E-17
3.575697E+03	2.345859E-15	8.553103E-17
3.585657E+03	2.397806E-15	8.724358E-17
3.595618E+03	2.450279E-15	8.896667E-17
3.605578E+03	2.503227E-15	9.069832E-17
3.615538E+03	2.556614E-15	9.243709E-17
3.625498E+03	2.610531E-15	9.418610E-17
3.635458E+03	2.664920E-15	9.594314E-17
3.645418E+03	2.719857E-15	9.771073E-17
3.655378E+03	2.775438E-15	9.949219E-17
3.665339E+03	2.831726E-15	1.012896E-16
3.675299E+03	2.888920E-15	1.031098E-16
3.685259E+03	2.947071E-15	1.049543E-16
3.695219E+03	3.006419E-15	1.068316E-16
3.705179E+03	3.067106E-15	1.087462E-16
3.715139E+03	3.129340E-15	1.107051E-16
3.725100E+03	3.193333E-15	1.127155E-16
3.735060E+03	3.259231E-15	1.147820E-16
3.745020E+03	3.327283E-15	1.169129E-16
3.754980E+03	3.397595E-15	1.191113E-16
3.764940E+03	3.470234E-15	1.213789E-16
3.774900E+03	3.545340E-15	1.237202E-16
3.784861E+03	3.622935E-15	1.261351E-16
3.794821E+03	3.702851E-15	1.286172E-16
3.804781E+03	3.785025E-15	1.311638E-16
3.814741E+03	3.869253E-15	1.337671E-16
3.824701E+03	3.955181E-15	1.364144E-16
3.834661E+03	4.042429E-15	1.390922E-16
3.844622E+03	4.130535E-15	1.417842E-16
3.854582E+03	4.218893E-15	1.444695E-16
3.864542E+03	4.306894E-15	1.471271E-16
3.874502E+03	4.393946E-15	1.497369E-16
3.884462E+03	4.479287E-15	1.522733E-16
3.894422E+03	4.562142E-15	1.547102E-16
3.904382E+03	4.641879E-15	1.570269E-16
3.914343E+03	4.717762E-15	1.591995E-16
3.924303E+03	4.789182E-15	1.612081E-16
3.934263E+03	4.855604E-15	1.630362E-16
3.944223E+03	4.916593E-15	1.646702E-16
3.954183E+03	4.971753E-15	1.660984E-16
3.964143E+03	5.020884E-15	1.673155E-16
3.974104E+03	5.063979E-15	1.683228E-16
3.984064E+03	5.101021E-15	1.691214E-16
3.994024E+03	5.132117E-15	1.697163E-16
4.003984E+03	5.157624E-15	1.701208E-16
4.013944E+03	5.177927E-15	1.703490E-16
4.023904E+03	5.193425E-15	1.704154E-16
4.033865E+03	5.204582E-15	1.703364E-16
4.043825E+03	5.212105E-15	1.701363E-16
4.053785E+03	5.216522E-15	1.698332E-16
4.063745E+03	5.218362E-15	1.694450E-16
4.073705E+03	5.218205E-15	1.689914E-16
4.083665E+03	5.216600E-15	1.684905E-16
4.093625E+03	5.214112E-15	1.679610E-16
4.103586E+03	5.211052E-15	1.674131E-16
4.113546E+03	5.207791E-15	1.668589E-16
4.123506E+03	5.204631E-15	1.663082E-16
4.133466E+03	5.201853E-15	1.657699E-16
4.143426E+03	5.199474E-15	1.652444E-16
4.153386E+03	5.197561E-15	1.647340E-16
4.163347E+03	5.196173E-15	1.642403E-16
4.173307E+03	5.195122E-15	1.637573E-16
4.183267E+03	5.194291E-15	1.632814E-16
4.193227E+03	5.193583E-15	1.628094E-16
4.203187E+03	5.192692E-15	1.623318E-16
4.213147E+03	5.191421E-15	1.618426E-16
4.223108E+03	5.189572E-15	1.613357E-16
4.233068E+03	5.186960E-15	1.608056E-16
4.243028E+03	5.183375E-15	1.602461E-16
4.252988E+03	5.178642E-15	1.596521E-16
4.262948E+03	5.172764E-15	1.590240E-16
4.272908E+03	5.165687E-15	1.583604E-16
4.282869E+03	5.157488E-15	1.576643E-16
4.292829E+03	5.148274E-15	1.569390E-16
4.302789E+03	5.138354E-15	1.561944E-16
4.312749E+03	5.128021E-15	1.554395E-16
4.322709E+03	5.117735E-15	1.546885E-16
4.332669E+03	5.108125E-15	1.539602E-16
4.342629E+03	5.099892E-15	1.532758E-16
4.352590E+03	5.093896E-15	1.526606E-16
4.362550E+03	5.091237E-15	1.521469E-16
4.372510E+03	5.093111E-15	1.517697E-16
4.382470E+03	5.100749E-15	1.515645E-16
4.392430E+03	5.115471E-15	1.515688E-16
4.402390E+03	5.138413E-15	1.518146E-16
4.412351E+03	5.170593E-15	1.523299E-16
4.422311E+03	5.212935E-15	1.531394E-16
4.432271E+03	5.266129E-15	1.542609E-16
4.442231E+03	5.330608E-15	1.557045E-16
4.452191E+03	5.406742E-15	1.574781E-16
4.462151E+03	5.494432E-15	1.595761E-16
4.472112E+03	5.593479E-15	1.619900E-16
4.482072E+03	5.703221E-15	1.646979E-16
4.492032E+03	5.822875E-15	1.676748E-16
4.501992E+03	5.951105E-15	1.708801E-16
4.511952E+03	6.086512E-15	1.742718E-16
4.521912E+03	6.227291E-15	1.777967E-16
4.531873E+03	6.371243E-15	1.813911E-16
4.541833E+03	6.516218E-15	1.849935E-16
4.551793E+03	6.659659E-15	1.885315E-16
4.561753E+03	6.799147E-15	1.919372E-16
4.571713E+03	6.932087E-15	1.951389E-16
4.581673E+03	7.056225E-15	1.980751E-16
4.591633E+03	7.169330E-15	2.006856E-16
4.601594E+03	7.269563E-15	2.029220E-16
4.611554E+03	7.355491E-15	2.047474E-16
4.621514E+03	7.426218E-15	2.061407E-16
4.631474E+03	7.481112E-15	2.070881E-16
4.641434E+03	7.520259E-15	2.075956E-16
4.651394E+03	7.543986E-15	2.076762E-16
4.661355E+03	7.553191E-15	2.073581E-16
4.671315E+03	7.549041E-15	2.066766E-16
4.681275E+03	7.533050E-15	2.056762E-16
4.691235E+03	7.506760E-15	2.044017E-16
4.701195E+03	7.472029E-15	2.029058E-16
4.711155E+03	7.430727E-15	2.012410E-16
4.721116E+03	7.384502E-15	1.994534E-16
4.731076E+03	7.335396E-15	1.975990E-16
4.741036E+03	7.284822E-15	1.957165E-16
4.750996E+03	7.234345E-15	1.938482E-16
4.760956E+03	7.185000E-15	1.920216E-16
4.770916E+03	7.137789E-15	1.902632E-16
4.780876E+03	7.093384E-15	1.885905E-16
4.790837E+03	7.052050E-15	1.870100E-16
4.800797E+03	7.013944E-15	1.855252E-16
4.810757E+03	6.978951E-15	1.841324E-16
4.820717E+03	6.946783E-15	1.828235E-16
4.830677E+03	6.916943E-15	1.815849E-16
4.840637E+03	6.888891E-15	1.804020E-16
4.850598E+03	6.861947E-15	1.792568E-16
4.860558E+03	6.835455E-15	1.781320E-16
4.870518E+03	6.808763E-15	1.770104E-16
4.880478E+03	6.781046E-15	1.758706E-16
4.890438E+03	6.751822E-15	1.747003E-16
4.900398E+03	6.720585E-15	1.734865E-16
4.910359E+03	6.686901E-15	1.722184E-16
4.920319E+03	6.650638E-15	1.708929E-16
4.930279E+03	6.611720E-15	1.695084E-16
4.940239E+03	6.570411E-15	1.680720E-16
4.950199E+03	6.527110E-15	1.665942E-16
4.960159E+03	6.482353E-15	1.650888E-16
4.970120E+03	6.436992E-15	1.635777E-16
4.980080E+03	6.391912E-15	1.620832E-16
4.990040E+03	6.348259E-15	1.606342E-16
5.000000E+03	6.307215E-15	1.592603E-16
5.009960E+03	6.269902E-15	1.579890E-16
5.019920E+03	6.237727E-15	1.568552E-16
5.029880E+03	6.211903E-15	1.558885E-16
5.039841E+03	6.193744E-15	1.551206E-16
5.049801E+03	6.184319E-15	1.545770E-16
5.059761E+03	6.184868E-15	1.542875E-16
5.069721E+03	6.196356E-15	1.542745E-16
5.079681E+03	6.219630E-15	1.545575E-16
5.089641E+03	6.255601E-15	1.551574E-16
5.099602E+03	6.304794E-15	1.560856E-16
5.109562E+03	6.367763E-15	1.573539E-16
5.119522E+03	6.444836E-15	1.589687E-16
5.129482E+03	6.536089E-15	1.609302E-16
5.139442E+03	6.641526E-15	1.632367E-16
5.149402E+03	6.760804E-15	1.658781E-16
5.159363E+03	6.893480E-15	1.688421E-16
5.169323E+03	7.038729E-15	1.721071E-16
5.179283E+03	7.195537E-15	1.756470E-16
5.189243E+03	7.362635E-15	1.794299E-16
5.199203E+03	7.538509E-15	1.834179E-16
5.209163E+03	7.721331E-15	1.875661E-16
5.219124E+03	7.909301E-15	1.918303E-16
5.229084E+03	8.100147E-15	1.961553E-16
5.239044E+03	8.291628E-15	2.004870E-16
5.249004E+03	8.481531E-15	2.047724E-16
5.258964E+03	8.667478E-15	2.089547E-16
5.268924E+03	8.847233E-15	2.129809E-16
5.278884E+03	9.018685E-15	2.168012E-16
5.288845E+03	9.179807E-15	2.203683E-16
5.298805E+03	9.328970E-15	2.236446E-16
5.308765E+03	9.464709E-15	2.265963E-16
5.318725E+03	9.585635E-15	2.291921E-16
5.328685E+03	9.690918E-15	2.314137E-16
5.338645E+03	9.779904E-15	2.332471E-16
5.348606E+03	9.852193E-15	2.346847E-16
5.358566E+03	9.907422E-15	2.357194E-16
5.368526E+03	9.945819E-15	2.363582E-16
5.378486E+03	9.967488E-15	2.366051E-16
5.388446E+03	9.972661E-15	2.364672E-16
5.398406E+03	9.961767E-15	2.359558E-16
5.408367E+03	9.935395E-15	2.350863E-16
5.418327E+03	9.893902E-15	2.338681E-16
5.428287E+03	9.837501E-15	2.323073E-16
5.438247E+03	9.766682E-15	2.304161E-16
5.448207E+03	9.681641E-15	2.282001E-16
5.458167E+03	9.583086E-15	2.256764E-16
5.468127E+03	9.471504E-15	2.228572E-16
5.478088E+03	9.347825E-15	2.197647E-16
5.488048E+03	9.213039E-15	2.164226E-16
5.498008E+03	9.068137E-15	2.128543E-16
5.507968E+03	8.914662E-15	2.090963E-16
5.517928E+03	8.754143E-15	2.051843E-16
5.527888E+03	8.588169E-15	2.011555E-16
5.537849E+03	8.418626E-15	1.970540E-16
5.547809E+03	8.247309E-15	1.929215E-16
5.557769E+03	8.076227E-15	1.888046E-16
5.567729E+03	7.907396E-15	1.847501E-16
5.577689E+03	7.742639E-15	1.807999E-16
5.587649E+03	7.583803E-15	1.769967E-16
5.597610E+03	7.432649E-15	1.733811E-16
5.607570E+03	7.290904E-15	1.699925E-16
5.617530E+03	7.160088E-15	1.668660E-16
5.627490E+03	7.041583E-15	1.640330E-16
5.637450E+03	6.936619E-15	1.615215E-16
5.647410E+03	6.846270E-15	1.593560E-16
5.657371E+03	6.771517E-15	1.575587E-16
5.667331E+03	6.712965E-15	1.561430E-16
5.677291E+03	6.671395E-15	1.551266E-16
5.687251E+03	6.647069E-15	1.545152E-16
5.697211E+03	6.640272E-15	1.543149E-16
5.707171E+03	6.651029E-15	1.545258E-16
5.717131E+03	6.679158E-15	1.551436E-16
5.727092E+03	6.724258E-15	1.561585E-16
5.737052E+03	6.785761E-15	1.575573E-16
5.747012E+03	6.862702E-15	1.593173E-16
5.756972E+03	6.953982E-15	1.614129E-16
5.766932E+03	7.058071E-15	1.638086E-16
5.776892E+03	7.173287E-15	1.664654E-16
5.786853E+03	7.297577E-15	1.693357E-16
5.796813E+03	7.428609E-15	1.723655E-16
5.806773E+03	7.563793E-15	1.754950E-16
5.816733E+03	7.700329E-15	1.786592E-16
5.826693E+03	7.835355E-15	1.817919E-16
5.836653E+03	7.965774E-15	1.848216E-16
5.846614E+03	8.088676E-15	1.876808E-16
5.856574E+03	8.201108E-15	1.903012E-16
5.866534E+03	8.300599E-15	1.926256E-16
5.876494E+03	8.384649E-15	1.945960E-16
5.886454E+03	8.451431E-15	1.961700E-16
5.896414E+03	8.499593E-15	1.973163E-16
5.906375E+03	8.528125E-15	1.980111E-16
5.916335E+03	8.536642E-15	1.982455E-16
5.926295E+03	8.525382E-15	1.980248E-16
5.936255E+03	8.494902E-15	1.973616E-16
5.946215E+03	8.446391E-15	1.962832E-16
5.956175E+03	8.381342E-15	1.948239E-16
5.966135E+03	8.301560E-15	1.930255E-16
5.976096E+03	8.209108E-15	1.909354E-16
5.986056E+03	8.106223E-15	1.886053E-16
5.996016E+03	7.995270E-15	1.860899E-16
6.005976E+03	7.878677E-15	1.834454E-16
6.015936E+03	7.758895E-15	1.807287E-16
6.025896E+03	7.638358E-15	1.779961E-16
6.035857E+03	7.519449E-15	1.753031E-16
6.045817E+03	7.404473E-15	1.727034E-16
6.055777E+03	7.295551E-15	1.702464E-16
6.065737E+03	7.194755E-15	1.679806E-16
6.075697E+03	7.103921E-15	1.659490E-16
6.085657E+03	7.024793E-15	1.641927E-16
6.095618E+03	6.958828E-15	1.627461E-16
6.105578E+03	6.907258E-15	1.616386E-16
6.115538E+03	6.871063E-15	1.608936E-16
6.125498E+03	6.850861E-15	1.605263E-16
6.135458E+03	6.847206E-15	1.605505E-16
6.145418E+03	6.860080E-15	1.609665E-16
6.155378E+03	6.889276E-15	1.617705E-16
6.165339E+03	6.934371E-15	1.629534E-16
6.175299E+03	6.994491E-15	1.644956E-16
6.185259E+03	7.068381E-15	1.663685E-16
6.195219E+03	7.154436E-15	1.685349E-16
6.205179E+03	7.250813E-15	1.709524E-16
6.215139E+03	7.355348E-15	1.735704E-16
6.225100E+03	7.465687E-15	1.763340E-16
6.235060E+03	7.580057E-15	1.792017E-16
6.245020E+03	7.696636E-15	1.821307E-16
6.254980E+03	7.813692E-15	1.850804E-16
6.264940E+03	7.929307E-15	1.880052E-16
6.274900E+03	8.041770E-15	1.908646E-16
6.284861E+03	8.149321E-15	1.936166E-16
6.294821E+03	8.250277E-15	1.962209E-16
6.304781E+03	8.342963E-15	1.986371E-16
6.314741E+03	8.426154E-15	2.008355E-16
6.324701E+03	8.498387E-15	2.027803E-16
6.334661E+03	8.558589E-15	2.044452E-16
6.344622E+03	8.606111E-15	2.058136E-16
6.354582E+03	8.640093E-15	2.068638E-16
6.364542E+03	8.660096E-15	2.075841E-16
6.374502E+03	8.665994E-15	2.079703E-16
6.384462E+03	8.657742E-15	2.080198E-16
6.394422E+03	8.635466E-15	2.077344E-16
6.404382E+03	8.599328E-15	2.071167E-16
6.414343E+03	8.549620E-15	2.061722E-16
6.424303E+03	8.486956E-15	2.049145E-16
6.434263E+03	8.411712E-15	2.033514E-16
6.444223E+03	8.324445E-15	2.014950E-16
6.454183E+03	8.225770E-15	1.993588E-16
6.464143E+03	8.116563E-15	1.969631E-16
6.474104E+03	7.997413E-15	1.943209E-16
6.484064E+03	7.869253E-15	1.914538E-16
6.494024E+03	7.732926E-15	1.883813E-16
6.503984E+03	7.589278E-15	1.851231E-16
6.513944E+03	7.439027E-15	1.816960E-16
6.523904E+03	7.283151E-15	1.781230E-16
6.533865E+03	7.122347E-15	1.744205E-16
6.543825E+03	6.957640E-15	1.706129E-16
6.553785E+03	6.789718E-15	1.667168E-16
6.563745E+03	6.619597E-15	1.627566E-16
6.573705E+03	6.448406E-15	1.587597E-16
6.583665E+03	6.276934E-15	1.547454E-16
6.593625E+03	6.106240E-15	1.507397E-16
6.603586E+03	5.937360E-15	1.467681E-16
6.613546E+03	5.771120E-15	1.428512E-16
6.623506E+03	5.608458E-15	1.390125E-16
6.633466E+03	5.450159E-15	1.352716E-16
6.643426E+03	5.297000E-15	1.316483E-16
6.653386E+03	5.149442E-15	1.281545E-16
6.663347E+03	5.008218E-15	1.248089E-16
6.673307E+03	4.873603E-15	1.216191E-16
6.683267E+03	4.745927E-15	1.185938E-16
6.693227E+03	4.625560E-15	1.157430E-16
6.703187E+03	4.512519E-15	1.130678E-16
6.713147E+03	4.407011E-15	1.105741E-16
6.723108E+03	4.308979E-15	1.082613E-16
6.733068E+03	4.218366E-15	1.061286E-16
6.743028E+03	4.135068E-15	1.041742E-16
6.752988E+03	4.058990E-15	1.023964E-16
6.762948E+03	3.989877E-15	1.007894E-16
6.772908E+03	3.927561E-15	9.934977E-17
6.782869E+03	3.871725E-15	9.807012E-17
6.792829E+03	3.822087E-15	9.694397E-17
6.802789E+03	3.778458E-15	9.596712E-17
6.812749E+03	3.740348E-15	9.512777E-17
6.822709E+03	3.707593E-15	9.442225E-17
6.832669E+03	3.679738E-15	9.383956E-17
6.842629E+03	3.656438E-15	9.337137E-17
6.852590E+03	3.637398E-15	9.301063E-17
6.862550E+03	3.622273E-15	9.274891E-17
6.872510E+03	3.610667E-15	9.257653E-17
6.882470E+03	3.602309E-15	9.248682E-17
6.892430E+03	3.596885E-15	9.247214E-17
6.902390E+03	3.594045E-15	9.252373E-17
6.912351E+03	3.593516E-15	9.263486E-17
6.922311E+03	3.595163E-15	9.280230E-17
6.932271E+03	3.598594E-15	9.301616E-17
6.942231E+03	3.603784E-15	9.327598E-17
6.952191E+03	3.610454E-15	9.357472E-17
6.962151E+03	3.618460E-15	9.390884E-17
6.972112E+03	3.627682E-15	9.427537E-17
6.982072E+03	3.638138E-15	9.467494E-17
6.992032E+03	3.649574E-15	9.510110E-17
7.001992E+03	3.662038E-15	9.555517E-17
7.011952E+03	3.675414E-15	9.603431E-17
7.021912E+03	3.689708E-15	9.653877E-17
7.031873E+03	3.704806E-15	9.706570E-17
7.041833E+03	3.720652E-15	9.761375E-17
7.051793E+03	3.737244E-15	9.818300E-17
7.061753E+03	3.754451E-15	9.877007E-17
7.071713E+03	3.772186E-15	9.937285E-17
7.081673E+03	3.790421E-15	9.999060E-17
7.091633E+03	3.808982E-15	1.006189E-16
7.101594E+03	3.827750E-15	1.012547E-16
7.111554E+03	3.846591E-15	1.018943E-16
7.121514E+03	3.865428E-15	1.025360E-16
7.131474E+03	3.884043E-15	1.031739E-16
7.141434E+03	3.902345E-15	1.038057E-16
7.151394E+03	3.920030E-15	1.044232E-16
7.161355E+03	3.937133E-15	1.050274E-16
7.171315E+03	3.953338E-15	1.056098E-16
7.181275E+03	3.968460E-15	1.061655E-16
7.191235E+03	3.982450E-15	1.066929E-16
7.201195E+03	3.994968E-15	1.071830E-16
7.211155E+03	4.005877E-15	1.076320E-16
7.221116E+03	4.014890E-15	1.080320E-16
7.231076E+03	4.021997E-15	1.083825E-16
7.241036E+03	4.026753E-15	1.086713E-16
7.250996E+03	4.028996E-15	1.088940E-16
7.260956E+03	4.028643E-15	1.090479E-16
7.270916E+03	4.025329E-15	1.091230E-16
7.280876E+03	4.018929E-15	1.091154E-16
7.290837E+03	4.009201E-15	1.090184E-16
7.300797E+03	3.996237E-15	1.088339E-16
7.310757E+03	3.979741E-15	1.085537E-16
7.320717E+03	3.959847E-15	1.081808E-16
7.330677E+03	3.936612E-15	1.077166E-16
7.340637E+03	3.910101E-15	1.071623E-16
7.350598E+03	3.880678E-15	1.065275E-16
7.360558E+03	3.848574E-15	1.058182E-16
7.370518E+03	3.814101E-15	1.050426E-16
7.380478E+03	3.777865E-15	1.042172E-16
7.390438E+03	3.740321E-15	1.033543E-16
7.400398E+03	3.702051E-15	1.024698E-16
7.410359E+03	3.663607E-15	1.015789E-16
7.420319E+03	3.625702E-15	1.007013E-16
7.430279E+03	3.588982E-15	9.985517E-17
7.440239E+03	3.554071E-15	9.905799E-17
7.450199E+03	3.521495E-15	9.832473E-17
7.460159E+03	3.491858E-15	9.767258E-17
7.470120E+03	3.465492E-15	9.711134E-17
7.480080E+03	3.442916E-15	9.665603E-17
7.490040E+03	3.424284E-15	9.631159E-17
7.500000E+03	3.409850E-15	9.608585E-17
7.509960E+03	3.399635E-15	9.598003E-17
7.519920E+03	3.393550E-15	9.599236E-17
7.529880E+03	3.391609E-15	9.612391E-17
7.539841E+03	3.393464E-15	9.636554E-17
7.549801E+03	3.398816E-15	9.670928E-17
7.559761E+03	3.407361E-15	9.714710E-17
7.569721E+03	3.418604E-15	9.766533E-17
7.579681E+03	3.432004E-15	9.824896E-17
7.589641E+03	3.447202E-15	9.888807E-17
7.599602E+03	3.463555E-15	9.956452E-17
7.609562E+03	3.480577E-15	1.002644E-16
7.619522E+03	3.497953E-15	1.009789E-16
7.629482E+03	3.515066E-15	1.016902E-16
7.639442E+03	3.531695E-15	1.023917E-16
7.649402E+03	3.547534E-15	1.030745E-16
7.659363E+03	3.562187E-15	1.037270E-16
7.669323E+03	3.575600E-15	1.043472E-16
7.679283E+03	3.587559E-15	1.049288E-16
7.689243E+03	3.597972E-15	1.054687E-16
7.699203E+03	3.606867E-15	1.059674E-16
7.709163E+03	3.614081E-15	1.064197E-16
7.719124E+03	3.619783E-15	1.068304E-16
7.729084E+03	3.623933E-15	1.071979E-16
