#wls	flux	fluxerr
1.593625E+03	2.187117E-16	1.177034E-17
1.633466E+03	2.053383E-16	1.098929E-17
1.673307E+03	1.928070E-16	1.026071E-17
1.713147E+03	1.811826E-16	9.587373E-18
1.752988E+03	1.704771E-16	8.969190E-18
1.792829E+03	1.607128E-16	8.406565E-18
1.832669E+03	1.518381E-16	7.896030E-18
1.872510E+03	1.438579E-16	7.437081E-18
1.912351E+03	1.367706E-16	7.028870E-18
1.952191E+03	1.305534E-16	6.669458E-18
1.992032E+03	1.252087E-16	6.358206E-18
2.031873E+03	1.208102E-16	6.098062E-18
2.071713E+03	1.174806E-16	5.894357E-18
2.111554E+03	1.154694E-16	5.758587E-18
2.151394E+03	1.149931E-16	5.700325E-18
2.191235E+03	1.162875E-16	5.729840E-18
2.231076E+03	1.194961E-16	5.852641E-18
2.270916E+03	1.246552E-16	6.068863E-18
2.310757E+03	1.317926E-16	6.378223E-18
2.350598E+03	1.408708E-16	6.777243E-18
2.390438E+03	1.519007E-16	7.264813E-18
2.430279E+03	1.648234E-16	7.836498E-18
2.470120E+03	1.795499E-16	8.486529E-18
2.509960E+03	1.959080E-16	9.205327E-18
2.549801E+03	2.136228E-16	9.978709E-18
2.589641E+03	2.323130E-16	1.078785E-17
2.629482E+03	2.515196E-16	1.161075E-17
2.669323E+03	2.708403E-16	1.242849E-17
2.709163E+03	2.899294E-16	1.322517E-17
2.749004E+03	3.085910E-16	1.399204E-17
2.788845E+03	3.266683E-16	1.472233E-17
2.828685E+03	3.440407E-16	1.541104E-17
2.868526E+03	3.607669E-16	1.606128E-17
2.908367E+03	3.769434E-16	1.667778E-17
2.948207E+03	3.927948E-16	1.727080E-17
2.988048E+03	4.086697E-16	1.785574E-17
2.998008E+03	4.126952E-16	1.800302E-17
3.007968E+03	4.167696E-16	1.815185E-17
3.017928E+03	4.208458E-16	1.830016E-17
3.027888E+03	4.250357E-16	1.845280E-17
3.037849E+03	4.292398E-16	1.860545E-17
3.047809E+03	4.335192E-16	1.876073E-17
3.057769E+03	4.378859E-16	1.891915E-17
3.067729E+03	4.423453E-16	1.908092E-17
3.077689E+03	4.469035E-16	1.924627E-17
3.087649E+03	4.516209E-16	1.941778E-17
3.097610E+03	4.563949E-16	1.959101E-17
3.107570E+03	4.613413E-16	1.977091E-17
3.117530E+03	4.664123E-16	1.995539E-17
3.127490E+03	4.716147E-16	2.014471E-17
3.137450E+03	4.770113E-16	2.034151E-17
3.147410E+03	4.825541E-16	2.054372E-17
3.157371E+03	4.883068E-16	2.075400E-17
3.167331E+03	4.942780E-16	2.097267E-17
3.177291E+03	5.004194E-16	2.119763E-17
3.187251E+03	5.067963E-16	2.143159E-17
3.197211E+03	5.134749E-16	2.167731E-17
3.207171E+03	5.203501E-16	2.193029E-17
3.217131E+03	5.274886E-16	2.219327E-17
3.227092E+03	5.349584E-16	2.246907E-17
3.237052E+03	5.427115E-16	2.275558E-17
3.247012E+03	5.507583E-16	2.305317E-17
3.256972E+03	5.591681E-16	2.336468E-17
3.266932E+03	5.678927E-16	2.368801E-17
3.276892E+03	5.770630E-16	2.402853E-17
3.286853E+03	5.865706E-16	2.438164E-17
3.296813E+03	5.965480E-16	2.475276E-17
3.306773E+03	6.068853E-16	2.513721E-17
3.316733E+03	6.177162E-16	2.554045E-17
3.326693E+03	6.289908E-16	2.596030E-17
3.336653E+03	6.407823E-16	2.639966E-17
3.346614E+03	6.531011E-16	2.685885E-17
3.356574E+03	6.659570E-16	2.733815E-17
3.366534E+03	6.793574E-16	2.783772E-17
3.376494E+03	6.933074E-16	2.835766E-17
3.386454E+03	7.078093E-16	2.889792E-17
3.396414E+03	7.229277E-16	2.946099E-17
3.406375E+03	7.386582E-16	3.004656E-17
3.416335E+03	7.549912E-16	3.065409E-17
3.426295E+03	7.719109E-16	3.128278E-17
3.436255E+03	7.893942E-16	3.193158E-17
3.446215E+03	8.074787E-16	3.260185E-17
3.456175E+03	8.260552E-16	3.328904E-17
3.466135E+03	8.451410E-16	3.399373E-17
3.476096E+03	8.646715E-16	3.471321E-17
3.486056E+03	8.845664E-16	3.544413E-17
3.496016E+03	9.048042E-16	3.618555E-17
3.505976E+03	9.252034E-16	3.693013E-17
3.515936E+03	9.457107E-16	3.767570E-17
3.525896E+03	9.661857E-16	3.841663E-17
3.535857E+03	9.864716E-16	3.914672E-17
3.545817E+03	1.006397E-15	3.985920E-17
3.555777E+03	1.025778E-15	4.054685E-17
3.565737E+03	1.044491E-15	4.120494E-17
3.575697E+03	1.062328E-15	4.182545E-17
3.585657E+03	1.079078E-15	4.240020E-17
3.595618E+03	1.094523E-15	4.292094E-17
3.605578E+03	1.108449E-15	4.337959E-17
3.615538E+03	1.120652E-15	4.376854E-17
3.625498E+03	1.131024E-15	4.408396E-17
3.635458E+03	1.139344E-15	4.431766E-17
3.645418E+03	1.145584E-15	4.446911E-17
3.655378E+03	1.149647E-15	4.453495E-17
3.665339E+03	1.151725E-15	4.452321E-17
3.675299E+03	1.151908E-15	4.443778E-17
3.685259E+03	1.150469E-15	4.428961E-17
3.695219E+03	1.147798E-15	4.409414E-17
3.705179E+03	1.144397E-15	4.387089E-17
3.715139E+03	1.140933E-15	4.364553E-17
3.725100E+03	1.138021E-15	4.344156E-17
3.735060E+03	1.136454E-15	4.328906E-17
3.745020E+03	1.136934E-15	4.321438E-17
3.754980E+03	1.140283E-15	4.324821E-17
3.764940E+03	1.147187E-15	4.341581E-17
3.774900E+03	1.158408E-15	4.374508E-17
3.784861E+03	1.174594E-15	4.425932E-17
3.794821E+03	1.196262E-15	4.497673E-17
3.804781E+03	1.223944E-15	4.591597E-17
3.814741E+03	1.258014E-15	4.708946E-17
3.824701E+03	1.298713E-15	4.850462E-17
3.834661E+03	1.346082E-15	5.016128E-17
3.844622E+03	1.400042E-15	5.205483E-17
3.854582E+03	1.460438E-15	5.417780E-17
3.864542E+03	1.526603E-15	5.650391E-17
3.874502E+03	1.597929E-15	5.900913E-17
3.884462E+03	1.673436E-15	6.165611E-17
3.894422E+03	1.751834E-15	6.439627E-17
3.904382E+03	1.831658E-15	6.717514E-17
3.914343E+03	1.911244E-15	6.993139E-17
3.924303E+03	1.988788E-15	7.259927E-17
3.934263E+03	2.062422E-15	7.511123E-17
3.944223E+03	2.130315E-15	7.740165E-17
3.954183E+03	2.190703E-15	7.940807E-17
3.964143E+03	2.242140E-15	8.108015E-17
3.974104E+03	2.283601E-15	8.238316E-17
3.984064E+03	2.314336E-15	8.329269E-17
3.994024E+03	2.334122E-15	8.380354E-17
4.003984E+03	2.343192E-15	8.392682E-17
4.013944E+03	2.342116E-15	8.368572E-17
4.023904E+03	2.331877E-15	8.311795E-17
4.033865E+03	2.313771E-15	8.227193E-17
4.043825E+03	2.289046E-15	8.119403E-17
4.053785E+03	2.259208E-15	7.993929E-17
4.063745E+03	2.225623E-15	7.855729E-17
4.073705E+03	2.189703E-15	7.709875E-17
4.083665E+03	2.152568E-15	7.560360E-17
4.093625E+03	2.115366E-15	7.411243E-17
4.103586E+03	2.079021E-15	7.265756E-17
4.113546E+03	2.044187E-15	7.126160E-17
4.123506E+03	2.011550E-15	6.994804E-17
4.133466E+03	1.981380E-15	6.872570E-17
4.143426E+03	1.954030E-15	6.760612E-17
4.153386E+03	1.929554E-15	6.659048E-17
4.163347E+03	1.907874E-15	6.567535E-17
4.173307E+03	1.888877E-15	6.485612E-17
4.183267E+03	1.872257E-15	6.412165E-17
4.193227E+03	1.857627E-15	6.345807E-17
4.203187E+03	1.844615E-15	6.285225E-17
4.213147E+03	1.832685E-15	6.228553E-17
4.223108E+03	1.821394E-15	6.174266E-17
4.233068E+03	1.810257E-15	6.120708E-17
4.243028E+03	1.798737E-15	6.066062E-17
4.252988E+03	1.786443E-15	6.009028E-17
4.262948E+03	1.772977E-15	5.948293E-17
4.272908E+03	1.758056E-15	5.882943E-17
4.282869E+03	1.741471E-15	5.812315E-17
4.292829E+03	1.723194E-15	5.736368E-17
4.302789E+03	1.703239E-15	5.655186E-17
4.312749E+03	1.681859E-15	5.569656E-17
4.322709E+03	1.659359E-15	5.480823E-17
4.332669E+03	1.636306E-15	5.390587E-17
4.342629E+03	1.613274E-15	5.300845E-17
4.352590E+03	1.591014E-15	5.214058E-17
4.362550E+03	1.570363E-15	5.132949E-17
4.372510E+03	1.552287E-15	5.060621E-17
4.382470E+03	1.537648E-15	4.999811E-17
4.392430E+03	1.527433E-15	4.953632E-17
4.402390E+03	1.522499E-15	4.924745E-17
4.412351E+03	1.523638E-15	4.915568E-17
4.422311E+03	1.531627E-15	4.928451E-17
4.432271E+03	1.547062E-15	4.965127E-17
4.442231E+03	1.570510E-15	5.027230E-17
4.452191E+03	1.602406E-15	5.115946E-17
4.462151E+03	1.643011E-15	5.231898E-17
4.472112E+03	1.692482E-15	5.375366E-17
4.482072E+03	1.750813E-15	5.546115E-17
4.492032E+03	1.817688E-15	5.742933E-17
4.501992E+03	1.892583E-15	5.963955E-17
4.511952E+03	1.974589E-15	6.206135E-17
4.521912E+03	2.062449E-15	6.465356E-17
4.531873E+03	2.154486E-15	6.736243E-17
4.541833E+03	2.248704E-15	7.012473E-17
4.551793E+03	2.342725E-15	7.286599E-17
4.561753E+03	2.433970E-15	7.550633E-17
4.571713E+03	2.519805E-15	7.796499E-17
4.581673E+03	2.597574E-15	8.016139E-17
4.591633E+03	2.664950E-15	8.202589E-17
4.601594E+03	2.720077E-15	8.350409E-17
4.611554E+03	2.761641E-15	8.455873E-17
4.621514E+03	2.788924E-15	8.517118E-17
4.631474E+03	2.802016E-15	8.534766E-17
4.641434E+03	2.801681E-15	8.511476E-17
4.651394E+03	2.789124E-15	8.451223E-17
4.661355E+03	2.766227E-15	8.359980E-17
4.671315E+03	2.734962E-15	8.243942E-17
4.681275E+03	2.697599E-15	8.110126E-17
4.691235E+03	2.656375E-15	7.965386E-17
4.701195E+03	2.613417E-15	7.816168E-17
4.711155E+03	2.570611E-15	7.668141E-17
4.721116E+03	2.529651E-15	7.526335E-17
4.731076E+03	2.491879E-15	7.394692E-17
4.741036E+03	2.458380E-15	7.276346E-17
4.750996E+03	2.429927E-15	7.173477E-17
4.760956E+03	2.407117E-15	7.087732E-17
4.770916E+03	2.390247E-15	7.019846E-17
4.780876E+03	2.379330E-15	6.969729E-17
4.790837E+03	2.374313E-15	6.937086E-17
4.800797E+03	2.374905E-15	6.920939E-17
4.810757E+03	2.380656E-15	6.919855E-17
4.820717E+03	2.390961E-15	6.931969E-17
4.830677E+03	2.405109E-15	6.955122E-17
4.840637E+03	2.422225E-15	6.986709E-17
4.850598E+03	2.441342E-15	7.023889E-17
4.860558E+03	2.461349E-15	7.063428E-17
4.870518E+03	2.481028E-15	7.101824E-17
4.880478E+03	2.499108E-15	7.135457E-17
4.890438E+03	2.514244E-15	7.160535E-17
4.900398E+03	2.525078E-15	7.173264E-17
4.910359E+03	2.530448E-15	7.170448E-17
4.920319E+03	2.529222E-15	7.149002E-17
4.930279E+03	2.520612E-15	7.106846E-17
4.940239E+03	2.504165E-15	7.042868E-17
4.950199E+03	2.479795E-15	6.956985E-17
4.960159E+03	2.447822E-15	6.850260E-17
4.970120E+03	2.408960E-15	6.724842E-17
4.980080E+03	2.364262E-15	6.583801E-17
4.990040E+03	2.315061E-15	6.430960E-17
5.000000E+03	2.262848E-15	6.270534E-17
5.009960E+03	2.209098E-15	6.106662E-17
5.019920E+03	2.155364E-15	5.943646E-17
5.029880E+03	2.103051E-15	5.785354E-17
5.039841E+03	2.053407E-15	5.635171E-17
5.049801E+03	2.007553E-15	5.496112E-17
5.059761E+03	1.966436E-15	5.370682E-17
5.069721E+03	1.930764E-15	5.260711E-17
5.079681E+03	1.901172E-15	5.167820E-17
5.089641E+03	1.878091E-15	5.093059E-17
5.099602E+03	1.861879E-15	5.037267E-17
5.109562E+03	1.852767E-15	5.000934E-17
5.119522E+03	1.850876E-15	4.984260E-17
5.129482E+03	1.856293E-15	4.987337E-17
5.139442E+03	1.869024E-15	5.010053E-17
5.149402E+03	1.888941E-15	5.051936E-17
5.159363E+03	1.915897E-15	5.112465E-17
5.169323E+03	1.949643E-15	5.190857E-17
5.179283E+03	1.989840E-15	5.286102E-17
5.189243E+03	2.036087E-15	5.397031E-17
5.199203E+03	2.087829E-15	5.522079E-17
5.209163E+03	2.144520E-15	5.659724E-17
5.219124E+03	2.205484E-15	5.808118E-17
5.229084E+03	2.270025E-15	5.965370E-17
5.239044E+03	2.337453E-15	6.129628E-17
5.249004E+03	2.407023E-15	6.298915E-17
5.258964E+03	2.478136E-15	6.471651E-17
5.268924E+03	2.550210E-15	6.646311E-17
5.278884E+03	2.622828E-15	6.821819E-17
5.288845E+03	2.695645E-15	6.997290E-17
5.298805E+03	2.768587E-15	7.172554E-17
5.308765E+03	2.841672E-15	7.347675E-17
5.318725E+03	2.915112E-15	7.523226E-17
5.328685E+03	2.989265E-15	7.700146E-17
5.338645E+03	3.064598E-15	7.879652E-17
5.348606E+03	3.141644E-15	8.063120E-17
5.358566E+03	3.220968E-15	8.252000E-17
5.368526E+03	3.302973E-15	8.447322E-17
5.378486E+03	3.388070E-15	8.650130E-17
5.388446E+03	3.476345E-15	8.860636E-17
5.398406E+03	3.567788E-15	9.078805E-17
5.408367E+03	3.662013E-15	9.303653E-17
5.418327E+03	3.758266E-15	9.533270E-17
5.428287E+03	3.855371E-15	9.764695E-17
5.438247E+03	3.951693E-15	9.993821E-17
5.448207E+03	4.045396E-15	1.021606E-16
5.458167E+03	4.134674E-15	1.042693E-16
5.468127E+03	4.217614E-15	1.062169E-16
5.478088E+03	4.291909E-15	1.079463E-16
5.488048E+03	4.354259E-15	1.093758E-16
5.498008E+03	4.401408E-15	1.104251E-16
5.507968E+03	4.430568E-15	1.110257E-16
5.517928E+03	4.439783E-15	1.111304E-16
5.527888E+03	4.427847E-15	1.107106E-16
5.537849E+03	4.394682E-15	1.097659E-16
5.547809E+03	4.341037E-15	1.083166E-16
5.557769E+03	4.268597E-15	1.064059E-16
5.567729E+03	4.179851E-15	1.040969E-16
5.577689E+03	4.077801E-15	1.014651E-16
5.587649E+03	3.965926E-15	9.859735E-17
5.597610E+03	3.847819E-15	9.558322E-17
5.607570E+03	3.727115E-15	9.251291E-17
5.617530E+03	3.607327E-15	8.947326E-17
5.627490E+03	3.491598E-15	8.654175E-17
5.637450E+03	3.382725E-15	8.378704E-17
5.647410E+03	3.283063E-15	8.126678E-17
5.657371E+03	3.194507E-15	7.902705E-17
5.667331E+03	3.118516E-15	7.710320E-17
5.677291E+03	3.056017E-15	7.551731E-17
5.687251E+03	3.007639E-15	7.428423E-17
5.697211E+03	2.973504E-15	7.340622E-17
5.707171E+03	2.953461E-15	7.287895E-17
5.717131E+03	2.946980E-15	7.268881E-17
5.727092E+03	2.953167E-15	7.281326E-17
5.737052E+03	2.970858E-15	7.322322E-17
5.747012E+03	2.998502E-15	7.388018E-17
5.756972E+03	3.034296E-15	7.473945E-17
5.766932E+03	3.076058E-15	7.574721E-17
5.776892E+03	3.121485E-15	7.684664E-17
5.786853E+03	3.168009E-15	7.797453E-17
5.796813E+03	3.212989E-15	7.906591E-17
5.806773E+03	3.253878E-15	8.005821E-17
5.816733E+03	3.288268E-15	8.089227E-17
5.826693E+03	3.314015E-15	8.151543E-17
5.836653E+03	3.329410E-15	8.188578E-17
5.846614E+03	3.333243E-15	8.197364E-17
5.856574E+03	3.324822E-15	8.176200E-17
5.866534E+03	3.304104E-15	8.124984E-17
5.876494E+03	3.271449E-15	8.044598E-17
5.886454E+03	3.227742E-15	7.937212E-17
5.896414E+03	3.174243E-15	7.805910E-17
5.906375E+03	3.112475E-15	7.654433E-17
5.916335E+03	3.044129E-15	7.486917E-17
5.926295E+03	2.970913E-15	7.307553E-17
5.936255E+03	2.894535E-15	7.120523E-17
5.946215E+03	2.816614E-15	6.929797E-17
5.956175E+03	2.738519E-15	6.738729E-17
5.966135E+03	2.661491E-15	6.550359E-17
5.976096E+03	2.586509E-15	6.367088E-17
5.986056E+03	2.514269E-15	6.190619E-17
5.996016E+03	2.445335E-15	6.022337E-17
6.005976E+03	2.379990E-15	5.862934E-17
6.015936E+03	2.318363E-15	5.712722E-17
6.025896E+03	2.260449E-15	5.571690E-17
6.035857E+03	2.206130E-15	5.439549E-17
6.045817E+03	2.155318E-15	5.316079E-17
6.055777E+03	2.107867E-15	5.200924E-17
6.065737E+03	2.063680E-15	5.093845E-17
6.075697E+03	2.022800E-15	4.994950E-17
6.085657E+03	1.985321E-15	4.904479E-17
6.095618E+03	1.951410E-15	4.822850E-17
6.105578E+03	1.921375E-15	4.750832E-17
6.115538E+03	1.895540E-15	4.689234E-17
6.125498E+03	1.874232E-15	4.638878E-17
6.135458E+03	1.857820E-15	4.600695E-17
6.145418E+03	1.846566E-15	4.575349E-17
6.155378E+03	1.840655E-15	4.563321E-17
6.165339E+03	1.840169E-15	4.564835E-17
6.175299E+03	1.845131E-15	4.579969E-17
6.185259E+03	1.855385E-15	4.608366E-17
6.195219E+03	1.870756E-15	4.649614E-17
6.205179E+03	1.890953E-15	4.703016E-17
6.215139E+03	1.915670E-15	4.767840E-17
6.225100E+03	1.944635E-15	4.843432E-17
6.235060E+03	1.977861E-15	4.929855E-17
6.245020E+03	2.015415E-15	5.027302E-17
6.254980E+03	2.057509E-15	5.136335E-17
6.264940E+03	2.104416E-15	5.257669E-17
6.274900E+03	2.156452E-15	5.392128E-17
6.284861E+03	2.213984E-15	5.540673E-17
6.294821E+03	2.277429E-15	5.704392E-17
6.304781E+03	2.347091E-15	5.884094E-17
6.314741E+03	2.423206E-15	6.080425E-17
6.324701E+03	2.505892E-15	6.293737E-17
6.334661E+03	2.595059E-15	6.523865E-17
6.344622E+03	2.690384E-15	6.770055E-17
6.354582E+03	2.791304E-15	7.030948E-17
6.364542E+03	2.896895E-15	7.304276E-17
6.374502E+03	3.006005E-15	7.587183E-17
6.384462E+03	3.117096E-15	7.875828E-17
6.394422E+03	3.228287E-15	8.165485E-17
6.404382E+03	3.337478E-15	8.450854E-17
6.414343E+03	3.442364E-15	8.726080E-17
6.424303E+03	3.540437E-15	8.984772E-17
6.434263E+03	3.629208E-15	9.220547E-17
6.444223E+03	3.706296E-15	9.427275E-17
6.454183E+03	3.769605E-15	9.599515E-17
6.464143E+03	3.817338E-15	9.732562E-17
6.474104E+03	3.848231E-15	9.823041E-17
6.484064E+03	3.861680E-15	9.869252E-17
6.494024E+03	3.857635E-15	9.870899E-17
6.503984E+03	3.836631E-15	9.829176E-17
6.513944E+03	3.798853E-15	9.744392E-17
6.523904E+03	3.743642E-15	9.614682E-17
6.533865E+03	3.670871E-15	9.439544E-17
6.543825E+03	3.581148E-15	9.220361E-17
6.553785E+03	3.475818E-15	8.960425E-17
6.563745E+03	3.356830E-15	8.664600E-17
6.573705E+03	3.226548E-15	8.338854E-17
6.583665E+03	3.087718E-15	7.990170E-17
6.593625E+03	2.943331E-15	7.626204E-17
6.603586E+03	2.796295E-15	7.254437E-17
6.613546E+03	2.649462E-15	6.882243E-17
6.623506E+03	2.505401E-15	6.516297E-17
6.633466E+03	2.366316E-15	6.162365E-17
6.643426E+03	2.234102E-15	5.825429E-17
6.653386E+03	2.110149E-15	5.509186E-17
6.663347E+03	1.995482E-15	5.216393E-17
6.673307E+03	1.890718E-15	4.948757E-17
6.683267E+03	1.796129E-15	4.707083E-17
6.693227E+03	1.711700E-15	4.491437E-17
6.703187E+03	1.637188E-15	4.301276E-17
6.713147E+03	1.572178E-15	4.135607E-17
6.723108E+03	1.516149E-15	3.993150E-17
6.733068E+03	1.468488E-15	3.872380E-17
6.743028E+03	1.428550E-15	3.771669E-17
6.752988E+03	1.395665E-15	3.689328E-17
6.762948E+03	1.369236E-15	3.623840E-17
6.772908E+03	1.348634E-15	3.573602E-17
6.782869E+03	1.333340E-15	3.537292E-17
6.792829E+03	1.322821E-15	3.513544E-17
6.802789E+03	1.316650E-15	3.501270E-17
6.812749E+03	1.314416E-15	3.499412E-17
6.822709E+03	1.315703E-15	3.506899E-17
6.832669E+03	1.320184E-15	3.522890E-17
6.842629E+03	1.327496E-15	3.546446E-17
6.852590E+03	1.337316E-15	3.576724E-17
6.862550E+03	1.349291E-15	3.612803E-17
6.872510E+03	1.363082E-15	3.653790E-17
6.882470E+03	1.378364E-15	3.698830E-17
6.892430E+03	1.394784E-15	3.746987E-17
6.902390E+03	1.412030E-15	3.797430E-17
6.912351E+03	1.429775E-15	3.849284E-17
6.922311E+03	1.447732E-15	3.901778E-17
6.932271E+03	1.465664E-15	3.954276E-17
6.942231E+03	1.483346E-15	4.006166E-17
6.952191E+03	1.500615E-15	4.057006E-17
6.962151E+03	1.517362E-15	4.106495E-17
6.972112E+03	1.533532E-15	4.154481E-17
6.982072E+03	1.549124E-15	4.200953E-17
6.992032E+03	1.564185E-15	4.246037E-17
7.001992E+03	1.578799E-15	4.289956E-17
7.011952E+03	1.593083E-15	4.333022E-17
7.021912E+03	1.607154E-15	4.375553E-17
7.031873E+03	1.621176E-15	4.417993E-17
7.041833E+03	1.635277E-15	4.460692E-17
7.051793E+03	1.649598E-15	4.504038E-17
7.061753E+03	1.664293E-15	4.548450E-17
7.071713E+03	1.679442E-15	4.594153E-17
7.081673E+03	1.695169E-15	4.641491E-17
7.091633E+03	1.711564E-15	4.690715E-17
7.101594E+03	1.728672E-15	4.741956E-17
7.111554E+03	1.746535E-15	4.795334E-17
7.121514E+03	1.765162E-15	4.850881E-17
7.131474E+03	1.784527E-15	4.908533E-17
7.141434E+03	1.804543E-15	4.968059E-17
7.151394E+03	1.825128E-15	5.029239E-17
7.161355E+03	1.846101E-15	5.091578E-17
7.171315E+03	1.867336E-15	5.154737E-17
7.181275E+03	1.888578E-15	5.218014E-17
7.191235E+03	1.909683E-15	5.281012E-17
7.201195E+03	1.930445E-15	5.343166E-17
7.211155E+03	1.950711E-15	5.404051E-17
7.221116E+03	1.970350E-15	5.463304E-17
7.231076E+03	1.989285E-15	5.520708E-17
7.241036E+03	2.007580E-15	5.576443E-17
7.250996E+03	2.025263E-15	5.630582E-17
7.260956E+03	2.042440E-15	5.683428E-17
7.270916E+03	2.059333E-15	5.735589E-17
7.280876E+03	2.076041E-15	5.787352E-17
7.290837E+03	2.092777E-15	5.839311E-17
7.300797E+03	2.109598E-15	5.891633E-17
7.310757E+03	2.126561E-15	5.944480E-17
7.320717E+03	2.143563E-15	5.997576E-17
7.330677E+03	2.160385E-15	6.050308E-17
7.340637E+03	2.176752E-15	6.101916E-17
7.350598E+03	2.192134E-15	6.150909E-17
7.360558E+03	2.206030E-15	6.195884E-17
7.370518E+03	2.217758E-15	6.234917E-17
7.380478E+03	2.226725E-15	6.266326E-17
7.390438E+03	2.232289E-15	6.288287E-17
7.400398E+03	2.233938E-15	6.299335E-17
7.410359E+03	2.231323E-15	6.298456E-17
7.420319E+03	2.224323E-15	6.285277E-17
7.430279E+03	2.213098E-15	6.260218E-17
7.440239E+03	2.198009E-15	6.224261E-17
7.450199E+03	2.179785E-15	6.179449E-17
7.460159E+03	2.159274E-15	6.128156E-17
7.470120E+03	2.137598E-15	6.073555E-17
7.480080E+03	2.115862E-15	6.018777E-17
7.490040E+03	2.095298E-15	5.967331E-17
7.500000E+03	2.076997E-15	5.922345E-17
7.509960E+03	2.061989E-15	5.886785E-17
7.519920E+03	2.051092E-15	5.863024E-17
7.529880E+03	2.045011E-15	5.853126E-17
7.539841E+03	2.044149E-15	5.858303E-17
7.549801E+03	2.048815E-15	5.879502E-17
7.559761E+03	2.059077E-15	5.916987E-17
7.569721E+03	2.074803E-15	5.970446E-17
7.579681E+03	2.095747E-15	6.039245E-17
7.589641E+03	2.121497E-15	6.122270E-17
7.599602E+03	2.151426E-15	6.217774E-17
7.609562E+03	2.184731E-15	6.323499E-17
7.619522E+03	2.220303E-15	6.436288E-17
7.629482E+03	2.256884E-15	6.552531E-17
7.639442E+03	2.292982E-15	6.667916E-17
7.649402E+03	2.327133E-15	6.778187E-17
7.659363E+03	2.357845E-15	6.878977E-17
7.669323E+03	2.383729E-15	6.966193E-17
7.679283E+03	2.403439E-15	7.035830E-17
7.689243E+03	2.415948E-15	7.084799E-17
7.699203E+03	2.420383E-15	7.110430E-17
7.709163E+03	2.416175E-15	7.110930E-17
7.719124E+03	2.403093E-15	7.085477E-17
7.729084E+03	2.381137E-15	7.033933E-17
