#wls	flux	fluxerr
1.593625E+03	6.481010E-17	9.141663E-18
1.633466E+03	6.377059E-17	8.956530E-18
1.673307E+03	6.283158E-17	8.786237E-18
1.713147E+03	6.199880E-17	8.631426E-18
1.752988E+03	6.127742E-17	8.492649E-18
1.792829E+03	6.067923E-17	8.371352E-18
1.832669E+03	6.019164E-17	8.265595E-18
1.872510E+03	5.982294E-17	8.176326E-18
1.912351E+03	5.956979E-17	8.102881E-18
1.952191E+03	5.943140E-17	8.044951E-18
1.992032E+03	5.941632E-17	8.003477E-18
2.031873E+03	5.956507E-17	7.983667E-18
2.071713E+03	5.994297E-17	7.993917E-18
2.111554E+03	6.065330E-17	8.047485E-18
2.151394E+03	6.182187E-17	8.160312E-18
2.191235E+03	6.351562E-17	8.340257E-18
2.231076E+03	6.576631E-17	8.590396E-18
2.270916E+03	6.852229E-17	8.902863E-18
2.310757E+03	7.174088E-17	9.271102E-18
2.350598E+03	7.539352E-17	9.690472E-18
2.390438E+03	7.945841E-17	1.015724E-17
2.430279E+03	8.392550E-17	1.066921E-17
2.470120E+03	8.880231E-17	1.122641E-17
2.509960E+03	9.409626E-17	1.182883E-17
2.549801E+03	9.979535E-17	1.247399E-17
2.589641E+03	1.059103E-16	1.316225E-17
2.629482E+03	1.124162E-16	1.388955E-17
2.669323E+03	1.193209E-16	1.465589E-17
2.709163E+03	1.266498E-16	1.546336E-17
2.749004E+03	1.344496E-16	1.631658E-17
2.788845E+03	1.427537E-16	1.721839E-17
2.828685E+03	1.515790E-16	1.816956E-17
2.868526E+03	1.610032E-16	1.917800E-17
2.908367E+03	1.710910E-16	2.024986E-17
2.948207E+03	1.819127E-16	2.139175E-17
2.988048E+03	1.935224E-16	2.260810E-17
2.998008E+03	1.965519E-16	2.292405E-17
3.007968E+03	1.996443E-16	2.324610E-17
3.017928E+03	2.028003E-16	2.357427E-17
3.027888E+03	2.060208E-16	2.390863E-17
3.037849E+03	2.092845E-16	2.424667E-17
3.047809E+03	2.126376E-16	2.459371E-17
3.057769E+03	2.160387E-16	2.494491E-17
3.067729E+03	2.195105E-16	2.530285E-17
3.077689E+03	2.230763E-16	2.567018E-17
3.087649E+03	2.266907E-16	2.604160E-17
3.097610E+03	2.304002E-16	2.642242E-17
3.107570E+03	2.341821E-16	2.680999E-17
3.117530E+03	2.380369E-16	2.720430E-17
3.127490E+03	2.419649E-16	2.760536E-17
3.137450E+03	2.459905E-16	2.801587E-17
3.147410E+03	2.500904E-16	2.843314E-17
3.157371E+03	2.542651E-16	2.885717E-17
3.167331E+03	2.585393E-16	2.929070E-17
3.177291E+03	2.629138E-16	2.973377E-17
3.187251E+03	2.673648E-16	3.018361E-17
3.197211E+03	2.719175E-16	3.064302E-17
3.207171E+03	2.765726E-16	3.111201E-17
3.217131E+03	2.813309E-16	3.159059E-17
3.227092E+03	2.861679E-16	3.207596E-17
3.237052E+03	2.911093E-16	3.257093E-17
3.247012E+03	2.961811E-16	3.307834E-17
3.256972E+03	3.013333E-16	3.359252E-17
3.266932E+03	3.066173E-16	3.411916E-17
3.276892E+03	3.120084E-16	3.465539E-17
3.286853E+03	3.175327E-16	3.520406E-17
3.296813E+03	3.231390E-16	3.575940E-17
3.306773E+03	3.289059E-16	3.633003E-17
3.316733E+03	3.347551E-16	3.690724E-17
3.326693E+03	3.407659E-16	3.749966E-17
3.336653E+03	3.468856E-16	3.810142E-17
3.346614E+03	3.531408E-16	3.871535E-17
3.356574E+03	3.595315E-16	3.934135E-17
3.366534E+03	3.660574E-16	3.997931E-17
3.376494E+03	3.727180E-16	4.062908E-17
3.386454E+03	3.795398E-16	4.129345E-17
3.396414E+03	3.864674E-16	4.196629E-17
3.406375E+03	3.935540E-16	4.265329E-17
3.416335E+03	4.007981E-16	4.335419E-17
3.426295E+03	4.081704E-16	4.406571E-17
3.436255E+03	4.156961E-16	4.479048E-17
3.446215E+03	4.233445E-16	4.552509E-17
3.456175E+03	4.311683E-16	4.627510E-17
3.466135E+03	4.391078E-16	4.703401E-17
3.476096E+03	4.472147E-16	4.780727E-17
3.486056E+03	4.554558E-16	4.859121E-17
3.496016E+03	4.638258E-16	4.938518E-17
3.505976E+03	4.723472E-16	5.019146E-17
3.515936E+03	4.810139E-16	5.100933E-17
3.525896E+03	4.897912E-16	5.183500E-17
3.535857E+03	4.987012E-16	5.267071E-17
3.545817E+03	5.077374E-16	5.351570E-17
3.555777E+03	5.168936E-16	5.436924E-17
3.565737E+03	5.261640E-16	5.523061E-17
3.575697E+03	5.355723E-16	5.610222E-17
3.585657E+03	5.450851E-16	5.698047E-17
3.595618E+03	5.546988E-16	5.786491E-17
3.605578E+03	5.644697E-16	5.876134E-17
3.615538E+03	5.743390E-16	5.966352E-17
3.625498E+03	5.843373E-16	6.057455E-17
3.635458E+03	5.944976E-16	6.149775E-17
3.645418E+03	6.047674E-16	6.242761E-17
3.655378E+03	6.152142E-16	6.337096E-17
3.665339E+03	6.258495E-16	6.432889E-17
3.675299E+03	6.366590E-16	6.529978E-17
3.685259E+03	6.477192E-16	6.629133E-17
3.695219E+03	6.589920E-16	6.729950E-17
3.705179E+03	6.705304E-16	6.832952E-17
3.715139E+03	6.823603E-16	6.938385E-17
3.725100E+03	6.945385E-16	7.046804E-17
3.735060E+03	7.070641E-16	7.158177E-17
3.745020E+03	7.199949E-16	7.273063E-17
3.754980E+03	7.333577E-16	7.391705E-17
3.764940E+03	7.471475E-16	7.514022E-17
3.774900E+03	7.614427E-16	7.640772E-17
3.784861E+03	7.762275E-16	7.771763E-17
3.794821E+03	7.915070E-16	7.907011E-17
3.804781E+03	8.072764E-16	8.046435E-17
3.814741E+03	8.235487E-16	8.190131E-17
3.824701E+03	8.402633E-16	8.337461E-17
3.834661E+03	8.574037E-16	8.488235E-17
3.844622E+03	8.749368E-16	8.642093E-17
3.854582E+03	8.927211E-16	8.797616E-17
3.864542E+03	9.106884E-16	8.954116E-17
3.874502E+03	9.287187E-16	9.110403E-17
3.884462E+03	9.466801E-16	9.265180E-17
3.894422E+03	9.644510E-16	9.417267E-17
3.904382E+03	9.818390E-16	9.564800E-17
3.914343E+03	9.986736E-16	9.706151E-17
3.924303E+03	1.014809E-15	9.839944E-17
3.934263E+03	1.030041E-15	9.964250E-17
3.944223E+03	1.044232E-15	1.007780E-16
3.954183E+03	1.057225E-15	1.017917E-16
3.964143E+03	1.068853E-15	1.026681E-16
3.974104E+03	1.079030E-15	1.034002E-16
3.984064E+03	1.087642E-15	1.039779E-16
3.994024E+03	1.094660E-15	1.043997E-16
4.003984E+03	1.100061E-15	1.046643E-16
4.013944E+03	1.103827E-15	1.047714E-16
4.023904E+03	1.106029E-15	1.047286E-16
4.033865E+03	1.106685E-15	1.045387E-16
4.043825E+03	1.105977E-15	1.042200E-16
4.053785E+03	1.103944E-15	1.037772E-16
4.063745E+03	1.100781E-15	1.032294E-16
4.073705E+03	1.096587E-15	1.025866E-16
4.083665E+03	1.091571E-15	1.018693E-16
4.093625E+03	1.085845E-15	1.010882E-16
4.103586E+03	1.079567E-15	1.002586E-16
4.113546E+03	1.072911E-15	9.939698E-17
4.123506E+03	1.065973E-15	9.851257E-17
4.133466E+03	1.058928E-15	9.762159E-17
4.143426E+03	1.051843E-15	9.673050E-17
4.153386E+03	1.044800E-15	9.584661E-17
4.163347E+03	1.037924E-15	9.498159E-17
4.173307E+03	1.031245E-15	9.413790E-17
4.183267E+03	1.024817E-15	9.332045E-17
4.193227E+03	1.018685E-15	9.253310E-17
4.203187E+03	1.012861E-15	9.177686E-17
4.213147E+03	1.007371E-15	9.105377E-17
4.223108E+03	1.002216E-15	9.036374E-17
4.233068E+03	9.973922E-16	8.970635E-17
4.243028E+03	9.929177E-16	8.908289E-17
4.252988E+03	9.888099E-16	8.849476E-17
4.262948E+03	9.850592E-16	8.794085E-17
4.272908E+03	9.816953E-16	8.742361E-17
4.282869E+03	9.787593E-16	8.694646E-17
4.292829E+03	9.762559E-16	8.650954E-17
4.302789E+03	9.742633E-16	8.611951E-17
4.312749E+03	9.728295E-16	8.578030E-17
4.322709E+03	9.720424E-16	8.549929E-17
4.332669E+03	9.719753E-16	8.528253E-17
4.342629E+03	9.727256E-16	8.513809E-17
4.352590E+03	9.743891E-16	8.507385E-17
4.362550E+03	9.771132E-16	8.510210E-17
4.372510E+03	9.809828E-16	8.522956E-17
4.382470E+03	9.861388E-16	8.546775E-17
4.392430E+03	9.926944E-16	8.582565E-17
4.402390E+03	1.000769E-15	8.631275E-17
4.412351E+03	1.010446E-15	8.693519E-17
4.422311E+03	1.021833E-15	8.770121E-17
4.432271E+03	1.034992E-15	8.861515E-17
4.442231E+03	1.049986E-15	8.968133E-17
4.452191E+03	1.066852E-15	9.090168E-17
4.462151E+03	1.085592E-15	9.227531E-17
4.472112E+03	1.106181E-15	9.379900E-17
4.482072E+03	1.128524E-15	9.546365E-17
4.492032E+03	1.152520E-15	9.725974E-17
4.501992E+03	1.177974E-15	9.916978E-17
4.511952E+03	1.204665E-15	1.011745E-16
4.521912E+03	1.232304E-15	1.032489E-16
4.531873E+03	1.260546E-15	1.053638E-16
4.541833E+03	1.289016E-15	1.074875E-16
4.551793E+03	1.317281E-15	1.095841E-16
4.561753E+03	1.344879E-15	1.116152E-16
4.571713E+03	1.371347E-15	1.135431E-16
4.581673E+03	1.396206E-15	1.153289E-16
4.591633E+03	1.418978E-15	1.169343E-16
4.601594E+03	1.439274E-15	1.183285E-16
4.611554E+03	1.456728E-15	1.194831E-16
4.621514E+03	1.471044E-15	1.203754E-16
4.631474E+03	1.482013E-15	1.209903E-16
4.641434E+03	1.489535E-15	1.213216E-16
4.651394E+03	1.493606E-15	1.213710E-16
4.661355E+03	1.494284E-15	1.211451E-16
4.671315E+03	1.491763E-15	1.206616E-16
4.681275E+03	1.486297E-15	1.199428E-16
4.691235E+03	1.478149E-15	1.190114E-16
4.701195E+03	1.467726E-15	1.179017E-16
4.711155E+03	1.455364E-15	1.166418E-16
4.721116E+03	1.441459E-15	1.152645E-16
4.731076E+03	1.426400E-15	1.138017E-16
4.741036E+03	1.410531E-15	1.122812E-16
4.750996E+03	1.394181E-15	1.107296E-16
4.760956E+03	1.377617E-15	1.091684E-16
4.770916E+03	1.361108E-15	1.076189E-16
4.780876E+03	1.344883E-15	1.060991E-16
4.790837E+03	1.329122E-15	1.046230E-16
4.800797E+03	1.313948E-15	1.031999E-16
4.810757E+03	1.299458E-15	1.018373E-16
4.820717E+03	1.285680E-15	1.005367E-16
4.830677E+03	1.272624E-15	9.929880E-17
4.840637E+03	1.260270E-15	9.812150E-17
4.850598E+03	1.248563E-15	9.700008E-17
4.860558E+03	1.237452E-15	9.593040E-17
4.870518E+03	1.226847E-15	9.490508E-17
4.880478E+03	1.216677E-15	9.391835E-17
4.890438E+03	1.206839E-15	9.296216E-17
4.900398E+03	1.197250E-15	9.202986E-17
4.910359E+03	1.187842E-15	9.111622E-17
4.920319E+03	1.178538E-15	9.021510E-17
4.930279E+03	1.169299E-15	8.932357E-17
4.940239E+03	1.160094E-15	8.843921E-17
4.950199E+03	1.150911E-15	8.756110E-17
4.960159E+03	1.141763E-15	8.669022E-17
4.970120E+03	1.132696E-15	8.582992E-17
4.980080E+03	1.123766E-15	8.498451E-17
4.990040E+03	1.115046E-15	8.415948E-17
5.000000E+03	1.106641E-15	8.336247E-17
5.009960E+03	1.098632E-15	8.259957E-17
5.019920E+03	1.091170E-15	8.188186E-17
5.029880E+03	1.084363E-15	8.121730E-17
5.039841E+03	1.078339E-15	8.061507E-17
5.049801E+03	1.073230E-15	8.008475E-17
5.059761E+03	1.069147E-15	7.963427E-17
5.069721E+03	1.066216E-15	7.927250E-17
5.079681E+03	1.064540E-15	7.900682E-17
5.089641E+03	1.064227E-15	7.884463E-17
5.099602E+03	1.065349E-15	7.879075E-17
5.109562E+03	1.067982E-15	7.885045E-17
5.119522E+03	1.072173E-15	7.902650E-17
5.129482E+03	1.077967E-15	7.932187E-17
5.139442E+03	1.085387E-15	7.973766E-17
5.149402E+03	1.094435E-15	8.027353E-17
5.159363E+03	1.105104E-15	8.092853E-17
5.169323E+03	1.117335E-15	8.169796E-17
5.179283E+03	1.131095E-15	8.257896E-17
5.189243E+03	1.146282E-15	8.356380E-17
5.199203E+03	1.162820E-15	8.464662E-17
5.209163E+03	1.180593E-15	8.581872E-17
5.219124E+03	1.199437E-15	8.706810E-17
5.229084E+03	1.219221E-15	8.838510E-17
5.239044E+03	1.239764E-15	8.975652E-17
5.249004E+03	1.260878E-15	9.116897E-17
5.258964E+03	1.282388E-15	9.260974E-17
5.268924E+03	1.304071E-15	9.406286E-17
5.278884E+03	1.325738E-15	9.551513E-17
5.288845E+03	1.347209E-15	9.695374E-17
5.298805E+03	1.368256E-15	9.836260E-17
5.308765E+03	1.388738E-15	9.973203E-17
5.318725E+03	1.408462E-15	1.010486E-16
5.328685E+03	1.427287E-15	1.023025E-16
5.338645E+03	1.445076E-15	1.034845E-16
5.348606E+03	1.461669E-15	1.045837E-16
5.358566E+03	1.476982E-15	1.055943E-16
5.368526E+03	1.490905E-15	1.065091E-16
5.378486E+03	1.503307E-15	1.073193E-16
5.388446E+03	1.514133E-15	1.080212E-16
5.398406E+03	1.523252E-15	1.086060E-16
5.408367E+03	1.530577E-15	1.090679E-16
5.418327E+03	1.536006E-15	1.094001E-16
5.428287E+03	1.539397E-15	1.095927E-16
5.438247E+03	1.540596E-15	1.096349E-16
5.448207E+03	1.539456E-15	1.095165E-16
5.458167E+03	1.535872E-15	1.092302E-16
5.468127E+03	1.529714E-15	1.087667E-16
5.478088E+03	1.520910E-15	1.081210E-16
5.488048E+03	1.509331E-15	1.072838E-16
5.498008E+03	1.494978E-15	1.062551E-16
5.507968E+03	1.477827E-15	1.050330E-16
5.517928E+03	1.457987E-15	1.036249E-16
5.527888E+03	1.435642E-15	1.020437E-16
5.537849E+03	1.411018E-15	1.003051E-16
5.547809E+03	1.384470E-15	9.843393E-17
5.557769E+03	1.356407E-15	9.645889E-17
5.567729E+03	1.327292E-15	9.441254E-17
5.577689E+03	1.297606E-15	9.232865E-17
5.587649E+03	1.267906E-15	9.024644E-17
5.597610E+03	1.238718E-15	8.820306E-17
5.607570E+03	1.210580E-15	8.623660E-17
5.617530E+03	1.183985E-15	8.438195E-17
5.627490E+03	1.159410E-15	8.267293E-17
5.637450E+03	1.137261E-15	8.113842E-17
5.647410E+03	1.117911E-15	7.980522E-17
5.657371E+03	1.101649E-15	7.869409E-17
5.667331E+03	1.088740E-15	7.782404E-17
5.677291E+03	1.079332E-15	7.720618E-17
5.687251E+03	1.073557E-15	7.685027E-17
5.697211E+03	1.071437E-15	7.675842E-17
5.707171E+03	1.072969E-15	7.693086E-17
5.717131E+03	1.078048E-15	7.736076E-17
5.727092E+03	1.086519E-15	7.803755E-17
5.737052E+03	1.098131E-15	7.894395E-17
5.747012E+03	1.112566E-15	8.005770E-17
5.756972E+03	1.129440E-15	8.135171E-17
5.766932E+03	1.148269E-15	8.279172E-17
5.776892E+03	1.168522E-15	8.433989E-17
5.786853E+03	1.189592E-15	8.595288E-17
5.796813E+03	1.210815E-15	8.758283E-17
5.806773E+03	1.231523E-15	8.918150E-17
5.816733E+03	1.251033E-15	9.069944E-17
5.826693E+03	1.268675E-15	9.208769E-17
5.836653E+03	1.283848E-15	9.330218E-17
5.846614E+03	1.296059E-15	9.430647E-17
5.856574E+03	1.304872E-15	9.506805E-17
5.866534E+03	1.310009E-15	9.556562E-17
5.876494E+03	1.311342E-15	9.578882E-17
5.886454E+03	1.308861E-15	9.573589E-17
5.896414E+03	1.302724E-15	9.541709E-17
5.906375E+03	1.293172E-15	9.484896E-17
5.916335E+03	1.280603E-15	9.405969E-17
5.926295E+03	1.265459E-15	9.308067E-17
5.936255E+03	1.248248E-15	9.194843E-17
5.946215E+03	1.229491E-15	9.070061E-17
5.956175E+03	1.209737E-15	8.937718E-17
5.966135E+03	1.189492E-15	8.801502E-17
5.976096E+03	1.169246E-15	8.665022E-17
5.986056E+03	1.149401E-15	8.531255E-17
5.996016E+03	1.130340E-15	8.403034E-17
6.005976E+03	1.112353E-15	8.282551E-17
6.015936E+03	1.095678E-15	8.171603E-17
6.025896E+03	1.080480E-15	8.071459E-17
6.035857E+03	1.066883E-15	7.983090E-17
6.045817E+03	1.054936E-15	7.906922E-17
6.055777E+03	1.044644E-15	7.843036E-17
6.065737E+03	1.035975E-15	7.791260E-17
6.075697E+03	1.028857E-15	7.751110E-17
6.085657E+03	1.023200E-15	7.721947E-17
6.095618E+03	1.018890E-15	7.702981E-17
6.105578E+03	1.015781E-15	7.693144E-17
6.115538E+03	1.013745E-15	7.691525E-17
6.125498E+03	1.012641E-15	7.697077E-17
6.135458E+03	1.012307E-15	7.708617E-17
6.145418E+03	1.012618E-15	7.725226E-17
6.155378E+03	1.013452E-15	7.745977E-17
6.165339E+03	1.014683E-15	7.769952E-17
6.175299E+03	1.016241E-15	7.796614E-17
6.185259E+03	1.018054E-15	7.825423E-17
6.195219E+03	1.020070E-15	7.856000E-17
6.205179E+03	1.022268E-15	7.888180E-17
6.215139E+03	1.024657E-15	7.922051E-17
6.225100E+03	1.027265E-15	7.957838E-17
6.235060E+03	1.030141E-15	7.995920E-17
6.245020E+03	1.033352E-15	8.036840E-17
6.254980E+03	1.036992E-15	8.081348E-17
6.264940E+03	1.041166E-15	8.130286E-17
6.274900E+03	1.045963E-15	8.184372E-17
6.284861E+03	1.051486E-15	8.244447E-17
6.294821E+03	1.057811E-15	8.311136E-17
6.304781E+03	1.065021E-15	8.385156E-17
6.314741E+03	1.073148E-15	8.466782E-17
6.324701E+03	1.082195E-15	8.556097E-17
6.334661E+03	1.092129E-15	8.652885E-17
6.344622E+03	1.102880E-15	8.756642E-17
6.354582E+03	1.114295E-15	8.866187E-17
6.364542E+03	1.126213E-15	8.980274E-17
6.374502E+03	1.138385E-15	9.096937E-17
6.384462E+03	1.150517E-15	9.213831E-17
6.394422E+03	1.162268E-15	9.328224E-17
6.404382E+03	1.173239E-15	9.436870E-17
6.414343E+03	1.183009E-15	9.536350E-17
6.424303E+03	1.191134E-15	9.623005E-17
6.434263E+03	1.197165E-15	9.693109E-17
6.444223E+03	1.200663E-15	9.742978E-17
6.454183E+03	1.201206E-15	9.769050E-17
6.464143E+03	1.198435E-15	9.768231E-17
6.474104E+03	1.192048E-15	9.737866E-17
6.484064E+03	1.181867E-15	9.676301E-17
6.494024E+03	1.167789E-15	9.582472E-17
6.503984E+03	1.149793E-15	9.455976E-17
6.513944E+03	1.128020E-15	9.297765E-17
6.523904E+03	1.102657E-15	9.109160E-17
6.533865E+03	1.074027E-15	8.892629E-17
6.543825E+03	1.042508E-15	8.651120E-17
6.553785E+03	1.008574E-15	8.388394E-17
6.563745E+03	9.727448E-16	8.108656E-17
6.573705E+03	9.355624E-16	7.816306E-17
6.583665E+03	8.975836E-16	7.515928E-17
6.593625E+03	8.593414E-16	7.211942E-17
6.603586E+03	8.213470E-16	6.908626E-17
6.613546E+03	7.840565E-16	6.609833E-17
6.623506E+03	7.478796E-16	6.319059E-17
6.633466E+03	7.131481E-16	6.039169E-17
6.643426E+03	6.801552E-16	5.772733E-17
6.653386E+03	6.491079E-16	5.521607E-17
6.663347E+03	6.201707E-16	5.287298E-17
6.673307E+03	5.934543E-16	5.070871E-17
6.683267E+03	5.690031E-16	4.872832E-17
6.693227E+03	5.468563E-16	4.693643E-17
6.703187E+03	5.269885E-16	4.533217E-17
6.713147E+03	5.093687E-16	4.391416E-17
6.723108E+03	4.939470E-16	4.267936E-17
6.733068E+03	4.806482E-16	4.162251E-17
6.743028E+03	4.693946E-16	4.073808E-17
6.752988E+03	4.601083E-16	4.002047E-17
6.762948E+03	4.527089E-16	3.946378E-17
6.772908E+03	4.470992E-16	3.906061E-17
6.782869E+03	4.431989E-16	3.880494E-17
6.792829E+03	4.409289E-16	3.869081E-17
6.802789E+03	4.402009E-16	3.871140E-17
6.812749E+03	4.409335E-16	3.886042E-17
6.822709E+03	4.430515E-16	3.913204E-17
6.832669E+03	4.464697E-16	3.951953E-17
6.842629E+03	4.511183E-16	4.001743E-17
6.852590E+03	4.569003E-16	4.061783E-17
6.862550E+03	4.637500E-16	4.131549E-17
6.872510E+03	4.715782E-16	4.210309E-17
6.882470E+03	4.802939E-16	4.297303E-17
6.892430E+03	4.898165E-16	4.391858E-17
6.902390E+03	5.000585E-16	4.493233E-17
6.912351E+03	5.109390E-16	4.600739E-17
6.922311E+03	5.223591E-16	4.713523E-17
6.932271E+03	5.342403E-16	4.830901E-17
6.942231E+03	5.465009E-16	4.952161E-17
6.952191E+03	5.590636E-16	5.076619E-17
6.962151E+03	5.718558E-16	5.203634E-17
6.972112E+03	5.848031E-16	5.332537E-17
6.982072E+03	5.978589E-16	5.462911E-17
6.992032E+03	6.109606E-16	5.594190E-17
7.001992E+03	6.240510E-16	5.725849E-17
7.011952E+03	6.370925E-16	5.857541E-17
7.021912E+03	6.500440E-16	5.988884E-17
7.031873E+03	6.628673E-16	6.119520E-17
7.041833E+03	6.755254E-16	6.249098E-17
7.051793E+03	6.879733E-16	6.377192E-17
7.061753E+03	7.001729E-16	6.503434E-17
7.071713E+03	7.120936E-16	6.627527E-17
7.081673E+03	7.236941E-16	6.749069E-17
7.091633E+03	7.349121E-16	6.867458E-17
7.101594E+03	7.457192E-16	6.982407E-17
7.111554E+03	7.560574E-16	7.093350E-17
7.121514E+03	7.658771E-16	7.199793E-17
7.131474E+03	7.751282E-16	7.301235E-17
7.141434E+03	7.837620E-16	7.397185E-17
7.151394E+03	7.917325E-16	7.487173E-17
7.161355E+03	7.989874E-16	7.570668E-17
7.171315E+03	8.054901E-16	7.647282E-17
7.181275E+03	8.112214E-16	7.716790E-17
7.191235E+03	8.161604E-16	7.778951E-17
7.201195E+03	8.202742E-16	7.833408E-17
7.211155E+03	8.235712E-16	7.880194E-17
7.221116E+03	8.260594E-16	7.919343E-17
7.231076E+03	8.277574E-16	7.950988E-17
7.241036E+03	8.286827E-16	7.975255E-17
7.250996E+03	8.288722E-16	7.992457E-17
7.260956E+03	8.283813E-16	8.003091E-17
7.270916E+03	8.272394E-16	8.007402E-17
7.280876E+03	8.255123E-16	8.005995E-17
7.290837E+03	8.232572E-16	7.999394E-17
7.300797E+03	8.205105E-16	7.987926E-17
7.310757E+03	8.173488E-16	7.972310E-17
7.320717E+03	8.138028E-16	7.952824E-17
7.330677E+03	8.099184E-16	7.929899E-17
7.340637E+03	8.057244E-16	7.903799E-17
7.350598E+03	8.012629E-16	7.874921E-17
7.360558E+03	7.965365E-16	7.843277E-17
7.370518E+03	7.915509E-16	7.808911E-17
7.380478E+03	7.863258E-16	7.772003E-17
7.390438E+03	7.808448E-16	7.732377E-17
7.400398E+03	7.750986E-16	7.689930E-17
7.410359E+03	7.690869E-16	7.644645E-17
7.420319E+03	7.628201E-16	7.596609E-17
7.430279E+03	7.563107E-16	7.545937E-17
7.440239E+03	7.495659E-16	7.492686E-17
7.450199E+03	7.426077E-16	7.437063E-17
7.460159E+03	7.354539E-16	7.379235E-17
7.470120E+03	7.281368E-16	7.319517E-17
7.480080E+03	7.206745E-16	7.258080E-17
7.490040E+03	7.131153E-16	7.195405E-17
7.500000E+03	7.054805E-16	7.131700E-17
7.509960E+03	6.978076E-16	7.067343E-17
7.519920E+03	6.901213E-16	7.002581E-17
7.529880E+03	6.824485E-16	6.937687E-17
7.539841E+03	6.747808E-16	6.872576E-17
7.549801E+03	6.671363E-16	6.807433E-17
7.559761E+03	6.594951E-16	6.742057E-17
7.569721E+03	6.518440E-16	6.676311E-17
7.579681E+03	6.441499E-16	6.609855E-17
7.589641E+03	6.363698E-16	6.542246E-17
7.599602E+03	6.284436E-16	6.472859E-17
7.609562E+03	6.203300E-16	6.401258E-17
7.619522E+03	6.119573E-16	6.326692E-17
7.629482E+03	6.032689E-16	6.248560E-17
7.639442E+03	5.941857E-16	6.166021E-17
7.649402E+03	5.846656E-16	6.078615E-17
7.659363E+03	5.746580E-16	5.985787E-17
7.669323E+03	5.641155E-16	5.887014E-17
7.679283E+03	5.530189E-16	5.782065E-17
7.689243E+03	5.413495E-16	5.670707E-17
7.699203E+03	5.291194E-16	5.553035E-17
7.709163E+03	5.163428E-16	5.429163E-17
7.719124E+03	5.030654E-16	5.299538E-17
7.729084E+03	4.893405E-16	5.164691E-17
