#wls	flux	fluxerr
1.593625E+03	3.124974E-17	4.025073E-18
1.633466E+03	3.105854E-17	3.967422E-18
1.673307E+03	3.090780E-17	3.914671E-18
1.713147E+03	3.079979E-17	3.866983E-18
1.752988E+03	3.074194E-17	3.825144E-18
1.792829E+03	3.072845E-17	3.788275E-18
1.832669E+03	3.075785E-17	3.756045E-18
1.872510E+03	3.083306E-17	3.728658E-18
1.912351E+03	3.095637E-17	3.706223E-18
1.952191E+03	3.111510E-17	3.687059E-18
1.992032E+03	3.132249E-17	3.672583E-18
2.031873E+03	3.158705E-17	3.663595E-18
2.071713E+03	3.195230E-17	3.664862E-18
2.111554E+03	3.246109E-17	3.680842E-18
2.151394E+03	3.318388E-17	3.718851E-18
2.191235E+03	3.416029E-17	3.782397E-18
2.231076E+03	3.539330E-17	3.870748E-18
2.270916E+03	3.685802E-17	3.980118E-18
2.310757E+03	3.852909E-17	4.106794E-18
2.350598E+03	4.039037E-17	4.248154E-18
2.390438E+03	4.242578E-17	4.401664E-18
2.430279E+03	4.464797E-17	4.567814E-18
2.470120E+03	4.705685E-17	4.745730E-18
2.509960E+03	4.967684E-17	4.936974E-18
2.549801E+03	5.251544E-17	5.141304E-18
2.589641E+03	5.561403E-17	5.361707E-18
2.629482E+03	5.899005E-17	5.598650E-18
2.669323E+03	6.266937E-17	5.853298E-18
2.709163E+03	6.668257E-17	6.127104E-18
2.749004E+03	7.103973E-17	6.419506E-18
2.788845E+03	7.579152E-17	6.733513E-18
2.828685E+03	8.096776E-17	7.070047E-18
2.868526E+03	8.662323E-17	7.432035E-18
2.908367E+03	9.279941E-17	7.821017E-18
2.948207E+03	9.957614E-17	8.241535E-18
2.988048E+03	1.070211E-16	8.696756E-18
2.998008E+03	1.089908E-16	8.816016E-18
3.007968E+03	1.110153E-16	8.938299E-18
3.017928E+03	1.130960E-16	9.063653E-18
3.027888E+03	1.152100E-16	9.190216E-18
3.037849E+03	1.173947E-16	9.320924E-18
3.047809E+03	1.196277E-16	9.453936E-18
3.057769E+03	1.219117E-16	9.589421E-18
3.067729E+03	1.242724E-16	9.729351E-18
3.077689E+03	1.266860E-16	9.871810E-18
3.087649E+03	1.291536E-16	1.001683E-17
3.097610E+03	1.316888E-16	1.016541E-17
3.107570E+03	1.343061E-16	1.031861E-17
3.117530E+03	1.369676E-16	1.047346E-17
3.127490E+03	1.397137E-16	1.063301E-17
3.137450E+03	1.425328E-16	1.079630E-17
3.147410E+03	1.454125E-16	1.096234E-17
3.157371E+03	1.483815E-16	1.113323E-17
3.167331E+03	1.514135E-16	1.130694E-17
3.177291E+03	1.545377E-16	1.148560E-17
3.187251E+03	1.577275E-16	1.166715E-17
3.197211E+03	1.610123E-16	1.185371E-17
3.207171E+03	1.643797E-16	1.204429E-17
3.217131E+03	1.678309E-16	1.223892E-17
3.227092E+03	1.713673E-16	1.243762E-17
3.237052E+03	1.750052E-16	1.264151E-17
3.247012E+03	1.787160E-16	1.284846E-17
3.256972E+03	1.825466E-16	1.306178E-17
3.266932E+03	1.864527E-16	1.327820E-17
3.276892E+03	1.904819E-16	1.350106E-17
3.286853E+03	1.945891E-16	1.372708E-17
3.296813E+03	1.988227E-16	1.395960E-17
3.306773E+03	2.031525E-16	1.419642E-17
3.316733E+03	2.075795E-16	1.443755E-17
3.326693E+03	2.121210E-16	1.468412E-17
3.336653E+03	2.167950E-16	1.493729E-17
3.346614E+03	2.215527E-16	1.519363E-17
3.356574E+03	2.264450E-16	1.545657E-17
3.366534E+03	2.314563E-16	1.572495E-17
3.376494E+03	2.365873E-16	1.599874E-17
3.386454E+03	2.418386E-16	1.627792E-17
3.396414E+03	2.472105E-16	1.656244E-17
3.406375E+03	2.527031E-16	1.685224E-17
3.416335E+03	2.583164E-16	1.714725E-17
3.426295E+03	2.640682E-16	1.744858E-17
3.436255E+03	2.699399E-16	1.775494E-17
3.446215E+03	2.759492E-16	1.806743E-17
3.456175E+03	2.820764E-16	1.838469E-17
3.466135E+03	2.883202E-16	1.870660E-17
3.476096E+03	2.947008E-16	1.903441E-17
3.486056E+03	3.012201E-16	1.936818E-17
3.496016E+03	3.078797E-16	1.970797E-17
3.505976E+03	3.146619E-16	2.005258E-17
3.515936E+03	3.216072E-16	2.040455E-17
3.525896E+03	3.286774E-16	2.076140E-17
3.535857E+03	3.358935E-16	2.112442E-17
3.545817E+03	3.432768E-16	2.149490E-17
3.555777E+03	3.507877E-16	2.187029E-17
3.565737E+03	3.584675E-16	2.225317E-17
3.575697E+03	3.662966E-16	2.264222E-17
3.585657E+03	3.742964E-16	2.303873E-17
3.595618E+03	3.824464E-16	2.344134E-17
3.605578E+03	3.907680E-16	2.385130E-17
3.615538E+03	3.992396E-16	2.426722E-17
3.625498E+03	4.078607E-16	2.468901E-17
3.635458E+03	4.166742E-16	2.511920E-17
3.645418E+03	4.256356E-16	2.555503E-17
3.655378E+03	4.347880E-16	2.599902E-17
3.665339E+03	4.440853E-16	2.644835E-17
3.675299E+03	4.535479E-16	2.690417E-17
3.685259E+03	4.631962E-16	2.736764E-17
3.695219E+03	4.729823E-16	2.783585E-17
3.705179E+03	4.829486E-16	2.831126E-17
3.715139E+03	4.930686E-16	2.879226E-17
3.725100E+03	5.033618E-16	2.927992E-17
3.735060E+03	5.138005E-16	2.977259E-17
3.745020E+03	5.243794E-16	3.026993E-17
3.754980E+03	5.351170E-16	3.077297E-17
3.764940E+03	5.460074E-16	3.128133E-17
3.774900E+03	5.570203E-16	3.179324E-17
3.784861E+03	5.681970E-16	3.231103E-17
3.794821E+03	5.794818E-16	3.283152E-17
3.804781E+03	5.908912E-16	3.335563E-17
3.814741E+03	6.024166E-16	3.388287E-17
3.824701E+03	6.140495E-16	3.441275E-17
3.834661E+03	6.257806E-16	3.494476E-17
3.844622E+03	6.376002E-16	3.547837E-17
3.854582E+03	6.494984E-16	3.601305E-17
3.864542E+03	6.614649E-16	3.654827E-17
3.874502E+03	6.735143E-16	3.708485E-17
3.884462E+03	6.855856E-16	3.761948E-17
3.894422E+03	6.977184E-16	3.815439E-17
3.904382E+03	7.099020E-16	3.868903E-17
3.914343E+03	7.220745E-16	3.922010E-17
3.924303E+03	7.342762E-16	3.974988E-17
3.934263E+03	7.464708E-16	4.027646E-17
3.944223E+03	7.586737E-16	4.080077E-17
3.954183E+03	7.708234E-16	4.131959E-17
3.964143E+03	7.829872E-16	4.183664E-17
3.974104E+03	7.950791E-16	4.234742E-17
3.984064E+03	8.071161E-16	4.285297E-17
3.994024E+03	8.191156E-16	4.335433E-17
4.003984E+03	8.310450E-16	4.384989E-17
4.013944E+03	8.428976E-16	4.433945E-17
4.023904E+03	8.546677E-16	4.482284E-17
4.033865E+03	8.663502E-16	4.529994E-17
4.043825E+03	8.779159E-16	4.576938E-17
4.053785E+03	8.894125E-16	4.623381E-17
4.063745E+03	9.007870E-16	4.669061E-17
4.073705E+03	9.120636E-16	4.714122E-17
4.083665E+03	9.232165E-16	4.758447E-17
4.093625E+03	9.342466E-16	4.802058E-17
4.103586E+03	9.451806E-16	4.845110E-17
4.113546E+03	9.559703E-16	4.887372E-17
4.123506E+03	9.666447E-16	4.929013E-17
4.133466E+03	9.772068E-16	4.970065E-17
4.143426E+03	9.876615E-16	5.010571E-17
4.153386E+03	9.979645E-16	5.050325E-17
4.163347E+03	1.008172E-15	5.089629E-17
4.173307E+03	1.018239E-15	5.128283E-17
4.183267E+03	1.028198E-15	5.166459E-17
4.193227E+03	1.038031E-15	5.204087E-17
4.203187E+03	1.047744E-15	5.241228E-17
4.213147E+03	1.057345E-15	5.277930E-17
4.223108E+03	1.066841E-15	5.314248E-17
4.233068E+03	1.076187E-15	5.349989E-17
4.243028E+03	1.085416E-15	5.385325E-17
4.252988E+03	1.094532E-15	5.420303E-17
4.262948E+03	1.103515E-15	5.454844E-17
4.272908E+03	1.112346E-15	5.488874E-17
4.282869E+03	1.121072E-15	5.522647E-17
4.292829E+03	1.129625E-15	5.555848E-17
4.302789E+03	1.138027E-15	5.588611E-17
4.312749E+03	1.146252E-15	5.620827E-17
4.322709E+03	1.154320E-15	5.652614E-17
4.332669E+03	1.162178E-15	5.683737E-17
4.342629E+03	1.169841E-15	5.714290E-17
4.352590E+03	1.177256E-15	5.744040E-17
4.362550E+03	1.184459E-15	5.773181E-17
4.372510E+03	1.191436E-15	5.801667E-17
4.382470E+03	1.198219E-15	5.829681E-17
4.392430E+03	1.204751E-15	5.856958E-17
4.402390E+03	1.211082E-15	5.883751E-17
4.412351E+03	1.217195E-15	5.909980E-17
4.422311E+03	1.223073E-15	5.935563E-17
4.432271E+03	1.228738E-15	5.960605E-17
4.442231E+03	1.234150E-15	5.984904E-17
4.452191E+03	1.239327E-15	6.008551E-17
4.462151E+03	1.244246E-15	6.031431E-17
4.472112E+03	1.248925E-15	6.053623E-17
4.482072E+03	1.253316E-15	6.074891E-17
4.492032E+03	1.257433E-15	6.095301E-17
4.501992E+03	1.261250E-15	6.114715E-17
4.511952E+03	1.264759E-15	6.133091E-17
4.521912E+03	1.267952E-15	6.150382E-17
4.531873E+03	1.270821E-15	6.166537E-17
4.541833E+03	1.273338E-15	6.181418E-17
4.551793E+03	1.275515E-15	6.195069E-17
4.561753E+03	1.277324E-15	6.207346E-17
4.571713E+03	1.278757E-15	6.218197E-17
4.581673E+03	1.279810E-15	6.227592E-17
4.591633E+03	1.280474E-15	6.235480E-17
4.601594E+03	1.280748E-15	6.241835E-17
4.611554E+03	1.280608E-15	6.246529E-17
4.621514E+03	1.280089E-15	6.249723E-17
4.631474E+03	1.279153E-15	6.251219E-17
4.641434E+03	1.277802E-15	6.251002E-17
4.651394E+03	1.276075E-15	6.249257E-17
4.661355E+03	1.273937E-15	6.245798E-17
4.671315E+03	1.271396E-15	6.240639E-17
4.681275E+03	1.268476E-15	6.233893E-17
4.691235E+03	1.265185E-15	6.225581E-17
4.701195E+03	1.261516E-15	6.215650E-17
4.711155E+03	1.257514E-15	6.204315E-17
4.721116E+03	1.253159E-15	6.191447E-17
4.731076E+03	1.248478E-15	6.177179E-17
4.741036E+03	1.243491E-15	6.161583E-17
4.750996E+03	1.238210E-15	6.144716E-17
4.760956E+03	1.232670E-15	6.126730E-17
4.770916E+03	1.226853E-15	6.107518E-17
4.780876E+03	1.220829E-15	6.087425E-17
4.790837E+03	1.214579E-15	6.066337E-17
4.800797E+03	1.208123E-15	6.044338E-17
4.810757E+03	1.201511E-15	6.021666E-17
4.820717E+03	1.194741E-15	5.998304E-17
4.830677E+03	1.187833E-15	5.974339E-17
4.840637E+03	1.180803E-15	5.949840E-17
4.850598E+03	1.173701E-15	5.925046E-17
4.860558E+03	1.166508E-15	5.899863E-17
4.870518E+03	1.159259E-15	5.874449E-17
4.880478E+03	1.151968E-15	5.848876E-17
4.890438E+03	1.144666E-15	5.823291E-17
4.900398E+03	1.137368E-15	5.797764E-17
4.910359E+03	1.130071E-15	5.772274E-17
4.920319E+03	1.122817E-15	5.747039E-17
4.930279E+03	1.115590E-15	5.721969E-17
4.940239E+03	1.108431E-15	5.697273E-17
4.950199E+03	1.101351E-15	5.673006E-17
4.960159E+03	1.094358E-15	5.649207E-17
4.970120E+03	1.087447E-15	5.625855E-17
4.980080E+03	1.080657E-15	5.603146E-17
4.990040E+03	1.073978E-15	5.581038E-17
5.000000E+03	1.067433E-15	5.559645E-17
5.009960E+03	1.061013E-15	5.538927E-17
5.019920E+03	1.054735E-15	5.518977E-17
5.029880E+03	1.048605E-15	5.499828E-17
5.039841E+03	1.042627E-15	5.481503E-17
5.049801E+03	1.036800E-15	5.464007E-17
5.059761E+03	1.031128E-15	5.447365E-17
5.069721E+03	1.025624E-15	5.431651E-17
5.079681E+03	1.020289E-15	5.416878E-17
5.089641E+03	1.015107E-15	5.402966E-17
5.099602E+03	1.010078E-15	5.389922E-17
5.109562E+03	1.005213E-15	5.377808E-17
5.119522E+03	1.000506E-15	5.366610E-17
5.129482E+03	9.959572E-16	5.356327E-17
5.139442E+03	9.915601E-16	5.346936E-17
5.149402E+03	9.872986E-16	5.338356E-17
5.159363E+03	9.831785E-16	5.330628E-17
5.169323E+03	9.791952E-16	5.323734E-17
5.179283E+03	9.753295E-16	5.317577E-17
5.189243E+03	9.716006E-16	5.312269E-17
5.199203E+03	9.679763E-16	5.307644E-17
5.209163E+03	9.644501E-16	5.303672E-17
5.219124E+03	9.610274E-16	5.300390E-17
5.229084E+03	9.577011E-16	5.297767E-17
5.239044E+03	9.544520E-16	5.295703E-17
5.249004E+03	9.512732E-16	5.294166E-17
5.258964E+03	9.481582E-16	5.293127E-17
5.268924E+03	9.451124E-16	5.292621E-17
5.278884E+03	9.421059E-16	5.292488E-17
5.288845E+03	9.391447E-16	5.292765E-17
5.298805E+03	9.362235E-16	5.293430E-17
5.308765E+03	9.333376E-16	5.294459E-17
5.318725E+03	9.304708E-16	5.295765E-17
5.328685E+03	9.276193E-16	5.297331E-17
5.338645E+03	9.247920E-16	5.299212E-17
5.348606E+03	9.219629E-16	5.301262E-17
5.358566E+03	9.191535E-16	5.303608E-17
5.368526E+03	9.163512E-16	5.306180E-17
5.378486E+03	9.135439E-16	5.308912E-17
5.388446E+03	9.107436E-16	5.311875E-17
5.398406E+03	9.079398E-16	5.315011E-17
5.408367E+03	9.051452E-16	5.318387E-17
5.418327E+03	9.023489E-16	5.321931E-17
5.428287E+03	8.995570E-16	5.325669E-17
5.438247E+03	8.967521E-16	5.329491E-17
5.448207E+03	8.939407E-16	5.333423E-17
5.458167E+03	8.910959E-16	5.337297E-17
5.468127E+03	8.882368E-16	5.341214E-17
5.478088E+03	8.853607E-16	5.345150E-17
5.488048E+03	8.824546E-16	5.349016E-17
5.498008E+03	8.795175E-16	5.352794E-17
5.507968E+03	8.765712E-16	5.356607E-17
5.517928E+03	8.735829E-16	5.360244E-17
5.527888E+03	8.705866E-16	5.363904E-17
5.537849E+03	8.675725E-16	5.367516E-17
5.547809E+03	8.645320E-16	5.371019E-17
5.557769E+03	8.614889E-16	5.374550E-17
5.567729E+03	8.584459E-16	5.378118E-17
5.577689E+03	8.553949E-16	5.381664E-17
5.587649E+03	8.523390E-16	5.385201E-17
5.597610E+03	8.493025E-16	5.388873E-17
5.607570E+03	8.462669E-16	5.392558E-17
5.617530E+03	8.432564E-16	5.396403E-17
5.627490E+03	8.402730E-16	5.400416E-17
5.637450E+03	8.373085E-16	5.404541E-17
5.647410E+03	8.343752E-16	5.408850E-17
5.657371E+03	8.314741E-16	5.413347E-17
5.667331E+03	8.286064E-16	5.418036E-17
5.677291E+03	8.257825E-16	5.422983E-17
5.687251E+03	8.229916E-16	5.428113E-17
5.697211E+03	8.202436E-16	5.433488E-17
5.707171E+03	8.175367E-16	5.439096E-17
5.717131E+03	8.148588E-16	5.444854E-17
5.727092E+03	8.122282E-16	5.450881E-17
5.737052E+03	8.096317E-16	5.457087E-17
5.747012E+03	8.070660E-16	5.463449E-17
5.756972E+03	8.045378E-16	5.470008E-17
5.766932E+03	8.020332E-16	5.476669E-17
5.776892E+03	7.995480E-16	5.483401E-17
5.786853E+03	7.970884E-16	5.490243E-17
5.796813E+03	7.946503E-16	5.497166E-17
5.806773E+03	7.922297E-16	5.504139E-17
5.816733E+03	7.898128E-16	5.511063E-17
5.826693E+03	7.874160E-16	5.518050E-17
5.836653E+03	7.850161E-16	5.524934E-17
5.846614E+03	7.826103E-16	5.531692E-17
5.856574E+03	7.802162E-16	5.538445E-17
5.866534E+03	7.778119E-16	5.545034E-17
5.876494E+03	7.754062E-16	5.551517E-17
5.886454E+03	7.729984E-16	5.557887E-17
5.896414E+03	7.705783E-16	5.564067E-17
5.906375E+03	7.681663E-16	5.570200E-17
5.916335E+03	7.657338E-16	5.576076E-17
5.926295E+03	7.633023E-16	5.581848E-17
5.936255E+03	7.608738E-16	5.587527E-17
5.946215E+03	7.584414E-16	5.593060E-17
5.956175E+03	7.560080E-16	5.598467E-17
5.966135E+03	7.535870E-16	5.603845E-17
5.976096E+03	7.511628E-16	5.609075E-17
5.986056E+03	7.487591E-16	5.614333E-17
5.996016E+03	7.463703E-16	5.619577E-17
6.005976E+03	7.439912E-16	5.624766E-17
6.015936E+03	7.416359E-16	5.630008E-17
6.025896E+03	7.393088E-16	5.635335E-17
6.035857E+03	7.370141E-16	5.640782E-17
6.045817E+03	7.347464E-16	5.646307E-17
6.055777E+03	7.325094E-16	5.651940E-17
6.065737E+03	7.303162E-16	5.657784E-17
6.075697E+03	7.281602E-16	5.663792E-17
6.085657E+03	7.260441E-16	5.669985E-17
6.095618E+03	7.239700E-16	5.676383E-17
6.105578E+03	7.219396E-16	5.683001E-17
6.115538E+03	7.199537E-16	5.689850E-17
6.125498E+03	7.180127E-16	5.696935E-17
6.135458E+03	7.161163E-16	5.704258E-17
6.145418E+03	7.142541E-16	5.711739E-17
6.155378E+03	7.124338E-16	5.719440E-17
6.165339E+03	7.106531E-16	5.727348E-17
6.175299E+03	7.088996E-16	5.735362E-17
6.185259E+03	7.071789E-16	5.743529E-17
6.195219E+03	7.054770E-16	5.751736E-17
6.205179E+03	7.037983E-16	5.760018E-17
6.215139E+03	7.021276E-16	5.768252E-17
6.225100E+03	7.004676E-16	5.776458E-17
6.235060E+03	6.988011E-16	5.784492E-17
6.245020E+03	6.971289E-16	5.792360E-17
6.254980E+03	6.954323E-16	5.799903E-17
6.264940E+03	6.937113E-16	5.807118E-17
6.274900E+03	6.919468E-16	5.813839E-17
6.284861E+03	6.901379E-16	5.820055E-17
6.294821E+03	6.882652E-16	5.825595E-17
6.304781E+03	6.863276E-16	5.830443E-17
6.314741E+03	6.843058E-16	5.834427E-17
6.324701E+03	6.821989E-16	5.837530E-17
6.334661E+03	6.799969E-16	5.839657E-17
6.344622E+03	6.776906E-16	5.840719E-17
6.354582E+03	6.752617E-16	5.840548E-17
6.364542E+03	6.727110E-16	5.839137E-17
6.374502E+03	6.700400E-16	5.836488E-17
6.384462E+03	6.672234E-16	5.832368E-17
6.394422E+03	6.642644E-16	5.826792E-17
6.404382E+03	6.611672E-16	5.819781E-17
6.414343E+03	6.579187E-16	5.811207E-17
6.424303E+03	6.545161E-16	5.801032E-17
6.434263E+03	6.509670E-16	5.789308E-17
6.444223E+03	6.472619E-16	5.775939E-17
6.454183E+03	6.434110E-16	5.760998E-17
6.464143E+03	6.394165E-16	5.744494E-17
6.474104E+03	6.352731E-16	5.726366E-17
6.484064E+03	6.310037E-16	5.706807E-17
6.494024E+03	6.266055E-16	5.685781E-17
6.503984E+03	6.220860E-16	5.663344E-17
6.513944E+03	6.174540E-16	5.639567E-17
6.523904E+03	6.127279E-16	5.614608E-17
6.533865E+03	6.079097E-16	5.588478E-17
6.543825E+03	6.030285E-16	5.561437E-17
6.553785E+03	5.980793E-16	5.533434E-17
6.563745E+03	5.930839E-16	5.504667E-17
6.573705E+03	5.880560E-16	5.475258E-17
6.583665E+03	5.830180E-16	5.445416E-17
6.593625E+03	5.779758E-16	5.415195E-17
6.603586E+03	5.729523E-16	5.384810E-17
6.613546E+03	5.679617E-16	5.354399E-17
6.623506E+03	5.630102E-16	5.324023E-17
6.633466E+03	5.581200E-16	5.293898E-17
6.643426E+03	5.533129E-16	5.264236E-17
6.653386E+03	5.485938E-16	5.235094E-17
6.663347E+03	5.439754E-16	5.206599E-17
6.673307E+03	5.394774E-16	5.178953E-17
6.683267E+03	5.351110E-16	5.152273E-17
6.693227E+03	5.308785E-16	5.126594E-17
6.703187E+03	5.268049E-16	5.102171E-17
6.713147E+03	5.228830E-16	5.078946E-17
6.723108E+03	5.191357E-16	5.057160E-17
6.733068E+03	5.155619E-16	5.036813E-17
6.743028E+03	5.121669E-16	5.017976E-17
6.752988E+03	5.089626E-16	5.000781E-17
6.762948E+03	5.059449E-16	4.985203E-17
6.772908E+03	5.031238E-16	4.971357E-17
6.782869E+03	5.005004E-16	4.959274E-17
6.792829E+03	4.980753E-16	4.948973E-17
6.802789E+03	4.958402E-16	4.940391E-17
6.812749E+03	4.938012E-16	4.933604E-17
6.822709E+03	4.919632E-16	4.928679E-17
6.832669E+03	4.903079E-16	4.925449E-17
6.842629E+03	4.888465E-16	4.924040E-17
6.852590E+03	4.875663E-16	4.924343E-17
6.862550E+03	4.864616E-16	4.926314E-17
6.872510E+03	4.855263E-16	4.929905E-17
6.882470E+03	4.847532E-16	4.935058E-17
6.892430E+03	4.841422E-16	4.941785E-17
6.902390E+03	4.836776E-16	4.949938E-17
6.912351E+03	4.833507E-16	4.959441E-17
6.922311E+03	4.831596E-16	4.970284E-17
6.932271E+03	4.830873E-16	4.982305E-17
6.942231E+03	4.831237E-16	4.995408E-17
6.952191E+03	4.832583E-16	5.009493E-17
6.962151E+03	4.834881E-16	5.024536E-17
6.972112E+03	4.837868E-16	5.040273E-17
6.982072E+03	4.841585E-16	5.056749E-17
6.992032E+03	4.845841E-16	5.073774E-17
7.001992E+03	4.850523E-16	5.091230E-17
7.011952E+03	4.855514E-16	5.109000E-17
7.021912E+03	4.860700E-16	5.126965E-17
7.031873E+03	4.865965E-16	5.145004E-17
7.041833E+03	4.871194E-16	5.162997E-17
7.051793E+03	4.876197E-16	5.180742E-17
7.061753E+03	4.880937E-16	5.198198E-17
7.071713E+03	4.885230E-16	5.215166E-17
7.081673E+03	4.889044E-16	5.231609E-17
7.091633E+03	4.892198E-16	5.247330E-17
7.101594E+03	4.894667E-16	5.262298E-17
7.111554E+03	4.896201E-16	5.276237E-17
7.121514E+03	4.896860E-16	5.289207E-17
7.131474E+03	4.896400E-16	5.300937E-17
7.141434E+03	4.894893E-16	5.311498E-17
7.151394E+03	4.892028E-16	5.320542E-17
7.161355E+03	4.887885E-16	5.328149E-17
7.171315E+03	4.882397E-16	5.334236E-17
7.181275E+03	4.875424E-16	5.338641E-17
7.191235E+03	4.866910E-16	5.341291E-17
7.201195E+03	4.856728E-16	5.342036E-17
7.211155E+03	4.844988E-16	5.340986E-17
7.221116E+03	4.831498E-16	5.337919E-17
7.231076E+03	4.816306E-16	5.332873E-17
7.241036E+03	4.799308E-16	5.325725E-17
7.250996E+03	4.780485E-16	5.316439E-17
7.260956E+03	4.759827E-16	5.304992E-17
7.270916E+03	4.737327E-16	5.291363E-17
7.280876E+03	4.712983E-16	5.275539E-17
7.290837E+03	4.686726E-16	5.257428E-17
7.300797E+03	4.658643E-16	5.237116E-17
7.310757E+03	4.628675E-16	5.214525E-17
7.320717E+03	4.596918E-16	5.189750E-17
7.330677E+03	4.563251E-16	5.162642E-17
7.340637E+03	4.527852E-16	5.133391E-17
7.350598E+03	4.490611E-16	5.101860E-17
7.360558E+03	4.451713E-16	5.068247E-17
7.370518E+03	4.411057E-16	5.032427E-17
7.380478E+03	4.368762E-16	4.994524E-17
7.390438E+03	4.324810E-16	4.954507E-17
7.400398E+03	4.279324E-16	4.912507E-17
7.410359E+03	4.232360E-16	4.868577E-17
7.420319E+03	4.183909E-16	4.822697E-17
7.430279E+03	4.134035E-16	4.774932E-17
7.440239E+03	4.082870E-16	4.725422E-17
7.450199E+03	4.030479E-16	4.674237E-17
7.460159E+03	3.976799E-16	4.621293E-17
7.470120E+03	3.922093E-16	4.566889E-17
7.480080E+03	3.866244E-16	4.510881E-17
7.490040E+03	3.809448E-16	4.453490E-17
7.500000E+03	3.751779E-16	4.394797E-17
7.509960E+03	3.693248E-16	4.334810E-17
7.519920E+03	3.633935E-16	4.273615E-17
7.529880E+03	3.573972E-16	4.211366E-17
7.539841E+03	3.513437E-16	4.148149E-17
7.549801E+03	3.452405E-16	4.084049E-17
7.559761E+03	3.390897E-16	4.019091E-17
7.569721E+03	3.328993E-16	3.953363E-17
7.579681E+03	3.266880E-16	3.887089E-17
7.589641E+03	3.204528E-16	3.820230E-17
7.599602E+03	3.142120E-16	3.753004E-17
7.609562E+03	3.079629E-16	3.685380E-17
7.619522E+03	3.017183E-16	3.617511E-17
7.629482E+03	2.954861E-16	3.549494E-17
7.639442E+03	2.892737E-16	3.481418E-17
7.649402E+03	2.830887E-16	3.413377E-17
7.659363E+03	2.769383E-16	3.345460E-17
7.669323E+03	2.708296E-16	3.277758E-17
7.679283E+03	2.647696E-16	3.210360E-17
7.689243E+03	2.587653E-16	3.143351E-17
7.699203E+03	2.528229E-16	3.076814E-17
7.709163E+03	2.469489E-16	3.010833E-17
7.719124E+03	2.411531E-16	2.945534E-17
7.729084E+03	2.354333E-16	2.880893E-17
