#wls	flux	fluxerr
1.600000E+03	8.974501E-18	5.785611E-19
1.640000E+03	9.068138E-18	5.833292E-19
1.680000E+03	9.168821E-18	5.884909E-19
1.720000E+03	9.276377E-18	5.940306E-19
1.760000E+03	9.392906E-18	6.000775E-19
1.800000E+03	9.518204E-18	6.066125E-19
1.840000E+03	9.653171E-18	6.136866E-19
1.880000E+03	9.798690E-18	6.213490E-19
1.920000E+03	9.954495E-18	6.295753E-19
1.960000E+03	1.012475E-17	6.386205E-19
2.000000E+03	1.030692E-17	6.483145E-19
2.040000E+03	1.050615E-17	6.589708E-19
2.080000E+03	1.072311E-17	6.706188E-19
2.120000E+03	1.096060E-17	6.834204E-19
2.160000E+03	1.122240E-17	6.975942E-19
2.200000E+03	1.151324E-17	7.134152E-19
2.240000E+03	1.183770E-17	7.311443E-19
2.280000E+03	1.220022E-17	7.510294E-19
2.320000E+03	1.260612E-17	7.733674E-19
2.360000E+03	1.305545E-17	7.981262E-19
2.400000E+03	1.355127E-17	8.254575E-19
2.440000E+03	1.409148E-17	8.551947E-19
2.480000E+03	1.467809E-17	8.874199E-19
2.520000E+03	1.531203E-17	9.221471E-19
2.560000E+03	1.599423E-17	9.593878E-19
2.600000E+03	1.672660E-17	9.992091E-19
2.640000E+03	1.750909E-17	1.041558E-18
2.680000E+03	1.834552E-17	1.086610E-18
2.720000E+03	1.923491E-17	1.134249E-18
2.760000E+03	2.018017E-17	1.184589E-18
2.800000E+03	2.118329E-17	1.237685E-18
2.840000E+03	2.224539E-17	1.293535E-18
2.880000E+03	2.337240E-17	1.352413E-18
2.920000E+03	2.457213E-17	1.414693E-18
2.960000E+03	2.585613E-17	1.480949E-18
3.000000E+03	2.723868E-17	1.551897E-18
3.010000E+03	2.760260E-17	1.570518E-18
3.020000E+03	2.797298E-17	1.589439E-18
3.030000E+03	2.835076E-17	1.608713E-18
3.040000E+03	2.873774E-17	1.628439E-18
3.050000E+03	2.913301E-17	1.648563E-18
3.060000E+03	2.953657E-17	1.669082E-18
3.070000E+03	2.995024E-17	1.690096E-18
3.080000E+03	3.037219E-17	1.711501E-18
3.090000E+03	3.080516E-17	1.733447E-18
3.100000E+03	3.124822E-17	1.755880E-18
3.110000E+03	3.170140E-17	1.778796E-18
3.120000E+03	3.216649E-17	1.802296E-18
3.130000E+03	3.264261E-17	1.826325E-18
3.140000E+03	3.313156E-17	1.850980E-18
3.150000E+03	3.363246E-17	1.876209E-18
3.160000E+03	3.414532E-17	1.902010E-18
3.170000E+03	3.467285E-17	1.928528E-18
3.180000E+03	3.521327E-17	1.955661E-18
3.190000E+03	3.576841E-17	1.983507E-18
3.200000E+03	3.633828E-17	2.012063E-18
3.210000E+03	3.692293E-17	2.041325E-18
3.220000E+03	3.752327E-17	2.071340E-18
3.230000E+03	3.813936E-17	2.102107E-18
3.240000E+03	3.877301E-17	2.133720E-18
3.250000E+03	3.942251E-17	2.166081E-18
3.260000E+03	4.008970E-17	2.199285E-18
3.270000E+03	4.077464E-17	2.233329E-18
3.280000E+03	4.147828E-17	2.268263E-18
3.290000E+03	4.219984E-17	2.304035E-18
3.300000E+03	4.294029E-17	2.340694E-18
3.310000E+03	4.369973E-17	2.378240E-18
3.320000E+03	4.447916E-17	2.416720E-18
3.330000E+03	4.527871E-17	2.456136E-18
3.340000E+03	4.609763E-17	2.496441E-18
3.350000E+03	4.693695E-17	2.537684E-18
3.360000E+03	4.779595E-17	2.579820E-18
3.370000E+03	4.867569E-17	2.622900E-18
3.380000E+03	4.957550E-17	2.666880E-18
3.390000E+03	5.049556E-17	2.711764E-18
3.400000E+03	5.143523E-17	2.757512E-18
3.410000E+03	5.239476E-17	2.804130E-18
3.420000E+03	5.337352E-17	2.851577E-18
3.430000E+03	5.437180E-17	2.899863E-18
3.440000E+03	5.538724E-17	2.948856E-18
3.450000E+03	5.642108E-17	2.998615E-18
3.460000E+03	5.747186E-17	3.049056E-18
3.470000E+03	5.853821E-17	3.100102E-18
3.480000E+03	5.962050E-17	3.151766E-18
3.490000E+03	6.071650E-17	3.203923E-18
3.500000E+03	6.182487E-17	3.256500E-18
3.510000E+03	6.294605E-17	3.309514E-18
3.520000E+03	6.407700E-17	3.362800E-18
3.530000E+03	6.521818E-17	3.416378E-18
3.540000E+03	6.636659E-17	3.470088E-18
3.550000E+03	6.752272E-17	3.523952E-18
3.560000E+03	6.868362E-17	3.577812E-18
3.570000E+03	6.984893E-17	3.631646E-18
3.580000E+03	7.101744E-17	3.685390E-18
3.590000E+03	7.218885E-17	3.739025E-18
3.600000E+03	7.336194E-17	3.792487E-18
3.610000E+03	7.453463E-17	3.845667E-18
3.620000E+03	7.570747E-17	3.898590E-18
3.630000E+03	7.687744E-17	3.951102E-18
3.640000E+03	7.804415E-17	4.003181E-18
3.650000E+03	7.920540E-17	4.054715E-18
3.660000E+03	8.036162E-17	4.105725E-18
3.670000E+03	8.151052E-17	4.156096E-18
3.680000E+03	8.265154E-17	4.205800E-18
3.690000E+03	8.378497E-17	4.254853E-18
3.700000E+03	8.490926E-17	4.303177E-18
3.710000E+03	8.602549E-17	4.350830E-18
3.720000E+03	8.713200E-17	4.397728E-18
3.730000E+03	8.822979E-17	4.443924E-18
3.740000E+03	8.931892E-17	4.489422E-18
3.750000E+03	9.039848E-17	4.534178E-18
3.760000E+03	9.146937E-17	4.578240E-18
3.770000E+03	9.253158E-17	4.621608E-18
3.780000E+03	9.358585E-17	4.664321E-18
3.790000E+03	9.463217E-17	4.706381E-18
3.800000E+03	9.567140E-17	4.747831E-18
3.810000E+03	9.670240E-17	4.788617E-18
3.820000E+03	9.772760E-17	4.828860E-18
3.830000E+03	9.874495E-17	4.868460E-18
3.840000E+03	9.975695E-17	4.907542E-18
3.850000E+03	1.007621E-16	4.946033E-18
3.860000E+03	1.017619E-16	4.984004E-18
3.870000E+03	1.027548E-16	5.021387E-18
3.880000E+03	1.037422E-16	5.058252E-18
3.890000E+03	1.047236E-16	5.094568E-18
3.900000E+03	1.056985E-16	5.130319E-18
3.910000E+03	1.066684E-16	5.165572E-18
3.920000E+03	1.076327E-16	5.200306E-18
3.930000E+03	1.085910E-16	5.234501E-18
3.940000E+03	1.095438E-16	5.268181E-18
3.950000E+03	1.104917E-16	5.301376E-18
3.960000E+03	1.114341E-16	5.334058E-18
3.970000E+03	1.123703E-16	5.366196E-18
3.980000E+03	1.132998E-16	5.397770E-18
3.990000E+03	1.142239E-16	5.428839E-18
4.000000E+03	1.151418E-16	5.459369E-18
4.010000E+03	1.160528E-16	5.489326E-18
4.020000E+03	1.169562E-16	5.518683E-18
4.030000E+03	1.178514E-16	5.547409E-18
4.040000E+03	1.187398E-16	5.575574E-18
4.050000E+03	1.196187E-16	5.603057E-18
4.060000E+03	1.204911E-16	5.629995E-18
4.070000E+03	1.213533E-16	5.656226E-18
4.080000E+03	1.222087E-16	5.681900E-18
4.090000E+03	1.230561E-16	5.706971E-18
4.100000E+03	1.238959E-16	5.731460E-18
4.110000E+03	1.247283E-16	5.755377E-18
4.120000E+03	1.255540E-16	5.778759E-18
4.130000E+03	1.263750E-16	5.801692E-18
4.140000E+03	1.271923E-16	5.824231E-18
4.150000E+03	1.280058E-16	5.846371E-18
4.160000E+03	1.288171E-16	5.868187E-18
4.170000E+03	1.296288E-16	5.889797E-18
4.180000E+03	1.304425E-16	5.911272E-18
4.190000E+03	1.312599E-16	5.932693E-18
4.200000E+03	1.320819E-16	5.954091E-18
4.210000E+03	1.329099E-16	5.975531E-18
4.220000E+03	1.337468E-16	5.997143E-18
4.230000E+03	1.345939E-16	6.018984E-18
4.240000E+03	1.354505E-16	6.041011E-18
4.250000E+03	1.363208E-16	6.063414E-18
4.260000E+03	1.372026E-16	6.086091E-18
4.270000E+03	1.380977E-16	6.109115E-18
4.280000E+03	1.390079E-16	6.132562E-18
4.290000E+03	1.399314E-16	6.156347E-18
4.300000E+03	1.408698E-16	6.180533E-18
4.310000E+03	1.418220E-16	6.205074E-18
4.320000E+03	1.427881E-16	6.229965E-18
4.330000E+03	1.437680E-16	6.255194E-18
4.340000E+03	1.447588E-16	6.280636E-18
4.350000E+03	1.457586E-16	6.306202E-18
4.360000E+03	1.467665E-16	6.331849E-18
4.370000E+03	1.477834E-16	6.357621E-18
4.380000E+03	1.488080E-16	6.383449E-18
4.390000E+03	1.498394E-16	6.409297E-18
4.400000E+03	1.508780E-16	6.435183E-18
4.410000E+03	1.519198E-16	6.460933E-18
4.420000E+03	1.529648E-16	6.486544E-18
4.430000E+03	1.540098E-16	6.511882E-18
4.440000E+03	1.550516E-16	6.536814E-18
4.450000E+03	1.560892E-16	6.561297E-18
4.460000E+03	1.571179E-16	6.585136E-18
4.470000E+03	1.581361E-16	6.608276E-18
4.480000E+03	1.591388E-16	6.630504E-18
4.490000E+03	1.601230E-16	6.651710E-18
4.500000E+03	1.610872E-16	6.671835E-18
4.510000E+03	1.620257E-16	6.690649E-18
4.520000E+03	1.629368E-16	6.708101E-18
4.530000E+03	1.638144E-16	6.723947E-18
4.540000E+03	1.646554E-16	6.738076E-18
4.550000E+03	1.654565E-16	6.750367E-18
4.560000E+03	1.662146E-16	6.760711E-18
4.570000E+03	1.669250E-16	6.768935E-18
4.580000E+03	1.675847E-16	6.774935E-18
4.590000E+03	1.681892E-16	6.778550E-18
4.600000E+03	1.687358E-16	6.779696E-18
4.610000E+03	1.692236E-16	6.778358E-18
4.620000E+03	1.696493E-16	6.774425E-18
4.630000E+03	1.700096E-16	6.767800E-18
4.640000E+03	1.703057E-16	6.758547E-18
4.650000E+03	1.705360E-16	6.746631E-18
4.660000E+03	1.707030E-16	6.732177E-18
4.670000E+03	1.708056E-16	6.715164E-18
4.680000E+03	1.708479E-16	6.695786E-18
4.690000E+03	1.708323E-16	6.674153E-18
4.700000E+03	1.707620E-16	6.650414E-18
4.710000E+03	1.706377E-16	6.624620E-18
4.720000E+03	1.704671E-16	6.597092E-18
4.730000E+03	1.702522E-16	6.567921E-18
4.740000E+03	1.699968E-16	6.537274E-18
4.750000E+03	1.697036E-16	6.505272E-18
4.760000E+03	1.693813E-16	6.472264E-18
4.770000E+03	1.690295E-16	6.438242E-18
4.780000E+03	1.686553E-16	6.403489E-18
4.790000E+03	1.682627E-16	6.368168E-18
4.800000E+03	1.678575E-16	6.332506E-18
4.810000E+03	1.674447E-16	6.296697E-18
4.820000E+03	1.670321E-16	6.261039E-18
4.830000E+03	1.666290E-16	6.225876E-18
4.840000E+03	1.662435E-16	6.191513E-18
4.850000E+03	1.658865E-16	6.158345E-18
4.860000E+03	1.655682E-16	6.126745E-18
4.870000E+03	1.652937E-16	6.096887E-18
4.880000E+03	1.650713E-16	6.069060E-18
4.890000E+03	1.649083E-16	6.043514E-18
4.900000E+03	1.648079E-16	6.020337E-18
4.910000E+03	1.647734E-16	5.999630E-18
4.920000E+03	1.648104E-16	5.981567E-18
4.930000E+03	1.649189E-16	5.966123E-18
4.940000E+03	1.650978E-16	5.953231E-18
4.950000E+03	1.653515E-16	5.943022E-18
4.960000E+03	1.656765E-16	5.935342E-18
4.970000E+03	1.660731E-16	5.930179E-18
4.980000E+03	1.665405E-16	5.927468E-18
4.990000E+03	1.670772E-16	5.927141E-18
5.000000E+03	1.676842E-16	5.929200E-18
5.010000E+03	1.683591E-16	5.933535E-18
5.020000E+03	1.691030E-16	5.940165E-18
5.030000E+03	1.699144E-16	5.949004E-18
5.040000E+03	1.707948E-16	5.960084E-18
5.050000E+03	1.717445E-16	5.973388E-18
5.060000E+03	1.727623E-16	5.988850E-18
5.070000E+03	1.738504E-16	6.006519E-18
5.080000E+03	1.750108E-16	6.026442E-18
5.090000E+03	1.762407E-16	6.048491E-18
5.100000E+03	1.775421E-16	6.072713E-18
5.110000E+03	1.789154E-16	6.099098E-18
5.120000E+03	1.803594E-16	6.127571E-18
5.130000E+03	1.818777E-16	6.158232E-18
5.140000E+03	1.834671E-16	6.190943E-18
5.150000E+03	1.851294E-16	6.225745E-18
5.160000E+03	1.868630E-16	6.262551E-18
5.170000E+03	1.886693E-16	6.301386E-18
5.180000E+03	1.905466E-16	6.342162E-18
5.190000E+03	1.924960E-16	6.384895E-18
5.200000E+03	1.945155E-16	6.429487E-18
5.210000E+03	1.966023E-16	6.475823E-18
5.220000E+03	1.987594E-16	6.523976E-18
5.230000E+03	2.009841E-16	6.573833E-18
5.240000E+03	2.032739E-16	6.625282E-18
5.250000E+03	2.056294E-16	6.678325E-18
5.260000E+03	2.080478E-16	6.732844E-18
5.270000E+03	2.105304E-16	6.788856E-18
5.280000E+03	2.130722E-16	6.846178E-18
5.290000E+03	2.156744E-16	6.904829E-18
5.300000E+03	2.183362E-16	6.964753E-18
5.310000E+03	2.210567E-16	7.025907E-18
5.320000E+03	2.238305E-16	7.088090E-18
5.330000E+03	2.266603E-16	7.151377E-18
5.340000E+03	2.295419E-16	7.215606E-18
5.350000E+03	2.324702E-16	7.280603E-18
5.360000E+03	2.354436E-16	7.346297E-18
5.370000E+03	2.384526E-16	7.412376E-18
5.380000E+03	2.414955E-16	7.478776E-18
5.390000E+03	2.445598E-16	7.545096E-18
5.400000E+03	2.476362E-16	7.611040E-18
5.410000E+03	2.507162E-16	7.676346E-18
5.420000E+03	2.537828E-16	7.740489E-18
5.430000E+03	2.568221E-16	7.803055E-18
5.440000E+03	2.598222E-16	7.863690E-18
5.450000E+03	2.627647E-16	7.921853E-18
5.460000E+03	2.656361E-16	7.977158E-18
5.470000E+03	2.684170E-16	8.029050E-18
5.480000E+03	2.710879E-16	8.076982E-18
5.490000E+03	2.736316E-16	8.120482E-18
5.500000E+03	2.760287E-16	8.159017E-18
5.510000E+03	2.782679E-16	8.192313E-18
5.520000E+03	2.803276E-16	8.219792E-18
5.530000E+03	2.821921E-16	8.241059E-18
5.540000E+03	2.838494E-16	8.255836E-18
5.550000E+03	2.852795E-16	8.263620E-18
5.560000E+03	2.864784E-16	8.264379E-18
5.570000E+03	2.874258E-16	8.257613E-18
5.580000E+03	2.881145E-16	8.243207E-18
5.590000E+03	2.885364E-16	8.221028E-18
5.600000E+03	2.886853E-16	8.190998E-18
5.610000E+03	2.885574E-16	8.153107E-18
5.620000E+03	2.881540E-16	8.107495E-18
5.630000E+03	2.874701E-16	8.054126E-18
5.640000E+03	2.865120E-16	7.993276E-18
5.650000E+03	2.852856E-16	7.925215E-18
5.660000E+03	2.837963E-16	7.850185E-18
5.670000E+03	2.820605E-16	7.768743E-18
5.680000E+03	2.800881E-16	7.681246E-18
5.690000E+03	2.778935E-16	7.588180E-18
5.700000E+03	2.754931E-16	7.490072E-18
5.710000E+03	2.729046E-16	7.387479E-18
5.720000E+03	2.701468E-16	7.280981E-18
5.730000E+03	2.672395E-16	7.171167E-18
5.740000E+03	2.642027E-16	7.058633E-18
5.750000E+03	2.610598E-16	6.944050E-18
5.760000E+03	2.578283E-16	6.827922E-18
5.770000E+03	2.545281E-16	6.710810E-18
5.780000E+03	2.511817E-16	6.593329E-18
5.790000E+03	2.478046E-16	6.475908E-18
5.800000E+03	2.444200E-16	6.359159E-18
5.810000E+03	2.410386E-16	6.243372E-18
5.820000E+03	2.376756E-16	6.128935E-18
5.830000E+03	2.343499E-16	6.016331E-18
5.840000E+03	2.310708E-16	5.905789E-18
5.850000E+03	2.278517E-16	5.797636E-18
5.860000E+03	2.246991E-16	5.692017E-18
5.870000E+03	2.216206E-16	5.589108E-18
5.880000E+03	2.186278E-16	5.489172E-18
5.890000E+03	2.157203E-16	5.392176E-18
5.900000E+03	2.129070E-16	5.298314E-18
5.910000E+03	2.101902E-16	5.207615E-18
5.920000E+03	2.075686E-16	5.120017E-18
5.930000E+03	2.050453E-16	5.035565E-18
5.940000E+03	2.026216E-16	4.954266E-18
5.950000E+03	2.002941E-16	4.876004E-18
5.960000E+03	1.980653E-16	4.800809E-18
5.970000E+03	1.959303E-16	4.728539E-18
5.980000E+03	1.938861E-16	4.659094E-18
5.990000E+03	1.919344E-16	4.592486E-18
6.000000E+03	1.900717E-16	4.528609E-18
6.010000E+03	1.882949E-16	4.467362E-18
6.020000E+03	1.866028E-16	4.408698E-18
6.030000E+03	1.849948E-16	4.352579E-18
6.040000E+03	1.834681E-16	4.298914E-18
6.050000E+03	1.820199E-16	4.247626E-18
6.060000E+03	1.806527E-16	4.198747E-18
6.070000E+03	1.793644E-16	4.152214E-18
6.080000E+03	1.781557E-16	4.108023E-18
6.090000E+03	1.770255E-16	4.066130E-18
6.100000E+03	1.759772E-16	4.026602E-18
6.110000E+03	1.750082E-16	3.989357E-18
6.120000E+03	1.741181E-16	3.954374E-18
6.130000E+03	1.733119E-16	3.921748E-18
6.140000E+03	1.725873E-16	3.891419E-18
6.150000E+03	1.719408E-16	3.863287E-18
6.160000E+03	1.713733E-16	3.837366E-18
6.170000E+03	1.708881E-16	3.813717E-18
6.180000E+03	1.704842E-16	3.792306E-18
6.190000E+03	1.701720E-16	3.773353E-18
6.200000E+03	1.699486E-16	3.756786E-18
6.210000E+03	1.698177E-16	3.742672E-18
6.220000E+03	1.697830E-16	3.731090E-18
6.230000E+03	1.698437E-16	3.722012E-18
6.240000E+03	1.700014E-16	3.715464E-18
6.250000E+03	1.702572E-16	3.711467E-18
6.260000E+03	1.706074E-16	3.709936E-18
6.270000E+03	1.710528E-16	3.710886E-18
6.280000E+03	1.715938E-16	3.714325E-18
6.290000E+03	1.722302E-16	3.720251E-18
6.300000E+03	1.729542E-16	3.728496E-18
6.310000E+03	1.737695E-16	3.739146E-18
6.320000E+03	1.746693E-16	3.752063E-18
6.330000E+03	1.756488E-16	3.767149E-18
6.340000E+03	1.767074E-16	3.784406E-18
6.350000E+03	1.778367E-16	3.803662E-18
6.360000E+03	1.790330E-16	3.824854E-18
6.370000E+03	1.802891E-16	3.847847E-18
6.380000E+03	1.816033E-16	3.872618E-18
6.390000E+03	1.829683E-16	3.899030E-18
6.400000E+03	1.843817E-16	3.927042E-18
6.410000E+03	1.858357E-16	3.956487E-18
6.420000E+03	1.873250E-16	3.987256E-18
6.430000E+03	1.888446E-16	4.019249E-18
6.440000E+03	1.903928E-16	4.052427E-18
6.450000E+03	1.919625E-16	4.086647E-18
6.460000E+03	1.935526E-16	4.121884E-18
6.470000E+03	1.951589E-16	4.158055E-18
6.480000E+03	1.967768E-16	4.195064E-18
6.490000E+03	1.984033E-16	4.232847E-18
6.500000E+03	2.000249E-16	4.271116E-18
6.510000E+03	2.016378E-16	4.309792E-18
6.520000E+03	2.032251E-16	4.348510E-18
6.530000E+03	2.047801E-16	4.387126E-18
6.540000E+03	2.062861E-16	4.425278E-18
6.550000E+03	2.077259E-16	4.462586E-18
6.560000E+03	2.090879E-16	4.498794E-18
6.570000E+03	2.103580E-16	4.533584E-18
6.580000E+03	2.115190E-16	4.566569E-18
6.590000E+03	2.125612E-16	4.597524E-18
6.600000E+03	2.134663E-16	4.626029E-18
6.610000E+03	2.142304E-16	4.651973E-18
6.620000E+03	2.148377E-16	4.674986E-18
6.630000E+03	2.152875E-16	4.695019E-18
6.640000E+03	2.155671E-16	4.711763E-18
6.650000E+03	2.156755E-16	4.725156E-18
6.660000E+03	2.156068E-16	4.735030E-18
6.670000E+03	2.153632E-16	4.741393E-18
6.680000E+03	2.149418E-16	4.744140E-18
6.690000E+03	2.143446E-16	4.743267E-18
6.700000E+03	2.135786E-16	4.738885E-18
6.710000E+03	2.126452E-16	4.730979E-18
6.720000E+03	2.115504E-16	4.719640E-18
6.730000E+03	2.103048E-16	4.705054E-18
6.740000E+03	2.089129E-16	4.687283E-18
6.750000E+03	2.073837E-16	4.666480E-18
6.760000E+03	2.057268E-16	4.642822E-18
6.770000E+03	2.039524E-16	4.616496E-18
6.780000E+03	2.020744E-16	4.587782E-18
6.790000E+03	2.001007E-16	4.556819E-18
6.800000E+03	1.980461E-16	4.523913E-18
6.810000E+03	1.959158E-16	4.489148E-18
6.820000E+03	1.937283E-16	4.452921E-18
6.830000E+03	1.914957E-16	4.415487E-18
6.840000E+03	1.892236E-16	4.376949E-18
6.850000E+03	1.869337E-16	4.337789E-18
6.860000E+03	1.846277E-16	4.298032E-18
6.870000E+03	1.823264E-16	4.258148E-18
6.880000E+03	1.800306E-16	4.218145E-18
6.890000E+03	1.777593E-16	4.178463E-18
6.900000E+03	1.755149E-16	4.139151E-18
6.910000E+03	1.733050E-16	4.100386E-18
6.920000E+03	1.711395E-16	4.062404E-18
6.930000E+03	1.690238E-16	4.025336E-18
6.940000E+03	1.669627E-16	3.989299E-18
6.950000E+03	1.649603E-16	3.954396E-18
6.960000E+03	1.630168E-16	3.920641E-18
6.970000E+03	1.611408E-16	3.888247E-18
6.980000E+03	1.593283E-16	3.857130E-18
6.990000E+03	1.575842E-16	3.827419E-18
7.000000E+03	1.559096E-16	3.799149E-18
7.010000E+03	1.543085E-16	3.772430E-18
7.020000E+03	1.527757E-16	3.747152E-18
7.030000E+03	1.513174E-16	3.723477E-18
7.040000E+03	1.499309E-16	3.701351E-18
7.050000E+03	1.486158E-16	3.680783E-18
7.060000E+03	1.473722E-16	3.661784E-18
7.070000E+03	1.462022E-16	3.644423E-18
7.080000E+03	1.451021E-16	3.628625E-18
7.090000E+03	1.440742E-16	3.614458E-18
7.100000E+03	1.431145E-16	3.601841E-18
7.110000E+03	1.422249E-16	3.590830E-18
7.120000E+03	1.414039E-16	3.581410E-18
7.130000E+03	1.406479E-16	3.573498E-18
7.140000E+03	1.399580E-16	3.567141E-18
7.150000E+03	1.393329E-16	3.562316E-18
7.160000E+03	1.387710E-16	3.558998E-18
7.170000E+03	1.382734E-16	3.557232E-18
7.180000E+03	1.378328E-16	3.556839E-18
7.190000E+03	1.374499E-16	3.557852E-18
7.200000E+03	1.371254E-16	3.560304E-18
7.210000E+03	1.368541E-16	3.564073E-18
7.220000E+03	1.366336E-16	3.569104E-18
7.230000E+03	1.364637E-16	3.575410E-18
7.240000E+03	1.363390E-16	3.582854E-18
7.250000E+03	1.362590E-16	3.591434E-18
7.260000E+03	1.362174E-16	3.601000E-18
7.270000E+03	1.362136E-16	3.611539E-18
7.280000E+03	1.362439E-16	3.622962E-18
7.290000E+03	1.363041E-16	3.635168E-18
7.300000E+03	1.363874E-16	3.647982E-18
7.310000E+03	1.364955E-16	3.661451E-18
7.320000E+03	1.366180E-16	3.675306E-18
7.330000E+03	1.367533E-16	3.689505E-18
7.340000E+03	1.368970E-16	3.703933E-18
7.350000E+03	1.370445E-16	3.718468E-18
7.360000E+03	1.371910E-16	3.732981E-18
7.370000E+03	1.373319E-16	3.747346E-18
7.380000E+03	1.374628E-16	3.761442E-18
7.390000E+03	1.375820E-16	3.775224E-18
7.400000E+03	1.376792E-16	3.788403E-18
7.410000E+03	1.377564E-16	3.801033E-18
7.420000E+03	1.378098E-16	3.813004E-18
7.430000E+03	1.378358E-16	3.824213E-18
7.440000E+03	1.378282E-16	3.834481E-18
7.450000E+03	1.377841E-16	3.843724E-18
7.460000E+03	1.377015E-16	3.851875E-18
7.470000E+03	1.375785E-16	3.858876E-18
7.480000E+03	1.374138E-16	3.864685E-18
7.490000E+03	1.372071E-16	3.869280E-18
7.500000E+03	1.369584E-16	3.872657E-18
7.510000E+03	1.366683E-16	3.874825E-18
7.520000E+03	1.363352E-16	3.875732E-18
7.530000E+03	1.359675E-16	3.875609E-18
7.540000E+03	1.355617E-16	3.874348E-18
7.550000E+03	1.351243E-16	3.872129E-18
7.560000E+03	1.346591E-16	3.869060E-18
7.570000E+03	1.341736E-16	3.865345E-18
7.580000E+03	1.336655E-16	3.860923E-18
7.590000E+03	1.331427E-16	3.856013E-18
7.600000E+03	1.326127E-16	3.850839E-18
7.610000E+03	1.320734E-16	3.845332E-18
7.620000E+03	1.315349E-16	3.839792E-18
7.630000E+03	1.309942E-16	3.834134E-18
7.640000E+03	1.304607E-16	3.828632E-18
7.650000E+03	1.299335E-16	3.823266E-18
7.660000E+03	1.294144E-16	3.818089E-18
7.670000E+03	1.289048E-16	3.813150E-18
7.680000E+03	1.284023E-16	3.808380E-18
7.690000E+03	1.279170E-16	3.804086E-18
7.700000E+03	1.274393E-16	3.799982E-18
7.710000E+03	1.269721E-16	3.796167E-18
7.720000E+03	1.265182E-16	3.792723E-18
7.730000E+03	1.260703E-16	3.789438E-18
7.740000E+03	1.256335E-16	3.786469E-18
7.750000E+03	1.252062E-16	3.783774E-18
7.760000E+03	1.247798E-16	3.781091E-18
