#wls	flux	fluxerr
1.600000E+03	3.124038E-18	1.700153E-19
1.640000E+03	3.139277E-18	1.707153E-19
1.680000E+03	3.156941E-18	1.715428E-19
1.720000E+03	3.175294E-18	1.724032E-19
1.760000E+03	3.196163E-18	1.733953E-19
1.800000E+03	3.219609E-18	1.745221E-19
1.840000E+03	3.245086E-18	1.757535E-19
1.880000E+03	3.273262E-18	1.771252E-19
1.920000E+03	3.304826E-18	1.786740E-19
1.960000E+03	3.339864E-18	1.804039E-19
2.000000E+03	3.379098E-18	1.823532E-19
2.040000E+03	3.422639E-18	1.845270E-19
2.080000E+03	3.470606E-18	1.869309E-19
2.120000E+03	3.524410E-18	1.896400E-19
2.160000E+03	3.583567E-18	1.926270E-19
2.200000E+03	3.648888E-18	1.959343E-19
2.240000E+03	3.719897E-18	1.995352E-19
2.280000E+03	3.798100E-18	2.035091E-19
2.320000E+03	3.882373E-18	2.077941E-19
2.360000E+03	3.973590E-18	2.124358E-19
2.400000E+03	4.071975E-18	2.174442E-19
2.440000E+03	4.177067E-18	2.227933E-19
2.480000E+03	4.289792E-18	2.285305E-19
2.520000E+03	4.409696E-18	2.346300E-19
2.560000E+03	4.537019E-18	2.411024E-19
2.600000E+03	4.672014E-18	2.479593E-19
2.640000E+03	4.814938E-18	2.552122E-19
2.680000E+03	4.966056E-18	2.628730E-19
2.720000E+03	5.125639E-18	2.709536E-19
2.760000E+03	5.293963E-18	2.794663E-19
2.800000E+03	5.470540E-18	2.883827E-19
2.840000E+03	5.656394E-18	2.977543E-19
2.880000E+03	5.850230E-18	3.075103E-19
2.920000E+03	6.053848E-18	3.177426E-19
2.960000E+03	6.268312E-18	3.285040E-19
3.000000E+03	6.494711E-18	3.398481E-19
3.010000E+03	6.552799E-18	3.427551E-19
3.020000E+03	6.612886E-18	3.457637E-19
3.030000E+03	6.673338E-18	3.487885E-19
3.040000E+03	6.734982E-18	3.518726E-19
3.050000E+03	6.797826E-18	3.550164E-19
3.060000E+03	6.861046E-18	3.581766E-19
3.070000E+03	6.926311E-18	3.614405E-19
3.080000E+03	6.991961E-18	3.647212E-19
3.090000E+03	7.059677E-18	3.681064E-19
3.100000E+03	7.128632E-18	3.715528E-19
3.110000E+03	7.197984E-18	3.750166E-19
3.120000E+03	7.269431E-18	3.785860E-19
3.130000E+03	7.342136E-18	3.822173E-19
3.140000E+03	7.416962E-18	3.859554E-19
3.150000E+03	7.493063E-18	3.897561E-19
3.160000E+03	7.570446E-18	3.936197E-19
3.170000E+03	7.649980E-18	3.975912E-19
3.180000E+03	7.730813E-18	4.016263E-19
3.190000E+03	7.814688E-18	4.058153E-19
3.200000E+03	7.899881E-18	4.100686E-19
3.210000E+03	7.987272E-18	4.144316E-19
3.220000E+03	8.076873E-18	4.189050E-19
3.230000E+03	8.168697E-18	4.234891E-19
3.240000E+03	8.262754E-18	4.281843E-19
3.250000E+03	8.359054E-18	4.329911E-19
3.260000E+03	8.458498E-18	4.379558E-19
3.270000E+03	8.561103E-18	4.430792E-19
3.280000E+03	8.665991E-18	4.483155E-19
3.290000E+03	8.774069E-18	4.537116E-19
3.300000E+03	8.885351E-18	4.592680E-19
3.310000E+03	8.999854E-18	4.649851E-19
3.320000E+03	9.117591E-18	4.708636E-19
3.330000E+03	9.239482E-18	4.769506E-19
3.340000E+03	9.364637E-18	4.832000E-19
3.350000E+03	9.493981E-18	4.896591E-19
3.360000E+03	9.627530E-18	4.963286E-19
3.370000E+03	9.764380E-18	5.031615E-19
3.380000E+03	9.906384E-18	5.102530E-19
3.390000E+03	1.005263E-17	5.175561E-19
3.400000E+03	1.020408E-17	5.251191E-19
3.410000E+03	1.036072E-17	5.329417E-19
3.420000E+03	1.052164E-17	5.409769E-19
3.430000E+03	1.068872E-17	5.493206E-19
3.440000E+03	1.086011E-17	5.578768E-19
3.450000E+03	1.103766E-17	5.667414E-19
3.460000E+03	1.122142E-17	5.759151E-19
3.470000E+03	1.141136E-17	5.853972E-19
3.480000E+03	1.160750E-17	5.951878E-19
3.490000E+03	1.180984E-17	6.052861E-19
3.500000E+03	1.201933E-17	6.157405E-19
3.510000E+03	1.223500E-17	6.265008E-19
3.520000E+03	1.245780E-17	6.376155E-19
3.530000E+03	1.268771E-17	6.490825E-19
3.540000E+03	1.292472E-17	6.609011E-19
3.550000E+03	1.316880E-17	6.730687E-19
3.560000E+03	1.342087E-17	6.856332E-19
3.570000E+03	1.368091E-17	6.985914E-19
3.580000E+03	1.394889E-17	7.119415E-19
3.590000E+03	1.422375E-17	7.256296E-19
3.600000E+03	1.450741E-17	7.397526E-19
3.610000E+03	1.479880E-17	7.542553E-19
3.620000E+03	1.509885E-17	7.691842E-19
3.630000E+03	1.540647E-17	7.844835E-19
3.640000E+03	1.572257E-17	8.001988E-19
3.650000E+03	1.604700E-17	8.163224E-19
3.660000E+03	1.637870E-17	8.327989E-19
3.670000E+03	1.671949E-17	8.497205E-19
3.680000E+03	1.706823E-17	8.670293E-19
3.690000E+03	1.742478E-17	8.847166E-19
3.700000E+03	1.778896E-17	9.027731E-19
3.710000E+03	1.816158E-17	9.212396E-19
3.720000E+03	1.854146E-17	9.400548E-19
3.730000E+03	1.892835E-17	9.592063E-19
3.740000E+03	1.932404E-17	9.787845E-19
3.750000E+03	1.972529E-17	9.986235E-19
3.760000E+03	2.013483E-17	1.018862E-18
3.770000E+03	2.054938E-17	1.039333E-18
3.780000E+03	2.097165E-17	1.060173E-18
3.790000E+03	2.139933E-17	1.081266E-18
3.800000E+03	2.183210E-17	1.102593E-18
3.810000E+03	2.227160E-17	1.124239E-18
3.820000E+03	2.271449E-17	1.146034E-18
3.830000E+03	2.316339E-17	1.168109E-18
3.840000E+03	2.361493E-17	1.190294E-18
3.850000E+03	2.407169E-17	1.212720E-18
3.860000E+03	2.453027E-17	1.235214E-18
3.870000E+03	2.499224E-17	1.257856E-18
3.880000E+03	2.545619E-17	1.280574E-18
3.890000E+03	2.592167E-17	1.303346E-18
3.900000E+03	2.638725E-17	1.326099E-18
3.910000E+03	2.685448E-17	1.348911E-18
3.920000E+03	2.732190E-17	1.371711E-18
3.930000E+03	2.778811E-17	1.394425E-18
3.940000E+03	2.825267E-17	1.417034E-18
3.950000E+03	2.871614E-17	1.439564E-18
3.960000E+03	2.917714E-17	1.461948E-18
3.970000E+03	2.963527E-17	1.484166E-18
3.980000E+03	3.008923E-17	1.506152E-18
3.990000E+03	3.054059E-17	1.527984E-18
4.000000E+03	3.098618E-17	1.549507E-18
4.010000E+03	3.142765E-17	1.570801E-18
4.020000E+03	3.186383E-17	1.591809E-18
4.030000E+03	3.229360E-17	1.612477E-18
4.040000E+03	3.271779E-17	1.632844E-18
4.050000E+03	3.313539E-17	1.652862E-18
4.060000E+03	3.354734E-17	1.672579E-18
4.070000E+03	3.395184E-17	1.691904E-18
4.080000E+03	3.434903E-17	1.710846E-18
4.090000E+03	3.474002E-17	1.729460E-18
4.100000E+03	3.512416E-17	1.747715E-18
4.110000E+03	3.550179E-17	1.765628E-18
4.120000E+03	3.587241E-17	1.783174E-18
4.130000E+03	3.623739E-17	1.800424E-18
4.140000E+03	3.659552E-17	1.817316E-18
4.150000E+03	3.694828E-17	1.833926E-18
4.160000E+03	3.729549E-17	1.850244E-18
4.170000E+03	3.763872E-17	1.866349E-18
4.180000E+03	3.797706E-17	1.882196E-18
4.190000E+03	3.831221E-17	1.897870E-18
4.200000E+03	3.864419E-17	1.913373E-18
4.210000E+03	3.897391E-17	1.928749E-18
4.220000E+03	3.930234E-17	1.944048E-18
4.230000E+03	3.962961E-17	1.959275E-18
4.240000E+03	3.995672E-17	1.974481E-18
4.250000E+03	4.028469E-17	1.989715E-18
4.260000E+03	4.061449E-17	2.005027E-18
4.270000E+03	4.094633E-17	2.020425E-18
4.280000E+03	4.128040E-17	2.035920E-18
4.290000E+03	4.161927E-17	2.051639E-18
4.300000E+03	4.196227E-17	2.067547E-18
4.310000E+03	4.230956E-17	2.083653E-18
4.320000E+03	4.266355E-17	2.100076E-18
4.330000E+03	4.302350E-17	2.116779E-18
4.340000E+03	4.339097E-17	2.133837E-18
4.350000E+03	4.376509E-17	2.151209E-18
4.360000E+03	4.414732E-17	2.168965E-18
4.370000E+03	4.453819E-17	2.187132E-18
4.380000E+03	4.493743E-17	2.205695E-18
4.390000E+03	4.534546E-17	2.224675E-18
4.400000E+03	4.576258E-17	2.244086E-18
4.410000E+03	4.618827E-17	2.263902E-18
4.420000E+03	4.662341E-17	2.284165E-18
4.430000E+03	4.706801E-17	2.304878E-18
4.440000E+03	4.752124E-17	2.325998E-18
4.450000E+03	4.798291E-17	2.347515E-18
4.460000E+03	4.845347E-17	2.369451E-18
4.470000E+03	4.893099E-17	2.391712E-18
4.480000E+03	4.941496E-17	2.414272E-18
4.490000E+03	4.990547E-17	2.437136E-18
4.500000E+03	5.040102E-17	2.460231E-18
4.510000E+03	5.090000E-17	2.483478E-18
4.520000E+03	5.140144E-17	2.506828E-18
4.530000E+03	5.190424E-17	2.530231E-18
4.540000E+03	5.240724E-17	2.553629E-18
4.550000E+03	5.290840E-17	2.576923E-18
4.560000E+03	5.340714E-17	2.600085E-18
4.570000E+03	5.390127E-17	2.623009E-18
4.580000E+03	5.438856E-17	2.645587E-18
4.590000E+03	5.486821E-17	2.667782E-18
4.600000E+03	5.533864E-17	2.689518E-18
4.610000E+03	5.579750E-17	2.710681E-18
4.620000E+03	5.624319E-17	2.731194E-18
4.630000E+03	5.667337E-17	2.750946E-18
4.640000E+03	5.708722E-17	2.769897E-18
4.650000E+03	5.748321E-17	2.787975E-18
4.660000E+03	5.785913E-17	2.805075E-18
4.670000E+03	5.821362E-17	2.821131E-18
4.680000E+03	5.854536E-17	2.836082E-18
4.690000E+03	5.885321E-17	2.849874E-18
4.700000E+03	5.913612E-17	2.862458E-18
4.710000E+03	5.939245E-17	2.873757E-18
4.720000E+03	5.962219E-17	2.883771E-18
4.730000E+03	5.982402E-17	2.892439E-18
4.740000E+03	5.999831E-17	2.899781E-18
4.750000E+03	6.014409E-17	2.905751E-18
4.760000E+03	6.026136E-17	2.910351E-18
4.770000E+03	6.035033E-17	2.913594E-18
4.780000E+03	6.041071E-17	2.915466E-18
4.790000E+03	6.044395E-17	2.916040E-18
4.800000E+03	6.045179E-17	2.915402E-18
4.810000E+03	6.043490E-17	2.913584E-18
4.820000E+03	6.039649E-17	2.910744E-18
4.830000E+03	6.033727E-17	2.906916E-18
4.840000E+03	6.026110E-17	2.902288E-18
4.850000E+03	6.017061E-17	2.896987E-18
4.860000E+03	6.006787E-17	2.891114E-18
4.870000E+03	5.995639E-17	2.884838E-18
4.880000E+03	5.983897E-17	2.878295E-18
4.890000E+03	5.971841E-17	2.871620E-18
4.900000E+03	5.959744E-17	2.864943E-18
4.910000E+03	5.947939E-17	2.858424E-18
4.920000E+03	5.936676E-17	2.852184E-18
4.930000E+03	5.926198E-17	2.846338E-18
4.940000E+03	5.916734E-17	2.840996E-18
4.950000E+03	5.908563E-17	2.836292E-18
4.960000E+03	5.901883E-17	2.832319E-18
4.970000E+03	5.896881E-17	2.829167E-18
4.980000E+03	5.893789E-17	2.826946E-18
4.990000E+03	5.892699E-17	2.825699E-18
5.000000E+03	5.893815E-17	2.825523E-18
5.010000E+03	5.897327E-17	2.826509E-18
5.020000E+03	5.903218E-17	2.828647E-18
5.030000E+03	5.911781E-17	2.832077E-18
5.040000E+03	5.922972E-17	2.836777E-18
5.050000E+03	5.936929E-17	2.842811E-18
5.060000E+03	5.953780E-17	2.850241E-18
5.070000E+03	5.973508E-17	2.859057E-18
5.080000E+03	5.996154E-17	2.869278E-18
5.090000E+03	6.021811E-17	2.880947E-18
5.100000E+03	6.050498E-17	2.894073E-18
5.110000E+03	6.082221E-17	2.908658E-18
5.120000E+03	6.116981E-17	2.924701E-18
5.130000E+03	6.154830E-17	2.942227E-18
5.140000E+03	6.195613E-17	2.961160E-18
5.150000E+03	6.239496E-17	2.981580E-18
5.160000E+03	6.286234E-17	3.003369E-18
5.170000E+03	6.335904E-17	3.026562E-18
5.180000E+03	6.388440E-17	3.051129E-18
5.190000E+03	6.443762E-17	3.077029E-18
5.200000E+03	6.501710E-17	3.104187E-18
5.210000E+03	6.562245E-17	3.132583E-18
5.220000E+03	6.625246E-17	3.162159E-18
5.230000E+03	6.690506E-17	3.192816E-18
5.240000E+03	6.758017E-17	3.224550E-18
5.250000E+03	6.827541E-17	3.257248E-18
5.260000E+03	6.898823E-17	3.290787E-18
5.270000E+03	6.971804E-17	3.325139E-18
5.280000E+03	7.046126E-17	3.360134E-18
5.290000E+03	7.121623E-17	3.395692E-18
5.300000E+03	7.198119E-17	3.431731E-18
5.310000E+03	7.275197E-17	3.468049E-18
5.320000E+03	7.352647E-17	3.504549E-18
5.330000E+03	7.430167E-17	3.541087E-18
5.340000E+03	7.507519E-17	3.577549E-18
5.350000E+03	7.584224E-17	3.613707E-18
5.360000E+03	7.660016E-17	3.649436E-18
5.370000E+03	7.734546E-17	3.684569E-18
5.380000E+03	7.807457E-17	3.718937E-18
5.390000E+03	7.878387E-17	3.752368E-18
5.400000E+03	7.946969E-17	3.784687E-18
5.410000E+03	8.012758E-17	3.815684E-18
5.420000E+03	8.075552E-17	3.845263E-18
5.430000E+03	8.134835E-17	3.873178E-18
5.440000E+03	8.190422E-17	3.899343E-18
5.450000E+03	8.241816E-17	3.923520E-18
5.460000E+03	8.288865E-17	3.945640E-18
5.470000E+03	8.331106E-17	3.965482E-18
5.480000E+03	8.368348E-17	3.982955E-18
5.490000E+03	8.400343E-17	3.997941E-18
5.500000E+03	8.426954E-17	4.010378E-18
5.510000E+03	8.447827E-17	4.020096E-18
5.520000E+03	8.462889E-17	4.027062E-18
5.530000E+03	8.472107E-17	4.031259E-18
5.540000E+03	8.475230E-17	4.032570E-18
5.550000E+03	8.472300E-17	4.031014E-18
5.560000E+03	8.463394E-17	4.026628E-18
5.570000E+03	8.448545E-17	4.019429E-18
5.580000E+03	8.427659E-17	4.009372E-18
5.590000E+03	8.401011E-17	3.996587E-18
5.600000E+03	8.368747E-17	3.981145E-18
5.610000E+03	8.330961E-17	3.963090E-18
5.620000E+03	8.287867E-17	3.942523E-18
5.630000E+03	8.239788E-17	3.919599E-18
5.640000E+03	8.186910E-17	3.894405E-18
5.650000E+03	8.129527E-17	3.867083E-18
5.660000E+03	8.068033E-17	3.837817E-18
5.670000E+03	8.002678E-17	3.806728E-18
5.680000E+03	7.933808E-17	3.773980E-18
5.690000E+03	7.861857E-17	3.739778E-18
5.700000E+03	7.787111E-17	3.704259E-18
5.710000E+03	7.709859E-17	3.667559E-18
5.720000E+03	7.630623E-17	3.629927E-18
5.730000E+03	7.549692E-17	3.591499E-18
5.740000E+03	7.467423E-17	3.552446E-18
5.750000E+03	7.384172E-17	3.512935E-18
5.760000E+03	7.300206E-17	3.473093E-18
5.770000E+03	7.215999E-17	3.433147E-18
5.780000E+03	7.131651E-17	3.393142E-18
5.790000E+03	7.047671E-17	3.353321E-18
5.800000E+03	6.964134E-17	3.313719E-18
5.810000E+03	6.881440E-17	3.274526E-18
5.820000E+03	6.799763E-17	3.235825E-18
5.830000E+03	6.719328E-17	3.197721E-18
5.840000E+03	6.640337E-17	3.160312E-18
5.850000E+03	6.562974E-17	3.123685E-18
5.860000E+03	6.487339E-17	3.087887E-18
5.870000E+03	6.413639E-17	3.053015E-18
5.880000E+03	6.341935E-17	3.019101E-18
5.890000E+03	6.272334E-17	2.986193E-18
5.900000E+03	6.204984E-17	2.954363E-18
5.910000E+03	6.139839E-17	2.923589E-18
5.920000E+03	6.076955E-17	2.893896E-18
5.930000E+03	6.016431E-17	2.865333E-18
5.940000E+03	5.958298E-17	2.837915E-18
5.950000E+03	5.902454E-17	2.811592E-18
5.960000E+03	5.848966E-17	2.786397E-18
5.970000E+03	5.797828E-17	2.762326E-18
5.980000E+03	5.748972E-17	2.739349E-18
5.990000E+03	5.702381E-17	2.717456E-18
6.000000E+03	5.658030E-17	2.696637E-18
6.010000E+03	5.615892E-17	2.676878E-18
6.020000E+03	5.575880E-17	2.658138E-18
6.030000E+03	5.538015E-17	2.640427E-18
6.040000E+03	5.502210E-17	2.623705E-18
6.050000E+03	5.468376E-17	2.607929E-18
6.060000E+03	5.436533E-17	2.593109E-18
6.070000E+03	5.406651E-17	2.579230E-18
6.080000E+03	5.378646E-17	2.566254E-18
6.090000E+03	5.352439E-17	2.554142E-18
6.100000E+03	5.328111E-17	2.542934E-18
6.110000E+03	5.305589E-17	2.532595E-18
6.120000E+03	5.284803E-17	2.523093E-18
6.130000E+03	5.265791E-17	2.514445E-18
6.140000E+03	5.248592E-17	2.506671E-18
6.150000E+03	5.233147E-17	2.499743E-18
6.160000E+03	5.219498E-17	2.493682E-18
6.170000E+03	5.207796E-17	2.488560E-18
6.180000E+03	5.198038E-17	2.484376E-18
6.190000E+03	5.190325E-17	2.481178E-18
6.200000E+03	5.184502E-17	2.478896E-18
6.210000E+03	5.180521E-17	2.477504E-18
6.220000E+03	5.178229E-17	2.476931E-18
6.230000E+03	5.177626E-17	2.477177E-18
6.240000E+03	5.178708E-17	2.478241E-18
6.250000E+03	5.181466E-17	2.480120E-18
6.260000E+03	5.185894E-17	2.482811E-18
6.270000E+03	5.191925E-17	2.486283E-18
6.280000E+03	5.199595E-17	2.490554E-18
6.290000E+03	5.208932E-17	2.495637E-18
6.300000E+03	5.219909E-17	2.501522E-18
6.310000E+03	5.232495E-17	2.508193E-18
6.320000E+03	5.246649E-17	2.515632E-18
6.330000E+03	5.262382E-17	2.523844E-18
6.340000E+03	5.279695E-17	2.532832E-18
6.350000E+03	5.298479E-17	2.542544E-18
6.360000E+03	5.318775E-17	2.553000E-18
6.370000E+03	5.340458E-17	2.564141E-18
6.380000E+03	5.363556E-17	2.575982E-18
6.390000E+03	5.387984E-17	2.588482E-18
6.400000E+03	5.413585E-17	2.601567E-18
6.410000E+03	5.440362E-17	2.615238E-18
6.420000E+03	5.468190E-17	2.629437E-18
6.430000E+03	5.496988E-17	2.644124E-18
6.440000E+03	5.526482E-17	2.659168E-18
6.450000E+03	5.556602E-17	2.674536E-18
6.460000E+03	5.587141E-17	2.690129E-18
6.470000E+03	5.617696E-17	2.705752E-18
6.480000E+03	5.648138E-17	2.721343E-18
6.490000E+03	5.678084E-17	2.736718E-18
6.500000E+03	5.707325E-17	2.751776E-18
6.510000E+03	5.735704E-17	2.766441E-18
6.520000E+03	5.762943E-17	2.780577E-18
6.530000E+03	5.788889E-17	2.794112E-18
6.540000E+03	5.813267E-17	2.806910E-18
6.550000E+03	5.835934E-17	2.818902E-18
6.560000E+03	5.856503E-17	2.829900E-18
6.570000E+03	5.874847E-17	2.839842E-18
6.580000E+03	5.890664E-17	2.848580E-18
6.590000E+03	5.903853E-17	2.856064E-18
6.600000E+03	5.914078E-17	2.862129E-18
6.610000E+03	5.921275E-17	2.866743E-18
6.620000E+03	5.925211E-17	2.869791E-18
6.630000E+03	5.925802E-17	2.871230E-18
6.640000E+03	5.922861E-17	2.870967E-18
6.650000E+03	5.916357E-17	2.868985E-18
6.660000E+03	5.906286E-17	2.865280E-18
6.670000E+03	5.892545E-17	2.859800E-18
6.680000E+03	5.875124E-17	2.852536E-18
6.690000E+03	5.854110E-17	2.843529E-18
6.700000E+03	5.829552E-17	2.832801E-18
6.710000E+03	5.801530E-17	2.820387E-18
6.720000E+03	5.770154E-17	2.806338E-18
6.730000E+03	5.735560E-17	2.790719E-18
6.740000E+03	5.697977E-17	2.773638E-18
6.750000E+03	5.657524E-17	2.755152E-18
6.760000E+03	5.614477E-17	2.735391E-18
6.770000E+03	5.569061E-17	2.714465E-18
6.780000E+03	5.521519E-17	2.692489E-18
6.790000E+03	5.472043E-17	2.669556E-18
6.800000E+03	5.421027E-17	2.645857E-18
6.810000E+03	5.368681E-17	2.621492E-18
6.820000E+03	5.315281E-17	2.596595E-18
6.830000E+03	5.261168E-17	2.571331E-18
6.840000E+03	5.206552E-17	2.545804E-18
6.850000E+03	5.151708E-17	2.520146E-18
6.860000E+03	5.096959E-17	2.494514E-18
6.870000E+03	5.042498E-17	2.469004E-18
6.880000E+03	4.988630E-17	2.443765E-18
6.890000E+03	4.935526E-17	2.418881E-18
6.900000E+03	4.883463E-17	2.394486E-18
6.910000E+03	4.832644E-17	2.370683E-18
6.920000E+03	4.783200E-17	2.347535E-18
6.930000E+03	4.735359E-17	2.325155E-18
6.940000E+03	4.689224E-17	2.303594E-18
6.950000E+03	4.644992E-17	2.282951E-18
6.960000E+03	4.602790E-17	2.263289E-18
6.970000E+03	4.562676E-17	2.244638E-18
6.980000E+03	4.524750E-17	2.227048E-18
6.990000E+03	4.489149E-17	2.210588E-18
7.000000E+03	4.455895E-17	2.195271E-18
7.010000E+03	4.425101E-17	2.181152E-18
7.020000E+03	4.396763E-17	2.168233E-18
7.030000E+03	4.370868E-17	2.156509E-18
7.040000E+03	4.347554E-17	2.146048E-18
7.050000E+03	4.326787E-17	2.136836E-18
7.060000E+03	4.308527E-17	2.128855E-18
7.070000E+03	4.292883E-17	2.122161E-18
7.080000E+03	4.279697E-17	2.116677E-18
7.090000E+03	4.269064E-17	2.112451E-18
7.100000E+03	4.260965E-17	2.109477E-18
7.110000E+03	4.255275E-17	2.107694E-18
7.120000E+03	4.252016E-17	2.107114E-18
7.130000E+03	4.251155E-17	2.107722E-18
7.140000E+03	4.252647E-17	2.109500E-18
7.150000E+03	4.256396E-17	2.112399E-18
7.160000E+03	4.262296E-17	2.116369E-18
7.170000E+03	4.270392E-17	2.121434E-18
7.180000E+03	4.280515E-17	2.127512E-18
7.190000E+03	4.292647E-17	2.134594E-18
7.200000E+03	4.306604E-17	2.142592E-18
7.210000E+03	4.322358E-17	2.151491E-18
7.220000E+03	4.339820E-17	2.161250E-18
7.230000E+03	4.358788E-17	2.171768E-18
7.240000E+03	4.379270E-17	2.183050E-18
7.250000E+03	4.401053E-17	2.194992E-18
7.260000E+03	4.424024E-17	2.207538E-18
7.270000E+03	4.448013E-17	2.220604E-18
7.280000E+03	4.472953E-17	2.234157E-18
7.290000E+03	4.498663E-17	2.248107E-18
7.300000E+03	4.525015E-17	2.262391E-18
7.310000E+03	4.551763E-17	2.276886E-18
7.320000E+03	4.578883E-17	2.291580E-18
7.330000E+03	4.606123E-17	2.306347E-18
7.340000E+03	4.633288E-17	2.321090E-18
7.350000E+03	4.660349E-17	2.335795E-18
7.360000E+03	4.687054E-17	2.350333E-18
7.370000E+03	4.713200E-17	2.364604E-18
7.380000E+03	4.738710E-17	2.378567E-18
7.390000E+03	4.763387E-17	2.392125E-18
7.400000E+03	4.787159E-17	2.405239E-18
7.410000E+03	4.809778E-17	2.417785E-18
7.420000E+03	4.831183E-17	2.429730E-18
7.430000E+03	4.851255E-17	2.441014E-18
7.440000E+03	4.869886E-17	2.451581E-18
7.450000E+03	4.886912E-17	2.461348E-18
7.460000E+03	4.902361E-17	2.470328E-18
7.470000E+03	4.916027E-17	2.478416E-18
7.480000E+03	4.927894E-17	2.485601E-18
7.490000E+03	4.937894E-17	2.491848E-18
7.500000E+03	4.946036E-17	2.497161E-18
7.510000E+03	4.952207E-17	2.501481E-18
7.520000E+03	4.956433E-17	2.504819E-18
7.530000E+03	4.958624E-17	2.507130E-18
7.540000E+03	4.958886E-17	2.508463E-18
7.550000E+03	4.957209E-17	2.508814E-18
7.560000E+03	4.953528E-17	2.508148E-18
7.570000E+03	4.947914E-17	2.506498E-18
7.580000E+03	4.940440E-17	2.503902E-18
7.590000E+03	4.931064E-17	2.500336E-18
7.600000E+03	4.919936E-17	2.495874E-18
7.610000E+03	4.906961E-17	2.490468E-18
7.620000E+03	4.892234E-17	2.484163E-18
7.630000E+03	4.875856E-17	2.477011E-18
7.640000E+03	4.857868E-17	2.469031E-18
7.650000E+03	4.838244E-17	2.460208E-18
7.660000E+03	4.817157E-17	2.450629E-18
7.670000E+03	4.794522E-17	2.440250E-18
7.680000E+03	4.770508E-17	2.429157E-18
7.690000E+03	4.745095E-17	2.417336E-18
7.700000E+03	4.718325E-17	2.404810E-18
7.710000E+03	4.690300E-17	2.391629E-18
7.720000E+03	4.660997E-17	2.377780E-18
7.730000E+03	4.630515E-17	2.363313E-18
7.740000E+03	4.598825E-17	2.348213E-18
7.750000E+03	4.566023E-17	2.332528E-18
7.760000E+03	4.532078E-17	2.316240E-18
