#wls	flux	fluxerr
1.600000E+03	2.828350E-18	8.567281E-20
1.640000E+03	2.850427E-18	8.633843E-20
1.680000E+03	2.874540E-18	8.706560E-20
1.720000E+03	2.900190E-18	8.783921E-20
1.760000E+03	2.928002E-18	8.867815E-20
1.800000E+03	2.958050E-18	8.958469E-20
1.840000E+03	2.990995E-18	9.057879E-20
1.880000E+03	3.026347E-18	9.164566E-20
1.920000E+03	3.064792E-18	9.280600E-20
1.960000E+03	3.106439E-18	9.406314E-20
2.000000E+03	3.152018E-18	9.543915E-20
2.040000E+03	3.201675E-18	9.693840E-20
2.080000E+03	3.254941E-18	9.854674E-20
2.120000E+03	3.313222E-18	1.003067E-19
2.160000E+03	3.376076E-18	1.022048E-19
2.200000E+03	3.444335E-18	1.042662E-19
2.240000E+03	3.517563E-18	1.064778E-19
2.280000E+03	3.597296E-18	1.088860E-19
2.320000E+03	3.682460E-18	1.114582E-19
2.360000E+03	3.774653E-18	1.142428E-19
2.400000E+03	3.873482E-18	1.172279E-19
2.440000E+03	3.979235E-18	1.204221E-19
2.480000E+03	4.092928E-18	1.238561E-19
2.520000E+03	4.214911E-18	1.275405E-19
2.560000E+03	4.345549E-18	1.314862E-19
2.600000E+03	4.485221E-18	1.357048E-19
2.640000E+03	4.634321E-18	1.402080E-19
2.680000E+03	4.794038E-18	1.450317E-19
2.720000E+03	4.964834E-18	1.501899E-19
2.760000E+03	5.147181E-18	1.556968E-19
2.800000E+03	5.343205E-18	1.616166E-19
2.840000E+03	5.553484E-18	1.679667E-19
2.880000E+03	5.778607E-18	1.747649E-19
2.920000E+03	6.021755E-18	1.821072E-19
2.960000E+03	6.284537E-18	1.900422E-19
3.000000E+03	6.569514E-18	1.986471E-19
3.010000E+03	6.644693E-18	2.009172E-19
3.020000E+03	6.721385E-18	2.032329E-19
3.030000E+03	6.799603E-18	2.055946E-19
3.040000E+03	6.879364E-18	2.080029E-19
3.050000E+03	6.960678E-18	2.104581E-19
3.060000E+03	7.044481E-18	2.129885E-19
3.070000E+03	7.129874E-18	2.155668E-19
3.080000E+03	7.216868E-18	2.181935E-19
3.090000E+03	7.306413E-18	2.208972E-19
3.100000E+03	7.397591E-18	2.236501E-19
3.110000E+03	7.491361E-18	2.264814E-19
3.120000E+03	7.586798E-18	2.293629E-19
3.130000E+03	7.684868E-18	2.323239E-19
3.140000E+03	7.785593E-18	2.353651E-19
3.150000E+03	7.888035E-18	2.384581E-19
3.160000E+03	7.994138E-18	2.416616E-19
3.170000E+03	8.101995E-18	2.449180E-19
3.180000E+03	8.212589E-18	2.482571E-19
3.190000E+03	8.325944E-18	2.516795E-19
3.200000E+03	8.442079E-18	2.551858E-19
3.210000E+03	8.562006E-18	2.588066E-19
3.220000E+03	8.684762E-18	2.625128E-19
3.230000E+03	8.810363E-18	2.663049E-19
3.240000E+03	8.938829E-18	2.701835E-19
3.250000E+03	9.071185E-18	2.741794E-19
3.260000E+03	9.207458E-18	2.782936E-19
3.270000E+03	9.346660E-18	2.824962E-19
3.280000E+03	9.489824E-18	2.868184E-19
3.290000E+03	9.636974E-18	2.912609E-19
3.300000E+03	9.788135E-18	2.958245E-19
3.310000E+03	9.943327E-18	3.005098E-19
3.320000E+03	1.010257E-17	3.053173E-19
3.330000E+03	1.026693E-17	3.102792E-19
3.340000E+03	1.043432E-17	3.153328E-19
3.350000E+03	1.060793E-17	3.205738E-19
3.360000E+03	1.078566E-17	3.259392E-19
3.370000E+03	1.096751E-17	3.314292E-19
3.380000E+03	1.115564E-17	3.371086E-19
3.390000E+03	1.134793E-17	3.429134E-19
3.400000E+03	1.154652E-17	3.489086E-19
3.410000E+03	1.174927E-17	3.550291E-19
3.420000E+03	1.195835E-17	3.613406E-19
3.430000E+03	1.217376E-17	3.678435E-19
3.440000E+03	1.239442E-17	3.745045E-19
3.450000E+03	1.262142E-17	3.813569E-19
3.460000E+03	1.285475E-17	3.884003E-19
3.470000E+03	1.309330E-17	3.956011E-19
3.480000E+03	1.333925E-17	4.030255E-19
3.490000E+03	1.359261E-17	4.106734E-19
3.500000E+03	1.385111E-17	4.184760E-19
3.510000E+03	1.411807E-17	4.265343E-19
3.520000E+03	1.439122E-17	4.347793E-19
3.530000E+03	1.467162E-17	4.432430E-19
3.540000E+03	1.495925E-17	4.519249E-19
3.550000E+03	1.525402E-17	4.608221E-19
3.560000E+03	1.555587E-17	4.699328E-19
3.570000E+03	1.586585E-17	4.792890E-19
3.580000E+03	1.618390E-17	4.888885E-19
3.590000E+03	1.650990E-17	4.987278E-19
3.600000E+03	1.684375E-17	5.088040E-19
3.610000E+03	1.718533E-17	5.191133E-19
3.620000E+03	1.753449E-17	5.296513E-19
3.630000E+03	1.789224E-17	5.404484E-19
3.640000E+03	1.825727E-17	5.514651E-19
3.650000E+03	1.863055E-17	5.627303E-19
3.660000E+03	1.901305E-17	5.742739E-19
3.670000E+03	1.940223E-17	5.860187E-19
3.680000E+03	1.980020E-17	5.980288E-19
3.690000E+03	2.020554E-17	6.102609E-19
3.700000E+03	2.061916E-17	6.227428E-19
3.710000E+03	2.104077E-17	6.354654E-19
3.720000E+03	2.147007E-17	6.484201E-19
3.730000E+03	2.190675E-17	6.615971E-19
3.740000E+03	2.235047E-17	6.749863E-19
3.750000E+03	2.280204E-17	6.886122E-19
3.760000E+03	2.325992E-17	7.024282E-19
3.770000E+03	2.372607E-17	7.164937E-19
3.780000E+03	2.419773E-17	7.307247E-19
3.790000E+03	2.467564E-17	7.451444E-19
3.800000E+03	2.515936E-17	7.597388E-19
3.810000E+03	2.564958E-17	7.745293E-19
3.820000E+03	2.614582E-17	7.895007E-19
3.830000E+03	2.664519E-17	8.045664E-19
3.840000E+03	2.715067E-17	8.198163E-19
3.850000E+03	2.766052E-17	8.351973E-19
3.860000E+03	2.817293E-17	8.506553E-19
3.870000E+03	2.868963E-17	8.662424E-19
3.880000E+03	2.920758E-17	8.818669E-19
3.890000E+03	2.972841E-17	8.975778E-19
3.900000E+03	3.025136E-17	9.133521E-19
3.910000E+03	3.077330E-17	9.290955E-19
3.920000E+03	3.129570E-17	9.448525E-19
3.930000E+03	3.181766E-17	9.605954E-19
3.940000E+03	3.233708E-17	9.762615E-19
3.950000E+03	3.285414E-17	9.918559E-19
3.960000E+03	3.336782E-17	1.007348E-18
3.970000E+03	3.387594E-17	1.022671E-18
3.980000E+03	3.437745E-17	1.037795E-18
3.990000E+03	3.487351E-17	1.052754E-18
4.000000E+03	3.535975E-17	1.067415E-18
4.010000E+03	3.583735E-17	1.081816E-18
4.020000E+03	3.630530E-17	1.095925E-18
4.030000E+03	3.676160E-17	1.109682E-18
4.040000E+03	3.720540E-17	1.123061E-18
4.050000E+03	3.763598E-17	1.136041E-18
4.060000E+03	3.805271E-17	1.148603E-18
4.070000E+03	3.845511E-17	1.160732E-18
4.080000E+03	3.884180E-17	1.172386E-18
4.090000E+03	3.921363E-17	1.183592E-18
4.100000E+03	3.956959E-17	1.194318E-18
4.110000E+03	3.990885E-17	1.204540E-18
4.120000E+03	4.023280E-17	1.214300E-18
4.130000E+03	4.054101E-17	1.223584E-18
4.140000E+03	4.083424E-17	1.232417E-18
4.150000E+03	4.111342E-17	1.240825E-18
4.160000E+03	4.137781E-17	1.248786E-18
4.170000E+03	4.162968E-17	1.256370E-18
4.180000E+03	4.186955E-17	1.263592E-18
4.190000E+03	4.209905E-17	1.270500E-18
4.200000E+03	4.231902E-17	1.277121E-18
4.210000E+03	4.253040E-17	1.283482E-18
4.220000E+03	4.273511E-17	1.289643E-18
4.230000E+03	4.293511E-17	1.295661E-18
4.240000E+03	4.313064E-17	1.301544E-18
4.250000E+03	4.332371E-17	1.307353E-18
4.260000E+03	4.351540E-17	1.313120E-18
4.270000E+03	4.370764E-17	1.318904E-18
4.280000E+03	4.390064E-17	1.324711E-18
4.290000E+03	4.409701E-17	1.330620E-18
4.300000E+03	4.429604E-17	1.336609E-18
4.310000E+03	4.449938E-17	1.342728E-18
4.320000E+03	4.470860E-17	1.349024E-18
4.330000E+03	4.492360E-17	1.355496E-18
4.340000E+03	4.514575E-17	1.362182E-18
4.350000E+03	4.537480E-17	1.369077E-18
4.360000E+03	4.561118E-17	1.376193E-18
4.370000E+03	4.585596E-17	1.383563E-18
4.380000E+03	4.610935E-17	1.391192E-18
4.390000E+03	4.636996E-17	1.399040E-18
4.400000E+03	4.663922E-17	1.407148E-18
4.410000E+03	4.691617E-17	1.415489E-18
4.420000E+03	4.720047E-17	1.424051E-18
4.430000E+03	4.749157E-17	1.432818E-18
4.440000E+03	4.778873E-17	1.441768E-18
4.450000E+03	4.809028E-17	1.450852E-18
4.460000E+03	4.839652E-17	1.460076E-18
4.470000E+03	4.870609E-17	1.469401E-18
4.480000E+03	4.901882E-17	1.478821E-18
4.490000E+03	4.933363E-17	1.488304E-18
4.500000E+03	4.964787E-17	1.497771E-18
4.510000E+03	4.996215E-17	1.507238E-18
4.520000E+03	5.027348E-17	1.516617E-18
4.530000E+03	5.058143E-17	1.525893E-18
4.540000E+03	5.088266E-17	1.534968E-18
4.550000E+03	5.117577E-17	1.543797E-18
4.560000E+03	5.145927E-17	1.552337E-18
4.570000E+03	5.173081E-17	1.560516E-18
4.580000E+03	5.198804E-17	1.568264E-18
4.590000E+03	5.222852E-17	1.575506E-18
4.600000E+03	5.245051E-17	1.582191E-18
4.610000E+03	5.265159E-17	1.588246E-18
4.620000E+03	5.282942E-17	1.593599E-18
4.630000E+03	5.298246E-17	1.598205E-18
4.640000E+03	5.310863E-17	1.602001E-18
4.650000E+03	5.320674E-17	1.604951E-18
4.660000E+03	5.327584E-17	1.607026E-18
4.670000E+03	5.331389E-17	1.608164E-18
4.680000E+03	5.332054E-17	1.608356E-18
4.690000E+03	5.329571E-17	1.607599E-18
4.700000E+03	5.323971E-17	1.605902E-18
4.710000E+03	5.315187E-17	1.603245E-18
4.720000E+03	5.303383E-17	1.599677E-18
4.730000E+03	5.288567E-17	1.595202E-18
4.740000E+03	5.270974E-17	1.589889E-18
4.750000E+03	5.250684E-17	1.583763E-18
4.760000E+03	5.227936E-17	1.576897E-18
4.770000E+03	5.202936E-17	1.569351E-18
4.780000E+03	5.175922E-17	1.561199E-18
4.790000E+03	5.147274E-17	1.552554E-18
4.800000E+03	5.117152E-17	1.543465E-18
4.810000E+03	5.085970E-17	1.534057E-18
4.820000E+03	5.054048E-17	1.524426E-18
4.830000E+03	5.021721E-17	1.514673E-18
4.840000E+03	4.989319E-17	1.504898E-18
4.850000E+03	4.957175E-17	1.495201E-18
4.860000E+03	4.925661E-17	1.485695E-18
4.870000E+03	4.895078E-17	1.476470E-18
4.880000E+03	4.865708E-17	1.467612E-18
4.890000E+03	4.837873E-17	1.459217E-18
4.900000E+03	4.811700E-17	1.451323E-18
4.910000E+03	4.787513E-17	1.444029E-18
4.920000E+03	4.765503E-17	1.437392E-18
4.930000E+03	4.745831E-17	1.431461E-18
4.940000E+03	4.728684E-17	1.426291E-18
4.950000E+03	4.714064E-17	1.421884E-18
4.960000E+03	4.702158E-17	1.418296E-18
4.970000E+03	4.693024E-17	1.415545E-18
4.980000E+03	4.686643E-17	1.413624E-18
4.990000E+03	4.683137E-17	1.412571E-18
5.000000E+03	4.682405E-17	1.412354E-18
5.010000E+03	4.684536E-17	1.413002E-18
5.020000E+03	4.689459E-17	1.414492E-18
5.030000E+03	4.697145E-17	1.416816E-18
5.040000E+03	4.707613E-17	1.419980E-18
5.050000E+03	4.720777E-17	1.423957E-18
5.060000E+03	4.736648E-17	1.428751E-18
5.070000E+03	4.755189E-17	1.434351E-18
5.080000E+03	4.776309E-17	1.440729E-18
5.090000E+03	4.800022E-17	1.447889E-18
5.100000E+03	4.826292E-17	1.455821E-18
5.110000E+03	4.855083E-17	1.464514E-18
5.120000E+03	4.886361E-17	1.473958E-18
5.130000E+03	4.920096E-17	1.484143E-18
5.140000E+03	4.956255E-17	1.495060E-18
5.150000E+03	4.994808E-17	1.506700E-18
5.160000E+03	5.035724E-17	1.519052E-18
5.170000E+03	5.078971E-17	1.532109E-18
5.180000E+03	5.124513E-17	1.545858E-18
5.190000E+03	5.172311E-17	1.560288E-18
5.200000E+03	5.222318E-17	1.575385E-18
5.210000E+03	5.274478E-17	1.591132E-18
5.220000E+03	5.328726E-17	1.607510E-18
5.230000E+03	5.384980E-17	1.624493E-18
5.240000E+03	5.443200E-17	1.642070E-18
5.250000E+03	5.503155E-17	1.660171E-18
5.260000E+03	5.564761E-17	1.678770E-18
5.270000E+03	5.627856E-17	1.697820E-18
5.280000E+03	5.692253E-17	1.717262E-18
5.290000E+03	5.757678E-17	1.737016E-18
5.300000E+03	5.824009E-17	1.757043E-18
5.310000E+03	5.890864E-17	1.777229E-18
5.320000E+03	5.958011E-17	1.797504E-18
5.330000E+03	6.025075E-17	1.817755E-18
5.340000E+03	6.091783E-17	1.837899E-18
5.350000E+03	6.157777E-17	1.857828E-18
5.360000E+03	6.222621E-17	1.877410E-18
5.370000E+03	6.285988E-17	1.896548E-18
5.380000E+03	6.347417E-17	1.915102E-18
5.390000E+03	6.406500E-17	1.932949E-18
5.400000E+03	6.462896E-17	1.949985E-18
5.410000E+03	6.516134E-17	1.966069E-18
5.420000E+03	6.565752E-17	1.981062E-18
5.430000E+03	6.611500E-17	1.994887E-18
5.440000E+03	6.652945E-17	2.007415E-18
5.450000E+03	6.689672E-17	2.018520E-18
5.460000E+03	6.721498E-17	2.028146E-18
5.470000E+03	6.747996E-17	2.036165E-18
5.480000E+03	6.768908E-17	2.042499E-18
5.490000E+03	6.784081E-17	2.047101E-18
5.500000E+03	6.793333E-17	2.049917E-18
5.510000E+03	6.796462E-17	2.050886E-18
5.520000E+03	6.793381E-17	2.049981E-18
5.530000E+03	6.784117E-17	2.047210E-18
5.540000E+03	6.768550E-17	2.042538E-18
5.550000E+03	6.746947E-17	2.036044E-18
5.560000E+03	6.719286E-17	2.027722E-18
5.570000E+03	6.685802E-17	2.017643E-18
5.580000E+03	6.646634E-17	2.005848E-18
5.590000E+03	6.602168E-17	1.992454E-18
5.600000E+03	6.552556E-17	1.977507E-18
5.610000E+03	6.498182E-17	1.961123E-18
5.620000E+03	6.439458E-17	1.943425E-18
5.630000E+03	6.376622E-17	1.924487E-18
5.640000E+03	6.310183E-17	1.904460E-18
5.650000E+03	6.240413E-17	1.883428E-18
5.660000E+03	6.167844E-17	1.861550E-18
5.670000E+03	6.092762E-17	1.838914E-18
5.680000E+03	6.015700E-17	1.815680E-18
5.690000E+03	5.936951E-17	1.791936E-18
5.700000E+03	5.856980E-17	1.767822E-18
5.710000E+03	5.776189E-17	1.743460E-18
5.720000E+03	5.694969E-17	1.718969E-18
5.730000E+03	5.613646E-17	1.694446E-18
5.740000E+03	5.532648E-17	1.670020E-18
5.750000E+03	5.452274E-17	1.645782E-18
5.760000E+03	5.372916E-17	1.621850E-18
5.770000E+03	5.294790E-17	1.598290E-18
5.780000E+03	5.218299E-17	1.575222E-18
5.790000E+03	5.143666E-17	1.552715E-18
5.800000E+03	5.071140E-17	1.530843E-18
5.810000E+03	5.000942E-17	1.509673E-18
5.820000E+03	4.933215E-17	1.489249E-18
5.830000E+03	4.868176E-17	1.469636E-18
5.840000E+03	4.805912E-17	1.450860E-18
5.850000E+03	4.746534E-17	1.432955E-18
5.860000E+03	4.690174E-17	1.415960E-18
5.870000E+03	4.636799E-17	1.399866E-18
5.880000E+03	4.586499E-17	1.384701E-18
5.890000E+03	4.539289E-17	1.370468E-18
5.900000E+03	4.495129E-17	1.357155E-18
5.910000E+03	4.454001E-17	1.344757E-18
5.920000E+03	4.415911E-17	1.333276E-18
5.930000E+03	4.380717E-17	1.322669E-18
5.940000E+03	4.348426E-17	1.312939E-18
5.950000E+03	4.318817E-17	1.304018E-18
5.960000E+03	4.291897E-17	1.295908E-18
5.970000E+03	4.267407E-17	1.288533E-18
5.980000E+03	4.245276E-17	1.281869E-18
5.990000E+03	4.225298E-17	1.275856E-18
6.000000E+03	4.207298E-17	1.270439E-18
6.010000E+03	4.191054E-17	1.265552E-18
6.020000E+03	4.176425E-17	1.261153E-18
6.030000E+03	4.163233E-17	1.257188E-18
6.040000E+03	4.151272E-17	1.253595E-18
6.050000E+03	4.140347E-17	1.250314E-18
6.060000E+03	4.130398E-17	1.247328E-18
6.070000E+03	4.121229E-17	1.244577E-18
6.080000E+03	4.112784E-17	1.242045E-18
6.090000E+03	4.104952E-17	1.239698E-18
6.100000E+03	4.097685E-17	1.237522E-18
6.110000E+03	4.090962E-17	1.235510E-18
6.120000E+03	4.084745E-17	1.233650E-18
6.130000E+03	4.079056E-17	1.231950E-18
6.140000E+03	4.073939E-17	1.230423E-18
6.150000E+03	4.069458E-17	1.229088E-18
6.160000E+03	4.065647E-17	1.227955E-18
6.170000E+03	4.062676E-17	1.227075E-18
6.180000E+03	4.060635E-17	1.226477E-18
6.190000E+03	4.059627E-17	1.226190E-18
6.200000E+03	4.059665E-17	1.226220E-18
6.210000E+03	4.060920E-17	1.226617E-18
6.220000E+03	4.063435E-17	1.227395E-18
6.230000E+03	4.067279E-17	1.228574E-18
6.240000E+03	4.072549E-17	1.230184E-18
6.250000E+03	4.079251E-17	1.232226E-18
6.260000E+03	4.087493E-17	1.234734E-18
6.270000E+03	4.097252E-17	1.237700E-18
6.280000E+03	4.108570E-17	1.241137E-18
6.290000E+03	4.121479E-17	1.245054E-18
6.300000E+03	4.135957E-17	1.249446E-18
6.310000E+03	4.151976E-17	1.254304E-18
6.320000E+03	4.169493E-17	1.259614E-18
6.330000E+03	4.188540E-17	1.265386E-18
6.340000E+03	4.208972E-17	1.271577E-18
6.350000E+03	4.230802E-17	1.278190E-18
6.360000E+03	4.253948E-17	1.285202E-18
6.370000E+03	4.278273E-17	1.292569E-18
6.380000E+03	4.303804E-17	1.300301E-18
6.390000E+03	4.330335E-17	1.308336E-18
6.400000E+03	4.357782E-17	1.316647E-18
6.410000E+03	4.386046E-17	1.325206E-18
6.420000E+03	4.414972E-17	1.333964E-18
6.430000E+03	4.444391E-17	1.342872E-18
6.440000E+03	4.474166E-17	1.351888E-18
6.450000E+03	4.504146E-17	1.360965E-18
6.460000E+03	4.534170E-17	1.370057E-18
6.470000E+03	4.564015E-17	1.379094E-18
6.480000E+03	4.593494E-17	1.388021E-18
6.490000E+03	4.622458E-17	1.396793E-18
6.500000E+03	4.650607E-17	1.405318E-18
6.510000E+03	4.677777E-17	1.413548E-18
6.520000E+03	4.703558E-17	1.421358E-18
6.530000E+03	4.727682E-17	1.428668E-18
6.540000E+03	4.749940E-17	1.435414E-18
6.550000E+03	4.769926E-17	1.441473E-18
6.560000E+03	4.787500E-17	1.446804E-18
6.570000E+03	4.802380E-17	1.451320E-18
6.580000E+03	4.814299E-17	1.454942E-18
6.590000E+03	4.823161E-17	1.457640E-18
6.600000E+03	4.828724E-17	1.459341E-18
6.610000E+03	4.830813E-17	1.459992E-18
6.620000E+03	4.829263E-17	1.459543E-18
6.630000E+03	4.823916E-17	1.457947E-18
6.640000E+03	4.814678E-17	1.455174E-18
6.650000E+03	4.801363E-17	1.451169E-18
6.660000E+03	4.783850E-17	1.445895E-18
6.670000E+03	4.762094E-17	1.439338E-18
6.680000E+03	4.736021E-17	1.431477E-18
6.690000E+03	4.705545E-17	1.422283E-18
6.700000E+03	4.670772E-17	1.411792E-18
6.710000E+03	4.631656E-17	1.399987E-18
6.720000E+03	4.588356E-17	1.386917E-18
6.730000E+03	4.541044E-17	1.372633E-18
6.740000E+03	4.489946E-17	1.357205E-18
6.750000E+03	4.435350E-17	1.340719E-18
6.760000E+03	4.377641E-17	1.323292E-18
6.770000E+03	4.317156E-17	1.305025E-18
6.780000E+03	4.254359E-17	1.286058E-18
6.790000E+03	4.189648E-17	1.266512E-18
6.800000E+03	4.123483E-17	1.246527E-18
6.810000E+03	4.056426E-17	1.226271E-18
6.820000E+03	3.988844E-17	1.205856E-18
6.830000E+03	3.921188E-17	1.185417E-18
6.840000E+03	3.853973E-17	1.165112E-18
6.850000E+03	3.787509E-17	1.145033E-18
6.860000E+03	3.722205E-17	1.125304E-18
6.870000E+03	3.658386E-17	1.106023E-18
6.880000E+03	3.596342E-17	1.087279E-18
6.890000E+03	3.536319E-17	1.069146E-18
6.900000E+03	3.478527E-17	1.051686E-18
6.910000E+03	3.423095E-17	1.034939E-18
6.920000E+03	3.370238E-17	1.018970E-18
6.930000E+03	3.319981E-17	1.003787E-18
6.940000E+03	3.272474E-17	9.894351E-19
6.950000E+03	3.227688E-17	9.759056E-19
6.960000E+03	3.185725E-17	9.632290E-19
6.970000E+03	3.146514E-17	9.513845E-19
6.980000E+03	3.110089E-17	9.403817E-19
6.990000E+03	3.076428E-17	9.302145E-19
7.000000E+03	3.045501E-17	9.208738E-19
7.010000E+03	3.017238E-17	9.123382E-19
7.020000E+03	2.991670E-17	9.046172E-19
7.030000E+03	2.968680E-17	8.976757E-19
7.040000E+03	2.948225E-17	8.915005E-19
7.050000E+03	2.930330E-17	8.860992E-19
7.060000E+03	2.914845E-17	8.814266E-19
7.070000E+03	2.901835E-17	8.775021E-19
7.080000E+03	2.891154E-17	8.742819E-19
7.090000E+03	2.882836E-17	8.717759E-19
7.100000E+03	2.876843E-17	8.699732E-19
7.110000E+03	2.873071E-17	8.688418E-19
7.120000E+03	2.871557E-17	8.683932E-19
7.130000E+03	2.872227E-17	8.686053E-19
7.140000E+03	2.875045E-17	8.694666E-19
7.150000E+03	2.879932E-17	8.709537E-19
7.160000E+03	2.886911E-17	8.730737E-19
7.170000E+03	2.895858E-17	8.757885E-19
7.180000E+03	2.906783E-17	8.791017E-19
7.190000E+03	2.919509E-17	8.829595E-19
7.200000E+03	2.934063E-17	8.873703E-19
7.210000E+03	2.950286E-17	8.922858E-19
7.220000E+03	2.968079E-17	8.976762E-19
7.230000E+03	2.987371E-17	9.035202E-19
7.240000E+03	3.008012E-17	9.097720E-19
7.250000E+03	3.029878E-17	9.163947E-19
7.260000E+03	3.052881E-17	9.233610E-19
7.270000E+03	3.076810E-17	9.306078E-19
7.280000E+03	3.101605E-17	9.381165E-19
7.290000E+03	3.127090E-17	9.458339E-19
7.300000E+03	3.153083E-17	9.537051E-19
7.310000E+03	3.179521E-17	9.617111E-19
7.320000E+03	3.206184E-17	9.697851E-19
7.330000E+03	3.232968E-17	9.778959E-19
7.340000E+03	3.259732E-17	9.860008E-19
7.350000E+03	3.286336E-17	9.940573E-19
7.360000E+03	3.312643E-17	1.002024E-18
7.370000E+03	3.338473E-17	1.009847E-18
7.380000E+03	3.363734E-17	1.017497E-18
7.390000E+03	3.388294E-17	1.024936E-18
7.400000E+03	3.412026E-17	1.032124E-18
7.410000E+03	3.434807E-17	1.039024E-18
7.420000E+03	3.456474E-17	1.045588E-18
7.430000E+03	3.477003E-17	1.051808E-18
7.440000E+03	3.496292E-17	1.057652E-18
7.450000E+03	3.514202E-17	1.063079E-18
7.460000E+03	3.530692E-17	1.068077E-18
7.470000E+03	3.545600E-17	1.072596E-18
7.480000E+03	3.558910E-17	1.076632E-18
7.490000E+03	3.570573E-17	1.080170E-18
7.500000E+03	3.580509E-17	1.083185E-18
7.510000E+03	3.588745E-17	1.085686E-18
7.520000E+03	3.595229E-17	1.087656E-18
7.530000E+03	3.600017E-17	1.089114E-18
7.540000E+03	3.603085E-17	1.090051E-18
7.550000E+03	3.604472E-17	1.090480E-18
7.560000E+03	3.604226E-17	1.090414E-18
7.570000E+03	3.602408E-17	1.089873E-18
7.580000E+03	3.599129E-17	1.088890E-18
7.590000E+03	3.594371E-17	1.087460E-18
7.600000E+03	3.588302E-17	1.085632E-18
7.610000E+03	3.580950E-17	1.083416E-18
7.620000E+03	3.572388E-17	1.080835E-18
7.630000E+03	3.562686E-17	1.077908E-18
7.640000E+03	3.551955E-17	1.074669E-18
7.650000E+03	3.540162E-17	1.071110E-18
7.660000E+03	3.527415E-17	1.067261E-18
7.670000E+03	3.513811E-17	1.063153E-18
7.680000E+03	3.499360E-17	1.058789E-18
7.690000E+03	3.484072E-17	1.054171E-18
7.700000E+03	3.468091E-17	1.049344E-18
7.710000E+03	3.451475E-17	1.044324E-18
7.720000E+03	3.434185E-17	1.039100E-18
7.730000E+03	3.416367E-17	1.033716E-18
7.740000E+03	3.397980E-17	1.028160E-18
7.750000E+03	3.379156E-17	1.022472E-18
7.760000E+03	3.359935E-17	1.016664E-18
