#wls	flux	fluxerr
1.600000E+03	4.531081E-19	0.000000E+00
1.640000E+03	4.639698E-19	0.000000E+00
1.680000E+03	4.753042E-19	0.000000E+00
1.720000E+03	4.872126E-19	0.000000E+00
1.760000E+03	4.997183E-19	0.000000E+00
1.800000E+03	5.128451E-19	0.000000E+00
1.840000E+03	5.266171E-19	0.000000E+00
1.880000E+03	5.410589E-19	0.000000E+00
1.920000E+03	5.561956E-19	0.000000E+00
1.960000E+03	5.721472E-19	0.000000E+00
2.000000E+03	5.888481E-19	0.000000E+00
2.040000E+03	6.065217E-19	0.000000E+00
2.080000E+03	6.250034E-19	0.000000E+00
2.120000E+03	6.444214E-19	0.000000E+00
2.160000E+03	6.648063E-19	0.000000E+00
2.200000E+03	6.862966E-19	0.000000E+00
2.240000E+03	7.089283E-19	0.000000E+00
2.280000E+03	7.326222E-19	0.000000E+00
2.320000E+03	7.575196E-19	0.000000E+00
2.360000E+03	7.837697E-19	0.000000E+00
2.400000E+03	8.114078E-19	0.000000E+00
2.440000E+03	8.403408E-19	0.000000E+00
2.480000E+03	8.707149E-19	0.000000E+00
2.520000E+03	9.026816E-19	0.000000E+00
2.560000E+03	9.361324E-19	0.000000E+00
2.600000E+03	9.713474E-19	0.000000E+00
2.640000E+03	1.008203E-18	0.000000E+00
2.680000E+03	1.046695E-18	0.000000E+00
2.720000E+03	1.087102E-18	0.000000E+00
2.760000E+03	1.129263E-18	0.000000E+00
2.800000E+03	1.173447E-18	0.000000E+00
2.840000E+03	1.219310E-18	0.000000E+00
2.880000E+03	1.267252E-18	0.000000E+00
2.920000E+03	1.317045E-18	0.000000E+00
2.960000E+03	1.368753E-18	0.000000E+00
3.000000E+03	1.422255E-18	0.000000E+00
3.010000E+03	1.436008E-18	0.000000E+00
3.020000E+03	1.449759E-18	0.000000E+00
3.030000E+03	1.463670E-18	0.000000E+00
3.040000E+03	1.477571E-18	0.000000E+00
3.050000E+03	1.491797E-18	0.000000E+00
3.060000E+03	1.506007E-18	0.000000E+00
3.070000E+03	1.520196E-18	0.000000E+00
3.080000E+03	1.534703E-18	0.000000E+00
3.090000E+03	1.549183E-18	0.000000E+00
3.100000E+03	1.563804E-18	0.000000E+00
3.110000E+03	1.578561E-18	0.000000E+00
3.120000E+03	1.593453E-18	0.000000E+00
3.130000E+03	1.608302E-18	0.000000E+00
3.140000E+03	1.623450E-18	0.000000E+00
3.150000E+03	1.638546E-18	0.000000E+00
3.160000E+03	1.653762E-18	0.000000E+00
3.170000E+03	1.668916E-18	0.000000E+00
3.180000E+03	1.684355E-18	0.000000E+00
3.190000E+03	1.699723E-18	0.000000E+00
3.200000E+03	1.715369E-18	0.000000E+00
3.210000E+03	1.730933E-18	0.000000E+00
3.220000E+03	1.746588E-18	0.000000E+00
3.230000E+03	1.762329E-18	0.000000E+00
3.240000E+03	1.778151E-18	0.000000E+00
3.250000E+03	1.793869E-18	0.000000E+00
3.260000E+03	1.809836E-18	0.000000E+00
3.270000E+03	1.825867E-18	0.000000E+00
3.280000E+03	1.841777E-18	0.000000E+00
3.290000E+03	1.857919E-18	0.000000E+00
3.300000E+03	1.873928E-18	0.000000E+00
3.310000E+03	1.890158E-18	0.000000E+00
3.320000E+03	1.906240E-18	0.000000E+00
3.330000E+03	1.922350E-18	0.000000E+00
3.340000E+03	1.938662E-18	0.000000E+00
3.350000E+03	1.954808E-18	0.000000E+00
3.360000E+03	1.971142E-18	0.000000E+00
3.370000E+03	1.987296E-18	0.000000E+00
3.380000E+03	2.003625E-18	0.000000E+00
3.390000E+03	2.019758E-18	0.000000E+00
3.400000E+03	2.036053E-18	0.000000E+00
3.410000E+03	2.052319E-18	0.000000E+00
3.420000E+03	2.068551E-18	0.000000E+00
3.430000E+03	2.084739E-18	0.000000E+00
3.440000E+03	2.100694E-18	0.000000E+00
3.450000E+03	2.116956E-18	0.000000E+00
3.460000E+03	2.132969E-18	0.000000E+00
3.470000E+03	2.148908E-18	0.000000E+00
3.480000E+03	2.164948E-18	0.000000E+00
3.490000E+03	2.180715E-18	0.000000E+00
3.500000E+03	2.196568E-18	0.000000E+00
3.510000E+03	2.212315E-18	0.000000E+00
3.520000E+03	2.227948E-18	0.000000E+00
3.530000E+03	2.243459E-18	0.000000E+00
3.540000E+03	2.259023E-18	0.000000E+00
3.550000E+03	2.274267E-18	0.000000E+00
3.560000E+03	2.289545E-18	0.000000E+00
3.570000E+03	2.304671E-18	0.000000E+00
3.580000E+03	2.319634E-18	0.000000E+00
3.590000E+03	2.334609E-18	0.000000E+00
3.600000E+03	2.349226E-18	0.000000E+00
3.610000E+03	2.363836E-18	0.000000E+00
3.620000E+03	2.378253E-18	0.000000E+00
3.630000E+03	2.392470E-18	0.000000E+00
3.640000E+03	2.406657E-18	0.000000E+00
3.650000E+03	2.420628E-18	0.000000E+00
3.660000E+03	2.434375E-18	0.000000E+00
3.670000E+03	2.447891E-18	0.000000E+00
3.680000E+03	2.461171E-18	0.000000E+00
3.690000E+03	2.474383E-18	0.000000E+00
3.700000E+03	2.487342E-18	0.000000E+00
3.710000E+03	2.500044E-18	0.000000E+00
3.720000E+03	2.512482E-18	0.000000E+00
3.730000E+03	2.524825E-18	0.000000E+00
3.740000E+03	2.536890E-18	0.000000E+00
3.750000E+03	2.548673E-18	0.000000E+00
3.760000E+03	2.560341E-18	0.000000E+00
3.770000E+03	2.571543E-18	0.000000E+00
3.780000E+03	2.582619E-18	0.000000E+00
3.790000E+03	2.593393E-18	0.000000E+00
3.800000E+03	2.603859E-18	0.000000E+00
3.810000E+03	2.614182E-18	0.000000E+00
3.820000E+03	2.624189E-18	0.000000E+00
3.830000E+03	2.633710E-18	0.000000E+00
3.840000E+03	2.643076E-18	0.000000E+00
3.850000E+03	2.652282E-18	0.000000E+00
3.860000E+03	2.660995E-18	0.000000E+00
3.870000E+03	2.669541E-18	0.000000E+00
3.880000E+03	2.677754E-18	0.000000E+00
3.890000E+03	2.685472E-18	0.000000E+00
3.900000E+03	2.693017E-18	0.000000E+00
3.910000E+03	2.700384E-18	0.000000E+00
3.920000E+03	2.707255E-18	0.000000E+00
3.930000E+03	2.713789E-18	0.000000E+00
3.940000E+03	2.719986E-18	0.000000E+00
3.950000E+03	2.726003E-18	0.000000E+00
3.960000E+03	2.731528E-18	0.000000E+00
3.970000E+03	2.736874E-18	0.000000E+00
3.980000E+03	2.741732E-18	0.000000E+00
3.990000E+03	2.746261E-18	0.000000E+00
4.000000E+03	2.750611E-18	0.000000E+00
4.010000E+03	2.754486E-18	0.000000E+00
4.020000E+03	2.758036E-18	0.000000E+00
4.030000E+03	2.761268E-18	0.000000E+00
4.040000E+03	2.764184E-18	0.000000E+00
4.050000E+03	2.766786E-18	0.000000E+00
4.060000E+03	2.768937E-18	0.000000E+00
4.070000E+03	2.770928E-18	0.000000E+00
4.080000E+03	2.772478E-18	0.000000E+00
4.090000E+03	2.773592E-18	0.000000E+00
4.100000E+03	2.774562E-18	0.000000E+00
4.110000E+03	2.775111E-18	0.000000E+00
4.120000E+03	2.775247E-18	0.000000E+00
4.130000E+03	2.775252E-18	0.000000E+00
4.140000E+03	2.774858E-18	0.000000E+00
4.150000E+03	2.774075E-18	0.000000E+00
4.160000E+03	2.773044E-18	0.000000E+00
4.170000E+03	2.771641E-18	0.000000E+00
4.180000E+03	2.769875E-18	0.000000E+00
4.190000E+03	2.767885E-18	0.000000E+00
4.200000E+03	2.765680E-18	0.000000E+00
4.210000E+03	2.763009E-18	0.000000E+00
4.220000E+03	2.760140E-18	0.000000E+00
4.230000E+03	2.756956E-18	0.000000E+00
4.240000E+03	2.753588E-18	0.000000E+00
4.250000E+03	2.749799E-18	0.000000E+00
4.260000E+03	2.745725E-18	0.000000E+00
4.270000E+03	2.741497E-18	0.000000E+00
4.280000E+03	2.736882E-18	0.000000E+00
4.290000E+03	2.732132E-18	0.000000E+00
4.300000E+03	2.727018E-18	0.000000E+00
4.310000E+03	2.721787E-18	0.000000E+00
4.320000E+03	2.716216E-18	0.000000E+00
4.330000E+03	2.710431E-18	0.000000E+00
4.340000E+03	2.704330E-18	0.000000E+00
4.350000E+03	2.698150E-18	0.000000E+00
4.360000E+03	2.691677E-18	0.000000E+00
4.370000E+03	2.684922E-18	0.000000E+00
4.380000E+03	2.678118E-18	0.000000E+00
4.390000E+03	2.670946E-18	0.000000E+00
4.400000E+03	2.663742E-18	0.000000E+00
4.410000E+03	2.656196E-18	0.000000E+00
4.420000E+03	2.648531E-18	0.000000E+00
4.430000E+03	2.640758E-18	0.000000E+00
4.440000E+03	2.632782E-18	0.000000E+00
4.450000E+03	2.624614E-18	0.000000E+00
4.460000E+03	2.616266E-18	0.000000E+00
4.470000E+03	2.607849E-18	0.000000E+00
4.480000E+03	2.599272E-18	0.000000E+00
4.490000E+03	2.590446E-18	0.000000E+00
4.500000E+03	2.581580E-18	0.000000E+00
4.510000E+03	2.572586E-18	0.000000E+00
4.520000E+03	2.563569E-18	0.000000E+00
4.530000E+03	2.554345E-18	0.000000E+00
4.540000E+03	2.545021E-18	0.000000E+00
4.550000E+03	2.535606E-18	0.000000E+00
4.560000E+03	2.526017E-18	0.000000E+00
4.570000E+03	2.516447E-18	0.000000E+00
4.580000E+03	2.506812E-18	0.000000E+00
4.590000E+03	2.497031E-18	0.000000E+00
4.600000E+03	2.487202E-18	0.000000E+00
4.610000E+03	2.477334E-18	0.000000E+00
4.620000E+03	2.467345E-18	0.000000E+00
4.630000E+03	2.457332E-18	0.000000E+00
4.640000E+03	2.447302E-18	0.000000E+00
4.650000E+03	2.437262E-18	0.000000E+00
4.660000E+03	2.427134E-18	0.000000E+00
4.670000E+03	2.417008E-18	0.000000E+00
4.680000E+03	2.406809E-18	0.000000E+00
4.690000E+03	2.396626E-18	0.000000E+00
4.700000E+03	2.386382E-18	0.000000E+00
4.710000E+03	2.376165E-18	0.000000E+00
4.720000E+03	2.365982E-18	0.000000E+00
4.730000E+03	2.355676E-18	0.000000E+00
4.740000E+03	2.345492E-18	0.000000E+00
4.750000E+03	2.335277E-18	0.000000E+00
4.760000E+03	2.325036E-18	0.000000E+00
4.770000E+03	2.314852E-18	0.000000E+00
4.780000E+03	2.304650E-18	0.000000E+00
4.790000E+03	2.294437E-18	0.000000E+00
4.800000E+03	2.284292E-18	0.000000E+00
4.810000E+03	2.274218E-18	0.000000E+00
4.820000E+03	2.264068E-18	0.000000E+00
4.830000E+03	2.253997E-18	0.000000E+00
4.840000E+03	2.244004E-18	0.000000E+00
4.850000E+03	2.234020E-18	0.000000E+00
4.860000E+03	2.224049E-18	0.000000E+00
4.870000E+03	2.214164E-18	0.000000E+00
4.880000E+03	2.204296E-18	0.000000E+00
4.890000E+03	2.194448E-18	0.000000E+00
4.900000E+03	2.184690E-18	0.000000E+00
4.910000E+03	2.174954E-18	0.000000E+00
4.920000E+03	2.165312E-18	0.000000E+00
4.930000E+03	2.155696E-18	0.000000E+00
4.940000E+03	2.146106E-18	0.000000E+00
4.950000E+03	2.136611E-18	0.000000E+00
4.960000E+03	2.127145E-18	0.000000E+00
4.970000E+03	2.117708E-18	0.000000E+00
4.980000E+03	2.108367E-18	0.000000E+00
4.990000E+03	2.099056E-18	0.000000E+00
5.000000E+03	2.089840E-18	0.000000E+00
5.010000E+03	2.080653E-18	0.000000E+00
5.020000E+03	2.071496E-18	0.000000E+00
5.030000E+03	2.062433E-18	0.000000E+00
5.040000E+03	2.053398E-18	0.000000E+00
5.050000E+03	2.044455E-18	0.000000E+00
5.060000E+03	2.035539E-18	0.000000E+00
5.070000E+03	2.026713E-18	0.000000E+00
5.080000E+03	2.017911E-18	0.000000E+00
5.090000E+03	2.009136E-18	0.000000E+00
5.100000E+03	2.000445E-18	0.000000E+00
5.110000E+03	1.991836E-18	0.000000E+00
5.120000E+03	1.983249E-18	0.000000E+00
5.130000E+03	1.974682E-18	0.000000E+00
5.140000E+03	1.966193E-18	0.000000E+00
5.150000E+03	1.957780E-18	0.000000E+00
5.160000E+03	1.949382E-18	0.000000E+00
5.170000E+03	1.940998E-18	0.000000E+00
5.180000E+03	1.932684E-18	0.000000E+00
5.190000E+03	1.924437E-18	0.000000E+00
5.200000E+03	1.916200E-18	0.000000E+00
5.210000E+03	1.907970E-18	0.000000E+00
5.220000E+03	1.899858E-18	0.000000E+00
5.230000E+03	1.891693E-18	0.000000E+00
5.240000E+03	1.883643E-18	0.000000E+00
5.250000E+03	1.875591E-18	0.000000E+00
5.260000E+03	1.867539E-18	0.000000E+00
5.270000E+03	1.859537E-18	0.000000E+00
5.280000E+03	1.851585E-18	0.000000E+00
5.290000E+03	1.843681E-18	0.000000E+00
5.300000E+03	1.835768E-18	0.000000E+00
5.310000E+03	1.827845E-18	0.000000E+00
5.320000E+03	1.820015E-18	0.000000E+00
5.330000E+03	1.812174E-18	0.000000E+00
5.340000E+03	1.804317E-18	0.000000E+00
5.350000E+03	1.796549E-18	0.000000E+00
5.360000E+03	1.788763E-18	0.000000E+00
5.370000E+03	1.781010E-18	0.000000E+00
5.380000E+03	1.773237E-18	0.000000E+00
5.390000E+03	1.765493E-18	0.000000E+00
5.400000E+03	1.757779E-18	0.000000E+00
5.410000E+03	1.750090E-18	0.000000E+00
5.420000E+03	1.742377E-18	0.000000E+00
5.430000E+03	1.734740E-18	0.000000E+00
5.440000E+03	1.727075E-18	0.000000E+00
5.450000E+03	1.719382E-18	0.000000E+00
5.460000E+03	1.711761E-18	0.000000E+00
5.470000E+03	1.704111E-18	0.000000E+00
5.480000E+03	1.696481E-18	0.000000E+00
5.490000E+03	1.688919E-18	0.000000E+00
5.500000E+03	1.681277E-18	0.000000E+00
5.510000E+03	1.673701E-18	0.000000E+00
5.520000E+03	1.666143E-18	0.000000E+00
5.530000E+03	1.658553E-18	0.000000E+00
5.540000E+03	1.651027E-18	0.000000E+00
5.550000E+03	1.643470E-18	0.000000E+00
5.560000E+03	1.635930E-18	0.000000E+00
5.570000E+03	1.628404E-18	0.000000E+00
5.580000E+03	1.620941E-18	0.000000E+00
5.590000E+03	1.613446E-18	0.000000E+00
5.600000E+03	1.605967E-18	0.000000E+00
5.610000E+03	1.598503E-18	0.000000E+00
5.620000E+03	1.591055E-18	0.000000E+00
5.630000E+03	1.583623E-18	0.000000E+00
5.640000E+03	1.576207E-18	0.000000E+00
5.650000E+03	1.568808E-18	0.000000E+00
5.660000E+03	1.561424E-18	0.000000E+00
5.670000E+03	1.554058E-18	0.000000E+00
5.680000E+03	1.546753E-18	0.000000E+00
5.690000E+03	1.539421E-18	0.000000E+00
5.700000E+03	1.532151E-18	0.000000E+00
5.710000E+03	1.524900E-18	0.000000E+00
5.720000E+03	1.517623E-18	0.000000E+00
5.730000E+03	1.510409E-18	0.000000E+00
5.740000E+03	1.503257E-18	0.000000E+00
5.750000E+03	1.496081E-18	0.000000E+00
5.760000E+03	1.488927E-18	0.000000E+00
5.770000E+03	1.481835E-18	0.000000E+00
5.780000E+03	1.474764E-18	0.000000E+00
5.790000E+03	1.467714E-18	0.000000E+00
5.800000E+03	1.460729E-18	0.000000E+00
5.810000E+03	1.453764E-18	0.000000E+00
5.820000E+03	1.446822E-18	0.000000E+00
5.830000E+03	1.439902E-18	0.000000E+00
5.840000E+03	1.433005E-18	0.000000E+00
5.850000E+03	1.426173E-18	0.000000E+00
5.860000E+03	1.419403E-18	0.000000E+00
5.870000E+03	1.412616E-18	0.000000E+00
5.880000E+03	1.405893E-18	0.000000E+00
5.890000E+03	1.399193E-18	0.000000E+00
5.900000E+03	1.392557E-18	0.000000E+00
5.910000E+03	1.385942E-18	0.000000E+00
5.920000E+03	1.379351E-18	0.000000E+00
5.930000E+03	1.372823E-18	0.000000E+00
5.940000E+03	1.366357E-18	0.000000E+00
5.950000E+03	1.359873E-18	0.000000E+00
5.960000E+03	1.353451E-18	0.000000E+00
5.970000E+03	1.347089E-18	0.000000E+00
5.980000E+03	1.340748E-18	0.000000E+00
5.990000E+03	1.334467E-18	0.000000E+00
6.000000E+03	1.328206E-18	0.000000E+00
6.010000E+03	1.321964E-18	0.000000E+00
6.020000E+03	1.315780E-18	0.000000E+00
6.030000E+03	1.309652E-18	0.000000E+00
6.040000E+03	1.303541E-18	0.000000E+00
6.050000E+03	1.297447E-18	0.000000E+00
6.060000E+03	1.291444E-18	0.000000E+00
6.070000E+03	1.285418E-18	0.000000E+00
6.080000E+03	1.279445E-18	0.000000E+00
6.090000E+03	1.273522E-18	0.000000E+00
6.100000E+03	1.267648E-18	0.000000E+00
6.110000E+03	1.261785E-18	0.000000E+00
6.120000E+03	1.255932E-18	0.000000E+00
6.130000E+03	1.250125E-18	0.000000E+00
6.140000E+03	1.244362E-18	0.000000E+00
6.150000E+03	1.238644E-18	0.000000E+00
6.160000E+03	1.232930E-18	0.000000E+00
6.170000E+03	1.227221E-18	0.000000E+00
6.180000E+03	1.221587E-18	0.000000E+00
6.190000E+03	1.215955E-18	0.000000E+00
6.200000E+03	1.210324E-18	0.000000E+00
6.210000E+03	1.204763E-18	0.000000E+00
6.220000E+03	1.199201E-18	0.000000E+00
6.230000E+03	1.193636E-18	0.000000E+00
6.240000E+03	1.188137E-18	0.000000E+00
6.250000E+03	1.182632E-18	0.000000E+00
6.260000E+03	1.177157E-18	0.000000E+00
6.270000E+03	1.171673E-18	0.000000E+00
6.280000E+03	1.166249E-18	0.000000E+00
6.290000E+03	1.160815E-18	0.000000E+00
6.300000E+03	1.155405E-18	0.000000E+00
6.310000E+03	1.149981E-18	0.000000E+00
6.320000E+03	1.144612E-18	0.000000E+00
6.330000E+03	1.139228E-18	0.000000E+00
6.340000E+03	1.133862E-18	0.000000E+00
6.350000E+03	1.128513E-18	0.000000E+00
6.360000E+03	1.123180E-18	0.000000E+00
6.370000E+03	1.117827E-18	0.000000E+00
6.380000E+03	1.112522E-18	0.000000E+00
6.390000E+03	1.107196E-18	0.000000E+00
6.400000E+03	1.101881E-18	0.000000E+00
6.410000E+03	1.096576E-18	0.000000E+00
6.420000E+03	1.091282E-18	0.000000E+00
6.430000E+03	1.085997E-18	0.000000E+00
6.440000E+03	1.080687E-18	0.000000E+00
6.450000E+03	1.075417E-18	0.000000E+00
6.460000E+03	1.070122E-18	0.000000E+00
6.470000E+03	1.064864E-18	0.000000E+00
6.480000E+03	1.059581E-18	0.000000E+00
6.490000E+03	1.054335E-18	0.000000E+00
6.500000E+03	1.049062E-18	0.000000E+00
6.510000E+03	1.043825E-18	0.000000E+00
6.520000E+03	1.038560E-18	0.000000E+00
6.530000E+03	1.033300E-18	0.000000E+00
6.540000E+03	1.028074E-18	0.000000E+00
6.550000E+03	1.022821E-18	0.000000E+00
6.560000E+03	1.017603E-18	0.000000E+00
6.570000E+03	1.012357E-18	0.000000E+00
6.580000E+03	1.007145E-18	0.000000E+00
6.590000E+03	1.001938E-18	0.000000E+00
6.600000E+03	9.967334E-19	0.000000E+00
6.610000E+03	9.915341E-19	0.000000E+00
6.620000E+03	9.863382E-19	0.000000E+00
6.630000E+03	9.811467E-19	0.000000E+00
6.640000E+03	9.759613E-19	0.000000E+00
6.650000E+03	9.707803E-19	0.000000E+00
6.660000E+03	9.656352E-19	0.000000E+00
6.670000E+03	9.604971E-19	0.000000E+00
6.680000E+03	9.553651E-19	0.000000E+00
6.690000E+03	9.502410E-19	0.000000E+00
6.700000E+03	9.451238E-19	0.000000E+00
6.710000E+03	9.400164E-19	0.000000E+00
6.720000E+03	9.349474E-19	0.000000E+00
6.730000E+03	9.298872E-19	0.000000E+00
6.740000E+03	9.248383E-19	0.000000E+00
6.750000E+03	9.198008E-19	0.000000E+00
6.760000E+03	9.148036E-19	0.000000E+00
6.770000E+03	9.097906E-19	0.000000E+00
6.780000E+03	9.048197E-19	0.000000E+00
6.790000E+03	8.998636E-19	0.000000E+00
6.800000E+03	8.949504E-19	0.000000E+00
6.810000E+03	8.900241E-19	0.000000E+00
6.820000E+03	8.851424E-19	0.000000E+00
6.830000E+03	8.802782E-19	0.000000E+00
6.840000E+03	8.754604E-19	0.000000E+00
6.850000E+03	8.706601E-19	0.000000E+00
6.860000E+03	8.658514E-19	0.000000E+00
6.870000E+03	8.611183E-19	0.000000E+00
6.880000E+03	8.563780E-19	0.000000E+00
6.890000E+03	8.516864E-19	0.000000E+00
6.900000E+03	8.470167E-19	0.000000E+00
6.910000E+03	8.423693E-19	0.000000E+00
6.920000E+03	8.377449E-19	0.000000E+00
6.930000E+03	8.331711E-19	0.000000E+00
6.940000E+03	8.286213E-19	0.000000E+00
6.950000E+03	8.240958E-19	0.000000E+00
6.960000E+03	8.196219E-19	0.000000E+00
6.970000E+03	8.151466E-19	0.000000E+00
6.980000E+03	8.107235E-19	0.000000E+00
6.990000E+03	8.063264E-19	0.000000E+00
7.000000E+03	8.019816E-19	0.000000E+00
7.010000E+03	7.976370E-19	0.000000E+00
7.020000E+03	7.933452E-19	0.000000E+00
7.030000E+03	7.890801E-19	0.000000E+00
7.040000E+03	7.848675E-19	0.000000E+00
7.050000E+03	7.806561E-19	0.000000E+00
7.060000E+03	7.764972E-19	0.000000E+00
7.070000E+03	7.723398E-19	0.000000E+00
7.080000E+03	7.682346E-19	0.000000E+00
7.090000E+03	7.641562E-19	0.000000E+00
7.100000E+03	7.601296E-19	0.000000E+00
7.110000E+03	7.561041E-19	0.000000E+00
7.120000E+03	7.521299E-19	0.000000E+00
7.130000E+03	7.481567E-19	0.000000E+00
7.140000E+03	7.442339E-19	0.000000E+00
7.150000E+03	7.403363E-19	0.000000E+00
7.160000E+03	7.364636E-19	0.000000E+00
7.170000E+03	7.326155E-19	0.000000E+00
7.180000E+03	7.287914E-19	0.000000E+00
7.190000E+03	7.249908E-19	0.000000E+00
7.200000E+03	7.212134E-19	0.000000E+00
7.210000E+03	7.174586E-19	0.000000E+00
7.220000E+03	7.137259E-19	0.000000E+00
7.230000E+03	7.100383E-19	0.000000E+00
7.240000E+03	7.063479E-19	0.000000E+00
7.250000E+03	7.026777E-19	0.000000E+00
7.260000E+03	6.990272E-19	0.000000E+00
7.270000E+03	6.953956E-19	0.000000E+00
7.280000E+03	6.917823E-19	0.000000E+00
7.290000E+03	6.881867E-19	0.000000E+00
7.300000E+03	6.846079E-19	0.000000E+00
7.310000E+03	6.810225E-19	0.000000E+00
7.320000E+03	6.774756E-19	0.000000E+00
7.330000E+03	6.739208E-19	0.000000E+00
7.340000E+03	6.703802E-19	0.000000E+00
7.350000E+03	6.668757E-19	0.000000E+00
7.360000E+03	6.633389E-19	0.000000E+00
7.370000E+03	6.598368E-19	0.000000E+00
7.380000E+03	6.563460E-19	0.000000E+00
7.390000E+03	6.528438E-19	0.000000E+00
7.400000E+03	6.493518E-19	0.000000E+00
7.410000E+03	6.458693E-19	0.000000E+00
7.420000E+03	6.423738E-19	0.000000E+00
7.430000E+03	6.389083E-19	0.000000E+00
7.440000E+03	6.354289E-19	0.000000E+00
7.450000E+03	6.319565E-19	0.000000E+00
7.460000E+03	6.284693E-19	0.000000E+00
7.470000E+03	6.249883E-19	0.000000E+00
7.480000E+03	6.215128E-19	0.000000E+00
7.490000E+03	6.180213E-19	0.000000E+00
7.500000E+03	6.145346E-19	0.000000E+00
7.510000E+03	6.110522E-19	0.000000E+00
7.520000E+03	6.075530E-19	0.000000E+00
7.530000E+03	6.040575E-19	0.000000E+00
7.540000E+03	6.005653E-19	0.000000E+00
7.550000E+03	5.970555E-19	0.000000E+00
7.560000E+03	5.935487E-19	0.000000E+00
7.570000E+03	5.900242E-19	0.000000E+00
7.580000E+03	5.865023E-19	0.000000E+00
7.590000E+03	5.829626E-19	0.000000E+00
7.600000E+03	5.794255E-19	0.000000E+00
7.610000E+03	5.758907E-19	0.000000E+00
7.620000E+03	5.723383E-19	0.000000E+00
7.630000E+03	5.687685E-19	0.000000E+00
7.640000E+03	5.652014E-19	0.000000E+00
7.650000E+03	5.616371E-19	0.000000E+00
7.660000E+03	5.580559E-19	0.000000E+00
7.670000E+03	5.544583E-19	0.000000E+00
7.680000E+03	5.508643E-19	0.000000E+00
7.690000E+03	5.472738E-19	0.000000E+00
7.700000E+03	5.436488E-19	0.000000E+00
7.710000E+03	5.400474E-19	0.000000E+00
7.720000E+03	5.364317E-19	0.000000E+00
7.730000E+03	5.328022E-19	0.000000E+00
7.740000E+03	5.291596E-19	0.000000E+00
7.750000E+03	5.255233E-19	0.000000E+00
7.760000E+03	5.218937E-19	0.000000E+00
