#wls	flux	fluxerr
1.600000E+03	2.879343E-19	0.000000E+00
1.640000E+03	2.943524E-19	0.000000E+00
1.680000E+03	3.010224E-19	0.000000E+00
1.720000E+03	3.079511E-19	0.000000E+00
1.760000E+03	3.151991E-19	0.000000E+00
1.800000E+03	3.227213E-19	0.000000E+00
1.840000E+03	3.305240E-19	0.000000E+00
1.880000E+03	3.386704E-19	0.000000E+00
1.920000E+03	3.471114E-19	0.000000E+00
1.960000E+03	3.559114E-19	0.000000E+00
2.000000E+03	3.650786E-19	0.000000E+00
2.040000E+03	3.745588E-19	0.000000E+00
2.080000E+03	3.844812E-19	0.000000E+00
2.120000E+03	3.947270E-19	0.000000E+00
2.160000E+03	4.053628E-19	0.000000E+00
2.200000E+03	4.163923E-19	0.000000E+00
2.240000E+03	4.278864E-19	0.000000E+00
2.280000E+03	4.397802E-19	0.000000E+00
2.320000E+03	4.520727E-19	0.000000E+00
2.360000E+03	4.648334E-19	0.000000E+00
2.400000E+03	4.780615E-19	0.000000E+00
2.440000E+03	4.916779E-19	0.000000E+00
2.480000E+03	5.057489E-19	0.000000E+00
2.520000E+03	5.202650E-19	0.000000E+00
2.560000E+03	5.352135E-19	0.000000E+00
2.600000E+03	5.505778E-19	0.000000E+00
2.640000E+03	5.664203E-19	0.000000E+00
2.680000E+03	5.826351E-19	0.000000E+00
2.720000E+03	5.992796E-19	0.000000E+00
2.760000E+03	6.162349E-19	0.000000E+00
2.800000E+03	6.336386E-19	0.000000E+00
2.840000E+03	6.512725E-19	0.000000E+00
2.880000E+03	6.691773E-19	0.000000E+00
2.920000E+03	6.873909E-19	0.000000E+00
2.960000E+03	7.057643E-19	0.000000E+00
3.000000E+03	7.242306E-19	0.000000E+00
3.010000E+03	7.289130E-19	0.000000E+00
3.020000E+03	7.335719E-19	0.000000E+00
3.030000E+03	7.382063E-19	0.000000E+00
3.040000E+03	7.428139E-19	0.000000E+00
3.050000E+03	7.474905E-19	0.000000E+00
3.060000E+03	7.521387E-19	0.000000E+00
3.070000E+03	7.567565E-19	0.000000E+00
3.080000E+03	7.614395E-19	0.000000E+00
3.090000E+03	7.660898E-19	0.000000E+00
3.100000E+03	7.707060E-19	0.000000E+00
3.110000E+03	7.753842E-19	0.000000E+00
3.120000E+03	7.800255E-19	0.000000E+00
3.130000E+03	7.846283E-19	0.000000E+00
3.140000E+03	7.892893E-19	0.000000E+00
3.150000E+03	7.938110E-19	0.000000E+00
3.160000E+03	7.984854E-19	0.000000E+00
3.170000E+03	8.030182E-19	0.000000E+00
3.180000E+03	8.076029E-19	0.000000E+00
3.190000E+03	8.121405E-19	0.000000E+00
3.200000E+03	8.166295E-19	0.000000E+00
3.210000E+03	8.211666E-19	0.000000E+00
3.220000E+03	8.256514E-19	0.000000E+00
3.230000E+03	8.300832E-19	0.000000E+00
3.240000E+03	8.345584E-19	0.000000E+00
3.250000E+03	8.389769E-19	0.000000E+00
3.260000E+03	8.434370E-19	0.000000E+00
3.270000E+03	8.477369E-19	0.000000E+00
3.280000E+03	8.520753E-19	0.000000E+00
3.290000E+03	8.564500E-19	0.000000E+00
3.300000E+03	8.606595E-19	0.000000E+00
3.310000E+03	8.649033E-19	0.000000E+00
3.320000E+03	8.691781E-19	0.000000E+00
3.330000E+03	8.733840E-19	0.000000E+00
3.340000E+03	8.775182E-19	0.000000E+00
3.350000E+03	8.815793E-19	0.000000E+00
3.360000E+03	8.856660E-19	0.000000E+00
3.370000E+03	8.896768E-19	0.000000E+00
3.380000E+03	8.936097E-19	0.000000E+00
3.390000E+03	8.975633E-19	0.000000E+00
3.400000E+03	9.014363E-19	0.000000E+00
3.410000E+03	9.052265E-19	0.000000E+00
3.420000E+03	9.090333E-19	0.000000E+00
3.430000E+03	9.127540E-19	0.000000E+00
3.440000E+03	9.163882E-19	0.000000E+00
3.450000E+03	9.200336E-19	0.000000E+00
3.460000E+03	9.235892E-19	0.000000E+00
3.470000E+03	9.271534E-19	0.000000E+00
3.480000E+03	9.306246E-19	0.000000E+00
3.490000E+03	9.340012E-19	0.000000E+00
3.500000E+03	9.372828E-19	0.000000E+00
3.510000E+03	9.405665E-19	0.000000E+00
3.520000E+03	9.437524E-19	0.000000E+00
3.530000E+03	9.468389E-19	0.000000E+00
3.540000E+03	9.499239E-19	0.000000E+00
3.550000E+03	9.529067E-19	0.000000E+00
3.560000E+03	9.558859E-19	0.000000E+00
3.570000E+03	9.586615E-19	0.000000E+00
3.580000E+03	9.615295E-19	0.000000E+00
3.590000E+03	9.641923E-19	0.000000E+00
3.600000E+03	9.668461E-19	0.000000E+00
3.610000E+03	9.693920E-19	0.000000E+00
3.620000E+03	9.718288E-19	0.000000E+00
3.630000E+03	9.742528E-19	0.000000E+00
3.640000E+03	9.765663E-19	0.000000E+00
3.650000E+03	9.787686E-19	0.000000E+00
3.660000E+03	9.809549E-19	0.000000E+00
3.670000E+03	9.830289E-19	0.000000E+00
3.680000E+03	9.849892E-19	0.000000E+00
3.690000E+03	9.869318E-19	0.000000E+00
3.700000E+03	9.886640E-19	0.000000E+00
3.710000E+03	9.904725E-19	0.000000E+00
3.720000E+03	9.920711E-19	0.000000E+00
3.730000E+03	9.936483E-19	0.000000E+00
3.740000E+03	9.951101E-19	0.000000E+00
3.750000E+03	9.964565E-19	0.000000E+00
3.760000E+03	9.977804E-19	0.000000E+00
3.770000E+03	9.989879E-19	0.000000E+00
3.780000E+03	1.000080E-18	0.000000E+00
3.790000E+03	1.001056E-18	0.000000E+00
3.800000E+03	1.002009E-18	0.000000E+00
3.810000E+03	1.002846E-18	0.000000E+00
3.820000E+03	1.003568E-18	0.000000E+00
3.830000E+03	1.004175E-18	0.000000E+00
3.840000E+03	1.004759E-18	0.000000E+00
3.850000E+03	1.005228E-18	0.000000E+00
3.860000E+03	1.005584E-18	0.000000E+00
3.870000E+03	1.005827E-18	0.000000E+00
3.880000E+03	1.006047E-18	0.000000E+00
3.890000E+03	1.006156E-18	0.000000E+00
3.900000E+03	1.006154E-18	0.000000E+00
3.910000E+03	1.006042E-18	0.000000E+00
3.920000E+03	1.005909E-18	0.000000E+00
3.930000E+03	1.005580E-18	0.000000E+00
3.940000E+03	1.005232E-18	0.000000E+00
3.950000E+03	1.004777E-18	0.000000E+00
3.960000E+03	1.004218E-18	0.000000E+00
3.970000E+03	1.003641E-18	0.000000E+00
3.980000E+03	1.002876E-18	0.000000E+00
3.990000E+03	1.002096E-18	0.000000E+00
4.000000E+03	1.001215E-18	0.000000E+00
4.010000E+03	1.000153E-18	0.000000E+00
4.020000E+03	9.991610E-19	0.000000E+00
4.030000E+03	9.979909E-19	0.000000E+00
4.040000E+03	9.967273E-19	0.000000E+00
4.050000E+03	9.953719E-19	0.000000E+00
4.060000E+03	9.940078E-19	0.000000E+00
4.070000E+03	9.925551E-19	0.000000E+00
4.080000E+03	9.909352E-19	0.000000E+00
4.090000E+03	9.893105E-19	0.000000E+00
4.100000E+03	9.876024E-19	0.000000E+00
4.110000E+03	9.858131E-19	0.000000E+00
4.120000E+03	9.839441E-19	0.000000E+00
4.130000E+03	9.819983E-19	0.000000E+00
4.140000E+03	9.799766E-19	0.000000E+00
4.150000E+03	9.778817E-19	0.000000E+00
4.160000E+03	9.757152E-19	0.000000E+00
4.170000E+03	9.734792E-19	0.000000E+00
4.180000E+03	9.711765E-19	0.000000E+00
4.190000E+03	9.688823E-19	0.000000E+00
4.200000E+03	9.664507E-19	0.000000E+00
4.210000E+03	9.639583E-19	0.000000E+00
4.220000E+03	9.614066E-19	0.000000E+00
4.230000E+03	9.587983E-19	0.000000E+00
4.240000E+03	9.561349E-19	0.000000E+00
4.250000E+03	9.534191E-19	0.000000E+00
4.260000E+03	9.506526E-19	0.000000E+00
4.270000E+03	9.477675E-19	0.000000E+00
4.280000E+03	9.449070E-19	0.000000E+00
4.290000E+03	9.419326E-19	0.000000E+00
4.300000E+03	9.389861E-19	0.000000E+00
4.310000E+03	9.359305E-19	0.000000E+00
4.320000E+03	9.329060E-19	0.000000E+00
4.330000E+03	9.297778E-19	0.000000E+00
4.340000E+03	9.266159E-19	0.000000E+00
4.350000E+03	9.233573E-19	0.000000E+00
4.360000E+03	9.201356E-19	0.000000E+00
4.370000E+03	9.168867E-19	0.000000E+00
4.380000E+03	9.135474E-19	0.000000E+00
4.390000E+03	9.101857E-19	0.000000E+00
4.400000E+03	9.068032E-19	0.000000E+00
4.410000E+03	9.034014E-19	0.000000E+00
4.420000E+03	8.999195E-19	0.000000E+00
4.430000E+03	8.964232E-19	0.000000E+00
4.440000E+03	8.929140E-19	0.000000E+00
4.450000E+03	8.893937E-19	0.000000E+00
4.460000E+03	8.858642E-19	0.000000E+00
4.470000E+03	8.822658E-19	0.000000E+00
4.480000E+03	8.786621E-19	0.000000E+00
4.490000E+03	8.750547E-19	0.000000E+00
4.500000E+03	8.714451E-19	0.000000E+00
4.510000E+03	8.677756E-19	0.000000E+00
4.520000E+03	8.641078E-19	0.000000E+00
4.530000E+03	8.603849E-19	0.000000E+00
4.540000E+03	8.567246E-19	0.000000E+00
4.550000E+03	8.530124E-19	0.000000E+00
4.560000E+03	8.492521E-19	0.000000E+00
4.570000E+03	8.455570E-19	0.000000E+00
4.580000E+03	8.418160E-19	0.000000E+00
4.590000E+03	8.380328E-19	0.000000E+00
4.600000E+03	8.343174E-19	0.000000E+00
4.610000E+03	8.305619E-19	0.000000E+00
4.620000E+03	8.267691E-19	0.000000E+00
4.630000E+03	8.229939E-19	0.000000E+00
4.640000E+03	8.192373E-19	0.000000E+00
4.650000E+03	8.155001E-19	0.000000E+00
4.660000E+03	8.117307E-19	0.000000E+00
4.670000E+03	8.079325E-19	0.000000E+00
4.680000E+03	8.042080E-19	0.000000E+00
4.690000E+03	8.004569E-19	0.000000E+00
4.700000E+03	7.966800E-19	0.000000E+00
4.710000E+03	7.929294E-19	0.000000E+00
4.720000E+03	7.892055E-19	0.000000E+00
4.730000E+03	7.854596E-19	0.000000E+00
4.740000E+03	7.817421E-19	0.000000E+00
4.750000E+03	7.780053E-19	0.000000E+00
4.760000E+03	7.742990E-19	0.000000E+00
4.770000E+03	7.705756E-19	0.000000E+00
4.780000E+03	7.668843E-19	0.000000E+00
4.790000E+03	7.632245E-19	0.000000E+00
4.800000E+03	7.595502E-19	0.000000E+00
4.810000E+03	7.559097E-19	0.000000E+00
4.820000E+03	7.522562E-19	0.000000E+00
4.830000E+03	7.486376E-19	0.000000E+00
4.840000E+03	7.450082E-19	0.000000E+00
4.850000E+03	7.414136E-19	0.000000E+00
4.860000E+03	7.378098E-19	0.000000E+00
4.870000E+03	7.342425E-19	0.000000E+00
4.880000E+03	7.306671E-19	0.000000E+00
4.890000E+03	7.271280E-19	0.000000E+00
4.900000E+03	7.235825E-19	0.000000E+00
4.910000E+03	7.200744E-19	0.000000E+00
4.920000E+03	7.166037E-19	0.000000E+00
4.930000E+03	7.131272E-19	0.000000E+00
4.940000E+03	7.096463E-19	0.000000E+00
4.950000E+03	7.062034E-19	0.000000E+00
4.960000E+03	7.027979E-19	0.000000E+00
4.970000E+03	6.993887E-19	0.000000E+00
4.980000E+03	6.959768E-19	0.000000E+00
4.990000E+03	6.926028E-19	0.000000E+00
5.000000E+03	6.892668E-19	0.000000E+00
5.010000E+03	6.859280E-19	0.000000E+00
5.020000E+03	6.825877E-19	0.000000E+00
5.030000E+03	6.792848E-19	0.000000E+00
5.040000E+03	6.760204E-19	0.000000E+00
5.050000E+03	6.727538E-19	0.000000E+00
5.060000E+03	6.694856E-19	0.000000E+00
5.070000E+03	6.662553E-19	0.000000E+00
5.080000E+03	6.630625E-19	0.000000E+00
5.090000E+03	6.598680E-19	0.000000E+00
5.100000E+03	6.566730E-19	0.000000E+00
5.110000E+03	6.535143E-19	0.000000E+00
5.120000E+03	6.503925E-19	0.000000E+00
5.130000E+03	6.472697E-19	0.000000E+00
5.140000E+03	6.441826E-19	0.000000E+00
5.150000E+03	6.410945E-19	0.000000E+00
5.160000E+03	6.380053E-19	0.000000E+00
5.170000E+03	6.349518E-19	0.000000E+00
5.180000E+03	6.319332E-19	0.000000E+00
5.190000E+03	6.289134E-19	0.000000E+00
5.200000E+03	6.259279E-19	0.000000E+00
5.210000E+03	6.229412E-19	0.000000E+00
5.220000E+03	6.199883E-19	0.000000E+00
5.230000E+03	6.170332E-19	0.000000E+00
5.240000E+03	6.141122E-19	0.000000E+00
5.250000E+03	6.111887E-19	0.000000E+00
5.260000E+03	6.082982E-19	0.000000E+00
5.270000E+03	6.054056E-19	0.000000E+00
5.280000E+03	6.025451E-19	0.000000E+00
5.290000E+03	5.997161E-19	0.000000E+00
5.300000E+03	5.968507E-19	0.000000E+00
5.310000E+03	5.940500E-19	0.000000E+00
5.320000E+03	5.912467E-19	0.000000E+00
5.330000E+03	5.884737E-19	0.000000E+00
5.340000E+03	5.856971E-19	0.000000E+00
5.350000E+03	5.829178E-19	0.000000E+00
5.360000E+03	5.802004E-19	0.000000E+00
5.370000E+03	5.774473E-19	0.000000E+00
5.380000E+03	5.747550E-19	0.000000E+00
5.390000E+03	5.720591E-19	0.000000E+00
5.400000E+03	5.693593E-19	0.000000E+00
5.410000E+03	5.666869E-19	0.000000E+00
5.420000E+03	5.640422E-19	0.000000E+00
5.430000E+03	5.613932E-19	0.000000E+00
5.440000E+03	5.587710E-19	0.000000E+00
5.450000E+03	5.561439E-19	0.000000E+00
5.460000E+03	5.535436E-19	0.000000E+00
5.470000E+03	5.509689E-19	0.000000E+00
5.480000E+03	5.483894E-19	0.000000E+00
5.490000E+03	5.458350E-19	0.000000E+00
5.500000E+03	5.432753E-19	0.000000E+00
5.510000E+03	5.407406E-19	0.000000E+00
5.520000E+03	5.382300E-19	0.000000E+00
5.530000E+03	5.357141E-19	0.000000E+00
5.540000E+03	5.331930E-19	0.000000E+00
5.550000E+03	5.307250E-19	0.000000E+00
5.560000E+03	5.282510E-19	0.000000E+00
5.570000E+03	5.257712E-19	0.000000E+00
5.580000E+03	5.233435E-19	0.000000E+00
5.590000E+03	5.209095E-19	0.000000E+00
5.600000E+03	5.184694E-19	0.000000E+00
5.610000E+03	5.160517E-19	0.000000E+00
5.620000E+03	5.136561E-19	0.000000E+00
5.630000E+03	5.112540E-19	0.000000E+00
5.640000E+03	5.089019E-19	0.000000E+00
5.650000E+03	5.065150E-19	0.000000E+00
5.660000E+03	5.041773E-19	0.000000E+00
5.670000E+03	5.018329E-19	0.000000E+00
5.680000E+03	4.995092E-19	0.000000E+00
5.690000E+03	4.971786E-19	0.000000E+00
5.700000E+03	4.948686E-19	0.000000E+00
5.710000E+03	4.925789E-19	0.000000E+00
5.720000E+03	4.902820E-19	0.000000E+00
5.730000E+03	4.880050E-19	0.000000E+00
5.740000E+03	4.857478E-19	0.000000E+00
5.750000E+03	4.835100E-19	0.000000E+00
5.760000E+03	4.812648E-19	0.000000E+00
5.770000E+03	4.790387E-19	0.000000E+00
5.780000E+03	4.768051E-19	0.000000E+00
5.790000E+03	4.746167E-19	0.000000E+00
5.800000E+03	4.724205E-19	0.000000E+00
5.810000E+03	4.702167E-19	0.000000E+00
5.820000E+03	4.680572E-19	0.000000E+00
5.830000E+03	4.658897E-19	0.000000E+00
5.840000E+03	4.637401E-19	0.000000E+00
5.850000E+03	4.616080E-19	0.000000E+00
5.860000E+03	4.594680E-19	0.000000E+00
5.870000E+03	4.573452E-19	0.000000E+00
5.880000E+03	4.552396E-19	0.000000E+00
5.890000E+03	4.531507E-19	0.000000E+00
5.900000E+03	4.510536E-19	0.000000E+00
5.910000E+03	4.489730E-19	0.000000E+00
5.920000E+03	4.469087E-19	0.000000E+00
5.930000E+03	4.448605E-19	0.000000E+00
5.940000E+03	4.428036E-19	0.000000E+00
5.950000E+03	4.407626E-19	0.000000E+00
5.960000E+03	4.387370E-19	0.000000E+00
5.970000E+03	4.367268E-19	0.000000E+00
5.980000E+03	4.347076E-19	0.000000E+00
5.990000E+03	4.327273E-19	0.000000E+00
6.000000E+03	4.307377E-19	0.000000E+00
6.010000E+03	4.287627E-19	0.000000E+00
6.020000E+03	4.267783E-19	0.000000E+00
6.030000E+03	4.248317E-19	0.000000E+00
6.040000E+03	4.228753E-19	0.000000E+00
6.050000E+03	4.209328E-19	0.000000E+00
6.060000E+03	4.190037E-19	0.000000E+00
6.070000E+03	4.170879E-19	0.000000E+00
6.080000E+03	4.151619E-19	0.000000E+00
6.090000E+03	4.132719E-19	0.000000E+00
6.100000E+03	4.113715E-19	0.000000E+00
6.110000E+03	4.094836E-19	0.000000E+00
6.120000E+03	4.076079E-19	0.000000E+00
6.130000E+03	4.057215E-19	0.000000E+00
6.140000E+03	4.038695E-19	0.000000E+00
6.150000E+03	4.020066E-19	0.000000E+00
6.160000E+03	4.001775E-19	0.000000E+00
6.170000E+03	3.983370E-19	0.000000E+00
6.180000E+03	3.965076E-19	0.000000E+00
6.190000E+03	3.946668E-19	0.000000E+00
6.200000E+03	3.928587E-19	0.000000E+00
6.210000E+03	3.910389E-19	0.000000E+00
6.220000E+03	3.892511E-19	0.000000E+00
6.230000E+03	3.874514E-19	0.000000E+00
6.240000E+03	3.856615E-19	0.000000E+00
6.250000E+03	3.838811E-19	0.000000E+00
6.260000E+03	3.821100E-19	0.000000E+00
6.270000E+03	3.803480E-19	0.000000E+00
6.280000E+03	3.785737E-19	0.000000E+00
6.290000E+03	3.768294E-19	0.000000E+00
6.300000E+03	3.750726E-19	0.000000E+00
6.310000E+03	3.733452E-19	0.000000E+00
6.320000E+03	3.716050E-19	0.000000E+00
6.330000E+03	3.698729E-19	0.000000E+00
6.340000E+03	3.681487E-19	0.000000E+00
6.350000E+03	3.664322E-19	0.000000E+00
6.360000E+03	3.647234E-19	0.000000E+00
6.370000E+03	3.630219E-19	0.000000E+00
6.380000E+03	3.613072E-19	0.000000E+00
6.390000E+03	3.596202E-19	0.000000E+00
6.400000E+03	3.579198E-19	0.000000E+00
6.410000E+03	3.562464E-19	0.000000E+00
6.420000E+03	3.545597E-19	0.000000E+00
6.430000E+03	3.528797E-19	0.000000E+00
6.440000E+03	3.512261E-19	0.000000E+00
6.450000E+03	3.495590E-19	0.000000E+00
6.460000E+03	3.478982E-19	0.000000E+00
6.470000E+03	3.462436E-19	0.000000E+00
6.480000E+03	3.445951E-19	0.000000E+00
6.490000E+03	3.429526E-19	0.000000E+00
6.500000E+03	3.412966E-19	0.000000E+00
6.510000E+03	3.396659E-19	0.000000E+00
6.520000E+03	3.380410E-19	0.000000E+00
6.530000E+03	3.364218E-19	0.000000E+00
6.540000E+03	3.347891E-19	0.000000E+00
6.550000E+03	3.331811E-19	0.000000E+00
6.560000E+03	3.315597E-19	0.000000E+00
6.570000E+03	3.299627E-19	0.000000E+00
6.580000E+03	3.283524E-19	0.000000E+00
6.590000E+03	3.267663E-19	0.000000E+00
6.600000E+03	3.251668E-19	0.000000E+00
6.610000E+03	3.235915E-19	0.000000E+00
6.620000E+03	3.220029E-19	0.000000E+00
6.630000E+03	3.204197E-19	0.000000E+00
6.640000E+03	3.188602E-19	0.000000E+00
6.650000E+03	3.172878E-19	0.000000E+00
6.660000E+03	3.157208E-19	0.000000E+00
6.670000E+03	3.141591E-19	0.000000E+00
6.680000E+03	3.126028E-19	0.000000E+00
6.690000E+03	3.110698E-19	0.000000E+00
6.700000E+03	3.095243E-19	0.000000E+00
6.710000E+03	3.079841E-19	0.000000E+00
6.720000E+03	3.064494E-19	0.000000E+00
6.730000E+03	3.049201E-19	0.000000E+00
6.740000E+03	3.033964E-19	0.000000E+00
6.750000E+03	3.018780E-19	0.000000E+00
6.760000E+03	3.003653E-19	0.000000E+00
6.770000E+03	2.988580E-19	0.000000E+00
6.780000E+03	2.973564E-19	0.000000E+00
6.790000E+03	2.958603E-19	0.000000E+00
6.800000E+03	2.943699E-19	0.000000E+00
6.810000E+03	2.928851E-19	0.000000E+00
6.820000E+03	2.914060E-19	0.000000E+00
6.830000E+03	2.899327E-19	0.000000E+00
6.840000E+03	2.884651E-19	0.000000E+00
6.850000E+03	2.869865E-19	0.000000E+00
6.860000E+03	2.855307E-19	0.000000E+00
6.870000E+03	2.840806E-19	0.000000E+00
6.880000E+03	2.826365E-19	0.000000E+00
6.890000E+03	2.811982E-19	0.000000E+00
6.900000E+03	2.797659E-19	0.000000E+00
6.910000E+03	2.783232E-19	0.000000E+00
6.920000E+03	2.769030E-19	0.000000E+00
6.930000E+03	2.754887E-19	0.000000E+00
6.940000E+03	2.740805E-19	0.000000E+00
6.950000E+03	2.726623E-19	0.000000E+00
6.960000E+03	2.712663E-19	0.000000E+00
6.970000E+03	2.698764E-19	0.000000E+00
6.980000E+03	2.684768E-19	0.000000E+00
6.990000E+03	2.670991E-19	0.000000E+00
7.000000E+03	2.657277E-19	0.000000E+00
7.010000E+03	2.643467E-19	0.000000E+00
7.020000E+03	2.629875E-19	0.000000E+00
7.030000E+03	2.616190E-19	0.000000E+00
7.040000E+03	2.602722E-19	0.000000E+00
7.050000E+03	2.589161E-19	0.000000E+00
7.060000E+03	2.575817E-19	0.000000E+00
7.070000E+03	2.562381E-19	0.000000E+00
7.080000E+03	2.549159E-19	0.000000E+00
7.090000E+03	2.535847E-19	0.000000E+00
7.100000E+03	2.522596E-19	0.000000E+00
7.110000E+03	2.509558E-19	0.000000E+00
7.120000E+03	2.496430E-19	0.000000E+00
7.130000E+03	2.483364E-19	0.000000E+00
7.140000E+03	2.470358E-19	0.000000E+00
7.150000E+03	2.457413E-19	0.000000E+00
7.160000E+03	2.444529E-19	0.000000E+00
7.170000E+03	2.431705E-19	0.000000E+00
7.180000E+03	2.418940E-19	0.000000E+00
7.190000E+03	2.406234E-19	0.000000E+00
7.200000E+03	2.393587E-19	0.000000E+00
7.210000E+03	2.380998E-19	0.000000E+00
7.220000E+03	2.368325E-19	0.000000E+00
7.230000E+03	2.355852E-19	0.000000E+00
7.240000E+03	2.343295E-19	0.000000E+00
7.250000E+03	2.330936E-19	0.000000E+00
7.260000E+03	2.318493E-19	0.000000E+00
7.270000E+03	2.306246E-19	0.000000E+00
7.280000E+03	2.293915E-19	0.000000E+00
7.290000E+03	2.281640E-19	0.000000E+00
7.300000E+03	2.269419E-19	0.000000E+00
7.310000E+03	2.257254E-19	0.000000E+00
7.320000E+03	2.245142E-19	0.000000E+00
7.330000E+03	2.233084E-19	0.000000E+00
7.340000E+03	2.221078E-19	0.000000E+00
7.350000E+03	2.208991E-19	0.000000E+00
7.360000E+03	2.197090E-19	0.000000E+00
7.370000E+03	2.185107E-19	0.000000E+00
7.380000E+03	2.173310E-19	0.000000E+00
7.390000E+03	2.161431E-19	0.000000E+00
7.400000E+03	2.149602E-19	0.000000E+00
7.410000E+03	2.137825E-19	0.000000E+00
7.420000E+03	2.126097E-19	0.000000E+00
7.430000E+03	2.114420E-19	0.000000E+00
7.440000E+03	2.102663E-19	0.000000E+00
7.450000E+03	2.091084E-19	0.000000E+00
7.460000E+03	2.079426E-19	0.000000E+00
7.470000E+03	2.067946E-19	0.000000E+00
7.480000E+03	2.056386E-19	0.000000E+00
7.490000E+03	2.044875E-19	0.000000E+00
7.500000E+03	2.033413E-19	0.000000E+00
7.510000E+03	2.021875E-19	0.000000E+00
7.520000E+03	2.010510E-19	0.000000E+00
7.530000E+03	1.999193E-19	0.000000E+00
7.540000E+03	1.987801E-19	0.000000E+00
7.550000E+03	1.976459E-19	0.000000E+00
7.560000E+03	1.965165E-19	0.000000E+00
7.570000E+03	1.953920E-19	0.000000E+00
7.580000E+03	1.942724E-19	0.000000E+00
7.590000E+03	1.931456E-19	0.000000E+00
7.600000E+03	1.920359E-19	0.000000E+00
7.610000E+03	1.909192E-19	0.000000E+00
7.620000E+03	1.898074E-19	0.000000E+00
7.630000E+03	1.887008E-19	0.000000E+00
7.640000E+03	1.875992E-19	0.000000E+00
7.650000E+03	1.864911E-19	0.000000E+00
7.660000E+03	1.853998E-19	0.000000E+00
7.670000E+03	1.843021E-19	0.000000E+00
7.680000E+03	1.832097E-19	0.000000E+00
7.690000E+03	1.821227E-19	0.000000E+00
7.700000E+03	1.810410E-19	0.000000E+00
7.710000E+03	1.799534E-19	0.000000E+00
7.720000E+03	1.788828E-19	0.000000E+00
7.730000E+03	1.778064E-19	0.000000E+00
7.740000E+03	1.767357E-19	0.000000E+00
7.750000E+03	1.756708E-19	0.000000E+00
7.760000E+03	1.746006E-19	0.000000E+00
