#wls	flux	fluxerr
1.600000E+03	1.021143E-19	0.000000E+00
1.640000E+03	1.039918E-19	0.000000E+00
1.680000E+03	1.059120E-19	0.000000E+00
1.720000E+03	1.078747E-19	0.000000E+00
1.760000E+03	1.099177E-19	0.000000E+00
1.800000E+03	1.120034E-19	0.000000E+00
1.840000E+03	1.141312E-19	0.000000E+00
1.880000E+03	1.163402E-19	0.000000E+00
1.920000E+03	1.185906E-19	0.000000E+00
1.960000E+03	1.208810E-19	0.000000E+00
2.000000E+03	1.232519E-19	0.000000E+00
2.040000E+03	1.256606E-19	0.000000E+00
2.080000E+03	1.281268E-19	0.000000E+00
2.120000E+03	1.306490E-19	0.000000E+00
2.160000E+03	1.332030E-19	0.000000E+00
2.200000E+03	1.358313E-19	0.000000E+00
2.240000E+03	1.384861E-19	0.000000E+00
2.280000E+03	1.412105E-19	0.000000E+00
2.320000E+03	1.439546E-19	0.000000E+00
2.360000E+03	1.467377E-19	0.000000E+00
2.400000E+03	1.495558E-19	0.000000E+00
2.440000E+03	1.524041E-19	0.000000E+00
2.480000E+03	1.553028E-19	0.000000E+00
2.520000E+03	1.581959E-19	0.000000E+00
2.560000E+03	1.611022E-19	0.000000E+00
2.600000E+03	1.640414E-19	0.000000E+00
2.640000E+03	1.669538E-19	0.000000E+00
2.680000E+03	1.698848E-19	0.000000E+00
2.720000E+03	1.727724E-19	0.000000E+00
2.760000E+03	1.756622E-19	0.000000E+00
2.800000E+03	1.785180E-19	0.000000E+00
2.840000E+03	1.813301E-19	0.000000E+00
2.880000E+03	1.841169E-19	0.000000E+00
2.920000E+03	1.868116E-19	0.000000E+00
2.960000E+03	1.894605E-19	0.000000E+00
3.000000E+03	1.920244E-19	0.000000E+00
3.010000E+03	1.926536E-19	0.000000E+00
3.020000E+03	1.932747E-19	0.000000E+00
3.030000E+03	1.938877E-19	0.000000E+00
3.040000E+03	1.944924E-19	0.000000E+00
3.050000E+03	1.950884E-19	0.000000E+00
3.060000E+03	1.957053E-19	0.000000E+00
3.070000E+03	1.962838E-19	0.000000E+00
3.080000E+03	1.968533E-19	0.000000E+00
3.090000E+03	1.974431E-19	0.000000E+00
3.100000E+03	1.980233E-19	0.000000E+00
3.110000E+03	1.985648E-19	0.000000E+00
3.120000E+03	1.991258E-19	0.000000E+00
3.130000E+03	1.996773E-19	0.000000E+00
3.140000E+03	2.002184E-19	0.000000E+00
3.150000E+03	2.007494E-19	0.000000E+00
3.160000E+03	2.012701E-19	0.000000E+00
3.170000E+03	2.017801E-19	0.000000E+00
3.180000E+03	2.022795E-19	0.000000E+00
3.190000E+03	2.027681E-19	0.000000E+00
3.200000E+03	2.032454E-19	0.000000E+00
3.210000E+03	2.037415E-19	0.000000E+00
3.220000E+03	2.041964E-19	0.000000E+00
3.230000E+03	2.046696E-19	0.000000E+00
3.240000E+03	2.051014E-19	0.000000E+00
3.250000E+03	2.055512E-19	0.000000E+00
3.260000E+03	2.059891E-19	0.000000E+00
3.270000E+03	2.063851E-19	0.000000E+00
3.280000E+03	2.067985E-19	0.000000E+00
3.290000E+03	2.071999E-19	0.000000E+00
3.300000E+03	2.075886E-19	0.000000E+00
3.310000E+03	2.079646E-19	0.000000E+00
3.320000E+03	2.083279E-19	0.000000E+00
3.330000E+03	2.087082E-19	0.000000E+00
3.340000E+03	2.090457E-19	0.000000E+00
3.350000E+03	2.093700E-19	0.000000E+00
3.360000E+03	2.097110E-19	0.000000E+00
3.370000E+03	2.100088E-19	0.000000E+00
3.380000E+03	2.103230E-19	0.000000E+00
3.390000E+03	2.105938E-19	0.000000E+00
3.400000E+03	2.108807E-19	0.000000E+00
3.410000E+03	2.111242E-19	0.000000E+00
3.420000E+03	2.113835E-19	0.000000E+00
3.430000E+03	2.116289E-19	0.000000E+00
3.440000E+03	2.118603E-19	0.000000E+00
3.450000E+03	2.120778E-19	0.000000E+00
3.460000E+03	2.122808E-19	0.000000E+00
3.470000E+03	2.124698E-19	0.000000E+00
3.480000E+03	2.126446E-19	0.000000E+00
3.490000E+03	2.128050E-19	0.000000E+00
3.500000E+03	2.129510E-19	0.000000E+00
3.510000E+03	2.131119E-19	0.000000E+00
3.520000E+03	2.132291E-19	0.000000E+00
3.530000E+03	2.133317E-19	0.000000E+00
3.540000E+03	2.134491E-19	0.000000E+00
3.550000E+03	2.135226E-19	0.000000E+00
3.560000E+03	2.136108E-19	0.000000E+00
3.570000E+03	2.136844E-19	0.000000E+00
3.580000E+03	2.137142E-19	0.000000E+00
3.590000E+03	2.137584E-19	0.000000E+00
3.600000E+03	2.137879E-19	0.000000E+00
3.610000E+03	2.137741E-19	0.000000E+00
3.620000E+03	2.137745E-19	0.000000E+00
3.630000E+03	2.137603E-19	0.000000E+00
3.640000E+03	2.137315E-19	0.000000E+00
3.650000E+03	2.136881E-19	0.000000E+00
3.660000E+03	2.136303E-19	0.000000E+00
3.670000E+03	2.135581E-19	0.000000E+00
3.680000E+03	2.134714E-19	0.000000E+00
3.690000E+03	2.133702E-19	0.000000E+00
3.700000E+03	2.132832E-19	0.000000E+00
3.710000E+03	2.131536E-19	0.000000E+00
3.720000E+03	2.130099E-19	0.000000E+00
3.730000E+03	2.128521E-19	0.000000E+00
3.740000E+03	2.127082E-19	0.000000E+00
3.750000E+03	2.125225E-19	0.000000E+00
3.760000E+03	2.123230E-19	0.000000E+00
3.770000E+03	2.121375E-19	0.000000E+00
3.780000E+03	2.119106E-19	0.000000E+00
3.790000E+03	2.116978E-19	0.000000E+00
3.800000E+03	2.114440E-19	0.000000E+00
3.810000E+03	2.112044E-19	0.000000E+00
3.820000E+03	2.109241E-19	0.000000E+00
3.830000E+03	2.106582E-19	0.000000E+00
3.840000E+03	2.103520E-19	0.000000E+00
3.850000E+03	2.100602E-19	0.000000E+00
3.860000E+03	2.097287E-19	0.000000E+00
3.870000E+03	2.094117E-19	0.000000E+00
3.880000E+03	2.090823E-19	0.000000E+00
3.890000E+03	2.087140E-19	0.000000E+00
3.900000E+03	2.083602E-19	0.000000E+00
3.910000E+03	2.079946E-19	0.000000E+00
3.920000E+03	2.075907E-19	0.000000E+00
3.930000E+03	2.072018E-19	0.000000E+00
3.940000E+03	2.068014E-19	0.000000E+00
3.950000E+03	2.063638E-19	0.000000E+00
3.960000E+03	2.059413E-19	0.000000E+00
3.970000E+03	2.055078E-19	0.000000E+00
3.980000E+03	2.050636E-19	0.000000E+00
3.990000E+03	2.045832E-19	0.000000E+00
4.000000E+03	2.041184E-19	0.000000E+00
4.010000E+03	2.036434E-19	0.000000E+00
4.020000E+03	2.031588E-19	0.000000E+00
4.030000E+03	2.026390E-19	0.000000E+00
4.040000E+03	2.021351E-19	0.000000E+00
4.050000E+03	2.016218E-19	0.000000E+00
4.060000E+03	2.010746E-19	0.000000E+00
4.070000E+03	2.005436E-19	0.000000E+00
4.080000E+03	2.000039E-19	0.000000E+00
4.090000E+03	1.994314E-19	0.000000E+00
4.100000E+03	1.988751E-19	0.000000E+00
4.110000E+03	1.983108E-19	0.000000E+00
4.120000E+03	1.977146E-19	0.000000E+00
4.130000E+03	1.971352E-19	0.000000E+00
4.140000E+03	1.965243E-19	0.000000E+00
4.150000E+03	1.959307E-19	0.000000E+00
4.160000E+03	1.953060E-19	0.000000E+00
4.170000E+03	1.946987E-19	0.000000E+00
4.180000E+03	1.940615E-19	0.000000E+00
4.190000E+03	1.934415E-19	0.000000E+00
4.200000E+03	1.927923E-19	0.000000E+00
4.210000E+03	1.921606E-19	0.000000E+00
4.220000E+03	1.915003E-19	0.000000E+00
4.230000E+03	1.908349E-19	0.000000E+00
4.240000E+03	1.901646E-19	0.000000E+00
4.250000E+03	1.895121E-19	0.000000E+00
4.260000E+03	1.888324E-19	0.000000E+00
4.270000E+03	1.881485E-19	0.000000E+00
4.280000E+03	1.874605E-19	0.000000E+00
4.290000E+03	1.867686E-19	0.000000E+00
4.300000E+03	1.860731E-19	0.000000E+00
4.310000E+03	1.853741E-19	0.000000E+00
4.320000E+03	1.846719E-19	0.000000E+00
4.330000E+03	1.839667E-19	0.000000E+00
4.340000E+03	1.832586E-19	0.000000E+00
4.350000E+03	1.825479E-19	0.000000E+00
4.360000E+03	1.818135E-19	0.000000E+00
4.370000E+03	1.810983E-19	0.000000E+00
4.380000E+03	1.803810E-19	0.000000E+00
4.390000E+03	1.796410E-19	0.000000E+00
4.400000E+03	1.789203E-19	0.000000E+00
4.410000E+03	1.781774E-19	0.000000E+00
4.420000E+03	1.774335E-19	0.000000E+00
4.430000E+03	1.767092E-19	0.000000E+00
4.440000E+03	1.759636E-19	0.000000E+00
4.450000E+03	1.752175E-19	0.000000E+00
4.460000E+03	1.744710E-19	0.000000E+00
4.470000E+03	1.737243E-19	0.000000E+00
4.480000E+03	1.729775E-19	0.000000E+00
4.490000E+03	1.722309E-19	0.000000E+00
4.500000E+03	1.714846E-19	0.000000E+00
4.510000E+03	1.707387E-19	0.000000E+00
4.520000E+03	1.699741E-19	0.000000E+00
4.530000E+03	1.692297E-19	0.000000E+00
4.540000E+03	1.684861E-19	0.000000E+00
4.550000E+03	1.677246E-19	0.000000E+00
4.560000E+03	1.669644E-19	0.000000E+00
4.570000E+03	1.662246E-19	0.000000E+00
4.580000E+03	1.654675E-19	0.000000E+00
4.590000E+03	1.647122E-19	0.000000E+00
4.600000E+03	1.639587E-19	0.000000E+00
4.610000E+03	1.632073E-19	0.000000E+00
4.620000E+03	1.624581E-19	0.000000E+00
4.630000E+03	1.617111E-19	0.000000E+00
4.640000E+03	1.609664E-19	0.000000E+00
4.650000E+03	1.602063E-19	0.000000E+00
4.660000E+03	1.594668E-19	0.000000E+00
4.670000E+03	1.587122E-19	0.000000E+00
4.680000E+03	1.579782E-19	0.000000E+00
4.690000E+03	1.572296E-19	0.000000E+00
4.700000E+03	1.564841E-19	0.000000E+00
4.710000E+03	1.557419E-19	0.000000E+00
4.720000E+03	1.550030E-19	0.000000E+00
4.730000E+03	1.542674E-19	0.000000E+00
4.740000E+03	1.535354E-19	0.000000E+00
4.750000E+03	1.527900E-19	0.000000E+00
4.760000E+03	1.520652E-19	0.000000E+00
4.770000E+03	1.513440E-19	0.000000E+00
4.780000E+03	1.506101E-19	0.000000E+00
4.790000E+03	1.498801E-19	0.000000E+00
4.800000E+03	1.491542E-19	0.000000E+00
4.810000E+03	1.484486E-19	0.000000E+00
4.820000E+03	1.477308E-19	0.000000E+00
4.830000E+03	1.470011E-19	0.000000E+00
4.840000E+03	1.462918E-19	0.000000E+00
4.850000E+03	1.455868E-19	0.000000E+00
4.860000E+03	1.448861E-19	0.000000E+00
4.870000E+03	1.441740E-19	0.000000E+00
4.880000E+03	1.434665E-19	0.000000E+00
4.890000E+03	1.427791E-19	0.000000E+00
4.900000E+03	1.420807E-19	0.000000E+00
4.910000E+03	1.413869E-19	0.000000E+00
4.920000E+03	1.406978E-19	0.000000E+00
4.930000E+03	1.400134E-19	0.000000E+00
4.940000E+03	1.393336E-19	0.000000E+00
4.950000E+03	1.386436E-19	0.000000E+00
4.960000E+03	1.379733E-19	0.000000E+00
4.970000E+03	1.372929E-19	0.000000E+00
4.980000E+03	1.366175E-19	0.000000E+00
4.990000E+03	1.359615E-19	0.000000E+00
5.000000E+03	1.352958E-19	0.000000E+00
5.010000E+03	1.346349E-19	0.000000E+00
5.020000E+03	1.339790E-19	0.000000E+00
5.030000E+03	1.333136E-19	0.000000E+00
5.040000E+03	1.326675E-19	0.000000E+00
5.050000E+03	1.320263E-19	0.000000E+00
5.060000E+03	1.313759E-19	0.000000E+00
5.070000E+03	1.307305E-19	0.000000E+00
5.080000E+03	1.301040E-19	0.000000E+00
5.090000E+03	1.294685E-19	0.000000E+00
5.100000E+03	1.288379E-19	0.000000E+00
5.110000E+03	1.282123E-19	0.000000E+00
5.120000E+03	1.275917E-19	0.000000E+00
5.130000E+03	1.269625E-19	0.000000E+00
5.140000E+03	1.263516E-19	0.000000E+00
5.150000E+03	1.257324E-19	0.000000E+00
5.160000E+03	1.251313E-19	0.000000E+00
5.170000E+03	1.245219E-19	0.000000E+00
5.180000E+03	1.239174E-19	0.000000E+00
5.190000E+03	1.233178E-19	0.000000E+00
5.200000E+03	1.227230E-19	0.000000E+00
5.210000E+03	1.221331E-19	0.000000E+00
5.220000E+03	1.215352E-19	0.000000E+00
5.230000E+03	1.209549E-19	0.000000E+00
5.240000E+03	1.203793E-19	0.000000E+00
5.250000E+03	1.197959E-19	0.000000E+00
5.260000E+03	1.192173E-19	0.000000E+00
5.270000E+03	1.186434E-19	0.000000E+00
5.280000E+03	1.180743E-19	0.000000E+00
5.290000E+03	1.175098E-19	0.000000E+00
5.300000E+03	1.169500E-19	0.000000E+00
5.310000E+03	1.163948E-19	0.000000E+00
5.320000E+03	1.158441E-19	0.000000E+00
5.330000E+03	1.152860E-19	0.000000E+00
5.340000E+03	1.147444E-19	0.000000E+00
5.350000E+03	1.141954E-19	0.000000E+00
5.360000E+03	1.136509E-19	0.000000E+00
5.370000E+03	1.131109E-19	0.000000E+00
5.380000E+03	1.125754E-19	0.000000E+00
5.390000E+03	1.120443E-19	0.000000E+00
5.400000E+03	1.115175E-19	0.000000E+00
5.410000E+03	1.109951E-19	0.000000E+00
5.420000E+03	1.104655E-19	0.000000E+00
5.430000E+03	1.099516E-19	0.000000E+00
5.440000E+03	1.094306E-19	0.000000E+00
5.450000E+03	1.089139E-19	0.000000E+00
5.460000E+03	1.084014E-19	0.000000E+00
5.470000E+03	1.079042E-19	0.000000E+00
5.480000E+03	1.074000E-19	0.000000E+00
5.490000E+03	1.068887E-19	0.000000E+00
5.500000E+03	1.063927E-19	0.000000E+00
5.510000E+03	1.059006E-19	0.000000E+00
5.520000E+03	1.054126E-19	0.000000E+00
5.530000E+03	1.049176E-19	0.000000E+00
5.540000E+03	1.044265E-19	0.000000E+00
5.550000E+03	1.039502E-19	0.000000E+00
5.560000E+03	1.034670E-19	0.000000E+00
5.570000E+03	1.029876E-19	0.000000E+00
5.580000E+03	1.025121E-19	0.000000E+00
5.590000E+03	1.020403E-19	0.000000E+00
5.600000E+03	1.015722E-19	0.000000E+00
5.610000E+03	1.011078E-19	0.000000E+00
5.620000E+03	1.006367E-19	0.000000E+00
5.630000E+03	1.001796E-19	0.000000E+00
5.640000E+03	9.971581E-20	0.000000E+00
5.650000E+03	9.926584E-20	0.000000E+00
5.660000E+03	9.880915E-20	0.000000E+00
5.670000E+03	9.835599E-20	0.000000E+00
5.680000E+03	9.791642E-20	0.000000E+00
5.690000E+03	9.747016E-20	0.000000E+00
5.700000E+03	9.702730E-20	0.000000E+00
5.710000E+03	9.657784E-20	0.000000E+00
5.720000E+03	9.614171E-20	0.000000E+00
5.730000E+03	9.570886E-20	0.000000E+00
5.740000E+03	9.527925E-20	0.000000E+00
5.750000E+03	9.484309E-20	0.000000E+00
5.760000E+03	9.441990E-20	0.000000E+00
5.770000E+03	9.399015E-20	0.000000E+00
5.780000E+03	9.356358E-20	0.000000E+00
5.790000E+03	9.314974E-20	0.000000E+00
5.800000E+03	9.272935E-20	0.000000E+00
5.810000E+03	9.231203E-20	0.000000E+00
5.820000E+03	9.189772E-20	0.000000E+00
5.830000E+03	9.148638E-20	0.000000E+00
5.840000E+03	9.107799E-20	0.000000E+00
5.850000E+03	9.066320E-20	0.000000E+00
5.860000E+03	9.026062E-20	0.000000E+00
5.870000E+03	8.986089E-20	0.000000E+00
5.880000E+03	8.945474E-20	0.000000E+00
5.890000E+03	8.906059E-20	0.000000E+00
5.900000E+03	8.866006E-20	0.000000E+00
5.910000E+03	8.826230E-20	0.000000E+00
5.920000E+03	8.787629E-20	0.000000E+00
5.930000E+03	8.748392E-20	0.000000E+00
5.940000E+03	8.709419E-20	0.000000E+00
5.950000E+03	8.670711E-20	0.000000E+00
5.960000E+03	8.632260E-20	0.000000E+00
5.970000E+03	8.594068E-20	0.000000E+00
5.980000E+03	8.556125E-20	0.000000E+00
5.990000E+03	8.518433E-20	0.000000E+00
6.000000E+03	8.480115E-20	0.000000E+00
6.010000E+03	8.442916E-20	0.000000E+00
6.020000E+03	8.405956E-20	0.000000E+00
6.030000E+03	8.368369E-20	0.000000E+00
6.040000E+03	8.331882E-20	0.000000E+00
6.050000E+03	8.294770E-20	0.000000E+00
6.060000E+03	8.258743E-20	0.000000E+00
6.070000E+03	8.222092E-20	0.000000E+00
6.080000E+03	8.185671E-20	0.000000E+00
6.090000E+03	8.149475E-20	0.000000E+00
6.100000E+03	8.113498E-20	0.000000E+00
6.110000E+03	8.078574E-20	0.000000E+00
6.120000E+03	8.043029E-20	0.000000E+00
6.130000E+03	8.007698E-20	0.000000E+00
6.140000E+03	7.971756E-20	0.000000E+00
6.150000E+03	7.936846E-20	0.000000E+00
6.160000E+03	7.902140E-20	0.000000E+00
6.170000E+03	7.867637E-20	0.000000E+00
6.180000E+03	7.833332E-20	0.000000E+00
6.190000E+03	7.798419E-20	0.000000E+00
6.200000E+03	7.764510E-20	0.000000E+00
6.210000E+03	7.729993E-20	0.000000E+00
6.220000E+03	7.696466E-20	0.000000E+00
6.230000E+03	7.662335E-20	0.000000E+00
6.240000E+03	7.629180E-20	0.000000E+00
6.250000E+03	7.595424E-20	0.000000E+00
6.260000E+03	7.561853E-20	0.000000E+00
6.270000E+03	7.529241E-20	0.000000E+00
6.280000E+03	7.496030E-20	0.000000E+00
6.290000E+03	7.462998E-20	0.000000E+00
6.300000E+03	7.430144E-20	0.000000E+00
6.310000E+03	7.397462E-20	0.000000E+00
6.320000E+03	7.364952E-20	0.000000E+00
6.330000E+03	7.332611E-20	0.000000E+00
6.340000E+03	7.300439E-20	0.000000E+00
6.350000E+03	7.268431E-20	0.000000E+00
6.360000E+03	7.236589E-20	0.000000E+00
6.370000E+03	7.204906E-20	0.000000E+00
6.380000E+03	7.173382E-20	0.000000E+00
6.390000E+03	7.141281E-20	0.000000E+00
6.400000E+03	7.110075E-20	0.000000E+00
6.410000E+03	7.079022E-20	0.000000E+00
6.420000E+03	7.047394E-20	0.000000E+00
6.430000E+03	7.016647E-20	0.000000E+00
6.440000E+03	6.986050E-20	0.000000E+00
6.450000E+03	6.954881E-20	0.000000E+00
6.460000E+03	6.924580E-20	0.000000E+00
6.470000E+03	6.893709E-20	0.000000E+00
6.480000E+03	6.862987E-20	0.000000E+00
6.490000E+03	6.833120E-20	0.000000E+00
6.500000E+03	6.802687E-20	0.000000E+00
6.510000E+03	6.772400E-20	0.000000E+00
6.520000E+03	6.742953E-20	0.000000E+00
6.530000E+03	6.712946E-20	0.000000E+00
6.540000E+03	6.683079E-20	0.000000E+00
6.550000E+03	6.653351E-20	0.000000E+00
6.560000E+03	6.623760E-20	0.000000E+00
6.570000E+03	6.594991E-20	0.000000E+00
6.580000E+03	6.565671E-20	0.000000E+00
6.590000E+03	6.536483E-20	0.000000E+00
6.600000E+03	6.507428E-20	0.000000E+00
6.610000E+03	6.478505E-20	0.000000E+00
6.620000E+03	6.449715E-20	0.000000E+00
6.630000E+03	6.420385E-20	0.000000E+00
6.640000E+03	6.391855E-20	0.000000E+00
6.650000E+03	6.363454E-20	0.000000E+00
6.660000E+03	6.335179E-20	0.000000E+00
6.670000E+03	6.307033E-20	0.000000E+00
6.680000E+03	6.278356E-20	0.000000E+00
6.690000E+03	6.250460E-20	0.000000E+00
6.700000E+03	6.222690E-20	0.000000E+00
6.710000E+03	6.195042E-20	0.000000E+00
6.720000E+03	6.166872E-20	0.000000E+00
6.730000E+03	6.139472E-20	0.000000E+00
6.740000E+03	6.111553E-20	0.000000E+00
6.750000E+03	6.084396E-20	0.000000E+00
6.760000E+03	6.056726E-20	0.000000E+00
6.770000E+03	6.029810E-20	0.000000E+00
6.780000E+03	6.002386E-20	0.000000E+00
6.790000E+03	5.975710E-20	0.000000E+00
6.800000E+03	5.948529E-20	0.000000E+00
6.810000E+03	5.922090E-20	0.000000E+00
6.820000E+03	5.895150E-20	0.000000E+00
6.830000E+03	5.868331E-20	0.000000E+00
6.840000E+03	5.842245E-20	0.000000E+00
6.850000E+03	5.815663E-20	0.000000E+00
6.860000E+03	5.789203E-20	0.000000E+00
6.870000E+03	5.762861E-20	0.000000E+00
6.880000E+03	5.736638E-20	0.000000E+00
6.890000E+03	5.711133E-20	0.000000E+00
6.900000E+03	5.685144E-20	0.000000E+00
6.910000E+03	5.659273E-20	0.000000E+00
6.920000E+03	5.633519E-20	0.000000E+00
6.930000E+03	5.607882E-20	0.000000E+00
6.940000E+03	5.582359E-20	0.000000E+00
6.950000E+03	5.556956E-20	0.000000E+00
6.960000E+03	5.531667E-20	0.000000E+00
6.970000E+03	5.506493E-20	0.000000E+00
6.980000E+03	5.481436E-20	0.000000E+00
6.990000E+03	5.455915E-20	0.000000E+00
7.000000E+03	5.431090E-20	0.000000E+00
7.010000E+03	5.406377E-20	0.000000E+00
7.020000E+03	5.381779E-20	0.000000E+00
7.030000E+03	5.357296E-20	0.000000E+00
7.040000E+03	5.332362E-20	0.000000E+00
7.050000E+03	5.308107E-20	0.000000E+00
7.060000E+03	5.283964E-20	0.000000E+00
7.070000E+03	5.259380E-20	0.000000E+00
7.080000E+03	5.235466E-20	0.000000E+00
7.090000E+03	5.211111E-20	0.000000E+00
7.100000E+03	5.187424E-20	0.000000E+00
7.110000E+03	5.163848E-20	0.000000E+00
7.120000E+03	5.139839E-20	0.000000E+00
7.130000E+03	5.115945E-20	0.000000E+00
7.140000E+03	5.092710E-20	0.000000E+00
7.150000E+03	5.069045E-20	0.000000E+00
7.160000E+03	5.046033E-20	0.000000E+00
7.170000E+03	5.022598E-20	0.000000E+00
7.180000E+03	4.999277E-20	0.000000E+00
7.190000E+03	4.976071E-20	0.000000E+00
7.200000E+03	4.953507E-20	0.000000E+00
7.210000E+03	4.930529E-20	0.000000E+00
7.220000E+03	4.907663E-20	0.000000E+00
7.230000E+03	4.884913E-20	0.000000E+00
7.240000E+03	4.862277E-20	0.000000E+00
7.250000E+03	4.839754E-20	0.000000E+00
7.260000E+03	4.817346E-20	0.000000E+00
7.270000E+03	4.795051E-20	0.000000E+00
7.280000E+03	4.772871E-20	0.000000E+00
7.290000E+03	4.750803E-20	0.000000E+00
7.300000E+03	4.728849E-20	0.000000E+00
7.310000E+03	4.707007E-20	0.000000E+00
7.320000E+03	4.685281E-20	0.000000E+00
7.330000E+03	4.663667E-20	0.000000E+00
7.340000E+03	4.641666E-20	0.000000E+00
7.350000E+03	4.620280E-20	0.000000E+00
7.360000E+03	4.599009E-20	0.000000E+00
7.370000E+03	4.577356E-20	0.000000E+00
7.380000E+03	4.556312E-20	0.000000E+00
7.390000E+03	4.534891E-20	0.000000E+00
7.400000E+03	4.514075E-20	0.000000E+00
7.410000E+03	4.492888E-20	0.000000E+00
7.420000E+03	4.472300E-20	0.000000E+00
7.430000E+03	4.451346E-20	0.000000E+00
7.440000E+03	4.430988E-20	0.000000E+00
7.450000E+03	4.410265E-20	0.000000E+00
7.460000E+03	4.389662E-20	0.000000E+00
7.470000E+03	4.369648E-20	0.000000E+00
7.480000E+03	4.349276E-20	0.000000E+00
7.490000E+03	4.329023E-20	0.000000E+00
7.500000E+03	4.308888E-20	0.000000E+00
7.510000E+03	4.288872E-20	0.000000E+00
7.520000E+03	4.268974E-20	0.000000E+00
7.530000E+03	4.249193E-20	0.000000E+00
7.540000E+03	4.229532E-20	0.000000E+00
7.550000E+03	4.209991E-20	0.000000E+00
7.560000E+03	4.190567E-20	0.000000E+00
7.570000E+03	4.171266E-20	0.000000E+00
7.580000E+03	4.152081E-20	0.000000E+00
7.590000E+03	4.132567E-20	0.000000E+00
7.600000E+03	4.113626E-20	0.000000E+00
7.610000E+03	4.094806E-20	0.000000E+00
7.620000E+03	4.075662E-20	0.000000E+00
7.630000E+03	4.057086E-20	0.000000E+00
7.640000E+03	4.038190E-20	0.000000E+00
7.650000E+03	4.019860E-20	0.000000E+00
7.660000E+03	4.001213E-20	0.000000E+00
7.670000E+03	3.983130E-20	0.000000E+00
7.680000E+03	3.964735E-20	0.000000E+00
7.690000E+03	3.946469E-20	0.000000E+00
7.700000E+03	3.928760E-20	0.000000E+00
7.710000E+03	3.910748E-20	0.000000E+00
7.720000E+03	3.892863E-20	0.000000E+00
7.730000E+03	3.875107E-20	0.000000E+00
7.740000E+03	3.857482E-20	0.000000E+00
7.750000E+03	3.839985E-20	0.000000E+00
7.760000E+03	3.822620E-20	0.000000E+00
