#wls	flux	fluxerr
1.600000E+03	2.864182E-21	0.000000E+00
1.640000E+03	2.886789E-21	0.000000E+00
1.680000E+03	2.908869E-21	0.000000E+00
1.720000E+03	2.930913E-21	0.000000E+00
1.760000E+03	2.952898E-21	0.000000E+00
1.800000E+03	2.975332E-21	0.000000E+00
1.840000E+03	2.997121E-21	0.000000E+00
1.880000E+03	3.018769E-21	0.000000E+00
1.920000E+03	3.040793E-21	0.000000E+00
1.960000E+03	3.062073E-21	0.000000E+00
2.000000E+03	3.083674E-21	0.000000E+00
2.040000E+03	3.104461E-21	0.000000E+00
2.080000E+03	3.125511E-21	0.000000E+00
2.120000E+03	3.145671E-21	0.000000E+00
2.160000E+03	3.166031E-21	0.000000E+00
2.200000E+03	3.185997E-21	0.000000E+00
2.240000E+03	3.204955E-21	0.000000E+00
2.280000E+03	3.224015E-21	0.000000E+00
2.320000E+03	3.242569E-21	0.000000E+00
2.360000E+03	3.260578E-21	0.000000E+00
2.400000E+03	3.277418E-21	0.000000E+00
2.440000E+03	3.294221E-21	0.000000E+00
2.480000E+03	3.310366E-21	0.000000E+00
2.520000E+03	3.325815E-21	0.000000E+00
2.560000E+03	3.340529E-21	0.000000E+00
2.600000E+03	3.354471E-21	0.000000E+00
2.640000E+03	3.367606E-21	0.000000E+00
2.680000E+03	3.379897E-21	0.000000E+00
2.720000E+03	3.391308E-21	0.000000E+00
2.760000E+03	3.401807E-21	0.000000E+00
2.800000E+03	3.411970E-21	0.000000E+00
2.840000E+03	3.420549E-21	0.000000E+00
2.880000E+03	3.428121E-21	0.000000E+00
2.920000E+03	3.434660E-21	0.000000E+00
2.960000E+03	3.440752E-21	0.000000E+00
3.000000E+03	3.445147E-21	0.000000E+00
3.010000E+03	3.445767E-21	0.000000E+00
3.020000E+03	3.446932E-21	0.000000E+00
3.030000E+03	3.448027E-21	0.000000E+00
3.040000E+03	3.448438E-21	0.000000E+00
3.050000E+03	3.449392E-21	0.000000E+00
3.060000E+03	3.449661E-21	0.000000E+00
3.070000E+03	3.450475E-21	0.000000E+00
3.080000E+03	3.451217E-21	0.000000E+00
3.090000E+03	3.451273E-21	0.000000E+00
3.100000E+03	3.451872E-21	0.000000E+00
3.110000E+03	3.451785E-21	0.000000E+00
3.120000E+03	3.452240E-21	0.000000E+00
3.130000E+03	3.452623E-21	0.000000E+00
3.140000E+03	3.452319E-21	0.000000E+00
3.150000E+03	3.452557E-21	0.000000E+00
3.160000E+03	3.452107E-21	0.000000E+00
3.170000E+03	3.452199E-21	0.000000E+00
3.180000E+03	3.452217E-21	0.000000E+00
3.190000E+03	3.451549E-21	0.000000E+00
3.200000E+03	3.451420E-21	0.000000E+00
3.210000E+03	3.450604E-21	0.000000E+00
3.220000E+03	3.450329E-21	0.000000E+00
3.230000E+03	3.449979E-21	0.000000E+00
3.240000E+03	3.448943E-21	0.000000E+00
3.250000E+03	3.448445E-21	0.000000E+00
3.260000E+03	3.447261E-21	0.000000E+00
3.270000E+03	3.446615E-21	0.000000E+00
3.280000E+03	3.445895E-21	0.000000E+00
3.290000E+03	3.444488E-21	0.000000E+00
3.300000E+03	3.443620E-21	0.000000E+00
3.310000E+03	3.442065E-21	0.000000E+00
3.320000E+03	3.441048E-21	0.000000E+00
3.330000E+03	3.439956E-21	0.000000E+00
3.340000E+03	3.438180E-21	0.000000E+00
3.350000E+03	3.436940E-21	0.000000E+00
3.360000E+03	3.435626E-21	0.000000E+00
3.370000E+03	3.433628E-21	0.000000E+00
3.380000E+03	3.432165E-21	0.000000E+00
3.390000E+03	3.430019E-21	0.000000E+00
3.400000E+03	3.428409E-21	0.000000E+00
3.410000E+03	3.426725E-21	0.000000E+00
3.420000E+03	3.424359E-21	0.000000E+00
3.430000E+03	3.422528E-21	0.000000E+00
3.440000E+03	3.420622E-21	0.000000E+00
3.450000E+03	3.418038E-21	0.000000E+00
3.460000E+03	3.415987E-21	0.000000E+00
3.470000E+03	3.413257E-21	0.000000E+00
3.480000E+03	3.411060E-21	0.000000E+00
3.490000E+03	3.408790E-21	0.000000E+00
3.500000E+03	3.405844E-21	0.000000E+00
3.510000E+03	3.403430E-21	0.000000E+00
3.520000E+03	3.400944E-21	0.000000E+00
3.530000E+03	3.397785E-21	0.000000E+00
3.540000E+03	3.395156E-21	0.000000E+00
3.550000E+03	3.391854E-21	0.000000E+00
3.560000E+03	3.389083E-21	0.000000E+00
3.570000E+03	3.386241E-21	0.000000E+00
3.580000E+03	3.382730E-21	0.000000E+00
3.590000E+03	3.379748E-21	0.000000E+00
3.600000E+03	3.376696E-21	0.000000E+00
3.610000E+03	3.372978E-21	0.000000E+00
3.620000E+03	3.369788E-21	0.000000E+00
3.630000E+03	3.366530E-21	0.000000E+00
3.640000E+03	3.362607E-21	0.000000E+00
3.650000E+03	3.359212E-21	0.000000E+00
3.660000E+03	3.355157E-21	0.000000E+00
3.670000E+03	3.351627E-21	0.000000E+00
3.680000E+03	3.348031E-21	0.000000E+00
3.690000E+03	3.343777E-21	0.000000E+00
3.700000E+03	3.340049E-21	0.000000E+00
3.710000E+03	3.336255E-21	0.000000E+00
3.720000E+03	3.331807E-21	0.000000E+00
3.730000E+03	3.327883E-21	0.000000E+00
3.740000E+03	3.323309E-21	0.000000E+00
3.750000E+03	3.319258E-21	0.000000E+00
3.760000E+03	3.315144E-21	0.000000E+00
3.770000E+03	3.310382E-21	0.000000E+00
3.780000E+03	3.306143E-21	0.000000E+00
3.790000E+03	3.301842E-21	0.000000E+00
3.800000E+03	3.296898E-21	0.000000E+00
3.810000E+03	3.292476E-21	0.000000E+00
3.820000E+03	3.287413E-21	0.000000E+00
3.830000E+03	3.282871E-21	0.000000E+00
3.840000E+03	3.278270E-21	0.000000E+00
3.850000E+03	3.273033E-21	0.000000E+00
3.860000E+03	3.268316E-21	0.000000E+00
3.870000E+03	3.263541E-21	0.000000E+00
3.880000E+03	3.258134E-21	0.000000E+00
3.890000E+03	3.253247E-21	0.000000E+00
3.900000E+03	3.247731E-21	0.000000E+00
3.910000E+03	3.242733E-21	0.000000E+00
3.920000E+03	3.237681E-21	0.000000E+00
3.930000E+03	3.232004E-21	0.000000E+00
3.940000E+03	3.226845E-21	0.000000E+00
3.950000E+03	3.221633E-21	0.000000E+00
3.960000E+03	3.215802E-21	0.000000E+00
3.970000E+03	3.210487E-21	0.000000E+00
3.980000E+03	3.204556E-21	0.000000E+00
3.990000E+03	3.199141E-21	0.000000E+00
4.000000E+03	3.193675E-21	0.000000E+00
4.010000E+03	3.187600E-21	0.000000E+00
4.020000E+03	3.182038E-21	0.000000E+00
4.030000E+03	3.175869E-21	0.000000E+00
4.040000E+03	3.170213E-21	0.000000E+00
4.050000E+03	3.164511E-21	0.000000E+00
4.060000E+03	3.158207E-21	0.000000E+00
4.070000E+03	3.152415E-21	0.000000E+00
4.080000E+03	3.146025E-21	0.000000E+00
4.090000E+03	3.140145E-21	0.000000E+00
4.100000E+03	3.134223E-21	0.000000E+00
4.110000E+03	3.127708E-21	0.000000E+00
4.120000E+03	3.121702E-21	0.000000E+00
4.130000E+03	3.115107E-21	0.000000E+00
4.140000E+03	3.109021E-21	0.000000E+00
4.150000E+03	3.102895E-21	0.000000E+00
4.160000E+03	3.096186E-21	0.000000E+00
4.170000E+03	3.089985E-21	0.000000E+00
4.180000E+03	3.083203E-21	0.000000E+00
4.190000E+03	3.076927E-21	0.000000E+00
4.200000E+03	3.070615E-21	0.000000E+00
4.210000E+03	3.063730E-21	0.000000E+00
4.220000E+03	3.057349E-21	0.000000E+00
4.230000E+03	3.050398E-21	0.000000E+00
4.240000E+03	3.043950E-21	0.000000E+00
4.250000E+03	3.037471E-21	0.000000E+00
4.260000E+03	3.030426E-21	0.000000E+00
4.270000E+03	3.023883E-21	0.000000E+00
4.280000E+03	3.016781E-21	0.000000E+00
4.290000E+03	3.010178E-21	0.000000E+00
4.300000E+03	3.003020E-21	0.000000E+00
4.310000E+03	2.996361E-21	0.000000E+00
4.320000E+03	2.989675E-21	0.000000E+00
4.330000E+03	2.982437E-21	0.000000E+00
4.340000E+03	2.975698E-21	0.000000E+00
4.350000E+03	2.968412E-21	0.000000E+00
4.360000E+03	2.961623E-21	0.000000E+00
4.370000E+03	2.954290E-21	0.000000E+00
4.380000E+03	2.947454E-21	0.000000E+00
4.390000E+03	2.940080E-21	0.000000E+00
4.400000E+03	2.933199E-21	0.000000E+00
4.410000E+03	2.926297E-21	0.000000E+00
4.420000E+03	2.918862E-21	0.000000E+00
4.430000E+03	2.911919E-21	0.000000E+00
4.440000E+03	2.904447E-21	0.000000E+00
4.450000E+03	2.897466E-21	0.000000E+00
4.460000E+03	2.889961E-21	0.000000E+00
4.470000E+03	2.882946E-21	0.000000E+00
4.480000E+03	2.875409E-21	0.000000E+00
4.490000E+03	2.868361E-21	0.000000E+00
4.500000E+03	2.860796E-21	0.000000E+00
4.510000E+03	2.853718E-21	0.000000E+00
4.520000E+03	2.846126E-21	0.000000E+00
4.530000E+03	2.839022E-21	0.000000E+00
4.540000E+03	2.831406E-21	0.000000E+00
4.550000E+03	2.824276E-21	0.000000E+00
4.560000E+03	2.817135E-21	0.000000E+00
4.570000E+03	2.809489E-21	0.000000E+00
4.580000E+03	2.802325E-21	0.000000E+00
4.590000E+03	2.794662E-21	0.000000E+00
4.600000E+03	2.787479E-21	0.000000E+00
4.610000E+03	2.779802E-21	0.000000E+00
4.620000E+03	2.772603E-21	0.000000E+00
4.630000E+03	2.764912E-21	0.000000E+00
4.640000E+03	2.757700E-21	0.000000E+00
4.650000E+03	2.749998E-21	0.000000E+00
4.660000E+03	2.742774E-21	0.000000E+00
4.670000E+03	2.735064E-21	0.000000E+00
4.680000E+03	2.727353E-21	0.000000E+00
4.690000E+03	2.720115E-21	0.000000E+00
4.700000E+03	2.712399E-21	0.000000E+00
4.710000E+03	2.705155E-21	0.000000E+00
4.720000E+03	2.697436E-21	0.000000E+00
4.730000E+03	2.690188E-21	0.000000E+00
4.740000E+03	2.682468E-21	0.000000E+00
4.750000E+03	2.675218E-21	0.000000E+00
4.760000E+03	2.667500E-21	0.000000E+00
4.770000E+03	2.660250E-21	0.000000E+00
4.780000E+03	2.652536E-21	0.000000E+00
4.790000E+03	2.645287E-21	0.000000E+00
4.800000E+03	2.637578E-21	0.000000E+00
4.810000E+03	2.630333E-21	0.000000E+00
4.820000E+03	2.622631E-21	0.000000E+00
4.830000E+03	2.614935E-21	0.000000E+00
4.840000E+03	2.607700E-21	0.000000E+00
4.850000E+03	2.600014E-21	0.000000E+00
4.860000E+03	2.592786E-21	0.000000E+00
4.870000E+03	2.585112E-21	0.000000E+00
4.880000E+03	2.577895E-21	0.000000E+00
4.890000E+03	2.570235E-21	0.000000E+00
4.900000E+03	2.562582E-21	0.000000E+00
4.910000E+03	2.555384E-21	0.000000E+00
4.920000E+03	2.547747E-21	0.000000E+00
4.930000E+03	2.540564E-21	0.000000E+00
4.940000E+03	2.532944E-21	0.000000E+00
4.950000E+03	2.525335E-21	0.000000E+00
4.960000E+03	2.518177E-21	0.000000E+00
4.970000E+03	2.510587E-21	0.000000E+00
4.980000E+03	2.503447E-21	0.000000E+00
4.990000E+03	2.495879E-21	0.000000E+00
5.000000E+03	2.488323E-21	0.000000E+00
5.010000E+03	2.481212E-21	0.000000E+00
5.020000E+03	2.473680E-21	0.000000E+00
5.030000E+03	2.466591E-21	0.000000E+00
5.040000E+03	2.459084E-21	0.000000E+00
5.050000E+03	2.451589E-21	0.000000E+00
5.060000E+03	2.444535E-21	0.000000E+00
5.070000E+03	2.437068E-21	0.000000E+00
5.080000E+03	2.430039E-21	0.000000E+00
5.090000E+03	2.422599E-21	0.000000E+00
5.100000E+03	2.415175E-21	0.000000E+00
5.110000E+03	2.408186E-21	0.000000E+00
5.120000E+03	2.400790E-21	0.000000E+00
5.130000E+03	2.393411E-21	0.000000E+00
5.140000E+03	2.386464E-21	0.000000E+00
5.150000E+03	2.379117E-21	0.000000E+00
5.160000E+03	2.371785E-21	0.000000E+00
5.170000E+03	2.364883E-21	0.000000E+00
5.180000E+03	2.357584E-21	0.000000E+00
5.190000E+03	2.350303E-21	0.000000E+00
5.200000E+03	2.343447E-21	0.000000E+00
5.210000E+03	2.336200E-21	0.000000E+00
5.220000E+03	2.328970E-21	0.000000E+00
5.230000E+03	2.322164E-21	0.000000E+00
5.240000E+03	2.314970E-21	0.000000E+00
5.250000E+03	2.307794E-21	0.000000E+00
5.260000E+03	2.301039E-21	0.000000E+00
5.270000E+03	2.293900E-21	0.000000E+00
5.280000E+03	2.286779E-21	0.000000E+00
5.290000E+03	2.279679E-21	0.000000E+00
5.300000E+03	2.272994E-21	0.000000E+00
5.310000E+03	2.265931E-21	0.000000E+00
5.320000E+03	2.258889E-21	0.000000E+00
5.330000E+03	2.252258E-21	0.000000E+00
5.340000E+03	2.245254E-21	0.000000E+00
5.350000E+03	2.238271E-21	0.000000E+00
5.360000E+03	2.231308E-21	0.000000E+00
5.370000E+03	2.224753E-21	0.000000E+00
5.380000E+03	2.217830E-21	0.000000E+00
5.390000E+03	2.210928E-21	0.000000E+00
5.400000E+03	2.204431E-21	0.000000E+00
5.410000E+03	2.197569E-21	0.000000E+00
5.420000E+03	2.190729E-21	0.000000E+00
5.430000E+03	2.183910E-21	0.000000E+00
5.440000E+03	2.177492E-21	0.000000E+00
5.450000E+03	2.170715E-21	0.000000E+00
5.460000E+03	2.163959E-21	0.000000E+00
5.470000E+03	2.157226E-21	0.000000E+00
5.480000E+03	2.150888E-21	0.000000E+00
5.490000E+03	2.144197E-21	0.000000E+00
5.500000E+03	2.137527E-21	0.000000E+00
5.510000E+03	2.130880E-21	0.000000E+00
5.520000E+03	2.124255E-21	0.000000E+00
5.530000E+03	2.118021E-21	0.000000E+00
5.540000E+03	2.111439E-21	0.000000E+00
5.550000E+03	2.104879E-21	0.000000E+00
5.560000E+03	2.098342E-21	0.000000E+00
5.570000E+03	2.092191E-21	0.000000E+00
5.580000E+03	2.085697E-21	0.000000E+00
5.590000E+03	2.079227E-21	0.000000E+00
5.600000E+03	2.072779E-21	0.000000E+00
5.610000E+03	2.066353E-21	0.000000E+00
5.620000E+03	2.060308E-21	0.000000E+00
5.630000E+03	2.053927E-21	0.000000E+00
5.640000E+03	2.047568E-21	0.000000E+00
5.650000E+03	2.041232E-21	0.000000E+00
5.660000E+03	2.034919E-21	0.000000E+00
5.670000E+03	2.028628E-21	0.000000E+00
5.680000E+03	2.022713E-21	0.000000E+00
5.690000E+03	2.016467E-21	0.000000E+00
5.700000E+03	2.010244E-21	0.000000E+00
5.710000E+03	2.004045E-21	0.000000E+00
5.720000E+03	1.997867E-21	0.000000E+00
5.730000E+03	1.991713E-21	0.000000E+00
5.740000E+03	1.985927E-21	0.000000E+00
5.750000E+03	1.979818E-21	0.000000E+00
5.760000E+03	1.973731E-21	0.000000E+00
5.770000E+03	1.967668E-21	0.000000E+00
5.780000E+03	1.961627E-21	0.000000E+00
5.790000E+03	1.955609E-21	0.000000E+00
5.800000E+03	1.949615E-21	0.000000E+00
5.810000E+03	1.943981E-21	0.000000E+00
5.820000E+03	1.938031E-21	0.000000E+00
5.830000E+03	1.932103E-21	0.000000E+00
5.840000E+03	1.926199E-21	0.000000E+00
5.850000E+03	1.920318E-21	0.000000E+00
5.860000E+03	1.914459E-21	0.000000E+00
5.870000E+03	1.908623E-21	0.000000E+00
5.880000E+03	1.902810E-21	0.000000E+00
5.890000E+03	1.897020E-21	0.000000E+00
5.900000E+03	1.891582E-21	0.000000E+00
5.910000E+03	1.885836E-21	0.000000E+00
5.920000E+03	1.880113E-21	0.000000E+00
5.930000E+03	1.874413E-21	0.000000E+00
5.940000E+03	1.868734E-21	0.000000E+00
5.950000E+03	1.863080E-21	0.000000E+00
5.960000E+03	1.857447E-21	0.000000E+00
5.970000E+03	1.851837E-21	0.000000E+00
5.980000E+03	1.846250E-21	0.000000E+00
5.990000E+03	1.840685E-21	0.000000E+00
6.000000E+03	1.835142E-21	0.000000E+00
6.010000E+03	1.829940E-21	0.000000E+00
6.020000E+03	1.824442E-21	0.000000E+00
6.030000E+03	1.818965E-21	0.000000E+00
6.040000E+03	1.813510E-21	0.000000E+00
6.050000E+03	1.808079E-21	0.000000E+00
6.060000E+03	1.802669E-21	0.000000E+00
6.070000E+03	1.797282E-21	0.000000E+00
6.080000E+03	1.791916E-21	0.000000E+00
6.090000E+03	1.786573E-21	0.000000E+00
6.100000E+03	1.781252E-21	0.000000E+00
6.110000E+03	1.775953E-21	0.000000E+00
6.120000E+03	1.770675E-21	0.000000E+00
6.130000E+03	1.765419E-21	0.000000E+00
6.140000E+03	1.760186E-21	0.000000E+00
6.150000E+03	1.754974E-21	0.000000E+00
6.160000E+03	1.749784E-21	0.000000E+00
6.170000E+03	1.744616E-21	0.000000E+00
6.180000E+03	1.739470E-21	0.000000E+00
6.190000E+03	1.734344E-21	0.000000E+00
6.200000E+03	1.729241E-21	0.000000E+00
6.210000E+03	1.724159E-21	0.000000E+00
6.220000E+03	1.719099E-21	0.000000E+00
6.230000E+03	1.714059E-21	0.000000E+00
6.240000E+03	1.709042E-21	0.000000E+00
6.250000E+03	1.704045E-21	0.000000E+00
6.260000E+03	1.699070E-21	0.000000E+00
6.270000E+03	1.694117E-21	0.000000E+00
6.280000E+03	1.689184E-21	0.000000E+00
6.290000E+03	1.684272E-21	0.000000E+00
6.300000E+03	1.679382E-21	0.000000E+00
6.310000E+03	1.674512E-21	0.000000E+00
6.320000E+03	1.669664E-21	0.000000E+00
6.330000E+03	1.664836E-21	0.000000E+00
6.340000E+03	1.660030E-21	0.000000E+00
6.350000E+03	1.655244E-21	0.000000E+00
6.360000E+03	1.650479E-21	0.000000E+00
6.370000E+03	1.645735E-21	0.000000E+00
6.380000E+03	1.641011E-21	0.000000E+00
6.390000E+03	1.636308E-21	0.000000E+00
6.400000E+03	1.631625E-21	0.000000E+00
6.410000E+03	1.626963E-21	0.000000E+00
6.420000E+03	1.622322E-21	0.000000E+00
6.430000E+03	1.617701E-21	0.000000E+00
6.440000E+03	1.613101E-21	0.000000E+00
6.450000E+03	1.608520E-21	0.000000E+00
6.460000E+03	1.603960E-21	0.000000E+00
6.470000E+03	1.599421E-21	0.000000E+00
6.480000E+03	1.594624E-21	0.000000E+00
6.490000E+03	1.590126E-21	0.000000E+00
6.500000E+03	1.585648E-21	0.000000E+00
6.510000E+03	1.581190E-21	0.000000E+00
6.520000E+03	1.576751E-21	0.000000E+00
6.530000E+03	1.572333E-21	0.000000E+00
6.540000E+03	1.567934E-21	0.000000E+00
6.550000E+03	1.563557E-21	0.000000E+00
6.560000E+03	1.559198E-21	0.000000E+00
6.570000E+03	1.554859E-21	0.000000E+00
6.580000E+03	1.550540E-21	0.000000E+00
6.590000E+03	1.546242E-21	0.000000E+00
6.600000E+03	1.541963E-21	0.000000E+00
6.610000E+03	1.537435E-21	0.000000E+00
6.620000E+03	1.533196E-21	0.000000E+00
6.630000E+03	1.528977E-21	0.000000E+00
6.640000E+03	1.524776E-21	0.000000E+00
6.650000E+03	1.520595E-21	0.000000E+00
6.660000E+03	1.516434E-21	0.000000E+00
6.670000E+03	1.512293E-21	0.000000E+00
6.680000E+03	1.508171E-21	0.000000E+00
6.690000E+03	1.504068E-21	0.000000E+00
6.700000E+03	1.499723E-21	0.000000E+00
6.710000E+03	1.495660E-21	0.000000E+00
6.720000E+03	1.491616E-21	0.000000E+00
6.730000E+03	1.487591E-21	0.000000E+00
6.740000E+03	1.483585E-21	0.000000E+00
6.750000E+03	1.479599E-21	0.000000E+00
6.760000E+03	1.475632E-21	0.000000E+00
6.770000E+03	1.471683E-21	0.000000E+00
6.780000E+03	1.467499E-21	0.000000E+00
6.790000E+03	1.463590E-21	0.000000E+00
6.800000E+03	1.459700E-21	0.000000E+00
6.810000E+03	1.455829E-21	0.000000E+00
6.820000E+03	1.451976E-21	0.000000E+00
6.830000E+03	1.448143E-21	0.000000E+00
6.840000E+03	1.444077E-21	0.000000E+00
6.850000E+03	1.440283E-21	0.000000E+00
6.860000E+03	1.436507E-21	0.000000E+00
6.870000E+03	1.432750E-21	0.000000E+00
6.880000E+03	1.429012E-21	0.000000E+00
6.890000E+03	1.425293E-21	0.000000E+00
6.900000E+03	1.421346E-21	0.000000E+00
6.910000E+03	1.417665E-21	0.000000E+00
6.920000E+03	1.414003E-21	0.000000E+00
6.930000E+03	1.410360E-21	0.000000E+00
6.940000E+03	1.406735E-21	0.000000E+00
6.950000E+03	1.403130E-21	0.000000E+00
6.960000E+03	1.399299E-21	0.000000E+00
6.970000E+03	1.395731E-21	0.000000E+00
6.980000E+03	1.392182E-21	0.000000E+00
6.990000E+03	1.388652E-21	0.000000E+00
7.000000E+03	1.385141E-21	0.000000E+00
7.010000E+03	1.381407E-21	0.000000E+00
7.020000E+03	1.377933E-21	0.000000E+00
7.030000E+03	1.374479E-21	0.000000E+00
7.040000E+03	1.371042E-21	0.000000E+00
7.050000E+03	1.367625E-21	0.000000E+00
7.060000E+03	1.363988E-21	0.000000E+00
7.070000E+03	1.360608E-21	0.000000E+00
7.080000E+03	1.357247E-21	0.000000E+00
7.090000E+03	1.353904E-21	0.000000E+00
7.100000E+03	1.350581E-21	0.000000E+00
7.110000E+03	1.347040E-21	0.000000E+00
7.120000E+03	1.343754E-21	0.000000E+00
7.130000E+03	1.340486E-21	0.000000E+00
7.140000E+03	1.337237E-21	0.000000E+00
7.150000E+03	1.333774E-21	0.000000E+00
7.160000E+03	1.330563E-21	0.000000E+00
7.170000E+03	1.327370E-21	0.000000E+00
7.180000E+03	1.324196E-21	0.000000E+00
7.190000E+03	1.321040E-21	0.000000E+00
7.200000E+03	1.317673E-21	0.000000E+00
7.210000E+03	1.314555E-21	0.000000E+00
7.220000E+03	1.311456E-21	0.000000E+00
7.230000E+03	1.308375E-21	0.000000E+00
7.240000E+03	1.305085E-21	0.000000E+00
7.250000E+03	1.302042E-21	0.000000E+00
7.260000E+03	1.299018E-21	0.000000E+00
7.270000E+03	1.296012E-21	0.000000E+00
7.280000E+03	1.292799E-21	0.000000E+00
7.290000E+03	1.289831E-21	0.000000E+00
7.300000E+03	1.286882E-21	0.000000E+00
7.310000E+03	1.283951E-21	0.000000E+00
7.320000E+03	1.280815E-21	0.000000E+00
7.330000E+03	1.277922E-21	0.000000E+00
7.340000E+03	1.275048E-21	0.000000E+00
7.350000E+03	1.271970E-21	0.000000E+00
7.360000E+03	1.269133E-21	0.000000E+00
7.370000E+03	1.266316E-21	0.000000E+00
7.380000E+03	1.263517E-21	0.000000E+00
7.390000E+03	1.260516E-21	0.000000E+00
7.400000E+03	1.257755E-21	0.000000E+00
7.410000E+03	1.255012E-21	0.000000E+00
7.420000E+03	1.252070E-21	0.000000E+00
7.430000E+03	1.249365E-21	0.000000E+00
7.440000E+03	1.246680E-21	0.000000E+00
7.450000E+03	1.244013E-21	0.000000E+00
7.460000E+03	1.241148E-21	0.000000E+00
7.470000E+03	1.238519E-21	0.000000E+00
7.480000E+03	1.235909E-21	0.000000E+00
7.490000E+03	1.233102E-21	0.000000E+00
7.500000E+03	1.230531E-21	0.000000E+00
7.510000E+03	1.227978E-21	0.000000E+00
7.520000E+03	1.225443E-21	0.000000E+00
7.530000E+03	1.222714E-21	0.000000E+00
7.540000E+03	1.220219E-21	0.000000E+00
7.550000E+03	1.217742E-21	0.000000E+00
7.560000E+03	1.215072E-21	0.000000E+00
7.570000E+03	1.212633E-21	0.000000E+00
7.580000E+03	1.210214E-21	0.000000E+00
7.590000E+03	1.207602E-21	0.000000E+00
7.600000E+03	1.205222E-21	0.000000E+00
7.610000E+03	1.202859E-21	0.000000E+00
7.620000E+03	1.200307E-21	0.000000E+00
7.630000E+03	1.197984E-21	0.000000E+00
7.640000E+03	1.195679E-21	0.000000E+00
7.650000E+03	1.193186E-21	0.000000E+00
7.660000E+03	1.190920E-21	0.000000E+00
7.670000E+03	1.188675E-21	0.000000E+00
7.680000E+03	1.186240E-21	0.000000E+00
7.690000E+03	1.184033E-21	0.000000E+00
7.700000E+03	1.181845E-21	0.000000E+00
7.710000E+03	1.179469E-21	0.000000E+00
7.720000E+03	1.177320E-21	0.000000E+00
7.730000E+03	1.175190E-21	0.000000E+00
7.740000E+03	1.172875E-21	0.000000E+00
7.750000E+03	1.170785E-21	0.000000E+00
7.760000E+03	1.168713E-21	0.000000E+00
