#wls	flux	fluxerr
1.593625E+03	3.576486E-02	1.285348E-03
1.633466E+03	2.928617E-02	1.028618E-03
1.673307E+03	2.370598E-02	8.130816E-04
1.713147E+03	1.896034E-02	6.345307E-04
1.752988E+03	1.497818E-02	4.886862E-04
1.792829E+03	1.168261E-02	3.712783E-04
1.832669E+03	8.989799E-03	2.780429E-04
1.872510E+03	6.821473E-03	2.051379E-04
1.912351E+03	5.099499E-03	1.489692E-04
1.952191E+03	3.751656E-03	1.063609E-04
1.992032E+03	2.712973E-03	7.457234E-05
2.031873E+03	1.928100E-03	5.133535E-05
2.071713E+03	1.352115E-03	3.483677E-05
2.111554E+03	9.489076E-04	2.363598E-05
2.151394E+03	6.878338E-04	1.654848E-05
2.191235E+03	5.352536E-04	1.242731E-05
2.231076E+03	4.635174E-04	1.037700E-05
2.270916E+03	4.586196E-04	9.893043E-06
2.310757E+03	5.228272E-04	1.086028E-05
2.350598E+03	6.802660E-04	1.360093E-05
2.390438E+03	9.905964E-04	1.905808E-05
2.430279E+03	1.574867E-03	2.915481E-05
2.470120E+03	2.659161E-03	4.738217E-05
2.509960E+03	4.631447E-03	7.948106E-05
2.549801E+03	8.079911E-03	1.336838E-04
2.589641E+03	1.373328E-02	2.193825E-04
2.629482E+03	2.225626E-02	3.439075E-04
2.669323E+03	3.399923E-02	5.092774E-04
2.709163E+03	4.886653E-02	7.111024E-04
2.749004E+03	6.629277E-02	9.391488E-04
2.788845E+03	8.529521E-02	1.178716E-03
2.828685E+03	1.046395E-01	1.413225E-03
2.868526E+03	1.230755E-01	1.627327E-03
2.908367E+03	1.395621E-01	1.809491E-03
2.948207E+03	1.534673E-01	1.954061E-03
2.988048E+03	1.645846E-01	2.060882E-03
2.998008E+03	1.669488E-01	2.082209E-03
3.007968E+03	1.691538E-01	2.101533E-03
3.017928E+03	1.712069E-01	2.118971E-03
3.027888E+03	1.731239E-01	2.134746E-03
3.037849E+03	1.749100E-01	2.148944E-03
3.047809E+03	1.765750E-01	2.161708E-03
3.057769E+03	1.781332E-01	2.173233E-03
3.067729E+03	1.795920E-01	2.183627E-03
3.077689E+03	1.809629E-01	2.193047E-03
3.087649E+03	1.822654E-01	2.201741E-03
3.097610E+03	1.835039E-01	2.209778E-03
3.107570E+03	1.846944E-01	2.217362E-03
3.117530E+03	1.858456E-01	2.224605E-03
3.127490E+03	1.869809E-01	2.231798E-03
3.137450E+03	1.881018E-01	2.238956E-03
3.147410E+03	1.892245E-01	2.246265E-03
3.157371E+03	1.903646E-01	2.253908E-03
3.167331E+03	1.915342E-01	2.262017E-03
3.177291E+03	1.927377E-01	2.270638E-03
3.187251E+03	1.939970E-01	2.280022E-03
3.197211E+03	1.953159E-01	2.290203E-03
3.207171E+03	1.967083E-01	2.301336E-03
3.217131E+03	1.981804E-01	2.313484E-03
3.227092E+03	1.997451E-01	2.326787E-03
3.237052E+03	2.014108E-01	2.341335E-03
3.247012E+03	2.031854E-01	2.357210E-03
3.256972E+03	2.050722E-01	2.374441E-03
3.266932E+03	2.070806E-01	2.393129E-03
3.276892E+03	2.092153E-01	2.413318E-03
3.286853E+03	2.114763E-01	2.435003E-03
3.296813E+03	2.138689E-01	2.458236E-03
3.306773E+03	2.163899E-01	2.482975E-03
3.316733E+03	2.190411E-01	2.509236E-03
3.326693E+03	2.218152E-01	2.536929E-03
3.336653E+03	2.247054E-01	2.565975E-03
3.346614E+03	2.277001E-01	2.596237E-03
3.356574E+03	2.307753E-01	2.627444E-03
3.366534E+03	2.338880E-01	2.659107E-03
3.376494E+03	2.369782E-01	2.690549E-03
3.386454E+03	2.399906E-01	2.721150E-03
3.396414E+03	2.428635E-01	2.750222E-03
3.406375E+03	2.455575E-01	2.777331E-03
3.416335E+03	2.480596E-01	2.802346E-03
3.426295E+03	2.504365E-01	2.826033E-03
3.436255E+03	2.527887E-01	2.849537E-03
3.446215E+03	2.552233E-01	2.874074E-03
3.456175E+03	2.578552E-01	2.900941E-03
3.466135E+03	2.606554E-01	2.929813E-03
3.476096E+03	2.632226E-01	2.956182E-03
3.486056E+03	2.650085E-01	2.973887E-03
3.496016E+03	2.654329E-01	2.976422E-03
3.505976E+03	2.639670E-01	2.957878E-03
3.515936E+03	2.602080E-01	2.913764E-03
3.525896E+03	2.539440E-01	2.841739E-03
3.535857E+03	2.451773E-01	2.741860E-03
3.545817E+03	2.341681E-01	2.617067E-03
3.555777E+03	2.213771E-01	2.472534E-03
3.565737E+03	2.074307E-01	2.315275E-03
3.575697E+03	1.930726E-01	2.153599E-03
3.585657E+03	1.790258E-01	1.995570E-03
3.595618E+03	1.659180E-01	1.848165E-03
3.605578E+03	1.542329E-01	1.716751E-03
3.615538E+03	1.443076E-01	1.605044E-03
3.625498E+03	1.363277E-01	1.515064E-03
3.635458E+03	1.303427E-01	1.447313E-03
3.645418E+03	1.263326E-01	1.401514E-03
3.655378E+03	1.242605E-01	1.377199E-03
3.665339E+03	1.240748E-01	1.373731E-03
3.675299E+03	1.257370E-01	1.390616E-03
3.685259E+03	1.292212E-01	1.427491E-03
3.695219E+03	1.345037E-01	1.484011E-03
3.705179E+03	1.415550E-01	1.559758E-03
3.715139E+03	1.503398E-01	1.654243E-03
3.725100E+03	1.608008E-01	1.766729E-03
3.735060E+03	1.728479E-01	1.896112E-03
3.745020E+03	1.863507E-01	2.040843E-03
3.754980E+03	2.011456E-01	2.199008E-03
3.764940E+03	2.170236E-01	2.368205E-03
3.774900E+03	2.337342E-01	2.545587E-03
3.784861E+03	2.510098E-01	2.728136E-03
3.794821E+03	2.685530E-01	2.912533E-03
3.804781E+03	2.860746E-01	3.095571E-03
3.814741E+03	3.033116E-01	3.274354E-03
3.824701E+03	3.200175E-01	3.446195E-03
3.834661E+03	3.359625E-01	3.608614E-03
3.844622E+03	3.509250E-01	3.759252E-03
3.854582E+03	3.646904E-01	3.895856E-03
3.864542E+03	3.770645E-01	4.016424E-03
3.874502E+03	3.878792E-01	4.119269E-03
3.884462E+03	3.970155E-01	4.203252E-03
3.894422E+03	4.044150E-01	4.267907E-03
3.904382E+03	4.101018E-01	4.313652E-03
3.914343E+03	4.141785E-01	4.341735E-03
3.924303E+03	4.168336E-01	4.354303E-03
3.934263E+03	4.183489E-01	4.354454E-03
3.944223E+03	4.190508E-01	4.345714E-03
3.954183E+03	4.192598E-01	4.331505E-03
3.964143E+03	4.192765E-01	4.315000E-03
3.974104E+03	4.193276E-01	4.298566E-03
3.984064E+03	4.195363E-01	4.283483E-03
3.994024E+03	4.198768E-01	4.269494E-03
4.003984E+03	4.201987E-01	4.255085E-03
4.013944E+03	4.202567E-01	4.237816E-03
4.023904E+03	4.196928E-01	4.214153E-03
4.033865E+03	4.181319E-01	4.180463E-03
4.043825E+03	4.152590E-01	4.133770E-03
4.053785E+03	4.108746E-01	4.072307E-03
4.063745E+03	4.049070E-01	3.995599E-03
4.073705E+03	3.973932E-01	3.904252E-03
4.083665E+03	3.884397E-01	3.799545E-03
4.093625E+03	3.782198E-01	3.683383E-03
4.103586E+03	3.669346E-01	3.557911E-03
4.113546E+03	3.547512E-01	3.424901E-03
4.123506E+03	3.418470E-01	3.286191E-03
4.133466E+03	3.284146E-01	3.143728E-03
4.143426E+03	3.146666E-01	2.999611E-03
4.153386E+03	3.008348E-01	2.856079E-03
4.163347E+03	2.871760E-01	2.715565E-03
4.173307E+03	2.739701E-01	2.580676E-03
4.183267E+03	2.615032E-01	2.454033E-03
4.193227E+03	2.500539E-01	2.338144E-03
4.203187E+03	2.398841E-01	2.235327E-03
4.213147E+03	2.312213E-01	2.147554E-03
4.223108E+03	2.242412E-01	2.076297E-03
4.233068E+03	2.190566E-01	2.022441E-03
4.243028E+03	2.157291E-01	1.986409E-03
4.252988E+03	2.142698E-01	1.968167E-03
4.262948E+03	2.146367E-01	1.967225E-03
4.272908E+03	2.167353E-01	1.982633E-03
4.282869E+03	2.204058E-01	2.012873E-03
4.292829E+03	2.253951E-01	2.055590E-03
4.302789E+03	2.313671E-01	2.107685E-03
4.312749E+03	2.379366E-01	2.165639E-03
4.322709E+03	2.446727E-01	2.225536E-03
4.332669E+03	2.511363E-01	2.283394E-03
4.342629E+03	2.569095E-01	2.335428E-03
4.352590E+03	2.616531E-01	2.378557E-03
4.362550E+03	2.651355E-01	2.410671E-03
4.372510E+03	2.673106E-01	2.431326E-03
4.382470E+03	2.683433E-01	2.441990E-03
4.392430E+03	2.684958E-01	2.445005E-03
4.402390E+03	2.680414E-01	2.442813E-03
4.412351E+03	2.672095E-01	2.437460E-03
4.422311E+03	2.661817E-01	2.430560E-03
4.432271E+03	2.650795E-01	2.423183E-03
4.442231E+03	2.639645E-01	2.415860E-03
4.452191E+03	2.628572E-01	2.408744E-03
4.462151E+03	2.617435E-01	2.401675E-03
4.472112E+03	2.605966E-01	2.394379E-03
4.482072E+03	2.593825E-01	2.386510E-03
4.492032E+03	2.580687E-01	2.377741E-03
4.501992E+03	2.566279E-01	2.367789E-03
4.511952E+03	2.550299E-01	2.356347E-03
4.521912E+03	2.532250E-01	2.342924E-03
4.531873E+03	2.511310E-01	2.326730E-03
4.541833E+03	2.486482E-01	2.306808E-03
4.551793E+03	2.456917E-01	2.282338E-03
4.561753E+03	2.422194E-01	2.252894E-03
4.571713E+03	2.382211E-01	2.218351E-03
4.581673E+03	2.337462E-01	2.179141E-03
4.591633E+03	2.289169E-01	2.136382E-03
4.601594E+03	2.238939E-01	2.091559E-03
4.611554E+03	2.188400E-01	2.046184E-03
4.621514E+03	2.139210E-01	2.001801E-03
4.631474E+03	2.092647E-01	1.959602E-03
4.641434E+03	2.049724E-01	1.920536E-03
4.651394E+03	2.010905E-01	1.885039E-03
4.661355E+03	1.976264E-01	1.853181E-03
4.671315E+03	1.945576E-01	1.824752E-03
4.681275E+03	1.918347E-01	1.799290E-03
4.691235E+03	1.893958E-01	1.776209E-03
4.701195E+03	1.871671E-01	1.754815E-03
4.711155E+03	1.850774E-01	1.734436E-03
4.721116E+03	1.830569E-01	1.714415E-03
4.731076E+03	1.810270E-01	1.694014E-03
4.741036E+03	1.789087E-01	1.672496E-03
4.750996E+03	1.765978E-01	1.648891E-03
4.760956E+03	1.740129E-01	1.622453E-03
4.770916E+03	1.711021E-01	1.592714E-03
4.780876E+03	1.678490E-01	1.559548E-03
4.790837E+03	1.642985E-01	1.523402E-03
4.800797E+03	1.605652E-01	1.485370E-03
4.810757E+03	1.567967E-01	1.446842E-03
4.820717E+03	1.531517E-01	1.409302E-03
4.830677E+03	1.497792E-01	1.374127E-03
4.840637E+03	1.468065E-01	1.342477E-03
4.850598E+03	1.443233E-01	1.315151E-03
4.860558E+03	1.423703E-01	1.292485E-03
4.870518E+03	1.409493E-01	1.274456E-03
4.880478E+03	1.400374E-01	1.260806E-03
4.890438E+03	1.395790E-01	1.250984E-03
4.900398E+03	1.395124E-01	1.244390E-03
4.910359E+03	1.397900E-01	1.240550E-03
4.920319E+03	1.403915E-01	1.239240E-03
4.930279E+03	1.413226E-01	1.240463E-03
4.940239E+03	1.426014E-01	1.244325E-03
4.950199E+03	1.442628E-01	1.251070E-03
4.960159E+03	1.463431E-01	1.260945E-03
4.970120E+03	1.488737E-01	1.274140E-03
4.980080E+03	1.518690E-01	1.290692E-03
4.990040E+03	1.553261E-01	1.310481E-03
5.000000E+03	1.592037E-01	1.333066E-03
5.009960E+03	1.634209E-01	1.357683E-03
5.019920E+03	1.678583E-01	1.383268E-03
5.029880E+03	1.723631E-01	1.408519E-03
5.039841E+03	1.767646E-01	1.432030E-03
5.049801E+03	1.808807E-01	1.452355E-03
5.059761E+03	1.845372E-01	1.468170E-03
5.069721E+03	1.875904E-01	1.478447E-03
5.079681E+03	1.899352E-01	1.482510E-03
5.089641E+03	1.915118E-01	1.480072E-03
5.099602E+03	1.923060E-01	1.471222E-03
5.109562E+03	1.923465E-01	1.456386E-03
5.119522E+03	1.916518E-01	1.435907E-03
5.129482E+03	1.902226E-01	1.409998E-03
5.139442E+03	1.880428E-01	1.378750E-03
5.149402E+03	1.851006E-01	1.342296E-03
5.159363E+03	1.813905E-01	1.300814E-03
5.169323E+03	1.769407E-01	1.254728E-03
5.179283E+03	1.718598E-01	1.205009E-03
5.189243E+03	1.663504E-01	1.153245E-03
5.199203E+03	1.606789E-01	1.101390E-03
5.209163E+03	1.551262E-01	1.051411E-03
5.219124E+03	1.499822E-01	1.005243E-03
5.229084E+03	1.455063E-01	9.645318E-04
5.239044E+03	1.418907E-01	9.304106E-04
5.249004E+03	1.392385E-01	9.033824E-04
5.258964E+03	1.375915E-01	8.835429E-04
5.268924E+03	1.369324E-01	8.706121E-04
5.278884E+03	1.371794E-01	8.639281E-04
5.288845E+03	1.381946E-01	8.625185E-04
5.298805E+03	1.397902E-01	8.651503E-04
5.308765E+03	1.417138E-01	8.702543E-04
5.318725E+03	1.436786E-01	8.761107E-04
5.328685E+03	1.454062E-01	8.811076E-04
5.338645E+03	1.466817E-01	8.840510E-04
5.348606E+03	1.473632E-01	8.841973E-04
5.358566E+03	1.474314E-01	8.815288E-04
5.368526E+03	1.470509E-01	8.771053E-04
5.378486E+03	1.464584E-01	8.723819E-04
5.388446E+03	1.458180E-01	8.683612E-04
5.398406E+03	1.451386E-01	8.651063E-04
5.408367E+03	1.443445E-01	8.621385E-04
5.418327E+03	1.434057E-01	8.592216E-04
5.428287E+03	1.425243E-01	8.575062E-04
5.438247E+03	1.419447E-01	8.584164E-04
5.448207E+03	1.418381E-01	8.629679E-04
5.458167E+03	1.422451E-01	8.714129E-04
5.468127E+03	1.431027E-01	8.833877E-04
5.478088E+03	1.443131E-01	8.983112E-04
5.488048E+03	1.457601E-01	9.154772E-04
5.498008E+03	1.473241E-01	9.341364E-04
5.507968E+03	1.488827E-01	9.534966E-04
5.517928E+03	1.503396E-01	9.729024E-04
5.527888E+03	1.516177E-01	9.917968E-04
5.537849E+03	1.526698E-01	1.009795E-03
5.547809E+03	1.534738E-01	1.026665E-03
5.557769E+03	1.540340E-01	1.042342E-03
5.567729E+03	1.543654E-01	1.056835E-03
5.577689E+03	1.544920E-01	1.070220E-03
5.587649E+03	1.544344E-01	1.082555E-03
5.597610E+03	1.542138E-01	1.093909E-03
5.607570E+03	1.538439E-01	1.104306E-03
5.617530E+03	1.533279E-01	1.113702E-03
5.627490E+03	1.526599E-01	1.121985E-03
5.637450E+03	1.518199E-01	1.128939E-03
5.647410E+03	1.507854E-01	1.134327E-03
5.657371E+03	1.495459E-01	1.137995E-03
5.667331E+03	1.481162E-01	1.139982E-03
5.677291E+03	1.465280E-01	1.140467E-03
5.687251E+03	1.448296E-01	1.139773E-03
5.697211E+03	1.430965E-01	1.138460E-03
5.707171E+03	1.414044E-01	1.137114E-03
5.717131E+03	1.398264E-01	1.136332E-03
5.727092E+03	1.384223E-01	1.136625E-03
5.737052E+03	1.372341E-01	1.138379E-03
5.747012E+03	1.362854E-01	1.141841E-03
5.756972E+03	1.355801E-01	1.147099E-03
5.766932E+03	1.350993E-01	1.154046E-03
5.776892E+03	1.348064E-01	1.162420E-03
5.786853E+03	1.346508E-01	1.171821E-03
5.796813E+03	1.345645E-01	1.181683E-03
5.806773E+03	1.344811E-01	1.191433E-03
5.816733E+03	1.343373E-01	1.200505E-03
5.826693E+03	1.340771E-01	1.208378E-03
5.836653E+03	1.336593E-01	1.214655E-03
5.846614E+03	1.330598E-01	1.219080E-03
5.856574E+03	1.322762E-01	1.221595E-03
5.866534E+03	1.313173E-01	1.222246E-03
5.876494E+03	1.302122E-01	1.221272E-03
5.886454E+03	1.289971E-01	1.218992E-03
5.896414E+03	1.277062E-01	1.215715E-03
5.906375E+03	1.263712E-01	1.211738E-03
5.916335E+03	1.250076E-01	1.207208E-03
5.926295E+03	1.236138E-01	1.202113E-03
5.936255E+03	1.221665E-01	1.196228E-03
5.946215E+03	1.206218E-01	1.189119E-03
5.956175E+03	1.189169E-01	1.180153E-03
5.966135E+03	1.169825E-01	1.168615E-03
5.976096E+03	1.147425E-01	1.153706E-03
5.986056E+03	1.121450E-01	1.134850E-03
5.996016E+03	1.091578E-01	1.111660E-03
6.005976E+03	1.057876E-01	1.084142E-03
6.015936E+03	1.020886E-01	1.052787E-03
6.025896E+03	9.816409E-02	1.018615E-03
6.035857E+03	9.415426E-02	9.830537E-04
6.045817E+03	9.022128E-02	9.477965E-04
6.055777E+03	8.654912E-02	9.148089E-04
6.065737E+03	8.330814E-02	8.859580E-04
6.075697E+03	8.064238E-02	8.628730E-04
6.085657E+03	7.865445E-02	8.467750E-04
6.095618E+03	7.741533E-02	8.385708E-04
6.105578E+03	7.696531E-02	8.388533E-04
6.115538E+03	7.730915E-02	8.478390E-04
6.125498E+03	7.842375E-02	8.654395E-04
6.135458E+03	8.026324E-02	8.913106E-04
6.145418E+03	8.275196E-02	9.247661E-04
6.155378E+03	8.577963E-02	9.647140E-04
6.165339E+03	8.921342E-02	1.009779E-03
6.175299E+03	9.289897E-02	1.058305E-03
6.185259E+03	9.666829E-02	1.108437E-03
6.195219E+03	1.003603E-01	1.158353E-03
6.205179E+03	1.038504E-01	1.206604E-03
6.215139E+03	1.070476E-01	1.252096E-03
6.225100E+03	1.098671E-01	1.293781E-03
6.235060E+03	1.122384E-01	1.330748E-03
6.245020E+03	1.141195E-01	1.362402E-03
6.254980E+03	1.154995E-01	1.388496E-03
6.264940E+03	1.163934E-01	1.409083E-03
6.274900E+03	1.168396E-01	1.424505E-03
6.284861E+03	1.168917E-01	1.435295E-03
6.294821E+03	1.166052E-01	1.442030E-03
6.304781E+03	1.160336E-01	1.445276E-03
6.314741E+03	1.152306E-01	1.445622E-03
6.324701E+03	1.142398E-01	1.443543E-03
6.334661E+03	1.130952E-01	1.439413E-03
6.344622E+03	1.118303E-01	1.433607E-03
6.354582E+03	1.104666E-01	1.426358E-03
6.364542E+03	1.090226E-01	1.417869E-03
6.374502E+03	1.075163E-01	1.408343E-03
6.384462E+03	1.059655E-01	1.397987E-03
6.394422E+03	1.043844E-01	1.386971E-03
6.404382E+03	1.027935E-01	1.375550E-03
6.414343E+03	1.012077E-01	1.363913E-03
6.424303E+03	9.964083E-02	1.352243E-03
6.434263E+03	9.810542E-02	1.340710E-03
6.444223E+03	9.660827E-02	1.329409E-03
6.454183E+03	9.515654E-02	1.318444E-03
6.464143E+03	9.375005E-02	1.307821E-03
6.474104E+03	9.239103E-02	1.297579E-03
6.484064E+03	9.107761E-02	1.287699E-03
6.494024E+03	8.980642E-02	1.278144E-03
6.503984E+03	8.857686E-02	1.268912E-03
6.513944E+03	8.738780E-02	1.259995E-03
6.523904E+03	8.623887E-02	1.251397E-03
6.533865E+03	8.512961E-02	1.243119E-03
6.543825E+03	8.406133E-02	1.235188E-03
6.553785E+03	8.303218E-02	1.227586E-03
6.563745E+03	8.203970E-02	1.220285E-03
6.573705E+03	8.108207E-02	1.213267E-03
6.583665E+03	8.015555E-02	1.206483E-03
6.593625E+03	7.925327E-02	1.199835E-03
6.603586E+03	7.837095E-02	1.193264E-03
6.613546E+03	7.750235E-02	1.186678E-03
6.623506E+03	7.664539E-02	1.180049E-03
6.633466E+03	7.579413E-02	1.173286E-03
6.643426E+03	7.494719E-02	1.166370E-03
6.653386E+03	7.410617E-02	1.159327E-03
6.663347E+03	7.327314E-02	1.152190E-03
6.673307E+03	7.245039E-02	1.144998E-03
6.683267E+03	7.164171E-02	1.137815E-03
6.693227E+03	7.085271E-02	1.130732E-03
6.703187E+03	7.008636E-02	1.123805E-03
6.713147E+03	6.934658E-02	1.117101E-03
6.723108E+03	6.863291E-02	1.110619E-03
6.733068E+03	6.794887E-02	1.104425E-03
6.743028E+03	6.729128E-02	1.098473E-03
6.752988E+03	6.666105E-02	1.092784E-03
6.762948E+03	6.605418E-02	1.087300E-03
6.772908E+03	6.546995E-02	1.082014E-03
6.782869E+03	6.490663E-02	1.076904E-03
6.792829E+03	6.436173E-02	1.071932E-03
6.802789E+03	6.383519E-02	1.067103E-03
6.812749E+03	6.332482E-02	1.062384E-03
6.822709E+03	6.283114E-02	1.057788E-03
6.832669E+03	6.235104E-02	1.053267E-03
6.842629E+03	6.188605E-02	1.048849E-03
6.852590E+03	6.143428E-02	1.044508E-03
6.862550E+03	6.099507E-02	1.040234E-03
6.872510E+03	6.056661E-02	1.036001E-03
6.882470E+03	6.015059E-02	1.031839E-03
6.892430E+03	5.974351E-02	1.027693E-03
6.902390E+03	5.934900E-02	1.023626E-03
6.912351E+03	5.896549E-02	1.019616E-03
6.922311E+03	5.859430E-02	1.015687E-03
6.932271E+03	5.823832E-02	1.011893E-03
6.942231E+03	5.789774E-02	1.008240E-03
6.952191E+03	5.757349E-02	1.004748E-03
6.962151E+03	5.726586E-02	1.001424E-03
6.972112E+03	5.697446E-02	9.982659E-04
6.982072E+03	5.669828E-02	9.952572E-04
6.992032E+03	5.643443E-02	9.923505E-04
7.001992E+03	5.618299E-02	9.895492E-04
7.011952E+03	5.593817E-02	9.867535E-04
7.021912E+03	5.570069E-02	9.839777E-04
7.031873E+03	5.546456E-02	9.811176E-04
7.041833E+03	5.522960E-02	9.781711E-04
7.051793E+03	5.499251E-02	9.750811E-04
7.061753E+03	5.475136E-02	9.718145E-04
7.071713E+03	5.450570E-02	9.683643E-04
7.081673E+03	5.425199E-02	9.646687E-04
7.091633E+03	5.399017E-02	9.607277E-04
7.101594E+03	5.371807E-02	9.565037E-04
7.111554E+03	5.343574E-02	9.519991E-04
7.121514E+03	5.314201E-02	9.471941E-04
7.131474E+03	5.283466E-02	9.420508E-04
7.141434E+03	5.251344E-02	9.365662E-04
7.151394E+03	5.217478E-02	9.306785E-04
7.161355E+03	5.181953E-02	9.244046E-04
7.171315E+03	5.144525E-02	9.177032E-04
7.181275E+03	5.104960E-02	9.105349E-04
7.191235E+03	5.063287E-02	9.029073E-04
7.201195E+03	5.019449E-02	8.948131E-04
7.211155E+03	4.973367E-02	8.862412E-04
7.221116E+03	4.925202E-02	8.772233E-04
7.231076E+03	4.875198E-02	8.678065E-04
7.241036E+03	4.823677E-02	8.580516E-04
7.250996E+03	4.771090E-02	8.480423E-04
7.260956E+03	4.717723E-02	8.378329E-04
7.270916E+03	4.664261E-02	8.275484E-04
7.280876E+03	4.611096E-02	8.172614E-04
7.290837E+03	4.558559E-02	8.070337E-04
7.300797E+03	4.507074E-02	7.969427E-04
7.310757E+03	4.456680E-02	7.869977E-04
7.320717E+03	4.407489E-02	7.772205E-04
7.330677E+03	4.359512E-02	7.676153E-04
7.340637E+03	4.312608E-02	7.581589E-04
7.350598E+03	4.266783E-02	7.488545E-04
7.360558E+03	4.221710E-02	7.396462E-04
7.370518E+03	4.177629E-02	7.305780E-04
7.380478E+03	4.134527E-02	7.216493E-04
7.390438E+03	4.092777E-02	7.129266E-04
7.400398E+03	4.052758E-02	7.044768E-04
7.410359E+03	4.015045E-02	6.964000E-04
7.420319E+03	3.980314E-02	6.888126E-04
7.430279E+03	3.949100E-02	6.818040E-04
7.440239E+03	3.922203E-02	6.755078E-04
7.450199E+03	3.899826E-02	6.699541E-04
7.460159E+03	3.882298E-02	6.651928E-04
7.470120E+03	3.869480E-02	6.611937E-04
7.480080E+03	3.861369E-02	6.579492E-04
7.490040E+03	3.857424E-02	6.553602E-04
7.500000E+03	3.857057E-02	6.533198E-04
7.509960E+03	3.859714E-02	6.517285E-04
7.519920E+03	3.864928E-02	6.505015E-04
7.529880E+03	3.872515E-02	6.496028E-04
7.539841E+03	3.881981E-02	6.489444E-04
7.549801E+03	3.893092E-02	6.484829E-04
7.559761E+03	3.905591E-02	6.481713E-04
7.569721E+03	3.919027E-02	6.479308E-04
7.579681E+03	3.933105E-02	6.477098E-04
7.589641E+03	3.947268E-02	6.474141E-04
7.599602E+03	3.961090E-02	6.469725E-04
7.609562E+03	3.973667E-02	6.462371E-04
7.619522E+03	3.984323E-02	6.450999E-04
7.629482E+03	3.992034E-02	6.433984E-04
7.639442E+03	3.996281E-02	6.410553E-04
7.649402E+03	3.996220E-02	6.379424E-04
7.659363E+03	3.991255E-02	6.339750E-04
7.669323E+03	3.980387E-02	6.290064E-04
7.679283E+03	3.962622E-02	6.228950E-04
7.689243E+03	3.936926E-02	6.154972E-04
7.699203E+03	3.902287E-02	6.066767E-04
7.709163E+03	3.857829E-02	5.963235E-04
7.719124E+03	3.802925E-02	5.843699E-04
7.729084E+03	3.737674E-02	5.708622E-04
