#wls	flux	fluxerr
1.593625E+03	1.025672E-02	4.054537E-04
1.633466E+03	8.431113E-03	3.272721E-04
1.673307E+03	6.898041E-03	2.628520E-04
1.713147E+03	5.623244E-03	2.102881E-04
1.752988E+03	4.573698E-03	1.678152E-04
1.792829E+03	3.715810E-03	1.337402E-04
1.832669E+03	3.020891E-03	1.066388E-04
1.872510E+03	2.462010E-03	8.522952E-05
1.912351E+03	2.016073E-03	6.843821E-05
1.952191E+03	1.663200E-03	5.536427E-05
1.992032E+03	1.386884E-03	4.527412E-05
2.031873E+03	1.173345E-03	3.756890E-05
2.071713E+03	1.011693E-03	3.177986E-05
2.111554E+03	8.938364E-04	2.755583E-05
2.151394E+03	8.143146E-04	2.464897E-05
2.191235E+03	7.701167E-04	2.290154E-05
2.231076E+03	7.605213E-04	2.223438E-05
2.270916E+03	7.871223E-04	2.264234E-05
2.310757E+03	8.535094E-04	2.418073E-05
2.350598E+03	9.658580E-04	2.697879E-05
2.390438E+03	1.133198E-03	3.124098E-05
2.430279E+03	1.367406E-03	3.724379E-05
2.470120E+03	1.682295E-03	4.530904E-05
2.509960E+03	2.091235E-03	5.573874E-05
2.549801E+03	2.602773E-03	6.870068E-05
2.589641E+03	3.217988E-03	8.416461E-05
2.629482E+03	3.926578E-03	1.018074E-04
2.669323E+03	4.707327E-03	1.210344E-04
2.709163E+03	5.532470E-03	1.410984E-04
2.749004E+03	6.368350E-03	1.611200E-04
2.788845E+03	7.183758E-03	1.803005E-04
2.828685E+03	7.949291E-03	1.979041E-04
2.868526E+03	8.642494E-03	2.133841E-04
2.908367E+03	9.250887E-03	2.264531E-04
2.948207E+03	9.772927E-03	2.370984E-04
2.988048E+03	1.021743E-02	2.455596E-04
2.998008E+03	1.031819E-02	2.473784E-04
3.007968E+03	1.041551E-02	2.490961E-04
3.017928E+03	1.051038E-02	2.507363E-04
3.027888E+03	1.060246E-02	2.522915E-04
3.037849E+03	1.069213E-02	2.537702E-04
3.047809E+03	1.077974E-02	2.551810E-04
3.057769E+03	1.086633E-02	2.565485E-04
3.067729E+03	1.095229E-02	2.578816E-04
3.077689E+03	1.103736E-02	2.591739E-04
3.087649E+03	1.112258E-02	2.604499E-04
3.097610E+03	1.120838E-02	2.617186E-04
3.107570E+03	1.129513E-02	2.629889E-04
3.117530E+03	1.138327E-02	2.642697E-04
3.127490E+03	1.147382E-02	2.655846E-04
3.137450E+03	1.156656E-02	2.669272E-04
3.147410E+03	1.166188E-02	2.683059E-04
3.157371E+03	1.176082E-02	2.697436E-04
3.167331E+03	1.186378E-02	2.712481E-04
3.177291E+03	1.197175E-02	2.728412E-04
3.187251E+03	1.208387E-02	2.745014E-04
3.197211E+03	1.220177E-02	2.762643E-04
3.207171E+03	1.232518E-02	2.781222E-04
3.217131E+03	1.245508E-02	2.800957E-04
3.227092E+03	1.259181E-02	2.821902E-04
3.237052E+03	1.273572E-02	2.844111E-04
3.247012E+03	1.288774E-02	2.867772E-04
3.256972E+03	1.304756E-02	2.892787E-04
3.266932E+03	1.321611E-02	2.919335E-04
3.276892E+03	1.339367E-02	2.947449E-04
3.286853E+03	1.358113E-02	2.977297E-04
3.296813E+03	1.377813E-02	3.008763E-04
3.306773E+03	1.398555E-02	3.042006E-04
3.316733E+03	1.420360E-02	3.077040E-04
3.326693E+03	1.443317E-02	3.114015E-04
3.336653E+03	1.467383E-02	3.152802E-04
3.346614E+03	1.492708E-02	3.193679E-04
3.356574E+03	1.519250E-02	3.236515E-04
3.366534E+03	1.547096E-02	3.281448E-04
3.376494E+03	1.576270E-02	3.328481E-04
3.386454E+03	1.606860E-02	3.377751E-04
3.396414E+03	1.638890E-02	3.429253E-04
3.406375E+03	1.672379E-02	3.482975E-04
3.416335E+03	1.707411E-02	3.539032E-04
3.426295E+03	1.744061E-02	3.597522E-04
3.436255E+03	1.782266E-02	3.658250E-04
3.446215E+03	1.822152E-02	3.721412E-04
3.456175E+03	1.863632E-02	3.786765E-04
3.466135E+03	1.906811E-02	3.854453E-04
3.476096E+03	1.951713E-02	3.924455E-04
3.486056E+03	1.998141E-02	3.996306E-04
3.496016E+03	2.046233E-02	4.070211E-04
3.505976E+03	2.095840E-02	4.145807E-04
3.515936E+03	2.146954E-02	4.223004E-04
3.525896E+03	2.199424E-02	4.301441E-04
3.535857E+03	2.253319E-02	4.381187E-04
3.545817E+03	2.308364E-02	4.461641E-04
3.555777E+03	2.364509E-02	4.542648E-04
3.565737E+03	2.421798E-02	4.624233E-04
3.575697E+03	2.480006E-02	4.705907E-04
3.585657E+03	2.539224E-02	4.787787E-04
3.595618E+03	2.599350E-02	4.869622E-04
3.605578E+03	2.660537E-02	4.951636E-04
3.615538E+03	2.722748E-02	5.033699E-04
3.625498E+03	2.786058E-02	5.115886E-04
3.635458E+03	2.850661E-02	5.198484E-04
3.645418E+03	2.916803E-02	5.281863E-04
3.655378E+03	2.984625E-02	5.366192E-04
3.665339E+03	3.054480E-02	5.452011E-04
3.675299E+03	3.126709E-02	5.539816E-04
3.685259E+03	3.201781E-02	5.630311E-04
3.695219E+03	3.280141E-02	5.724134E-04
3.705179E+03	3.362375E-02	5.822134E-04
3.715139E+03	3.449096E-02	5.925180E-04
3.725100E+03	3.540798E-02	6.033900E-04
3.735060E+03	3.638138E-02	6.149162E-04
3.745020E+03	3.741768E-02	6.271794E-04
3.754980E+03	3.852392E-02	6.402665E-04
3.764940E+03	3.970323E-02	6.541957E-04
3.774900E+03	4.096092E-02	6.690186E-04
3.784861E+03	4.229902E-02	6.847301E-04
3.794821E+03	4.371903E-02	7.013154E-04
3.804781E+03	4.521695E-02	7.186704E-04
3.814741E+03	4.678787E-02	7.366792E-04
3.824701E+03	4.842128E-02	7.551408E-04
3.834661E+03	5.010237E-02	7.737941E-04
3.844622E+03	5.181422E-02	7.923546E-04
3.854582E+03	5.353427E-02	8.104623E-04
3.864542E+03	5.523668E-02	8.277227E-04
3.874502E+03	5.689536E-02	8.437537E-04
3.884462E+03	5.848083E-02	8.581397E-04
3.894422E+03	5.996354E-02	8.704841E-04
3.904382E+03	6.131738E-02	8.804582E-04
3.914343E+03	6.251694E-02	8.877614E-04
3.924303E+03	6.354092E-02	8.921680E-04
3.934263E+03	6.437571E-02	8.935735E-04
3.944223E+03	6.501195E-02	8.919417E-04
3.954183E+03	6.544822E-02	8.873514E-04
3.964143E+03	6.568915E-02	8.799646E-04
3.974104E+03	6.574688E-02	8.700401E-04
3.984064E+03	6.563926E-02	8.579050E-04
3.994024E+03	6.538856E-02	8.439320E-04
4.003984E+03	6.501813E-02	8.284939E-04
4.013944E+03	6.455696E-02	8.120195E-04
4.023904E+03	6.403048E-02	7.948744E-04
4.033865E+03	6.346548E-02	7.774248E-04
4.043825E+03	6.288721E-02	7.600004E-04
4.053785E+03	6.231887E-02	7.428904E-04
4.063745E+03	6.178014E-02	7.263271E-04
4.073705E+03	6.128875E-02	7.105077E-04
4.083665E+03	6.085903E-02	6.955789E-04
4.093625E+03	6.049997E-02	6.816184E-04
4.103586E+03	6.022011E-02	6.686934E-04
4.113546E+03	6.002146E-02	6.567944E-04
4.123506E+03	5.990202E-02	6.458685E-04
4.133466E+03	5.985712E-02	6.358363E-04
4.143426E+03	5.987799E-02	6.265790E-04
4.153386E+03	5.995486E-02	6.179747E-04
4.163347E+03	6.007500E-02	6.098779E-04
4.173307E+03	6.022255E-02	6.021212E-04
4.183267E+03	6.038301E-02	5.945611E-04
4.193227E+03	6.053979E-02	5.870436E-04
4.203187E+03	6.067763E-02	5.794377E-04
4.213147E+03	6.077910E-02	5.716017E-04
4.223108E+03	6.083051E-02	5.634387E-04
4.233068E+03	6.081597E-02	5.548396E-04
4.243028E+03	6.072427E-02	5.457452E-04
4.252988E+03	6.054326E-02	5.360935E-04
4.262948E+03	6.026597E-02	5.258724E-04
4.272908E+03	5.988918E-02	5.151039E-04
4.282869E+03	5.941266E-02	5.038346E-04
4.292829E+03	5.884357E-02	4.921704E-04
4.302789E+03	5.819173E-02	4.802326E-04
4.312749E+03	5.747681E-02	4.682157E-04
4.322709E+03	5.671940E-02	4.563103E-04
4.332669E+03	5.594738E-02	4.447539E-04
4.342629E+03	5.519191E-02	4.337976E-04
4.352590E+03	5.448551E-02	4.236907E-04
4.362550E+03	5.386152E-02	4.146781E-04
4.372510E+03	5.335327E-02	4.069956E-04
4.382470E+03	5.299297E-02	4.008635E-04
4.392430E+03	5.280826E-02	3.964621E-04
4.402390E+03	5.282478E-02	3.939525E-04
4.412351E+03	5.306314E-02	3.934474E-04
4.422311E+03	5.354014E-02	3.950331E-04
4.432271E+03	5.426859E-02	3.987715E-04
4.442231E+03	5.525689E-02	4.046987E-04
4.452191E+03	5.650845E-02	4.128209E-04
4.462151E+03	5.802016E-02	4.231033E-04
4.472112E+03	5.978264E-02	4.354716E-04
4.482072E+03	6.177793E-02	4.497945E-04
4.492032E+03	6.398071E-02	4.658916E-04
4.501992E+03	6.635523E-02	4.835088E-04
4.511952E+03	6.885551E-02	5.023182E-04
4.521912E+03	7.142910E-02	5.219432E-04
4.531873E+03	7.401422E-02	5.419351E-04
4.541833E+03	7.654355E-02	5.617988E-04
4.551793E+03	7.894698E-02	5.810109E-04
4.561753E+03	8.115660E-02	5.990547E-04
4.571713E+03	8.310852E-02	6.154335E-04
4.581673E+03	8.475180E-02	6.297372E-04
4.591633E+03	8.604589E-02	6.416241E-04
4.601594E+03	8.697040E-02	6.508964E-04
4.611554E+03	8.751910E-02	6.574585E-04
4.621514E+03	8.770302E-02	6.613432E-04
4.631474E+03	8.754706E-02	6.626892E-04
4.641434E+03	8.708812E-02	6.617298E-04
4.651394E+03	8.636953E-02	6.587529E-04
4.661355E+03	8.543863E-02	6.540839E-04
4.671315E+03	8.434279E-02	6.480558E-04
4.681275E+03	8.313133E-02	6.410244E-04
4.691235E+03	8.184677E-02	6.332998E-04
4.701195E+03	8.052985E-02	6.251854E-04
4.711155E+03	7.921473E-02	6.169392E-04
4.721116E+03	7.793212E-02	6.087970E-04
4.731076E+03	7.670835E-02	6.009644E-04
4.741036E+03	7.556287E-02	5.935964E-04
4.750996E+03	7.451175E-02	5.868233E-04
4.760956E+03	7.356600E-02	5.807373E-04
4.770916E+03	7.273041E-02	5.753821E-04
4.780876E+03	7.200689E-02	5.707787E-04
4.790837E+03	7.139174E-02	5.669034E-04
4.800797E+03	7.087894E-02	5.637136E-04
4.810757E+03	7.045587E-02	5.611133E-04
4.820717E+03	7.010996E-02	5.590044E-04
4.830677E+03	6.982213E-02	5.572328E-04
4.840637E+03	6.957034E-02	5.556197E-04
4.850598E+03	6.932989E-02	5.539646E-04
4.860558E+03	6.907153E-02	5.520309E-04
4.870518E+03	6.876570E-02	5.495792E-04
4.880478E+03	6.838194E-02	5.463647E-04
4.890438E+03	6.789229E-02	5.421637E-04
4.900398E+03	6.727351E-02	5.367924E-04
4.910359E+03	6.651208E-02	5.301475E-04
4.920319E+03	6.560414E-02	5.222050E-04
4.930279E+03	6.455704E-02	5.130330E-04
4.940239E+03	6.338888E-02	5.027866E-04
4.950199E+03	6.212603E-02	4.916876E-04
4.960159E+03	6.080340E-02	4.800252E-04
4.970120E+03	5.945774E-02	4.681015E-04
4.980080E+03	5.812712E-02	4.562271E-04
4.990040E+03	5.685057E-02	4.447164E-04
5.000000E+03	5.566291E-02	4.338467E-04
5.009960E+03	5.459571E-02	4.238656E-04
5.019920E+03	5.367853E-02	4.149998E-04
5.029880E+03	5.293565E-02	4.074306E-04
5.039841E+03	5.238897E-02	4.013158E-04
5.049801E+03	5.205613E-02	3.967753E-04
5.059761E+03	5.195401E-02	3.939192E-04
5.069721E+03	5.209784E-02	3.928403E-04
5.079681E+03	5.250075E-02	3.936111E-04
5.089641E+03	5.317544E-02	3.962972E-04
5.099602E+03	5.413443E-02	4.009591E-04
5.109562E+03	5.538772E-02	4.076354E-04
5.119522E+03	5.694594E-02	4.163664E-04
5.129482E+03	5.881561E-02	4.271607E-04
5.139442E+03	6.100004E-02	4.400025E-04
5.149402E+03	6.349725E-02	4.548385E-04
5.159363E+03	6.629848E-02	4.715694E-04
5.169323E+03	6.938699E-02	4.900439E-04
5.179283E+03	7.273780E-02	5.100596E-04
5.189243E+03	7.631455E-02	5.313441E-04
5.199203E+03	8.007392E-02	5.535893E-04
5.209163E+03	8.396341E-02	5.764381E-04
5.219124E+03	8.792378E-02	5.995038E-04
5.229084E+03	9.189032E-02	6.223797E-04
5.239044E+03	9.579879E-02	6.446803E-04
5.249004E+03	9.958659E-02	6.660476E-04
5.258964E+03	1.031967E-01	6.861759E-04
5.268924E+03	1.065832E-01	7.048446E-04
5.278884E+03	1.097138E-01	7.219317E-04
5.288845E+03	1.125657E-01	7.373828E-04
5.298805E+03	1.151323E-01	7.512478E-04
5.308765E+03	1.174102E-01	7.635994E-04
5.318725E+03	1.194041E-01	7.745556E-04
5.328685E+03	1.211175E-01	7.842222E-04
5.338645E+03	1.225495E-01	7.926691E-04
5.348606E+03	1.236950E-01	7.999313E-04
5.358566E+03	1.245432E-01	8.059964E-04
5.368526E+03	1.250798E-01	8.108151E-04
5.378486E+03	1.252845E-01	8.142587E-04
5.388446E+03	1.251419E-01	8.161932E-04
5.398406E+03	1.246378E-01	8.164777E-04
5.408367E+03	1.237680E-01	8.150192E-04
5.418327E+03	1.225345E-01	8.117497E-04
5.428287E+03	1.209505E-01	8.066585E-04
5.438247E+03	1.190383E-01	7.997890E-04
5.448207E+03	1.168278E-01	7.912318E-04
5.458167E+03	1.143541E-01	7.811139E-04
5.468127E+03	1.116541E-01	7.695786E-04
5.478088E+03	1.087693E-01	7.568074E-04
5.488048E+03	1.057361E-01	7.429575E-04
5.498008E+03	1.025918E-01	7.282035E-04
5.507968E+03	9.937388E-02	7.127335E-04
5.517928E+03	9.611457E-02	6.967121E-04
5.527888E+03	9.284421E-02	6.803039E-04
5.537849E+03	8.959413E-02	6.636946E-04
5.547809E+03	8.639203E-02	6.470572E-04
5.557769E+03	8.326249E-02	6.305544E-04
5.567729E+03	8.023277E-02	6.143825E-04
5.577689E+03	7.732437E-02	5.987067E-04
5.587649E+03	7.455956E-02	5.837092E-04
5.597610E+03	7.195784E-02	5.695621E-04
5.607570E+03	6.953665E-02	5.564309E-04
5.617530E+03	6.731138E-02	5.444734E-04
5.627490E+03	6.529595E-02	5.338432E-04
5.637450E+03	6.350164E-02	5.246792E-04
5.647410E+03	6.193737E-02	5.171056E-04
5.657371E+03	6.061178E-02	5.112488E-04
5.667331E+03	5.953231E-02	5.072285E-04
5.677291E+03	5.870345E-02	5.051420E-04
5.687251E+03	5.813070E-02	5.050968E-04
5.697211E+03	5.781843E-02	5.071919E-04
5.707171E+03	5.776864E-02	5.115061E-04
5.717131E+03	5.798272E-02	5.181129E-04
5.727092E+03	5.845908E-02	5.270576E-04
5.737052E+03	5.919220E-02	5.383485E-04
5.747012E+03	6.017334E-02	5.519611E-04
5.756972E+03	6.138777E-02	5.678111E-04
5.766932E+03	6.281430E-02	5.857483E-04
5.776892E+03	6.442442E-02	6.055458E-04
5.786853E+03	6.618186E-02	6.268935E-04
5.796813E+03	6.804280E-02	6.493978E-04
5.806773E+03	6.995641E-02	6.725847E-04
5.816733E+03	7.186744E-02	6.959228E-04
5.826693E+03	7.371598E-02	7.188203E-04
5.836653E+03	7.544264E-02	7.406752E-04
5.846614E+03	7.699179E-02	7.609081E-04
5.856574E+03	7.831221E-02	7.789705E-04
5.866534E+03	7.936315E-02	7.944082E-04
5.876494E+03	8.011290E-02	8.068497E-04
5.886454E+03	8.054263E-02	8.160491E-04
5.896414E+03	8.064636E-02	8.218894E-04
5.906375E+03	8.042785E-02	8.243548E-04
5.916335E+03	7.990188E-02	8.235461E-04
5.926295E+03	7.909253E-02	8.196662E-04
5.936255E+03	7.802886E-02	8.129772E-04
5.946215E+03	7.674573E-02	8.038096E-04
5.956175E+03	7.528173E-02	7.925421E-04
5.966135E+03	7.367465E-02	7.795544E-04
5.976096E+03	7.196474E-02	7.652604E-04
5.986056E+03	7.019034E-02	7.500625E-04
5.996016E+03	6.838774E-02	7.343488E-04
6.005976E+03	6.658960E-02	7.184757E-04
6.015936E+03	6.482607E-02	7.027784E-04
6.025896E+03	6.312436E-02	6.875664E-04
6.035857E+03	6.150593E-02	6.730906E-04
6.045817E+03	5.999126E-02	6.595956E-04
6.055777E+03	5.859468E-02	6.472615E-04
6.065737E+03	5.732849E-02	6.362485E-04
6.075697E+03	5.620263E-02	6.266930E-04
6.085657E+03	5.522290E-02	6.186871E-04
6.095618E+03	5.439393E-02	6.123106E-04
6.105578E+03	5.371697E-02	6.076067E-04
6.115538E+03	5.319218E-02	6.046068E-04
6.125498E+03	5.281923E-02	6.033373E-04
6.135458E+03	5.259537E-02	6.037976E-04
6.145418E+03	5.251709E-02	6.059774E-04
6.155378E+03	5.257916E-02	6.098465E-04
6.165339E+03	5.277538E-02	6.153629E-04
6.175299E+03	5.309916E-02	6.224798E-04
6.185259E+03	5.354185E-02	6.311257E-04
6.195219E+03	5.409515E-02	6.412326E-04
6.205179E+03	5.474798E-02	6.526978E-04
6.215139E+03	5.549072E-02	6.654352E-04
6.225100E+03	5.631005E-02	6.793118E-04
6.235060E+03	5.719389E-02	6.942074E-04
6.245020E+03	5.812766E-02	7.099686E-04
6.254980E+03	5.909420E-02	7.264063E-04
6.264940E+03	6.007906E-02	7.433544E-04
6.274900E+03	6.106330E-02	7.605827E-04
6.284861E+03	6.203250E-02	7.779104E-04
6.294821E+03	6.296974E-02	7.951203E-04
6.304781E+03	6.386187E-02	8.120361E-04
6.314741E+03	6.469741E-02	8.284973E-04
6.324701E+03	6.546679E-02	8.443634E-04
6.334661E+03	6.616483E-02	8.595462E-04
6.344622E+03	6.678690E-02	8.739617E-04
6.354582E+03	6.733323E-02	8.875874E-04
6.364542E+03	6.780466E-02	9.004082E-04
6.374502E+03	6.820349E-02	9.124284E-04
6.384462E+03	6.853388E-02	9.236770E-04
6.394422E+03	6.879858E-02	9.341658E-04
6.404382E+03	6.900097E-02	9.439152E-04
6.414343E+03	6.914442E-02	9.529468E-04
6.424303E+03	6.922851E-02	9.612309E-04
6.434263E+03	6.925545E-02	9.687738E-04
6.444223E+03	6.922218E-02	9.755087E-04
6.454183E+03	6.912612E-02	9.813738E-04
6.464143E+03	6.896289E-02	9.862813E-04
6.474104E+03	6.872626E-02	9.901140E-04
6.484064E+03	6.840868E-02	9.927336E-04
6.494024E+03	6.800177E-02	9.939865E-04
6.503984E+03	6.749677E-02	9.937100E-04
6.513944E+03	6.688457E-02	9.917331E-04
6.523904E+03	6.615793E-02	9.879090E-04
6.533865E+03	6.531062E-02	9.821033E-04
6.543825E+03	6.434039E-02	9.742404E-04
6.553785E+03	6.324532E-02	9.642486E-04
6.563745E+03	6.202830E-02	9.521303E-04
6.573705E+03	6.069533E-02	9.379381E-04
6.583665E+03	5.925402E-02	9.217524E-04
6.593625E+03	5.771639E-02	9.037269E-04
6.603586E+03	5.609630E-02	8.840500E-04
6.613546E+03	5.441028E-02	8.629589E-04
6.623506E+03	5.267479E-02	8.406973E-04
6.633466E+03	5.090794E-02	8.175423E-04
6.643426E+03	4.912934E-02	7.938034E-04
6.653386E+03	4.735542E-02	7.697466E-04
6.663347E+03	4.560376E-02	7.456633E-04
6.673307E+03	4.389035E-02	7.218262E-04
6.683267E+03	4.222830E-02	6.984666E-04
6.693227E+03	4.062935E-02	6.757974E-04
6.703187E+03	3.910309E-02	6.540010E-04
6.713147E+03	3.765748E-02	6.332347E-04
6.723108E+03	3.629778E-02	6.136133E-04
6.733068E+03	3.502690E-02	5.952129E-04
6.743028E+03	3.384635E-02	5.780867E-04
6.752988E+03	3.275705E-02	5.622773E-04
6.762948E+03	3.175672E-02	5.477721E-04
6.772908E+03	3.084282E-02	5.345530E-04
6.782869E+03	3.001290E-02	5.226013E-04
6.792829E+03	2.926195E-02	5.118529E-04
6.802789E+03	2.858578E-02	5.022553E-04
6.812749E+03	2.797900E-02	4.937333E-04
6.822709E+03	2.743718E-02	4.862265E-04
6.832669E+03	2.695418E-02	4.796420E-04
6.842629E+03	2.652504E-02	4.739059E-04
6.852590E+03	2.614447E-02	4.689365E-04
6.862550E+03	2.580699E-02	4.646463E-04
6.872510E+03	2.550809E-02	4.609641E-04
6.882470E+03	2.524320E-02	4.578155E-04
6.892430E+03	2.500774E-02	4.551249E-04
6.902390E+03	2.479826E-02	4.528358E-04
6.912351E+03	2.461142E-02	4.508920E-04
6.922311E+03	2.444390E-02	4.492376E-04
6.932271E+03	2.429360E-02	4.478375E-04
6.942231E+03	2.415843E-02	4.466568E-04
6.952191E+03	2.403637E-02	4.456606E-04
6.962151E+03	2.392609E-02	4.448267E-04
6.972112E+03	2.382696E-02	4.441456E-04
6.982072E+03	2.373824E-02	4.436055E-04
6.992032E+03	2.365870E-02	4.431849E-04
7.001992E+03	2.358871E-02	4.428924E-04
7.011952E+03	2.352802E-02	4.427247E-04
7.021912E+03	2.347569E-02	4.426655E-04
7.031873E+03	2.343221E-02	4.427254E-04
7.041833E+03	2.339696E-02	4.428935E-04
7.051793E+03	2.336958E-02	4.431639E-04
7.061753E+03	2.335001E-02	4.435367E-04
7.071713E+03	2.333702E-02	4.439893E-04
7.081673E+03	2.333085E-02	4.445266E-04
7.091633E+03	2.333025E-02	4.451258E-04
7.101594E+03	2.333555E-02	4.457934E-04
7.111554E+03	2.334566E-02	4.465089E-04
7.121514E+03	2.336073E-02	4.472757E-04
7.131474E+03	2.338102E-02	4.480993E-04
7.141434E+03	2.340576E-02	4.489648E-04
7.151394E+03	2.343535E-02	4.498802E-04
7.161355E+03	2.346981E-02	4.508461E-04
7.171315E+03	2.350910E-02	4.518619E-04
7.181275E+03	2.355307E-02	4.529248E-04
7.191235E+03	2.360104E-02	4.540217E-04
7.201195E+03	2.365330E-02	4.551585E-04
7.211155E+03	2.370840E-02	4.563071E-04
7.221116E+03	2.376587E-02	4.574585E-04
7.231076E+03	2.382468E-02	4.585927E-04
7.241036E+03	2.388365E-02	4.596870E-04
7.250996E+03	2.394150E-02	4.607170E-04
7.260956E+03	2.399691E-02	4.616571E-04
7.270916E+03	2.404819E-02	4.624746E-04
7.280876E+03	2.409489E-02	4.631616E-04
7.290837E+03	2.413551E-02	4.636892E-04
7.300797E+03	2.416871E-02	4.640321E-04
7.310757E+03	2.419462E-02	4.641930E-04
7.320717E+03	2.421236E-02	4.641562E-04
7.330677E+03	2.422177E-02	4.639188E-04
7.340637E+03	2.422294E-02	4.634836E-04
7.350598E+03	2.421623E-02	4.628583E-04
7.360558E+03	2.420264E-02	4.620631E-04
7.370518E+03	2.418254E-02	4.611060E-04
7.380478E+03	2.415770E-02	4.600216E-04
7.390438E+03	2.412827E-02	4.588140E-04
7.400398E+03	2.409611E-02	4.575193E-04
7.410359E+03	2.406218E-02	4.561569E-04
7.420319E+03	2.402736E-02	4.547438E-04
7.430279E+03	2.399148E-02	4.532780E-04
7.440239E+03	2.395505E-02	4.517696E-04
7.450199E+03	2.391878E-02	4.502330E-04
7.460159E+03	2.388191E-02	4.486537E-04
7.470120E+03	2.384523E-02	4.470462E-04
7.480080E+03	2.380769E-02	4.453903E-04
7.490040E+03	2.376900E-02	4.436808E-04
7.500000E+03	2.372890E-02	4.419123E-04
7.509960E+03	2.368759E-02	4.400886E-04
7.519920E+03	2.364449E-02	4.381986E-04
7.529880E+03	2.359956E-02	4.362419E-04
7.539841E+03	2.355288E-02	4.342199E-04
7.549801E+03	2.350461E-02	4.321354E-04
7.559761E+03	2.345495E-02	4.299923E-04
7.569721E+03	2.340367E-02	4.277864E-04
7.579681E+03	2.335131E-02	4.255279E-04
7.589641E+03	2.329789E-02	4.232171E-04
7.599602E+03	2.324329E-02	4.208519E-04
7.609562E+03	2.318721E-02	4.184273E-04
7.619522E+03	2.312883E-02	4.159286E-04
7.629482E+03	2.306761E-02	4.133469E-04
7.639442E+03	2.300387E-02	4.106883E-04
7.649402E+03	2.293618E-02	4.079282E-04
7.659363E+03	2.286409E-02	4.050595E-04
7.669323E+03	2.278767E-02	4.020847E-04
7.679283E+03	2.270671E-02	3.990014E-04
7.689243E+03	2.262077E-02	3.958031E-04
7.699203E+03	2.252993E-02	3.924929E-04
7.709163E+03	2.243484E-02	3.890835E-04
7.719124E+03	2.233573E-02	3.855808E-04
7.729084E+03	2.223243E-02	3.819830E-04
