#wls	flux	fluxerr
1.593625E+03	8.127487E-03	4.928933E-04
1.633466E+03	6.736397E-03	4.033407E-04
1.673307E+03	5.573352E-03	3.294206E-04
1.713147E+03	4.606375E-03	2.687405E-04
1.752988E+03	3.808740E-03	2.193072E-04
1.792829E+03	3.154372E-03	1.792463E-04
1.832669E+03	2.619837E-03	1.469116E-04
1.872510E+03	2.186586E-03	1.209994E-04
1.912351E+03	1.836797E-03	1.003036E-04
1.952191E+03	1.556222E-03	8.386542E-05
1.992032E+03	1.332932E-03	7.089384E-05
2.031873E+03	1.156960E-03	6.073759E-05
2.071713E+03	1.020806E-03	5.290392E-05
2.111554E+03	9.185537E-04	4.700458E-05
2.151394E+03	8.458326E-04	4.274797E-05
2.191235E+03	7.998888E-04	3.993748E-05
2.231076E+03	7.790355E-04	3.843902E-05
2.270916E+03	7.826088E-04	3.817487E-05
2.310757E+03	8.107940E-04	3.911220E-05
2.350598E+03	8.646092E-04	4.125970E-05
2.390438E+03	9.458130E-04	4.466148E-05
2.430279E+03	1.056863E-03	4.939301E-05
2.470120E+03	1.200893E-03	5.555802E-05
2.509960E+03	1.380586E-03	6.323488E-05
2.549801E+03	1.597754E-03	7.245816E-05
2.589641E+03	1.853394E-03	8.322247E-05
2.629482E+03	2.145723E-03	9.539618E-05
2.669323E+03	2.471810E-03	1.087986E-04
2.709163E+03	2.826880E-03	1.231718E-04
2.749004E+03	3.205190E-03	1.382215E-04
2.788845E+03	3.599353E-03	1.535907E-04
2.828685E+03	4.001566E-03	1.689152E-04
2.868526E+03	4.404855E-03	1.838768E-04
2.908367E+03	4.802823E-03	1.981922E-04
2.948207E+03	5.190588E-03	2.116505E-04
2.988048E+03	5.566262E-03	2.241699E-04
2.998008E+03	5.658536E-03	2.271625E-04
3.007968E+03	5.750412E-03	2.301105E-04
3.017928E+03	5.840703E-03	2.329663E-04
3.027888E+03	5.931252E-03	2.358034E-04
3.037849E+03	6.020879E-03	2.385746E-04
3.047809E+03	6.109613E-03	2.412813E-04
3.057769E+03	6.198119E-03	2.439494E-04
3.067729E+03	6.286456E-03	2.465810E-04
3.077689E+03	6.374683E-03	2.491783E-04
3.087649E+03	6.462861E-03	2.517433E-04
3.097610E+03	6.550411E-03	2.542532E-04
3.107570E+03	6.638695E-03	2.567605E-04
3.117530E+03	6.726478E-03	2.592172E-04
3.127490E+03	6.815145E-03	2.616761E-04
3.137450E+03	6.903454E-03	2.640891E-04
3.147410E+03	6.992804E-03	2.665092E-04
3.157371E+03	7.082608E-03	2.689135E-04
3.167331E+03	7.173614E-03	2.713296E-04
3.177291E+03	7.265227E-03	2.737343E-04
3.187251E+03	7.357520E-03	2.761297E-04
3.197211E+03	7.451931E-03	2.785689E-04
3.207171E+03	7.547170E-03	2.810026E-04
3.217131E+03	7.643994E-03	2.834580E-04
3.227092E+03	7.742470E-03	2.859365E-04
3.237052E+03	7.842662E-03	2.884393E-04
3.247012E+03	7.945337E-03	2.909933E-04
3.256972E+03	8.049846E-03	2.935733E-04
3.266932E+03	8.156237E-03	2.961796E-04
3.276892E+03	8.265977E-03	2.988641E-04
3.286853E+03	8.378398E-03	3.016006E-04
3.296813E+03	8.492812E-03	3.043628E-04
3.306773E+03	8.610677E-03	3.072013E-04
3.316733E+03	8.732016E-03	3.101146E-04
3.326693E+03	8.856104E-03	3.130752E-04
3.336653E+03	8.984403E-03	3.161324E-04
3.346614E+03	9.116170E-03	3.192579E-04
3.356574E+03	9.251376E-03	3.224482E-04
3.366534E+03	9.390729E-03	3.257257E-04
3.376494E+03	9.534931E-03	3.291121E-04
3.386454E+03	9.682442E-03	3.325514E-04
3.396414E+03	9.835447E-03	3.361160E-04
3.406375E+03	9.992382E-03	3.397494E-04
3.416335E+03	1.015469E-02	3.434977E-04
3.426295E+03	1.032231E-02	3.473557E-04
3.436255E+03	1.049442E-02	3.512923E-04
3.446215E+03	1.067328E-02	3.553795E-04
3.456175E+03	1.085654E-02	3.595360E-04
3.466135E+03	1.104653E-02	3.638348E-04
3.476096E+03	1.124328E-02	3.682728E-04
3.486056E+03	1.144607E-02	3.728221E-04
3.496016E+03	1.165654E-02	3.775324E-04
3.505976E+03	1.187403E-02	3.823772E-04
3.515936E+03	1.209947E-02	3.873813E-04
3.525896E+03	1.233301E-02	3.925448E-04
3.535857E+03	1.257483E-02	3.978681E-04
3.545817E+03	1.282592E-02	4.033764E-04
3.555777E+03	1.308568E-02	4.090456E-04
3.565737E+03	1.335593E-02	4.149261E-04
3.575697E+03	1.363530E-02	4.209689E-04
3.585657E+03	1.392405E-02	4.271752E-04
3.595618E+03	1.422399E-02	4.335943E-04
3.605578E+03	1.453459E-02	4.402021E-04
3.615538E+03	1.485526E-02	4.469740E-04
3.625498E+03	1.518706E-02	4.539343E-04
3.635458E+03	1.553020E-02	4.610819E-04
3.645418E+03	1.588491E-02	4.684152E-04
3.655378E+03	1.625055E-02	4.759080E-04
3.665339E+03	1.662812E-02	4.835813E-04
3.675299E+03	1.701775E-02	4.914308E-04
3.685259E+03	1.741875E-02	4.994276E-04
3.695219E+03	1.783116E-02	5.075654E-04
3.705179E+03	1.825499E-02	5.158362E-04
3.715139E+03	1.869022E-02	5.242307E-04
3.725100E+03	1.913754E-02	5.327606E-04
3.735060E+03	1.959513E-02	5.413665E-04
3.745020E+03	2.006271E-02	5.500334E-04
3.754980E+03	2.054077E-02	5.587674E-04
3.764940E+03	2.102804E-02	5.675262E-04
3.774900E+03	2.152398E-02	5.762889E-04
3.784861E+03	2.202795E-02	5.850321E-04
3.794821E+03	2.253839E-02	5.937084E-04
3.804781E+03	2.305447E-02	6.022912E-04
3.814741E+03	2.357612E-02	6.107747E-04
3.824701E+03	2.410150E-02	6.191072E-04
3.834661E+03	2.462782E-02	6.272149E-04
3.844622E+03	2.515653E-02	6.351333E-04
3.854582E+03	2.568388E-02	6.427670E-04
3.864542E+03	2.620954E-02	6.501082E-04
3.874502E+03	2.673143E-02	6.571074E-04
3.884462E+03	2.724924E-02	6.637597E-04
3.894422E+03	2.776009E-02	6.699987E-04
3.904382E+03	2.826378E-02	6.758244E-04
3.914343E+03	2.875842E-02	6.811982E-04
3.924303E+03	2.924315E-02	6.861062E-04
3.934263E+03	2.971631E-02	6.905184E-04
3.944223E+03	3.017815E-02	6.944490E-04
3.954183E+03	3.062648E-02	6.978577E-04
3.964143E+03	3.106183E-02	7.007667E-04
3.974104E+03	3.148323E-02	7.031655E-04
3.984064E+03	3.188986E-02	7.050474E-04
3.994024E+03	3.228271E-02	7.064464E-04
4.003984E+03	3.266216E-02	7.073825E-04
4.013944E+03	3.302615E-02	7.078237E-04
4.023904E+03	3.337785E-02	7.078500E-04
4.033865E+03	3.371545E-02	7.074355E-04
4.043825E+03	3.404058E-02	7.066269E-04
4.053785E+03	3.435414E-02	7.054546E-04
4.063745E+03	3.465544E-02	7.039164E-04
4.073705E+03	3.494702E-02	7.020753E-04
4.083665E+03	3.522744E-02	6.999140E-04
4.093625E+03	3.549918E-02	6.974930E-04
4.103586E+03	3.576239E-02	6.948257E-04
4.113546E+03	3.601705E-02	6.919228E-04
4.123506E+03	3.626476E-02	6.888254E-04
4.133466E+03	3.650544E-02	6.855424E-04
4.143426E+03	3.673962E-02	6.820939E-04
4.153386E+03	3.696785E-02	6.785003E-04
4.163347E+03	3.718982E-02	6.747664E-04
4.173307E+03	3.740657E-02	6.709213E-04
4.183267E+03	3.761759E-02	6.669664E-04
4.193227E+03	3.782302E-02	6.629151E-04
4.203187E+03	3.802373E-02	6.587932E-04
4.213147E+03	3.821826E-02	6.545865E-04
4.223108E+03	3.840802E-02	6.503306E-04
4.233068E+03	3.859224E-02	6.460241E-04
4.243028E+03	3.877149E-02	6.416878E-04
4.252988E+03	3.894499E-02	6.373207E-04
4.262948E+03	3.911264E-02	6.329337E-04
4.272908E+03	3.927504E-02	6.285488E-04
4.282869E+03	3.943214E-02	6.241774E-04
4.292829E+03	3.958334E-02	6.198226E-04
4.302789E+03	3.973004E-02	6.155190E-04
4.312749E+03	3.987179E-02	6.112715E-04
4.322709E+03	4.000958E-02	6.071078E-04
4.332669E+03	4.014313E-02	6.030356E-04
4.342629E+03	4.027366E-02	5.990848E-04
4.352590E+03	4.040244E-02	5.952856E-04
4.362550E+03	4.052876E-02	5.916384E-04
4.372510E+03	4.065471E-02	5.881842E-04
4.382470E+03	4.078029E-02	5.849330E-04
4.392430E+03	4.090691E-02	5.819138E-04
4.402390E+03	4.103453E-02	5.791331E-04
4.412351E+03	4.116313E-02	5.765975E-04
4.422311E+03	4.129458E-02	5.743355E-04
4.432271E+03	4.142926E-02	5.723466E-04
4.442231E+03	4.156623E-02	5.706110E-04
4.452191E+03	4.170563E-02	5.691236E-04
4.462151E+03	4.184860E-02	5.678924E-04
4.472112E+03	4.199362E-02	5.668888E-04
4.482072E+03	4.214017E-02	5.660983E-04
4.492032E+03	4.228813E-02	5.655108E-04
4.501992E+03	4.243665E-02	5.651067E-04
4.511952E+03	4.258342E-02	5.648471E-04
4.521912E+03	4.272793E-02	5.647170E-04
4.531873E+03	4.286831E-02	5.646835E-04
4.541833E+03	4.300389E-02	5.647291E-04
4.551793E+03	4.313220E-02	5.648134E-04
4.561753E+03	4.325266E-02	5.649203E-04
4.571713E+03	4.336408E-02	5.650260E-04
4.581673E+03	4.346487E-02	5.651015E-04
4.591633E+03	4.355359E-02	5.651198E-04
4.601594E+03	4.363021E-02	5.650725E-04
4.611554E+03	4.369363E-02	5.649371E-04
4.621514E+03	4.374368E-02	5.647035E-04
4.631474E+03	4.377974E-02	5.643556E-04
4.641434E+03	4.380315E-02	5.639031E-04
4.651394E+03	4.381268E-02	5.633224E-04
4.661355E+03	4.381008E-02	5.626290E-04
4.671315E+03	4.379554E-02	5.618180E-04
4.681275E+03	4.377003E-02	5.608951E-04
4.691235E+03	4.373463E-02	5.598677E-04
4.701195E+03	4.368996E-02	5.587375E-04
4.711155E+03	4.363777E-02	5.575207E-04
4.721116E+03	4.357823E-02	5.562145E-04
4.731076E+03	4.351312E-02	5.548359E-04
4.741036E+03	4.344367E-02	5.533961E-04
4.750996E+03	4.336999E-02	5.518919E-04
4.760956E+03	4.329317E-02	5.503333E-04
4.770916E+03	4.321429E-02	5.487301E-04
4.780876E+03	4.313386E-02	5.470854E-04
4.790837E+03	4.305335E-02	5.454149E-04
4.800797E+03	4.297354E-02	5.437256E-04
4.810757E+03	4.289577E-02	5.420319E-04
4.820717E+03	4.282018E-02	5.403331E-04
4.830677E+03	4.274833E-02	5.386439E-04
4.840637E+03	4.267986E-02	5.369546E-04
4.850598E+03	4.261683E-02	5.352864E-04
4.860558E+03	4.255891E-02	5.336308E-04
4.870518E+03	4.250790E-02	5.320058E-04
4.880478E+03	4.246417E-02	5.304120E-04
4.890438E+03	4.242863E-02	5.288572E-04
4.900398E+03	4.240292E-02	5.273580E-04
4.910359E+03	4.238777E-02	5.259201E-04
4.920319E+03	4.238499E-02	5.245627E-04
4.930279E+03	4.239612E-02	5.233014E-04
4.940239E+03	4.242272E-02	5.221526E-04
4.950199E+03	4.246656E-02	5.211346E-04
4.960159E+03	4.252944E-02	5.202665E-04
4.970120E+03	4.261330E-02	5.195689E-04
4.980080E+03	4.272056E-02	5.190679E-04
4.990040E+03	4.285275E-02	5.187785E-04
5.000000E+03	4.301234E-02	5.187273E-04
5.009960E+03	4.320083E-02	5.189284E-04
5.019920E+03	4.342062E-02	5.194068E-04
5.029880E+03	4.367351E-02	5.201798E-04
5.039841E+03	4.396122E-02	5.212638E-04
5.049801E+03	4.428530E-02	5.226726E-04
5.059761E+03	4.464709E-02	5.244176E-04
5.069721E+03	4.504773E-02	5.265078E-04
5.079681E+03	4.548856E-02	5.289543E-04
5.089641E+03	4.597017E-02	5.317598E-04
5.099602E+03	4.649241E-02	5.349184E-04
5.109562E+03	4.705569E-02	5.384312E-04
5.119522E+03	4.765959E-02	5.422906E-04
5.129482E+03	4.830341E-02	5.464861E-04
5.139442E+03	4.898548E-02	5.509977E-04
5.149402E+03	4.970523E-02	5.558185E-04
5.159363E+03	5.046033E-02	5.609236E-04
5.169323E+03	5.124841E-02	5.662892E-04
5.179283E+03	5.206738E-02	5.718960E-04
5.189243E+03	5.291366E-02	5.777113E-04
5.199203E+03	5.378393E-02	5.837065E-04
5.209163E+03	5.467512E-02	5.898588E-04
5.219124E+03	5.558278E-02	5.961326E-04
5.229084E+03	5.650340E-02	6.025054E-04
5.239044E+03	5.743203E-02	6.089419E-04
5.249004E+03	5.836492E-02	6.154221E-04
5.258964E+03	5.929740E-02	6.219192E-04
5.268924E+03	6.022491E-02	6.284105E-04
5.278884E+03	6.114201E-02	6.348659E-04
5.288845E+03	6.204453E-02	6.412717E-04
5.298805E+03	6.292695E-02	6.476018E-04
5.308765E+03	6.378493E-02	6.538447E-04
5.318725E+03	6.461358E-02	6.599844E-04
5.328685E+03	6.540804E-02	6.660063E-04
5.338645E+03	6.616305E-02	6.718927E-04
5.348606E+03	6.687522E-02	6.776450E-04
5.358566E+03	6.754092E-02	6.832614E-04
5.368526E+03	6.815740E-02	6.887485E-04
5.378486E+03	6.872167E-02	6.941086E-04
5.388446E+03	6.923286E-02	6.993635E-04
5.398406E+03	6.968915E-02	7.045129E-04
5.408367E+03	7.009061E-02	7.095554E-04
5.418327E+03	7.043673E-02	7.144788E-04
5.428287E+03	7.072715E-02	7.192689E-04
5.438247E+03	7.096102E-02	7.239029E-04
5.448207E+03	7.113980E-02	7.283749E-04
5.458167E+03	7.126241E-02	7.326493E-04
5.468127E+03	7.133095E-02	7.367209E-04
5.478088E+03	7.134575E-02	7.405642E-04
5.488048E+03	7.130904E-02	7.441724E-04
5.498008E+03	7.122275E-02	7.475348E-04
5.507968E+03	7.108941E-02	7.506460E-04
5.517928E+03	7.091188E-02	7.535048E-04
5.527888E+03	7.069430E-02	7.561237E-04
5.537849E+03	7.043967E-02	7.585041E-04
5.547809E+03	7.015218E-02	7.606617E-04
5.557769E+03	6.983549E-02	7.626076E-04
5.567729E+03	6.949559E-02	7.643804E-04
5.577689E+03	6.913650E-02	7.659996E-04
5.587649E+03	6.876219E-02	7.674864E-04
5.597610E+03	6.837879E-02	7.688883E-04
5.607570E+03	6.799006E-02	7.702292E-04
5.617530E+03	6.760033E-02	7.715418E-04
5.627490E+03	6.721427E-02	7.728650E-04
5.637450E+03	6.683427E-02	7.742144E-04
5.647410E+03	6.646491E-02	7.756327E-04
5.657371E+03	6.610903E-02	7.771450E-04
5.667331E+03	6.576831E-02	7.787642E-04
5.677291E+03	6.544467E-02	7.805081E-04
5.687251E+03	6.514012E-02	7.823967E-04
5.697211E+03	6.485479E-02	7.844289E-04
5.707171E+03	6.458970E-02	7.866153E-04
5.717131E+03	6.434401E-02	7.889444E-04
5.727092E+03	6.411768E-02	7.914155E-04
5.737052E+03	6.390958E-02	7.940145E-04
5.747012E+03	6.371752E-02	7.967146E-04
5.756972E+03	6.354023E-02	7.995000E-04
5.766932E+03	6.337481E-02	8.023349E-04
5.776892E+03	6.321935E-02	8.051954E-04
5.786853E+03	6.307113E-02	8.080473E-04
5.796813E+03	6.292658E-02	8.108450E-04
5.806773E+03	6.278280E-02	8.135512E-04
5.816733E+03	6.263743E-02	8.161353E-04
5.826693E+03	6.248760E-02	8.185595E-04
5.836653E+03	6.232989E-02	8.207792E-04
5.846614E+03	6.216186E-02	8.227616E-04
5.856574E+03	6.198114E-02	8.244753E-04
5.866534E+03	6.178646E-02	8.259030E-04
5.876494E+03	6.157503E-02	8.270076E-04
5.886454E+03	6.134691E-02	8.277903E-04
5.896414E+03	6.110016E-02	8.282251E-04
5.906375E+03	6.083516E-02	8.283185E-04
5.916335E+03	6.055203E-02	8.280732E-04
5.926295E+03	6.025089E-02	8.274930E-04
5.936255E+03	5.993336E-02	8.266022E-04
5.946215E+03	5.959974E-02	8.254079E-04
5.956175E+03	5.925242E-02	8.239468E-04
5.966135E+03	5.889352E-02	8.222525E-04
5.976096E+03	5.852545E-02	8.203631E-04
5.986056E+03	5.814962E-02	8.183040E-04
5.996016E+03	5.776994E-02	8.161356E-04
6.005976E+03	5.738753E-02	8.138805E-04
6.015936E+03	5.700635E-02	8.116016E-04
6.025896E+03	5.662868E-02	8.093389E-04
6.035857E+03	5.625613E-02	8.071232E-04
6.045817E+03	5.589192E-02	8.050092E-04
6.055777E+03	5.553794E-02	8.030327E-04
6.065737E+03	5.519593E-02	8.012280E-04
6.075697E+03	5.486731E-02	7.996254E-04
6.085657E+03	5.455387E-02	7.982604E-04
6.095618E+03	5.425658E-02	7.971571E-04
6.105578E+03	5.397551E-02	7.963272E-04
6.115538E+03	5.371212E-02	7.958018E-04
6.125498E+03	5.346535E-02	7.955760E-04
6.135458E+03	5.323602E-02	7.956698E-04
6.145418E+03	5.302341E-02	7.960795E-04
6.155378E+03	5.282663E-02	7.967989E-04
6.165339E+03	5.264543E-02	7.978312E-04
6.175299E+03	5.247878E-02	7.991676E-04
6.185259E+03	5.232555E-02	8.007979E-04
6.195219E+03	5.218433E-02	8.027070E-04
6.205179E+03	5.205409E-02	8.048859E-04
6.215139E+03	5.193324E-02	8.073158E-04
6.225100E+03	5.182111E-02	8.099923E-04
6.235060E+03	5.171593E-02	8.128936E-04
6.245020E+03	5.161656E-02	8.160067E-04
6.254980E+03	5.152169E-02	8.193158E-04
6.264940E+03	5.143014E-02	8.228064E-04
6.274900E+03	5.134014E-02	8.264489E-04
6.284861E+03	5.125055E-02	8.302181E-04
6.294821E+03	5.116033E-02	8.340899E-04
6.304781E+03	5.106796E-02	8.380314E-04
6.314741E+03	5.097301E-02	8.420273E-04
6.324701E+03	5.087293E-02	8.460270E-04
6.334661E+03	5.076793E-02	8.500246E-04
6.344622E+03	5.065656E-02	8.539864E-04
6.354582E+03	5.053682E-02	8.578689E-04
6.364542E+03	5.040835E-02	8.616557E-04
6.374502E+03	5.026956E-02	8.653086E-04
6.384462E+03	5.011942E-02	8.687988E-04
6.394422E+03	4.995568E-02	8.720759E-04
6.404382E+03	4.977711E-02	8.751062E-04
6.414343E+03	4.958258E-02	8.778572E-04
6.424303E+03	4.936986E-02	8.802763E-04
6.434263E+03	4.913756E-02	8.823251E-04
6.444223E+03	4.888403E-02	8.839598E-04
6.454183E+03	4.860901E-02	8.851615E-04
6.464143E+03	4.831196E-02	8.859062E-04
6.474104E+03	4.799208E-02	8.861644E-04
6.484064E+03	4.765118E-02	8.859560E-04
6.494024E+03	4.728808E-02	8.852451E-04
6.503984E+03	4.690372E-02	8.840363E-04
6.513944E+03	4.649752E-02	8.823054E-04
6.523904E+03	4.607050E-02	8.800591E-04
6.533865E+03	4.562278E-02	8.772879E-04
6.543825E+03	4.515364E-02	8.739659E-04
6.553785E+03	4.466456E-02	8.701106E-04
6.563745E+03	4.415623E-02	8.657246E-04
6.573705E+03	4.362903E-02	8.608058E-04
6.583665E+03	4.308462E-02	8.553774E-04
6.593625E+03	4.252385E-02	8.494478E-04
6.603586E+03	4.194871E-02	8.430494E-04
6.613546E+03	4.136100E-02	8.362118E-04
6.623506E+03	4.076209E-02	8.289573E-04
6.633466E+03	4.015497E-02	8.213421E-04
6.643426E+03	3.954127E-02	8.133967E-04
6.653386E+03	3.892315E-02	8.051628E-04
6.663347E+03	3.830327E-02	7.966947E-04
6.673307E+03	3.768337E-02	7.880280E-04
6.683267E+03	3.706601E-02	7.792176E-04
6.693227E+03	3.645331E-02	7.703095E-04
6.703187E+03	3.584684E-02	7.613399E-04
6.713147E+03	3.524925E-02	7.523685E-04
6.723108E+03	3.466196E-02	7.434298E-04
6.733068E+03	3.408689E-02	7.345696E-04
6.743028E+03	3.352510E-02	7.258167E-04
6.752988E+03	3.297826E-02	7.172127E-04
6.762948E+03	3.244709E-02	7.087797E-04
6.772908E+03	3.193332E-02	7.005618E-04
6.782869E+03	3.143694E-02	6.925656E-04
6.792829E+03	3.095932E-02	6.848283E-04
6.802789E+03	3.050057E-02	6.773592E-04
6.812749E+03	3.006099E-02	6.701721E-04
6.822709E+03	2.964081E-02	6.632785E-04
6.832669E+03	2.924047E-02	6.566953E-04
6.842629E+03	2.885956E-02	6.504200E-04
6.852590E+03	2.849832E-02	6.444646E-04
6.862550E+03	2.815654E-02	6.388302E-04
6.872510E+03	2.783358E-02	6.335085E-04
6.882470E+03	2.752945E-02	6.285054E-04
6.892430E+03	2.724339E-02	6.238093E-04
6.902390E+03	2.697567E-02	6.194312E-04
6.912351E+03	2.672510E-02	6.153492E-04
6.922311E+03	2.649121E-02	6.115566E-04
6.932271E+03	2.627415E-02	6.080614E-04
6.942231E+03	2.607271E-02	6.048397E-04
6.952191E+03	2.588669E-02	6.018908E-04
6.962151E+03	2.571555E-02	5.992057E-04
6.972112E+03	2.555842E-02	5.967672E-04
6.982072E+03	2.541544E-02	5.945814E-04
6.992032E+03	2.528508E-02	5.926159E-04
7.001992E+03	2.516781E-02	5.908838E-04
7.011952E+03	2.506216E-02	5.893528E-04
7.021912E+03	2.496858E-02	5.880362E-04
7.031873E+03	2.488563E-02	5.869015E-04
7.041833E+03	2.481348E-02	5.859547E-04
7.051793E+03	2.475134E-02	5.851786E-04
7.061753E+03	2.469877E-02	5.845640E-04
7.071713E+03	2.465531E-02	5.841018E-04
7.081673E+03	2.462053E-02	5.837827E-04
7.091633E+03	2.459401E-02	5.835976E-04
7.101594E+03	2.457502E-02	5.835299E-04
7.111554E+03	2.456313E-02	5.835707E-04
7.121514E+03	2.455828E-02	5.837186E-04
7.131474E+03	2.455941E-02	5.839496E-04
7.141434E+03	2.456679E-02	5.842701E-04
7.151394E+03	2.457906E-02	5.846485E-04
7.161355E+03	2.459681E-02	5.850993E-04
7.171315E+03	2.461869E-02	5.855906E-04
7.181275E+03	2.464468E-02	5.861219E-04
7.191235E+03	2.467407E-02	5.866772E-04
7.201195E+03	2.470685E-02	5.872562E-04
7.211155E+03	2.474235E-02	5.878432E-04
7.221116E+03	2.477959E-02	5.884154E-04
7.231076E+03	2.481891E-02	5.889808E-04
7.241036E+03	2.485967E-02	5.895251E-04
7.250996E+03	2.490127E-02	5.900339E-04
7.260956E+03	2.494311E-02	5.904936E-04
7.270916E+03	2.498528E-02	5.909067E-04
7.280876E+03	2.502723E-02	5.912608E-04
7.290837E+03	2.506844E-02	5.915438E-04
7.300797E+03	2.510841E-02	5.917448E-04
7.310757E+03	2.514733E-02	5.918691E-04
7.320717E+03	2.518444E-02	5.918993E-04
7.330677E+03	2.521934E-02	5.918269E-04
7.340637E+03	2.525232E-02	5.916595E-04
7.350598E+03	2.528304E-02	5.913903E-04
7.360558E+03	2.531086E-02	5.910053E-04
7.370518E+03	2.533619E-02	5.905150E-04
7.380478E+03	2.535843E-02	5.899068E-04
7.390438E+03	2.537805E-02	5.891927E-04
7.400398E+03	2.539416E-02	5.883536E-04
7.410359E+03	2.540796E-02	5.874183E-04
7.420319E+03	2.541893E-02	5.863761E-04
7.430279E+03	2.542725E-02	5.852327E-04
7.440239E+03	2.543408E-02	5.840163E-04
7.450199E+03	2.543888E-02	5.827152E-04
7.460159E+03	2.544276E-02	5.813565E-04
7.470120E+03	2.544509E-02	5.799265E-04
7.480080E+03	2.544688E-02	5.784482E-04
7.490040E+03	2.544773E-02	5.769109E-04
7.500000E+03	2.544821E-02	5.753263E-04
7.509960E+03	2.544779E-02	5.736813E-04
7.519920E+03	2.544658E-02	5.719771E-04
7.529880E+03	2.544498E-02	5.702215E-04
7.539841E+03	2.544193E-02	5.683896E-04
7.549801E+03	2.543771E-02	5.664867E-04
7.559761E+03	2.543223E-02	5.645095E-04
7.569721E+03	2.542427E-02	5.624301E-04
7.579681E+03	2.541436E-02	5.602596E-04
7.589641E+03	2.540124E-02	5.579694E-04
7.599602E+03	2.538502E-02	5.555619E-04
7.609562E+03	2.536516E-02	5.530244E-04
7.619522E+03	2.534070E-02	5.503365E-04
7.629482E+03	2.531145E-02	5.474938E-04
7.639442E+03	2.527686E-02	5.444849E-04
7.649402E+03	2.523640E-02	5.412991E-04
7.659363E+03	2.518992E-02	5.379340E-04
7.669323E+03	2.513659E-02	5.343730E-04
7.679283E+03	2.507596E-02	5.306079E-04
7.689243E+03	2.500797E-02	5.266393E-04
7.699203E+03	2.493190E-02	5.224536E-04
7.709163E+03	2.484739E-02	5.180458E-04
7.719124E+03	2.475451E-02	5.134199E-04
7.729084E+03	2.465299E-02	5.085729E-04
