#wls	flux	fluxerr
1.593625E+03	7.164614E-03	5.178460E-04
1.633466E+03	5.976483E-03	4.275061E-04
1.673307E+03	4.980136E-03	3.525148E-04
1.713147E+03	4.147812E-03	2.905024E-04
1.752988E+03	3.457034E-03	2.395461E-04
1.792829E+03	2.887145E-03	1.979133E-04
1.832669E+03	2.418688E-03	1.640133E-04
1.872510E+03	2.036454E-03	1.365983E-04
1.912351E+03	1.725249E-03	1.144670E-04
1.952191E+03	1.473637E-03	9.670996E-05
1.992032E+03	1.271418E-03	8.253231E-05
2.031873E+03	1.110691E-03	7.131746E-05
2.071713E+03	9.845401E-04	6.253516E-05
2.111554E+03	8.880497E-04	5.580181E-05
2.151394E+03	8.178883E-04	5.084728E-05
2.191235E+03	7.712041E-04	4.744159E-05
2.231076E+03	7.467794E-04	4.546337E-05
2.270916E+03	7.435715E-04	4.480621E-05
2.310757E+03	7.612735E-04	4.541142E-05
2.350598E+03	8.002396E-04	4.726109E-05
2.390438E+03	8.611481E-04	5.035678E-05
2.430279E+03	9.457424E-04	5.476114E-05
2.470120E+03	1.055340E-03	6.050902E-05
2.509960E+03	1.191926E-03	6.767044E-05
2.549801E+03	1.356369E-03	7.624786E-05
2.589641E+03	1.549159E-03	8.622027E-05
2.629482E+03	1.769692E-03	9.750388E-05
2.669323E+03	2.015709E-03	1.099246E-04
2.709163E+03	2.284831E-03	1.233048E-04
2.749004E+03	2.573238E-03	1.373931E-04
2.788845E+03	2.877127E-03	1.519453E-04
2.828685E+03	3.191765E-03	1.666753E-04
2.868526E+03	3.512446E-03	1.813072E-04
2.908367E+03	3.834877E-03	1.955955E-04
2.948207E+03	4.156500E-03	2.093915E-04
2.988048E+03	4.476947E-03	2.226605E-04
2.998008E+03	4.556654E-03	2.258825E-04
3.007968E+03	4.635980E-03	2.290551E-04
3.017928E+03	4.715457E-03	2.322045E-04
3.027888E+03	4.795105E-03	2.353313E-04
3.037849E+03	4.874942E-03	2.384358E-04
3.047809E+03	4.954441E-03	2.414921E-04
3.057769E+03	5.034172E-03	2.445276E-04
3.067729E+03	5.113603E-03	2.475162E-04
3.077689E+03	5.193886E-03	2.505134E-04
3.087649E+03	5.273923E-03	2.534655E-04
3.097610E+03	5.354891E-03	2.564287E-04
3.107570E+03	5.435681E-03	2.593494E-04
3.117530E+03	5.517488E-03	2.622841E-04
3.127490E+03	5.599186E-03	2.651785E-04
3.137450E+03	5.681993E-03	2.680900E-04
3.147410E+03	5.765958E-03	2.710199E-04
3.157371E+03	5.849932E-03	2.739134E-04
3.167331E+03	5.935152E-03	2.768279E-04
3.177291E+03	6.021673E-03	2.797649E-04
3.187251E+03	6.108927E-03	2.826971E-04
3.197211E+03	6.197567E-03	2.856538E-04
3.207171E+03	6.287639E-03	2.886361E-04
3.217131E+03	6.379185E-03	2.916446E-04
3.227092E+03	6.472240E-03	2.946798E-04
3.237052E+03	6.567477E-03	2.977709E-04
3.247012E+03	6.663652E-03	3.008602E-04
3.256972E+03	6.762069E-03	3.040054E-04
3.266932E+03	6.862759E-03	3.072060E-04
3.276892E+03	6.965747E-03	3.104617E-04
3.286853E+03	7.071051E-03	3.137713E-04
3.296813E+03	7.178012E-03	3.171040E-04
3.306773E+03	7.287961E-03	3.205170E-04
3.316733E+03	7.400903E-03	3.240082E-04
3.326693E+03	7.516162E-03	3.275460E-04
3.336653E+03	7.634393E-03	3.311569E-04
3.346614E+03	7.756260E-03	3.348673E-04
3.356574E+03	7.880372E-03	3.386149E-04
3.366534E+03	8.008063E-03	3.424547E-04
3.376494E+03	8.139299E-03	3.463827E-04
3.386454E+03	8.274033E-03	3.503942E-04
3.396414E+03	8.412216E-03	3.544844E-04
3.406375E+03	8.554489E-03	3.586776E-04
3.416335E+03	8.700089E-03	3.629389E-04
3.426295E+03	8.850360E-03	3.673213E-04
3.436255E+03	9.004531E-03	3.717895E-04
3.446215E+03	9.162522E-03	3.763373E-04
3.456175E+03	9.324967E-03	3.809875E-04
3.466135E+03	9.491807E-03	3.857343E-04
3.476096E+03	9.663810E-03	3.906052E-04
3.486056E+03	9.840327E-03	3.955702E-04
3.496016E+03	1.002216E-02	4.006581E-04
3.505976E+03	1.020941E-02	4.058684E-04
3.515936E+03	1.040291E-02	4.112298E-04
3.525896E+03	1.060202E-02	4.167128E-04
3.535857E+03	1.080760E-02	4.223461E-04
3.545817E+03	1.101902E-02	4.281006E-04
3.555777E+03	1.123787E-02	4.340334E-04
3.565737E+03	1.146356E-02	4.401153E-04
3.575697E+03	1.169695E-02	4.463743E-04
3.585657E+03	1.193742E-02	4.527808E-04
3.595618E+03	1.218511E-02	4.593343E-04
3.605578E+03	1.244163E-02	4.660895E-04
3.615538E+03	1.270561E-02	4.729884E-04
3.625498E+03	1.297790E-02	4.800567E-04
3.635458E+03	1.325785E-02	4.872640E-04
3.645418E+03	1.354707E-02	4.946624E-04
3.655378E+03	1.384487E-02	5.022200E-04
3.665339E+03	1.415131E-02	5.099320E-04
3.675299E+03	1.446567E-02	5.177656E-04
3.685259E+03	1.478948E-02	5.257688E-04
3.695219E+03	1.512120E-02	5.338799E-04
3.705179E+03	1.546231E-02	5.421442E-04
3.715139E+03	1.581121E-02	5.504985E-04
3.725100E+03	1.616854E-02	5.589587E-04
3.735060E+03	1.653416E-02	5.675131E-04
3.745020E+03	1.690710E-02	5.761221E-04
3.754980E+03	1.728790E-02	5.847978E-04
3.764940E+03	1.767551E-02	5.934985E-04
3.774900E+03	1.807036E-02	6.022337E-04
3.784861E+03	1.847133E-02	6.109599E-04
3.794821E+03	1.887800E-02	6.196586E-04
3.804781E+03	1.929069E-02	6.283358E-04
3.814741E+03	1.970735E-02	6.369205E-04
3.824701E+03	2.012745E-02	6.453925E-04
3.834661E+03	2.055122E-02	6.537564E-04
3.844622E+03	2.097727E-02	6.619662E-04
3.854582E+03	2.140580E-02	6.700260E-04
3.864542E+03	2.183463E-02	6.778666E-04
3.874502E+03	2.226392E-02	6.854932E-04
3.884462E+03	2.269306E-02	6.928873E-04
3.894422E+03	2.311988E-02	6.999843E-04
3.904382E+03	2.354539E-02	7.068163E-04
3.914343E+03	2.396824E-02	7.133457E-04
3.924303E+03	2.438717E-02	7.195379E-04
3.934263E+03	2.480171E-02	7.253838E-04
3.944223E+03	2.521146E-02	7.308762E-04
3.954183E+03	2.561609E-02	7.360107E-04
3.964143E+03	2.601454E-02	7.407627E-04
3.974104E+03	2.640736E-02	7.451545E-04
3.984064E+03	2.679288E-02	7.491454E-04
3.994024E+03	2.717179E-02	7.527623E-04
4.003984E+03	2.754331E-02	7.559911E-04
4.013944E+03	2.790751E-02	7.588416E-04
4.023904E+03	2.826448E-02	7.613247E-04
4.033865E+03	2.861363E-02	7.634330E-04
4.043825E+03	2.895520E-02	7.651813E-04
4.053785E+03	2.928941E-02	7.665847E-04
4.063745E+03	2.961582E-02	7.676401E-04
4.073705E+03	2.993544E-02	7.683834E-04
4.083665E+03	3.024790E-02	7.688135E-04
4.093625E+03	3.055274E-02	7.689281E-04
4.103586E+03	3.085104E-02	7.687640E-04
4.113546E+03	3.114236E-02	7.683189E-04
4.123506E+03	3.142702E-02	7.676107E-04
4.133466E+03	3.170457E-02	7.666377E-04
4.143426E+03	3.197598E-02	7.654332E-04
4.153386E+03	3.224074E-02	7.639944E-04
4.163347E+03	3.249905E-02	7.623357E-04
4.173307E+03	3.275109E-02	7.604712E-04
4.183267E+03	3.299695E-02	7.584134E-04
4.193227E+03	3.323604E-02	7.561583E-04
4.203187E+03	3.346917E-02	7.537349E-04
4.213147E+03	3.369567E-02	7.511384E-04
4.223108E+03	3.391555E-02	7.483799E-04
4.233068E+03	3.412893E-02	7.454723E-04
4.243028E+03	3.433644E-02	7.424407E-04
4.252988E+03	3.453687E-02	7.392691E-04
4.262948E+03	3.473087E-02	7.359828E-04
4.272908E+03	3.491856E-02	7.325956E-04
4.282869E+03	3.510010E-02	7.291216E-04
4.292829E+03	3.527507E-02	7.255629E-04
4.302789E+03	3.544494E-02	7.219607E-04
4.312749E+03	3.560882E-02	7.183074E-04
4.322709E+03	3.576776E-02	7.146349E-04
4.332669E+03	3.592225E-02	7.109629E-04
4.342629E+03	3.607231E-02	7.073015E-04
4.352590E+03	3.621919E-02	7.036851E-04
4.362550E+03	3.636351E-02	7.001345E-04
4.372510E+03	3.650495E-02	6.966523E-04
4.382470E+03	3.664330E-02	6.932435E-04
4.392430E+03	3.677832E-02	6.899117E-04
4.402390E+03	3.690925E-02	6.866507E-04
4.412351E+03	3.703656E-02	6.834772E-04
4.422311E+03	3.715958E-02	6.803850E-04
4.432271E+03	3.727827E-02	6.773737E-04
4.442231E+03	3.739209E-02	6.744309E-04
4.452191E+03	3.750159E-02	6.715634E-04
4.462151E+03	3.760616E-02	6.687571E-04
4.472112E+03	3.770575E-02	6.660074E-04
4.482072E+03	3.780141E-02	6.633288E-04
4.492032E+03	3.789185E-02	6.606944E-04
4.501992E+03	3.797692E-02	6.580969E-04
4.511952E+03	3.805701E-02	6.555386E-04
4.521912E+03	3.813135E-02	6.530014E-04
4.531873E+03	3.819971E-02	6.504764E-04
4.541833E+03	3.826191E-02	6.479557E-04
4.551793E+03	3.831774E-02	6.454303E-04
4.561753E+03	3.836650E-02	6.428836E-04
4.571713E+03	3.840809E-02	6.403088E-04
4.581673E+03	3.844243E-02	6.376995E-04
4.591633E+03	3.846952E-02	6.350504E-04
4.601594E+03	3.848841E-02	6.323410E-04
4.611554E+03	3.850023E-02	6.295847E-04
4.621514E+03	3.850477E-02	6.267731E-04
4.631474E+03	3.850175E-02	6.238965E-04
4.641434E+03	3.849214E-02	6.209659E-04
4.651394E+03	3.847535E-02	6.179670E-04
4.661355E+03	3.845300E-02	6.149210E-04
4.671315E+03	3.842465E-02	6.118160E-04
4.681275E+03	3.839105E-02	6.086597E-04
4.691235E+03	3.835334E-02	6.054654E-04
4.701195E+03	3.831186E-02	6.022342E-04
4.711155E+03	3.826785E-02	5.989813E-04
4.721116E+03	3.822119E-02	5.957005E-04
4.731076E+03	3.817369E-02	5.924159E-04
4.741036E+03	3.812610E-02	5.891351E-04
4.750996E+03	3.807870E-02	5.858584E-04
4.760956E+03	3.803311E-02	5.826068E-04
4.770916E+03	3.798953E-02	5.793799E-04
4.780876E+03	3.794819E-02	5.761773E-04
4.790837E+03	3.791070E-02	5.730202E-04
4.800797E+03	3.787639E-02	5.698950E-04
4.810757E+03	3.784675E-02	5.668209E-04
4.820717E+03	3.782200E-02	5.637979E-04
4.830677E+03	3.780263E-02	5.608286E-04
4.840637E+03	3.778880E-02	5.579101E-04
4.850598E+03	3.778193E-02	5.550579E-04
4.860558E+03	3.778173E-02	5.522626E-04
4.870518E+03	3.778931E-02	5.495357E-04
4.880478E+03	3.780576E-02	5.468875E-04
4.890438E+03	3.783138E-02	5.443177E-04
4.900398E+03	3.786741E-02	5.418391E-04
4.910359E+03	3.791421E-02	5.394518E-04
4.920319E+03	3.797307E-02	5.371694E-04
4.930279E+03	3.804536E-02	5.350060E-04
4.940239E+03	3.813160E-02	5.329642E-04
4.950199E+03	3.823279E-02	5.310525E-04
4.960159E+03	3.835041E-02	5.292865E-04
4.970120E+03	3.848588E-02	5.276804E-04
4.980080E+03	3.863945E-02	5.262321E-04
4.990040E+03	3.881257E-02	5.249558E-04
5.000000E+03	3.900717E-02	5.238722E-04
5.009960E+03	3.922295E-02	5.229713E-04
5.019920E+03	3.946220E-02	5.222780E-04
5.029880E+03	3.972541E-02	5.217929E-04
5.039841E+03	4.001348E-02	5.215218E-04
5.049801E+03	4.032712E-02	5.214685E-04
5.059761E+03	4.066754E-02	5.216427E-04
5.069721E+03	4.103477E-02	5.220396E-04
5.079681E+03	4.142976E-02	5.226660E-04
5.089641E+03	4.185283E-02	5.235216E-04
5.099602E+03	4.230411E-02	5.246033E-04
5.109562E+03	4.278360E-02	5.259080E-04
5.119522E+03	4.329158E-02	5.274363E-04
5.129482E+03	4.382727E-02	5.291769E-04
5.139442E+03	4.439009E-02	5.311223E-04
5.149402E+03	4.497979E-02	5.332703E-04
5.159363E+03	4.559489E-02	5.356057E-04
5.169323E+03	4.623477E-02	5.381252E-04
5.179283E+03	4.689804E-02	5.408183E-04
5.189243E+03	4.758260E-02	5.436689E-04
5.199203E+03	4.828762E-02	5.466776E-04
5.209163E+03	4.901007E-02	5.498227E-04
5.219124E+03	4.974860E-02	5.531043E-04
5.229084E+03	5.049968E-02	5.565009E-04
5.239044E+03	5.126098E-02	5.600078E-04
5.249004E+03	5.202993E-02	5.636203E-04
5.258964E+03	5.280195E-02	5.673155E-04
5.268924E+03	5.357441E-02	5.710946E-04
5.278884E+03	5.434253E-02	5.749390E-04
5.288845E+03	5.510171E-02	5.788350E-04
5.298805E+03	5.584693E-02	5.827677E-04
5.308765E+03	5.657307E-02	5.867235E-04
5.318725E+03	5.727293E-02	5.906693E-04
5.328685E+03	5.794085E-02	5.945900E-04
5.338645E+03	5.856890E-02	5.984480E-04
5.348606E+03	5.914965E-02	6.022112E-04
5.358566E+03	5.967510E-02	6.058410E-04
5.368526E+03	6.014673E-02	6.093931E-04
5.378486E+03	6.056646E-02	6.129243E-04
5.388446E+03	6.093478E-02	6.164723E-04
5.398406E+03	6.125444E-02	6.200772E-04
5.408367E+03	6.152690E-02	6.237459E-04
5.418327E+03	6.175219E-02	6.274655E-04
5.428287E+03	6.193426E-02	6.312592E-04
5.438247E+03	6.207397E-02	6.351146E-04
5.448207E+03	6.217323E-02	6.390240E-04
5.458167E+03	6.223450E-02	6.429827E-04
5.468127E+03	6.225956E-02	6.469767E-04
5.478088E+03	6.224961E-02	6.509850E-04
5.488048E+03	6.220695E-02	6.549971E-04
5.498008E+03	6.213289E-02	6.589915E-04
5.507968E+03	6.203052E-02	6.629657E-04
5.517928E+03	6.190121E-02	6.668994E-04
5.527888E+03	6.174644E-02	6.707743E-04
5.537849E+03	6.156954E-02	6.745929E-04
5.547809E+03	6.137218E-02	6.783416E-04
5.557769E+03	6.115663E-02	6.820144E-04
5.567729E+03	6.092522E-02	6.856083E-04
5.577689E+03	6.068090E-02	6.891292E-04
5.587649E+03	6.042543E-02	6.925714E-04
5.597610E+03	6.016170E-02	6.959449E-04
5.607570E+03	5.989130E-02	6.992465E-04
5.617530E+03	5.961704E-02	7.024893E-04
5.627490E+03	5.934030E-02	7.056721E-04
5.637450E+03	5.906356E-02	7.088090E-04
5.647410E+03	5.878792E-02	7.118990E-04
5.657371E+03	5.851543E-02	7.149551E-04
5.667331E+03	5.824687E-02	7.179761E-04
5.677291E+03	5.798390E-02	7.209734E-04
5.687251E+03	5.772678E-02	7.239428E-04
5.697211E+03	5.747673E-02	7.268929E-04
5.707171E+03	5.723413E-02	7.298232E-04
5.717131E+03	5.699861E-02	7.327248E-04
5.727092E+03	5.677014E-02	7.355935E-04
5.737052E+03	5.654906E-02	7.384306E-04
5.747012E+03	5.633441E-02	7.412218E-04
5.756972E+03	5.612613E-02	7.439642E-04
5.766932E+03	5.592295E-02	7.466399E-04
5.776892E+03	5.572458E-02	7.492441E-04
5.786853E+03	5.552952E-02	7.517563E-04
5.796813E+03	5.533684E-02	7.541634E-04
5.806773E+03	5.514545E-02	7.564505E-04
5.816733E+03	5.495433E-02	7.586041E-04
5.826693E+03	5.476305E-02	7.606187E-04
5.836653E+03	5.456955E-02	7.624664E-04
5.846614E+03	5.437353E-02	7.641441E-04
5.856574E+03	5.417470E-02	7.656491E-04
5.866534E+03	5.397144E-02	7.669601E-04
5.876494E+03	5.376322E-02	7.680716E-04
5.886454E+03	5.355071E-02	7.689953E-04
5.896414E+03	5.333230E-02	7.697108E-04
5.906375E+03	5.310896E-02	7.702353E-04
5.916335E+03	5.288093E-02	7.705754E-04
5.926295E+03	5.264753E-02	7.707256E-04
5.936255E+03	5.240987E-02	7.707058E-04
5.946215E+03	5.216862E-02	7.705312E-04
5.956175E+03	5.192420E-02	7.702128E-04
5.966135E+03	5.167804E-02	7.697776E-04
5.976096E+03	5.143079E-02	7.692413E-04
5.986056E+03	5.118363E-02	7.686281E-04
5.996016E+03	5.093788E-02	7.679646E-04
6.005976E+03	5.069435E-02	7.672706E-04
6.015936E+03	5.045486E-02	7.665808E-04
6.025896E+03	5.021981E-02	7.659097E-04
6.035857E+03	4.999055E-02	7.652860E-04
6.045817E+03	4.976884E-02	7.647454E-04
6.055777E+03	4.955495E-02	7.643008E-04
6.065737E+03	4.935009E-02	7.639800E-04
6.075697E+03	4.915474E-02	7.638000E-04
6.085657E+03	4.897042E-02	7.637937E-04
6.095618E+03	4.879650E-02	7.639613E-04
6.105578E+03	4.863366E-02	7.643234E-04
6.115538E+03	4.848156E-02	7.648843E-04
6.125498E+03	4.834055E-02	7.656594E-04
6.135458E+03	4.820955E-02	7.666419E-04
6.145418E+03	4.808811E-02	7.678326E-04
6.155378E+03	4.797422E-02	7.692059E-04
6.165339E+03	4.786746E-02	7.707619E-04
6.175299E+03	4.776735E-02	7.724991E-04
6.185259E+03	4.767455E-02	7.744348E-04
6.195219E+03	4.758872E-02	7.765698E-04
6.205179E+03	4.751024E-02	7.789171E-04
6.215139E+03	4.743804E-02	7.814656E-04
6.225100E+03	4.737254E-02	7.842286E-04
6.235060E+03	4.731249E-02	7.871919E-04
6.245020E+03	4.725784E-02	7.903609E-04
6.254980E+03	4.720760E-02	7.937249E-04
6.264940E+03	4.716157E-02	7.972865E-04
6.274900E+03	4.711860E-02	8.010316E-04
6.284861E+03	4.707737E-02	8.049412E-04
6.294821E+03	4.703655E-02	8.089880E-04
6.304781E+03	4.699621E-02	8.131662E-04
6.314741E+03	4.695361E-02	8.174211E-04
6.324701E+03	4.690855E-02	8.217414E-04
6.334661E+03	4.685946E-02	8.260914E-04
6.344622E+03	4.680406E-02	8.304220E-04
6.354582E+03	4.674134E-02	8.347057E-04
6.364542E+03	4.666866E-02	8.388854E-04
6.374502E+03	4.658421E-02	8.429172E-04
6.384462E+03	4.648537E-02	8.467421E-04
6.394422E+03	4.637033E-02	8.503142E-04
6.404382E+03	4.623504E-02	8.535459E-04
6.414343E+03	4.607761E-02	8.563873E-04
6.424303E+03	4.589448E-02	8.587564E-04
6.434263E+03	4.568186E-02	8.605649E-04
6.444223E+03	4.543886E-02	8.617784E-04
6.454183E+03	4.516891E-02	8.624438E-04
6.464143E+03	4.487457E-02	8.625936E-04
6.474104E+03	4.455810E-02	8.622557E-04
6.484064E+03	4.422055E-02	8.614364E-04
6.494024E+03	4.386410E-02	8.601643E-04
6.503984E+03	4.348977E-02	8.584468E-04
6.513944E+03	4.309841E-02	8.562889E-04
6.523904E+03	4.269168E-02	8.537123E-04
6.533865E+03	4.227019E-02	8.507189E-04
6.543825E+03	4.183493E-02	8.473190E-04
6.553785E+03	4.138739E-02	8.435337E-04
6.563745E+03	4.092802E-02	8.393642E-04
6.573705E+03	4.045829E-02	8.348329E-04
6.583665E+03	3.997912E-02	8.299526E-04
6.593625E+03	3.949160E-02	8.247400E-04
6.603586E+03	3.899676E-02	8.192110E-04
6.613546E+03	3.849574E-02	8.133857E-04
6.623506E+03	3.799052E-02	8.073020E-04
6.633466E+03	3.748143E-02	8.009645E-04
6.643426E+03	3.697010E-02	7.944056E-04
6.653386E+03	3.645819E-02	7.876599E-04
6.663347E+03	3.594650E-02	7.807443E-04
6.673307E+03	3.543627E-02	7.736855E-04
6.683267E+03	3.492912E-02	7.665195E-04
6.693227E+03	3.442618E-02	7.592730E-04
6.703187E+03	3.392902E-02	7.519823E-04
6.713147E+03	3.343795E-02	7.446572E-04
6.723108E+03	3.295480E-02	7.373410E-04
6.733068E+03	3.248006E-02	7.300484E-04
6.743028E+03	3.201509E-02	7.228139E-04
6.752988E+03	3.156065E-02	7.156589E-04
6.762948E+03	3.111750E-02	7.086050E-04
6.772908E+03	3.068625E-02	7.016708E-04
6.782869E+03	3.026747E-02	6.948746E-04
6.792829E+03	2.986164E-02	6.882321E-04
6.802789E+03	2.946952E-02	6.817660E-04
6.812749E+03	2.909069E-02	6.754720E-04
6.822709E+03	2.872647E-02	6.693857E-04
6.832669E+03	2.837631E-02	6.634996E-04
6.842629E+03	2.804065E-02	6.578291E-04
6.852590E+03	2.771919E-02	6.523721E-04
6.862550E+03	2.741224E-02	6.471410E-04
6.872510E+03	2.711973E-02	6.421387E-04
6.882470E+03	2.684154E-02	6.373669E-04
6.892430E+03	2.657749E-02	6.328260E-04
6.902390E+03	2.632705E-02	6.285079E-04
6.912351E+03	2.609066E-02	6.244264E-04
6.922311E+03	2.586739E-02	6.205640E-04
6.932271E+03	2.565728E-02	6.169250E-04
6.942231E+03	2.546035E-02	6.135134E-04
6.952191E+03	2.527565E-02	6.103096E-04
6.962151E+03	2.510285E-02	6.073086E-04
6.972112E+03	2.494223E-02	6.045203E-04
6.982072E+03	2.479281E-02	6.019239E-04
6.992032E+03	2.465458E-02	5.995211E-04
7.001992E+03	2.452715E-02	5.973053E-04
7.011952E+03	2.440989E-02	5.952629E-04
7.021912E+03	2.430272E-02	5.933944E-04
7.031873E+03	2.420500E-02	5.916860E-04
7.041833E+03	2.411669E-02	5.901380E-04
7.051793E+03	2.403682E-02	5.887286E-04
7.061753E+03	2.396565E-02	5.874658E-04
7.071713E+03	2.390256E-02	5.863352E-04
7.081673E+03	2.384689E-02	5.853224E-04
7.091633E+03	2.379863E-02	5.844277E-04
7.101594E+03	2.375744E-02	5.836443E-04
7.111554E+03	2.372271E-02	5.829578E-04
7.121514E+03	2.369383E-02	5.823540E-04
7.131474E+03	2.367109E-02	5.818410E-04
7.141434E+03	2.365359E-02	5.813973E-04
7.151394E+03	2.364134E-02	5.810238E-04
7.161355E+03	2.363375E-02	5.807067E-04
7.171315E+03	2.363024E-02	5.804323E-04
7.181275E+03	2.363084E-02	5.802021E-04
7.191235E+03	2.363530E-02	5.800102E-04
7.201195E+03	2.364275E-02	5.798361E-04
7.211155E+03	2.365327E-02	5.796820E-04
7.221116E+03	2.366601E-02	5.795279E-04
7.231076E+03	2.368136E-02	5.793839E-04
7.241036E+03	2.369853E-02	5.792309E-04
7.250996E+03	2.371730E-02	5.790648E-04
7.260956E+03	2.373722E-02	5.788746E-04
7.270916E+03	2.375812E-02	5.786571E-04
7.280876E+03	2.377954E-02	5.784022E-04
7.290837E+03	2.380167E-02	5.781149E-04
7.300797E+03	2.382350E-02	5.777713E-04
7.310757E+03	2.384552E-02	5.773849E-04
7.320717E+03	2.386676E-02	5.769326E-04
7.330677E+03	2.388747E-02	5.764214E-04
7.340637E+03	2.390698E-02	5.758367E-04
7.350598E+03	2.392558E-02	5.751863E-04
7.360558E+03	2.394264E-02	5.744563E-04
7.370518E+03	2.395847E-02	5.736553E-04
7.380478E+03	2.397216E-02	5.727629E-04
7.390438E+03	2.398402E-02	5.717880E-04
7.400398E+03	2.399377E-02	5.707252E-04
7.410359E+03	2.400174E-02	5.695836E-04
7.420319E+03	2.400731E-02	5.683505E-04
7.430279E+03	2.401112E-02	5.670420E-04
7.440239E+03	2.401343E-02	5.656663E-04
7.450199E+03	2.401389E-02	5.642159E-04
7.460159E+03	2.401270E-02	5.626977E-04
7.470120E+03	2.401038E-02	5.611247E-04
7.480080E+03	2.400613E-02	5.594774E-04
7.490040E+03	2.400065E-02	5.577712E-04
7.500000E+03	2.399372E-02	5.559989E-04
7.509960E+03	2.398506E-02	5.541526E-04
7.519920E+03	2.397478E-02	5.522336E-04
7.529880E+03	2.396272E-02	5.502367E-04
7.539841E+03	2.394868E-02	5.481555E-04
7.549801E+03	2.393304E-02	5.459976E-04
7.559761E+03	2.391521E-02	5.437484E-04
7.569721E+03	2.389490E-02	5.413996E-04
7.579681E+03	2.387240E-02	5.389571E-04
7.589641E+03	2.384706E-02	5.364049E-04
7.599602E+03	2.381885E-02	5.337413E-04
7.609562E+03	2.378737E-02	5.309570E-04
7.619522E+03	2.375228E-02	5.280432E-04
7.629482E+03	2.371318E-02	5.249911E-04
7.639442E+03	2.366972E-02	5.217922E-04
7.649402E+03	2.362217E-02	5.184527E-04
7.659363E+03	2.356923E-02	5.149438E-04
7.669323E+03	2.351152E-02	5.112797E-04
7.679283E+03	2.344809E-02	5.074403E-04
7.689243E+03	2.337897E-02	5.034270E-04
7.699203E+03	2.330391E-02	4.992350E-04
7.709163E+03	2.322233E-02	4.948540E-04
7.719124E+03	2.313470E-02	4.902947E-04
7.729084E+03	2.304017E-02	4.855413E-04
