#wls	flux	fluxerr
1.593625E+03	2.532146E-04	2.886951E-05
1.633466E+03	2.473295E-04	2.804594E-05
1.673307E+03	2.421256E-04	2.730589E-05
1.713147E+03	2.375979E-04	2.664772E-05
1.752988E+03	2.337448E-04	2.607017E-05
1.792829E+03	2.306079E-04	2.557679E-05
1.832669E+03	2.281154E-04	2.515847E-05
1.872510E+03	2.263577E-04	2.482411E-05
1.912351E+03	2.253520E-04	2.457442E-05
1.952191E+03	2.250855E-04	2.440676E-05
1.992032E+03	2.255915E-04	2.432360E-05
2.031873E+03	2.269504E-04	2.433235E-05
2.071713E+03	2.291793E-04	2.443350E-05
2.111554E+03	2.324245E-04	2.464126E-05
2.151394E+03	2.367007E-04	2.495570E-05
2.191235E+03	2.421550E-04	2.539075E-05
2.231076E+03	2.489113E-04	2.595768E-05
2.270916E+03	2.571022E-04	2.666852E-05
2.310757E+03	2.668600E-04	2.753504E-05
2.350598E+03	2.783101E-04	2.856792E-05
2.390438E+03	2.916276E-04	2.978263E-05
2.430279E+03	3.069134E-04	3.118679E-05
2.470120E+03	3.243275E-04	3.279392E-05
2.509960E+03	3.441008E-04	3.462438E-05
2.549801E+03	3.664415E-04	3.669570E-05
2.589641E+03	3.915222E-04	3.902154E-05
2.629482E+03	4.196507E-04	4.162860E-05
2.669323E+03	4.511773E-04	4.454725E-05
2.709163E+03	4.862877E-04	4.779100E-05
2.749004E+03	5.253879E-04	5.139457E-05
2.788845E+03	5.689317E-04	5.539651E-05
2.828685E+03	6.172528E-04	5.982286E-05
2.868526E+03	6.707846E-04	6.470858E-05
2.908367E+03	7.300882E-04	7.009997E-05
2.948207E+03	7.956738E-04	7.603733E-05
2.988048E+03	8.679628E-04	8.255140E-05
2.998008E+03	8.871483E-04	8.427511E-05
3.007968E+03	9.067723E-04	8.603591E-05
3.017928E+03	9.269648E-04	8.784595E-05
3.027888E+03	9.476149E-04	8.969453E-05
3.037849E+03	9.687300E-04	9.158218E-05
3.047809E+03	9.903174E-04	9.350939E-05
3.057769E+03	1.012517E-03	9.548920E-05
3.067729E+03	1.035209E-03	9.751004E-05
3.077689E+03	1.058401E-03	9.957247E-05
3.087649E+03	1.082099E-03	1.016769E-04
3.097610E+03	1.106455E-03	1.038373E-04
3.107570E+03	1.131193E-03	1.060276E-04
3.117530E+03	1.156756E-03	1.082892E-04
3.127490E+03	1.182715E-03	1.105815E-04
3.137450E+03	1.209223E-03	1.129188E-04
3.147410E+03	1.236444E-03	1.153161E-04
3.157371E+03	1.264235E-03	1.177597E-04
3.167331E+03	1.292764E-03	1.202652E-04
3.177291E+03	1.321716E-03	1.228029E-04
3.187251E+03	1.351428E-03	1.254038E-04
3.197211E+03	1.381742E-03	1.280533E-04
3.207171E+03	1.412840E-03	1.307677E-04
3.217131E+03	1.444382E-03	1.335154E-04
3.227092E+03	1.476728E-03	1.363294E-04
3.237052E+03	1.509709E-03	1.391938E-04
3.247012E+03	1.543519E-03	1.421262E-04
3.256972E+03	1.577791E-03	1.450924E-04
3.266932E+03	1.612910E-03	1.481278E-04
3.276892E+03	1.648893E-03	1.512335E-04
3.286853E+03	1.685349E-03	1.543733E-04
3.296813E+03	1.722687E-03	1.575844E-04
3.306773E+03	1.760711E-03	1.608486E-04
3.316733E+03	1.799426E-03	1.641660E-04
3.326693E+03	1.838835E-03	1.675367E-04
3.336653E+03	1.879165E-03	1.709809E-04
3.346614E+03	1.920205E-03	1.744791E-04
3.356574E+03	1.962188E-03	1.780521E-04
3.366534E+03	2.004660E-03	1.816586E-04
3.376494E+03	2.048088E-03	1.853405E-04
3.386454E+03	2.092245E-03	1.890767E-04
3.396414E+03	2.137131E-03	1.928672E-04
3.406375E+03	2.183000E-03	1.967344E-04
3.416335E+03	2.229609E-03	2.006561E-04
3.426295E+03	2.276959E-03	2.046320E-04
3.436255E+03	2.325050E-03	2.086618E-04
3.446215E+03	2.374151E-03	2.127693E-04
3.456175E+03	2.424001E-03	2.169308E-04
3.466135E+03	2.474598E-03	2.211458E-04
3.476096E+03	2.525941E-03	2.254138E-04
3.486056E+03	2.578316E-03	2.297599E-04
3.496016E+03	2.631442E-03	2.341588E-04
3.505976E+03	2.685317E-03	2.386100E-04
3.515936E+03	2.740237E-03	2.431395E-04
3.525896E+03	2.795603E-03	2.476936E-04
3.535857E+03	2.852016E-03	2.523255E-04
3.545817E+03	2.909487E-03	2.570357E-04
3.555777E+03	2.967382E-03	2.617676E-04
3.565737E+03	3.026334E-03	2.665770E-04
3.575697E+03	3.086021E-03	2.714351E-04
3.585657E+03	3.146432E-03	2.763407E-04
3.595618E+03	3.207564E-03	2.812931E-04
3.605578E+03	3.269753E-03	2.863214E-04
3.615538E+03	3.332652E-03	2.913949E-04
3.625498E+03	3.396257E-03	2.965129E-04
3.635458E+03	3.460550E-03	3.016736E-04
3.645418E+03	3.525893E-03	3.069082E-04
3.655378E+03	3.591914E-03	3.121838E-04
3.665339E+03	3.658605E-03	3.174996E-04
3.675299E+03	3.725947E-03	3.228535E-04
3.685259E+03	3.793931E-03	3.282447E-04
3.695219E+03	3.862931E-03	3.337051E-04
3.705179E+03	3.932552E-03	3.392003E-04
3.715139E+03	4.002780E-03	3.447287E-04
3.725100E+03	4.073591E-03	3.502880E-04
3.735060E+03	4.145387E-03	3.559128E-04
3.745020E+03	4.217745E-03	3.615660E-04
3.754980E+03	4.290643E-03	3.672459E-04
3.764940E+03	4.364061E-03	3.729504E-04
3.774900E+03	4.437978E-03	3.786777E-04
3.784861E+03	4.512813E-03	3.844631E-04
3.794821E+03	4.587664E-03	3.902298E-04
3.804781E+03	4.663399E-03	3.960513E-04
3.814741E+03	4.739545E-03	4.018874E-04
3.824701E+03	4.816083E-03	4.077362E-04
3.834661E+03	4.893452E-03	4.136348E-04
3.844622E+03	4.970691E-03	4.195019E-04
3.854582E+03	5.048715E-03	4.254146E-04
3.864542E+03	5.127027E-03	4.313310E-04
3.874502E+03	5.205593E-03	4.372481E-04
3.884462E+03	5.284381E-03	4.431633E-04
3.894422E+03	5.363363E-03	4.490742E-04
3.904382E+03	5.443013E-03	4.550205E-04
3.914343E+03	5.522279E-03	4.609144E-04
3.924303E+03	5.602156E-03	4.668388E-04
3.934263E+03	5.682093E-03	4.727479E-04
3.944223E+03	5.762058E-03	4.786392E-04
3.954183E+03	5.842011E-03	4.845095E-04
3.964143E+03	5.921912E-03	4.903557E-04
3.974104E+03	6.001721E-03	4.961746E-04
3.984064E+03	6.081948E-03	5.020086E-04
3.994024E+03	6.161458E-03	5.077642E-04
4.003984E+03	6.241313E-03	5.135293E-04
4.013944E+03	6.320359E-03	5.192090E-04
4.023904E+03	6.399669E-03	5.248921E-04
4.033865E+03	6.478643E-03	5.305294E-04
4.043825E+03	6.556659E-03	5.360705E-04
4.053785E+03	6.634822E-03	5.416062E-04
4.063745E+03	6.712512E-03	5.470863E-04
4.073705E+03	6.789681E-03	5.525073E-04
4.083665E+03	6.866282E-03	5.578658E-04
4.093625E+03	6.942271E-03	5.631588E-04
4.103586E+03	7.017594E-03	5.683825E-04
4.113546E+03	7.092206E-03	5.735338E-04
4.123506E+03	7.166055E-03	5.786091E-04
4.133466E+03	7.239093E-03	5.836053E-04
4.143426E+03	7.311274E-03	5.885192E-04
4.153386E+03	7.382547E-03	5.933474E-04
4.163347E+03	7.452858E-03	5.980863E-04
4.173307E+03	7.522162E-03	6.027330E-04
4.183267E+03	7.590408E-03	6.072843E-04
4.193227E+03	7.657545E-03	6.117369E-04
4.203187E+03	7.723529E-03	6.160880E-04
4.213147E+03	7.788308E-03	6.203344E-04
4.223108E+03	7.851831E-03	6.244729E-04
4.233068E+03	7.914056E-03	6.285010E-04
4.243028E+03	7.974286E-03	6.323644E-04
4.252988E+03	8.033768E-03	6.361629E-04
4.262948E+03	8.091159E-03	6.397911E-04
4.272908E+03	8.147718E-03	6.433496E-04
4.282869E+03	8.202095E-03	6.467328E-04
4.292829E+03	8.254905E-03	6.499901E-04
4.302789E+03	8.306770E-03	6.531717E-04
4.312749E+03	8.356331E-03	6.561715E-04
4.322709E+03	8.403553E-03	6.589882E-04
4.332669E+03	8.449727E-03	6.617239E-04
4.342629E+03	8.494167E-03	6.643260E-04
4.352590E+03	8.536180E-03	6.667414E-04
4.362550E+03	8.577079E-03	6.690737E-04
4.372510E+03	8.615516E-03	6.712188E-04
4.382470E+03	8.652139E-03	6.732283E-04
4.392430E+03	8.686941E-03	6.751027E-04
4.402390E+03	8.719253E-03	6.767908E-04
4.412351E+03	8.750416E-03	6.783971E-04
4.422311E+03	8.779089E-03	6.798185E-04
4.432271E+03	8.805952E-03	6.811082E-04
4.442231E+03	8.831015E-03	6.822676E-04
4.452191E+03	8.854286E-03	6.832978E-04
4.462151E+03	8.875107E-03	6.841487E-04
4.472112E+03	8.894169E-03	6.848742E-04
4.482072E+03	8.912147E-03	6.855267E-04
4.492032E+03	8.927067E-03	6.859549E-04
4.501992E+03	8.940944E-03	6.863142E-04
4.511952E+03	8.952469E-03	6.865045E-04
4.521912E+03	8.962330E-03	6.865791E-04
4.531873E+03	8.970555E-03	6.865407E-04
4.541833E+03	8.977162E-03	6.863910E-04
4.551793E+03	8.981526E-03	6.860825E-04
4.561753E+03	8.984329E-03	6.856680E-04
4.571713E+03	8.985602E-03	6.851502E-04
4.581673E+03	8.985375E-03	6.845316E-04
4.591633E+03	8.983025E-03	6.837651E-04
4.601594E+03	8.979238E-03	6.829035E-04
4.611554E+03	8.973400E-03	6.819002E-04
4.621514E+03	8.966833E-03	6.808562E-04
4.631474E+03	8.958283E-03	6.796764E-04
4.641434E+03	8.947791E-03	6.783643E-04
4.651394E+03	8.936666E-03	6.770193E-04
4.661355E+03	8.923667E-03	6.755477E-04
4.671315E+03	8.909468E-03	6.740008E-04
4.681275E+03	8.893474E-03	6.723339E-04
4.691235E+03	8.876350E-03	6.705973E-04
4.701195E+03	8.858133E-03	6.687941E-04
4.711155E+03	8.838858E-03	6.669271E-04
4.721116E+03	8.817941E-03	6.649525E-04
4.731076E+03	8.796038E-03	6.629198E-04
4.741036E+03	8.772572E-03	6.607858E-04
4.750996E+03	8.748199E-03	6.585999E-04
4.760956E+03	8.722942E-03	6.563643E-04
4.770916E+03	8.696840E-03	6.540816E-04
4.780876E+03	8.669333E-03	6.517101E-04
4.790837E+03	8.640459E-03	6.492527E-04
4.800797E+03	8.611442E-03	6.468015E-04
4.810757E+03	8.581130E-03	6.442699E-04
4.820717E+03	8.549568E-03	6.416615E-04
4.830677E+03	8.517952E-03	6.390661E-04
4.840637E+03	8.485154E-03	6.363991E-04
4.850598E+03	8.451218E-03	6.336638E-04
4.860558E+03	8.416745E-03	6.309055E-04
4.870518E+03	8.381771E-03	6.281267E-04
4.880478E+03	8.345763E-03	6.252876E-04
4.890438E+03	8.309318E-03	6.224330E-04
4.900398E+03	8.272463E-03	6.195648E-04
4.910359E+03	8.234677E-03	6.166440E-04
4.920319E+03	8.196541E-03	6.137142E-04
4.930279E+03	8.158085E-03	6.107776E-04
4.940239E+03	8.118794E-03	6.077955E-04
4.950199E+03	8.079237E-03	6.048107E-04
4.960159E+03	8.038912E-03	6.017854E-04
4.970120E+03	7.998382E-03	5.987618E-04
4.980080E+03	7.957141E-03	5.957021E-04
4.990040E+03	7.916271E-03	5.926870E-04
5.000000E+03	7.874225E-03	5.896008E-04
5.009960E+03	7.832590E-03	5.865622E-04
5.019920E+03	7.790358E-03	5.834957E-04
5.029880E+03	7.747561E-03	5.804037E-04
5.039841E+03	7.705233E-03	5.773634E-04
5.049801E+03	7.661884E-03	5.742633E-04
5.059761E+03	7.619042E-03	5.712178E-04
5.069721E+03	7.575732E-03	5.681536E-04
5.079681E+03	7.532470E-03	5.651095E-04
5.089641E+03	7.488788E-03	5.620501E-04
5.099602E+03	7.445193E-03	5.590135E-04
5.109562E+03	7.401224E-03	5.559651E-04
5.119522E+03	7.357857E-03	5.529778E-04
5.129482E+03	7.313679E-03	5.499456E-04
5.139442E+03	7.270135E-03	5.469769E-04
5.149402E+03	7.226297E-03	5.440020E-04
5.159363E+03	7.182183E-03	5.410219E-04
5.169323E+03	7.138281E-03	5.380733E-04
5.179283E+03	7.094599E-03	5.351568E-04
5.189243E+03	7.051153E-03	5.322734E-04
5.199203E+03	7.007502E-03	5.293897E-04
5.209163E+03	6.964113E-03	5.265411E-04
5.219124E+03	6.920554E-03	5.236945E-04
5.229084E+03	6.877282E-03	5.208845E-04
5.239044E+03	6.833876E-03	5.180792E-04
5.249004E+03	6.791216E-03	5.153450E-04
5.258964E+03	6.748013E-03	5.125841E-04
5.268924E+03	6.705573E-03	5.098955E-04
5.278884E+03	6.663050E-03	5.072149E-04
5.288845E+03	6.620879E-03	5.045751E-04
5.298805E+03	6.578649E-03	5.019449E-04
5.308765E+03	6.536794E-03	4.993570E-04
5.318725E+03	6.495317E-03	4.968117E-04
5.328685E+03	6.453815E-03	4.942781E-04
5.338645E+03	6.412713E-03	4.917884E-04
5.348606E+03	6.372009E-03	4.893426E-04
5.358566E+03	6.331315E-03	4.869106E-04
5.368526E+03	6.291040E-03	4.845238E-04
5.378486E+03	6.250788E-03	4.821515E-04
5.388446E+03	6.211359E-03	4.798552E-04
5.398406E+03	6.171966E-03	4.775737E-04
5.408367E+03	6.132619E-03	4.753070E-04
5.418327E+03	6.093708E-03	4.730847E-04
5.428287E+03	6.055229E-03	4.709058E-04
5.438247E+03	6.017184E-03	4.687701E-04
5.448207E+03	5.979194E-03	4.666474E-04
5.458167E+03	5.941635E-03	4.645666E-04
5.468127E+03	5.904136E-03	4.624980E-04
5.478088E+03	5.867437E-03	4.604989E-04
5.488048E+03	5.830797E-03	4.585111E-04
5.498008E+03	5.794218E-03	4.565338E-04
5.507968E+03	5.758064E-03	4.545953E-04
5.517928E+03	5.722331E-03	4.526950E-04
5.527888E+03	5.687020E-03	4.508322E-04
5.537849E+03	5.651767E-03	4.489779E-04
5.547809E+03	5.617280E-03	4.471877E-04
5.557769E+03	5.582505E-03	4.453774E-04
5.567729E+03	5.548486E-03	4.436299E-04
5.577689E+03	5.514530E-03	4.418892E-04
5.587649E+03	5.480974E-03	4.401821E-04
5.597610E+03	5.447481E-03	4.384811E-04
5.607570E+03	5.414724E-03	4.368399E-04
5.617530E+03	5.382025E-03	4.352036E-04
5.627490E+03	5.349717E-03	4.335989E-04
5.637450E+03	5.317468E-03	4.319983E-04
5.647410E+03	5.285606E-03	4.304281E-04
5.657371E+03	5.254128E-03	4.288879E-04
5.667331E+03	5.223032E-03	4.273773E-04
5.677291E+03	5.191987E-03	4.258688E-04
5.687251E+03	5.161317E-03	4.243887E-04
5.697211E+03	5.131022E-03	4.229368E-04
5.707171E+03	5.101092E-03	4.215121E-04
5.717131E+03	5.071208E-03	4.200879E-04
5.727092E+03	5.041690E-03	4.186905E-04
5.737052E+03	5.012530E-03	4.173190E-04
5.747012E+03	4.983724E-03	4.159729E-04
5.756972E+03	4.954962E-03	4.146261E-04
5.766932E+03	4.926856E-03	4.133297E-04
5.776892E+03	4.898484E-03	4.120061E-04
5.786853E+03	4.870758E-03	4.107317E-04
5.796813E+03	4.843370E-03	4.094806E-04
5.806773E+03	4.816017E-03	4.082269E-04
5.816733E+03	4.788998E-03	4.069958E-04
5.826693E+03	4.762304E-03	4.057865E-04
5.836653E+03	4.735644E-03	4.045738E-04
5.846614E+03	4.709596E-03	4.034073E-04
5.856574E+03	4.683578E-03	4.022369E-04
5.866534E+03	4.657874E-03	4.010867E-04
5.876494E+03	4.632479E-03	3.999565E-04
5.886454E+03	4.607105E-03	3.988210E-04
5.896414E+03	4.582040E-03	3.977052E-04
5.906375E+03	4.557559E-03	3.966329E-04
5.916335E+03	4.533091E-03	3.955544E-04
5.926295E+03	4.508637E-03	3.944696E-04
5.936255E+03	4.484754E-03	3.934271E-04
5.946215E+03	4.460882E-03	3.923779E-04
5.956175E+03	4.437570E-03	3.913701E-04
5.966135E+03	4.414264E-03	3.903549E-04
5.976096E+03	4.391231E-03	3.893560E-04
5.986056E+03	4.368204E-03	3.883493E-04
5.996016E+03	4.345716E-03	3.873824E-04
6.005976E+03	4.323229E-03	3.864073E-04
6.015936E+03	4.301005E-03	3.854472E-04
6.025896E+03	4.279041E-03	3.845021E-04
6.035857E+03	4.257333E-03	3.835714E-04
6.045817E+03	4.235882E-03	3.826553E-04
6.055777E+03	4.214679E-03	3.817531E-04
6.065737E+03	4.193462E-03	3.808409E-04
6.075697E+03	4.172488E-03	3.799421E-04
6.085657E+03	4.152014E-03	3.790800E-04
6.095618E+03	4.131521E-03	3.782074E-04
6.105578E+03	4.111259E-03	3.773471E-04
6.115538E+03	4.090977E-03	3.764761E-04
6.125498E+03	4.071174E-03	3.756403E-04
6.135458E+03	4.051345E-03	3.747930E-04
6.145418E+03	4.031991E-03	3.739808E-04
6.155378E+03	4.012602E-03	3.731563E-04
6.165339E+03	3.993431E-03	3.723431E-04
6.175299E+03	3.974472E-03	3.715407E-04
6.185259E+03	3.955723E-03	3.707488E-04
6.195219E+03	3.937180E-03	3.699672E-04
6.205179E+03	3.918596E-03	3.691727E-04
6.215139E+03	3.900460E-03	3.684113E-04
6.225100E+03	3.882274E-03	3.676361E-04
6.235060E+03	3.864529E-03	3.668937E-04
6.245020E+03	3.846733E-03	3.661374E-04
6.254980E+03	3.829129E-03	3.653903E-04
6.264940E+03	3.811710E-03	3.646518E-04
6.274900E+03	3.794477E-03	3.639219E-04
6.284861E+03	3.777425E-03	3.632005E-04
6.294821E+03	3.760317E-03	3.624647E-04
6.304781E+03	3.743619E-03	3.617593E-04
6.314741E+03	3.727096E-03	3.610619E-04
6.324701E+03	3.710510E-03	3.603494E-04
6.334661E+03	3.694328E-03	3.596671E-04
6.344622E+03	3.678075E-03	3.589691E-04
6.354582E+03	3.661988E-03	3.582782E-04
6.364542E+03	3.646065E-03	3.575945E-04
6.374502E+03	3.630300E-03	3.569175E-04
6.384462E+03	3.614691E-03	3.562469E-04
6.394422E+03	3.599236E-03	3.555827E-04
6.404382E+03	3.583933E-03	3.549248E-04
6.414343E+03	3.568779E-03	3.542728E-04
6.424303E+03	3.553776E-03	3.536271E-04
6.434263E+03	3.538915E-03	3.529868E-04
6.444223E+03	3.523972E-03	3.523298E-04
6.454183E+03	3.509395E-03	3.517005E-04
6.464143E+03	3.494735E-03	3.510545E-04
6.474104E+03	3.480431E-03	3.504356E-04
6.484064E+03	3.466045E-03	3.497999E-04
6.494024E+03	3.452010E-03	3.491912E-04
6.503984E+03	3.437884E-03	3.485648E-04
6.513944E+03	3.423890E-03	3.479433E-04
6.523904E+03	3.410023E-03	3.473264E-04
6.533865E+03	3.396499E-03	3.467360E-04
6.543825E+03	3.382880E-03	3.461277E-04
6.553785E+03	3.369382E-03	3.455235E-04
6.563745E+03	3.356003E-03	3.449232E-04
6.573705E+03	3.342745E-03	3.443272E-04
6.583665E+03	3.329602E-03	3.437349E-04
6.593625E+03	3.316572E-03	3.431461E-04
6.603586E+03	3.303656E-03	3.425612E-04
6.613546E+03	3.290852E-03	3.419798E-04
6.623506E+03	3.277948E-03	3.413800E-04
6.633466E+03	3.265361E-03	3.408052E-04
6.643426E+03	3.252880E-03	3.402336E-04
6.653386E+03	3.240504E-03	3.396652E-04
6.663347E+03	3.228024E-03	3.390780E-04
6.673307E+03	3.215854E-03	3.385158E-04
6.683267E+03	3.203787E-03	3.379565E-04
6.693227E+03	3.191609E-03	3.373779E-04
6.703187E+03	3.179739E-03	3.368243E-04
6.713147E+03	3.167758E-03	3.362513E-04
6.723108E+03	3.156076E-03	3.357024E-04
6.733068E+03	3.144285E-03	3.351345E-04
6.743028E+03	3.132790E-03	3.345907E-04
6.752988E+03	3.121187E-03	3.340279E-04
6.762948E+03	3.109872E-03	3.334887E-04
6.772908E+03	3.098447E-03	3.329303E-04
6.782869E+03	3.087109E-03	3.323740E-04
6.792829E+03	3.076061E-03	3.318417E-04
6.802789E+03	3.064898E-03	3.312897E-04
6.812749E+03	3.053820E-03	3.307399E-04
6.822709E+03	3.043022E-03	3.302133E-04
6.832669E+03	3.032110E-03	3.296673E-04
6.842629E+03	3.021280E-03	3.291232E-04
6.852590E+03	3.010531E-03	3.285810E-04
6.862550E+03	2.999862E-03	3.280405E-04
6.872510E+03	2.989467E-03	3.275233E-04
6.882470E+03	2.978954E-03	3.269863E-04
6.892430E+03	2.968519E-03	3.264510E-04
6.902390E+03	2.958160E-03	3.259174E-04
6.912351E+03	2.947876E-03	3.253854E-04
6.922311E+03	2.937667E-03	3.248550E-04
6.932271E+03	2.927531E-03	3.243261E-04
6.942231E+03	2.917469E-03	3.237988E-04
6.952191E+03	2.907478E-03	3.232730E-04
6.962151E+03	2.897368E-03	3.227274E-04
6.972112E+03	2.887520E-03	3.222046E-04
6.982072E+03	2.877741E-03	3.216831E-04
6.992032E+03	2.868032E-03	3.211631E-04
7.001992E+03	2.858391E-03	3.206444E-04
7.011952E+03	2.848629E-03	3.201060E-04
7.021912E+03	2.839123E-03	3.195901E-04
7.031873E+03	2.829684E-03	3.190756E-04
7.041833E+03	2.820123E-03	3.185413E-04
7.051793E+03	2.810815E-03	3.180294E-04
7.061753E+03	2.801385E-03	3.174977E-04
7.071713E+03	2.792206E-03	3.169884E-04
7.081673E+03	2.782905E-03	3.164595E-04
7.091633E+03	2.773852E-03	3.159527E-04
7.101594E+03	2.764677E-03	3.154264E-04
7.111554E+03	2.755565E-03	3.149013E-04
7.121514E+03	2.746515E-03	3.143775E-04
7.131474E+03	2.737709E-03	3.138759E-04
7.141434E+03	2.728781E-03	3.133547E-04
7.151394E+03	2.719913E-03	3.128347E-04
7.161355E+03	2.711106E-03	3.123161E-04
7.171315E+03	2.702358E-03	3.117988E-04
7.181275E+03	2.693669E-03	3.112827E-04
7.191235E+03	2.685039E-03	3.107680E-04
7.201195E+03	2.676288E-03	3.102338E-04
7.211155E+03	2.667774E-03	3.097217E-04
7.221116E+03	2.659318E-03	3.092109E-04
7.231076E+03	2.650741E-03	3.086807E-04
7.241036E+03	2.642399E-03	3.081726E-04
7.250996E+03	2.633935E-03	3.076450E-04
7.260956E+03	2.625705E-03	3.071396E-04
7.270916E+03	2.617355E-03	3.066149E-04
7.280876E+03	2.609060E-03	3.060915E-04
7.290837E+03	2.600821E-03	3.055696E-04
7.300797E+03	2.592637E-03	3.050491E-04
7.310757E+03	2.584507E-03	3.045300E-04
7.320717E+03	2.576433E-03	3.040123E-04
7.330677E+03	2.568412E-03	3.034962E-04
7.340637E+03	2.560445E-03	3.029814E-04
7.350598E+03	2.552359E-03	3.024477E-04
7.360558E+03	2.544500E-03	3.019359E-04
7.370518E+03	2.536521E-03	3.014052E-04
7.380478E+03	2.528768E-03	3.008965E-04
7.390438E+03	2.520895E-03	3.003689E-04
7.400398E+03	2.513075E-03	2.998429E-04
7.410359E+03	2.505308E-03	2.993185E-04
7.420319E+03	2.497592E-03	2.987956E-04
7.430279E+03	2.489929E-03	2.982745E-04
7.440239E+03	2.482318E-03	2.977549E-04
7.450199E+03	2.474758E-03	2.972371E-04
7.460159E+03	2.467080E-03	2.967005E-04
7.470120E+03	2.459623E-03	2.961861E-04
7.480080E+03	2.452047E-03	2.956530E-04
7.490040E+03	2.444523E-03	2.951217E-04
7.500000E+03	2.437050E-03	2.945922E-04
7.509960E+03	2.429627E-03	2.940644E-04
7.519920E+03	2.422255E-03	2.935385E-04
7.529880E+03	2.414933E-03	2.930144E-04
7.539841E+03	2.407495E-03	2.924720E-04
7.549801E+03	2.400272E-03	2.919516E-04
7.559761E+03	2.392934E-03	2.914129E-04
7.569721E+03	2.385811E-03	2.908964E-04
7.579681E+03	2.378572E-03	2.903616E-04
7.589641E+03	2.371382E-03	2.898287E-04
7.599602E+03	2.364077E-03	2.892777E-04
7.609562E+03	2.356985E-03	2.887489E-04
7.619522E+03	2.349943E-03	2.882220E-04
7.629482E+03	2.342785E-03	2.876771E-04
7.639442E+03	2.335676E-03	2.871343E-04
7.649402E+03	2.328779E-03	2.866137E-04
7.659363E+03	2.321767E-03	2.860750E-04
7.669323E+03	2.314640E-03	2.855184E-04
7.679283E+03	2.307725E-03	2.849841E-04
7.689243E+03	2.300857E-03	2.844519E-04
7.699203E+03	2.293876E-03	2.839018E-04
7.709163E+03	2.287103E-03	2.833740E-04
7.719124E+03	2.280217E-03	2.828284E-04
7.729084E+03	2.273378E-03	2.822850E-04
