#wls	flux	fluxerr
1.593625E+03	2.757946E-04	4.529357E-05
1.633466E+03	2.700210E-04	4.426791E-05
1.673307E+03	2.649724E-04	4.336400E-05
1.713147E+03	2.605545E-04	4.256590E-05
1.752988E+03	2.568157E-04	4.188103E-05
1.792829E+03	2.537611E-04	4.130974E-05
1.832669E+03	2.514436E-04	4.086010E-05
1.872510E+03	2.497918E-04	4.051998E-05
1.912351E+03	2.489113E-04	4.030598E-05
1.952191E+03	2.487862E-04	4.021496E-05
1.992032E+03	2.494923E-04	4.025863E-05
2.031873E+03	2.509888E-04	4.042978E-05
2.071713E+03	2.534117E-04	4.074975E-05
2.111554E+03	2.568275E-04	4.122854E-05
2.151394E+03	2.612822E-04	4.187289E-05
2.191235E+03	2.668787E-04	4.269856E-05
2.231076E+03	2.738211E-04	4.373741E-05
2.270916E+03	2.821494E-04	4.499499E-05
2.310757E+03	2.919798E-04	4.648896E-05
2.350598E+03	3.035152E-04	4.825060E-05
2.390438E+03	3.167796E-04	5.028256E-05
2.430279E+03	3.320024E-04	5.262007E-05
2.470120E+03	3.492267E-04	5.526864E-05
2.509960E+03	3.687190E-04	5.826910E-05
2.549801E+03	3.905459E-04	6.163046E-05
2.589641E+03	4.150199E-04	6.540051E-05
2.629482E+03	4.422995E-04	6.960245E-05
2.669323E+03	4.726931E-04	7.428303E-05
2.709163E+03	5.063993E-04	7.947143E-05
2.749004E+03	5.437817E-04	8.522256E-05
2.788845E+03	5.850773E-04	9.157122E-05
2.828685E+03	6.306148E-04	9.856630E-05
2.868526E+03	6.809387E-04	1.062902E-04
2.908367E+03	7.362515E-04	1.147714E-04
2.948207E+03	7.969445E-04	1.240677E-04
2.988048E+03	8.636633E-04	1.342760E-04
2.998008E+03	8.812940E-04	1.369717E-04
3.007968E+03	8.994292E-04	1.397439E-04
3.017928E+03	9.178302E-04	1.425555E-04
3.027888E+03	9.367518E-04	1.454461E-04
3.037849E+03	9.560772E-04	1.483974E-04
3.047809E+03	9.758116E-04	1.514101E-04
3.057769E+03	9.959617E-04	1.544854E-04
3.067729E+03	1.016533E-03	1.576238E-04
3.077689E+03	1.037672E-03	1.608481E-04
3.087649E+03	1.059249E-03	1.641381E-04
3.097610E+03	1.081270E-03	1.674947E-04
3.107570E+03	1.103741E-03	1.709187E-04
3.117530E+03	1.126668E-03	1.744110E-04
3.127490E+03	1.150211E-03	1.779960E-04
3.137450E+03	1.174070E-03	1.816278E-04
3.147410E+03	1.198562E-03	1.853547E-04
3.157371E+03	1.223538E-03	1.891540E-04
3.167331E+03	1.249168E-03	1.930519E-04
3.177291E+03	1.275133E-03	1.969988E-04
3.187251E+03	1.301769E-03	2.010466E-04
3.197211E+03	1.328917E-03	2.051708E-04
3.207171E+03	1.356584E-03	2.093720E-04
3.217131E+03	1.384773E-03	2.136511E-04
3.227092E+03	1.413491E-03	2.180087E-04
3.237052E+03	1.442927E-03	2.224741E-04
3.247012E+03	1.472907E-03	2.270202E-04
3.256972E+03	1.503436E-03	2.316478E-04
3.266932E+03	1.534518E-03	2.363574E-04
3.276892E+03	1.566158E-03	2.411496E-04
3.286853E+03	1.598561E-03	2.460560E-04
3.296813E+03	1.631538E-03	2.510472E-04
3.306773E+03	1.665090E-03	2.561236E-04
3.316733E+03	1.699223E-03	2.612856E-04
3.326693E+03	1.733939E-03	2.665338E-04
3.336653E+03	1.769461E-03	2.719022E-04
3.346614E+03	1.805356E-03	2.773242E-04
3.356574E+03	1.842070E-03	2.828681E-04
3.366534E+03	1.879386E-03	2.885006E-04
3.376494E+03	1.917540E-03	2.942579E-04
3.386454E+03	1.956069E-03	3.000687E-04
3.396414E+03	1.995448E-03	3.060057E-04
3.406375E+03	2.035196E-03	3.119952E-04
3.416335E+03	2.076055E-03	3.181508E-04
3.426295E+03	2.117285E-03	3.243590E-04
3.436255E+03	2.159133E-03	3.306574E-04
3.446215E+03	2.201861E-03	3.370864E-04
3.456175E+03	2.244948E-03	3.435658E-04
3.466135E+03	2.288924E-03	3.501766E-04
3.476096E+03	2.333523E-03	3.568782E-04
3.486056E+03	2.379026E-03	3.637135E-04
3.496016E+03	2.424875E-03	3.705967E-04
3.505976E+03	2.471633E-03	3.776141E-04
3.515936E+03	2.519017E-03	3.847224E-04
3.525896E+03	2.567024E-03	3.919210E-04
3.535857E+03	2.615652E-03	3.992092E-04
3.545817E+03	2.664898E-03	4.065867E-04
3.555777E+03	2.715069E-03	4.141004E-04
3.565737E+03	2.765540E-03	4.216547E-04
3.575697E+03	2.816938E-03	4.293451E-04
3.585657E+03	2.868944E-03	4.371228E-04
3.595618E+03	2.921552E-03	4.449871E-04
3.605578E+03	2.975094E-03	4.529881E-04
3.615538E+03	3.028891E-03	4.610226E-04
3.625498E+03	3.083618E-03	4.691931E-04
3.635458E+03	3.138577E-03	4.773934E-04
3.645418E+03	3.194456E-03	4.857282E-04
3.655378E+03	3.250904E-03	4.941438E-04
3.665339E+03	3.308275E-03	5.026941E-04
3.675299E+03	3.365833E-03	5.112670E-04
3.685259E+03	3.424303E-03	5.199727E-04
3.695219E+03	3.482926E-03	5.286960E-04
3.705179E+03	3.542449E-03	5.375500E-04
3.715139E+03	3.602482E-03	5.464756E-04
3.725100E+03	3.663015E-03	5.554712E-04
3.735060E+03	3.724028E-03	5.645337E-04
3.745020E+03	3.785922E-03	5.737239E-04
3.754980E+03	3.847866E-03	5.829157E-04
3.764940E+03	3.910667E-03	5.922313E-04
3.774900E+03	3.973899E-03	6.016063E-04
3.784861E+03	4.037120E-03	6.109737E-04
3.794821E+03	4.101159E-03	6.204590E-04
3.804781E+03	4.166019E-03	6.300624E-04
3.814741E+03	4.230802E-03	6.396482E-04
3.824701E+03	4.295924E-03	6.492795E-04
3.834661E+03	4.361366E-03	6.589531E-04
3.844622E+03	4.427566E-03	6.687353E-04
3.854582E+03	4.494051E-03	6.785547E-04
3.864542E+03	4.560327E-03	6.883367E-04
3.874502E+03	4.627309E-03	6.982194E-04
3.884462E+03	4.694503E-03	7.081284E-04
3.894422E+03	4.761889E-03	7.180604E-04
3.904382E+03	4.829439E-03	7.280115E-04
3.914343E+03	4.897124E-03	7.379774E-04
3.924303E+03	4.964918E-03	7.479539E-04
3.934263E+03	5.032795E-03	7.579376E-04
3.944223E+03	5.101238E-03	7.680011E-04
3.954183E+03	5.169198E-03	7.779862E-04
3.964143E+03	5.237669E-03	7.880431E-04
3.974104E+03	5.305592E-03	7.980122E-04
3.984064E+03	5.373973E-03	8.080451E-04
3.994024E+03	5.441729E-03	8.179791E-04
4.003984E+03	5.509892E-03	8.279692E-04
4.013944E+03	5.577897E-03	8.379308E-04
4.023904E+03	5.645161E-03	8.477763E-04
4.033865E+03	5.712746E-03	8.576654E-04
4.043825E+03	5.780069E-03	8.675107E-04
4.053785E+03	5.846530E-03	8.772223E-04
4.063745E+03	5.913217E-03	8.869636E-04
4.073705E+03	5.979536E-03	8.966457E-04
4.083665E+03	6.045447E-03	9.062627E-04
4.093625E+03	6.110913E-03	9.158092E-04
4.103586E+03	6.175895E-03	9.252796E-04
4.113546E+03	6.239766E-03	9.345801E-04
4.123506E+03	6.303663E-03	9.438813E-04
4.133466E+03	6.366961E-03	9.530897E-04
4.143426E+03	6.429619E-03	9.621994E-04
4.153386E+03	6.491601E-03	9.712053E-04
4.163347E+03	6.552255E-03	9.800100E-04
4.173307E+03	6.612757E-03	9.887897E-04
4.183267E+03	6.672462E-03	9.974481E-04
4.193227E+03	6.730712E-03	1.005887E-03
4.203187E+03	6.788700E-03	1.014285E-03
4.213147E+03	6.845144E-03	1.022452E-03
4.223108E+03	6.901261E-03	1.030568E-03
4.233068E+03	6.955746E-03	1.038439E-03
4.243028E+03	7.009832E-03	1.046250E-03
4.252988E+03	7.062208E-03	1.053805E-03
4.262948E+03	7.113468E-03	1.061194E-03
4.272908E+03	7.163581E-03	1.068411E-03
4.282869E+03	7.212505E-03	1.075452E-03
4.292829E+03	7.260208E-03	1.082311E-03
4.302789E+03	7.306658E-03	1.088983E-03
4.312749E+03	7.351816E-03	1.095464E-03
4.322709E+03	7.395000E-03	1.101653E-03
4.332669E+03	7.437482E-03	1.107738E-03
4.342629E+03	7.477930E-03	1.113522E-03
4.352590E+03	7.517623E-03	1.119195E-03
4.362550E+03	7.555237E-03	1.124562E-03
4.372510E+03	7.591425E-03	1.129718E-03
4.382470E+03	7.626173E-03	1.134664E-03
4.392430E+03	7.659483E-03	1.139398E-03
4.402390E+03	7.691352E-03	1.143921E-03
4.412351E+03	7.721115E-03	1.148134E-03
4.422311E+03	7.750097E-03	1.152234E-03
4.432271E+03	7.776980E-03	1.156026E-03
4.442231E+03	7.802424E-03	1.159608E-03
4.452191E+03	7.826441E-03	1.162981E-03
4.462151E+03	7.849039E-03	1.166148E-03
4.472112E+03	7.869557E-03	1.169009E-03
4.482072E+03	7.889340E-03	1.171766E-03
4.492032E+03	7.907064E-03	1.174221E-03
4.501992E+03	7.923412E-03	1.176476E-03
4.511952E+03	7.938396E-03	1.178533E-03
4.521912E+03	7.952027E-03	1.180394E-03
4.531873E+03	7.964328E-03	1.182061E-03
4.541833E+03	7.974646E-03	1.183440E-03
4.551793E+03	7.983666E-03	1.184630E-03
4.561753E+03	7.991405E-03	1.185635E-03
4.571713E+03	7.997882E-03	1.186458E-03
4.581673E+03	8.002460E-03	1.187004E-03
4.591633E+03	8.006475E-03	1.187471E-03
4.601594E+03	8.008635E-03	1.187669E-03
4.611554E+03	8.009617E-03	1.187697E-03
4.621514E+03	8.009446E-03	1.187559E-03
4.631474E+03	8.007491E-03	1.187162E-03
4.641434E+03	8.004430E-03	1.186606E-03
4.651394E+03	8.000933E-03	1.185991E-03
4.661355E+03	7.995085E-03	1.185033E-03
4.671315E+03	7.988849E-03	1.184022E-03
4.681275E+03	7.980960E-03	1.182772E-03
4.691235E+03	7.972089E-03	1.181382E-03
4.701195E+03	7.962261E-03	1.179855E-03
4.711155E+03	7.951499E-03	1.178196E-03
4.721116E+03	7.939198E-03	1.176314E-03
4.731076E+03	7.926016E-03	1.174307E-03
4.741036E+03	7.911982E-03	1.172179E-03
4.750996E+03	7.897115E-03	1.169933E-03
4.760956E+03	7.880828E-03	1.167483E-03
4.770916E+03	7.864382E-03	1.165014E-03
4.780876E+03	7.845950E-03	1.162256E-03
4.790837E+03	7.827414E-03	1.159489E-03
4.800797E+03	7.807564E-03	1.156532E-03
4.810757E+03	7.787045E-03	1.153482E-03
4.820717E+03	7.765882E-03	1.150342E-03
4.830677E+03	7.744095E-03	1.147115E-03
4.840637E+03	7.721110E-03	1.143715E-03
4.850598E+03	7.697560E-03	1.140238E-03
4.860558E+03	7.673459E-03	1.136684E-03
4.870518E+03	7.648249E-03	1.132971E-03
4.880478E+03	7.623133E-03	1.129278E-03
4.890438E+03	7.596954E-03	1.125432E-03
4.900398E+03	7.569745E-03	1.121439E-03
4.910359E+03	7.542696E-03	1.117475E-03
4.920319E+03	7.514662E-03	1.113370E-03
4.930279E+03	7.485680E-03	1.109130E-03
4.940239E+03	7.456916E-03	1.104927E-03
4.950199E+03	7.427250E-03	1.100596E-03
4.960159E+03	7.397271E-03	1.096223E-03
4.970120E+03	7.367002E-03	1.091813E-03
4.980080E+03	7.335905E-03	1.087284E-03
4.990040E+03	7.304563E-03	1.082725E-03
5.000000E+03	7.272990E-03	1.078136E-03
5.009960E+03	7.241208E-03	1.073521E-03
5.019920E+03	7.208695E-03	1.068802E-03
5.029880E+03	7.176009E-03	1.064063E-03
5.039841E+03	7.143170E-03	1.059305E-03
5.049801E+03	7.109666E-03	1.054454E-03
5.059761E+03	7.076049E-03	1.049590E-03
5.069721E+03	7.042332E-03	1.044717E-03
5.079681E+03	7.008536E-03	1.039836E-03
5.089641E+03	6.974148E-03	1.034871E-03
5.099602E+03	6.939718E-03	1.029905E-03
5.109562E+03	6.905255E-03	1.024939E-03
5.119522E+03	6.870261E-03	1.019898E-03
5.129482E+03	6.835774E-03	1.014937E-03
5.139442E+03	6.800288E-03	1.009831E-03
5.149402E+03	6.765333E-03	1.004809E-03
5.159363E+03	6.729921E-03	9.997229E-04
5.169323E+03	6.694560E-03	9.946485E-04
5.179283E+03	6.659269E-03	9.895886E-04
5.189243E+03	6.624057E-03	9.845445E-04
5.199203E+03	6.588447E-03	9.794451E-04
5.209163E+03	6.552938E-03	9.743649E-04
5.219124E+03	6.517066E-03	9.692344E-04
5.229084E+03	6.481800E-03	9.641979E-04
5.239044E+03	6.446193E-03	9.591145E-04
5.249004E+03	6.410733E-03	9.540567E-04
5.258964E+03	6.374964E-03	9.489565E-04
5.268924E+03	6.339826E-03	9.439539E-04
5.278884E+03	6.304398E-03	9.389116E-04
5.288845E+03	6.268698E-03	9.338326E-04
5.298805E+03	6.233647E-03	9.288535E-04
5.308765E+03	6.198344E-03	9.238404E-04
5.318725E+03	6.163251E-03	9.188619E-04
5.328685E+03	6.128374E-03	9.139191E-04
5.338645E+03	6.093272E-03	9.089460E-04
5.348606E+03	6.058407E-03	9.040114E-04
5.358566E+03	6.023778E-03	8.991152E-04
5.368526E+03	5.989389E-03	8.942581E-04
5.378486E+03	5.954817E-03	8.893768E-04
5.388446E+03	5.920502E-03	8.845368E-04
5.398406E+03	5.886447E-03	8.797386E-04
5.408367E+03	5.852656E-03	8.749825E-04
5.418327E+03	5.818711E-03	8.702059E-04
5.428287E+03	5.785039E-03	8.654726E-04
5.438247E+03	5.751641E-03	8.607825E-04
5.448207E+03	5.718518E-03	8.561355E-04
5.458167E+03	5.685266E-03	8.514711E-04
5.468127E+03	5.652295E-03	8.468505E-04
5.478088E+03	5.619608E-03	8.422740E-04
5.488048E+03	5.587207E-03	8.377418E-04
5.498008E+03	5.554687E-03	8.331930E-04
5.507968E+03	5.522856E-03	8.287487E-04
5.517928E+03	5.490917E-03	8.242891E-04
5.527888E+03	5.458869E-03	8.198141E-04
5.537849E+03	5.427509E-03	8.154430E-04
5.547809E+03	5.396050E-03	8.110576E-04
5.557769E+03	5.364884E-03	8.067167E-04
5.567729E+03	5.334008E-03	8.024198E-04
5.577689E+03	5.303423E-03	7.981669E-04
5.587649E+03	5.272750E-03	7.939007E-04
5.597610E+03	5.242368E-03	7.896783E-04
5.607570E+03	5.212281E-03	7.855001E-04
5.617530E+03	5.182485E-03	7.813657E-04
5.627490E+03	5.152979E-03	7.772745E-04
5.637450E+03	5.123394E-03	7.731710E-04
5.647410E+03	5.094099E-03	7.691106E-04
5.657371E+03	5.065094E-03	7.650933E-04
5.667331E+03	5.036375E-03	7.611186E-04
5.677291E+03	5.007586E-03	7.571323E-04
5.687251E+03	4.979439E-03	7.532422E-04
5.697211E+03	4.951222E-03	7.493404E-04
5.707171E+03	4.923289E-03	7.454805E-04
5.717131E+03	4.895639E-03	7.416622E-04
5.727092E+03	4.867921E-03	7.378324E-04
5.737052E+03	4.840486E-03	7.340440E-04
5.747012E+03	4.813677E-03	7.303491E-04
5.756972E+03	4.786798E-03	7.266422E-04
5.766932E+03	4.760193E-03	7.229752E-04
5.776892E+03	4.733525E-03	7.192970E-04
5.786853E+03	4.707472E-03	7.157104E-04
5.796813E+03	4.681350E-03	7.121117E-04
5.806773E+03	4.655499E-03	7.085523E-04
5.816733E+03	4.629917E-03	7.050320E-04
5.826693E+03	4.604598E-03	7.015496E-04
5.836653E+03	4.579217E-03	6.980559E-04
5.846614E+03	4.554426E-03	6.946501E-04
5.856574E+03	4.529568E-03	6.912319E-04
5.866534E+03	4.504971E-03	6.878513E-04
5.876494E+03	4.480631E-03	6.845077E-04
5.886454E+03	4.456542E-03	6.812002E-04
5.896414E+03	4.432708E-03	6.779294E-04
5.906375E+03	4.408804E-03	6.746456E-04
5.916335E+03	4.385467E-03	6.714462E-04
5.926295E+03	4.362061E-03	6.682337E-04
5.936255E+03	4.338897E-03	6.650559E-04
5.946215E+03	4.315977E-03	6.619129E-04
5.956175E+03	4.293297E-03	6.588042E-04
5.966135E+03	4.270548E-03	6.556823E-04
5.976096E+03	4.248339E-03	6.526408E-04
5.986056E+03	4.226059E-03	6.495856E-04
5.996016E+03	4.204313E-03	6.466099E-04
6.005976E+03	4.182492E-03	6.436201E-04
6.015936E+03	4.160897E-03	6.406623E-04
6.025896E+03	4.139528E-03	6.377365E-04
6.035857E+03	4.118087E-03	6.347969E-04
6.045817E+03	4.097157E-03	6.319333E-04
6.055777E+03	4.076153E-03	6.290554E-04
6.065737E+03	4.055657E-03	6.262530E-04
6.075697E+03	4.035081E-03	6.234355E-04
6.085657E+03	4.014718E-03	6.206481E-04
6.095618E+03	3.994564E-03	6.178901E-04
6.105578E+03	3.974615E-03	6.151608E-04
6.115538E+03	3.954867E-03	6.124599E-04
6.125498E+03	3.935322E-03	6.097874E-04
6.135458E+03	3.915697E-03	6.070997E-04
6.145418E+03	3.896547E-03	6.044826E-04
6.155378E+03	3.877312E-03	6.018493E-04
6.165339E+03	3.858551E-03	5.992868E-04
6.175299E+03	3.839699E-03	5.967070E-04
6.185259E+03	3.821038E-03	5.941539E-04
6.195219E+03	3.802563E-03	5.916270E-04
6.205179E+03	3.784270E-03	5.891252E-04
6.215139E+03	3.766161E-03	5.866491E-04
6.225100E+03	3.748228E-03	5.841974E-04
6.235060E+03	3.730206E-03	5.817289E-04
6.245020E+03	3.712627E-03	5.793263E-04
6.254980E+03	3.694953E-03	5.769060E-04
6.264940E+03	3.677718E-03	5.745513E-04
6.274900E+03	3.660386E-03	5.721783E-04
6.284861E+03	3.643221E-03	5.698284E-04
6.294821E+03	3.626486E-03	5.675427E-04
6.304781E+03	3.609647E-03	5.652378E-04
6.314741E+03	3.592972E-03	5.629556E-04
6.324701E+03	3.576455E-03	5.606950E-04
6.334661E+03	3.560095E-03	5.584560E-04
6.344622E+03	3.543635E-03	5.561984E-04
6.354582E+03	3.527581E-03	5.540015E-04
6.364542E+03	3.511681E-03	5.518258E-04
6.374502E+03	3.495930E-03	5.496705E-04
6.384462E+03	3.480070E-03	5.474951E-04
6.394422E+03	3.464610E-03	5.453796E-04
6.404382E+03	3.449042E-03	5.432440E-04
6.414343E+03	3.433615E-03	5.411278E-04
6.424303E+03	3.418580E-03	5.390702E-04
6.434263E+03	3.403433E-03	5.369920E-04
6.444223E+03	3.388425E-03	5.349330E-04
6.454183E+03	3.373548E-03	5.328915E-04
6.464143E+03	3.358807E-03	5.308686E-04
6.474104E+03	3.344442E-03	5.289022E-04
6.484064E+03	3.329963E-03	5.269147E-04
6.494024E+03	3.315611E-03	5.249445E-04
6.503984E+03	3.301141E-03	5.229527E-04
6.513944E+03	3.287041E-03	5.210165E-04
6.523904E+03	3.273065E-03	5.190972E-04
6.533865E+03	3.259208E-03	5.171938E-04
6.543825E+03	3.245472E-03	5.153067E-04
6.553785E+03	3.231616E-03	5.133977E-04
6.563745E+03	3.218117E-03	5.115426E-04
6.573705E+03	3.204495E-03	5.096650E-04
6.583665E+03	3.191224E-03	5.078404E-04
6.593625E+03	3.178066E-03	5.060309E-04
6.603586E+03	3.164784E-03	5.041989E-04
6.613546E+03	3.151615E-03	5.023820E-04
6.623506E+03	3.138786E-03	5.006166E-04
6.633466E+03	3.125833E-03	4.988286E-04
6.643426E+03	3.113215E-03	4.970913E-04
6.653386E+03	3.100473E-03	4.953314E-04
6.663347E+03	3.087835E-03	4.935854E-04
6.673307E+03	3.075300E-03	4.918530E-04
6.683267E+03	3.062866E-03	4.901341E-04
6.693227E+03	3.050758E-03	4.884645E-04
6.703187E+03	3.038522E-03	4.867719E-04
6.713147E+03	3.026383E-03	4.850922E-04
6.723108E+03	3.014341E-03	4.834252E-04
6.733068E+03	3.002395E-03	4.817709E-04
6.743028E+03	2.990543E-03	4.801290E-04
6.752988E+03	2.978783E-03	4.784993E-04
6.762948E+03	2.967115E-03	4.768818E-04
6.772908E+03	2.955319E-03	4.752410E-04
6.782869E+03	2.943832E-03	4.736473E-04
6.792829E+03	2.932435E-03	4.720653E-04
6.802789E+03	2.921124E-03	4.704948E-04
6.812749E+03	2.909901E-03	4.689358E-04
6.822709E+03	2.898546E-03	4.673531E-04
6.832669E+03	2.887494E-03	4.658165E-04
6.842629E+03	2.876524E-03	4.642907E-04
6.852590E+03	2.865424E-03	4.627414E-04
6.862550E+03	2.854620E-03	4.612373E-04
6.872510E+03	2.843897E-03	4.597438E-04
6.882470E+03	2.833041E-03	4.582265E-04
6.892430E+03	2.822478E-03	4.567540E-04
6.902390E+03	2.811782E-03	4.552575E-04
6.912351E+03	2.801166E-03	4.537714E-04
6.922311E+03	2.790836E-03	4.523293E-04
6.932271E+03	2.780373E-03	4.508633E-04
6.942231E+03	2.769987E-03	4.494073E-04
6.952191E+03	2.759883E-03	4.479947E-04
6.962151E+03	2.749646E-03	4.465582E-04
6.972112E+03	2.739484E-03	4.451313E-04
6.982072E+03	2.729394E-03	4.437139E-04
6.992032E+03	2.719582E-03	4.423394E-04
7.001992E+03	2.709636E-03	4.409407E-04
7.011952E+03	2.699762E-03	4.395514E-04
7.021912E+03	2.689958E-03	4.381712E-04
7.031873E+03	2.680224E-03	4.368001E-04
7.041833E+03	2.670559E-03	4.354380E-04
7.051793E+03	2.660962E-03	4.340849E-04
7.061753E+03	2.651233E-03	4.327078E-04
7.071713E+03	2.641772E-03	4.313723E-04
7.081673E+03	2.632378E-03	4.300454E-04
7.091633E+03	2.623050E-03	4.287272E-04
7.101594E+03	2.613590E-03	4.273851E-04
7.111554E+03	2.604393E-03	4.260839E-04
7.121514E+03	2.595261E-03	4.247912E-04
7.131474E+03	2.585995E-03	4.234745E-04
7.141434E+03	2.576991E-03	4.221984E-04
7.151394E+03	2.567853E-03	4.208983E-04
7.161355E+03	2.558974E-03	4.196386E-04
7.171315E+03	2.549963E-03	4.183550E-04
7.181275E+03	2.541014E-03	4.170795E-04
7.191235E+03	2.532126E-03	4.158121E-04
7.201195E+03	2.523494E-03	4.145844E-04
7.211155E+03	2.514728E-03	4.133330E-04
7.221116E+03	2.506023E-03	4.120894E-04
7.231076E+03	2.497379E-03	4.108537E-04
7.241036E+03	2.488794E-03	4.096258E-04
7.250996E+03	2.480267E-03	4.084056E-04
7.260956E+03	2.471800E-03	4.071931E-04
7.270916E+03	2.463202E-03	4.059571E-04
7.280876E+03	2.454852E-03	4.047600E-04
7.290837E+03	2.446559E-03	4.035703E-04
7.300797E+03	2.438136E-03	4.023572E-04
7.310757E+03	2.429957E-03	4.011826E-04
7.320717E+03	2.421648E-03	3.999846E-04
7.330677E+03	2.413583E-03	3.988249E-04
7.340637E+03	2.405387E-03	3.976418E-04
7.350598E+03	2.397247E-03	3.964660E-04
7.360558E+03	2.389164E-03	3.952977E-04
7.370518E+03	2.381135E-03	3.941366E-04
7.380478E+03	2.373162E-03	3.929829E-04
7.390438E+03	2.365244E-03	3.918364E-04
7.400398E+03	2.357380E-03	3.906971E-04
7.410359E+03	2.349570E-03	3.895651E-04
7.420319E+03	2.341814E-03	3.884401E-04
7.430279E+03	2.333930E-03	3.872921E-04
7.440239E+03	2.326281E-03	3.861813E-04
7.450199E+03	2.318504E-03	3.850476E-04
7.460159E+03	2.310781E-03	3.839210E-04
7.470120E+03	2.303290E-03	3.828314E-04
7.480080E+03	2.295672E-03	3.817189E-04
7.490040E+03	2.288107E-03	3.806134E-04
7.500000E+03	2.280593E-03	3.795148E-04
7.509960E+03	2.273132E-03	3.784233E-04
7.519920E+03	2.265722E-03	3.773386E-04
7.529880E+03	2.258186E-03	3.762313E-04
7.539841E+03	2.250879E-03	3.751604E-04
7.549801E+03	2.243622E-03	3.740964E-04
7.559761E+03	2.236240E-03	3.730098E-04
7.569721E+03	2.228909E-03	3.719300E-04
7.579681E+03	2.221804E-03	3.708864E-04
7.589641E+03	2.214573E-03	3.698203E-04
7.599602E+03	2.207393E-03	3.687609E-04
7.609562E+03	2.200262E-03	3.677084E-04
7.619522E+03	2.193181E-03	3.666625E-04
7.629482E+03	2.185976E-03	3.655944E-04
7.639442E+03	2.178994E-03	3.645620E-04
7.649402E+03	2.171888E-03	3.635073E-04
7.659363E+03	2.165004E-03	3.624882E-04
7.669323E+03	2.157996E-03	3.614469E-04
7.679283E+03	2.151036E-03	3.604123E-04
7.689243E+03	2.144126E-03	3.593843E-04
7.699203E+03	2.137263E-03	3.583629E-04
7.709163E+03	2.130449E-03	3.573482E-04
7.719124E+03	2.123682E-03	3.563399E-04
7.729084E+03	2.116963E-03	3.553383E-04
