#wls	flux	fluxerr
1.587302E+03	8.185164E-05	4.061031E-06
1.626984E+03	8.206273E-05	4.070782E-06
1.666667E+03	8.244261E-05	4.088876E-06
1.706349E+03	8.299397E-05	4.115440E-06
1.746032E+03	8.372769E-05	4.151007E-06
1.785714E+03	8.466201E-05	4.196476E-06
1.825397E+03	8.578735E-05	4.251364E-06
1.865079E+03	8.713075E-05	4.317001E-06
1.904762E+03	8.869928E-05	4.393729E-06
1.944444E+03	9.050178E-05	4.481975E-06
1.984127E+03	9.254304E-05	4.581967E-06
2.023810E+03	9.483685E-05	4.694373E-06
2.063492E+03	9.738747E-05	4.819392E-06
2.103175E+03	1.001904E-04	4.956788E-06
2.142857E+03	1.032638E-04	5.107439E-06
2.182540E+03	1.066054E-04	5.271229E-06
2.222222E+03	1.102238E-04	5.448551E-06
2.261905E+03	1.141436E-04	5.640613E-06
2.301587E+03	1.184055E-04	5.849397E-06
2.341270E+03	1.230722E-04	6.077986E-06
2.380952E+03	1.282177E-04	6.329995E-06
2.420635E+03	1.339228E-04	6.609385E-06
2.460317E+03	1.402943E-04	6.921380E-06
2.500000E+03	1.474321E-04	7.270863E-06
2.539683E+03	1.554608E-04	7.663919E-06
2.579365E+03	1.645028E-04	8.106513E-06
2.619048E+03	1.747042E-04	8.605767E-06
2.658730E+03	1.862202E-04	9.169232E-06
2.698413E+03	1.992295E-04	9.805596E-06
2.738095E+03	2.139386E-04	1.052489E-05
2.777778E+03	2.305784E-04	1.133834E-05
2.817460E+03	2.494157E-04	1.225888E-05
2.857143E+03	2.707718E-04	1.330208E-05
2.896825E+03	2.950012E-04	1.448515E-05
2.936508E+03	3.225503E-04	1.582971E-05
2.976190E+03	3.539086E-04	1.735945E-05
2.986111E+03	3.624198E-04	1.777452E-05
2.996032E+03	3.712101E-04	1.820315E-05
3.005952E+03	3.802887E-04	1.864578E-05
3.015873E+03	3.896827E-04	1.910373E-05
3.025794E+03	3.993939E-04	1.957707E-05
3.035714E+03	4.094329E-04	2.006633E-05
3.045635E+03	4.198199E-04	2.057248E-05
3.055556E+03	4.305578E-04	2.109566E-05
3.065476E+03	4.416584E-04	2.163644E-05
3.075397E+03	4.531532E-04	2.219634E-05
3.085317E+03	4.650368E-04	2.277510E-05
3.095238E+03	4.773325E-04	2.337384E-05
3.105159E+03	4.900451E-04	2.399279E-05
3.115079E+03	5.032192E-04	2.463411E-05
3.125000E+03	5.168413E-04	2.529715E-05
3.134921E+03	5.309379E-04	2.598318E-05
3.144841E+03	5.455369E-04	2.669354E-05
3.154762E+03	5.606570E-04	2.742916E-05
3.164683E+03	5.762968E-04	2.818994E-05
3.174603E+03	5.925085E-04	2.897841E-05
3.184524E+03	6.092929E-04	2.979461E-05
3.194444E+03	6.266835E-04	3.064016E-05
3.204365E+03	6.446938E-04	3.151569E-05
3.214286E+03	6.633606E-04	3.242299E-05
3.224206E+03	6.827117E-04	3.336339E-05
3.234127E+03	7.027762E-04	3.433831E-05
3.244048E+03	7.235735E-04	3.534866E-05
3.253968E+03	7.451484E-04	3.639662E-05
3.263889E+03	7.675363E-04	3.748388E-05
3.273810E+03	7.907623E-04	3.861166E-05
3.283730E+03	8.148795E-04	3.978251E-05
3.293651E+03	8.399166E-04	4.099782E-05
3.303571E+03	8.659339E-04	4.226049E-05
3.313492E+03	8.929648E-04	4.357213E-05
3.323413E+03	9.210629E-04	4.493531E-05
3.333333E+03	9.502822E-04	4.635265E-05
3.343254E+03	9.806808E-04	4.782694E-05
3.353175E+03	1.012321E-03	4.936120E-05
3.363095E+03	1.045253E-03	5.095778E-05
3.373016E+03	1.079558E-03	5.262068E-05
3.382937E+03	1.115280E-03	5.435192E-05
3.392857E+03	1.152521E-03	5.615646E-05
3.402778E+03	1.191326E-03	5.803649E-05
3.412698E+03	1.231773E-03	5.999569E-05
3.422619E+03	1.273941E-03	6.203787E-05
3.432540E+03	1.317892E-03	6.416602E-05
3.442460E+03	1.363721E-03	6.638469E-05
3.452381E+03	1.411491E-03	6.869685E-05
3.462302E+03	1.461256E-03	7.110512E-05
3.472222E+03	1.513091E-03	7.361308E-05
3.482143E+03	1.567044E-03	7.622295E-05
3.492063E+03	1.623202E-03	7.893886E-05
3.501984E+03	1.681562E-03	8.176069E-05
3.511905E+03	1.742199E-03	8.469194E-05
3.521825E+03	1.805140E-03	8.773386E-05
3.531746E+03	1.870426E-03	9.088840E-05
3.541667E+03	1.938050E-03	9.415506E-05
3.551587E+03	2.008014E-03	9.753388E-05
3.561508E+03	2.080363E-03	1.010270E-04
3.571429E+03	2.155035E-03	1.046312E-04
3.581349E+03	2.232060E-03	1.083480E-04
3.591270E+03	2.311408E-03	1.121758E-04
3.601190E+03	2.393014E-03	1.161113E-04
3.611111E+03	2.476829E-03	1.201521E-04
3.621032E+03	2.562818E-03	1.242964E-04
3.630952E+03	2.650883E-03	1.285394E-04
3.640873E+03	2.741001E-03	1.328798E-04
3.650794E+03	2.833023E-03	1.373103E-04
3.660714E+03	2.926874E-03	1.418273E-04
3.670635E+03	3.022439E-03	1.464250E-04
3.680556E+03	3.119626E-03	1.510990E-04
3.690476E+03	3.218265E-03	1.558408E-04
3.700397E+03	3.318241E-03	1.606450E-04
3.710317E+03	3.419397E-03	1.655038E-04
3.720238E+03	3.521598E-03	1.704106E-04
3.730159E+03	3.624664E-03	1.753566E-04
3.740079E+03	3.728445E-03	1.803346E-04
3.750000E+03	3.832742E-03	1.853349E-04
3.759921E+03	3.937350E-03	1.903474E-04
3.769841E+03	4.042169E-03	1.953674E-04
3.779762E+03	4.146900E-03	2.003803E-04
3.789683E+03	4.251395E-03	2.053791E-04
3.799603E+03	4.355504E-03	2.103563E-04
3.809524E+03	4.458949E-03	2.152986E-04
3.819444E+03	4.561530E-03	2.201964E-04
3.829365E+03	4.663090E-03	2.250420E-04
3.839286E+03	4.763430E-03	2.298258E-04
3.849206E+03	4.862351E-03	2.345384E-04
3.859127E+03	4.959610E-03	2.391679E-04
3.869048E+03	5.055057E-03	2.437071E-04
3.878968E+03	5.148500E-03	2.481470E-04
3.888889E+03	5.239755E-03	2.524786E-04
3.898810E+03	5.328642E-03	2.566934E-04
3.908730E+03	5.414986E-03	2.607830E-04
3.918651E+03	5.498674E-03	2.647419E-04
3.928571E+03	5.579550E-03	2.685629E-04
3.938492E+03	5.657420E-03	2.722366E-04
3.948413E+03	5.732250E-03	2.757615E-04
3.958333E+03	5.803867E-03	2.791293E-04
3.968254E+03	5.872212E-03	2.823374E-04
3.978175E+03	5.937188E-03	2.853812E-04
3.988095E+03	5.998655E-03	2.882540E-04
3.998016E+03	6.056649E-03	2.909578E-04
4.007937E+03	6.111058E-03	2.934873E-04
4.017857E+03	6.161890E-03	2.958430E-04
4.027778E+03	6.209114E-03	2.980235E-04
4.037698E+03	6.252712E-03	3.000281E-04
4.047619E+03	6.292677E-03	3.018566E-04
4.057540E+03	6.329071E-03	3.035121E-04
4.067460E+03	6.361854E-03	3.049929E-04
4.077381E+03	6.391058E-03	3.063006E-04
4.087302E+03	6.416832E-03	3.074425E-04
4.097222E+03	6.439113E-03	3.084157E-04
4.107143E+03	6.458015E-03	3.092259E-04
4.117063E+03	6.473603E-03	3.098761E-04
4.126984E+03	6.485949E-03	3.103703E-04
4.136905E+03	6.495132E-03	3.107120E-04
4.146825E+03	6.501233E-03	3.109055E-04
4.156746E+03	6.504341E-03	3.109550E-04
4.166667E+03	6.504546E-03	3.108651E-04
4.176587E+03	6.501939E-03	3.106401E-04
4.186508E+03	6.496613E-03	3.102848E-04
4.196429E+03	6.488607E-03	3.098009E-04
4.206349E+03	6.478013E-03	3.091932E-04
4.216270E+03	6.464979E-03	3.084686E-04
4.226190E+03	6.449594E-03	3.076317E-04
4.236111E+03	6.431835E-03	3.066814E-04
4.246032E+03	6.411839E-03	3.056244E-04
4.255952E+03	6.389688E-03	3.044647E-04
4.265873E+03	6.365457E-03	3.032060E-04
4.275794E+03	6.339218E-03	3.018517E-04
4.285714E+03	6.310980E-03	3.004025E-04
4.295635E+03	6.280916E-03	2.988667E-04
4.305556E+03	6.248972E-03	2.972418E-04
4.315476E+03	6.215307E-03	2.955355E-04
4.325397E+03	6.179967E-03	2.937500E-04
4.335317E+03	6.143046E-03	2.918899E-04
4.345238E+03	6.104578E-03	2.899569E-04
4.355159E+03	6.064645E-03	2.879551E-04
4.365079E+03	6.023273E-03	2.858857E-04
4.375000E+03	5.980588E-03	2.837547E-04
4.384921E+03	5.936605E-03	2.815630E-04
4.394841E+03	5.891337E-03	2.793113E-04
4.404762E+03	5.844898E-03	2.770051E-04
4.414683E+03	5.797293E-03	2.746446E-04
4.424603E+03	5.748579E-03	2.722327E-04
4.434524E+03	5.698863E-03	2.697744E-04
4.444444E+03	5.648093E-03	2.672674E-04
4.454365E+03	5.596373E-03	2.647168E-04
4.464286E+03	5.543756E-03	2.621249E-04
4.474206E+03	5.490241E-03	2.594920E-04
4.484127E+03	5.435883E-03	2.568206E-04
4.494048E+03	5.380735E-03	2.541133E-04
4.503968E+03	5.324855E-03	2.513728E-04
4.513889E+03	5.268300E-03	2.486021E-04
4.523810E+03	5.211081E-03	2.458016E-04
4.533730E+03	5.153214E-03	2.429721E-04
4.543651E+03	5.094863E-03	2.401214E-04
4.553571E+03	5.036001E-03	2.372484E-04
4.563492E+03	4.976651E-03	2.343540E-04
4.573413E+03	4.916940E-03	2.314445E-04
4.583333E+03	4.856946E-03	2.285233E-04
4.593254E+03	4.796610E-03	2.255880E-04
4.603175E+03	4.736159E-03	2.226490E-04
4.613095E+03	4.675493E-03	2.197019E-04
4.623016E+03	4.614796E-03	2.167552E-04
4.632937E+03	4.554113E-03	2.138110E-04
4.642857E+03	4.493490E-03	2.108716E-04
4.652778E+03	4.432979E-03	2.079394E-04
4.662698E+03	4.372630E-03	2.050168E-04
4.672619E+03	4.312580E-03	2.021102E-04
4.682540E+03	4.252835E-03	1.992199E-04
4.692460E+03	4.193446E-03	1.963483E-04
4.702381E+03	4.134505E-03	1.934996E-04
4.712302E+03	4.075976E-03	1.906722E-04
4.722222E+03	4.018027E-03	1.878739E-04
4.732143E+03	3.960580E-03	1.851011E-04
4.742063E+03	3.903759E-03	1.823596E-04
4.751984E+03	3.847599E-03	1.796509E-04
4.761905E+03	3.792058E-03	1.769731E-04
4.771825E+03	3.737209E-03	1.743296E-04
4.781746E+03	3.683117E-03	1.717233E-04
4.791667E+03	3.629732E-03	1.691520E-04
4.801587E+03	3.577113E-03	1.666182E-04
4.811508E+03	3.525277E-03	1.641229E-04
4.821429E+03	3.474203E-03	1.616649E-04
4.831349E+03	3.423903E-03	1.592448E-04
4.841270E+03	3.374420E-03	1.568646E-04
4.851190E+03	3.325723E-03	1.545227E-04
4.861111E+03	3.277847E-03	1.522209E-04
4.871032E+03	3.230725E-03	1.499558E-04
4.880952E+03	3.184386E-03	1.477289E-04
4.890873E+03	3.138824E-03	1.455398E-04
4.900794E+03	3.094001E-03	1.433867E-04
4.910714E+03	3.049938E-03	1.412705E-04
4.920635E+03	3.006595E-03	1.391894E-04
4.930556E+03	2.963989E-03	1.371441E-04
4.940476E+03	2.922078E-03	1.351326E-04
4.950397E+03	2.880849E-03	1.331544E-04
4.960317E+03	2.840260E-03	1.312073E-04
4.970238E+03	2.800358E-03	1.292936E-04
4.980159E+03	2.761070E-03	1.274098E-04
4.990079E+03	2.722386E-03	1.255555E-04
5.000000E+03	2.684323E-03	1.237315E-04
5.009921E+03	2.646843E-03	1.219358E-04
5.019841E+03	2.609936E-03	1.201681E-04
5.029762E+03	2.573596E-03	1.184280E-04
5.039683E+03	2.537816E-03	1.167151E-04
5.049603E+03	2.502564E-03	1.150281E-04
5.059524E+03	2.467841E-03	1.133669E-04
5.069444E+03	2.433668E-03	1.117323E-04
5.079365E+03	2.399997E-03	1.101224E-04
5.089286E+03	2.366881E-03	1.085392E-04
5.099206E+03	2.334251E-03	1.069798E-04
5.109127E+03	2.302161E-03	1.054466E-04
5.119048E+03	2.270598E-03	1.039389E-04
5.128968E+03	2.239571E-03	1.024571E-04
5.138889E+03	2.209094E-03	1.010019E-04
5.148810E+03	2.179157E-03	9.957260E-05
5.158730E+03	2.149777E-03	9.817017E-05
5.168651E+03	2.120949E-03	9.679424E-05
5.178571E+03	2.092736E-03	9.544766E-05
5.188492E+03	2.065094E-03	9.412838E-05
5.198413E+03	2.038067E-03	9.283836E-05
5.208333E+03	2.011675E-03	9.157853E-05
5.218254E+03	1.985944E-03	9.034994E-05
5.228175E+03	1.960854E-03	8.915171E-05
5.238095E+03	1.936452E-03	8.798590E-05
5.248016E+03	1.912741E-03	8.685259E-05
5.257937E+03	1.889747E-03	8.575291E-05
5.267857E+03	1.867474E-03	8.468700E-05
5.277778E+03	1.845964E-03	8.365667E-05
5.287698E+03	1.825202E-03	8.266129E-05
5.297619E+03	1.805210E-03	8.170166E-05
5.307540E+03	1.785991E-03	8.077794E-05
5.317460E+03	1.767581E-03	7.989169E-05
5.327381E+03	1.749946E-03	7.904126E-05
5.337302E+03	1.733118E-03	7.822807E-05
5.347222E+03	1.717094E-03	7.745192E-05
5.357143E+03	1.701870E-03	7.671252E-05
5.367063E+03	1.687404E-03	7.600798E-05
5.376984E+03	1.673690E-03	7.533795E-05
5.386905E+03	1.660718E-03	7.470186E-05
5.396825E+03	1.648411E-03	7.409624E-05
5.406746E+03	1.636759E-03	7.352055E-05
5.416667E+03	1.625698E-03	7.297188E-05
5.426587E+03	1.615198E-03	7.244883E-05
5.436508E+03	1.605308E-03	7.195356E-05
5.446429E+03	1.596011E-03	7.148522E-05
5.456349E+03	1.587351E-03	7.104572E-05
5.466270E+03	1.579336E-03	7.063540E-05
5.476190E+03	1.572023E-03	7.025676E-05
5.486111E+03	1.565388E-03	6.990859E-05
5.496032E+03	1.559451E-03	6.959177E-05
5.505952E+03	1.554201E-03	6.930576E-05
5.515873E+03	1.549674E-03	6.905207E-05
5.525794E+03	1.545842E-03	6.882938E-05
5.535714E+03	1.542706E-03	6.863764E-05
5.545635E+03	1.540252E-03	6.847622E-05
5.555556E+03	1.538497E-03	6.834577E-05
5.565476E+03	1.537408E-03	6.824476E-05
5.575397E+03	1.536984E-03	6.817309E-05
5.585317E+03	1.537222E-03	6.813055E-05
5.595238E+03	1.538104E-03	6.811625E-05
5.605159E+03	1.539623E-03	6.812984E-05
5.615079E+03	1.541741E-03	6.816960E-05
5.625000E+03	1.544451E-03	6.823507E-05
5.634921E+03	1.547741E-03	6.832576E-05
5.644841E+03	1.551586E-03	6.844040E-05
5.654762E+03	1.555953E-03	6.857759E-05
5.664683E+03	1.560815E-03	6.873596E-05
5.674603E+03	1.566168E-03	6.891537E-05
5.684524E+03	1.571945E-03	6.911282E-05
5.694444E+03	1.578143E-03	6.932806E-05
5.704365E+03	1.584722E-03	6.955938E-05
5.714286E+03	1.591627E-03	6.980422E-05
5.724206E+03	1.598832E-03	7.006146E-05
5.734127E+03	1.606311E-03	7.032995E-05
5.744048E+03	1.614005E-03	7.060698E-05
5.753968E+03	1.621868E-03	7.089062E-05
5.763889E+03	1.629890E-03	7.118039E-05
5.773810E+03	1.637993E-03	7.147280E-05
5.783730E+03	1.646149E-03	7.176667E-05
5.793651E+03	1.654314E-03	7.206007E-05
5.803571E+03	1.662446E-03	7.235114E-05
5.813492E+03	1.670521E-03	7.263886E-05
5.823413E+03	1.678463E-03	7.291996E-05
5.833333E+03	1.686272E-03	7.319440E-05
5.843254E+03	1.693893E-03	7.345986E-05
5.853175E+03	1.701294E-03	7.371492E-05
5.863095E+03	1.708446E-03	7.395834E-05
5.873016E+03	1.715322E-03	7.418906E-05
5.882937E+03	1.721918E-03	7.440685E-05
5.892857E+03	1.728176E-03	7.460930E-05
5.902778E+03	1.734080E-03	7.479570E-05
5.912698E+03	1.739637E-03	7.496645E-05
5.922619E+03	1.744839E-03	7.512119E-05
5.932540E+03	1.749640E-03	7.525804E-05
5.942460E+03	1.754080E-03	7.537870E-05
5.952381E+03	1.758098E-03	7.548066E-05
5.962302E+03	1.761762E-03	7.556683E-05
5.972222E+03	1.765016E-03	7.563494E-05
5.982143E+03	1.767872E-03	7.568545E-05
5.992063E+03	1.770364E-03	7.571990E-05
6.001984E+03	1.772486E-03	7.573807E-05
6.011905E+03	1.774254E-03	7.574074E-05
6.021825E+03	1.775644E-03	7.572691E-05
6.031746E+03	1.776720E-03	7.569929E-05
6.041667E+03	1.777436E-03	7.565605E-05
6.051587E+03	1.777858E-03	7.559998E-05
6.061508E+03	1.777985E-03	7.553110E-05
6.071429E+03	1.777816E-03	7.544939E-05
6.081349E+03	1.777371E-03	7.535582E-05
6.091270E+03	1.776694E-03	7.525218E-05
6.101190E+03	1.775782E-03	7.513839E-05
6.111111E+03	1.774653E-03	7.501530E-05
6.121032E+03	1.773369E-03	7.488554E-05
6.130952E+03	1.771902E-03	7.474792E-05
6.140873E+03	1.770288E-03	7.460403E-05
6.150794E+03	1.768564E-03	7.445538E-05
6.160714E+03	1.766764E-03	7.430347E-05
6.170635E+03	1.764874E-03	7.414776E-05
6.180556E+03	1.762905E-03	7.398864E-05
6.190476E+03	1.760885E-03	7.382731E-05
6.200397E+03	1.758796E-03	7.366310E-05
6.210317E+03	1.756664E-03	7.349705E-05
6.220238E+03	1.754492E-03	7.332931E-05
6.230159E+03	1.752302E-03	7.316081E-05
6.240079E+03	1.750094E-03	7.299155E-05
6.250000E+03	1.747865E-03	7.282141E-05
6.259921E+03	1.745635E-03	7.265123E-05
6.269841E+03	1.743423E-03	7.248178E-05
6.279762E+03	1.741198E-03	7.231183E-05
6.289683E+03	1.738978E-03	7.214209E-05
6.299603E+03	1.736779E-03	7.197321E-05
6.309524E+03	1.734567E-03	7.180383E-05
6.319444E+03	1.732381E-03	7.163558E-05
6.329365E+03	1.730212E-03	7.146803E-05
6.339286E+03	1.728048E-03	7.130069E-05
6.349206E+03	1.725878E-03	7.113314E-05
6.359127E+03	1.723738E-03	7.096689E-05
6.369048E+03	1.721592E-03	7.080038E-05
6.378968E+03	1.719475E-03	7.063516E-05
6.388889E+03	1.717377E-03	7.047070E-05
6.398810E+03	1.715282E-03	7.030643E-05
6.408730E+03	1.713201E-03	7.014281E-05
6.418651E+03	1.711121E-03	6.997925E-05
6.428571E+03	1.709052E-03	6.981620E-05
6.438492E+03	1.706928E-03	6.965094E-05
6.448413E+03	1.704783E-03	6.948495E-05
6.458333E+03	1.702605E-03	6.931765E-05
6.468254E+03	1.700350E-03	6.914728E-05
6.478175E+03	1.698028E-03	6.897432E-05
6.488095E+03	1.695624E-03	6.879811E-05
6.498016E+03	1.693121E-03	6.861803E-05
6.507937E+03	1.690504E-03	6.843343E-05
6.517857E+03	1.687784E-03	6.824487E-05
6.527778E+03	1.684920E-03	6.805060E-05
6.537698E+03	1.681896E-03	6.785006E-05
6.547619E+03	1.678724E-03	6.764380E-05
6.557540E+03	1.675393E-03	6.743131E-05
6.567460E+03	1.671861E-03	6.721100E-05
6.577381E+03	1.668143E-03	6.698346E-05
6.587302E+03	1.664201E-03	6.674724E-05
6.597222E+03	1.660079E-03	6.650412E-05
6.607143E+03	1.655713E-03	6.625157E-05
6.617063E+03	1.651093E-03	6.598925E-05
6.626984E+03	1.646242E-03	6.571807E-05
6.636905E+03	1.641152E-03	6.543777E-05
6.646825E+03	1.635790E-03	6.514712E-05
6.656746E+03	1.630152E-03	6.484592E-05
6.666667E+03	1.624263E-03	6.453532E-05
6.676587E+03	1.618093E-03	6.421406E-05
6.686508E+03	1.611670E-03	6.388336E-05
6.696429E+03	1.604937E-03	6.354098E-05
6.706349E+03	1.597951E-03	6.318923E-05
6.716270E+03	1.590657E-03	6.282599E-05
6.726190E+03	1.583114E-03	6.245364E-05
6.736111E+03	1.575270E-03	6.207012E-05
6.746032E+03	1.567155E-03	6.167671E-05
6.755952E+03	1.558773E-03	6.127364E-05
6.765873E+03	1.550101E-03	6.085997E-05
6.775794E+03	1.541170E-03	6.043702E-05
6.785714E+03	1.531959E-03	6.000397E-05
6.795635E+03	1.522499E-03	5.956210E-05
6.805556E+03	1.512738E-03	5.910942E-05
6.815476E+03	1.502738E-03	5.864840E-05
6.825397E+03	1.492475E-03	5.817815E-05
6.835317E+03	1.481954E-03	5.769886E-05
6.845238E+03	1.471151E-03	5.720970E-05
6.855159E+03	1.460127E-03	5.671303E-05
6.865079E+03	1.448801E-03	5.620580E-05
6.875000E+03	1.437262E-03	5.569144E-05
6.884921E+03	1.425460E-03	5.516806E-05
6.894841E+03	1.413397E-03	5.463585E-05
6.904762E+03	1.401106E-03	5.409604E-05
6.914683E+03	1.388565E-03	5.354786E-05
6.924603E+03	1.375778E-03	5.299150E-05
6.934524E+03	1.362752E-03	5.242725E-05
6.944444E+03	1.349494E-03	5.185541E-05
6.954365E+03	1.336009E-03	5.127623E-05
6.964286E+03	1.322280E-03	5.068908E-05
6.974206E+03	1.308368E-03	5.009630E-05
6.984127E+03	1.294203E-03	4.949531E-05
6.994048E+03	1.279875E-03	4.888952E-05
7.003968E+03	1.265318E-03	4.827649E-05
7.013889E+03	1.250596E-03	4.765865E-05
7.023810E+03	1.235699E-03	4.703565E-05
7.033730E+03	1.220642E-03	4.640806E-05
7.043651E+03	1.205465E-03	4.577748E-05
7.053571E+03	1.190139E-03	4.514276E-05
7.063492E+03	1.174705E-03	4.450554E-05
7.073413E+03	1.159162E-03	4.386573E-05
7.083333E+03	1.143553E-03	4.322500E-05
7.093254E+03	1.127900E-03	4.258422E-05
7.103175E+03	1.112204E-03	4.194336E-05
7.113095E+03	1.096510E-03	4.130418E-05
7.123016E+03	1.080798E-03	4.066588E-05
7.132937E+03	1.065137E-03	4.003108E-05
7.142857E+03	1.049530E-03	3.939984E-05
7.152778E+03	1.033979E-03	3.877232E-05
7.162698E+03	1.018531E-03	3.815018E-05
7.172619E+03	1.003212E-03	3.753439E-05
7.182540E+03	9.880240E-04	3.692503E-05
7.192460E+03	9.729907E-04	3.632295E-05
7.202381E+03	9.581367E-04	3.572904E-05
7.212302E+03	9.434833E-04	3.514408E-05
7.222222E+03	9.290526E-04	3.456884E-05
7.232143E+03	9.148265E-04	3.400264E-05
7.242063E+03	9.008641E-04	3.344762E-05
7.251984E+03	8.871637E-04	3.290370E-05
7.261905E+03	8.737253E-04	3.237083E-05
7.271825E+03	8.605826E-04	3.185022E-05
7.281746E+03	8.477151E-04	3.134108E-05
7.291667E+03	8.351370E-04	3.084389E-05
7.301587E+03	8.228609E-04	3.035907E-05
7.311508E+03	8.108819E-04	2.988641E-05
7.321429E+03	7.992274E-04	2.942687E-05
7.331349E+03	7.878563E-04	2.897891E-05
7.341270E+03	7.768104E-04	2.854401E-05
7.351190E+03	7.660632E-04	2.812116E-05
7.361111E+03	7.556376E-04	2.771117E-05
7.371032E+03	7.455232E-04	2.731361E-05
7.380952E+03	7.357233E-04	2.692856E-05
7.390873E+03	7.262568E-04	2.655668E-05
7.400794E+03	7.171104E-04	2.619744E-05
7.410714E+03	7.083311E-04	2.585251E-05
7.420635E+03	6.998886E-04	2.552075E-05
7.430556E+03	6.918128E-04	2.520321E-05
7.440476E+03	6.840881E-04	2.489927E-05
7.450397E+03	6.767581E-04	2.461048E-05
7.460317E+03	6.698061E-04	2.433621E-05
7.470238E+03	6.632313E-04	2.407636E-05
7.480159E+03	6.570472E-04	2.383140E-05
7.490079E+03	6.512536E-04	2.360128E-05
7.500000E+03	6.458798E-04	2.338701E-05
7.509921E+03	6.408985E-04	2.318756E-05
7.519841E+03	6.363268E-04	2.300351E-05
7.529762E+03	6.321829E-04	2.283547E-05
7.539683E+03	6.284580E-04	2.268307E-05
7.549603E+03	6.251730E-04	2.254702E-05
7.559524E+03	6.223209E-04	2.242704E-05
7.569444E+03	6.199361E-04	2.232431E-05
7.579365E+03	6.179923E-04	2.223786E-05
7.589286E+03	6.165072E-04	2.216826E-05
7.599206E+03	6.154296E-04	2.211365E-05
7.609127E+03	6.147574E-04	2.207392E-05
7.619048E+03	6.144313E-04	2.204690E-05
7.628968E+03	6.144488E-04	2.203247E-05
7.638889E+03	6.147671E-04	2.202907E-05
7.648810E+03	6.153593E-04	2.203573E-05
7.658730E+03	6.162005E-04	2.205152E-05
7.668651E+03	6.172681E-04	2.207561E-05
7.678571E+03	6.185410E-04	2.210725E-05
7.688492E+03	6.199857E-04	2.214521E-05
7.698413E+03	6.216138E-04	2.218990E-05
