#wls	flux	fluxerr
1.587302E+03	8.848418E-05	5.550352E-06
1.626984E+03	8.889367E-05	5.527321E-06
1.666667E+03	8.950078E-05	5.515034E-06
1.706349E+03	9.031090E-05	5.513462E-06
1.746032E+03	9.133864E-05	5.523109E-06
1.785714E+03	9.260701E-05	5.544933E-06
1.825397E+03	9.410931E-05	5.578061E-06
1.865079E+03	9.587943E-05	5.624004E-06
1.904762E+03	9.793002E-05	5.682941E-06
1.944444E+03	1.002766E-04	5.755165E-06
1.984127E+03	1.029312E-04	5.840711E-06
2.023810E+03	1.059168E-04	5.940185E-06
2.063492E+03	1.092469E-04	6.053580E-06
2.103175E+03	1.129267E-04	6.180388E-06
2.142857E+03	1.169883E-04	6.321509E-06
2.182540E+03	1.214429E-04	6.476631E-06
2.222222E+03	1.263158E-04	6.646123E-06
2.261905E+03	1.316539E-04	6.831386E-06
2.301587E+03	1.375261E-04	7.034794E-06
2.341270E+03	1.440322E-04	7.260050E-06
2.380952E+03	1.512921E-04	7.511527E-06
2.420635E+03	1.594425E-04	7.794037E-06
2.460317E+03	1.686622E-04	8.113967E-06
2.500000E+03	1.791364E-04	8.477420E-06
2.539683E+03	1.910981E-04	8.892101E-06
2.579365E+03	2.048005E-04	9.365879E-06
2.619048E+03	2.205559E-04	9.908420E-06
2.658730E+03	2.387247E-04	1.053048E-05
2.698413E+03	2.597454E-04	1.124502E-05
2.738095E+03	2.841547E-04	1.206771E-05
2.777778E+03	3.126023E-04	1.301718E-05
2.817460E+03	3.458909E-04	1.411620E-05
2.857143E+03	3.850367E-04	1.539354E-05
2.896825E+03	4.312846E-04	1.688367E-05
2.936508E+03	4.862516E-04	1.863148E-05
2.976190E+03	5.519353E-04	2.069119E-05
2.986111E+03	5.703320E-04	2.126314E-05
2.996032E+03	5.895931E-04	2.185972E-05
3.005952E+03	6.097654E-04	2.248216E-05
3.015873E+03	6.309268E-04	2.313280E-05
3.025794E+03	6.531173E-04	2.381253E-05
3.035714E+03	6.763939E-04	2.452282E-05
3.045635E+03	7.008321E-04	2.526578E-05
3.055556E+03	7.264814E-04	2.604255E-05
3.065476E+03	7.534097E-04	2.685485E-05
3.075397E+03	7.817213E-04	2.770568E-05
3.085317E+03	8.114616E-04	2.859586E-05
3.095238E+03	8.427285E-04	2.952806E-05
3.105159E+03	8.755918E-04	3.050387E-05
3.115079E+03	9.101948E-04	3.152738E-05
3.125000E+03	9.465834E-04	3.259926E-05
3.134921E+03	9.848770E-04	3.372263E-05
3.144841E+03	1.025205E-03	3.490090E-05
3.154762E+03	1.067682E-03	3.613689E-05
3.164683E+03	1.112391E-03	3.743226E-05
3.174603E+03	1.159520E-03	3.879216E-05
3.184524E+03	1.209163E-03	4.021852E-05
3.194444E+03	1.261483E-03	4.171545E-05
3.204365E+03	1.316606E-03	4.328573E-05
3.214286E+03	1.374708E-03	4.493380E-05
3.224206E+03	1.435953E-03	4.666348E-05
3.234127E+03	1.500506E-03	4.847868E-05
3.244048E+03	1.568518E-03	5.038257E-05
3.253968E+03	1.640190E-03	5.238010E-05
3.263889E+03	1.715706E-03	5.447533E-05
3.273810E+03	1.795224E-03	5.667154E-05
3.283730E+03	1.878956E-03	5.897366E-05
3.293651E+03	1.967061E-03	6.138478E-05
3.303571E+03	2.059753E-03	6.390971E-05
3.313492E+03	2.157179E-03	6.655104E-05
3.323413E+03	2.259509E-03	6.931208E-05
3.333333E+03	2.366900E-03	7.219570E-05
3.343254E+03	2.479494E-03	7.520422E-05
3.353175E+03	2.597413E-03	7.833940E-05
3.363095E+03	2.720712E-03	8.160098E-05
3.373016E+03	2.849496E-03	8.499025E-05
3.382937E+03	2.983711E-03	8.850371E-05
3.392857E+03	3.123424E-03	9.214174E-05
3.402778E+03	3.268496E-03	9.589859E-05
3.412698E+03	3.418822E-03	9.976975E-05
3.422619E+03	3.574264E-03	1.037499E-04
3.432540E+03	3.734605E-03	1.078316E-04
3.442460E+03	3.899716E-03	1.120103E-04
3.452381E+03	4.069390E-03	1.162793E-04
3.462302E+03	4.243485E-03	1.206340E-04
3.472222E+03	4.422006E-03	1.250741E-04
3.482143E+03	4.604965E-03	1.295998E-04
3.492063E+03	4.792547E-03	1.342159E-04
3.501984E+03	4.984741E-03	1.389220E-04
3.511905E+03	5.181802E-03	1.437252E-04
3.521825E+03	5.383885E-03	1.486297E-04
3.531746E+03	5.591218E-03	1.536420E-04
3.541667E+03	5.803900E-03	1.587647E-04
3.551587E+03	6.022084E-03	1.640023E-04
3.561508E+03	6.246061E-03	1.693629E-04
3.571429E+03	6.475820E-03	1.748467E-04
3.581349E+03	6.711626E-03	1.804611E-04
3.591270E+03	6.953579E-03	1.862095E-04
3.601190E+03	7.201676E-03	1.920923E-04
3.611111E+03	7.455955E-03	1.981116E-04
3.621032E+03	7.716509E-03	2.042702E-04
3.630952E+03	7.983227E-03	2.105656E-04
3.640873E+03	8.256225E-03	2.170011E-04
3.650794E+03	8.535225E-03	2.235698E-04
3.660714E+03	8.820181E-03	2.302707E-04
3.670635E+03	9.110908E-03	2.370996E-04
3.680556E+03	9.407279E-03	2.440536E-04
3.690476E+03	9.708922E-03	2.511238E-04
3.700397E+03	1.001563E-02	2.583053E-04
3.710317E+03	1.032701E-02	2.655890E-04
3.720238E+03	1.064277E-02	2.729679E-04
3.730159E+03	1.096244E-02	2.804306E-04
3.740079E+03	1.128559E-02	2.879675E-04
3.750000E+03	1.161165E-02	2.955645E-04
3.759921E+03	1.193999E-02	3.032070E-04
3.769841E+03	1.227028E-02	3.108871E-04
3.779762E+03	1.260152E-02	3.185812E-04
3.789683E+03	1.293317E-02	3.262763E-04
3.799603E+03	1.326465E-02	3.339588E-04
3.809524E+03	1.359490E-02	3.416036E-04
3.819444E+03	1.392313E-02	3.491917E-04
3.829365E+03	1.424858E-02	3.567055E-04
3.839286E+03	1.457036E-02	3.641236E-04
3.849206E+03	1.488752E-02	3.714236E-04
3.859127E+03	1.519892E-02	3.785782E-04
3.869048E+03	1.550370E-02	3.855670E-04
3.878968E+03	1.580081E-02	3.923655E-04
3.888889E+03	1.608926E-02	3.989500E-04
3.898810E+03	1.636803E-02	4.052961E-04
3.908730E+03	1.663614E-02	4.113811E-04
3.918651E+03	1.689280E-02	4.171862E-04
3.928571E+03	1.713710E-02	4.226898E-04
3.938492E+03	1.736801E-02	4.278676E-04
3.948413E+03	1.758500E-02	4.327076E-04
3.958333E+03	1.778714E-02	4.371875E-04
3.968254E+03	1.797391E-02	4.412952E-04
3.978175E+03	1.814469E-02	4.450165E-04
3.988095E+03	1.829883E-02	4.483361E-04
3.998016E+03	1.843630E-02	4.512538E-04
4.007937E+03	1.855679E-02	4.537625E-04
4.017857E+03	1.866046E-02	4.558665E-04
4.027778E+03	1.874750E-02	4.575713E-04
4.037698E+03	1.881831E-02	4.588863E-04
4.047619E+03	1.887342E-02	4.598252E-04
4.057540E+03	1.891370E-02	4.604093E-04
4.067460E+03	1.893982E-02	4.606551E-04
4.077381E+03	1.895273E-02	4.605857E-04
4.087302E+03	1.895384E-02	4.602352E-04
4.097222E+03	1.894399E-02	4.596239E-04
4.107143E+03	1.892457E-02	4.587855E-04
4.117063E+03	1.889685E-02	4.577507E-04
4.126984E+03	1.886217E-02	4.565515E-04
4.136905E+03	1.882185E-02	4.552199E-04
4.146825E+03	1.877724E-02	4.537880E-04
4.156746E+03	1.872969E-02	4.522878E-04
4.166667E+03	1.868048E-02	4.507502E-04
4.176587E+03	1.863089E-02	4.492054E-04
4.186508E+03	1.858215E-02	4.476825E-04
4.196429E+03	1.853527E-02	4.462056E-04
4.206349E+03	1.849139E-02	4.448012E-04
4.216270E+03	1.845177E-02	4.434991E-04
4.226190E+03	1.841744E-02	4.423237E-04
4.236111E+03	1.838907E-02	4.412905E-04
4.246032E+03	1.836778E-02	4.404251E-04
4.255952E+03	1.835441E-02	4.397476E-04
4.265873E+03	1.834977E-02	4.392764E-04
4.275794E+03	1.835455E-02	4.390272E-04
4.285714E+03	1.836920E-02	4.390099E-04
4.295635E+03	1.839451E-02	4.392429E-04
4.305556E+03	1.843057E-02	4.397274E-04
4.315476E+03	1.847795E-02	4.404761E-04
4.325397E+03	1.853682E-02	4.414923E-04
4.335317E+03	1.860735E-02	4.427791E-04
4.345238E+03	1.868943E-02	4.443333E-04
4.355159E+03	1.878305E-02	4.461537E-04
4.365079E+03	1.888790E-02	4.482321E-04
4.375000E+03	1.900386E-02	4.505650E-04
4.384921E+03	1.913045E-02	4.531404E-04
4.394841E+03	1.926704E-02	4.559423E-04
4.404762E+03	1.941321E-02	4.589605E-04
4.414683E+03	1.956812E-02	4.621744E-04
4.424603E+03	1.973091E-02	4.655632E-04
4.434524E+03	1.990077E-02	4.691075E-04
4.444444E+03	2.007619E-02	4.727713E-04
4.454365E+03	2.025602E-02	4.765274E-04
4.464286E+03	2.043873E-02	4.803397E-04
4.474206E+03	2.062244E-02	4.841642E-04
4.484127E+03	2.080525E-02	4.879565E-04
4.494048E+03	2.098509E-02	4.916684E-04
4.503968E+03	2.115969E-02	4.952475E-04
4.513889E+03	2.132664E-02	4.986382E-04
4.523810E+03	2.148320E-02	5.017776E-04
4.533730E+03	2.162654E-02	5.046008E-04
4.543651E+03	2.175438E-02	5.070562E-04
4.553571E+03	2.186362E-02	5.090735E-04
4.563492E+03	2.195141E-02	5.105881E-04
4.573413E+03	2.201542E-02	5.115482E-04
4.583333E+03	2.205333E-02	5.119024E-04
4.593254E+03	2.206245E-02	5.115908E-04
4.603175E+03	2.204174E-02	5.105919E-04
4.613095E+03	2.198919E-02	5.088624E-04
4.623016E+03	2.190470E-02	5.064026E-04
4.632937E+03	2.178825E-02	5.032151E-04
4.642857E+03	2.164062E-02	4.993207E-04
4.652778E+03	2.146345E-02	4.947599E-04
4.662698E+03	2.125921E-02	4.895921E-04
4.672619E+03	2.103158E-02	4.839044E-04
4.682540E+03	2.078426E-02	4.777836E-04
4.692460E+03	2.052168E-02	4.713335E-04
4.702381E+03	2.024879E-02	4.646687E-04
4.712302E+03	1.997007E-02	4.578929E-04
4.722222E+03	1.969088E-02	4.511298E-04
4.732143E+03	1.941514E-02	4.444692E-04
4.742063E+03	1.914722E-02	4.380112E-04
4.751984E+03	1.889047E-02	4.318324E-04
4.761905E+03	1.864717E-02	4.259843E-04
4.771825E+03	1.841934E-02	4.205125E-04
4.781746E+03	1.820822E-02	4.154452E-04
4.791667E+03	1.801372E-02	4.107795E-04
4.801587E+03	1.783562E-02	4.065090E-04
4.811508E+03	1.767284E-02	4.026078E-04
4.821429E+03	1.752376E-02	3.990372E-04
4.831349E+03	1.738776E-02	3.957819E-04
4.841270E+03	1.726500E-02	3.928445E-04
4.851190E+03	1.715499E-02	3.902125E-04
4.861111E+03	1.705745E-02	3.878787E-04
4.871032E+03	1.697148E-02	3.858214E-04
4.880952E+03	1.689657E-02	3.840283E-04
4.890873E+03	1.683200E-02	3.824822E-04
4.900794E+03	1.677681E-02	3.811605E-04
4.910714E+03	1.673032E-02	3.800473E-04
4.920635E+03	1.669155E-02	3.791197E-04
4.930556E+03	1.665982E-02	3.783615E-04
4.940476E+03	1.663420E-02	3.777510E-04
4.950397E+03	1.661394E-02	3.772710E-04
4.960317E+03	1.659823E-02	3.769023E-04
4.970238E+03	1.658681E-02	3.766389E-04
4.980159E+03	1.657895E-02	3.764636E-04
4.990079E+03	1.657436E-02	3.763696E-04
5.000000E+03	1.657308E-02	3.763575E-04
5.009921E+03	1.657495E-02	3.764230E-04
5.019841E+03	1.658004E-02	3.765678E-04
5.029762E+03	1.658850E-02	3.767948E-04
5.039683E+03	1.660052E-02	3.771078E-04
5.049603E+03	1.661608E-02	3.775067E-04
5.059524E+03	1.663532E-02	3.779940E-04
5.069444E+03	1.665844E-02	3.785741E-04
5.079365E+03	1.668503E-02	3.792377E-04
5.089286E+03	1.671518E-02	3.799862E-04
5.099206E+03	1.674793E-02	3.807981E-04
5.109127E+03	1.678292E-02	3.816648E-04
5.119048E+03	1.681913E-02	3.825630E-04
5.128968E+03	1.685556E-02	3.834699E-04
5.138889E+03	1.689114E-02	3.843611E-04
5.148810E+03	1.692461E-02	3.852073E-04
5.158730E+03	1.695487E-02	3.859838E-04
5.168651E+03	1.698067E-02	3.866616E-04
5.178571E+03	1.700131E-02	3.872248E-04
5.188492E+03	1.701528E-02	3.876389E-04
5.198413E+03	1.702186E-02	3.878870E-04
5.208333E+03	1.702025E-02	3.879509E-04
5.218254E+03	1.700981E-02	3.878157E-04
5.228175E+03	1.698973E-02	3.874628E-04
5.238095E+03	1.695995E-02	3.868904E-04
5.248016E+03	1.692029E-02	3.860942E-04
5.257937E+03	1.687091E-02	3.850775E-04
5.267857E+03	1.681205E-02	3.838449E-04
5.277778E+03	1.674446E-02	3.824127E-04
5.287698E+03	1.666850E-02	3.807887E-04
5.297619E+03	1.658501E-02	3.789912E-04
5.307540E+03	1.649466E-02	3.770350E-04
5.317460E+03	1.639846E-02	3.749427E-04
5.327381E+03	1.629671E-02	3.727206E-04
5.337302E+03	1.619030E-02	3.703883E-04
5.347222E+03	1.607970E-02	3.679565E-04
5.357143E+03	1.596528E-02	3.654331E-04
5.367063E+03	1.584698E-02	3.628163E-04
5.376984E+03	1.572478E-02	3.601052E-04
5.386905E+03	1.559791E-02	3.572821E-04
5.396825E+03	1.546493E-02	3.543137E-04
5.406746E+03	1.532511E-02	3.511826E-04
5.416667E+03	1.517733E-02	3.478635E-04
5.426587E+03	1.502098E-02	3.443415E-04
5.436508E+03	1.485631E-02	3.406226E-04
5.446429E+03	1.468318E-02	3.367035E-04
5.456349E+03	1.450227E-02	3.325993E-04
5.466270E+03	1.431409E-02	3.283220E-04
5.476190E+03	1.411987E-02	3.238995E-04
5.486111E+03	1.392035E-02	3.193490E-04
5.496032E+03	1.371696E-02	3.147035E-04
5.505952E+03	1.351113E-02	3.099958E-04
5.515873E+03	1.330497E-02	3.052745E-04
5.525794E+03	1.310028E-02	3.005811E-04
5.535714E+03	1.289937E-02	2.959686E-04
5.545635E+03	1.270457E-02	2.914908E-04
5.555556E+03	1.251861E-02	2.872110E-04
5.565476E+03	1.234390E-02	2.831841E-04
5.575397E+03	1.218310E-02	2.794713E-04
5.585317E+03	1.203874E-02	2.761312E-04
5.595238E+03	1.191313E-02	2.732166E-04
5.605159E+03	1.180849E-02	2.707785E-04
5.615079E+03	1.172655E-02	2.688568E-04
5.625000E+03	1.166903E-02	2.674905E-04
5.634921E+03	1.163734E-02	2.667119E-04
5.644841E+03	1.163243E-02	2.665427E-04
5.654762E+03	1.165492E-02	2.669966E-04
5.664683E+03	1.170504E-02	2.680788E-04
5.674603E+03	1.178290E-02	2.697912E-04
5.684524E+03	1.188766E-02	2.721144E-04
5.694444E+03	1.201857E-02	2.750306E-04
5.704365E+03	1.217414E-02	2.785053E-04
5.714286E+03	1.235226E-02	2.824898E-04
5.724206E+03	1.255056E-02	2.869295E-04
5.734127E+03	1.276615E-02	2.917581E-04
5.744048E+03	1.299539E-02	2.968921E-04
5.753968E+03	1.323434E-02	3.022409E-04
5.763889E+03	1.347896E-02	3.077127E-04
5.773810E+03	1.372444E-02	3.131978E-04
5.783730E+03	1.396625E-02	3.185926E-04
5.793651E+03	1.419981E-02	3.237934E-04
5.803571E+03	1.442069E-02	3.286996E-04
5.813492E+03	1.462499E-02	3.332233E-04
5.823413E+03	1.480886E-02	3.372771E-04
5.833333E+03	1.496967E-02	3.408027E-04
5.843254E+03	1.510497E-02	3.437453E-04
5.853175E+03	1.521320E-02	3.460702E-04
5.863095E+03	1.529348E-02	3.477593E-04
5.873016E+03	1.534559E-02	3.488085E-04
5.882937E+03	1.537004E-02	3.492307E-04
5.892857E+03	1.536734E-02	3.490389E-04
5.902778E+03	1.533873E-02	3.482625E-04
5.912698E+03	1.528595E-02	3.469419E-04
5.922619E+03	1.521072E-02	3.451176E-04
5.932540E+03	1.511458E-02	3.428255E-04
5.942460E+03	1.499977E-02	3.401172E-04
5.952381E+03	1.486768E-02	3.370249E-04
5.962302E+03	1.472069E-02	3.336039E-04
5.972222E+03	1.456016E-02	3.298850E-04
5.982143E+03	1.438791E-02	3.259103E-04
5.992063E+03	1.420599E-02	3.217267E-04
6.001984E+03	1.401616E-02	3.173743E-04
6.011905E+03	1.382038E-02	3.128982E-04
6.021825E+03	1.362042E-02	3.083381E-04
6.031746E+03	1.341873E-02	3.037502E-04
6.041667E+03	1.321700E-02	2.991724E-04
6.051587E+03	1.301770E-02	2.946611E-04
6.061508E+03	1.282274E-02	2.902592E-04
6.071429E+03	1.263394E-02	2.860080E-04
6.081349E+03	1.245302E-02	2.819467E-04
6.091270E+03	1.228162E-02	2.781123E-04
6.101190E+03	1.212069E-02	2.745265E-04
6.111111E+03	1.197098E-02	2.712060E-04
6.121032E+03	1.183307E-02	2.681637E-04
6.130952E+03	1.170659E-02	2.653898E-04
6.140873E+03	1.159119E-02	2.628760E-04
6.150794E+03	1.148618E-02	2.606061E-04
6.160714E+03	1.139104E-02	2.585676E-04
6.170635E+03	1.130552E-02	2.567541E-04
6.180556E+03	1.122931E-02	2.551584E-04
6.190476E+03	1.116203E-02	2.537713E-04
6.200397E+03	1.110277E-02	2.525716E-04
6.210317E+03	1.105070E-02	2.515402E-04
6.220238E+03	1.100471E-02	2.506512E-04
6.230159E+03	1.096369E-02	2.498793E-04
6.240079E+03	1.092635E-02	2.491945E-04
6.250000E+03	1.089140E-02	2.485668E-04
6.259921E+03	1.085776E-02	2.479711E-04
6.269841E+03	1.082445E-02	2.473846E-04
6.279762E+03	1.079036E-02	2.467813E-04
6.289683E+03	1.075486E-02	2.461462E-04
6.299603E+03	1.071753E-02	2.454690E-04
6.309524E+03	1.067788E-02	2.447378E-04
6.319444E+03	1.063610E-02	2.439565E-04
6.329365E+03	1.059230E-02	2.431271E-04
6.339286E+03	1.054681E-02	2.422561E-04
6.349206E+03	1.050010E-02	2.413543E-04
6.359127E+03	1.045308E-02	2.404420E-04
6.369048E+03	1.040630E-02	2.395311E-04
6.378968E+03	1.036079E-02	2.386452E-04
6.388889E+03	1.031728E-02	2.378008E-04
6.398810E+03	1.027645E-02	2.370133E-04
6.408730E+03	1.023909E-02	2.363005E-04
6.418651E+03	1.020572E-02	2.356743E-04
6.428571E+03	1.017691E-02	2.351477E-04
6.438492E+03	1.015266E-02	2.347206E-04
6.448413E+03	1.013345E-02	2.344039E-04
6.458333E+03	1.011933E-02	2.341987E-04
6.468254E+03	1.011008E-02	2.340996E-04
6.478175E+03	1.010566E-02	2.341057E-04
6.488095E+03	1.010574E-02	2.342091E-04
6.498016E+03	1.010982E-02	2.343980E-04
6.507937E+03	1.011721E-02	2.346563E-04
6.517857E+03	1.012725E-02	2.349683E-04
6.527778E+03	1.013883E-02	2.353082E-04
6.537698E+03	1.015093E-02	2.356520E-04
6.547619E+03	1.016267E-02	2.359789E-04
6.557540E+03	1.017300E-02	2.362643E-04
6.567460E+03	1.018072E-02	2.364800E-04
6.577381E+03	1.018501E-02	2.366066E-04
6.587302E+03	1.018478E-02	2.366188E-04
6.597222E+03	1.017958E-02	2.365057E-04
6.607143E+03	1.016838E-02	2.362433E-04
6.617063E+03	1.015067E-02	2.358194E-04
6.626984E+03	1.012628E-02	2.352302E-04
6.636905E+03	1.009504E-02	2.344715E-04
6.646825E+03	1.005672E-02	2.335383E-04
6.656746E+03	1.001141E-02	2.324326E-04
6.666667E+03	9.959482E-03	2.311629E-04
6.676587E+03	9.901086E-03	2.297333E-04
6.686508E+03	9.836885E-03	2.281592E-04
6.696429E+03	9.767150E-03	2.264472E-04
6.706349E+03	9.692971E-03	2.246230E-04
6.716270E+03	9.614859E-03	2.226986E-04
6.726190E+03	9.534103E-03	2.207043E-04
6.736111E+03	9.451355E-03	2.186554E-04
6.746032E+03	9.367820E-03	2.165803E-04
6.755952E+03	9.284533E-03	2.145031E-04
6.765873E+03	9.202325E-03	2.124432E-04
6.775794E+03	9.122314E-03	2.104268E-04
6.785714E+03	9.045194E-03	2.084699E-04
6.795635E+03	8.971873E-03	2.065937E-04
6.805556E+03	8.902617E-03	2.048042E-04
6.815476E+03	8.838218E-03	2.031197E-04
6.825397E+03	8.778830E-03	2.015436E-04
6.835317E+03	8.724641E-03	2.000803E-04
6.845238E+03	8.675553E-03	1.987274E-04
6.855159E+03	8.631850E-03	1.974911E-04
6.865079E+03	8.592896E-03	1.963568E-04
6.875000E+03	8.558952E-03	1.953303E-04
6.884921E+03	8.529383E-03	1.943969E-04
6.894841E+03	8.503812E-03	1.935478E-04
6.904762E+03	8.481972E-03	1.927769E-04
6.914683E+03	8.463209E-03	1.920692E-04
6.924603E+03	8.446993E-03	1.914126E-04
6.934524E+03	8.432755E-03	1.907942E-04
6.944444E+03	8.419897E-03	1.902005E-04
6.954365E+03	8.407799E-03	1.896177E-04
6.964286E+03	8.395668E-03	1.890281E-04
6.974206E+03	8.383212E-03	1.884253E-04
6.984127E+03	8.369319E-03	1.877847E-04
6.994048E+03	8.353895E-03	1.871048E-04
7.003968E+03	8.335873E-03	1.863620E-04
7.013889E+03	8.315053E-03	1.855527E-04
7.023810E+03	8.290771E-03	1.846627E-04
7.033730E+03	8.262579E-03	1.836828E-04
7.043651E+03	8.230247E-03	1.826088E-04
7.053571E+03	8.193108E-03	1.814268E-04
7.063492E+03	8.151051E-03	1.801354E-04
7.073413E+03	8.103711E-03	1.787276E-04
7.083333E+03	8.051111E-03	1.772051E-04
7.093254E+03	7.993148E-03	1.755666E-04
7.103175E+03	7.929608E-03	1.738088E-04
7.113095E+03	7.860649E-03	1.719362E-04
7.123016E+03	7.786011E-03	1.699443E-04
7.132937E+03	7.706161E-03	1.678446E-04
7.142857E+03	7.621157E-03	1.656395E-04
7.152778E+03	7.531144E-03	1.633332E-04
7.162698E+03	7.436653E-03	1.609384E-04
7.172619E+03	7.338123E-03	1.584656E-04
7.182540E+03	7.235904E-03	1.559234E-04
7.192460E+03	7.130550E-03	1.533244E-04
7.202381E+03	7.022656E-03	1.506823E-04
7.212302E+03	6.912858E-03	1.480114E-04
7.222222E+03	6.801822E-03	1.453265E-04
7.232143E+03	6.689971E-03	1.426371E-04
7.242063E+03	6.578315E-03	1.399651E-04
7.251984E+03	6.467462E-03	1.373236E-04
7.261905E+03	6.358031E-03	1.347259E-04
7.271825E+03	6.250894E-03	1.321905E-04
7.281746E+03	6.146479E-03	1.297263E-04
7.291667E+03	6.045447E-03	1.273471E-04
7.301587E+03	5.948413E-03	1.250655E-04
7.311508E+03	5.855824E-03	1.228907E-04
7.321429E+03	5.768328E-03	1.208357E-04
7.331349E+03	5.686032E-03	1.189025E-04
7.341270E+03	5.609601E-03	1.171044E-04
7.351190E+03	5.539149E-03	1.154434E-04
7.361111E+03	5.475075E-03	1.139272E-04
7.371032E+03	5.417470E-03	1.125573E-04
7.380952E+03	5.366461E-03	1.113357E-04
7.390873E+03	5.322208E-03	1.102655E-04
7.400794E+03	5.284576E-03	1.093434E-04
7.410714E+03	5.253809E-03	1.085742E-04
7.420635E+03	5.229523E-03	1.079495E-04
7.430556E+03	5.211723E-03	1.074693E-04
7.440476E+03	5.200013E-03	1.071253E-04
7.450397E+03	5.194376E-03	1.069170E-04
7.460317E+03	5.194271E-03	1.068333E-04
7.470238E+03	5.199197E-03	1.068641E-04
7.480159E+03	5.208693E-03	1.070000E-04
7.490079E+03	5.222117E-03	1.072277E-04
7.500000E+03	5.238992E-03	1.075369E-04
7.509921E+03	5.258315E-03	1.079069E-04
7.519841E+03	5.279387E-03	1.083229E-04
7.529762E+03	5.301472E-03	1.087698E-04
7.539683E+03	5.323563E-03	1.092264E-04
7.549603E+03	5.344880E-03	1.096766E-04
7.559524E+03	5.364420E-03	1.100995E-04
7.569444E+03	5.381587E-03	1.104826E-04
7.579365E+03	5.395361E-03	1.108045E-04
7.589286E+03	5.405420E-03	1.110584E-04
7.599206E+03	5.411244E-03	1.112329E-04
7.609127E+03	5.412930E-03	1.113297E-04
7.619048E+03	5.410190E-03	1.113423E-04
7.628968E+03	5.403321E-03	1.112761E-04
7.638889E+03	5.392316E-03	1.111306E-04
7.648810E+03	5.377339E-03	1.109085E-04
7.658730E+03	5.358592E-03	1.106133E-04
7.668651E+03	5.336287E-03	1.102489E-04
7.678571E+03	5.310652E-03	1.098192E-04
7.688492E+03	5.281791E-03	1.093259E-04
7.698413E+03	5.250181E-03	1.087782E-04
