#wls	flux	fluxerr
1.587302E+03	9.870408E-05	1.282882E-05
1.626984E+03	9.873172E-05	1.270256E-05
1.666667E+03	9.897426E-05	1.260046E-05
1.706349E+03	9.943494E-05	1.252201E-05
1.746032E+03	1.001269E-04	1.246784E-05
1.785714E+03	1.010724E-04	1.243964E-05
1.825397E+03	1.022610E-04	1.243488E-05
1.865079E+03	1.037261E-04	1.245637E-05
1.904762E+03	1.054777E-04	1.250386E-05
1.944444E+03	1.075292E-04	1.257739E-05
1.984127E+03	1.098889E-04	1.267627E-05
2.023810E+03	1.125777E-04	1.280113E-05
2.063492E+03	1.156054E-04	1.295115E-05
2.103175E+03	1.189735E-04	1.312445E-05
2.142857E+03	1.227109E-04	1.332212E-05
2.182540E+03	1.268248E-04	1.354256E-05
2.222222E+03	1.313369E-04	1.378566E-05
2.261905E+03	1.362904E-04	1.405327E-05
2.301587E+03	1.417512E-04	1.434912E-05
2.341270E+03	1.478152E-04	1.467940E-05
2.380952E+03	1.545975E-04	1.505130E-05
2.420635E+03	1.622282E-04	1.547247E-05
2.460317E+03	1.708781E-04	1.595317E-05
2.500000E+03	1.807213E-04	1.650250E-05
2.539683E+03	1.919769E-04	1.713198E-05
2.579365E+03	2.048809E-04	1.785265E-05
2.619048E+03	2.197235E-04	1.867796E-05
2.658730E+03	2.368378E-04	1.962234E-05
2.698413E+03	2.566282E-04	2.070288E-05
2.738095E+03	2.795877E-04	2.194000E-05
2.777778E+03	3.063108E-04	2.335741E-05
2.817460E+03	3.375291E-04	2.498363E-05
2.857143E+03	3.741659E-04	2.685452E-05
2.896825E+03	4.173448E-04	2.901176E-05
2.936508E+03	4.685201E-04	3.150964E-05
2.976190E+03	5.294724E-04	3.441141E-05
2.986111E+03	5.465064E-04	3.520980E-05
2.996032E+03	5.643229E-04	3.603916E-05
3.005952E+03	5.829630E-04	3.690083E-05
3.015873E+03	6.024968E-04	3.779793E-05
3.025794E+03	6.229582E-04	3.873112E-05
3.035714E+03	6.443965E-04	3.970202E-05
3.045635E+03	6.668784E-04	4.071315E-05
3.055556E+03	6.904453E-04	4.176542E-05
3.065476E+03	7.151557E-04	4.286065E-05
3.075397E+03	7.411017E-04	4.400259E-05
3.085317E+03	7.683193E-04	4.519146E-05
3.095238E+03	7.968931E-04	4.643031E-05
3.105159E+03	8.268806E-04	4.772041E-05
3.115079E+03	8.584084E-04	4.906695E-05
3.125000E+03	8.915096E-04	5.046953E-05
3.134921E+03	9.262859E-04	5.193159E-05
3.144841E+03	9.628468E-04	5.345683E-05
3.154762E+03	1.001288E-03	5.504797E-05
3.164683E+03	1.041673E-03	5.670588E-05
3.174603E+03	1.084162E-03	5.843655E-05
3.184524E+03	1.128831E-03	6.024106E-05
3.194444E+03	1.175810E-03	6.212353E-05
3.204365E+03	1.225201E-03	6.408617E-05
3.214286E+03	1.277147E-03	6.613335E-05
3.224206E+03	1.331779E-03	6.826846E-05
3.234127E+03	1.389230E-03	7.049498E-05
3.244048E+03	1.449614E-03	7.281514E-05
3.253968E+03	1.513093E-03	7.523361E-05
3.263889E+03	1.579810E-03	7.775383E-05
3.273810E+03	1.649886E-03	8.037797E-05
3.283730E+03	1.723488E-03	8.311051E-05
3.293651E+03	1.800736E-03	8.595339E-05
3.303571E+03	1.881802E-03	8.891097E-05
3.313492E+03	1.966795E-03	9.198463E-05
3.323413E+03	2.055850E-03	9.517690E-05
3.333333E+03	2.149094E-03	9.848998E-05
3.343254E+03	2.246648E-03	1.019257E-04
3.353175E+03	2.348620E-03	1.054856E-04
3.363095E+03	2.455074E-03	1.091691E-04
3.373016E+03	2.566131E-03	1.129784E-04
3.382937E+03	2.681787E-03	1.169104E-04
3.392857E+03	2.802173E-03	1.209684E-04
3.402778E+03	2.927259E-03	1.251485E-04
3.412698E+03	3.057080E-03	1.294503E-04
3.422619E+03	3.191664E-03	1.338734E-04
3.432540E+03	3.330995E-03	1.384160E-04
3.442460E+03	3.475149E-03	1.430804E-04
3.452381E+03	3.624116E-03	1.478658E-04
3.462302E+03	3.777889E-03	1.527720E-04
3.472222E+03	3.936512E-03	1.578013E-04
3.482143E+03	4.099994E-03	1.629550E-04
3.492063E+03	4.268464E-03	1.682397E-04
3.501984E+03	4.441856E-03	1.736546E-04
3.511905E+03	4.620333E-03	1.792086E-04
3.521825E+03	4.803964E-03	1.849071E-04
3.531746E+03	4.992888E-03	1.907586E-04
3.541667E+03	5.187129E-03	1.967678E-04
3.551587E+03	5.386769E-03	2.029421E-04
3.561508E+03	5.592015E-03	2.092940E-04
3.571429E+03	5.802812E-03	2.158265E-04
3.581349E+03	6.019358E-03	2.225528E-04
3.591270E+03	6.241708E-03	2.294811E-04
3.601190E+03	6.469827E-03	2.366168E-04
3.611111E+03	6.703727E-03	2.439676E-04
3.621032E+03	6.943462E-03	2.515415E-04
3.630952E+03	7.188910E-03	2.593389E-04
3.640873E+03	7.440148E-03	2.673674E-04
3.650794E+03	7.696909E-03	2.756220E-04
3.660714E+03	7.959129E-03	2.841053E-04
3.670635E+03	8.226627E-03	2.928156E-04
3.680556E+03	8.499270E-03	3.017527E-04
3.690476E+03	8.776711E-03	3.109089E-04
3.700397E+03	9.058737E-03	3.202811E-04
3.710317E+03	9.345002E-03	3.298613E-04
3.720238E+03	9.635208E-03	3.396428E-04
3.730159E+03	9.928919E-03	3.496143E-04
3.740079E+03	1.022575E-02	3.597653E-04
3.750000E+03	1.052517E-02	3.700809E-04
3.759921E+03	1.082658E-02	3.805424E-04
3.769841E+03	1.112969E-02	3.911419E-04
3.779762E+03	1.143359E-02	4.018496E-04
3.789683E+03	1.173778E-02	4.126494E-04
3.799603E+03	1.204171E-02	4.235226E-04
3.809524E+03	1.234443E-02	4.344369E-04
3.819444E+03	1.264520E-02	4.453662E-04
3.829365E+03	1.294335E-02	4.562858E-04
3.839286E+03	1.323805E-02	4.671658E-04
3.849206E+03	1.352843E-02	4.779739E-04
3.859127E+03	1.381349E-02	4.886720E-04
3.869048E+03	1.409243E-02	4.992291E-04
3.878968E+03	1.436433E-02	5.096095E-04
3.888889E+03	1.462827E-02	5.197764E-04
3.898810E+03	1.488337E-02	5.296942E-04
3.908730E+03	1.512876E-02	5.393270E-04
3.918651E+03	1.536376E-02	5.486449E-04
3.928571E+03	1.558758E-02	5.576144E-04
3.938492E+03	1.579934E-02	5.661974E-04
3.948413E+03	1.599864E-02	5.743732E-04
3.958333E+03	1.618471E-02	5.821071E-04
3.968254E+03	1.635711E-02	5.893772E-04
3.978175E+03	1.651542E-02	5.961603E-04
3.988095E+03	1.665909E-02	6.024297E-04
3.998016E+03	1.678818E-02	6.081802E-04
4.007937E+03	1.690242E-02	6.133953E-04
4.017857E+03	1.700199E-02	6.180741E-04
4.027778E+03	1.708707E-02	6.222163E-04
4.037698E+03	1.715794E-02	6.258254E-04
4.047619E+03	1.721504E-02	6.289114E-04
4.057540E+03	1.725905E-02	6.314929E-04
4.067460E+03	1.729048E-02	6.335829E-04
4.077381E+03	1.731004E-02	6.352023E-04
4.087302E+03	1.731889E-02	6.363887E-04
4.097222E+03	1.731760E-02	6.371586E-04
4.107143E+03	1.730729E-02	6.375493E-04
4.117063E+03	1.728897E-02	6.375943E-04
4.126984E+03	1.726367E-02	6.373287E-04
4.136905E+03	1.723245E-02	6.367888E-04
4.146825E+03	1.719637E-02	6.360110E-04
4.156746E+03	1.715648E-02	6.350327E-04
4.166667E+03	1.711383E-02	6.338905E-04
4.176587E+03	1.706939E-02	6.326193E-04
4.186508E+03	1.702415E-02	6.312542E-04
4.196429E+03	1.697885E-02	6.298220E-04
4.206349E+03	1.693439E-02	6.283548E-04
4.216270E+03	1.689171E-02	6.268872E-04
4.226190E+03	1.685162E-02	6.254486E-04
4.236111E+03	1.681455E-02	6.240541E-04
4.246032E+03	1.678134E-02	6.227347E-04
4.255952E+03	1.675262E-02	6.215127E-04
4.265873E+03	1.672895E-02	6.204088E-04
4.275794E+03	1.671084E-02	6.194414E-04
4.285714E+03	1.669854E-02	6.186188E-04
4.295635E+03	1.669272E-02	6.179650E-04
4.305556E+03	1.669331E-02	6.174768E-04
4.315476E+03	1.670076E-02	6.171698E-04
4.325397E+03	1.671515E-02	6.170459E-04
4.335317E+03	1.673657E-02	6.171069E-04
4.345238E+03	1.676483E-02	6.173450E-04
4.355159E+03	1.679982E-02	6.177543E-04
4.365079E+03	1.684115E-02	6.183192E-04
4.375000E+03	1.688865E-02	6.190317E-04
4.384921E+03	1.694173E-02	6.198690E-04
4.394841E+03	1.699972E-02	6.208048E-04
4.404762E+03	1.706215E-02	6.218208E-04
4.414683E+03	1.712816E-02	6.228839E-04
4.424603E+03	1.719695E-02	6.239644E-04
4.434524E+03	1.726778E-02	6.250338E-04
4.444444E+03	1.733931E-02	6.260434E-04
4.454365E+03	1.741063E-02	6.269595E-04
4.464286E+03	1.748050E-02	6.277383E-04
4.474206E+03	1.754749E-02	6.283283E-04
4.484127E+03	1.761021E-02	6.286810E-04
4.494048E+03	1.766718E-02	6.287453E-04
4.503968E+03	1.771689E-02	6.284701E-04
4.513889E+03	1.775775E-02	6.278024E-04
4.523810E+03	1.778803E-02	6.266845E-04
4.533730E+03	1.780597E-02	6.250601E-04
4.543651E+03	1.781040E-02	6.228940E-04
4.553571E+03	1.779955E-02	6.201309E-04
4.563492E+03	1.777192E-02	6.167268E-04
4.573413E+03	1.772649E-02	6.126553E-04
4.583333E+03	1.766233E-02	6.078938E-04
4.593254E+03	1.757818E-02	6.024095E-04
4.603175E+03	1.747413E-02	5.962170E-04
4.613095E+03	1.734938E-02	5.893013E-04
4.623016E+03	1.720458E-02	5.816966E-04
4.632937E+03	1.704026E-02	5.734335E-04
4.642857E+03	1.685740E-02	5.645572E-04
4.652778E+03	1.665737E-02	5.551263E-04
4.662698E+03	1.644195E-02	5.452119E-04
4.672619E+03	1.621356E-02	5.349055E-04
4.682540E+03	1.597445E-02	5.242908E-04
4.692460E+03	1.572717E-02	5.134608E-04
4.702381E+03	1.547456E-02	5.025156E-04
4.712302E+03	1.521900E-02	4.915389E-04
4.722222E+03	1.496354E-02	4.806334E-04
4.732143E+03	1.471015E-02	4.698655E-04
4.742063E+03	1.446132E-02	4.593139E-04
4.751984E+03	1.421886E-02	4.490353E-04
4.761905E+03	1.398401E-02	4.390665E-04
4.771825E+03	1.375806E-02	4.294447E-04
4.781746E+03	1.354185E-02	4.201930E-04
4.791667E+03	1.333548E-02	4.113106E-04
4.801587E+03	1.313913E-02	4.027991E-04
4.811508E+03	1.295267E-02	3.946507E-04
4.821429E+03	1.277572E-02	3.868497E-04
4.831349E+03	1.260803E-02	3.793852E-04
4.841270E+03	1.244950E-02	3.722506E-04
4.851190E+03	1.229974E-02	3.654312E-04
4.861111E+03	1.215863E-02	3.589203E-04
4.871032E+03	1.202559E-02	3.526975E-04
4.880952E+03	1.190036E-02	3.467535E-04
4.890873E+03	1.178255E-02	3.410740E-04
4.900794E+03	1.167158E-02	3.356405E-04
4.910714E+03	1.156710E-02	3.304413E-04
4.920635E+03	1.146852E-02	3.254586E-04
4.930556E+03	1.137548E-02	3.206812E-04
4.940476E+03	1.128739E-02	3.160923E-04
4.950397E+03	1.120383E-02	3.116798E-04
4.960317E+03	1.112421E-02	3.074284E-04
4.970238E+03	1.104839E-02	3.033346E-04
4.980159E+03	1.097580E-02	2.993835E-04
4.990079E+03	1.090616E-02	2.955698E-04
5.000000E+03	1.083939E-02	2.918927E-04
5.009921E+03	1.077522E-02	2.883470E-04
5.019841E+03	1.071357E-02	2.849326E-04
5.029762E+03	1.065436E-02	2.816498E-04
5.039683E+03	1.059752E-02	2.784998E-04
5.049603E+03	1.054292E-02	2.754813E-04
5.059524E+03	1.049049E-02	2.725959E-04
5.069444E+03	1.044028E-02	2.698479E-04
5.079365E+03	1.039195E-02	2.672315E-04
5.089286E+03	1.034558E-02	2.647521E-04
5.099206E+03	1.030063E-02	2.623998E-04
5.109127E+03	1.025703E-02	2.601758E-04
5.119048E+03	1.021431E-02	2.580728E-04
5.128968E+03	1.017212E-02	2.560855E-04
5.138889E+03	1.013007E-02	2.542078E-04
5.148810E+03	1.008768E-02	2.524317E-04
5.158730E+03	1.004457E-02	2.507516E-04
5.168651E+03	1.000030E-02	2.491603E-04
5.178571E+03	9.954744E-03	2.476581E-04
5.188492E+03	9.907320E-03	2.462337E-04
5.198413E+03	9.857895E-03	2.448865E-04
5.208333E+03	9.806276E-03	2.436140E-04
5.218254E+03	9.752354E-03	2.424155E-04
5.228175E+03	9.695889E-03	2.412861E-04
5.238095E+03	9.637009E-03	2.402278E-04
5.248016E+03	9.575713E-03	2.392347E-04
5.257937E+03	9.512163E-03	2.383041E-04
5.267857E+03	9.446512E-03	2.374328E-04
5.277778E+03	9.379202E-03	2.366246E-04
5.287698E+03	9.310461E-03	2.358778E-04
5.297619E+03	9.240775E-03	2.351972E-04
5.307540E+03	9.170576E-03	2.345865E-04
5.317460E+03	9.100497E-03	2.340547E-04
5.327381E+03	9.030805E-03	2.336018E-04
5.337302E+03	8.962144E-03	2.332377E-04
5.347222E+03	8.894944E-03	2.329675E-04
5.357143E+03	8.829505E-03	2.327933E-04
5.367063E+03	8.765822E-03	2.327097E-04
5.376984E+03	8.703792E-03	2.327086E-04
5.386905E+03	8.643089E-03	2.327764E-04
5.396825E+03	8.582840E-03	2.328845E-04
5.406746E+03	8.522460E-03	2.330120E-04
5.416667E+03	8.461118E-03	2.331304E-04
5.426587E+03	8.398255E-03	2.332189E-04
5.436508E+03	8.333807E-03	2.332699E-04
5.446429E+03	8.267505E-03	2.332701E-04
5.456349E+03	8.199538E-03	2.332194E-04
5.466270E+03	8.130054E-03	2.331169E-04
5.476190E+03	8.059579E-03	2.329728E-04
5.486111E+03	7.988370E-03	2.327905E-04
5.496032E+03	7.917070E-03	2.325848E-04
5.505952E+03	7.846296E-03	2.323709E-04
5.515873E+03	7.777033E-03	2.321756E-04
5.525794E+03	7.710064E-03	2.320209E-04
5.535714E+03	7.646437E-03	2.319378E-04
5.545635E+03	7.587200E-03	2.319585E-04
5.555556E+03	7.533621E-03	2.321231E-04
5.565476E+03	7.486769E-03	2.324670E-04
5.575397E+03	7.447871E-03	2.330316E-04
5.585317E+03	7.418116E-03	2.338584E-04
5.595238E+03	7.398570E-03	2.349864E-04
5.605159E+03	7.390305E-03	2.364556E-04
5.615079E+03	7.394136E-03	2.382988E-04
5.625000E+03	7.410922E-03	2.405510E-04
5.634921E+03	7.441402E-03	2.432441E-04
5.644841E+03	7.486090E-03	2.464031E-04
5.654762E+03	7.545342E-03	2.500480E-04
5.664683E+03	7.619349E-03	2.541937E-04
5.674603E+03	7.708268E-03	2.588538E-04
5.684524E+03	7.811731E-03	2.640242E-04
5.694444E+03	7.929477E-03	2.697039E-04
5.704365E+03	8.060843E-03	2.758778E-04
5.714286E+03	8.204824E-03	2.825181E-04
5.724206E+03	8.360323E-03	2.895930E-04
5.734127E+03	8.525974E-03	2.970599E-04
5.744048E+03	8.699964E-03	3.048596E-04
5.753968E+03	8.880337E-03	3.129263E-04
5.763889E+03	9.065131E-03	3.211921E-04
5.773810E+03	9.251837E-03	3.295681E-04
5.783730E+03	9.438145E-03	3.379709E-04
5.793651E+03	9.621632E-03	3.463109E-04
5.803571E+03	9.799915E-03	3.544987E-04
5.813492E+03	9.970841E-03	3.624513E-04
5.823413E+03	1.013212E-02	3.700797E-04
5.833333E+03	1.028217E-02	3.773189E-04
5.843254E+03	1.041931E-02	3.841005E-04
5.853175E+03	1.054232E-02	3.903716E-04
5.863095E+03	1.065032E-02	3.960912E-04
5.873016E+03	1.074269E-02	4.012284E-04
5.882937E+03	1.081926E-02	4.057690E-04
5.892857E+03	1.087975E-02	4.096951E-04
5.902778E+03	1.092439E-02	4.130072E-04
5.912698E+03	1.095372E-02	4.157196E-04
5.922619E+03	1.096837E-02	4.178495E-04
5.932540E+03	1.096886E-02	4.194110E-04
5.942460E+03	1.095630E-02	4.204416E-04
5.952381E+03	1.093128E-02	4.209589E-04
5.962302E+03	1.089520E-02	4.210137E-04
5.972222E+03	1.084876E-02	4.206293E-04
5.982143E+03	1.079309E-02	4.198467E-04
5.992063E+03	1.072950E-02	4.187148E-04
6.001984E+03	1.065909E-02	4.172753E-04
6.011905E+03	1.058314E-02	4.155772E-04
6.021825E+03	1.050272E-02	4.136618E-04
6.031746E+03	1.041941E-02	4.115915E-04
6.041667E+03	1.033416E-02	4.094046E-04
6.051587E+03	1.024854E-02	4.071638E-04
6.061508E+03	1.016367E-02	4.049152E-04
6.071429E+03	1.008060E-02	4.027023E-04
6.081349E+03	1.000037E-02	4.005695E-04
6.091270E+03	9.924038E-03	3.985604E-04
6.101190E+03	9.852203E-03	3.967024E-04
6.111111E+03	9.785412E-03	3.950201E-04
6.121032E+03	9.724251E-03	3.935400E-04
6.130952E+03	9.668630E-03	3.922613E-04
6.140873E+03	9.618661E-03	3.911915E-04
6.150794E+03	9.574344E-03	3.903333E-04
6.160714E+03	9.535628E-03	3.896870E-04
6.170635E+03	9.502183E-03	3.892400E-04
6.180556E+03	9.473747E-03	3.889824E-04
6.190476E+03	9.450096E-03	3.889055E-04
6.200397E+03	9.430672E-03	3.889869E-04
6.210317E+03	9.415061E-03	3.892098E-04
6.220238E+03	9.402647E-03	3.895490E-04
6.230159E+03	9.392884E-03	3.899817E-04
6.240079E+03	9.385069E-03	3.904787E-04
6.250000E+03	9.378499E-03	3.910104E-04
6.259921E+03	9.372625E-03	3.915534E-04
6.269841E+03	9.366961E-03	3.920866E-04
6.279762E+03	9.360846E-03	3.925816E-04
6.289683E+03	9.353969E-03	3.930245E-04
6.299603E+03	9.346141E-03	3.934063E-04
6.309524E+03	9.337030E-03	3.937121E-04
6.319444E+03	9.326817E-03	3.939487E-04
6.329365E+03	9.315545E-03	3.941169E-04
6.339286E+03	9.303359E-03	3.942219E-04
6.349206E+03	9.290489E-03	3.942727E-04
6.359127E+03	9.277489E-03	3.942921E-04
6.369048E+03	9.264556E-03	3.942880E-04
6.378968E+03	9.252313E-03	3.942862E-04
6.388889E+03	9.241111E-03	3.943014E-04
6.398810E+03	9.231280E-03	3.943472E-04
6.408730E+03	9.223254E-03	3.944419E-04
6.418651E+03	9.217284E-03	3.945959E-04
6.428571E+03	9.213694E-03	3.948230E-04
6.438492E+03	9.212330E-03	3.951161E-04
6.448413E+03	9.213523E-03	3.954893E-04
6.458333E+03	9.217252E-03	3.959415E-04
6.468254E+03	9.223286E-03	3.964623E-04
6.478175E+03	9.231615E-03	3.970509E-04
6.488095E+03	9.242004E-03	3.976969E-04
6.498016E+03	9.254121E-03	3.983856E-04
6.507937E+03	9.267514E-03	3.990969E-04
6.517857E+03	9.281793E-03	3.998137E-04
6.527778E+03	9.296203E-03	4.005028E-04
6.537698E+03	9.310096E-03	4.011357E-04
6.547619E+03	9.322951E-03	4.016896E-04
6.557540E+03	9.334093E-03	4.021348E-04
6.567460E+03	9.342698E-03	4.024354E-04
6.577381E+03	9.348283E-03	4.025702E-04
6.587302E+03	9.350093E-03	4.025067E-04
6.597222E+03	9.347912E-03	4.022352E-04
6.607143E+03	9.340969E-03	4.017227E-04
6.617063E+03	9.328908E-03	4.009541E-04
6.626984E+03	9.311656E-03	3.999266E-04
6.636905E+03	9.289090E-03	3.986353E-04
6.646825E+03	9.261009E-03	3.970725E-04
6.656746E+03	9.227453E-03	3.952406E-04
6.666667E+03	9.188714E-03	3.931531E-04
6.676587E+03	9.144858E-03	3.908140E-04
6.686508E+03	9.096393E-03	3.882462E-04
6.696429E+03	9.043440E-03	3.854562E-04
6.706349E+03	8.986856E-03	3.824818E-04
6.716270E+03	8.926938E-03	3.793371E-04
6.726190E+03	8.864685E-03	3.760659E-04
6.736111E+03	8.800487E-03	3.726860E-04
6.746032E+03	8.735242E-03	3.692367E-04
6.755952E+03	8.669682E-03	3.657499E-04
6.765873E+03	8.604362E-03	3.622502E-04
6.775794E+03	8.540117E-03	3.587733E-04
6.785714E+03	8.477408E-03	3.553394E-04
6.795635E+03	8.416928E-03	3.519779E-04
6.805556E+03	8.358800E-03	3.486944E-04
6.815476E+03	8.303678E-03	3.455160E-04
6.825397E+03	8.251648E-03	3.424466E-04
6.835317E+03	8.202863E-03	3.394922E-04
6.845238E+03	8.157238E-03	3.366492E-04
6.855159E+03	8.115070E-03	3.339297E-04
6.865079E+03	8.075816E-03	3.313109E-04
6.875000E+03	8.039796E-03	3.288057E-04
6.884921E+03	8.006494E-03	3.263928E-04
6.894841E+03	7.975656E-03	3.240615E-04
6.904762E+03	7.947132E-03	3.218058E-04
6.914683E+03	7.920415E-03	3.196049E-04
6.924603E+03	7.895114E-03	3.174434E-04
6.934524E+03	7.870800E-03	3.153043E-04
6.944444E+03	7.847010E-03	3.131696E-04
6.954365E+03	7.823262E-03	3.110208E-04
6.964286E+03	7.798899E-03	3.088330E-04
6.974206E+03	7.773721E-03	3.065993E-04
6.984127E+03	7.746766E-03	3.042836E-04
6.994048E+03	7.718002E-03	3.018865E-04
7.003968E+03	7.686492E-03	2.993735E-04
7.013889E+03	7.652101E-03	2.967420E-04
7.023810E+03	7.614263E-03	2.939727E-04
7.033730E+03	7.572610E-03	2.910546E-04
7.043651E+03	7.526989E-03	2.879851E-04
7.053571E+03	7.476852E-03	2.847467E-04
7.063492E+03	7.422175E-03	2.813425E-04
7.073413E+03	7.362718E-03	2.777671E-04
7.083333E+03	7.298610E-03	2.740294E-04
7.093254E+03	7.229876E-03	2.701345E-04
7.103175E+03	7.156450E-03	2.660839E-04
7.113095E+03	7.078610E-03	2.618919E-04
7.123016E+03	6.996256E-03	2.575589E-04
7.132937E+03	6.909939E-03	2.531090E-04
7.142857E+03	6.819840E-03	2.485525E-04
7.152778E+03	6.726203E-03	2.439019E-04
7.162698E+03	6.629608E-03	2.391814E-04
7.172619E+03	6.530539E-03	2.344114E-04
7.182540E+03	6.429381E-03	2.296085E-04
7.192460E+03	6.326687E-03	2.247947E-04
7.202381E+03	6.223029E-03	2.199923E-04
7.212302E+03	6.118992E-03	2.152236E-04
7.222222E+03	6.015165E-03	2.105105E-04
7.232143E+03	5.911892E-03	2.058660E-04
7.242063E+03	5.810013E-03	2.013197E-04
7.251984E+03	5.709979E-03	1.968875E-04
7.261905E+03	5.612233E-03	1.925844E-04
7.271825E+03	5.517406E-03	1.884317E-04
7.281746E+03	5.425728E-03	1.844363E-04
7.291667E+03	5.337617E-03	1.806118E-04
7.301587E+03	5.253447E-03	1.769695E-04
7.311508E+03	5.173440E-03	1.735157E-04
7.321429E+03	5.097997E-03	1.702626E-04
7.331349E+03	5.027046E-03	1.672063E-04
7.341270E+03	4.961019E-03	1.643598E-04
7.351190E+03	4.899873E-03	1.617204E-04
7.361111E+03	4.843845E-03	1.592944E-04
7.371032E+03	4.792916E-03	1.570800E-04
7.380952E+03	4.747129E-03	1.550773E-04
7.390873E+03	4.706572E-03	1.532883E-04
7.400794E+03	4.671081E-03	1.517066E-04
7.410714E+03	4.640839E-03	1.503375E-04
7.420635E+03	4.615479E-03	1.491685E-04
7.430556E+03	4.594989E-03	1.481990E-04
7.440476E+03	4.579005E-03	1.474169E-04
7.450397E+03	4.567510E-03	1.468220E-04
7.460317E+03	4.560038E-03	1.463995E-04
7.470238E+03	4.556177E-03	1.461366E-04
7.480159E+03	4.555576E-03	1.460223E-04
7.490079E+03	4.557757E-03	1.460399E-04
7.500000E+03	4.562419E-03	1.461784E-04
7.509921E+03	4.568846E-03	1.464136E-04
7.519841E+03	4.576624E-03	1.467311E-04
7.529762E+03	4.585345E-03	1.471164E-04
7.539683E+03	4.594382E-03	1.475483E-04
7.549603E+03	4.603316E-03	1.480119E-04
7.559524E+03	4.611535E-03	1.484862E-04
7.569444E+03	4.618762E-03	1.489606E-04
7.579365E+03	4.624347E-03	1.494126E-04
7.589286E+03	4.628131E-03	1.498351E-04
7.599206E+03	4.629627E-03	1.502105E-04
7.609127E+03	4.628847E-03	1.505369E-04
7.619048E+03	4.625451E-03	1.508012E-04
7.628968E+03	4.619577E-03	1.510055E-04
7.638889E+03	4.611095E-03	1.511432E-04
7.648810E+03	4.600011E-03	1.512121E-04
7.658730E+03	4.586360E-03	1.512109E-04
7.668651E+03	4.570204E-03	1.511391E-04
7.678571E+03	4.551616E-03	1.509968E-04
7.688492E+03	4.530584E-03	1.507811E-04
7.698413E+03	4.507425E-03	1.505001E-04
