#wls	flux	fluxerr
1.587302E+03	9.827753E-05	1.338856E-06
1.626984E+03	9.875306E-05	1.340453E-06
1.666667E+03	9.944515E-05	1.344833E-06
1.706349E+03	1.003596E-04	1.352038E-06
1.746032E+03	1.015123E-04	1.362242E-06
1.785714E+03	1.029285E-04	1.375741E-06
1.825397E+03	1.046003E-04	1.392384E-06
1.865079E+03	1.065647E-04	1.412613E-06
1.904762E+03	1.088352E-04	1.436552E-06
1.944444E+03	1.114282E-04	1.464358E-06
1.984127E+03	1.143559E-04	1.496123E-06
2.023810E+03	1.176426E-04	1.532099E-06
2.063492E+03	1.213019E-04	1.572385E-06
2.103175E+03	1.253379E-04	1.616957E-06
2.142857E+03	1.297839E-04	1.666162E-06
2.182540E+03	1.346501E-04	1.720037E-06
2.222222E+03	1.399616E-04	1.778808E-06
2.261905E+03	1.457670E-04	1.842988E-06
2.301587E+03	1.521387E-04	1.913373E-06
2.341270E+03	1.591822E-04	1.991154E-06
2.380952E+03	1.670242E-04	2.077751E-06
2.420635E+03	1.758083E-04	2.174756E-06
2.460317E+03	1.857228E-04	2.284266E-06
2.500000E+03	1.969606E-04	2.408379E-06
2.539683E+03	2.097639E-04	2.549728E-06
2.579365E+03	2.243942E-04	2.711103E-06
2.619048E+03	2.411716E-04	2.895919E-06
2.658730E+03	2.604642E-04	3.108056E-06
2.698413E+03	2.827173E-04	3.352195E-06
2.738095E+03	3.084734E-04	3.634017E-06
2.777778E+03	3.383858E-04	3.960326E-06
2.817460E+03	3.732579E-04	4.339461E-06
2.857143E+03	4.141034E-04	4.781929E-06
2.896825E+03	4.621560E-04	5.300435E-06
2.936508E+03	5.190152E-04	5.911455E-06
2.976190E+03	5.866432E-04	6.635053E-06
2.986111E+03	6.055292E-04	6.836583E-06
2.996032E+03	6.252779E-04	7.047074E-06
3.005952E+03	6.459350E-04	7.266984E-06
3.015873E+03	6.675782E-04	7.497133E-06
3.025794E+03	6.902454E-04	7.737887E-06
3.035714E+03	7.139917E-04	7.989801E-06
3.045635E+03	7.388916E-04	8.253640E-06
3.055556E+03	7.649915E-04	8.529855E-06
3.065476E+03	7.923573E-04	8.819106E-06
3.075397E+03	8.210923E-04	9.122465E-06
3.085317E+03	8.512377E-04	9.440307E-06
3.095238E+03	8.828892E-04	9.773606E-06
3.105159E+03	9.161126E-04	1.012300E-05
3.115079E+03	9.510508E-04	1.048998E-05
3.125000E+03	9.877440E-04	1.087487E-05
3.134921E+03	1.026308E-03	1.127885E-05
3.144841E+03	1.066869E-03	1.170318E-05
3.154762E+03	1.109538E-03	1.214898E-05
3.164683E+03	1.154392E-03	1.261695E-05
3.174603E+03	1.201617E-03	1.310899E-05
3.184524E+03	1.251302E-03	1.362592E-05
3.194444E+03	1.303605E-03	1.416935E-05
3.204365E+03	1.358647E-03	1.474039E-05
3.214286E+03	1.416601E-03	1.534079E-05
3.224206E+03	1.477627E-03	1.597209E-05
3.234127E+03	1.541888E-03	1.663587E-05
3.244048E+03	1.609528E-03	1.733351E-05
3.253968E+03	1.680749E-03	1.806696E-05
3.263889E+03	1.755734E-03	1.883799E-05
3.273810E+03	1.834639E-03	1.964805E-05
3.283730E+03	1.917680E-03	2.049923E-05
3.293651E+03	2.005017E-03	2.139299E-05
3.303571E+03	2.096872E-03	2.233145E-05
3.313492E+03	2.193398E-03	2.331598E-05
3.323413E+03	2.294773E-03	2.434821E-05
3.333333E+03	2.401170E-03	2.542968E-05
3.343254E+03	2.512742E-03	2.656174E-05
3.353175E+03	2.629627E-03	2.774555E-05
3.363095E+03	2.751899E-03	2.898159E-05
3.373016E+03	2.879673E-03	3.027079E-05
3.382937E+03	3.012906E-03	3.161237E-05
3.392857E+03	3.151671E-03	3.300681E-05
3.402778E+03	3.295815E-03	3.445221E-05
3.412698E+03	3.445206E-03	3.594691E-05
3.422619E+03	3.599652E-03	3.748861E-05
3.432540E+03	3.758853E-03	3.907396E-05
3.442460E+03	3.922585E-03	4.070036E-05
3.452381E+03	4.090552E-03	4.236454E-05
3.462302E+03	4.262585E-03	4.406453E-05
3.472222E+03	4.438728E-03	4.580060E-05
3.482143E+03	4.619077E-03	4.757352E-05
3.492063E+03	4.803904E-03	4.938592E-05
3.501984E+03	4.993281E-03	5.123831E-05
3.511905E+03	5.187532E-03	5.313380E-05
3.521825E+03	5.386859E-03	5.507424E-05
3.531746E+03	5.591527E-03	5.706209E-05
3.541667E+03	5.801654E-03	5.909831E-05
3.551587E+03	6.017405E-03	6.118432E-05
3.561508E+03	6.239067E-03	6.332280E-05
3.571429E+03	6.466618E-03	6.551326E-05
3.581349E+03	6.700306E-03	6.775794E-05
3.591270E+03	6.940205E-03	7.005732E-05
3.601190E+03	7.186278E-03	7.241079E-05
3.611111E+03	7.438532E-03	7.481812E-05
3.621032E+03	7.697016E-03	7.727957E-05
3.630952E+03	7.961580E-03	7.979333E-05
3.640873E+03	8.232289E-03	8.235981E-05
3.650794E+03	8.508824E-03	8.497552E-05
3.660714E+03	8.791081E-03	8.763918E-05
3.670635E+03	9.078827E-03	9.034822E-05
3.680556E+03	9.371873E-03	9.310055E-05
3.690476E+03	9.669812E-03	9.589189E-05
3.700397E+03	9.972346E-03	9.871909E-05
3.710317E+03	1.027905E-02	1.015778E-04
3.720238E+03	1.058957E-02	1.044642E-04
3.730159E+03	1.090335E-02	1.073730E-04
3.740079E+03	1.121993E-02	1.102993E-04
3.750000E+03	1.153869E-02	1.132369E-04
3.759921E+03	1.185892E-02	1.161789E-04
3.769841E+03	1.218024E-02	1.191216E-04
3.779762E+03	1.250163E-02	1.220548E-04
3.789683E+03	1.282247E-02	1.249728E-04
3.799603E+03	1.314214E-02	1.278694E-04
3.809524E+03	1.345957E-02	1.307345E-04
3.819444E+03	1.377392E-02	1.335600E-04
3.829365E+03	1.408444E-02	1.363388E-04
3.839286E+03	1.439020E-02	1.390622E-04
3.849206E+03	1.469028E-02	1.417216E-04
3.859127E+03	1.498357E-02	1.443065E-04
3.869048E+03	1.526922E-02	1.468092E-04
3.878968E+03	1.554625E-02	1.492207E-04
3.888889E+03	1.581367E-02	1.515320E-04
3.898810E+03	1.607048E-02	1.537338E-04
3.908730E+03	1.631569E-02	1.558175E-04
3.918651E+03	1.654852E-02	1.577759E-04
3.928571E+03	1.676800E-02	1.596008E-04
3.938492E+03	1.697311E-02	1.612827E-04
3.948413E+03	1.716330E-02	1.628174E-04
3.958333E+03	1.733763E-02	1.641965E-04
3.968254E+03	1.749550E-02	1.654154E-04
3.978175E+03	1.763631E-02	1.664689E-04
3.988095E+03	1.978778E-02	1.864657E-04
3.997222E+03	2.041604E-02	1.920916E-04
4.006349E+03	2.137762E-02	2.008315E-04
4.015476E+03	2.185087E-02	2.049639E-04
4.024603E+03	2.248581E-02	2.105976E-04
4.033730E+03	2.306293E-02	2.156733E-04
4.042857E+03	2.276409E-02	2.125542E-04
4.051984E+03	2.206591E-02	2.057213E-04
4.061111E+03	2.143184E-02	1.995056E-04
4.070238E+03	2.090903E-02	1.943427E-04
4.079365E+03	2.020457E-02	1.875094E-04
4.088492E+03	1.960325E-02	1.816523E-04
4.097619E+03	1.962948E-02	1.816191E-04
4.106746E+03	1.829103E-02	1.689783E-04
4.115873E+03	1.793892E-02	1.654739E-04
4.125000E+03	1.814622E-02	1.671323E-04
4.134127E+03	1.788123E-02	1.644420E-04
4.143254E+03	1.755337E-02	1.611823E-04
4.152381E+03	1.704970E-02	1.563202E-04
4.161508E+03	1.697753E-02	1.554229E-04
4.170635E+03	1.718840E-02	1.571152E-04
4.179762E+03	1.705912E-02	1.556977E-04
4.188889E+03	1.675532E-02	1.526937E-04
4.198016E+03	1.654756E-02	1.505725E-04
4.207143E+03	1.696231E-02	1.541134E-04
4.216270E+03	1.709794E-02	1.551112E-04
4.225397E+03	1.761950E-02	1.596015E-04
4.234524E+03	1.813544E-02	1.640272E-04
4.243651E+03	1.794748E-02	1.620825E-04
4.252778E+03	1.774948E-02	1.600529E-04
4.261905E+03	1.767836E-02	1.591715E-04
4.271032E+03	1.763821E-02	1.585710E-04
4.280159E+03	1.727685E-02	1.550886E-04
4.289286E+03	1.713608E-02	1.535938E-04
4.298413E+03	1.718327E-02	1.537854E-04
4.307540E+03	1.678920E-02	1.500330E-04
4.316667E+03	1.671160E-02	1.491154E-04
4.325794E+03	1.681750E-02	1.498354E-04
4.334921E+03	1.705414E-02	1.517161E-04
4.344048E+03	1.730920E-02	1.537546E-04
4.353175E+03	1.778361E-02	1.577325E-04
4.362302E+03	1.833214E-02	1.623547E-04
4.371429E+03	1.877540E-02	1.660321E-04
4.380556E+03	1.897583E-02	1.675543E-04
4.389683E+03	1.892095E-02	1.668208E-04
4.398810E+03	1.890533E-02	1.664350E-04
4.407937E+03	1.917510E-02	1.685590E-04
4.417063E+03	1.932503E-02	1.696248E-04
4.426190E+03	1.938729E-02	1.699190E-04
4.435317E+03	1.927700E-02	1.687022E-04
4.444444E+03	1.914369E-02	1.672878E-04
4.453571E+03	1.927429E-02	1.681804E-04
4.462698E+03	1.963352E-02	1.710624E-04
4.471825E+03	1.992895E-02	1.733809E-04
4.480952E+03	2.018608E-02	1.753599E-04
4.490079E+03	2.088317E-02	1.811497E-04
4.499206E+03	2.132029E-02	1.846708E-04
4.508333E+03	2.203393E-02	1.905735E-04
4.517460E+03	2.277753E-02	1.967179E-04
4.526587E+03	2.317189E-02	1.998328E-04
4.535714E+03	2.367550E-02	2.038797E-04
4.544841E+03	2.394953E-02	2.059411E-04
4.553968E+03	2.411482E-02	2.070631E-04
4.563095E+03	2.398264E-02	2.056317E-04
4.572222E+03	2.395854E-02	2.051301E-04
4.581349E+03	2.377501E-02	2.032674E-04
4.590476E+03	2.352392E-02	2.008337E-04
4.599603E+03	2.330345E-02	1.986685E-04
4.608730E+03	2.343616E-02	1.995166E-04
4.617857E+03	2.368242E-02	2.013283E-04
4.626984E+03	2.404276E-02	2.041038E-04
4.636111E+03	2.428709E-02	2.058888E-04
4.645238E+03	2.442062E-02	2.067316E-04
4.654365E+03	2.451163E-02	2.072134E-04
4.663492E+03	2.454078E-02	2.071724E-04
4.672619E+03	2.423583E-02	2.043158E-04
4.681746E+03	2.380069E-02	2.003719E-04
4.690873E+03	2.346727E-02	1.972950E-04
4.700000E+03	2.282838E-02	1.916627E-04
4.709127E+03	2.220443E-02	1.861719E-04
4.718254E+03	2.170151E-02	1.817103E-04
4.727381E+03	2.102494E-02	1.758097E-04
4.736508E+03	2.041174E-02	1.704551E-04
4.745635E+03	1.995884E-02	1.664525E-04
4.754762E+03	1.951197E-02	1.625118E-04
4.763889E+03	1.902239E-02	1.582272E-04
4.773016E+03	1.864860E-02	1.549168E-04
4.782143E+03	1.811235E-02	1.502681E-04
4.791270E+03	1.760123E-02	1.458408E-04
4.800397E+03	1.727082E-02	1.429213E-04
4.809524E+03	1.704691E-02	1.408905E-04
4.818651E+03	1.685405E-02	1.391223E-04
4.827778E+03	1.670458E-02	1.377175E-04
4.836905E+03	1.669878E-02	1.375002E-04
4.846032E+03	1.674373E-02	1.377021E-04
4.855159E+03	1.697079E-02	1.394007E-04
4.864286E+03	1.711581E-02	1.404232E-04
4.873413E+03	1.715056E-02	1.405409E-04
4.882540E+03	1.724151E-02	1.411195E-04
4.891667E+03	1.752587E-02	1.432790E-04
4.900794E+03	1.805914E-02	1.474671E-04
4.909921E+03	1.859637E-02	1.516790E-04
4.919048E+03	1.885634E-02	1.536235E-04
4.928175E+03	1.878720E-02	1.528865E-04
4.937302E+03	1.901139E-02	1.545366E-04
4.946429E+03	1.962062E-02	1.593105E-04
4.955556E+03	2.028807E-02	1.645469E-04
4.964683E+03	2.098239E-02	1.699905E-04
4.973810E+03	2.147459E-02	1.737876E-04
4.982937E+03	2.174700E-02	1.758008E-04
4.992063E+03	2.173501E-02	1.755140E-04
5.001190E+03	2.158541E-02	1.741189E-04
5.010317E+03	2.121608E-02	1.709572E-04
5.019444E+03	2.071513E-02	1.667438E-04
5.028571E+03	2.019027E-02	1.623478E-04
5.037698E+03	1.970806E-02	1.583045E-04
5.046825E+03	1.924504E-02	1.544245E-04
5.055952E+03	1.898918E-02	1.522138E-04
5.065079E+03	1.863738E-02	1.492401E-04
5.074206E+03	1.832595E-02	1.465962E-04
5.083333E+03	1.830284E-02	1.462623E-04
5.092460E+03	1.861939E-02	1.486413E-04
5.101587E+03	1.918489E-02	1.530016E-04
5.110714E+03	1.975549E-02	1.573943E-04
5.119841E+03	1.998656E-02	1.590765E-04
5.128968E+03	1.991085E-02	1.583167E-04
5.138095E+03	1.995375E-02	1.585011E-04
5.147222E+03	1.995924E-02	1.583889E-04
5.156349E+03	2.006373E-02	1.590622E-04
5.165476E+03	2.023400E-02	1.602558E-04
5.174603E+03	2.046218E-02	1.619057E-04
5.183730E+03	2.087660E-02	1.650252E-04
5.192857E+03	2.123977E-02	1.677343E-04
5.201984E+03	2.150898E-02	1.696974E-04
5.211111E+03	2.175238E-02	1.714539E-04
5.220238E+03	2.200495E-02	1.732796E-04
5.229365E+03	2.224535E-02	1.750066E-04
5.238492E+03	2.251240E-02	1.769402E-04
5.247619E+03	2.261801E-02	1.776029E-04
5.256746E+03	2.264194E-02	1.776240E-04
5.265873E+03	2.254363E-02	1.766874E-04
5.275000E+03	2.256521E-02	1.766918E-04
5.284127E+03	2.258658E-02	1.766948E-04
5.293254E+03	2.265801E-02	1.770895E-04
5.302381E+03	2.270796E-02	1.773160E-04
5.311508E+03	2.276928E-02	1.776313E-04
5.320635E+03	2.298472E-02	1.791475E-04
5.329762E+03	2.315733E-02	1.803278E-04
5.338889E+03	2.330070E-02	1.812787E-04
5.348016E+03	2.327431E-02	1.809088E-04
5.357143E+03	2.335364E-02	1.813608E-04
5.366270E+03	2.325198E-02	1.804079E-04
5.375397E+03	2.320988E-02	1.799188E-04
5.384524E+03	2.311967E-02	1.790583E-04
5.393651E+03	2.298529E-02	1.778578E-04
5.402778E+03	2.272821E-02	1.757112E-04
5.411905E+03	2.247517E-02	1.735998E-04
5.421032E+03	2.218402E-02	1.711984E-04
5.430159E+03	2.189694E-02	1.688329E-04
5.439286E+03	2.161012E-02	1.664738E-04
5.448413E+03	2.138471E-02	1.645918E-04
5.457540E+03	2.113656E-02	1.625385E-04
5.466667E+03	2.090387E-02	1.606079E-04
5.475794E+03	2.079724E-02	1.596486E-04
5.484921E+03	2.065632E-02	1.584283E-04
5.494048E+03	2.049452E-02	1.570503E-04
5.503175E+03	2.039559E-02	1.561563E-04
5.512302E+03	2.011981E-02	1.539114E-04
5.521429E+03	1.986901E-02	1.518614E-04
5.530556E+03	1.952730E-02	1.491211E-04
5.539683E+03	1.908351E-02	1.456070E-04
5.548810E+03	1.859781E-02	1.417797E-04
5.557937E+03	1.809983E-02	1.378656E-04
5.567063E+03	1.750975E-02	1.332576E-04
5.576190E+03	1.697039E-02	1.290434E-04
5.585317E+03	1.637638E-02	1.244215E-04
5.594444E+03	1.583569E-02	1.202124E-04
5.603571E+03	1.536557E-02	1.165460E-04
5.612698E+03	1.500975E-02	1.137522E-04
5.621825E+03	1.469619E-02	1.112835E-04
5.630952E+03	1.438173E-02	1.088123E-04
5.640079E+03	1.413178E-02	1.068333E-04
5.649206E+03	1.395334E-02	1.053980E-04
5.658333E+03	1.376100E-02	1.038606E-04
5.667460E+03	1.361631E-02	1.026853E-04
5.676587E+03	1.356280E-02	1.021995E-04
5.685714E+03	1.363206E-02	1.026392E-04
5.694841E+03	1.380205E-02	1.038365E-04
5.703968E+03	1.414128E-02	1.063046E-04
5.713095E+03	1.446871E-02	1.086807E-04
5.722222E+03	1.500913E-02	1.126521E-04
5.731349E+03	1.557391E-02	1.168008E-04
5.740476E+03	1.618232E-02	1.212706E-04
5.749603E+03	1.684443E-02	1.261364E-04
5.758730E+03	1.757066E-02	1.314754E-04
5.767857E+03	1.823125E-02	1.363164E-04
5.776984E+03	1.888032E-02	1.410650E-04
5.786111E+03	1.941339E-02	1.449414E-04
5.795238E+03	1.981378E-02	1.478233E-04
5.804365E+03	2.021127E-02	1.506805E-04
5.813492E+03	2.050059E-02	1.527289E-04
5.822619E+03	2.071342E-02	1.542061E-04
5.831746E+03	2.078916E-02	1.546627E-04
5.840873E+03	2.084425E-02	1.549663E-04
5.850000E+03	2.088792E-02	1.551860E-04
5.859127E+03	2.089080E-02	1.551041E-04
5.868254E+03	2.068606E-02	1.534832E-04
5.877381E+03	2.055299E-02	1.523972E-04
5.886508E+03	2.037965E-02	1.510158E-04
5.895635E+03	2.016802E-02	1.493542E-04
5.904762E+03	1.997669E-02	1.478464E-04
5.913889E+03	1.967970E-02	1.455605E-04
5.923016E+03	1.947059E-02	1.439287E-04
5.932143E+03	1.920162E-02	1.418582E-04
5.941270E+03	1.895845E-02	1.399823E-04
5.950397E+03	1.877550E-02	1.385545E-04
5.959524E+03	1.864712E-02	1.375326E-04
5.968651E+03	1.854228E-02	1.366872E-04
5.977778E+03	1.841933E-02	1.357110E-04
5.986905E+03	1.829096E-02	1.346978E-04
5.996032E+03	1.815179E-02	1.336080E-04
6.005159E+03	1.806313E-02	1.328927E-04
6.014286E+03	1.788441E-02	1.315178E-04
6.023413E+03	1.764691E-02	1.297142E-04
6.032540E+03	1.741510E-02	1.279559E-04
6.041667E+03	1.716141E-02	1.260404E-04
6.050794E+03	1.690861E-02	1.241351E-04
6.059921E+03	1.659115E-02	1.217588E-04
6.069048E+03	1.614864E-02	1.184690E-04
6.078175E+03	1.583554E-02	1.161326E-04
6.087302E+03	1.546825E-02	1.134024E-04
6.096429E+03	1.504769E-02	1.102858E-04
6.105556E+03	1.474090E-02	1.080065E-04
6.114683E+03	1.440956E-02	1.055505E-04
6.123810E+03	1.419652E-02	1.039641E-04
6.132937E+03	1.395663E-02	1.021835E-04
6.142063E+03	1.379140E-02	1.009520E-04
6.151190E+03	1.372320E-02	1.004327E-04
6.160317E+03	1.365688E-02	9.992890E-05
6.169444E+03	1.363940E-02	9.978419E-05
6.178571E+03	1.350365E-02	9.877585E-05
6.187698E+03	1.344554E-02	9.833700E-05
6.196825E+03	1.339187E-02	9.793220E-05
6.205952E+03	1.334021E-02	9.754349E-05
6.215079E+03	1.324844E-02	9.686286E-05
6.224206E+03	1.320170E-02	9.651278E-05
6.233333E+03	1.321815E-02	9.662584E-05
6.242460E+03	1.326490E-02	9.696151E-05
6.251587E+03	1.331693E-02	9.733684E-05
6.260714E+03	1.338507E-02	9.783099E-05
6.269841E+03	1.350348E-02	9.869351E-05
6.278968E+03	1.361537E-02	9.950929E-05
6.288095E+03	1.368938E-02	1.000492E-04
6.297222E+03	1.372333E-02	1.002972E-04
6.306349E+03	1.374358E-02	1.004459E-04
6.315476E+03	1.367910E-02	9.997635E-05
6.324603E+03	1.362315E-02	9.956982E-05
6.333730E+03	1.355919E-02	9.910545E-05
6.342857E+03	1.343827E-02	9.822549E-05
6.351984E+03	1.332404E-02	9.739500E-05
6.361111E+03	1.318689E-02	9.639751E-05
6.370238E+03	1.300357E-02	9.506289E-05
6.379365E+03	1.276324E-02	9.331191E-05
6.388492E+03	1.257955E-02	9.197532E-05
6.397619E+03	1.241465E-02	9.077643E-05
6.406746E+03	1.223988E-02	8.950551E-05
6.415873E+03	1.210266E-02	8.850943E-05
6.425000E+03	1.198930E-02	8.768800E-05
6.434127E+03	1.184150E-02	8.661483E-05
6.443254E+03	1.177306E-02	8.612230E-05
6.452381E+03	1.162830E-02	8.507151E-05
6.461508E+03	1.178052E-02	8.619372E-05
6.470635E+03	1.180458E-02	8.637851E-05
6.479762E+03	1.127082E-02	8.248126E-05
6.488889E+03	1.101316E-02	8.060418E-05
6.498016E+03	1.109783E-02	8.123248E-05
6.507143E+03	1.140714E-02	8.350545E-05
6.516270E+03	1.190605E-02	8.716714E-05
6.525397E+03	1.253721E-02	9.179804E-05
6.534524E+03	1.324328E-02	9.697845E-05
6.543651E+03	1.391212E-02	1.018874E-04
6.552778E+03	1.446834E-02	1.059725E-04
6.561905E+03	1.492344E-02	1.093177E-04
6.571032E+03	1.513502E-02	1.108795E-04
6.580159E+03	1.518238E-02	1.112383E-04
6.589286E+03	1.504047E-02	1.102102E-04
6.598413E+03	1.474174E-02	1.080325E-04
6.607540E+03	1.428274E-02	1.046796E-04
6.616667E+03	1.379491E-02	1.011144E-04
6.625794E+03	1.324973E-02	9.712791E-05
6.634921E+03	1.272394E-02	9.328267E-05
6.644048E+03	1.239645E-02	9.089030E-05
6.653175E+03	1.231783E-02	9.032218E-05
6.662302E+03	1.269908E-02	9.312615E-05
6.671429E+03	1.289764E-02	9.459047E-05
6.680556E+03	1.268543E-02	9.304194E-05
6.689683E+03	1.261605E-02	9.254054E-05
6.698810E+03	1.256939E-02	9.220541E-05
6.707937E+03	1.245467E-02	9.137066E-05
6.717063E+03	1.230809E-02	9.030178E-05
6.726190E+03	1.220364E-02	8.954151E-05
6.735317E+03	1.201951E-02	8.819613E-05
6.744444E+03	1.179064E-02	8.652193E-05
6.753571E+03	1.150917E-02	8.446124E-05
6.762698E+03	1.120035E-02	8.219926E-05
6.771825E+03	1.087156E-02	7.979024E-05
6.780952E+03	1.061716E-02	7.792657E-05
6.790079E+03	1.034997E-02	7.596865E-05
6.799206E+03	1.018307E-02	7.474632E-05
6.808333E+03	1.008403E-02	7.402180E-05
6.817460E+03	1.004060E-02	7.370511E-05
6.826587E+03	1.000401E-02	7.343837E-05
6.835714E+03	9.996717E-03	7.338636E-05
6.844841E+03	9.972453E-03	7.320946E-05
6.853968E+03	1.000165E-02	7.342473E-05
6.863095E+03	1.008397E-02	7.402965E-05
6.872222E+03	1.018031E-02	7.473731E-05
6.881349E+03	1.027807E-02	7.545503E-05
6.890476E+03	1.032183E-02	7.577600E-05
6.899603E+03	1.043203E-02	7.658449E-05
6.908730E+03	1.047419E-02	7.689311E-05
6.917857E+03	1.044120E-02	7.664972E-05
6.926984E+03	1.055919E-02	7.751451E-05
6.936111E+03	1.063020E-02	7.803402E-05
6.945238E+03	1.067393E-02	7.835300E-05
6.954365E+03	1.066341E-02	7.827348E-05
6.963492E+03	1.060309E-02	7.782812E-05
6.972619E+03	1.062263E-02	7.796873E-05
6.981746E+03	1.065168E-02	7.817891E-05
6.990873E+03	1.063182E-02	7.802985E-05
7.000000E+03	1.064616E-02	7.813158E-05
7.009127E+03	1.067856E-02	7.836558E-05
7.018254E+03	1.071054E-02	7.859628E-05
7.027381E+03	1.068390E-02	7.839667E-05
7.036508E+03	1.065378E-02	7.817131E-05
7.045635E+03	1.058566E-02	7.766708E-05
7.054762E+03	1.052114E-02	7.718911E-05
7.063889E+03	1.045432E-02	7.669418E-05
7.073016E+03	1.041998E-02	7.643748E-05
7.082143E+03	1.041295E-02	7.638105E-05
7.091270E+03	1.043652E-02	7.654894E-05
7.100397E+03	1.046989E-02	7.678864E-05
7.109524E+03	1.049598E-02	7.697487E-05
7.118651E+03	1.045911E-02	7.669932E-05
7.127778E+03	1.050783E-02	7.705140E-05
7.136905E+03	1.053601E-02	7.725279E-05
7.146032E+03	1.051666E-02	7.710575E-05
7.155159E+03	1.045384E-02	7.664006E-05
7.164286E+03	1.034777E-02	7.585739E-05
7.173413E+03	1.025677E-02	7.518547E-05
7.182540E+03	1.012346E-02	7.420348E-05
7.191667E+03	1.001142E-02	7.337773E-05
7.200794E+03	9.859347E-03	7.225876E-05
7.209921E+03	9.796804E-03	7.179621E-05
7.219048E+03	9.755947E-03	7.149282E-05
7.228175E+03	9.725275E-03	7.126428E-05
7.237302E+03	9.648313E-03	7.069681E-05
7.246429E+03	9.561900E-03	7.006038E-05
7.255556E+03	9.473702E-03	6.941119E-05
7.264683E+03	9.295363E-03	6.810192E-05
7.273810E+03	9.160142E-03	6.710894E-05
7.282937E+03	9.013023E-03	6.602917E-05
7.292063E+03	8.859148E-03	6.490030E-05
7.301190E+03	8.669019E-03	6.350624E-05
7.310317E+03	8.496461E-03	6.224132E-05
7.319444E+03	8.326680E-03	6.099715E-05
7.328571E+03	8.158696E-03	5.976654E-05
7.337698E+03	8.024085E-03	5.878082E-05
7.346825E+03	7.949658E-03	5.823638E-05
7.355952E+03	7.906051E-03	5.791816E-05
7.365079E+03	7.822050E-03	5.730445E-05
7.374206E+03	7.714569E-03	5.651916E-05
7.383333E+03	7.601300E-03	5.569189E-05
7.392460E+03	7.566782E-03	5.544206E-05
7.401587E+03	7.467701E-03	5.471965E-05
