#wls	flux	fluxerr
1.587302E+03	7.979859E-05	4.701526E-06
1.626984E+03	7.988248E-05	4.680724E-06
1.666667E+03	8.014357E-05	4.669602E-06
1.706349E+03	8.057780E-05	4.667738E-06
1.746032E+03	8.121300E-05	4.676540E-06
1.785714E+03	8.204653E-05	4.695628E-06
1.825397E+03	8.309222E-05	4.725553E-06
1.865079E+03	8.437894E-05	4.767685E-06
1.904762E+03	8.590830E-05	4.821811E-06
1.944444E+03	8.770489E-05	4.888987E-06
1.984127E+03	8.978184E-05	4.969580E-06
2.023810E+03	9.216824E-05	5.064805E-06
2.063492E+03	9.487038E-05	5.174569E-06
2.103175E+03	9.790554E-05	5.299349E-06
2.142857E+03	1.012894E-04	5.439493E-06
2.182540E+03	1.050120E-04	5.593934E-06
2.222222E+03	1.090637E-04	5.761631E-06
2.261905E+03	1.134661E-04	5.943177E-06
2.301587E+03	1.182720E-04	6.140724E-06
2.341270E+03	1.236090E-04	6.360165E-06
2.380952E+03	1.296020E-04	6.606995E-06
2.420635E+03	1.363828E-04	6.886777E-06
2.460317E+03	1.441121E-04	7.206249E-06
2.500000E+03	1.529339E-04	7.570955E-06
2.539683E+03	1.630298E-04	7.987946E-06
2.579365E+03	1.745994E-04	8.464726E-06
2.619048E+03	1.878862E-04	9.010423E-06
2.658730E+03	2.031581E-04	9.634751E-06
2.698413E+03	2.207366E-04	1.034928E-05
2.738095E+03	2.410000E-04	1.116744E-05
2.777778E+03	2.643963E-04	1.210492E-05
2.817460E+03	2.914656E-04	1.318045E-05
2.857143E+03	3.228769E-04	1.441722E-05
2.896825E+03	3.594568E-04	1.584368E-05
2.936508E+03	4.022440E-04	1.749544E-05
2.976190E+03	4.525283E-04	1.941632E-05
2.986111E+03	4.664625E-04	1.994515E-05
2.996032E+03	4.809807E-04	2.049458E-05
3.005952E+03	4.961314E-04	2.106637E-05
3.015873E+03	5.119321E-04	2.166098E-05
3.025794E+03	5.284238E-04	2.227984E-05
3.035714E+03	5.456498E-04	2.292444E-05
3.045635E+03	5.636200E-04	2.359485E-05
3.055556E+03	5.824046E-04	2.429365E-05
3.065476E+03	6.020167E-04	2.502101E-05
3.075397E+03	6.225195E-04	2.577915E-05
3.085317E+03	6.439412E-04	2.656881E-05
3.095238E+03	6.663244E-04	2.739132E-05
3.105159E+03	6.897392E-04	2.824910E-05
3.115079E+03	7.142078E-04	2.914257E-05
3.125000E+03	7.398185E-04	3.007481E-05
3.134921E+03	7.665831E-04	3.104578E-05
3.144841E+03	7.945972E-04	3.205877E-05
3.154762E+03	8.238897E-04	3.311438E-05
3.164683E+03	8.545485E-04	3.421551E-05
3.174603E+03	8.866212E-04	3.536341E-05
3.184524E+03	9.201888E-04	3.656064E-05
3.194444E+03	9.553190E-04	3.780918E-05
3.204365E+03	9.920844E-04	3.911114E-05
3.214286E+03	1.030540E-03	4.046794E-05
3.224206E+03	1.070800E-03	4.188321E-05
3.234127E+03	1.112928E-03	4.335857E-05
3.244048E+03	1.157026E-03	4.489714E-05
3.253968E+03	1.203166E-03	4.650075E-05
3.263889E+03	1.251440E-03	4.817201E-05
3.273810E+03	1.301968E-03	4.991445E-05
3.283730E+03	1.354831E-03	5.173017E-05
3.293651E+03	1.410161E-03	5.362304E-05
3.303571E+03	1.468074E-03	5.559636E-05
3.313492E+03	1.528653E-03	5.765196E-05
3.323413E+03	1.592073E-03	5.979525E-05
3.333333E+03	1.658458E-03	6.202944E-05
3.343254E+03	1.727963E-03	6.435898E-05
3.353175E+03	1.800760E-03	6.678879E-05
3.363095E+03	1.876989E-03	6.932251E-05
3.373016E+03	1.956908E-03	7.196799E-05
3.382937E+03	2.040727E-03	7.473122E-05
3.392857E+03	2.128681E-03	7.761897E-05
3.402778E+03	2.221066E-03	8.064002E-05
3.412698E+03	2.318213E-03	8.380434E-05
3.422619E+03	2.420435E-03	8.712096E-05
3.432540E+03	2.528173E-03	9.060333E-05
3.442460E+03	2.641807E-03	9.426246E-05
3.452381E+03	2.761781E-03	9.811143E-05
3.462302E+03	2.888415E-03	1.021586E-04
3.472222E+03	3.021913E-03	1.064082E-04
3.482143E+03	3.162427E-03	1.108623E-04
3.492063E+03	3.310084E-03	1.155221E-04
3.501984E+03	3.464957E-03	1.203869E-04
3.511905E+03	3.627101E-03	1.254555E-04
3.521825E+03	3.796595E-03	1.307272E-04
3.531746E+03	3.973472E-03	1.361997E-04
3.541667E+03	4.157787E-03	1.418718E-04
3.551587E+03	4.349498E-03	1.477387E-04
3.561508E+03	4.548629E-03	1.537978E-04
3.571429E+03	4.755144E-03	1.600447E-04
3.581349E+03	4.969079E-03	1.664775E-04
3.591270E+03	5.190308E-03	1.730887E-04
3.601190E+03	5.418775E-03	1.798732E-04
3.611111E+03	5.654232E-03	1.868198E-04
3.621032E+03	5.896553E-03	1.939213E-04
3.630952E+03	6.145512E-03	2.011675E-04
3.640873E+03	6.400847E-03	2.085470E-04
3.650794E+03	6.662307E-03	2.160487E-04
3.660714E+03	6.929606E-03	2.236609E-04
3.670635E+03	7.202348E-03	2.313682E-04
3.680556E+03	7.480220E-03	2.391583E-04
3.690476E+03	7.762735E-03	2.470135E-04
3.700397E+03	8.049560E-03	2.549212E-04
3.710317E+03	8.340187E-03	2.628637E-04
3.720238E+03	8.634057E-03	2.708216E-04
3.730159E+03	8.930625E-03	2.787768E-04
3.740079E+03	9.229415E-03	2.867131E-04
3.750000E+03	9.529716E-03	2.946078E-04
3.759921E+03	9.830970E-03	3.024430E-04
3.769841E+03	1.013238E-02	3.101941E-04
3.779762E+03	1.043322E-02	3.178387E-04
3.789683E+03	1.073279E-02	3.253564E-04
3.799603E+03	1.103039E-02	3.327261E-04
3.809524E+03	1.132511E-02	3.399215E-04
3.819444E+03	1.161626E-02	3.469238E-04
3.829365E+03	1.190278E-02	3.537027E-04
3.839286E+03	1.218407E-02	3.602425E-04
3.849206E+03	1.245903E-02	3.665135E-04
3.859127E+03	1.272705E-02	3.725004E-04
3.869048E+03	1.298712E-02	3.781773E-04
3.878968E+03	1.323846E-02	3.835247E-04
3.888889E+03	1.348018E-02	3.885210E-04
3.898810E+03	1.371154E-02	3.931492E-04
3.908730E+03	1.393171E-02	3.973905E-04
3.918651E+03	1.414012E-02	4.012336E-04
3.928571E+03	1.433595E-02	4.046602E-04
3.938492E+03	1.451861E-02	4.076598E-04
3.948413E+03	1.468749E-02	4.102213E-04
3.958333E+03	1.484229E-02	4.123420E-04
3.968254E+03	1.498257E-02	4.140162E-04
3.978175E+03	1.510795E-02	4.152401E-04
3.988095E+03	1.521820E-02	4.160139E-04
3.998016E+03	1.531346E-02	4.163479E-04
4.007937E+03	1.539369E-02	4.162482E-04
4.017857E+03	1.545940E-02	4.157347E-04
4.027778E+03	1.551085E-02	4.148212E-04
4.037698E+03	1.554871E-02	4.135317E-04
4.047619E+03	1.557376E-02	4.118930E-04
4.057540E+03	1.558675E-02	4.099307E-04
4.067460E+03	1.558856E-02	4.076727E-04
4.077381E+03	1.558013E-02	4.051489E-04
4.087302E+03	1.556272E-02	4.023961E-04
4.097222E+03	1.553727E-02	3.994428E-04
4.107143E+03	1.550504E-02	3.963249E-04
4.117063E+03	1.546706E-02	3.930717E-04
4.126984E+03	1.542467E-02	3.897193E-04
4.136905E+03	1.537917E-02	3.863027E-04
4.146825E+03	1.533168E-02	3.828511E-04
4.156746E+03	1.528349E-02	3.793978E-04
4.166667E+03	1.523567E-02	3.759696E-04
4.176587E+03	1.518950E-02	3.725979E-04
4.186508E+03	1.514599E-02	3.693063E-04
4.196429E+03	1.510632E-02	3.661231E-04
4.206349E+03	1.507146E-02	3.630693E-04
4.216270E+03	1.504237E-02	3.601667E-04
4.226190E+03	1.501990E-02	3.574326E-04
4.236111E+03	1.500503E-02	3.548879E-04
4.246032E+03	1.499850E-02	3.525468E-04
4.255952E+03	1.500109E-02	3.504240E-04
4.265873E+03	1.501341E-02	3.485298E-04
4.275794E+03	1.503601E-02	3.468731E-04
4.285714E+03	1.506949E-02	3.454636E-04
4.295635E+03	1.511441E-02	3.443092E-04
4.305556E+03	1.517111E-02	3.434136E-04
4.315476E+03	1.523999E-02	3.427804E-04
4.325397E+03	1.532122E-02	3.424093E-04
4.335317E+03	1.541518E-02	3.423031E-04
4.345238E+03	1.552198E-02	3.424598E-04
4.355159E+03	1.564209E-02	3.428844E-04
4.365079E+03	1.577546E-02	3.435709E-04
4.375000E+03	1.592223E-02	3.445172E-04
4.384921E+03	1.608227E-02	3.457156E-04
4.394841E+03	1.625565E-02	3.471626E-04
4.404762E+03	1.644187E-02	3.488427E-04
4.414683E+03	1.664050E-02	3.507424E-04
4.424603E+03	1.685108E-02	3.528477E-04
4.434524E+03	1.707290E-02	3.551400E-04
4.444444E+03	1.730510E-02	3.575975E-04
4.454365E+03	1.754639E-02	3.601913E-04
4.464286E+03	1.779566E-02	3.628957E-04
4.474206E+03	1.805129E-02	3.656758E-04
4.484127E+03	1.831152E-02	3.684953E-04
4.494048E+03	1.857445E-02	3.713157E-04
4.503968E+03	1.883762E-02	3.740883E-04
4.513889E+03	1.909883E-02	3.767716E-04
4.523810E+03	1.935536E-02	3.793144E-04
4.533730E+03	1.960455E-02	3.816683E-04
4.543651E+03	1.984326E-02	3.837771E-04
4.553571E+03	2.006879E-02	3.855950E-04
4.563492E+03	2.027802E-02	3.870689E-04
4.573413E+03	2.046843E-02	3.881591E-04
4.583333E+03	2.063722E-02	3.888214E-04
4.593254E+03	2.078216E-02	3.890240E-04
4.603175E+03	2.090121E-02	3.887392E-04
4.613095E+03	2.099309E-02	3.879543E-04
4.623016E+03	2.105642E-02	3.866554E-04
4.632937E+03	2.109092E-02	3.848483E-04
4.642857E+03	2.109646E-02	3.825427E-04
4.652778E+03	2.107350E-02	3.797577E-04
4.662698E+03	2.102349E-02	3.765298E-04
4.672619E+03	2.094785E-02	3.728943E-04
4.682540E+03	2.084900E-02	3.689034E-04
4.692460E+03	2.072964E-02	3.646124E-04
4.702381E+03	2.059325E-02	3.600895E-04
4.712302E+03	2.044306E-02	3.553962E-04
4.722222E+03	2.028308E-02	3.506066E-04
4.732143E+03	2.011700E-02	3.457868E-04
4.742063E+03	1.994873E-02	3.410059E-04
4.751984E+03	1.978158E-02	3.363210E-04
4.761905E+03	1.961879E-02	3.317861E-04
4.771825E+03	1.946315E-02	3.274474E-04
4.781746E+03	1.931697E-02	3.233415E-04
4.791667E+03	1.918199E-02	3.194950E-04
4.801587E+03	1.905862E-02	3.159120E-04
4.811508E+03	1.894587E-02	3.125737E-04
4.821429E+03	1.884192E-02	3.094475E-04
4.831349E+03	1.874541E-02	3.065097E-04
4.841270E+03	1.865559E-02	3.037464E-04
4.851190E+03	1.857203E-02	3.011496E-04
4.861111E+03	1.849412E-02	2.987071E-04
4.871032E+03	1.842225E-02	2.964225E-04
4.880952E+03	1.835651E-02	2.942937E-04
4.890873E+03	1.829699E-02	2.923190E-04
4.900794E+03	1.824415E-02	2.905027E-04
4.910714E+03	1.819813E-02	2.888440E-04
4.920635E+03	1.815871E-02	2.873362E-04
4.930556E+03	1.812562E-02	2.859722E-04
4.940476E+03	1.809786E-02	2.847337E-04
4.950397E+03	1.807508E-02	2.836126E-04
4.960317E+03	1.805647E-02	2.825937E-04
4.970238E+03	1.804126E-02	2.816626E-04
4.980159E+03	1.802930E-02	2.808151E-04
4.990079E+03	1.802046E-02	2.800468E-04
5.000000E+03	1.801508E-02	2.793611E-04
5.009921E+03	1.801362E-02	2.787630E-04
5.019841E+03	1.801679E-02	2.782614E-04
5.029762E+03	1.802520E-02	2.778636E-04
5.039683E+03	1.803991E-02	2.775841E-04
5.049603E+03	1.806170E-02	2.774325E-04
5.059524E+03	1.809158E-02	2.774221E-04
5.069444E+03	1.813024E-02	2.775616E-04
5.079365E+03	1.817862E-02	2.778631E-04
5.089286E+03	1.823693E-02	2.783276E-04
5.099206E+03	1.830580E-02	2.789626E-04
5.109127E+03	1.838480E-02	2.797595E-04
5.119048E+03	1.847378E-02	2.807139E-04
5.128968E+03	1.857204E-02	2.818132E-04
5.138889E+03	1.867874E-02	2.830427E-04
5.148810E+03	1.879327E-02	2.843913E-04
5.158730E+03	1.891458E-02	2.858413E-04
5.168651E+03	1.904172E-02	2.873767E-04
5.178571E+03	1.917363E-02	2.889795E-04
5.188492E+03	1.930897E-02	2.906284E-04
5.198413E+03	1.944648E-02	2.923025E-04
5.208333E+03	1.958456E-02	2.939765E-04
5.218254E+03	1.972197E-02	2.956304E-04
5.228175E+03	1.985701E-02	2.972372E-04
5.238095E+03	1.998810E-02	2.987725E-04
5.248016E+03	2.011373E-02	3.002124E-04
5.257937E+03	2.023223E-02	3.015311E-04
5.267857E+03	2.034229E-02	3.027083E-04
5.277778E+03	2.044273E-02	3.037258E-04
5.287698E+03	2.053268E-02	3.045701E-04
5.297619E+03	2.061127E-02	3.052279E-04
5.307540E+03	2.067835E-02	3.056967E-04
5.317460E+03	2.073381E-02	3.059746E-04
5.327381E+03	2.077774E-02	3.060628E-04
5.337302E+03	2.081009E-02	3.059606E-04
5.347222E+03	2.083145E-02	3.056765E-04
5.357143E+03	2.084158E-02	3.052074E-04
5.367063E+03	2.084058E-02	3.045545E-04
5.376984E+03	2.082742E-02	3.037033E-04
5.386905E+03	2.080068E-02	3.026331E-04
5.396825E+03	2.075835E-02	3.013154E-04
5.406746E+03	2.069890E-02	2.997290E-04
5.416667E+03	2.062027E-02	2.978456E-04
5.426587E+03	2.052066E-02	2.956406E-04
5.436508E+03	2.039846E-02	2.930932E-04
5.446429E+03	2.025288E-02	2.901942E-04
5.456349E+03	2.008314E-02	2.869356E-04
5.466270E+03	1.988911E-02	2.833186E-04
5.476190E+03	1.967112E-02	2.793512E-04
5.486111E+03	1.943002E-02	2.750490E-04
5.496032E+03	1.916712E-02	2.704343E-04
5.505952E+03	1.888445E-02	2.655395E-04
5.515873E+03	1.858439E-02	2.604015E-04
5.525794E+03	1.827029E-02	2.550711E-04
5.535714E+03	1.794543E-02	2.495967E-04
5.545635E+03	1.761427E-02	2.440434E-04
5.555556E+03	1.728102E-02	2.384715E-04
5.565476E+03	1.695068E-02	2.329515E-04
5.575397E+03	1.662837E-02	2.275544E-04
5.585317E+03	1.631877E-02	2.223440E-04
5.595238E+03	1.602728E-02	2.173925E-04
5.605159E+03	1.575831E-02	2.127578E-04
5.615079E+03	1.551597E-02	2.084919E-04
5.625000E+03	1.530455E-02	2.046482E-04
5.634921E+03	1.512709E-02	2.012624E-04
5.644841E+03	1.498650E-02	1.983672E-04
5.654762E+03	1.488527E-02	1.959885E-04
5.664683E+03	1.482522E-02	1.941426E-04
5.674603E+03	1.480759E-02	1.928376E-04
5.684524E+03	1.483318E-02	1.920749E-04
5.694444E+03	1.490228E-02	1.918490E-04
5.704365E+03	1.501437E-02	1.921438E-04
5.714286E+03	1.516773E-02	1.929273E-04
5.724206E+03	1.536072E-02	1.941694E-04
5.734127E+03	1.558993E-02	1.958176E-04
5.744048E+03	1.585182E-02	1.978190E-04
5.753968E+03	1.614156E-02	2.001056E-04
5.763889E+03	1.645386E-02	2.026053E-04
5.773810E+03	1.678261E-02	2.052375E-04
5.783730E+03	1.712140E-02	2.079201E-04
5.793651E+03	1.746325E-02	2.105665E-04
5.803571E+03	1.780123E-02	2.130934E-04
5.813492E+03	1.812874E-02	2.154234E-04
5.823413E+03	1.843960E-02	2.174872E-04
5.833333E+03	1.872751E-02	2.192159E-04
5.843254E+03	1.898759E-02	2.205602E-04
5.853175E+03	1.921516E-02	2.214746E-04
5.863095E+03	1.940684E-02	2.219307E-04
5.873016E+03	1.955999E-02	2.219097E-04
5.882937E+03	1.967284E-02	2.214038E-04
5.892857E+03	1.974514E-02	2.204231E-04
5.902778E+03	1.977748E-02	2.189873E-04
5.912698E+03	1.977139E-02	2.171260E-04
5.922619E+03	1.973003E-02	2.148864E-04
5.932540E+03	1.965641E-02	2.123127E-04
5.942460E+03	1.955487E-02	2.094622E-04
5.952381E+03	1.942992E-02	2.063929E-04
5.962302E+03	1.928603E-02	2.031601E-04
5.972222E+03	1.912798E-02	1.998211E-04
5.982143E+03	1.895976E-02	1.964229E-04
5.992063E+03	1.878576E-02	1.930155E-04
6.001984E+03	1.860886E-02	1.896318E-04
6.011905E+03	1.843195E-02	1.863037E-04
6.021825E+03	1.825690E-02	1.830520E-04
6.031746E+03	1.808499E-02	1.798908E-04
6.041667E+03	1.791674E-02	1.768264E-04
6.051587E+03	1.775218E-02	1.738601E-04
6.061508E+03	1.759135E-02	1.709933E-04
6.071429E+03	1.743321E-02	1.682167E-04
6.081349E+03	1.727747E-02	1.655286E-04
6.091270E+03	1.712328E-02	1.629222E-04
6.101190E+03	1.697043E-02	1.603965E-04
6.111111E+03	1.681822E-02	1.579459E-04
6.121032E+03	1.666755E-02	1.555803E-04
6.130952E+03	1.651896E-02	1.533053E-04
6.140873E+03	1.637364E-02	1.511325E-04
6.150794E+03	1.623262E-02	1.490717E-04
6.160714E+03	1.609803E-02	1.471417E-04
6.170635E+03	1.597251E-02	1.453632E-04
6.180556E+03	1.585865E-02	1.437556E-04
6.190476E+03	1.575889E-02	1.423371E-04
6.200397E+03	1.567459E-02	1.411161E-04
6.210317E+03	1.560709E-02	1.401006E-04
6.220238E+03	1.555583E-02	1.392821E-04
6.230159E+03	1.552060E-02	1.386552E-04
6.240079E+03	1.550044E-02	1.382085E-04
6.250000E+03	1.549341E-02	1.379220E-04
6.259921E+03	1.549808E-02	1.377805E-04
6.269841E+03	1.551270E-02	1.377664E-04
6.279762E+03	1.553550E-02	1.378621E-04
6.289683E+03	1.556434E-02	1.380469E-04
6.299603E+03	1.559766E-02	1.383052E-04
6.309524E+03	1.563377E-02	1.386208E-04
6.319444E+03	1.567131E-02	1.389799E-04
6.329365E+03	1.570896E-02	1.393696E-04
6.339286E+03	1.574580E-02	1.397804E-04
6.349206E+03	1.578123E-02	1.402057E-04
6.359127E+03	1.581535E-02	1.406450E-04
6.369048E+03	1.584850E-02	1.411001E-04
6.378968E+03	1.588095E-02	1.415722E-04
6.388889E+03	1.591492E-02	1.420801E-04
6.398810E+03	1.595229E-02	1.426397E-04
6.408730E+03	1.599544E-02	1.432713E-04
6.418651E+03	1.604706E-02	1.439985E-04
6.428571E+03	1.610921E-02	1.448397E-04
6.438492E+03	1.618455E-02	1.458186E-04
6.448413E+03	1.627504E-02	1.469530E-04
6.458333E+03	1.638264E-02	1.482612E-04
6.468254E+03	1.650821E-02	1.497517E-04
6.478175E+03	1.665347E-02	1.514411E-04
6.488095E+03	1.681836E-02	1.533299E-04
6.498016E+03	1.700278E-02	1.554187E-04
6.507937E+03	1.720526E-02	1.576954E-04
6.517857E+03	1.742317E-02	1.601376E-04
6.527778E+03	1.765388E-02	1.627221E-04
6.537698E+03	1.789401E-02	1.654194E-04
6.547619E+03	1.813952E-02	1.681931E-04
6.557540E+03	1.838626E-02	1.710055E-04
6.567460E+03	1.862985E-02	1.738165E-04
6.577381E+03	1.886592E-02	1.765855E-04
6.587302E+03	1.908913E-02	1.792623E-04
6.597222E+03	1.929508E-02	1.818049E-04
6.607143E+03	1.947928E-02	1.841698E-04
6.617063E+03	1.963749E-02	1.863135E-04
6.626984E+03	1.976710E-02	1.882070E-04
6.636905E+03	1.986558E-02	1.898214E-04
6.646825E+03	1.993175E-02	1.911404E-04
6.656746E+03	1.996416E-02	1.921448E-04
6.666667E+03	1.996301E-02	1.928312E-04
6.676587E+03	1.992910E-02	1.932020E-04
6.686508E+03	1.986296E-02	1.932572E-04
6.696429E+03	1.976663E-02	1.930116E-04
6.706349E+03	1.964195E-02	1.924785E-04
6.716270E+03	1.949194E-02	1.916831E-04
6.726190E+03	1.931923E-02	1.906473E-04
6.736111E+03	1.912710E-02	1.894002E-04
6.746032E+03	1.891947E-02	1.879777E-04
6.755952E+03	1.869926E-02	1.864062E-04
6.765873E+03	1.847064E-02	1.847254E-04
6.775794E+03	1.823607E-02	1.829585E-04
6.785714E+03	1.799899E-02	1.811392E-04
6.795635E+03	1.776096E-02	1.792822E-04
6.805556E+03	1.752354E-02	1.774032E-04
6.815476E+03	1.728807E-02	1.755154E-04
6.825397E+03	1.705680E-02	1.736420E-04
6.835317E+03	1.683317E-02	1.718182E-04
6.845238E+03	1.662123E-02	1.700861E-04
6.855159E+03	1.642323E-02	1.684699E-04
6.865079E+03	1.624115E-02	1.669910E-04
6.875000E+03	1.607529E-02	1.656539E-04
6.884921E+03	1.592621E-02	1.644656E-04
6.894841E+03	1.579349E-02	1.634231E-04
6.904762E+03	1.567597E-02	1.625154E-04
6.914683E+03	1.557260E-02	1.617330E-04
6.924603E+03	1.548171E-02	1.610594E-04
6.934524E+03	1.540105E-02	1.604719E-04
6.944444E+03	1.532856E-02	1.599500E-04
6.954365E+03	1.526212E-02	1.594720E-04
6.964286E+03	1.519992E-02	1.590197E-04
6.974206E+03	1.513934E-02	1.585660E-04
6.984127E+03	1.507913E-02	1.580984E-04
6.994048E+03	1.501702E-02	1.575935E-04
7.003968E+03	1.495184E-02	1.570394E-04
7.013889E+03	1.488215E-02	1.564215E-04
7.023810E+03	1.480736E-02	1.557342E-04
7.033730E+03	1.472681E-02	1.549709E-04
7.043651E+03	1.463991E-02	1.541262E-04
7.053571E+03	1.454618E-02	1.531957E-04
7.063492E+03	1.444625E-02	1.521869E-04
7.073413E+03	1.433992E-02	1.510984E-04
7.083333E+03	1.422734E-02	1.499327E-04
7.093254E+03	1.410865E-02	1.486925E-04
7.103175E+03	1.398370E-02	1.473770E-04
7.113095E+03	1.385286E-02	1.459913E-04
7.123016E+03	1.371589E-02	1.445339E-04
7.132937E+03	1.357282E-02	1.430063E-04
7.142857E+03	1.342393E-02	1.414128E-04
7.152778E+03	1.326894E-02	1.397516E-04
7.162698E+03	1.310824E-02	1.380278E-04
7.172619E+03	1.294136E-02	1.362378E-04
7.182540E+03	1.276874E-02	1.343876E-04
7.192460E+03	1.259064E-02	1.324810E-04
7.202381E+03	1.240738E-02	1.305226E-04
7.212302E+03	1.221935E-02	1.285176E-04
7.222222E+03	1.202705E-02	1.264724E-04
7.232143E+03	1.183081E-02	1.243914E-04
7.242063E+03	1.163157E-02	1.222857E-04
7.251984E+03	1.143010E-02	1.201643E-04
7.261905E+03	1.122728E-02	1.180371E-04
7.271825E+03	1.102379E-02	1.159122E-04
7.281746E+03	1.082085E-02	1.138032E-04
7.291667E+03	1.061973E-02	1.117240E-04
7.301587E+03	1.042099E-02	1.096811E-04
7.311508E+03	1.022596E-02	1.076890E-04
7.321429E+03	1.003571E-02	1.057597E-04
7.331349E+03	9.851536E-03	1.039070E-04
7.341270E+03	9.674235E-03	1.021400E-04
7.351190E+03	9.505022E-03	1.004719E-04
7.361111E+03	9.345051E-03	9.891555E-05
7.371032E+03	9.195001E-03	9.747861E-05
7.380952E+03	9.056105E-03	9.617484E-05
7.390873E+03	8.928667E-03	9.500821E-05
7.400794E+03	8.813483E-03	9.398804E-05
7.410714E+03	8.710804E-03	9.311801E-05
7.420635E+03	8.621104E-03	9.240431E-05
7.430556E+03	8.544042E-03	9.184450E-05
7.440476E+03	8.479667E-03	9.143966E-05
7.450397E+03	8.427609E-03	9.118572E-05
7.460317E+03	8.387047E-03	9.107379E-05
7.470238E+03	8.357519E-03	9.109893E-05
7.480159E+03	8.337562E-03	9.124532E-05
7.490079E+03	8.326045E-03	9.150068E-05
7.500000E+03	8.321230E-03	9.184589E-05
7.509921E+03	8.321531E-03	9.226330E-05
7.519841E+03	8.324713E-03	9.272775E-05
7.529762E+03	8.328780E-03	9.321634E-05
7.539683E+03	8.331298E-03	9.370080E-05
7.549603E+03	8.330073E-03	9.415508E-05
7.559524E+03	8.323226E-03	9.455616E-05
7.569444E+03	8.308688E-03	9.487838E-05
7.579365E+03	8.284890E-03	9.510132E-05
7.589286E+03	8.251121E-03	9.521403E-05
7.599206E+03	8.207109E-03	9.521049E-05
7.609127E+03	8.153371E-03	9.509375E-05
7.619048E+03	8.090096E-03	9.486315E-05
7.628968E+03	8.018453E-03	9.452967E-05
7.638889E+03	7.939298E-03	9.410087E-05
7.648810E+03	7.853355E-03	9.358301E-05
7.658730E+03	7.761781E-03	9.298774E-05
7.668651E+03	7.665321E-03	9.232213E-05
7.678571E+03	7.564898E-03	9.159560E-05
7.688492E+03	7.461577E-03	9.081965E-05
7.698413E+03	7.356164E-03	9.000294E-05
