#wls	flux	fluxerr
1.587302E+03	8.419419E-05	5.764965E-06
1.626984E+03	8.340473E-05	5.689938E-06
1.666667E+03	8.272584E-05	5.622301E-06
1.706349E+03	8.214558E-05	5.561160E-06
1.746032E+03	8.169891E-05	5.508797E-06
1.785714E+03	8.137401E-05	5.464306E-06
1.825397E+03	8.118257E-05	5.428364E-06
1.865079E+03	8.113618E-05	5.401622E-06
1.904762E+03	8.125729E-05	5.385431E-06
1.944444E+03	8.155749E-05	5.380391E-06
1.984127E+03	8.204889E-05	5.387116E-06
2.023810E+03	8.275471E-05	5.406921E-06
2.063492E+03	8.369866E-05	5.441113E-06
2.103175E+03	8.490535E-05	5.491016E-06
2.142857E+03	8.642087E-05	5.559289E-06
2.182540E+03	8.825238E-05	5.646023E-06
2.222222E+03	9.044965E-05	5.753994E-06
2.261905E+03	9.303503E-05	5.884151E-06
2.301587E+03	9.606407E-05	6.039481E-06
2.341270E+03	9.955653E-05	6.220622E-06
2.380952E+03	1.035666E-04	6.430300E-06
2.420635E+03	1.081240E-04	6.669613E-06
2.460317E+03	1.132844E-04	6.941174E-06
2.500000E+03	1.191004E-04	7.247280E-06
2.539683E+03	1.256223E-04	7.589956E-06
2.579365E+03	1.329292E-04	7.972841E-06
2.619048E+03	1.410897E-04	8.398760E-06
2.658730E+03	1.502158E-04	8.872905E-06
2.698413E+03	1.604005E-04	9.399122E-06
2.738095E+03	1.717743E-04	9.983179E-06
2.777778E+03	1.844751E-04	1.063094E-05
2.817460E+03	1.986613E-04	1.134912E-05
2.857143E+03	2.145288E-04	1.214610E-05
2.896825E+03	2.322808E-04	1.303021E-05
2.936508E+03	2.522444E-04	1.401609E-05
2.976190E+03	2.748169E-04	1.512145E-05
2.986111E+03	2.809339E-04	1.541951E-05
2.996032E+03	2.872439E-04	1.572626E-05
3.005952E+03	2.937670E-04	1.604273E-05
3.015873E+03	3.005108E-04	1.636920E-05
3.025794E+03	3.074967E-04	1.670675E-05
3.035714E+03	3.147336E-04	1.705573E-05
3.045635E+03	3.222163E-04	1.741575E-05
3.055556E+03	3.299824E-04	1.778871E-05
3.065476E+03	3.380283E-04	1.817429E-05
3.075397E+03	3.463788E-04	1.857368E-05
3.085317E+03	3.550314E-04	1.898658E-05
3.095238E+03	3.640275E-04	1.941508E-05
3.105159E+03	3.733655E-04	1.985891E-05
3.115079E+03	3.830748E-04	2.031946E-05
3.125000E+03	3.931704E-04	2.079736E-05
3.134921E+03	4.036685E-04	2.129324E-05
3.144841E+03	4.146020E-04	2.180866E-05
3.154762E+03	4.259894E-04	2.234436E-05
3.164683E+03	4.378507E-04	2.290117E-05
3.174603E+03	4.502230E-04	2.348079E-05
3.184524E+03	4.631294E-04	2.408416E-05
3.194444E+03	4.765942E-04	2.471226E-05
3.204365E+03	4.906602E-04	2.536704E-05
3.214286E+03	5.053553E-04	2.604963E-05
3.224206E+03	5.207095E-04	2.676125E-05
3.234127E+03	5.367719E-04	2.750409E-05
3.244048E+03	5.535949E-04	2.828046E-05
3.253968E+03	5.711973E-04	2.909093E-05
3.263889E+03	5.896549E-04	2.993894E-05
3.273810E+03	6.089720E-04	3.082429E-05
3.283730E+03	6.292496E-04	3.175163E-05
3.293651E+03	6.505165E-04	3.272190E-05
3.303571E+03	6.728229E-04	3.373711E-05
3.313492E+03	6.962619E-04	3.480137E-05
3.323413E+03	7.208710E-04	3.591597E-05
3.333333E+03	7.467098E-04	3.708326E-05
3.343254E+03	7.738839E-04	3.830780E-05
3.353175E+03	8.024396E-04	3.959120E-05
3.363095E+03	8.324474E-04	4.093618E-05
3.373016E+03	8.640030E-04	4.234666E-05
3.382937E+03	8.971847E-04	4.382565E-05
3.392857E+03	9.320731E-04	4.537621E-05
3.402778E+03	9.687526E-04	4.700152E-05
3.412698E+03	1.007286E-03	4.870364E-05
3.422619E+03	1.047786E-03	5.048703E-05
3.432540E+03	1.090346E-03	5.235508E-05
3.442460E+03	1.134983E-03	5.430746E-05
3.452381E+03	1.181840E-03	5.634994E-05
3.462302E+03	1.230961E-03	5.848335E-05
3.472222E+03	1.282413E-03	6.070955E-05
3.482143E+03	1.336259E-03	6.303031E-05
3.492063E+03	1.392532E-03	6.544583E-05
3.501984E+03	1.451289E-03	6.795741E-05
3.511905E+03	1.512552E-03	7.056468E-05
3.521825E+03	1.576398E-03	7.326980E-05
3.531746E+03	1.642834E-03	7.607165E-05
3.541667E+03	1.711860E-03	7.896878E-05
3.551587E+03	1.783501E-03	8.196075E-05
3.561508E+03	1.857733E-03	8.504506E-05
3.571429E+03	1.934488E-03	8.821700E-05
3.581349E+03	2.013751E-03	9.147452E-05
3.591270E+03	2.095421E-03	9.481152E-05
3.601190E+03	2.179569E-03	9.822980E-05
3.611111E+03	2.266069E-03	1.017221E-04
3.621032E+03	2.354969E-03	1.052894E-04
3.630952E+03	2.446277E-03	1.089303E-04
3.640873E+03	2.539867E-03	1.126380E-04
3.650794E+03	2.635720E-03	1.164102E-04
3.660714E+03	2.733812E-03	1.202443E-04
3.670635E+03	2.834063E-03	1.241356E-04
3.680556E+03	2.936336E-03	1.280767E-04
3.690476E+03	3.040524E-03	1.320616E-04
3.700397E+03	3.146554E-03	1.360860E-04
3.710317E+03	3.254249E-03	1.401411E-04
3.720238E+03	3.363513E-03	1.442217E-04
3.730159E+03	3.474140E-03	1.483178E-04
3.740079E+03	3.586013E-03	1.524238E-04
3.750000E+03	3.698846E-03	1.565264E-04
3.759921E+03	3.812555E-03	1.606216E-04
3.769841E+03	3.926829E-03	1.646956E-04
3.779762E+03	4.041512E-03	1.687414E-04
3.789683E+03	4.156383E-03	1.727495E-04
3.799603E+03	4.271215E-03	1.767101E-04
3.809524E+03	4.385719E-03	1.806113E-04
3.819444E+03	4.499655E-03	1.844433E-04
3.829365E+03	4.612840E-03	1.881988E-04
3.839286E+03	4.725035E-03	1.918683E-04
3.849206E+03	4.835872E-03	1.954376E-04
3.859127E+03	4.945236E-03	1.989025E-04
3.869048E+03	5.052825E-03	2.022517E-04
3.878968E+03	5.158409E-03	2.054771E-04
3.888889E+03	5.261759E-03	2.085706E-04
3.898810E+03	5.362729E-03	2.115276E-04
3.908730E+03	5.460978E-03	2.143361E-04
3.918651E+03	5.556380E-03	2.169927E-04
3.928571E+03	5.648822E-03	2.194947E-04
3.938492E+03	5.738004E-03	2.218320E-04
3.948413E+03	5.823915E-03	2.240062E-04
3.958333E+03	5.906288E-03	2.260089E-04
3.968254E+03	5.985151E-03	2.278433E-04
3.978175E+03	6.060272E-03	2.295026E-04
3.988095E+03	6.131724E-03	2.309919E-04
3.998016E+03	6.199314E-03	2.323060E-04
4.007937E+03	6.263162E-03	2.334518E-04
4.017857E+03	6.323188E-03	2.344286E-04
4.027778E+03	6.379344E-03	2.352369E-04
4.037698E+03	6.431815E-03	2.358858E-04
4.047619E+03	6.480600E-03	2.363776E-04
4.057540E+03	6.525719E-03	2.367152E-04
4.067460E+03	6.567366E-03	2.369081E-04
4.077381E+03	6.605761E-03	2.369661E-04
4.087302E+03	6.640860E-03	2.368898E-04
4.097222E+03	6.673081E-03	2.366960E-04
4.107143E+03	6.702501E-03	2.363894E-04
4.117063E+03	6.729367E-03	2.359804E-04
4.126984E+03	6.753941E-03	2.354797E-04
4.136905E+03	6.776502E-03	2.348985E-04
4.146825E+03	6.797269E-03	2.342458E-04
4.156746E+03	6.816614E-03	2.335355E-04
4.166667E+03	6.834703E-03	2.327742E-04
4.176587E+03	6.851918E-03	2.319757E-04
4.186508E+03	6.868434E-03	2.311467E-04
4.196429E+03	6.884565E-03	2.302981E-04
4.206349E+03	6.900625E-03	2.294409E-04
4.216270E+03	6.916785E-03	2.285809E-04
4.226190E+03	6.933348E-03	2.277280E-04
4.236111E+03	6.950544E-03	2.268899E-04
4.246032E+03	6.968587E-03	2.260731E-04
4.255952E+03	6.987684E-03	2.252841E-04
4.265873E+03	7.007958E-03	2.245262E-04
4.275794E+03	7.029655E-03	2.238069E-04
4.285714E+03	7.052799E-03	2.231263E-04
4.295635E+03	7.077674E-03	2.224925E-04
4.305556E+03	7.104268E-03	2.219044E-04
4.315476E+03	7.132753E-03	2.213667E-04
4.325397E+03	7.163212E-03	2.208807E-04
4.335317E+03	7.195693E-03	2.204473E-04
4.345238E+03	7.230414E-03	2.200719E-04
4.355159E+03	7.267335E-03	2.197524E-04
4.365079E+03	7.306714E-03	2.194955E-04
4.375000E+03	7.348615E-03	2.193019E-04
4.384921E+03	7.393060E-03	2.191711E-04
4.394841E+03	7.440106E-03	2.191036E-04
4.404762E+03	7.489707E-03	2.190968E-04
4.414683E+03	7.541784E-03	2.191474E-04
4.424603E+03	7.596236E-03	2.192513E-04
4.434524E+03	7.652934E-03	2.194039E-04
4.444444E+03	7.711649E-03	2.195977E-04
4.454365E+03	7.772202E-03	2.198270E-04
4.464286E+03	7.834315E-03	2.200833E-04
4.474206E+03	7.897692E-03	2.203581E-04
4.484127E+03	7.962019E-03	2.206423E-04
4.494048E+03	8.026882E-03	2.209245E-04
4.503968E+03	8.091930E-03	2.211954E-04
4.513889E+03	8.156800E-03	2.214457E-04
4.523810E+03	8.220965E-03	2.216617E-04
4.533730E+03	8.284060E-03	2.218346E-04
4.543651E+03	8.345651E-03	2.219542E-04
4.553571E+03	8.405247E-03	2.220090E-04
4.563492E+03	8.462532E-03	2.219923E-04
4.573413E+03	8.516975E-03	2.218921E-04
4.583333E+03	8.568314E-03	2.217041E-04
4.593254E+03	8.616154E-03	2.214202E-04
4.603175E+03	8.660051E-03	2.210316E-04
4.613095E+03	8.699844E-03	2.205371E-04
4.623016E+03	8.735001E-03	2.199260E-04
4.632937E+03	8.765447E-03	2.191995E-04
4.642857E+03	8.790814E-03	2.183514E-04
4.652778E+03	8.810866E-03	2.173791E-04
4.662698E+03	8.825409E-03	2.162812E-04
4.672619E+03	8.834216E-03	2.150555E-04
4.682540E+03	8.837290E-03	2.137052E-04
4.692460E+03	8.834865E-03	2.122395E-04
4.702381E+03	8.827149E-03	2.106664E-04
4.712302E+03	8.814486E-03	2.089969E-04
4.722222E+03	8.797437E-03	2.072471E-04
4.732143E+03	8.776260E-03	2.054253E-04
4.742063E+03	8.751572E-03	2.035483E-04
4.751984E+03	8.723750E-03	2.016266E-04
4.761905E+03	8.693256E-03	1.996725E-04
4.771825E+03	8.660610E-03	1.976993E-04
4.781746E+03	8.626222E-03	1.957176E-04
4.791667E+03	8.590383E-03	1.937348E-04
4.801587E+03	8.553422E-03	1.917591E-04
4.811508E+03	8.515544E-03	1.897957E-04
4.821429E+03	8.477018E-03	1.878512E-04
4.831349E+03	8.438197E-03	1.859337E-04
4.841270E+03	8.399406E-03	1.840505E-04
4.851190E+03	8.361024E-03	1.822099E-04
4.861111E+03	8.323239E-03	1.804153E-04
4.871032E+03	8.286371E-03	1.786725E-04
4.880952E+03	8.250644E-03	1.769852E-04
4.890873E+03	8.216251E-03	1.753563E-04
4.900794E+03	8.183439E-03	1.737900E-04
4.910714E+03	8.152260E-03	1.722860E-04
4.920635E+03	8.122810E-03	1.708451E-04
4.930556E+03	8.095300E-03	1.694705E-04
4.940476E+03	8.069593E-03	1.681581E-04
4.950397E+03	8.045688E-03	1.669065E-04
4.960317E+03	8.023730E-03	1.657177E-04
4.970238E+03	8.003468E-03	1.645853E-04
4.980159E+03	7.985132E-03	1.635128E-04
4.990079E+03	7.968573E-03	1.624962E-04
5.000000E+03	7.953818E-03	1.615348E-04
5.009921E+03	7.940985E-03	1.606301E-04
5.019841E+03	7.930134E-03	1.597822E-04
5.029762E+03	7.921257E-03	1.589899E-04
5.039683E+03	7.914443E-03	1.582539E-04
5.049603E+03	7.909785E-03	1.575751E-04
5.059524E+03	7.907393E-03	1.569548E-04
5.069444E+03	7.907460E-03	1.563957E-04
5.079365E+03	7.909953E-03	1.558961E-04
5.089286E+03	7.915145E-03	1.554605E-04
5.099206E+03	7.922991E-03	1.550870E-04
5.109127E+03	7.933581E-03	1.547764E-04
5.119048E+03	7.947141E-03	1.545321E-04
5.128968E+03	7.963487E-03	1.543496E-04
5.138889E+03	7.982797E-03	1.542314E-04
5.148810E+03	8.004986E-03	1.541749E-04
5.158730E+03	8.030082E-03	1.541799E-04
5.168651E+03	8.057832E-03	1.542406E-04
5.178571E+03	8.088168E-03	1.543549E-04
5.188492E+03	8.120889E-03	1.545183E-04
5.198413E+03	8.155668E-03	1.547238E-04
5.208333E+03	8.192210E-03	1.549652E-04
5.218254E+03	8.230257E-03	1.552371E-04
5.228175E+03	8.269354E-03	1.555304E-04
5.238095E+03	8.309091E-03	1.558369E-04
5.248016E+03	8.348950E-03	1.561467E-04
5.257937E+03	8.388558E-03	1.564525E-04
5.267857E+03	8.427365E-03	1.567438E-04
5.277778E+03	8.464989E-03	1.570135E-04
5.287698E+03	8.500813E-03	1.572501E-04
5.297619E+03	8.534497E-03	1.574474E-04
5.307540E+03	8.565655E-03	1.575983E-04
5.317460E+03	8.593876E-03	1.576956E-04
5.327381E+03	8.618983E-03	1.577361E-04
5.337302E+03	8.640622E-03	1.577137E-04
5.347222E+03	8.658760E-03	1.576281E-04
5.357143E+03	8.673322E-03	1.574783E-04
5.367063E+03	8.684028E-03	1.572596E-04
5.376984E+03	8.690780E-03	1.569705E-04
5.386905E+03	8.692896E-03	1.565992E-04
5.396825E+03	8.689757E-03	1.561351E-04
5.406746E+03	8.680769E-03	1.555682E-04
5.416667E+03	8.665342E-03	1.548885E-04
5.426587E+03	8.643024E-03	1.540890E-04
5.436508E+03	8.613608E-03	1.531664E-04
5.446429E+03	8.577149E-03	1.521225E-04
5.456349E+03	8.533801E-03	1.509605E-04
5.466270E+03	8.483814E-03	1.496853E-04
5.476190E+03	8.427862E-03	1.483096E-04
5.486111E+03	8.366604E-03	1.468452E-04
5.496032E+03	8.300664E-03	1.453036E-04
5.505952E+03	8.231203E-03	1.437055E-04
5.515873E+03	8.159064E-03	1.420657E-04
5.525794E+03	8.085343E-03	1.404034E-04
5.535714E+03	8.011355E-03	1.387414E-04
5.545635E+03	7.938126E-03	1.370974E-04
5.555556E+03	7.866941E-03	1.354931E-04
5.565476E+03	7.799006E-03	1.339490E-04
5.575397E+03	7.735517E-03	1.324849E-04
5.585317E+03	7.677745E-03	1.311217E-04
5.595238E+03	7.626790E-03	1.298774E-04
5.605159E+03	7.583830E-03	1.287708E-04
5.615079E+03	7.550124E-03	1.278220E-04
5.625000E+03	7.526769E-03	1.270482E-04
5.634921E+03	7.515015E-03	1.264687E-04
5.644841E+03	7.516013E-03	1.261011E-04
5.654762E+03	7.530879E-03	1.259620E-04
5.664683E+03	7.560679E-03	1.260671E-04
5.674603E+03	7.606391E-03	1.264302E-04
5.684524E+03	7.668951E-03	1.270643E-04
5.694444E+03	7.748958E-03	1.279767E-04
5.704365E+03	7.846866E-03	1.291718E-04
5.714286E+03	7.962926E-03	1.306509E-04
5.724206E+03	8.096888E-03	1.324070E-04
5.734127E+03	8.248390E-03	1.344312E-04
5.744048E+03	8.416435E-03	1.367043E-04
5.753968E+03	8.599648E-03	1.392014E-04
5.763889E+03	8.796582E-03	1.418966E-04
5.773810E+03	9.005275E-03	1.447561E-04
5.783730E+03	9.223243E-03	1.477382E-04
5.793651E+03	9.448205E-03	1.508049E-04
5.803571E+03	9.677124E-03	1.539071E-04
5.813492E+03	9.907174E-03	1.569995E-04
5.823413E+03	1.013496E-02	1.600285E-04
5.833333E+03	1.035746E-02	1.629472E-04
5.843254E+03	1.057129E-02	1.657041E-04
5.853175E+03	1.077339E-02	1.682533E-04
5.863095E+03	1.096075E-02	1.705504E-04
5.873016E+03	1.113047E-02	1.725537E-04
5.882937E+03	1.128037E-02	1.742334E-04
5.892857E+03	1.140834E-02	1.755607E-04
5.902778E+03	1.151285E-02	1.765169E-04
5.912698E+03	1.159301E-02	1.770933E-04
5.922619E+03	1.164825E-02	1.772861E-04
5.932540E+03	1.167894E-02	1.771057E-04
5.942460E+03	1.168546E-02	1.765630E-04
5.952381E+03	1.166923E-02	1.756842E-04
5.962302E+03	1.163175E-02	1.744964E-04
5.972222E+03	1.157519E-02	1.730360E-04
5.982143E+03	1.150175E-02	1.713397E-04
5.992063E+03	1.141410E-02	1.694505E-04
6.001984E+03	1.131490E-02	1.674105E-04
6.011905E+03	1.120667E-02	1.652595E-04
6.021825E+03	1.109229E-02	1.630415E-04
6.031746E+03	1.097412E-02	1.607925E-04
6.041667E+03	1.085436E-02	1.585457E-04
6.051587E+03	1.073537E-02	1.563362E-04
6.061508E+03	1.061877E-02	1.541878E-04
6.071429E+03	1.050617E-02	1.521240E-04
6.081349E+03	1.039891E-02	1.501640E-04
6.091270E+03	1.029793E-02	1.483209E-04
6.101190E+03	1.020388E-02	1.466040E-04
6.111111E+03	1.011704E-02	1.450169E-04
6.121032E+03	1.003732E-02	1.435577E-04
6.130952E+03	9.964701E-03	1.422261E-04
6.140873E+03	9.899385E-03	1.410247E-04
6.150794E+03	9.840658E-03	1.399431E-04
6.160714E+03	9.788176E-03	1.389763E-04
6.170635E+03	9.740813E-03	1.381082E-04
6.180556E+03	9.697651E-03	1.373250E-04
6.190476E+03	9.657573E-03	1.366095E-04
6.200397E+03	9.619094E-03	1.359396E-04
6.210317E+03	9.581392E-03	1.353025E-04
6.220238E+03	9.543293E-03	1.346806E-04
6.230159E+03	9.503824E-03	1.340592E-04
6.240079E+03	9.462631E-03	1.334322E-04
6.250000E+03	9.419290E-03	1.327927E-04
6.259921E+03	9.373808E-03	1.321398E-04
6.269841E+03	9.326597E-03	1.314781E-04
6.279762E+03	9.278072E-03	1.308127E-04
6.289683E+03	9.228937E-03	1.301523E-04
6.299603E+03	9.180127E-03	1.295091E-04
6.309524E+03	9.132392E-03	1.288928E-04
6.319444E+03	9.086853E-03	1.283184E-04
6.329365E+03	9.044143E-03	1.277938E-04
6.339286E+03	9.005210E-03	1.273317E-04
6.349206E+03	8.970941E-03	1.269440E-04
6.359127E+03	8.942040E-03	1.266400E-04
6.369048E+03	8.919134E-03	1.264280E-04
6.378968E+03	8.902779E-03	1.263154E-04
6.388889E+03	8.893341E-03	1.263071E-04
6.398810E+03	8.891244E-03	1.264086E-04
6.408730E+03	8.896620E-03	1.266218E-04
6.418651E+03	8.909912E-03	1.269525E-04
6.428571E+03	8.931151E-03	1.274013E-04
6.438492E+03	8.960549E-03	1.279708E-04
6.448413E+03	8.998124E-03	1.286614E-04
6.458333E+03	9.043935E-03	1.294739E-04
6.468254E+03	9.097814E-03	1.304059E-04
6.478175E+03	9.159724E-03	1.314567E-04
6.488095E+03	9.229243E-03	1.326205E-04
6.498016E+03	9.305917E-03	1.338907E-04
6.507937E+03	9.389131E-03	1.352585E-04
6.517857E+03	9.477978E-03	1.367108E-04
6.527778E+03	9.571801E-03	1.382380E-04
6.537698E+03	9.669418E-03	1.398230E-04
6.547619E+03	9.769667E-03	1.414489E-04
6.557540E+03	9.871291E-03	1.430973E-04
6.567460E+03	9.973096E-03	1.447506E-04
6.577381E+03	1.007355E-02	1.463863E-04
6.587302E+03	1.017152E-02	1.479874E-04
6.597222E+03	1.026513E-02	1.495264E-04
6.607143E+03	1.035342E-02	1.509887E-04
6.617063E+03	1.043490E-02	1.523520E-04
6.626984E+03	1.050831E-02	1.535976E-04
6.636905E+03	1.057270E-02	1.547107E-04
6.646825E+03	1.062691E-02	1.556739E-04
6.656746E+03	1.067027E-02	1.564765E-04
6.666667E+03	1.070198E-02	1.571058E-04
6.676587E+03	1.072176E-02	1.575564E-04
6.686508E+03	1.072952E-02	1.578261E-04
6.696429E+03	1.072491E-02	1.579086E-04
6.706349E+03	1.070829E-02	1.578081E-04
6.716270E+03	1.068004E-02	1.575295E-04
6.726190E+03	1.064092E-02	1.570830E-04
6.736111E+03	1.059151E-02	1.564765E-04
6.746032E+03	1.053272E-02	1.557228E-04
6.755952E+03	1.046556E-02	1.548364E-04
6.765873E+03	1.039131E-02	1.538358E-04
6.775794E+03	1.031115E-02	1.527379E-04
6.785714E+03	1.022610E-02	1.515578E-04
6.795635E+03	1.013734E-02	1.503128E-04
6.805556E+03	1.004616E-02	1.490220E-04
6.815476E+03	9.953693E-03	1.477020E-04
6.825397E+03	9.861043E-03	1.463694E-04
6.835317E+03	9.769784E-03	1.450476E-04
6.845238E+03	9.681288E-03	1.437572E-04
6.855159E+03	9.596623E-03	1.425142E-04
6.865079E+03	9.516963E-03	1.413361E-04
6.875000E+03	9.442954E-03	1.402327E-04
6.884921E+03	9.375294E-03	1.392146E-04
6.894841E+03	9.314267E-03	1.382862E-04
6.904762E+03	9.259883E-03	1.374477E-04
6.914683E+03	9.211746E-03	1.366933E-04
6.924603E+03	9.169522E-03	1.360184E-04
6.934524E+03	9.132369E-03	1.354103E-04
6.944444E+03	9.099590E-03	1.348591E-04
6.954365E+03	9.070223E-03	1.343505E-04
6.964286E+03	9.043244E-03	1.338695E-04
6.974206E+03	9.017471E-03	1.333988E-04
6.984127E+03	8.992066E-03	1.329262E-04
6.994048E+03	8.965967E-03	1.324364E-04
7.003968E+03	8.938696E-03	1.319227E-04
7.013889E+03	8.909302E-03	1.313713E-04
7.023810E+03	8.877297E-03	1.307756E-04
7.033730E+03	8.842507E-03	1.301334E-04
7.043651E+03	8.804750E-03	1.294427E-04
7.053571E+03	8.763971E-03	1.287032E-04
7.063492E+03	8.720066E-03	1.279139E-04
7.073413E+03	8.673313E-03	1.270797E-04
7.083333E+03	8.623890E-03	1.262037E-04
7.093254E+03	8.571846E-03	1.252873E-04
7.103175E+03	8.517693E-03	1.243387E-04
7.113095E+03	8.461322E-03	1.233570E-04
7.123016E+03	8.403055E-03	1.223475E-04
7.132937E+03	8.343032E-03	1.213130E-04
7.142857E+03	8.281511E-03	1.202579E-04
7.152778E+03	8.218414E-03	1.191817E-04
7.162698E+03	8.153784E-03	1.180859E-04
7.172619E+03	8.087646E-03	1.169713E-04
7.182540E+03	8.020153E-03	1.158409E-04
7.192460E+03	7.951289E-03	1.146953E-04
7.202381E+03	7.881029E-03	1.135346E-04
7.212302E+03	7.809343E-03	1.123591E-04
7.222222E+03	7.736194E-03	1.111690E-04
7.232143E+03	7.661704E-03	1.099667E-04
7.242063E+03	7.585851E-03	1.087525E-04
7.251984E+03	7.508636E-03	1.075269E-04
7.261905E+03	7.430085E-03	1.062911E-04
7.271825E+03	7.350553E-03	1.050506E-04
7.281746E+03	7.269864E-03	1.038034E-04
7.291667E+03	7.188330E-03	1.025546E-04
7.301587E+03	7.106320E-03	1.013097E-04
7.311508E+03	7.024118E-03	1.000734E-04
7.321429E+03	6.942050E-03	9.885063E-05
7.331349E+03	6.860485E-03	9.764697E-05
7.341270E+03	6.779808E-03	9.646825E-05
7.351190E+03	6.700562E-03	9.532244E-05
7.361111E+03	6.622885E-03	9.421178E-05
7.371032E+03	6.547328E-03	9.314434E-05
7.380952E+03	6.474156E-03	9.212412E-05
7.390873E+03	6.404003E-03	9.116036E-05
7.400794E+03	6.336923E-03	9.025404E-05
7.410714E+03	6.273185E-03	8.940924E-05
7.420635E+03	6.213124E-03	8.863097E-05
7.430556E+03	6.156621E-03	8.791779E-05
7.440476E+03	6.103999E-03	8.727463E-05
7.450397E+03	6.054870E-03	8.669620E-05
7.460317E+03	6.009397E-03	8.618458E-05
7.470238E+03	5.967267E-03	8.573457E-05
7.480159E+03	5.927946E-03	8.533784E-05
7.490079E+03	5.891302E-03	8.499179E-05
7.500000E+03	5.856722E-03	8.468692E-05
7.509921E+03	5.823615E-03	8.441400E-05
7.519841E+03	5.791177E-03	8.416064E-05
7.529762E+03	5.758660E-03	8.391518E-05
7.539683E+03	5.725276E-03	8.366524E-05
7.549603E+03	5.690343E-03	8.339992E-05
7.559524E+03	5.652720E-03	8.310137E-05
7.569444E+03	5.612057E-03	8.276330E-05
7.579365E+03	5.567560E-03	8.237268E-05
7.589286E+03	5.519162E-03	8.192716E-05
7.599206E+03	5.466966E-03	8.142690E-05
7.609127E+03	5.411399E-03	8.087692E-05
7.619048E+03	5.353066E-03	8.028500E-05
7.628968E+03	5.292357E-03	7.965581E-05
7.638889E+03	5.229767E-03	7.899574E-05
7.648810E+03	5.165882E-03	7.831268E-05
7.658730E+03	5.101023E-03	7.761062E-05
7.668651E+03	5.035579E-03	7.689474E-05
7.678571E+03	4.969900E-03	7.616967E-05
7.688492E+03	4.904391E-03	7.544110E-05
7.698413E+03	4.839205E-03	7.471085E-05
