#wls	flux	fluxerr
1.587302E+03	5.290377E-05	4.977566E-06
1.626984E+03	5.225259E-05	4.897222E-06
1.666667E+03	5.167145E-05	4.823437E-06
1.706349E+03	5.113133E-05	4.753441E-06
1.746032E+03	5.066172E-05	4.689923E-06
1.785714E+03	5.026287E-05	4.632827E-06
1.825397E+03	4.992584E-05	4.581251E-06
1.865079E+03	4.966086E-05	4.536052E-06
1.904762E+03	4.947818E-05	4.498071E-06
1.944444E+03	4.937891E-05	4.467299E-06
1.984127E+03	4.937375E-05	4.444582E-06
2.023810E+03	4.946452E-05	4.429948E-06
2.063492E+03	4.965360E-05	4.423464E-06
2.103175E+03	4.996214E-05	4.426851E-06
2.142857E+03	5.038457E-05	4.439425E-06
2.182540E+03	5.093439E-05	4.462178E-06
2.222222E+03	5.160770E-05	4.494549E-06
2.261905E+03	5.242905E-05	4.538440E-06
2.301587E+03	5.338746E-05	4.592637E-06
2.341270E+03	5.450075E-05	4.658395E-06
2.380952E+03	5.577897E-05	4.736265E-06
2.420635E+03	5.722436E-05	4.826100E-06
2.460317E+03	5.885975E-05	4.929461E-06
2.500000E+03	6.069101E-05	5.046431E-06
2.539683E+03	6.273583E-05	5.178039E-06
2.579365E+03	6.501455E-05	5.325470E-06
2.619048E+03	6.755069E-05	5.490099E-06
2.658730E+03	7.037145E-05	5.673517E-06
2.698413E+03	7.350835E-05	5.877565E-06
2.738095E+03	7.699800E-05	6.104380E-06
2.777778E+03	8.087170E-05	6.355552E-06
2.817460E+03	8.518968E-05	6.634808E-06
2.857143E+03	8.998567E-05	6.943622E-06
2.896825E+03	9.534971E-05	7.287635E-06
2.936508E+03	1.013737E-04	7.672323E-06
2.976190E+03	1.081655E-04	8.104017E-06
2.986111E+03	1.099893E-04	8.219485E-06
2.996032E+03	1.118906E-04	8.339931E-06
3.005952E+03	1.138440E-04	8.463416E-06
3.015873E+03	1.158657E-04	8.591099E-06
3.025794E+03	1.179580E-04	8.723112E-06
3.035714E+03	1.201090E-04	8.858521E-06
3.045635E+03	1.223502E-04	8.999613E-06
3.055556E+03	1.246550E-04	9.144375E-06
3.065476E+03	1.270561E-04	9.295148E-06
3.075397E+03	1.295417E-04	9.451010E-06
3.085317E+03	1.320993E-04	9.610999E-06
3.095238E+03	1.347629E-04	9.777528E-06
3.105159E+03	1.375208E-04	9.949678E-06
3.115079E+03	1.403925E-04	1.012879E-05
3.125000E+03	1.433660E-04	1.031394E-05
3.134921E+03	1.464451E-04	1.050530E-05
3.144841E+03	1.496507E-04	1.070430E-05
3.154762E+03	1.529705E-04	1.091000E-05
3.164683E+03	1.564435E-04	1.112506E-05
3.174603E+03	1.600405E-04	1.134733E-05
3.184524E+03	1.637841E-04	1.157830E-05
3.194444E+03	1.676799E-04	1.181828E-05
3.204365E+03	1.717339E-04	1.206758E-05
3.214286E+03	1.759523E-04	1.232651E-05
3.224206E+03	1.803414E-04	1.259541E-05
3.234127E+03	1.849272E-04	1.287596E-05
3.244048E+03	1.897178E-04	1.316859E-05
3.253968E+03	1.947010E-04	1.347230E-05
3.263889E+03	1.999049E-04	1.378890E-05
3.273810E+03	2.053381E-04	1.411882E-05
3.283730E+03	2.110098E-04	1.446253E-05
3.293651E+03	2.169295E-04	1.482049E-05
3.303571E+03	2.231288E-04	1.519470E-05
3.313492E+03	2.295968E-04	1.558420E-05
3.323413E+03	2.363669E-04	1.599105E-05
3.333333E+03	2.434509E-04	1.641584E-05
3.343254E+03	2.508380E-04	1.685761E-05
3.353175E+03	2.585878E-04	1.732013E-05
3.363095E+03	2.666907E-04	1.780249E-05
3.373016E+03	2.751856E-04	1.830702E-05
3.382937E+03	2.840880E-04	1.883446E-05
3.392857E+03	2.933881E-04	1.938386E-05
3.402778E+03	3.031544E-04	1.995943E-05
3.412698E+03	3.133512E-04	2.055848E-05
3.422619E+03	3.240500E-04	2.118537E-05
3.432540E+03	3.352704E-04	2.184100E-05
3.442460E+03	3.470328E-04	2.252630E-05
3.452381E+03	3.593580E-04	2.324220E-05
3.462302E+03	3.722673E-04	2.398965E-05
3.472222E+03	3.858129E-04	2.477156E-05
3.482143E+03	3.999877E-04	2.558700E-05
3.492063E+03	4.148460E-04	2.643895E-05
3.501984E+03	4.304131E-04	2.732848E-05
3.511905E+03	4.467141E-04	2.825664E-05
3.521825E+03	4.637746E-04	2.922448E-05
3.531746E+03	4.816553E-04	3.023522E-05
3.541667E+03	5.003847E-04	3.129001E-05
3.551587E+03	5.199911E-04	3.238996E-05
3.561508E+03	5.404661E-04	3.353386E-05
3.571429E+03	5.619119E-04	3.472734E-05
3.581349E+03	5.843207E-04	3.596917E-05
3.591270E+03	6.077607E-04	3.726276E-05
3.601190E+03	6.322219E-04	3.860671E-05
3.611111E+03	6.577735E-04	4.000440E-05
3.621032E+03	6.844454E-04	4.145678E-05
3.630952E+03	7.122237E-04	4.296213E-05
3.640873E+03	7.412220E-04	4.452639E-05
3.650794E+03	7.714259E-04	4.614771E-05
3.660714E+03	8.028618E-04	4.782670E-05
3.670635E+03	8.355546E-04	4.956386E-05
3.680556E+03	8.695761E-04	5.136240E-05
3.690476E+03	9.049024E-04	5.321984E-05
3.700397E+03	9.415539E-04	5.513633E-05
3.710317E+03	9.796500E-04	5.711773E-05
3.720238E+03	1.019058E-03	5.915517E-05
3.730159E+03	1.059946E-03	6.125728E-05
3.740079E+03	1.102170E-03	6.341461E-05
3.750000E+03	1.145899E-03	6.563570E-05
3.759921E+03	1.191034E-03	6.791363E-05
3.769841E+03	1.237576E-03	7.024733E-05
3.779762E+03	1.285639E-03	7.264206E-05
3.789683E+03	1.335047E-03	7.508673E-05
3.799603E+03	1.385969E-03	7.758957E-05
3.809524E+03	1.438215E-03	8.013878E-05
3.819444E+03	1.491952E-03	8.274245E-05
3.829365E+03	1.546975E-03	8.538816E-05
3.839286E+03	1.603385E-03	8.808024E-05
3.849206E+03	1.661090E-03	9.081253E-05
3.859127E+03	1.720058E-03	9.358217E-05
3.869048E+03	1.780183E-03	9.638239E-05
3.878968E+03	1.841558E-03	9.921715E-05
3.888889E+03	1.904067E-03	1.020793E-04
3.898810E+03	1.967594E-03	1.049615E-04
3.908730E+03	2.032079E-03	1.078599E-04
3.918651E+03	2.097537E-03	1.107742E-04
3.928571E+03	2.163831E-03	1.136966E-04
3.938492E+03	2.230894E-03	1.166228E-04
3.948413E+03	2.298585E-03	1.195448E-04
3.958333E+03	2.366973E-03	1.224657E-04
3.968254E+03	2.435762E-03	1.253695E-04
3.978175E+03	2.505023E-03	1.282596E-04
3.988095E+03	2.574602E-03	1.311277E-04
3.998016E+03	2.644342E-03	1.339656E-04
4.007937E+03	2.714241E-03	1.367730E-04
4.017857E+03	2.784149E-03	1.395424E-04
4.027778E+03	2.854072E-03	1.422740E-04
4.037698E+03	2.923787E-03	1.449567E-04
4.047619E+03	2.993231E-03	1.475876E-04
4.057540E+03	3.062428E-03	1.501682E-04
4.067460E+03	3.131253E-03	1.526925E-04
4.077381E+03	3.199667E-03	1.551591E-04
4.087302E+03	3.267558E-03	1.575629E-04
4.097222E+03	3.334985E-03	1.599072E-04
4.107143E+03	3.401773E-03	1.621843E-04
4.117063E+03	3.467993E-03	1.643979E-04
4.126984E+03	3.533562E-03	1.665448E-04
4.136905E+03	3.598565E-03	1.686296E-04
4.146825E+03	3.662848E-03	1.706457E-04
4.156746E+03	3.726509E-03	1.725983E-04
4.166667E+03	3.789489E-03	1.744853E-04
4.176587E+03	3.851818E-03	1.763089E-04
4.186508E+03	3.913536E-03	1.780715E-04
4.196429E+03	3.974612E-03	1.797723E-04
4.206349E+03	4.035102E-03	1.814147E-04
4.216270E+03	4.095072E-03	1.830021E-04
4.226190E+03	4.154589E-03	1.845383E-04
4.236111E+03	4.213647E-03	1.860235E-04
4.246032E+03	4.272245E-03	1.874583E-04
4.255952E+03	4.330628E-03	1.888539E-04
4.265873E+03	4.388714E-03	1.902073E-04
4.275794E+03	4.446505E-03	1.915189E-04
4.285714E+03	4.504243E-03	1.927998E-04
4.295635E+03	4.561842E-03	1.940465E-04
4.305556E+03	4.619457E-03	1.952660E-04
4.315476E+03	4.676987E-03	1.964544E-04
4.325397E+03	4.734579E-03	1.976182E-04
4.335317E+03	4.792285E-03	1.987599E-04
4.345238E+03	4.850073E-03	1.998784E-04
4.355159E+03	4.907986E-03	2.009758E-04
4.365079E+03	4.966064E-03	2.020540E-04
4.375000E+03	5.024258E-03	2.031114E-04
4.384921E+03	5.082680E-03	2.041528E-04
4.394841E+03	5.141363E-03	2.051797E-04
4.404762E+03	5.200250E-03	2.061902E-04
4.414683E+03	5.259363E-03	2.071855E-04
4.424603E+03	5.318800E-03	2.081697E-04
4.434524E+03	5.378407E-03	2.091372E-04
4.444444E+03	5.438179E-03	2.100882E-04
4.454365E+03	5.498190E-03	2.110259E-04
4.464286E+03	5.558336E-03	2.119469E-04
4.474206E+03	5.618496E-03	2.128470E-04
4.484127E+03	5.678622E-03	2.137251E-04
4.494048E+03	5.738654E-03	2.145797E-04
4.503968E+03	5.798516E-03	2.154087E-04
4.513889E+03	5.858045E-03	2.162068E-04
4.523810E+03	5.917229E-03	2.169746E-04
4.533730E+03	5.975886E-03	2.177066E-04
4.543651E+03	6.033828E-03	2.183970E-04
4.553571E+03	6.091026E-03	2.190461E-04
4.563492E+03	6.147362E-03	2.196510E-04
4.573413E+03	6.202634E-03	2.202060E-04
4.583333E+03	6.256716E-03	2.207082E-04
4.593254E+03	6.309398E-03	2.211520E-04
4.603175E+03	6.360641E-03	2.215377E-04
4.613095E+03	6.410322E-03	2.218630E-04
4.623016E+03	6.458241E-03	2.221230E-04
4.632937E+03	6.504291E-03	2.223160E-04
4.642857E+03	6.548367E-03	2.224405E-04
4.652778E+03	6.590378E-03	2.224957E-04
4.662698E+03	6.630245E-03	2.224811E-04
4.672619E+03	6.667810E-03	2.223937E-04
4.682540E+03	6.703089E-03	2.222363E-04
4.692460E+03	6.735939E-03	2.220065E-04
4.702381E+03	6.766383E-03	2.217074E-04
4.712302E+03	6.794282E-03	2.213367E-04
4.722222E+03	6.819582E-03	2.208950E-04
4.732143E+03	6.842226E-03	2.203827E-04
4.742063E+03	6.862087E-03	2.197980E-04
4.751984E+03	6.879204E-03	2.191446E-04
4.761905E+03	6.893627E-03	2.184261E-04
4.771825E+03	6.905243E-03	2.176412E-04
4.781746E+03	6.914195E-03	2.167965E-04
4.791667E+03	6.920308E-03	2.158885E-04
4.801587E+03	6.923741E-03	2.149242E-04
4.811508E+03	6.924504E-03	2.139056E-04
4.821429E+03	6.922549E-03	2.128331E-04
4.831349E+03	6.918080E-03	2.117147E-04
4.841270E+03	6.911284E-03	2.105576E-04
4.851190E+03	6.902360E-03	2.093692E-04
4.861111E+03	6.891522E-03	2.081572E-04
4.871032E+03	6.879063E-03	2.069315E-04
4.880952E+03	6.865194E-03	2.056993E-04
4.890873E+03	6.850125E-03	2.044674E-04
4.900794E+03	6.834064E-03	2.032416E-04
4.910714E+03	6.817285E-03	2.020294E-04
4.920635E+03	6.799973E-03	2.008356E-04
4.930556E+03	6.782299E-03	1.996645E-04
4.940476E+03	6.764500E-03	1.985221E-04
4.950397E+03	6.746646E-03	1.974095E-04
4.960317E+03	6.728946E-03	1.963318E-04
4.970238E+03	6.711601E-03	1.952940E-04
4.980159E+03	6.694585E-03	1.942942E-04
4.990079E+03	6.678242E-03	1.933412E-04
5.000000E+03	6.662545E-03	1.924333E-04
5.009921E+03	6.647693E-03	1.915750E-04
5.019841E+03	6.633876E-03	1.907707E-04
5.029762E+03	6.621148E-03	1.900208E-04
5.039683E+03	6.609626E-03	1.893277E-04
5.049603E+03	6.599502E-03	1.886956E-04
5.059524E+03	6.590892E-03	1.881268E-04
5.069444E+03	6.583913E-03	1.876235E-04
5.079365E+03	6.578680E-03	1.871880E-04
5.089286E+03	6.575370E-03	1.868242E-04
5.099206E+03	6.573921E-03	1.865292E-04
5.109127E+03	6.574582E-03	1.863093E-04
5.119048E+03	6.577152E-03	1.861576E-04
5.128968E+03	6.581748E-03	1.860765E-04
5.138889E+03	6.588327E-03	1.860639E-04
5.148810E+03	6.596823E-03	1.861171E-04
5.158730E+03	6.607071E-03	1.862305E-04
5.168651E+03	6.619024E-03	1.864019E-04
5.178571E+03	6.632532E-03	1.866265E-04
5.188492E+03	6.647352E-03	1.868964E-04
5.198413E+03	6.663411E-03	1.872090E-04
5.208333E+03	6.680406E-03	1.875551E-04
5.218254E+03	6.698010E-03	1.879247E-04
5.228175E+03	6.716085E-03	1.883133E-04
5.238095E+03	6.734198E-03	1.887083E-04
5.248016E+03	6.752120E-03	1.891025E-04
5.257937E+03	6.769617E-03	1.894887E-04
5.267857E+03	6.786244E-03	1.898540E-04
5.277778E+03	6.801775E-03	1.901915E-04
5.287698E+03	6.815923E-03	1.904926E-04
5.297619E+03	6.828487E-03	1.907513E-04
5.307540E+03	6.839064E-03	1.909556E-04
5.317460E+03	6.847484E-03	1.911004E-04
5.327381E+03	6.853520E-03	1.911790E-04
5.337302E+03	6.856970E-03	1.911852E-04
5.347222E+03	6.857652E-03	1.911135E-04
5.357143E+03	6.855413E-03	1.909593E-04
5.367063E+03	6.850051E-03	1.907166E-04
5.376984E+03	6.841606E-03	1.903862E-04
5.386905E+03	6.829863E-03	1.899617E-04
5.396825E+03	6.814922E-03	1.894456E-04
5.406746E+03	6.796646E-03	1.888340E-04
5.416667E+03	6.775215E-03	1.881314E-04
5.426587E+03	6.750582E-03	1.873365E-04
5.436508E+03	6.722959E-03	1.864549E-04
5.446429E+03	6.692538E-03	1.854918E-04
5.456349E+03	6.659618E-03	1.844554E-04
5.466270E+03	6.624344E-03	1.833495E-04
5.476190E+03	6.587097E-03	1.821846E-04
5.486111E+03	6.548293E-03	1.809722E-04
5.496032E+03	6.508187E-03	1.797191E-04
5.505952E+03	6.467258E-03	1.784386E-04
5.515873E+03	6.426018E-03	1.771446E-04
5.525794E+03	6.384934E-03	1.758501E-04
5.535714E+03	6.344369E-03	1.745648E-04
5.545635E+03	6.304951E-03	1.733059E-04
5.555556E+03	6.267182E-03	1.720870E-04
5.565476E+03	6.231498E-03	1.709200E-04
5.575397E+03	6.198386E-03	1.698180E-04
5.585317E+03	6.168377E-03	1.687951E-04
5.595238E+03	6.141849E-03	1.678614E-04
5.605159E+03	6.119220E-03	1.670280E-04
5.615079E+03	6.100924E-03	1.663062E-04
5.625000E+03	6.087247E-03	1.657034E-04
5.634921E+03	6.078496E-03	1.652273E-04
5.644841E+03	6.074999E-03	1.648861E-04
5.654762E+03	6.076924E-03	1.646839E-04
5.664683E+03	6.084397E-03	1.646231E-04
5.674603E+03	6.097674E-03	1.647101E-04
5.684524E+03	6.116780E-03	1.649444E-04
5.694444E+03	6.141731E-03	1.653258E-04
5.704365E+03	6.172473E-03	1.658518E-04
5.714286E+03	6.208805E-03	1.665160E-04
5.724206E+03	6.250625E-03	1.673148E-04
5.734127E+03	6.297415E-03	1.682332E-04
5.744048E+03	6.348934E-03	1.692640E-04
5.753968E+03	6.404496E-03	1.703879E-04
5.763889E+03	6.463649E-03	1.715921E-04
5.773810E+03	6.525687E-03	1.728571E-04
5.783730E+03	6.589910E-03	1.741638E-04
5.793651E+03	6.655567E-03	1.754917E-04
5.803571E+03	6.721856E-03	1.768195E-04
5.813492E+03	6.787870E-03	1.781230E-04
5.823413E+03	6.852808E-03	1.793812E-04
5.833333E+03	6.915717E-03	1.805694E-04
5.843254E+03	6.975718E-03	1.816650E-04
5.853175E+03	7.032030E-03	1.826482E-04
5.863095E+03	7.083710E-03	1.834954E-04
5.873016E+03	7.130017E-03	1.841886E-04
5.882937E+03	7.170374E-03	1.847138E-04
5.892857E+03	7.204228E-03	1.850585E-04
5.902778E+03	7.230999E-03	1.852093E-04
5.912698E+03	7.250438E-03	1.851617E-04
5.922619E+03	7.262354E-03	1.849125E-04
5.932540E+03	7.266615E-03	1.844605E-04
5.942460E+03	7.263301E-03	1.838097E-04
5.952381E+03	7.252631E-03	1.829678E-04
5.962302E+03	7.234966E-03	1.819459E-04
5.972222E+03	7.210737E-03	1.807568E-04
5.982143E+03	7.180629E-03	1.794198E-04
5.992063E+03	7.145262E-03	1.779520E-04
6.001984E+03	7.105302E-03	1.763718E-04
6.011905E+03	7.061586E-03	1.747014E-04
6.021825E+03	7.014874E-03	1.729609E-04
6.031746E+03	6.965842E-03	1.711682E-04
6.041667E+03	6.915129E-03	1.693399E-04
6.051587E+03	6.863505E-03	1.674957E-04
6.061508E+03	6.811447E-03	1.656480E-04
6.071429E+03	6.759357E-03	1.638070E-04
6.081349E+03	6.707703E-03	1.619846E-04
6.091270E+03	6.656893E-03	1.601907E-04
6.101190E+03	6.607144E-03	1.584309E-04
6.111111E+03	6.558749E-03	1.567124E-04
6.121032E+03	6.512068E-03	1.550435E-04
6.130952E+03	6.467215E-03	1.534266E-04
6.140873E+03	6.424368E-03	1.518652E-04
6.150794E+03	6.383327E-03	1.503543E-04
6.160714E+03	6.343941E-03	1.488899E-04
6.170635E+03	6.305850E-03	1.474630E-04
6.180556E+03	6.268806E-03	1.460678E-04
6.190476E+03	6.232521E-03	1.446971E-04
6.200397E+03	6.196669E-03	1.433435E-04
6.210317E+03	6.160904E-03	1.419988E-04
6.220238E+03	6.124825E-03	1.406538E-04
6.230159E+03	6.088183E-03	1.393031E-04
6.240079E+03	6.050781E-03	1.379423E-04
6.250000E+03	6.012418E-03	1.365673E-04
6.259921E+03	5.972944E-03	1.351748E-04
6.269841E+03	5.932273E-03	1.337635E-04
6.279762E+03	5.890432E-03	1.323342E-04
6.289683E+03	5.847506E-03	1.308894E-04
6.299603E+03	5.803518E-03	1.294298E-04
6.309524E+03	5.758710E-03	1.279614E-04
6.319444E+03	5.713184E-03	1.264867E-04
6.329365E+03	5.667231E-03	1.250123E-04
6.339286E+03	5.621044E-03	1.235429E-04
6.349206E+03	5.574769E-03	1.220818E-04
6.359127E+03	5.528735E-03	1.206364E-04
6.369048E+03	5.483159E-03	1.192115E-04
6.378968E+03	5.438316E-03	1.178131E-04
6.388889E+03	5.394313E-03	1.164436E-04
6.398810E+03	5.351474E-03	1.151098E-04
6.408730E+03	5.309999E-03	1.138160E-04
6.418651E+03	5.269911E-03	1.125626E-04
6.428571E+03	5.231492E-03	1.113554E-04
6.438492E+03	5.194789E-03	1.101953E-04
6.448413E+03	5.159999E-03	1.090862E-04
6.458333E+03	5.127355E-03	1.080328E-04
6.468254E+03	5.096967E-03	1.070373E-04
6.478175E+03	5.069031E-03	1.061034E-04
6.488095E+03	5.043586E-03	1.052318E-04
6.498016E+03	5.020677E-03	1.044230E-04
6.507937E+03	4.999998E-03	1.036705E-04
6.517857E+03	4.981360E-03	1.029703E-04
6.527778E+03	4.964382E-03	1.023143E-04
6.537698E+03	4.948828E-03	1.016977E-04
6.547619E+03	4.934252E-03	1.011114E-04
6.557540E+03	4.920433E-03	1.005509E-04
6.567460E+03	4.906997E-03	1.000088E-04
6.577381E+03	4.893690E-03	9.948021E-05
6.587302E+03	4.880168E-03	9.895835E-05
6.597222E+03	4.866208E-03	9.843905E-05
6.607143E+03	4.851621E-03	9.791880E-05
6.617063E+03	4.836141E-03	9.739262E-05
6.626984E+03	4.819611E-03	9.685770E-05
6.636905E+03	4.801962E-03	9.631298E-05
6.646825E+03	4.783097E-03	9.575639E-05
6.656746E+03	4.762937E-03	9.518588E-05
6.666667E+03	4.741418E-03	9.459973E-05
6.676587E+03	4.718507E-03	9.399681E-05
6.686508E+03	4.694254E-03	9.337762E-05
6.696429E+03	4.668639E-03	9.274127E-05
6.706349E+03	4.641784E-03	9.208969E-05
6.716270E+03	4.613803E-03	9.142461E-05
6.726190E+03	4.584849E-03	9.074858E-05
6.736111E+03	4.555073E-03	9.006406E-05
6.746032E+03	4.524836E-03	8.937764E-05
6.755952E+03	4.494378E-03	8.869355E-05
6.765873E+03	4.464029E-03	8.801775E-05
6.775794E+03	4.434192E-03	8.735766E-05
6.785714E+03	4.405182E-03	8.671898E-05
6.795635E+03	4.377358E-03	8.610822E-05
6.805556E+03	4.351107E-03	8.553250E-05
6.815476E+03	4.326686E-03	8.499638E-05
6.825397E+03	4.304397E-03	8.450529E-05
6.835317E+03	4.284373E-03	8.406140E-05
6.845238E+03	4.266794E-03	8.366778E-05
6.855159E+03	4.251724E-03	8.332526E-05
6.865079E+03	4.239098E-03	8.303216E-05
6.875000E+03	4.228894E-03	8.278767E-05
6.884921E+03	4.220965E-03	8.258855E-05
6.894841E+03	4.215244E-03	8.243316E-05
6.904762E+03	4.211604E-03	8.231869E-05
6.914683E+03	4.209857E-03	8.224119E-05
6.924603E+03	4.209857E-03	8.219750E-05
6.934524E+03	4.211496E-03	8.218528E-05
6.944444E+03	4.214550E-03	8.219991E-05
6.954365E+03	4.218883E-03	8.223854E-05
6.964286E+03	4.224248E-03	8.229611E-05
6.974206E+03	4.230404E-03	8.236778E-05
6.984127E+03	4.237271E-03	8.245185E-05
6.994048E+03	4.244643E-03	8.254417E-05
7.003968E+03	4.252363E-03	8.264155E-05
7.013889E+03	4.260483E-03	8.274491E-05
7.023810E+03	4.268852E-03	8.285125E-05
7.033730E+03	4.277609E-03	8.296323E-05
7.043651E+03	4.286827E-03	8.308216E-05
7.053571E+03	4.296488E-03	8.320770E-05
7.063492E+03	4.306740E-03	8.334268E-05
7.073413E+03	4.317675E-03	8.348889E-05
7.083333E+03	4.329377E-03	8.364794E-05
7.093254E+03	4.341854E-03	8.382000E-05
7.103175E+03	4.355076E-03	8.400455E-05
7.113095E+03	4.369143E-03	8.420354E-05
7.123016E+03	4.383892E-03	8.441393E-05
7.132937E+03	4.399274E-03	8.463487E-05
7.142857E+03	4.415031E-03	8.486150E-05
7.152778E+03	4.431032E-03	8.509146E-05
7.162698E+03	4.447054E-03	8.532066E-05
7.172619E+03	4.462740E-03	8.554245E-05
7.182540E+03	4.477931E-03	8.575406E-05
7.192460E+03	4.492239E-03	8.594832E-05
7.202381E+03	4.505374E-03	8.612003E-05
7.212302E+03	4.516989E-03	8.626291E-05
7.222222E+03	4.526845E-03	8.637279E-05
7.232143E+03	4.534591E-03	8.644342E-05
7.242063E+03	4.539944E-03	8.646986E-05
7.251984E+03	4.542517E-03	8.644525E-05
7.261905E+03	4.542167E-03	8.636737E-05
7.271825E+03	4.538557E-03	8.623035E-05
7.281746E+03	4.531444E-03	8.603015E-05
7.291667E+03	4.520806E-03	8.576689E-05
7.301587E+03	4.506463E-03	8.543771E-05
7.311508E+03	4.488377E-03	8.504245E-05
7.321429E+03	4.466697E-03	8.458447E-05
7.331349E+03	4.441522E-03	8.406613E-05
7.341270E+03	4.413118E-03	8.349298E-05
7.351190E+03	4.381634E-03	8.286826E-05
7.361111E+03	4.347420E-03	8.219901E-05
7.371032E+03	4.310797E-03	8.149168E-05
7.380952E+03	4.272107E-03	8.075305E-05
7.390873E+03	4.231640E-03	7.998891E-05
7.400794E+03	4.189836E-03	7.920787E-05
7.410714E+03	4.146913E-03	7.841425E-05
7.420635E+03	4.103229E-03	7.761506E-05
7.430556E+03	4.059074E-03	7.681591E-05
7.440476E+03	4.014759E-03	7.602290E-05
7.450397E+03	3.970467E-03	7.523961E-05
7.460317E+03	3.926456E-03	7.447103E-05
7.470238E+03	3.882855E-03	7.371976E-05
7.480159E+03	3.839926E-03	7.299088E-05
7.490079E+03	3.797827E-03	7.228745E-05
7.500000E+03	3.756653E-03	7.161142E-05
7.509921E+03	3.716596E-03	7.096652E-05
7.519841E+03	3.677833E-03	7.035624E-05
7.529762E+03	3.640442E-03	6.978186E-05
7.539683E+03	3.604631E-03	6.924671E-05
7.549603E+03	3.570392E-03	6.875004E-05
7.559524E+03	3.537824E-03	6.829319E-05
7.569444E+03	3.506950E-03	6.787609E-05
7.579365E+03	3.477653E-03	6.749600E-05
7.589286E+03	3.449745E-03	6.714882E-05
7.599206E+03	3.423222E-03	6.683400E-05
7.609127E+03	3.397905E-03	6.654763E-05
7.619048E+03	3.373803E-03	6.628949E-05
7.628968E+03	3.350804E-03	6.605696E-05
7.638889E+03	3.328843E-03	6.584838E-05
7.648810E+03	3.307903E-03	6.566305E-05
7.658730E+03	3.287881E-03	6.549860E-05
7.668651E+03	3.268757E-03	6.535425E-05
7.678571E+03	3.250426E-03	6.522761E-05
7.688492E+03	3.232871E-03	6.511799E-05
7.698413E+03	3.215997E-03	6.502317E-05
