#wls	flux	fluxerr
1.587302E+03	6.001940E-05	4.438071E-06
1.626984E+03	6.014620E-05	4.432840E-06
1.666667E+03	6.033081E-05	4.431449E-06
1.706349E+03	6.059875E-05	4.435714E-06
1.746032E+03	6.093021E-05	4.444116E-06
1.785714E+03	6.135152E-05	4.458505E-06
1.825397E+03	6.185504E-05	4.478241E-06
1.865079E+03	6.245667E-05	4.504390E-06
1.904762E+03	6.316141E-05	4.537209E-06
1.944444E+03	6.396305E-05	4.576146E-06
1.984127E+03	6.489138E-05	4.623215E-06
2.023810E+03	6.595377E-05	4.678800E-06
2.063492E+03	6.714635E-05	4.742478E-06
2.103175E+03	6.849032E-05	4.815584E-06
2.142857E+03	6.999613E-05	4.898670E-06
2.182540E+03	7.168819E-05	4.993239E-06
2.222222E+03	7.358033E-05	5.100018E-06
2.261905E+03	7.568807E-05	5.219826E-06
2.301587E+03	7.804232E-05	5.354505E-06
2.341270E+03	8.066363E-05	5.505131E-06
2.380952E+03	8.358912E-05	5.673868E-06
2.420635E+03	8.683160E-05	5.861167E-06
2.460317E+03	9.045000E-05	6.070538E-06
2.500000E+03	9.447999E-05	6.303833E-06
2.539683E+03	9.899304E-05	6.565198E-06
2.579365E+03	1.040055E-04	6.855014E-06
2.619048E+03	1.096354E-04	7.180260E-06
2.658730E+03	1.159135E-04	7.542025E-06
2.698413E+03	1.229635E-04	7.947294E-06
2.738095E+03	1.308890E-04	8.401534E-06
2.777778E+03	1.397887E-04	8.909651E-06
2.817460E+03	1.498341E-04	9.480948E-06
2.857143E+03	1.611800E-04	1.012329E-05
2.896825E+03	1.740015E-04	1.084546E-05
2.936508E+03	1.885433E-04	1.166013E-05
2.976190E+03	2.050610E-04	1.258008E-05
2.986111E+03	2.095512E-04	1.282931E-05
2.996032E+03	2.141718E-04	1.308527E-05
3.005952E+03	2.189265E-04	1.334812E-05
3.015873E+03	2.238701E-04	1.362113E-05
3.025794E+03	2.289567E-04	1.390145E-05
3.035714E+03	2.342163E-04	1.419082E-05
3.045635E+03	2.396542E-04	1.448949E-05
3.055556E+03	2.452753E-04	1.479768E-05
3.065476E+03	2.510853E-04	1.511565E-05
3.075397E+03	2.571172E-04	1.544531E-05
3.085317E+03	2.633214E-04	1.578357E-05
3.095238E+03	2.697312E-04	1.613237E-05
3.105159E+03	2.763812E-04	1.649365E-05
3.115079E+03	2.832495E-04	1.686602E-05
3.125000E+03	2.903421E-04	1.724974E-05
3.134921E+03	2.976954E-04	1.764687E-05
3.144841E+03	3.052865E-04	1.805592E-05
3.154762E+03	3.131218E-04	1.847717E-05
3.164683E+03	3.212396E-04	1.891277E-05
3.174603E+03	3.296482E-04	1.936308E-05
3.184524E+03	3.383555E-04	1.982841E-05
3.194444E+03	3.473373E-04	2.030723E-05
3.204365E+03	3.566341E-04	2.080177E-05
3.214286E+03	3.662884E-04	2.131435E-05
3.224206E+03	3.762419E-04	2.184143E-05
3.234127E+03	3.865369E-04	2.238531E-05
3.244048E+03	3.971824E-04	2.294637E-05
3.253968E+03	4.082237E-04	2.352704E-05
3.263889E+03	4.196350E-04	2.412565E-05
3.273810E+03	4.314259E-04	2.474259E-05
3.283730E+03	4.436435E-04	2.538036E-05
3.293651E+03	4.562988E-04	2.603940E-05
3.303571E+03	4.693644E-04	2.671793E-05
3.313492E+03	4.828499E-04	2.741631E-05
3.323413E+03	4.968449E-04	2.813940E-05
3.333333E+03	5.113222E-04	2.888543E-05
3.343254E+03	5.262516E-04	2.965247E-05
3.353175E+03	5.417265E-04	3.044554E-05
3.363095E+03	5.577176E-04	3.126274E-05
3.373016E+03	5.742361E-04	3.210445E-05
3.382937E+03	5.913371E-04	3.297347E-05
3.392857E+03	6.090334E-04	3.387023E-05
3.402778E+03	6.272926E-04	3.479266E-05
3.412698E+03	6.461252E-04	3.574105E-05
3.422619E+03	6.656347E-04	3.672082E-05
3.432540E+03	6.857881E-04	3.772983E-05
3.442460E+03	7.065490E-04	3.876575E-05
3.452381E+03	7.280240E-04	3.983413E-05
3.462302E+03	7.502263E-04	4.093532E-05
3.472222E+03	7.731182E-04	4.206690E-05
3.482143E+03	7.967095E-04	4.322907E-05
3.492063E+03	8.210614E-04	4.442477E-05
3.501984E+03	8.461843E-04	4.565419E-05
3.511905E+03	8.720885E-04	4.691749E-05
3.521825E+03	8.987832E-04	4.821476E-05
3.531746E+03	9.263314E-04	4.954897E-05
3.541667E+03	9.546316E-04	5.091427E-05
3.551587E+03	9.838571E-04	5.231948E-05
3.561508E+03	1.013903E-03	5.375859E-05
3.571429E+03	1.044774E-03	5.523137E-05
3.581349E+03	1.076589E-03	5.674372E-05
3.591270E+03	1.109295E-03	5.829233E-05
3.601190E+03	1.142894E-03	5.987683E-05
3.611111E+03	1.177387E-03	6.149679E-05
3.621032E+03	1.212833E-03	6.315488E-05
3.630952E+03	1.249170E-03	6.484731E-05
3.640873E+03	1.286455E-03	6.657663E-05
3.650794E+03	1.324685E-03	6.834209E-05
3.660714E+03	1.363916E-03	7.014613E-05
3.670635E+03	1.404011E-03	7.198120E-05
3.680556E+03	1.445088E-03	7.385286E-05
3.690476E+03	1.487070E-03	7.575662E-05
3.700397E+03	1.529940E-03	7.769114E-05
3.710317E+03	1.573816E-03	7.966192E-05
3.720238E+03	1.618543E-03	8.166060E-05
3.730159E+03	1.664164E-03	8.368889E-05
3.740079E+03	1.710727E-03	8.574870E-05
3.750000E+03	1.758064E-03	8.783110E-05
3.759921E+03	1.806285E-03	8.994115E-05
3.769841E+03	1.855286E-03	9.207318E-05
3.779762E+03	1.905104E-03	9.422860E-05
3.789683E+03	1.955701E-03	9.640510E-05
3.799603E+03	2.006960E-03	9.859652E-05
3.809524E+03	2.058913E-03	1.008040E-04
3.819444E+03	2.111515E-03	1.030249E-04
3.829365E+03	2.164714E-03	1.052564E-04
3.839286E+03	2.218459E-03	1.074957E-04
3.849206E+03	2.272697E-03	1.097398E-04
3.859127E+03	2.327370E-03	1.119858E-04
3.869048E+03	2.382420E-03	1.142305E-04
3.878968E+03	2.437787E-03	1.164710E-04
3.888889E+03	2.493488E-03	1.187076E-04
3.898810E+03	2.549380E-03	1.209336E-04
3.908730E+03	2.605322E-03	1.231421E-04
3.918651E+03	2.661403E-03	1.253372E-04
3.928571E+03	2.717482E-03	1.275123E-04
3.938492E+03	2.773494E-03	1.296642E-04
3.948413E+03	2.829372E-03	1.317898E-04
3.958333E+03	2.884974E-03	1.338827E-04
3.968254E+03	2.940316E-03	1.359436E-04
3.978175E+03	2.995337E-03	1.379699E-04
3.988095E+03	3.049819E-03	1.399518E-04
3.998016E+03	3.103865E-03	1.418942E-04
4.007937E+03	3.157343E-03	1.437913E-04
4.017857E+03	3.210203E-03	1.456411E-04
4.027778E+03	3.262320E-03	1.474384E-04
4.037698E+03	3.313652E-03	1.491817E-04
4.047619E+03	3.364244E-03	1.508732E-04
4.057540E+03	3.413824E-03	1.525014E-04
4.067460E+03	3.462526E-03	1.540727E-04
4.077381E+03	3.510250E-03	1.555832E-04
4.087302E+03	3.556902E-03	1.570292E-04
4.097222E+03	3.602552E-03	1.584145E-04
4.107143E+03	3.647042E-03	1.597326E-04
4.117063E+03	3.690373E-03	1.609842E-04
4.126984E+03	3.732557E-03	1.621706E-04
4.136905E+03	3.773532E-03	1.632896E-04
4.146825E+03	3.813321E-03	1.643429E-04
4.156746E+03	3.851874E-03	1.653291E-04
4.166667E+03	3.889151E-03	1.662471E-04
4.176587E+03	3.925266E-03	1.671026E-04
4.186508E+03	3.960190E-03	1.678949E-04
4.196429E+03	3.993896E-03	1.686236E-04
4.206349E+03	4.026368E-03	1.692887E-04
4.216270E+03	4.057663E-03	1.698935E-04
4.226190E+03	4.087846E-03	1.704411E-04
4.236111E+03	4.116910E-03	1.709320E-04
4.246032E+03	4.144854E-03	1.713668E-04
4.255952E+03	4.171822E-03	1.717522E-04
4.265873E+03	4.197745E-03	1.720858E-04
4.275794E+03	4.222699E-03	1.723714E-04
4.285714E+03	4.246832E-03	1.726157E-04
4.295635E+03	4.270151E-03	1.728193E-04
4.305556E+03	4.292662E-03	1.729831E-04
4.315476E+03	4.314441E-03	1.731107E-04
4.325397E+03	4.335565E-03	1.732055E-04
4.335317E+03	4.356173E-03	1.732736E-04
4.345238E+03	4.376199E-03	1.733127E-04
4.355159E+03	4.395780E-03	1.733286E-04
4.365079E+03	4.414980E-03	1.733242E-04
4.375000E+03	4.433795E-03	1.732995E-04
4.384921E+03	4.452346E-03	1.732597E-04
4.394841E+03	4.470689E-03	1.732071E-04
4.404762E+03	4.488807E-03	1.731413E-04
4.414683E+03	4.506811E-03	1.730668E-04
4.424603E+03	4.524740E-03	1.729854E-04
4.434524E+03	4.542507E-03	1.728937E-04
4.444444E+03	4.560205E-03	1.727955E-04
4.454365E+03	4.577803E-03	1.726900E-04
4.464286E+03	4.595266E-03	1.725758E-04
4.474206E+03	4.612736E-03	1.724585E-04
4.484127E+03	4.630046E-03	1.723322E-04
4.494048E+03	4.647214E-03	1.721975E-04
4.503968E+03	4.664309E-03	1.720573E-04
4.513889E+03	4.681218E-03	1.719076E-04
4.523810E+03	4.697947E-03	1.717490E-04
4.533730E+03	4.714556E-03	1.715837E-04
4.543651E+03	4.730924E-03	1.714077E-04
4.553571E+03	4.747047E-03	1.712211E-04
4.563492E+03	4.762920E-03	1.710239E-04
4.573413E+03	4.778531E-03	1.708160E-04
4.583333E+03	4.793870E-03	1.705974E-04
4.593254E+03	4.808921E-03	1.703677E-04
4.603175E+03	4.823610E-03	1.701247E-04
4.613095E+03	4.837916E-03	1.698680E-04
4.623016E+03	4.851933E-03	1.696013E-04
4.632937E+03	4.865466E-03	1.693179E-04
4.642857E+03	4.878599E-03	1.690213E-04
4.652778E+03	4.891248E-03	1.687089E-04
4.662698E+03	4.903324E-03	1.683781E-04
4.672619E+03	4.914789E-03	1.680279E-04
4.682540E+03	4.925606E-03	1.676577E-04
4.692460E+03	4.935621E-03	1.672625E-04
4.702381E+03	4.944731E-03	1.668396E-04
4.712302E+03	4.952833E-03	1.663859E-04
4.722222E+03	4.959760E-03	1.658965E-04
4.732143E+03	4.965289E-03	1.653648E-04
4.742063E+03	4.969304E-03	1.647875E-04
4.751984E+03	4.971626E-03	1.641597E-04
4.761905E+03	4.972346E-03	1.634851E-04
4.771825E+03	4.971386E-03	1.627620E-04
4.781746E+03	4.968874E-03	1.619955E-04
4.791667E+03	4.964831E-03	1.611869E-04
4.801587E+03	4.959166E-03	1.603342E-04
4.811508E+03	4.952019E-03	1.594425E-04
4.821429E+03	4.943351E-03	1.585113E-04
4.831349E+03	4.933186E-03	1.575421E-04
4.841270E+03	4.921768E-03	1.565431E-04
4.851190E+03	4.909155E-03	1.555164E-04
4.861111E+03	4.895570E-03	1.544692E-04
4.871032E+03	4.881133E-03	1.534056E-04
4.880952E+03	4.865953E-03	1.523290E-04
4.890873E+03	4.850192E-03	1.512444E-04
4.900794E+03	4.833945E-03	1.501549E-04
4.910714E+03	4.817303E-03	1.490632E-04
4.920635E+03	4.800404E-03	1.479734E-04
4.930556E+03	4.783321E-03	1.468877E-04
4.940476E+03	4.766076E-03	1.458065E-04
4.950397E+03	4.748834E-03	1.447348E-04
4.960317E+03	4.731604E-03	1.436726E-04
4.970238E+03	4.714491E-03	1.426228E-04
4.980159E+03	4.697493E-03	1.415851E-04
4.990079E+03	4.680752E-03	1.405636E-04
5.000000E+03	4.664209E-03	1.395561E-04
5.009921E+03	4.647901E-03	1.385636E-04
5.019841E+03	4.632004E-03	1.375909E-04
5.029762E+03	4.616399E-03	1.366342E-04
5.039683E+03	4.601157E-03	1.356954E-04
5.049603E+03	4.586345E-03	1.347760E-04
5.059524E+03	4.571975E-03	1.338762E-04
5.069444E+03	4.558014E-03	1.329946E-04
5.079365E+03	4.544514E-03	1.321324E-04
5.089286E+03	4.531432E-03	1.312882E-04
5.099206E+03	4.518814E-03	1.304629E-04
5.109127E+03	4.506656E-03	1.296561E-04
5.119048E+03	4.494950E-03	1.288673E-04
5.128968E+03	4.483731E-03	1.280972E-04
5.138889E+03	4.472893E-03	1.273426E-04
5.148810E+03	4.462464E-03	1.266038E-04
5.158730E+03	4.452469E-03	1.258814E-04
5.168651E+03	4.442838E-03	1.251732E-04
5.178571E+03	4.433592E-03	1.244795E-04
5.188492E+03	4.424656E-03	1.237980E-04
5.198413E+03	4.416045E-03	1.231289E-04
5.208333E+03	4.407682E-03	1.224698E-04
5.218254E+03	4.399622E-03	1.218221E-04
5.228175E+03	4.391741E-03	1.211821E-04
5.238095E+03	4.384091E-03	1.205512E-04
5.248016E+03	4.376547E-03	1.199257E-04
5.257937E+03	4.369158E-03	1.193069E-04
5.267857E+03	4.361889E-03	1.186936E-04
5.277778E+03	4.354656E-03	1.180835E-04
5.287698E+03	4.347466E-03	1.174767E-04
5.297619E+03	4.340239E-03	1.168709E-04
5.307540E+03	4.333025E-03	1.162675E-04
5.317460E+03	4.325790E-03	1.156653E-04
5.327381E+03	4.318411E-03	1.150612E-04
5.337302E+03	4.310987E-03	1.144576E-04
5.347222E+03	4.303396E-03	1.138514E-04
5.357143E+03	4.295655E-03	1.132429E-04
5.367063E+03	4.287733E-03	1.126314E-04
5.376984E+03	4.279645E-03	1.120173E-04
5.386905E+03	4.271324E-03	1.113988E-04
5.396825E+03	4.262793E-03	1.107765E-04
5.406746E+03	4.253989E-03	1.101489E-04
5.416667E+03	4.244942E-03	1.095167E-04
5.426587E+03	4.235685E-03	1.088809E-04
5.436508E+03	4.226131E-03	1.082393E-04
5.446429E+03	4.216326E-03	1.075931E-04
5.456349E+03	4.206280E-03	1.069427E-04
5.466270E+03	4.195970E-03	1.062875E-04
5.476190E+03	4.185503E-03	1.056304E-04
5.486111E+03	4.174828E-03	1.049700E-04
5.496032E+03	4.164065E-03	1.043095E-04
5.505952E+03	4.153180E-03	1.036480E-04
5.515873E+03	4.142224E-03	1.029869E-04
5.525794E+03	4.131295E-03	1.023287E-04
5.535714E+03	4.120456E-03	1.016749E-04
5.545635E+03	4.109691E-03	1.010252E-04
5.555556E+03	4.099155E-03	1.003834E-04
5.565476E+03	4.088836E-03	9.974911E-05
5.575397E+03	4.078850E-03	9.912521E-05
5.585317E+03	4.069229E-03	9.851242E-05
5.595238E+03	4.060047E-03	9.791249E-05
5.605159E+03	4.051414E-03	9.732800E-05
5.615079E+03	4.043317E-03	9.675856E-05
5.625000E+03	4.035860E-03	9.620658E-05
5.634921E+03	4.029062E-03	9.567241E-05
5.644841E+03	4.022976E-03	9.515720E-05
5.654762E+03	4.017686E-03	9.466284E-05
5.664683E+03	4.013150E-03	9.418822E-05
5.674603E+03	4.009442E-03	9.373494E-05
5.684524E+03	4.006542E-03	9.330245E-05
5.694444E+03	4.004502E-03	9.289183E-05
5.704365E+03	4.003288E-03	9.250219E-05
5.714286E+03	4.002858E-03	9.213246E-05
5.724206E+03	4.003274E-03	9.178400E-05
5.734127E+03	4.004436E-03	9.145442E-05
5.744048E+03	4.006354E-03	9.114390E-05
5.753968E+03	4.008950E-03	9.085061E-05
5.763889E+03	4.012176E-03	9.057350E-05
5.773810E+03	4.015981E-03	9.031136E-05
5.783730E+03	4.020308E-03	9.006299E-05
5.793651E+03	4.025091E-03	8.982695E-05
5.803571E+03	4.030230E-03	8.960107E-05
5.813492E+03	4.035694E-03	8.938479E-05
5.823413E+03	4.041374E-03	8.917582E-05
5.833333E+03	4.047246E-03	8.897379E-05
5.843254E+03	4.053165E-03	8.877569E-05
5.853175E+03	4.059146E-03	8.858208E-05
5.863095E+03	4.065058E-03	8.839029E-05
5.873016E+03	4.070887E-03	8.820031E-05
5.882937E+03	4.076595E-03	8.801155E-05
5.892857E+03	4.082106E-03	8.782266E-05
5.902778E+03	4.087437E-03	8.763429E-05
5.912698E+03	4.092532E-03	8.744558E-05
5.922619E+03	4.097388E-03	8.725672E-05
5.932540E+03	4.102051E-03	8.706903E-05
5.942460E+03	4.106456E-03	8.688145E-05
5.952381E+03	4.110747E-03	8.669732E-05
5.962302E+03	4.114837E-03	8.651514E-05
5.972222E+03	4.118847E-03	8.633773E-05
5.982143E+03	4.122782E-03	8.616549E-05
5.992063E+03	4.126692E-03	8.599978E-05
6.001984E+03	4.130670E-03	8.584280E-05
6.011905E+03	4.134769E-03	8.569593E-05
6.021825E+03	4.138999E-03	8.555963E-05
6.031746E+03	4.143487E-03	8.543683E-05
6.041667E+03	4.148278E-03	8.532865E-05
6.051587E+03	4.153402E-03	8.523600E-05
6.061508E+03	4.158883E-03	8.515961E-05
6.071429E+03	4.164773E-03	8.510077E-05
6.081349E+03	4.171148E-03	8.506131E-05
6.091270E+03	4.177992E-03	8.504112E-05
6.101190E+03	4.185304E-03	8.504044E-05
6.111111E+03	4.193114E-03	8.506013E-05
6.121032E+03	4.201511E-03	8.510226E-05
6.130952E+03	4.210402E-03	8.516517E-05
6.140873E+03	4.219589E-03	8.524484E-05
6.150794E+03	4.228829E-03	8.533614E-05
6.160714E+03	4.238013E-03	8.543667E-05
6.170635E+03	4.246925E-03	8.554188E-05
6.180556E+03	4.255482E-03	8.564985E-05
6.190476E+03	4.263504E-03	8.575677E-05
6.200397E+03	4.270891E-03	8.586039E-05
6.210317E+03	4.277486E-03	8.595734E-05
6.220238E+03	4.283170E-03	8.604497E-05
6.230159E+03	4.287821E-03	8.612058E-05
6.240079E+03	4.291269E-03	8.618048E-05
6.250000E+03	4.293391E-03	8.622194E-05
6.259921E+03	4.294114E-03	8.624315E-05
6.269841E+03	4.293239E-03	8.623985E-05
6.279762E+03	4.290710E-03	8.621055E-05
6.289683E+03	4.286482E-03	8.615402E-05
6.299603E+03	4.280437E-03	8.606752E-05
6.309524E+03	4.272515E-03	8.594945E-05
6.319444E+03	4.262671E-03	8.579855E-05
6.329365E+03	4.250967E-03	8.561564E-05
6.339286E+03	4.237301E-03	8.539825E-05
6.349206E+03	4.221765E-03	8.514782E-05
6.359127E+03	4.204375E-03	8.486427E-05
6.369048E+03	4.185167E-03	8.454786E-05
6.378968E+03	4.164223E-03	8.419988E-05
6.388889E+03	4.141558E-03	8.382015E-05
6.398810E+03	4.117323E-03	8.341134E-05
6.408730E+03	4.091634E-03	8.297537E-05
6.418651E+03	4.064482E-03	8.251168E-05
6.428571E+03	4.036081E-03	8.202420E-05
6.438492E+03	4.006474E-03	8.151345E-05
6.448413E+03	3.975794E-03	8.098178E-05
6.458333E+03	3.944175E-03	8.043153E-05
6.468254E+03	3.911624E-03	7.986256E-05
6.478175E+03	3.878275E-03	7.927726E-05
6.488095E+03	3.844176E-03	7.867636E-05
6.498016E+03	3.809463E-03	7.806229E-05
6.507937E+03	3.774181E-03	7.743578E-05
6.517857E+03	3.738380E-03	7.679756E-05
6.527778E+03	3.702227E-03	7.615085E-05
6.537698E+03	3.665727E-03	7.549556E-05
6.547619E+03	3.628965E-03	7.483323E-05
6.557540E+03	3.592062E-03	7.416618E-05
6.567460E+03	3.555103E-03	7.349600E-05
6.577381E+03	3.518087E-03	7.282255E-05
6.587302E+03	3.481213E-03	7.214984E-05
6.597222E+03	3.444446E-03	7.147700E-05
6.607143E+03	3.407941E-03	7.080718E-05
6.617063E+03	3.371776E-03	7.014193E-05
6.626984E+03	3.336031E-03	6.948285E-05
6.636905E+03	3.300750E-03	6.883079E-05
6.646825E+03	3.266047E-03	6.818815E-05
6.656746E+03	3.232039E-03	6.755733E-05
6.666667E+03	3.198770E-03	6.693921E-05
6.676587E+03	3.166320E-03	6.633546E-05
6.686508E+03	3.134803E-03	6.574845E-05
6.696429E+03	3.104298E-03	6.517985E-05
6.706349E+03	3.074852E-03	6.463060E-05
6.716270E+03	3.046611E-03	6.410386E-05
6.726190E+03	3.019619E-03	6.360056E-05
6.736111E+03	2.993956E-03	6.312243E-05
6.746032E+03	2.969731E-03	6.267179E-05
6.755952E+03	2.947018E-03	6.225029E-05
6.765873E+03	2.925853E-03	6.185875E-05
6.775794E+03	2.906371E-03	6.150006E-05
6.785714E+03	2.888598E-03	6.117488E-05
6.795635E+03	2.872587E-03	6.088436E-05
6.805556E+03	2.858379E-03	6.062949E-05
6.815476E+03	2.846038E-03	6.041164E-05
6.825397E+03	2.835538E-03	6.023037E-05
6.835317E+03	2.826904E-03	6.008626E-05
6.845238E+03	2.820113E-03	5.997889E-05
6.855159E+03	2.815132E-03	5.990758E-05
6.865079E+03	2.811918E-03	5.987152E-05
6.875000E+03	2.810387E-03	5.986893E-05
6.884921E+03	2.810556E-03	5.990019E-05
6.894841E+03	2.812333E-03	5.996341E-05
6.904762E+03	2.815656E-03	6.005726E-05
6.914683E+03	2.820464E-03	6.018048E-05
6.924603E+03	2.826723E-03	6.033236E-05
6.934524E+03	2.834331E-03	6.051070E-05
6.944444E+03	2.843217E-03	6.071402E-05
6.954365E+03	2.853305E-03	6.094071E-05
6.964286E+03	2.864555E-03	6.118986E-05
6.974206E+03	2.876852E-03	6.145904E-05
6.984127E+03	2.890149E-03	6.174725E-05
6.994048E+03	2.904323E-03	6.205185E-05
7.003968E+03	2.919289E-03	6.237099E-05
7.013889E+03	2.934988E-03	6.270342E-05
7.023810E+03	2.951288E-03	6.304631E-05
7.033730E+03	2.968091E-03	6.339755E-05
7.043651E+03	2.985331E-03	6.375574E-05
7.053571E+03	3.002902E-03	6.411860E-05
7.063492E+03	3.020618E-03	6.448219E-05
7.073413E+03	3.038441E-03	6.484568E-05
7.083333E+03	3.056216E-03	6.520578E-05
7.093254E+03	3.073860E-03	6.556077E-05
7.103175E+03	3.091211E-03	6.590721E-05
7.113095E+03	3.108143E-03	6.624245E-05
7.123016E+03	3.124566E-03	6.656464E-05
7.132937E+03	3.140273E-03	6.686940E-05
7.142857E+03	3.155251E-03	6.715656E-05
7.152778E+03	3.169250E-03	6.742084E-05
7.162698E+03	3.182222E-03	6.766136E-05
7.172619E+03	3.193997E-03	6.787460E-05
7.182540E+03	3.204497E-03	6.805901E-05
7.192460E+03	3.213559E-03	6.821127E-05
7.202381E+03	3.221074E-03	6.832920E-05
7.212302E+03	3.227019E-03	6.841250E-05
7.222222E+03	3.231175E-03	6.845667E-05
7.232143E+03	3.233584E-03	6.846279E-05
7.242063E+03	3.234091E-03	6.842777E-05
7.251984E+03	3.232718E-03	6.835228E-05
7.261905E+03	3.229342E-03	6.823389E-05
7.271825E+03	3.224014E-03	6.807392E-05
7.281746E+03	3.216679E-03	6.787143E-05
7.291667E+03	3.207383E-03	6.762761E-05
7.301587E+03	3.196143E-03	6.734302E-05
7.311508E+03	3.182952E-03	6.701774E-05
7.321429E+03	3.167902E-03	6.665393E-05
7.331349E+03	3.151056E-03	6.625313E-05
7.341270E+03	3.132492E-03	6.581717E-05
7.351190E+03	3.112339E-03	6.534902E-05
7.361111E+03	3.090577E-03	6.484838E-05
7.371032E+03	3.067436E-03	6.432031E-05
7.380952E+03	3.042950E-03	6.376571E-05
7.390873E+03	3.017246E-03	6.318737E-05
7.400794E+03	2.990447E-03	6.258804E-05
7.410714E+03	2.962726E-03	6.197148E-05
7.420635E+03	2.934169E-03	6.133963E-05
7.430556E+03	2.904867E-03	6.069451E-05
7.440476E+03	2.874949E-03	6.003891E-05
7.450397E+03	2.844535E-03	5.937544E-05
7.460317E+03	2.813785E-03	5.870752E-05
7.470238E+03	2.782695E-03	5.803516E-05
7.480159E+03	2.751486E-03	5.736301E-05
7.490079E+03	2.720143E-03	5.669083E-05
7.500000E+03	2.688833E-03	5.602213E-05
7.509921E+03	2.657565E-03	5.535711E-05
7.519841E+03	2.626450E-03	5.469803E-05
7.529762E+03	2.595554E-03	5.404601E-05
7.539683E+03	2.564899E-03	5.340131E-05
7.549603E+03	2.534572E-03	5.276552E-05
7.559524E+03	2.504583E-03	5.213865E-05
7.569444E+03	2.475010E-03	5.152210E-05
7.579365E+03	2.445827E-03	5.091516E-05
7.589286E+03	2.417144E-03	5.031995E-05
7.599206E+03	2.389013E-03	4.973732E-05
7.609127E+03	2.361418E-03	4.916682E-05
7.619048E+03	2.334471E-03	4.861062E-05
7.628968E+03	2.308183E-03	4.806878E-05
7.638889E+03	2.282591E-03	4.754193E-05
7.648810E+03	2.257726E-03	4.703056E-05
7.658730E+03	2.233642E-03	4.653572E-05
7.668651E+03	2.210330E-03	4.605704E-05
7.678571E+03	2.187802E-03	4.559470E-05
7.688492E+03	2.166099E-03	4.514942E-05
7.698413E+03	2.145226E-03	4.472119E-05
