#wls	flux	fluxerr
1.587302E+03	1.192348E-04	2.179666E-05
1.626984E+03	1.213022E-04	2.210058E-05
1.666667E+03	1.235499E-04	2.243293E-05
1.706349E+03	1.260111E-04	2.279923E-05
1.746032E+03	1.286543E-04	2.319328E-05
1.785714E+03	1.315371E-04	2.362488E-05
1.825397E+03	1.346521E-04	2.409208E-05
1.865079E+03	1.380383E-04	2.460116E-05
1.904762E+03	1.416907E-04	2.515045E-05
1.944444E+03	1.456767E-04	2.575108E-05
1.984127E+03	1.499951E-04	2.640188E-05
2.023810E+03	1.546698E-04	2.710602E-05
2.063492E+03	1.597275E-04	2.786706E-05
2.103175E+03	1.652505E-04	2.869807E-05
2.142857E+03	1.712467E-04	2.959898E-05
2.182540E+03	1.777530E-04	3.057460E-05
2.222222E+03	1.848093E-04	3.163006E-05
2.261905E+03	1.925191E-04	3.278113E-05
2.301587E+03	2.009047E-04	3.402940E-05
2.341270E+03	2.100208E-04	3.538176E-05
2.380952E+03	2.199933E-04	3.685670E-05
2.420635E+03	2.308599E-04	3.845746E-05
2.460317E+03	2.426946E-04	4.019305E-05
2.500000E+03	2.556880E-04	4.209128E-05
2.539683E+03	2.698635E-04	4.415167E-05
2.579365E+03	2.853595E-04	4.639218E-05
2.619048E+03	3.023688E-04	4.883887E-05
2.658730E+03	3.209776E-04	5.149966E-05
2.698413E+03	3.413633E-04	5.439641E-05
2.738095E+03	3.637190E-04	5.755250E-05
2.777778E+03	3.883028E-04	6.100036E-05
2.817460E+03	4.151963E-04	6.474347E-05
2.857143E+03	4.447883E-04	6.883215E-05
2.896825E+03	4.772355E-04	7.327890E-05
2.936508E+03	5.128061E-04	7.811210E-05
2.976190E+03	5.518418E-04	8.336949E-05
2.986111E+03	5.621909E-04	8.475566E-05
2.996032E+03	5.727718E-04	8.616937E-05
3.005952E+03	5.835878E-04	8.761087E-05
3.015873E+03	5.946424E-04	8.908041E-05
3.025794E+03	6.060032E-04	9.058782E-05
3.035714E+03	6.175463E-04	9.211428E-05
3.045635E+03	6.294037E-04	9.367921E-05
3.055556E+03	6.415149E-04	9.527325E-05
3.065476E+03	6.539499E-04	9.690652E-05
3.075397E+03	6.666466E-04	9.856943E-05
3.085317E+03	6.796080E-04	1.002621E-04
3.095238E+03	6.928373E-04	1.019848E-04
3.105159E+03	7.064074E-04	1.037478E-04
3.115079E+03	7.202524E-04	1.055410E-04
3.125000E+03	7.344470E-04	1.073751E-04
3.134921E+03	7.489237E-04	1.092399E-04
3.144841E+03	7.636846E-04	1.111352E-04
3.154762E+03	7.788063E-04	1.130719E-04
3.164683E+03	7.942937E-04	1.150502E-04
3.174603E+03	8.100749E-04	1.170593E-04
3.184524E+03	8.261521E-04	1.190991E-04
3.194444E+03	8.426819E-04	1.211919E-04
3.204365E+03	8.594354E-04	1.233042E-04
3.214286E+03	8.766489E-04	1.254696E-04
3.224206E+03	8.941686E-04	1.276655E-04
3.234127E+03	9.120758E-04	1.299032E-04
3.244048E+03	9.303737E-04	1.321826E-04
3.253968E+03	9.489823E-04	1.344919E-04
3.263889E+03	9.679847E-04	1.368425E-04
3.273810E+03	9.873836E-04	1.392341E-04
3.283730E+03	1.007180E-03	1.416666E-04
3.293651E+03	1.027377E-03	1.441397E-04
3.303571E+03	1.047886E-03	1.466408E-04
3.313492E+03	1.068884E-03	1.491938E-04
3.323413E+03	1.090194E-03	1.517738E-04
3.333333E+03	1.111994E-03	1.544049E-04
3.343254E+03	1.134104E-03	1.570616E-04
3.353175E+03	1.156705E-03	1.597684E-04
3.363095E+03	1.179704E-03	1.625121E-04
3.373016E+03	1.203007E-03	1.652790E-04
3.382937E+03	1.226797E-03	1.680939E-04
3.392857E+03	1.250979E-03	1.709431E-04
3.402778E+03	1.275644E-03	1.738387E-04
3.412698E+03	1.300696E-03	1.767668E-04
3.422619E+03	1.326031E-03	1.797128E-04
3.432540E+03	1.351938E-03	1.827154E-04
3.442460E+03	1.378117E-03	1.857335E-04
3.452381E+03	1.404761E-03	1.887924E-04
3.462302E+03	1.431863E-03	1.918909E-04
3.472222E+03	1.459318E-03	1.950141E-04
3.482143E+03	1.487116E-03	1.981604E-04
3.492063E+03	1.515353E-03	2.013417E-04
3.501984E+03	1.543915E-03	2.045427E-04
3.511905E+03	1.572900E-03	2.077756E-04
3.521825E+03	1.602297E-03	2.110385E-04
3.531746E+03	1.631988E-03	2.143154E-04
3.541667E+03	1.662071E-03	2.176185E-04
3.551587E+03	1.692532E-03	2.209457E-04
3.561508E+03	1.723361E-03	2.242948E-04
3.571429E+03	1.754434E-03	2.276495E-04
3.581349E+03	1.785847E-03	2.310217E-04
3.591270E+03	1.817584E-03	2.344089E-04
3.601190E+03	1.849632E-03	2.378089E-04
3.611111E+03	1.881973E-03	2.412189E-04
3.621032E+03	1.914478E-03	2.446221E-04
3.630952E+03	1.947355E-03	2.480447E-04
3.640873E+03	1.980472E-03	2.514694E-04
3.650794E+03	2.013697E-03	2.548792E-04
3.660714E+03	2.047238E-03	2.582999E-04
3.670635E+03	2.080962E-03	2.617145E-04
3.680556E+03	2.114846E-03	2.651198E-04
3.690476E+03	2.148870E-03	2.685130E-04
3.700397E+03	2.183009E-03	2.718908E-04
3.710317E+03	2.217361E-03	2.752650E-04
3.720238E+03	2.251664E-03	2.786031E-04
3.730159E+03	2.286133E-03	2.819314E-04
3.740079E+03	2.320624E-03	2.852321E-04
3.750000E+03	2.355233E-03	2.885168E-04
3.759921E+03	2.389813E-03	2.917673E-04
3.769841E+03	2.424220E-03	2.949662E-04
3.779762E+03	2.458788E-03	2.981541E-04
3.789683E+03	2.493132E-03	3.012841E-04
3.799603E+03	2.527463E-03	3.043821E-04
3.809524E+03	2.561638E-03	3.074308E-04
3.819444E+03	2.595750E-03	3.104414E-04
3.829365E+03	2.629651E-03	3.133964E-04
3.839286E+03	2.663313E-03	3.162929E-04
3.849206E+03	2.696835E-03	3.191426E-04
3.859127E+03	2.730068E-03	3.219281E-04
3.869048E+03	2.762984E-03	3.246466E-04
3.878968E+03	2.795558E-03	3.272957E-04
3.888889E+03	2.827887E-03	3.298870E-04
3.898810E+03	2.859825E-03	3.324038E-04
3.908730E+03	2.891468E-03	3.348577E-04
3.918651E+03	2.922550E-03	3.372185E-04
3.928571E+03	2.953291E-03	3.395123E-04
3.938492E+03	2.983546E-03	3.417228E-04
3.948413E+03	3.013294E-03	3.438484E-04
3.958333E+03	3.042636E-03	3.459010E-04
3.968254E+03	3.071307E-03	3.478515E-04
3.978175E+03	3.099532E-03	3.497260E-04
3.988095E+03	3.127053E-03	3.514962E-04
3.998016E+03	3.153971E-03	3.531743E-04
4.007937E+03	3.180393E-03	3.547732E-04
4.017857E+03	3.206068E-03	3.562656E-04
4.027778E+03	3.231106E-03	3.576647E-04
4.037698E+03	3.255384E-03	3.589580E-04
4.047619E+03	3.279135E-03	3.601721E-04
4.057540E+03	3.302131E-03	3.612827E-04
4.067460E+03	3.324379E-03	3.622917E-04
4.077381E+03	3.346006E-03	3.632140E-04
4.087302E+03	3.366914E-03	3.640401E-04
4.097222E+03	3.387125E-03	3.647730E-04
4.107143E+03	3.406660E-03	3.654164E-04
4.117063E+03	3.425662E-03	3.659862E-04
4.126984E+03	3.443931E-03	3.664622E-04
4.136905E+03	3.461617E-03	3.668613E-04
4.146825E+03	3.478756E-03	3.671882E-04
4.156746E+03	3.495394E-03	3.674486E-04
4.166667E+03	3.511472E-03	3.676371E-04
4.176587E+03	3.527046E-03	3.677604E-04
4.186508E+03	3.542277E-03	3.678361E-04
4.196429E+03	3.557116E-03	3.678597E-04
4.206349E+03	3.571620E-03	3.678379E-04
4.216270E+03	3.585747E-03	3.677667E-04
4.226190E+03	3.599765E-03	3.676744E-04
4.236111E+03	3.613529E-03	3.675464E-04
4.246032E+03	3.627100E-03	3.673896E-04
4.255952E+03	3.640647E-03	3.672213E-04
4.265873E+03	3.654127E-03	3.670376E-04
4.275794E+03	3.667603E-03	3.668448E-04
4.285714E+03	3.681034E-03	3.666395E-04
4.295635E+03	3.694677E-03	3.664471E-04
4.305556E+03	3.708388E-03	3.662535E-04
4.315476E+03	3.722216E-03	3.660636E-04
4.325397E+03	3.736307E-03	3.658919E-04
4.335317E+03	3.750609E-03	3.657332E-04
4.345238E+03	3.765163E-03	3.655914E-04
4.355159E+03	3.780011E-03	3.654706E-04
4.365079E+03	3.795094E-03	3.653650E-04
4.375000E+03	3.810544E-03	3.652873E-04
4.384921E+03	3.826303E-03	3.652317E-04
4.394841E+03	3.842492E-03	3.652097E-04
4.404762E+03	3.859046E-03	3.652149E-04
4.414683E+03	3.875889E-03	3.652400E-04
4.424603E+03	3.893229E-03	3.653045E-04
4.434524E+03	3.910888E-03	3.653916E-04
4.444444E+03	3.928964E-03	3.655101E-04
4.454365E+03	3.947358E-03	3.656511E-04
4.464286E+03	3.966150E-03	3.658216E-04
4.474206E+03	3.985133E-03	3.660025E-04
4.484127E+03	4.004460E-03	3.662083E-04
4.494048E+03	4.024002E-03	3.664269E-04
4.503968E+03	4.043708E-03	3.666540E-04
4.513889E+03	4.063432E-03	3.668765E-04
4.523810E+03	4.083286E-03	3.671050E-04
4.533730E+03	4.102929E-03	3.673091E-04
4.543651E+03	4.122556E-03	3.675070E-04
4.553571E+03	4.141814E-03	3.676678E-04
4.563492E+03	4.160808E-03	3.678016E-04
4.573413E+03	4.179456E-03	3.679020E-04
4.583333E+03	4.197504E-03	3.679475E-04
4.593254E+03	4.215068E-03	3.679494E-04
4.603175E+03	4.231996E-03	3.678954E-04
4.613095E+03	4.248245E-03	3.677830E-04
4.623016E+03	4.263687E-03	3.676024E-04
4.632937E+03	4.278473E-03	3.673678E-04
4.642857E+03	4.292492E-03	3.670710E-04
4.652778E+03	4.305644E-03	3.667045E-04
4.662698E+03	4.318093E-03	3.662838E-04
4.672619E+03	4.329651E-03	3.657941E-04
4.682540E+03	4.340398E-03	3.652436E-04
4.692460E+03	4.350320E-03	3.646322E-04
4.702381E+03	4.359397E-03	3.639595E-04
4.712302E+03	4.367608E-03	3.632252E-04
4.722222E+03	4.374838E-03	3.624208E-04
4.732143E+03	4.381233E-03	3.615599E-04
4.742063E+03	4.386582E-03	3.606263E-04
4.751984E+03	4.390937E-03	3.596255E-04
4.761905E+03	4.394257E-03	3.585556E-04
4.771825E+03	4.396501E-03	3.574145E-04
4.781746E+03	4.397549E-03	3.561938E-04
4.791667E+03	4.397533E-03	3.549056E-04
4.801587E+03	4.396333E-03	3.535415E-04
4.811508E+03	4.393920E-03	3.521003E-04
4.821429E+03	4.390181E-03	3.505744E-04
4.831349E+03	4.385268E-03	3.489766E-04
4.841270E+03	4.379170E-03	3.473065E-04
4.851190E+03	4.371724E-03	3.455515E-04
4.861111E+03	4.363111E-03	3.437266E-04
4.871032E+03	4.353277E-03	3.418276E-04
4.880952E+03	4.342264E-03	3.398583E-04
4.890873E+03	4.330206E-03	3.378293E-04
4.900794E+03	4.317085E-03	3.357395E-04
4.910714E+03	4.303045E-03	3.336000E-04
4.920635E+03	4.288072E-03	3.314101E-04
4.930556E+03	4.272309E-03	3.291805E-04
4.940476E+03	4.255809E-03	3.269152E-04
4.950397E+03	4.238547E-03	3.246123E-04
4.960317E+03	4.220645E-03	3.222810E-04
4.970238E+03	4.202149E-03	3.199244E-04
4.980159E+03	4.183104E-03	3.175459E-04
4.990079E+03	4.163567E-03	3.151493E-04
5.000000E+03	4.143523E-03	3.127333E-04
5.009921E+03	4.123193E-03	3.103142E-04
5.019841E+03	4.102571E-03	3.078910E-04
5.029762E+03	4.081661E-03	3.054638E-04
5.039683E+03	4.060691E-03	3.030490E-04
5.049603E+03	4.039739E-03	3.006519E-04
5.059524E+03	4.018743E-03	2.982674E-04
5.069444E+03	3.997861E-03	2.959064E-04
5.079365E+03	3.977240E-03	2.935794E-04
5.089286E+03	3.956882E-03	2.912857E-04
5.099206E+03	3.936917E-03	2.890342E-04
5.109127E+03	3.917247E-03	2.868169E-04
5.119048E+03	3.898105E-03	2.846501E-04
5.128968E+03	3.879300E-03	2.825194E-04
5.138889E+03	3.860981E-03	2.804345E-04
5.148810E+03	3.843081E-03	2.783902E-04
5.158730E+03	3.825667E-03	2.763904E-04
5.168651E+03	3.808659E-03	2.744286E-04
5.178571E+03	3.792042E-03	2.725033E-04
5.188492E+03	3.775858E-03	2.706166E-04
5.198413E+03	3.760076E-03	2.687657E-04
5.208333E+03	3.744590E-03	2.669426E-04
5.218254E+03	3.729358E-03	2.651436E-04
5.228175E+03	3.714398E-03	2.633696E-04
5.238095E+03	3.699595E-03	2.616117E-04
5.248016E+03	3.684958E-03	2.598703E-04
5.257937E+03	3.670370E-03	2.581367E-04
5.267857E+03	3.655773E-03	2.564065E-04
5.277778E+03	3.641178E-03	2.546801E-04
5.287698E+03	3.626466E-03	2.529489E-04
5.297619E+03	3.611649E-03	2.512136E-04
5.307540E+03	3.596611E-03	2.494659E-04
5.317460E+03	3.581369E-03	2.477067E-04
5.327381E+03	3.565810E-03	2.459282E-04
5.337302E+03	3.549945E-03	2.441311E-04
5.347222E+03	3.533663E-03	2.423075E-04
5.357143E+03	3.516906E-03	2.404538E-04
5.367063E+03	3.499680E-03	2.385702E-04
5.376984E+03	3.481861E-03	2.366485E-04
5.386905E+03	3.463446E-03	2.346886E-04
5.396825E+03	3.444316E-03	2.326827E-04
5.406746E+03	3.424409E-03	2.306268E-04
5.416667E+03	3.403729E-03	2.285217E-04
5.426587E+03	3.382222E-03	2.263639E-04
5.436508E+03	3.359783E-03	2.241470E-04
5.446429E+03	3.336429E-03	2.218726E-04
5.456349E+03	3.312068E-03	2.195349E-04
5.466270E+03	3.286724E-03	2.171364E-04
5.476190E+03	3.260321E-03	2.146725E-04
5.486111E+03	3.232905E-03	2.121469E-04
5.496032E+03	3.204482E-03	2.095607E-04
5.505952E+03	3.175023E-03	2.069127E-04
5.515873E+03	3.144635E-03	2.042106E-04
5.525794E+03	3.113395E-03	2.014601E-04
5.535714E+03	3.081407E-03	1.986684E-04
5.545635E+03	3.048803E-03	1.958448E-04
5.555556E+03	3.015695E-03	1.929968E-04
5.565476E+03	2.982367E-03	1.901432E-04
5.575397E+03	2.948917E-03	1.872903E-04
5.585317E+03	2.915658E-03	1.844584E-04
5.595238E+03	2.882704E-03	1.816544E-04
5.605159E+03	2.850370E-03	1.788981E-04
5.615079E+03	2.818815E-03	1.761993E-04
5.625000E+03	2.788242E-03	1.735699E-04
5.634921E+03	2.758890E-03	1.710244E-04
5.644841E+03	2.730890E-03	1.685700E-04
5.654762E+03	2.704410E-03	1.662161E-04
5.664683E+03	2.679647E-03	1.639737E-04
5.674603E+03	2.656696E-03	1.618474E-04
5.684524E+03	2.635720E-03	1.598457E-04
5.694444E+03	2.616772E-03	1.579703E-04
5.704365E+03	2.599971E-03	1.562269E-04
5.714286E+03	2.585363E-03	1.546164E-04
5.724206E+03	2.572926E-03	1.531358E-04
5.734127E+03	2.562702E-03	1.517858E-04
5.744048E+03	2.554659E-03	1.505627E-04
5.753968E+03	2.548745E-03	1.494616E-04
5.763889E+03	2.544842E-03	1.484737E-04
5.773810E+03	2.542940E-03	1.475967E-04
5.783730E+03	2.542835E-03	1.468170E-04
5.793651E+03	2.544469E-03	1.461297E-04
5.803571E+03	2.547592E-03	1.455189E-04
5.813492E+03	2.552070E-03	1.449755E-04
5.823413E+03	2.557753E-03	1.444899E-04
5.833333E+03	2.564352E-03	1.440446E-04
5.843254E+03	2.571756E-03	1.436325E-04
5.853175E+03	2.579676E-03	1.432368E-04
5.863095E+03	2.588018E-03	1.428518E-04
5.873016E+03	2.596565E-03	1.424651E-04
5.882937E+03	2.605168E-03	1.420685E-04
5.892857E+03	2.613705E-03	1.416552E-04
5.902778E+03	2.622076E-03	1.412199E-04
5.912698E+03	2.630216E-03	1.407594E-04
5.922619E+03	2.638130E-03	1.402742E-04
5.932540E+03	2.645767E-03	1.397619E-04
5.942460E+03	2.653102E-03	1.392214E-04
5.952381E+03	2.660284E-03	1.386611E-04
5.962302E+03	2.667346E-03	1.380827E-04
5.972222E+03	2.674446E-03	1.374947E-04
5.982143E+03	2.681620E-03	1.368989E-04
5.992063E+03	2.689110E-03	1.363076E-04
6.001984E+03	2.696985E-03	1.357242E-04
6.011905E+03	2.705507E-03	1.351613E-04
6.021825E+03	2.714803E-03	1.346247E-04
6.031746E+03	2.725036E-03	1.341218E-04
6.041667E+03	2.736363E-03	1.336592E-04
6.051587E+03	2.748923E-03	1.332427E-04
6.061508E+03	2.762876E-03	1.328788E-04
6.071429E+03	2.778215E-03	1.325657E-04
6.081349E+03	2.795111E-03	1.323101E-04
6.091270E+03	2.813560E-03	1.321104E-04
6.101190E+03	2.833542E-03	1.319639E-04
6.111111E+03	2.855170E-03	1.318744E-04
6.121032E+03	2.878385E-03	1.318376E-04
6.130952E+03	2.903155E-03	1.318503E-04
6.140873E+03	2.929469E-03	1.319108E-04
6.150794E+03	2.957117E-03	1.320078E-04
6.160714E+03	2.986009E-03	1.321360E-04
6.170635E+03	3.016010E-03	1.322881E-04
6.180556E+03	3.046756E-03	1.324471E-04
6.190476E+03	3.078036E-03	1.326032E-04
6.200397E+03	3.109359E-03	1.327349E-04
6.210317E+03	3.140404E-03	1.328289E-04
6.220238E+03	3.170635E-03	1.328633E-04
6.230159E+03	3.199553E-03	1.328186E-04
6.240079E+03	3.226710E-03	1.326783E-04
6.250000E+03	3.251488E-03	1.324196E-04
6.259921E+03	3.273537E-03	1.320318E-04
6.269841E+03	3.292385E-03	1.314995E-04
6.279762E+03	3.307680E-03	1.308133E-04
6.289683E+03	3.319214E-03	1.299697E-04
6.299603E+03	3.326693E-03	1.289623E-04
6.309524E+03	3.330161E-03	1.277984E-04
6.319444E+03	3.329621E-03	1.264833E-04
6.329365E+03	3.325040E-03	1.250214E-04
6.339286E+03	3.316766E-03	1.234309E-04
6.349206E+03	3.304835E-03	1.217184E-04
6.359127E+03	3.289650E-03	1.199035E-04
6.369048E+03	3.271523E-03	1.180021E-04
6.378968E+03	3.250710E-03	1.160274E-04
6.388889E+03	3.227520E-03	1.139945E-04
6.398810E+03	3.202362E-03	1.119211E-04
6.408730E+03	3.175315E-03	1.098131E-04
6.418651E+03	3.146781E-03	1.076871E-04
6.428571E+03	3.116837E-03	1.055484E-04
6.438492E+03	3.085721E-03	1.034073E-04
6.448413E+03	3.053599E-03	1.012714E-04
6.458333E+03	3.020628E-03	9.914803E-05
6.468254E+03	2.986946E-03	9.704325E-05
6.478175E+03	2.952623E-03	9.496094E-05
6.488095E+03	2.917877E-03	9.290952E-05
6.498016E+03	2.882739E-03	9.089127E-05
6.507937E+03	2.847280E-03	8.890950E-05
6.517857E+03	2.811555E-03	8.696703E-05
6.527778E+03	2.775610E-03	8.506624E-05
6.537698E+03	2.739492E-03	8.320940E-05
6.547619E+03	2.703293E-03	8.140005E-05
6.557540E+03	2.667000E-03	7.963846E-05
6.567460E+03	2.630705E-03	7.792792E-05
6.577381E+03	2.594347E-03	7.626706E-05
6.587302E+03	2.558121E-03	7.466192E-05
6.597222E+03	2.521967E-03	7.311096E-05
6.607143E+03	2.485931E-03	7.161559E-05
6.617063E+03	2.450163E-03	7.018003E-05
6.626984E+03	2.414613E-03	6.880272E-05
6.636905E+03	2.379341E-03	6.748500E-05
6.646825E+03	2.344492E-03	6.623055E-05
6.656746E+03	2.310023E-03	6.503757E-05
6.666667E+03	2.276028E-03	6.390798E-05
6.676587E+03	2.242547E-03	6.284209E-05
6.686508E+03	2.209619E-03	6.184005E-05
6.696429E+03	2.177234E-03	6.090049E-05
6.706349E+03	2.145502E-03	6.002478E-05
6.716270E+03	2.114402E-03	5.920965E-05
6.726190E+03	2.083957E-03	5.845302E-05
6.736111E+03	2.054197E-03	5.775298E-05
6.746032E+03	2.025160E-03	5.710802E-05
6.755952E+03	1.996935E-03	5.651806E-05
6.765873E+03	1.969499E-03	5.598000E-05
6.775794E+03	1.942997E-03	5.549565E-05
6.785714E+03	1.917467E-03	5.506391E-05
6.795635E+03	1.892988E-03	5.468504E-05
6.805556E+03	1.869684E-03	5.436078E-05
6.815476E+03	1.847575E-03	5.409014E-05
6.825397E+03	1.826862E-03	5.387752E-05
6.835317E+03	1.807698E-03	5.372635E-05
6.845238E+03	1.790169E-03	5.363830E-05
6.855159E+03	1.774501E-03	5.361962E-05
6.865079E+03	1.760799E-03	5.367320E-05
6.875000E+03	1.749216E-03	5.380378E-05
6.884921E+03	1.739800E-03	5.401316E-05
6.894841E+03	1.732584E-03	5.430292E-05
6.904762E+03	1.727570E-03	5.467390E-05
6.914683E+03	1.724779E-03	5.512771E-05
6.924603E+03	1.724152E-03	5.566354E-05
6.934524E+03	1.725662E-03	5.628173E-05
6.944444E+03	1.729319E-03	5.698388E-05
6.954365E+03	1.735023E-03	5.776816E-05
6.964286E+03	1.742820E-03	5.863749E-05
6.974206E+03	1.752650E-03	5.959149E-05
6.984127E+03	1.764491E-03	6.063102E-05
6.994048E+03	1.778321E-03	6.175703E-05
7.003968E+03	1.794162E-03	6.297201E-05
7.013889E+03	1.811923E-03	6.427457E-05
7.023810E+03	1.831623E-03	6.566723E-05
7.033730E+03	1.853285E-03	6.715271E-05
7.043651E+03	1.876806E-03	6.872921E-05
7.053571E+03	1.902197E-03	7.039904E-05
7.063492E+03	1.929459E-03	7.216415E-05
7.073413E+03	1.958459E-03	7.402159E-05
7.083333E+03	1.989133E-03	7.597073E-05
7.093254E+03	2.021482E-03	7.801345E-05
7.103175E+03	2.055321E-03	8.014449E-05
7.113095E+03	2.090575E-03	8.236249E-05
7.123016E+03	2.127059E-03	8.466169E-05
7.132937E+03	2.164653E-03	8.703877E-05
7.142857E+03	2.203127E-03	8.948558E-05
7.152778E+03	2.242311E-03	9.199617E-05
7.162698E+03	2.281911E-03	9.455926E-05
7.172619E+03	2.321695E-03	9.716560E-05
7.182540E+03	2.361304E-03	9.980021E-05
7.192460E+03	2.400389E-03	1.024480E-04
7.202381E+03	2.438577E-03	1.050923E-04
7.212302E+03	2.475515E-03	1.077166E-04
7.222222E+03	2.510680E-03	1.102963E-04
7.232143E+03	2.543740E-03	1.128148E-04
7.242063E+03	2.574158E-03	1.152453E-04
7.251984E+03	2.601631E-03	1.175708E-04
7.261905E+03	2.625660E-03	1.197650E-04
7.271825E+03	2.645960E-03	1.218105E-04
7.281746E+03	2.662257E-03	1.236900E-04
7.291667E+03	2.674340E-03	1.253886E-04
7.301587E+03	2.682019E-03	1.268920E-04
7.311508E+03	2.685306E-03	1.281952E-04
7.321429E+03	2.684231E-03	1.292944E-04
7.331349E+03	2.678846E-03	1.301864E-04
7.341270E+03	2.669393E-03	1.308777E-04
7.351190E+03	2.656060E-03	1.313725E-04
7.361111E+03	2.639198E-03	1.316834E-04
7.371032E+03	2.619090E-03	1.318200E-04
7.380952E+03	2.596159E-03	1.317998E-04
7.390873E+03	2.570678E-03	1.316331E-04
7.400794E+03	2.543201E-03	1.313452E-04
7.410714E+03	2.513955E-03	1.309454E-04
7.420635E+03	2.483421E-03	1.304567E-04
7.430556E+03	2.451906E-03	1.298936E-04
7.440476E+03	2.419743E-03	1.292727E-04
7.450397E+03	2.387295E-03	1.286127E-04
7.460317E+03	2.354732E-03	1.279224E-04
7.470238E+03	2.322402E-03	1.272208E-04
7.480159E+03	2.290468E-03	1.265171E-04
7.490079E+03	2.259111E-03	1.258220E-04
7.500000E+03	2.228477E-03	1.251445E-04
7.509921E+03	2.198681E-03	1.244921E-04
7.519841E+03	2.169805E-03	1.238705E-04
7.529762E+03	2.141894E-03	1.232837E-04
7.539683E+03	2.115020E-03	1.227368E-04
7.549603E+03	2.089084E-03	1.222253E-04
7.559524E+03	2.064114E-03	1.217515E-04
7.569444E+03	2.040125E-03	1.213176E-04
7.579365E+03	2.016995E-03	1.209171E-04
7.589286E+03	1.994751E-03	1.205526E-04
7.599206E+03	1.973395E-03	1.202252E-04
7.609127E+03	1.952972E-03	1.199386E-04
7.619048E+03	1.933404E-03	1.196891E-04
7.628968E+03	1.914730E-03	1.194801E-04
7.638889E+03	1.896895E-03	1.193091E-04
7.648810E+03	1.879957E-03	1.191809E-04
7.658730E+03	1.863843E-03	1.190919E-04
7.668651E+03	1.848508E-03	1.190401E-04
7.678571E+03	1.833867E-03	1.190211E-04
7.688492E+03	1.819908E-03	1.190348E-04
7.698413E+03	1.806579E-03	1.190786E-04
