#wls	flux	fluxerr
1.587302E+03	1.279690E-04	3.382551E-05
1.626984E+03	1.313808E-04	3.456525E-05
1.666667E+03	1.350432E-04	3.535865E-05
1.706349E+03	1.389738E-04	3.620901E-05
1.746032E+03	1.431670E-04	3.711346E-05
1.785714E+03	1.476665E-04	3.808184E-05
1.825397E+03	1.524944E-04	3.911815E-05
1.865079E+03	1.577014E-04	4.023348E-05
1.904762E+03	1.632611E-04	4.141906E-05
1.944444E+03	1.692556E-04	4.269350E-05
1.984127E+03	1.756892E-04	4.405539E-05
2.023810E+03	1.826249E-04	4.551783E-05
2.063492E+03	1.901016E-04	4.708749E-05
2.103175E+03	1.981297E-04	4.876360E-05
2.142857E+03	2.068177E-04	5.056926E-05
2.182540E+03	2.161838E-04	5.250482E-05
2.222222E+03	2.262820E-04	5.457895E-05
2.261905E+03	2.372066E-04	5.680950E-05
2.301587E+03	2.490241E-04	5.920688E-05
2.341270E+03	2.618064E-04	6.178210E-05
2.380952E+03	2.756308E-04	6.454676E-05
2.420635E+03	2.905801E-04	6.751293E-05
2.460317E+03	3.068334E-04	7.071406E-05
2.500000E+03	3.244031E-04	7.414379E-05
2.539683E+03	3.434398E-04	7.782676E-05
2.579365E+03	3.641606E-04	8.180103E-05
2.619048E+03	3.865926E-04	8.606030E-05
2.658730E+03	4.109197E-04	9.063221E-05
2.698413E+03	4.373422E-04	9.554609E-05
2.738095E+03	4.660157E-04	1.008194E-04
2.777778E+03	4.971014E-04	1.064691E-04
2.817460E+03	5.307649E-04	1.125109E-04
2.857143E+03	5.673169E-04	1.189893E-04
2.896825E+03	6.068720E-04	1.259042E-04
2.936508E+03	6.496866E-04	1.332834E-04
2.976190E+03	6.960276E-04	1.411532E-04
2.986111E+03	7.081600E-04	1.431931E-04
2.996032E+03	7.204744E-04	1.452535E-04
3.005952E+03	7.331418E-04	1.473685E-04
3.015873E+03	7.459970E-04	1.495041E-04
3.025794E+03	7.590404E-04	1.516601E-04
3.035714E+03	7.724495E-04	1.538714E-04
3.045635E+03	7.860524E-04	1.561031E-04
3.055556E+03	7.998494E-04	1.583547E-04
3.065476E+03	8.139326E-04	1.606440E-04
3.075397E+03	8.283054E-04	1.629711E-04
3.085317E+03	8.429711E-04	1.653360E-04
3.095238E+03	8.578383E-04	1.677201E-04
3.105159E+03	8.730027E-04	1.701416E-04
3.115079E+03	8.884676E-04	1.726006E-04
3.125000E+03	9.042359E-04	1.750968E-04
3.134921E+03	9.202110E-04	1.776110E-04
3.144841E+03	9.364928E-04	1.801619E-04
3.154762E+03	9.529821E-04	1.827297E-04
3.164683E+03	9.698835E-04	1.853531E-04
3.174603E+03	9.869949E-04	1.879927E-04
3.184524E+03	1.004420E-03	1.906676E-04
3.194444E+03	1.022161E-03	1.933775E-04
3.204365E+03	1.040111E-03	1.961016E-04
3.214286E+03	1.058378E-03	1.988596E-04
3.224206E+03	1.076963E-03	2.016510E-04
3.234127E+03	1.095868E-03	2.044751E-04
3.244048E+03	1.115092E-03	2.073314E-04
3.253968E+03	1.134636E-03	2.102194E-04
3.263889E+03	1.154387E-03	2.131171E-04
3.273810E+03	1.174457E-03	2.160446E-04
3.283730E+03	1.194846E-03	2.190013E-04
3.293651E+03	1.215553E-03	2.219862E-04
3.303571E+03	1.236578E-03	2.249986E-04
3.313492E+03	1.257799E-03	2.280155E-04
3.323413E+03	1.279456E-03	2.310797E-04
3.333333E+03	1.301304E-03	2.341462E-04
3.343254E+03	1.323461E-03	2.372357E-04
3.353175E+03	1.345927E-03	2.403472E-04
3.363095E+03	1.368699E-03	2.434794E-04
3.373016E+03	1.391773E-03	2.466311E-04
3.382937E+03	1.415148E-03	2.498011E-04
3.392857E+03	1.438818E-03	2.529878E-04
3.402778E+03	1.462782E-03	2.561900E-04
3.412698E+03	1.486900E-03	2.593828E-04
3.422619E+03	1.511435E-03	2.626112E-04
3.432540E+03	1.536112E-03	2.658270E-04
3.442460E+03	1.561199E-03	2.690754E-04
3.452381E+03	1.586414E-03	2.723074E-04
3.462302E+03	1.612030E-03	2.755691E-04
3.472222E+03	1.637760E-03	2.788106E-04
3.482143E+03	1.663737E-03	2.820542E-04
3.492063E+03	1.690097E-03	2.853221E-04
3.501984E+03	1.716546E-03	2.885640E-04
3.511905E+03	1.743220E-03	2.918023E-04
3.521825E+03	1.770256E-03	2.950593E-04
3.531746E+03	1.797353E-03	2.982840E-04
3.541667E+03	1.824648E-03	3.014988E-04
3.551587E+03	1.852133E-03	3.047019E-04
3.561508E+03	1.879947E-03	3.079153E-04
3.571429E+03	1.907780E-03	3.110881E-04
3.581349E+03	1.935772E-03	3.142423E-04
3.591270E+03	1.964066E-03	3.174009E-04
3.601190E+03	1.992343E-03	3.205116E-04
3.611111E+03	2.020744E-03	3.235972E-04
3.621032E+03	2.049417E-03	3.266806E-04
3.630952E+03	2.078036E-03	3.297094E-04
3.640873E+03	2.106903E-03	3.327315E-04
3.650794E+03	2.135689E-03	3.356943E-04
3.660714E+03	2.164702E-03	3.386462E-04
3.670635E+03	2.193604E-03	3.415339E-04
3.680556E+03	2.222709E-03	3.444064E-04
3.690476E+03	2.251677E-03	3.472105E-04
3.700397E+03	2.280823E-03	3.499949E-04
3.710317E+03	2.309803E-03	3.527067E-04
3.720238E+03	2.338935E-03	3.553943E-04
3.730159E+03	2.368043E-03	3.580307E-04
3.740079E+03	2.396943E-03	3.605884E-04
3.750000E+03	2.425959E-03	3.631160E-04
3.759921E+03	2.454739E-03	3.655611E-04
3.769841E+03	2.483609E-03	3.679725E-04
3.779762E+03	2.512217E-03	3.702979E-04
3.789683E+03	2.540892E-03	3.725862E-04
3.799603E+03	2.569279E-03	3.747854E-04
3.809524E+03	2.597710E-03	3.769443E-04
3.819444E+03	2.625829E-03	3.790114E-04
3.829365E+03	2.653797E-03	3.810108E-04
3.839286E+03	2.681775E-03	3.829656E-04
3.849206E+03	2.709412E-03	3.848260E-04
3.859127E+03	2.736865E-03	3.866151E-04
3.869048E+03	2.764130E-03	3.883327E-04
3.878968E+03	2.791200E-03	3.899782E-04
3.888889E+03	2.817890E-03	3.915266E-04
3.898810E+03	2.844544E-03	3.930265E-04
3.908730E+03	2.870809E-03	3.944293E-04
3.918651E+03	2.896857E-03	3.957595E-04
3.928571E+03	2.922683E-03	3.970172E-04
3.938492E+03	2.948286E-03	3.982028E-04
3.948413E+03	2.973666E-03	3.993170E-04
3.958333E+03	2.998648E-03	4.003371E-04
3.968254E+03	3.023412E-03	4.012878E-04
3.978175E+03	3.047960E-03	4.021706E-04
3.988095E+03	3.072123E-03	4.029633E-04
3.998016E+03	3.096261E-03	4.037146E-04
4.007937E+03	3.119851E-03	4.043565E-04
4.017857E+03	3.143438E-03	4.049609E-04
4.027778E+03	3.166678E-03	4.054839E-04
4.037698E+03	3.189762E-03	4.059510E-04
4.047619E+03	3.212533E-03	4.063427E-04
4.057540E+03	3.235006E-03	4.066620E-04
4.067460E+03	3.257554E-03	4.069566E-04
4.077381E+03	3.279671E-03	4.071637E-04
4.087302E+03	3.301907E-03	4.073525E-04
4.097222E+03	3.323762E-03	4.074616E-04
4.107143E+03	3.345615E-03	4.075385E-04
4.117063E+03	3.367493E-03	4.075868E-04
4.126984E+03	3.389077E-03	4.075684E-04
4.136905E+03	3.410749E-03	4.075301E-04
4.146825E+03	3.432545E-03	4.074764E-04
4.156746E+03	3.454147E-03	4.073697E-04
4.166667E+03	3.475942E-03	4.072565E-04
4.176587E+03	3.497792E-03	4.071207E-04
4.186508E+03	3.519740E-03	4.069673E-04
4.196429E+03	3.541995E-03	4.068210E-04
4.206349E+03	3.564250E-03	4.066464E-04
4.216270E+03	3.586895E-03	4.064881E-04
4.226190E+03	3.609622E-03	4.063113E-04
4.236111E+03	3.632822E-03	4.061599E-04
4.246032E+03	3.656187E-03	4.059995E-04
4.255952E+03	3.680108E-03	4.058733E-04
4.265873E+03	3.704277E-03	4.057470E-04
4.275794E+03	3.728908E-03	4.056440E-04
4.285714E+03	3.754043E-03	4.055685E-04
4.295635E+03	3.779720E-03	4.055242E-04
4.305556E+03	3.805974E-03	4.055146E-04
4.315476E+03	3.832674E-03	4.055249E-04
4.325397E+03	3.860024E-03	4.055769E-04
4.335317E+03	3.888060E-03	4.056736E-04
4.345238E+03	3.916639E-03	4.057995E-04
4.355159E+03	3.945964E-03	4.059754E-04
4.365079E+03	3.976063E-03	4.062035E-04
4.375000E+03	4.006785E-03	4.064679E-04
4.384921E+03	4.038326E-03	4.067881E-04
4.394841E+03	4.070532E-03	4.071481E-04
4.404762E+03	4.103417E-03	4.075490E-04
4.414683E+03	4.137169E-03	4.080092E-04
4.424603E+03	4.171620E-03	4.085117E-04
4.434524E+03	4.206952E-03	4.090743E-04
4.444444E+03	4.242989E-03	4.096793E-04
4.454365E+03	4.279727E-03	4.103265E-04
4.464286E+03	4.317157E-03	4.110152E-04
4.474206E+03	4.355448E-03	4.117615E-04
4.484127E+03	4.394402E-03	4.125468E-04
4.494048E+03	4.433998E-03	4.133694E-04
4.503968E+03	4.474207E-03	4.142274E-04
4.513889E+03	4.514996E-03	4.151183E-04
4.523810E+03	4.556511E-03	4.160562E-04
4.533730E+03	4.598341E-03	4.170044E-04
4.543651E+03	4.640804E-03	4.179932E-04
4.553571E+03	4.683474E-03	4.189852E-04
4.563492E+03	4.726660E-03	4.200099E-04
4.573413E+03	4.769918E-03	4.210293E-04
4.583333E+03	4.813359E-03	4.220552E-04
4.593254E+03	4.857087E-03	4.230989E-04
4.603175E+03	4.900634E-03	4.241218E-04
4.613095E+03	4.944086E-03	4.251340E-04
4.623016E+03	4.987337E-03	4.261291E-04
4.632937E+03	5.030268E-03	4.271001E-04
4.642857E+03	5.072559E-03	4.280230E-04
4.652778E+03	5.114459E-03	4.289223E-04
4.662698E+03	5.155431E-03	4.297566E-04
4.672619E+03	5.195515E-03	4.305333E-04
4.682540E+03	5.234539E-03	4.312422E-04
4.692460E+03	5.272129E-03	4.318570E-04
4.702381E+03	5.308488E-03	4.323987E-04
4.712302E+03	5.343018E-03	4.328236E-04
4.722222E+03	5.375510E-03	4.331197E-04
4.732143E+03	5.406138E-03	4.333062E-04
4.742063E+03	5.434279E-03	4.333382E-04
4.751984E+03	5.459896E-03	4.332185E-04
4.761905E+03	5.482553E-03	4.329176E-04
4.771825E+03	5.502212E-03	4.324385E-04
4.781746E+03	5.518645E-03	4.317685E-04
4.791667E+03	5.531629E-03	4.308957E-04
4.801587E+03	5.540776E-03	4.297951E-04
4.811508E+03	5.546125E-03	4.284751E-04
4.821429E+03	5.547380E-03	4.269179E-04
4.831349E+03	5.544751E-03	4.251439E-04
4.841270E+03	5.538355E-03	4.231641E-04
4.851190E+03	5.528159E-03	4.209769E-04
4.861111E+03	5.514561E-03	4.186132E-04
4.871032E+03	5.497781E-03	4.160893E-04
4.880952E+03	5.477861E-03	4.134081E-04
4.890873E+03	5.455231E-03	4.106011E-04
4.900794E+03	5.430129E-03	4.076849E-04
4.910714E+03	5.402603E-03	4.046615E-04
4.920635E+03	5.373069E-03	4.015602E-04
4.930556E+03	5.341564E-03	3.983815E-04
4.940476E+03	5.308487E-03	3.951530E-04
4.950397E+03	5.274034E-03	3.918867E-04
4.960317E+03	5.238400E-03	3.885943E-04
4.970238E+03	5.201582E-03	3.852730E-04
4.980159E+03	5.163753E-03	3.819327E-04
4.990079E+03	5.125417E-03	3.786080E-04
5.000000E+03	5.086369E-03	3.752805E-04
5.009921E+03	5.046745E-03	3.719577E-04
5.019841E+03	5.007008E-03	3.686706E-04
5.029762E+03	4.966924E-03	3.653992E-04
5.039683E+03	4.926599E-03	3.621485E-04
5.049603E+03	4.886450E-03	3.589464E-04
5.059524E+03	4.846224E-03	3.557715E-04
5.069444E+03	4.805992E-03	3.526265E-04
5.079365E+03	4.766133E-03	3.495366E-04
5.089286E+03	4.726377E-03	3.464795E-04
5.099206E+03	4.686923E-03	3.434674E-04
5.109127E+03	4.647645E-03	3.404888E-04
5.119048E+03	4.608878E-03	3.375660E-04
5.128968E+03	4.570328E-03	3.346752E-04
5.138889E+03	4.532157E-03	3.318265E-04
5.148810E+03	4.494219E-03	3.290070E-04
5.158730E+03	4.456659E-03	3.262255E-04
5.168651E+03	4.419467E-03	3.234796E-04
5.178571E+03	4.382628E-03	3.207663E-04
5.188492E+03	4.346122E-03	3.180826E-04
5.198413E+03	4.309782E-03	3.154147E-04
5.208333E+03	4.273725E-03	3.127698E-04
5.218254E+03	4.237920E-03	3.101441E-04
5.228175E+03	4.202335E-03	3.075340E-04
5.238095E+03	4.166797E-03	3.049255E-04
5.248016E+03	4.131545E-03	3.023350E-04
5.257937E+03	4.096271E-03	2.997389E-04
5.267857E+03	4.061075E-03	2.971433E-04
5.277778E+03	4.025919E-03	2.945446E-04
5.287698E+03	3.990766E-03	2.919391E-04
5.297619E+03	3.955457E-03	2.893142E-04
5.307540E+03	3.920213E-03	2.866856E-04
5.317460E+03	3.884752E-03	2.840317E-04
5.327381E+03	3.849175E-03	2.813592E-04
5.337302E+03	3.813457E-03	2.786659E-04
5.347222E+03	3.777579E-03	2.759496E-04
5.357143E+03	3.741527E-03	2.732091E-04
5.367063E+03	3.705287E-03	2.704428E-04
5.376984E+03	3.668737E-03	2.676413E-04
5.386905E+03	3.632109E-03	2.648216E-04
5.396825E+03	3.595292E-03	2.619751E-04
5.406746E+03	3.558179E-03	2.590938E-04
5.416667E+03	3.521012E-03	2.561954E-04
5.426587E+03	3.483588E-03	2.532649E-04
5.436508E+03	3.446154E-03	2.503203E-04
5.446429E+03	3.408524E-03	2.473480E-04
5.456349E+03	3.370950E-03	2.443664E-04
5.466270E+03	3.333262E-03	2.413632E-04
5.476190E+03	3.295717E-03	2.383573E-04
5.486111E+03	3.258263E-03	2.353451E-04
5.496032E+03	3.220852E-03	2.323230E-04
5.505952E+03	3.183753E-03	2.293108E-04
5.515873E+03	3.146923E-03	2.263056E-04
5.525794E+03	3.110431E-03	2.233126E-04
5.535714E+03	3.074346E-03	2.203367E-04
5.545635E+03	3.038737E-03	2.173833E-04
5.555556E+03	3.003677E-03	2.144577E-04
5.565476E+03	2.969237E-03	2.115652E-04
5.575397E+03	2.935582E-03	2.087175E-04
5.585317E+03	2.902594E-03	2.059064E-04
5.595238E+03	2.870530E-03	2.031501E-04
5.605159E+03	2.839360E-03	2.004466E-04
5.615079E+03	2.809150E-03	1.978004E-04
5.625000E+03	2.779962E-03	1.952158E-04
5.634921E+03	2.751936E-03	1.927025E-04
5.644841E+03	2.724954E-03	1.902519E-04
5.654762E+03	2.699234E-03	1.878790E-04
5.664683E+03	2.674733E-03	1.855805E-04
5.674603E+03	2.651575E-03	1.833644E-04
5.684524E+03	2.629623E-03	1.812209E-04
5.694444E+03	2.609073E-03	1.791628E-04
5.704365E+03	2.589947E-03	1.771909E-04
5.714286E+03	2.572095E-03	1.752945E-04
5.724206E+03	2.555696E-03	1.734848E-04
5.734127E+03	2.540675E-03	1.717559E-04
5.744048E+03	2.527117E-03	1.701127E-04
5.753968E+03	2.514938E-03	1.685484E-04
5.763889E+03	2.504137E-03	1.670621E-04
5.773810E+03	2.494702E-03	1.656518E-04
5.783730E+03	2.486704E-03	1.643212E-04
5.793651E+03	2.480129E-03	1.630679E-04
5.803571E+03	2.474800E-03	1.618793E-04
5.813492E+03	2.470939E-03	1.607685E-04
5.823413E+03	2.468288E-03	1.597174E-04
5.833333E+03	2.466986E-03	1.587337E-04
5.843254E+03	2.466935E-03	1.578095E-04
5.853175E+03	2.468194E-03	1.569473E-04
5.863095E+03	2.470743E-03	1.561443E-04
5.873016E+03	2.474405E-03	1.553878E-04
5.882937E+03	2.479401E-03	1.546900E-04
5.892857E+03	2.485474E-03	1.540333E-04
5.902778E+03	2.492848E-03	1.534302E-04
5.912698E+03	2.501270E-03	1.528631E-04
5.922619E+03	2.510968E-03	1.523446E-04
5.932540E+03	2.521768E-03	1.518621E-04
5.942460E+03	2.533659E-03	1.514133E-04
5.952381E+03	2.546709E-03	1.510005E-04
5.962302E+03	2.560827E-03	1.506165E-04
5.972222E+03	2.576081E-03	1.502634E-04
5.982143E+03	2.592459E-03	1.499385E-04
5.992063E+03	2.609859E-03	1.496342E-04
6.001984E+03	2.628347E-03	1.493522E-04
6.011905E+03	2.647816E-03	1.490845E-04
6.021825E+03	2.668318E-03	1.488322E-04
6.031746E+03	2.689735E-03	1.485868E-04
6.041667E+03	2.712199E-03	1.483536E-04
6.051587E+03	2.735395E-03	1.481135E-04
6.061508E+03	2.759532E-03	1.478762E-04
6.071429E+03	2.784361E-03	1.476266E-04
6.081349E+03	2.809894E-03	1.473635E-04
6.091270E+03	2.835948E-03	1.470762E-04
6.101190E+03	2.862515E-03	1.467628E-04
6.111111E+03	2.889481E-03	1.464164E-04
6.121032E+03	2.916627E-03	1.460249E-04
6.130952E+03	2.944010E-03	1.455907E-04
6.140873E+03	2.971197E-03	1.450919E-04
6.150794E+03	2.998326E-03	1.445352E-04
6.160714E+03	3.025043E-03	1.439034E-04
6.170635E+03	3.051289E-03	1.431941E-04
6.180556E+03	3.076901E-03	1.424003E-04
6.190476E+03	3.101715E-03	1.415152E-04
6.200397E+03	3.125457E-03	1.405281E-04
6.210317E+03	3.148063E-03	1.394377E-04
6.220238E+03	3.169366E-03	1.382390E-04
6.230159E+03	3.189098E-03	1.369231E-04
6.240079E+03	3.207310E-03	1.354953E-04
6.250000E+03	3.223642E-03	1.339439E-04
6.259921E+03	3.238058E-03	1.322715E-04
6.269841E+03	3.250431E-03	1.304776E-04
6.279762E+03	3.260538E-03	1.285580E-04
6.289683E+03	3.268498E-03	1.265227E-04
6.299603E+03	3.274013E-03	1.243659E-04
6.309524E+03	3.277130E-03	1.220955E-04
6.319444E+03	3.277807E-03	1.197162E-04
6.329365E+03	3.276021E-03	1.172338E-04
6.339286E+03	3.271772E-03	1.146551E-04
6.349206E+03	3.265079E-03	1.119877E-04
6.359127E+03	3.255867E-03	1.092366E-04
6.369048E+03	3.244416E-03	1.064182E-04
6.378968E+03	3.230576E-03	1.035352E-04
6.388889E+03	3.214549E-03	1.006016E-04
6.398810E+03	3.196542E-03	9.763138E-05
6.408730E+03	3.176456E-03	9.462886E-05
6.418651E+03	3.154521E-03	9.160860E-05
6.428571E+03	3.130871E-03	8.858200E-05
6.438492E+03	3.105643E-03	8.556046E-05
6.448413E+03	3.078977E-03	8.255536E-05
6.458333E+03	3.051020E-03	7.957812E-05
6.468254E+03	3.021914E-03	7.664005E-05
6.478175E+03	2.991803E-03	7.375241E-05
6.488095E+03	2.960828E-03	7.092641E-05
6.498016E+03	2.929126E-03	6.817315E-05
6.507937E+03	2.896831E-03	6.550381E-05
6.517857E+03	2.864069E-03	6.292941E-05
6.527778E+03	2.830963E-03	6.046110E-05
6.537698E+03	2.797626E-03	5.810988E-05
6.547619E+03	2.764170E-03	5.588685E-05
6.557540E+03	2.730785E-03	5.380475E-05
6.567460E+03	2.697382E-03	5.187062E-05
6.577381E+03	2.664138E-03	5.009672E-05
6.587302E+03	2.631226E-03	4.849453E-05
6.597222E+03	2.598533E-03	4.706962E-05
6.607143E+03	2.566309E-03	4.583307E-05
6.617063E+03	2.534517E-03	4.478939E-05
6.626984E+03	2.503211E-03	4.394292E-05
6.636905E+03	2.472435E-03	4.329577E-05
6.646825E+03	2.442227E-03	4.284731E-05
6.656746E+03	2.412615E-03	4.259101E-05
6.666667E+03	2.383703E-03	4.251690E-05
6.676587E+03	2.355343E-03	4.260898E-05
6.686508E+03	2.327705E-03	4.285599E-05
6.696429E+03	2.300710E-03	4.324171E-05
6.706349E+03	2.274353E-03	4.375126E-05
6.716270E+03	2.248621E-03	4.436998E-05
6.726190E+03	2.223499E-03	4.508381E-05
6.736111E+03	2.199036E-03	4.588099E-05
6.746032E+03	2.175048E-03	4.674587E-05
6.755952E+03	2.151646E-03	4.767008E-05
6.765873E+03	2.128709E-03	4.864129E-05
6.775794E+03	2.106182E-03	4.964961E-05
6.785714E+03	2.084080E-03	5.068764E-05
6.795635E+03	2.062191E-03	5.174336E-05
6.805556E+03	2.040599E-03	5.281260E-05
6.815476E+03	2.019174E-03	5.388661E-05
6.825397E+03	1.997968E-03	5.496185E-05
6.835317E+03	1.977170E-03	5.603954E-05
6.845238E+03	1.956970E-03	5.712212E-05
6.855159E+03	1.937622E-03	5.821510E-05
6.865079E+03	1.919218E-03	5.932038E-05
6.875000E+03	1.901838E-03	6.044016E-05
6.884921E+03	1.885816E-03	6.158561E-05
6.894841E+03	1.871058E-03	6.275507E-05
6.904762E+03	1.857728E-03	6.395571E-05
6.914683E+03	1.845969E-03	6.519476E-05
6.924603E+03	1.835714E-03	6.647263E-05
6.934524E+03	1.827145E-03	6.779889E-05
6.944444E+03	1.820236E-03	6.917602E-05
6.954365E+03	1.815014E-03	7.060860E-05
6.964286E+03	1.811561E-03	7.210363E-05
6.974206E+03	1.809754E-03	7.366018E-05
6.984127E+03	1.809721E-03	7.528735E-05
6.994048E+03	1.811322E-03	7.698344E-05
7.003968E+03	1.814667E-03	7.875716E-05
7.013889E+03	1.819663E-03	8.060857E-05
7.023810E+03	1.826275E-03	8.254020E-05
7.033730E+03	1.834458E-03	8.455388E-05
7.043651E+03	1.844160E-03	8.665112E-05
7.053571E+03	1.855388E-03	8.883593E-05
7.063492E+03	1.867935E-03	9.110216E-05
7.073413E+03	1.881791E-03	9.345242E-05
7.083333E+03	1.896936E-03	9.588904E-05
7.093254E+03	1.913135E-03	9.840313E-05
7.103175E+03	1.930421E-03	1.009989E-04
7.113095E+03	1.948607E-03	1.036692E-04
7.123016E+03	1.967494E-03	1.064054E-04
7.132937E+03	1.987091E-03	1.092098E-04
7.142857E+03	2.007109E-03	1.120678E-04
7.152778E+03	2.027541E-03	1.149800E-04
7.162698E+03	2.048153E-03	1.179339E-04
7.172619E+03	2.068706E-03	1.209160E-04
7.182540E+03	2.089176E-03	1.239244E-04
7.192460E+03	2.109235E-03	1.269392E-04
7.202381E+03	2.128782E-03	1.299532E-04
7.212302E+03	2.147718E-03	1.329588E-04
7.222222E+03	2.165708E-03	1.359334E-04
7.232143E+03	2.182660E-03	1.388686E-04
7.242063E+03	2.198406E-03	1.417510E-04
7.251984E+03	2.212791E-03	1.445675E-04
7.261905E+03	2.225665E-03	1.473047E-04
7.271825E+03	2.236896E-03	1.499499E-04
7.281746E+03	2.246282E-03	1.524854E-04
7.291667E+03	2.253886E-03	1.549109E-04
7.301587E+03	2.259456E-03	1.572045E-04
7.311508E+03	2.263012E-03	1.593626E-04
7.321429E+03	2.264507E-03	1.613770E-04
7.331349E+03	2.263916E-03	1.632408E-04
7.341270E+03	2.261151E-03	1.649426E-04
7.351190E+03	2.256312E-03	1.664844E-04
7.361111E+03	2.249432E-03	1.678637E-04
7.371032E+03	2.240562E-03	1.690796E-04
7.380952E+03	2.229774E-03	1.701327E-04
7.390873E+03	2.217065E-03	1.710181E-04
7.400794E+03	2.202614E-03	1.717455E-04
7.410714E+03	2.186530E-03	1.723191E-04
7.420635E+03	2.168845E-03	1.727377E-04
7.430556E+03	2.149761E-03	1.730138E-04
7.440476E+03	2.129407E-03	1.731546E-04
7.450397E+03	2.107906E-03	1.731673E-04
7.460317E+03	2.085310E-03	1.730536E-04
7.470238E+03	2.061824E-03	1.728282E-04
7.480159E+03	2.037496E-03	1.724929E-04
7.490079E+03	2.012523E-03	1.720627E-04
7.500000E+03	1.987023E-03	1.715461E-04
7.509921E+03	1.961106E-03	1.709510E-04
7.519841E+03	1.934803E-03	1.702791E-04
7.529762E+03	1.908287E-03	1.695447E-04
7.539683E+03	1.881576E-03	1.687487E-04
7.549603E+03	1.854826E-03	1.679047E-04
7.559524E+03	1.828049E-03	1.670135E-04
7.569444E+03	1.801383E-03	1.660877E-04
7.579365E+03	1.774899E-03	1.651340E-04
7.589286E+03	1.748587E-03	1.641519E-04
7.599206E+03	1.722574E-03	1.631539E-04
7.609127E+03	1.696844E-03	1.621390E-04
7.619048E+03	1.671509E-03	1.611188E-04
7.628968E+03	1.646613E-03	1.600982E-04
7.638889E+03	1.622125E-03	1.590755E-04
7.648810E+03	1.598079E-03	1.580549E-04
7.658730E+03	1.574563E-03	1.570463E-04
7.668651E+03	1.551597E-03	1.560530E-04
7.678571E+03	1.529139E-03	1.550719E-04
7.688492E+03	1.507259E-03	1.541117E-04
7.698413E+03	1.485906E-03	1.531684E-04
