#wls	flux	fluxerr
1.600000E+03	6.854448E-19	5.089360E-19
1.640000E+03	6.836480E-19	5.011850E-19
1.680000E+03	6.837130E-19	4.946398E-19
1.720000E+03	6.856732E-19	4.892682E-19
1.760000E+03	6.896380E-19	4.850866E-19
1.800000E+03	6.957857E-19	4.821523E-19
1.840000E+03	7.040766E-19	4.803630E-19
1.880000E+03	7.147842E-19	4.798249E-19
1.920000E+03	7.280315E-19	4.805292E-19
1.960000E+03	7.439740E-19	4.824787E-19
2.000000E+03	7.627518E-19	4.856552E-19
2.040000E+03	7.846020E-19	4.900900E-19
2.080000E+03	8.097070E-19	4.957646E-19
2.120000E+03	8.382060E-19	5.026211E-19
2.160000E+03	8.704568E-19	5.107171E-19
2.200000E+03	9.066852E-19	5.200113E-19
2.240000E+03	9.472477E-19	5.305176E-19
2.280000E+03	9.926900E-19	5.423286E-19
2.320000E+03	1.043762E-18	5.556092E-19
2.360000E+03	1.101495E-18	5.706213E-19
2.400000E+03	1.167134E-18	5.876680E-19
2.440000E+03	1.242130E-18	6.070724E-19
2.480000E+03	1.328357E-18	6.292626E-19
2.520000E+03	1.427859E-18	6.546213E-19
2.560000E+03	1.543199E-18	6.836265E-19
2.600000E+03	1.677276E-18	7.167295E-19
2.640000E+03	1.833669E-18	7.544688E-19
2.680000E+03	2.016597E-18	7.973999E-19
2.720000E+03	2.231216E-18	8.461561E-19
2.760000E+03	2.483841E-18	9.014573E-19
2.800000E+03	2.782150E-18	9.640918E-19
2.840000E+03	3.135593E-18	1.034951E-18
2.880000E+03	3.556013E-18	1.115100E-18
2.920000E+03	4.057856E-18	1.205675E-18
2.960000E+03	4.659554E-18	1.308114E-18
3.000000E+03	5.383654E-18	1.423952E-18
3.010000E+03	5.587135E-18	1.455255E-18
3.020000E+03	5.800433E-18	1.487520E-18
3.030000E+03	6.024060E-18	1.520776E-18
3.040000E+03	6.258836E-18	1.555124E-18
3.050000E+03	6.505210E-18	1.590561E-18
3.060000E+03	6.763798E-18	1.627122E-18
3.070000E+03	7.035398E-18	1.664880E-18
3.080000E+03	7.320550E-18	1.703837E-18
3.090000E+03	7.619976E-18	1.744035E-18
3.100000E+03	7.934763E-18	1.785592E-18
3.110000E+03	8.265406E-18	1.828480E-18
3.120000E+03	8.612923E-18	1.872789E-18
3.130000E+03	8.978043E-18	1.918535E-18
3.140000E+03	9.362260E-18	1.965891E-18
3.150000E+03	9.766044E-18	2.014808E-18
3.160000E+03	1.019064E-17	2.065394E-18
3.170000E+03	1.063736E-17	2.117765E-18
3.180000E+03	1.110742E-17	2.172006E-18
3.190000E+03	1.160164E-17	2.228128E-18
3.200000E+03	1.212197E-17	2.286355E-18
3.210000E+03	1.266939E-17	2.346716E-18
3.220000E+03	1.324557E-17	2.409377E-18
3.230000E+03	1.385183E-17	2.474431E-18
3.240000E+03	1.449001E-17	2.542072E-18
3.250000E+03	1.516183E-17	2.612468E-18
3.260000E+03	1.586909E-17	2.685804E-18
3.270000E+03	1.661340E-17	2.762241E-18
3.280000E+03	1.739700E-17	2.842049E-18
3.290000E+03	1.822196E-17	2.925481E-18
3.300000E+03	1.909014E-17	3.012765E-18
3.310000E+03	2.000412E-17	3.104255E-18
3.320000E+03	2.096593E-17	3.200238E-18
3.330000E+03	2.197836E-17	3.301131E-18
3.340000E+03	2.304365E-17	3.407287E-18
3.350000E+03	2.416443E-17	3.519144E-18
3.360000E+03	2.534345E-17	3.637179E-18
3.370000E+03	2.658357E-17	3.761909E-18
3.380000E+03	2.788771E-17	3.893889E-18
3.390000E+03	2.925847E-17	4.033658E-18
3.400000E+03	3.069935E-17	4.181907E-18
3.410000E+03	3.221259E-17	4.339188E-18
3.420000E+03	3.380225E-17	4.506327E-18
3.430000E+03	3.547058E-17	4.683937E-18
3.440000E+03	3.722073E-17	4.872775E-18
3.450000E+03	3.905580E-17	5.073622E-18
3.460000E+03	4.097833E-17	5.287200E-18
3.470000E+03	4.299181E-17	5.514377E-18
3.480000E+03	4.509852E-17	5.755876E-18
3.490000E+03	4.730052E-17	6.012400E-18
3.500000E+03	4.960023E-17	6.284703E-18
3.510000E+03	5.199916E-17	6.573425E-18
3.520000E+03	5.449986E-17	6.879327E-18
3.530000E+03	5.710184E-17	7.202777E-18
3.540000E+03	5.980694E-17	7.544419E-18
3.550000E+03	6.261520E-17	7.904650E-18
3.560000E+03	6.552699E-17	8.283884E-18
3.570000E+03	6.854063E-17	8.682247E-18
3.580000E+03	7.165464E-17	9.099855E-18
3.590000E+03	7.486876E-17	9.536944E-18
3.600000E+03	7.817875E-17	9.993205E-18
3.610000E+03	8.158332E-17	1.046866E-17
3.620000E+03	8.507891E-17	1.096301E-17
3.630000E+03	8.866040E-17	1.147568E-17
3.640000E+03	9.232299E-17	1.200613E-17
3.650000E+03	9.606237E-17	1.255380E-17
3.660000E+03	9.987165E-17	1.311776E-17
3.670000E+03	1.037466E-16	1.369739E-17
3.680000E+03	1.076783E-16	1.429139E-17
3.690000E+03	1.116604E-16	1.489875E-17
3.700000E+03	1.156852E-16	1.551826E-17
3.710000E+03	1.197457E-16	1.614876E-17
3.720000E+03	1.238324E-16	1.678866E-17
3.730000E+03	1.279375E-16	1.743664E-17
3.740000E+03	1.320522E-16	1.809115E-17
3.750000E+03	1.361683E-16	1.875073E-17
3.760000E+03	1.402766E-16	1.941372E-17
3.770000E+03	1.443689E-16	2.007860E-17
3.780000E+03	1.484356E-16	2.074362E-17
3.790000E+03	1.524671E-16	2.140702E-17
3.800000E+03	1.564581E-16	2.206765E-17
3.810000E+03	1.603962E-16	2.272331E-17
3.820000E+03	1.642751E-16	2.337265E-17
3.830000E+03	1.680885E-16	2.401438E-17
3.840000E+03	1.718259E-16	2.464655E-17
3.850000E+03	1.754800E-16	2.526770E-17
3.860000E+03	1.790455E-16	2.587665E-17
3.870000E+03	1.825157E-16	2.647205E-17
3.880000E+03	1.858845E-16	2.705261E-17
3.890000E+03	1.891442E-16	2.761685E-17
3.900000E+03	1.922909E-16	2.816386E-17
3.910000E+03	1.953197E-16	2.869256E-17
3.920000E+03	1.982257E-16	2.920195E-17
3.930000E+03	2.010048E-16	2.969110E-17
3.940000E+03	2.036532E-16	3.015919E-17
3.950000E+03	2.061694E-16	3.060574E-17
3.960000E+03	2.085504E-16	3.103011E-17
3.970000E+03	2.107922E-16	3.143144E-17
3.980000E+03	2.128966E-16	3.180984E-17
3.990000E+03	2.148602E-16	3.216463E-17
4.000000E+03	2.166840E-16	3.249582E-17
4.010000E+03	2.183677E-16	3.280321E-17
4.020000E+03	2.199091E-16	3.308640E-17
4.030000E+03	2.213126E-16	3.334595E-17
4.040000E+03	2.225772E-16	3.358161E-17
4.050000E+03	2.237061E-16	3.379382E-17
4.060000E+03	2.247009E-16	3.398279E-17
4.070000E+03	2.255636E-16	3.414880E-17
4.080000E+03	2.262967E-16	3.429220E-17
4.090000E+03	2.269048E-16	3.441369E-17
4.100000E+03	2.273888E-16	3.451345E-17
4.110000E+03	2.277522E-16	3.459197E-17
4.120000E+03	2.280022E-16	3.465043E-17
4.130000E+03	2.281386E-16	3.468881E-17
4.140000E+03	2.281671E-16	3.470805E-17
4.150000E+03	2.280918E-16	3.470880E-17
4.160000E+03	2.279167E-16	3.469174E-17
4.170000E+03	2.276459E-16	3.465756E-17
4.180000E+03	2.272836E-16	3.460697E-17
4.190000E+03	2.268338E-16	3.454066E-17
4.200000E+03	2.263008E-16	3.445935E-17
4.210000E+03	2.256885E-16	3.436373E-17
4.220000E+03	2.250010E-16	3.425448E-17
4.230000E+03	2.242403E-16	3.413199E-17
4.240000E+03	2.234100E-16	3.399691E-17
4.250000E+03	2.225157E-16	3.385017E-17
4.260000E+03	2.215608E-16	3.369238E-17
4.270000E+03	2.205448E-16	3.352353E-17
4.280000E+03	2.194727E-16	3.334446E-17
4.290000E+03	2.183473E-16	3.315570E-17
4.300000E+03	2.171712E-16	3.295773E-17
4.310000E+03	2.159469E-16	3.275099E-17
4.320000E+03	2.146747E-16	3.253563E-17
4.330000E+03	2.133604E-16	3.231260E-17
4.340000E+03	2.120020E-16	3.208167E-17
4.350000E+03	2.106048E-16	3.184373E-17
4.360000E+03	2.091700E-16	3.159905E-17
4.370000E+03	2.077007E-16	3.134816E-17
4.380000E+03	2.061978E-16	3.109127E-17
4.390000E+03	2.046638E-16	3.082884E-17
4.400000E+03	2.030994E-16	3.056103E-17
4.410000E+03	2.015085E-16	3.028852E-17
4.420000E+03	1.998914E-16	3.001141E-17
4.430000E+03	1.982483E-16	2.972980E-17
4.440000E+03	1.965827E-16	2.944428E-17
4.450000E+03	1.948947E-16	2.915493E-17
4.460000E+03	1.931859E-16	2.886205E-17
4.470000E+03	1.914598E-16	2.856621E-17
4.480000E+03	1.897142E-16	2.826719E-17
4.490000E+03	1.879527E-16	2.796552E-17
4.500000E+03	1.861767E-16	2.766151E-17
4.510000E+03	1.843862E-16	2.735518E-17
4.520000E+03	1.825827E-16	2.704684E-17
4.530000E+03	1.807679E-16	2.673678E-17
4.540000E+03	1.789437E-16	2.642532E-17
4.550000E+03	1.771118E-16	2.611277E-17
4.560000E+03	1.752724E-16	2.579920E-17
4.570000E+03	1.734259E-16	2.548471E-17
4.580000E+03	1.715776E-16	2.517014E-17
4.590000E+03	1.697264E-16	2.485536E-17
4.600000E+03	1.678731E-16	2.454051E-17
4.610000E+03	1.660215E-16	2.422620E-17
4.620000E+03	1.641740E-16	2.391282E-17
4.630000E+03	1.623285E-16	2.360008E-17
4.640000E+03	1.604923E-16	2.328907E-17
4.650000E+03	1.586617E-16	2.297929E-17
4.660000E+03	1.568426E-16	2.267162E-17
4.670000E+03	1.550361E-16	2.236625E-17
4.680000E+03	1.532436E-16	2.206337E-17
4.690000E+03	1.514662E-16	2.176318E-17
4.700000E+03	1.497054E-16	2.146589E-17
4.710000E+03	1.479653E-16	2.117211E-17
4.720000E+03	1.462459E-16	2.088182E-17
4.730000E+03	1.445483E-16	2.059520E-17
4.740000E+03	1.428752E-16	2.031264E-17
4.750000E+03	1.412251E-16	2.003389E-17
4.760000E+03	1.396032E-16	1.975970E-17
4.770000E+03	1.380066E-16	1.948962E-17
4.780000E+03	1.364390E-16	1.922417E-17
4.790000E+03	1.349013E-16	1.896345E-17
4.800000E+03	1.333916E-16	1.870717E-17
4.810000E+03	1.319122E-16	1.845560E-17
4.820000E+03	1.304649E-16	1.820898E-17
4.830000E+03	1.290477E-16	1.796696E-17
4.840000E+03	1.276623E-16	1.772976E-17
4.850000E+03	1.263091E-16	1.749738E-17
4.860000E+03	1.249871E-16	1.726961E-17
4.870000E+03	1.236962E-16	1.704641E-17
4.880000E+03	1.224379E-16	1.682792E-17
4.890000E+03	1.212106E-16	1.661386E-17
4.900000E+03	1.200155E-16	1.640434E-17
4.910000E+03	1.188497E-16	1.619890E-17
4.920000E+03	1.177141E-16	1.599760E-17
4.930000E+03	1.166081E-16	1.580029E-17
4.940000E+03	1.155299E-16	1.560669E-17
4.950000E+03	1.144801E-16	1.541679E-17
4.960000E+03	1.134565E-16	1.523028E-17
4.970000E+03	1.124597E-16	1.504715E-17
4.980000E+03	1.114874E-16	1.486707E-17
4.990000E+03	1.105388E-16	1.468986E-17
5.000000E+03	1.096117E-16	1.451521E-17
5.010000E+03	1.087074E-16	1.434325E-17
5.020000E+03	1.078224E-16	1.417349E-17
5.030000E+03	1.069558E-16	1.400579E-17
5.040000E+03	1.061076E-16	1.384013E-17
5.050000E+03	1.052756E-16	1.367621E-17
5.060000E+03	1.044587E-16	1.351391E-17
5.070000E+03	1.036558E-16	1.335309E-17
5.080000E+03	1.028660E-16	1.319364E-17
5.090000E+03	1.020872E-16	1.303533E-17
5.100000E+03	1.013185E-16	1.287810E-17
5.110000E+03	1.005601E-16	1.272200E-17
5.120000E+03	9.980918E-17	1.256675E-17
5.130000E+03	9.906699E-17	1.241258E-17
5.140000E+03	9.832988E-17	1.225911E-17
5.150000E+03	9.759938E-17	1.210665E-17
5.160000E+03	9.687403E-17	1.195510E-17
5.170000E+03	9.615352E-17	1.180456E-17
5.180000E+03	9.543762E-17	1.165512E-17
5.190000E+03	9.472524E-17	1.150681E-17
5.200000E+03	9.401641E-17	1.135976E-17
5.210000E+03	9.331029E-17	1.121406E-17
5.220000E+03	9.260904E-17	1.107012E-17
5.230000E+03	9.191018E-17	1.092784E-17
5.240000E+03	9.121512E-17	1.078757E-17
5.250000E+03	9.052444E-17	1.064958E-17
5.260000E+03	8.983882E-17	1.051414E-17
5.270000E+03	8.915719E-17	1.038132E-17
5.280000E+03	8.848136E-17	1.025155E-17
5.290000E+03	8.781135E-17	1.012502E-17
5.300000E+03	8.714818E-17	1.000205E-17
5.310000E+03	8.649205E-17	9.882853E-18
5.320000E+03	8.584493E-17	9.767825E-18
5.330000E+03	8.520621E-17	9.657068E-18
5.340000E+03	8.457706E-17	9.550861E-18
5.350000E+03	8.395777E-17	9.449367E-18
5.360000E+03	8.335030E-17	9.352915E-18
5.370000E+03	8.275323E-17	9.261424E-18
5.380000E+03	8.216844E-17	9.175156E-18
5.390000E+03	8.159605E-17	9.094146E-18
5.400000E+03	8.103613E-17	9.018390E-18
5.410000E+03	8.048706E-17	8.947658E-18
5.420000E+03	7.994876E-17	8.881864E-18
5.430000E+03	7.942108E-17	8.820875E-18
5.440000E+03	7.890058E-17	8.764164E-18
5.450000E+03	7.838698E-17	8.711523E-18
5.460000E+03	7.787754E-17	8.662445E-18
5.470000E+03	7.737105E-17	8.616569E-18
5.480000E+03	7.687011E-17	8.573935E-18
5.490000E+03	7.637409E-17	8.534213E-18
5.500000E+03	7.588535E-17	8.497395E-18
5.510000E+03	7.540460E-17	8.463288E-18
5.520000E+03	7.493477E-17	8.431943E-18
5.530000E+03	7.447489E-17	8.402978E-18
5.540000E+03	7.402622E-17	8.376268E-18
5.550000E+03	7.358844E-17	8.351519E-18
5.560000E+03	7.316345E-17	8.328695E-18
5.570000E+03	7.275010E-17	8.307429E-18
5.580000E+03	7.234870E-17	8.287532E-18
5.590000E+03	7.195880E-17	8.268737E-18
5.600000E+03	7.158136E-17	8.250958E-18
5.610000E+03	7.121512E-17	8.233865E-18
5.620000E+03	7.086026E-17	8.217306E-18
5.630000E+03	7.051690E-17	8.201140E-18
5.640000E+03	7.018442E-17	8.185151E-18
5.650000E+03	6.986291E-17	8.169215E-18
5.660000E+03	6.955094E-17	8.153050E-18
5.670000E+03	6.924854E-17	8.136551E-18
5.680000E+03	6.895569E-17	8.119620E-18
5.690000E+03	6.867163E-17	8.102083E-18
5.700000E+03	6.839558E-17	8.083773E-18
5.710000E+03	6.812674E-17	8.064530E-18
5.720000E+03	6.786574E-17	8.044372E-18
5.730000E+03	6.761030E-17	8.022984E-18
5.740000E+03	6.736103E-17	8.000397E-18
5.750000E+03	6.711708E-17	7.976482E-18
5.760000E+03	6.687690E-17	7.951029E-18
5.770000E+03	6.664037E-17	7.924010E-18
5.780000E+03	6.640739E-17	7.895404E-18
5.790000E+03	6.617643E-17	7.865030E-18
5.800000E+03	6.594671E-17	7.832801E-18
5.810000E+03	6.571891E-17	7.798812E-18
5.820000E+03	6.549087E-17	7.762829E-18
5.830000E+03	6.526263E-17	7.724883E-18
5.840000E+03	6.503354E-17	7.684937E-18
5.850000E+03	6.480303E-17	7.642964E-18
5.860000E+03	6.457126E-17	7.599039E-18
5.870000E+03	6.433633E-17	7.552997E-18
5.880000E+03	6.409925E-17	7.505025E-18
5.890000E+03	6.385896E-17	7.455077E-18
5.900000E+03	6.361515E-17	7.403205E-18
5.910000E+03	6.336762E-17	7.349480E-18
5.920000E+03	6.311622E-17	7.293989E-18
5.930000E+03	6.286157E-17	7.236921E-18
5.940000E+03	6.260224E-17	7.178234E-18
5.950000E+03	6.233829E-17	7.118070E-18
5.960000E+03	6.207056E-17	7.056670E-18
5.970000E+03	6.179923E-17	6.994209E-18
5.980000E+03	6.152315E-17	6.930720E-18
5.990000E+03	6.124404E-17	6.866572E-18
6.000000E+03	6.096014E-17	6.801752E-18
6.010000E+03	6.067401E-17	6.736737E-18
6.020000E+03	6.038399E-17	6.671544E-18
6.030000E+03	6.009059E-17	6.606440E-18
6.040000E+03	5.979506E-17	6.541779E-18
6.050000E+03	5.949729E-17	6.477768E-18
6.060000E+03	5.919787E-17	6.414698E-18
6.070000E+03	5.889601E-17	6.352712E-18
6.080000E+03	5.859377E-17	6.292260E-18
6.090000E+03	5.828967E-17	6.233410E-18
6.100000E+03	5.798574E-17	6.176604E-18
6.110000E+03	5.768192E-17	6.122046E-18
6.120000E+03	5.737809E-17	6.069930E-18
6.130000E+03	5.707483E-17	6.020505E-18
6.140000E+03	5.677337E-17	5.974074E-18
6.150000E+03	5.647348E-17	5.930764E-18
6.160000E+03	5.617558E-17	5.890744E-18
6.170000E+03	5.588142E-17	5.854295E-18
6.180000E+03	5.558987E-17	5.821366E-18
6.190000E+03	5.530182E-17	5.792085E-18
6.200000E+03	5.501807E-17	5.766538E-18
6.210000E+03	5.473934E-17	5.744766E-18
6.220000E+03	5.446486E-17	5.726622E-18
6.230000E+03	5.419446E-17	5.711993E-18
6.240000E+03	5.392862E-17	5.700803E-18
6.250000E+03	5.366631E-17	5.692791E-18
6.260000E+03	5.340787E-17	5.687819E-18
6.270000E+03	5.315287E-17	5.685649E-18
6.280000E+03	5.290155E-17	5.686101E-18
6.290000E+03	5.265339E-17	5.688903E-18
6.300000E+03	5.240786E-17	5.693777E-18
6.310000E+03	5.216510E-17	5.700514E-18
6.320000E+03	5.192526E-17	5.708906E-18
6.330000E+03	5.168705E-17	5.718591E-18
6.340000E+03	5.145058E-17	5.729367E-18
6.350000E+03	5.121600E-17	5.741043E-18
6.360000E+03	5.098201E-17	5.753276E-18
6.370000E+03	5.074947E-17	5.765972E-18
6.380000E+03	5.051782E-17	5.778893E-18
6.390000E+03	5.028651E-17	5.791809E-18
6.400000E+03	5.005500E-17	5.804504E-18
6.410000E+03	4.982421E-17	5.816943E-18
6.420000E+03	4.959293E-17	5.828854E-18
6.430000E+03	4.936212E-17	5.840231E-18
6.440000E+03	4.913132E-17	5.850915E-18
6.450000E+03	4.890008E-17	5.860757E-18
6.460000E+03	4.866872E-17	5.869711E-18
6.470000E+03	4.843683E-17	5.877653E-18
6.480000E+03	4.820478E-17	5.884562E-18
6.490000E+03	4.797074E-17	5.890159E-18
6.500000E+03	4.773586E-17	5.894534E-18
6.510000E+03	4.749982E-17	5.897609E-18
6.520000E+03	4.726161E-17	5.899224E-18
6.530000E+03	4.702172E-17	5.899410E-18
6.540000E+03	4.677991E-17	5.898116E-18
6.550000E+03	4.653598E-17	5.895302E-18
6.560000E+03	4.628977E-17	5.890933E-18
6.570000E+03	4.604187E-17	5.885079E-18
6.580000E+03	4.579141E-17	5.877626E-18
6.590000E+03	4.553831E-17	5.868564E-18
6.600000E+03	4.528323E-17	5.857984E-18
6.610000E+03	4.502615E-17	5.845888E-18
6.620000E+03	4.476631E-17	5.832187E-18
6.630000E+03	4.450446E-17	5.816992E-18
6.640000E+03	4.423990E-17	5.800225E-18
6.650000E+03	4.397418E-17	5.782103E-18
6.660000E+03	4.370589E-17	5.762459E-18
6.670000E+03	4.343512E-17	5.741325E-18
6.680000E+03	4.316276E-17	5.718833E-18
6.690000E+03	4.288894E-17	5.695021E-18
6.700000E+03	4.261307E-17	5.669833E-18
6.710000E+03	4.233532E-17	5.643310E-18
6.720000E+03	4.205662E-17	5.615597E-18
6.730000E+03	4.177641E-17	5.586641E-18
6.740000E+03	4.149564E-17	5.556589E-18
6.750000E+03	4.121303E-17	5.525292E-18
6.760000E+03	4.093027E-17	5.492995E-18
6.770000E+03	4.064610E-17	5.459550E-18
6.780000E+03	4.036221E-17	5.425202E-18
6.790000E+03	4.007732E-17	5.389803E-18
6.800000E+03	3.979240E-17	5.353497E-18
6.810000E+03	3.950762E-17	5.316329E-18
6.820000E+03	3.922247E-17	5.278247E-18
6.830000E+03	3.893785E-17	5.239390E-18
6.840000E+03	3.865322E-17	5.199701E-18
6.850000E+03	3.836945E-17	5.159316E-18
6.860000E+03	3.808529E-17	5.118079E-18
6.870000E+03	3.780229E-17	5.076215E-18
6.880000E+03	3.751987E-17	5.033661E-18
6.890000E+03	3.723816E-17	4.990446E-18
6.900000E+03	3.695654E-17	4.946503E-18
6.910000E+03	3.667652E-17	4.902044E-18
6.920000E+03	3.639607E-17	4.856812E-18
6.930000E+03	3.611735E-17	4.811105E-18
6.940000E+03	3.583903E-17	4.764755E-18
6.950000E+03	3.556114E-17	4.717779E-18
6.960000E+03	3.528440E-17	4.670282E-18
6.970000E+03	3.500815E-17	4.622184E-18
6.980000E+03	3.473240E-17	4.573496E-18
6.990000E+03	3.445716E-17	4.524227E-18
7.000000E+03	3.418242E-17	4.474384E-18
7.010000E+03	3.390817E-17	4.423973E-18
7.020000E+03	3.363375E-17	4.372913E-18
7.030000E+03	3.336045E-17	4.321383E-18
7.040000E+03	3.308628E-17	4.269129E-18
7.050000E+03	3.281321E-17	4.216412E-18
7.060000E+03	3.253926E-17	4.162983E-18
7.070000E+03	3.226572E-17	4.109015E-18
7.080000E+03	3.199194E-17	4.054432E-18
7.090000E+03	3.171793E-17	3.999240E-18
7.100000E+03	3.144434E-17	3.943527E-18
7.110000E+03	3.116990E-17	3.887142E-18
7.120000E+03	3.089530E-17	3.830176E-18
7.130000E+03	3.061994E-17	3.772565E-18
7.140000E+03	3.034452E-17	3.714399E-18
7.150000E+03	3.006908E-17	3.655695E-18
7.160000E+03	2.979311E-17	3.596395E-18
7.170000E+03	2.951731E-17	3.536593E-18
7.180000E+03	2.924059E-17	3.476168E-18
7.190000E+03	2.896429E-17	3.415288E-18
7.200000E+03	2.868794E-17	3.353909E-18
7.210000E+03	2.841114E-17	3.291994E-18
7.220000E+03	2.813465E-17	3.229643E-18
7.230000E+03	2.785867E-17	3.166889E-18
7.240000E+03	2.758283E-17	3.103705E-18
7.250000E+03	2.730737E-17	3.040130E-18
7.260000E+03	2.703254E-17	2.976207E-18
7.270000E+03	2.675861E-17	2.911979E-18
7.280000E+03	2.648583E-17	2.847491E-18
7.290000E+03	2.621341E-17	2.782675E-18
7.300000E+03	2.594274E-17	2.717698E-18
7.310000E+03	2.567358E-17	2.652555E-18
7.320000E+03	2.540572E-17	2.587246E-18
7.330000E+03	2.514002E-17	2.521882E-18
7.340000E+03	2.487575E-17	2.456418E-18
7.350000E+03	2.461328E-17	2.390918E-18
7.360000E+03	2.435296E-17	2.325451E-18
7.370000E+03	2.409462E-17	2.260039E-18
7.380000E+03	2.383914E-17	2.194802E-18
7.390000E+03	2.358536E-17	2.129680E-18
7.400000E+03	2.333464E-17	2.064849E-18
7.410000E+03	2.308636E-17	2.000310E-18
7.420000E+03	2.284137E-17	1.936200E-18
7.430000E+03	2.259953E-17	1.872579E-18
7.440000E+03	2.236118E-17	1.809556E-18
7.450000E+03	2.212716E-17	1.747287E-18
7.460000E+03	2.189730E-17	1.685859E-18
7.470000E+03	2.167335E-17	1.625515E-18
7.480000E+03	2.145468E-17	1.566330E-18
7.490000E+03	2.124253E-17	1.508535E-18
7.500000E+03	2.103673E-17	1.452275E-18
7.510000E+03	2.083896E-17	1.397842E-18
7.520000E+03	2.064907E-17	1.345425E-18
7.530000E+03	2.046737E-17	1.295271E-18
7.540000E+03	2.029464E-17	1.247682E-18
7.550000E+03	2.013123E-17	1.202965E-18
7.560000E+03	1.997839E-17	1.161504E-18
7.570000E+03	1.983564E-17	1.123609E-18
7.580000E+03	1.970383E-17	1.089689E-18
7.590000E+03	1.958385E-17	1.060163E-18
7.600000E+03	1.947572E-17	1.035397E-18
7.610000E+03	1.938032E-17	1.015781E-18
7.620000E+03	1.929763E-17	1.001605E-18
7.630000E+03	1.922879E-17	9.931482E-19
7.640000E+03	1.917303E-17	9.904849E-19
7.650000E+03	1.913106E-17	9.936494E-19
7.660000E+03	1.910158E-17	1.002452E-18
7.670000E+03	1.908484E-17	1.016677E-18
7.680000E+03	1.907923E-17	1.035928E-18
7.690000E+03	1.908479E-17	1.059844E-18
7.700000E+03	1.910028E-17	1.087968E-18
7.710000E+03	1.912492E-17	1.119857E-18
7.720000E+03	1.915795E-17	1.155084E-18
7.730000E+03	1.919869E-17	1.193242E-18
7.740000E+03	1.924647E-17	1.233957E-18
7.750000E+03	1.930024E-17	1.276854E-18
7.760000E+03	1.936032E-17	1.321684E-18
