#wls	flux	fluxerr
1.600000E+03	8.002634E-19	5.832131E-19
1.640000E+03	7.982641E-19	5.738186E-19
1.680000E+03	7.983972E-19	5.657526E-19
1.720000E+03	8.007062E-19	5.589761E-19
1.760000E+03	8.053230E-19	5.535057E-19
1.800000E+03	8.124611E-19	5.494035E-19
1.840000E+03	8.220798E-19	5.465490E-19
1.880000E+03	8.345056E-19	5.450589E-19
1.920000E+03	8.498906E-19	5.449182E-19
1.960000E+03	8.684275E-19	5.461248E-19
2.000000E+03	8.902941E-19	5.486522E-19
2.040000E+03	9.157856E-19	5.525299E-19
2.080000E+03	9.451389E-19	5.577314E-19
2.120000E+03	9.785480E-19	5.641859E-19
2.160000E+03	1.016471E-18	5.719537E-19
2.200000E+03	1.059226E-18	5.809840E-19
2.240000E+03	1.107297E-18	5.912900E-19
2.280000E+03	1.161413E-18	6.029732E-19
2.320000E+03	1.222567E-18	6.162165E-19
2.360000E+03	1.292120E-18	6.313106E-19
2.400000E+03	1.371735E-18	6.485923E-19
2.440000E+03	1.463386E-18	6.684206E-19
2.480000E+03	1.569639E-18	6.912715E-19
2.520000E+03	1.693391E-18	7.175726E-19
2.560000E+03	1.838333E-18	7.478593E-19
2.600000E+03	2.008798E-18	7.826418E-19
2.640000E+03	2.210269E-18	8.225311E-19
2.680000E+03	2.449467E-18	8.681623E-19
2.720000E+03	2.734891E-18	9.202606E-19
2.760000E+03	3.077368E-18	9.796474E-19
2.800000E+03	3.490681E-18	1.047212E-18
2.840000E+03	3.992626E-18	1.123935E-18
2.880000E+03	4.606595E-18	1.210933E-18
2.920000E+03	5.362995E-18	1.309293E-18
2.960000E+03	6.302738E-18	1.420230E-18
3.000000E+03	7.479883E-18	1.544695E-18
3.010000E+03	7.819534E-18	1.578057E-18
3.020000E+03	8.179723E-18	1.612291E-18
3.030000E+03	8.561890E-18	1.647394E-18
3.040000E+03	8.967987E-18	1.683433E-18
3.050000E+03	9.399524E-18	1.720362E-18
3.060000E+03	9.858335E-18	1.758163E-18
3.070000E+03	1.034662E-17	1.796855E-18
3.080000E+03	1.086632E-17	1.836371E-18
3.090000E+03	1.141974E-17	1.876674E-18
3.100000E+03	1.200988E-17	1.917798E-18
3.110000E+03	1.263900E-17	1.959611E-18
3.120000E+03	1.331028E-17	2.002085E-18
3.130000E+03	1.402667E-17	2.045102E-18
3.140000E+03	1.479246E-17	2.088691E-18
3.150000E+03	1.561058E-17	2.132621E-18
3.160000E+03	1.648538E-17	2.176804E-18
3.170000E+03	1.742161E-17	2.221134E-18
3.180000E+03	1.842407E-17	2.265441E-18
3.190000E+03	1.949729E-17	2.309442E-18
3.200000E+03	2.064795E-17	2.353042E-18
3.210000E+03	2.188146E-17	2.395895E-18
3.220000E+03	2.320480E-17	2.437754E-18
3.230000E+03	2.462474E-17	2.478242E-18
3.240000E+03	2.614945E-17	2.517029E-18
3.250000E+03	2.778734E-17	2.553692E-18
3.260000E+03	2.954753E-17	2.587759E-18
3.270000E+03	3.143929E-17	2.618658E-18
3.280000E+03	3.347372E-17	2.645846E-18
3.290000E+03	3.566223E-17	2.668674E-18
3.300000E+03	3.801648E-17	2.686386E-18
3.310000E+03	4.055023E-17	2.698247E-18
3.320000E+03	4.327693E-17	2.703375E-18
3.330000E+03	4.621228E-17	2.700920E-18
3.340000E+03	4.937161E-17	2.689901E-18
3.350000E+03	5.277186E-17	2.669365E-18
3.360000E+03	5.643094E-17	2.638377E-18
3.370000E+03	6.036764E-17	2.596082E-18
3.380000E+03	6.460159E-17	2.541804E-18
3.390000E+03	6.915208E-17	2.475159E-18
3.400000E+03	7.404084E-17	2.396409E-18
3.410000E+03	7.928668E-17	2.306651E-18
3.420000E+03	8.491265E-17	2.208635E-18
3.430000E+03	9.093675E-17	2.107359E-18
3.440000E+03	9.737815E-17	2.011454E-18
3.450000E+03	1.042544E-16	1.934456E-18
3.460000E+03	1.115795E-16	1.895474E-18
3.470000E+03	1.193671E-16	1.917572E-18
3.480000E+03	1.276251E-16	2.021986E-18
3.490000E+03	1.363588E-16	2.220502E-18
3.500000E+03	1.455727E-16	2.512796E-18
3.510000E+03	1.552658E-16	2.890570E-18
3.520000E+03	1.654363E-16	3.343051E-18
3.530000E+03	1.760694E-16	3.859912E-18
3.540000E+03	1.871531E-16	4.432526E-18
3.550000E+03	1.986664E-16	5.053608E-18
3.560000E+03	2.105856E-16	5.716946E-18
3.570000E+03	2.228774E-16	6.416823E-18
3.580000E+03	2.355064E-16	7.147910E-18
3.590000E+03	2.484392E-16	7.905217E-18
3.600000E+03	2.616283E-16	8.683472E-18
3.610000E+03	2.750350E-16	9.477784E-18
3.620000E+03	2.886134E-16	1.028310E-17
3.630000E+03	3.023130E-16	1.109427E-17
3.640000E+03	3.160861E-16	1.190632E-17
3.650000E+03	3.298890E-16	1.271451E-17
3.660000E+03	3.436722E-16	1.351403E-17
3.670000E+03	3.573992E-16	1.430066E-17
3.680000E+03	3.710210E-16	1.506989E-17
3.690000E+03	3.845032E-16	1.581791E-17
3.700000E+03	3.978109E-16	1.654107E-17
3.710000E+03	4.109173E-16	1.723624E-17
3.720000E+03	4.237915E-16	1.790025E-17
3.730000E+03	4.364145E-16	1.853060E-17
3.740000E+03	4.487671E-16	1.912498E-17
3.750000E+03	4.608377E-16	1.968152E-17
3.760000E+03	4.726130E-16	2.019846E-17
3.770000E+03	4.840864E-16	2.067451E-17
3.780000E+03	4.952481E-16	2.110839E-17
3.790000E+03	5.060885E-16	2.149902E-17
3.800000E+03	5.166128E-16	2.184613E-17
3.810000E+03	5.268005E-16	2.214853E-17
3.820000E+03	5.366491E-16	2.240605E-17
3.830000E+03	5.461544E-16	2.261859E-17
3.840000E+03	5.552937E-16	2.278555E-17
3.850000E+03	5.640514E-16	2.290683E-17
3.860000E+03	5.724140E-16	2.298268E-17
3.870000E+03	5.803595E-16	2.301323E-17
3.880000E+03	5.878623E-16	2.299874E-17
3.890000E+03	5.948885E-16	2.293945E-17
3.900000E+03	6.014123E-16	2.283619E-17
3.910000E+03	6.074006E-16	2.268981E-17
3.920000E+03	6.128189E-16	2.250144E-17
3.930000E+03	6.176320E-16	2.227251E-17
3.940000E+03	6.218052E-16	2.200481E-17
3.950000E+03	6.253108E-16	2.170071E-17
3.960000E+03	6.281176E-16	2.136278E-17
3.970000E+03	6.301918E-16	2.099384E-17
3.980000E+03	6.315209E-16	2.059771E-17
3.990000E+03	6.320804E-16	2.017802E-17
4.000000E+03	6.318626E-16	1.973917E-17
4.010000E+03	6.308609E-16	1.928562E-17
4.020000E+03	6.290708E-16	1.882182E-17
4.030000E+03	6.265173E-16	1.835247E-17
4.040000E+03	6.232272E-16	1.788109E-17
4.050000E+03	6.192505E-16	1.741105E-17
4.060000E+03	6.146397E-16	1.694501E-17
4.070000E+03	6.094547E-16	1.648483E-17
4.080000E+03	6.037604E-16	1.603194E-17
4.090000E+03	5.976281E-16	1.558769E-17
4.100000E+03	5.911173E-16	1.515275E-17
4.110000E+03	5.842921E-16	1.472791E-17
4.120000E+03	5.772252E-16	1.431431E-17
4.130000E+03	5.699660E-16	1.391259E-17
4.140000E+03	5.625766E-16	1.352390E-17
4.150000E+03	5.551115E-16	1.314937E-17
4.160000E+03	5.476219E-16	1.278988E-17
4.170000E+03	5.401561E-16	1.244640E-17
4.180000E+03	5.327595E-16	1.212009E-17
4.190000E+03	5.254750E-16	1.181200E-17
4.200000E+03	5.183425E-16	1.152328E-17
4.210000E+03	5.113996E-16	1.125494E-17
4.220000E+03	5.046820E-16	1.100742E-17
4.230000E+03	4.982189E-16	1.078080E-17
4.240000E+03	4.920429E-16	1.057488E-17
4.250000E+03	4.861907E-16	1.038887E-17
4.260000E+03	4.806940E-16	1.022151E-17
4.270000E+03	4.755761E-16	1.007107E-17
4.280000E+03	4.708734E-16	9.935622E-18
4.290000E+03	4.666180E-16	9.813019E-18
4.300000E+03	4.628412E-16	9.701275E-18
4.310000E+03	4.595742E-16	9.598478E-18
4.320000E+03	4.568427E-16	9.502958E-18
4.330000E+03	4.546834E-16	9.413758E-18
4.340000E+03	4.531151E-16	9.330004E-18
4.350000E+03	4.521712E-16	9.251631E-18
4.360000E+03	4.518753E-16	9.178801E-18
4.370000E+03	4.522528E-16	9.111973E-18
4.380000E+03	4.533229E-16	9.051795E-18
4.390000E+03	4.551059E-16	8.999027E-18
4.400000E+03	4.576136E-16	8.953978E-18
4.410000E+03	4.608620E-16	8.917054E-18
4.420000E+03	4.648536E-16	8.888412E-18
4.430000E+03	4.695840E-16	8.867737E-18
4.440000E+03	4.750498E-16	8.854763E-18
4.450000E+03	4.812304E-16	8.848905E-18
4.460000E+03	4.880970E-16	8.849045E-18
4.470000E+03	4.956136E-16	8.853973E-18
4.480000E+03	5.037172E-16	8.862179E-18
4.490000E+03	5.123418E-16	8.872021E-18
4.500000E+03	5.214013E-16	8.881763E-18
4.510000E+03	5.307889E-16	8.889590E-18
4.520000E+03	5.403857E-16	8.893465E-18
4.530000E+03	5.500570E-16	8.891626E-18
4.540000E+03	5.596554E-16	8.882847E-18
4.550000E+03	5.690232E-16	8.866265E-18
4.560000E+03	5.779892E-16	8.841803E-18
4.570000E+03	5.863791E-16	8.810150E-18
4.580000E+03	5.940409E-16	8.772318E-18
4.590000E+03	6.008076E-16	8.729426E-18
4.600000E+03	6.065327E-16	8.682665E-18
4.610000E+03	6.111089E-16	8.632255E-18
4.620000E+03	6.144476E-16	8.577834E-18
4.630000E+03	6.164712E-16	8.518015E-18
4.640000E+03	6.171786E-16	8.450124E-18
4.650000E+03	6.165568E-16	8.370741E-18
4.660000E+03	6.146529E-16	8.277591E-18
4.670000E+03	6.115239E-16	8.168414E-18
4.680000E+03	6.072461E-16	8.042317E-18
4.690000E+03	6.019080E-16	7.899979E-18
4.700000E+03	5.956093E-16	7.742863E-18
4.710000E+03	5.884681E-16	7.573506E-18
4.720000E+03	5.805909E-16	7.394025E-18
4.730000E+03	5.720968E-16	7.204784E-18
4.740000E+03	5.631103E-16	7.005855E-18
4.750000E+03	5.537347E-16	6.797582E-18
4.760000E+03	5.440968E-16	6.580877E-18
4.770000E+03	5.342810E-16	6.357121E-18
4.780000E+03	5.243894E-16	6.128824E-18
4.790000E+03	5.145070E-16	5.898597E-18
4.800000E+03	5.046957E-16	5.670233E-18
4.810000E+03	4.950161E-16	5.449340E-18
4.820000E+03	4.855127E-16	5.242629E-18
4.830000E+03	4.762019E-16	5.058121E-18
4.840000E+03	4.671067E-16	4.904817E-18
4.850000E+03	4.582425E-16	4.790358E-18
4.860000E+03	4.496341E-16	4.718480E-18
4.870000E+03	4.413345E-16	4.686800E-18
4.880000E+03	4.334154E-16	4.687372E-18
4.890000E+03	4.259431E-16	4.710263E-18
4.900000E+03	4.189842E-16	4.746210E-18
4.910000E+03	4.125742E-16	4.787069E-18
4.920000E+03	4.067461E-16	4.827141E-18
4.930000E+03	4.015153E-16	4.862839E-18
4.940000E+03	3.968807E-16	4.891752E-18
4.950000E+03	3.928396E-16	4.913007E-18
4.960000E+03	3.893746E-16	4.926694E-18
4.970000E+03	3.864724E-16	4.933168E-18
4.980000E+03	3.841093E-16	4.933269E-18
4.990000E+03	3.822665E-16	4.928457E-18
5.000000E+03	3.809257E-16	4.920198E-18
5.010000E+03	3.800835E-16	4.910533E-18
5.020000E+03	3.797263E-16	4.901672E-18
5.030000E+03	3.798575E-16	4.895822E-18
5.040000E+03	3.804900E-16	4.895478E-18
5.050000E+03	3.816336E-16	4.902843E-18
5.060000E+03	3.833101E-16	4.919003E-18
5.070000E+03	3.855439E-16	4.944523E-18
5.080000E+03	3.883554E-16	4.979102E-18
5.090000E+03	3.917535E-16	5.020386E-18
5.100000E+03	3.957443E-16	5.065429E-18
5.110000E+03	4.003294E-16	5.111657E-18
5.120000E+03	4.054866E-16	5.156658E-18
5.130000E+03	4.112000E-16	5.199142E-18
5.140000E+03	4.174223E-16	5.238474E-18
5.150000E+03	4.241122E-16	5.274681E-18
5.160000E+03	4.312042E-16	5.308655E-18
5.170000E+03	4.386263E-16	5.341901E-18
5.180000E+03	4.462957E-16	5.375174E-18
5.190000E+03	4.541152E-16	5.409505E-18
5.200000E+03	4.619858E-16	5.446236E-18
5.210000E+03	4.698027E-16	5.485554E-18
5.220000E+03	4.774734E-16	5.527956E-18
5.230000E+03	4.848817E-16	5.574322E-18
5.240000E+03	4.919359E-16	5.625696E-18
5.250000E+03	4.985453E-16	5.683377E-18
5.260000E+03	5.046281E-16	5.748107E-18
5.270000E+03	5.101075E-16	5.818199E-18
5.280000E+03	5.149357E-16	5.890891E-18
5.290000E+03	5.190696E-16	5.962305E-18
5.300000E+03	5.224915E-16	6.026876E-18
5.310000E+03	5.251944E-16	6.078753E-18
5.320000E+03	5.271960E-16	6.112981E-18
5.330000E+03	5.285138E-16	6.125146E-18
5.340000E+03	5.291875E-16	6.112780E-18
5.350000E+03	5.292612E-16	6.075494E-18
5.360000E+03	5.287997E-16	6.014670E-18
5.370000E+03	5.278520E-16	5.933670E-18
5.380000E+03	5.264901E-16	5.838146E-18
5.390000E+03	5.247746E-16	5.734731E-18
5.400000E+03	5.227550E-16	5.631180E-18
5.410000E+03	5.204479E-16	5.534969E-18
5.420000E+03	5.178469E-16	5.451211E-18
5.430000E+03	5.149013E-16	5.382633E-18
5.440000E+03	5.115145E-16	5.329355E-18
5.450000E+03	5.076145E-16	5.288856E-18
5.460000E+03	5.031198E-16	5.258169E-18
5.470000E+03	4.979730E-16	5.234805E-18
5.480000E+03	4.921693E-16	5.215736E-18
5.490000E+03	4.857012E-16	5.198663E-18
5.500000E+03	4.785966E-16	5.182382E-18
5.510000E+03	4.708969E-16	5.164803E-18
5.520000E+03	4.626706E-16	5.144405E-18
5.530000E+03	4.539712E-16	5.119456E-18
5.540000E+03	4.448802E-16	5.086869E-18
5.550000E+03	4.354763E-16	5.043734E-18
5.560000E+03	4.258549E-16	4.988508E-18
5.570000E+03	4.160974E-16	4.920256E-18
5.580000E+03	4.062959E-16	4.839654E-18
5.590000E+03	3.965390E-16	4.748902E-18
5.600000E+03	3.869248E-16	4.651254E-18
5.610000E+03	3.775384E-16	4.550828E-18
5.620000E+03	3.684746E-16	4.451947E-18
5.630000E+03	3.598346E-16	4.357762E-18
5.640000E+03	3.517134E-16	4.271033E-18
5.650000E+03	3.442031E-16	4.194199E-18
5.660000E+03	3.373830E-16	4.128429E-18
5.670000E+03	3.313297E-16	4.074482E-18
5.680000E+03	3.261054E-16	4.032718E-18
5.690000E+03	3.217528E-16	4.002546E-18
5.700000E+03	3.183013E-16	3.983013E-18
5.710000E+03	3.157660E-16	3.972929E-18
5.720000E+03	3.141536E-16	3.970618E-18
5.730000E+03	3.134454E-16	3.974196E-18
5.740000E+03	3.136264E-16	3.982038E-18
5.750000E+03	3.146623E-16	3.992232E-18
5.760000E+03	3.165065E-16	4.003113E-18
5.770000E+03	3.191105E-16	4.013508E-18
5.780000E+03	3.224169E-16	4.022399E-18
5.790000E+03	3.263521E-16	4.029371E-18
5.800000E+03	3.308374E-16	4.034906E-18
5.810000E+03	3.357928E-16	4.040171E-18
5.820000E+03	3.411145E-16	4.047125E-18
5.830000E+03	3.467019E-16	4.058207E-18
5.840000E+03	3.524455E-16	4.074847E-18
5.850000E+03	3.582302E-16	4.098264E-18
5.860000E+03	3.639459E-16	4.128712E-18
5.870000E+03	3.694818E-16	4.163323E-18
5.880000E+03	3.747494E-16	4.198433E-18
5.890000E+03	3.796537E-16	4.230564E-18
5.900000E+03	3.841175E-16	4.256290E-18
5.910000E+03	3.880727E-16	4.273365E-18
5.920000E+03	3.914596E-16	4.280942E-18
5.930000E+03	3.942380E-16	4.278774E-18
5.940000E+03	3.963635E-16	4.267744E-18
5.950000E+03	3.978083E-16	4.249811E-18
5.960000E+03	3.985600E-16	4.226698E-18
5.970000E+03	3.986087E-16	4.200324E-18
5.980000E+03	3.979414E-16	4.171939E-18
5.990000E+03	3.965721E-16	4.140710E-18
6.000000E+03	3.944987E-16	4.105025E-18
6.010000E+03	3.917538E-16	4.063628E-18
6.020000E+03	3.883531E-16	4.014181E-18
6.030000E+03	3.843336E-16	3.955238E-18
6.040000E+03	3.797455E-16	3.886563E-18
6.050000E+03	3.746403E-16	3.808084E-18
6.060000E+03	3.690823E-16	3.720580E-18
6.070000E+03	3.631385E-16	3.624622E-18
6.080000E+03	3.569104E-16	3.519189E-18
6.090000E+03	3.504840E-16	3.403108E-18
6.100000E+03	3.439651E-16	3.276548E-18
6.110000E+03	3.374431E-16	3.140358E-18
6.120000E+03	3.309985E-16	2.996609E-18
6.130000E+03	3.247009E-16	2.847504E-18
6.140000E+03	3.186051E-16	2.693759E-18
6.150000E+03	3.127382E-16	2.536949E-18
6.160000E+03	3.071109E-16	2.381508E-18
6.170000E+03	3.017214E-16	2.235208E-18
6.180000E+03	2.965401E-16	2.109439E-18
6.190000E+03	2.915453E-16	2.017779E-18
6.200000E+03	2.867216E-16	1.971062E-18
6.210000E+03	2.820816E-16	1.972108E-18
6.220000E+03	2.776556E-16	2.012974E-18
6.230000E+03	2.734759E-16	2.078262E-18
6.240000E+03	2.695744E-16	2.153287E-18
6.250000E+03	2.659732E-16	2.228210E-18
6.260000E+03	2.626940E-16	2.298171E-18
6.270000E+03	2.597480E-16	2.362384E-18
6.280000E+03	2.571411E-16	2.421981E-18
6.290000E+03	2.548648E-16	2.477537E-18
6.300000E+03	2.529032E-16	2.530002E-18
6.310000E+03	2.512381E-16	2.580621E-18
6.320000E+03	2.498448E-16	2.629574E-18
6.330000E+03	2.486876E-16	2.676759E-18
6.340000E+03	2.477362E-16	2.722359E-18
6.350000E+03	2.469597E-16	2.766407E-18
6.360000E+03	2.463208E-16	2.808931E-18
6.370000E+03	2.457944E-16	2.850113E-18
6.380000E+03	2.453518E-16	2.889758E-18
6.390000E+03	2.449678E-16	2.927813E-18
6.400000E+03	2.446214E-16	2.964293E-18
6.410000E+03	2.443045E-16	2.998884E-18
6.420000E+03	2.440031E-16	3.031292E-18
6.430000E+03	2.437181E-16	3.061640E-18
6.440000E+03	2.434487E-16	3.089866E-18
6.450000E+03	2.431981E-16	3.116142E-18
6.460000E+03	2.429754E-16	3.140660E-18
6.470000E+03	2.427881E-16	3.162874E-18
6.480000E+03	2.426489E-16	3.182310E-18
6.490000E+03	2.425593E-16	3.198701E-18
6.500000E+03	2.425338E-16	3.212071E-18
6.510000E+03	2.425786E-16	3.222799E-18
6.520000E+03	2.426940E-16	3.231727E-18
6.530000E+03	2.428843E-16	3.240025E-18
6.540000E+03	2.431475E-16	3.249176E-18
6.550000E+03	2.434788E-16	3.260695E-18
6.560000E+03	2.438692E-16	3.275503E-18
6.570000E+03	2.443108E-16	3.294394E-18
6.580000E+03	2.447868E-16	3.317703E-18
6.590000E+03	2.452841E-16	3.344781E-18
6.600000E+03	2.457927E-16	3.374702E-18
6.610000E+03	2.462994E-16	3.406482E-18
6.620000E+03	2.467881E-16	3.438791E-18
6.630000E+03	2.472515E-16	3.470517E-18
6.640000E+03	2.476741E-16	3.500642E-18
6.650000E+03	2.480532E-16	3.528319E-18
6.660000E+03	2.483695E-16	3.552699E-18
6.670000E+03	2.486113E-16	3.573312E-18
6.680000E+03	2.487701E-16	3.589799E-18
6.690000E+03	2.488330E-16	3.601993E-18
6.700000E+03	2.487824E-16	3.609755E-18
6.710000E+03	2.486038E-16	3.612711E-18
6.720000E+03	2.482879E-16	3.610718E-18
6.730000E+03	2.478187E-16	3.603925E-18
6.740000E+03	2.471921E-16	3.592879E-18
6.750000E+03	2.463940E-16	3.578340E-18
6.760000E+03	2.454323E-16	3.561494E-18
6.770000E+03	2.443024E-16	3.542996E-18
6.780000E+03	2.430216E-16	3.523732E-18
6.790000E+03	2.415928E-16	3.504164E-18
6.800000E+03	2.400348E-16	3.484341E-18
6.810000E+03	2.383646E-16	3.464086E-18
6.820000E+03	2.365962E-16	3.443116E-18
6.830000E+03	2.347535E-16	3.420964E-18
6.840000E+03	2.328523E-16	3.397144E-18
6.850000E+03	2.309175E-16	3.371580E-18
6.860000E+03	2.289610E-16	3.344143E-18
6.870000E+03	2.270117E-16	3.315225E-18
6.880000E+03	2.250847E-16	3.285232E-18
6.890000E+03	2.231982E-16	3.254591E-18
6.900000E+03	2.213646E-16	3.223710E-18
6.910000E+03	2.196062E-16	3.193011E-18
6.920000E+03	2.179205E-16	3.162079E-18
6.930000E+03	2.163275E-16	3.130756E-18
6.940000E+03	2.148240E-16	3.098681E-18
6.950000E+03	2.134128E-16	3.065609E-18
6.960000E+03	2.120988E-16	3.031640E-18
6.970000E+03	2.108772E-16	2.997080E-18
6.980000E+03	2.097454E-16	2.962408E-18
6.990000E+03	2.086991E-16	2.928425E-18
7.000000E+03	2.077330E-16	2.896048E-18
7.010000E+03	2.068403E-16	2.865832E-18
7.020000E+03	2.060095E-16	2.838260E-18
7.030000E+03	2.052409E-16	2.813874E-18
7.040000E+03	2.045151E-16	2.792334E-18
7.050000E+03	2.038371E-16	2.773457E-18
7.060000E+03	2.031877E-16	2.756583E-18
7.070000E+03	2.025694E-16	2.740848E-18
7.080000E+03	2.019732E-16	2.725264E-18
7.090000E+03	2.013944E-16	2.709271E-18
7.100000E+03	2.008330E-16	2.692712E-18
7.110000E+03	2.002776E-16	2.675813E-18
7.120000E+03	1.997290E-16	2.659448E-18
7.130000E+03	1.991804E-16	2.644584E-18
7.140000E+03	1.986328E-16	2.632508E-18
7.150000E+03	1.980827E-16	2.624176E-18
7.160000E+03	1.975213E-16	2.619526E-18
7.170000E+03	1.969470E-16	2.618138E-18
7.180000E+03	1.963448E-16	2.618999E-18
7.190000E+03	1.957134E-16	2.620422E-18
7.200000E+03	1.950388E-16	2.620438E-18
7.210000E+03	1.943071E-16	2.617482E-18
7.220000E+03	1.935127E-16	2.610538E-18
7.230000E+03	1.926468E-16	2.599136E-18
7.240000E+03	1.916981E-16	2.583361E-18
7.250000E+03	1.906603E-16	2.563810E-18
7.260000E+03	1.895284E-16	2.541547E-18
7.270000E+03	1.882997E-16	2.517695E-18
7.280000E+03	1.869726E-16	2.492887E-18
7.290000E+03	1.855402E-16	2.467608E-18
7.300000E+03	1.840140E-16	2.442566E-18
7.310000E+03	1.823980E-16	2.417964E-18
7.320000E+03	1.806993E-16	2.394064E-18
7.330000E+03	1.789340E-16	2.371208E-18
7.340000E+03	1.771087E-16	2.349078E-18
7.350000E+03	1.752385E-16	2.327473E-18
7.360000E+03	1.733385E-16	2.306344E-18
7.370000E+03	1.714197E-16	2.285434E-18
7.380000E+03	1.694996E-16	2.264690E-18
7.390000E+03	1.675812E-16	2.244049E-18
7.400000E+03	1.656843E-16	2.223702E-18
7.410000E+03	1.638140E-16	2.203823E-18
7.420000E+03	1.619855E-16	2.184919E-18
7.430000E+03	1.602077E-16	2.167414E-18
7.440000E+03	1.584924E-16	2.151789E-18
7.450000E+03	1.568549E-16	2.138292E-18
7.460000E+03	1.553047E-16	2.126410E-18
7.470000E+03	1.538638E-16	2.115461E-18
7.480000E+03	1.525361E-16	2.104342E-18
7.490000E+03	1.513369E-16	2.091831E-18
7.500000E+03	1.502689E-16	2.076538E-18
7.510000E+03	1.493452E-16	2.057191E-18
7.520000E+03	1.485610E-16	2.032050E-18
7.530000E+03	1.479117E-16	1.999538E-18
7.540000E+03	1.473925E-16	1.958517E-18
7.550000E+03	1.469922E-16	1.908263E-18
7.560000E+03	1.467027E-16	1.848779E-18
7.570000E+03	1.464991E-16	1.780709E-18
7.580000E+03	1.463624E-16	1.705793E-18
7.590000E+03	1.462702E-16	1.627197E-18
7.600000E+03	1.461898E-16	1.549796E-18
7.610000E+03	1.460902E-16	1.480454E-18
7.620000E+03	1.459328E-16	1.427948E-18
7.630000E+03	1.456925E-16	1.402021E-18
7.640000E+03	1.453389E-16	1.410223E-18
7.650000E+03	1.448670E-16	1.454617E-18
7.660000E+03	1.442719E-16	1.530631E-18
7.670000E+03	1.435697E-16	1.630027E-18
7.680000E+03	1.427683E-16	1.743949E-18
7.690000E+03	1.418901E-16	1.864988E-18
7.700000E+03	1.409471E-16	1.987348E-18
7.710000E+03	1.399542E-16	2.106991E-18
7.720000E+03	1.389254E-16	2.221319E-18
7.730000E+03	1.378740E-16	2.328794E-18
7.740000E+03	1.368121E-16	2.428682E-18
7.750000E+03	1.357473E-16	2.520720E-18
7.760000E+03	1.346947E-16	2.605088E-18
