#wls	flux	fluxerr
1.600000E+03	9.033740E-19	6.586976E-19
1.640000E+03	9.002539E-19	6.475004E-19
1.680000E+03	8.994869E-19	6.377845E-19
1.720000E+03	9.012937E-19	6.296290E-19
1.760000E+03	9.056491E-19	6.229301E-19
1.800000E+03	9.127996E-19	6.177649E-19
1.840000E+03	9.228463E-19	6.140981E-19
1.880000E+03	9.360744E-19	6.120052E-19
1.920000E+03	9.527182E-19	6.115105E-19
1.960000E+03	9.730506E-19	6.126451E-19
2.000000E+03	9.972474E-19	6.153608E-19
2.040000E+03	1.025690E-18	6.197178E-19
2.080000E+03	1.058756E-18	6.257463E-19
2.120000E+03	1.096695E-18	6.333752E-19
2.160000E+03	1.139856E-18	6.425672E-19
2.200000E+03	1.188490E-18	6.532031E-19
2.240000E+03	1.242903E-18	6.651688E-19
2.280000E+03	1.303809E-18	6.785354E-19
2.320000E+03	1.372215E-18	6.934692E-19
2.360000E+03	1.450024E-18	7.105039E-19
2.400000E+03	1.539346E-18	7.301397E-19
2.440000E+03	1.642578E-18	7.528590E-19
2.480000E+03	1.762725E-18	7.792401E-19
2.520000E+03	1.903164E-18	8.098010E-19
2.560000E+03	2.067855E-18	8.450473E-19
2.600000E+03	2.261941E-18	8.856505E-19
2.640000E+03	2.491349E-18	9.321911E-19
2.680000E+03	2.763689E-18	9.854004E-19
2.720000E+03	3.088134E-18	1.045964E-18
2.760000E+03	3.476617E-18	1.114754E-18
2.800000E+03	3.943866E-18	1.192590E-18
2.840000E+03	4.508973E-18	1.280412E-18
2.880000E+03	5.196654E-18	1.379222E-18
2.920000E+03	6.039235E-18	1.490049E-18
2.960000E+03	7.079407E-18	1.613889E-18
3.000000E+03	8.373872E-18	1.751535E-18
3.010000E+03	8.745494E-18	1.788137E-18
3.020000E+03	9.139087E-18	1.825636E-18
3.030000E+03	9.555907E-18	1.863976E-18
3.040000E+03	9.997943E-18	1.903215E-18
3.050000E+03	1.046668E-17	1.943284E-18
3.060000E+03	1.096394E-17	1.984149E-18
3.070000E+03	1.149167E-17	2.025765E-18
3.080000E+03	1.205247E-17	2.068166E-18
3.090000E+03	1.264812E-17	2.111204E-18
3.100000E+03	1.328159E-17	2.154893E-18
3.110000E+03	1.395527E-17	2.199102E-18
3.120000E+03	1.467227E-17	2.243777E-18
3.130000E+03	1.543570E-17	2.288801E-18
3.140000E+03	1.624885E-17	2.334041E-18
3.150000E+03	1.711530E-17	2.379343E-18
3.160000E+03	1.803923E-17	2.424577E-18
3.170000E+03	1.902446E-17	2.469496E-18
3.180000E+03	2.007580E-17	2.513919E-18
3.190000E+03	2.119807E-17	2.557586E-18
3.200000E+03	2.239647E-17	2.600208E-18
3.210000E+03	2.367699E-17	2.641501E-18
3.220000E+03	2.504482E-17	2.681003E-18
3.230000E+03	2.650771E-17	2.718440E-18
3.240000E+03	2.807129E-17	2.753210E-18
3.250000E+03	2.974442E-17	2.784938E-18
3.260000E+03	3.153419E-17	2.812958E-18
3.270000E+03	3.344970E-17	2.836684E-18
3.280000E+03	3.550023E-17	2.855416E-18
3.290000E+03	3.769511E-17	2.868343E-18
3.300000E+03	4.004610E-17	2.874716E-18
3.310000E+03	4.256337E-17	2.873533E-18
3.320000E+03	4.525896E-17	2.863814E-18
3.330000E+03	4.814716E-17	2.844593E-18
3.340000E+03	5.124040E-17	2.814675E-18
3.350000E+03	5.455329E-17	2.772911E-18
3.360000E+03	5.810137E-17	2.718142E-18
3.370000E+03	6.190204E-17	2.649279E-18
3.380000E+03	6.597112E-17	2.565241E-18
3.390000E+03	7.032704E-17	2.465275E-18
3.400000E+03	7.499029E-17	2.349134E-18
3.410000E+03	7.998051E-17	2.217350E-18
3.420000E+03	8.531931E-17	2.071991E-18
3.430000E+03	9.102700E-17	1.917707E-18
3.440000E+03	9.712803E-17	1.763802E-18
3.450000E+03	1.036465E-16	1.627095E-18
3.460000E+03	1.106045E-16	1.535091E-18
3.470000E+03	1.180261E-16	1.524971E-18
3.480000E+03	1.259332E-16	1.630986E-18
3.490000E+03	1.343481E-16	1.866162E-18
3.500000E+03	1.432829E-16	2.220403E-18
3.510000E+03	1.527526E-16	2.675198E-18
3.520000E+03	1.627637E-16	3.214312E-18
3.530000E+03	1.733204E-16	3.826344E-18
3.540000E+03	1.844229E-16	4.503676E-18
3.550000E+03	1.960651E-16	5.240975E-18
3.560000E+03	2.082407E-16	6.034288E-18
3.570000E+03	2.209325E-16	6.880067E-18
3.580000E+03	2.341231E-16	7.775050E-18
3.590000E+03	2.477933E-16	8.715997E-18
3.600000E+03	2.619150E-16	9.699287E-18
3.610000E+03	2.764589E-16	1.072108E-17
3.620000E+03	2.913889E-16	1.177708E-17
3.630000E+03	3.066654E-16	1.286261E-17
3.640000E+03	3.222486E-16	1.397278E-17
3.650000E+03	3.380899E-16	1.510209E-17
3.660000E+03	3.541481E-16	1.624518E-17
3.670000E+03	3.703701E-16	1.739603E-17
3.680000E+03	3.867087E-16	1.854874E-17
3.690000E+03	4.031196E-16	1.969750E-17
3.700000E+03	4.195472E-16	2.083588E-17
3.710000E+03	4.359434E-16	2.195785E-17
3.720000E+03	4.522687E-16	2.305780E-17
3.730000E+03	4.684726E-16	2.412969E-17
3.740000E+03	4.845092E-16	2.516778E-17
3.750000E+03	5.003427E-16	2.616700E-17
3.760000E+03	5.159251E-16	2.712182E-17
3.770000E+03	5.312184E-16	2.802740E-17
3.780000E+03	5.461904E-16	2.887944E-17
3.790000E+03	5.608003E-16	2.967346E-17
3.800000E+03	5.750128E-16	3.040550E-17
3.810000E+03	5.887930E-16	3.107194E-17
3.820000E+03	6.021060E-16	3.166948E-17
3.830000E+03	6.149226E-16	3.219546E-17
3.840000E+03	6.272029E-16	3.264703E-17
3.850000E+03	6.389171E-16	3.302226E-17
3.860000E+03	6.500357E-16	3.331967E-17
3.870000E+03	6.605179E-16	3.353763E-17
3.880000E+03	6.703281E-16	3.367526E-17
3.890000E+03	6.794422E-16	3.373277E-17
3.900000E+03	6.878250E-16	3.371033E-17
3.910000E+03	6.954367E-16	3.360841E-17
3.920000E+03	7.022553E-16	3.342893E-17
3.930000E+03	7.082552E-16	3.317419E-17
3.940000E+03	7.133953E-16	3.284631E-17
3.950000E+03	7.176605E-16	3.244923E-17
3.960000E+03	7.210335E-16	3.198727E-17
3.970000E+03	7.234952E-16	3.146515E-17
3.980000E+03	7.250256E-16	3.088797E-17
3.990000E+03	7.256334E-16	3.026243E-17
4.000000E+03	7.253103E-16	2.959463E-17
4.010000E+03	7.240614E-16	2.889127E-17
4.020000E+03	7.219121E-16	2.815963E-17
4.030000E+03	7.188815E-16	2.740608E-17
4.040000E+03	7.150188E-16	2.663731E-17
4.050000E+03	7.103603E-16	2.585864E-17
4.060000E+03	7.049797E-16	2.507601E-17
4.070000E+03	6.989335E-16	2.429407E-17
4.080000E+03	6.922885E-16	2.351728E-17
4.090000E+03	6.851253E-16	2.275010E-17
4.100000E+03	6.775034E-16	2.199596E-17
4.110000E+03	6.695100E-16	2.125888E-17
4.120000E+03	6.612045E-16	2.054169E-17
4.130000E+03	6.526608E-16	1.984744E-17
4.140000E+03	6.439503E-16	1.917880E-17
4.150000E+03	6.351317E-16	1.853774E-17
4.160000E+03	6.262707E-16	1.792605E-17
4.170000E+03	6.174249E-16	1.734494E-17
4.180000E+03	6.086437E-16	1.679504E-17
4.190000E+03	5.999885E-16	1.627698E-17
4.200000E+03	5.914981E-16	1.579051E-17
4.210000E+03	5.832275E-16	1.533574E-17
4.220000E+03	5.752103E-16	1.491213E-17
4.230000E+03	5.674914E-16	1.451939E-17
4.240000E+03	5.601095E-16	1.415697E-17
4.250000E+03	5.530922E-16	1.382388E-17
4.260000E+03	5.464842E-16	1.351933E-17
4.270000E+03	5.403155E-16	1.324180E-17
4.280000E+03	5.346154E-16	1.298935E-17
4.290000E+03	5.294122E-16	1.275977E-17
4.300000E+03	5.247420E-16	1.255095E-17
4.310000E+03	5.206346E-16	1.236068E-17
4.320000E+03	5.171064E-16	1.218657E-17
4.330000E+03	5.141935E-16	1.202696E-17
4.340000E+03	5.119100E-16	1.187993E-17
4.350000E+03	5.102897E-16	1.174435E-17
4.360000E+03	5.093488E-16	1.161902E-17
4.370000E+03	5.091148E-16	1.150329E-17
4.380000E+03	5.096134E-16	1.139672E-17
4.390000E+03	5.108682E-16	1.129894E-17
4.400000E+03	5.128997E-16	1.120956E-17
4.410000E+03	5.157292E-16	1.112830E-17
4.420000E+03	5.193744E-16	1.105505E-17
4.430000E+03	5.238442E-16	1.098976E-17
4.440000E+03	5.291454E-16	1.093260E-17
4.450000E+03	5.352677E-16	1.088359E-17
4.460000E+03	5.422028E-16	1.084286E-17
4.470000E+03	5.499168E-16	1.081015E-17
4.480000E+03	5.583658E-16	1.078512E-17
4.490000E+03	5.674895E-16	1.076710E-17
4.500000E+03	5.772100E-16	1.075515E-17
4.510000E+03	5.874302E-16	1.074792E-17
4.520000E+03	5.980326E-16	1.074348E-17
4.530000E+03	6.088696E-16	1.073955E-17
4.540000E+03	6.197981E-16	1.073433E-17
4.550000E+03	6.306395E-16	1.072601E-17
4.560000E+03	6.412141E-16	1.071351E-17
4.570000E+03	6.513296E-16	1.069623E-17
4.580000E+03	6.608020E-16	1.067420E-17
4.590000E+03	6.694391E-16	1.064751E-17
4.600000E+03	6.770528E-16	1.061612E-17
4.610000E+03	6.834964E-16	1.057977E-17
4.620000E+03	6.886235E-16	1.053718E-17
4.630000E+03	6.923236E-16	1.048628E-17
4.640000E+03	6.945346E-16	1.042415E-17
4.650000E+03	6.952240E-16	1.034714E-17
4.660000E+03	6.943755E-16	1.025123E-17
4.670000E+03	6.920372E-16	1.013307E-17
4.680000E+03	6.882675E-16	9.989680E-18
4.690000E+03	6.831497E-16	9.818981E-18
4.700000E+03	6.767939E-16	9.620011E-18
4.710000E+03	6.693189E-16	9.392903E-18
4.720000E+03	6.608603E-16	9.139079E-18
4.730000E+03	6.515409E-16	8.860703E-18
4.740000E+03	6.415029E-16	8.560907E-18
4.750000E+03	6.308854E-16	8.242957E-18
4.760000E+03	6.197965E-16	7.909599E-18
4.770000E+03	6.083660E-16	7.564140E-18
4.780000E+03	5.966968E-16	7.210273E-18
4.790000E+03	5.848816E-16	6.852690E-18
4.800000E+03	5.730186E-16	6.498024E-18
4.810000E+03	5.611665E-16	6.154892E-18
4.820000E+03	5.494036E-16	5.834893E-18
4.830000E+03	5.377663E-16	5.552150E-18
4.840000E+03	5.263108E-16	5.323080E-18
4.850000E+03	5.150723E-16	5.162745E-18
4.860000E+03	5.041207E-16	5.079286E-18
4.870000E+03	4.935360E-16	5.067047E-18
4.880000E+03	4.834279E-16	5.109378E-18
4.890000E+03	4.738914E-16	5.186673E-18
4.900000E+03	4.649953E-16	5.281344E-18
4.910000E+03	4.567866E-16	5.379650E-18
4.920000E+03	4.492902E-16	5.472001E-18
4.930000E+03	4.425181E-16	5.552614E-18
4.940000E+03	4.364563E-16	5.618566E-18
4.950000E+03	4.310978E-16	5.669545E-18
4.960000E+03	4.264120E-16	5.706881E-18
4.970000E+03	4.223761E-16	5.733379E-18
4.980000E+03	4.189571E-16	5.752502E-18
4.990000E+03	4.161257E-16	5.767824E-18
5.000000E+03	4.138552E-16	5.782396E-18
5.010000E+03	4.121270E-16	5.798706E-18
5.020000E+03	4.109185E-16	5.818333E-18
5.030000E+03	4.102289E-16	5.842146E-18
5.040000E+03	4.100583E-16	5.870355E-18
5.050000E+03	4.104217E-16	5.903110E-18
5.060000E+03	4.113319E-16	5.940417E-18
5.070000E+03	4.128047E-16	5.982337E-18
5.080000E+03	4.148651E-16	6.029048E-18
5.090000E+03	4.175323E-16	6.080522E-18
5.100000E+03	4.208171E-16	6.136538E-18
5.110000E+03	4.247223E-16	6.196645E-18
5.120000E+03	4.292527E-16	6.260267E-18
5.130000E+03	4.343854E-16	6.326529E-18
5.140000E+03	4.400963E-16	6.394912E-18
5.150000E+03	4.463517E-16	6.465243E-18
5.160000E+03	4.531084E-16	6.537725E-18
5.170000E+03	4.603097E-16	6.612714E-18
5.180000E+03	4.678992E-16	6.690680E-18
5.190000E+03	4.757985E-16	6.771799E-18
5.200000E+03	4.839356E-16	6.856164E-18
5.210000E+03	4.922183E-16	6.943178E-18
5.220000E+03	5.005686E-16	7.032112E-18
5.230000E+03	5.088858E-16	7.121625E-18
5.240000E+03	5.170826E-16	7.210216E-18
5.250000E+03	5.250568E-16	7.295912E-18
5.260000E+03	5.327247E-16	7.376697E-18
5.270000E+03	5.400032E-16	7.450171E-18
5.280000E+03	5.468054E-16	7.513759E-18
5.290000E+03	5.530644E-16	7.565252E-18
5.300000E+03	5.587299E-16	7.602818E-18
5.310000E+03	5.637530E-16	7.624955E-18
5.320000E+03	5.680977E-16	7.630600E-18
5.330000E+03	5.717477E-16	7.619101E-18
5.340000E+03	5.747003E-16	7.590441E-18
5.350000E+03	5.769659E-16	7.545471E-18
5.360000E+03	5.785616E-16	7.485882E-18
5.370000E+03	5.795269E-16	7.414654E-18
5.380000E+03	5.798988E-16	7.335777E-18
5.390000E+03	5.797326E-16	7.254267E-18
5.400000E+03	5.790727E-16	7.175490E-18
5.410000E+03	5.779719E-16	7.104634E-18
5.420000E+03	5.764487E-16	7.044916E-18
5.430000E+03	5.744718E-16	6.996826E-18
5.440000E+03	5.720109E-16	6.959285E-18
5.450000E+03	5.690143E-16	6.929948E-18
5.460000E+03	5.654119E-16	6.905849E-18
5.470000E+03	5.611811E-16	6.884464E-18
5.480000E+03	5.562811E-16	6.862900E-18
5.490000E+03	5.506831E-16	6.838487E-18
5.500000E+03	5.443763E-16	6.808870E-18
5.510000E+03	5.373567E-16	6.771732E-18
5.520000E+03	5.296337E-16	6.725067E-18
5.530000E+03	5.212401E-16	6.667409E-18
5.540000E+03	5.122107E-16	6.597513E-18
5.550000E+03	5.026080E-16	6.514957E-18
5.560000E+03	4.925018E-16	6.420013E-18
5.570000E+03	4.819689E-16	6.313596E-18
5.580000E+03	4.711070E-16	6.197528E-18
5.590000E+03	4.600190E-16	6.074226E-18
5.600000E+03	4.488175E-16	5.946477E-18
5.610000E+03	4.376271E-16	5.817297E-18
5.620000E+03	4.265734E-16	5.689487E-18
5.630000E+03	4.157860E-16	5.565401E-18
5.640000E+03	4.053986E-16	5.447113E-18
5.650000E+03	3.955365E-16	5.336417E-18
5.660000E+03	3.863218E-16	5.234939E-18
5.670000E+03	3.778625E-16	5.144118E-18
5.680000E+03	3.702546E-16	5.065219E-18
5.690000E+03	3.635838E-16	4.999274E-18
5.700000E+03	3.579166E-16	4.947006E-18
5.710000E+03	3.533033E-16	4.908771E-18
5.720000E+03	3.497796E-16	4.884456E-18
5.730000E+03	3.473617E-16	4.873518E-18
5.740000E+03	3.460537E-16	4.875135E-18
5.750000E+03	3.458368E-16	4.888015E-18
5.760000E+03	3.466902E-16	4.910910E-18
5.770000E+03	3.485721E-16	4.942562E-18
5.780000E+03	3.514351E-16	4.981971E-18
5.790000E+03	3.552298E-16	5.028504E-18
5.800000E+03	3.598822E-16	5.081513E-18
5.810000E+03	3.653228E-16	5.140617E-18
5.820000E+03	3.714639E-16	5.205269E-18
5.830000E+03	3.782064E-16	5.274634E-18
5.840000E+03	3.854361E-16	5.347299E-18
5.850000E+03	3.930412E-16	5.421530E-18
5.860000E+03	4.008900E-16	5.494986E-18
5.870000E+03	4.088535E-16	5.565057E-18
5.880000E+03	4.167956E-16	5.628964E-18
5.890000E+03	4.245751E-16	5.684036E-18
5.900000E+03	4.320626E-16	5.728105E-18
5.910000E+03	4.391346E-16	5.759635E-18
5.920000E+03	4.456605E-16	5.777659E-18
5.930000E+03	4.515347E-16	5.782162E-18
5.940000E+03	4.566596E-16	5.773889E-18
5.950000E+03	4.609571E-16	5.754373E-18
5.960000E+03	4.643506E-16	5.725404E-18
5.970000E+03	4.668018E-16	5.689226E-18
5.980000E+03	4.682700E-16	5.647573E-18
5.990000E+03	4.687497E-16	5.601705E-18
6.000000E+03	4.682493E-16	5.552171E-18
6.010000E+03	4.667900E-16	5.498843E-18
6.020000E+03	4.644212E-16	5.441060E-18
6.030000E+03	4.611906E-16	5.377377E-18
6.040000E+03	4.571792E-16	5.305817E-18
6.050000E+03	4.524494E-16	5.223198E-18
6.060000E+03	4.470966E-16	5.126323E-18
6.070000E+03	4.411989E-16	5.011941E-18
6.080000E+03	4.348514E-16	4.877391E-18
6.090000E+03	4.281337E-16	4.720620E-18
6.100000E+03	4.211339E-16	4.540685E-18
6.110000E+03	4.139316E-16	4.337578E-18
6.120000E+03	4.066058E-16	4.112516E-18
6.130000E+03	3.992194E-16	3.867921E-18
6.140000E+03	3.918321E-16	3.607888E-18
6.150000E+03	3.845004E-16	3.339145E-18
6.160000E+03	3.772679E-16	3.072198E-18
6.170000E+03	3.701614E-16	2.822547E-18
6.180000E+03	3.632164E-16	2.611578E-18
6.190000E+03	3.564599E-16	2.464154E-18
6.200000E+03	3.499228E-16	2.400183E-18
6.210000E+03	3.436425E-16	2.420791E-18
6.220000E+03	3.376569E-16	2.505135E-18
6.230000E+03	3.320058E-16	2.624546E-18
6.240000E+03	3.267323E-16	2.754568E-18
6.250000E+03	3.218611E-16	2.878504E-18
6.260000E+03	3.174057E-16	2.986689E-18
6.270000E+03	3.133895E-16	3.074893E-18
6.280000E+03	3.098168E-16	3.142403E-18
6.290000E+03	3.066766E-16	3.190729E-18
6.300000E+03	3.039714E-16	3.222963E-18
6.310000E+03	3.016720E-16	3.242479E-18
6.320000E+03	2.997611E-16	3.252813E-18
6.330000E+03	2.981987E-16	3.257213E-18
6.340000E+03	2.969478E-16	3.258812E-18
6.350000E+03	2.959629E-16	3.260303E-18
6.360000E+03	2.951968E-16	3.263993E-18
6.370000E+03	2.946024E-16	3.271570E-18
6.380000E+03	2.941310E-16	3.283789E-18
6.390000E+03	2.937371E-16	3.300774E-18
6.400000E+03	2.933883E-16	3.322325E-18
6.410000E+03	2.930456E-16	3.347699E-18
6.420000E+03	2.926886E-16	3.376109E-18
6.430000E+03	2.922957E-16	3.406557E-18
6.440000E+03	2.918574E-16	3.437874E-18
6.450000E+03	2.913753E-16	3.468828E-18
6.460000E+03	2.908624E-16	3.498095E-18
6.470000E+03	2.903295E-16	3.524038E-18
6.480000E+03	2.897965E-16	3.545247E-18
6.490000E+03	2.892864E-16	3.560881E-18
6.500000E+03	2.888156E-16	3.570733E-18
6.510000E+03	2.884141E-16	3.575613E-18
6.520000E+03	2.881036E-16	3.577027E-18
6.530000E+03	2.879004E-16	3.576988E-18
6.540000E+03	2.878329E-16	3.577941E-18
6.550000E+03	2.879135E-16	3.581911E-18
6.560000E+03	2.881516E-16	3.590224E-18
6.570000E+03	2.885660E-16	3.603850E-18
6.580000E+03	2.891570E-16	3.623339E-18
6.590000E+03	2.899238E-16	3.649111E-18
6.600000E+03	2.908645E-16	3.681491E-18
6.610000E+03	2.919569E-16	3.720371E-18
6.620000E+03	2.931826E-16	3.765356E-18
6.630000E+03	2.945272E-16	3.815817E-18
6.640000E+03	2.959525E-16	3.870530E-18
6.650000E+03	2.974258E-16	3.928003E-18
6.660000E+03	2.989161E-16	3.986563E-18
6.670000E+03	3.003804E-16	4.044256E-18
6.680000E+03	3.017792E-16	4.099048E-18
6.690000E+03	3.030784E-16	4.149002E-18
6.700000E+03	3.042298E-16	4.192099E-18
6.710000E+03	3.051984E-16	4.226624E-18
6.720000E+03	3.059634E-16	4.251360E-18
6.730000E+03	3.064873E-16	4.265293E-18
6.740000E+03	3.067476E-16	4.268080E-18
6.750000E+03	3.067328E-16	4.260028E-18
6.760000E+03	3.064256E-16	4.241843E-18
6.770000E+03	3.058199E-16	4.214709E-18
6.780000E+03	3.049150E-16	4.180059E-18
6.790000E+03	3.037163E-16	4.139289E-18
6.800000E+03	3.022294E-16	4.093455E-18
6.810000E+03	3.004760E-16	4.043571E-18
6.820000E+03	2.984761E-16	3.990454E-18
6.830000E+03	2.962473E-16	3.934801E-18
6.840000E+03	2.938197E-16	3.877765E-18
6.850000E+03	2.912130E-16	3.820960E-18
6.860000E+03	2.884524E-16	3.766611E-18
6.870000E+03	2.855666E-16	3.716935E-18
6.880000E+03	2.825899E-16	3.672873E-18
6.890000E+03	2.795843E-16	3.634061E-18
6.900000E+03	2.765967E-16	3.599487E-18
6.910000E+03	2.736688E-16	3.568219E-18
6.920000E+03	2.708453E-16	3.539610E-18
6.930000E+03	2.681531E-16	3.513141E-18
6.940000E+03	2.656174E-16	3.488564E-18
6.950000E+03	2.632614E-16	3.465761E-18
6.960000E+03	2.610921E-16	3.444553E-18
6.970000E+03	2.591150E-16	3.424811E-18
6.980000E+03	2.573296E-16	3.406252E-18
6.990000E+03	2.557302E-16	3.388551E-18
7.000000E+03	2.543012E-16	3.371386E-18
7.010000E+03	2.530380E-16	3.354699E-18
7.020000E+03	2.519132E-16	3.338323E-18
7.030000E+03	2.509071E-16	3.322390E-18
7.040000E+03	2.500039E-16	3.307229E-18
7.050000E+03	2.491776E-16	3.293182E-18
7.060000E+03	2.484080E-16	3.280734E-18
7.070000E+03	2.476763E-16	3.270318E-18
7.080000E+03	2.469657E-16	3.262324E-18
7.090000E+03	2.462669E-16	3.257114E-18
7.100000E+03	2.455582E-16	3.254645E-18
7.110000E+03	2.448306E-16	3.254838E-18
7.120000E+03	2.440817E-16	3.257502E-18
7.130000E+03	2.433064E-16	3.262188E-18
7.140000E+03	2.424954E-16	3.268363E-18
7.150000E+03	2.416497E-16	3.275785E-18
7.160000E+03	2.407551E-16	3.284209E-18
7.170000E+03	2.398167E-16	3.293858E-18
7.180000E+03	2.388242E-16	3.304822E-18
7.190000E+03	2.377716E-16	3.317168E-18
7.200000E+03	2.366482E-16	3.330784E-18
7.210000E+03	2.354589E-16	3.345585E-18
7.220000E+03	2.341904E-16	3.360908E-18
7.230000E+03	2.328455E-16	3.376000E-18
7.240000E+03	2.314175E-16	3.389624E-18
7.250000E+03	2.299102E-16	3.400293E-18
7.260000E+03	2.283182E-16	3.406227E-18
7.270000E+03	2.266420E-16	3.405875E-18
7.280000E+03	2.248881E-16	3.398079E-18
7.290000E+03	2.230551E-16	3.381937E-18
7.300000E+03	2.211521E-16	3.357105E-18
7.310000E+03	2.191759E-16	3.323440E-18
7.320000E+03	2.171382E-16	3.281441E-18
7.330000E+03	2.150520E-16	3.232022E-18
7.340000E+03	2.129173E-16	3.176274E-18
7.350000E+03	2.107489E-16	3.115884E-18
7.360000E+03	2.085527E-16	3.052715E-18
7.370000E+03	2.063444E-16	2.988970E-18
7.380000E+03	2.041307E-16	2.926773E-18
7.390000E+03	2.019230E-16	2.868098E-18
7.400000E+03	1.997330E-16	2.814457E-18
7.410000E+03	1.975682E-16	2.766842E-18
7.420000E+03	1.954422E-16	2.725809E-18
7.430000E+03	1.933699E-16	2.691329E-18
7.440000E+03	1.913674E-16	2.662879E-18
7.450000E+03	1.894555E-16	2.639520E-18
7.460000E+03	1.876462E-16	2.619721E-18
7.470000E+03	1.859633E-16	2.601861E-18
7.480000E+03	1.844199E-16	2.584113E-18
7.490000E+03	1.830267E-16	2.564593E-18
7.500000E+03	1.817906E-16	2.541325E-18
7.510000E+03	1.807132E-16	2.512100E-18
7.520000E+03	1.797982E-16	2.474489E-18
7.530000E+03	1.790271E-16	2.425733E-18
7.540000E+03	1.783884E-16	2.363457E-18
7.550000E+03	1.778621E-16	2.285680E-18
7.560000E+03	1.774272E-16	2.191159E-18
7.570000E+03	1.770462E-16	2.079489E-18
7.580000E+03	1.766895E-16	1.951845E-18
7.590000E+03	1.763199E-16	1.811483E-18
7.600000E+03	1.759031E-16	1.664906E-18
7.610000E+03	1.753918E-16	1.523138E-18
7.620000E+03	1.747572E-16	1.403362E-18
7.630000E+03	1.739628E-16	1.327910E-18
7.640000E+03	1.729816E-16	1.317455E-18
7.650000E+03	1.718165E-16	1.377851E-18
7.660000E+03	1.704768E-16	1.495877E-18
7.670000E+03	1.689861E-16	1.650786E-18
7.680000E+03	1.673720E-16	1.824316E-18
7.690000E+03	1.656619E-16	2.003577E-18
7.700000E+03	1.638810E-16	2.180354E-18
7.710000E+03	1.620562E-16	2.349805E-18
7.720000E+03	1.602003E-16	2.509145E-18
7.730000E+03	1.583395E-16	2.657267E-18
7.740000E+03	1.564862E-16	2.793842E-18
7.750000E+03	1.546542E-16	2.919203E-18
7.760000E+03	1.528549E-16	3.034045E-18
