#wls	flux	fluxerr
1.600000E+03	8.889774E-19	6.513958E-19
1.640000E+03	8.792034E-19	6.356993E-19
1.680000E+03	8.714797E-19	6.214225E-19
1.720000E+03	8.656815E-19	6.084190E-19
1.760000E+03	8.620017E-19	5.967646E-19
1.800000E+03	8.605374E-19	5.864583E-19
1.840000E+03	8.613971E-19	5.774995E-19
1.880000E+03	8.647051E-19	5.698892E-19
1.920000E+03	8.705165E-19	5.635744E-19
1.960000E+03	8.790887E-19	5.586236E-19
2.000000E+03	8.907002E-19	5.551019E-19
2.040000E+03	9.055741E-19	5.530222E-19
2.080000E+03	9.239750E-19	5.524052E-19
2.120000E+03	9.464616E-19	5.534247E-19
2.160000E+03	9.736446E-19	5.562479E-19
2.200000E+03	1.006204E-18	5.610405E-19
2.240000E+03	1.045316E-18	5.681925E-19
2.280000E+03	1.092116E-18	5.779951E-19
2.320000E+03	1.147734E-18	5.906600E-19
2.360000E+03	1.213330E-18	6.063356E-19
2.400000E+03	1.289966E-18	6.250375E-19
2.440000E+03	1.379482E-18	6.470660E-19
2.480000E+03	1.483641E-18	6.725538E-19
2.520000E+03	1.605052E-18	7.018751E-19
2.560000E+03	1.746591E-18	7.353261E-19
2.600000E+03	1.912154E-18	7.734055E-19
2.640000E+03	2.106187E-18	8.165414E-19
2.680000E+03	2.334253E-18	8.652501E-19
2.720000E+03	2.603095E-18	9.200559E-19
2.760000E+03	2.921168E-18	9.815635E-19
2.800000E+03	3.298463E-18	1.050246E-18
2.840000E+03	3.748081E-18	1.126779E-18
2.880000E+03	4.286109E-18	1.211729E-18
2.920000E+03	4.933981E-18	1.305911E-18
2.960000E+03	5.719481E-18	1.410168E-18
3.000000E+03	6.679310E-18	1.525402E-18
3.010000E+03	6.951906E-18	1.556031E-18
3.020000E+03	7.238982E-18	1.587351E-18
3.030000E+03	7.541575E-18	1.619391E-18
3.040000E+03	7.860792E-18	1.652176E-18
3.050000E+03	8.197605E-18	1.685687E-18
3.060000E+03	8.553047E-18	1.719898E-18
3.070000E+03	8.928674E-18	1.754871E-18
3.080000E+03	9.325460E-18	1.790528E-18
3.090000E+03	9.744670E-18	1.826831E-18
3.100000E+03	1.018815E-17	1.863828E-18
3.110000E+03	1.065738E-17	1.901469E-18
3.120000E+03	1.115420E-17	1.939746E-18
3.130000E+03	1.167977E-17	1.978504E-18
3.140000E+03	1.223698E-17	2.017860E-18
3.150000E+03	1.282724E-17	2.057644E-18
3.160000E+03	1.345292E-17	2.097817E-18
3.170000E+03	1.411657E-17	2.138332E-18
3.180000E+03	1.482060E-17	2.179086E-18
3.190000E+03	1.556792E-17	2.220014E-18
3.200000E+03	1.636134E-17	2.260993E-18
3.210000E+03	1.720418E-17	2.301940E-18
3.220000E+03	1.809969E-17	2.342714E-18
3.230000E+03	1.905170E-17	2.383212E-18
3.240000E+03	2.006396E-17	2.423278E-18
3.250000E+03	2.114048E-17	2.462750E-18
3.260000E+03	2.228597E-17	2.501506E-18
3.270000E+03	2.350511E-17	2.539382E-18
3.280000E+03	2.480333E-17	2.576260E-18
3.290000E+03	2.618605E-17	2.611990E-18
3.300000E+03	2.765909E-17	2.646439E-18
3.310000E+03	2.922870E-17	2.679505E-18
3.320000E+03	3.090212E-17	2.711174E-18
3.330000E+03	3.268662E-17	2.741451E-18
3.340000E+03	3.459002E-17	2.770423E-18
3.350000E+03	3.662074E-17	2.798295E-18
3.360000E+03	3.878720E-17	2.825376E-18
3.370000E+03	4.109965E-17	2.852259E-18
3.380000E+03	4.356784E-17	2.879694E-18
3.390000E+03	4.620348E-17	2.908824E-18
3.400000E+03	4.901776E-17	2.941075E-18
3.410000E+03	5.202177E-17	2.978270E-18
3.420000E+03	5.523025E-17	3.022899E-18
3.430000E+03	5.865491E-17	3.077783E-18
3.440000E+03	6.231033E-17	3.146421E-18
3.450000E+03	6.621090E-17	3.232794E-18
3.460000E+03	7.037145E-17	3.341302E-18
3.470000E+03	7.480626E-17	3.476576E-18
3.480000E+03	7.953062E-17	3.643350E-18
3.490000E+03	8.455786E-17	3.846104E-18
3.500000E+03	8.990409E-17	4.089079E-18
3.510000E+03	9.558196E-17	4.375839E-18
3.520000E+03	1.016032E-16	4.709309E-18
3.530000E+03	1.079799E-16	5.091811E-18
3.540000E+03	1.147191E-16	5.524866E-18
3.550000E+03	1.218284E-16	6.009527E-18
3.560000E+03	1.293138E-16	6.546342E-18
3.570000E+03	1.371780E-16	7.135342E-18
3.580000E+03	1.454211E-16	7.776132E-18
3.590000E+03	1.540387E-16	8.467823E-18
3.600000E+03	1.630302E-16	9.209479E-18
3.610000E+03	1.723856E-16	9.999426E-18
3.620000E+03	1.820969E-16	1.083586E-17
3.630000E+03	1.921529E-16	1.171661E-17
3.640000E+03	2.025397E-16	1.263907E-17
3.650000E+03	2.132402E-16	1.360025E-17
3.660000E+03	2.242362E-16	1.459685E-17
3.670000E+03	2.355089E-16	1.562535E-17
3.680000E+03	2.470345E-16	1.668169E-17
3.690000E+03	2.587843E-16	1.776126E-17
3.700000E+03	2.707358E-16	1.885976E-17
3.710000E+03	2.828551E-16	1.997191E-17
3.720000E+03	2.951127E-16	2.109262E-17
3.730000E+03	3.074750E-16	2.221643E-17
3.740000E+03	3.199089E-16	2.333783E-17
3.750000E+03	3.323740E-16	2.445077E-17
3.760000E+03	3.448341E-16	2.554949E-17
3.770000E+03	3.572548E-16	2.662841E-17
3.780000E+03	3.695916E-16	2.768128E-17
3.790000E+03	3.818053E-16	2.870237E-17
3.800000E+03	3.938562E-16	2.968606E-17
3.810000E+03	4.057046E-16	3.062692E-17
3.820000E+03	4.173071E-16	3.151949E-17
3.830000E+03	4.286243E-16	3.235885E-17
3.840000E+03	4.396210E-16	3.314072E-17
3.850000E+03	4.502520E-16	3.386038E-17
3.860000E+03	4.604844E-16	3.451441E-17
3.870000E+03	4.702830E-16	3.509957E-17
3.880000E+03	4.796107E-16	3.561289E-17
3.890000E+03	4.884361E-16	3.605224E-17
3.900000E+03	4.967303E-16	3.641607E-17
3.910000E+03	5.044630E-16	3.670318E-17
3.920000E+03	5.116149E-16	3.691354E-17
3.930000E+03	5.181575E-16	3.704689E-17
3.940000E+03	5.240780E-16	3.710450E-17
3.950000E+03	5.293631E-16	3.708792E-17
3.960000E+03	5.339948E-16	3.699872E-17
3.970000E+03	5.379673E-16	3.683965E-17
3.980000E+03	5.412790E-16	3.661396E-17
3.990000E+03	5.439322E-16	3.632539E-17
4.000000E+03	5.459249E-16	3.597754E-17
4.010000E+03	5.472674E-16	3.557496E-17
4.020000E+03	5.479747E-16	3.512253E-17
4.030000E+03	5.480614E-16	3.462507E-17
4.040000E+03	5.475479E-16	3.408759E-17
4.050000E+03	5.464627E-16	3.351549E-17
4.060000E+03	5.448334E-16	3.291392E-17
4.070000E+03	5.426868E-16	3.228778E-17
4.080000E+03	5.400649E-16	3.164265E-17
4.090000E+03	5.369993E-16	3.098323E-17
4.100000E+03	5.335316E-16	3.031452E-17
4.110000E+03	5.297007E-16	2.964105E-17
4.120000E+03	5.255425E-16	2.896692E-17
4.130000E+03	5.211061E-16	2.829659E-17
4.140000E+03	5.164286E-16	2.763355E-17
4.150000E+03	5.115512E-16	2.698124E-17
4.160000E+03	5.065189E-16	2.634297E-17
4.170000E+03	5.013720E-16	2.572148E-17
4.180000E+03	4.961505E-16	2.511916E-17
4.190000E+03	4.908981E-16	2.453809E-17
4.200000E+03	4.856497E-16	2.397959E-17
4.210000E+03	4.804506E-16	2.344521E-17
4.220000E+03	4.753328E-16	2.293548E-17
4.230000E+03	4.703379E-16	2.245121E-17
4.240000E+03	4.654940E-16	2.199240E-17
4.250000E+03	4.608414E-16	2.155939E-17
4.260000E+03	4.564068E-16	2.115184E-17
4.270000E+03	4.522185E-16	2.076938E-17
4.280000E+03	4.483023E-16	2.041143E-17
4.290000E+03	4.446891E-16	2.007764E-17
4.300000E+03	4.414039E-16	1.976739E-17
4.310000E+03	4.384661E-16	1.947973E-17
4.320000E+03	4.359000E-16	1.921398E-17
4.330000E+03	4.337248E-16	1.896928E-17
4.340000E+03	4.319615E-16	1.874484E-17
4.350000E+03	4.306291E-16	1.853986E-17
4.360000E+03	4.297383E-16	1.835324E-17
4.370000E+03	4.292943E-16	1.818368E-17
4.380000E+03	4.292865E-16	1.802927E-17
4.390000E+03	4.297166E-16	1.788879E-17
4.400000E+03	4.305700E-16	1.776038E-17
4.410000E+03	4.318440E-16	1.764281E-17
4.420000E+03	4.335231E-16	1.753447E-17
4.430000E+03	4.355957E-16	1.743399E-17
4.440000E+03	4.380475E-16	1.734004E-17
4.450000E+03	4.408610E-16	1.725123E-17
4.460000E+03	4.440147E-16	1.716605E-17
4.470000E+03	4.474873E-16	1.708304E-17
4.480000E+03	4.512571E-16	1.700082E-17
4.490000E+03	4.552826E-16	1.691711E-17
4.500000E+03	4.595365E-16	1.683024E-17
4.510000E+03	4.639790E-16	1.673808E-17
4.520000E+03	4.685584E-16	1.663788E-17
4.530000E+03	4.732258E-16	1.652708E-17
4.540000E+03	4.779246E-16	1.640301E-17
4.550000E+03	4.825983E-16	1.626321E-17
4.560000E+03	4.871795E-16	1.610516E-17
4.570000E+03	4.916116E-16	1.592700E-17
4.580000E+03	4.958243E-16	1.572676E-17
4.590000E+03	4.997603E-16	1.550328E-17
4.600000E+03	5.033467E-16	1.525537E-17
4.610000E+03	5.065342E-16	1.498299E-17
4.620000E+03	5.092558E-16	1.468603E-17
4.630000E+03	5.114617E-16	1.436535E-17
4.640000E+03	5.131066E-16	1.402214E-17
4.650000E+03	5.141472E-16	1.365809E-17
4.660000E+03	5.145430E-16	1.327550E-17
4.670000E+03	5.142743E-16	1.287763E-17
4.680000E+03	5.133123E-16	1.246791E-17
4.690000E+03	5.116590E-16	1.205050E-17
4.700000E+03	5.092999E-16	1.162848E-17
4.710000E+03	5.062518E-16	1.120526E-17
4.720000E+03	5.025354E-16	1.078274E-17
4.730000E+03	4.981903E-16	1.035972E-17
4.740000E+03	4.932666E-16	9.934161E-18
4.750000E+03	4.878237E-16	9.504856E-18
4.760000E+03	4.819215E-16	9.071549E-18
4.770000E+03	4.756222E-16	8.635733E-18
4.780000E+03	4.689931E-16	8.201188E-18
4.790000E+03	4.620987E-16	7.773978E-18
4.800000E+03	4.550026E-16	7.362897E-18
4.810000E+03	4.477671E-16	6.979492E-18
4.820000E+03	4.404527E-16	6.637565E-18
4.830000E+03	4.331218E-16	6.352308E-18
4.840000E+03	4.258262E-16	6.138091E-18
4.850000E+03	4.186232E-16	6.005540E-18
4.860000E+03	4.115603E-16	5.958127E-18
4.870000E+03	4.046904E-16	5.990719E-18
4.880000E+03	3.980594E-16	6.090678E-18
4.890000E+03	3.917058E-16	6.241451E-18
4.900000E+03	3.856709E-16	6.426330E-18
4.910000E+03	3.799827E-16	6.630501E-18
4.920000E+03	3.746742E-16	6.842350E-18
4.930000E+03	3.697581E-16	7.053053E-18
4.940000E+03	3.652489E-16	7.256494E-18
4.950000E+03	3.611520E-16	7.448682E-18
4.960000E+03	3.574694E-16	7.627396E-18
4.970000E+03	3.541993E-16	7.791723E-18
4.980000E+03	3.513342E-16	7.941684E-18
4.990000E+03	3.488735E-16	8.078128E-18
5.000000E+03	3.467992E-16	8.201773E-18
5.010000E+03	3.451012E-16	8.313821E-18
5.020000E+03	3.437654E-16	8.415580E-18
5.030000E+03	3.427768E-16	8.508253E-18
5.040000E+03	3.421204E-16	8.593106E-18
5.050000E+03	3.417787E-16	8.671383E-18
5.060000E+03	3.417427E-16	8.744345E-18
5.070000E+03	3.420014E-16	8.813162E-18
5.080000E+03	3.425425E-16	8.878778E-18
5.090000E+03	3.433654E-16	8.941816E-18
5.100000E+03	3.444648E-16	9.002580E-18
5.110000E+03	3.458417E-16	9.061584E-18
5.120000E+03	3.474902E-16	9.119141E-18
5.130000E+03	3.494099E-16	9.175770E-18
5.140000E+03	3.515899E-16	9.231545E-18
5.150000E+03	3.540317E-16	9.286316E-18
5.160000E+03	3.567223E-16	9.339373E-18
5.170000E+03	3.596608E-16	9.390288E-18
5.180000E+03	3.628307E-16	9.438026E-18
5.190000E+03	3.662241E-16	9.481820E-18
5.200000E+03	3.698246E-16	9.520815E-18
5.210000E+03	3.736208E-16	9.554339E-18
5.220000E+03	3.775964E-16	9.581803E-18
5.230000E+03	3.817260E-16	9.602595E-18
5.240000E+03	3.859971E-16	9.616473E-18
5.250000E+03	3.903848E-16	9.623163E-18
5.260000E+03	3.948633E-16	9.622679E-18
5.270000E+03	3.994136E-16	9.615341E-18
5.280000E+03	4.040128E-16	9.601729E-18
5.290000E+03	4.086373E-16	9.582680E-18
5.300000E+03	4.132553E-16	9.558708E-18
5.310000E+03	4.178504E-16	9.530925E-18
5.320000E+03	4.223937E-16	9.500204E-18
5.330000E+03	4.268579E-16	9.466885E-18
5.340000E+03	4.312106E-16	9.431223E-18
5.350000E+03	4.354271E-16	9.393862E-18
5.360000E+03	4.394725E-16	9.355064E-18
5.370000E+03	4.433194E-16	9.315467E-18
5.380000E+03	4.469277E-16	9.275567E-18
5.390000E+03	4.502713E-16	9.235752E-18
5.400000E+03	4.533182E-16	9.196262E-18
5.410000E+03	4.560308E-16	9.157087E-18
5.420000E+03	4.583763E-16	9.117651E-18
5.430000E+03	4.603235E-16	9.077226E-18
5.440000E+03	4.618197E-16	9.034744E-18
5.450000E+03	4.628320E-16	8.989482E-18
5.460000E+03	4.633188E-16	8.940907E-18
5.470000E+03	4.632415E-16	8.888749E-18
5.480000E+03	4.625737E-16	8.832588E-18
5.490000E+03	4.613039E-16	8.772488E-18
5.500000E+03	4.594084E-16	8.708163E-18
5.510000E+03	4.568843E-16	8.638571E-18
5.520000E+03	4.537407E-16	8.562862E-18
5.530000E+03	4.499803E-16	8.480189E-18
5.540000E+03	4.456287E-16	8.389500E-18
5.550000E+03	4.407145E-16	8.290185E-18
5.560000E+03	4.352739E-16	8.182468E-18
5.570000E+03	4.293504E-16	8.066866E-18
5.580000E+03	4.229988E-16	7.944869E-18
5.590000E+03	4.162818E-16	7.818794E-18
5.600000E+03	4.092782E-16	7.691270E-18
5.610000E+03	4.020597E-16	7.565239E-18
5.620000E+03	3.947223E-16	7.444078E-18
5.630000E+03	3.873607E-16	7.330031E-18
5.640000E+03	3.800814E-16	7.225509E-18
5.650000E+03	3.729960E-16	7.133300E-18
5.660000E+03	3.661995E-16	7.055618E-18
5.670000E+03	3.597937E-16	6.994949E-18
5.680000E+03	3.538647E-16	6.953046E-18
5.690000E+03	3.484948E-16	6.929998E-18
5.700000E+03	3.437619E-16	6.925416E-18
5.710000E+03	3.397248E-16	6.938231E-18
5.720000E+03	3.364158E-16	6.965554E-18
5.730000E+03	3.338584E-16	7.004257E-18
5.740000E+03	3.320752E-16	7.051883E-18
5.750000E+03	3.310761E-16	7.106390E-18
5.760000E+03	3.308753E-16	7.166493E-18
5.770000E+03	3.314795E-16	7.231322E-18
5.780000E+03	3.328862E-16	7.300199E-18
5.790000E+03	3.350965E-16	7.372936E-18
5.800000E+03	3.381027E-16	7.449456E-18
5.810000E+03	3.418883E-16	7.529561E-18
5.820000E+03	3.464302E-16	7.613110E-18
5.830000E+03	3.516950E-16	7.699674E-18
5.840000E+03	3.576295E-16	7.787774E-18
5.850000E+03	3.641713E-16	7.875662E-18
5.860000E+03	3.712390E-16	7.961249E-18
5.870000E+03	3.787447E-16	8.042034E-18
5.880000E+03	3.865842E-16	8.115447E-18
5.890000E+03	3.946433E-16	8.179279E-18
5.900000E+03	4.028031E-16	8.231681E-18
5.910000E+03	4.109215E-16	8.271184E-18
5.920000E+03	4.188729E-16	8.297579E-18
5.930000E+03	4.265089E-16	8.310832E-18
5.940000E+03	4.336776E-16	8.311671E-18
5.950000E+03	4.402530E-16	8.301281E-18
5.960000E+03	4.461033E-16	8.279125E-18
5.970000E+03	4.511241E-16	8.244752E-18
5.980000E+03	4.552222E-16	8.198004E-18
5.990000E+03	4.583162E-16	8.138497E-18
6.000000E+03	4.603393E-16	8.066109E-18
6.010000E+03	4.612457E-16	7.980459E-18
6.020000E+03	4.610342E-16	7.879899E-18
6.030000E+03	4.597091E-16	7.762100E-18
6.040000E+03	4.573082E-16	7.624320E-18
6.050000E+03	4.539017E-16	7.461892E-18
6.060000E+03	4.495713E-16	7.270128E-18
6.070000E+03	4.444120E-16	7.045752E-18
6.080000E+03	4.385252E-16	6.786761E-18
6.090000E+03	4.320029E-16	6.492838E-18
6.100000E+03	4.249596E-16	6.165942E-18
6.110000E+03	4.174869E-16	5.809308E-18
6.120000E+03	4.096947E-16	5.428641E-18
6.130000E+03	4.016733E-16	5.031655E-18
6.140000E+03	3.935159E-16	4.628240E-18
6.150000E+03	3.853103E-16	4.231717E-18
6.160000E+03	3.771506E-16	3.859632E-18
6.170000E+03	3.691114E-16	3.533178E-18
6.180000E+03	3.612659E-16	3.277411E-18
6.190000E+03	3.536617E-16	3.116937E-18
6.200000E+03	3.463496E-16	3.066953E-18
6.210000E+03	3.393658E-16	3.124533E-18
6.220000E+03	3.327281E-16	3.268795E-18
6.230000E+03	3.264388E-16	3.470235E-18
6.240000E+03	3.205101E-16	3.700980E-18
6.250000E+03	3.149309E-16	3.939123E-18
6.260000E+03	3.096956E-16	4.169344E-18
6.270000E+03	3.048005E-16	4.381783E-18
6.280000E+03	3.002263E-16	4.570352E-18
6.290000E+03	2.959697E-16	4.731861E-18
6.300000E+03	2.920091E-16	4.864743E-18
6.310000E+03	2.883343E-16	4.968882E-18
6.320000E+03	2.849269E-16	5.044746E-18
6.330000E+03	2.817719E-16	5.093506E-18
6.340000E+03	2.788540E-16	5.116816E-18
6.350000E+03	2.761585E-16	5.116588E-18
6.360000E+03	2.736705E-16	5.095136E-18
6.370000E+03	2.713715E-16	5.055147E-18
6.380000E+03	2.692477E-16	4.999762E-18
6.390000E+03	2.672821E-16	4.932601E-18
6.400000E+03	2.654665E-16	4.858038E-18
6.410000E+03	2.637903E-16	4.780899E-18
6.420000E+03	2.622439E-16	4.706616E-18
6.430000E+03	2.608161E-16	4.640862E-18
6.440000E+03	2.595062E-16	4.589207E-18
6.450000E+03	2.583156E-16	4.556925E-18
6.460000E+03	2.572383E-16	4.547225E-18
6.470000E+03	2.562907E-16	4.559501E-18
6.480000E+03	2.554815E-16	4.591101E-18
6.490000E+03	2.548196E-16	4.638862E-18
6.500000E+03	2.543210E-16	4.699034E-18
6.510000E+03	2.539978E-16	4.767964E-18
6.520000E+03	2.538534E-16	4.842427E-18
6.530000E+03	2.539009E-16	4.919801E-18
6.540000E+03	2.541480E-16	4.998054E-18
6.550000E+03	2.546022E-16	5.075874E-18
6.560000E+03	2.552609E-16	5.152301E-18
6.570000E+03	2.561364E-16	5.227198E-18
6.580000E+03	2.572214E-16	5.300228E-18
6.590000E+03	2.585146E-16	5.370830E-18
6.600000E+03	2.600029E-16	5.438225E-18
6.610000E+03	2.616745E-16	5.501902E-18
6.620000E+03	2.635183E-16	5.561479E-18
6.630000E+03	2.655123E-16	5.616556E-18
6.640000E+03	2.676307E-16	5.666765E-18
6.650000E+03	2.698555E-16	5.711749E-18
6.660000E+03	2.721478E-16	5.750787E-18
6.670000E+03	2.744744E-16	5.783333E-18
6.680000E+03	2.768080E-16	5.808725E-18
6.690000E+03	2.791009E-16	5.825895E-18
6.700000E+03	2.813193E-16	5.833820E-18
6.710000E+03	2.834212E-16	5.830429E-18
6.720000E+03	2.853755E-16	5.813735E-18
6.730000E+03	2.871430E-16	5.781971E-18
6.740000E+03	2.886973E-16	5.734052E-18
6.750000E+03	2.900049E-16	5.669421E-18
6.760000E+03	2.910458E-16	5.588548E-18
6.770000E+03	2.917945E-16	5.492505E-18
6.780000E+03	2.922399E-16	5.383515E-18
6.790000E+03	2.923719E-16	5.264516E-18
6.800000E+03	2.921829E-16	5.138799E-18
6.810000E+03	2.916816E-16	5.010611E-18
6.820000E+03	2.908732E-16	4.884653E-18
6.830000E+03	2.897821E-16	4.765801E-18
6.840000E+03	2.884334E-16	4.659081E-18
6.850000E+03	2.868515E-16	4.569499E-18
6.860000E+03	2.850760E-16	4.501531E-18
6.870000E+03	2.831441E-16	4.458221E-18
6.880000E+03	2.810954E-16	4.440689E-18
6.890000E+03	2.789660E-16	4.447923E-18
6.900000E+03	2.768081E-16	4.477716E-18
6.910000E+03	2.746528E-16	4.526719E-18
6.920000E+03	2.725448E-16	4.591369E-18
6.930000E+03	2.705215E-16	4.668306E-18
6.940000E+03	2.686131E-16	4.754221E-18
6.950000E+03	2.668352E-16	4.845025E-18
6.960000E+03	2.651963E-16	4.936896E-18
6.970000E+03	2.637013E-16	5.026806E-18
6.980000E+03	2.623554E-16	5.112386E-18
6.990000E+03	2.611457E-16	5.191711E-18
7.000000E+03	2.600775E-16	5.263968E-18
7.010000E+03	2.591390E-16	5.328561E-18
7.020000E+03	2.583215E-16	5.385541E-18
7.030000E+03	2.576153E-16	5.435397E-18
7.040000E+03	2.570134E-16	5.478907E-18
7.050000E+03	2.564979E-16	5.516954E-18
7.060000E+03	2.560602E-16	5.550852E-18
7.070000E+03	2.556805E-16	5.581616E-18
7.080000E+03	2.553484E-16	5.610627E-18
7.090000E+03	2.550439E-16	5.639246E-18
7.100000E+03	2.547571E-16	5.669059E-18
7.110000E+03	2.544737E-16	5.701559E-18
7.120000E+03	2.541810E-16	5.737691E-18
7.130000E+03	2.538688E-16	5.776993E-18
7.140000E+03	2.535234E-16	5.818324E-18
7.150000E+03	2.531475E-16	5.860862E-18
7.160000E+03	2.527293E-16	5.903335E-18
7.170000E+03	2.522634E-16	5.944682E-18
7.180000E+03	2.517451E-16	5.983812E-18
7.190000E+03	2.511767E-16	6.019382E-18
7.200000E+03	2.505562E-16	6.049960E-18
7.210000E+03	2.498773E-16	6.074270E-18
7.220000E+03	2.491451E-16	6.091561E-18
7.230000E+03	2.483547E-16	6.101140E-18
7.240000E+03	2.475180E-16	6.102928E-18
7.250000E+03	2.466261E-16	6.096392E-18
7.260000E+03	2.456915E-16	6.081697E-18
7.270000E+03	2.447057E-16	6.058599E-18
7.280000E+03	2.436799E-16	6.027246E-18
7.290000E+03	2.426093E-16	5.987519E-18
7.300000E+03	2.414944E-16	5.939637E-18
7.310000E+03	2.403358E-16	5.883932E-18
7.320000E+03	2.391339E-16	5.820980E-18
7.330000E+03	2.378899E-16	5.751580E-18
7.340000E+03	2.366001E-16	5.676498E-18
7.350000E+03	2.352669E-16	5.596833E-18
7.360000E+03	2.338933E-16	5.513836E-18
7.370000E+03	2.324836E-16	5.428694E-18
7.380000E+03	2.310273E-16	5.342297E-18
7.390000E+03	2.295414E-16	5.256029E-18
7.400000E+03	2.280189E-16	5.170161E-18
7.410000E+03	2.264697E-16	5.085139E-18
7.420000E+03	2.248986E-16	5.001091E-18
7.430000E+03	2.233160E-16	4.917697E-18
7.440000E+03	2.217268E-16	4.834320E-18
7.450000E+03	2.201605E-16	4.750635E-18
7.460000E+03	2.186191E-16	4.665119E-18
7.470000E+03	2.171130E-16	4.576277E-18
7.480000E+03	2.156553E-16	4.482497E-18
7.490000E+03	2.142436E-16	4.381313E-18
7.500000E+03	2.128784E-16	4.270317E-18
7.510000E+03	2.115527E-16	4.147309E-18
7.520000E+03	2.102574E-16	4.010391E-18
7.530000E+03	2.089919E-16	3.858378E-18
7.540000E+03	2.077332E-16	3.690342E-18
7.550000E+03	2.064760E-16	3.506413E-18
7.560000E+03	2.051982E-16	3.307482E-18
7.570000E+03	2.038769E-16	3.095854E-18
7.580000E+03	2.025031E-16	2.875868E-18
7.590000E+03	2.010531E-16	2.654129E-18
7.600000E+03	1.995090E-16	2.440667E-18
7.610000E+03	1.978503E-16	2.249472E-18
7.620000E+03	1.960742E-16	2.098511E-18
7.630000E+03	1.941620E-16	2.006730E-18
7.640000E+03	1.921103E-16	1.988418E-18
7.650000E+03	1.899264E-16	2.046429E-18
7.660000E+03	1.876189E-16	2.170664E-18
7.670000E+03	1.851957E-16	2.343474E-18
7.680000E+03	1.826782E-16	2.546712E-18
7.690000E+03	1.800796E-16	2.765344E-18
7.700000E+03	1.774186E-16	2.988449E-18
7.710000E+03	1.747183E-16	3.208735E-18
7.720000E+03	1.719919E-16	3.421431E-18
7.730000E+03	1.692605E-16	3.623840E-18
7.740000E+03	1.665347E-16	3.814458E-18
7.750000E+03	1.638328E-16	3.992954E-18
7.760000E+03	1.611669E-16	4.159582E-18
