#wls	flux	fluxerr
1.600000E+03	8.970686E-19	6.575400E-19
1.640000E+03	8.872939E-19	6.417734E-19
1.680000E+03	8.795829E-19	6.274347E-19
1.720000E+03	8.738098E-19	6.143765E-19
1.760000E+03	8.701696E-19	6.026758E-19
1.800000E+03	8.687602E-19	5.923318E-19
1.840000E+03	8.696914E-19	5.833442E-19
1.880000E+03	8.730885E-19	5.757144E-19
1.920000E+03	8.790070E-19	5.693888E-19
1.960000E+03	8.877064E-19	5.644371E-19
2.000000E+03	8.994671E-19	5.609251E-19
2.040000E+03	9.145140E-19	5.588658E-19
2.080000E+03	9.331128E-19	5.582803E-19
2.120000E+03	9.558265E-19	5.593440E-19
2.160000E+03	9.832697E-19	5.622260E-19
2.200000E+03	1.016126E-18	5.670934E-19
2.240000E+03	1.055582E-18	5.743400E-19
2.280000E+03	1.102777E-18	5.842596E-19
2.320000E+03	1.158847E-18	5.970657E-19
2.360000E+03	1.224956E-18	6.129071E-19
2.400000E+03	1.302166E-18	6.317982E-19
2.440000E+03	1.392323E-18	6.540410E-19
2.480000E+03	1.497187E-18	6.797674E-19
2.520000E+03	1.619372E-18	7.093534E-19
2.560000E+03	1.761751E-18	7.430950E-19
2.600000E+03	1.928219E-18	7.814928E-19
2.640000E+03	2.123213E-18	8.249751E-19
2.680000E+03	2.352283E-18	8.740588E-19
2.720000E+03	2.622146E-18	9.292685E-19
2.760000E+03	2.941217E-18	9.912095E-19
2.800000E+03	3.319427E-18	1.060355E-18
2.840000E+03	3.769788E-18	1.137383E-18
2.880000E+03	4.308259E-18	1.222865E-18
2.920000E+03	4.956096E-18	1.317629E-18
2.960000E+03	5.740830E-18	1.422539E-18
3.000000E+03	6.698803E-18	1.538538E-18
3.010000E+03	6.970709E-18	1.569383E-18
3.020000E+03	7.256986E-18	1.600931E-18
3.030000E+03	7.558661E-18	1.633211E-18
3.040000E+03	7.876829E-18	1.666254E-18
3.050000E+03	8.212450E-18	1.700039E-18
3.060000E+03	8.566543E-18	1.734544E-18
3.070000E+03	8.940651E-18	1.769834E-18
3.080000E+03	9.335729E-18	1.805833E-18
3.090000E+03	9.753027E-18	1.842507E-18
3.100000E+03	1.019437E-17	1.879906E-18
3.110000E+03	1.066122E-17	1.917988E-18
3.120000E+03	1.115540E-17	1.956747E-18
3.130000E+03	1.167803E-17	1.996035E-18
3.140000E+03	1.223200E-17	2.035974E-18
3.150000E+03	1.281867E-17	2.076402E-18
3.160000E+03	1.344039E-17	2.117288E-18
3.170000E+03	1.409967E-17	2.158595E-18
3.180000E+03	1.479889E-17	2.200229E-18
3.190000E+03	1.554094E-17	2.242138E-18
3.200000E+03	1.632856E-17	2.284214E-18
3.210000E+03	1.716505E-17	2.326387E-18
3.220000E+03	1.805360E-17	2.368535E-18
3.230000E+03	1.899800E-17	2.410575E-18
3.240000E+03	2.000193E-17	2.452372E-18
3.250000E+03	2.106936E-17	2.493789E-18
3.260000E+03	2.220494E-17	2.534735E-18
3.270000E+03	2.341325E-17	2.575076E-18
3.280000E+03	2.469967E-17	2.614731E-18
3.290000E+03	2.606954E-17	2.653591E-18
3.300000E+03	2.752858E-17	2.691565E-18
3.310000E+03	2.908295E-17	2.728602E-18
3.320000E+03	3.073976E-17	2.764743E-18
3.330000E+03	3.250617E-17	2.800048E-18
3.340000E+03	3.438987E-17	2.834667E-18
3.350000E+03	3.639911E-17	2.868865E-18
3.360000E+03	3.854215E-17	2.903011E-18
3.370000E+03	4.082904E-17	2.937752E-18
3.380000E+03	4.326929E-17	2.973879E-18
3.390000E+03	4.587437E-17	3.012558E-18
3.400000E+03	4.865518E-17	3.055201E-18
3.410000E+03	5.162251E-17	3.103573E-18
3.420000E+03	5.479071E-17	3.160050E-18
3.430000E+03	5.817111E-17	3.227259E-18
3.440000E+03	6.177786E-17	3.308432E-18
3.450000E+03	6.562489E-17	3.407194E-18
3.460000E+03	6.972657E-17	3.527533E-18
3.470000E+03	7.409667E-17	3.673629E-18
3.480000E+03	7.875001E-17	3.849780E-18
3.490000E+03	8.369945E-17	4.060088E-18
3.500000E+03	8.896066E-17	4.308524E-18
3.510000E+03	9.454588E-17	4.598500E-18
3.520000E+03	1.004666E-16	4.932917E-18
3.530000E+03	1.067345E-16	5.314180E-18
3.540000E+03	1.133564E-16	5.743962E-18
3.550000E+03	1.203400E-16	6.223517E-18
3.560000E+03	1.276913E-16	6.753614E-18
3.570000E+03	1.354129E-16	7.334492E-18
3.580000E+03	1.435052E-16	7.965955E-18
3.590000E+03	1.519640E-16	8.647292E-18
3.600000E+03	1.607892E-16	9.377732E-18
3.610000E+03	1.699712E-16	1.015574E-17
3.620000E+03	1.795024E-16	1.097966E-17
3.630000E+03	1.893725E-16	1.184742E-17
3.640000E+03	1.995680E-16	1.275655E-17
3.650000E+03	2.100726E-16	1.370418E-17
3.660000E+03	2.208690E-16	1.468712E-17
3.670000E+03	2.319392E-16	1.570195E-17
3.680000E+03	2.432603E-16	1.674475E-17
3.690000E+03	2.548045E-16	1.781102E-17
3.700000E+03	2.665503E-16	1.889658E-17
3.710000E+03	2.784645E-16	1.999625E-17
3.720000E+03	2.905190E-16	2.110509E-17
3.730000E+03	3.026807E-16	2.221773E-17
3.740000E+03	3.149177E-16	2.332878E-17
3.750000E+03	3.271906E-16	2.443231E-17
3.760000E+03	3.394639E-16	2.552264E-17
3.770000E+03	3.517041E-16	2.659429E-17
3.780000E+03	3.638676E-16	2.764112E-17
3.790000E+03	3.759159E-16	2.865746E-17
3.800000E+03	3.878101E-16	2.963777E-17
3.810000E+03	3.995112E-16	3.057666E-17
3.820000E+03	4.109766E-16	3.146875E-17
3.830000E+03	4.221673E-16	3.230914E-17
3.840000E+03	4.330488E-16	3.309357E-17
3.850000E+03	4.435766E-16	3.381736E-17
3.860000E+03	4.537179E-16	3.447705E-17
3.870000E+03	4.634382E-16	3.506943E-17
3.880000E+03	4.727008E-16	3.559148E-17
3.890000E+03	4.814746E-16	3.604104E-17
3.900000E+03	4.897311E-16	3.641651E-17
3.910000E+03	4.974401E-16	3.671661E-17
3.920000E+03	5.045826E-16	3.694125E-17
3.930000E+03	5.111303E-16	3.709007E-17
3.940000E+03	5.170704E-16	3.716424E-17
3.950000E+03	5.223896E-16	3.716519E-17
3.960000E+03	5.270699E-16	3.709437E-17
3.970000E+03	5.311055E-16	3.695438E-17
3.980000E+03	5.344943E-16	3.674834E-17
3.990000E+03	5.372385E-16	3.647983E-17
4.000000E+03	5.393354E-16	3.615230E-17
4.010000E+03	5.407951E-16	3.577015E-17
4.020000E+03	5.416316E-16	3.533809E-17
4.030000E+03	5.418586E-16	3.486081E-17
4.040000E+03	5.414958E-16	3.434316E-17
4.050000E+03	5.405708E-16	3.379042E-17
4.060000E+03	5.391102E-16	3.320761E-17
4.070000E+03	5.371397E-16	3.259951E-17
4.080000E+03	5.347001E-16	3.197161E-17
4.090000E+03	5.318217E-16	3.132851E-17
4.100000E+03	5.285450E-16	3.067513E-17
4.110000E+03	5.249077E-16	3.001596E-17
4.120000E+03	5.209443E-16	2.935502E-17
4.130000E+03	5.167028E-16	2.869674E-17
4.140000E+03	5.122192E-16	2.804459E-17
4.150000E+03	5.075336E-16	2.740199E-17
4.160000E+03	5.026900E-16	2.677223E-17
4.170000E+03	4.977277E-16	2.615811E-17
4.180000E+03	4.926854E-16	2.556205E-17
4.190000E+03	4.876064E-16	2.498614E-17
4.200000E+03	4.825249E-16	2.443176E-17
4.210000E+03	4.774854E-16	2.390053E-17
4.220000E+03	4.725193E-16	2.339302E-17
4.230000E+03	4.676678E-16	2.291012E-17
4.240000E+03	4.629587E-16	2.245190E-17
4.250000E+03	4.584315E-16	2.201876E-17
4.260000E+03	4.541126E-16	2.161041E-17
4.270000E+03	4.500301E-16	2.122659E-17
4.280000E+03	4.462092E-16	2.086675E-17
4.290000E+03	4.426803E-16	2.053061E-17
4.300000E+03	4.394684E-16	2.021762E-17
4.310000E+03	4.365920E-16	1.992688E-17
4.320000E+03	4.340752E-16	1.965774E-17
4.330000E+03	4.319368E-16	1.940943E-17
4.340000E+03	4.301970E-16	1.918117E-17
4.350000E+03	4.288746E-16	1.897220E-17
4.360000E+03	4.279799E-16	1.878149E-17
4.370000E+03	4.275172E-16	1.860770E-17
4.380000E+03	4.274756E-16	1.844895E-17
4.390000E+03	4.278564E-16	1.830400E-17
4.400000E+03	4.286444E-16	1.817098E-17
4.410000E+03	4.298367E-16	1.804866E-17
4.420000E+03	4.314174E-16	1.793541E-17
4.430000E+03	4.333746E-16	1.782984E-17
4.440000E+03	4.356941E-16	1.773060E-17
4.450000E+03	4.383583E-16	1.763632E-17
4.460000E+03	4.413461E-16	1.754542E-17
4.470000E+03	4.446367E-16	1.745646E-17
4.480000E+03	4.482092E-16	1.736807E-17
4.490000E+03	4.520231E-16	1.727792E-17
4.500000E+03	4.560527E-16	1.718435E-17
4.510000E+03	4.602601E-16	1.708527E-17
4.520000E+03	4.645955E-16	1.697787E-17
4.530000E+03	4.690121E-16	1.685955E-17
4.540000E+03	4.734561E-16	1.672766E-17
4.550000E+03	4.778738E-16	1.657973E-17
4.560000E+03	4.822014E-16	1.641324E-17
4.570000E+03	4.863857E-16	1.622635E-17
4.580000E+03	4.903601E-16	1.601709E-17
4.590000E+03	4.940708E-16	1.578430E-17
4.600000E+03	4.974487E-16	1.552681E-17
4.610000E+03	5.004477E-16	1.524456E-17
4.620000E+03	5.030041E-16	1.493747E-17
4.630000E+03	5.050709E-16	1.460643E-17
4.640000E+03	5.066049E-16	1.425259E-17
4.650000E+03	5.075643E-16	1.387761E-17
4.660000E+03	5.079097E-16	1.348381E-17
4.670000E+03	5.076217E-16	1.307446E-17
4.680000E+03	5.066712E-16	1.265305E-17
4.690000E+03	5.050590E-16	1.222399E-17
4.700000E+03	5.027697E-16	1.179031E-17
4.710000E+03	4.998173E-16	1.135570E-17
4.720000E+03	4.962184E-16	1.092282E-17
4.730000E+03	4.920119E-16	1.049008E-17
4.740000E+03	4.872456E-16	1.005544E-17
4.750000E+03	4.819760E-16	9.617974E-18
4.760000E+03	4.762602E-16	9.177474E-18
4.770000E+03	4.701575E-16	8.735537E-18
4.780000E+03	4.637325E-16	8.296068E-18
4.790000E+03	4.570474E-16	7.865097E-18
4.800000E+03	4.501639E-16	7.451368E-18
4.810000E+03	4.431421E-16	7.066338E-18
4.820000E+03	4.360417E-16	6.723568E-18
4.830000E+03	4.289239E-16	6.438014E-18
4.840000E+03	4.218401E-16	6.223918E-18
4.850000E+03	4.148465E-16	6.091902E-18
4.860000E+03	4.079896E-16	6.045546E-18
4.870000E+03	4.013207E-16	6.079686E-18
4.880000E+03	3.948827E-16	6.181507E-18
4.890000E+03	3.887116E-16	6.334421E-18
4.900000E+03	3.828467E-16	6.521828E-18
4.910000E+03	3.773142E-16	6.728996E-18
4.920000E+03	3.721462E-16	6.944372E-18
4.930000E+03	3.673556E-16	7.159162E-18
4.940000E+03	3.629563E-16	7.367139E-18
4.950000E+03	3.589538E-16	7.564214E-18
4.960000E+03	3.553509E-16	7.748084E-18
4.970000E+03	3.521465E-16	7.917726E-18
4.980000E+03	3.493341E-16	8.073090E-18
4.990000E+03	3.469144E-16	8.215021E-18
5.000000E+03	3.448699E-16	8.344083E-18
5.010000E+03	3.431909E-16	8.461406E-18
5.020000E+03	3.418639E-16	8.568306E-18
5.030000E+03	3.408745E-16	8.665850E-18
5.040000E+03	3.402076E-16	8.755242E-18
5.050000E+03	3.398454E-16	8.837725E-18
5.060000E+03	3.397795E-16	8.914453E-18
5.070000E+03	3.399982E-16	8.986562E-18
5.080000E+03	3.404881E-16	9.055050E-18
5.090000E+03	3.412494E-16	9.120392E-18
5.100000E+03	3.422768E-16	9.182827E-18
5.110000E+03	3.435706E-16	9.242859E-18
5.120000E+03	3.451251E-16	9.300745E-18
5.130000E+03	3.469399E-16	9.357008E-18
5.140000E+03	3.490036E-16	9.411816E-18
5.150000E+03	3.513182E-16	9.464889E-18
5.160000E+03	3.538712E-16	9.515488E-18
5.170000E+03	3.566619E-16	9.563250E-18
5.180000E+03	3.596747E-16	9.607078E-18
5.190000E+03	3.629024E-16	9.646212E-18
5.200000E+03	3.663296E-16	9.679868E-18
5.210000E+03	3.699460E-16	9.707371E-18
5.220000E+03	3.737366E-16	9.728186E-18
5.230000E+03	3.776776E-16	9.741830E-18
5.240000E+03	3.817578E-16	9.748068E-18
5.250000E+03	3.859539E-16	9.746706E-18
5.260000E+03	3.902420E-16	9.737916E-18
5.270000E+03	3.946047E-16	9.722048E-18
5.280000E+03	3.990209E-16	9.699797E-18
5.290000E+03	4.034690E-16	9.672230E-18
5.300000E+03	4.079189E-16	9.639847E-18
5.310000E+03	4.123561E-16	9.603896E-18
5.320000E+03	4.167539E-16	9.565563E-18
5.330000E+03	4.210862E-16	9.525097E-18
5.340000E+03	4.253222E-16	9.482836E-18
5.350000E+03	4.294389E-16	9.439658E-18
5.360000E+03	4.334024E-16	9.395797E-18
5.370000E+03	4.371861E-16	9.351985E-18
5.380000E+03	4.407506E-16	9.308939E-18
5.390000E+03	4.440705E-16	9.266988E-18
5.400000E+03	4.471147E-16	9.226430E-18
5.410000E+03	4.498449E-16	9.187431E-18
5.420000E+03	4.522296E-16	9.149288E-18
5.430000E+03	4.542375E-16	9.111206E-18
5.440000E+03	4.558153E-16	9.072108E-18
5.450000E+03	4.569303E-16	9.031093E-18
5.460000E+03	4.575407E-16	8.987549E-18
5.470000E+03	4.576063E-16	8.941255E-18
5.480000E+03	4.571014E-16	8.891501E-18
5.490000E+03	4.560136E-16	8.838272E-18
5.500000E+03	4.543174E-16	8.781462E-18
5.510000E+03	4.520101E-16	8.719615E-18
5.520000E+03	4.491001E-16	8.651767E-18
5.530000E+03	4.455880E-16	8.577246E-18
5.540000E+03	4.414989E-16	8.494640E-18
5.550000E+03	4.368597E-16	8.403226E-18
5.560000E+03	4.317038E-16	8.303328E-18
5.570000E+03	4.260736E-16	8.195223E-18
5.580000E+03	4.200218E-16	8.080344E-18
5.590000E+03	4.136067E-16	7.961115E-18
5.600000E+03	4.069063E-16	7.839972E-18
5.610000E+03	3.999889E-16	7.719868E-18
5.620000E+03	3.929445E-16	7.604437E-18
5.630000E+03	3.858682E-16	7.495642E-18
5.640000E+03	3.788644E-16	7.395875E-18
5.650000E+03	3.720408E-16	7.308103E-18
5.660000E+03	3.654916E-16	7.234447E-18
5.670000E+03	3.593166E-16	7.177537E-18
5.680000E+03	3.536004E-16	7.139556E-18
5.690000E+03	3.484242E-16	7.120276E-18
5.700000E+03	3.438657E-16	7.119375E-18
5.710000E+03	3.399868E-16	7.136223E-18
5.720000E+03	3.368157E-16	7.167508E-18
5.730000E+03	3.343751E-16	7.209961E-18
5.740000E+03	3.326878E-16	7.261138E-18
5.750000E+03	3.317639E-16	7.318950E-18
5.760000E+03	3.316180E-16	7.382109E-18
5.770000E+03	3.322582E-16	7.449793E-18
5.780000E+03	3.336823E-16	7.521274E-18
5.790000E+03	3.358924E-16	7.596386E-18
5.800000E+03	3.388833E-16	7.675156E-18
5.810000E+03	3.426387E-16	7.757319E-18
5.820000E+03	3.471373E-16	7.842810E-18
5.830000E+03	3.523500E-16	7.931455E-18
5.840000E+03	3.582228E-16	8.021562E-18
5.850000E+03	3.646946E-16	8.111359E-18
5.860000E+03	3.716871E-16	8.198921E-18
5.870000E+03	3.791136E-16	8.281557E-18
5.880000E+03	3.868716E-16	8.356625E-18
5.890000E+03	3.948494E-16	8.421940E-18
5.900000E+03	4.029303E-16	8.475488E-18
5.910000E+03	4.109746E-16	8.515684E-18
5.920000E+03	4.188583E-16	8.542286E-18
5.930000E+03	4.264355E-16	8.555026E-18
5.940000E+03	4.335551E-16	8.554549E-18
5.950000E+03	4.400889E-16	8.542253E-18
5.960000E+03	4.459094E-16	8.517089E-18
5.970000E+03	4.509134E-16	8.478400E-18
5.980000E+03	4.550059E-16	8.426098E-18
5.990000E+03	4.581068E-16	8.359618E-18
6.000000E+03	4.601477E-16	8.278950E-18
6.010000E+03	4.610775E-16	8.184187E-18
6.020000E+03	4.608973E-16	8.073508E-18
6.030000E+03	4.596096E-16	7.944843E-18
6.040000E+03	4.572463E-16	7.796181E-18
6.050000E+03	4.538798E-16	7.622559E-18
6.060000E+03	4.495914E-16	7.419351E-18
6.070000E+03	4.444738E-16	7.183576E-18
6.080000E+03	4.386275E-16	6.913247E-18
6.090000E+03	4.321435E-16	6.608179E-18
6.100000E+03	4.251345E-16	6.270591E-18
6.110000E+03	4.176916E-16	5.903686E-18
6.120000E+03	4.099242E-16	5.513303E-18
6.130000E+03	4.019210E-16	5.107445E-18
6.140000E+03	3.937757E-16	4.695885E-18
6.150000E+03	3.855756E-16	4.292036E-18
6.160000E+03	3.774128E-16	3.913764E-18
6.170000E+03	3.693643E-16	3.582089E-18
6.180000E+03	3.615041E-16	3.322230E-18
6.190000E+03	3.538800E-16	3.159363E-18
6.200000E+03	3.465440E-16	3.109250E-18
6.210000E+03	3.395327E-16	3.168917E-18
6.220000E+03	3.328633E-16	3.316662E-18
6.230000E+03	3.265376E-16	3.522125E-18
6.240000E+03	3.205678E-16	3.757028E-18
6.250000E+03	3.149423E-16	3.999367E-18
6.260000E+03	3.096561E-16	4.233719E-18
6.270000E+03	3.047057E-16	4.450179E-18
6.280000E+03	3.000720E-16	4.642634E-18
6.290000E+03	2.957522E-16	4.807811E-18
6.300000E+03	2.917251E-16	4.944097E-18
6.310000E+03	2.879810E-16	5.051376E-18
6.320000E+03	2.845021E-16	5.130037E-18
6.330000E+03	2.812742E-16	5.181230E-18
6.340000E+03	2.782827E-16	5.206649E-18
6.350000E+03	2.755136E-16	5.208160E-18
6.360000E+03	2.729530E-16	5.188086E-18
6.370000E+03	2.705831E-16	5.149176E-18
6.380000E+03	2.683910E-16	5.094570E-18
6.390000E+03	2.663604E-16	5.027928E-18
6.400000E+03	2.644837E-16	4.953709E-18
6.410000E+03	2.627508E-16	4.876765E-18
6.420000E+03	2.611527E-16	4.802611E-18
6.430000E+03	2.596783E-16	4.737102E-18
6.440000E+03	2.583272E-16	4.685772E-18
6.450000E+03	2.571006E-16	4.654143E-18
6.460000E+03	2.559914E-16	4.646119E-18
6.470000E+03	2.550169E-16	4.660458E-18
6.480000E+03	2.541856E-16	4.694358E-18
6.490000E+03	2.535062E-16	4.744846E-18
6.500000E+03	2.529939E-16	4.807954E-18
6.510000E+03	2.526597E-16	4.879961E-18
6.520000E+03	2.525071E-16	4.957686E-18
6.530000E+03	2.525473E-16	5.038357E-18
6.540000E+03	2.527874E-16	5.119849E-18
6.550000E+03	2.532340E-16	5.200805E-18
6.560000E+03	2.538837E-16	5.280127E-18
6.570000E+03	2.547480E-16	5.357626E-18
6.580000E+03	2.558203E-16	5.433020E-18
6.590000E+03	2.570979E-16	5.505500E-18
6.600000E+03	2.585671E-16	5.574169E-18
6.610000E+03	2.602166E-16	5.638488E-18
6.620000E+03	2.620352E-16	5.697990E-18
6.630000E+03	2.640015E-16	5.752260E-18
6.640000E+03	2.660911E-16	5.801013E-18
6.650000E+03	2.682860E-16	5.843821E-18
6.660000E+03	2.705484E-16	5.879987E-18
6.670000E+03	2.728467E-16	5.909113E-18
6.680000E+03	2.751541E-16	5.930500E-18
6.690000E+03	2.774243E-16	5.943180E-18
6.700000E+03	2.796242E-16	5.946409E-18
6.710000E+03	2.817134E-16	5.937986E-18
6.720000E+03	2.836616E-16	5.915939E-18
6.730000E+03	2.854307E-16	5.878603E-18
6.740000E+03	2.869950E-16	5.824928E-18
6.750000E+03	2.883216E-16	5.754426E-18
6.760000E+03	2.893907E-16	5.667683E-18
6.770000E+03	2.901770E-16	5.565815E-18
6.780000E+03	2.906692E-16	5.451162E-18
6.790000E+03	2.908560E-16	5.326881E-18
6.800000E+03	2.907299E-16	5.196251E-18
6.810000E+03	2.902984E-16	5.063640E-18
6.820000E+03	2.895650E-16	4.934003E-18
6.830000E+03	2.885534E-16	4.812159E-18
6.840000E+03	2.872876E-16	4.703182E-18
6.850000E+03	2.857904E-16	4.612210E-18
6.860000E+03	2.840997E-16	4.543786E-18
6.870000E+03	2.822518E-16	4.501053E-18
6.880000E+03	2.802846E-16	4.485180E-18
6.890000E+03	2.782335E-16	4.495049E-18
6.900000E+03	2.761496E-16	4.528378E-18
6.910000E+03	2.740637E-16	4.581818E-18
6.920000E+03	2.720198E-16	4.651611E-18
6.930000E+03	2.700554E-16	4.734350E-18
6.940000E+03	2.682027E-16	4.826904E-18
6.950000E+03	2.664748E-16	4.924732E-18
6.960000E+03	2.648795E-16	5.023792E-18
6.970000E+03	2.634226E-16	5.121005E-18
6.980000E+03	2.621084E-16	5.213813E-18
6.990000E+03	2.609246E-16	5.300191E-18
7.000000E+03	2.598772E-16	5.379300E-18
7.010000E+03	2.589544E-16	5.450449E-18
7.020000E+03	2.581485E-16	5.513657E-18
7.030000E+03	2.574505E-16	5.569448E-18
7.040000E+03	2.568541E-16	5.618519E-18
7.050000E+03	2.563423E-16	5.661742E-18
7.060000E+03	2.559073E-16	5.700508E-18
7.070000E+03	2.555298E-16	5.735729E-18
7.080000E+03	2.552004E-16	5.768770E-18
7.090000E+03	2.548994E-16	5.801033E-18
7.100000E+03	2.546177E-16	5.834071E-18
7.110000E+03	2.543414E-16	5.869462E-18
7.120000E+03	2.540577E-16	5.908425E-18
7.130000E+03	2.537572E-16	5.950254E-18
7.140000E+03	2.534266E-16	5.993751E-18
7.150000E+03	2.530686E-16	6.038170E-18
7.160000E+03	2.526716E-16	6.082205E-18
7.170000E+03	2.522302E-16	6.124838E-18
7.180000E+03	2.517396E-16	6.165109E-18
7.190000E+03	2.512022E-16	6.201570E-18
7.200000E+03	2.506158E-16	6.232756E-18
7.210000E+03	2.499739E-16	6.257405E-18
7.220000E+03	2.492816E-16	6.274750E-18
7.230000E+03	2.485340E-16	6.284107E-18
7.240000E+03	2.477425E-16	6.285457E-18
7.250000E+03	2.468982E-16	6.278215E-18
7.260000E+03	2.460135E-16	6.262573E-18
7.270000E+03	2.450798E-16	6.238364E-18
7.280000E+03	2.441078E-16	6.205681E-18
7.290000E+03	2.430924E-16	6.164399E-18
7.300000E+03	2.420340E-16	6.114788E-18
7.310000E+03	2.409324E-16	6.057153E-18
7.320000E+03	2.397881E-16	5.992077E-18
7.330000E+03	2.386015E-16	5.920410E-18
7.340000E+03	2.373689E-16	5.842868E-18
7.350000E+03	2.360920E-16	5.760551E-18
7.360000E+03	2.347732E-16	5.674760E-18
7.370000E+03	2.334167E-16	5.586612E-18
7.380000E+03	2.320116E-16	5.496992E-18
7.390000E+03	2.305738E-16	5.407398E-18
7.400000E+03	2.290965E-16	5.317957E-18
7.410000E+03	2.275893E-16	5.229106E-18
7.420000E+03	2.260562E-16	5.141080E-18
7.430000E+03	2.245075E-16	5.053441E-18
7.440000E+03	2.229478E-16	4.965560E-18
7.450000E+03	2.214065E-16	4.877272E-18
7.460000E+03	2.198851E-16	4.786930E-18
7.470000E+03	2.183939E-16	4.693072E-18
7.480000E+03	2.169462E-16	4.594273E-18
7.490000E+03	2.155391E-16	4.487924E-18
7.500000E+03	2.141723E-16	4.371610E-18
7.510000E+03	2.128394E-16	4.243206E-18
7.520000E+03	2.115309E-16	4.100826E-18
7.530000E+03	2.102463E-16	3.943358E-18
7.540000E+03	2.089635E-16	3.769992E-18
7.550000E+03	2.076771E-16	3.580920E-18
7.560000E+03	2.063655E-16	3.377137E-18
7.570000E+03	2.050069E-16	3.161094E-18
7.580000E+03	2.035928E-16	2.937229E-18
7.590000E+03	2.021004E-16	2.712253E-18
7.600000E+03	2.005128E-16	2.496270E-18
7.610000E+03	1.988105E-16	2.303264E-18
7.620000E+03	1.969918E-16	2.151112E-18
7.630000E+03	1.950386E-16	2.058612E-18
7.640000E+03	1.929480E-16	2.039936E-18
7.650000E+03	1.907278E-16	2.097844E-18
7.660000E+03	1.883864E-16	2.222186E-18
7.670000E+03	1.859317E-16	2.395375E-18
7.680000E+03	1.833845E-16	2.599374E-18
7.690000E+03	1.807578E-16	2.819205E-18
7.700000E+03	1.780697E-16	3.043920E-18
7.710000E+03	1.753428E-16	3.266162E-18
7.720000E+03	1.725901E-16	3.481087E-18
7.730000E+03	1.698324E-16	3.685904E-18
7.740000E+03	1.670801E-16	3.879028E-18
7.750000E+03	1.643514E-16	4.060071E-18
7.760000E+03	1.616583E-16	4.229223E-18
