#wls	flux	fluxerr
1.600000E+03	5.159292E-19	3.967008E-19
1.640000E+03	5.076619E-19	3.862867E-19
1.680000E+03	5.001202E-19	3.764562E-19
1.720000E+03	4.933063E-19	3.671973E-19
1.760000E+03	4.874146E-19	3.586382E-19
1.800000E+03	4.823523E-19	3.506911E-19
1.840000E+03	4.782203E-19	3.434096E-19
1.880000E+03	4.749362E-19	3.367127E-19
1.920000E+03	4.726080E-19	3.306552E-19
1.960000E+03	4.712554E-19	3.252259E-19
2.000000E+03	4.709948E-19	3.204776E-19
2.040000E+03	4.718579E-19	3.164010E-19
2.080000E+03	4.738847E-19	3.129901E-19
2.120000E+03	4.771240E-19	3.102418E-19
2.160000E+03	4.816350E-19	3.081570E-19
2.200000E+03	4.876709E-19	3.068551E-19
2.240000E+03	4.951345E-19	3.062269E-19
2.280000E+03	5.042172E-19	3.063421E-19
2.320000E+03	5.151311E-19	3.072733E-19
2.360000E+03	5.279225E-19	3.089859E-19
2.400000E+03	5.427522E-19	3.115081E-19
2.440000E+03	5.599060E-19	3.149303E-19
2.480000E+03	5.795054E-19	3.192390E-19
2.520000E+03	6.019045E-19	3.245402E-19
2.560000E+03	6.274015E-19	3.308934E-19
2.600000E+03	6.562316E-19	3.383122E-19
2.640000E+03	6.890092E-19	3.469902E-19
2.680000E+03	7.262059E-19	3.570229E-19
2.720000E+03	7.682459E-19	3.684620E-19
2.760000E+03	8.158726E-19	3.814904E-19
2.800000E+03	8.699468E-19	3.963123E-19
2.840000E+03	9.313288E-19	4.130946E-19
2.880000E+03	1.001306E-18	4.321528E-19
2.920000E+03	1.081072E-18	4.537097E-19
2.960000E+03	1.172499E-18	4.782160E-19
3.000000E+03	1.277266E-18	5.059697E-19
3.010000E+03	1.305934E-18	5.135210E-19
3.020000E+03	1.335447E-18	5.212454E-19
3.030000E+03	1.366198E-18	5.292887E-19
3.040000E+03	1.398048E-18	5.375874E-19
3.050000E+03	1.431034E-18	5.461478E-19
3.060000E+03	1.465196E-18	5.549764E-19
3.070000E+03	1.500771E-18	5.641530E-19
3.080000E+03	1.537613E-18	5.736125E-19
3.090000E+03	1.575765E-18	5.833616E-19
3.100000E+03	1.615274E-18	5.934073E-19
3.110000E+03	1.656604E-18	6.039093E-19
3.120000E+03	1.699189E-18	6.146483E-19
3.130000E+03	1.743717E-18	6.258627E-19
3.140000E+03	1.789602E-18	6.373290E-19
3.150000E+03	1.837561E-18	6.492907E-19
3.160000E+03	1.887216E-18	6.615998E-19
3.170000E+03	1.939090E-18	6.744265E-19
3.180000E+03	1.992796E-18	6.876198E-19
3.190000E+03	2.048636E-18	7.012706E-19
3.200000E+03	2.106687E-18	7.153896E-19
3.210000E+03	2.167282E-18	7.300723E-19
3.220000E+03	2.230004E-18	7.451611E-19
3.230000E+03	2.295445E-18	7.608374E-19
3.240000E+03	2.363709E-18	7.771152E-19
3.250000E+03	2.434628E-18	7.939197E-19
3.260000E+03	2.508295E-18	8.112620E-19
3.270000E+03	2.585089E-18	8.292438E-19
3.280000E+03	2.665124E-18	8.478790E-19
3.290000E+03	2.748223E-18	8.670888E-19
3.300000E+03	2.835090E-18	8.870718E-19
3.310000E+03	2.925560E-18	9.077498E-19
3.320000E+03	3.019448E-18	9.290400E-19
3.330000E+03	3.117822E-18	9.512447E-19
3.340000E+03	3.219877E-18	9.740877E-19
3.350000E+03	3.326394E-18	9.977780E-19
3.360000E+03	3.437194E-18	1.022230E-18
3.370000E+03	3.553111E-18	1.047660E-18
3.380000E+03	3.673624E-18	1.073879E-18
3.390000E+03	3.799243E-18	1.101002E-18
3.400000E+03	3.930139E-18	1.129043E-18
3.410000E+03	4.066487E-18	1.158014E-18
3.420000E+03	4.208850E-18	1.188035E-18
3.430000E+03	4.357037E-18	1.219010E-18
3.440000E+03	4.511632E-18	1.251060E-18
3.450000E+03	4.672845E-18	1.284197E-18
3.460000E+03	4.840466E-18	1.318317E-18
3.470000E+03	5.015537E-18	1.353655E-18
3.480000E+03	5.197862E-18	1.390106E-18
3.490000E+03	5.387654E-18	1.427676E-18
3.500000E+03	5.585128E-18	1.466366E-18
3.510000E+03	5.790963E-18	1.506300E-18
3.520000E+03	6.005401E-18	1.547478E-18
3.530000E+03	6.228681E-18	1.589902E-18
3.540000E+03	6.461043E-18	1.633568E-18
3.550000E+03	6.703228E-18	1.678596E-18
3.560000E+03	6.954470E-18	1.724726E-18
3.570000E+03	7.216016E-18	1.772200E-18
3.580000E+03	7.488121E-18	1.821004E-18
3.590000E+03	7.771035E-18	1.871124E-18
3.600000E+03	8.064998E-18	1.922538E-18
3.610000E+03	8.370246E-18	1.975222E-18
3.620000E+03	8.687582E-18	2.029282E-18
3.630000E+03	9.016661E-18	2.084552E-18
3.640000E+03	9.358290E-18	2.141132E-18
3.650000E+03	9.712690E-18	2.198980E-18
3.660000E+03	1.007944E-17	2.257913E-18
3.670000E+03	1.045998E-17	2.318157E-18
3.680000E+03	1.085452E-17	2.379661E-18
3.690000E+03	1.126191E-17	2.442080E-18
3.700000E+03	1.168429E-17	2.505775E-18
3.710000E+03	1.212046E-17	2.570389E-18
3.720000E+03	1.257191E-17	2.636136E-18
3.730000E+03	1.303735E-17	2.702643E-18
3.740000E+03	1.351825E-17	2.770115E-18
3.750000E+03	1.401397E-17	2.838313E-18
3.760000E+03	1.452526E-17	2.907288E-18
3.770000E+03	1.505213E-17	2.976937E-18
3.780000E+03	1.559379E-17	3.047006E-18
3.790000E+03	1.615173E-17	3.117680E-18
3.800000E+03	1.672430E-17	3.188544E-18
3.810000E+03	1.731294E-17	3.259779E-18
3.820000E+03	1.791672E-17	3.331112E-18
3.830000E+03	1.853626E-17	3.402567E-18
3.840000E+03	1.917135E-17	3.474015E-18
3.850000E+03	1.982089E-17	3.545175E-18
3.860000E+03	2.048544E-17	3.616067E-18
3.870000E+03	2.116466E-17	3.686558E-18
3.880000E+03	2.185731E-17	3.756366E-18
3.890000E+03	2.256474E-17	3.825661E-18
3.900000E+03	2.328565E-17	3.894164E-18
3.910000E+03	2.402047E-17	3.961897E-18
3.920000E+03	2.476691E-17	4.028439E-18
3.930000E+03	2.552625E-17	4.093970E-18
3.940000E+03	2.629703E-17	4.158227E-18
3.950000E+03	2.707867E-17	4.221104E-18
3.960000E+03	2.787153E-17	4.282648E-18
3.970000E+03	2.867406E-17	4.342618E-18
3.980000E+03	2.948565E-17	4.400932E-18
3.990000E+03	3.030663E-17	4.457659E-18
4.000000E+03	3.113444E-17	4.512449E-18
4.010000E+03	3.197043E-17	4.565531E-18
4.020000E+03	3.281300E-17	4.616721E-18
4.030000E+03	3.366057E-17	4.665848E-18
4.040000E+03	3.451456E-17	4.713169E-18
4.050000E+03	3.537244E-17	4.758402E-18
4.060000E+03	3.623470E-17	4.801685E-18
4.070000E+03	3.709986E-17	4.842902E-18
4.080000E+03	3.796752E-17	4.882081E-18
4.090000E+03	3.883728E-17	4.919262E-18
4.100000E+03	3.970885E-17	4.954496E-18
4.110000E+03	4.058094E-17	4.987718E-18
4.120000E+03	4.145337E-17	5.019002E-18
4.130000E+03	4.232603E-17	5.048431E-18
4.140000E+03	4.319887E-17	5.076095E-18
4.150000E+03	4.407091E-17	5.101974E-18
4.160000E+03	4.494122E-17	5.126056E-18
4.170000E+03	4.581103E-17	5.148575E-18
4.180000E+03	4.667855E-17	5.169421E-18
4.190000E+03	4.754519E-17	5.188833E-18
4.200000E+03	4.841035E-17	5.206828E-18
4.210000E+03	4.927351E-17	5.223426E-18
4.220000E+03	5.013529E-17	5.238763E-18
4.230000E+03	5.099533E-17	5.252865E-18
4.240000E+03	5.185335E-17	5.265765E-18
4.250000E+03	5.271119E-17	5.277700E-18
4.260000E+03	5.356768E-17	5.288596E-18
4.270000E+03	5.442377E-17	5.298583E-18
4.280000E+03	5.527836E-17	5.307586E-18
4.290000E+03	5.613354E-17	5.315830E-18
4.300000E+03	5.698832E-17	5.323235E-18
4.310000E+03	5.784378E-17	5.329915E-18
4.320000E+03	5.870001E-17	5.335881E-18
4.330000E+03	5.955608E-17	5.341047E-18
4.340000E+03	6.041310E-17	5.345510E-18
4.350000E+03	6.127217E-17	5.349355E-18
4.360000E+03	6.213232E-17	5.352481E-18
4.370000E+03	6.299356E-17	5.354872E-18
4.380000E+03	6.385585E-17	5.356506E-18
4.390000E+03	6.471907E-17	5.357355E-18
4.400000E+03	6.558408E-17	5.357466E-18
4.410000E+03	6.644956E-17	5.356709E-18
4.420000E+03	6.731515E-17	5.355036E-18
4.430000E+03	6.818138E-17	5.352468E-18
4.440000E+03	6.904658E-17	5.348858E-18
4.450000E+03	6.991205E-17	5.344292E-18
4.460000E+03	7.077584E-17	5.338606E-18
4.470000E+03	7.163894E-17	5.331865E-18
4.480000E+03	7.250009E-17	5.323968E-18
4.490000E+03	7.335889E-17	5.314883E-18
4.500000E+03	7.421478E-17	5.304568E-18
4.510000E+03	7.506805E-17	5.293047E-18
4.520000E+03	7.591564E-17	5.280116E-18
4.530000E+03	7.675852E-17	5.265857E-18
4.540000E+03	7.759433E-17	5.250129E-18
4.550000E+03	7.842262E-17	5.232929E-18
4.560000E+03	7.924175E-17	5.214184E-18
4.570000E+03	8.004989E-17	5.193817E-18
4.580000E+03	8.084508E-17	5.171757E-18
4.590000E+03	8.162630E-17	5.148006E-18
4.600000E+03	8.239139E-17	5.122505E-18
4.610000E+03	8.313809E-17	5.095207E-18
4.620000E+03	8.386410E-17	5.066082E-18
4.630000E+03	8.456926E-17	5.035248E-18
4.640000E+03	8.524914E-17	5.002588E-18
4.650000E+03	8.590366E-17	4.968267E-18
4.660000E+03	8.653069E-17	4.932355E-18
4.670000E+03	8.712824E-17	4.894953E-18
4.680000E+03	8.769448E-17	4.856203E-18
4.690000E+03	8.822781E-17	4.816284E-18
4.700000E+03	8.872902E-17	4.775536E-18
4.710000E+03	8.919486E-17	4.734102E-18
4.720000E+03	8.962673E-17	4.692402E-18
4.730000E+03	9.002200E-17	4.650662E-18
4.740000E+03	9.038385E-17	4.609428E-18
4.750000E+03	9.071037E-17	4.568995E-18
4.760000E+03	9.100220E-17	4.529794E-18
4.770000E+03	9.126145E-17	4.492329E-18
4.780000E+03	9.149058E-17	4.457103E-18
4.790000E+03	9.169023E-17	4.424513E-18
4.800000E+03	9.186245E-17	4.394992E-18
4.810000E+03	9.201175E-17	4.369048E-18
4.820000E+03	9.214074E-17	4.347045E-18
4.830000E+03	9.225117E-17	4.329243E-18
4.840000E+03	9.234822E-17	4.315993E-18
4.850000E+03	9.243502E-17	4.307466E-18
4.860000E+03	9.251480E-17	4.303749E-18
4.870000E+03	9.259187E-17	4.304876E-18
4.880000E+03	9.266945E-17	4.310738E-18
4.890000E+03	9.275176E-17	4.321202E-18
4.900000E+03	9.284084E-17	4.335976E-18
4.910000E+03	9.294179E-17	4.354875E-18
4.920000E+03	9.305638E-17	4.377534E-18
4.930000E+03	9.318728E-17	4.403618E-18
4.940000E+03	9.333908E-17	4.432888E-18
4.950000E+03	9.351192E-17	4.464903E-18
4.960000E+03	9.370994E-17	4.499435E-18
4.970000E+03	9.393491E-17	4.536168E-18
4.980000E+03	9.418732E-17	4.574756E-18
4.990000E+03	9.446948E-17	4.614973E-18
5.000000E+03	9.478242E-17	4.656570E-18
5.010000E+03	9.512687E-17	4.699318E-18
5.020000E+03	9.550442E-17	4.743064E-18
5.030000E+03	9.591429E-17	4.787573E-18
5.040000E+03	9.635650E-17	4.832684E-18
5.050000E+03	9.683304E-17	4.878360E-18
5.060000E+03	9.734036E-17	4.924317E-18
5.070000E+03	9.788112E-17	4.970607E-18
5.080000E+03	9.845357E-17	5.017079E-18
5.090000E+03	9.905583E-17	5.063597E-18
5.100000E+03	9.968802E-17	5.110140E-18
5.110000E+03	1.003502E-16	5.156699E-18
5.120000E+03	1.010390E-16	5.203104E-18
5.130000E+03	1.017543E-16	5.249358E-18
5.140000E+03	1.024960E-16	5.295470E-18
5.150000E+03	1.032604E-16	5.341278E-18
5.160000E+03	1.040485E-16	5.386853E-18
5.170000E+03	1.048575E-16	5.432092E-18
5.180000E+03	1.056860E-16	5.476953E-18
5.190000E+03	1.065322E-16	5.521387E-18
5.200000E+03	1.073946E-16	5.565348E-18
5.210000E+03	1.082723E-16	5.608843E-18
5.220000E+03	1.091612E-16	5.651702E-18
5.230000E+03	1.100616E-16	5.693986E-18
5.240000E+03	1.109699E-16	5.735577E-18
5.250000E+03	1.118840E-16	5.776412E-18
5.260000E+03	1.127999E-16	5.816364E-18
5.270000E+03	1.137174E-16	5.855487E-18
5.280000E+03	1.146323E-16	5.893652E-18
5.290000E+03	1.155415E-16	5.930789E-18
5.300000E+03	1.164405E-16	5.966765E-18
5.310000E+03	1.173268E-16	6.001573E-18
5.320000E+03	1.181980E-16	6.035208E-18
5.330000E+03	1.190477E-16	6.067479E-18
5.340000E+03	1.198718E-16	6.098323E-18
5.350000E+03	1.206675E-16	6.127742E-18
5.360000E+03	1.214304E-16	6.155682E-18
5.370000E+03	1.221562E-16	6.182088E-18
5.380000E+03	1.228380E-16	6.206781E-18
5.390000E+03	1.234742E-16	6.229839E-18
5.400000E+03	1.240604E-16	6.251212E-18
5.410000E+03	1.245915E-16	6.270781E-18
5.420000E+03	1.250623E-16	6.288425E-18
5.430000E+03	1.254722E-16	6.304202E-18
5.440000E+03	1.258166E-16	6.317975E-18
5.450000E+03	1.260931E-16	6.329668E-18
5.460000E+03	1.262982E-16	6.339142E-18
5.470000E+03	1.264314E-16	6.346389E-18
5.480000E+03	1.264906E-16	6.351279E-18
5.490000E+03	1.264765E-16	6.353819E-18
5.500000E+03	1.263893E-16	6.353961E-18
5.510000E+03	1.262287E-16	6.351611E-18
5.520000E+03	1.259962E-16	6.346752E-18
5.530000E+03	1.256953E-16	6.339452E-18
5.540000E+03	1.253291E-16	6.329739E-18
5.550000E+03	1.248998E-16	6.317600E-18
5.560000E+03	1.244118E-16	6.303114E-18
5.570000E+03	1.238725E-16	6.286512E-18
5.580000E+03	1.232849E-16	6.267804E-18
5.590000E+03	1.226563E-16	6.247214E-18
5.600000E+03	1.219932E-16	6.224933E-18
5.610000E+03	1.213014E-16	6.201118E-18
5.620000E+03	1.205905E-16	6.176130E-18
5.630000E+03	1.198668E-16	6.150169E-18
5.640000E+03	1.191381E-16	6.123513E-18
5.650000E+03	1.184121E-16	6.096450E-18
5.660000E+03	1.176967E-16	6.069279E-18
5.670000E+03	1.169998E-16	6.042296E-18
5.680000E+03	1.163288E-16	6.015799E-18
5.690000E+03	1.156901E-16	5.990016E-18
5.700000E+03	1.150931E-16	5.965335E-18
5.710000E+03	1.145421E-16	5.941893E-18
5.720000E+03	1.140446E-16	5.919976E-18
5.730000E+03	1.136051E-16	5.899726E-18
5.740000E+03	1.132299E-16	5.881365E-18
5.750000E+03	1.129222E-16	5.864963E-18
5.760000E+03	1.126860E-16	5.850606E-18
5.770000E+03	1.125251E-16	5.838393E-18
5.780000E+03	1.124406E-16	5.828261E-18
5.790000E+03	1.124327E-16	5.820101E-18
5.800000E+03	1.125027E-16	5.813863E-18
5.810000E+03	1.126501E-16	5.809393E-18
5.820000E+03	1.128722E-16	5.806425E-18
5.830000E+03	1.131673E-16	5.804759E-18
5.840000E+03	1.135308E-16	5.804028E-18
5.850000E+03	1.139568E-16	5.803821E-18
5.860000E+03	1.144418E-16	5.803848E-18
5.870000E+03	1.149780E-16	5.803611E-18
5.880000E+03	1.155567E-16	5.802576E-18
5.890000E+03	1.161691E-16	5.800235E-18
5.900000E+03	1.168071E-16	5.796115E-18
5.910000E+03	1.174594E-16	5.789618E-18
5.920000E+03	1.181153E-16	5.780198E-18
5.930000E+03	1.187637E-16	5.767320E-18
5.940000E+03	1.193921E-16	5.750410E-18
5.950000E+03	1.199903E-16	5.729042E-18
5.960000E+03	1.205470E-16	5.702781E-18
5.970000E+03	1.210502E-16	5.671194E-18
5.980000E+03	1.214885E-16	5.633930E-18
5.990000E+03	1.218562E-16	5.590935E-18
6.000000E+03	1.221414E-16	5.541935E-18
6.010000E+03	1.223370E-16	5.486925E-18
6.020000E+03	1.224401E-16	5.426124E-18
6.030000E+03	1.224453E-16	5.359717E-18
6.040000E+03	1.223493E-16	5.288015E-18
6.050000E+03	1.221517E-16	5.211512E-18
6.060000E+03	1.218559E-16	5.130926E-18
6.070000E+03	1.214614E-16	5.046842E-18
6.080000E+03	1.209753E-16	4.960206E-18
6.090000E+03	1.204034E-16	4.871959E-18
6.100000E+03	1.197510E-16	4.783031E-18
6.110000E+03	1.190289E-16	4.694602E-18
6.120000E+03	1.182440E-16	4.607710E-18
6.130000E+03	1.174076E-16	4.523545E-18
6.140000E+03	1.165290E-16	4.443195E-18
6.150000E+03	1.156176E-16	4.367711E-18
6.160000E+03	1.146839E-16	4.298113E-18
6.170000E+03	1.137381E-16	4.235311E-18
6.180000E+03	1.127877E-16	4.179991E-18
6.190000E+03	1.118426E-16	4.132777E-18
6.200000E+03	1.109100E-16	4.093987E-18
6.210000E+03	1.099999E-16	4.063812E-18
6.220000E+03	1.091172E-16	4.041988E-18
6.230000E+03	1.082688E-16	4.028151E-18
6.240000E+03	1.074581E-16	4.021709E-18
6.250000E+03	1.066879E-16	4.021973E-18
6.260000E+03	1.059609E-16	4.028234E-18
6.270000E+03	1.052779E-16	4.039720E-18
6.280000E+03	1.046387E-16	4.055662E-18
6.290000E+03	1.040427E-16	4.075307E-18
6.300000E+03	1.034904E-16	4.098020E-18
6.310000E+03	1.029779E-16	4.123047E-18
6.320000E+03	1.025048E-16	4.149843E-18
6.330000E+03	1.020672E-16	4.177792E-18
6.340000E+03	1.016632E-16	4.206412E-18
6.350000E+03	1.012904E-16	4.235272E-18
6.360000E+03	1.009436E-16	4.263864E-18
6.370000E+03	1.006215E-16	4.291896E-18
6.380000E+03	1.003197E-16	4.318992E-18
6.390000E+03	1.000374E-16	4.344951E-18
6.400000E+03	9.977050E-17	4.369480E-18
6.410000E+03	9.951758E-17	4.392413E-18
6.420000E+03	9.927535E-17	4.413531E-18
6.430000E+03	9.904297E-17	4.432738E-18
6.440000E+03	9.882000E-17	4.449970E-18
6.450000E+03	9.860436E-17	4.465101E-18
6.460000E+03	9.839544E-17	4.478074E-18
6.470000E+03	9.819508E-17	4.488952E-18
6.480000E+03	9.800142E-17	4.497629E-18
6.490000E+03	9.781607E-17	4.504156E-18
6.500000E+03	9.764094E-17	4.508598E-18
6.510000E+03	9.747723E-17	4.510984E-18
6.520000E+03	9.732640E-17	4.511348E-18
6.530000E+03	9.718902E-17	4.509679E-18
6.540000E+03	9.706994E-17	4.506158E-18
6.550000E+03	9.696786E-17	4.500674E-18
6.560000E+03	9.688767E-17	4.493399E-18
6.570000E+03	9.682903E-17	4.484256E-18
6.580000E+03	9.679561E-17	4.473349E-18
6.590000E+03	9.678775E-17	4.460626E-18
6.600000E+03	9.680764E-17	4.446121E-18
6.610000E+03	9.685506E-17	4.429756E-18
6.620000E+03	9.693155E-17	4.411539E-18
6.630000E+03	9.703719E-17	4.391422E-18
6.640000E+03	9.717058E-17	4.369300E-18
6.650000E+03	9.733305E-17	4.345207E-18
6.660000E+03	9.752227E-17	4.319038E-18
6.670000E+03	9.773651E-17	4.290741E-18
6.680000E+03	9.797352E-17	4.260280E-18
6.690000E+03	9.823169E-17	4.227688E-18
6.700000E+03	9.850678E-17	4.192937E-18
6.710000E+03	9.879630E-17	4.156134E-18
6.720000E+03	9.909518E-17	4.117348E-18
6.730000E+03	9.940022E-17	4.076805E-18
6.740000E+03	9.970680E-17	4.034762E-18
6.750000E+03	1.000101E-16	3.991562E-18
6.760000E+03	1.003041E-16	3.947604E-18
6.770000E+03	1.005847E-16	3.903480E-18
6.780000E+03	1.008482E-16	3.859889E-18
6.790000E+03	1.010874E-16	3.817504E-18
6.800000E+03	1.012985E-16	3.777230E-18
6.810000E+03	1.014785E-16	3.740049E-18
6.820000E+03	1.016209E-16	3.706867E-18
6.830000E+03	1.017246E-16	3.678779E-18
6.840000E+03	1.017855E-16	3.656710E-18
6.850000E+03	1.018015E-16	3.641531E-18
6.860000E+03	1.017724E-16	3.633976E-18
6.870000E+03	1.016969E-16	3.634423E-18
6.880000E+03	1.015764E-16	3.642900E-18
6.890000E+03	1.014135E-16	3.659025E-18
6.900000E+03	1.012134E-16	3.682170E-18
6.910000E+03	1.009795E-16	3.711439E-18
6.920000E+03	1.007169E-16	3.745880E-18
6.930000E+03	1.004321E-16	3.784553E-18
6.940000E+03	1.001296E-16	3.826449E-18
6.950000E+03	9.981496E-17	3.870663E-18
6.960000E+03	9.949373E-17	3.916369E-18
6.970000E+03	9.917237E-17	3.962887E-18
6.980000E+03	9.885470E-17	4.009550E-18
6.990000E+03	9.854534E-17	4.055837E-18
7.000000E+03	9.824848E-17	4.101328E-18
7.010000E+03	9.796780E-17	4.145690E-18
7.020000E+03	9.770647E-17	4.188670E-18
7.030000E+03	9.746711E-17	4.230084E-18
7.040000E+03	9.725058E-17	4.269750E-18
7.050000E+03	9.706071E-17	4.307689E-18
7.060000E+03	9.689606E-17	4.343748E-18
7.070000E+03	9.675819E-17	4.377957E-18
7.080000E+03	9.664693E-17	4.410312E-18
7.090000E+03	9.656046E-17	4.440769E-18
7.100000E+03	9.649768E-17	4.469338E-18
7.110000E+03	9.645824E-17	4.496089E-18
7.120000E+03	9.643906E-17	4.520977E-18
7.130000E+03	9.643792E-17	4.544007E-18
7.140000E+03	9.645231E-17	4.565175E-18
7.150000E+03	9.647949E-17	4.584469E-18
7.160000E+03	9.651655E-17	4.601865E-18
7.170000E+03	9.656045E-17	4.617328E-18
7.180000E+03	9.660684E-17	4.630755E-18
7.190000E+03	9.665376E-17	4.642143E-18
7.200000E+03	9.669801E-17	4.651424E-18
7.210000E+03	9.673406E-17	4.658401E-18
7.220000E+03	9.676121E-17	4.663099E-18
7.230000E+03	9.677527E-17	4.665359E-18
7.240000E+03	9.677458E-17	4.665129E-18
7.250000E+03	9.675398E-17	4.662175E-18
7.260000E+03	9.671207E-17	4.656429E-18
7.270000E+03	9.664643E-17	4.647761E-18
7.280000E+03	9.655477E-17	4.636035E-18
7.290000E+03	9.643378E-17	4.621052E-18
7.300000E+03	9.628272E-17	4.602728E-18
7.310000E+03	9.609862E-17	4.580865E-18
7.320000E+03	9.588110E-17	4.555380E-18
7.330000E+03	9.562750E-17	4.526080E-18
7.340000E+03	9.533778E-17	4.492892E-18
7.350000E+03	9.500964E-17	4.455641E-18
7.360000E+03	9.464215E-17	4.414220E-18
7.370000E+03	9.423577E-17	4.368592E-18
7.380000E+03	9.378871E-17	4.318632E-18
7.390000E+03	9.330058E-17	4.264291E-18
7.400000E+03	9.277352E-17	4.205657E-18
7.410000E+03	9.220395E-17	4.142579E-18
7.420000E+03	9.159554E-17	4.075266E-18
7.430000E+03	9.094629E-17	4.003702E-18
7.440000E+03	9.025789E-17	3.928075E-18
7.450000E+03	8.953220E-17	3.848622E-18
7.460000E+03	8.876899E-17	3.765536E-18
7.470000E+03	8.796823E-17	3.679079E-18
7.480000E+03	8.713126E-17	3.589630E-18
7.490000E+03	8.626071E-17	3.497686E-18
7.500000E+03	8.535715E-17	3.403731E-18
7.510000E+03	8.442245E-17	3.308380E-18
7.520000E+03	8.345867E-17	3.212331E-18
7.530000E+03	8.246799E-17	3.116371E-18
7.540000E+03	8.145170E-17	3.021337E-18
7.550000E+03	8.041436E-17	2.928264E-18
7.560000E+03	7.935644E-17	2.838104E-18
7.570000E+03	7.828065E-17	2.751953E-18
7.580000E+03	7.719173E-17	2.671006E-18
7.590000E+03	7.609045E-17	2.596324E-18
7.600000E+03	7.498065E-17	2.529031E-18
7.610000E+03	7.386420E-17	2.470091E-18
7.620000E+03	7.274492E-17	2.420379E-18
7.630000E+03	7.162564E-17	2.380514E-18
7.640000E+03	7.050824E-17	2.350786E-18
7.650000E+03	6.939645E-17	2.331169E-18
7.660000E+03	6.829298E-17	2.321228E-18
7.670000E+03	6.720047E-17	2.320249E-18
7.680000E+03	6.612057E-17	2.327312E-18
7.690000E+03	6.505741E-17	2.341494E-18
7.700000E+03	6.401149E-17	2.361726E-18
7.710000E+03	6.298572E-17	2.387054E-18
7.720000E+03	6.198197E-17	2.416564E-18
7.730000E+03	6.100109E-17	2.449402E-18
7.740000E+03	6.004620E-17	2.484916E-18
7.750000E+03	5.911775E-17	2.522472E-18
7.760000E+03	5.821683E-17	2.561573E-18
