#wls	flux	fluxerr
1.600000E+03	5.988705E-19	4.643482E-19
1.640000E+03	5.914230E-19	4.540083E-19
1.680000E+03	5.848661E-19	4.443555E-19
1.720000E+03	5.792050E-19	4.353757E-19
1.760000E+03	5.743363E-19	4.269733E-19
1.800000E+03	5.703859E-19	4.192238E-19
1.840000E+03	5.674804E-19	4.121982E-19
1.880000E+03	5.656384E-19	4.058848E-19
1.920000E+03	5.647746E-19	4.001968E-19
1.960000E+03	5.650298E-19	3.952074E-19
2.000000E+03	5.664409E-19	3.909124E-19
2.040000E+03	5.691618E-19	3.873848E-19
2.080000E+03	5.732461E-19	3.846235E-19
2.120000E+03	5.787577E-19	3.826309E-19
2.160000E+03	5.856609E-19	3.813413E-19
2.200000E+03	5.942647E-19	3.809102E-19
2.240000E+03	6.046740E-19	3.813510E-19
2.280000E+03	6.168968E-19	3.826115E-19
2.320000E+03	6.313014E-19	3.848581E-19
2.360000E+03	6.478207E-19	3.879796E-19
2.400000E+03	6.668758E-19	3.921543E-19
2.440000E+03	6.885668E-19	3.973558E-19
2.480000E+03	7.132660E-19	4.037071E-19
2.520000E+03	7.412656E-19	4.112697E-19
2.560000E+03	7.729009E-19	4.201153E-19
2.600000E+03	8.086912E-19	4.303982E-19
2.640000E+03	8.490883E-19	4.422146E-19
2.680000E+03	8.947547E-19	4.557480E-19
2.720000E+03	9.461477E-19	4.710507E-19
2.760000E+03	1.004415E-18	4.884913E-19
2.800000E+03	1.070224E-18	5.081611E-19
2.840000E+03	1.144849E-18	5.304033E-19
2.880000E+03	1.229577E-18	5.555145E-19
2.920000E+03	1.325699E-18	5.837384E-19
2.960000E+03	1.435482E-18	6.156850E-19
3.000000E+03	1.560935E-18	6.517623E-19
3.010000E+03	1.595058E-18	6.614985E-19
3.020000E+03	1.630312E-18	6.715154E-19
3.030000E+03	1.666954E-18	6.819092E-19
3.040000E+03	1.704581E-18	6.925057E-19
3.050000E+03	1.743905E-18	7.035841E-19
3.060000E+03	1.784291E-18	7.148769E-19
3.070000E+03	1.826239E-18	7.265748E-19
3.080000E+03	1.869561E-18	7.385920E-19
3.090000E+03	1.914543E-18	7.510297E-19
3.100000E+03	1.961239E-18	7.638964E-19
3.110000E+03	2.009457E-18	7.771042E-19
3.120000E+03	2.059496E-18	7.907570E-19
3.130000E+03	2.111418E-18	8.048636E-19
3.140000E+03	2.165282E-18	8.194329E-19
3.150000E+03	2.220886E-18	8.343736E-19
3.160000E+03	2.278824E-18	8.498944E-19
3.170000E+03	2.338624E-18	8.658027E-19
3.180000E+03	2.400903E-18	8.823109E-19
3.190000E+03	2.465458E-18	8.993266E-19
3.200000E+03	2.532362E-18	9.168588E-19
3.210000E+03	2.601689E-18	9.349162E-19
3.220000E+03	2.673513E-18	9.535076E-19
3.230000E+03	2.748218E-18	9.727494E-19
3.240000E+03	2.825897E-18	9.926533E-19
3.250000E+03	2.906332E-18	1.013120E-18
3.260000E+03	2.989926E-18	1.034269E-18
3.270000E+03	3.076780E-18	1.056112E-18
3.280000E+03	3.166664E-18	1.078544E-18
3.290000E+03	3.260344E-18	1.101804E-18
3.300000E+03	3.357253E-18	1.125671E-18
3.310000E+03	3.458186E-18	1.150386E-18
3.320000E+03	3.562912E-18	1.175844E-18
3.330000E+03	3.671544E-18	1.202052E-18
3.340000E+03	3.784567E-18	1.229139E-18
3.350000E+03	3.901737E-18	1.256994E-18
3.360000E+03	4.023557E-18	1.285747E-18
3.370000E+03	4.150164E-18	1.315405E-18
3.380000E+03	4.281299E-18	1.345853E-18
3.390000E+03	4.417894E-18	1.377346E-18
3.400000E+03	4.559286E-18	1.409639E-18
3.410000E+03	4.706437E-18	1.442991E-18
3.420000E+03	4.859084E-18	1.477279E-18
3.430000E+03	5.017808E-18	1.512638E-18
3.440000E+03	5.182330E-18	1.548938E-18
3.450000E+03	5.353248E-18	1.586313E-18
3.460000E+03	5.530727E-18	1.624763E-18
3.470000E+03	5.714933E-18	1.664289E-18
3.480000E+03	5.906032E-18	1.704888E-18
3.490000E+03	6.104673E-18	1.746693E-18
3.500000E+03	6.310053E-18	1.789421E-18
3.510000E+03	6.523815E-18	1.833482E-18
3.520000E+03	6.745144E-18	1.878587E-18
3.530000E+03	6.974712E-18	1.924865E-18
3.540000E+03	7.212163E-18	1.972157E-18
3.550000E+03	7.458719E-18	2.020734E-18
3.560000E+03	7.714572E-18	2.070580E-18
3.570000E+03	7.979351E-18	2.121526E-18
3.580000E+03	8.253206E-18	2.173545E-18
3.590000E+03	8.537436E-18	2.226909E-18
3.600000E+03	8.831061E-18	2.281285E-18
3.610000E+03	9.134802E-18	2.336790E-18
3.620000E+03	9.449411E-18	2.393536E-18
3.630000E+03	9.774435E-18	2.451331E-18
3.640000E+03	1.011062E-17	2.510282E-18
3.650000E+03	1.045811E-17	2.570341E-18
3.660000E+03	1.081703E-17	2.631455E-18
3.670000E+03	1.118748E-17	2.693565E-18
3.680000E+03	1.156956E-17	2.756609E-18
3.690000E+03	1.196403E-17	2.820681E-18
3.700000E+03	1.237029E-17	2.885551E-18
3.710000E+03	1.278907E-17	2.951304E-18
3.720000E+03	1.322043E-17	3.017862E-18
3.730000E+03	1.366511E-17	3.085302E-18
3.740000E+03	1.412243E-17	3.153378E-18
3.750000E+03	1.459237E-17	3.221998E-18
3.760000E+03	1.507565E-17	3.291228E-18
3.770000E+03	1.557222E-17	3.360971E-18
3.780000E+03	1.608204E-17	3.431123E-18
3.790000E+03	1.660579E-17	3.501743E-18
3.800000E+03	1.714184E-17	3.572394E-18
3.810000E+03	1.769240E-17	3.643454E-18
3.820000E+03	1.825576E-17	3.714483E-18
3.830000E+03	1.883174E-17	3.785363E-18
3.840000E+03	1.942175E-17	3.856302E-18
3.850000E+03	2.002481E-17	3.927017E-18
3.860000E+03	2.064066E-17	3.997387E-18
3.870000E+03	2.126988E-17	4.067451E-18
3.880000E+03	2.191138E-17	4.136926E-18
3.890000E+03	2.256570E-17	4.205853E-18
3.900000E+03	2.323166E-17	4.273951E-18
3.910000E+03	2.391066E-17	4.341420E-18
3.920000E+03	2.460063E-17	4.407827E-18
3.930000E+03	2.530206E-17	4.473216E-18
3.940000E+03	2.601546E-17	4.537633E-18
3.950000E+03	2.673867E-17	4.600662E-18
3.960000E+03	2.747307E-17	4.662510E-18
3.970000E+03	2.821737E-17	4.722926E-18
3.980000E+03	2.897207E-17	4.781973E-18
3.990000E+03	2.973492E-17	4.839264E-18
4.000000E+03	3.050735E-17	4.895022E-18
4.010000E+03	3.128802E-17	4.949030E-18
4.020000E+03	3.207656E-17	5.001225E-18
4.030000E+03	3.287349E-17	5.051699E-18
4.040000E+03	3.367657E-17	5.100119E-18
4.050000E+03	3.448639E-17	5.146594E-18
4.060000E+03	3.530355E-17	5.191239E-18
4.070000E+03	3.612490E-17	5.233617E-18
4.080000E+03	3.695205E-17	5.274003E-18
4.090000E+03	3.778476E-17	5.312398E-18
4.100000E+03	3.862089E-17	5.348548E-18
4.110000E+03	3.946121E-17	5.382613E-18
4.120000E+03	4.030462E-17	5.414499E-18
4.130000E+03	4.115102E-17	5.444254E-18
4.140000E+03	4.200034E-17	5.471933E-18
4.150000E+03	4.285162E-17	5.497477E-18
4.160000E+03	4.370489E-17	5.520965E-18
4.170000E+03	4.455927E-17	5.542359E-18
4.180000E+03	4.541491E-17	5.561756E-18
4.190000E+03	4.627005E-17	5.579024E-18
4.200000E+03	4.712592E-17	5.594394E-18
4.210000E+03	4.798185E-17	5.607869E-18
4.220000E+03	4.883722E-17	5.619460E-18
4.230000E+03	4.969148E-17	5.629187E-18
4.240000E+03	5.054412E-17	5.637078E-18
4.250000E+03	5.139470E-17	5.643166E-18
4.260000E+03	5.224378E-17	5.647594E-18
4.270000E+03	5.309101E-17	5.650398E-18
4.280000E+03	5.393514E-17	5.651515E-18
4.290000E+03	5.477589E-17	5.650988E-18
4.300000E+03	5.561306E-17	5.648860E-18
4.310000E+03	5.644647E-17	5.645173E-18
4.320000E+03	5.727692E-17	5.640060E-18
4.330000E+03	5.810141E-17	5.633271E-18
4.340000E+03	5.892272E-17	5.625121E-18
4.350000E+03	5.973786E-17	5.615358E-18
4.360000E+03	6.054866E-17	5.604189E-18
4.370000E+03	6.135408E-17	5.591536E-18
4.380000E+03	6.215401E-17	5.577408E-18
4.390000E+03	6.294830E-17	5.561806E-18
4.400000E+03	6.373681E-17	5.544724E-18
4.410000E+03	6.452029E-17	5.526228E-18
4.420000E+03	6.529850E-17	5.506292E-18
4.430000E+03	6.607112E-17	5.484880E-18
4.440000E+03	6.683970E-17	5.462109E-18
4.450000E+03	6.760281E-17	5.437842E-18
4.460000E+03	6.835989E-17	5.412021E-18
4.470000E+03	6.911126E-17	5.384654E-18
4.480000E+03	6.985713E-17	5.355741E-18
4.490000E+03	7.059465E-17	5.325051E-18
4.500000E+03	7.132574E-17	5.292719E-18
4.510000E+03	7.204827E-17	5.258577E-18
4.520000E+03	7.276194E-17	5.222601E-18
4.530000E+03	7.346628E-17	5.184757E-18
4.540000E+03	7.416069E-17	5.145006E-18
4.550000E+03	7.484541E-17	5.103370E-18
4.560000E+03	7.551856E-17	5.059731E-18
4.570000E+03	7.618010E-17	5.014100E-18
4.580000E+03	7.682984E-17	4.966485E-18
4.590000E+03	7.746649E-17	4.916825E-18
4.600000E+03	7.808962E-17	4.865127E-18
4.610000E+03	7.869770E-17	4.811337E-18
4.620000E+03	7.929113E-17	4.755536E-18
4.630000E+03	7.986825E-17	4.697694E-18
4.640000E+03	8.042835E-17	4.637860E-18
4.650000E+03	8.097072E-17	4.576111E-18
4.660000E+03	8.149466E-17	4.512551E-18
4.670000E+03	8.199955E-17	4.447326E-18
4.680000E+03	8.248481E-17	4.380625E-18
4.690000E+03	8.295100E-17	4.312743E-18
4.700000E+03	8.339679E-17	4.243925E-18
4.710000E+03	8.382201E-17	4.174532E-18
4.720000E+03	8.422872E-17	4.105096E-18
4.730000E+03	8.461610E-17	4.036062E-18
4.740000E+03	8.498458E-17	3.968001E-18
4.750000E+03	8.533686E-17	3.901644E-18
4.760000E+03	8.567278E-17	3.837644E-18
4.770000E+03	8.599448E-17	3.776802E-18
4.780000E+03	8.630228E-17	3.719872E-18
4.790000E+03	8.659671E-17	3.667632E-18
4.800000E+03	8.687750E-17	3.620822E-18
4.810000E+03	8.714566E-17	3.580200E-18
4.820000E+03	8.740133E-17	3.546420E-18
4.830000E+03	8.764693E-17	3.520127E-18
4.840000E+03	8.788196E-17	3.501710E-18
4.850000E+03	8.811022E-17	3.491560E-18
4.860000E+03	8.833048E-17	3.489667E-18
4.870000E+03	8.854779E-17	3.496035E-18
4.880000E+03	8.876215E-17	3.510250E-18
4.890000E+03	8.897570E-17	3.531807E-18
4.900000E+03	8.919163E-17	3.560110E-18
4.910000E+03	8.941009E-17	3.594351E-18
4.920000E+03	8.963531E-17	3.633831E-18
4.930000E+03	8.986945E-17	3.677752E-18
4.940000E+03	9.011257E-17	3.725242E-18
4.950000E+03	9.036873E-17	3.775634E-18
4.960000E+03	9.063883E-17	3.828189E-18
4.970000E+03	9.092467E-17	3.882273E-18
4.980000E+03	9.122893E-17	3.937369E-18
4.990000E+03	9.155207E-17	3.992947E-18
5.000000E+03	9.189542E-17	4.048589E-18
5.010000E+03	9.226011E-17	4.103947E-18
5.020000E+03	9.264812E-17	4.158778E-18
5.030000E+03	9.305916E-17	4.212802E-18
5.040000E+03	9.349379E-17	4.265830E-18
5.050000E+03	9.395338E-17	4.317760E-18
5.060000E+03	9.443709E-17	4.368427E-18
5.070000E+03	9.494492E-17	4.417740E-18
5.080000E+03	9.547773E-17	4.465676E-18
5.090000E+03	9.603420E-17	4.512134E-18
5.100000E+03	9.661495E-17	4.557126E-18
5.110000E+03	9.721946E-17	4.600628E-18
5.120000E+03	9.784502E-17	4.642524E-18
5.130000E+03	9.849410E-17	4.682962E-18
5.140000E+03	9.916381E-17	4.721848E-18
5.150000E+03	9.985331E-17	4.759194E-18
5.160000E+03	1.005627E-16	4.795074E-18
5.170000E+03	1.012911E-16	4.829517E-18
5.180000E+03	1.020363E-16	4.862507E-18
5.190000E+03	1.027981E-16	4.894133E-18
5.200000E+03	1.035742E-16	4.924384E-18
5.210000E+03	1.043641E-16	4.953355E-18
5.220000E+03	1.051651E-16	4.981034E-18
5.230000E+03	1.059766E-16	5.007512E-18
5.240000E+03	1.067966E-16	5.032824E-18
5.250000E+03	1.076217E-16	5.056946E-18
5.260000E+03	1.084496E-16	5.079903E-18
5.270000E+03	1.092789E-16	5.101763E-18
5.280000E+03	1.101067E-16	5.122537E-18
5.290000E+03	1.109291E-16	5.142179E-18
5.300000E+03	1.117427E-16	5.160689E-18
5.310000E+03	1.125454E-16	5.178120E-18
5.320000E+03	1.133327E-16	5.194418E-18
5.330000E+03	1.141008E-16	5.209585E-18
5.340000E+03	1.148473E-16	5.223683E-18
5.350000E+03	1.155661E-16	5.236620E-18
5.360000E+03	1.162555E-16	5.248530E-18
5.370000E+03	1.169095E-16	5.259343E-18
5.380000E+03	1.175254E-16	5.269163E-18
5.390000E+03	1.181007E-16	5.278109E-18
5.400000E+03	1.186294E-16	5.286146E-18
5.410000E+03	1.191080E-16	5.293356E-18
5.420000E+03	1.195346E-16	5.299876E-18
5.430000E+03	1.199063E-16	5.305783E-18
5.440000E+03	1.202193E-16	5.311094E-18
5.450000E+03	1.204727E-16	5.315919E-18
5.460000E+03	1.206636E-16	5.320248E-18
5.470000E+03	1.207920E-16	5.324155E-18
5.480000E+03	1.208559E-16	5.327586E-18
5.490000E+03	1.208564E-16	5.330565E-18
5.500000E+03	1.207927E-16	5.332984E-18
5.510000E+03	1.206682E-16	5.334872E-18
5.520000E+03	1.204844E-16	5.336129E-18
5.530000E+03	1.202422E-16	5.336592E-18
5.540000E+03	1.199441E-16	5.336139E-18
5.550000E+03	1.195944E-16	5.334709E-18
5.560000E+03	1.191955E-16	5.332143E-18
5.570000E+03	1.187512E-16	5.328352E-18
5.580000E+03	1.182648E-16	5.323224E-18
5.590000E+03	1.177432E-16	5.316835E-18
5.600000E+03	1.171903E-16	5.309139E-18
5.610000E+03	1.166112E-16	5.300181E-18
5.620000E+03	1.160103E-16	5.289992E-18
5.630000E+03	1.153943E-16	5.278743E-18
5.640000E+03	1.147702E-16	5.266639E-18
5.650000E+03	1.141416E-16	5.253756E-18
5.660000E+03	1.135156E-16	5.240348E-18
5.670000E+03	1.128981E-16	5.226632E-18
5.680000E+03	1.122950E-16	5.212833E-18
5.690000E+03	1.117121E-16	5.199174E-18
5.700000E+03	1.111551E-16	5.185868E-18
5.710000E+03	1.106295E-16	5.173111E-18
5.720000E+03	1.101392E-16	5.161023E-18
5.730000E+03	1.096912E-16	5.149846E-18
5.740000E+03	1.092877E-16	5.139581E-18
5.750000E+03	1.089337E-16	5.130339E-18
5.760000E+03	1.086323E-16	5.122138E-18
5.770000E+03	1.083854E-16	5.114899E-18
5.780000E+03	1.081959E-16	5.108600E-18
5.790000E+03	1.080642E-16	5.103074E-18
5.800000E+03	1.079909E-16	5.098161E-18
5.810000E+03	1.079770E-16	5.093715E-18
5.820000E+03	1.080203E-16	5.089452E-18
5.830000E+03	1.081194E-16	5.085109E-18
5.840000E+03	1.082716E-16	5.080398E-18
5.850000E+03	1.084728E-16	5.074957E-18
5.860000E+03	1.087198E-16	5.068510E-18
5.870000E+03	1.090081E-16	5.060720E-18
5.880000E+03	1.093300E-16	5.051148E-18
5.890000E+03	1.096817E-16	5.039547E-18
5.900000E+03	1.100556E-16	5.025533E-18
5.910000E+03	1.104435E-16	5.008730E-18
5.920000E+03	1.108390E-16	4.988877E-18
5.930000E+03	1.112344E-16	4.965683E-18
5.940000E+03	1.116196E-16	4.938788E-18
5.950000E+03	1.119879E-16	4.908005E-18
5.960000E+03	1.123312E-16	4.873137E-18
5.970000E+03	1.126399E-16	4.833937E-18
5.980000E+03	1.129089E-16	4.790393E-18
5.990000E+03	1.131305E-16	4.742407E-18
6.000000E+03	1.132977E-16	4.689946E-18
6.010000E+03	1.134053E-16	4.633094E-18
6.020000E+03	1.134492E-16	4.572005E-18
6.030000E+03	1.134264E-16	4.506918E-18
6.040000E+03	1.133338E-16	4.438114E-18
6.050000E+03	1.131696E-16	4.365962E-18
6.060000E+03	1.129367E-16	4.291050E-18
6.070000E+03	1.126347E-16	4.213889E-18
6.080000E+03	1.122665E-16	4.135160E-18
6.090000E+03	1.118363E-16	4.055630E-18
6.100000E+03	1.113494E-16	3.976139E-18
6.110000E+03	1.108119E-16	3.897593E-18
6.120000E+03	1.102305E-16	3.820950E-18
6.130000E+03	1.096118E-16	3.747163E-18
6.140000E+03	1.089647E-16	3.677274E-18
6.150000E+03	1.082963E-16	3.612234E-18
6.160000E+03	1.076146E-16	3.552988E-18
6.170000E+03	1.069278E-16	3.500399E-18
6.180000E+03	1.062435E-16	3.455208E-18
6.190000E+03	1.055678E-16	3.417960E-18
6.200000E+03	1.049093E-16	3.389080E-18
6.210000E+03	1.042724E-16	3.368572E-18
6.220000E+03	1.036616E-16	3.356110E-18
6.230000E+03	1.030824E-16	3.351208E-18
6.240000E+03	1.025363E-16	3.353138E-18
6.250000E+03	1.020249E-16	3.361121E-18
6.260000E+03	1.015498E-16	3.374364E-18
6.270000E+03	1.011109E-16	3.392031E-18
6.280000E+03	1.007071E-16	3.413302E-18
6.290000E+03	1.003367E-16	3.437389E-18
6.300000E+03	9.999806E-17	3.463584E-18
6.310000E+03	9.968812E-17	3.491196E-18
6.320000E+03	9.940420E-17	3.519626E-18
6.330000E+03	9.914220E-17	3.548297E-18
6.340000E+03	9.889768E-17	3.576689E-18
6.350000E+03	9.866697E-17	3.604376E-18
6.360000E+03	9.844629E-17	3.630986E-18
6.370000E+03	9.823088E-17	3.656168E-18
6.380000E+03	9.801607E-17	3.679622E-18
6.390000E+03	9.779944E-17	3.701175E-18
6.400000E+03	9.757688E-17	3.720629E-18
6.410000E+03	9.734573E-17	3.737871E-18
6.420000E+03	9.710281E-17	3.752795E-18
6.430000E+03	9.684755E-17	3.765412E-18
6.440000E+03	9.657798E-17	3.775691E-18
6.450000E+03	9.629380E-17	3.783677E-18
6.460000E+03	9.599536E-17	3.789437E-18
6.470000E+03	9.568168E-17	3.792988E-18
6.480000E+03	9.535639E-17	3.794519E-18
6.490000E+03	9.501868E-17	3.794037E-18
6.500000E+03	9.467024E-17	3.791636E-18
6.510000E+03	9.431422E-17	3.787454E-18
6.520000E+03	9.395407E-17	3.781632E-18
6.530000E+03	9.359054E-17	3.774185E-18
6.540000E+03	9.322751E-17	3.765243E-18
6.550000E+03	9.286700E-17	3.754846E-18
6.560000E+03	9.251201E-17	3.743063E-18
6.570000E+03	9.216449E-17	3.729912E-18
6.580000E+03	9.182824E-17	3.715477E-18
6.590000E+03	9.150392E-17	3.699709E-18
6.600000E+03	9.119492E-17	3.682671E-18
6.610000E+03	9.090337E-17	3.664377E-18
6.620000E+03	9.062910E-17	3.644755E-18
6.630000E+03	9.037557E-17	3.623893E-18
6.640000E+03	9.014192E-17	3.601720E-18
6.650000E+03	8.992987E-17	3.578295E-18
6.660000E+03	8.973977E-17	3.553643E-18
6.670000E+03	8.957157E-17	3.527808E-18
6.680000E+03	8.942485E-17	3.500852E-18
6.690000E+03	8.929778E-17	3.472824E-18
6.700000E+03	8.919116E-17	3.443916E-18
6.710000E+03	8.910245E-17	3.414234E-18
6.720000E+03	8.902881E-17	3.383923E-18
6.730000E+03	8.897007E-17	3.353279E-18
6.740000E+03	8.892289E-17	3.322526E-18
6.750000E+03	8.888569E-17	3.292006E-18
6.760000E+03	8.885378E-17	3.261992E-18
6.770000E+03	8.882744E-17	3.232989E-18
6.780000E+03	8.880189E-17	3.205354E-18
6.790000E+03	8.877442E-17	3.179556E-18
6.800000E+03	8.874347E-17	3.156124E-18
6.810000E+03	8.870662E-17	3.135569E-18
6.820000E+03	8.866170E-17	3.118400E-18
6.830000E+03	8.860682E-17	3.105107E-18
6.840000E+03	8.854042E-17	3.096137E-18
6.850000E+03	8.846032E-17	3.091833E-18
6.860000E+03	8.836783E-17	3.092543E-18
6.870000E+03	8.826181E-17	3.098369E-18
6.880000E+03	8.814303E-17	3.109225E-18
6.890000E+03	8.801329E-17	3.124785E-18
6.900000E+03	8.787595E-17	3.144619E-18
6.910000E+03	8.773160E-17	3.168099E-18
6.920000E+03	8.758517E-17	3.194697E-18
6.930000E+03	8.743859E-17	3.223754E-18
6.940000E+03	8.729484E-17	3.254655E-18
6.950000E+03	8.715790E-17	3.286847E-18
6.960000E+03	8.702954E-17	3.319741E-18
6.970000E+03	8.691239E-17	3.352837E-18
6.980000E+03	8.680886E-17	3.385687E-18
6.990000E+03	8.672212E-17	3.417945E-18
7.000000E+03	8.665294E-17	3.449239E-18
7.010000E+03	8.660279E-17	3.479296E-18
7.020000E+03	8.657383E-17	3.507939E-18
7.030000E+03	8.656574E-17	3.534955E-18
7.040000E+03	8.657884E-17	3.560220E-18
7.050000E+03	8.661305E-17	3.583652E-18
7.060000E+03	8.666792E-17	3.605206E-18
7.070000E+03	8.674364E-17	3.624912E-18
7.080000E+03	8.683793E-17	3.642744E-18
7.090000E+03	8.694921E-17	3.658741E-18
7.100000E+03	8.707556E-17	3.672964E-18
7.110000E+03	8.721480E-17	3.685489E-18
7.120000E+03	8.736447E-17	3.696405E-18
7.130000E+03	8.752191E-17	3.705809E-18
7.140000E+03	8.768539E-17	3.713850E-18
7.150000E+03	8.784978E-17	3.720539E-18
7.160000E+03	8.801429E-17	3.726070E-18
7.170000E+03	8.817373E-17	3.730445E-18
7.180000E+03	8.832733E-17	3.733844E-18
7.190000E+03	8.847002E-17	3.736250E-18
7.200000E+03	8.860129E-17	3.737816E-18
7.210000E+03	8.871633E-17	3.738490E-18
7.220000E+03	8.881498E-17	3.738388E-18
7.230000E+03	8.889281E-17	3.737416E-18
7.240000E+03	8.895006E-17	3.735642E-18
7.250000E+03	8.898270E-17	3.732919E-18
7.260000E+03	8.899135E-17	3.729261E-18
7.270000E+03	8.897231E-17	3.724464E-18
7.280000E+03	8.892653E-17	3.718487E-18
7.290000E+03	8.885057E-17	3.711070E-18
7.300000E+03	8.874560E-17	3.702117E-18
7.310000E+03	8.860836E-17	3.691322E-18
7.320000E+03	8.844018E-17	3.678548E-18
7.330000E+03	8.823791E-17	3.663455E-18
7.340000E+03	8.800299E-17	3.645882E-18
7.350000E+03	8.773352E-17	3.625523E-18
7.360000E+03	8.742766E-17	3.602077E-18
7.370000E+03	8.708704E-17	3.575387E-18
7.380000E+03	8.670998E-17	3.545174E-18
7.390000E+03	8.629494E-17	3.511179E-18
7.400000E+03	8.584275E-17	3.473262E-18
7.410000E+03	8.535326E-17	3.431269E-18
7.420000E+03	8.482541E-17	3.385042E-18
7.430000E+03	8.426052E-17	3.334556E-18
7.440000E+03	8.365794E-17	3.279751E-18
7.450000E+03	8.301942E-17	3.220712E-18
7.460000E+03	8.234582E-17	3.157544E-18
7.470000E+03	8.163607E-17	3.090343E-18
7.480000E+03	8.089472E-17	3.019489E-18
7.490000E+03	8.012114E-17	2.945244E-18
7.500000E+03	7.931703E-17	2.868047E-18
7.510000E+03	7.848637E-17	2.788510E-18
7.520000E+03	7.762806E-17	2.707167E-18
7.530000E+03	7.674737E-17	2.624887E-18
7.540000E+03	7.584450E-17	2.542477E-18
7.550000E+03	7.492284E-17	2.460970E-18
7.560000E+03	7.398382E-17	2.381450E-18
7.570000E+03	7.303090E-17	2.305176E-18
7.580000E+03	7.206561E-17	2.233432E-18
7.590000E+03	7.109048E-17	2.167586E-18
7.600000E+03	7.010896E-17	2.109043E-18
7.610000E+03	6.912262E-17	2.059080E-18
7.620000E+03	6.813390E-17	2.018855E-18
7.630000E+03	6.714613E-17	1.989300E-18
7.640000E+03	6.615986E-17	1.970908E-18
7.650000E+03	6.517925E-17	1.963762E-18
7.660000E+03	6.420575E-17	1.967323E-18
7.670000E+03	6.324162E-17	1.980718E-18
7.680000E+03	6.228900E-17	2.002855E-18
7.690000E+03	6.134989E-17	2.032529E-18
7.700000E+03	6.042697E-17	2.068544E-18
7.710000E+03	5.952029E-17	2.109667E-18
7.720000E+03	5.863220E-17	2.154847E-18
7.730000E+03	5.776486E-17	2.203162E-18
7.740000E+03	5.691791E-17	2.253738E-18
7.750000E+03	5.609393E-17	2.305962E-18
7.760000E+03	5.529227E-17	2.359227E-18
