#wls	flux	fluxerr
1.600000E+03	6.031512E-19	4.679998E-19
1.640000E+03	5.959471E-19	4.578233E-19
1.680000E+03	5.895179E-19	4.482420E-19
1.720000E+03	5.839867E-19	4.393332E-19
1.760000E+03	5.793628E-19	4.310850E-19
1.800000E+03	5.756590E-19	4.234870E-19
1.840000E+03	5.730039E-19	4.166115E-19
1.880000E+03	5.711952E-19	4.102882E-19
1.920000E+03	5.705928E-19	4.047514E-19
1.960000E+03	5.711165E-19	3.999140E-19
2.000000E+03	5.728046E-19	3.957723E-19
2.040000E+03	5.757029E-19	3.923256E-19
2.080000E+03	5.799765E-19	3.896505E-19
2.120000E+03	5.856904E-19	3.877501E-19
2.160000E+03	5.929210E-19	3.866313E-19
2.200000E+03	6.017576E-19	3.863053E-19
2.240000E+03	6.124178E-19	3.868596E-19
2.280000E+03	6.249097E-19	3.882419E-19
2.320000E+03	6.396058E-19	3.906209E-19
2.360000E+03	6.564380E-19	3.938843E-19
2.400000E+03	6.758316E-19	3.982127E-19
2.440000E+03	6.978870E-19	4.035796E-19
2.480000E+03	7.231061E-19	4.101813E-19
2.520000E+03	7.515332E-19	4.179370E-19
2.560000E+03	7.837622E-19	4.270628E-19
2.600000E+03	8.201903E-19	4.376435E-19
2.640000E+03	8.612722E-19	4.497764E-19
2.680000E+03	9.076750E-19	4.636468E-19
2.720000E+03	9.600090E-19	4.793828E-19
2.760000E+03	1.019289E-18	4.972836E-19
2.800000E+03	1.086351E-18	5.175191E-19
2.840000E+03	1.162324E-18	5.403599E-19
2.880000E+03	1.248685E-18	5.661872E-19
2.920000E+03	1.346754E-18	5.952511E-19
2.960000E+03	1.458641E-18	6.280869E-19
3.000000E+03	1.586362E-18	6.651038E-19
3.010000E+03	1.621241E-18	6.751508E-19
3.020000E+03	1.657266E-18	6.854826E-19
3.030000E+03	1.694474E-18	6.961049E-19
3.040000E+03	1.732899E-18	7.070234E-19
3.050000E+03	1.772811E-18	7.183373E-19
3.060000E+03	1.814025E-18	7.299607E-19
3.070000E+03	1.856818E-18	7.419944E-19
3.080000E+03	1.901001E-18	7.543511E-19
3.090000E+03	1.946861E-18	7.671334E-19
3.100000E+03	1.994453E-18	7.803498E-19
3.110000E+03	2.043582E-18	7.939109E-19
3.120000E+03	2.094551E-18	8.079219E-19
3.130000E+03	2.147418E-18	8.223913E-19
3.140000E+03	2.201981E-18	8.372275E-19
3.150000E+03	2.258828E-18	8.526397E-19
3.160000E+03	2.317763E-18	8.685369E-19
3.170000E+03	2.378575E-18	8.848245E-19
3.180000E+03	2.441884E-18	9.017173E-19
3.190000E+03	2.507484E-18	9.191215E-19
3.200000E+03	2.575742E-18	9.371522E-19
3.210000E+03	2.646149E-18	9.556061E-19
3.220000E+03	2.719370E-18	9.747055E-19
3.230000E+03	2.795498E-18	9.944617E-19
3.240000E+03	2.874313E-18	1.014775E-18
3.250000E+03	2.956214E-18	1.035766E-18
3.260000E+03	3.040974E-18	1.057331E-18
3.270000E+03	3.129007E-18	1.079593E-18
3.280000E+03	3.220750E-18	1.102676E-18
3.290000E+03	3.315641E-18	1.126361E-18
3.300000E+03	3.414115E-18	1.150772E-18
3.310000E+03	3.516279E-18	1.175917E-18
3.320000E+03	3.622603E-18	1.201924E-18
3.330000E+03	3.732849E-18	1.228684E-18
3.340000E+03	3.847503E-18	1.256327E-18
3.350000E+03	3.966317E-18	1.284739E-18
3.360000E+03	4.089406E-18	1.313925E-18
3.370000E+03	4.217673E-18	1.344142E-18
3.380000E+03	4.350474E-18	1.375146E-18
3.390000E+03	4.488743E-18	1.407198E-18
3.400000E+03	4.631809E-18	1.440047E-18
3.410000E+03	4.780636E-18	1.473955E-18
3.420000E+03	4.934956E-18	1.508796E-18
3.430000E+03	5.095348E-18	1.544704E-18
3.440000E+03	5.261528E-18	1.581550E-18
3.450000E+03	5.434091E-18	1.619466E-18
3.460000E+03	5.613198E-18	1.658452E-18
3.470000E+03	5.799012E-18	1.698507E-18
3.480000E+03	5.991692E-18	1.739627E-18
3.490000E+03	6.191884E-18	1.781946E-18
3.500000E+03	6.398780E-18	1.825177E-18
3.510000E+03	6.614018E-18	1.869733E-18
3.520000E+03	6.836776E-18	1.915320E-18
3.530000E+03	7.067721E-18	1.962068E-18
3.540000E+03	7.307022E-18	2.009960E-18
3.550000E+03	7.554842E-18	2.058980E-18
3.560000E+03	7.811340E-18	2.109105E-18
3.570000E+03	8.077225E-18	2.160460E-18
3.580000E+03	8.352669E-18	2.213021E-18
3.590000E+03	8.637261E-18	2.266607E-18
3.600000E+03	8.932301E-18	2.321487E-18
3.610000E+03	9.236774E-18	2.377323E-18
3.620000E+03	9.551999E-18	2.434380E-18
3.630000E+03	9.877516E-18	2.492461E-18
3.640000E+03	1.021406E-17	2.551675E-18
3.650000E+03	1.056177E-17	2.611972E-18
3.660000E+03	1.092076E-17	2.673297E-18
3.670000E+03	1.129047E-17	2.735434E-18
3.680000E+03	1.167296E-17	2.798794E-18
3.690000E+03	1.206633E-17	2.862836E-18
3.700000E+03	1.247266E-17	2.927967E-18
3.710000E+03	1.289065E-17	2.993791E-18
3.720000E+03	1.332101E-17	3.060391E-18
3.730000E+03	1.376450E-17	3.127844E-18
3.740000E+03	1.422040E-17	3.195903E-18
3.750000E+03	1.468872E-17	3.264475E-18
3.760000E+03	1.517088E-17	3.333790E-18
3.770000E+03	1.566537E-17	3.403425E-18
3.780000E+03	1.617287E-17	3.473441E-18
3.790000E+03	1.669329E-17	3.543730E-18
3.800000E+03	1.722730E-17	3.614349E-18
3.810000E+03	1.777479E-17	3.685185E-18
3.820000E+03	1.833484E-17	3.755962E-18
3.830000E+03	1.890805E-17	3.826726E-18
3.840000E+03	1.949425E-17	3.897360E-18
3.850000E+03	2.009323E-17	3.967743E-18
3.860000E+03	2.070475E-17	4.037758E-18
3.870000E+03	2.132938E-17	4.107443E-18
3.880000E+03	2.196689E-17	4.176677E-18
3.890000E+03	2.261612E-17	4.245181E-18
3.900000E+03	2.327762E-17	4.312994E-18
3.910000E+03	2.395193E-17	4.380158E-18
3.920000E+03	2.463699E-17	4.446239E-18
3.930000E+03	2.533331E-17	4.511283E-18
3.940000E+03	2.604050E-17	4.575182E-18
3.950000E+03	2.675909E-17	4.637984E-18
3.960000E+03	2.748780E-17	4.699433E-18
3.970000E+03	2.822623E-17	4.759435E-18
3.980000E+03	2.897489E-17	4.818049E-18
3.990000E+03	2.973248E-17	4.875040E-18
4.000000E+03	3.049860E-17	4.930333E-18
4.010000E+03	3.127377E-17	4.984004E-18
4.020000E+03	3.205668E-17	5.035843E-18
4.030000E+03	3.284697E-17	5.085796E-18
4.040000E+03	3.364520E-17	5.133962E-18
4.050000E+03	3.444917E-17	5.180017E-18
4.060000E+03	3.526041E-17	5.224218E-18
4.070000E+03	3.607676E-17	5.266265E-18
4.080000E+03	3.689888E-17	5.306291E-18
4.090000E+03	3.772558E-17	5.344161E-18
4.100000E+03	3.855759E-17	5.380022E-18
4.110000E+03	3.939285E-17	5.413629E-18
4.120000E+03	4.023215E-17	5.445149E-18
4.130000E+03	4.107445E-17	5.474497E-18
4.140000E+03	4.191969E-17	5.501726E-18
4.150000E+03	4.276786E-17	5.526898E-18
4.160000E+03	4.361709E-17	5.549842E-18
4.170000E+03	4.446840E-17	5.570765E-18
4.180000E+03	4.532002E-17	5.589519E-18
4.190000E+03	4.617308E-17	5.606328E-18
4.200000E+03	4.702687E-17	5.621180E-18
4.210000E+03	4.788072E-17	5.634079E-18
4.220000E+03	4.873305E-17	5.644925E-18
4.230000E+03	4.958521E-17	5.653963E-18
4.240000E+03	5.043669E-17	5.661214E-18
4.250000E+03	5.128607E-17	5.666603E-18
4.260000E+03	5.213295E-17	5.670169E-18
4.270000E+03	5.297794E-17	5.672055E-18
4.280000E+03	5.381975E-17	5.672203E-18
4.290000E+03	5.465814E-17	5.670655E-18
4.300000E+03	5.549287E-17	5.667457E-18
4.310000E+03	5.632376E-17	5.662652E-18
4.320000E+03	5.715067E-17	5.656280E-18
4.330000E+03	5.797155E-17	5.648191E-18
4.340000E+03	5.878725E-17	5.638518E-18
4.350000E+03	5.959674E-17	5.627202E-18
4.360000E+03	6.039992E-17	5.614271E-18
4.370000E+03	6.119766E-17	5.599834E-18
4.380000E+03	6.198796E-17	5.583729E-18
4.390000E+03	6.277167E-17	5.566053E-18
4.400000E+03	6.354864E-17	5.546802E-18
4.410000E+03	6.431965E-17	5.526049E-18
4.420000E+03	6.508351E-17	5.503690E-18
4.430000E+03	6.584281E-17	5.479938E-18
4.440000E+03	6.659720E-17	5.454747E-18
4.450000E+03	6.734722E-17	5.428142E-18
4.460000E+03	6.809140E-17	5.399985E-18
4.470000E+03	6.883010E-17	5.370286E-18
4.480000E+03	6.956164E-17	5.338898E-18
4.490000E+03	7.028423E-17	5.305671E-18
4.500000E+03	7.099884E-17	5.270674E-18
4.510000E+03	7.170436E-17	5.233818E-18
4.520000E+03	7.239957E-17	5.195013E-18
4.530000E+03	7.308503E-17	5.154302E-18
4.540000E+03	7.375921E-17	5.111584E-18
4.550000E+03	7.442238E-17	5.066885E-18
4.560000E+03	7.507467E-17	5.020226E-18
4.570000E+03	7.571411E-17	4.971487E-18
4.580000E+03	7.634152E-17	4.920743E-18
4.590000E+03	7.695662E-17	4.867995E-18
4.600000E+03	7.755801E-17	4.813180E-18
4.610000E+03	7.814517E-17	4.756305E-18
4.620000E+03	7.871751E-17	4.697378E-18
4.630000E+03	7.927434E-17	4.636421E-18
4.640000E+03	7.981595E-17	4.573529E-18
4.650000E+03	8.034061E-17	4.508706E-18
4.660000E+03	8.084861E-17	4.442099E-18
4.670000E+03	8.133827E-17	4.373786E-18
4.680000E+03	8.180999E-17	4.303995E-18
4.690000E+03	8.226328E-17	4.232955E-18
4.700000E+03	8.269778E-17	4.160956E-18
4.710000E+03	8.311426E-17	4.088403E-18
4.720000E+03	8.351270E-17	4.015720E-18
4.730000E+03	8.389224E-17	3.943359E-18
4.740000E+03	8.425525E-17	3.871996E-18
4.750000E+03	8.460129E-17	3.802238E-18
4.760000E+03	8.493220E-17	3.734859E-18
4.770000E+03	8.524797E-17	3.670607E-18
4.780000E+03	8.554987E-17	3.610327E-18
4.790000E+03	8.583736E-17	3.554814E-18
4.800000E+03	8.611315E-17	3.504999E-18
4.810000E+03	8.637510E-17	3.461581E-18
4.820000E+03	8.662739E-17	3.425447E-18
4.830000E+03	8.686828E-17	3.397137E-18
4.840000E+03	8.710026E-17	3.377212E-18
4.850000E+03	8.732500E-17	3.366011E-18
4.860000E+03	8.754430E-17	3.363659E-18
4.870000E+03	8.775905E-17	3.369985E-18
4.880000E+03	8.797228E-17	3.384658E-18
4.890000E+03	8.818506E-17	3.407079E-18
4.900000E+03	8.839953E-17	3.436544E-18
4.910000E+03	8.861889E-17	3.472290E-18
4.920000E+03	8.884326E-17	3.513379E-18
4.930000E+03	8.907583E-17	3.558977E-18
4.940000E+03	8.931868E-17	3.608229E-18
4.950000E+03	8.957385E-17	3.660325E-18
4.960000E+03	8.984227E-17	3.714478E-18
4.970000E+03	9.012675E-17	3.770060E-18
4.980000E+03	9.042897E-17	3.826482E-18
4.990000E+03	9.074943E-17	3.883197E-18
5.000000E+03	9.109050E-17	3.939819E-18
5.010000E+03	9.145232E-17	3.995952E-18
5.020000E+03	9.183584E-17	4.051309E-18
5.030000E+03	9.224284E-17	4.105702E-18
5.040000E+03	9.267389E-17	4.158952E-18
5.050000E+03	9.312729E-17	4.210823E-18
5.060000E+03	9.360526E-17	4.261297E-18
5.070000E+03	9.410780E-17	4.310291E-18
5.080000E+03	9.463268E-17	4.357646E-18
5.090000E+03	9.518166E-17	4.403410E-18
5.100000E+03	9.575432E-17	4.447550E-18
5.110000E+03	9.634806E-17	4.489949E-18
5.120000E+03	9.696541E-17	4.530743E-18
5.130000E+03	9.760257E-17	4.569787E-18
5.140000E+03	9.826088E-17	4.607190E-18
5.150000E+03	9.893851E-17	4.642924E-18
5.160000E+03	9.963566E-17	4.677066E-18
5.170000E+03	1.003503E-16	4.709605E-18
5.180000E+03	1.010826E-16	4.740634E-18
5.190000E+03	1.018302E-16	4.770151E-18
5.200000E+03	1.025919E-16	4.798208E-18
5.210000E+03	1.033674E-16	4.824910E-18
5.220000E+03	1.041541E-16	4.850258E-18
5.230000E+03	1.049513E-16	4.874353E-18
5.240000E+03	1.057561E-16	4.897190E-18
5.250000E+03	1.065663E-16	4.918809E-18
5.260000E+03	1.073807E-16	4.939295E-18
5.270000E+03	1.081968E-16	4.958676E-18
5.280000E+03	1.090096E-16	4.976866E-18
5.290000E+03	1.098184E-16	4.993982E-18
5.300000E+03	1.106191E-16	5.009980E-18
5.310000E+03	1.114094E-16	5.024918E-18
5.320000E+03	1.121848E-16	5.038748E-18
5.330000E+03	1.129418E-16	5.051480E-18
5.340000E+03	1.136765E-16	5.063125E-18
5.350000E+03	1.143854E-16	5.073708E-18
5.360000E+03	1.150646E-16	5.083264E-18
5.370000E+03	1.157102E-16	5.091841E-18
5.380000E+03	1.163186E-16	5.099502E-18
5.390000E+03	1.168848E-16	5.106274E-18
5.400000E+03	1.174075E-16	5.112354E-18
5.410000E+03	1.178811E-16	5.117738E-18
5.420000E+03	1.183023E-16	5.122534E-18
5.430000E+03	1.186694E-16	5.126892E-18
5.440000E+03	1.189787E-16	5.130856E-18
5.450000E+03	1.192278E-16	5.134507E-18
5.460000E+03	1.194165E-16	5.137958E-18
5.470000E+03	1.195421E-16	5.141195E-18
5.480000E+03	1.196039E-16	5.144226E-18
5.490000E+03	1.196030E-16	5.147079E-18
5.500000E+03	1.195386E-16	5.149644E-18
5.510000E+03	1.194140E-16	5.151935E-18
5.520000E+03	1.192294E-16	5.153785E-18
5.530000E+03	1.189894E-16	5.155162E-18
5.540000E+03	1.186952E-16	5.155867E-18
5.550000E+03	1.183487E-16	5.155703E-18
5.560000E+03	1.179533E-16	5.154531E-18
5.570000E+03	1.175129E-16	5.152233E-18
5.580000E+03	1.170317E-16	5.148718E-18
5.590000E+03	1.165143E-16	5.143930E-18
5.600000E+03	1.159643E-16	5.137799E-18
5.610000E+03	1.153890E-16	5.130453E-18
5.620000E+03	1.147917E-16	5.121855E-18
5.630000E+03	1.141787E-16	5.112163E-18
5.640000E+03	1.135571E-16	5.101570E-18
5.650000E+03	1.129301E-16	5.090152E-18
5.660000E+03	1.123048E-16	5.078158E-18
5.670000E+03	1.116871E-16	5.065805E-18
5.680000E+03	1.110828E-16	5.053321E-18
5.690000E+03	1.104977E-16	5.040932E-18
5.700000E+03	1.099385E-16	5.028904E-18
5.710000E+03	1.094085E-16	5.017338E-18
5.720000E+03	1.089139E-16	5.006459E-18
5.730000E+03	1.084596E-16	4.996407E-18
5.740000E+03	1.080499E-16	4.987284E-18
5.750000E+03	1.076889E-16	4.979148E-18
5.760000E+03	1.073799E-16	4.972012E-18
5.770000E+03	1.071246E-16	4.965794E-18
5.780000E+03	1.069264E-16	4.960461E-18
5.790000E+03	1.067865E-16	4.955887E-18
5.800000E+03	1.067048E-16	4.951857E-18
5.810000E+03	1.066822E-16	4.948214E-18
5.820000E+03	1.067168E-16	4.944668E-18
5.830000E+03	1.068071E-16	4.940952E-18
5.840000E+03	1.069507E-16	4.936772E-18
5.850000E+03	1.071444E-16	4.931817E-18
5.860000E+03	1.073842E-16	4.925762E-18
5.870000E+03	1.076656E-16	4.918274E-18
5.880000E+03	1.079822E-16	4.908972E-18
5.890000E+03	1.083291E-16	4.897571E-18
5.900000E+03	1.086977E-16	4.883653E-18
5.910000E+03	1.090831E-16	4.867001E-18
5.920000E+03	1.094758E-16	4.847228E-18
5.930000E+03	1.098692E-16	4.824108E-18
5.940000E+03	1.102545E-16	4.797347E-18
5.950000E+03	1.106236E-16	4.766729E-18
5.960000E+03	1.109687E-16	4.732072E-18
5.970000E+03	1.112812E-16	4.693189E-18
5.980000E+03	1.115539E-16	4.649983E-18
5.990000E+03	1.117811E-16	4.602457E-18
6.000000E+03	1.119537E-16	4.550492E-18
6.010000E+03	1.120685E-16	4.494257E-18
6.020000E+03	1.121203E-16	4.433862E-18
6.030000E+03	1.121060E-16	4.369536E-18
6.040000E+03	1.120215E-16	4.301512E-18
6.050000E+03	1.118670E-16	4.230232E-18
6.060000E+03	1.116431E-16	4.156189E-18
6.070000E+03	1.113505E-16	4.079921E-18
6.080000E+03	1.109910E-16	4.002062E-18
6.090000E+03	1.105700E-16	3.923403E-18
6.100000E+03	1.100915E-16	3.844737E-18
6.110000E+03	1.095618E-16	3.766965E-18
6.120000E+03	1.089877E-16	3.691039E-18
6.130000E+03	1.083768E-16	3.617950E-18
6.140000E+03	1.077360E-16	3.548670E-18
6.150000E+03	1.070757E-16	3.484263E-18
6.160000E+03	1.064041E-16	3.425678E-18
6.170000E+03	1.057283E-16	3.373754E-18
6.180000E+03	1.050571E-16	3.329275E-18
6.190000E+03	1.043986E-16	3.292853E-18
6.200000E+03	1.037575E-16	3.264785E-18
6.210000E+03	1.031413E-16	3.245170E-18
6.220000E+03	1.025544E-16	3.233671E-18
6.230000E+03	1.019982E-16	3.229663E-18
6.240000E+03	1.014763E-16	3.232469E-18
6.250000E+03	1.009902E-16	3.241291E-18
6.260000E+03	1.005404E-16	3.255289E-18
6.270000E+03	1.001276E-16	3.273645E-18
6.280000E+03	9.975062E-17	3.295529E-18
6.290000E+03	9.940647E-17	3.320113E-18
6.300000E+03	9.909540E-17	3.346748E-18
6.310000E+03	9.881206E-17	3.374674E-18
6.320000E+03	9.855450E-17	3.403322E-18
6.330000E+03	9.831735E-17	3.432080E-18
6.340000E+03	9.809885E-17	3.460534E-18
6.350000E+03	9.789207E-17	3.488153E-18
6.360000E+03	9.769390E-17	3.514603E-18
6.370000E+03	9.749928E-17	3.539537E-18
6.380000E+03	9.730425E-17	3.562697E-18
6.390000E+03	9.710315E-17	3.583807E-18
6.400000E+03	9.689458E-17	3.602788E-18
6.410000E+03	9.667467E-17	3.619501E-18
6.420000E+03	9.643910E-17	3.633816E-18
6.430000E+03	9.618714E-17	3.645755E-18
6.440000E+03	9.591774E-17	3.655339E-18
6.450000E+03	9.562959E-17	3.662589E-18
6.460000E+03	9.532306E-17	3.667588E-18
6.470000E+03	9.499826E-17	3.670403E-18
6.480000E+03	9.465793E-17	3.671198E-18
6.490000E+03	9.430343E-17	3.670072E-18
6.500000E+03	9.393667E-17	3.667130E-18
6.510000E+03	9.355998E-17	3.662483E-18
6.520000E+03	9.317608E-17	3.656238E-18
6.530000E+03	9.278694E-17	3.648459E-18
6.540000E+03	9.239572E-17	3.639244E-18
6.550000E+03	9.200465E-17	3.628635E-18
6.560000E+03	9.161795E-17	3.616745E-18
6.570000E+03	9.123680E-17	3.603553E-18
6.580000E+03	9.086521E-17	3.589142E-18
6.590000E+03	9.050598E-17	3.573540E-18
6.600000E+03	9.016070E-17	3.556729E-18
6.610000E+03	8.983164E-17	3.538719E-18
6.620000E+03	8.952078E-17	3.519516E-18
6.630000E+03	8.922874E-17	3.499086E-18
6.640000E+03	8.895871E-17	3.477513E-18
6.650000E+03	8.871059E-17	3.454775E-18
6.660000E+03	8.848481E-17	3.430900E-18
6.670000E+03	8.828048E-17	3.405895E-18
6.680000E+03	8.809920E-17	3.379901E-18
6.690000E+03	8.793829E-17	3.352933E-18
6.700000E+03	8.779859E-17	3.325183E-18
6.710000E+03	8.767670E-17	3.296725E-18
6.720000E+03	8.757277E-17	3.267817E-18
6.730000E+03	8.748375E-17	3.238640E-18
6.740000E+03	8.740833E-17	3.209487E-18
6.750000E+03	8.734301E-17	3.180618E-18
6.760000E+03	8.728516E-17	3.152370E-18
6.770000E+03	8.723310E-17	3.125151E-18
6.780000E+03	8.718313E-17	3.099335E-18
6.790000E+03	8.713362E-17	3.075396E-18
6.800000E+03	8.708207E-17	3.053792E-18
6.810000E+03	8.702617E-17	3.034996E-18
6.820000E+03	8.696281E-17	3.019439E-18
6.830000E+03	8.689120E-17	3.007602E-18
6.840000E+03	8.680988E-17	2.999891E-18
6.850000E+03	8.671878E-17	2.996677E-18
6.860000E+03	8.661526E-17	2.998132E-18
6.870000E+03	8.650024E-17	3.004400E-18
6.880000E+03	8.637453E-17	3.015384E-18
6.890000E+03	8.623989E-17	3.030766E-18
6.900000E+03	8.609860E-17	3.050096E-18
6.910000E+03	8.595425E-17	3.072881E-18
6.920000E+03	8.580859E-17	3.098507E-18
6.930000E+03	8.566348E-17	3.126343E-18
6.940000E+03	8.552382E-17	3.155875E-18
6.950000E+03	8.539143E-17	3.186503E-18
6.960000E+03	8.527001E-17	3.217737E-18
6.970000E+03	8.516002E-17	3.249020E-18
6.980000E+03	8.506579E-17	3.280002E-18
6.990000E+03	8.498727E-17	3.310232E-18
7.000000E+03	8.492820E-17	3.339471E-18
7.010000E+03	8.488993E-17	3.367457E-18
7.020000E+03	8.487137E-17	3.393898E-18
7.030000E+03	8.487520E-17	3.418712E-18
7.040000E+03	8.489955E-17	3.441699E-18
7.050000E+03	8.494629E-17	3.462866E-18
7.060000E+03	8.501380E-17	3.482134E-18
7.070000E+03	8.510111E-17	3.499495E-18
7.080000E+03	8.520688E-17	3.514975E-18
7.090000E+03	8.533045E-17	3.528666E-18
7.100000E+03	8.546770E-17	3.540553E-18
7.110000E+03	8.561844E-17	3.550813E-18
7.120000E+03	8.577798E-17	3.559459E-18
7.130000E+03	8.594569E-17	3.566694E-18
7.140000E+03	8.611758E-17	3.572591E-18
7.150000E+03	8.629063E-17	3.577270E-18
7.160000E+03	8.646178E-17	3.580852E-18
7.170000E+03	8.662797E-17	3.583450E-18
7.180000E+03	8.678620E-17	3.585170E-18
7.190000E+03	8.693360E-17	3.586103E-18
7.200000E+03	8.706855E-17	3.586374E-18
7.210000E+03	8.718631E-17	3.585950E-18
7.220000E+03	8.728676E-17	3.584959E-18
7.230000E+03	8.736559E-17	3.583323E-18
7.240000E+03	8.742314E-17	3.581119E-18
7.250000E+03	8.745663E-17	3.578256E-18
7.260000E+03	8.746459E-17	3.574662E-18
7.270000E+03	8.744571E-17	3.570229E-18
7.280000E+03	8.739997E-17	3.564867E-18
7.290000E+03	8.732408E-17	3.558315E-18
7.300000E+03	8.721933E-17	3.550470E-18
7.310000E+03	8.708373E-17	3.541063E-18
7.320000E+03	8.691643E-17	3.529851E-18
7.330000E+03	8.671777E-17	3.516621E-18
7.340000E+03	8.648586E-17	3.501056E-18
7.350000E+03	8.621997E-17	3.482882E-18
7.360000E+03	8.591942E-17	3.461824E-18
7.370000E+03	8.558470E-17	3.437661E-18
7.380000E+03	8.521304E-17	3.410051E-18
7.390000E+03	8.480622E-17	3.378852E-18
7.400000E+03	8.436390E-17	3.343857E-18
7.410000E+03	8.388371E-17	3.304806E-18
7.420000E+03	8.336675E-17	3.261610E-18
7.430000E+03	8.281320E-17	3.214179E-18
7.440000E+03	8.222456E-17	3.162518E-18
7.450000E+03	8.159927E-17	3.106564E-18
7.460000E+03	8.093927E-17	3.046445E-18
7.470000E+03	8.024561E-17	2.982316E-18
7.480000E+03	7.951957E-17	2.914415E-18
7.490000E+03	7.876267E-17	2.843063E-18
7.500000E+03	7.797656E-17	2.768679E-18
7.510000E+03	7.716312E-17	2.691780E-18
7.520000E+03	7.632434E-17	2.612998E-18
7.530000E+03	7.546137E-17	2.533044E-18
7.540000E+03	7.457846E-17	2.452857E-18
7.550000E+03	7.367596E-17	2.373365E-18
7.560000E+03	7.275725E-17	2.295723E-18
7.570000E+03	7.182478E-17	2.221167E-18
7.580000E+03	7.088004E-17	2.151005E-18
7.590000E+03	6.992555E-17	2.086636E-18
7.600000E+03	6.896564E-17	2.029529E-18
7.610000E+03	6.800087E-17	1.980980E-18
7.620000E+03	6.703367E-17	1.942190E-18
7.630000E+03	6.606643E-17	1.914099E-18
7.640000E+03	6.510235E-17	1.897301E-18
7.650000E+03	6.414371E-17	1.891838E-18
7.660000E+03	6.319110E-17	1.897132E-18
7.670000E+03	6.224844E-17	1.912342E-18
7.680000E+03	6.131699E-17	1.936317E-18
7.690000E+03	6.039871E-17	1.967818E-18
7.700000E+03	5.949624E-17	2.005612E-18
7.710000E+03	5.861040E-17	2.048471E-18
7.720000E+03	5.774271E-17	2.095299E-18
7.730000E+03	5.689451E-17	2.145130E-18
7.740000E+03	5.606775E-17	2.197174E-18
7.750000E+03	5.526265E-17	2.250728E-18
7.760000E+03	5.448008E-17	2.305252E-18
