#wls	flux	fluxerr
1.600000E+03	7.650357E-19	6.001327E-19
1.640000E+03	7.603354E-19	5.908523E-19
1.680000E+03	7.565300E-19	5.822037E-19
1.720000E+03	7.537873E-19	5.742962E-19
1.760000E+03	7.519864E-19	5.670153E-19
1.800000E+03	7.514464E-19	5.605780E-19
1.840000E+03	7.520557E-19	5.548723E-19
1.880000E+03	7.539985E-19	5.500042E-19
1.920000E+03	7.571760E-19	5.458694E-19
1.960000E+03	7.619314E-19	5.426799E-19
2.000000E+03	7.680371E-19	5.402337E-19
2.040000E+03	7.758556E-19	5.387453E-19
2.080000E+03	7.853243E-19	5.381239E-19
2.120000E+03	7.966856E-19	5.384858E-19
2.160000E+03	8.102007E-19	5.399498E-19
2.200000E+03	8.256976E-19	5.423388E-19
2.240000E+03	8.436226E-19	5.458812E-19
2.280000E+03	8.641454E-19	5.506106E-19
2.320000E+03	8.874588E-19	5.565672E-19
2.360000E+03	9.137814E-19	5.637978E-19
2.400000E+03	9.436901E-19	5.725569E-19
2.440000E+03	9.771479E-19	5.827078E-19
2.480000E+03	1.014817E-18	5.945236E-19
2.520000E+03	1.057257E-18	6.081902E-19
2.560000E+03	1.104732E-18	6.237017E-19
2.600000E+03	1.157917E-18	6.412681E-19
2.640000E+03	1.217574E-18	6.611159E-19
2.680000E+03	1.284559E-18	6.834899E-19
2.720000E+03	1.359632E-18	7.085465E-19
2.760000E+03	1.444078E-18	7.366775E-19
2.800000E+03	1.538902E-18	7.680796E-19
2.840000E+03	1.645936E-18	8.033095E-19
2.880000E+03	1.766527E-18	8.426139E-19
2.920000E+03	1.902692E-18	8.864940E-19
2.960000E+03	2.056979E-18	9.356076E-19
3.000000E+03	2.231428E-18	9.902771E-19
3.010000E+03	2.278557E-18	1.004898E-18
3.020000E+03	2.327344E-18	1.019989E-18
3.030000E+03	2.377540E-18	1.035427E-18
3.040000E+03	2.429481E-18	1.051346E-18
3.050000E+03	2.483214E-18	1.067754E-18
3.060000E+03	2.538483E-18	1.084525E-18
3.070000E+03	2.595636E-18	1.101797E-18
3.080000E+03	2.654410E-18	1.119442E-18
3.090000E+03	2.715485E-18	1.137733E-18
3.100000E+03	2.778279E-18	1.156408E-18
3.110000E+03	2.843491E-18	1.175744E-18
3.120000E+03	2.910522E-18	1.195476E-18
3.130000E+03	2.980094E-18	1.215882E-18
3.140000E+03	3.051590E-18	1.236694E-18
3.150000E+03	3.125753E-18	1.258194E-18
3.160000E+03	3.202301E-18	1.280250E-18
3.170000E+03	3.281298E-18	1.302866E-18
3.180000E+03	3.362802E-18	1.326048E-18
3.190000E+03	3.447246E-18	1.349944E-18
3.200000E+03	3.534707E-18	1.374561E-18
3.210000E+03	3.624887E-18	1.399760E-18
3.220000E+03	3.718234E-18	1.425691E-18
3.230000E+03	3.814440E-18	1.452212E-18
3.240000E+03	3.913966E-18	1.479475E-18
3.250000E+03	4.016895E-18	1.507484E-18
3.260000E+03	4.123311E-18	1.536244E-18
3.270000E+03	4.233299E-18	1.565759E-18
3.280000E+03	4.346943E-18	1.596030E-18
3.290000E+03	4.464328E-18	1.627061E-18
3.300000E+03	4.585972E-18	1.659008E-18
3.310000E+03	4.711104E-18	1.691562E-18
3.320000E+03	4.841122E-18	1.725192E-18
3.330000E+03	4.974798E-18	1.759427E-18
3.340000E+03	5.113570E-18	1.794742E-18
3.350000E+03	5.256634E-18	1.830815E-18
3.360000E+03	5.404545E-18	1.867806E-18
3.370000E+03	5.557407E-18	1.905711E-18
3.380000E+03	5.715321E-18	1.944526E-18
3.390000E+03	5.878389E-18	1.984245E-18
3.400000E+03	6.047209E-18	2.025028E-18
3.410000E+03	6.221397E-18	2.066701E-18
3.420000E+03	6.401048E-18	2.109253E-18
3.430000E+03	6.586777E-18	2.152843E-18
3.440000E+03	6.778171E-18	2.197287E-18
3.450000E+03	6.976388E-18	2.242914E-18
3.460000E+03	7.180475E-18	2.289366E-18
3.470000E+03	7.391614E-18	2.336971E-18
3.480000E+03	7.609372E-18	2.385536E-18
3.490000E+03	7.833846E-18	2.435039E-18
3.500000E+03	8.065703E-18	2.485634E-18
3.510000E+03	8.304472E-18	2.537117E-18
3.520000E+03	8.550826E-18	2.589639E-18
3.530000E+03	8.804864E-18	2.643170E-18
3.540000E+03	9.066681E-18	2.697676E-18
3.550000E+03	9.336364E-18	2.753124E-18
3.560000E+03	9.614616E-18	2.809655E-18
3.570000E+03	9.900903E-18	2.867050E-18
3.580000E+03	1.019529E-17	2.925263E-18
3.590000E+03	1.049913E-17	2.984614E-18
3.600000E+03	1.081120E-17	3.044688E-18
3.610000E+03	1.113286E-17	3.105800E-18
3.620000E+03	1.146353E-17	3.167713E-18
3.630000E+03	1.180323E-17	3.230366E-18
3.640000E+03	1.215270E-17	3.293885E-18
3.650000E+03	1.251127E-17	3.358019E-18
3.660000E+03	1.288034E-17	3.423072E-18
3.670000E+03	1.325856E-17	3.488601E-18
3.680000E+03	1.364732E-17	3.554906E-18
3.690000E+03	1.404591E-17	3.621722E-18
3.700000E+03	1.445432E-17	3.688970E-18
3.710000E+03	1.487397E-17	3.756940E-18
3.720000E+03	1.530338E-17	3.825171E-18
3.730000E+03	1.574321E-17	3.893763E-18
3.740000E+03	1.619343E-17	3.962622E-18
3.750000E+03	1.665470E-17	4.031841E-18
3.760000E+03	1.712619E-17	4.101137E-18
3.770000E+03	1.760858E-17	4.170596E-18
3.780000E+03	1.810175E-17	4.240116E-18
3.790000E+03	1.860479E-17	4.309409E-18
3.800000E+03	1.911916E-17	4.378739E-18
3.810000E+03	1.964391E-17	4.447814E-18
3.820000E+03	2.017887E-17	4.516527E-18
3.830000E+03	2.072469E-17	4.584952E-18
3.840000E+03	2.128119E-17	4.652976E-18
3.850000E+03	2.184734E-17	4.720310E-18
3.860000E+03	2.242377E-17	4.787023E-18
3.870000E+03	2.301024E-17	4.853007E-18
3.880000E+03	2.360654E-17	4.918150E-18
3.890000E+03	2.421242E-17	4.982346E-18
3.900000E+03	2.482849E-17	5.045661E-18
3.910000E+03	2.545279E-17	5.107642E-18
3.920000E+03	2.608675E-17	5.168534E-18
3.930000E+03	2.673013E-17	5.228234E-18
3.940000E+03	2.738179E-17	5.286473E-18
3.950000E+03	2.804145E-17	5.343158E-18
3.960000E+03	2.870970E-17	5.398367E-18
3.970000E+03	2.938627E-17	5.452011E-18
3.980000E+03	3.006913E-17	5.503681E-18
3.990000E+03	3.076065E-17	5.553789E-18
4.000000E+03	3.145791E-17	5.601779E-18
4.010000E+03	3.216242E-17	5.647907E-18
4.020000E+03	3.287394E-17	5.692109E-18
4.030000E+03	3.359042E-17	5.734022E-18
4.040000E+03	3.431254E-17	5.773755E-18
4.050000E+03	3.504097E-17	5.811421E-18
4.060000E+03	3.577372E-17	5.846685E-18
4.070000E+03	3.651059E-17	5.879528E-18
4.080000E+03	3.725231E-17	5.910080E-18
4.090000E+03	3.799784E-17	5.938188E-18
4.100000E+03	3.874705E-17	5.963854E-18
4.110000E+03	3.949893E-17	5.986949E-18
4.120000E+03	4.025431E-17	6.007631E-18
4.130000E+03	4.101131E-17	6.025655E-18
4.140000E+03	4.177173E-17	6.041330E-18
4.150000E+03	4.253284E-17	6.054304E-18
4.160000E+03	4.329558E-17	6.064769E-18
4.170000E+03	4.406002E-17	6.072791E-18
4.180000E+03	4.482442E-17	6.078194E-18
4.190000E+03	4.558981E-17	6.081193E-18
4.200000E+03	4.635544E-17	6.081760E-18
4.210000E+03	4.712058E-17	6.079883E-18
4.220000E+03	4.788544E-17	6.075681E-18
4.230000E+03	4.865028E-17	6.069277E-18
4.240000E+03	4.941355E-17	6.060578E-18
4.250000E+03	5.017557E-17	6.049731E-18
4.260000E+03	5.093575E-17	6.036780E-18
4.270000E+03	5.169453E-17	6.021872E-18
4.280000E+03	5.245057E-17	6.004931E-18
4.290000E+03	5.320538E-17	5.986190E-18
4.300000E+03	5.395684E-17	5.965466E-18
4.310000E+03	5.470742E-17	5.943081E-18
4.320000E+03	5.545420E-17	5.918759E-18
4.330000E+03	5.619881E-17	5.892716E-18
4.340000E+03	5.694019E-17	5.864879E-18
4.350000E+03	5.767914E-17	5.835361E-18
4.360000E+03	5.841379E-17	5.804002E-18
4.370000E+03	5.914502E-17	5.770914E-18
4.380000E+03	5.987193E-17	5.736028E-18
4.390000E+03	6.059458E-17	5.699362E-18
4.400000E+03	6.131128E-17	5.660750E-18
4.410000E+03	6.202215E-17	5.620195E-18
4.420000E+03	6.272555E-17	5.577524E-18
4.430000E+03	6.341978E-17	5.532554E-18
4.440000E+03	6.410403E-17	5.485175E-18
4.450000E+03	6.477657E-17	5.435210E-18
4.460000E+03	6.543744E-17	5.382641E-18
4.470000E+03	6.608937E-17	5.327670E-18
4.480000E+03	6.673406E-17	5.270407E-18
4.490000E+03	6.737220E-17	5.210867E-18
4.500000E+03	6.800797E-17	5.149331E-18
4.510000E+03	6.864003E-17	5.085653E-18
4.520000E+03	6.927053E-17	5.019945E-18
4.530000E+03	6.990060E-17	4.952248E-18
4.540000E+03	7.053134E-17	4.882602E-18
4.550000E+03	7.116283E-17	4.810983E-18
4.560000E+03	7.179600E-17	4.737435E-18
4.570000E+03	7.243076E-17	4.661939E-18
4.580000E+03	7.306779E-17	4.584518E-18
4.590000E+03	7.370668E-17	4.505129E-18
4.600000E+03	7.434759E-17	4.423720E-18
4.610000E+03	7.498995E-17	4.340106E-18
4.620000E+03	7.563094E-17	4.253932E-18
4.630000E+03	7.627126E-17	4.165060E-18
4.640000E+03	7.690675E-17	4.073087E-18
4.650000E+03	7.753688E-17	3.977842E-18
4.660000E+03	7.816014E-17	3.879131E-18
4.670000E+03	7.877408E-17	3.776742E-18
4.680000E+03	7.937626E-17	3.670514E-18
4.690000E+03	7.996712E-17	3.560490E-18
4.700000E+03	8.054342E-17	3.446608E-18
4.710000E+03	8.110391E-17	3.328989E-18
4.720000E+03	8.164840E-17	3.207905E-18
4.730000E+03	8.217601E-17	3.083701E-18
4.740000E+03	8.268505E-17	2.956847E-18
4.750000E+03	8.317590E-17	2.828082E-18
4.760000E+03	8.364816E-17	2.698339E-18
4.770000E+03	8.410162E-17	2.568846E-18
4.780000E+03	8.453820E-17	2.441256E-18
4.790000E+03	8.495614E-17	2.317535E-18
4.800000E+03	8.535484E-17	2.200190E-18
4.810000E+03	8.573399E-17	2.092287E-18
4.820000E+03	8.609264E-17	1.997390E-18
4.830000E+03	8.643112E-17	1.919490E-18
4.840000E+03	8.674909E-17	1.862632E-18
4.850000E+03	8.704751E-17	1.830377E-18
4.860000E+03	8.732665E-17	1.824966E-18
4.870000E+03	8.758789E-17	1.845859E-18
4.880000E+03	8.783283E-17	1.890075E-18
4.890000E+03	8.806240E-17	1.953555E-18
4.900000E+03	8.827882E-17	2.031955E-18
4.910000E+03	8.848573E-17	2.121150E-18
4.920000E+03	8.868405E-17	2.217446E-18
4.930000E+03	8.887875E-17	2.317823E-18
4.940000E+03	8.907074E-17	2.419696E-18
4.950000E+03	8.926386E-17	2.521081E-18
4.960000E+03	8.946090E-17	2.620444E-18
4.970000E+03	8.966340E-17	2.716611E-18
4.980000E+03	8.987477E-17	2.808805E-18
4.990000E+03	9.009734E-17	2.896505E-18
5.000000E+03	9.033323E-17	2.979420E-18
5.010000E+03	9.058345E-17	3.057423E-18
5.020000E+03	9.085089E-17	3.130619E-18
5.030000E+03	9.113723E-17	3.199208E-18
5.040000E+03	9.144394E-17	3.263484E-18
5.050000E+03	9.177175E-17	3.323702E-18
5.060000E+03	9.211990E-17	3.379921E-18
5.070000E+03	9.248689E-17	3.432121E-18
5.080000E+03	9.287107E-17	3.480284E-18
5.090000E+03	9.327191E-17	3.524398E-18
5.100000E+03	9.368692E-17	3.564395E-18
5.110000E+03	9.411488E-17	3.600265E-18
5.120000E+03	9.455510E-17	3.631997E-18
5.130000E+03	9.500824E-17	3.659652E-18
5.140000E+03	9.547408E-17	3.683295E-18
5.150000E+03	9.595166E-17	3.702989E-18
5.160000E+03	9.644118E-17	3.718883E-18
5.170000E+03	9.694491E-17	3.731241E-18
5.180000E+03	9.746119E-17	3.740173E-18
5.190000E+03	9.799143E-17	3.745940E-18
5.200000E+03	9.853582E-17	3.748775E-18
5.210000E+03	9.909417E-17	3.748868E-18
5.220000E+03	9.966608E-17	3.746422E-18
5.230000E+03	1.002508E-16	3.741674E-18
5.240000E+03	1.008473E-16	3.734857E-18
5.250000E+03	1.014539E-16	3.726236E-18
5.260000E+03	1.020690E-16	3.716060E-18
5.270000E+03	1.026913E-16	3.704508E-18
5.280000E+03	1.033172E-16	3.691657E-18
5.290000E+03	1.039439E-16	3.677606E-18
5.300000E+03	1.045696E-16	3.662392E-18
5.310000E+03	1.051890E-16	3.645934E-18
5.320000E+03	1.058025E-16	3.628366E-18
5.330000E+03	1.064034E-16	3.609577E-18
5.340000E+03	1.069908E-16	3.589687E-18
5.350000E+03	1.075615E-16	3.568784E-18
5.360000E+03	1.081101E-16	3.546862E-18
5.370000E+03	1.086354E-16	3.524117E-18
5.380000E+03	1.091343E-16	3.500741E-18
5.390000E+03	1.096010E-16	3.476862E-18
5.400000E+03	1.100343E-16	3.452843E-18
5.410000E+03	1.104295E-16	3.429073E-18
5.420000E+03	1.107842E-16	3.406105E-18
5.430000E+03	1.110926E-16	3.384524E-18
5.440000E+03	1.113534E-16	3.365164E-18
5.450000E+03	1.115610E-16	3.348751E-18
5.460000E+03	1.117143E-16	3.336187E-18
5.470000E+03	1.118085E-16	3.328133E-18
5.480000E+03	1.118439E-16	3.325043E-18
5.490000E+03	1.118174E-16	3.327046E-18
5.500000E+03	1.117311E-16	3.334183E-18
5.510000E+03	1.115867E-16	3.346012E-18
5.520000E+03	1.113846E-16	3.361824E-18
5.530000E+03	1.111308E-16	3.380943E-18
5.540000E+03	1.108253E-16	3.402235E-18
5.550000E+03	1.104737E-16	3.424698E-18
5.560000E+03	1.100781E-16	3.447349E-18
5.570000E+03	1.096417E-16	3.469361E-18
5.580000E+03	1.091677E-16	3.490084E-18
5.590000E+03	1.086590E-16	3.509059E-18
5.600000E+03	1.081186E-16	3.525983E-18
5.610000E+03	1.075493E-16	3.540722E-18
5.620000E+03	1.069553E-16	3.553288E-18
5.630000E+03	1.063386E-16	3.563647E-18
5.640000E+03	1.057028E-16	3.571883E-18
5.650000E+03	1.050515E-16	3.578178E-18
5.660000E+03	1.043904E-16	3.582791E-18
5.670000E+03	1.037223E-16	3.585958E-18
5.680000E+03	1.030545E-16	3.588132E-18
5.690000E+03	1.023920E-16	3.589699E-18
5.700000E+03	1.017421E-16	3.591162E-18
5.710000E+03	1.011092E-16	3.592929E-18
5.720000E+03	1.005016E-16	3.595445E-18
5.730000E+03	9.992753E-17	3.599121E-18
5.740000E+03	9.939205E-17	3.604110E-18
5.750000E+03	9.890235E-17	3.610345E-18
5.760000E+03	9.846416E-17	3.617583E-18
5.770000E+03	9.808249E-17	3.625542E-18
5.780000E+03	9.776110E-17	3.633852E-18
5.790000E+03	9.750208E-17	3.642094E-18
5.800000E+03	9.730771E-17	3.649893E-18
5.810000E+03	9.717990E-17	3.656850E-18
5.820000E+03	9.711789E-17	3.662505E-18
5.830000E+03	9.712198E-17	3.666482E-18
5.840000E+03	9.718815E-17	3.668255E-18
5.850000E+03	9.731530E-17	3.667463E-18
5.860000E+03	9.749787E-17	3.663635E-18
5.870000E+03	9.773288E-17	3.656455E-18
5.880000E+03	9.801292E-17	3.645511E-18
5.890000E+03	9.833313E-17	3.630578E-18
5.900000E+03	9.868636E-17	3.611440E-18
5.910000E+03	9.906711E-17	3.588035E-18
5.920000E+03	9.946759E-17	3.560314E-18
5.930000E+03	9.988035E-17	3.528318E-18
5.940000E+03	1.002976E-16	3.492156E-18
5.950000E+03	1.007119E-16	3.451979E-18
5.960000E+03	1.011124E-16	3.407748E-18
5.970000E+03	1.014908E-16	3.359521E-18
5.980000E+03	1.018379E-16	3.307315E-18
5.990000E+03	1.021447E-16	3.251022E-18
6.000000E+03	1.024033E-16	3.190575E-18
6.010000E+03	1.026068E-16	3.125957E-18
6.020000E+03	1.027504E-16	3.057191E-18
6.030000E+03	1.028273E-16	2.984295E-18
6.040000E+03	1.028337E-16	2.907449E-18
6.050000E+03	1.027686E-16	2.826932E-18
6.060000E+03	1.026294E-16	2.743062E-18
6.070000E+03	1.024185E-16	2.656396E-18
6.080000E+03	1.021360E-16	2.567433E-18
6.090000E+03	1.017880E-16	2.476950E-18
6.100000E+03	1.013780E-16	2.385768E-18
6.110000E+03	1.009145E-16	2.294869E-18
6.120000E+03	1.004049E-16	2.205358E-18
6.130000E+03	9.985758E-17	2.118527E-18
6.140000E+03	9.928509E-17	2.035822E-18
6.150000E+03	9.869748E-17	1.958819E-18
6.160000E+03	9.810573E-17	1.889294E-18
6.170000E+03	9.752176E-17	1.829086E-18
6.180000E+03	9.695623E-17	1.780030E-18
6.190000E+03	9.642013E-17	1.743852E-18
6.200000E+03	9.592070E-17	1.721784E-18
6.210000E+03	9.546537E-17	1.713999E-18
6.220000E+03	9.506006E-17	1.719224E-18
6.230000E+03	9.470732E-17	1.735554E-18
6.240000E+03	9.441071E-17	1.760987E-18
6.250000E+03	9.417271E-17	1.793618E-18
6.260000E+03	9.399215E-17	1.831662E-18
6.270000E+03	9.386960E-17	1.873676E-18
6.280000E+03	9.380145E-17	1.918389E-18
6.290000E+03	9.378430E-17	1.964611E-18
6.300000E+03	9.381160E-17	2.011291E-18
6.310000E+03	9.387612E-17	2.057573E-18
6.320000E+03	9.397074E-17	2.102675E-18
6.330000E+03	9.408687E-17	2.145943E-18
6.340000E+03	9.421658E-17	2.186851E-18
6.350000E+03	9.434971E-17	2.224810E-18
6.360000E+03	9.447681E-17	2.259341E-18
6.370000E+03	9.459033E-17	2.290163E-18
6.380000E+03	9.468103E-17	2.317040E-18
6.390000E+03	9.473781E-17	2.339844E-18
6.400000E+03	9.475284E-17	2.358679E-18
6.410000E+03	9.471915E-17	2.373760E-18
6.420000E+03	9.462746E-17	2.385369E-18
6.430000E+03	9.447264E-17	2.393954E-18
6.440000E+03	9.424997E-17	2.399908E-18
6.450000E+03	9.395624E-17	2.403663E-18
6.460000E+03	9.359216E-17	2.405672E-18
6.470000E+03	9.315797E-17	2.406096E-18
6.480000E+03	9.265768E-17	2.405108E-18
6.490000E+03	9.209792E-17	2.402963E-18
6.500000E+03	9.148326E-17	2.399803E-18
6.510000E+03	9.082060E-17	2.395862E-18
6.520000E+03	9.011888E-17	2.391438E-18
6.530000E+03	8.938721E-17	2.386731E-18
6.540000E+03	8.863277E-17	2.381897E-18
6.550000E+03	8.786331E-17	2.377119E-18
6.560000E+03	8.708792E-17	2.372536E-18
6.570000E+03	8.631057E-17	2.368153E-18
6.580000E+03	8.553838E-17	2.364009E-18
6.590000E+03	8.477675E-17	2.359909E-18
6.600000E+03	8.402873E-17	2.355562E-18
6.610000E+03	8.329887E-17	2.350760E-18
6.620000E+03	8.259136E-17	2.345264E-18
6.630000E+03	8.190737E-17	2.338821E-18
6.640000E+03	8.125225E-17	2.331380E-18
6.650000E+03	8.062626E-17	2.322791E-18
6.660000E+03	8.003203E-17	2.313064E-18
6.670000E+03	7.947095E-17	2.302288E-18
6.680000E+03	7.894302E-17	2.290592E-18
6.690000E+03	7.845054E-17	2.278274E-18
6.700000E+03	7.799262E-17	2.265610E-18
6.710000E+03	7.756728E-17	2.252850E-18
6.720000E+03	7.717462E-17	2.240357E-18
6.730000E+03	7.681079E-17	2.228411E-18
6.740000E+03	7.647367E-17	2.217296E-18
6.750000E+03	7.615990E-17	2.207285E-18
6.760000E+03	7.586701E-17	2.198709E-18
6.770000E+03	7.558997E-17	2.191792E-18
6.780000E+03	7.532649E-17	2.186844E-18
6.790000E+03	7.507296E-17	2.184066E-18
6.800000E+03	7.482900E-17	2.183546E-18
6.810000E+03	7.459215E-17	2.185230E-18
6.820000E+03	7.436031E-17	2.189057E-18
6.830000E+03	7.413457E-17	2.194997E-18
6.840000E+03	7.391298E-17	2.202926E-18
6.850000E+03	7.369650E-17	2.212818E-18
6.860000E+03	7.348558E-17	2.224612E-18
6.870000E+03	7.328020E-17	2.238227E-18
6.880000E+03	7.308350E-17	2.253621E-18
6.890000E+03	7.289571E-17	2.270565E-18
6.900000E+03	7.272089E-17	2.288913E-18
6.910000E+03	7.255970E-17	2.308361E-18
6.920000E+03	7.241525E-17	2.328556E-18
6.930000E+03	7.228979E-17	2.349082E-18
6.940000E+03	7.218462E-17	2.369504E-18
6.950000E+03	7.210338E-17	2.389441E-18
6.960000E+03	7.204703E-17	2.408458E-18
6.970000E+03	7.201642E-17	2.426170E-18
6.980000E+03	7.201391E-17	2.442282E-18
6.990000E+03	7.204173E-17	2.456554E-18
7.000000E+03	7.209918E-17	2.468692E-18
7.010000E+03	7.218751E-17	2.478490E-18
7.020000E+03	7.230674E-17	2.485742E-18
7.030000E+03	7.245745E-17	2.490324E-18
7.040000E+03	7.263689E-17	2.492037E-18
7.050000E+03	7.284460E-17	2.490830E-18
7.060000E+03	7.307898E-17	2.486685E-18
7.070000E+03	7.333787E-17	2.479630E-18
7.080000E+03	7.361882E-17	2.469770E-18
7.090000E+03	7.391999E-17	2.457306E-18
7.100000E+03	7.423617E-17	2.442396E-18
7.110000E+03	7.456553E-17	2.425394E-18
7.120000E+03	7.490309E-17	2.406623E-18
7.130000E+03	7.524428E-17	2.386449E-18
7.140000E+03	7.558422E-17	2.365297E-18
7.150000E+03	7.591792E-17	2.343619E-18
7.160000E+03	7.624142E-17	2.321843E-18
7.170000E+03	7.654882E-17	2.300361E-18
7.180000E+03	7.683542E-17	2.279630E-18
7.190000E+03	7.709705E-17	2.260077E-18
7.200000E+03	7.733093E-17	2.242171E-18
7.210000E+03	7.753311E-17	2.226297E-18
7.220000E+03	7.770320E-17	2.212747E-18
7.230000E+03	7.783970E-17	2.201707E-18
7.240000E+03	7.794355E-17	2.193397E-18
7.250000E+03	7.801437E-17	2.187884E-18
7.260000E+03	7.805416E-17	2.185261E-18
7.270000E+03	7.806301E-17	2.185489E-18
7.280000E+03	7.804312E-17	2.188387E-18
7.290000E+03	7.799572E-17	2.193664E-18
7.300000E+03	7.792177E-17	2.200928E-18
7.310000E+03	7.782073E-17	2.209541E-18
7.320000E+03	7.769381E-17	2.218858E-18
7.330000E+03	7.754098E-17	2.228223E-18
7.340000E+03	7.736178E-17	2.236962E-18
7.350000E+03	7.715555E-17	2.244452E-18
7.360000E+03	7.692252E-17	2.250154E-18
7.370000E+03	7.666060E-17	2.253464E-18
7.380000E+03	7.636863E-17	2.253868E-18
7.390000E+03	7.604648E-17	2.250945E-18
7.400000E+03	7.569298E-17	2.244259E-18
7.410000E+03	7.530806E-17	2.233465E-18
7.420000E+03	7.488882E-17	2.218187E-18
7.430000E+03	7.443678E-17	2.198177E-18
7.440000E+03	7.395171E-17	2.173180E-18
7.450000E+03	7.343281E-17	2.142966E-18
7.460000E+03	7.288100E-17	2.107334E-18
7.470000E+03	7.229758E-17	2.066146E-18
7.480000E+03	7.168310E-17	2.019339E-18
7.490000E+03	7.103944E-17	1.966960E-18
7.500000E+03	7.036863E-17	1.909179E-18
7.510000E+03	6.967183E-17	1.846281E-18
7.520000E+03	6.895230E-17	1.778734E-18
7.530000E+03	6.821238E-17	1.707150E-18
7.540000E+03	6.745259E-17	1.632288E-18
7.550000E+03	6.667719E-17	1.555186E-18
7.560000E+03	6.588676E-17	1.477065E-18
7.570000E+03	6.508457E-17	1.399528E-18
7.580000E+03	6.427290E-17	1.324498E-18
7.590000E+03	6.345308E-17	1.254318E-18
7.600000E+03	6.262815E-17	1.191833E-18
7.610000E+03	6.180014E-17	1.140242E-18
7.620000E+03	6.097018E-17	1.102868E-18
7.630000E+03	6.014018E-17	1.082726E-18
7.640000E+03	5.931282E-17	1.081853E-18
7.650000E+03	5.848926E-17	1.100361E-18
7.660000E+03	5.767176E-17	1.136268E-18
7.670000E+03	5.686331E-17	1.186602E-18
7.680000E+03	5.606439E-17	1.248093E-18
7.690000E+03	5.527848E-17	1.317763E-18
7.700000E+03	5.450647E-17	1.393032E-18
7.710000E+03	5.375062E-17	1.471868E-18
7.720000E+03	5.301074E-17	1.552649E-18
7.730000E+03	5.228937E-17	1.634218E-18
7.740000E+03	5.158665E-17	1.715681E-18
7.750000E+03	5.090402E-17	1.796446E-18
7.760000E+03	5.024065E-17	1.876050E-18
