#wls	flux	fluxerr
1.600000E+03	6.961761E-19	5.437307E-19
1.640000E+03	6.901101E-19	5.338239E-19
1.680000E+03	6.848880E-19	5.245372E-19
1.720000E+03	6.807903E-19	5.160663E-19
1.760000E+03	6.775689E-19	5.082008E-19
1.800000E+03	6.753783E-19	5.010357E-19
1.840000E+03	6.742443E-19	4.945665E-19
1.880000E+03	6.744588E-19	4.889790E-19
1.920000E+03	6.756670E-19	4.839856E-19
1.960000E+03	6.783033E-19	4.798679E-19
2.000000E+03	6.822889E-19	4.765329E-19
2.040000E+03	6.876835E-19	4.739849E-19
2.080000E+03	6.946885E-19	4.723211E-19
2.120000E+03	7.032537E-19	4.714617E-19
2.160000E+03	7.137392E-19	4.715985E-19
2.200000E+03	7.261231E-19	4.726599E-19
2.240000E+03	7.405315E-19	4.746686E-19
2.280000E+03	7.572470E-19	4.777403E-19
2.320000E+03	7.764398E-19	4.819081E-19
2.360000E+03	7.983044E-19	4.872120E-19
2.400000E+03	8.232082E-19	4.937866E-19
2.440000E+03	8.512627E-19	5.015995E-19
2.480000E+03	8.830599E-19	5.108906E-19
2.520000E+03	9.189476E-19	5.217350E-19
2.560000E+03	9.591597E-19	5.341290E-19
2.600000E+03	1.004463E-18	5.483489E-19
2.640000E+03	1.055379E-18	5.645071E-19
2.680000E+03	1.112680E-18	5.828226E-19
2.720000E+03	1.177239E-18	6.035345E-19
2.760000E+03	1.249857E-18	6.268073E-19
2.800000E+03	1.331641E-18	6.529201E-19
2.840000E+03	1.424262E-18	6.823770E-19
2.880000E+03	1.528765E-18	7.153160E-19
2.920000E+03	1.647227E-18	7.523039E-19
2.960000E+03	1.781548E-18	7.937398E-19
3.000000E+03	1.934379E-18	8.402711E-19
3.010000E+03	1.975703E-18	8.527276E-19
3.020000E+03	2.018553E-18	8.656143E-19
3.030000E+03	2.062712E-18	8.788257E-19
3.040000E+03	2.108215E-18	8.923669E-19
3.050000E+03	2.155373E-18	9.063576E-19
3.060000E+03	2.204234E-18	9.208054E-19
3.070000E+03	2.254849E-18	9.357179E-19
3.080000E+03	2.306987E-18	9.509856E-19
3.090000E+03	2.360688E-18	9.666135E-19
3.100000E+03	2.416581E-18	9.828443E-19
3.110000E+03	2.474138E-18	9.994486E-19
3.120000E+03	2.533706E-18	1.016552E-18
3.130000E+03	2.595649E-18	1.034284E-18
3.140000E+03	2.659418E-18	1.052408E-18
3.150000E+03	2.725377E-18	1.071054E-18
3.160000E+03	2.793587E-18	1.090228E-18
3.170000E+03	2.864435E-18	1.110062E-18
3.180000E+03	2.937671E-18	1.130441E-18
3.190000E+03	3.013362E-18	1.151370E-18
3.200000E+03	3.091573E-18	1.172855E-18
3.210000E+03	3.172718E-18	1.195033E-18
3.220000E+03	3.256881E-18	1.217912E-18
3.230000E+03	3.343794E-18	1.241370E-18
3.240000E+03	3.433527E-18	1.265410E-18
3.250000E+03	3.526887E-18	1.290306E-18
3.260000E+03	3.623234E-18	1.315798E-18
3.270000E+03	3.723022E-18	1.342025E-18
3.280000E+03	3.826343E-18	1.368995E-18
3.290000E+03	3.933680E-18	1.396851E-18
3.300000E+03	4.044353E-18	1.425322E-18
3.310000E+03	4.159244E-18	1.454692E-18
3.320000E+03	4.278059E-18	1.484825E-18
3.330000E+03	4.401309E-18	1.515867E-18
3.340000E+03	4.528689E-18	1.547679E-18
3.350000E+03	4.660295E-18	1.580261E-18
3.360000E+03	4.797095E-18	1.613908E-18
3.370000E+03	4.938343E-18	1.648329E-18
3.380000E+03	5.085033E-18	1.683820E-18
3.390000E+03	5.236391E-18	1.720083E-18
3.400000E+03	5.393440E-18	1.757416E-18
3.410000E+03	5.555846E-18	1.795667E-18
3.420000E+03	5.723724E-18	1.834831E-18
3.430000E+03	5.897674E-18	1.875057E-18
3.440000E+03	6.077336E-18	1.916184E-18
3.450000E+03	6.263824E-18	1.958515E-18
3.460000E+03	6.456273E-18	2.001731E-18
3.470000E+03	6.655305E-18	2.045975E-18
3.480000E+03	6.861571E-18	2.091396E-18
3.490000E+03	7.074685E-18	2.137820E-18
3.500000E+03	7.294765E-18	2.185230E-18
3.510000E+03	7.522475E-18	2.233769E-18
3.520000E+03	7.757950E-18	2.283418E-18
3.530000E+03	8.000754E-18	2.333990E-18
3.540000E+03	8.252135E-18	2.385788E-18
3.550000E+03	8.511653E-18	2.438621E-18
3.560000E+03	8.779421E-18	2.492456E-18
3.570000E+03	9.055542E-18	2.547261E-18
3.580000E+03	9.341332E-18	2.603337E-18
3.590000E+03	9.635694E-18	2.660307E-18
3.600000E+03	9.939335E-18	2.718299E-18
3.610000E+03	1.025235E-17	2.777266E-18
3.620000E+03	1.057547E-17	2.837333E-18
3.630000E+03	1.090748E-17	2.898103E-18
3.640000E+03	1.125042E-17	2.960039E-18
3.650000E+03	1.160303E-17	3.022736E-18
3.660000E+03	1.196672E-17	3.086480E-18
3.670000E+03	1.234019E-17	3.150857E-18
3.680000E+03	1.272484E-17	3.216147E-18
3.690000E+03	1.312001E-17	3.282102E-18
3.700000E+03	1.352642E-17	3.348821E-18
3.710000E+03	1.394408E-17	3.416225E-18
3.720000E+03	1.437299E-17	3.484230E-18
3.730000E+03	1.481241E-17	3.552573E-18
3.740000E+03	1.526450E-17	3.621694E-18
3.750000E+03	1.572699E-17	3.690968E-18
3.760000E+03	1.620208E-17	3.760831E-18
3.770000E+03	1.668818E-17	3.830828E-18
3.780000E+03	1.718597E-17	3.901035E-18
3.790000E+03	1.769611E-17	3.971522E-18
3.800000E+03	1.821773E-17	4.042006E-18
3.810000E+03	1.875066E-17	4.112377E-18
3.820000E+03	1.929557E-17	4.182701E-18
3.830000E+03	1.985228E-17	4.252862E-18
3.840000E+03	2.042063E-17	4.322748E-18
3.850000E+03	2.099958E-17	4.392069E-18
3.860000E+03	2.159058E-17	4.461057E-18
3.870000E+03	2.219340E-17	4.529593E-18
3.880000E+03	2.280699E-17	4.597390E-18
3.890000E+03	2.343108E-17	4.664334E-18
3.900000E+03	2.406710E-17	4.730649E-18
3.910000E+03	2.471308E-17	4.795883E-18
3.920000E+03	2.536959E-17	4.860093E-18
3.930000E+03	2.603635E-17	4.923172E-18
3.940000E+03	2.671303E-17	4.985011E-18
3.950000E+03	2.739935E-17	5.045509E-18
3.960000E+03	2.809588E-17	5.104728E-18
3.970000E+03	2.880142E-17	5.162409E-18
3.980000E+03	2.951565E-17	5.218463E-18
3.990000E+03	3.023827E-17	5.272805E-18
4.000000E+03	3.096986E-17	5.325512E-18
4.010000E+03	3.170831E-17	5.376197E-18
4.020000E+03	3.245514E-17	5.425103E-18
4.030000E+03	3.321006E-17	5.472165E-18
4.040000E+03	3.397098E-17	5.517026E-18
4.050000E+03	3.473854E-17	5.559793E-18
4.060000E+03	3.551341E-17	5.600572E-18
4.070000E+03	3.629354E-17	5.639039E-18
4.080000E+03	3.707870E-17	5.675176E-18
4.090000E+03	3.786964E-17	5.709112E-18
4.100000E+03	3.866620E-17	5.740839E-18
4.110000E+03	3.946638E-17	5.770086E-18
4.120000E+03	4.027101E-17	5.797008E-18
4.130000E+03	4.107906E-17	5.821493E-18
4.140000E+03	4.189143E-17	5.843709E-18
4.150000E+03	4.270624E-17	5.863439E-18
4.160000E+03	4.352443E-17	5.880866E-18
4.170000E+03	4.434511E-17	5.895928E-18
4.180000E+03	4.516745E-17	5.908576E-18
4.190000E+03	4.599249E-17	5.919018E-18
4.200000E+03	4.681853E-17	5.927107E-18
4.210000E+03	4.764575E-17	5.932950E-18
4.220000E+03	4.847347E-17	5.936547E-18
4.230000E+03	4.930194E-17	5.938023E-18
4.240000E+03	5.013055E-17	5.937394E-18
4.250000E+03	5.095873E-17	5.934689E-18
4.260000E+03	5.178688E-17	5.930048E-18
4.270000E+03	5.261361E-17	5.923398E-18
4.280000E+03	5.343851E-17	5.914776E-18
4.290000E+03	5.426215E-17	5.904322E-18
4.300000E+03	5.508425E-17	5.892067E-18
4.310000E+03	5.590269E-17	5.877845E-18
4.320000E+03	5.671912E-17	5.861886E-18
4.330000E+03	5.753153E-17	5.844030E-18
4.340000E+03	5.833979E-17	5.824312E-18
4.350000E+03	5.914379E-17	5.802765E-18
4.360000E+03	5.994164E-17	5.779240E-18
4.370000E+03	6.073330E-17	5.753771E-18
4.380000E+03	6.151785E-17	5.726300E-18
4.390000E+03	6.229440E-17	5.696767E-18
4.400000E+03	6.306113E-17	5.665024E-18
4.410000E+03	6.381717E-17	5.631005E-18
4.420000E+03	6.456164E-17	5.594637E-18
4.430000E+03	6.529363E-17	5.555841E-18
4.440000E+03	6.601126E-17	5.514458E-18
4.450000E+03	6.671448E-17	5.470480E-18
4.460000E+03	6.740223E-17	5.423822E-18
4.470000E+03	6.807615E-17	5.374617E-18
4.480000E+03	6.873686E-17	5.322912E-18
4.490000E+03	6.938580E-17	5.268814E-18
4.500000E+03	7.002430E-17	5.212419E-18
4.510000E+03	7.065358E-17	5.153812E-18
4.520000E+03	7.127380E-17	5.093000E-18
4.530000E+03	7.188687E-17	5.030120E-18
4.540000E+03	7.249459E-17	4.965296E-18
4.550000E+03	7.309679E-17	4.898518E-18
4.560000E+03	7.369502E-17	4.829890E-18
4.570000E+03	7.428880E-17	4.759379E-18
4.580000E+03	7.487937E-17	4.687054E-18
4.590000E+03	7.546581E-17	4.612831E-18
4.600000E+03	7.604980E-17	4.536765E-18
4.610000E+03	7.662893E-17	4.458639E-18
4.620000E+03	7.720434E-17	4.378434E-18
4.630000E+03	7.777312E-17	4.295891E-18
4.640000E+03	7.833603E-17	4.210966E-18
4.650000E+03	7.889087E-17	4.123468E-18
4.660000E+03	7.943733E-17	4.033336E-18
4.670000E+03	7.997315E-17	3.940448E-18
4.680000E+03	8.049711E-17	3.844787E-18
4.690000E+03	8.100905E-17	3.746446E-18
4.700000E+03	8.150696E-17	3.645504E-18
4.710000E+03	8.199096E-17	3.542222E-18
4.720000E+03	8.245840E-17	3.436843E-18
4.730000E+03	8.290973E-17	3.329864E-18
4.740000E+03	8.334468E-17	3.221887E-18
4.750000E+03	8.376215E-17	3.113644E-18
4.760000E+03	8.416028E-17	3.006035E-18
4.770000E+03	8.454141E-17	2.900328E-18
4.780000E+03	8.490312E-17	2.797857E-18
4.790000E+03	8.524719E-17	2.700354E-18
4.800000E+03	8.557370E-17	2.609735E-18
4.810000E+03	8.588291E-17	2.528134E-18
4.820000E+03	8.617739E-17	2.457874E-18
4.830000E+03	8.645691E-17	2.401181E-18
4.840000E+03	8.672251E-17	2.360082E-18
4.850000E+03	8.697542E-17	2.336107E-18
4.860000E+03	8.721812E-17	2.330034E-18
4.870000E+03	8.745128E-17	2.341535E-18
4.880000E+03	8.767678E-17	2.369326E-18
4.890000E+03	8.789668E-17	2.411442E-18
4.900000E+03	8.811325E-17	2.465535E-18
4.910000E+03	8.832687E-17	2.529082E-18
4.920000E+03	8.854206E-17	2.599750E-18
4.930000E+03	8.875936E-17	2.675292E-18
4.940000E+03	8.898234E-17	2.753813E-18
4.950000E+03	8.921348E-17	2.833681E-18
4.960000E+03	8.945319E-17	2.913487E-18
4.970000E+03	8.970477E-17	2.992192E-18
4.980000E+03	8.997138E-17	3.069008E-18
4.990000E+03	9.025204E-17	3.143237E-18
5.000000E+03	9.055159E-17	3.214578E-18
5.010000E+03	9.086869E-17	3.282685E-18
5.020000E+03	9.120675E-17	3.347516E-18
5.030000E+03	9.156589E-17	3.409015E-18
5.040000E+03	9.194683E-17	3.467210E-18
5.050000E+03	9.234980E-17	3.522145E-18
5.060000E+03	9.277457E-17	3.573846E-18
5.070000E+03	9.322049E-17	3.622316E-18
5.080000E+03	9.368661E-17	3.667535E-18
5.090000E+03	9.417188E-17	3.709472E-18
5.100000E+03	9.467522E-17	3.748095E-18
5.110000E+03	9.519465E-17	3.783338E-18
5.120000E+03	9.573144E-17	3.815271E-18
5.130000E+03	9.628292E-17	3.843826E-18
5.140000E+03	9.685074E-17	3.869125E-18
5.150000E+03	9.743256E-17	3.891154E-18
5.160000E+03	9.802927E-17	3.910052E-18
5.170000E+03	9.864181E-17	3.925985E-18
5.180000E+03	9.926802E-17	3.939015E-18
5.190000E+03	9.990986E-17	3.949386E-18
5.200000E+03	1.005649E-16	3.957186E-18
5.210000E+03	1.012349E-16	3.962676E-18
5.220000E+03	1.019180E-16	3.965996E-18
5.230000E+03	1.026132E-16	3.967333E-18
5.240000E+03	1.033192E-16	3.966868E-18
5.250000E+03	1.040343E-16	3.964776E-18
5.260000E+03	1.047565E-16	3.961212E-18
5.270000E+03	1.054848E-16	3.956344E-18
5.280000E+03	1.062153E-16	3.950225E-18
5.290000E+03	1.069453E-16	3.942920E-18
5.300000E+03	1.076728E-16	3.934509E-18
5.310000E+03	1.083936E-16	3.924970E-18
5.320000E+03	1.091043E-16	3.914319E-18
5.330000E+03	1.098016E-16	3.902575E-18
5.340000E+03	1.104819E-16	3.889771E-18
5.350000E+03	1.111428E-16	3.875998E-18
5.360000E+03	1.117795E-16	3.861300E-18
5.370000E+03	1.123885E-16	3.845795E-18
5.380000E+03	1.129659E-16	3.829651E-18
5.390000E+03	1.135080E-16	3.813093E-18
5.400000E+03	1.140123E-16	3.796455E-18
5.410000E+03	1.144727E-16	3.780030E-18
5.420000E+03	1.148866E-16	3.764304E-18
5.430000E+03	1.152516E-16	3.749827E-18
5.440000E+03	1.155621E-16	3.737078E-18
5.450000E+03	1.158159E-16	3.726660E-18
5.460000E+03	1.160094E-16	3.719057E-18
5.470000E+03	1.161414E-16	3.714736E-18
5.480000E+03	1.162095E-16	3.713946E-18
5.490000E+03	1.162129E-16	3.716793E-18
5.500000E+03	1.161520E-16	3.723189E-18
5.510000E+03	1.160278E-16	3.732850E-18
5.520000E+03	1.158423E-16	3.745312E-18
5.530000E+03	1.155991E-16	3.760010E-18
5.540000E+03	1.152988E-16	3.776174E-18
5.550000E+03	1.149470E-16	3.793150E-18
5.560000E+03	1.145470E-16	3.810232E-18
5.570000E+03	1.141014E-16	3.826750E-18
5.580000E+03	1.136149E-16	3.842213E-18
5.590000E+03	1.130910E-16	3.856215E-18
5.600000E+03	1.125346E-16	3.868514E-18
5.610000E+03	1.119483E-16	3.878910E-18
5.620000E+03	1.113360E-16	3.887347E-18
5.630000E+03	1.107019E-16	3.893857E-18
5.640000E+03	1.100515E-16	3.898596E-18
5.650000E+03	1.093894E-16	3.901751E-18
5.660000E+03	1.087185E-16	3.903500E-18
5.670000E+03	1.080476E-16	3.904266E-18
5.680000E+03	1.073792E-16	3.904290E-18
5.690000E+03	1.067216E-16	3.904030E-18
5.700000E+03	1.060812E-16	3.903876E-18
5.710000E+03	1.054636E-16	3.904160E-18
5.720000E+03	1.048755E-16	3.905202E-18
5.730000E+03	1.043235E-16	3.907241E-18
5.740000E+03	1.038150E-16	3.910450E-18
5.750000E+03	1.033537E-16	3.914768E-18
5.760000E+03	1.029470E-16	3.920178E-18
5.770000E+03	1.025993E-16	3.926491E-18
5.780000E+03	1.023124E-16	3.933371E-18
5.790000E+03	1.020900E-16	3.940545E-18
5.800000E+03	1.019331E-16	3.947623E-18
5.810000E+03	1.018445E-16	3.954304E-18
5.820000E+03	1.018232E-16	3.960152E-18
5.830000E+03	1.018670E-16	3.964721E-18
5.840000E+03	1.019739E-16	3.967601E-18
5.850000E+03	1.021419E-16	3.968426E-18
5.860000E+03	1.023669E-16	3.966809E-18
5.870000E+03	1.026423E-16	3.962315E-18
5.880000E+03	1.029645E-16	3.954702E-18
5.890000E+03	1.033265E-16	3.943662E-18
5.900000E+03	1.037205E-16	3.928946E-18
5.910000E+03	1.041414E-16	3.910476E-18
5.920000E+03	1.045795E-16	3.888079E-18
5.930000E+03	1.050267E-16	3.861700E-18
5.940000E+03	1.054755E-16	3.831356E-18
5.950000E+03	1.059160E-16	3.797004E-18
5.960000E+03	1.063381E-16	3.758604E-18
5.970000E+03	1.067348E-16	3.716219E-18
5.980000E+03	1.070952E-16	3.669764E-18
5.990000E+03	1.074108E-16	3.619225E-18
6.000000E+03	1.076749E-16	3.564637E-18
6.010000E+03	1.078786E-16	3.505957E-18
6.020000E+03	1.080169E-16	3.443297E-18
6.030000E+03	1.080853E-16	3.376795E-18
6.040000E+03	1.080794E-16	3.306635E-18
6.050000E+03	1.079963E-16	3.233094E-18
6.060000E+03	1.078366E-16	3.156609E-18
6.070000E+03	1.076008E-16	3.077659E-18
6.080000E+03	1.072916E-16	2.996857E-18
6.090000E+03	1.069126E-16	2.914894E-18
6.100000E+03	1.064700E-16	2.832596E-18
6.110000E+03	1.059711E-16	2.750893E-18
6.120000E+03	1.054225E-16	2.670763E-18
6.130000E+03	1.048340E-16	2.593334E-18
6.140000E+03	1.042158E-16	2.519817E-18
6.150000E+03	1.035769E-16	2.451439E-18
6.160000E+03	1.029272E-16	2.389488E-18
6.170000E+03	1.022768E-16	2.335231E-18
6.180000E+03	1.016342E-16	2.289813E-18
6.190000E+03	1.010093E-16	2.254209E-18
6.200000E+03	1.004139E-16	2.229112E-18
6.210000E+03	9.985637E-17	2.214585E-18
6.220000E+03	9.934300E-17	2.209980E-18
6.230000E+03	9.887972E-17	2.214305E-18
6.240000E+03	9.847013E-17	2.226360E-18
6.250000E+03	9.811648E-17	2.244889E-18
6.260000E+03	9.781868E-17	2.268649E-18
6.270000E+03	9.757625E-17	2.296497E-18
6.280000E+03	9.738730E-17	2.327387E-18
6.290000E+03	9.724765E-17	2.360343E-18
6.300000E+03	9.715192E-17	2.394474E-18
6.310000E+03	9.709564E-17	2.429023E-18
6.320000E+03	9.707064E-17	2.463242E-18
6.330000E+03	9.707009E-17	2.496502E-18
6.340000E+03	9.708471E-17	2.528197E-18
6.350000E+03	9.710883E-17	2.557892E-18
6.360000E+03	9.713079E-17	2.585081E-18
6.370000E+03	9.714473E-17	2.609498E-18
6.380000E+03	9.714108E-17	2.630880E-18
6.390000E+03	9.711054E-17	2.649066E-18
6.400000E+03	9.704731E-17	2.664085E-18
6.410000E+03	9.694436E-17	2.676014E-18
6.420000E+03	9.679366E-17	2.684964E-18
6.430000E+03	9.659242E-17	2.691219E-18
6.440000E+03	9.633531E-17	2.694993E-18
6.450000E+03	9.602264E-17	2.696629E-18
6.460000E+03	9.565346E-17	2.696379E-18
6.470000E+03	9.522945E-17	2.694502E-18
6.480000E+03	9.475376E-17	2.691236E-18
6.490000E+03	9.422972E-17	2.686773E-18
6.500000E+03	9.366447E-17	2.681377E-18
6.510000E+03	9.306277E-17	2.675218E-18
6.520000E+03	9.243072E-17	2.668476E-18
6.530000E+03	9.177556E-17	2.661339E-18
6.540000E+03	9.110350E-17	2.653941E-18
6.550000E+03	9.042059E-17	2.646381E-18
6.560000E+03	8.973255E-17	2.638714E-18
6.570000E+03	8.904667E-17	2.631002E-18
6.580000E+03	8.836589E-17	2.623140E-18
6.590000E+03	8.769750E-17	2.615106E-18
6.600000E+03	8.704353E-17	2.606701E-18
6.610000E+03	8.640844E-17	2.597789E-18
6.620000E+03	8.579530E-17	2.588204E-18
6.630000E+03	8.520773E-17	2.577831E-18
6.640000E+03	8.464705E-17	2.566530E-18
6.650000E+03	8.411693E-17	2.554296E-18
6.660000E+03	8.361598E-17	2.541035E-18
6.670000E+03	8.314792E-17	2.526885E-18
6.680000E+03	8.271226E-17	2.511927E-18
6.690000E+03	8.230892E-17	2.496328E-18
6.700000E+03	8.193726E-17	2.480295E-18
6.710000E+03	8.159603E-17	2.464071E-18
6.720000E+03	8.128344E-17	2.447923E-18
6.730000E+03	8.099808E-17	2.432161E-18
6.740000E+03	8.073538E-17	2.417025E-18
6.750000E+03	8.049412E-17	2.402872E-18
6.760000E+03	8.027019E-17	2.389978E-18
6.770000E+03	8.006039E-17	2.378642E-18
6.780000E+03	7.986165E-17	2.369141E-18
6.790000E+03	7.967118E-17	2.361716E-18
6.800000E+03	7.948654E-17	2.356566E-18
6.810000E+03	7.930661E-17	2.353870E-18
6.820000E+03	7.912889E-17	2.353714E-18
6.830000E+03	7.895225E-17	2.356178E-18
6.840000E+03	7.877602E-17	2.361317E-18
6.850000E+03	7.859997E-17	2.369154E-18
6.860000E+03	7.842433E-17	2.379678E-18
6.870000E+03	7.824982E-17	2.392830E-18
6.880000E+03	7.807775E-17	2.408464E-18
6.890000E+03	7.791102E-17	2.426363E-18
6.900000E+03	7.775009E-17	2.446158E-18
6.910000E+03	7.759929E-17	2.467534E-18
6.920000E+03	7.745935E-17	2.490017E-18
6.930000E+03	7.733471E-17	2.513217E-18
6.940000E+03	7.722696E-17	2.536647E-18
6.950000E+03	7.713848E-17	2.559853E-18
6.960000E+03	7.707154E-17	2.582403E-18
6.970000E+03	7.702817E-17	2.603898E-18
6.980000E+03	7.701018E-17	2.623979E-18
6.990000E+03	7.701909E-17	2.642328E-18
7.000000E+03	7.705605E-17	2.658670E-18
7.010000E+03	7.712183E-17	2.672767E-18
7.020000E+03	7.721676E-17	2.684425E-18
7.030000E+03	7.734073E-17	2.693489E-18
7.040000E+03	7.749315E-17	2.699853E-18
7.050000E+03	7.767399E-17	2.703491E-18
7.060000E+03	7.787986E-17	2.704329E-18
7.070000E+03	7.810984E-17	2.702448E-18
7.080000E+03	7.836257E-17	2.697984E-18
7.090000E+03	7.863435E-17	2.691063E-18
7.100000E+03	7.892104E-17	2.681859E-18
7.110000E+03	7.922104E-17	2.670698E-18
7.120000E+03	7.952946E-17	2.657843E-18
7.130000E+03	7.984207E-17	2.643628E-18
7.140000E+03	8.015439E-17	2.628407E-18
7.150000E+03	8.046185E-17	2.612553E-18
7.160000E+03	8.075984E-17	2.596443E-18
7.170000E+03	8.104492E-17	2.580489E-18
7.180000E+03	8.131081E-17	2.565002E-18
7.190000E+03	8.155575E-17	2.550406E-18
7.200000E+03	8.177544E-17	2.537007E-18
7.210000E+03	8.196830E-17	2.525133E-18
7.220000E+03	8.213137E-17	2.515004E-18
7.230000E+03	8.226344E-17	2.506815E-18
7.240000E+03	8.236389E-17	2.500702E-18
7.250000E+03	8.243366E-17	2.496768E-18
7.260000E+03	8.247194E-17	2.494979E-18
7.270000E+03	8.248029E-17	2.495282E-18
7.280000E+03	8.245927E-17	2.497495E-18
7.290000E+03	8.240731E-17	2.501281E-18
7.300000E+03	8.232809E-17	2.506366E-18
7.310000E+03	8.222079E-17	2.512268E-18
7.320000E+03	8.208436E-17	2.518444E-18
7.330000E+03	8.191967E-17	2.524377E-18
7.340000E+03	8.172625E-17	2.529509E-18
7.350000E+03	8.150237E-17	2.533249E-18
7.360000E+03	8.124933E-17	2.535129E-18
7.370000E+03	8.096510E-17	2.534603E-18
7.380000E+03	8.064862E-17	2.531194E-18
7.390000E+03	8.029991E-17	2.524494E-18
7.400000E+03	7.991585E-17	2.514035E-18
7.410000E+03	7.949664E-17	2.499492E-18
7.420000E+03	7.904269E-17	2.480582E-18
7.430000E+03	7.855258E-17	2.457001E-18
7.440000E+03	7.802629E-17	2.428524E-18
7.450000E+03	7.746519E-17	2.395012E-18
7.460000E+03	7.686795E-17	2.356286E-18
7.470000E+03	7.623672E-17	2.312339E-18
7.480000E+03	7.557396E-17	2.263243E-18
7.490000E+03	7.487935E-17	2.209081E-18
7.500000E+03	7.415584E-17	2.150140E-18
7.510000E+03	7.340557E-17	2.086806E-18
7.520000E+03	7.262982E-17	2.019580E-18
7.530000E+03	7.183097E-17	1.949151E-18
7.540000E+03	7.101245E-17	1.876411E-18
7.550000E+03	7.017576E-17	1.802396E-18
7.560000E+03	6.932341E-17	1.728392E-18
7.570000E+03	6.845787E-17	1.655931E-18
7.580000E+03	6.758159E-17	1.586806E-18
7.590000E+03	6.669696E-17	1.523066E-18
7.600000E+03	6.580632E-17	1.466973E-18
7.610000E+03	6.491106E-17	1.420867E-18
7.620000E+03	6.401431E-17	1.387024E-18
7.630000E+03	6.311740E-17	1.367295E-18
7.640000E+03	6.222337E-17	1.362863E-18
7.650000E+03	6.133442E-17	1.373806E-18
7.660000E+03	6.045192E-17	1.399012E-18
7.670000E+03	5.957809E-17	1.436687E-18
7.680000E+03	5.871582E-17	1.484714E-18
7.690000E+03	5.786624E-17	1.540886E-18
7.700000E+03	5.703113E-17	1.603168E-18
7.710000E+03	5.621288E-17	1.669814E-18
7.720000E+03	5.541210E-17	1.739331E-18
7.730000E+03	5.463077E-17	1.810563E-18
7.740000E+03	5.386913E-17	1.882573E-18
7.750000E+03	5.312807E-17	1.954674E-18
7.760000E+03	5.240900E-17	2.026396E-18
