#wls	flux	fluxerr
1.600000E+03	8.182971E-19	6.436831E-19
1.640000E+03	8.143277E-19	6.346375E-19
1.680000E+03	8.114577E-19	6.263651E-19
1.720000E+03	8.095555E-19	6.187421E-19
1.760000E+03	8.089621E-19	6.120050E-19
1.800000E+03	8.095551E-19	6.060322E-19
1.840000E+03	8.113740E-19	6.008247E-19
1.880000E+03	8.146195E-19	5.964996E-19
1.920000E+03	8.191889E-19	5.929463E-19
1.960000E+03	8.252982E-19	5.902849E-19
2.000000E+03	8.331747E-19	5.886346E-19
2.040000E+03	8.425846E-19	5.877840E-19
2.080000E+03	8.540946E-19	5.880801E-19
2.120000E+03	8.674944E-19	5.893201E-19
2.160000E+03	8.830645E-19	5.916365E-19
2.200000E+03	9.011088E-19	5.951654E-19
2.240000E+03	9.216238E-19	5.998301E-19
2.280000E+03	9.449570E-19	6.057775E-19
2.320000E+03	9.713174E-19	6.130521E-19
2.360000E+03	1.001117E-18	6.218148E-19
2.400000E+03	1.034631E-18	6.321256E-19
2.440000E+03	1.072171E-18	6.440529E-19
2.480000E+03	1.114275E-18	6.577854E-19
2.520000E+03	1.161351E-18	6.734122E-19
2.560000E+03	1.214056E-18	6.911462E-19
2.600000E+03	1.272919E-18	7.111009E-19
2.640000E+03	1.338961E-18	7.336343E-19
2.680000E+03	1.412670E-18	7.587746E-19
2.720000E+03	1.495496E-18	7.870357E-19
2.760000E+03	1.588137E-18	8.184792E-19
2.800000E+03	1.692344E-18	8.536685E-19
2.840000E+03	1.809074E-18	8.926999E-19
2.880000E+03	1.940714E-18	9.363177E-19
2.920000E+03	2.088859E-18	9.847893E-19
2.960000E+03	2.256144E-18	1.038794E-18
3.000000E+03	2.445238E-18	1.098912E-18
3.010000E+03	2.496285E-18	1.114978E-18
3.020000E+03	2.548762E-18	1.131398E-18
3.030000E+03	2.603023E-18	1.148317E-18
3.040000E+03	2.659116E-18	1.165743E-18
3.050000E+03	2.716760E-18	1.183538E-18
3.060000E+03	2.776325E-18	1.201850E-18
3.070000E+03	2.837525E-18	1.220539E-18
3.080000E+03	2.901079E-18	1.239900E-18
3.090000E+03	2.966361E-18	1.259649E-18
3.100000E+03	3.034112E-18	1.280085E-18
3.110000E+03	3.103688E-18	1.300916E-18
3.120000E+03	3.175489E-18	1.322296E-18
3.130000E+03	3.249937E-18	1.344380E-18
3.140000E+03	3.326361E-18	1.366873E-18
3.150000E+03	3.405553E-18	1.390081E-18
3.160000E+03	3.487206E-18	1.413858E-18
3.170000E+03	3.571764E-18	1.438361E-18
3.180000E+03	3.658519E-18	1.463287E-18
3.190000E+03	3.748307E-18	1.488948E-18
3.200000E+03	3.841204E-18	1.515350E-18
3.210000E+03	3.936880E-18	1.542339E-18
3.220000E+03	4.035808E-18	1.570076E-18
3.230000E+03	4.138066E-18	1.598566E-18
3.240000E+03	4.243308E-18	1.627650E-18
3.250000E+03	4.352456E-18	1.657653E-18
3.260000E+03	4.464734E-18	1.688253E-18
3.270000E+03	4.580648E-18	1.719613E-18
3.280000E+03	4.700723E-18	1.751900E-18
3.290000E+03	4.824603E-18	1.784949E-18
3.300000E+03	4.952369E-18	1.818759E-18
3.310000E+03	5.084099E-18	1.853328E-18
3.320000E+03	5.220346E-18	1.888823E-18
3.330000E+03	5.360726E-18	1.925070E-18
3.340000E+03	5.505804E-18	1.962239E-18
3.350000E+03	5.655676E-18	2.000324E-18
3.360000E+03	5.810438E-18	2.039322E-18
3.370000E+03	5.970183E-18	2.079225E-18
3.380000E+03	6.134492E-18	2.119848E-18
3.390000E+03	6.304475E-18	2.161537E-18
3.400000E+03	6.480243E-18	2.204282E-18
3.410000E+03	6.660837E-18	2.247714E-18
3.420000E+03	6.847403E-18	2.292178E-18
3.430000E+03	7.040044E-18	2.337660E-18
3.440000E+03	7.238308E-18	2.383963E-18
3.450000E+03	7.443395E-18	2.431433E-18
3.460000E+03	7.654283E-18	2.479686E-18
3.470000E+03	7.872195E-18	2.529067E-18
3.480000E+03	8.096071E-18	2.579183E-18
3.490000E+03	8.327157E-18	2.630379E-18
3.500000E+03	8.565552E-18	2.682629E-18
3.510000E+03	8.810743E-18	2.735716E-18
3.520000E+03	9.063414E-18	2.789796E-18
3.530000E+03	9.323647E-18	2.844834E-18
3.540000E+03	9.591520E-18	2.900794E-18
3.550000E+03	9.867102E-18	2.957636E-18
3.560000E+03	1.015046E-17	3.015317E-18
3.570000E+03	1.044229E-17	3.073986E-18
3.580000E+03	1.074268E-17	3.133595E-18
3.590000E+03	1.105101E-17	3.193902E-18
3.600000E+03	1.136867E-17	3.255239E-18
3.610000E+03	1.169435E-17	3.317164E-18
3.620000E+03	1.202945E-17	3.380006E-18
3.630000E+03	1.237331E-17	3.443510E-18
3.640000E+03	1.272595E-17	3.507610E-18
3.650000E+03	1.308807E-17	3.572433E-18
3.660000E+03	1.346041E-17	3.638104E-18
3.670000E+03	1.384154E-17	3.704160E-18
3.680000E+03	1.423215E-17	3.770719E-18
3.690000E+03	1.463295E-17	3.837898E-18
3.700000E+03	1.504319E-17	3.905418E-18
3.710000E+03	1.546357E-17	3.973391E-18
3.720000E+03	1.589327E-17	4.041534E-18
3.730000E+03	1.633375E-17	4.110146E-18
3.740000E+03	1.678342E-17	4.178746E-18
3.750000E+03	1.724372E-17	4.247628E-18
3.760000E+03	1.771457E-17	4.316692E-18
3.770000E+03	1.819509E-17	4.385649E-18
3.780000E+03	1.868513E-17	4.454397E-18
3.790000E+03	1.918618E-17	4.523217E-18
3.800000E+03	1.969647E-17	4.591624E-18
3.810000E+03	2.021749E-17	4.659893E-18
3.820000E+03	2.074825E-17	4.727728E-18
3.830000E+03	2.128857E-17	4.795022E-18
3.840000E+03	2.183826E-17	4.861671E-18
3.850000E+03	2.239880E-17	4.927940E-18
3.860000E+03	2.296830E-17	4.993348E-18
3.870000E+03	2.354656E-17	5.057794E-18
3.880000E+03	2.413503E-17	5.121536E-18
3.890000E+03	2.473179E-17	5.184108E-18
3.900000E+03	2.533831E-17	5.245768E-18
3.910000E+03	2.595348E-17	5.306235E-18
3.920000E+03	2.657620E-17	5.365234E-18
3.930000E+03	2.720794E-17	5.423025E-18
3.940000E+03	2.784757E-17	5.479339E-18
3.950000E+03	2.849485E-17	5.534088E-18
3.960000E+03	2.915038E-17	5.587359E-18
3.970000E+03	2.981215E-17	5.638729E-18
3.980000E+03	3.048167E-17	5.688464E-18
3.990000E+03	3.115781E-17	5.736321E-18
4.000000E+03	3.183942E-17	5.782074E-18
4.010000E+03	3.252806E-17	5.825991E-18
4.020000E+03	3.322169E-17	5.867693E-18
4.030000E+03	3.392101E-17	5.907296E-18
4.040000E+03	3.462580E-17	5.944757E-18
4.050000E+03	3.533405E-17	5.979735E-18
4.060000E+03	3.604740E-17	6.012513E-18
4.070000E+03	3.676478E-17	6.042921E-18
4.080000E+03	3.748604E-17	6.070948E-18
4.090000E+03	3.821014E-17	6.096445E-18
4.100000E+03	3.893698E-17	6.119423E-18
4.110000E+03	3.966648E-17	6.139899E-18
4.120000E+03	4.039766E-17	6.157756E-18
4.130000E+03	4.113140E-17	6.173170E-18
4.140000E+03	4.186587E-17	6.185909E-18
4.150000E+03	4.260108E-17	6.196030E-18
4.160000E+03	4.333799E-17	6.203728E-18
4.170000E+03	4.407395E-17	6.208683E-18
4.180000E+03	4.481087E-17	6.211237E-18
4.190000E+03	4.554615E-17	6.211103E-18
4.200000E+03	4.628179E-17	6.208634E-18
4.210000E+03	4.701616E-17	6.203691E-18
4.220000E+03	4.774858E-17	6.196278E-18
4.230000E+03	4.847930E-17	6.186523E-18
4.240000E+03	4.920774E-17	6.174446E-18
4.250000E+03	4.993421E-17	6.160187E-18
4.260000E+03	5.065731E-17	6.143665E-18
4.270000E+03	5.137837E-17	6.125132E-18
4.280000E+03	5.209608E-17	6.104512E-18
4.290000E+03	5.281008E-17	6.081836E-18
4.300000E+03	5.352097E-17	6.057240E-18
4.310000E+03	5.422760E-17	6.030649E-18
4.320000E+03	5.493064E-17	6.002192E-18
4.330000E+03	5.562993E-17	5.971894E-18
4.340000E+03	5.632533E-17	5.939777E-18
4.350000E+03	5.701674E-17	5.905864E-18
4.360000E+03	5.770410E-17	5.870173E-18
4.370000E+03	5.838830E-17	5.832809E-18
4.380000E+03	5.906755E-17	5.793603E-18
4.390000E+03	5.974370E-17	5.752735E-18
4.400000E+03	6.041682E-17	5.710194E-18
4.410000E+03	6.108612E-17	5.665878E-18
4.420000E+03	6.175349E-17	5.619924E-18
4.430000E+03	6.241902E-17	5.572287E-18
4.440000E+03	6.308194E-17	5.522836E-18
4.450000E+03	6.374410E-17	5.471668E-18
4.460000E+03	6.440644E-17	5.418791E-18
4.470000E+03	6.506807E-17	5.364054E-18
4.480000E+03	6.572983E-17	5.307452E-18
4.490000E+03	6.639156E-17	5.248903E-18
4.500000E+03	6.705395E-17	5.188387E-18
4.510000E+03	6.771756E-17	5.125881E-18
4.520000E+03	6.838287E-17	5.061353E-18
4.530000E+03	6.904936E-17	4.994700E-18
4.540000E+03	6.971727E-17	4.925888E-18
4.550000E+03	7.038860E-17	4.855000E-18
4.560000E+03	7.106154E-17	4.781855E-18
4.570000E+03	7.173778E-17	4.706511E-18
4.580000E+03	7.241608E-17	4.628819E-18
4.590000E+03	7.309771E-17	4.548777E-18
4.600000E+03	7.377995E-17	4.466112E-18
4.610000E+03	7.446348E-17	4.380743E-18
4.620000E+03	7.514681E-17	4.292438E-18
4.630000E+03	7.582913E-17	4.201001E-18
4.640000E+03	7.650850E-17	4.106172E-18
4.650000E+03	7.718279E-17	4.007704E-18
4.660000E+03	7.785070E-17	3.905420E-18
4.670000E+03	7.851087E-17	3.799173E-18
4.680000E+03	7.916094E-17	3.688813E-18
4.690000E+03	7.979952E-17	3.574299E-18
4.700000E+03	8.042520E-17	3.455658E-18
4.710000E+03	8.103666E-17	3.333008E-18
4.720000E+03	8.163264E-17	3.206578E-18
4.730000E+03	8.221101E-17	3.076693E-18
4.740000E+03	8.277069E-17	2.943887E-18
4.750000E+03	8.331267E-17	2.808969E-18
4.760000E+03	8.383615E-17	2.672930E-18
4.770000E+03	8.433946E-17	2.537059E-18
4.780000E+03	8.482309E-17	2.403105E-18
4.790000E+03	8.528670E-17	2.273271E-18
4.800000E+03	8.572920E-17	2.150301E-18
4.810000E+03	8.614879E-17	2.037534E-18
4.820000E+03	8.654393E-17	1.938897E-18
4.830000E+03	8.691444E-17	1.858729E-18
4.840000E+03	8.725951E-17	1.801292E-18
4.850000E+03	8.757975E-17	1.770117E-18
4.860000E+03	8.787621E-17	1.767147E-18
4.870000E+03	8.814915E-17	1.791834E-18
4.880000E+03	8.840009E-17	1.841382E-18
4.890000E+03	8.863098E-17	1.911649E-18
4.900000E+03	8.884418E-17	1.997986E-18
4.910000E+03	8.904233E-17	2.095880E-18
4.920000E+03	8.922735E-17	2.201316E-18
4.930000E+03	8.940325E-17	2.310981E-18
4.940000E+03	8.957312E-17	2.422199E-18
4.950000E+03	8.973998E-17	2.532886E-18
4.960000E+03	8.990583E-17	2.641436E-18
4.970000E+03	9.007546E-17	2.746748E-18
4.980000E+03	9.024955E-17	2.847948E-18
4.990000E+03	9.043257E-17	2.944566E-18
5.000000E+03	9.062579E-17	3.036263E-18
5.010000E+03	9.083125E-17	3.122910E-18
5.020000E+03	9.105167E-17	3.204545E-18
5.030000E+03	9.128845E-17	3.281262E-18
5.040000E+03	9.154060E-17	3.353131E-18
5.050000E+03	9.181154E-17	3.420404E-18
5.060000E+03	9.210024E-17	3.483168E-18
5.070000E+03	9.240525E-17	3.541480E-18
5.080000E+03	9.272680E-17	3.595443E-18
5.090000E+03	9.306496E-17	3.645142E-18
5.100000E+03	9.341684E-17	3.690542E-18
5.110000E+03	9.378360E-17	3.731765E-18
5.120000E+03	9.416360E-17	3.768827E-18
5.130000E+03	9.455736E-17	3.801842E-18
5.140000E+03	9.496357E-17	3.830866E-18
5.150000E+03	9.538207E-17	3.856023E-18
5.160000E+03	9.581383E-17	3.877501E-18
5.170000E+03	9.625887E-17	3.895470E-18
5.180000E+03	9.671723E-17	3.910119E-18
5.190000E+03	9.718786E-17	3.921609E-18
5.200000E+03	9.767163E-17	3.930189E-18
5.210000E+03	9.816924E-17	3.936114E-18
5.220000E+03	9.867808E-17	3.939517E-18
5.230000E+03	9.919834E-17	3.940654E-18
5.240000E+03	9.972996E-17	3.939776E-18
5.250000E+03	1.002705E-16	3.937044E-18
5.260000E+03	1.008182E-16	3.932637E-18
5.270000E+03	1.013711E-16	3.926707E-18
5.280000E+03	1.019280E-16	3.919415E-18
5.290000E+03	1.024855E-16	3.910811E-18
5.300000E+03	1.030408E-16	3.900962E-18
5.310000E+03	1.035923E-16	3.889956E-18
5.320000E+03	1.041361E-16	3.877795E-18
5.330000E+03	1.046702E-16	3.864566E-18
5.340000E+03	1.051906E-16	3.850285E-18
5.350000E+03	1.056954E-16	3.835068E-18
5.360000E+03	1.061802E-16	3.818979E-18
5.370000E+03	1.066431E-16	3.802192E-18
5.380000E+03	1.070809E-16	3.784885E-18
5.390000E+03	1.074893E-16	3.767249E-18
5.400000E+03	1.078651E-16	3.749577E-18
5.410000E+03	1.082059E-16	3.732265E-18
5.420000E+03	1.085087E-16	3.715740E-18
5.430000E+03	1.087681E-16	3.700409E-18
5.440000E+03	1.089844E-16	3.686904E-18
5.450000E+03	1.091515E-16	3.675635E-18
5.460000E+03	1.092691E-16	3.667158E-18
5.470000E+03	1.093343E-16	3.661826E-18
5.480000E+03	1.093468E-16	3.659935E-18
5.490000E+03	1.093048E-16	3.661539E-18
5.500000E+03	1.092085E-16	3.666550E-18
5.510000E+03	1.090599E-16	3.674732E-18
5.520000E+03	1.088594E-16	3.685615E-18
5.530000E+03	1.086092E-16	3.698634E-18
5.540000E+03	1.083126E-16	3.713175E-18
5.550000E+03	1.079724E-16	3.728553E-18
5.560000E+03	1.075892E-16	3.744027E-18
5.570000E+03	1.071681E-16	3.759069E-18
5.580000E+03	1.067119E-16	3.773171E-18
5.590000E+03	1.062215E-16	3.785859E-18
5.600000E+03	1.057019E-16	3.796924E-18
5.610000E+03	1.051562E-16	3.806188E-18
5.620000E+03	1.045854E-16	3.813494E-18
5.630000E+03	1.039960E-16	3.818960E-18
5.640000E+03	1.033885E-16	3.822551E-18
5.650000E+03	1.027679E-16	3.824451E-18
5.660000E+03	1.021395E-16	3.824908E-18
5.670000E+03	1.015070E-16	3.824146E-18
5.680000E+03	1.008764E-16	3.822511E-18
5.690000E+03	1.002511E-16	3.820262E-18
5.700000E+03	9.963895E-17	3.817818E-18
5.710000E+03	9.904377E-17	3.815432E-18
5.720000E+03	9.847262E-17	3.813427E-18
5.730000E+03	9.793248E-17	3.812052E-18
5.740000E+03	9.742719E-17	3.811348E-18
5.750000E+03	9.696217E-17	3.811325E-18
5.760000E+03	9.654420E-17	3.811965E-18
5.770000E+03	9.617562E-17	3.813014E-18
5.780000E+03	9.585994E-17	3.814227E-18
5.790000E+03	9.559988E-17	3.815310E-18
5.800000E+03	9.539828E-17	3.815970E-18
5.810000E+03	9.525524E-17	3.815814E-18
5.820000E+03	9.517092E-17	3.814468E-18
5.830000E+03	9.514458E-17	3.811548E-18
5.840000E+03	9.517372E-17	3.806631E-18
5.850000E+03	9.525774E-17	3.799410E-18
5.860000E+03	9.539156E-17	3.789446E-18
5.870000E+03	9.557126E-17	3.776400E-18
5.880000E+03	9.579320E-17	3.760005E-18
5.890000E+03	9.605136E-17	3.739967E-18
5.900000E+03	9.634017E-17	3.716080E-18
5.910000E+03	9.665366E-17	3.688190E-18
5.920000E+03	9.698542E-17	3.656193E-18
5.930000E+03	9.732867E-17	3.620024E-18
5.940000E+03	9.767629E-17	3.579645E-18
5.950000E+03	9.802084E-17	3.535033E-18
5.960000E+03	9.835277E-17	3.486095E-18
5.970000E+03	9.866728E-17	3.432908E-18
5.980000E+03	9.895495E-17	3.375368E-18
5.990000E+03	9.920865E-17	3.313441E-18
6.000000E+03	9.942178E-17	3.247106E-18
6.010000E+03	9.958843E-17	3.176364E-18
6.020000E+03	9.970356E-17	3.101260E-18
6.030000E+03	9.976215E-17	3.021871E-18
6.040000E+03	9.976222E-17	2.938405E-18
6.050000E+03	9.970203E-17	2.851129E-18
6.060000E+03	9.957919E-17	2.760352E-18
6.070000E+03	9.939658E-17	2.666608E-18
6.080000E+03	9.915453E-17	2.570440E-18
6.090000E+03	9.885766E-17	2.472606E-18
6.100000E+03	9.850993E-17	2.373961E-18
6.110000E+03	9.811841E-17	2.275575E-18
6.120000E+03	9.768835E-17	2.178635E-18
6.130000E+03	9.722969E-17	2.084628E-18
6.140000E+03	9.675014E-17	1.995205E-18
6.150000E+03	9.625979E-17	1.912288E-18
6.160000E+03	9.576795E-17	1.837988E-18
6.170000E+03	9.528485E-17	1.774565E-18
6.180000E+03	9.482044E-17	1.724248E-18
6.190000E+03	9.438322E-17	1.688976E-18
6.200000E+03	9.397907E-17	1.670067E-18
6.210000E+03	9.361426E-17	1.667670E-18
6.220000E+03	9.329303E-17	1.680403E-18
6.230000E+03	9.301841E-17	1.706179E-18
6.240000E+03	9.279231E-17	1.742617E-18
6.250000E+03	9.261549E-17	1.787340E-18
6.260000E+03	9.248755E-17	1.838168E-18
6.270000E+03	9.240683E-17	1.893198E-18
6.280000E+03	9.237227E-17	1.950857E-18
6.290000E+03	9.237785E-17	2.009758E-18
6.300000E+03	9.242106E-17	2.068838E-18
6.310000E+03	9.249380E-17	2.127121E-18
6.320000E+03	9.258995E-17	2.183845E-18
6.330000E+03	9.270184E-17	2.238348E-18
6.340000E+03	9.282323E-17	2.290118E-18
6.350000E+03	9.294382E-17	2.338644E-18
6.360000E+03	9.305593E-17	2.383570E-18
6.370000E+03	9.315093E-17	2.424609E-18
6.380000E+03	9.322033E-17	2.461573E-18
6.390000E+03	9.325691E-17	2.494401E-18
6.400000E+03	9.325206E-17	2.523082E-18
6.410000E+03	9.319980E-17	2.547749E-18
6.420000E+03	9.309323E-17	2.568562E-18
6.430000E+03	9.292766E-17	2.585770E-18
6.440000E+03	9.269983E-17	2.599655E-18
6.450000E+03	9.240812E-17	2.610518E-18
6.460000E+03	9.205164E-17	2.618624E-18
6.470000E+03	9.163214E-17	2.624251E-18
6.480000E+03	9.115280E-17	2.627661E-18
6.490000E+03	9.061701E-17	2.629073E-18
6.500000E+03	9.003004E-17	2.628729E-18
6.510000E+03	8.939680E-17	2.626831E-18
6.520000E+03	8.872635E-17	2.623686E-18
6.530000E+03	8.802416E-17	2.619467E-18
6.540000E+03	8.729849E-17	2.614409E-18
6.550000E+03	8.655558E-17	2.608660E-18
6.560000E+03	8.580138E-17	2.602327E-18
6.570000E+03	8.504238E-17	2.595499E-18
6.580000E+03	8.428373E-17	2.588183E-18
6.590000E+03	8.353104E-17	2.580364E-18
6.600000E+03	8.278855E-17	2.571965E-18
6.610000E+03	8.206006E-17	2.562885E-18
6.620000E+03	8.134990E-17	2.553057E-18
6.630000E+03	8.066019E-17	2.542370E-18
6.640000E+03	7.999443E-17	2.530807E-18
6.650000E+03	7.935482E-17	2.518360E-18
6.660000E+03	7.874315E-17	2.505073E-18
6.670000E+03	7.816078E-17	2.491041E-18
6.680000E+03	7.760860E-17	2.476410E-18
6.690000E+03	7.708700E-17	2.461368E-18
6.700000E+03	7.659588E-17	2.446136E-18
6.710000E+03	7.613455E-17	2.430957E-18
6.720000E+03	7.570269E-17	2.416113E-18
6.730000E+03	7.529777E-17	2.401835E-18
6.740000E+03	7.491861E-17	2.388408E-18
6.750000E+03	7.456205E-17	2.376054E-18
6.760000E+03	7.422562E-17	2.365013E-18
6.770000E+03	7.390688E-17	2.355507E-18
6.780000E+03	7.360520E-17	2.347781E-18
6.790000E+03	7.331595E-17	2.341909E-18
6.800000E+03	7.303903E-17	2.338048E-18
6.810000E+03	7.277302E-17	2.336264E-18
6.820000E+03	7.251600E-17	2.336557E-18
6.830000E+03	7.226727E-17	2.338932E-18
6.840000E+03	7.202820E-17	2.343433E-18
6.850000E+03	7.179627E-17	2.349950E-18
6.860000E+03	7.157436E-17	2.358523E-18
6.870000E+03	7.136150E-17	2.369029E-18
6.880000E+03	7.115965E-17	2.381375E-18
6.890000E+03	7.096956E-17	2.395343E-18
6.900000E+03	7.079386E-17	2.410729E-18
6.910000E+03	7.063445E-17	2.427259E-18
6.920000E+03	7.049242E-17	2.444594E-18
6.930000E+03	7.037134E-17	2.462456E-18
6.940000E+03	7.027134E-17	2.480436E-18
6.950000E+03	7.019493E-17	2.498214E-18
6.960000E+03	7.014281E-17	2.515422E-18
6.970000E+03	7.011801E-17	2.531804E-18
6.980000E+03	7.011997E-17	2.547007E-18
6.990000E+03	7.015042E-17	2.560801E-18
7.000000E+03	7.021079E-17	2.572982E-18
7.010000E+03	7.029958E-17	2.583285E-18
7.020000E+03	7.041751E-17	2.591564E-18
7.030000E+03	7.056402E-17	2.597676E-18
7.040000E+03	7.073733E-17	2.601483E-18
7.050000E+03	7.093784E-17	2.602980E-18
7.060000E+03	7.116301E-17	2.602113E-18
7.070000E+03	7.141074E-17	2.598906E-18
7.080000E+03	7.167949E-17	2.593462E-18
7.090000E+03	7.196467E-17	2.585839E-18
7.100000E+03	7.226399E-17	2.576235E-18
7.110000E+03	7.257484E-17	2.564894E-18
7.120000E+03	7.289159E-17	2.552000E-18
7.130000E+03	7.321196E-17	2.537897E-18
7.140000E+03	7.353170E-17	2.522886E-18
7.150000E+03	7.384457E-17	2.507220E-18
7.160000E+03	7.414806E-17	2.491290E-18
7.170000E+03	7.443702E-17	2.475390E-18
7.180000E+03	7.470841E-17	2.459876E-18
7.190000E+03	7.495771E-17	2.445030E-18
7.200000E+03	7.518183E-17	2.431144E-18
7.210000E+03	7.537929E-17	2.418511E-18
7.220000E+03	7.554833E-17	2.407347E-18
7.230000E+03	7.568686E-17	2.397790E-18
7.240000E+03	7.579531E-17	2.389989E-18
7.250000E+03	7.587264E-17	2.383969E-18
7.260000E+03	7.592011E-17	2.379755E-18
7.270000E+03	7.593826E-17	2.377261E-18
7.280000E+03	7.592672E-17	2.376288E-18
7.290000E+03	7.588712E-17	2.376610E-18
7.300000E+03	7.582001E-17	2.377884E-18
7.310000E+03	7.572577E-17	2.379693E-18
7.320000E+03	7.560459E-17	2.381562E-18
7.330000E+03	7.545543E-17	2.382952E-18
7.340000E+03	7.527905E-17	2.383370E-18
7.350000E+03	7.507602E-17	2.382329E-18
7.360000E+03	7.484477E-17	2.379292E-18
7.370000E+03	7.458359E-17	2.373746E-18
7.380000E+03	7.429470E-17	2.365333E-18
7.390000E+03	7.397534E-17	2.353568E-18
7.400000E+03	7.362479E-17	2.338065E-18
7.410000E+03	7.324442E-17	2.318537E-18
7.420000E+03	7.283378E-17	2.294671E-18
7.430000E+03	7.239173E-17	2.266162E-18
7.440000E+03	7.192030E-17	2.232834E-18
7.450000E+03	7.141704E-17	2.194404E-18
7.460000E+03	7.088466E-17	2.150789E-18
7.470000E+03	7.032235E-17	2.101848E-18
7.480000E+03	6.973247E-17	2.047598E-18
7.490000E+03	6.911475E-17	1.988059E-18
7.500000E+03	6.847200E-17	1.923433E-18
7.510000E+03	6.780526E-17	1.853985E-18
7.520000E+03	6.711757E-17	1.780159E-18
7.530000E+03	6.641018E-17	1.702504E-18
7.540000E+03	6.568531E-17	1.621773E-18
7.550000E+03	6.494430E-17	1.538913E-18
7.560000E+03	6.419116E-17	1.455205E-18
7.570000E+03	6.342631E-17	1.372172E-18
7.580000E+03	6.265277E-17	1.291802E-18
7.590000E+03	6.187177E-17	1.216517E-18
7.600000E+03	6.108620E-17	1.149271E-18
7.610000E+03	6.029800E-17	1.093425E-18
7.620000E+03	5.950828E-17	1.052482E-18
7.630000E+03	5.871894E-17	1.029602E-18
7.640000E+03	5.793269E-17	1.026905E-18
7.650000E+03	5.714985E-17	1.044535E-18
7.660000E+03	5.637396E-17	1.080562E-18
7.670000E+03	5.560688E-17	1.131923E-18
7.680000E+03	5.484891E-17	1.195182E-18
7.690000E+03	5.410329E-17	1.267159E-18
7.700000E+03	5.337007E-17	1.345080E-18
7.710000E+03	5.265215E-17	1.426791E-18
7.720000E+03	5.195000E-17	1.510592E-18
7.730000E+03	5.126538E-17	1.595257E-18
7.740000E+03	5.059773E-17	1.679836E-18
7.750000E+03	4.994921E-17	1.763739E-18
7.760000E+03	4.931968E-17	1.846518E-18
