#wls	flux	fluxerr
1.600000E+03	1.952123E-18	1.583662E-18
1.640000E+03	1.982582E-18	1.595548E-18
1.680000E+03	2.015997E-18	1.609100E-18
1.720000E+03	2.052527E-18	1.624367E-18
1.760000E+03	2.092344E-18	1.641404E-18
1.800000E+03	2.136014E-18	1.660562E-18
1.840000E+03	2.183370E-18	1.681610E-18
1.880000E+03	2.235415E-18	1.705210E-18
1.920000E+03	2.291627E-18	1.730840E-18
1.960000E+03	2.352667E-18	1.758873E-18
2.000000E+03	2.419250E-18	1.789699E-18
2.040000E+03	2.491723E-18	1.823409E-18
2.080000E+03	2.570024E-18	1.859788E-18
2.120000E+03	2.655416E-18	1.899560E-18
2.160000E+03	2.748362E-18	1.942837E-18
2.200000E+03	2.848891E-18	1.989410E-18
2.240000E+03	2.958459E-18	2.040042E-18
2.280000E+03	3.077178E-18	2.094525E-18
2.320000E+03	3.206160E-18	2.153314E-18
2.360000E+03	3.346613E-18	2.216875E-18
2.400000E+03	3.498770E-18	2.284986E-18
2.440000E+03	3.665063E-18	2.358824E-18
2.480000E+03	3.845305E-18	2.437801E-18
2.520000E+03	4.041577E-18	2.522742E-18
2.560000E+03	4.255536E-18	2.614118E-18
2.600000E+03	4.487695E-18	2.711632E-18
2.640000E+03	4.741131E-18	2.816474E-18
2.680000E+03	5.017176E-18	2.928678E-18
2.720000E+03	5.317179E-18	3.048213E-18
2.760000E+03	5.644670E-18	3.176207E-18
2.800000E+03	6.000448E-18	3.312109E-18
2.840000E+03	6.388292E-18	3.456928E-18
2.880000E+03	6.810615E-18	3.610764E-18
2.920000E+03	7.269838E-18	3.773594E-18
2.960000E+03	7.770086E-18	3.946127E-18
3.000000E+03	8.312941E-18	4.127600E-18
3.010000E+03	8.455983E-18	4.174506E-18
3.020000E+03	8.601455E-18	4.221725E-18
3.030000E+03	8.750286E-18	4.269687E-18
3.040000E+03	8.902506E-18	4.318375E-18
3.050000E+03	9.057205E-18	4.367317E-18
3.060000E+03	9.216276E-18	4.417395E-18
3.070000E+03	9.376907E-18	4.467231E-18
3.080000E+03	9.541957E-18	4.518159E-18
3.090000E+03	9.710500E-18	4.569704E-18
3.100000E+03	9.881579E-18	4.621383E-18
3.110000E+03	1.005716E-17	4.674083E-18
3.120000E+03	1.023528E-17	4.726861E-18
3.130000E+03	1.041695E-17	4.780146E-18
3.140000E+03	1.060317E-17	4.834367E-18
3.150000E+03	1.079195E-17	4.888573E-18
3.160000E+03	1.098531E-17	4.943651E-18
3.170000E+03	1.118225E-17	4.999106E-18
3.180000E+03	1.138276E-17	5.054903E-18
3.190000E+03	1.158685E-17	5.111004E-18
3.200000E+03	1.179555E-17	5.167832E-18
3.210000E+03	1.200781E-17	5.224886E-18
3.220000E+03	1.222363E-17	5.282122E-18
3.230000E+03	1.244407E-17	5.339962E-18
3.240000E+03	1.266912E-17	5.398360E-18
3.250000E+03	1.289768E-17	5.456806E-18
3.260000E+03	1.313084E-17	5.515716E-18
3.270000E+03	1.336747E-17	5.574578E-18
3.280000E+03	1.360865E-17	5.633803E-18
3.290000E+03	1.385437E-17	5.693338E-18
3.300000E+03	1.410459E-17	5.753129E-18
3.310000E+03	1.435929E-17	5.813119E-18
3.320000E+03	1.461844E-17	5.873250E-18
3.330000E+03	1.488199E-17	5.933463E-18
3.340000E+03	1.514991E-17	5.993697E-18
3.350000E+03	1.542332E-17	6.054347E-18
3.360000E+03	1.569983E-17	6.114433E-18
3.370000E+03	1.598173E-17	6.174804E-18
3.380000E+03	1.626897E-17	6.235389E-18
3.390000E+03	1.656031E-17	6.295665E-18
3.400000E+03	1.685567E-17	6.355562E-18
3.410000E+03	1.715618E-17	6.415459E-18
3.420000E+03	1.746177E-17	6.475283E-18
3.430000E+03	1.777116E-17	6.534507E-18
3.440000E+03	1.808668E-17	6.593950E-18
3.450000E+03	1.840582E-17	6.652641E-18
3.460000E+03	1.872969E-17	6.710945E-18
3.470000E+03	1.905944E-17	6.769223E-18
3.480000E+03	1.939374E-17	6.826948E-18
3.490000E+03	1.973246E-17	6.884038E-18
3.500000E+03	2.007551E-17	6.940409E-18
3.510000E+03	2.042400E-17	6.996409E-18
3.520000E+03	2.077656E-17	7.051519E-18
3.530000E+03	2.113433E-17	7.106082E-18
3.540000E+03	2.149717E-17	7.160005E-18
3.550000E+03	2.186366E-17	7.212776E-18
3.560000E+03	2.223495E-17	7.264731E-18
3.570000E+03	2.261215E-17	7.316194E-18
3.580000E+03	2.299256E-17	7.366240E-18
3.590000E+03	2.337858E-17	7.415607E-18
3.600000E+03	2.376876E-17	7.463790E-18
3.610000E+03	2.416293E-17	7.510702E-18
3.620000E+03	2.456220E-17	7.556654E-18
3.630000E+03	2.496511E-17	7.601155E-18
3.640000E+03	2.537276E-17	7.644514E-18
3.650000E+03	2.578497E-17	7.686637E-18
3.660000E+03	2.620154E-17	7.727435E-18
3.670000E+03	2.662229E-17	7.766818E-18
3.680000E+03	2.704700E-17	7.804700E-18
3.690000E+03	2.747547E-17	7.840998E-18
3.700000E+03	2.790750E-17	7.875628E-18
3.710000E+03	2.834417E-17	7.908880E-18
3.720000E+03	2.878397E-17	7.940304E-18
3.730000E+03	2.922799E-17	7.970186E-18
3.740000E+03	2.967469E-17	7.998093E-18
3.750000E+03	3.012516E-17	8.024309E-18
3.760000E+03	3.058049E-17	8.049105E-18
3.770000E+03	3.103784E-17	8.071721E-18
3.780000E+03	3.149828E-17	8.092440E-18
3.790000E+03	3.196289E-17	8.111534E-18
3.800000E+03	3.243014E-17	8.128608E-18
3.810000E+03	3.289980E-17	8.143613E-18
3.820000E+03	3.337294E-17	8.156820E-18
3.830000E+03	3.384805E-17	8.167865E-18
3.840000E+03	3.432618E-17	8.177021E-18
3.850000E+03	3.480712E-17	8.184248E-18
3.860000E+03	3.529064E-17	8.189508E-18
3.870000E+03	3.577524E-17	8.192478E-18
3.880000E+03	3.626327E-17	8.193727E-18
3.890000E+03	3.675196E-17	8.192653E-18
3.900000E+03	3.724366E-17	8.189819E-18
3.910000E+03	3.773689E-17	8.184930E-18
3.920000E+03	3.823145E-17	8.177988E-18
3.930000E+03	3.872717E-17	8.169000E-18
3.940000E+03	3.922511E-17	8.158242E-18
3.950000E+03	3.972385E-17	8.145463E-18
3.960000E+03	4.022446E-17	8.130943E-18
3.970000E+03	4.072555E-17	8.114453E-18
3.980000E+03	4.122695E-17	8.096032E-18
3.990000E+03	4.172978E-17	8.075964E-18
4.000000E+03	4.223389E-17	8.054287E-18
4.010000E+03	4.273793E-17	8.030815E-18
4.020000E+03	4.324181E-17	8.005608E-18
4.030000E+03	4.374543E-17	7.978735E-18
4.040000E+03	4.424992E-17	7.950483E-18
4.050000E+03	4.475400E-17	7.920703E-18
4.060000E+03	4.525882E-17	7.889683E-18
4.070000E+03	4.576193E-17	7.857086E-18
4.080000E+03	4.626570E-17	7.823410E-18
4.090000E+03	4.676773E-17	7.788339E-18
4.100000E+03	4.726923E-17	7.752167E-18
4.110000E+03	4.777019E-17	7.714987E-18
4.120000E+03	4.826949E-17	7.676705E-18
4.130000E+03	4.876718E-17	7.637425E-18
4.140000E+03	4.926448E-17	7.597426E-18
4.150000E+03	4.975918E-17	7.556451E-18
4.160000E+03	5.025138E-17	7.514608E-18
4.170000E+03	5.074234E-17	7.472169E-18
4.180000E+03	5.123106E-17	7.429061E-18
4.190000E+03	5.171768E-17	7.385382E-18
4.200000E+03	5.220125E-17	7.341066E-18
4.210000E+03	5.268086E-17	7.296055E-18
4.220000E+03	5.315890E-17	7.250745E-18
4.230000E+03	5.363230E-17	7.204767E-18
4.240000E+03	5.410347E-17	7.158500E-18
4.250000E+03	5.456938E-17	7.111585E-18
4.260000E+03	5.503246E-17	7.064378E-18
4.270000E+03	5.548974E-17	7.016531E-18
4.280000E+03	5.594365E-17	6.968376E-18
4.290000E+03	5.639129E-17	6.919570E-18
4.300000E+03	5.683506E-17	6.870423E-18
4.310000E+03	5.727212E-17	6.820594E-18
4.320000E+03	5.770383E-17	6.770249E-18
4.330000E+03	5.812947E-17	6.719293E-18
4.340000E+03	5.854833E-17	6.667633E-18
4.350000E+03	5.896074E-17	6.615288E-18
4.360000E+03	5.936600E-17	6.562155E-18
4.370000E+03	5.976343E-17	6.508130E-18
4.380000E+03	6.015337E-17	6.453214E-18
4.390000E+03	6.053612E-17	6.397401E-18
4.400000E+03	6.091002E-17	6.340467E-18
4.410000E+03	6.127540E-17	6.282400E-18
4.420000E+03	6.163256E-17	6.223179E-18
4.430000E+03	6.198082E-17	6.162678E-18
4.440000E+03	6.231952E-17	6.100771E-18
4.450000E+03	6.264991E-17	6.037520E-18
4.460000E+03	6.297034E-17	5.972700E-18
4.470000E+03	6.328110E-17	5.906276E-18
4.480000E+03	6.358244E-17	5.838208E-18
4.490000E+03	6.387461E-17	5.768453E-18
4.500000E+03	6.415692E-17	5.696884E-18
4.510000E+03	6.442866E-17	5.623378E-18
4.520000E+03	6.469194E-17	5.548065E-18
4.530000E+03	6.494511E-17	5.470748E-18
4.540000E+03	6.518837E-17	5.391400E-18
4.550000E+03	6.542194E-17	5.310003E-18
4.560000E+03	6.564694E-17	5.226618E-18
4.570000E+03	6.586173E-17	5.141098E-18
4.580000E+03	6.606743E-17	5.053529E-18
4.590000E+03	6.626424E-17	4.963937E-18
4.600000E+03	6.645236E-17	4.872365E-18
4.610000E+03	6.663110E-17	4.778816E-18
4.620000E+03	6.680069E-17	4.683380E-18
4.630000E+03	6.696314E-17	4.586299E-18
4.640000E+03	6.711690E-17	4.487593E-18
4.650000E+03	6.726225E-17	4.387446E-18
4.660000E+03	6.740035E-17	4.286135E-18
4.670000E+03	6.753150E-17	4.183917E-18
4.680000E+03	6.765514E-17	4.081046E-18
4.690000E+03	6.777250E-17	3.977934E-18
4.700000E+03	6.788397E-17	3.874996E-18
4.710000E+03	6.798907E-17	3.772659E-18
4.720000E+03	6.808997E-17	3.671562E-18
4.730000E+03	6.818541E-17	3.572221E-18
4.740000E+03	6.827674E-17	3.475368E-18
4.750000E+03	6.836446E-17	3.381758E-18
4.760000E+03	6.844998E-17	3.292257E-18
4.770000E+03	6.853299E-17	3.207707E-18
4.780000E+03	6.861489E-17	3.129082E-18
4.790000E+03	6.869625E-17	3.057346E-18
4.800000E+03	6.877680E-17	2.993426E-18
4.810000E+03	6.885962E-17	2.938365E-18
4.820000E+03	6.894271E-17	2.892914E-18
4.830000E+03	6.902911E-17	2.857918E-18
4.840000E+03	6.911841E-17	2.833910E-18
4.850000E+03	6.921185E-17	2.821286E-18
4.860000E+03	6.930892E-17	2.820128E-18
4.870000E+03	6.941147E-17	2.830348E-18
4.880000E+03	6.951870E-17	2.851495E-18
4.890000E+03	6.963144E-17	2.882965E-18
4.900000E+03	6.974960E-17	2.923945E-18
4.910000E+03	6.987386E-17	2.973529E-18
4.920000E+03	7.000486E-17	3.030733E-18
4.930000E+03	7.014072E-17	3.094433E-18
4.940000E+03	7.028284E-17	3.163652E-18
4.950000E+03	7.043178E-17	3.237416E-18
4.960000E+03	7.058558E-17	3.314692E-18
4.970000E+03	7.074641E-17	3.394709E-18
4.980000E+03	7.091229E-17	3.476579E-18
4.990000E+03	7.108455E-17	3.559654E-18
5.000000E+03	7.126285E-17	3.643286E-18
5.010000E+03	7.144600E-17	3.726862E-18
5.020000E+03	7.163451E-17	3.809924E-18
5.030000E+03	7.182883E-17	3.892084E-18
5.040000E+03	7.202861E-17	3.972972E-18
5.050000E+03	7.223266E-17	4.052227E-18
5.060000E+03	7.244144E-17	4.129628E-18
5.070000E+03	7.265456E-17	4.204953E-18
5.080000E+03	7.287249E-17	4.278066E-18
5.090000E+03	7.309398E-17	4.348773E-18
5.100000E+03	7.331946E-17	4.417005E-18
5.110000E+03	7.354853E-17	4.482673E-18
5.120000E+03	7.378074E-17	4.545709E-18
5.130000E+03	7.401481E-17	4.606017E-18
5.140000E+03	7.425196E-17	4.663675E-18
5.150000E+03	7.449001E-17	4.718567E-18
5.160000E+03	7.473014E-17	4.770805E-18
5.170000E+03	7.497100E-17	4.820355E-18
5.180000E+03	7.521119E-17	4.867194E-18
5.190000E+03	7.545182E-17	4.911475E-18
5.200000E+03	7.569232E-17	4.953255E-18
5.210000E+03	7.593036E-17	4.992489E-18
5.220000E+03	7.616614E-17	5.029309E-18
5.230000E+03	7.639815E-17	5.063747E-18
5.240000E+03	7.662741E-17	5.096015E-18
5.250000E+03	7.685149E-17	5.126106E-18
5.260000E+03	7.707052E-17	5.154199E-18
5.270000E+03	7.728288E-17	5.180364E-18
5.280000E+03	7.748781E-17	5.204739E-18
5.290000E+03	7.768452E-17	5.227473E-18
5.300000E+03	7.787137E-17	5.248664E-18
5.310000E+03	7.804842E-17	5.268533E-18
5.320000E+03	7.821403E-17	5.287192E-18
5.330000E+03	7.836741E-17	5.304815E-18
5.340000E+03	7.850778E-17	5.321577E-18
5.350000E+03	7.863266E-17	5.337535E-18
5.360000E+03	7.874307E-17	5.352976E-18
5.370000E+03	7.883655E-17	5.367943E-18
5.380000E+03	7.891246E-17	5.382580E-18
5.390000E+03	7.897016E-17	5.397008E-18
5.400000E+03	7.900823E-17	5.411259E-18
5.410000E+03	7.902700E-17	5.425442E-18
5.420000E+03	7.902425E-17	5.439436E-18
5.430000E+03	7.900042E-17	5.453230E-18
5.440000E+03	7.895425E-17	5.466648E-18
5.450000E+03	7.888545E-17	5.479540E-18
5.460000E+03	7.879380E-17	5.491729E-18
5.470000E+03	7.867916E-17	5.503022E-18
5.480000E+03	7.854151E-17	5.513220E-18
5.490000E+03	7.838006E-17	5.522062E-18
5.500000E+03	7.819670E-17	5.529471E-18
5.510000E+03	7.799001E-17	5.535140E-18
5.520000E+03	7.776124E-17	5.538953E-18
5.530000E+03	7.751176E-17	5.540810E-18
5.540000E+03	7.724132E-17	5.540507E-18
5.550000E+03	7.695150E-17	5.537977E-18
5.560000E+03	7.664316E-17	5.533116E-18
5.570000E+03	7.631806E-17	5.525897E-18
5.580000E+03	7.597724E-17	5.516252E-18
5.590000E+03	7.562268E-17	5.504195E-18
5.600000E+03	7.525476E-17	5.489637E-18
5.610000E+03	7.487646E-17	5.472687E-18
5.620000E+03	7.448832E-17	5.453291E-18
5.630000E+03	7.409262E-17	5.431531E-18
5.640000E+03	7.369249E-17	5.407559E-18
5.650000E+03	7.328783E-17	5.381305E-18
5.660000E+03	7.288104E-17	5.352885E-18
5.670000E+03	7.247454E-17	5.322425E-18
5.680000E+03	7.206991E-17	5.289997E-18
5.690000E+03	7.166879E-17	5.255680E-18
5.700000E+03	7.127354E-17	5.219612E-18
5.710000E+03	7.088495E-17	5.181819E-18
5.720000E+03	7.050613E-17	5.142497E-18
5.730000E+03	7.013698E-17	5.101612E-18
5.740000E+03	6.978048E-17	5.059354E-18
5.750000E+03	6.943799E-17	5.015795E-18
5.760000E+03	6.911000E-17	4.970944E-18
5.770000E+03	6.879924E-17	4.924970E-18
5.780000E+03	6.850525E-17	4.877813E-18
5.790000E+03	6.822980E-17	4.829571E-18
5.800000E+03	6.797380E-17	4.780275E-18
5.810000E+03	6.773877E-17	4.730002E-18
5.820000E+03	6.752389E-17	4.678660E-18
5.830000E+03	6.733127E-17	4.626358E-18
5.840000E+03	6.716063E-17	4.573039E-18
5.850000E+03	6.701235E-17	4.518688E-18
5.860000E+03	6.688675E-17	4.463283E-18
5.870000E+03	6.678403E-17	4.406797E-18
5.880000E+03	6.670434E-17	4.349192E-18
5.890000E+03	6.664775E-17	4.290428E-18
5.900000E+03	6.661354E-17	4.230413E-18
5.910000E+03	6.660319E-17	4.169195E-18
5.920000E+03	6.661513E-17	4.106631E-18
5.930000E+03	6.664930E-17	4.042676E-18
5.940000E+03	6.670560E-17	3.977289E-18
5.950000E+03	6.678470E-17	3.910476E-18
5.960000E+03	6.688504E-17	3.842122E-18
5.970000E+03	6.700806E-17	3.772299E-18
5.980000E+03	6.715150E-17	3.700879E-18
5.990000E+03	6.731765E-17	3.628009E-18
6.000000E+03	6.750432E-17	3.553611E-18
6.010000E+03	6.771238E-17	3.477805E-18
6.020000E+03	6.794203E-17	3.400706E-18
6.030000E+03	6.819275E-17	3.322437E-18
6.040000E+03	6.846559E-17	3.243252E-18
6.050000E+03	6.876014E-17	3.163397E-18
6.060000E+03	6.907600E-17	3.083196E-18
6.070000E+03	6.941515E-17	3.003170E-18
6.080000E+03	6.977569E-17	2.923774E-18
6.090000E+03	7.015963E-17	2.845755E-18
6.100000E+03	7.056661E-17	2.769893E-18
6.110000E+03	7.099703E-17	2.697153E-18
6.120000E+03	7.145041E-17	2.628630E-18
6.130000E+03	7.192780E-17	2.565638E-18
6.140000E+03	7.242851E-17	2.509577E-18
6.150000E+03	7.295251E-17	2.461997E-18
6.160000E+03	7.350043E-17	2.424536E-18
6.170000E+03	7.407017E-17	2.398735E-18
6.180000E+03	7.466186E-17	2.386095E-18
6.190000E+03	7.527453E-17	2.387846E-18
6.200000E+03	7.590685E-17	2.404857E-18
6.210000E+03	7.655713E-17	2.437505E-18
6.220000E+03	7.722232E-17	2.485573E-18
6.230000E+03	7.790073E-17	2.548430E-18
6.240000E+03	7.858940E-17	2.625038E-18
6.250000E+03	7.928407E-17	2.714045E-18
6.260000E+03	7.998191E-17	2.813980E-18
6.270000E+03	8.067791E-17	2.923221E-18
6.280000E+03	8.136952E-17	3.040227E-18
6.290000E+03	8.205014E-17	3.163350E-18
6.300000E+03	8.271575E-17	3.291108E-18
6.310000E+03	8.336117E-17	3.422063E-18
6.320000E+03	8.398008E-17	3.554819E-18
6.330000E+03	8.456902E-17	3.688196E-18
6.340000E+03	8.512153E-17	3.820974E-18
6.350000E+03	8.563222E-17	3.952059E-18
6.360000E+03	8.609678E-17	4.080485E-18
6.370000E+03	8.650809E-17	4.205218E-18
6.380000E+03	8.686333E-17	4.325496E-18
6.390000E+03	8.715805E-17	4.440534E-18
6.400000E+03	8.738609E-17	4.549515E-18
6.410000E+03	8.754700E-17	4.651964E-18
6.420000E+03	8.763568E-17	4.747213E-18
6.430000E+03	8.765073E-17	4.834835E-18
6.440000E+03	8.759037E-17	4.914427E-18
6.450000E+03	8.745350E-17	4.985666E-18
6.460000E+03	8.723968E-17	5.048305E-18
6.470000E+03	8.694917E-17	5.102180E-18
6.480000E+03	8.658398E-17	5.147264E-18
6.490000E+03	8.614464E-17	5.183482E-18
6.500000E+03	8.563337E-17	5.210896E-18
6.510000E+03	8.505506E-17	5.229763E-18
6.520000E+03	8.441094E-17	5.240149E-18
6.530000E+03	8.370686E-17	5.242438E-18
6.540000E+03	8.294493E-17	5.236809E-18
6.550000E+03	8.213270E-17	5.223811E-18
6.560000E+03	8.127289E-17	5.203712E-18
6.570000E+03	8.037141E-17	5.177008E-18
6.580000E+03	7.943431E-17	5.144222E-18
6.590000E+03	7.846565E-17	5.105769E-18
6.600000E+03	7.747050E-17	5.062145E-18
6.610000E+03	7.645580E-17	5.013982E-18
6.620000E+03	7.542544E-17	4.961726E-18
6.630000E+03	7.438412E-17	4.905883E-18
6.640000E+03	7.333732E-17	4.847020E-18
6.650000E+03	7.228929E-17	4.785629E-18
6.660000E+03	7.124409E-17	4.722193E-18
6.670000E+03	7.020638E-17	4.657238E-18
6.680000E+03	6.917875E-17	4.591155E-18
6.690000E+03	6.816534E-17	4.524438E-18
6.700000E+03	6.716908E-17	4.457498E-18
6.710000E+03	6.619263E-17	4.390731E-18
6.720000E+03	6.523925E-17	4.324566E-18
6.730000E+03	6.431106E-17	4.259355E-18
6.740000E+03	6.340995E-17	4.195432E-18
6.750000E+03	6.253673E-17	4.133053E-18
6.760000E+03	6.169450E-17	4.072622E-18
6.770000E+03	6.088364E-17	4.014358E-18
6.780000E+03	6.010602E-17	3.958566E-18
6.790000E+03	5.936246E-17	3.905480E-18
6.800000E+03	5.865288E-17	3.855263E-18
6.810000E+03	5.797940E-17	3.808211E-18
6.820000E+03	5.734090E-17	3.764395E-18
6.830000E+03	5.673921E-17	3.724066E-18
6.840000E+03	5.617377E-17	3.687297E-18
6.850000E+03	5.564471E-17	3.654186E-18
6.860000E+03	5.515281E-17	3.624850E-18
6.870000E+03	5.469730E-17	3.599271E-18
6.880000E+03	5.427885E-17	3.577481E-18
6.890000E+03	5.389735E-17	3.559412E-18
6.900000E+03	5.355190E-17	3.544916E-18
6.910000E+03	5.324304E-17	3.533923E-18
6.920000E+03	5.297051E-17	3.526295E-18
6.930000E+03	5.273399E-17	3.521887E-18
6.940000E+03	5.253243E-17	3.520495E-18
6.950000E+03	5.236613E-17	3.522011E-18
6.960000E+03	5.223537E-17	3.526322E-18
6.970000E+03	5.213745E-17	3.533124E-18
6.980000E+03	5.207398E-17	3.542401E-18
6.990000E+03	5.204360E-17	3.553947E-18
7.000000E+03	5.204490E-17	3.567552E-18
7.010000E+03	5.207782E-17	3.583109E-18
7.020000E+03	5.214155E-17	3.600458E-18
7.030000E+03	5.223443E-17	3.619391E-18
7.040000E+03	5.235620E-17	3.639794E-18
7.050000E+03	5.250506E-17	3.661454E-18
7.060000E+03	5.267981E-17	3.684200E-18
7.070000E+03	5.287994E-17	3.707911E-18
7.080000E+03	5.310334E-17	3.732353E-18
7.090000E+03	5.334928E-17	3.757393E-18
7.100000E+03	5.361469E-17	3.782727E-18
7.110000E+03	5.389862E-17	3.808204E-18
7.120000E+03	5.419850E-17	3.833553E-18
7.130000E+03	5.451394E-17	3.858657E-18
7.140000E+03	5.484062E-17	3.883116E-18
7.150000E+03	5.517791E-17	3.906790E-18
7.160000E+03	5.552278E-17	3.929368E-18
7.170000E+03	5.587288E-17	3.950580E-18
7.180000E+03	5.622573E-17	3.970148E-18
7.190000E+03	5.657797E-17	3.987730E-18
7.200000E+03	5.692697E-17	4.003032E-18
7.210000E+03	5.726999E-17	4.015757E-18
7.220000E+03	5.760509E-17	4.025660E-18
7.230000E+03	5.792701E-17	4.032270E-18
7.240000E+03	5.823453E-17	4.035403E-18
7.250000E+03	5.852484E-17	4.034765E-18
7.260000E+03	5.879346E-17	4.029960E-18
7.270000E+03	5.903762E-17	4.020717E-18
7.280000E+03	5.925545E-17	4.006838E-18
7.290000E+03	5.944353E-17	3.988033E-18
7.300000E+03	5.959853E-17	3.964036E-18
7.310000E+03	5.971901E-17	3.934720E-18
7.320000E+03	5.980199E-17	3.899880E-18
7.330000E+03	5.984558E-17	3.859401E-18
7.340000E+03	5.984814E-17	3.813206E-18
7.350000E+03	5.980828E-17	3.761258E-18
7.360000E+03	5.972326E-17	3.703459E-18
7.370000E+03	5.959318E-17	3.639917E-18
7.380000E+03	5.941848E-17	3.570783E-18
7.390000E+03	5.919659E-17	3.496054E-18
7.400000E+03	5.893037E-17	3.416078E-18
7.410000E+03	5.861803E-17	3.330954E-18
7.420000E+03	5.826230E-17	3.241074E-18
7.430000E+03	5.786464E-17	3.146778E-18
7.440000E+03	5.742520E-17	3.048364E-18
7.450000E+03	5.694696E-17	2.946315E-18
7.460000E+03	5.643320E-17	2.841154E-18
7.470000E+03	5.588505E-17	2.733323E-18
7.480000E+03	5.530713E-17	2.623476E-18
7.490000E+03	5.470265E-17	2.512229E-18
7.500000E+03	5.407420E-17	2.400213E-18
7.510000E+03	5.342534E-17	2.288156E-18
7.520000E+03	5.276047E-17	2.176876E-18
7.530000E+03	5.208323E-17	2.067226E-18
7.540000E+03	5.139730E-17	1.960142E-18
7.550000E+03	5.070630E-17	1.856648E-18
7.560000E+03	5.001379E-17	1.757870E-18
7.570000E+03	4.932389E-17	1.665062E-18
7.580000E+03	4.863985E-17	1.579555E-18
7.590000E+03	4.796402E-17	1.502736E-18
7.600000E+03	4.729993E-17	1.436068E-18
7.610000E+03	4.665084E-17	1.380956E-18
7.620000E+03	4.601833E-17	1.338588E-18
7.630000E+03	4.540504E-17	1.309873E-18
7.640000E+03	4.481196E-17	1.295221E-18
7.650000E+03	4.424036E-17	1.294473E-18
7.660000E+03	4.369240E-17	1.306905E-18
7.670000E+03	4.316800E-17	1.331300E-18
7.680000E+03	4.266686E-17	1.366176E-18
7.690000E+03	4.219034E-17	1.410005E-18
7.700000E+03	4.173773E-17	1.461235E-18
7.710000E+03	4.130881E-17	1.518457E-18
7.720000E+03	4.090325E-17	1.580434E-18
7.730000E+03	4.052060E-17	1.646118E-18
7.740000E+03	4.016092E-17	1.714667E-18
7.750000E+03	3.982303E-17	1.785354E-18
7.760000E+03	3.950630E-17	1.857619E-18
