#wls	flux	fluxerr
1.600000E+03	4.665708E-18	3.881336E-18
1.640000E+03	4.836673E-18	3.994180E-18
1.680000E+03	5.018204E-18	4.112806E-18
1.720000E+03	5.213669E-18	4.239655E-18
1.760000E+03	5.422232E-18	4.373675E-18
1.800000E+03	5.644781E-18	4.515199E-18
1.840000E+03	5.884246E-18	4.666140E-18
1.880000E+03	6.140823E-18	4.826164E-18
1.920000E+03	6.415703E-18	4.995683E-18
1.960000E+03	6.710151E-18	5.175113E-18
2.000000E+03	7.026663E-18	5.365748E-18
2.040000E+03	7.365589E-18	5.567158E-18
2.080000E+03	7.729679E-18	5.780670E-18
2.120000E+03	8.120656E-18	6.006733E-18
2.160000E+03	8.538964E-18	6.244771E-18
2.200000E+03	8.989161E-18	6.497135E-18
2.240000E+03	9.471897E-18	6.763189E-18
2.280000E+03	9.990746E-18	7.044295E-18
2.320000E+03	1.054636E-17	7.339610E-18
2.360000E+03	1.114424E-17	7.651550E-18
2.400000E+03	1.178341E-17	7.977887E-18
2.440000E+03	1.246968E-17	8.320917E-18
2.480000E+03	1.320369E-17	8.679228E-18
2.520000E+03	1.398970E-17	9.053691E-18
2.560000E+03	1.483011E-17	9.443741E-18
2.600000E+03	1.572936E-17	9.849942E-18
2.640000E+03	1.668744E-17	1.026984E-17
2.680000E+03	1.770849E-17	1.070343E-17
2.720000E+03	1.879666E-17	1.115046E-17
2.760000E+03	1.995080E-17	1.160732E-17
2.800000E+03	2.117422E-17	1.207296E-17
2.840000E+03	2.246714E-17	1.254433E-17
2.880000E+03	2.383191E-17	1.301950E-17
2.920000E+03	2.526415E-17	1.349275E-17
2.960000E+03	2.677088E-17	1.396448E-17
3.000000E+03	2.834243E-17	1.442618E-17
3.010000E+03	2.874403E-17	1.453894E-17
3.020000E+03	2.915099E-17	1.465148E-17
3.030000E+03	2.956324E-17	1.476372E-17
3.040000E+03	2.997723E-17	1.487381E-17
3.050000E+03	3.039632E-17	1.498340E-17
3.060000E+03	3.081689E-17	1.509064E-17
3.070000E+03	3.124236E-17	1.519717E-17
3.080000E+03	3.167262E-17	1.530288E-17
3.090000E+03	3.210395E-17	1.540593E-17
3.100000E+03	3.253982E-17	1.550794E-17
3.110000E+03	3.298012E-17	1.560881E-17
3.120000E+03	3.342102E-17	1.570669E-17
3.130000E+03	3.386604E-17	1.580319E-17
3.140000E+03	3.431128E-17	1.589647E-17
3.150000E+03	3.476413E-17	1.598990E-17
3.160000E+03	3.521685E-17	1.607987E-17
3.170000E+03	3.566921E-17	1.616626E-17
3.180000E+03	3.612484E-17	1.625071E-17
3.190000E+03	3.658358E-17	1.633309E-17
3.200000E+03	3.704525E-17	1.641328E-17
3.210000E+03	3.750966E-17	1.649117E-17
3.220000E+03	3.797262E-17	1.656489E-17
3.230000E+03	3.843787E-17	1.663606E-17
3.240000E+03	3.890115E-17	1.670283E-17
3.250000E+03	3.936625E-17	1.676683E-17
3.260000E+03	3.983703E-17	1.682965E-17
3.270000E+03	4.030097E-17	1.688599E-17
3.280000E+03	4.077013E-17	1.694092E-17
3.290000E+03	4.123599E-17	1.699087E-17
3.300000E+03	4.170660E-17	1.703917E-17
3.310000E+03	4.217336E-17	1.708228E-17
3.320000E+03	4.263594E-17	1.712009E-17
3.330000E+03	4.310248E-17	1.715590E-17
3.340000E+03	4.356425E-17	1.718621E-17
3.350000E+03	4.402519E-17	1.721262E-17
3.360000E+03	4.448500E-17	1.723500E-17
3.370000E+03	4.494338E-17	1.725328E-17
3.380000E+03	4.540004E-17	1.726734E-17
3.390000E+03	4.585033E-17	1.727545E-17
3.400000E+03	4.629825E-17	1.727919E-17
3.410000E+03	4.674348E-17	1.727846E-17
3.420000E+03	4.718573E-17	1.727318E-17
3.430000E+03	4.762465E-17	1.726327E-17
3.440000E+03	4.805994E-17	1.724865E-17
3.450000E+03	4.849127E-17	1.722927E-17
3.460000E+03	4.891391E-17	1.720350E-17
3.470000E+03	4.933193E-17	1.717287E-17
3.480000E+03	4.974500E-17	1.713732E-17
3.490000E+03	5.015723E-17	1.709832E-17
3.500000E+03	5.055502E-17	1.705129E-17
3.510000E+03	5.095132E-17	1.700074E-17
3.520000E+03	5.134140E-17	1.694513E-17
3.530000E+03	5.172494E-17	1.688443E-17
3.540000E+03	5.209719E-17	1.681720E-17
3.550000E+03	5.246672E-17	1.674633E-17
3.560000E+03	5.282435E-17	1.666895E-17
3.570000E+03	5.317866E-17	1.658790E-17
3.580000E+03	5.352050E-17	1.650040E-17
3.590000E+03	5.385402E-17	1.640789E-17
3.600000E+03	5.417895E-17	1.631040E-17
3.610000E+03	5.449502E-17	1.620796E-17
3.620000E+03	5.480198E-17	1.610062E-17
3.630000E+03	5.509958E-17	1.598844E-17
3.640000E+03	5.538321E-17	1.587022E-17
3.650000E+03	5.566141E-17	1.574858E-17
3.660000E+03	5.592959E-17	1.562231E-17
3.670000E+03	5.618318E-17	1.549029E-17
3.680000E+03	5.643073E-17	1.535505E-17
3.690000E+03	5.666336E-17	1.521431E-17
3.700000E+03	5.688959E-17	1.507051E-17
3.710000E+03	5.710063E-17	1.492148E-17
3.720000E+03	5.730068E-17	1.476850E-17
3.730000E+03	5.748963E-17	1.461170E-17
3.740000E+03	5.766739E-17	1.445122E-17
3.750000E+03	5.783388E-17	1.428721E-17
3.760000E+03	5.798902E-17	1.411982E-17
3.770000E+03	5.812861E-17	1.394821E-17
3.780000E+03	5.826098E-17	1.377457E-17
3.790000E+03	5.838193E-17	1.359804E-17
3.800000E+03	5.848736E-17	1.341787E-17
3.810000E+03	5.858144E-17	1.323522E-17
3.820000E+03	5.866424E-17	1.305027E-17
3.830000E+03	5.873580E-17	1.286321E-17
3.840000E+03	5.879621E-17	1.267425E-17
3.850000E+03	5.884557E-17	1.248357E-17
3.860000E+03	5.888005E-17	1.229057E-17
3.870000E+03	5.890771E-17	1.209712E-17
3.880000E+03	5.892084E-17	1.190179E-17
3.890000E+03	5.892356E-17	1.170563E-17
3.900000E+03	5.891606E-17	1.150884E-17
3.910000E+03	5.889474E-17	1.131091E-17
3.920000E+03	5.886370E-17	1.111282E-17
3.930000E+03	5.882693E-17	1.091549E-17
3.940000E+03	5.877344E-17	1.071705E-17
3.950000E+03	5.871475E-17	1.051979E-17
3.960000E+03	5.864375E-17	1.032261E-17
3.970000E+03	5.856447E-17	1.012637E-17
3.980000E+03	5.847723E-17	9.931307E-18
3.990000E+03	5.837880E-17	9.737024E-18
4.000000E+03	5.827315E-17	9.544355E-18
4.010000E+03	5.816065E-17	9.353500E-18
4.020000E+03	5.803821E-17	9.164111E-18
4.030000E+03	5.790975E-17	8.976955E-18
4.040000E+03	5.777226E-17	8.791701E-18
4.050000E+03	5.762961E-17	8.609072E-18
4.060000E+03	5.747890E-17	8.428754E-18
4.070000E+03	5.732393E-17	8.251423E-18
4.080000E+03	5.716514E-17	8.077236E-18
4.090000E+03	5.699975E-17	7.905889E-18
4.100000E+03	5.682829E-17	7.737559E-18
4.110000E+03	5.665448E-17	7.572830E-18
4.120000E+03	5.647564E-17	7.411405E-18
4.130000E+03	5.629543E-17	7.253821E-18
4.140000E+03	5.610817E-17	7.099396E-18
4.150000E+03	5.592362E-17	6.949401E-18
4.160000E+03	5.573314E-17	6.802773E-18
4.170000E+03	5.554332E-17	6.660337E-18
4.180000E+03	5.535169E-17	6.521787E-18
4.190000E+03	5.515879E-17	6.387176E-18
4.200000E+03	5.496804E-17	6.256870E-18
4.210000E+03	5.477420E-17	6.130231E-18
4.220000E+03	5.458353E-17	6.007913E-18
4.230000E+03	5.439367E-17	5.889585E-18
4.240000E+03	5.420514E-17	5.775226E-18
4.250000E+03	5.401571E-17	5.664516E-18
4.260000E+03	5.383136E-17	5.557987E-18
4.270000E+03	5.364981E-17	5.455283E-18
4.280000E+03	5.347153E-17	5.356330E-18
4.290000E+03	5.329697E-17	5.261039E-18
4.300000E+03	5.312655E-17	5.169312E-18
4.310000E+03	5.295813E-17	5.080792E-18
4.320000E+03	5.279728E-17	4.995858E-18
4.330000E+03	5.263923E-17	4.913893E-18
4.340000E+03	5.248694E-17	4.835004E-18
4.350000E+03	5.234074E-17	4.759045E-18
4.360000E+03	5.219848E-17	4.685645E-18
4.370000E+03	5.206296E-17	4.614874E-18
4.380000E+03	5.193446E-17	4.546570E-18
4.390000E+03	5.181083E-17	4.480360E-18
4.400000E+03	5.169473E-17	4.416291E-18
4.410000E+03	5.158638E-17	4.354193E-18
4.420000E+03	5.148360E-17	4.293698E-18
4.430000E+03	5.138895E-17	4.234839E-18
4.440000E+03	5.130025E-17	4.177257E-18
4.450000E+03	5.121995E-17	4.120978E-18
4.460000E+03	5.114588E-17	4.065653E-18
4.470000E+03	5.107816E-17	4.011130E-18
4.480000E+03	5.101912E-17	3.957431E-18
4.490000E+03	5.096655E-17	3.904226E-18
4.500000E+03	5.092051E-17	3.851373E-18
4.510000E+03	5.088322E-17	3.798898E-18
4.520000E+03	5.085245E-17	3.746495E-18
4.530000E+03	5.082819E-17	3.694036E-18
4.540000E+03	5.081255E-17	3.641555E-18
4.550000E+03	5.080113E-17	3.588625E-18
4.560000E+03	5.079816E-17	3.535445E-18
4.570000E+03	5.080138E-17	3.481763E-18
4.580000E+03	5.081065E-17	3.427488E-18
4.590000E+03	5.082793E-17	3.372684E-18
4.600000E+03	5.084884E-17	3.316999E-18
4.610000E+03	5.087530E-17	3.260524E-18
4.620000E+03	5.090712E-17	3.203219E-18
4.630000E+03	5.094613E-17	3.145189E-18
4.640000E+03	5.098795E-17	3.086169E-18
4.650000E+03	5.103645E-17	3.026431E-18
4.660000E+03	5.108724E-17	2.965765E-18
4.670000E+03	5.114209E-17	2.904364E-18
4.680000E+03	5.120275E-17	2.842437E-18
4.690000E+03	5.126480E-17	2.779886E-18
4.700000E+03	5.132996E-17	2.716996E-18
4.710000E+03	5.139789E-17	2.653981E-18
4.720000E+03	5.146823E-17	2.591103E-18
4.730000E+03	5.153860E-17	2.528579E-18
4.740000E+03	5.161266E-17	2.466988E-18
4.750000E+03	5.168600E-17	2.406573E-18
4.760000E+03	5.176222E-17	2.348034E-18
4.770000E+03	5.183694E-17	2.291763E-18
4.780000E+03	5.190974E-17	2.238415E-18
4.790000E+03	5.198418E-17	2.188871E-18
4.800000E+03	5.205783E-17	2.143799E-18
4.810000E+03	5.212829E-17	2.103903E-18
4.820000E+03	5.219708E-17	2.070047E-18
4.830000E+03	5.226378E-17	2.042963E-18
4.840000E+03	5.232599E-17	2.023204E-18
4.850000E+03	5.238723E-17	2.011381E-18
4.860000E+03	5.244329E-17	2.007571E-18
4.870000E+03	5.249641E-17	2.011724E-18
4.880000E+03	5.254733E-17	2.023403E-18
4.890000E+03	5.259487E-17	2.041884E-18
4.900000E+03	5.264178E-17	2.066453E-18
4.910000E+03	5.268883E-17	2.096247E-18
4.920000E+03	5.273678E-17	2.130383E-18
4.930000E+03	5.278444E-17	2.167921E-18
4.940000E+03	5.283442E-17	2.208128E-18
4.950000E+03	5.288736E-17	2.250261E-18
4.960000E+03	5.294385E-17	2.293656E-18
4.970000E+03	5.300252E-17	2.337648E-18
4.980000E+03	5.306577E-17	2.381817E-18
4.990000E+03	5.313403E-17	2.425739E-18
5.000000E+03	5.320767E-17	2.469061E-18
5.010000E+03	5.328510E-17	2.511405E-18
5.020000E+03	5.337037E-17	2.552719E-18
5.030000E+03	5.345988E-17	2.592644E-18
5.040000E+03	5.355376E-17	2.631043E-18
5.050000E+03	5.365590E-17	2.668006E-18
5.060000E+03	5.376251E-17	2.703286E-18
5.070000E+03	5.387545E-17	2.736941E-18
5.080000E+03	5.399465E-17	2.768964E-18
5.090000E+03	5.411806E-17	2.799267E-18
5.100000E+03	5.424929E-17	2.828072E-18
5.110000E+03	5.438429E-17	2.855221E-18
5.120000E+03	5.452469E-17	2.880863E-18
5.130000E+03	5.467015E-17	2.905054E-18
5.140000E+03	5.481838E-17	2.927754E-18
5.150000E+03	5.497277E-17	2.949233E-18
5.160000E+03	5.512903E-17	2.969353E-18
5.170000E+03	5.528855E-17	2.988283E-18
5.180000E+03	5.545077E-17	3.006090E-18
5.190000E+03	5.561508E-17	3.022839E-18
5.200000E+03	5.577890E-17	3.038487E-18
5.210000E+03	5.594345E-17	3.053197E-18
5.220000E+03	5.610991E-17	3.067131E-18
5.230000E+03	5.627364E-17	3.080128E-18
5.240000E+03	5.643573E-17	3.092340E-18
5.250000E+03	5.659530E-17	3.103808E-18
5.260000E+03	5.674950E-17	3.114463E-18
5.270000E+03	5.690125E-17	3.124549E-18
5.280000E+03	5.704764E-17	3.133983E-18
5.290000E+03	5.718571E-17	3.142680E-18
5.300000E+03	5.731637E-17	3.150759E-18
5.310000E+03	5.744052E-17	3.158335E-18
5.320000E+03	5.755319E-17	3.165195E-18
5.330000E+03	5.765527E-17	3.171441E-18
5.340000E+03	5.774568E-17	3.177063E-18
5.350000E+03	5.782338E-17	3.182041E-18
5.360000E+03	5.788731E-17	3.186354E-18
5.370000E+03	5.793645E-17	3.189972E-18
5.380000E+03	5.796981E-17	3.192860E-18
5.390000E+03	5.798643E-17	3.194979E-18
5.400000E+03	5.798540E-17	3.196286E-18
5.410000E+03	5.796586E-17	3.196733E-18
5.420000E+03	5.792505E-17	3.196161E-18
5.430000E+03	5.786614E-17	3.194733E-18
5.440000E+03	5.778651E-17	3.192286E-18
5.450000E+03	5.768557E-17	3.188768E-18
5.460000E+03	5.756284E-17	3.184125E-18
5.470000E+03	5.741791E-17	3.178313E-18
5.480000E+03	5.725047E-17	3.171287E-18
5.490000E+03	5.706226E-17	3.163119E-18
5.500000E+03	5.684935E-17	3.153569E-18
5.510000E+03	5.661370E-17	3.142722E-18
5.520000E+03	5.635737E-17	3.130675E-18
5.530000E+03	5.607686E-17	3.117218E-18
5.540000E+03	5.577635E-17	3.102571E-18
5.550000E+03	5.545450E-17	3.086652E-18
5.560000E+03	5.511201E-17	3.069492E-18
5.570000E+03	5.474970E-17	3.051135E-18
5.580000E+03	5.436854E-17	3.031633E-18
5.590000E+03	5.396962E-17	3.011048E-18
5.600000E+03	5.355597E-17	2.989549E-18
5.610000E+03	5.312715E-17	2.967111E-18
5.620000E+03	5.268464E-17	2.943816E-18
5.630000E+03	5.223004E-17	2.919749E-18
5.640000E+03	5.176508E-17	2.894998E-18
5.650000E+03	5.129328E-17	2.869749E-18
5.660000E+03	5.081477E-17	2.843993E-18
5.670000E+03	5.033154E-17	2.817817E-18
5.680000E+03	4.984558E-17	2.791307E-18
5.690000E+03	4.936059E-17	2.764636E-18
5.700000E+03	4.887696E-17	2.737786E-18
5.710000E+03	4.839676E-17	2.710827E-18
5.720000E+03	4.792362E-17	2.683914E-18
5.730000E+03	4.745633E-17	2.656924E-18
5.740000E+03	4.700161E-17	2.630174E-18
5.750000E+03	4.655657E-17	2.603440E-18
5.760000E+03	4.612616E-17	2.576935E-18
5.770000E+03	4.571050E-17	2.550597E-18
5.780000E+03	4.531272E-17	2.524534E-18
5.790000E+03	4.493128E-17	2.498587E-18
5.800000E+03	4.457206E-17	2.473017E-18
5.810000E+03	4.423183E-17	2.447571E-18
5.820000E+03	4.391617E-17	2.422488E-18
5.830000E+03	4.362169E-17	2.397512E-18
5.840000E+03	4.335224E-17	2.372784E-18
5.850000E+03	4.310718E-17	2.348200E-18
5.860000E+03	4.288867E-17	2.323809E-18
5.870000E+03	4.269732E-17	2.299575E-18
5.880000E+03	4.253082E-17	2.275306E-18
5.890000E+03	4.239394E-17	2.251188E-18
5.900000E+03	4.228281E-17	2.226949E-18
5.910000E+03	4.220068E-17	2.202690E-18
5.920000E+03	4.214786E-17	2.178358E-18
5.930000E+03	4.212325E-17	2.153827E-18
5.940000E+03	4.212857E-17	2.129115E-18
5.950000E+03	4.216269E-17	2.104095E-18
5.960000E+03	4.222735E-17	2.078785E-18
5.970000E+03	4.232144E-17	2.053061E-18
5.980000E+03	4.244674E-17	2.026945E-18
5.990000E+03	4.260363E-17	2.000394E-18
6.000000E+03	4.279111E-17	1.973304E-18
6.010000E+03	4.300963E-17	1.945653E-18
6.020000E+03	4.326263E-17	1.917563E-18
6.030000E+03	4.354631E-17	1.888847E-18
6.040000E+03	4.386569E-17	1.859734E-18
6.050000E+03	4.421852E-17	1.830162E-18
6.060000E+03	4.460550E-17	1.800238E-18
6.070000E+03	4.503042E-17	1.770239E-18
6.080000E+03	4.549106E-17	1.740257E-18
6.090000E+03	4.598820E-17	1.710585E-18
6.100000E+03	4.652422E-17	1.681658E-18
6.110000E+03	4.709992E-17	1.653955E-18
6.120000E+03	4.771611E-17	1.628072E-18
6.130000E+03	4.837183E-17	1.604682E-18
6.140000E+03	4.906932E-17	1.584701E-18
6.150000E+03	4.980734E-17	1.569069E-18
6.160000E+03	5.058956E-17	1.558997E-18
6.170000E+03	5.141258E-17	1.555548E-18
6.180000E+03	5.227781E-17	1.559941E-18
6.190000E+03	5.318274E-17	1.573186E-18
6.200000E+03	5.412793E-17	1.596179E-18
6.210000E+03	5.511149E-17	1.629387E-18
6.220000E+03	5.613076E-17	1.672800E-18
6.230000E+03	5.718034E-17	1.725966E-18
6.240000E+03	5.825800E-17	1.788250E-18
6.250000E+03	5.935889E-17	1.858741E-18
6.260000E+03	6.047745E-17	1.936389E-18
6.270000E+03	6.160745E-17	2.020069E-18
6.280000E+03	6.273979E-17	2.108559E-18
6.290000E+03	6.386903E-17	2.200779E-18
6.300000E+03	6.498703E-17	2.295612E-18
6.310000E+03	6.608514E-17	2.391977E-18
6.320000E+03	6.715428E-17	2.488842E-18
6.330000E+03	6.818264E-17	2.585134E-18
6.340000E+03	6.916287E-17	2.680009E-18
6.350000E+03	7.008525E-17	2.772594E-18
6.360000E+03	7.094014E-17	2.862080E-18
6.370000E+03	7.171815E-17	2.947719E-18
6.380000E+03	7.241027E-17	3.028830E-18
6.390000E+03	7.300812E-17	3.104806E-18
6.400000E+03	7.350148E-17	3.175001E-18
6.410000E+03	7.388881E-17	3.239180E-18
6.420000E+03	7.415931E-17	3.296746E-18
6.430000E+03	7.431117E-17	3.347518E-18
6.440000E+03	7.434128E-17	3.391288E-18
6.450000E+03	7.425056E-17	3.428054E-18
6.460000E+03	7.403346E-17	3.457528E-18
6.470000E+03	7.369371E-17	3.479862E-18
6.480000E+03	7.323122E-17	3.495036E-18
6.490000E+03	7.265501E-17	3.503464E-18
6.500000E+03	7.196748E-17	3.505255E-18
6.510000E+03	7.117477E-17	3.500687E-18
6.520000E+03	7.028395E-17	3.490086E-18
6.530000E+03	6.930288E-17	3.473815E-18
6.540000E+03	6.824005E-17	3.452265E-18
6.550000E+03	6.710202E-17	3.425727E-18
6.560000E+03	6.590283E-17	3.394871E-18
6.570000E+03	6.464942E-17	3.360012E-18
6.580000E+03	6.335111E-17	3.321584E-18
6.590000E+03	6.201708E-17	3.280022E-18
6.600000E+03	6.065622E-17	3.235751E-18
6.610000E+03	5.927704E-17	3.189182E-18
6.620000E+03	5.788762E-17	3.140715E-18
6.630000E+03	5.649548E-17	3.090728E-18
6.640000E+03	5.510760E-17	3.039581E-18
6.650000E+03	5.373229E-17	2.987718E-18
6.660000E+03	5.237139E-17	2.935238E-18
6.670000E+03	5.103203E-17	2.882542E-18
6.680000E+03	4.972056E-17	2.830000E-18
6.690000E+03	4.843904E-17	2.777751E-18
6.700000E+03	4.718917E-17	2.725919E-18
6.710000E+03	4.597730E-17	2.674904E-18
6.720000E+03	4.480404E-17	2.624785E-18
6.730000E+03	4.367133E-17	2.575721E-18
6.740000E+03	4.258069E-17	2.527853E-18
6.750000E+03	4.153477E-17	2.481396E-18
6.760000E+03	4.053131E-17	2.436273E-18
6.770000E+03	3.957383E-17	2.392756E-18
6.780000E+03	3.865966E-17	2.350748E-18
6.790000E+03	3.779168E-17	2.310487E-18
6.800000E+03	3.696830E-17	2.271942E-18
6.810000E+03	3.618920E-17	2.235155E-18
6.820000E+03	3.545392E-17	2.200161E-18
6.830000E+03	3.476319E-17	2.167065E-18
6.840000E+03	3.411377E-17	2.135724E-18
6.850000E+03	3.350750E-17	2.106305E-18
6.860000E+03	3.294234E-17	2.078730E-18
6.870000E+03	3.241751E-17	2.052994E-18
6.880000E+03	3.193222E-17	2.029079E-18
6.890000E+03	3.148567E-17	2.006960E-18
6.900000E+03	3.107709E-17	1.986605E-18
6.910000E+03	3.070682E-17	1.968051E-18
6.920000E+03	3.037180E-17	1.951117E-18
6.930000E+03	3.007354E-17	1.935908E-18
6.940000E+03	2.981014E-17	1.922315E-18
6.950000E+03	2.958087E-17	1.910300E-18
6.960000E+03	2.938501E-17	1.899824E-18
6.970000E+03	2.922293E-17	1.890922E-18
6.980000E+03	2.909175E-17	1.883415E-18
6.990000E+03	2.899297E-17	1.877407E-18
7.000000E+03	2.892371E-17	1.872722E-18
7.010000E+03	2.888547E-17	1.869463E-18
7.020000E+03	2.887648E-17	1.867522E-18
7.030000E+03	2.889604E-17	1.866860E-18
7.040000E+03	2.894343E-17	1.867436E-18
7.050000E+03	2.901792E-17	1.869208E-18
7.060000E+03	2.911984E-17	1.872198E-18
7.070000E+03	2.924619E-17	1.876216E-18
7.080000E+03	2.939723E-17	1.881278E-18
7.090000E+03	2.957314E-17	1.887393E-18
7.100000E+03	2.977074E-17	1.894354E-18
7.110000E+03	2.999122E-17	1.902228E-18
7.120000E+03	3.023234E-17	1.910863E-18
7.130000E+03	3.049286E-17	1.920169E-18
7.140000E+03	3.077031E-17	1.929974E-18
7.150000E+03	3.106557E-17	1.940315E-18
7.160000E+03	3.137594E-17	1.951000E-18
7.170000E+03	3.169974E-17	1.961901E-18
7.180000E+03	3.203517E-17	1.972878E-18
7.190000E+03	3.237908E-17	1.983708E-18
7.200000E+03	3.273184E-17	1.994382E-18
7.210000E+03	3.309004E-17	2.004660E-18
7.220000E+03	3.345135E-17	2.014365E-18
7.230000E+03	3.381331E-17	2.023317E-18
7.240000E+03	3.417203E-17	2.031251E-18
7.250000E+03	3.452745E-17	2.038132E-18
7.260000E+03	3.487413E-17	2.043613E-18
7.270000E+03	3.521190E-17	2.047658E-18
7.280000E+03	3.553515E-17	2.049923E-18
7.290000E+03	3.584365E-17	2.050380E-18
7.300000E+03	3.613171E-17	2.048697E-18
7.310000E+03	3.639777E-17	2.044786E-18
7.320000E+03	3.663898E-17	2.038497E-18
7.330000E+03	3.685257E-17	2.029691E-18
7.340000E+03	3.703450E-17	2.018172E-18
7.350000E+03	3.718517E-17	2.003997E-18
7.360000E+03	3.729947E-17	1.986934E-18
7.370000E+03	3.737833E-17	1.967088E-18
7.380000E+03	3.741717E-17	1.944280E-18
7.390000E+03	3.741609E-17	1.918589E-18
7.400000E+03	3.737265E-17	1.889975E-18
7.410000E+03	3.728917E-17	1.858648E-18
7.420000E+03	3.716255E-17	1.824557E-18
7.430000E+03	3.699449E-17	1.787901E-18
7.440000E+03	3.678563E-17	1.748839E-18
7.450000E+03	3.653564E-17	1.707495E-18
7.460000E+03	3.624888E-17	1.664228E-18
7.470000E+03	3.592437E-17	1.619164E-18
7.480000E+03	3.556442E-17	1.572598E-18
7.490000E+03	3.517439E-17	1.524978E-18
7.500000E+03	3.475438E-17	1.476538E-18
7.510000E+03	3.430891E-17	1.427728E-18
7.520000E+03	3.384126E-17	1.378969E-18
7.530000E+03	3.335357E-17	1.330660E-18
7.540000E+03	3.285072E-17	1.283339E-18
7.550000E+03	3.233626E-17	1.237514E-18
7.560000E+03	3.181249E-17	1.193672E-18
7.570000E+03	3.128417E-17	1.152411E-18
7.580000E+03	3.075468E-17	1.114286E-18
7.590000E+03	3.022601E-17	1.079803E-18
7.600000E+03	2.970241E-17	1.049529E-18
7.610000E+03	2.918550E-17	1.023893E-18
7.620000E+03	2.868014E-17	1.003370E-18
7.630000E+03	2.818508E-17	9.881224E-19
7.640000E+03	2.770564E-17	9.784199E-19
7.650000E+03	2.724096E-17	9.741258E-19
7.660000E+03	2.679189E-17	9.749549E-19
7.670000E+03	2.636112E-17	9.805883E-19
7.680000E+03	2.594575E-17	9.904450E-19
7.690000E+03	2.554909E-17	1.004152E-18
7.700000E+03	2.516901E-17	1.021137E-18
7.710000E+03	2.480542E-17	1.040934E-18
7.720000E+03	2.445910E-17	1.063154E-18
7.730000E+03	2.412972E-17	1.087417E-18
7.740000E+03	2.381595E-17	1.113347E-18
7.750000E+03	2.351835E-17	1.140706E-18
7.760000E+03	2.323550E-17	1.169210E-18
