#wls	flux	fluxerr
1.600000E+03	4.429931E-18	3.674868E-18
1.640000E+03	4.580867E-18	3.772122E-18
1.680000E+03	4.741808E-18	3.874965E-18
1.720000E+03	4.914260E-18	3.984344E-18
1.760000E+03	5.099011E-18	4.100574E-18
1.800000E+03	5.296906E-18	4.223981E-18
1.840000E+03	5.508842E-18	4.354901E-18
1.880000E+03	5.735778E-18	4.493671E-18
1.920000E+03	5.978732E-18	4.640634E-18
1.960000E+03	6.239819E-18	4.796927E-18
2.000000E+03	6.519222E-18	4.962135E-18
2.040000E+03	6.820381E-18	5.138268E-18
2.080000E+03	7.142510E-18	5.324055E-18
2.120000E+03	7.488157E-18	5.520683E-18
2.160000E+03	7.858864E-18	5.728497E-18
2.200000E+03	8.257547E-18	5.948749E-18
2.240000E+03	8.686036E-18	6.181786E-18
2.280000E+03	9.144808E-18	6.426908E-18
2.320000E+03	9.637110E-18	6.685279E-18
2.360000E+03	1.016647E-17	6.958099E-18
2.400000E+03	1.073507E-17	7.245497E-18
2.440000E+03	1.134347E-17	7.546363E-18
2.480000E+03	1.199537E-17	7.861615E-18
2.520000E+03	1.269475E-17	8.192126E-18
2.560000E+03	1.344198E-17	8.536267E-18
2.600000E+03	1.424294E-17	8.895788E-18
2.640000E+03	1.509776E-17	9.268597E-18
2.680000E+03	1.600815E-17	9.653480E-18
2.720000E+03	1.698000E-17	1.005157E-17
2.760000E+03	1.801245E-17	1.045977E-17
2.800000E+03	1.911116E-17	1.087862E-17
2.840000E+03	2.027169E-17	1.130275E-17
2.880000E+03	2.150141E-17	1.173336E-17
2.920000E+03	2.279696E-17	1.216551E-17
2.960000E+03	2.415935E-17	1.259664E-17
3.000000E+03	2.558589E-17	1.302224E-17
3.010000E+03	2.595418E-17	1.312823E-17
3.020000E+03	2.632431E-17	1.323253E-17
3.030000E+03	2.669920E-17	1.333657E-17
3.040000E+03	2.707572E-17	1.343874E-17
3.050000E+03	2.745993E-17	1.354200E-17
3.060000E+03	2.784559E-17	1.364321E-17
3.070000E+03	2.823253E-17	1.374226E-17
3.080000E+03	2.862697E-17	1.384214E-17
3.090000E+03	2.902249E-17	1.393967E-17
3.100000E+03	2.942213E-17	1.403629E-17
3.110000E+03	2.982581E-17	1.413191E-17
3.120000E+03	3.023340E-17	1.422643E-17
3.130000E+03	3.064151E-17	1.431819E-17
3.140000E+03	3.105657E-17	1.441018E-17
3.150000E+03	3.147184E-17	1.449920E-17
3.160000E+03	3.189049E-17	1.458670E-17
3.170000E+03	3.230897E-17	1.467102E-17
3.180000E+03	3.273391E-17	1.475515E-17
3.190000E+03	3.315833E-17	1.483587E-17
3.200000E+03	3.358892E-17	1.491618E-17
3.210000E+03	3.401862E-17	1.499286E-17
3.220000E+03	3.445069E-17	1.506737E-17
3.230000E+03	3.488494E-17	1.513957E-17
3.240000E+03	3.532117E-17	1.520936E-17
3.250000E+03	3.575564E-17	1.527510E-17
3.260000E+03	3.619523E-17	1.533973E-17
3.270000E+03	3.663619E-17	1.540160E-17
3.280000E+03	3.707469E-17	1.545910E-17
3.290000E+03	3.751771E-17	1.551514E-17
3.300000E+03	3.795776E-17	1.556660E-17
3.310000E+03	3.840191E-17	1.561636E-17
3.320000E+03	3.884258E-17	1.566132E-17
3.330000E+03	3.928318E-17	1.570289E-17
3.340000E+03	3.972716E-17	1.574242E-17
3.350000E+03	4.016685E-17	1.577687E-17
3.360000E+03	4.060943E-17	1.580907E-17
3.370000E+03	4.104715E-17	1.583599E-17
3.380000E+03	4.148725E-17	1.586045E-17
3.390000E+03	4.192190E-17	1.587947E-17
3.400000E+03	4.235838E-17	1.589583E-17
3.410000E+03	4.279264E-17	1.590799E-17
3.420000E+03	4.322438E-17	1.591589E-17
3.430000E+03	4.365331E-17	1.591944E-17
3.440000E+03	4.407530E-17	1.591718E-17
3.450000E+03	4.450154E-17	1.591319E-17
3.460000E+03	4.492026E-17	1.590325E-17
3.470000E+03	4.533497E-17	1.588869E-17
3.480000E+03	4.574925E-17	1.587079E-17
3.490000E+03	4.615507E-17	1.584682E-17
3.500000E+03	4.655986E-17	1.581938E-17
3.510000E+03	4.695947E-17	1.578710E-17
3.520000E+03	4.735360E-17	1.574995E-17
3.530000E+03	4.774196E-17	1.570790E-17
3.540000E+03	4.812812E-17	1.566219E-17
3.550000E+03	4.850406E-17	1.561027E-17
3.560000E+03	4.887724E-17	1.555463E-17
3.570000E+03	4.924351E-17	1.549402E-17
3.580000E+03	4.960260E-17	1.542844E-17
3.590000E+03	4.995809E-17	1.535908E-17
3.600000E+03	5.030201E-17	1.528359E-17
3.610000E+03	5.064181E-17	1.520433E-17
3.620000E+03	5.097339E-17	1.512017E-17
3.630000E+03	5.129653E-17	1.503114E-17
3.640000E+03	5.161480E-17	1.493840E-17
3.650000E+03	5.192415E-17	1.484085E-17
3.660000E+03	5.222438E-17	1.473858E-17
3.670000E+03	5.251529E-17	1.463164E-17
3.680000E+03	5.279668E-17	1.452011E-17
3.690000E+03	5.307216E-17	1.440511E-17
3.700000E+03	5.333777E-17	1.428567E-17
3.710000E+03	5.359336E-17	1.416189E-17
3.720000E+03	5.383879E-17	1.403387E-17
3.730000E+03	5.407766E-17	1.390270E-17
3.740000E+03	5.430611E-17	1.376749E-17
3.750000E+03	5.452405E-17	1.362838E-17
3.760000E+03	5.473507E-17	1.348642E-17
3.770000E+03	5.493175E-17	1.333990E-17
3.780000E+03	5.512135E-17	1.319078E-17
3.790000E+03	5.530019E-17	1.303830E-17
3.800000E+03	5.546824E-17	1.288263E-17
3.810000E+03	5.562909E-17	1.272475E-17
3.820000E+03	5.577912E-17	1.256398E-17
3.830000E+03	5.591484E-17	1.239971E-17
3.840000E+03	5.604338E-17	1.223370E-17
3.850000E+03	5.616476E-17	1.206611E-17
3.860000E+03	5.627205E-17	1.189559E-17
3.870000E+03	5.637230E-17	1.172384E-17
3.880000E+03	5.646215E-17	1.155029E-17
3.890000E+03	5.653834E-17	1.137447E-17
3.900000E+03	5.660782E-17	1.119797E-17
3.910000E+03	5.667070E-17	1.102094E-17
3.920000E+03	5.672044E-17	1.084229E-17
3.930000E+03	5.676060E-17	1.066288E-17
3.940000E+03	5.679142E-17	1.048294E-17
3.950000E+03	5.681635E-17	1.030326E-17
3.960000E+03	5.682913E-17	1.012288E-17
3.970000E+03	5.683649E-17	9.943163E-18
3.980000E+03	5.683229E-17	9.763201E-18
3.990000E+03	5.682003E-17	9.583781E-18
4.000000E+03	5.680314E-17	9.405630E-18
4.010000E+03	5.677567E-17	9.227917E-18
4.020000E+03	5.674109E-17	9.051379E-18
4.030000E+03	5.669975E-17	8.876224E-18
4.040000E+03	5.665199E-17	8.702654E-18
4.050000E+03	5.659817E-17	8.530867E-18
4.060000E+03	5.653572E-17	8.360621E-18
4.070000E+03	5.647095E-17	8.192987E-18
4.080000E+03	5.639837E-17	8.027288E-18
4.090000E+03	5.631848E-17	7.863734E-18
4.100000E+03	5.623742E-17	7.703302E-18
4.110000E+03	5.614992E-17	7.545359E-18
4.120000E+03	5.605647E-17	7.390088E-18
4.130000E+03	5.596309E-17	7.238369E-18
4.140000E+03	5.586466E-17	7.089605E-18
4.150000E+03	5.576171E-17	6.943940E-18
4.160000E+03	5.565742E-17	6.801832E-18
4.170000E+03	5.554958E-17	6.663051E-18
4.180000E+03	5.543869E-17	6.527698E-18
4.190000E+03	5.532787E-17	6.396159E-18
4.200000E+03	5.521755E-17	6.268478E-18
4.210000E+03	5.510307E-17	6.144118E-18
4.220000E+03	5.499005E-17	6.023693E-18
4.230000E+03	5.487640E-17	5.906933E-18
4.240000E+03	5.476508E-17	5.794105E-18
4.250000E+03	5.465161E-17	5.684670E-18
4.260000E+03	5.453893E-17	5.578871E-18
4.270000E+03	5.442992E-17	5.476912E-18
4.280000E+03	5.432018E-17	5.378250E-18
4.290000E+03	5.421492E-17	5.283296E-18
4.300000E+03	5.410981E-17	5.191507E-18
4.310000E+03	5.400994E-17	5.103250E-18
4.320000E+03	5.391104E-17	5.017982E-18
4.330000E+03	5.381581E-17	4.935822E-18
4.340000E+03	5.372231E-17	4.856449E-18
4.350000E+03	5.363542E-17	4.780154E-18
4.360000E+03	5.355093E-17	4.706406E-18
4.370000E+03	5.346918E-17	4.635084E-18
4.380000E+03	5.339484E-17	4.566436E-18
4.390000E+03	5.332160E-17	4.499759E-18
4.400000E+03	5.325623E-17	4.435468E-18
4.410000E+03	5.319246E-17	4.372879E-18
4.420000E+03	5.313481E-17	4.312207E-18
4.430000E+03	5.308340E-17	4.253299E-18
4.440000E+03	5.303630E-17	4.195837E-18
4.450000E+03	5.299364E-17	4.139678E-18
4.460000E+03	5.295556E-17	4.084677E-18
4.470000E+03	5.292420E-17	4.030844E-18
4.480000E+03	5.289757E-17	3.977873E-18
4.490000E+03	5.287372E-17	3.925472E-18
4.500000E+03	5.285673E-17	3.873800E-18
4.510000E+03	5.284460E-17	3.822567E-18
4.520000E+03	5.283929E-17	3.771778E-18
4.530000E+03	5.283682E-17	3.721016E-18
4.540000E+03	5.283914E-17	3.670301E-18
4.550000E+03	5.284617E-17	3.619511E-18
4.560000E+03	5.285591E-17	3.568405E-18
4.570000E+03	5.287212E-17	3.517142E-18
4.580000E+03	5.289276E-17	3.465494E-18
4.590000E+03	5.291577E-17	3.413255E-18
4.600000E+03	5.294294E-17	3.360481E-18
4.610000E+03	5.297408E-17	3.307112E-18
4.620000E+03	5.300716E-17	3.252989E-18
4.630000E+03	5.304386E-17	3.198204E-18
4.640000E+03	5.308399E-17	3.142749E-18
4.650000E+03	5.312734E-17	3.086633E-18
4.660000E+03	5.317185E-17	3.029784E-18
4.670000E+03	5.321916E-17	2.972370E-18
4.680000E+03	5.326720E-17	2.914377E-18
4.690000E+03	5.331761E-17	2.856029E-18
4.700000E+03	5.336835E-17	2.797382E-18
4.710000E+03	5.342103E-17	2.738730E-18
4.720000E+03	5.347544E-17	2.680308E-18
4.730000E+03	5.352778E-17	2.622221E-18
4.740000E+03	5.358331E-17	2.565079E-18
4.750000E+03	5.363825E-17	2.509095E-18
4.760000E+03	5.369249E-17	2.454726E-18
4.770000E+03	5.374770E-17	2.402564E-18
4.780000E+03	5.380205E-17	2.353099E-18
4.790000E+03	5.385550E-17	2.306955E-18
4.800000E+03	5.390987E-17	2.264876E-18
4.810000E+03	5.396522E-17	2.227557E-18
4.820000E+03	5.401820E-17	2.195558E-18
4.830000E+03	5.407256E-17	2.169706E-18
4.840000E+03	5.412863E-17	2.150610E-18
4.850000E+03	5.418505E-17	2.138665E-18
4.860000E+03	5.424221E-17	2.134092E-18
4.870000E+03	5.430206E-17	2.136834E-18
4.880000E+03	5.436290E-17	2.146376E-18
4.890000E+03	5.442481E-17	2.162058E-18
4.900000E+03	5.448962E-17	2.183178E-18
4.910000E+03	5.455582E-17	2.208853E-18
4.920000E+03	5.462536E-17	2.238340E-18
4.930000E+03	5.469681E-17	2.270787E-18
4.940000E+03	5.477049E-17	2.305463E-18
4.950000E+03	5.484843E-17	2.341777E-18
4.960000E+03	5.492923E-17	2.379064E-18
4.970000E+03	5.501321E-17	2.416803E-18
4.980000E+03	5.510237E-17	2.454625E-18
4.990000E+03	5.519527E-17	2.492080E-18
5.000000E+03	5.529384E-17	2.528935E-18
5.010000E+03	5.539658E-17	2.564864E-18
5.020000E+03	5.550366E-17	2.599671E-18
5.030000E+03	5.561689E-17	2.633290E-18
5.040000E+03	5.573464E-17	2.665536E-18
5.050000E+03	5.585866E-17	2.696427E-18
5.060000E+03	5.598722E-17	2.725845E-18
5.070000E+03	5.612196E-17	2.753866E-18
5.080000E+03	5.626110E-17	2.780424E-18
5.090000E+03	5.640447E-17	2.805550E-18
5.100000E+03	5.655361E-17	2.829377E-18
5.110000E+03	5.670829E-17	2.851964E-18
5.120000E+03	5.686653E-17	2.873291E-18
5.130000E+03	5.702804E-17	2.893430E-18
5.140000E+03	5.719417E-17	2.912541E-18
5.150000E+03	5.736455E-17	2.930697E-18
5.160000E+03	5.753704E-17	2.947886E-18
5.170000E+03	5.771118E-17	2.964177E-18
5.180000E+03	5.788816E-17	2.979728E-18
5.190000E+03	5.806744E-17	2.994602E-18
5.200000E+03	5.824670E-17	3.008773E-18
5.210000E+03	5.842529E-17	3.022295E-18
5.220000E+03	5.860595E-17	3.035399E-18
5.230000E+03	5.878277E-17	3.047866E-18
5.240000E+03	5.896012E-17	3.060006E-18
5.250000E+03	5.913371E-17	3.071681E-18
5.260000E+03	5.930261E-17	3.082923E-18
5.270000E+03	5.946762E-17	3.093853E-18
5.280000E+03	5.962775E-17	3.104496E-18
5.290000E+03	5.978197E-17	3.114871E-18
5.300000E+03	5.992746E-17	3.124898E-18
5.310000E+03	6.006313E-17	3.134581E-18
5.320000E+03	6.019137E-17	3.144101E-18
5.330000E+03	6.030753E-17	3.153262E-18
5.340000E+03	6.041048E-17	3.162044E-18
5.350000E+03	6.050260E-17	3.170597E-18
5.360000E+03	6.057926E-17	3.178697E-18
5.370000E+03	6.064111E-17	3.186386E-18
5.380000E+03	6.068533E-17	3.193510E-18
5.390000E+03	6.071263E-17	3.200090E-18
5.400000E+03	6.072204E-17	3.206051E-18
5.410000E+03	6.071261E-17	3.211307E-18
5.420000E+03	6.068171E-17	3.215676E-18
5.430000E+03	6.063204E-17	3.219247E-18
5.440000E+03	6.055936E-17	3.221739E-18
5.450000E+03	6.046303E-17	3.223057E-18
5.460000E+03	6.034598E-17	3.223292E-18
5.470000E+03	6.020425E-17	3.222173E-18
5.480000E+03	6.003926E-17	3.219710E-18
5.490000E+03	5.985247E-17	3.215924E-18
5.500000E+03	5.963861E-17	3.210476E-18
5.510000E+03	5.940286E-17	3.203593E-18
5.520000E+03	5.914365E-17	3.195145E-18
5.530000E+03	5.885959E-17	3.185016E-18
5.540000E+03	5.855451E-17	3.173379E-18
5.550000E+03	5.822563E-17	3.160054E-18
5.560000E+03	5.787541E-17	3.145150E-18
5.570000E+03	5.750476E-17	3.128697E-18
5.580000E+03	5.711640E-17	3.110828E-18
5.590000E+03	5.670826E-17	3.091419E-18
5.600000E+03	5.628340E-17	3.070626E-18
5.610000E+03	5.584335E-17	3.048525E-18
5.620000E+03	5.538980E-17	3.025202E-18
5.630000E+03	5.492458E-17	3.000748E-18
5.640000E+03	5.444961E-17	2.975263E-18
5.650000E+03	5.396696E-17	2.948849E-18
5.660000E+03	5.347876E-17	2.921613E-18
5.670000E+03	5.298724E-17	2.893662E-18
5.680000E+03	5.249618E-17	2.865187E-18
5.690000E+03	5.200484E-17	2.836130E-18
5.700000E+03	5.151856E-17	2.806759E-18
5.710000E+03	5.103812E-17	2.777092E-18
5.720000E+03	5.056436E-17	2.747148E-18
5.730000E+03	5.010241E-17	2.717175E-18
5.740000E+03	4.965436E-17	2.687255E-18
5.750000E+03	4.921942E-17	2.657307E-18
5.760000E+03	4.880095E-17	2.627480E-18
5.770000E+03	4.840217E-17	2.597906E-18
5.780000E+03	4.802334E-17	2.568561E-18
5.790000E+03	4.766598E-17	2.539486E-18
5.800000E+03	4.733284E-17	2.510788E-18
5.810000E+03	4.702377E-17	2.482415E-18
5.820000E+03	4.673982E-17	2.454385E-18
5.830000E+03	4.648190E-17	2.426705E-18
5.840000E+03	4.625079E-17	2.399374E-18
5.850000E+03	4.604841E-17	2.372453E-18
5.860000E+03	4.587523E-17	2.345926E-18
5.870000E+03	4.572897E-17	2.319636E-18
5.880000E+03	4.561251E-17	2.293690E-18
5.890000E+03	4.552467E-17	2.267988E-18
5.900000E+03	4.546685E-17	2.242557E-18
5.910000E+03	4.543774E-17	2.217287E-18
5.920000E+03	4.543728E-17	2.192132E-18
5.930000E+03	4.546674E-17	2.167100E-18
5.940000E+03	4.552603E-17	2.142135E-18
5.950000E+03	4.561244E-17	2.117052E-18
5.960000E+03	4.572857E-17	2.091912E-18
5.970000E+03	4.587444E-17	2.066650E-18
5.980000E+03	4.604876E-17	2.041142E-18
5.990000E+03	4.625301E-17	2.015384E-18
6.000000E+03	4.648608E-17	1.989260E-18
6.010000E+03	4.674827E-17	1.962719E-18
6.020000E+03	4.704137E-17	1.935781E-18
6.030000E+03	4.736594E-17	1.908422E-18
6.040000E+03	4.772126E-17	1.880585E-18
6.050000E+03	4.810806E-17	1.852303E-18
6.060000E+03	4.853006E-17	1.823751E-18
6.070000E+03	4.898398E-17	1.794885E-18
6.080000E+03	4.947372E-17	1.765992E-18
6.090000E+03	5.000042E-17	1.737328E-18
6.100000E+03	5.056531E-17	1.709239E-18
6.110000E+03	5.116811E-17	1.682139E-18
6.120000E+03	5.180999E-17	1.656620E-18
6.130000E+03	5.249366E-17	1.633478E-18
6.140000E+03	5.322024E-17	1.613622E-18
6.150000E+03	5.399077E-17	1.598137E-18
6.160000E+03	5.480450E-17	1.588227E-18
6.170000E+03	5.566202E-17	1.585279E-18
6.180000E+03	5.656699E-17	1.590841E-18
6.190000E+03	5.751607E-17	1.606215E-18
6.200000E+03	5.850858E-17	1.632520E-18
6.210000E+03	5.954653E-17	1.670395E-18
6.220000E+03	6.062394E-17	1.719572E-18
6.230000E+03	6.173730E-17	1.779336E-18
6.240000E+03	6.288604E-17	1.848768E-18
6.250000E+03	6.406144E-17	1.926567E-18
6.260000E+03	6.525952E-17	2.011523E-18
6.270000E+03	6.647173E-17	2.102300E-18
6.280000E+03	6.769461E-17	2.197769E-18
6.290000E+03	6.891599E-17	2.296598E-18
6.300000E+03	7.012896E-17	2.397697E-18
6.310000E+03	7.132181E-17	2.499897E-18
6.320000E+03	7.248862E-17	2.602308E-18
6.330000E+03	7.361442E-17	2.703794E-18
6.340000E+03	7.469034E-17	2.803505E-18
6.350000E+03	7.570523E-17	2.900572E-18
6.360000E+03	7.664788E-17	2.994182E-18
6.370000E+03	7.750497E-17	3.083492E-18
6.380000E+03	7.827062E-17	3.168002E-18
6.390000E+03	7.893017E-17	3.246907E-18
6.400000E+03	7.947693E-17	3.319757E-18
6.410000E+03	7.990293E-17	3.386091E-18
6.420000E+03	8.020144E-17	3.445524E-18
6.430000E+03	8.036719E-17	3.497759E-18
6.440000E+03	8.039400E-17	3.542474E-18
6.450000E+03	8.028472E-17	3.579753E-18
6.460000E+03	8.003409E-17	3.609333E-18
6.470000E+03	7.964837E-17	3.631467E-18
6.480000E+03	7.912566E-17	3.646044E-18
6.490000E+03	7.847540E-17	3.653466E-18
6.500000E+03	7.769878E-17	3.653753E-18
6.510000E+03	7.680787E-17	3.647428E-18
6.520000E+03	7.580633E-17	3.634617E-18
6.530000E+03	7.470582E-17	3.615821E-18
6.540000E+03	7.351858E-17	3.591575E-18
6.550000E+03	7.225046E-17	3.562103E-18
6.560000E+03	7.091666E-17	3.528089E-18
6.570000E+03	6.952352E-17	3.489788E-18
6.580000E+03	6.808605E-17	3.447891E-18
6.590000E+03	6.661244E-17	3.402761E-18
6.600000E+03	6.511269E-17	3.354858E-18
6.610000E+03	6.359630E-17	3.304630E-18
6.620000E+03	6.207219E-17	3.252508E-18
6.630000E+03	6.054861E-17	3.198897E-18
6.640000E+03	5.903314E-17	3.144184E-18
6.650000E+03	5.753263E-17	3.088727E-18
6.660000E+03	5.605498E-17	3.032954E-18
6.670000E+03	5.460378E-17	2.977073E-18
6.680000E+03	5.318378E-17	2.921363E-18
6.690000E+03	5.179907E-17	2.866077E-18
6.700000E+03	5.045312E-17	2.811443E-18
6.710000E+03	4.914881E-17	2.757663E-18
6.720000E+03	4.789002E-17	2.705004E-18
6.730000E+03	4.667704E-17	2.653534E-18
6.740000E+03	4.551129E-17	2.603391E-18
6.750000E+03	4.439383E-17	2.554695E-18
6.760000E+03	4.332674E-17	2.507627E-18
6.770000E+03	4.230762E-17	2.462114E-18
6.780000E+03	4.133935E-17	2.418386E-18
6.790000E+03	4.042046E-17	2.376423E-18
6.800000E+03	3.955196E-17	2.336349E-18
6.810000E+03	3.873086E-17	2.298052E-18
6.820000E+03	3.795914E-17	2.261710E-18
6.830000E+03	3.723488E-17	2.227271E-18
6.840000E+03	3.655854E-17	2.194820E-18
6.850000E+03	3.592815E-17	2.164290E-18
6.860000E+03	3.534177E-17	2.135615E-18
6.870000E+03	3.480199E-17	2.108993E-18
6.880000E+03	3.430458E-17	2.084203E-18
6.890000E+03	3.385096E-17	2.061355E-18
6.900000E+03	3.343922E-17	2.040353E-18
6.910000E+03	3.306857E-17	2.021165E-18
6.920000E+03	3.273825E-17	2.003760E-18
6.930000E+03	3.244855E-17	1.988167E-18
6.940000E+03	3.219769E-17	1.974290E-18
6.950000E+03	3.198496E-17	1.962096E-18
6.960000E+03	3.181069E-17	1.951617E-18
6.970000E+03	3.167214E-17	1.942698E-18
6.980000E+03	3.157071E-17	1.935434E-18
6.990000E+03	3.150471E-17	1.929735E-18
7.000000E+03	3.147451E-17	1.925636E-18
7.010000E+03	3.147740E-17	1.922982E-18
7.020000E+03	3.151478E-17	1.921872E-18
7.030000E+03	3.158494E-17	1.922214E-18
7.040000E+03	3.168821E-17	1.924042E-18
7.050000E+03	3.182178E-17	1.927195E-18
7.060000E+03	3.198696E-17	1.931766E-18
7.070000E+03	3.218081E-17	1.937589E-18
7.080000E+03	3.240455E-17	1.944745E-18
7.090000E+03	3.265615E-17	1.953123E-18
7.100000E+03	3.293565E-17	1.962730E-18
7.110000E+03	3.323972E-17	1.973371E-18
7.120000E+03	3.356928E-17	1.985101E-18
7.130000E+03	3.392076E-17	1.997706E-18
7.140000E+03	3.429485E-17	2.011219E-18
7.150000E+03	3.468880E-17	2.025466E-18
7.160000E+03	3.510081E-17	2.040323E-18
7.170000E+03	3.552891E-17	2.055656E-18
7.180000E+03	3.597097E-17	2.071312E-18
7.190000E+03	3.642470E-17	2.087126E-18
7.200000E+03	3.688763E-17	2.102919E-18
7.210000E+03	3.735713E-17	2.118498E-18
7.220000E+03	3.783037E-17	2.133659E-18
7.230000E+03	3.830566E-17	2.148256E-18
7.240000E+03	3.877734E-17	2.161923E-18
7.250000E+03	3.924339E-17	2.174499E-18
7.260000E+03	3.970040E-17	2.185750E-18
7.270000E+03	4.014487E-17	2.195440E-18
7.280000E+03	4.057320E-17	2.203334E-18
7.290000E+03	4.098176E-17	2.209207E-18
7.300000E+03	4.136687E-17	2.212839E-18
7.310000E+03	4.172349E-17	2.213954E-18
7.320000E+03	4.205083E-17	2.212512E-18
7.330000E+03	4.234261E-17	2.208201E-18
7.340000E+03	4.259690E-17	2.200954E-18
7.350000E+03	4.281207E-17	2.190734E-18
7.360000E+03	4.298092E-17	2.177237E-18
7.370000E+03	4.310528E-17	2.160637E-18
7.380000E+03	4.318153E-17	2.140848E-18
7.390000E+03	4.320647E-17	2.117822E-18
7.400000E+03	4.318027E-17	2.091695E-18
7.410000E+03	4.310213E-17	2.062565E-18
7.420000E+03	4.297033E-17	2.030501E-18
7.430000E+03	4.278807E-17	1.995815E-18
7.440000E+03	4.255324E-17	1.958578E-18
7.450000E+03	4.226868E-17	1.919100E-18
7.460000E+03	4.193485E-17	1.877589E-18
7.470000E+03	4.155562E-17	1.834415E-18
7.480000E+03	4.113384E-17	1.789906E-18
7.490000E+03	4.067142E-17	1.744356E-18
7.500000E+03	4.017343E-17	1.698203E-18
7.510000E+03	3.964383E-17	1.651845E-18
7.520000E+03	3.908544E-17	1.605643E-18
7.530000E+03	3.850400E-17	1.560084E-18
7.540000E+03	3.790393E-17	1.515614E-18
7.550000E+03	3.728839E-17	1.472634E-18
7.560000E+03	3.666312E-17	1.431654E-18
7.570000E+03	3.603116E-17	1.393081E-18
7.580000E+03	3.539796E-17	1.357409E-18
7.590000E+03	3.476621E-17	1.325015E-18
7.600000E+03	3.414086E-17	1.296337E-18
7.610000E+03	3.352528E-17	1.271718E-18
7.620000E+03	3.292137E-17	1.251393E-18
7.630000E+03	3.233187E-17	1.235557E-18
7.640000E+03	3.176014E-17	1.224336E-18
7.650000E+03	3.120783E-17	1.217672E-18
7.660000E+03	3.067494E-17	1.215331E-18
7.670000E+03	3.016221E-17	1.217031E-18
7.680000E+03	2.967109E-17	1.222480E-18
7.690000E+03	2.920175E-17	1.231329E-18
7.700000E+03	2.875215E-17	1.243142E-18
7.710000E+03	2.832521E-17	1.257715E-18
7.720000E+03	2.791865E-17	1.274653E-18
7.730000E+03	2.753213E-17	1.293675E-18
7.740000E+03	2.716523E-17	1.314534E-18
7.750000E+03	2.681840E-17	1.337062E-18
7.760000E+03	2.649107E-17	1.361079E-18
