#wls	flux	fluxerr
1.600000E+03	6.367937E-18	5.348998E-18
1.640000E+03	6.651529E-18	5.547346E-18
1.680000E+03	6.955076E-18	5.757641E-18
1.720000E+03	7.281314E-18	5.981579E-18
1.760000E+03	7.630694E-18	6.218902E-18
1.800000E+03	8.004937E-18	6.470333E-18
1.840000E+03	8.405879E-18	6.736613E-18
1.880000E+03	8.835485E-18	7.018496E-18
1.920000E+03	9.297408E-18	7.317977E-18
1.960000E+03	9.794102E-18	7.635963E-18
2.000000E+03	1.032647E-17	7.972044E-18
2.040000E+03	1.089884E-17	8.328356E-18
2.080000E+03	1.151225E-17	8.704360E-18
2.120000E+03	1.217353E-17	9.103729E-18
2.160000E+03	1.288203E-17	9.524358E-18
2.200000E+03	1.364308E-17	9.968428E-18
2.240000E+03	1.446025E-17	1.043660E-17
2.280000E+03	1.533723E-17	1.092943E-17
2.320000E+03	1.628041E-17	1.144912E-17
2.360000E+03	1.729140E-17	1.199425E-17
2.400000E+03	1.837416E-17	1.256482E-17
2.440000E+03	1.953568E-17	1.316262E-17
2.480000E+03	2.077719E-17	1.378523E-17
2.520000E+03	2.210586E-17	1.443393E-17
2.560000E+03	2.352585E-17	1.510764E-17
2.600000E+03	2.503734E-17	1.580245E-17
2.640000E+03	2.665115E-17	1.652092E-17
2.680000E+03	2.836679E-17	1.725810E-17
2.720000E+03	3.018667E-17	1.801065E-17
2.760000E+03	3.211241E-17	1.877451E-17
2.800000E+03	3.414944E-17	1.954759E-17
2.840000E+03	3.629280E-17	2.032162E-17
2.880000E+03	3.854582E-17	2.109296E-17
2.920000E+03	4.090557E-17	2.185437E-17
2.960000E+03	4.336143E-17	2.259468E-17
3.000000E+03	4.591786E-17	2.331088E-17
3.010000E+03	4.656846E-17	2.348340E-17
3.020000E+03	4.722265E-17	2.365265E-17
3.030000E+03	4.788649E-17	2.382161E-17
3.040000E+03	4.855358E-17	2.398698E-17
3.050000E+03	4.922366E-17	2.414859E-17
3.060000E+03	4.990297E-17	2.430943E-17
3.070000E+03	5.058487E-17	2.446616E-17
3.080000E+03	5.126907E-17	2.461860E-17
3.090000E+03	5.195527E-17	2.476658E-17
3.100000E+03	5.264991E-17	2.491309E-17
3.110000E+03	5.334606E-17	2.505478E-17
3.120000E+03	5.404338E-17	2.519144E-17
3.130000E+03	5.474152E-17	2.532290E-17
3.140000E+03	5.544713E-17	2.545219E-17
3.150000E+03	5.615297E-17	2.557590E-17
3.160000E+03	5.685864E-17	2.569385E-17
3.170000E+03	5.756376E-17	2.580584E-17
3.180000E+03	5.827519E-17	2.591494E-17
3.190000E+03	5.898536E-17	2.601771E-17
3.200000E+03	5.969384E-17	2.611399E-17
3.210000E+03	6.040764E-17	2.620680E-17
3.220000E+03	6.111897E-17	2.629276E-17
3.230000E+03	6.182737E-17	2.637166E-17
3.240000E+03	6.253237E-17	2.644335E-17
3.250000E+03	6.324114E-17	2.651087E-17
3.260000E+03	6.394563E-17	2.657082E-17
3.270000E+03	6.464533E-17	2.662304E-17
3.280000E+03	6.534755E-17	2.667058E-17
3.290000E+03	6.604403E-17	2.671006E-17
3.300000E+03	6.673422E-17	2.674134E-17
3.310000E+03	6.741758E-17	2.676426E-17
3.320000E+03	6.810159E-17	2.678187E-17
3.330000E+03	6.877774E-17	2.679085E-17
3.340000E+03	6.944544E-17	2.679107E-17
3.350000E+03	7.011230E-17	2.678554E-17
3.360000E+03	7.076964E-17	2.677101E-17
3.370000E+03	7.141685E-17	2.674738E-17
3.380000E+03	7.205333E-17	2.671455E-17
3.390000E+03	7.268683E-17	2.667551E-17
3.400000E+03	7.330847E-17	2.662709E-17
3.410000E+03	7.391762E-17	2.656923E-17
3.420000E+03	7.452214E-17	2.650490E-17
3.430000E+03	7.510453E-17	2.642801E-17
3.440000E+03	7.568962E-17	2.634749E-17
3.450000E+03	7.625136E-17	2.625438E-17
3.460000E+03	7.680616E-17	2.615458E-17
3.470000E+03	7.734492E-17	2.604512E-17
3.480000E+03	7.786702E-17	2.592603E-17
3.490000E+03	7.837186E-17	2.579735E-17
3.500000E+03	7.886749E-17	2.566194E-17
3.510000E+03	7.934472E-17	2.551699E-17
3.520000E+03	7.981164E-17	2.536534E-17
3.530000E+03	8.025034E-17	2.520153E-17
3.540000E+03	8.067762E-17	2.503115E-17
3.550000E+03	8.108427E-17	2.485157E-17
3.560000E+03	8.147846E-17	2.466555E-17
3.570000E+03	8.185097E-17	2.447053E-17
3.580000E+03	8.220131E-17	2.426668E-17
3.590000E+03	8.252899E-17	2.405418E-17
3.600000E+03	8.283356E-17	2.383322E-17
3.610000E+03	8.312326E-17	2.360646E-17
3.620000E+03	8.338899E-17	2.337160E-17
3.630000E+03	8.363901E-17	2.313126E-17
3.640000E+03	8.385561E-17	2.288085E-17
3.650000E+03	8.405578E-17	2.262540E-17
3.660000E+03	8.423052E-17	2.236278E-17
3.670000E+03	8.438815E-17	2.209553E-17
3.680000E+03	8.451122E-17	2.181940E-17
3.690000E+03	8.461667E-17	2.153917E-17
3.700000E+03	8.469571E-17	2.125290E-17
3.710000E+03	8.474821E-17	2.096094E-17
3.720000E+03	8.478248E-17	2.066568E-17
3.730000E+03	8.478995E-17	2.036533E-17
3.740000E+03	8.477056E-17	2.006026E-17
3.750000E+03	8.472433E-17	1.975083E-17
3.760000E+03	8.465958E-17	1.943931E-17
3.770000E+03	8.455978E-17	1.912226E-17
3.780000E+03	8.444156E-17	1.880382E-17
3.790000E+03	8.429682E-17	1.848247E-17
3.800000E+03	8.413383E-17	1.816036E-17
3.810000E+03	8.393663E-17	1.783436E-17
3.820000E+03	8.372162E-17	1.750832E-17
3.830000E+03	8.348105E-17	1.718089E-17
3.840000E+03	8.321529E-17	1.685248E-17
3.850000E+03	8.293254E-17	1.652503E-17
3.860000E+03	8.261762E-17	1.619580E-17
3.870000E+03	8.228656E-17	1.586826E-17
3.880000E+03	8.193209E-17	1.554124E-17
3.890000E+03	8.155479E-17	1.521513E-17
3.900000E+03	8.115528E-17	1.489030E-17
3.910000E+03	8.073422E-17	1.456713E-17
3.920000E+03	8.029962E-17	1.424728E-17
3.930000E+03	7.984473E-17	1.392974E-17
3.940000E+03	7.936316E-17	1.361363E-17
3.950000E+03	7.887009E-17	1.330176E-17
3.960000E+03	7.835911E-17	1.299321E-17
3.970000E+03	7.783800E-17	1.268942E-17
3.980000E+03	7.729369E-17	1.238838E-17
3.990000E+03	7.674086E-17	1.209263E-17
4.000000E+03	7.616681E-17	1.180025E-17
4.010000E+03	7.558595E-17	1.151362E-17
4.020000E+03	7.499245E-17	1.123190E-17
4.030000E+03	7.438085E-17	1.095436E-17
4.040000E+03	7.376511E-17	1.068315E-17
4.050000E+03	7.313972E-17	1.041746E-17
4.060000E+03	7.251188E-17	1.015834E-17
4.070000E+03	7.187012E-17	9.904165E-18
4.080000E+03	7.122175E-17	9.655960E-18
4.090000E+03	7.056779E-17	9.413829E-18
4.100000E+03	6.991516E-17	9.178632E-18
4.110000E+03	6.925300E-17	8.948865E-18
4.120000E+03	6.858829E-17	8.725367E-18
4.130000E+03	6.792766E-17	8.508871E-18
4.140000E+03	6.726071E-17	8.297945E-18
4.150000E+03	6.659963E-17	8.093972E-18
4.160000E+03	6.593430E-17	7.895570E-18
4.170000E+03	6.527655E-17	7.704007E-18
4.180000E+03	6.461653E-17	7.517946E-18
4.190000E+03	6.396056E-17	7.337960E-18
4.200000E+03	6.331461E-17	7.164542E-18
4.210000E+03	6.266923E-17	6.996418E-18
4.220000E+03	6.203541E-17	6.834624E-18
4.230000E+03	6.140394E-17	6.677929E-18
4.240000E+03	6.078063E-17	6.526768E-18
4.250000E+03	6.016622E-17	6.381005E-18
4.260000E+03	5.956145E-17	6.240496E-18
4.270000E+03	5.896698E-17	6.105087E-18
4.280000E+03	5.838347E-17	5.974618E-18
4.290000E+03	5.781154E-17	5.848922E-18
4.300000E+03	5.725174E-17	5.727823E-18
4.310000E+03	5.670464E-17	5.611136E-18
4.320000E+03	5.616638E-17	5.498247E-18
4.330000E+03	5.564188E-17	5.389399E-18
4.340000E+03	5.513576E-17	5.284790E-18
4.350000E+03	5.463990E-17	5.183389E-18
4.360000E+03	5.415891E-17	5.085391E-18
4.370000E+03	5.369308E-17	4.990578E-18
4.380000E+03	5.323865E-17	4.898360E-18
4.390000E+03	5.280390E-17	4.809267E-18
4.400000E+03	5.238103E-17	4.722354E-18
4.410000E+03	5.197419E-17	4.637783E-18
4.420000E+03	5.158348E-17	4.555354E-18
4.430000E+03	5.120895E-17	4.474876E-18
4.440000E+03	5.085065E-17	4.396167E-18
4.450000E+03	5.050485E-17	4.318737E-18
4.460000E+03	5.017530E-17	4.242756E-18
4.470000E+03	4.986195E-17	4.168071E-18
4.480000E+03	4.956469E-17	4.094538E-18
4.490000E+03	4.928339E-17	4.022022E-18
4.500000E+03	4.901437E-17	3.950109E-18
4.510000E+03	4.876105E-17	3.878979E-18
4.520000E+03	4.852322E-17	3.808518E-18
4.530000E+03	4.829720E-17	3.738355E-18
4.540000E+03	4.808625E-17	3.668671E-18
4.550000E+03	4.789008E-17	3.599380E-18
4.560000E+03	4.770839E-17	3.530402E-18
4.570000E+03	4.753751E-17	3.461428E-18
4.580000E+03	4.738381E-17	3.392894E-18
4.590000E+03	4.723692E-17	3.324043E-18
4.600000E+03	4.710643E-17	3.255559E-18
4.610000E+03	4.698530E-17	3.186965E-18
4.620000E+03	4.687637E-17	3.118494E-18
4.630000E+03	4.677916E-17	3.050160E-18
4.640000E+03	4.668991E-17	2.981786E-18
4.650000E+03	4.661134E-17	2.913638E-18
4.660000E+03	4.653968E-17	2.845586E-18
4.670000E+03	4.648075E-17	2.778114E-18
4.680000E+03	4.642754E-17	2.710942E-18
4.690000E+03	4.637947E-17	2.644221E-18
4.700000E+03	4.634222E-17	2.578474E-18
4.710000E+03	4.630568E-17	2.513365E-18
4.720000E+03	4.627864E-17	2.449646E-18
4.730000E+03	4.625417E-17	2.387239E-18
4.740000E+03	4.623475E-17	2.326615E-18
4.750000E+03	4.621662E-17	2.267960E-18
4.760000E+03	4.620226E-17	2.211814E-18
4.770000E+03	4.619104E-17	2.158591E-18
4.780000E+03	4.617931E-17	2.108597E-18
4.790000E+03	4.616960E-17	2.062445E-18
4.800000E+03	4.616139E-17	2.020608E-18
4.810000E+03	4.615119E-17	1.983418E-18
4.820000E+03	4.614168E-17	1.951440E-18
4.830000E+03	4.612952E-17	1.924918E-18
4.840000E+03	4.611755E-17	1.904266E-18
4.850000E+03	4.610567E-17	1.889653E-18
4.860000E+03	4.609088E-17	1.880996E-18
4.870000E+03	4.607632E-17	1.878297E-18
4.880000E+03	4.605925E-17	1.881161E-18
4.890000E+03	4.604301E-17	1.889315E-18
4.900000E+03	4.602803E-17	1.902270E-18
4.910000E+03	4.601179E-17	1.919346E-18
4.920000E+03	4.599781E-17	1.940072E-18
4.930000E+03	4.598366E-17	1.963717E-18
4.940000E+03	4.597286E-17	1.989812E-18
4.950000E+03	4.596297E-17	2.017661E-18
4.960000E+03	4.595746E-17	2.046865E-18
4.970000E+03	4.595678E-17	2.076944E-18
4.980000E+03	4.595841E-17	2.107337E-18
4.990000E+03	4.596564E-17	2.137802E-18
5.000000E+03	4.597584E-17	2.167879E-18
5.010000E+03	4.599216E-17	2.197433E-18
5.020000E+03	4.601478E-17	2.226239E-18
5.030000E+03	4.604089E-17	2.253975E-18
5.040000E+03	4.607343E-17	2.280641E-18
5.050000E+03	4.610947E-17	2.305985E-18
5.060000E+03	4.615184E-17	2.330078E-18
5.070000E+03	4.620039E-17	2.352869E-18
5.080000E+03	4.625203E-17	2.374186E-18
5.090000E+03	4.630652E-17	2.394016E-18
5.100000E+03	4.636650E-17	2.412516E-18
5.110000E+03	4.643166E-17	2.429703E-18
5.120000E+03	4.649882E-17	2.445450E-18
5.130000E+03	4.657054E-17	2.459941E-18
5.140000E+03	4.664652E-17	2.473213E-18
5.150000E+03	4.672355E-17	2.485149E-18
5.160000E+03	4.680420E-17	2.495942E-18
5.170000E+03	4.688525E-17	2.505477E-18
5.180000E+03	4.696925E-17	2.513947E-18
5.190000E+03	4.705294E-17	2.521235E-18
5.200000E+03	4.713879E-17	2.527533E-18
5.210000E+03	4.722633E-17	2.532879E-18
5.220000E+03	4.731212E-17	2.537153E-18
5.230000E+03	4.739849E-17	2.540551E-18
5.240000E+03	4.748187E-17	2.542957E-18
5.250000E+03	4.756446E-17	2.544568E-18
5.260000E+03	4.764551E-17	2.545429E-18
5.270000E+03	4.772135E-17	2.545427E-18
5.280000E+03	4.779409E-17	2.544764E-18
5.290000E+03	4.786001E-17	2.543328E-18
5.300000E+03	4.792124E-17	2.541317E-18
5.310000E+03	4.797700E-17	2.538771E-18
5.320000E+03	4.802360E-17	2.535574E-18
5.330000E+03	4.806322E-17	2.531917E-18
5.340000E+03	4.809219E-17	2.527682E-18
5.350000E+03	4.811564E-17	2.523209E-18
5.360000E+03	4.812409E-17	2.518071E-18
5.370000E+03	4.812561E-17	2.512758E-18
5.380000E+03	4.811077E-17	2.506843E-18
5.390000E+03	4.808769E-17	2.500810E-18
5.400000E+03	4.804993E-17	2.494380E-18
5.410000E+03	4.799983E-17	2.487725E-18
5.420000E+03	4.793398E-17	2.480699E-18
5.430000E+03	4.785769E-17	2.473579E-18
5.440000E+03	4.776191E-17	2.465880E-18
5.450000E+03	4.765492E-17	2.458013E-18
5.460000E+03	4.753071E-17	2.449636E-18
5.470000E+03	4.738906E-17	2.440708E-18
5.480000E+03	4.723551E-17	2.431480E-18
5.490000E+03	4.706141E-17	2.421470E-18
5.500000E+03	4.687522E-17	2.411079E-18
5.510000E+03	4.667124E-17	2.399986E-18
5.520000E+03	4.645232E-17	2.388313E-18
5.530000E+03	4.621849E-17	2.376046E-18
5.540000E+03	4.596706E-17	2.363042E-18
5.550000E+03	4.570093E-17	2.349457E-18
5.560000E+03	4.542026E-17	2.335319E-18
5.570000E+03	4.512254E-17	2.320530E-18
5.580000E+03	4.481075E-17	2.305287E-18
5.590000E+03	4.448255E-17	2.289522E-18
5.600000E+03	4.414370E-17	2.273588E-18
5.610000E+03	4.378938E-17	2.257297E-18
5.620000E+03	4.342028E-17	2.240741E-18
5.630000E+03	4.304237E-17	2.224277E-18
5.640000E+03	4.265141E-17	2.207719E-18
5.650000E+03	4.225109E-17	2.191278E-18
5.660000E+03	4.184019E-17	2.174889E-18
5.670000E+03	4.142272E-17	2.158738E-18
5.680000E+03	4.100035E-17	2.142868E-18
5.690000E+03	4.057487E-17	2.127308E-18
5.700000E+03	4.014581E-17	2.111950E-18
5.710000E+03	3.971765E-17	2.096929E-18
5.720000E+03	3.929246E-17	2.082240E-18
5.730000E+03	3.887001E-17	2.067746E-18
5.740000E+03	3.845702E-17	2.053674E-18
5.750000E+03	3.805086E-17	2.039749E-18
5.760000E+03	3.765353E-17	2.025936E-18
5.770000E+03	3.727134E-17	2.012441E-18
5.780000E+03	3.690150E-17	1.998977E-18
5.790000E+03	3.654781E-17	1.985620E-18
5.800000E+03	3.620953E-17	1.972204E-18
5.810000E+03	3.589226E-17	1.958918E-18
5.820000E+03	3.559284E-17	1.945479E-18
5.830000E+03	3.531445E-17	1.931960E-18
5.840000E+03	3.505798E-17	1.918317E-18
5.850000E+03	3.482213E-17	1.904398E-18
5.860000E+03	3.460968E-17	1.890282E-18
5.870000E+03	3.442123E-17	1.875941E-18
5.880000E+03	3.425731E-17	1.861351E-18
5.890000E+03	3.411837E-17	1.846494E-18
5.900000E+03	3.400278E-17	1.831249E-18
5.910000E+03	3.391296E-17	1.815721E-18
5.920000E+03	3.384920E-17	1.799912E-18
5.930000E+03	3.381181E-17	1.783829E-18
5.940000E+03	3.379902E-17	1.767378E-18
5.950000E+03	3.381513E-17	1.750793E-18
5.960000E+03	3.385634E-17	1.733889E-18
5.970000E+03	3.392491E-17	1.716808E-18
5.980000E+03	3.401905E-17	1.699491E-18
5.990000E+03	3.414311E-17	1.682195E-18
6.000000E+03	3.429329E-17	1.664782E-18
6.010000E+03	3.447195E-17	1.647427E-18
6.020000E+03	3.467948E-17	1.630216E-18
6.030000E+03	3.491628E-17	1.613250E-18
6.040000E+03	3.518285E-17	1.596642E-18
6.050000E+03	3.547757E-17	1.580428E-18
6.060000E+03	3.580528E-17	1.564947E-18
6.070000E+03	3.616233E-17	1.550176E-18
6.080000E+03	3.655152E-17	1.536399E-18
6.090000E+03	3.697357E-17	1.523827E-18
6.100000E+03	3.742693E-17	1.512607E-18
6.110000E+03	3.791677E-17	1.503191E-18
6.120000E+03	3.843925E-17	1.495692E-18
6.130000E+03	3.899722E-17	1.490527E-18
6.140000E+03	3.959120E-17	1.488047E-18
6.150000E+03	4.022161E-17	1.488621E-18
6.160000E+03	4.088870E-17	1.492627E-18
6.170000E+03	4.159250E-17	1.500430E-18
6.180000E+03	4.233025E-17	1.512277E-18
6.190000E+03	4.310648E-17	1.528632E-18
6.200000E+03	4.391516E-17	1.549518E-18
6.210000E+03	4.475749E-17	1.575107E-18
6.220000E+03	4.563157E-17	1.605318E-18
6.230000E+03	4.653498E-17	1.639951E-18
6.240000E+03	4.746476E-17	1.678700E-18
6.250000E+03	4.841737E-17	1.721166E-18
6.260000E+03	4.938569E-17	1.766775E-18
6.270000E+03	5.037089E-17	1.815213E-18
6.280000E+03	5.136156E-17	1.865704E-18
6.290000E+03	5.235472E-17	1.917779E-18
6.300000E+03	5.334377E-17	1.970855E-18
6.310000E+03	5.432481E-17	2.024480E-18
6.320000E+03	5.528357E-17	2.077857E-18
6.330000E+03	5.621162E-17	2.130442E-18
6.340000E+03	5.710707E-17	2.181990E-18
6.350000E+03	5.795759E-17	2.231909E-18
6.360000E+03	5.875401E-17	2.279771E-18
6.370000E+03	5.948358E-17	2.325047E-18
6.380000E+03	6.014454E-17	2.367670E-18
6.390000E+03	6.072109E-17	2.407056E-18
6.400000E+03	6.120901E-17	2.443090E-18
6.410000E+03	6.160512E-17	2.475718E-18
6.420000E+03	6.189610E-17	2.504479E-18
6.430000E+03	6.208114E-17	2.529413E-18
6.440000E+03	6.215717E-17	2.550456E-18
6.450000E+03	6.212263E-17	2.567592E-18
6.460000E+03	6.197752E-17	2.580844E-18
6.470000E+03	6.172338E-17	2.590274E-18
6.480000E+03	6.135945E-17	2.595818E-18
6.490000E+03	6.089756E-17	2.597915E-18
6.500000E+03	6.033940E-17	2.596545E-18
6.510000E+03	5.968773E-17	2.591704E-18
6.520000E+03	5.895708E-17	2.583874E-18
6.530000E+03	5.814790E-17	2.572908E-18
6.540000E+03	5.727547E-17	2.559292E-18
6.550000E+03	5.634094E-17	2.542882E-18
6.560000E+03	5.535954E-17	2.524165E-18
6.570000E+03	5.433251E-17	2.503001E-18
6.580000E+03	5.327121E-17	2.479721E-18
6.590000E+03	5.218638E-17	2.454655E-18
6.600000E+03	5.107865E-17	2.427680E-18
6.610000E+03	4.995800E-17	2.399132E-18
6.620000E+03	4.883065E-17	2.369201E-18
6.630000E+03	4.770229E-17	2.338079E-18
6.640000E+03	4.657815E-17	2.305958E-18
6.650000E+03	4.546291E-17	2.273029E-18
6.660000E+03	4.436077E-17	2.239479E-18
6.670000E+03	4.327546E-17	2.205491E-18
6.680000E+03	4.221020E-17	2.171238E-18
6.690000E+03	4.116780E-17	2.136887E-18
6.700000E+03	4.015063E-17	2.102592E-18
6.710000E+03	3.916069E-17	2.068501E-18
6.720000E+03	3.819960E-17	2.034750E-18
6.730000E+03	3.726868E-17	2.001469E-18
6.740000E+03	3.636668E-17	1.968655E-18
6.750000E+03	3.549893E-17	1.936666E-18
6.760000E+03	3.466365E-17	1.905481E-18
6.770000E+03	3.385903E-17	1.875076E-18
6.780000E+03	3.308950E-17	1.845775E-18
6.790000E+03	3.235286E-17	1.817533E-18
6.800000E+03	3.164699E-17	1.790305E-18
6.810000E+03	3.097562E-17	1.764378E-18
6.820000E+03	3.033636E-17	1.739684E-18
6.830000E+03	2.972690E-17	1.716156E-18
6.840000E+03	2.915051E-17	1.694041E-18
6.850000E+03	2.860293E-17	1.673142E-18
6.860000E+03	2.808719E-17	1.653682E-18
6.870000E+03	2.759913E-17	1.635447E-18
6.880000E+03	2.714162E-17	1.618627E-18
6.890000E+03	2.671061E-17	1.602977E-18
6.900000E+03	2.630887E-17	1.588656E-18
6.910000E+03	2.593245E-17	1.575412E-18
6.920000E+03	2.558241E-17	1.563294E-18
6.930000E+03	2.525973E-17	1.552344E-18
6.940000E+03	2.496059E-17	1.542312E-18
6.950000E+03	2.468602E-17	1.533244E-18
6.960000E+03	2.443695E-17	1.525184E-18
6.970000E+03	2.420971E-17	1.517891E-18
6.980000E+03	2.400527E-17	1.511415E-18
6.990000E+03	2.382308E-17	1.505713E-18
7.000000E+03	2.366259E-17	1.500746E-18
7.010000E+03	2.352324E-17	1.496478E-18
7.020000E+03	2.340452E-17	1.492873E-18
7.030000E+03	2.330737E-17	1.489997E-18
7.040000E+03	2.322830E-17	1.487628E-18
7.050000E+03	2.316828E-17	1.485835E-18
7.060000E+03	2.312531E-17	1.484496E-18
7.070000E+03	2.310181E-17	1.483771E-18
7.080000E+03	2.309577E-17	1.483536E-18
7.090000E+03	2.310660E-17	1.483761E-18
7.100000E+03	2.313373E-17	1.484409E-18
7.110000E+03	2.317653E-17	1.485439E-18
7.120000E+03	2.323282E-17	1.486706E-18
7.130000E+03	2.330488E-17	1.488347E-18
7.140000E+03	2.339046E-17	1.490201E-18
7.150000E+03	2.348721E-17	1.492101E-18
7.160000E+03	2.359729E-17	1.494156E-18
7.170000E+03	2.371672E-17	1.496085E-18
7.180000E+03	2.384606E-17	1.497889E-18
7.190000E+03	2.398579E-17	1.499564E-18
7.200000E+03	2.413175E-17	1.500809E-18
7.210000E+03	2.428434E-17	1.501612E-18
7.220000E+03	2.444235E-17	1.501860E-18
7.230000E+03	2.460611E-17	1.501539E-18
7.240000E+03	2.477114E-17	1.500341E-18
7.250000E+03	2.493764E-17	1.498253E-18
7.260000E+03	2.510418E-17	1.495168E-18
7.270000E+03	2.526763E-17	1.490886E-18
7.280000E+03	2.542973E-17	1.485505E-18
7.290000E+03	2.558726E-17	1.478839E-18
7.300000E+03	2.573690E-17	1.470712E-18
7.310000E+03	2.588035E-17	1.461248E-18
7.320000E+03	2.601254E-17	1.450196E-18
7.330000E+03	2.613515E-17	1.437704E-18
7.340000E+03	2.624309E-17	1.423552E-18
7.350000E+03	2.633638E-17	1.407819E-18
7.360000E+03	2.641337E-17	1.390507E-18
7.370000E+03	2.647249E-17	1.371630E-18
7.380000E+03	2.651226E-17	1.351218E-18
7.390000E+03	2.653131E-17	1.329316E-18
7.400000E+03	2.652843E-17	1.305980E-18
7.410000E+03	2.650083E-17	1.281194E-18
7.420000E+03	2.645120E-17	1.255209E-18
7.430000E+03	2.637547E-17	1.227947E-18
7.440000E+03	2.627681E-17	1.199673E-18
7.450000E+03	2.615173E-17	1.170341E-18
7.460000E+03	2.600221E-17	1.140159E-18
7.470000E+03	2.582881E-17	1.109268E-18
7.480000E+03	2.563238E-17	1.077830E-18
7.490000E+03	2.541402E-17	1.046025E-18
7.500000E+03	2.517343E-17	1.013992E-18
7.510000E+03	2.491559E-17	9.820963E-19
7.520000E+03	2.463896E-17	9.504641E-19
7.530000E+03	2.434719E-17	9.194497E-19
7.540000E+03	2.404237E-17	8.893703E-19
7.550000E+03	2.372667E-17	8.605716E-19
7.560000E+03	2.340230E-17	8.334248E-19
7.570000E+03	2.307146E-17	8.083204E-19
7.580000E+03	2.273628E-17	7.856586E-19
7.590000E+03	2.239734E-17	7.657836E-19
7.600000E+03	2.205959E-17	7.491717E-19
7.610000E+03	2.172185E-17	7.360485E-19
7.620000E+03	2.138726E-17	7.267247E-19
7.630000E+03	2.105726E-17	7.213705E-19
7.640000E+03	2.073310E-17	7.200518E-19
7.650000E+03	2.041445E-17	7.226599E-19
7.660000E+03	2.010493E-17	7.291041E-19
7.670000E+03	1.980248E-17	7.390156E-19
7.680000E+03	1.950898E-17	7.521166E-19
7.690000E+03	1.922480E-17	7.680514E-19
7.700000E+03	1.895021E-17	7.864580E-19
7.710000E+03	1.868536E-17	8.069863E-19
7.720000E+03	1.842906E-17	8.292547E-19
7.730000E+03	1.818384E-17	8.530812E-19
7.740000E+03	1.794715E-17	8.780939E-19
7.750000E+03	1.772013E-17	9.041277E-19
7.760000E+03	1.750262E-17	9.309955E-19
