#wls	flux	fluxerr
1.600000E+03	6.880206E-18	5.796664E-18
1.640000E+03	7.202162E-18	6.024941E-18
1.680000E+03	7.547172E-18	6.267226E-18
1.720000E+03	7.916994E-18	6.524337E-18
1.760000E+03	8.312096E-18	6.795958E-18
1.800000E+03	8.737288E-18	7.085250E-18
1.840000E+03	9.193387E-18	7.391997E-18
1.880000E+03	9.682725E-18	7.717126E-18
1.920000E+03	1.020951E-17	8.062940E-18
1.960000E+03	1.077487E-17	8.429142E-18
2.000000E+03	1.138163E-17	8.816689E-18
2.040000E+03	1.203282E-17	9.226530E-18
2.080000E+03	1.273374E-17	9.661184E-18
2.120000E+03	1.348809E-17	1.012173E-17
2.160000E+03	1.429747E-17	1.060748E-17
2.200000E+03	1.516560E-17	1.111917E-17
2.240000E+03	1.610160E-17	1.166123E-17
2.280000E+03	1.710487E-17	1.223070E-17
2.320000E+03	1.818249E-17	1.282997E-17
2.360000E+03	1.933922E-17	1.345944E-17
2.400000E+03	2.057991E-17	1.411924E-17
2.440000E+03	2.190944E-17	1.480923E-17
2.480000E+03	2.333269E-17	1.552893E-17
2.520000E+03	2.485444E-17	1.627741E-17
2.560000E+03	2.648334E-17	1.705592E-17
2.600000E+03	2.822011E-17	1.786013E-17
2.640000E+03	3.006866E-17	1.868750E-17
2.680000E+03	3.203713E-17	1.953774E-17
2.720000E+03	3.412390E-17	2.040414E-17
2.760000E+03	3.633600E-17	2.128500E-17
2.800000E+03	3.867489E-17	2.217491E-17
2.840000E+03	4.114071E-17	2.306746E-17
2.880000E+03	4.372581E-17	2.395185E-17
2.920000E+03	4.643900E-17	2.482634E-17
2.960000E+03	4.926208E-17	2.567455E-17
3.000000E+03	5.219335E-17	2.648935E-17
3.010000E+03	5.294211E-17	2.668663E-17
3.020000E+03	5.370274E-17	2.688389E-17
3.030000E+03	5.446042E-17	2.707363E-17
3.040000E+03	5.522962E-17	2.726299E-17
3.050000E+03	5.600273E-17	2.744809E-17
3.060000E+03	5.677946E-17	2.762873E-17
3.070000E+03	5.755950E-17	2.780470E-17
3.080000E+03	5.834254E-17	2.797578E-17
3.090000E+03	5.913614E-17	2.814552E-17
3.100000E+03	5.993222E-17	2.830997E-17
3.110000E+03	6.073042E-17	2.846891E-17
3.120000E+03	6.153037E-17	2.862212E-17
3.130000E+03	6.233991E-17	2.877318E-17
3.140000E+03	6.314225E-17	2.891429E-17
3.150000E+03	6.395353E-17	2.905283E-17
3.160000E+03	6.476507E-17	2.918478E-17
3.170000E+03	6.557643E-17	2.930992E-17
3.180000E+03	6.639578E-17	2.943186E-17
3.190000E+03	6.721417E-17	2.954656E-17
3.200000E+03	6.802232E-17	2.964999E-17
3.210000E+03	6.883723E-17	2.974958E-17
3.220000E+03	6.965860E-17	2.984513E-17
3.230000E+03	7.046810E-17	2.992876E-17
3.240000E+03	7.128313E-17	3.000794E-17
3.250000E+03	7.209418E-17	3.007863E-17
3.260000E+03	7.290069E-17	3.014063E-17
3.270000E+03	7.370206E-17	3.019376E-17
3.280000E+03	7.450706E-17	3.024163E-17
3.290000E+03	7.529641E-17	3.027645E-17
3.300000E+03	7.608828E-17	3.030564E-17
3.310000E+03	7.688223E-17	3.032902E-17
3.320000E+03	7.765853E-17	3.033884E-17
3.330000E+03	7.842602E-17	3.033876E-17
3.340000E+03	7.919379E-17	3.033237E-17
3.350000E+03	7.995152E-17	3.031576E-17
3.360000E+03	8.069852E-17	3.028882E-17
3.370000E+03	8.144400E-17	3.025511E-17
3.380000E+03	8.216745E-17	3.020713E-17
3.390000E+03	8.288807E-17	3.015215E-17
3.400000E+03	8.359520E-17	3.008640E-17
3.410000E+03	8.428811E-17	3.000981E-17
3.420000E+03	8.497624E-17	2.992590E-17
3.430000E+03	8.563853E-17	2.982744E-17
3.440000E+03	8.629466E-17	2.972154E-17
3.450000E+03	8.693369E-17	2.960460E-17
3.460000E+03	8.755488E-17	2.947661E-17
3.470000E+03	8.816786E-17	2.934104E-17
3.480000E+03	8.875118E-17	2.919098E-17
3.490000E+03	8.932488E-17	2.903336E-17
3.500000E+03	8.987785E-17	2.886477E-17
3.510000E+03	9.040936E-17	2.868530E-17
3.520000E+03	9.091870E-17	2.849504E-17
3.530000E+03	9.141569E-17	2.829735E-17
3.540000E+03	9.188914E-17	2.808903E-17
3.550000E+03	9.233836E-17	2.787023E-17
3.560000E+03	9.276268E-17	2.764111E-17
3.570000E+03	9.316145E-17	2.740185E-17
3.580000E+03	9.354460E-17	2.715571E-17
3.590000E+03	9.389038E-17	2.689674E-17
3.600000E+03	9.421933E-17	2.663126E-17
3.610000E+03	9.452031E-17	2.635646E-17
3.620000E+03	9.479276E-17	2.607259E-17
3.630000E+03	9.504672E-17	2.578282E-17
3.640000E+03	9.526058E-17	2.548167E-17
3.650000E+03	9.545497E-17	2.517514E-17
3.660000E+03	9.561889E-17	2.486071E-17
3.670000E+03	9.575195E-17	2.453873E-17
3.680000E+03	9.585379E-17	2.420955E-17
3.690000E+03	9.593451E-17	2.387616E-17
3.700000E+03	9.597295E-17	2.353372E-17
3.710000E+03	9.598968E-17	2.318777E-17
3.720000E+03	9.597407E-17	2.283614E-17
3.730000E+03	9.592597E-17	2.247926E-17
3.740000E+03	9.584528E-17	2.211758E-17
3.750000E+03	9.573192E-17	2.175155E-17
3.760000E+03	9.559602E-17	2.138388E-17
3.770000E+03	9.541732E-17	2.101049E-17
3.780000E+03	9.521609E-17	2.063631E-17
3.790000E+03	9.498237E-17	2.025957E-17
3.800000E+03	9.471634E-17	1.988075E-17
3.810000E+03	9.441826E-17	1.950034E-17
3.820000E+03	9.409818E-17	1.912080E-17
3.830000E+03	9.373692E-17	1.873862E-17
3.840000E+03	9.335429E-17	1.835819E-17
3.850000E+03	9.293154E-17	1.797618E-17
3.860000E+03	9.248828E-17	1.759679E-17
3.870000E+03	9.201552E-17	1.721861E-17
3.880000E+03	9.151391E-17	1.684210E-17
3.890000E+03	9.098415E-17	1.646772E-17
3.900000E+03	9.042700E-17	1.609591E-17
3.910000E+03	8.984327E-17	1.572711E-17
3.920000E+03	8.924272E-17	1.536327E-17
3.930000E+03	8.860838E-17	1.500168E-17
3.940000E+03	8.795890E-17	1.464576E-17
3.950000E+03	8.727781E-17	1.429293E-17
3.960000E+03	8.658344E-17	1.394641E-17
3.970000E+03	8.586819E-17	1.360508E-17
3.980000E+03	8.513320E-17	1.326924E-17
3.990000E+03	8.437964E-17	1.293920E-17
4.000000E+03	8.360062E-17	1.261399E-17
4.010000E+03	8.282162E-17	1.229752E-17
4.020000E+03	8.201966E-17	1.198633E-17
4.030000E+03	8.120410E-17	1.168186E-17
4.040000E+03	8.037622E-17	1.138425E-17
4.050000E+03	7.953735E-17	1.109365E-17
4.060000E+03	7.868880E-17	1.081018E-17
4.070000E+03	7.783190E-17	1.053393E-17
4.080000E+03	7.697520E-17	1.026592E-17
4.090000E+03	7.610546E-17	1.000423E-17
4.100000E+03	7.523133E-17	9.749884E-18
4.110000E+03	7.436103E-17	9.503746E-18
4.120000E+03	7.348192E-17	9.263998E-18
4.130000E+03	7.260228E-17	9.031498E-18
4.140000E+03	7.172997E-17	8.806984E-18
4.150000E+03	7.085290E-17	8.588724E-18
4.160000E+03	6.997896E-17	8.377446E-18
4.170000E+03	6.910933E-17	8.173026E-18
4.180000E+03	6.825130E-17	7.976051E-18
4.190000E+03	6.739349E-17	7.784906E-18
4.200000E+03	6.654324E-17	7.600174E-18
4.210000E+03	6.570155E-17	7.421683E-18
4.220000E+03	6.486939E-17	7.249256E-18
4.230000E+03	6.404767E-17	7.082706E-18
4.240000E+03	6.323727E-17	6.921840E-18
4.250000E+03	6.243900E-17	6.766463E-18
4.260000E+03	6.165364E-17	6.616372E-18
4.270000E+03	6.088193E-17	6.471366E-18
4.280000E+03	6.012453E-17	6.331238E-18
4.290000E+03	5.937688E-17	6.195243E-18
4.300000E+03	5.865002E-17	6.064267E-18
4.310000E+03	5.793418E-17	5.937037E-18
4.320000E+03	5.723997E-17	5.814390E-18
4.330000E+03	5.655784E-17	5.695104E-18
4.340000E+03	5.589319E-17	5.579493E-18
4.350000E+03	5.524635E-17	5.467359E-18
4.360000E+03	5.461761E-17	5.358508E-18
4.370000E+03	5.400721E-17	5.252750E-18
4.380000E+03	5.341082E-17	5.149461E-18
4.390000E+03	5.283772E-17	5.049346E-18
4.400000E+03	5.227903E-17	4.951365E-18
4.410000E+03	5.174369E-17	4.856195E-18
4.420000E+03	5.122300E-17	4.762845E-18
4.430000E+03	5.072137E-17	4.671577E-18
4.440000E+03	5.023875E-17	4.582241E-18
4.450000E+03	4.977096E-17	4.494318E-18
4.460000E+03	4.932623E-17	4.408426E-18
4.470000E+03	4.889620E-17	4.323697E-18
4.480000E+03	4.848486E-17	4.240377E-18
4.490000E+03	4.809203E-17	4.158348E-18
4.500000E+03	4.771750E-17	4.077499E-18
4.510000E+03	4.736104E-17	3.997722E-18
4.520000E+03	4.701858E-17	3.918600E-18
4.530000E+03	4.669373E-17	3.840373E-18
4.540000E+03	4.638620E-17	3.762954E-18
4.550000E+03	4.609568E-17	3.686263E-18
4.560000E+03	4.582180E-17	3.610227E-18
4.570000E+03	4.556056E-17	3.534496E-18
4.580000E+03	4.531892E-17	3.459588E-18
4.590000E+03	4.508919E-17	3.384893E-18
4.600000E+03	4.487102E-17	3.310391E-18
4.610000E+03	4.467114E-17	3.236587E-18
4.620000E+03	4.448197E-17	3.162943E-18
4.630000E+03	4.430660E-17	3.089717E-18
4.640000E+03	4.414451E-17	3.016918E-18
4.650000E+03	4.399519E-17	2.944572E-18
4.660000E+03	4.385467E-17	2.872494E-18
4.670000E+03	4.372585E-17	2.800988E-18
4.680000E+03	4.360817E-17	2.730137E-18
4.690000E+03	4.350103E-17	2.660053E-18
4.700000E+03	4.340046E-17	2.590674E-18
4.710000E+03	4.330925E-17	2.522386E-18
4.720000E+03	4.322676E-17	2.455393E-18
4.730000E+03	4.315235E-17	2.389942E-18
4.740000E+03	4.308206E-17	2.326139E-18
4.750000E+03	4.301857E-17	2.264505E-18
4.760000E+03	4.296123E-17	2.205414E-18
4.770000E+03	4.290937E-17	2.149289E-18
4.780000E+03	4.285907E-17	2.096433E-18
4.790000E+03	4.281296E-17	2.047518E-18
4.800000E+03	4.276716E-17	2.002924E-18
4.810000E+03	4.272755E-17	1.963507E-18
4.820000E+03	4.268702E-17	1.929515E-18
4.830000E+03	4.264825E-17	1.901623E-18
4.840000E+03	4.260748E-17	1.880164E-18
4.850000E+03	4.257063E-17	1.865810E-18
4.860000E+03	4.253094E-17	1.858484E-18
4.870000E+03	4.248838E-17	1.858032E-18
4.880000E+03	4.244958E-17	1.864260E-18
4.890000E+03	4.240851E-17	1.876282E-18
4.900000E+03	4.236872E-17	1.893566E-18
4.910000E+03	4.232744E-17	1.915273E-18
4.920000E+03	4.228821E-17	1.940846E-18
4.930000E+03	4.225142E-17	1.969608E-18
4.940000E+03	4.221742E-17	2.000921E-18
4.950000E+03	4.218344E-17	2.034047E-18
4.960000E+03	4.215295E-17	2.068597E-18
4.970000E+03	4.212625E-17	2.104096E-18
4.980000E+03	4.210049E-17	2.139966E-18
4.990000E+03	4.207901E-17	2.175998E-18
5.000000E+03	4.206202E-17	2.211879E-18
5.010000E+03	4.204966E-17	2.247345E-18
5.020000E+03	4.203897E-17	2.282010E-18
5.030000E+03	4.203310E-17	2.315855E-18
5.040000E+03	4.202903E-17	2.348563E-18
5.050000E+03	4.203286E-17	2.380356E-18
5.060000E+03	4.203845E-17	2.410801E-18
5.070000E+03	4.204570E-17	2.439826E-18
5.080000E+03	4.205757E-17	2.467555E-18
5.090000E+03	4.207693E-17	2.494140E-18
5.100000E+03	4.209448E-17	2.519023E-18
5.110000E+03	4.211912E-17	2.542740E-18
5.120000E+03	4.214454E-17	2.564930E-18
5.130000E+03	4.217350E-17	2.585788E-18
5.140000E+03	4.220268E-17	2.605146E-18
5.150000E+03	4.223479E-17	2.623214E-18
5.160000E+03	4.226948E-17	2.640018E-18
5.170000E+03	4.230640E-17	2.655590E-18
5.180000E+03	4.234213E-17	2.669772E-18
5.190000E+03	4.237927E-17	2.682788E-18
5.200000E+03	4.241740E-17	2.694673E-18
5.210000E+03	4.245303E-17	2.705270E-18
5.220000E+03	4.248872E-17	2.714807E-18
5.230000E+03	4.252396E-17	2.723321E-18
5.240000E+03	4.255523E-17	2.730652E-18
5.250000E+03	4.258803E-17	2.737225E-18
5.260000E+03	4.261578E-17	2.742686E-18
5.270000E+03	4.263793E-17	2.747068E-18
5.280000E+03	4.265693E-17	2.750598E-18
5.290000E+03	4.267222E-17	2.753311E-18
5.300000E+03	4.268324E-17	2.755236E-18
5.310000E+03	4.268940E-17	2.756404E-18
5.320000E+03	4.268715E-17	2.756649E-18
5.330000E+03	4.267895E-17	2.756194E-18
5.340000E+03	4.266124E-17	2.754871E-18
5.350000E+03	4.263652E-17	2.752897E-18
5.360000E+03	4.260429E-17	2.750295E-18
5.370000E+03	4.256404E-17	2.747085E-18
5.380000E+03	4.251533E-17	2.743282E-18
5.390000E+03	4.245475E-17	2.738710E-18
5.400000E+03	4.238487E-17	2.733570E-18
5.410000E+03	4.230237E-17	2.727679E-18
5.420000E+03	4.221285E-17	2.721421E-18
5.430000E+03	4.211009E-17	2.714412E-18
5.440000E+03	4.199681E-17	2.706838E-18
5.450000E+03	4.186986E-17	2.698503E-18
5.460000E+03	4.173202E-17	2.689586E-18
5.470000E+03	4.158318E-17	2.680078E-18
5.480000E+03	4.142325E-17	2.669972E-18
5.490000E+03	4.125220E-17	2.659259E-18
5.500000E+03	4.106720E-17	2.647750E-18
5.510000E+03	4.087120E-17	2.635631E-18
5.520000E+03	4.066433E-17	2.622905E-18
5.530000E+03	4.044394E-17	2.609396E-18
5.540000E+03	4.021313E-17	2.595299E-18
5.550000E+03	3.997217E-17	2.580632E-18
5.560000E+03	3.972141E-17	2.565416E-18
5.570000E+03	3.945853E-17	2.549498E-18
5.580000E+03	3.918949E-17	2.533266E-18
5.590000E+03	3.890937E-17	2.516400E-18
5.600000E+03	3.861883E-17	2.498942E-18
5.610000E+03	3.832394E-17	2.481280E-18
5.620000E+03	3.802010E-17	2.463109E-18
5.630000E+03	3.771080E-17	2.444648E-18
5.640000E+03	3.739693E-17	2.425940E-18
5.650000E+03	3.707942E-17	2.407026E-18
5.660000E+03	3.675675E-17	2.387784E-18
5.670000E+03	3.643258E-17	2.368421E-18
5.680000E+03	3.610800E-17	2.348975E-18
5.690000E+03	3.578419E-17	2.329479E-18
5.700000E+03	3.546232E-17	2.309965E-18
5.710000E+03	3.514117E-17	2.290301E-18
5.720000E+03	3.482445E-17	2.270673E-18
5.730000E+03	3.451337E-17	2.251099E-18
5.740000E+03	3.420916E-17	2.231597E-18
5.750000E+03	3.391065E-17	2.212024E-18
5.760000E+03	3.362140E-17	2.192546E-18
5.770000E+03	3.334486E-17	2.173317E-18
5.780000E+03	3.307519E-17	2.153889E-18
5.790000E+03	3.282036E-17	2.134710E-18
5.800000E+03	3.257905E-17	2.115627E-18
5.810000E+03	3.234997E-17	2.096488E-18
5.820000E+03	3.213626E-17	2.077434E-18
5.830000E+03	3.193876E-17	2.058452E-18
5.840000E+03	3.175824E-17	2.039532E-18
5.850000E+03	3.159324E-17	2.020522E-18
5.860000E+03	3.144882E-17	2.001687E-18
5.870000E+03	3.132123E-17	1.982736E-18
5.880000E+03	3.121324E-17	1.963794E-18
5.890000E+03	3.112541E-17	1.944847E-18
5.900000E+03	3.105825E-17	1.925880E-18
5.910000E+03	3.101008E-17	1.906749E-18
5.920000E+03	3.098566E-17	1.887705E-18
5.930000E+03	3.098115E-17	1.868477E-18
5.940000E+03	3.099910E-17	1.849187E-18
5.950000E+03	3.103991E-17	1.829830E-18
5.960000E+03	3.110400E-17	1.810403E-18
5.970000E+03	3.118959E-17	1.790785E-18
5.980000E+03	3.130139E-17	1.771231E-18
5.990000E+03	3.143547E-17	1.751509E-18
6.000000E+03	3.159438E-17	1.731766E-18
6.010000E+03	3.177852E-17	1.712032E-18
6.020000E+03	3.198829E-17	1.692353E-18
6.030000E+03	3.222410E-17	1.672786E-18
6.040000E+03	3.248638E-17	1.653408E-18
6.050000E+03	3.277325E-17	1.634201E-18
6.060000E+03	3.308736E-17	1.615403E-18
6.070000E+03	3.343142E-17	1.597274E-18
6.080000E+03	3.380121E-17	1.579775E-18
6.090000E+03	3.419938E-17	1.563237E-18
6.100000E+03	3.462626E-17	1.547925E-18
6.110000E+03	3.507968E-17	1.534041E-18
6.120000E+03	3.556472E-17	1.522160E-18
6.130000E+03	3.607660E-17	1.512480E-18
6.140000E+03	3.662036E-17	1.505674E-18
6.150000E+03	3.719088E-17	1.502039E-18
6.160000E+03	3.779048E-17	1.502224E-18
6.170000E+03	3.841881E-17	1.506796E-18
6.180000E+03	3.907534E-17	1.516322E-18
6.190000E+03	3.975934E-17	1.531344E-18
6.200000E+03	4.046978E-17	1.552326E-18
6.210000E+03	4.120514E-17	1.579504E-18
6.220000E+03	4.196033E-17	1.612695E-18
6.230000E+03	4.273852E-17	1.651864E-18
6.240000E+03	4.353080E-17	1.696407E-18
6.250000E+03	4.433667E-17	1.745968E-18
6.260000E+03	4.515238E-17	1.800010E-18
6.270000E+03	4.597374E-17	1.857940E-18
6.280000E+03	4.679624E-17	1.919133E-18
6.290000E+03	4.761497E-17	1.982938E-18
6.300000E+03	4.842472E-17	2.048696E-18
6.310000E+03	4.921997E-17	2.115744E-18
6.320000E+03	4.999148E-17	2.183272E-18
6.330000E+03	5.074024E-17	2.250938E-18
6.340000E+03	5.145676E-17	2.317966E-18
6.350000E+03	5.213128E-17	2.383585E-18
6.360000E+03	5.276133E-17	2.447376E-18
6.370000E+03	5.334475E-17	2.508970E-18
6.380000E+03	5.386845E-17	2.567509E-18
6.390000E+03	5.433086E-17	2.622695E-18
6.400000E+03	5.472712E-17	2.674102E-18
6.410000E+03	5.505294E-17	2.721351E-18
6.420000E+03	5.530465E-17	2.764113E-18
6.430000E+03	5.547930E-17	2.802112E-18
6.440000E+03	5.557471E-17	2.835127E-18
6.450000E+03	5.558948E-17	2.862990E-18
6.460000E+03	5.551917E-17	2.885387E-18
6.470000E+03	5.537192E-17	2.902666E-18
6.480000E+03	5.514493E-17	2.914621E-18
6.490000E+03	5.483624E-17	2.921092E-18
6.500000E+03	5.445627E-17	2.922583E-18
6.510000E+03	5.400065E-17	2.918820E-18
6.520000E+03	5.347718E-17	2.910183E-18
6.530000E+03	5.289404E-17	2.897089E-18
6.540000E+03	5.224856E-17	2.879365E-18
6.550000E+03	5.154972E-17	2.857482E-18
6.560000E+03	5.080291E-17	2.831726E-18
6.570000E+03	5.001724E-17	2.802594E-18
6.580000E+03	4.919116E-17	2.770000E-18
6.590000E+03	4.833385E-17	2.734464E-18
6.600000E+03	4.745078E-17	2.696307E-18
6.610000E+03	4.654730E-17	2.655854E-18
6.620000E+03	4.562852E-17	2.613426E-18
6.630000E+03	4.469933E-17	2.569338E-18
6.640000E+03	4.376432E-17	2.523899E-18
6.650000E+03	4.282473E-17	2.477230E-18
6.660000E+03	4.189069E-17	2.429978E-18
6.670000E+03	4.096273E-17	2.382237E-18
6.680000E+03	4.004415E-17	2.334271E-18
6.690000E+03	3.913512E-17	2.286166E-18
6.700000E+03	3.824394E-17	2.238486E-18
6.710000E+03	3.737007E-17	2.191285E-18
6.720000E+03	3.651293E-17	2.144616E-18
6.730000E+03	3.567954E-17	2.098981E-18
6.740000E+03	3.486621E-17	2.054252E-18
6.750000E+03	3.407921E-17	2.010889E-18
6.760000E+03	3.331457E-17	1.968752E-18
6.770000E+03	3.257793E-17	1.928260E-18
6.780000E+03	3.186512E-17	1.889256E-18
6.790000E+03	3.117897E-17	1.851990E-18
6.800000E+03	3.052193E-17	1.816687E-18
6.810000E+03	2.988967E-17	1.783166E-18
6.820000E+03	2.928447E-17	1.751628E-18
6.830000E+03	2.870621E-17	1.722126E-18
6.840000E+03	2.815675E-17	1.694820E-18
6.850000E+03	2.763173E-17	1.669488E-18
6.860000E+03	2.713291E-17	1.646255E-18
6.870000E+03	2.665992E-17	1.625105E-18
6.880000E+03	2.621237E-17	1.605985E-18
6.890000E+03	2.578984E-17	1.588813E-18
6.900000E+03	2.539189E-17	1.573489E-18
6.910000E+03	2.501806E-17	1.559905E-18
6.920000E+03	2.466786E-17	1.547952E-18
6.930000E+03	2.434080E-17	1.537522E-18
6.940000E+03	2.403638E-17	1.528506E-18
6.950000E+03	2.375409E-17	1.520802E-18
6.960000E+03	2.349340E-17	1.514313E-18
6.970000E+03	2.325210E-17	1.508837E-18
6.980000E+03	2.303305E-17	1.504506E-18
6.990000E+03	2.283403E-17	1.501131E-18
7.000000E+03	2.265284E-17	1.498526E-18
7.010000E+03	2.249226E-17	1.496839E-18
7.020000E+03	2.235010E-17	1.495895E-18
7.030000E+03	2.222419E-17	1.495522E-18
7.040000E+03	2.211723E-17	1.495879E-18
7.050000E+03	2.202543E-17	1.496690E-18
7.060000E+03	2.195145E-17	1.498118E-18
7.070000E+03	2.189151E-17	1.499891E-18
7.080000E+03	2.184662E-17	1.502062E-18
7.090000E+03	2.181778E-17	1.504687E-18
7.100000E+03	2.180116E-17	1.507489E-18
7.110000E+03	2.179773E-17	1.510522E-18
7.120000E+03	2.180841E-17	1.513835E-18
7.130000E+03	2.182932E-17	1.517144E-18
7.140000E+03	2.186132E-17	1.520495E-18
7.150000E+03	2.190367E-17	1.523819E-18
7.160000E+03	2.195557E-17	1.527044E-18
7.170000E+03	2.201622E-17	1.530094E-18
7.180000E+03	2.208475E-17	1.532892E-18
7.190000E+03	2.216027E-17	1.535357E-18
7.200000E+03	2.224022E-17	1.537291E-18
7.210000E+03	2.232690E-17	1.538835E-18
7.220000E+03	2.241767E-17	1.539789E-18
7.230000E+03	2.250983E-17	1.539950E-18
7.240000E+03	2.260564E-17	1.539459E-18
7.250000E+03	2.270233E-17	1.538113E-18
7.260000E+03	2.279709E-17	1.535711E-18
7.270000E+03	2.289043E-17	1.532282E-18
7.280000E+03	2.298289E-17	1.527861E-18
7.290000E+03	2.306989E-17	1.522140E-18
7.300000E+03	2.315193E-17	1.515162E-18
7.310000E+03	2.322784E-17	1.506861E-18
7.320000E+03	2.329644E-17	1.497177E-18
7.330000E+03	2.335658E-17	1.486057E-18
7.340000E+03	2.340717E-17	1.473460E-18
7.350000E+03	2.344713E-17	1.459352E-18
7.360000E+03	2.347547E-17	1.443711E-18
7.370000E+03	2.349125E-17	1.426524E-18
7.380000E+03	2.349187E-17	1.407687E-18
7.390000E+03	2.348011E-17	1.387427E-18
7.400000E+03	2.345182E-17	1.365561E-18
7.410000E+03	2.341001E-17	1.342338E-18
7.420000E+03	2.335079E-17	1.317612E-18
7.430000E+03	2.327569E-17	1.291558E-18
7.440000E+03	2.318462E-17	1.264267E-18
7.450000E+03	2.307766E-17	1.235845E-18
7.460000E+03	2.295503E-17	1.206420E-18
7.470000E+03	2.281710E-17	1.176136E-18
7.480000E+03	2.266438E-17	1.145158E-18
7.490000E+03	2.249754E-17	1.113674E-18
7.500000E+03	2.231566E-17	1.081811E-18
7.510000E+03	2.212304E-17	1.049965E-18
7.520000E+03	2.191733E-17	1.018232E-18
7.530000E+03	2.170294E-17	9.870463E-19
7.540000E+03	2.147773E-17	9.565594E-19
7.550000E+03	2.124457E-17	9.271730E-19
7.560000E+03	2.100470E-17	8.992318E-19
7.570000E+03	2.075937E-17	8.730959E-19
7.580000E+03	2.050984E-17	8.491341E-19
7.590000E+03	2.025733E-17	8.277148E-19
7.600000E+03	2.000150E-17	8.091316E-19
7.610000E+03	1.974657E-17	7.938369E-19
7.620000E+03	1.949059E-17	7.819894E-19
7.630000E+03	1.923609E-17	7.738676E-19
7.640000E+03	1.898546E-17	7.696572E-19
7.650000E+03	1.873656E-17	7.692234E-19
7.660000E+03	1.849153E-17	7.724562E-19
7.670000E+03	1.825091E-17	7.791002E-19
7.680000E+03	1.801381E-17	7.887935E-19
7.690000E+03	1.778344E-17	8.013328E-19
7.700000E+03	1.755736E-17	8.162666E-19
7.710000E+03	1.733859E-17	8.334007E-19
7.720000E+03	1.712465E-17	8.523077E-19
7.730000E+03	1.691706E-17	8.727768E-19
7.740000E+03	1.671594E-17	8.945634E-19
7.750000E+03	1.652135E-17	9.174531E-19
7.760000E+03	1.633334E-17	9.412610E-19
