#wls	flux	fluxerr
1.600000E+03	8.199416E-18	6.969617E-18
1.640000E+03	8.622927E-18	7.279115E-18
1.680000E+03	9.076308E-18	7.607093E-18
1.720000E+03	9.563487E-18	7.955999E-18
1.760000E+03	1.008542E-17	8.325679E-18
1.800000E+03	1.064840E-17	8.720291E-18
1.840000E+03	1.125197E-17	9.138279E-18
1.880000E+03	1.190123E-17	9.582511E-18
1.920000E+03	1.259760E-17	1.005274E-17
1.960000E+03	1.334914E-17	1.055381E-17
2.000000E+03	1.415552E-17	1.108373E-17
2.040000E+03	1.502326E-17	1.164571E-17
2.080000E+03	1.595703E-17	1.224126E-17
2.120000E+03	1.696175E-17	1.287182E-17
2.160000E+03	1.804266E-17	1.353880E-17
2.200000E+03	1.920527E-17	1.424350E-17
2.240000E+03	2.045534E-17	1.498711E-17
2.280000E+03	2.179893E-17	1.577064E-17
2.320000E+03	2.324227E-17	1.659489E-17
2.360000E+03	2.479590E-17	1.746325E-17
2.400000E+03	2.645853E-17	1.837033E-17
2.440000E+03	2.824527E-17	1.932180E-17
2.480000E+03	3.015879E-17	2.031415E-17
2.520000E+03	3.220576E-17	2.134616E-17
2.560000E+03	3.439265E-17	2.241597E-17
2.600000E+03	3.672559E-17	2.352098E-17
2.640000E+03	3.921642E-17	2.466162E-17
2.680000E+03	4.186466E-17	2.582995E-17
2.720000E+03	4.468140E-17	2.702472E-17
2.760000E+03	4.766347E-17	2.823546E-17
2.800000E+03	5.081247E-17	2.945432E-17
2.840000E+03	5.413654E-17	3.067682E-17
2.880000E+03	5.762611E-17	3.188798E-17
2.920000E+03	6.128580E-17	3.308075E-17
2.960000E+03	6.509991E-17	3.423693E-17
3.000000E+03	6.905774E-17	3.534155E-17
3.010000E+03	7.007423E-17	3.561090E-17
3.020000E+03	7.108753E-17	3.587014E-17
3.030000E+03	7.211826E-17	3.612958E-17
3.040000E+03	7.315571E-17	3.638366E-17
3.050000E+03	7.419953E-17	3.663210E-17
3.060000E+03	7.524937E-17	3.687459E-17
3.070000E+03	7.630486E-17	3.711085E-17
3.080000E+03	7.736561E-17	3.734059E-17
3.090000E+03	7.844266E-17	3.756897E-17
3.100000E+03	7.951280E-17	3.778476E-17
3.110000E+03	8.059863E-17	3.799864E-17
3.120000E+03	8.167636E-17	3.819926E-17
3.130000E+03	8.276910E-17	3.839739E-17
3.140000E+03	8.386460E-17	3.858720E-17
3.150000E+03	8.496234E-17	3.876835E-17
3.160000E+03	8.604937E-17	3.893494E-17
3.170000E+03	8.716231E-17	3.910348E-17
3.180000E+03	8.826337E-17	3.925682E-17
3.190000E+03	8.936435E-17	3.940026E-17
3.200000E+03	9.046459E-17	3.953350E-17
3.210000E+03	9.157651E-17	3.966188E-17
3.220000E+03	9.267345E-17	3.977379E-17
3.230000E+03	9.378094E-17	3.988025E-17
3.240000E+03	9.487177E-17	3.996962E-17
3.250000E+03	9.597195E-17	4.005295E-17
3.260000E+03	9.706741E-17	4.012428E-17
3.270000E+03	9.815735E-17	4.018332E-17
3.280000E+03	9.924097E-17	4.022980E-17
3.290000E+03	1.003174E-16	4.026344E-17
3.300000E+03	1.013859E-16	4.028399E-17
3.310000E+03	1.024456E-16	4.029118E-17
3.320000E+03	1.035099E-16	4.029038E-17
3.330000E+03	1.045492E-16	4.027013E-17
3.340000E+03	1.055916E-16	4.024140E-17
3.350000E+03	1.066070E-16	4.019281E-17
3.360000E+03	1.076238E-16	4.013530E-17
3.370000E+03	1.086263E-16	4.006310E-17
3.380000E+03	1.096136E-16	3.997603E-17
3.390000E+03	1.105846E-16	3.987394E-17
3.400000E+03	1.115384E-16	3.975667E-17
3.410000E+03	1.124739E-16	3.962412E-17
3.420000E+03	1.133901E-16	3.947616E-17
3.430000E+03	1.142858E-16	3.931270E-17
3.440000E+03	1.151757E-16	3.913900E-17
3.450000E+03	1.160274E-16	3.894434E-17
3.460000E+03	1.168556E-16	3.873404E-17
3.470000E+03	1.176748E-16	3.851328E-17
3.480000E+03	1.184684E-16	3.827681E-17
3.490000E+03	1.192192E-16	3.801954E-17
3.500000E+03	1.199580E-16	3.775180E-17
3.510000E+03	1.206678E-16	3.746852E-17
3.520000E+03	1.213475E-16	3.716981E-17
3.530000E+03	1.219960E-16	3.685580E-17
3.540000E+03	1.226121E-16	3.652665E-17
3.550000E+03	1.231949E-16	3.618255E-17
3.560000E+03	1.237432E-16	3.582371E-17
3.570000E+03	1.242560E-16	3.545039E-17
3.580000E+03	1.247487E-16	3.506746E-17
3.590000E+03	1.251873E-16	3.466594E-17
3.600000E+03	1.256037E-16	3.425531E-17
3.610000E+03	1.259641E-16	3.382691E-17
3.620000E+03	1.263004E-16	3.339001E-17
3.630000E+03	1.265787E-16	3.293627E-17
3.640000E+03	1.268310E-16	3.247476E-17
3.650000E+03	1.270399E-16	3.200161E-17
3.660000E+03	1.272047E-16	3.151732E-17
3.670000E+03	1.273244E-16	3.102241E-17
3.680000E+03	1.273819E-16	3.051353E-17
3.690000E+03	1.274092E-16	2.999917E-17
3.700000E+03	1.273893E-16	2.947596E-17
3.710000E+03	1.273377E-16	2.894824E-17
3.720000E+03	1.272213E-16	2.840919E-17
3.730000E+03	1.270559E-16	2.786329E-17
3.740000E+03	1.268408E-16	2.731125E-17
3.750000E+03	1.265757E-16	2.675380E-17
3.760000E+03	1.262762E-16	2.619502E-17
3.770000E+03	1.259100E-16	2.562899E-17
3.780000E+03	1.254927E-16	2.505989E-17
3.790000E+03	1.250400E-16	2.449160E-17
3.800000E+03	1.245203E-16	2.391873E-17
3.810000E+03	1.239647E-16	2.334819E-17
3.820000E+03	1.233423E-16	2.277492E-17
3.830000E+03	1.226840E-16	2.220553E-17
3.840000E+03	1.219594E-16	2.163529E-17
3.850000E+03	1.211991E-16	2.107050E-17
3.860000E+03	1.203882E-16	2.050927E-17
3.870000E+03	1.195126E-16	1.995001E-17
3.880000E+03	1.186022E-16	1.939855E-17
3.890000E+03	1.176429E-16	1.885320E-17
3.900000E+03	1.166355E-16	1.831479E-17
3.910000E+03	1.155667E-16	1.778196E-17
3.920000E+03	1.144658E-16	1.725988E-17
3.930000E+03	1.133198E-16	1.674707E-17
3.940000E+03	1.121297E-16	1.624422E-17
3.950000E+03	1.108969E-16	1.575202E-17
3.960000E+03	1.096098E-16	1.526925E-17
3.970000E+03	1.082966E-16	1.480020E-17
3.980000E+03	1.069455E-16	1.434348E-17
3.990000E+03	1.055587E-16	1.389953E-17
4.000000E+03	1.041382E-16	1.346873E-17
4.010000E+03	1.026861E-16	1.305137E-17
4.020000E+03	1.012050E-16	1.264767E-17
4.030000E+03	9.968551E-17	1.225631E-17
4.040000E+03	9.815421E-17	1.188029E-17
4.050000E+03	9.660188E-17	1.151810E-17
4.060000E+03	9.503142E-17	1.116962E-17
4.070000E+03	9.344582E-17	1.083467E-17
4.080000E+03	9.184814E-17	1.051299E-17
4.090000E+03	9.023088E-17	1.020307E-17
4.100000E+03	8.861844E-17	9.906968E-18
4.110000E+03	8.700311E-17	9.623018E-18
4.120000E+03	8.538785E-17	9.350757E-18
4.130000E+03	8.377559E-17	9.089692E-18
4.140000E+03	8.215961E-17	8.838281E-18
4.150000E+03	8.056182E-17	8.598074E-18
4.160000E+03	7.897506E-17	8.367479E-18
4.170000E+03	7.739283E-17	8.145029E-18
4.180000E+03	7.583538E-17	7.932100E-18
4.190000E+03	7.429568E-17	7.727216E-18
4.200000E+03	7.276735E-17	7.529023E-18
4.210000E+03	7.126894E-17	7.338797E-18
4.220000E+03	6.978560E-17	7.154389E-18
4.230000E+03	6.833483E-17	6.977027E-18
4.240000E+03	6.690217E-17	6.804709E-18
4.250000E+03	6.549668E-17	6.637877E-18
4.260000E+03	6.412655E-17	6.476918E-18
4.270000E+03	6.277797E-17	6.320034E-18
4.280000E+03	6.145902E-17	6.167683E-18
4.290000E+03	6.017029E-17	6.019599E-18
4.300000E+03	5.891222E-17	5.875537E-18
4.310000E+03	5.769162E-17	5.735917E-18
4.320000E+03	5.649569E-17	5.599241E-18
4.330000E+03	5.533120E-17	5.465986E-18
4.340000E+03	5.419221E-17	5.335396E-18
4.350000E+03	5.309089E-17	5.208525E-18
4.360000E+03	5.202103E-17	5.084636E-18
4.370000E+03	5.098249E-17	4.963610E-18
4.380000E+03	4.996958E-17	4.844810E-18
4.390000E+03	4.899320E-17	4.729225E-18
4.400000E+03	4.804217E-17	4.615718E-18
4.410000E+03	4.712680E-17	4.505240E-18
4.420000E+03	4.623630E-17	4.396725E-18
4.430000E+03	4.538048E-17	4.291089E-18
4.440000E+03	4.454889E-17	4.187328E-18
4.450000E+03	4.374612E-17	4.085875E-18
4.460000E+03	4.297168E-17	3.986686E-18
4.470000E+03	4.222506E-17	3.889720E-18
4.480000E+03	4.150573E-17	3.794941E-18
4.490000E+03	4.081313E-17	3.702315E-18
4.500000E+03	4.014240E-17	3.611423E-18
4.510000E+03	3.950170E-17	3.523024E-18
4.520000E+03	3.888186E-17	3.436325E-18
4.530000E+03	3.829075E-17	3.352051E-18
4.540000E+03	3.771950E-17	3.269452E-18
4.550000E+03	3.717169E-17	3.188880E-18
4.560000E+03	3.665067E-17	3.110652E-18
4.570000E+03	3.614796E-17	3.034083E-18
4.580000E+03	3.566698E-17	2.959506E-18
4.590000E+03	3.520715E-17	2.886914E-18
4.600000E+03	3.476422E-17	2.816008E-18
4.610000E+03	3.434506E-17	2.747395E-18
4.620000E+03	3.394179E-17	2.680492E-18
4.630000E+03	3.356109E-17	2.615883E-18
4.640000E+03	3.319528E-17	2.553024E-18
4.650000E+03	3.285087E-17	2.492480E-18
4.660000E+03	3.252038E-17	2.433746E-18
4.670000E+03	3.220677E-17	2.377122E-18
4.680000E+03	3.190952E-17	2.322644E-18
4.690000E+03	3.162481E-17	2.270118E-18
4.700000E+03	3.135877E-17	2.220070E-18
4.710000E+03	3.110754E-17	2.172311E-18
4.720000E+03	3.086742E-17	2.126678E-18
4.730000E+03	3.064115E-17	2.083460E-18
4.740000E+03	3.043138E-17	2.042931E-18
4.750000E+03	3.023128E-17	2.004725E-18
4.760000E+03	3.004350E-17	1.969119E-18
4.770000E+03	2.986754E-17	1.936168E-18
4.780000E+03	2.969982E-17	1.905726E-18
4.790000E+03	2.954598E-17	1.878230E-18
4.800000E+03	2.939941E-17	1.853317E-18
4.810000E+03	2.926565E-17	1.831386E-18
4.820000E+03	2.913818E-17	1.812054E-18
4.830000E+03	2.901954E-17	1.795490E-18
4.840000E+03	2.890923E-17	1.781649E-18
4.850000E+03	2.880680E-17	1.770465E-18
4.860000E+03	2.871180E-17	1.761850E-18
4.870000E+03	2.862093E-17	1.755512E-18
4.880000E+03	2.853964E-17	1.751675E-18
4.890000E+03	2.846179E-17	1.749832E-18
4.900000E+03	2.838996E-17	1.749996E-18
4.910000E+03	2.832385E-17	1.751994E-18
4.920000E+03	2.826319E-17	1.755647E-18
4.930000E+03	2.820770E-17	1.760773E-18
4.940000E+03	2.815714E-17	1.767193E-18
4.950000E+03	2.810842E-17	1.774553E-18
4.960000E+03	2.806700E-17	1.783040E-18
4.970000E+03	2.802699E-17	1.792136E-18
4.980000E+03	2.799100E-17	1.801869E-18
4.990000E+03	2.795882E-17	1.812099E-18
5.000000E+03	2.793026E-17	1.822698E-18
5.010000E+03	2.790508E-17	1.833549E-18
5.020000E+03	2.788311E-17	1.844547E-18
5.030000E+03	2.786133E-17	1.855413E-18
5.040000E+03	2.784513E-17	1.866435E-18
5.050000E+03	2.782874E-17	1.877168E-18
5.060000E+03	2.781472E-17	1.887735E-18
5.070000E+03	2.780289E-17	1.898082E-18
5.080000E+03	2.779303E-17	1.908164E-18
5.090000E+03	2.778218E-17	1.917751E-18
5.100000E+03	2.777566E-17	1.927194E-18
5.110000E+03	2.776773E-17	1.936084E-18
5.120000E+03	2.776371E-17	1.944784E-18
5.130000E+03	2.775789E-17	1.952895E-18
5.140000E+03	2.775281E-17	1.960598E-18
5.150000E+03	2.774826E-17	1.967885E-18
5.160000E+03	2.774130E-17	1.974558E-18
5.170000E+03	2.773719E-17	1.981005E-18
5.180000E+03	2.773025E-17	1.986839E-18
5.190000E+03	2.772572E-17	1.992454E-18
5.200000E+03	2.771792E-17	1.997463E-18
5.210000E+03	2.770937E-17	2.002070E-18
5.220000E+03	2.769983E-17	2.006282E-18
5.230000E+03	2.768908E-17	2.010106E-18
5.240000E+03	2.767416E-17	2.013353E-18
5.250000E+03	2.766027E-17	2.016425E-18
5.260000E+03	2.764176E-17	2.018933E-18
5.270000E+03	2.762380E-17	2.021278E-18
5.280000E+03	2.760076E-17	2.023069E-18
5.290000E+03	2.757511E-17	2.024507E-18
5.300000E+03	2.754664E-17	2.025593E-18
5.310000E+03	2.751245E-17	2.026131E-18
5.320000E+03	2.747773E-17	2.026516E-18
5.330000E+03	2.743692E-17	2.026352E-18
5.340000E+03	2.739522E-17	2.026032E-18
5.350000E+03	2.734713E-17	2.025161E-18
5.360000E+03	2.729521E-17	2.023933E-18
5.370000E+03	2.723935E-17	2.022348E-18
5.380000E+03	2.717948E-17	2.020403E-18
5.390000E+03	2.711553E-17	2.018098E-18
5.400000E+03	2.704485E-17	2.015237E-18
5.410000E+03	2.697269E-17	2.012212E-18
5.420000E+03	2.689382E-17	2.008635E-18
5.430000E+03	2.681091E-17	2.004705E-18
5.440000E+03	2.672403E-17	2.000427E-18
5.450000E+03	2.663325E-17	1.995806E-18
5.460000E+03	2.653869E-17	1.990853E-18
5.470000E+03	2.644047E-17	1.985577E-18
5.480000E+03	2.633619E-17	1.979802E-18
5.490000E+03	2.623110E-17	1.973926E-18
5.500000E+03	2.612031E-17	1.967584E-18
5.510000E+03	2.600906E-17	1.961178E-18
5.520000E+03	2.589252E-17	1.954351E-18
5.530000E+03	2.577343E-17	1.947316E-18
5.540000E+03	2.565201E-17	1.940098E-18
5.550000E+03	2.552605E-17	1.932538E-18
5.560000E+03	2.540073E-17	1.925033E-18
5.570000E+03	2.527384E-17	1.917423E-18
5.580000E+03	2.514324E-17	1.909548E-18
5.590000E+03	2.501166E-17	1.901618E-18
5.600000E+03	2.488180E-17	1.893836E-18
5.610000E+03	2.474917E-17	1.885854E-18
5.620000E+03	2.461651E-17	1.877871E-18
5.630000E+03	2.448418E-17	1.869900E-18
5.640000E+03	2.435019E-17	1.861771E-18
5.650000E+03	2.421964E-17	1.853846E-18
5.660000E+03	2.409056E-17	1.845949E-18
5.670000E+03	2.396108E-17	1.837901E-18
5.680000E+03	2.383395E-17	1.829878E-18
5.690000E+03	2.371191E-17	1.822047E-18
5.700000E+03	2.359085E-17	1.814050E-18
5.710000E+03	2.347353E-17	1.806054E-18
5.720000E+03	2.336044E-17	1.798049E-18
5.730000E+03	2.325205E-17	1.790025E-18
5.740000E+03	2.314664E-17	1.781800E-18
5.750000E+03	2.304914E-17	1.773709E-18
5.760000E+03	2.295783E-17	1.765570E-18
5.770000E+03	2.287099E-17	1.757209E-18
5.780000E+03	2.279132E-17	1.748788E-18
5.790000E+03	2.272147E-17	1.740471E-18
5.800000E+03	2.265756E-17	1.731920E-18
5.810000E+03	2.260224E-17	1.723301E-18
5.820000E+03	2.255597E-17	1.714615E-18
5.830000E+03	2.251922E-17	1.705864E-18
5.840000E+03	2.249243E-17	1.697053E-18
5.850000E+03	2.247391E-17	1.688025E-18
5.860000E+03	2.246840E-17	1.679113E-18
5.870000E+03	2.247204E-17	1.670006E-18
5.880000E+03	2.248957E-17	1.661035E-18
5.890000E+03	2.251714E-17	1.651896E-18
5.900000E+03	2.255948E-17	1.642922E-18
5.910000E+03	2.261273E-17	1.633818E-18
5.920000E+03	2.267948E-17	1.624763E-18
5.930000E+03	2.276017E-17	1.615781E-18
5.940000E+03	2.285525E-17	1.606897E-18
5.950000E+03	2.296518E-17	1.598142E-18
5.960000E+03	2.308819E-17	1.589396E-18
5.970000E+03	2.322915E-17	1.581000E-18
5.980000E+03	2.338633E-17	1.572840E-18
5.990000E+03	2.355793E-17	1.564809E-18
6.000000E+03	2.374891E-17	1.557256E-18
6.010000E+03	2.395521E-17	1.549934E-18
6.020000E+03	2.418185E-17	1.543197E-18
6.030000E+03	2.442470E-17	1.536812E-18
6.040000E+03	2.468649E-17	1.530997E-18
6.050000E+03	2.496765E-17	1.525828E-18
6.060000E+03	2.526863E-17	1.521388E-18
6.070000E+03	2.558980E-17	1.517768E-18
6.080000E+03	2.593155E-17	1.515069E-18
6.090000E+03	2.629420E-17	1.513399E-18
6.100000E+03	2.667806E-17	1.512873E-18
6.110000E+03	2.708075E-17	1.513472E-18
6.120000E+03	2.750759E-17	1.515617E-18
6.130000E+03	2.795611E-17	1.519300E-18
6.140000E+03	2.842356E-17	1.524515E-18
6.150000E+03	2.891523E-17	1.531695E-18
6.160000E+03	2.942535E-17	1.540685E-18
6.170000E+03	2.995626E-17	1.551758E-18
6.180000E+03	3.050739E-17	1.565030E-18
6.190000E+03	3.108098E-17	1.580747E-18
6.200000E+03	3.167015E-17	1.598678E-18
6.210000E+03	3.227668E-17	1.619006E-18
6.220000E+03	3.289914E-17	1.641722E-18
6.230000E+03	3.353589E-17	1.666774E-18
6.240000E+03	3.418497E-17	1.694076E-18
6.250000E+03	3.484417E-17	1.723500E-18
6.260000E+03	3.551098E-17	1.754883E-18
6.270000E+03	3.617910E-17	1.787859E-18
6.280000E+03	3.685231E-17	1.822541E-18
6.290000E+03	3.752377E-17	1.858509E-18
6.300000E+03	3.818609E-17	1.895305E-18
6.310000E+03	3.884257E-17	1.932997E-18
6.320000E+03	3.948155E-17	1.970907E-18
6.330000E+03	4.010611E-17	2.009092E-18
6.340000E+03	4.070397E-17	2.046843E-18
6.350000E+03	4.127420E-17	2.084022E-18
6.360000E+03	4.181606E-17	2.120506E-18
6.370000E+03	4.231681E-17	2.155571E-18
6.380000E+03	4.277582E-17	2.189108E-18
6.390000E+03	4.318869E-17	2.220820E-18
6.400000E+03	4.355552E-17	2.250646E-18
6.410000E+03	4.386423E-17	2.277897E-18
6.420000E+03	4.411574E-17	2.302553E-18
6.430000E+03	4.430738E-17	2.324407E-18
6.440000E+03	4.443704E-17	2.343279E-18
6.450000E+03	4.450330E-17	2.359020E-18
6.460000E+03	4.450109E-17	2.371282E-18
6.470000E+03	4.443896E-17	2.380436E-18
6.480000E+03	4.431323E-17	2.386198E-18
6.490000E+03	4.412515E-17	2.388543E-18
6.500000E+03	4.387238E-17	2.387246E-18
6.510000E+03	4.356588E-17	2.382803E-18
6.520000E+03	4.320433E-17	2.375044E-18
6.530000E+03	4.278695E-17	2.363825E-18
6.540000E+03	4.232579E-17	2.349716E-18
6.550000E+03	4.181661E-17	2.332391E-18
6.560000E+03	4.127172E-17	2.312453E-18
6.570000E+03	4.068739E-17	2.289617E-18
6.580000E+03	4.007590E-17	2.264510E-18
6.590000E+03	3.943375E-17	2.236880E-18
6.600000E+03	3.876916E-17	2.207150E-18
6.610000E+03	3.808995E-17	2.175741E-18
6.620000E+03	3.739267E-17	2.142439E-18
6.630000E+03	3.668486E-17	2.107676E-18
6.640000E+03	3.597010E-17	2.071669E-18
6.650000E+03	3.525517E-17	2.034836E-18
6.660000E+03	3.453625E-17	1.996995E-18
6.670000E+03	3.381968E-17	1.958562E-18
6.680000E+03	3.310806E-17	1.919748E-18
6.690000E+03	3.240375E-17	1.880762E-18
6.700000E+03	3.170883E-17	1.841805E-18
6.710000E+03	3.102519E-17	1.803074E-18
6.720000E+03	3.035447E-17	1.764759E-18
6.730000E+03	2.969809E-17	1.727042E-18
6.740000E+03	2.905728E-17	1.690100E-18
6.750000E+03	2.843031E-17	1.653937E-18
6.760000E+03	2.782367E-17	1.619039E-18
6.770000E+03	2.723522E-17	1.585393E-18
6.780000E+03	2.666553E-17	1.553138E-18
6.790000E+03	2.611250E-17	1.522257E-18
6.800000E+03	2.558160E-17	1.493171E-18
6.810000E+03	2.507045E-17	1.465835E-18
6.820000E+03	2.457676E-17	1.440201E-18
6.830000E+03	2.410544E-17	1.416633E-18
6.840000E+03	2.365399E-17	1.395049E-18
6.850000E+03	2.322004E-17	1.375354E-18
6.860000E+03	2.280803E-17	1.357840E-18
6.870000E+03	2.241323E-17	1.342234E-18
6.880000E+03	2.203980E-17	1.328753E-18
6.890000E+03	2.168308E-17	1.317041E-18
6.900000E+03	2.134490E-17	1.307117E-18
6.910000E+03	2.102697E-17	1.298989E-18
6.920000E+03	2.072471E-17	1.292275E-18
6.930000E+03	2.043983E-17	1.286973E-18
6.940000E+03	2.017388E-17	1.283086E-18
6.950000E+03	1.992244E-17	1.280238E-18
6.960000E+03	1.968708E-17	1.278438E-18
6.970000E+03	1.946738E-17	1.277577E-18
6.980000E+03	1.926290E-17	1.277552E-18
6.990000E+03	1.907318E-17	1.278267E-18
7.000000E+03	1.889966E-17	1.279759E-18
7.010000E+03	1.873814E-17	1.281695E-18
7.020000E+03	1.859007E-17	1.284123E-18
7.030000E+03	1.845499E-17	1.286975E-18
7.040000E+03	1.833065E-17	1.290057E-18
7.050000E+03	1.822023E-17	1.293563E-18
7.060000E+03	1.812146E-17	1.297310E-18
7.070000E+03	1.803387E-17	1.301243E-18
7.080000E+03	1.795701E-17	1.305310E-18
7.090000E+03	1.789040E-17	1.309462E-18
7.100000E+03	1.783180E-17	1.313520E-18
7.110000E+03	1.778427E-17	1.317697E-18
7.120000E+03	1.774554E-17	1.321816E-18
7.130000E+03	1.771510E-17	1.325829E-18
7.140000E+03	1.769070E-17	1.329557E-18
7.150000E+03	1.767532E-17	1.333218E-18
7.160000E+03	1.766491E-17	1.336498E-18
7.170000E+03	1.766245E-17	1.339615E-18
7.180000E+03	1.766385E-17	1.342254E-18
7.190000E+03	1.767207E-17	1.344633E-18
7.200000E+03	1.768301E-17	1.346437E-18
7.210000E+03	1.769782E-17	1.347749E-18
7.220000E+03	1.771769E-17	1.348658E-18
7.230000E+03	1.773846E-17	1.348847E-18
7.240000E+03	1.776127E-17	1.348406E-18
7.250000E+03	1.778551E-17	1.347291E-18
7.260000E+03	1.781232E-17	1.345594E-18
7.270000E+03	1.783751E-17	1.343008E-18
7.280000E+03	1.786222E-17	1.339632E-18
7.290000E+03	1.788582E-17	1.335433E-18
7.300000E+03	1.790767E-17	1.330382E-18
7.310000E+03	1.792716E-17	1.324455E-18
7.320000E+03	1.794366E-17	1.317632E-18
7.330000E+03	1.795659E-17	1.309898E-18
7.340000E+03	1.796537E-17	1.301242E-18
7.350000E+03	1.796761E-17	1.291530E-18
7.360000E+03	1.796642E-17	1.281024E-18
7.370000E+03	1.795949E-17	1.269601E-18
7.380000E+03	1.794636E-17	1.257276E-18
7.390000E+03	1.792480E-17	1.243943E-18
7.400000E+03	1.789808E-17	1.229883E-18
7.410000E+03	1.786226E-17	1.214883E-18
7.420000E+03	1.782073E-17	1.199235E-18
7.430000E+03	1.776969E-17	1.182745E-18
7.440000E+03	1.771263E-17	1.165718E-18
7.450000E+03	1.764593E-17	1.147983E-18
7.460000E+03	1.757143E-17	1.129741E-18
7.470000E+03	1.749101E-17	1.111191E-18
7.480000E+03	1.740131E-17	1.092203E-18
7.490000E+03	1.730437E-17	1.072996E-18
7.500000E+03	1.720051E-17	1.053686E-18
7.510000E+03	1.709011E-17	1.034393E-18
7.520000E+03	1.697362E-17	1.015250E-18
7.530000E+03	1.685151E-17	9.963921E-19
7.540000E+03	1.672432E-17	9.779646E-19
7.550000E+03	1.659259E-17	9.601162E-19
7.560000E+03	1.645689E-17	9.429997E-19
7.570000E+03	1.631783E-17	9.267696E-19
7.580000E+03	1.617432E-17	9.114869E-19
7.590000E+03	1.603030E-17	8.974902E-19
7.600000E+03	1.588466E-17	8.848294E-19
7.610000E+03	1.573638E-17	8.735498E-19
7.620000E+03	1.558923E-17	8.639531E-19
7.630000E+03	1.544053E-17	8.559657E-19
7.640000E+03	1.529395E-17	8.498492E-19
7.650000E+03	1.514679E-17	8.454881E-19
7.660000E+03	1.500104E-17	8.430022E-19
7.670000E+03	1.485708E-17	8.424002E-19
7.680000E+03	1.471674E-17	8.437576E-19
7.690000E+03	1.457729E-17	8.468700E-19
7.700000E+03	1.444051E-17	8.517777E-19
7.710000E+03	1.430660E-17	8.584206E-19
7.720000E+03	1.417576E-17	8.667283E-19
7.730000E+03	1.404813E-17	8.766226E-19
7.740000E+03	1.392381E-17	8.880205E-19
7.750000E+03	1.380145E-17	9.007427E-19
7.760000E+03	1.368397E-17	9.148875E-19
