#wls	flux	fluxerr
1.600000E+03	8.394642E-18	7.138677E-18
1.640000E+03	8.828430E-18	7.455931E-18
1.680000E+03	9.294431E-18	7.793489E-18
1.720000E+03	9.795217E-18	8.152620E-18
1.760000E+03	1.033178E-17	8.533180E-18
1.800000E+03	1.090871E-17	8.937900E-18
1.840000E+03	1.152724E-17	9.366598E-18
1.880000E+03	1.219468E-17	9.823905E-18
1.920000E+03	1.291064E-17	1.030803E-17
1.960000E+03	1.368105E-17	1.082212E-17
2.000000E+03	1.450767E-17	1.136581E-17
2.040000E+03	1.539980E-17	1.194443E-17
2.080000E+03	1.635715E-17	1.255556E-17
2.120000E+03	1.738725E-17	1.320263E-17
2.160000E+03	1.849856E-17	1.388940E-17
2.200000E+03	1.969071E-17	1.461268E-17
2.240000E+03	2.097255E-17	1.537590E-17
2.280000E+03	2.235027E-17	1.618011E-17
2.320000E+03	2.383029E-17	1.702612E-17
2.360000E+03	2.541923E-17	1.791448E-17
2.400000E+03	2.712829E-17	1.884849E-17
2.440000E+03	2.895574E-17	1.982193E-17
2.480000E+03	3.091764E-17	2.084043E-17
2.520000E+03	3.301107E-17	2.189614E-17
2.560000E+03	3.525298E-17	2.299407E-17
2.600000E+03	3.764466E-17	2.412816E-17
2.640000E+03	4.019828E-17	2.529891E-17
2.680000E+03	4.290661E-17	2.649395E-17
2.720000E+03	4.578698E-17	2.771591E-17
2.760000E+03	4.883610E-17	2.895401E-17
2.800000E+03	5.206363E-17	3.020490E-17
2.840000E+03	5.546229E-17	3.145482E-17
2.880000E+03	5.902984E-17	3.269294E-17
2.920000E+03	6.276153E-17	3.390693E-17
2.960000E+03	6.665975E-17	3.508825E-17
3.000000E+03	7.070455E-17	3.621660E-17
3.010000E+03	7.173802E-17	3.648900E-17
3.020000E+03	7.277883E-17	3.675643E-17
3.030000E+03	7.382667E-17	3.701863E-17
3.040000E+03	7.489233E-17	3.728083E-17
3.050000E+03	7.595337E-17	3.753169E-17
3.060000E+03	7.702040E-17	3.777644E-17
3.070000E+03	7.810457E-17	3.802039E-17
3.080000E+03	7.919422E-17	3.825765E-17
3.090000E+03	8.027713E-17	3.848228E-17
3.100000E+03	8.137633E-17	3.870525E-17
3.110000E+03	8.247970E-17	3.892061E-17
3.120000E+03	8.358675E-17	3.912805E-17
3.130000E+03	8.469699E-17	3.932725E-17
3.140000E+03	8.580989E-17	3.951789E-17
3.150000E+03	8.692492E-17	3.969965E-17
3.160000E+03	8.804151E-17	3.987222E-17
3.170000E+03	8.917199E-17	4.004107E-17
3.180000E+03	9.029007E-17	4.019430E-17
3.190000E+03	9.142109E-17	4.034319E-17
3.200000E+03	9.253814E-17	4.047581E-17
3.210000E+03	9.366710E-17	4.060348E-17
3.220000E+03	9.479406E-17	4.072008E-17
3.230000E+03	9.591831E-17	4.082528E-17
3.240000E+03	9.703912E-17	4.091878E-17
3.250000E+03	9.815572E-17	4.100028E-17
3.260000E+03	9.926735E-17	4.106949E-17
3.270000E+03	1.003732E-16	4.112610E-17
3.280000E+03	1.014724E-16	4.116986E-17
3.290000E+03	1.025787E-16	4.120629E-17
3.300000E+03	1.036623E-16	4.122348E-17
3.310000E+03	1.047367E-16	4.122699E-17
3.320000E+03	1.058159E-16	4.122238E-17
3.330000E+03	1.068843E-16	4.120359E-17
3.340000E+03	1.079259E-16	4.116461E-17
3.350000E+03	1.089698E-16	4.111678E-17
3.360000E+03	1.100000E-16	4.105412E-17
3.370000E+03	1.110156E-16	4.097642E-17
3.380000E+03	1.120154E-16	4.088351E-17
3.390000E+03	1.129986E-16	4.077524E-17
3.400000E+03	1.139640E-16	4.065145E-17
3.410000E+03	1.149264E-16	4.051762E-17
3.420000E+03	1.158532E-16	4.036241E-17
3.430000E+03	1.167591E-16	4.019136E-17
3.440000E+03	1.176590E-16	4.000989E-17
3.450000E+03	1.185198E-16	3.980693E-17
3.460000E+03	1.193726E-16	3.959340E-17
3.470000E+03	1.202002E-16	3.936378E-17
3.480000E+03	1.209850E-16	3.911278E-17
3.490000E+03	1.217588E-16	3.885111E-17
3.500000E+03	1.225039E-16	3.857348E-17
3.510000E+03	1.232194E-16	3.827996E-17
3.520000E+03	1.239041E-16	3.797067E-17
3.530000E+03	1.245568E-16	3.764575E-17
3.540000E+03	1.251764E-16	3.730537E-17
3.550000E+03	1.257619E-16	3.694971E-17
3.560000E+03	1.263290E-16	3.658389E-17
3.570000E+03	1.268430E-16	3.619832E-17
3.580000E+03	1.273195E-16	3.579823E-17
3.590000E+03	1.277745E-16	3.538862E-17
3.600000E+03	1.281732E-16	3.496037E-17
3.610000E+03	1.285483E-16	3.452317E-17
3.620000E+03	1.288819E-16	3.407272E-17
3.630000E+03	1.291562E-16	3.360502E-17
3.640000E+03	1.294040E-16	3.312945E-17
3.650000E+03	1.296076E-16	3.264198E-17
3.660000E+03	1.297660E-16	3.214314E-17
3.670000E+03	1.298615E-16	3.162934E-17
3.680000E+03	1.299271E-16	3.110948E-17
3.690000E+03	1.299452E-16	3.057996E-17
3.700000E+03	1.299150E-16	3.004141E-17
3.710000E+03	1.298359E-16	2.949448E-17
3.720000E+03	1.297073E-16	2.893987E-17
3.730000E+03	1.295452E-16	2.838192E-17
3.740000E+03	1.293158E-16	2.781398E-17
3.750000E+03	1.290353E-16	2.724055E-17
3.760000E+03	1.287033E-16	2.666239E-17
3.770000E+03	1.283360E-16	2.608364E-17
3.780000E+03	1.279001E-16	2.549838E-17
3.790000E+03	1.274120E-16	2.491085E-17
3.800000E+03	1.268877E-16	2.432498E-17
3.810000E+03	1.262947E-16	2.373539E-17
3.820000E+03	1.256653E-16	2.314903E-17
3.830000E+03	1.249676E-16	2.256087E-17
3.840000E+03	1.242334E-16	2.197756E-17
3.850000E+03	1.234318E-16	2.139439E-17
3.860000E+03	1.225940E-16	2.081769E-17
3.870000E+03	1.216898E-16	2.024306E-17
3.880000E+03	1.207502E-16	1.967652E-17
3.890000E+03	1.197606E-16	1.911633E-17
3.900000E+03	1.187069E-16	1.856104E-17
3.910000E+03	1.176195E-16	1.801616E-17
3.920000E+03	1.164847E-16	1.748013E-17
3.930000E+03	1.152892E-16	1.695164E-17
3.940000E+03	1.140628E-16	1.643567E-17
3.950000E+03	1.127926E-16	1.593077E-17
3.960000E+03	1.114663E-16	1.543569E-17
3.970000E+03	1.101130E-16	1.495487E-17
3.980000E+03	1.087207E-16	1.448690E-17
3.990000E+03	1.072913E-16	1.403223E-17
4.000000E+03	1.058142E-16	1.358962E-17
4.010000E+03	1.043174E-16	1.316272E-17
4.020000E+03	1.027904E-16	1.275007E-17
4.030000E+03	1.012358E-16	1.235180E-17
4.040000E+03	9.964450E-17	1.196653E-17
4.050000E+03	9.804351E-17	1.159716E-17
4.060000E+03	9.642370E-17	1.124208E-17
4.070000E+03	9.478821E-17	1.090108E-17
4.080000E+03	9.312914E-17	1.057263E-17
4.090000E+03	9.147216E-17	1.025894E-17
4.100000E+03	8.980919E-17	9.958295E-18
4.110000E+03	8.813298E-17	9.669098E-18
4.120000E+03	8.646780E-17	9.393170E-18
4.130000E+03	8.480603E-17	9.128797E-18
4.140000E+03	8.314082E-17	8.874378E-18
4.150000E+03	8.149478E-17	8.631468E-18
4.160000E+03	7.985120E-17	8.397435E-18
4.170000E+03	7.823151E-17	8.173713E-18
4.180000E+03	7.661952E-17	7.957803E-18
4.190000E+03	7.503548E-17	7.751051E-18
4.200000E+03	7.346365E-17	7.551106E-18
4.210000E+03	7.192313E-17	7.359256E-18
4.220000E+03	7.039862E-17	7.173298E-18
4.230000E+03	6.890010E-17	6.993672E-18
4.240000E+03	6.743662E-17	6.820752E-18
4.250000E+03	6.599355E-17	6.652560E-18
4.260000E+03	6.457980E-17	6.489551E-18
4.270000E+03	6.319618E-17	6.331399E-18
4.280000E+03	6.184337E-17	6.177806E-18
4.290000E+03	6.052191E-17	6.028500E-18
4.300000E+03	5.923223E-17	5.883233E-18
4.310000E+03	5.797467E-17	5.741780E-18
4.320000E+03	5.674944E-17	5.603940E-18
4.330000E+03	5.555668E-17	5.469531E-18
4.340000E+03	5.439643E-17	5.338389E-18
4.350000E+03	5.326868E-17	5.210369E-18
4.360000E+03	5.216743E-17	5.084768E-18
4.370000E+03	5.110444E-17	4.962633E-18
4.380000E+03	5.007346E-17	4.843272E-18
4.390000E+03	4.906874E-17	4.726065E-18
4.400000E+03	4.809568E-17	4.611491E-18
4.410000E+03	4.715920E-17	4.499979E-18
4.420000E+03	4.624825E-17	4.390449E-18
4.430000E+03	4.536775E-17	4.283358E-18
4.440000E+03	4.451725E-17	4.178657E-18
4.450000E+03	4.370109E-17	4.076752E-18
4.460000E+03	4.290896E-17	3.976686E-18
4.470000E+03	4.214062E-17	3.878458E-18
4.480000E+03	4.140490E-17	3.782902E-18
4.490000E+03	4.069649E-17	3.689546E-18
4.500000E+03	4.001480E-17	3.598362E-18
4.510000E+03	3.935491E-17	3.508939E-18
4.520000E+03	3.872496E-17	3.422034E-18
4.530000E+03	3.811577E-17	3.336865E-18
4.540000E+03	3.753515E-17	3.254153E-18
4.550000E+03	3.697424E-17	3.173161E-18
4.560000E+03	3.643659E-17	3.094240E-18
4.570000E+03	3.592161E-17	3.017380E-18
4.580000E+03	3.542871E-17	2.942572E-18
4.590000E+03	3.495730E-17	2.869811E-18
4.600000E+03	3.450682E-17	2.799097E-18
4.610000E+03	3.407300E-17	2.730135E-18
4.620000E+03	3.366271E-17	2.663529E-18
4.630000E+03	3.327164E-17	2.598986E-18
4.640000E+03	3.289573E-17	2.536247E-18
4.650000E+03	3.253804E-17	2.475618E-18
4.660000E+03	3.220150E-17	2.417379E-18
4.670000E+03	3.187863E-17	2.361033E-18
4.680000E+03	3.157240E-17	2.306879E-18
4.690000E+03	3.127895E-17	2.254715E-18
4.700000E+03	3.100447E-17	2.205069E-18
4.710000E+03	3.074510E-17	2.157742E-18
4.720000E+03	3.050031E-17	2.112786E-18
4.730000E+03	3.026642E-17	2.070033E-18
4.740000E+03	3.004617E-17	2.029768E-18
4.750000E+03	2.984223E-17	1.992253E-18
4.760000E+03	2.964775E-17	1.957114E-18
4.770000E+03	2.946543E-17	1.924611E-18
4.780000E+03	2.929474E-17	1.894784E-18
4.790000E+03	2.913214E-17	1.867463E-18
4.800000E+03	2.898326E-17	1.843063E-18
4.810000E+03	2.884452E-17	1.821385E-18
4.820000E+03	2.871241E-17	1.802225E-18
4.830000E+03	2.858949E-17	1.785744E-18
4.840000E+03	2.847824E-17	1.772074E-18
4.850000E+03	2.837222E-17	1.760767E-18
4.860000E+03	2.827398E-17	1.751917E-18
4.870000E+03	2.818310E-17	1.745407E-18
4.880000E+03	2.809627E-17	1.740924E-18
4.890000E+03	2.801897E-17	1.738680E-18
4.900000E+03	2.794503E-17	1.738153E-18
4.910000E+03	2.787992E-17	1.739538E-18
4.920000E+03	2.781756E-17	1.742302E-18
4.930000E+03	2.776054E-17	1.746453E-18
4.940000E+03	2.770859E-17	1.751820E-18
4.950000E+03	2.766145E-17	1.758238E-18
4.960000E+03	2.761887E-17	1.765547E-18
4.970000E+03	2.757775E-17	1.773415E-18
4.980000E+03	2.754356E-17	1.782065E-18
4.990000E+03	2.751039E-17	1.790999E-18
5.000000E+03	2.748367E-17	1.800466E-18
5.010000E+03	2.745754E-17	1.809988E-18
5.020000E+03	2.743462E-17	1.819652E-18
5.030000E+03	2.741467E-17	1.829371E-18
5.040000E+03	2.739470E-17	1.838880E-18
5.050000E+03	2.738009E-17	1.848488E-18
5.060000E+03	2.736503E-17	1.857760E-18
5.070000E+03	2.735490E-17	1.867027E-18
5.080000E+03	2.734391E-17	1.875866E-18
5.090000E+03	2.733465E-17	1.884433E-18
5.100000E+03	2.732690E-17	1.892698E-18
5.110000E+03	2.732046E-17	1.900639E-18
5.120000E+03	2.731512E-17	1.908237E-18
5.130000E+03	2.730792E-17	1.915285E-18
5.140000E+03	2.730419E-17	1.922160E-18
5.150000E+03	2.729820E-17	1.928467E-18
5.160000E+03	2.729527E-17	1.934594E-18
5.170000E+03	2.728967E-17	1.940149E-18
5.180000E+03	2.728396E-17	1.945331E-18
5.190000E+03	2.727793E-17	1.950143E-18
5.200000E+03	2.726863E-17	1.954394E-18
5.210000E+03	2.726133E-17	1.958486E-18
5.220000E+03	2.725033E-17	1.962033E-18
5.230000E+03	2.724089E-17	1.965437E-18
5.240000E+03	2.722730E-17	1.968310E-18
5.250000E+03	2.721207E-17	1.970858E-18
5.260000E+03	2.719498E-17	1.973086E-18
5.270000E+03	2.717579E-17	1.974999E-18
5.280000E+03	2.715428E-17	1.976600E-18
5.290000E+03	2.712751E-17	1.977694E-18
5.300000E+03	2.710069E-17	1.978677E-18
5.310000E+03	2.706820E-17	1.979152E-18
5.320000E+03	2.703526E-17	1.979513E-18
5.330000E+03	2.699629E-17	1.979362E-18
5.340000E+03	2.695382E-17	1.978893E-18
5.350000E+03	2.690773E-17	1.978104E-18
5.360000E+03	2.685521E-17	1.976793E-18
5.370000E+03	2.680152E-17	1.975351E-18
5.380000E+03	2.674391E-17	1.973578E-18
5.390000E+03	2.667968E-17	1.971275E-18
5.400000E+03	2.661147E-17	1.968637E-18
5.410000E+03	2.654192E-17	1.965859E-18
5.420000E+03	2.646578E-17	1.962550E-18
5.430000E+03	2.638573E-17	1.958909E-18
5.440000E+03	2.630185E-17	1.954937E-18
5.450000E+03	2.621163E-17	1.950449E-18
5.460000E+03	2.612040E-17	1.945838E-18
5.470000E+03	2.602309E-17	1.940729E-18
5.480000E+03	2.592503E-17	1.935519E-18
5.490000E+03	2.582124E-17	1.929841E-18
5.500000E+03	2.571445E-17	1.923904E-18
5.510000E+03	2.560488E-17	1.917729E-18
5.520000E+03	2.549271E-17	1.911339E-18
5.530000E+03	2.537817E-17	1.904758E-18
5.540000E+03	2.526147E-17	1.898013E-18
5.550000E+03	2.514036E-17	1.890945E-18
5.560000E+03	2.502005E-17	1.883954E-18
5.570000E+03	2.489586E-17	1.876695E-18
5.580000E+03	2.477296E-17	1.869566E-18
5.590000E+03	2.464674E-17	1.862222E-18
5.600000E+03	2.451992E-17	1.854870E-18
5.610000E+03	2.439280E-17	1.847529E-18
5.620000E+03	2.426571E-17	1.840215E-18
5.630000E+03	2.413898E-17	1.832939E-18
5.640000E+03	2.401058E-17	1.825531E-18
5.650000E+03	2.388563E-17	1.818353E-18
5.660000E+03	2.375981E-17	1.811048E-18
5.670000E+03	2.363820E-17	1.803969E-18
5.680000E+03	2.351657E-17	1.796754E-18
5.690000E+03	2.339769E-17	1.789572E-18
5.700000E+03	2.328201E-17	1.782411E-18
5.710000E+03	2.317002E-17	1.775260E-18
5.720000E+03	2.306216E-17	1.768106E-18
5.730000E+03	2.295894E-17	1.760935E-18
5.740000E+03	2.286083E-17	1.753735E-18
5.750000E+03	2.276607E-17	1.746322E-18
5.760000E+03	2.267965E-17	1.739029E-18
5.770000E+03	2.259757E-17	1.731506E-18
5.780000E+03	2.252476E-17	1.724084E-18
5.790000E+03	2.245726E-17	1.716418E-18
5.800000E+03	2.239777E-17	1.708675E-18
5.810000E+03	2.234673E-17	1.700853E-18
5.820000E+03	2.230462E-17	1.692951E-18
5.830000E+03	2.227187E-17	1.684971E-18
5.840000E+03	2.224894E-17	1.676918E-18
5.850000E+03	2.223627E-17	1.668798E-18
5.860000E+03	2.223212E-17	1.660456E-18
5.870000E+03	2.224128E-17	1.652230E-18
5.880000E+03	2.225983E-17	1.643809E-18
5.890000E+03	2.229256E-17	1.635531E-18
5.900000E+03	2.233554E-17	1.627093E-18
5.910000E+03	2.239140E-17	1.618677E-18
5.920000E+03	2.246056E-17	1.610308E-18
5.930000E+03	2.254346E-17	1.602010E-18
5.940000E+03	2.264278E-17	1.593971E-18
5.950000E+03	2.275230E-17	1.585753E-18
5.960000E+03	2.287914E-17	1.577860E-18
5.970000E+03	2.302152E-17	1.570177E-18
5.980000E+03	2.317993E-17	1.562744E-18
5.990000E+03	2.335252E-17	1.555455E-18
6.000000E+03	2.354435E-17	1.548667E-18
6.010000E+03	2.375360E-17	1.542280E-18
6.020000E+03	2.397839E-17	1.536203E-18
6.030000E+03	2.422149E-17	1.530650E-18
6.040000E+03	2.448579E-17	1.525842E-18
6.050000E+03	2.476693E-17	1.521552E-18
6.060000E+03	2.506774E-17	1.518011E-18
6.070000E+03	2.538863E-17	1.515307E-18
6.080000E+03	2.573000E-17	1.513531E-18
6.090000E+03	2.609219E-17	1.512783E-18
6.100000E+03	2.647553E-17	1.513170E-18
6.110000E+03	2.688026E-17	1.514800E-18
6.120000E+03	2.730657E-17	1.517790E-18
6.130000E+03	2.775184E-17	1.522109E-18
6.140000E+03	2.822151E-17	1.528172E-18
6.150000E+03	2.871280E-17	1.535950E-18
6.160000E+03	2.922260E-17	1.545402E-18
6.170000E+03	2.975626E-17	1.556934E-18
6.180000E+03	3.030743E-17	1.570333E-18
6.190000E+03	3.087830E-17	1.585822E-18
6.200000E+03	3.147104E-17	1.603607E-18
6.210000E+03	3.207839E-17	1.623392E-18
6.220000E+03	3.270203E-17	1.645314E-18
6.230000E+03	3.334033E-17	1.669317E-18
6.240000E+03	3.399140E-17	1.695313E-18
6.250000E+03	3.465648E-17	1.723351E-18
6.260000E+03	3.532634E-17	1.752943E-18
6.270000E+03	3.599799E-17	1.783899E-18
6.280000E+03	3.667537E-17	1.816359E-18
6.290000E+03	3.735157E-17	1.849921E-18
6.300000E+03	3.802287E-17	1.884332E-18
6.310000E+03	3.868525E-17	1.919325E-18
6.320000E+03	3.933052E-17	1.954424E-18
6.330000E+03	3.996184E-17	1.989720E-18
6.340000E+03	4.057065E-17	2.024726E-18
6.350000E+03	4.114804E-17	2.058938E-18
6.360000E+03	4.169712E-17	2.092461E-18
6.370000E+03	4.220482E-17	2.124594E-18
6.380000E+03	4.267462E-17	2.155469E-18
6.390000E+03	4.309356E-17	2.184396E-18
6.400000E+03	4.346152E-17	2.211331E-18
6.410000E+03	4.377895E-17	2.236262E-18
6.420000E+03	4.403387E-17	2.258537E-18
6.430000E+03	4.422775E-17	2.278190E-18
6.440000E+03	4.435845E-17	2.295058E-18
6.450000E+03	4.442449E-17	2.309010E-18
6.460000E+03	4.442513E-17	2.319938E-18
6.470000E+03	4.436473E-17	2.327996E-18
6.480000E+03	4.423521E-17	2.332676E-18
6.490000E+03	4.404235E-17	2.334183E-18
6.500000E+03	4.378384E-17	2.332293E-18
6.510000E+03	4.347100E-17	2.327499E-18
6.520000E+03	4.310258E-17	2.319624E-18
6.530000E+03	4.268213E-17	2.308745E-18
6.540000E+03	4.221355E-17	2.294961E-18
6.550000E+03	4.170099E-17	2.278388E-18
6.560000E+03	4.114469E-17	2.258936E-18
6.570000E+03	4.055731E-17	2.237206E-18
6.580000E+03	3.993918E-17	2.213134E-18
6.590000E+03	3.929080E-17	2.186676E-18
6.600000E+03	3.862438E-17	2.158453E-18
6.610000E+03	3.793639E-17	2.128222E-18
6.620000E+03	3.723844E-17	2.096608E-18
6.630000E+03	3.652687E-17	2.063388E-18
6.640000E+03	3.581259E-17	2.029181E-18
6.650000E+03	3.509175E-17	1.993782E-18
6.660000E+03	3.437106E-17	1.957600E-18
6.670000E+03	3.365668E-17	1.921031E-18
6.680000E+03	3.294440E-17	1.883887E-18
6.690000E+03	3.223995E-17	1.846560E-18
6.700000E+03	3.154853E-17	1.809425E-18
6.710000E+03	3.086560E-17	1.772303E-18
6.720000E+03	3.019597E-17	1.735560E-18
6.730000E+03	2.954101E-17	1.699374E-18
6.740000E+03	2.890191E-17	1.663913E-18
6.750000E+03	2.827967E-17	1.629338E-18
6.760000E+03	2.767787E-17	1.595965E-18
6.770000E+03	2.709161E-17	1.563616E-18
6.780000E+03	2.652423E-17	1.532592E-18
6.790000E+03	2.597615E-17	1.503022E-18
6.800000E+03	2.544511E-17	1.474875E-18
6.810000E+03	2.493645E-17	1.448557E-18
6.820000E+03	2.444768E-17	1.424011E-18
6.830000E+03	2.397883E-17	1.401316E-18
6.840000E+03	2.352983E-17	1.380538E-18
6.850000E+03	2.310059E-17	1.361720E-18
6.860000E+03	2.268866E-17	1.344751E-18
6.870000E+03	2.229841E-17	1.329896E-18
6.880000E+03	2.192725E-17	1.316972E-18
6.890000E+03	2.157485E-17	1.305892E-18
6.900000E+03	2.123872E-17	1.296419E-18
6.910000E+03	2.092278E-17	1.288693E-18
6.920000E+03	2.062239E-17	1.282331E-18
6.930000E+03	2.034131E-17	1.277464E-18
6.940000E+03	2.007701E-17	1.273842E-18
6.950000E+03	1.982706E-17	1.271216E-18
6.960000E+03	1.959309E-17	1.269602E-18
6.970000E+03	1.937661E-17	1.269022E-18
6.980000E+03	1.917324E-17	1.269120E-18
6.990000E+03	1.898644E-17	1.270058E-18
7.000000E+03	1.881193E-17	1.271495E-18
7.010000E+03	1.865119E-17	1.273480E-18
7.020000E+03	1.850566E-17	1.276067E-18
7.030000E+03	1.837115E-17	1.278932E-18
7.040000E+03	1.824909E-17	1.282141E-18
7.050000E+03	1.813904E-17	1.285634E-18
7.060000E+03	1.804056E-17	1.289357E-18
7.070000E+03	1.795502E-17	1.293388E-18
7.080000E+03	1.787830E-17	1.297416E-18
7.090000E+03	1.781178E-17	1.301523E-18
7.100000E+03	1.775498E-17	1.305662E-18
7.110000E+03	1.770743E-17	1.309788E-18
7.120000E+03	1.766864E-17	1.313854E-18
7.130000E+03	1.763813E-17	1.317815E-18
7.140000E+03	1.761537E-17	1.321625E-18
7.150000E+03	1.759807E-17	1.325102E-18
7.160000E+03	1.758929E-17	1.328469E-18
7.170000E+03	1.758669E-17	1.331544E-18
7.180000E+03	1.758972E-17	1.334279E-18
7.190000E+03	1.759602E-17	1.336491E-18
7.200000E+03	1.760863E-17	1.338403E-18
7.210000E+03	1.762514E-17	1.339833E-18
7.220000E+03	1.764318E-17	1.340596E-18
7.230000E+03	1.766573E-17	1.340920E-18
7.240000E+03	1.769039E-17	1.340624E-18
7.250000E+03	1.771472E-17	1.339529E-18
7.260000E+03	1.774172E-17	1.337870E-18
7.270000E+03	1.776714E-17	1.335333E-18
7.280000E+03	1.779216E-17	1.332024E-18
7.290000E+03	1.781797E-17	1.328048E-18
7.300000E+03	1.784030E-17	1.323105E-18
7.310000E+03	1.786035E-17	1.317310E-18
7.320000E+03	1.787934E-17	1.310780E-18
7.330000E+03	1.789302E-17	1.303231E-18
7.340000E+03	1.790261E-17	1.294792E-18
7.350000E+03	1.790757E-17	1.285459E-18
7.360000E+03	1.790736E-17	1.275236E-18
7.370000E+03	1.790146E-17	1.264130E-18
7.380000E+03	1.788940E-17	1.252159E-18
7.390000E+03	1.787077E-17	1.239342E-18
7.400000E+03	1.784517E-17	1.225709E-18
7.410000E+03	1.781229E-17	1.211296E-18
7.420000E+03	1.777186E-17	1.196145E-18
7.430000E+03	1.772368E-17	1.180308E-18
7.440000E+03	1.766582E-17	1.163723E-18
7.450000E+03	1.760187E-17	1.146700E-18
7.460000E+03	1.753004E-17	1.129193E-18
7.470000E+03	1.744863E-17	1.111170E-18
7.480000E+03	1.736145E-17	1.092957E-18
7.490000E+03	1.726513E-17	1.074423E-18
7.500000E+03	1.716361E-17	1.055903E-18
7.510000E+03	1.705370E-17	1.037292E-18
7.520000E+03	1.693941E-17	1.018929E-18
7.530000E+03	1.681768E-17	1.000730E-18
7.540000E+03	1.669083E-17	9.829394E-19
7.550000E+03	1.656114E-17	9.657966E-19
7.560000E+03	1.642574E-17	9.492422E-19
7.570000E+03	1.628695E-17	9.335236E-19
7.580000E+03	1.614538E-17	9.187857E-19
7.590000E+03	1.600163E-17	9.051707E-19
7.600000E+03	1.585629E-17	8.928156E-19
7.610000E+03	1.570992E-17	8.818490E-19
7.620000E+03	1.556310E-17	8.723886E-19
7.630000E+03	1.541633E-17	8.645376E-19
7.640000E+03	1.527012E-17	8.583813E-19
7.650000E+03	1.512333E-17	8.538938E-19
7.660000E+03	1.497957E-17	8.512949E-19
7.670000E+03	1.483763E-17	8.505133E-19
7.680000E+03	1.469628E-17	8.514591E-19
7.690000E+03	1.455894E-17	8.542934E-19
7.700000E+03	1.442278E-17	8.588029E-19
7.710000E+03	1.429108E-17	8.651210E-19
7.720000E+03	1.416098E-17	8.730076E-19
7.730000E+03	1.403416E-17	8.824860E-19
7.740000E+03	1.391218E-17	8.935770E-19
7.750000E+03	1.379217E-17	9.060145E-19
7.760000E+03	1.367565E-17	9.198114E-19
