#wls	flux	fluxerr
1.570383E+03	1.140202E-02	0.000000E+00
1.609642E+03	1.183930E-02	0.000000E+00
1.648902E+03	1.227722E-02	0.000000E+00
1.688161E+03	1.271551E-02	0.000000E+00
1.727421E+03	1.314863E-02	0.000000E+00
1.766680E+03	1.356865E-02	0.000000E+00
1.805940E+03	1.396143E-02	0.000000E+00
1.845200E+03	1.431164E-02	0.000000E+00
1.884459E+03	1.460063E-02	0.000000E+00
1.923719E+03	1.481283E-02	0.000000E+00
1.962978E+03	1.494477E-02	0.000000E+00
2.002238E+03	1.502740E-02	0.000000E+00
2.041497E+03	1.513899E-02	0.000000E+00
2.080757E+03	1.539825E-02	0.000000E+00
2.120016E+03	1.592618E-02	0.000000E+00
2.159276E+03	1.678550E-02	0.000000E+00
2.198536E+03	1.795525E-02	0.000000E+00
2.237795E+03	1.935771E-02	0.000000E+00
2.277055E+03	2.090089E-02	0.000000E+00
2.316314E+03	2.251961E-02	0.000000E+00
2.355574E+03	2.417472E-02	0.000000E+00
2.394833E+03	2.584922E-02	0.000000E+00
2.434093E+03	2.754388E-02	0.000000E+00
2.473353E+03	2.926469E-02	0.000000E+00
2.512612E+03	3.101927E-02	0.000000E+00
2.551872E+03	3.282032E-02	0.000000E+00
2.591131E+03	3.467446E-02	0.000000E+00
2.630391E+03	3.659013E-02	0.000000E+00
2.669650E+03	3.856987E-02	0.000000E+00
2.708910E+03	4.061904E-02	0.000000E+00
2.748170E+03	4.273708E-02	0.000000E+00
2.787429E+03	4.492507E-02	0.000000E+00
2.826689E+03	4.718475E-02	0.000000E+00
2.865948E+03	4.951962E-02	0.000000E+00
2.905208E+03	5.193635E-02	0.000000E+00
2.944467E+03	5.444464E-02	0.000000E+00
2.954282E+03	5.508684E-02	0.000000E+00
2.964097E+03	5.573616E-02	0.000000E+00
2.973912E+03	5.639129E-02	0.000000E+00
2.983727E+03	5.705527E-02	0.000000E+00
2.993542E+03	5.772898E-02	0.000000E+00
3.003357E+03	5.841477E-02	0.000000E+00
3.013172E+03	5.911187E-02	0.000000E+00
3.022986E+03	5.982202E-02	0.000000E+00
3.032801E+03	6.054208E-02	0.000000E+00
3.042616E+03	6.127401E-02	0.000000E+00
3.052431E+03	6.201587E-02	0.000000E+00
3.062246E+03	6.276835E-02	0.000000E+00
3.072061E+03	6.353098E-02	0.000000E+00
3.081876E+03	6.430323E-02	0.000000E+00
3.091691E+03	6.508462E-02	0.000000E+00
3.101506E+03	6.587592E-02	0.000000E+00
3.111320E+03	6.667549E-02	0.000000E+00
3.121135E+03	6.748416E-02	0.000000E+00
3.130950E+03	6.830154E-02	0.000000E+00
3.140765E+03	6.912726E-02	0.000000E+00
3.150580E+03	6.996217E-02	0.000000E+00
3.160395E+03	7.080351E-02	0.000000E+00
3.170210E+03	7.165460E-02	0.000000E+00
3.180025E+03	7.251147E-02	0.000000E+00
3.189840E+03	7.337752E-02	0.000000E+00
3.199655E+03	7.425001E-02	0.000000E+00
3.209469E+03	7.512985E-02	0.000000E+00
3.219284E+03	7.601679E-02	0.000000E+00
3.229099E+03	7.690937E-02	0.000000E+00
3.238914E+03	7.780974E-02	0.000000E+00
3.248729E+03	7.871528E-02	0.000000E+00
3.258544E+03	7.962576E-02	0.000000E+00
3.268359E+03	8.054333E-02	0.000000E+00
3.278174E+03	8.146543E-02	0.000000E+00
3.287989E+03	8.239176E-02	0.000000E+00
3.297803E+03	8.332224E-02	0.000000E+00
3.307618E+03	8.425777E-02	0.000000E+00
3.317433E+03	8.519579E-02	0.000000E+00
3.327248E+03	8.613622E-02	0.000000E+00
3.337063E+03	8.708000E-02	0.000000E+00
3.346878E+03	8.802582E-02	0.000000E+00
3.356693E+03	8.897351E-02	0.000000E+00
3.366508E+03	8.992063E-02	0.000000E+00
3.376323E+03	9.086818E-02	0.000000E+00
3.386137E+03	9.181614E-02	0.000000E+00
3.395952E+03	9.276202E-02	0.000000E+00
3.405767E+03	9.370580E-02	0.000000E+00
3.415582E+03	9.464627E-02	0.000000E+00
3.425397E+03	9.558455E-02	0.000000E+00
3.435212E+03	9.651723E-02	0.000000E+00
3.445027E+03	9.744549E-02	0.000000E+00
3.454842E+03	9.836710E-02	0.000000E+00
3.464657E+03	9.928103E-02	0.000000E+00
3.474471E+03	1.001863E-01	0.000000E+00
3.484286E+03	1.010809E-01	0.000000E+00
3.494101E+03	1.019651E-01	0.000000E+00
3.503916E+03	1.028358E-01	0.000000E+00
3.513731E+03	1.036922E-01	0.000000E+00
3.523546E+03	1.045349E-01	0.000000E+00
3.533361E+03	1.053620E-01	0.000000E+00
3.543176E+03	1.061731E-01	0.000000E+00
3.552991E+03	1.069665E-01	0.000000E+00
3.562805E+03	1.077408E-01	0.000000E+00
3.572620E+03	1.084957E-01	0.000000E+00
3.582435E+03	1.092288E-01	0.000000E+00
3.592250E+03	1.099409E-01	0.000000E+00
3.602065E+03	1.106299E-01	0.000000E+00
3.611880E+03	1.112957E-01	0.000000E+00
3.621695E+03	1.119395E-01	0.000000E+00
3.631510E+03	1.125591E-01	0.000000E+00
3.641325E+03	1.131548E-01	0.000000E+00
3.651140E+03	1.137287E-01	0.000000E+00
3.660954E+03	1.142800E-01	0.000000E+00
3.670769E+03	1.148088E-01	0.000000E+00
3.680584E+03	1.153174E-01	0.000000E+00
3.690399E+03	1.158048E-01	0.000000E+00
3.700214E+03	1.162721E-01	0.000000E+00
3.710029E+03	1.167213E-01	0.000000E+00
3.719844E+03	1.171523E-01	0.000000E+00
3.729659E+03	1.175659E-01	0.000000E+00
3.739474E+03	1.179628E-01	0.000000E+00
3.749288E+03	1.183436E-01	0.000000E+00
3.759103E+03	1.187096E-01	0.000000E+00
3.768918E+03	1.190602E-01	0.000000E+00
3.778733E+03	1.193965E-01	0.000000E+00
3.788548E+03	1.197193E-01	0.000000E+00
3.798363E+03	1.200276E-01	0.000000E+00
3.808178E+03	1.203210E-01	0.000000E+00
3.817993E+03	1.206010E-01	0.000000E+00
3.827808E+03	1.208669E-01	0.000000E+00
3.837622E+03	1.211170E-01	0.000000E+00
3.847437E+03	1.213525E-01	0.000000E+00
3.857252E+03	1.215735E-01	0.000000E+00
3.867067E+03	1.217769E-01	0.000000E+00
3.876882E+03	1.219636E-01	0.000000E+00
3.886697E+03	1.221337E-01	0.000000E+00
3.896512E+03	1.222860E-01	0.000000E+00
3.906327E+03	1.224186E-01	0.000000E+00
3.916142E+03	1.225333E-01	0.000000E+00
3.925956E+03	1.226284E-01	0.000000E+00
3.935771E+03	1.227029E-01	0.000000E+00
3.945586E+03	1.227583E-01	0.000000E+00
3.955401E+03	1.227930E-01	0.000000E+00
3.965216E+03	1.228085E-01	0.000000E+00
3.975031E+03	1.228028E-01	0.000000E+00
3.984846E+03	1.227788E-01	0.000000E+00
3.994661E+03	1.227357E-01	0.000000E+00
4.004476E+03	1.226740E-01	0.000000E+00
4.014290E+03	1.225962E-01	0.000000E+00
4.024105E+03	1.225013E-01	0.000000E+00
4.033920E+03	1.223932E-01	0.000000E+00
4.043735E+03	1.222712E-01	0.000000E+00
4.053550E+03	1.221377E-01	0.000000E+00
4.063365E+03	1.219953E-01	0.000000E+00
4.073180E+03	1.218448E-01	0.000000E+00
4.082995E+03	1.216889E-01	0.000000E+00
4.092810E+03	1.215296E-01	0.000000E+00
4.102625E+03	1.213679E-01	0.000000E+00
4.112439E+03	1.212077E-01	0.000000E+00
4.122254E+03	1.210492E-01	0.000000E+00
4.132069E+03	1.208962E-01	0.000000E+00
4.141884E+03	1.207486E-01	0.000000E+00
4.151699E+03	1.206093E-01	0.000000E+00
4.161514E+03	1.204797E-01	0.000000E+00
4.171329E+03	1.203596E-01	0.000000E+00
4.181144E+03	1.202519E-01	0.000000E+00
4.190959E+03	1.201568E-01	0.000000E+00
4.200773E+03	1.200741E-01	0.000000E+00
4.210588E+03	1.200033E-01	0.000000E+00
4.220403E+03	1.199456E-01	0.000000E+00
4.230218E+03	1.199009E-01	0.000000E+00
4.240033E+03	1.198659E-01	0.000000E+00
4.249848E+03	1.198420E-01	0.000000E+00
4.259663E+03	1.198252E-01	0.000000E+00
4.269478E+03	1.198162E-01	0.000000E+00
4.279293E+03	1.198116E-01	0.000000E+00
4.289107E+03	1.198107E-01	0.000000E+00
4.298922E+03	1.198125E-01	0.000000E+00
4.308737E+03	1.198159E-01	0.000000E+00
4.318552E+03	1.198196E-01	0.000000E+00
4.328367E+03	1.198232E-01	0.000000E+00
4.338182E+03	1.198263E-01	0.000000E+00
4.347997E+03	1.198275E-01	0.000000E+00
4.357812E+03	1.198261E-01	0.000000E+00
4.367627E+03	1.198200E-01	0.000000E+00
4.377441E+03	1.198094E-01	0.000000E+00
4.387256E+03	1.197923E-01	0.000000E+00
4.397071E+03	1.197674E-01	0.000000E+00
4.406886E+03	1.197335E-01	0.000000E+00
4.416701E+03	1.196898E-01	0.000000E+00
4.426516E+03	1.196354E-01	0.000000E+00
4.436331E+03	1.195697E-01	0.000000E+00
4.446146E+03	1.194903E-01	0.000000E+00
4.455961E+03	1.193989E-01	0.000000E+00
4.465775E+03	1.192935E-01	0.000000E+00
4.475590E+03	1.191743E-01	0.000000E+00
4.485405E+03	1.190405E-01	0.000000E+00
4.495220E+03	1.188940E-01	0.000000E+00
4.505035E+03	1.187343E-01	0.000000E+00
4.514850E+03	1.185604E-01	0.000000E+00
4.524665E+03	1.183757E-01	0.000000E+00
4.534480E+03	1.181796E-01	0.000000E+00
4.544295E+03	1.179725E-01	0.000000E+00
4.554109E+03	1.177573E-01	0.000000E+00
4.563924E+03	1.175361E-01	0.000000E+00
4.573739E+03	1.173077E-01	0.000000E+00
4.583554E+03	1.170765E-01	0.000000E+00
4.593369E+03	1.168439E-01	0.000000E+00
4.603184E+03	1.166112E-01	0.000000E+00
4.612999E+03	1.163812E-01	0.000000E+00
4.622814E+03	1.161552E-01	0.000000E+00
4.632629E+03	1.159361E-01	0.000000E+00
4.642444E+03	1.157234E-01	0.000000E+00
4.652258E+03	1.155197E-01	0.000000E+00
4.662073E+03	1.153280E-01	0.000000E+00
4.671888E+03	1.151465E-01	0.000000E+00
4.681703E+03	1.149792E-01	0.000000E+00
4.691518E+03	1.148265E-01	0.000000E+00
4.701333E+03	1.146889E-01	0.000000E+00
4.711148E+03	1.145700E-01	0.000000E+00
4.720963E+03	1.144680E-01	0.000000E+00
4.730778E+03	1.143875E-01	0.000000E+00
4.740592E+03	1.143263E-01	0.000000E+00
4.750407E+03	1.142876E-01	0.000000E+00
4.760222E+03	1.142704E-01	0.000000E+00
4.770037E+03	1.142774E-01	0.000000E+00
4.779852E+03	1.143073E-01	0.000000E+00
4.789667E+03	1.143615E-01	0.000000E+00
4.799482E+03	1.144403E-01	0.000000E+00
4.809297E+03	1.145427E-01	0.000000E+00
4.819112E+03	1.146686E-01	0.000000E+00
4.828926E+03	1.148178E-01	0.000000E+00
4.838741E+03	1.149907E-01	0.000000E+00
4.848556E+03	1.151843E-01	0.000000E+00
4.858371E+03	1.153999E-01	0.000000E+00
4.868186E+03	1.156341E-01	0.000000E+00
4.878001E+03	1.158865E-01	0.000000E+00
4.887816E+03	1.161542E-01	0.000000E+00
4.897631E+03	1.164355E-01	0.000000E+00
4.907446E+03	1.167282E-01	0.000000E+00
4.917260E+03	1.170310E-01	0.000000E+00
4.927075E+03	1.173394E-01	0.000000E+00
4.936890E+03	1.176518E-01	0.000000E+00
4.946705E+03	1.179644E-01	0.000000E+00
4.956520E+03	1.182757E-01	0.000000E+00
4.966335E+03	1.185814E-01	0.000000E+00
4.976150E+03	1.188778E-01	0.000000E+00
4.985965E+03	1.191630E-01	0.000000E+00
4.995780E+03	1.194343E-01	0.000000E+00
5.005594E+03	1.196880E-01	0.000000E+00
5.015409E+03	1.199203E-01	0.000000E+00
5.025224E+03	1.201312E-01	0.000000E+00
5.035039E+03	1.203162E-01	0.000000E+00
5.044854E+03	1.204735E-01	0.000000E+00
5.054669E+03	1.206013E-01	0.000000E+00
5.064484E+03	1.206984E-01	0.000000E+00
5.074299E+03	1.207625E-01	0.000000E+00
5.084114E+03	1.207940E-01	0.000000E+00
5.093929E+03	1.207902E-01	0.000000E+00
5.103743E+03	1.207523E-01	0.000000E+00
5.113558E+03	1.206778E-01	0.000000E+00
5.123373E+03	1.205700E-01	0.000000E+00
5.133188E+03	1.204270E-01	0.000000E+00
5.143003E+03	1.202513E-01	0.000000E+00
5.152818E+03	1.200417E-01	0.000000E+00
5.162633E+03	1.198009E-01	0.000000E+00
5.172448E+03	1.195306E-01	0.000000E+00
5.182263E+03	1.192302E-01	0.000000E+00
5.192077E+03	1.189018E-01	0.000000E+00
5.201892E+03	1.185485E-01	0.000000E+00
5.211707E+03	1.181711E-01	0.000000E+00
5.221522E+03	1.177706E-01	0.000000E+00
5.231337E+03	1.173490E-01	0.000000E+00
5.241152E+03	1.169082E-01	0.000000E+00
5.250967E+03	1.164501E-01	0.000000E+00
5.260782E+03	1.159754E-01	0.000000E+00
5.270597E+03	1.154869E-01	0.000000E+00
5.280411E+03	1.149849E-01	0.000000E+00
5.290226E+03	1.144718E-01	0.000000E+00
5.300041E+03	1.139478E-01	0.000000E+00
5.309856E+03	1.134160E-01	0.000000E+00
5.319671E+03	1.128784E-01	0.000000E+00
5.329486E+03	1.123349E-01	0.000000E+00
5.339301E+03	1.117905E-01	0.000000E+00
5.349116E+03	1.112469E-01	0.000000E+00
5.358931E+03	1.107010E-01	0.000000E+00
5.368745E+03	1.101576E-01	0.000000E+00
5.378560E+03	1.096155E-01	0.000000E+00
5.388375E+03	1.090737E-01	0.000000E+00
5.398190E+03	1.085318E-01	0.000000E+00
5.408005E+03	1.079886E-01	0.000000E+00
5.417820E+03	1.074429E-01	0.000000E+00
5.427635E+03	1.068952E-01	0.000000E+00
5.437450E+03	1.063441E-01	0.000000E+00
5.447265E+03	1.057912E-01	0.000000E+00
5.457079E+03	1.052370E-01	0.000000E+00
5.466894E+03	1.046810E-01	0.000000E+00
5.476709E+03	1.041245E-01	0.000000E+00
5.486524E+03	1.035679E-01	0.000000E+00
5.496339E+03	1.030115E-01	0.000000E+00
5.506154E+03	1.024563E-01	0.000000E+00
5.515969E+03	1.019026E-01	0.000000E+00
5.525784E+03	1.013502E-01	0.000000E+00
5.535599E+03	1.008003E-01	0.000000E+00
5.545414E+03	1.002527E-01	0.000000E+00
5.555228E+03	9.970812E-02	0.000000E+00
5.565043E+03	9.916632E-02	0.000000E+00
5.574858E+03	9.862701E-02	0.000000E+00
5.584673E+03	9.809077E-02	0.000000E+00
5.594488E+03	9.755717E-02	0.000000E+00
5.604303E+03	9.702573E-02	0.000000E+00
5.614118E+03	9.649695E-02	0.000000E+00
5.623933E+03	9.597041E-02	0.000000E+00
5.633748E+03	9.544651E-02	0.000000E+00
5.643562E+03	9.492384E-02	0.000000E+00
5.653377E+03	9.440388E-02	0.000000E+00
5.663192E+03	9.388527E-02	0.000000E+00
5.673007E+03	9.336760E-02	0.000000E+00
5.682822E+03	9.285262E-02	0.000000E+00
5.692637E+03	9.233804E-02	0.000000E+00
5.702452E+03	9.182568E-02	0.000000E+00
5.712267E+03	9.131556E-02	0.000000E+00
5.722082E+03	9.080757E-02	0.000000E+00
5.731896E+03	9.030086E-02	0.000000E+00
5.741711E+03	8.979751E-02	0.000000E+00
5.751526E+03	8.929683E-02	0.000000E+00
5.761341E+03	8.880010E-02	0.000000E+00
5.771156E+03	8.830762E-02	0.000000E+00
5.780971E+03	8.781883E-02	0.000000E+00
5.790786E+03	8.733514E-02	0.000000E+00
5.800601E+03	8.685806E-02	0.000000E+00
5.810416E+03	8.638610E-02	0.000000E+00
5.820230E+03	8.592083E-02	0.000000E+00
5.830045E+03	8.546272E-02	0.000000E+00
5.839860E+03	8.501328E-02	0.000000E+00
5.849675E+03	8.457114E-02	0.000000E+00
5.859490E+03	8.413875E-02	0.000000E+00
5.869305E+03	8.371464E-02	0.000000E+00
5.879120E+03	8.330033E-02	0.000000E+00
5.888935E+03	8.289628E-02	0.000000E+00
5.898750E+03	8.250196E-02	0.000000E+00
5.908564E+03	8.211877E-02	0.000000E+00
5.918379E+03	8.174529E-02	0.000000E+00
5.928194E+03	8.138376E-02	0.000000E+00
5.938009E+03	8.103170E-02	0.000000E+00
5.947824E+03	8.069142E-02	0.000000E+00
5.957639E+03	8.036136E-02	0.000000E+00
5.967454E+03	8.004279E-02	0.000000E+00
5.977269E+03	7.973409E-02	0.000000E+00
5.987084E+03	7.943557E-02	0.000000E+00
5.996898E+03	7.914651E-02	0.000000E+00
6.006713E+03	7.886716E-02	0.000000E+00
6.016528E+03	7.859580E-02	0.000000E+00
6.026343E+03	7.833160E-02	0.000000E+00
6.036158E+03	7.807463E-02	0.000000E+00
6.045973E+03	7.782402E-02	0.000000E+00
6.055788E+03	7.757679E-02	0.000000E+00
6.065603E+03	7.733290E-02	0.000000E+00
6.075418E+03	7.709118E-02	0.000000E+00
6.085233E+03	7.685125E-02	0.000000E+00
6.095047E+03	7.661377E-02	0.000000E+00
6.104862E+03	7.637927E-02	0.000000E+00
6.114677E+03	7.614904E-02	0.000000E+00
6.124492E+03	7.592642E-02	0.000000E+00
6.134307E+03	7.571163E-02	0.000000E+00
6.144122E+03	7.550391E-02	0.000000E+00
6.153937E+03	7.530636E-02	0.000000E+00
6.163752E+03	7.511911E-02	0.000000E+00
6.173567E+03	7.494010E-02	0.000000E+00
6.183381E+03	7.477227E-02	0.000000E+00
6.193196E+03	7.461258E-02	0.000000E+00
6.203011E+03	7.446287E-02	0.000000E+00
6.212826E+03	7.432099E-02	0.000000E+00
6.222641E+03	7.418663E-02	0.000000E+00
6.232456E+03	7.405854E-02	0.000000E+00
6.242271E+03	7.393555E-02	0.000000E+00
6.252086E+03	7.381621E-02	0.000000E+00
6.261901E+03	7.369830E-02	0.000000E+00
6.271715E+03	7.357946E-02	0.000000E+00
6.281530E+03	7.345934E-02	0.000000E+00
6.291345E+03	7.333471E-02	0.000000E+00
6.301160E+03	7.320529E-02	0.000000E+00
6.310975E+03	7.306880E-02	0.000000E+00
6.320790E+03	7.292421E-02	0.000000E+00
6.330605E+03	7.277151E-02	0.000000E+00
6.340420E+03	7.261177E-02	0.000000E+00
6.350235E+03	7.244419E-02	0.000000E+00
6.360049E+03	7.226905E-02	0.000000E+00
6.369864E+03	7.208678E-02	0.000000E+00
6.379679E+03	7.189568E-02	0.000000E+00
6.389494E+03	7.169738E-02	0.000000E+00
6.399309E+03	7.149154E-02	0.000000E+00
6.409124E+03	7.127666E-02	0.000000E+00
6.418939E+03	7.105479E-02	0.000000E+00
6.428754E+03	7.082460E-02	0.000000E+00
6.438569E+03	7.058495E-02	0.000000E+00
6.448383E+03	7.033794E-02	0.000000E+00
6.458198E+03	7.008263E-02	0.000000E+00
6.468013E+03	6.981903E-02	0.000000E+00
6.477828E+03	6.954855E-02	0.000000E+00
6.487643E+03	6.926907E-02	0.000000E+00
6.497458E+03	6.898098E-02	0.000000E+00
6.507273E+03	6.868683E-02	0.000000E+00
6.517088E+03	6.838480E-02	0.000000E+00
6.526903E+03	6.807528E-02	0.000000E+00
6.536718E+03	6.775985E-02	0.000000E+00
6.546532E+03	6.743800E-02	0.000000E+00
6.556347E+03	6.711024E-02	0.000000E+00
6.566162E+03	6.677827E-02	0.000000E+00
6.575977E+03	6.644055E-02	0.000000E+00
6.585792E+03	6.609764E-02	0.000000E+00
6.595607E+03	6.575258E-02	0.000000E+00
6.605422E+03	6.540376E-02	0.000000E+00
6.615237E+03	6.505203E-02	0.000000E+00
6.625052E+03	6.469918E-02	0.000000E+00
6.634866E+03	6.434498E-02	0.000000E+00
6.644681E+03	6.399017E-02	0.000000E+00
6.654496E+03	6.363562E-02	0.000000E+00
6.664311E+03	6.328207E-02	0.000000E+00
6.674126E+03	6.292930E-02	0.000000E+00
6.683941E+03	6.257916E-02	0.000000E+00
6.693756E+03	6.223263E-02	0.000000E+00
6.703571E+03	6.188924E-02	0.000000E+00
6.713386E+03	6.155099E-02	0.000000E+00
6.723200E+03	6.121745E-02	0.000000E+00
6.733015E+03	6.088940E-02	0.000000E+00
6.742830E+03	6.056753E-02	0.000000E+00
6.752645E+03	6.025138E-02	0.000000E+00
6.762460E+03	5.994370E-02	0.000000E+00
6.772275E+03	5.964408E-02	0.000000E+00
6.782090E+03	5.935172E-02	0.000000E+00
6.791905E+03	5.906832E-02	0.000000E+00
6.801720E+03	5.879301E-02	0.000000E+00
6.811534E+03	5.852610E-02	0.000000E+00
6.821349E+03	5.826888E-02	0.000000E+00
6.831164E+03	5.802044E-02	0.000000E+00
6.840979E+03	5.778079E-02	0.000000E+00
6.850794E+03	5.754993E-02	0.000000E+00
6.860609E+03	5.732776E-02	0.000000E+00
6.870424E+03	5.711301E-02	0.000000E+00
6.880239E+03	5.690768E-02	0.000000E+00
6.890054E+03	5.670926E-02	0.000000E+00
6.899868E+03	5.651740E-02	0.000000E+00
6.909683E+03	5.633283E-02	0.000000E+00
6.919498E+03	5.615402E-02	0.000000E+00
6.929313E+03	5.598050E-02	0.000000E+00
6.939128E+03	5.581179E-02	0.000000E+00
6.948943E+03	5.564738E-02	0.000000E+00
6.958758E+03	5.548788E-02	0.000000E+00
6.968573E+03	5.533057E-02	0.000000E+00
6.978388E+03	5.517495E-02	0.000000E+00
6.988203E+03	5.502162E-02	0.000000E+00
6.998017E+03	5.487014E-02	0.000000E+00
7.007832E+03	5.471895E-02	0.000000E+00
7.017647E+03	5.456876E-02	0.000000E+00
7.027462E+03	5.441697E-02	0.000000E+00
7.037277E+03	5.426547E-02	0.000000E+00
7.047092E+03	5.411287E-02	0.000000E+00
7.056907E+03	5.395891E-02	0.000000E+00
7.066722E+03	5.380228E-02	0.000000E+00
7.076537E+03	5.364507E-02	0.000000E+00
7.086351E+03	5.348493E-02	0.000000E+00
7.096166E+03	5.332292E-02	0.000000E+00
7.105981E+03	5.315791E-02	0.000000E+00
7.115796E+03	5.299105E-02	0.000000E+00
7.125611E+03	5.282129E-02	0.000000E+00
7.135426E+03	5.264876E-02	0.000000E+00
7.145241E+03	5.247470E-02	0.000000E+00
7.155056E+03	5.229820E-02	0.000000E+00
7.164871E+03	5.212058E-02	0.000000E+00
7.174685E+03	5.193987E-02	0.000000E+00
7.184500E+03	5.175745E-02	0.000000E+00
7.194315E+03	5.157473E-02	0.000000E+00
7.204130E+03	5.138977E-02	0.000000E+00
7.213945E+03	5.120404E-02	0.000000E+00
7.223760E+03	5.101674E-02	0.000000E+00
7.233575E+03	5.082933E-02	0.000000E+00
7.243390E+03	5.064103E-02	0.000000E+00
7.253205E+03	5.045219E-02	0.000000E+00
7.263019E+03	5.026315E-02	0.000000E+00
7.272834E+03	5.007311E-02	0.000000E+00
7.282649E+03	4.988242E-02	0.000000E+00
7.292464E+03	4.969137E-02	0.000000E+00
7.302279E+03	4.950025E-02	0.000000E+00
7.312094E+03	4.931043E-02	0.000000E+00
7.321909E+03	4.912107E-02	0.000000E+00
7.331724E+03	4.893460E-02	0.000000E+00
7.341539E+03	4.875123E-02	0.000000E+00
7.351353E+03	4.857115E-02	0.000000E+00
7.361168E+03	4.839452E-02	0.000000E+00
7.370983E+03	4.822148E-02	0.000000E+00
7.380798E+03	4.805437E-02	0.000000E+00
7.390613E+03	4.789109E-02	0.000000E+00
7.400428E+03	4.773282E-02	0.000000E+00
7.410243E+03	4.757963E-02	0.000000E+00
7.420058E+03	4.743266E-02	0.000000E+00
7.429873E+03	4.728974E-02	0.000000E+00
7.439687E+03	4.715199E-02	0.000000E+00
7.449502E+03	4.701942E-02	0.000000E+00
7.459317E+03	4.689311E-02	0.000000E+00
7.469132E+03	4.677083E-02	0.000000E+00
7.478947E+03	4.665476E-02	0.000000E+00
7.488762E+03	4.654375E-02	0.000000E+00
7.498577E+03	4.643664E-02	0.000000E+00
7.508392E+03	4.633559E-02	0.000000E+00
7.518207E+03	4.623941E-02	0.000000E+00
7.528022E+03	4.614805E-02	0.000000E+00
7.537836E+03	4.606142E-02	0.000000E+00
7.547651E+03	4.597944E-02	0.000000E+00
7.557466E+03	4.590202E-02	0.000000E+00
7.567281E+03	4.583020E-02	0.000000E+00
7.577096E+03	4.576167E-02	0.000000E+00
7.586911E+03	4.569854E-02	0.000000E+00
7.596726E+03	4.563963E-02	0.000000E+00
7.606541E+03	4.558483E-02	0.000000E+00
7.616356E+03	4.553404E-02	0.000000E+00
