#wls	flux	fluxerr
1.570383E+03	1.094120E-02	1.024788E-04
1.609642E+03	1.132960E-02	1.060605E-04
1.648902E+03	1.171514E-02	1.096100E-04
1.688161E+03	1.209557E-02	1.131063E-04
1.727421E+03	1.246828E-02	1.165247E-04
1.766680E+03	1.282390E-02	1.197779E-04
1.805940E+03	1.315086E-02	1.227578E-04
1.845200E+03	1.343439E-02	1.253271E-04
1.884459E+03	1.365685E-02	1.273217E-04
1.923719E+03	1.380493E-02	1.286188E-04
1.962978E+03	1.387878E-02	1.292209E-04
2.002238E+03	1.390818E-02	1.294063E-04
2.041497E+03	1.396592E-02	1.298529E-04
2.080757E+03	1.416470E-02	1.316070E-04
2.120016E+03	1.461588E-02	1.356994E-04
2.159276E+03	1.537942E-02	1.426813E-04
2.198536E+03	1.643620E-02	1.523684E-04
2.237795E+03	1.771255E-02	1.640713E-04
2.277055E+03	1.913223E-02	1.770791E-04
2.316314E+03	2.063914E-02	1.908689E-04
2.355574E+03	2.219974E-02	2.051281E-04
2.394833E+03	2.379896E-02	2.197154E-04
2.434093E+03	2.543407E-02	2.346037E-04
2.473353E+03	2.711097E-02	2.498457E-04
2.512612E+03	2.883653E-02	2.655026E-04
2.551872E+03	3.062120E-02	2.816683E-04
2.591131E+03	3.247279E-02	2.984121E-04
2.630391E+03	3.439585E-02	3.157728E-04
2.669650E+03	3.639651E-02	3.338035E-04
2.708910E+03	3.847610E-02	3.525132E-04
2.748170E+03	4.063379E-02	3.718906E-04
2.787429E+03	4.286535E-02	3.918937E-04
2.826689E+03	4.516595E-02	4.124749E-04
2.865948E+03	4.753791E-02	4.336519E-04
2.905208E+03	4.999716E-02	4.555661E-04
2.944467E+03	5.256380E-02	4.783963E-04
2.954282E+03	5.322417E-02	4.842639E-04
2.964097E+03	5.389470E-02	4.902199E-04
2.973912E+03	5.457284E-02	4.962407E-04
2.983727E+03	5.526024E-02	5.023413E-04
2.993542E+03	5.596156E-02	5.085640E-04
3.003357E+03	5.667648E-02	5.149059E-04
3.013172E+03	5.740679E-02	5.213828E-04
3.022986E+03	5.815179E-02	5.279884E-04
3.032801E+03	5.891081E-02	5.347164E-04
3.042616E+03	5.968326E-02	5.415613E-04
3.052431E+03	6.047103E-02	5.485401E-04
3.062246E+03	6.127232E-02	5.556365E-04
3.072061E+03	6.208785E-02	5.628566E-04
3.081876E+03	6.291713E-02	5.701960E-04
3.091691E+03	6.375968E-02	5.776501E-04
3.101506E+03	6.461629E-02	5.852259E-04
3.111320E+03	6.548774E-02	5.929304E-04
3.121135E+03	6.637118E-02	6.007376E-04
3.130950E+03	6.726991E-02	6.086773E-04
3.140765E+03	6.818236E-02	6.167350E-04
3.150580E+03	6.910934E-02	6.249179E-04
3.160395E+03	7.005053E-02	6.332231E-04
3.170210E+03	7.100443E-02	6.416367E-04
3.180025E+03	7.197429E-02	6.501880E-04
3.189840E+03	7.295627E-02	6.588422E-04
3.199655E+03	7.395367E-02	6.676288E-04
3.209469E+03	7.496624E-02	6.765454E-04
3.219284E+03	7.599128E-02	6.855677E-04
3.229099E+03	7.703217E-02	6.947257E-04
3.238914E+03	7.808625E-02	7.039954E-04
3.248729E+03	7.915452E-02	7.133858E-04
3.258544E+03	8.023672E-02	7.228941E-04
3.268359E+03	8.133385E-02	7.325293E-04
3.278174E+03	8.244451E-02	7.422787E-04
3.287989E+03	8.356853E-02	7.521404E-04
3.297803E+03	8.470568E-02	7.621124E-04
3.307618E+03	8.585697E-02	7.722035E-04
3.317433E+03	8.702107E-02	7.824015E-04
3.327248E+03	8.819774E-02	7.927042E-04
3.337063E+03	8.938691E-02	8.031108E-04
3.346878E+03	9.058721E-02	8.136088E-04
3.356693E+03	9.179846E-02	8.241965E-04
3.366508E+03	9.302060E-02	8.348732E-04
3.376323E+03	9.425223E-02	8.456262E-04
3.386137E+03	9.549330E-02	8.564548E-04
3.395952E+03	9.674250E-02	8.673473E-04
3.405767E+03	9.799851E-02	8.782917E-04
3.415582E+03	9.926010E-02	8.892768E-04
3.425397E+03	1.005249E-01	9.002815E-04
3.435212E+03	1.017928E-01	9.113039E-04
3.445027E+03	1.030613E-01	9.223236E-04
3.454842E+03	1.043272E-01	9.333090E-04
3.464657E+03	1.055856E-01	9.442190E-04
3.474471E+03	1.068356E-01	9.550436E-04
3.484286E+03	1.080725E-01	9.657422E-04
3.494101E+03	1.092896E-01	9.762552E-04
3.503916E+03	1.104837E-01	9.865529E-04
3.513731E+03	1.116505E-01	9.965970E-04
3.523546E+03	1.127843E-01	1.006339E-03
3.533361E+03	1.138788E-01	1.015721E-03
3.543176E+03	1.149319E-01	1.024724E-03
3.552991E+03	1.159393E-01	1.033314E-03
3.562805E+03	1.168970E-01	1.041451E-03
3.572620E+03	1.178062E-01	1.049149E-03
3.582435E+03	1.186651E-01	1.056392E-03
3.592250E+03	1.194729E-01	1.063173E-03
3.602065E+03	1.202302E-01	1.069498E-03
3.611880E+03	1.209375E-01	1.075372E-03
3.621695E+03	1.215948E-01	1.080796E-03
3.631510E+03	1.222056E-01	1.085801E-03
3.641325E+03	1.227698E-01	1.090386E-03
3.651140E+03	1.232913E-01	1.094587E-03
3.660954E+03	1.237761E-01	1.098457E-03
3.670769E+03	1.242265E-01	1.102018E-03
3.680584E+03	1.246532E-01	1.105365E-03
3.690399E+03	1.250606E-01	1.108536E-03
3.700214E+03	1.254598E-01	1.111630E-03
3.710029E+03	1.258590E-01	1.114721E-03
3.719844E+03	1.262661E-01	1.117878E-03
3.729659E+03	1.266893E-01	1.121172E-03
3.739474E+03	1.271343E-01	1.124656E-03
3.749288E+03	1.276068E-01	1.128379E-03
3.759103E+03	1.281102E-01	1.132370E-03
3.768918E+03	1.286455E-01	1.136638E-03
3.778733E+03	1.292130E-01	1.141187E-03
3.788548E+03	1.298119E-01	1.146006E-03
3.798363E+03	1.304392E-01	1.151071E-03
3.808178E+03	1.310920E-01	1.156356E-03
3.817993E+03	1.317671E-01	1.161832E-03
3.827808E+03	1.324595E-01	1.167454E-03
3.837622E+03	1.331650E-01	1.173185E-03
3.847437E+03	1.338780E-01	1.178976E-03
3.857252E+03	1.345944E-01	1.184791E-03
3.867067E+03	1.353079E-01	1.190575E-03
3.876882E+03	1.360127E-01	1.196275E-03
3.886697E+03	1.367004E-01	1.201820E-03
3.896512E+03	1.373664E-01	1.207167E-03
3.906327E+03	1.380013E-01	1.212236E-03
3.916142E+03	1.385977E-01	1.216961E-03
3.925956E+03	1.391465E-01	1.221262E-03
3.935771E+03	1.396408E-01	1.225082E-03
3.945586E+03	1.400707E-01	1.228332E-03
3.955401E+03	1.404296E-01	1.230955E-03
3.965216E+03	1.407084E-01	1.232873E-03
3.975031E+03	1.409023E-01	1.234045E-03
3.984846E+03	1.410048E-01	1.234414E-03
3.994661E+03	1.410131E-01	1.233958E-03
4.004476E+03	1.409264E-01	1.232669E-03
4.014290E+03	1.407456E-01	1.230559E-03
4.024105E+03	1.404715E-01	1.227633E-03
4.033920E+03	1.401084E-01	1.223932E-03
4.043735E+03	1.396611E-01	1.219498E-03
4.053550E+03	1.391366E-01	1.214393E-03
4.063365E+03	1.385429E-01	1.208687E-03
4.073180E+03	1.378871E-01	1.202444E-03
4.082995E+03	1.371800E-01	1.195758E-03
4.092810E+03	1.364307E-01	1.188710E-03
4.102625E+03	1.356513E-01	1.181405E-03
4.112439E+03	1.348551E-01	1.173959E-03
4.122254E+03	1.340545E-01	1.166480E-03
4.132069E+03	1.332645E-01	1.159101E-03
4.141884E+03	1.325003E-01	1.151950E-03
4.151699E+03	1.317790E-01	1.145179E-03
4.161514E+03	1.311138E-01	1.138899E-03
4.171329E+03	1.305214E-01	1.133257E-03
4.181144E+03	1.300149E-01	1.128365E-03
4.190959E+03	1.296088E-01	1.124348E-03
4.200773E+03	1.293124E-01	1.121284E-03
4.210588E+03	1.291356E-01	1.119260E-03
4.220403E+03	1.290859E-01	1.118338E-03
4.230218E+03	1.291644E-01	1.118526E-03
4.240033E+03	1.293730E-01	1.119842E-03
4.249848E+03	1.297050E-01	1.122222E-03
4.259663E+03	1.301551E-01	1.125622E-03
4.269478E+03	1.307085E-01	1.129911E-03
4.279293E+03	1.313524E-01	1.134979E-03
4.289107E+03	1.320750E-01	1.140722E-03
4.298922E+03	1.328598E-01	1.146996E-03
4.308737E+03	1.336905E-01	1.153661E-03
4.318552E+03	1.345501E-01	1.160570E-03
4.328367E+03	1.354203E-01	1.167563E-03
4.338182E+03	1.362882E-01	1.174531E-03
4.347997E+03	1.371384E-01	1.181341E-03
4.357812E+03	1.379599E-01	1.187898E-03
4.367627E+03	1.387425E-01	1.194114E-03
4.377441E+03	1.394794E-01	1.199932E-03
4.387256E+03	1.401634E-01	1.205290E-03
4.397071E+03	1.407922E-01	1.210169E-03
4.406886E+03	1.413612E-01	1.214531E-03
4.416701E+03	1.418673E-01	1.218349E-03
4.426516E+03	1.423099E-01	1.221619E-03
4.436331E+03	1.426833E-01	1.224293E-03
4.446146E+03	1.429849E-01	1.226350E-03
4.455961E+03	1.432117E-01	1.227764E-03
4.465775E+03	1.433586E-01	1.228493E-03
4.475590E+03	1.434228E-01	1.228513E-03
4.485405E+03	1.433996E-01	1.227787E-03
4.495220E+03	1.432876E-01	1.226302E-03
4.505035E+03	1.430852E-01	1.224045E-03
4.514850E+03	1.427922E-01	1.221017E-03
4.524665E+03	1.424090E-01	1.217222E-03
4.534480E+03	1.419413E-01	1.212708E-03
4.544295E+03	1.413916E-01	1.207500E-03
4.554109E+03	1.407676E-01	1.201662E-03
4.563924E+03	1.400764E-01	1.195258E-03
4.573739E+03	1.393252E-01	1.188349E-03
4.583554E+03	1.385247E-01	1.181026E-03
4.593369E+03	1.376810E-01	1.173343E-03
4.603184E+03	1.368038E-01	1.165382E-03
4.612999E+03	1.359037E-01	1.157234E-03
4.622814E+03	1.349872E-01	1.148956E-03
4.632629E+03	1.340632E-01	1.140621E-03
4.642444E+03	1.331399E-01	1.132301E-03
4.652258E+03	1.322240E-01	1.124053E-03
4.662073E+03	1.313216E-01	1.115927E-03
4.671888E+03	1.304406E-01	1.107992E-03
4.681703E+03	1.295834E-01	1.100268E-03
4.691518E+03	1.287569E-01	1.092812E-03
4.701333E+03	1.279647E-01	1.085655E-03
4.711148E+03	1.272087E-01	1.078812E-03
4.720963E+03	1.264938E-01	1.072326E-03
4.730778E+03	1.258211E-01	1.066204E-03
4.740592E+03	1.251925E-01	1.060463E-03
4.750407E+03	1.246105E-01	1.055124E-03
4.760222E+03	1.240777E-01	1.050207E-03
4.770037E+03	1.236000E-01	1.045761E-03
4.779852E+03	1.231780E-01	1.041794E-03
4.789667E+03	1.228193E-01	1.038366E-03
4.799482E+03	1.225284E-01	1.035518E-03
4.809297E+03	1.223131E-01	1.033312E-03
4.819112E+03	1.221790E-01	1.031796E-03
4.828926E+03	1.221326E-01	1.031025E-03
4.838741E+03	1.221815E-01	1.031060E-03
4.848556E+03	1.223283E-01	1.031925E-03
4.858371E+03	1.225780E-01	1.033660E-03
4.868186E+03	1.229327E-01	1.036281E-03
4.878001E+03	1.233924E-01	1.039788E-03
4.887816E+03	1.239537E-01	1.044152E-03
4.897631E+03	1.246122E-01	1.049335E-03
4.907446E+03	1.253623E-01	1.055289E-03
4.917260E+03	1.261924E-01	1.061914E-03
4.927075E+03	1.270937E-01	1.069139E-03
4.936890E+03	1.280508E-01	1.076830E-03
4.946705E+03	1.290489E-01	1.084865E-03
4.956520E+03	1.300735E-01	1.093122E-03
4.966335E+03	1.311067E-01	1.101450E-03
4.976150E+03	1.321319E-01	1.109708E-03
4.985965E+03	1.331309E-01	1.117745E-03
4.995780E+03	1.340885E-01	1.125435E-03
5.005594E+03	1.349893E-01	1.132647E-03
5.015409E+03	1.358160E-01	1.139238E-03
5.025224E+03	1.365564E-01	1.145107E-03
5.035039E+03	1.371987E-01	1.150153E-03
5.044854E+03	1.377322E-01	1.154290E-03
5.054669E+03	1.381469E-01	1.157434E-03
5.064484E+03	1.384357E-01	1.159526E-03
5.074299E+03	1.385921E-01	1.160514E-03
5.084114E+03	1.386159E-01	1.160397E-03
5.093929E+03	1.385039E-01	1.159148E-03
5.103743E+03	1.382578E-01	1.156783E-03
5.113558E+03	1.378819E-01	1.153339E-03
5.123373E+03	1.373845E-01	1.148887E-03
5.133188E+03	1.367726E-01	1.143485E-03
5.143003E+03	1.360578E-01	1.137232E-03
5.152818E+03	1.352564E-01	1.130263E-03
5.162633E+03	1.343793E-01	1.122672E-03
5.172448E+03	1.334445E-01	1.114607E-03
5.182263E+03	1.324658E-01	1.106186E-03
5.192077E+03	1.314576E-01	1.097527E-03
5.201892E+03	1.304342E-01	1.088752E-03
5.211707E+03	1.294043E-01	1.079931E-03
5.221522E+03	1.283787E-01	1.071157E-03
5.231337E+03	1.273652E-01	1.062493E-03
5.241152E+03	1.263697E-01	1.053989E-03
5.250967E+03	1.253982E-01	1.045694E-03
5.260782E+03	1.244516E-01	1.037615E-03
5.270597E+03	1.235334E-01	1.029783E-03
5.280411E+03	1.226457E-01	1.022213E-03
5.290226E+03	1.217888E-01	1.014909E-03
5.300041E+03	1.209668E-01	1.007904E-03
5.309856E+03	1.201801E-01	1.001201E-03
5.319671E+03	1.194294E-01	9.948057E-04
5.329486E+03	1.187143E-01	9.887148E-04
5.339301E+03	1.180298E-01	9.828854E-04
5.349116E+03	1.173674E-01	9.772464E-04
5.358931E+03	1.167225E-01	9.717603E-04
5.368745E+03	1.160904E-01	9.663879E-04
5.378560E+03	1.154650E-01	9.610766E-04
5.388375E+03	1.148429E-01	9.558000E-04
5.398190E+03	1.142232E-01	9.505484E-04
5.408005E+03	1.136031E-01	9.452997E-04
5.417820E+03	1.129808E-01	9.400393E-04
5.427635E+03	1.123558E-01	9.347609E-04
5.437450E+03	1.117314E-01	9.294938E-04
5.447265E+03	1.111064E-01	9.242258E-04
5.457079E+03	1.104843E-01	9.189886E-04
5.466894E+03	1.098675E-01	9.137988E-04
5.476709E+03	1.092592E-01	9.086862E-04
5.486524E+03	1.086636E-01	9.036827E-04
5.496339E+03	1.080833E-01	8.988119E-04
5.506154E+03	1.075235E-01	8.941154E-04
5.515969E+03	1.069869E-01	8.896163E-04
5.525784E+03	1.064759E-01	8.853339E-04
5.535599E+03	1.059956E-01	8.813113E-04
5.545414E+03	1.055472E-01	8.775579E-04
5.555228E+03	1.051310E-01	8.740751E-04
5.565043E+03	1.047481E-01	8.708731E-04
5.574858E+03	1.043985E-01	8.679522E-04
5.584673E+03	1.040776E-01	8.652730E-04
5.594488E+03	1.037825E-01	8.628110E-04
5.604303E+03	1.035087E-01	8.605302E-04
5.614118E+03	1.032486E-01	8.583659E-04
5.623933E+03	1.029958E-01	8.562649E-04
5.633748E+03	1.027412E-01	8.541530E-04
5.643562E+03	1.024785E-01	8.519753E-04
5.653377E+03	1.022002E-01	8.496719E-04
5.663192E+03	1.019011E-01	8.471979E-04
5.673007E+03	1.015732E-01	8.444876E-04
5.682822E+03	1.012153E-01	8.415296E-04
5.692637E+03	1.008216E-01	8.382770E-04
5.702452E+03	1.003912E-01	8.347213E-04
5.712267E+03	9.992319E-02	8.308551E-04
5.722082E+03	9.941810E-02	8.266829E-04
5.731896E+03	9.887891E-02	8.222292E-04
5.741711E+03	9.830863E-02	8.175189E-04
5.751526E+03	9.771135E-02	8.125859E-04
5.761341E+03	9.709073E-02	8.074605E-04
5.771156E+03	9.645412E-02	8.022038E-04
5.780971E+03	9.580587E-02	7.968517E-04
5.790786E+03	9.515228E-02	7.914567E-04
5.800601E+03	9.449713E-02	7.860500E-04
5.810416E+03	9.384582E-02	7.806766E-04
5.820230E+03	9.320206E-02	7.753671E-04
5.830045E+03	9.256862E-02	7.701446E-04
5.839860E+03	9.194775E-02	7.650276E-04
5.849675E+03	9.134086E-02	7.600280E-04
5.859490E+03	9.074984E-02	7.551614E-04
5.869305E+03	9.017285E-02	7.504123E-04
5.879120E+03	8.961166E-02	7.457955E-04
5.888935E+03	8.906458E-02	7.412969E-04
5.898750E+03	8.853056E-02	7.369078E-04
5.908564E+03	8.800927E-02	7.326252E-04
5.918379E+03	8.749709E-02	7.284191E-04
5.928194E+03	8.699443E-02	7.242929E-04
5.938009E+03	8.649758E-02	7.202155E-04
5.947824E+03	8.600613E-02	7.161836E-04
5.957639E+03	8.551911E-02	7.121889E-04
5.967454E+03	8.503514E-02	7.082201E-04
5.977269E+03	8.455465E-02	7.042805E-04
5.987084E+03	8.407895E-02	7.003812E-04
5.996898E+03	8.361018E-02	6.965398E-04
6.006713E+03	8.315122E-02	6.927804E-04
6.016528E+03	8.270532E-02	6.891299E-04
6.026343E+03	8.227612E-02	6.856188E-04
6.036158E+03	8.186711E-02	6.822760E-04
6.045973E+03	8.148249E-02	6.791367E-04
6.055788E+03	8.112613E-02	6.762330E-04
6.065603E+03	8.080115E-02	6.735911E-04
6.075418E+03	8.050909E-02	6.712238E-04
6.085233E+03	8.025097E-02	6.691396E-04
6.095047E+03	8.002619E-02	6.673337E-04
6.104862E+03	7.983508E-02	6.658087E-04
6.114677E+03	7.967763E-02	6.645648E-04
6.124492E+03	7.955286E-02	6.635937E-04
6.134307E+03	7.946167E-02	6.629031E-04
6.144122E+03	7.940616E-02	6.625105E-04
6.153937E+03	7.938496E-02	6.624046E-04
6.163752E+03	7.939855E-02	6.625893E-04
6.173567E+03	7.944814E-02	6.630750E-04
6.183381E+03	7.953101E-02	6.638390E-04
6.193196E+03	7.964808E-02	6.648890E-04
6.203011E+03	7.979728E-02	6.662079E-04
6.212826E+03	7.997337E-02	6.677519E-04
6.222641E+03	8.017479E-02	6.695080E-04
6.232456E+03	8.039729E-02	6.714409E-04
6.242271E+03	8.063512E-02	6.735025E-04
6.252086E+03	8.088343E-02	6.756524E-04
6.261901E+03	8.114006E-02	6.778725E-04
6.271715E+03	8.139848E-02	6.801082E-04
6.281530E+03	8.165475E-02	6.823267E-04
6.291345E+03	8.190686E-02	6.845111E-04
6.301160E+03	8.214712E-02	6.865972E-04
6.310975E+03	8.236962E-02	6.885353E-04
6.320790E+03	8.257006E-02	6.902897E-04
6.330605E+03	8.274506E-02	6.918318E-04
6.340420E+03	8.289032E-02	6.931257E-04
6.350235E+03	8.300493E-02	6.941637E-04
6.360049E+03	8.308717E-02	6.949313E-04
6.369864E+03	8.313705E-02	6.954283E-04
6.379679E+03	8.315360E-02	6.956466E-04
6.389494E+03	8.313737E-02	6.955909E-04
6.399309E+03	8.308899E-02	6.952660E-04
6.409124E+03	8.300788E-02	6.946672E-04
6.418939E+03	8.289613E-02	6.938118E-04
6.428754E+03	8.275450E-02	6.927060E-04
6.438569E+03	8.258248E-02	6.913456E-04
6.448383E+03	8.238234E-02	6.897494E-04
6.458198E+03	8.215369E-02	6.879140E-04
6.468013E+03	8.189754E-02	6.858477E-04
6.477828E+03	8.161642E-02	6.835718E-04
6.487643E+03	8.130896E-02	6.810747E-04
6.497458E+03	8.098047E-02	6.784008E-04
6.507273E+03	8.062828E-02	6.755275E-04
6.517088E+03	8.025609E-02	6.724859E-04
6.526903E+03	7.986343E-02	6.692719E-04
6.536718E+03	7.945106E-02	6.658920E-04
6.546532E+03	7.902062E-02	6.623596E-04
6.556347E+03	7.857108E-02	6.586662E-04
6.566162E+03	7.810275E-02	6.548144E-04
6.575977E+03	7.761600E-02	6.508069E-04
6.585792E+03	7.711283E-02	6.466609E-04
6.595607E+03	7.659159E-02	6.423622E-04
6.605422E+03	7.605617E-02	6.379434E-04
6.615237E+03	7.550683E-02	6.334067E-04
6.625052E+03	7.494549E-02	6.287681E-04
6.634866E+03	7.437402E-02	6.240433E-04
6.644681E+03	7.379429E-02	6.192481E-04
6.654496E+03	7.320935E-02	6.144079E-04
6.664311E+03	7.261837E-02	6.095159E-04
6.674126E+03	7.202411E-02	6.045949E-04
6.683941E+03	7.142817E-02	5.996587E-04
6.693756E+03	7.083218E-02	5.947209E-04
6.703571E+03	7.023791E-02	5.897962E-04
6.713386E+03	6.964728E-02	5.849009E-04
6.723200E+03	6.906248E-02	5.800532E-04
6.733015E+03	6.848455E-02	5.752622E-04
6.742830E+03	6.791726E-02	5.705593E-04
6.752645E+03	6.736332E-02	5.659675E-04
6.762460E+03	6.682427E-02	5.614997E-04
6.772275E+03	6.630426E-02	5.571907E-04
6.782090E+03	6.580616E-02	5.530648E-04
6.791905E+03	6.533171E-02	5.491367E-04
6.801720E+03	6.488358E-02	5.454289E-04
6.811534E+03	6.446567E-02	5.419744E-04
6.821349E+03	6.407876E-02	5.387795E-04
6.831164E+03	6.372435E-02	5.358572E-04
6.840979E+03	6.340442E-02	5.332242E-04
6.850794E+03	6.311747E-02	5.308679E-04
6.860609E+03	6.286222E-02	5.287777E-04
6.870424E+03	6.263540E-02	5.269261E-04
6.880239E+03	6.243649E-02	5.253089E-04
6.890054E+03	6.226074E-02	5.238863E-04
6.899868E+03	6.210437E-02	5.226263E-04
6.909683E+03	6.196206E-02	5.214843E-04
6.919498E+03	6.183112E-02	5.204378E-04
6.929313E+03	6.170645E-02	5.194438E-04
6.939128E+03	6.158698E-02	5.184934E-04
6.948943E+03	6.146564E-02	5.175270E-04
6.958758E+03	6.134191E-02	5.165403E-04
6.968573E+03	6.121184E-02	5.155000E-04
6.978388E+03	6.107418E-02	5.143956E-04
6.988203E+03	6.092446E-02	5.131894E-04
6.998017E+03	6.076335E-02	5.118870E-04
7.007832E+03	6.058699E-02	5.104559E-04
7.017647E+03	6.039559E-02	5.088978E-04
7.027462E+03	6.018843E-02	5.072067E-04
7.037277E+03	5.996506E-02	5.053787E-04
7.047092E+03	5.972426E-02	5.034035E-04
7.056907E+03	5.946609E-02	5.012815E-04
7.066722E+03	5.919200E-02	4.990250E-04
7.076537E+03	5.890103E-02	4.966258E-04
7.086351E+03	5.859471E-02	4.940967E-04
7.096166E+03	5.827085E-02	4.914194E-04
7.105981E+03	5.793212E-02	4.886163E-04
7.115796E+03	5.757758E-02	4.856792E-04
7.125611E+03	5.720762E-02	4.826117E-04
7.135426E+03	5.682279E-02	4.794183E-04
7.145241E+03	5.642366E-02	4.761036E-04
7.155056E+03	5.601112E-02	4.726753E-04
7.164871E+03	5.558746E-02	4.691526E-04
7.174685E+03	5.515151E-02	4.655257E-04
7.184500E+03	5.470838E-02	4.618376E-04
7.194315E+03	5.425849E-02	4.580917E-04
7.204130E+03	5.380227E-02	4.542920E-04
7.213945E+03	5.334506E-02	4.504832E-04
7.223760E+03	5.288608E-02	4.466590E-04
7.233575E+03	5.243047E-02	4.428626E-04
7.243390E+03	5.197831E-02	4.390949E-04
7.253205E+03	5.153200E-02	4.353760E-04
7.263019E+03	5.109356E-02	4.317231E-04
7.272834E+03	5.066380E-02	4.281430E-04
7.282649E+03	5.024571E-02	4.246612E-04
7.292464E+03	4.984098E-02	4.212917E-04
7.302279E+03	4.944888E-02	4.180286E-04
7.312094E+03	4.906986E-02	4.148757E-04
7.321909E+03	4.870432E-02	4.118365E-04
7.331724E+03	4.835151E-02	4.089046E-04
7.341539E+03	4.801064E-02	4.060734E-04
7.351353E+03	4.768092E-02	4.033362E-04
7.361168E+03	4.736265E-02	4.006956E-04
7.370983E+03	4.705490E-02	3.981439E-04
7.380798E+03	4.675670E-02	3.956728E-04
7.390613E+03	4.646923E-02	3.932925E-04
7.400428E+03	4.619018E-02	3.909833E-04
7.410243E+03	4.591942E-02	3.887441E-04
7.420058E+03	4.565672E-02	3.865732E-04
7.429873E+03	4.540185E-02	3.844685E-04
7.439687E+03	4.515458E-02	3.824282E-04
7.449502E+03	4.491355E-02	3.804408E-04
7.459317E+03	4.467859E-02	3.785048E-04
7.469132E+03	4.445064E-02	3.766282E-04
7.478947E+03	4.422842E-02	3.748003E-04
7.488762E+03	4.401289E-02	3.730292E-04
7.498577E+03	4.380168E-02	3.712949E-04
7.508392E+03	4.359688E-02	3.696150E-04
7.518207E+03	4.339725E-02	3.679791E-04
7.528022E+03	4.320263E-02	3.663860E-04
7.537836E+03	4.301289E-02	3.648344E-04
7.547651E+03	4.282900E-02	3.633327E-04
7.557466E+03	4.264970E-02	3.618702E-04
7.567281E+03	4.247484E-02	3.604456E-04
7.577096E+03	4.230537E-02	3.590671E-04
7.586911E+03	4.214114E-02	3.577334E-04
7.596726E+03	4.198088E-02	3.564337E-04
7.606541E+03	4.182554E-02	3.551762E-04
7.616356E+03	4.167496E-02	3.539594E-04
