#wls	flux	fluxerr
1.570383E+03	1.096720E-02	1.337211E-04
1.609642E+03	1.136719E-02	1.385233E-04
1.648902E+03	1.176528E-02	1.432953E-04
1.688161E+03	1.216034E-02	1.480229E-04
1.727421E+03	1.254843E-02	1.526580E-04
1.766680E+03	1.292118E-02	1.570989E-04
1.805940E+03	1.326552E-02	1.611869E-04
1.845200E+03	1.356750E-02	1.647527E-04
1.884459E+03	1.381013E-02	1.675911E-04
1.923719E+03	1.397831E-02	1.695203E-04
1.962978E+03	1.407283E-02	1.705511E-04
2.002238E+03	1.412224E-02	1.710315E-04
2.041497E+03	1.420028E-02	1.718546E-04
2.080757E+03	1.442267E-02	1.744191E-04
2.120016E+03	1.490143E-02	1.800748E-04
2.159276E+03	1.569679E-02	1.895417E-04
2.198536E+03	1.678925E-02	2.025750E-04
2.237795E+03	1.809576E-02	2.181645E-04
2.277055E+03	1.954164E-02	2.354036E-04
2.316314E+03	2.107075E-02	2.536111E-04
2.355574E+03	2.264927E-02	2.723768E-04
2.394833E+03	2.426261E-02	2.915228E-04
2.434093E+03	2.591023E-02	3.110404E-04
2.473353E+03	2.759819E-02	3.309999E-04
2.512612E+03	2.933366E-02	3.514844E-04
2.551872E+03	3.112613E-02	3.726049E-04
2.591131E+03	3.298378E-02	3.944557E-04
2.630391E+03	3.491284E-02	4.171076E-04
2.669650E+03	3.691732E-02	4.406043E-04
2.708910E+03	3.900156E-02	4.649933E-04
2.748170E+03	4.116272E-02	4.902361E-04
2.787429E+03	4.339709E-02	5.162841E-04
2.826689E+03	4.570428E-02	5.431277E-04
2.865948E+03	4.808698E-02	5.707945E-04
2.905208E+03	5.055766E-02	5.994272E-04
2.944467E+03	5.313430E-02	6.292333E-04
2.954282E+03	5.379685E-02	6.368891E-04
2.964097E+03	5.446730E-02	6.446328E-04
2.973912E+03	5.514688E-02	6.524789E-04
2.983727E+03	5.583599E-02	6.604320E-04
2.993542E+03	5.653685E-02	6.685181E-04
3.003357E+03	5.725287E-02	6.767776E-04
3.013172E+03	5.798216E-02	6.851876E-04
3.022986E+03	5.872645E-02	6.937687E-04
3.032801E+03	5.948389E-02	7.024986E-04
3.042616E+03	6.025507E-02	7.113842E-04
3.052431E+03	6.103949E-02	7.204194E-04
3.062246E+03	6.183773E-02	7.296109E-04
3.072061E+03	6.264936E-02	7.389534E-04
3.081876E+03	6.347386E-02	7.484406E-04
3.091691E+03	6.431200E-02	7.580813E-04
3.101506E+03	6.516207E-02	7.678553E-04
3.111320E+03	6.602618E-02	7.777871E-04
3.121135E+03	6.690262E-02	7.878565E-04
3.130950E+03	6.779232E-02	7.980743E-04
3.140765E+03	6.869485E-02	8.084351E-04
3.150580E+03	6.960990E-02	8.189352E-04
3.160395E+03	7.053836E-02	8.295849E-04
3.170210E+03	7.147988E-02	8.403796E-04
3.180025E+03	7.243298E-02	8.513021E-04
3.189840E+03	7.340099E-02	8.623910E-04
3.199655E+03	7.438001E-02	8.736005E-04
3.209469E+03	7.537339E-02	8.849697E-04
3.219284E+03	7.637843E-02	8.964668E-04
3.229099E+03	7.739614E-02	9.081032E-04
3.238914E+03	7.842746E-02	9.198899E-04
3.248729E+03	7.946974E-02	9.317956E-04
3.258544E+03	8.052516E-02	9.438457E-04
3.268359E+03	8.159347E-02	9.560371E-04
3.278174E+03	8.267332E-02	9.683537E-04
3.287989E+03	8.376446E-02	9.807924E-04
3.297803E+03	8.486673E-02	9.933511E-04
3.307618E+03	8.598108E-02	1.006041E-03
3.317433E+03	8.710494E-02	1.018831E-03
3.327248E+03	8.824051E-02	1.031748E-03
3.337063E+03	8.938524E-02	1.044761E-03
3.346878E+03	9.053891E-02	1.057867E-03
3.356693E+03	9.170253E-02	1.071079E-03
3.366508E+03	9.287243E-02	1.084353E-03
3.376323E+03	9.405075E-02	1.097714E-03
3.386137E+03	9.523613E-02	1.111146E-03
3.395952E+03	9.642493E-02	1.124606E-03
3.405767E+03	9.761927E-02	1.138119E-03
3.415582E+03	9.881557E-02	1.151644E-03
3.425397E+03	1.000136E-01	1.165177E-03
3.435212E+03	1.012121E-01	1.178704E-03
3.445027E+03	1.024064E-01	1.192169E-03
3.454842E+03	1.035963E-01	1.205572E-03
3.464657E+03	1.047783E-01	1.218871E-03
3.474471E+03	1.059490E-01	1.232026E-03
3.484286E+03	1.071059E-01	1.245011E-03
3.494101E+03	1.082447E-01	1.257772E-03
3.503916E+03	1.093619E-01	1.270271E-03
3.513731E+03	1.104531E-01	1.282458E-03
3.523546E+03	1.115164E-01	1.294308E-03
3.533361E+03	1.125484E-01	1.305784E-03
3.543176E+03	1.135449E-01	1.316839E-03
3.552991E+03	1.145043E-01	1.327452E-03
3.562805E+03	1.154246E-01	1.337603E-03
3.572620E+03	1.163020E-01	1.347247E-03
3.582435E+03	1.171385E-01	1.356407E-03
3.592250E+03	1.179305E-01	1.365043E-03
3.602065E+03	1.186792E-01	1.373170E-03
3.611880E+03	1.193850E-01	1.380791E-03
3.621695E+03	1.200485E-01	1.387916E-03
3.631510E+03	1.206720E-01	1.394572E-03
3.641325E+03	1.212592E-01	1.400800E-03
3.651140E+03	1.218101E-01	1.406602E-03
3.660954E+03	1.223314E-01	1.412055E-03
3.670769E+03	1.228251E-01	1.417185E-03
3.680584E+03	1.232968E-01	1.422054E-03
3.690399E+03	1.237523E-01	1.426731E-03
3.700214E+03	1.241944E-01	1.431247E-03
3.710029E+03	1.246311E-01	1.435696E-03
3.719844E+03	1.250659E-01	1.440117E-03
3.729659E+03	1.255040E-01	1.444571E-03
3.739474E+03	1.259489E-01	1.449097E-03
3.749288E+03	1.264045E-01	1.453741E-03
3.759103E+03	1.268727E-01	1.458524E-03
3.768918E+03	1.273555E-01	1.463468E-03
3.778733E+03	1.278530E-01	1.468577E-03
3.788548E+03	1.283667E-01	1.473864E-03
3.798363E+03	1.288949E-01	1.479312E-03
3.808178E+03	1.294355E-01	1.484895E-03
3.817993E+03	1.299864E-01	1.490591E-03
3.827808E+03	1.305442E-01	1.496359E-03
3.837622E+03	1.311069E-01	1.502176E-03
3.847437E+03	1.316700E-01	1.507991E-03
3.857252E+03	1.322295E-01	1.513758E-03
3.867067E+03	1.327802E-01	1.519418E-03
3.876882E+03	1.333163E-01	1.524905E-03
3.886697E+03	1.338351E-01	1.530187E-03
3.896512E+03	1.343284E-01	1.535171E-03
3.906327E+03	1.347917E-01	1.539807E-03
3.916142E+03	1.352188E-01	1.544024E-03
3.925956E+03	1.356042E-01	1.547760E-03
3.935771E+03	1.359429E-01	1.550958E-03
3.945586E+03	1.362279E-01	1.553540E-03
3.955401E+03	1.364558E-01	1.555467E-03
3.965216E+03	1.366220E-01	1.556686E-03
3.975031E+03	1.367233E-01	1.557166E-03
3.984846E+03	1.367569E-01	1.556872E-03
3.994661E+03	1.367207E-01	1.555782E-03
4.004476E+03	1.366158E-01	1.553911E-03
4.014290E+03	1.364417E-01	1.551253E-03
4.024105E+03	1.362008E-01	1.547837E-03
4.033920E+03	1.358967E-01	1.543705E-03
4.043735E+03	1.355322E-01	1.538890E-03
4.053550E+03	1.351141E-01	1.533469E-03
4.063365E+03	1.346471E-01	1.527496E-03
4.073180E+03	1.341387E-01	1.521059E-03
4.082995E+03	1.335976E-01	1.514255E-03
4.092810E+03	1.330308E-01	1.507165E-03
4.102625E+03	1.324491E-01	1.499912E-03
4.112439E+03	1.318600E-01	1.492580E-03
4.122254E+03	1.312761E-01	1.485313E-03
4.132069E+03	1.307058E-01	1.478205E-03
4.141884E+03	1.301601E-01	1.471381E-03
4.151699E+03	1.296493E-01	1.464955E-03
4.161514E+03	1.291840E-01	1.459050E-03
4.171329E+03	1.287716E-01	1.453745E-03
4.181144E+03	1.284226E-01	1.449160E-03
4.190959E+03	1.281433E-01	1.445366E-03
4.200773E+03	1.279391E-01	1.442419E-03
4.210588E+03	1.278156E-01	1.440384E-03
4.220403E+03	1.277756E-01	1.439293E-03
4.230218E+03	1.278186E-01	1.439135E-03
4.240033E+03	1.279435E-01	1.439899E-03
4.249848E+03	1.281476E-01	1.441553E-03
4.259663E+03	1.284261E-01	1.444042E-03
4.269478E+03	1.287728E-01	1.447294E-03
4.279293E+03	1.291803E-01	1.451226E-03
4.289107E+03	1.296394E-01	1.455735E-03
4.298922E+03	1.301398E-01	1.460703E-03
4.308737E+03	1.306737E-01	1.466042E-03
4.318552E+03	1.312299E-01	1.471626E-03
4.328367E+03	1.317984E-01	1.477343E-03
4.338182E+03	1.323706E-01	1.483096E-03
4.347997E+03	1.329376E-01	1.488787E-03
4.357812E+03	1.334904E-01	1.494313E-03
4.367627E+03	1.340226E-01	1.499604E-03
4.377441E+03	1.345270E-01	1.504581E-03
4.387256E+03	1.349984E-01	1.509183E-03
4.397071E+03	1.354320E-01	1.513361E-03
4.406886E+03	1.358221E-01	1.517049E-03
4.416701E+03	1.361665E-01	1.520224E-03
4.426516E+03	1.364612E-01	1.522842E-03
4.436331E+03	1.367026E-01	1.524864E-03
4.446146E+03	1.368887E-01	1.526268E-03
4.455961E+03	1.370153E-01	1.527009E-03
4.465775E+03	1.370808E-01	1.527070E-03
4.475590E+03	1.370843E-01	1.526441E-03
4.485405E+03	1.370239E-01	1.525102E-03
4.495220E+03	1.368974E-01	1.523031E-03
4.505035E+03	1.367057E-01	1.520236E-03
4.514850E+03	1.364490E-01	1.516724E-03
4.524665E+03	1.361289E-01	1.512511E-03
4.534480E+03	1.357485E-01	1.507634E-03
4.544295E+03	1.353099E-01	1.502115E-03
4.554109E+03	1.348180E-01	1.496012E-03
4.563924E+03	1.342773E-01	1.489375E-03
4.573739E+03	1.336930E-01	1.482261E-03
4.583554E+03	1.330704E-01	1.474731E-03
4.593369E+03	1.324154E-01	1.466850E-03
4.603184E+03	1.317339E-01	1.458683E-03
4.612999E+03	1.310340E-01	1.450323E-03
4.622814E+03	1.303219E-01	1.441835E-03
4.632629E+03	1.296031E-01	1.433284E-03
4.642444E+03	1.288857E-01	1.424757E-03
4.652258E+03	1.281738E-01	1.416300E-03
4.662073E+03	1.274725E-01	1.407969E-03
4.671888E+03	1.267876E-01	1.399829E-03
4.681703E+03	1.261237E-01	1.391929E-03
4.691518E+03	1.254836E-01	1.384300E-03
4.701333E+03	1.248722E-01	1.376998E-03
4.711148E+03	1.242931E-01	1.370060E-03
4.720963E+03	1.237485E-01	1.363509E-03
4.730778E+03	1.232426E-01	1.357393E-03
4.740592E+03	1.227785E-01	1.351745E-03
4.750407E+03	1.223592E-01	1.346597E-03
4.760222E+03	1.219878E-01	1.341984E-03
4.770037E+03	1.216665E-01	1.337929E-03
4.779852E+03	1.214009E-01	1.334491E-03
4.789667E+03	1.211923E-01	1.331685E-03
4.799482E+03	1.210441E-01	1.329548E-03
4.809297E+03	1.209608E-01	1.328129E-03
4.819112E+03	1.209458E-01	1.327465E-03
4.828926E+03	1.210020E-01	1.327585E-03
4.838741E+03	1.211294E-01	1.328489E-03
4.848556E+03	1.213318E-01	1.330220E-03
4.858371E+03	1.216088E-01	1.332770E-03
4.868186E+03	1.219601E-01	1.336136E-03
4.878001E+03	1.223840E-01	1.340299E-03
4.887816E+03	1.228776E-01	1.345226E-03
4.897631E+03	1.234354E-01	1.350856E-03
4.907446E+03	1.240519E-01	1.357129E-03
4.917260E+03	1.247213E-01	1.363980E-03
4.927075E+03	1.254341E-01	1.371306E-03
4.936890E+03	1.261801E-01	1.378994E-03
4.946705E+03	1.269513E-01	1.386957E-03
4.956520E+03	1.277333E-01	1.395039E-03
4.966335E+03	1.285171E-01	1.403138E-03
4.976150E+03	1.292909E-01	1.411130E-03
4.985965E+03	1.300394E-01	1.418845E-03
4.995780E+03	1.307547E-01	1.426198E-03
5.005594E+03	1.314232E-01	1.433043E-03
5.015409E+03	1.320344E-01	1.439264E-03
5.025224E+03	1.325799E-01	1.444771E-03
5.035039E+03	1.330483E-01	1.449441E-03
5.044854E+03	1.334321E-01	1.453193E-03
5.054669E+03	1.337262E-01	1.455973E-03
5.064484E+03	1.339245E-01	1.457714E-03
5.074299E+03	1.340235E-01	1.458381E-03
5.084114E+03	1.340201E-01	1.457941E-03
5.093929E+03	1.339156E-01	1.456407E-03
5.103743E+03	1.337088E-01	1.453769E-03
5.113558E+03	1.334054E-01	1.450090E-03
5.123373E+03	1.330090E-01	1.445408E-03
5.133188E+03	1.325244E-01	1.439778E-03
5.143003E+03	1.319592E-01	1.433282E-03
5.152818E+03	1.313229E-01	1.426025E-03
5.162633E+03	1.306221E-01	1.418079E-03
5.172448E+03	1.298678E-01	1.409563E-03
5.182263E+03	1.290709E-01	1.400596E-03
5.192077E+03	1.282370E-01	1.391240E-03
5.201892E+03	1.273789E-01	1.381633E-03
5.211707E+03	1.265013E-01	1.371826E-03
5.221522E+03	1.256156E-01	1.361943E-03
5.231337E+03	1.247248E-01	1.352017E-03
5.241152E+03	1.238374E-01	1.342139E-03
5.250967E+03	1.229585E-01	1.332366E-03
5.260782E+03	1.220914E-01	1.322731E-03
5.270597E+03	1.212423E-01	1.313303E-03
5.280411E+03	1.204107E-01	1.304076E-03
5.290226E+03	1.196028E-01	1.295116E-03
5.300041E+03	1.188194E-01	1.286433E-03
5.309856E+03	1.180618E-01	1.278038E-03
5.319671E+03	1.173303E-01	1.269937E-03
5.329486E+03	1.166243E-01	1.262121E-03
5.339301E+03	1.159412E-01	1.254562E-03
5.349116E+03	1.152785E-01	1.247234E-03
5.358931E+03	1.146337E-01	1.240107E-03
5.368745E+03	1.140042E-01	1.233154E-03
5.378560E+03	1.133862E-01	1.226334E-03
5.388375E+03	1.127766E-01	1.219614E-03
5.398190E+03	1.121751E-01	1.212988E-03
5.408005E+03	1.115795E-01	1.206434E-03
5.417820E+03	1.109882E-01	1.199933E-03
5.427635E+03	1.104002E-01	1.193476E-03
5.437450E+03	1.098173E-01	1.187080E-03
5.447265E+03	1.092383E-01	1.180734E-03
5.457079E+03	1.086658E-01	1.174464E-03
5.466894E+03	1.080993E-01	1.168266E-03
5.476709E+03	1.075410E-01	1.162163E-03
5.486524E+03	1.069941E-01	1.156189E-03
5.496339E+03	1.064585E-01	1.150343E-03
5.506154E+03	1.059376E-01	1.144661E-03
5.515969E+03	1.054331E-01	1.139163E-03
5.525784E+03	1.049457E-01	1.133854E-03
5.535599E+03	1.044764E-01	1.128746E-03
5.545414E+03	1.040271E-01	1.123860E-03
5.555228E+03	1.035979E-01	1.119194E-03
5.565043E+03	1.031870E-01	1.114732E-03
5.574858E+03	1.027943E-01	1.110471E-03
5.584673E+03	1.024187E-01	1.106399E-03
5.594488E+03	1.020553E-01	1.102464E-03
5.604303E+03	1.017019E-01	1.098640E-03
5.614118E+03	1.013556E-01	1.094897E-03
5.623933E+03	1.010123E-01	1.091191E-03
5.633748E+03	1.006674E-01	1.087471E-03
5.643562E+03	1.003165E-01	1.083690E-03
5.653377E+03	9.995536E-02	1.079802E-03
5.663192E+03	9.958117E-02	1.075777E-03
5.673007E+03	9.918944E-02	1.071565E-03
5.682822E+03	9.877947E-02	1.067160E-03
5.692637E+03	9.834809E-02	1.062527E-03
5.702452E+03	9.789389E-02	1.057650E-03
5.712267E+03	9.741845E-02	1.052546E-03
5.722082E+03	9.691987E-02	1.047195E-03
5.731896E+03	9.640014E-02	1.041619E-03
5.741711E+03	9.586186E-02	1.035844E-03
5.751526E+03	9.530626E-02	1.029885E-03
5.761341E+03	9.473684E-02	1.023778E-03
5.771156E+03	9.415561E-02	1.017546E-03
5.780971E+03	9.356765E-02	1.011243E-03
5.790786E+03	9.297512E-02	1.004893E-03
5.800601E+03	9.238093E-02	9.985267E-04
5.810416E+03	9.178902E-02	9.921866E-04
5.820230E+03	9.120092E-02	9.858892E-04
5.830045E+03	9.061987E-02	9.796695E-04
5.839860E+03	9.004664E-02	9.735357E-04
5.849675E+03	8.948374E-02	9.675150E-04
5.859490E+03	8.893222E-02	9.616184E-04
5.869305E+03	8.839285E-02	9.558543E-04
5.879120E+03	8.786488E-02	9.502147E-04
5.888935E+03	8.734951E-02	9.447122E-04
5.898750E+03	8.684653E-02	9.393448E-04
5.908564E+03	8.635465E-02	9.340982E-04
5.918379E+03	8.587443E-02	9.289787E-04
5.928194E+03	8.540446E-02	9.239708E-04
5.938009E+03	8.494328E-02	9.190587E-04
5.947824E+03	8.449273E-02	9.142623E-04
5.957639E+03	8.405068E-02	9.095584E-04
5.967454E+03	8.361842E-02	9.049611E-04
5.977269E+03	8.319453E-02	9.004548E-04
5.987084E+03	8.278081E-02	8.960591E-04
5.996898E+03	8.237748E-02	8.917762E-04
6.006713E+03	8.198597E-02	8.876218E-04
6.016528E+03	8.160803E-02	8.836146E-04
6.026343E+03	8.124439E-02	8.797626E-04
6.036158E+03	8.089686E-02	8.760852E-04
6.045973E+03	8.056717E-02	8.726014E-04
6.055788E+03	8.025697E-02	8.693290E-04
6.065603E+03	7.996761E-02	8.662826E-04
6.075418E+03	7.969930E-02	8.634645E-04
6.085233E+03	7.945395E-02	8.608954E-04
6.095047E+03	7.923218E-02	8.585821E-04
6.104862E+03	7.903445E-02	8.565297E-04
6.114677E+03	7.886187E-02	8.547500E-04
6.124492E+03	7.871545E-02	8.532543E-04
6.134307E+03	7.859582E-02	8.520494E-04
6.144122E+03	7.850357E-02	8.511416E-04
6.153937E+03	7.843874E-02	8.505316E-04
6.163752E+03	7.840237E-02	8.502307E-04
6.173567E+03	7.839177E-02	8.502096E-04
6.183381E+03	7.840934E-02	8.504947E-04
6.193196E+03	7.845162E-02	8.510483E-04
6.203011E+03	7.851810E-02	8.518650E-04
6.212826E+03	7.860669E-02	8.529223E-04
6.222641E+03	7.871505E-02	8.541948E-04
6.232456E+03	7.883944E-02	8.556419E-04
6.242271E+03	7.897701E-02	8.572327E-04
6.252086E+03	7.912495E-02	8.589367E-04
6.261901E+03	7.927917E-02	8.607096E-04
6.271715E+03	7.943577E-02	8.625090E-04
6.281530E+03	7.959221E-02	8.643074E-04
6.291345E+03	7.974260E-02	8.660406E-04
6.301160E+03	7.988371E-02	8.676737E-04
6.310975E+03	8.001155E-02	8.691632E-04
6.320790E+03	8.012121E-02	8.704557E-04
6.330605E+03	8.021167E-02	8.715399E-04
6.340420E+03	8.027892E-02	8.723723E-04
6.350235E+03	8.032266E-02	8.729496E-04
6.360049E+03	8.034206E-02	8.732625E-04
6.369864E+03	8.033519E-02	8.732899E-04
6.379679E+03	8.030168E-02	8.730278E-04
6.389494E+03	8.024148E-02	8.724753E-04
6.399309E+03	8.015463E-02	8.716331E-04
6.409124E+03	8.004135E-02	8.705031E-04
6.418939E+03	7.990343E-02	8.691048E-04
6.428754E+03	7.973999E-02	8.674285E-04
6.438569E+03	7.955041E-02	8.654675E-04
6.448383E+03	7.933793E-02	8.632567E-04
6.458198E+03	7.910070E-02	8.607760E-04
6.468013E+03	7.884087E-02	8.580486E-04
6.477828E+03	7.855915E-02	8.550823E-04
6.487643E+03	7.825653E-02	8.518876E-04
6.497458E+03	7.793377E-02	8.484728E-04
6.507273E+03	7.759051E-02	8.448338E-04
6.517088E+03	7.722885E-02	8.409935E-04
6.526903E+03	7.684823E-02	8.369457E-04
6.536718E+03	7.645064E-02	8.327119E-04
6.546532E+03	7.603564E-02	8.282873E-04
6.556347E+03	7.560387E-02	8.236788E-04
6.566162E+03	7.515740E-02	8.189089E-04
6.575977E+03	7.469698E-02	8.139858E-04
6.585792E+03	7.422105E-02	8.088922E-04
6.595607E+03	7.373312E-02	8.036665E-04
6.605422E+03	7.323182E-02	7.982936E-04
6.615237E+03	7.272094E-02	7.928149E-04
6.625052E+03	7.220053E-02	7.872309E-04
6.634866E+03	7.167080E-02	7.815438E-04
6.644681E+03	7.113580E-02	7.757977E-04
6.654496E+03	7.059456E-02	7.699820E-04
6.664311E+03	7.004990E-02	7.641275E-04
6.674126E+03	6.950346E-02	7.582520E-04
6.683941E+03	6.895698E-02	7.523747E-04
6.693756E+03	6.841093E-02	7.465005E-04
6.703571E+03	6.786834E-02	7.406626E-04
6.713386E+03	6.732993E-02	7.348687E-04
6.723200E+03	6.679877E-02	7.291526E-04
6.733015E+03	6.627570E-02	7.235232E-04
6.742830E+03	6.576280E-02	7.180036E-04
6.752645E+03	6.526343E-02	7.126303E-04
6.762460E+03	6.477718E-02	7.073988E-04
6.772275E+03	6.430861E-02	7.023592E-04
6.782090E+03	6.385840E-02	6.975188E-04
6.791905E+03	6.342844E-02	6.928985E-04
6.801720E+03	6.302034E-02	6.885158E-04
6.811534E+03	6.263537E-02	6.843848E-04
6.821349E+03	6.227340E-02	6.805041E-04
6.831164E+03	6.193622E-02	6.768933E-04
6.840979E+03	6.162394E-02	6.735537E-04
6.850794E+03	6.133620E-02	6.704816E-04
6.860609E+03	6.106993E-02	6.676434E-04
6.870424E+03	6.082739E-02	6.650640E-04
6.880239E+03	6.060329E-02	6.626857E-04
6.890054E+03	6.039806E-02	6.605130E-04
6.899868E+03	6.020826E-02	6.585085E-04
6.909683E+03	6.003136E-02	6.566448E-04
6.919498E+03	5.986486E-02	6.548944E-04
6.929313E+03	5.970615E-02	6.532286E-04
6.939128E+03	5.955157E-02	6.516078E-04
6.948943E+03	5.939979E-02	6.500173E-04
6.958758E+03	5.924855E-02	6.484323E-04
6.968573E+03	5.909452E-02	6.468164E-04
6.978388E+03	5.893698E-02	6.451618E-04
6.988203E+03	5.877299E-02	6.434362E-04
6.998017E+03	5.860112E-02	6.416241E-04
7.007832E+03	5.842007E-02	6.397112E-04
7.017647E+03	5.823002E-02	6.376992E-04
7.027462E+03	5.802781E-02	6.355537E-04
7.037277E+03	5.781278E-02	6.332675E-04
7.047092E+03	5.758697E-02	6.308629E-04
7.056907E+03	5.734768E-02	6.283100E-04
7.066722E+03	5.709478E-02	6.256077E-04
7.076537E+03	5.682951E-02	6.227695E-04
7.086351E+03	5.655074E-02	6.197827E-04
7.096166E+03	5.625867E-02	6.166498E-04
7.105981E+03	5.595351E-02	6.133727E-04
7.115796E+03	5.563570E-02	6.099566E-04
7.125611E+03	5.530685E-02	6.064189E-04
7.135426E+03	5.496509E-02	6.027391E-04
7.145241E+03	5.461341E-02	5.989499E-04
7.155056E+03	5.425151E-02	5.950480E-04
7.164871E+03	5.388013E-02	5.910417E-04
7.174685E+03	5.350146E-02	5.869546E-04
7.184500E+03	5.311537E-02	5.827856E-04
7.194315E+03	5.272413E-02	5.785595E-04
7.204130E+03	5.232888E-02	5.742887E-04
7.213945E+03	5.193192E-02	5.699985E-04
7.223760E+03	5.153439E-02	5.657015E-04
7.233575E+03	5.113855E-02	5.614225E-04
7.243390E+03	5.074426E-02	5.571598E-04
7.253205E+03	5.035592E-02	5.529620E-04
7.263019E+03	4.997439E-02	5.488383E-04
7.272834E+03	4.959927E-02	5.447845E-04
7.282649E+03	4.923468E-02	5.408460E-04
7.292464E+03	4.888007E-02	5.370166E-04
7.302279E+03	4.853711E-02	5.333148E-04
7.312094E+03	4.820512E-02	5.297332E-04
7.321909E+03	4.788565E-02	5.262887E-04
7.331724E+03	4.757566E-02	5.229482E-04
7.341539E+03	4.727773E-02	5.197401E-04
7.351353E+03	4.698876E-02	5.166302E-04
7.361168E+03	4.671008E-02	5.136331E-04
7.370983E+03	4.644072E-02	5.107386E-04
7.380798E+03	4.617967E-02	5.079353E-04
7.390613E+03	4.592810E-02	5.052361E-04
7.400428E+03	4.568266E-02	5.026044E-04
7.410243E+03	4.544552E-02	5.000640E-04
7.420058E+03	4.521548E-02	4.976017E-04
7.429873E+03	4.499240E-02	4.952162E-04
7.439687E+03	4.477505E-02	4.928937E-04
7.449502E+03	4.456437E-02	4.906448E-04
7.459317E+03	4.435909E-02	4.884555E-04
7.469132E+03	4.415904E-02	4.863240E-04
7.478947E+03	4.396517E-02	4.842607E-04
7.488762E+03	4.377622E-02	4.822518E-04
7.498577E+03	4.359312E-02	4.803077E-04
7.508392E+03	4.341354E-02	4.784026E-04
7.518207E+03	4.323951E-02	4.765591E-04
7.528022E+03	4.306981E-02	4.747636E-04
7.537836E+03	4.290539E-02	4.730266E-04
7.547651E+03	4.274501E-02	4.713346E-04
7.557466E+03	4.258853E-02	4.696860E-04
7.567281E+03	4.243581E-02	4.680794E-04
7.577096E+03	4.228891E-02	4.665373E-04
7.586911E+03	4.214439E-02	4.650222E-04
7.596726E+03	4.200541E-02	4.635686E-04
7.606541E+03	4.186963E-02	4.621510E-04
7.616356E+03	4.173801E-02	4.607797E-04
