#wls	flux	fluxerr
1.570383E+03	4.867085E-03	2.210273E-04
1.609642E+03	4.946266E-03	2.244161E-04
1.648902E+03	5.015066E-03	2.273223E-04
1.688161E+03	5.073457E-03	2.297457E-04
1.727421E+03	5.120081E-03	2.316259E-04
1.766680E+03	5.152404E-03	2.328498E-04
1.805940E+03	5.166110E-03	2.332241E-04
1.845200E+03	5.156175E-03	2.325250E-04
1.884459E+03	5.120060E-03	2.306413E-04
1.923719E+03	5.054436E-03	2.274272E-04
1.962978E+03	4.961276E-03	2.229760E-04
2.002238E+03	4.854402E-03	2.179128E-04
2.041497E+03	4.760703E-03	2.134456E-04
2.080757E+03	4.718952E-03	2.113088E-04
2.120016E+03	4.761878E-03	2.129572E-04
2.159276E+03	4.906577E-03	2.191397E-04
2.198536E+03	5.142276E-03	2.293569E-04
2.237795E+03	5.443527E-03	2.424580E-04
2.277055E+03	5.783625E-03	2.572417E-04
2.316314E+03	6.139903E-03	2.726922E-04
2.355574E+03	6.500254E-03	2.882680E-04
2.394833E+03	6.858345E-03	3.036860E-04
2.434093E+03	7.211065E-03	3.188075E-04
2.473353E+03	7.558295E-03	3.336265E-04
2.512612E+03	7.900888E-03	3.481802E-04
2.551872E+03	8.240897E-03	3.625581E-04
2.591131E+03	8.577577E-03	3.767262E-04
2.630391E+03	8.913688E-03	3.908047E-04
2.669650E+03	9.249943E-03	4.048232E-04
2.708910E+03	9.587774E-03	4.188422E-04
2.748170E+03	9.929381E-03	4.329558E-04
2.787429E+03	1.027490E-02	4.471668E-04
2.826689E+03	1.062336E-02	4.614308E-04
2.865948E+03	1.097089E-02	4.755766E-04
2.905208E+03	1.131920E-02	4.896774E-04
2.944467E+03	1.166621E-02	5.036410E-04
2.954282E+03	1.175201E-02	5.070777E-04
2.964097E+03	1.183882E-02	5.105528E-04
2.973912E+03	1.192570E-02	5.140261E-04
2.983727E+03	1.201278E-02	5.175026E-04
2.993542E+03	1.210053E-02	5.210025E-04
3.003357E+03	1.218943E-02	5.245466E-04
3.013172E+03	1.227934E-02	5.281285E-04
3.022986E+03	1.237009E-02	5.317416E-04
3.032801E+03	1.246251E-02	5.354202E-04
3.042616E+03	1.255553E-02	5.391192E-04
3.052431E+03	1.264905E-02	5.428337E-04
3.062246E+03	1.274388E-02	5.465988E-04
3.072061E+03	1.283901E-02	5.503709E-04
3.081876E+03	1.293528E-02	5.541856E-04
3.091691E+03	1.303260E-02	5.580393E-04
3.101506E+03	1.312998E-02	5.618894E-04
3.111320E+03	1.322826E-02	5.657723E-04
3.121135E+03	1.332831E-02	5.697243E-04
3.130950E+03	1.342823E-02	5.736645E-04
3.140765E+03	1.352980E-02	5.776686E-04
3.150580E+03	1.363115E-02	5.816565E-04
3.160395E+03	1.373495E-02	5.857430E-04
3.170210E+03	1.383935E-02	5.898482E-04
3.180025E+03	1.394430E-02	5.939704E-04
3.189840E+03	1.405159E-02	5.981850E-04
3.199655E+03	1.415936E-02	6.024133E-04
3.209469E+03	1.426938E-02	6.067303E-04
3.219284E+03	1.438073E-02	6.110962E-04
3.229099E+03	1.449425E-02	6.155478E-04
3.238914E+03	1.460903E-02	6.200451E-04
3.248729E+03	1.472593E-02	6.246248E-04
3.258544E+03	1.484580E-02	6.293230E-04
3.268359E+03	1.496773E-02	6.341001E-04
3.278174E+03	1.509254E-02	6.389919E-04
3.287989E+03	1.522023E-02	6.439968E-04
3.297803E+03	1.535074E-02	6.491128E-04
3.307618E+03	1.548491E-02	6.543751E-04
3.317433E+03	1.562270E-02	6.597815E-04
3.327248E+03	1.576406E-02	6.653296E-04
3.337063E+03	1.590982E-02	6.710540E-04
3.346878E+03	1.605991E-02	6.769515E-04
3.356693E+03	1.621602E-02	6.830928E-04
3.366508E+03	1.637635E-02	6.894013E-04
3.376323E+03	1.654255E-02	6.959466E-04
3.386137E+03	1.671541E-02	7.027610E-04
3.395952E+03	1.689483E-02	7.098400E-04
3.405767E+03	1.708159E-02	7.172153E-04
3.415582E+03	1.727642E-02	7.249175E-04
3.425397E+03	1.747838E-02	7.329058E-04
3.435212E+03	1.769073E-02	7.413164E-04
3.445027E+03	1.791164E-02	7.500721E-04
3.454842E+03	1.814266E-02	7.592365E-04
3.464657E+03	1.838364E-02	7.688027E-04
3.474471E+03	1.863609E-02	7.788328E-04
3.484286E+03	1.889899E-02	7.892832E-04
3.494101E+03	1.917218E-02	8.001461E-04
3.503916E+03	1.945463E-02	8.113780E-04
3.513731E+03	1.974701E-02	8.230053E-04
3.523546E+03	2.004747E-02	8.349507E-04
3.533361E+03	2.035665E-02	8.472395E-04
3.543176E+03	2.067354E-02	8.598289E-04
3.552991E+03	2.099794E-02	8.727104E-04
3.562805E+03	2.132804E-02	8.858075E-04
3.572620E+03	2.166524E-02	8.991782E-04
3.582435E+03	2.200694E-02	9.127135E-04
3.592250E+03	2.235372E-02	9.264374E-04
3.602065E+03	2.270459E-02	9.403077E-04
3.611880E+03	2.305931E-02	9.543151E-04
3.621695E+03	2.341611E-02	9.683848E-04
3.631510E+03	2.377632E-02	9.825722E-04
3.641325E+03	2.413815E-02	9.968025E-04
3.651140E+03	2.450135E-02	1.011066E-03
3.660954E+03	2.486493E-02	1.025320E-03
3.670769E+03	2.522863E-02	1.039556E-03
3.680584E+03	2.559144E-02	1.053731E-03
3.690399E+03	2.595387E-02	1.067866E-03
3.700214E+03	2.631414E-02	1.081887E-03
3.710029E+03	2.667201E-02	1.095786E-03
3.719844E+03	2.702721E-02	1.109551E-03
3.729659E+03	2.737948E-02	1.123172E-03
3.739474E+03	2.772708E-02	1.136577E-03
3.749288E+03	2.807124E-02	1.149818E-03
3.759103E+03	2.840950E-02	1.162793E-03
3.768918E+03	2.874236E-02	1.175524E-03
3.778733E+03	2.906887E-02	1.187973E-03
3.788548E+03	2.938883E-02	1.200132E-03
3.798363E+03	2.970206E-02	1.211994E-03
3.808178E+03	3.000768E-02	1.223523E-03
3.817993E+03	3.030487E-02	1.234688E-03
3.827808E+03	3.059422E-02	1.245512E-03
3.837622E+03	3.087499E-02	1.255967E-03
3.847437E+03	3.114648E-02	1.266024E-03
3.857252E+03	3.140873E-02	1.275687E-03
3.867067E+03	3.166185E-02	1.284960E-03
3.876882E+03	3.190531E-02	1.293823E-03
3.886697E+03	3.213866E-02	1.302258E-03
3.896512E+03	3.236287E-02	1.310306E-03
3.906327E+03	3.257761E-02	1.317955E-03
3.916142E+03	3.278330E-02	1.325222E-03
3.925956E+03	3.297979E-02	1.332101E-03
3.935771E+03	3.316696E-02	1.338590E-03
3.945586E+03	3.334545E-02	1.344714E-03
3.955401E+03	3.351658E-02	1.350528E-03
3.965216E+03	3.367981E-02	1.356011E-03
3.975031E+03	3.383529E-02	1.361169E-03
3.984846E+03	3.398512E-02	1.366089E-03
3.994661E+03	3.412891E-02	1.370754E-03
4.004476E+03	3.426697E-02	1.375177E-03
4.014290E+03	3.440085E-02	1.379422E-03
4.024105E+03	3.453089E-02	1.383503E-03
4.033920E+03	3.465805E-02	1.387458E-03
4.043735E+03	3.478332E-02	1.391327E-03
4.053550E+03	3.490647E-02	1.395101E-03
4.063365E+03	3.502907E-02	1.398844E-03
4.073180E+03	3.515207E-02	1.402593E-03
4.082995E+03	3.527583E-02	1.406362E-03
4.092810E+03	3.540066E-02	1.410164E-03
4.102625E+03	3.552862E-02	1.414081E-03
4.112439E+03	3.565938E-02	1.418099E-03
4.122254E+03	3.579432E-02	1.422273E-03
4.132069E+03	3.593359E-02	1.426610E-03
4.141884E+03	3.607848E-02	1.431158E-03
4.151699E+03	3.622849E-02	1.435898E-03
4.161514E+03	3.638586E-02	1.440918E-03
4.171329E+03	3.654997E-02	1.446194E-03
4.181144E+03	3.672182E-02	1.451763E-03
4.190959E+03	3.690118E-02	1.457616E-03
4.200773E+03	3.708999E-02	1.463829E-03
4.210588E+03	3.728732E-02	1.470365E-03
4.220403E+03	3.749434E-02	1.477268E-03
4.230218E+03	3.771106E-02	1.484539E-03
4.240033E+03	3.793847E-02	1.492214E-03
4.249848E+03	3.817526E-02	1.500242E-03
4.259663E+03	3.842337E-02	1.508698E-03
4.269478E+03	3.868241E-02	1.517566E-03
4.279293E+03	3.895197E-02	1.526828E-03
4.289107E+03	3.923321E-02	1.536529E-03
4.298922E+03	3.952622E-02	1.546671E-03
4.308737E+03	3.983046E-02	1.557232E-03
4.318552E+03	4.014695E-02	1.568251E-03
4.328367E+03	4.047500E-02	1.579700E-03
4.338182E+03	4.081429E-02	1.591565E-03
4.347997E+03	4.116556E-02	1.603873E-03
4.357812E+03	4.152712E-02	1.616559E-03
4.367627E+03	4.189830E-02	1.629594E-03
4.377441E+03	4.227715E-02	1.642902E-03
4.387256E+03	4.266159E-02	1.656401E-03
4.397071E+03	4.304937E-02	1.670005E-03
4.406886E+03	4.343817E-02	1.683621E-03
4.416701E+03	4.382552E-02	1.697154E-03
4.426516E+03	4.420889E-02	1.710508E-03
4.436331E+03	4.458568E-02	1.723582E-03
4.446146E+03	4.495271E-02	1.736252E-03
4.455961E+03	4.530736E-02	1.748420E-03
4.465775E+03	4.564762E-02	1.760010E-03
4.475590E+03	4.597044E-02	1.770904E-03
4.485405E+03	4.627402E-02	1.781036E-03
4.495220E+03	4.655616E-02	1.790323E-03
4.505035E+03	4.681427E-02	1.798667E-03
4.514850E+03	4.704770E-02	1.806047E-03
4.524665E+03	4.725380E-02	1.812363E-03
4.534480E+03	4.743303E-02	1.817635E-03
4.544295E+03	4.758331E-02	1.821786E-03
4.554109E+03	4.770456E-02	1.824817E-03
4.563924E+03	4.779760E-02	1.826762E-03
4.573739E+03	4.786181E-02	1.827599E-03
4.583554E+03	4.789858E-02	1.827386E-03
4.593369E+03	4.790898E-02	1.826165E-03
4.603184E+03	4.789375E-02	1.823967E-03
4.612999E+03	4.785497E-02	1.820874E-03
4.622814E+03	4.779486E-02	1.816974E-03
4.632629E+03	4.771523E-02	1.812335E-03
4.642444E+03	4.761794E-02	1.807033E-03
4.652258E+03	4.750660E-02	1.801205E-03
4.662073E+03	4.738313E-02	1.794925E-03
4.671888E+03	4.725055E-02	1.788308E-03
4.681703E+03	4.711125E-02	1.781448E-03
4.691518E+03	4.696758E-02	1.774431E-03
4.701333E+03	4.682232E-02	1.767365E-03
4.711148E+03	4.667654E-02	1.760290E-03
4.720963E+03	4.653072E-02	1.753224E-03
4.730778E+03	4.638632E-02	1.746221E-03
4.740592E+03	4.624465E-02	1.739331E-03
4.750407E+03	4.610592E-02	1.732563E-03
4.760222E+03	4.597130E-02	1.725958E-03
4.770037E+03	4.584184E-02	1.719557E-03
4.779852E+03	4.571804E-02	1.713378E-03
4.789667E+03	4.560082E-02	1.707454E-03
4.799482E+03	4.549106E-02	1.701818E-03
4.809297E+03	4.538962E-02	1.696502E-03
4.819112E+03	4.529680E-02	1.691515E-03
4.828926E+03	4.521440E-02	1.686925E-03
4.838741E+03	4.514223E-02	1.682723E-03
4.848556E+03	4.508209E-02	1.678974E-03
4.858371E+03	4.503383E-02	1.675673E-03
4.868186E+03	4.499925E-02	1.672886E-03
4.878001E+03	4.497873E-02	1.670624E-03
4.887816E+03	4.497313E-02	1.668920E-03
4.897631E+03	4.498383E-02	1.667821E-03
4.907446E+03	4.501171E-02	1.667360E-03
4.917260E+03	4.505768E-02	1.667569E-03
4.927075E+03	4.512211E-02	1.668459E-03
4.936890E+03	4.520684E-02	1.670096E-03
4.946705E+03	4.531172E-02	1.672475E-03
4.956520E+03	4.543849E-02	1.675655E-03
4.966335E+03	4.558788E-02	1.679663E-03
4.976150E+03	4.576006E-02	1.684503E-03
4.985965E+03	4.595608E-02	1.690211E-03
4.995780E+03	4.617642E-02	1.696802E-03
5.005594E+03	4.642146E-02	1.704288E-03
5.015409E+03	4.669147E-02	1.712677E-03
5.025224E+03	4.698610E-02	1.721954E-03
5.035039E+03	4.730682E-02	1.732171E-03
5.044854E+03	4.765205E-02	1.743266E-03
5.054669E+03	4.802249E-02	1.755264E-03
5.064484E+03	4.841723E-02	1.768129E-03
5.074299E+03	4.883618E-02	1.781856E-03
5.084114E+03	4.927813E-02	1.796399E-03
5.093929E+03	4.974268E-02	1.811740E-03
5.103743E+03	5.022827E-02	1.827822E-03
5.113558E+03	5.073422E-02	1.844617E-03
5.123373E+03	5.125918E-02	1.862076E-03
5.133188E+03	5.180113E-02	1.880122E-03
5.143003E+03	5.235896E-02	1.898716E-03
5.152818E+03	5.293091E-02	1.917791E-03
5.162633E+03	5.351456E-02	1.937260E-03
5.172448E+03	5.410848E-02	1.957070E-03
5.182263E+03	5.471057E-02	1.977143E-03
5.192077E+03	5.531866E-02	1.997403E-03
5.201892E+03	5.592994E-02	2.017746E-03
5.211707E+03	5.654212E-02	2.038091E-03
5.221522E+03	5.715334E-02	2.058371E-03
5.231337E+03	5.776065E-02	2.078480E-03
5.241152E+03	5.836212E-02	2.098350E-03
5.250967E+03	5.895470E-02	2.117872E-03
5.260782E+03	5.953645E-02	2.136978E-03
5.270597E+03	6.010416E-02	2.155554E-03
5.280411E+03	6.065468E-02	2.173489E-03
5.290226E+03	6.118655E-02	2.190734E-03
5.300041E+03	6.169642E-02	2.207168E-03
5.309856E+03	6.218106E-02	2.222681E-03
5.319671E+03	6.263881E-02	2.237216E-03
5.329486E+03	6.306554E-02	2.250627E-03
5.339301E+03	6.345882E-02	2.262832E-03
5.349116E+03	6.381483E-02	2.273697E-03
5.358931E+03	6.413116E-02	2.283139E-03
5.368745E+03	6.440433E-02	2.291039E-03
5.378560E+03	6.463221E-02	2.297325E-03
5.388375E+03	6.481188E-02	2.301897E-03
5.398190E+03	6.494113E-02	2.304681E-03
5.408005E+03	6.501906E-02	2.305649E-03
5.417820E+03	6.504440E-02	2.304760E-03
5.427635E+03	6.501512E-02	2.301948E-03
5.437450E+03	6.493286E-02	2.297275E-03
5.447265E+03	6.479734E-02	2.290734E-03
5.457079E+03	6.460860E-02	2.282333E-03
5.466894E+03	6.436929E-02	2.272168E-03
5.476709E+03	6.407983E-02	2.260259E-03
5.486524E+03	6.374449E-02	2.246759E-03
5.496339E+03	6.336444E-02	2.231715E-03
5.506154E+03	6.294341E-02	2.215259E-03
5.515969E+03	6.248461E-02	2.197509E-03
5.525784E+03	6.199149E-02	2.178588E-03
5.535599E+03	6.146781E-02	2.158630E-03
5.545414E+03	6.091729E-02	2.137769E-03
5.555228E+03	6.034424E-02	2.116158E-03
5.565043E+03	5.975200E-02	2.093914E-03
5.574858E+03	5.914531E-02	2.071205E-03
5.584673E+03	5.852595E-02	2.048094E-03
5.594488E+03	5.789913E-02	2.024765E-03
5.604303E+03	5.726743E-02	2.001307E-03
5.614118E+03	5.663314E-02	1.977800E-03
5.623933E+03	5.600011E-02	1.954379E-03
5.633748E+03	5.536957E-02	1.931087E-03
5.643562E+03	5.474470E-02	1.908033E-03
5.653377E+03	5.412678E-02	1.885262E-03
5.663192E+03	5.351729E-02	1.862824E-03
5.673007E+03	5.291746E-02	1.840762E-03
5.682822E+03	5.232826E-02	1.819108E-03
5.692637E+03	5.175094E-02	1.797905E-03
5.702452E+03	5.118546E-02	1.777150E-03
5.712267E+03	5.063213E-02	1.756853E-03
5.722082E+03	5.009108E-02	1.737017E-03
5.731896E+03	4.956231E-02	1.717642E-03
5.741711E+03	4.904568E-02	1.698722E-03
5.751526E+03	4.854098E-02	1.680248E-03
5.761341E+03	4.804793E-02	1.662210E-03
5.771156E+03	4.756620E-02	1.644595E-03
5.780971E+03	4.709498E-02	1.627375E-03
5.790786E+03	4.663439E-02	1.610553E-03
5.800601E+03	4.618412E-02	1.594117E-03
5.810416E+03	4.574291E-02	1.578024E-03
5.820230E+03	4.531144E-02	1.562295E-03
5.830045E+03	4.488901E-02	1.546906E-03
5.839860E+03	4.447499E-02	1.531835E-03
5.849675E+03	4.406968E-02	1.517091E-03
5.859490E+03	4.367255E-02	1.502656E-03
5.869305E+03	4.328399E-02	1.488542E-03
5.879120E+03	4.290307E-02	1.474717E-03
5.888935E+03	4.253027E-02	1.461197E-03
5.898750E+03	4.216560E-02	1.447981E-03
5.908564E+03	4.180911E-02	1.435070E-03
5.918379E+03	4.146002E-02	1.422438E-03
5.928194E+03	4.111926E-02	1.410116E-03
5.938009E+03	4.078605E-02	1.398077E-03
5.947824E+03	4.046136E-02	1.386352E-03
5.957639E+03	4.014443E-02	1.374916E-03
5.967454E+03	3.983621E-02	1.363801E-03
5.977269E+03	3.953598E-02	1.352982E-03
5.987084E+03	3.924430E-02	1.342477E-03
5.996898E+03	3.896173E-02	1.332305E-03
6.006713E+03	3.868847E-02	1.322472E-03
6.016528E+03	3.842469E-02	1.312985E-03
6.026343E+03	3.817067E-02	1.303851E-03
6.036158E+03	3.792708E-02	1.295093E-03
6.045973E+03	3.769465E-02	1.286737E-03
6.055788E+03	3.747413E-02	1.278806E-03
6.065603E+03	3.726592E-02	1.271315E-03
6.075418E+03	3.707085E-02	1.264290E-03
6.085233E+03	3.688900E-02	1.257736E-03
6.095047E+03	3.672125E-02	1.251679E-03
6.104862E+03	3.656730E-02	1.246112E-03
6.114677E+03	3.642766E-02	1.241050E-03
6.124492E+03	3.630239E-02	1.236495E-03
6.134307E+03	3.619196E-02	1.232462E-03
6.144122E+03	3.609633E-02	1.228951E-03
6.153937E+03	3.601619E-02	1.225985E-03
6.163752E+03	3.595137E-02	1.223556E-03
6.173567E+03	3.590155E-02	1.221656E-03
6.183381E+03	3.586711E-02	1.220295E-03
6.193196E+03	3.584748E-02	1.219455E-03
6.203011E+03	3.584271E-02	1.219138E-03
6.212826E+03	3.585194E-02	1.219314E-03
6.222641E+03	3.587413E-02	1.219947E-03
6.232456E+03	3.590926E-02	1.221038E-03
6.242271E+03	3.595557E-02	1.222527E-03
6.252086E+03	3.601195E-02	1.224376E-03
6.261901E+03	3.607716E-02	1.226542E-03
6.271715E+03	3.614981E-02	1.228980E-03
6.281530E+03	3.622844E-02	1.231640E-03
6.291345E+03	3.631108E-02	1.234455E-03
6.301160E+03	3.639614E-02	1.237372E-03
6.310975E+03	3.648197E-02	1.240334E-03
6.320790E+03	3.656694E-02	1.243287E-03
6.330605E+03	3.664948E-02	1.246178E-03
6.340420E+03	3.672803E-02	1.248953E-03
6.350235E+03	3.680117E-02	1.251566E-03
6.360049E+03	3.686841E-02	1.253999E-03
6.369864E+03	3.692855E-02	1.256211E-03
6.379679E+03	3.698099E-02	1.258182E-03
6.389494E+03	3.702527E-02	1.259895E-03
6.399309E+03	3.706112E-02	1.261341E-03
6.409124E+03	3.708754E-02	1.262486E-03
6.418939E+03	3.710500E-02	1.263345E-03
6.428754E+03	3.711322E-02	1.263908E-03
6.438569E+03	3.711203E-02	1.264170E-03
6.448383E+03	3.710135E-02	1.264126E-03
6.458198E+03	3.708194E-02	1.263802E-03
6.468013E+03	3.705272E-02	1.263162E-03
6.477828E+03	3.701479E-02	1.262241E-03
6.487643E+03	3.696751E-02	1.261018E-03
6.497458E+03	3.691074E-02	1.259487E-03
6.507273E+03	3.684440E-02	1.257644E-03
6.517088E+03	3.676898E-02	1.255506E-03
6.526903E+03	3.668501E-02	1.253090E-03
6.536718E+03	3.659223E-02	1.250387E-03
6.546532E+03	3.649089E-02	1.247405E-03
6.556347E+03	3.638224E-02	1.244184E-03
6.566162E+03	3.626577E-02	1.240709E-03
6.575977E+03	3.614238E-02	1.237007E-03
6.585792E+03	3.601307E-02	1.233114E-03
6.595607E+03	3.587745E-02	1.229015E-03
6.605422E+03	3.573752E-02	1.224777E-03
6.615237E+03	3.559294E-02	1.220389E-03
6.625052E+03	3.544435E-02	1.215873E-03
6.634866E+03	3.529333E-02	1.211280E-03
6.644681E+03	3.513959E-02	1.206602E-03
6.654496E+03	3.498423E-02	1.201875E-03
6.664311E+03	3.482787E-02	1.197121E-03
6.674126E+03	3.467113E-02	1.192360E-03
6.683941E+03	3.451461E-02	1.187612E-03
6.693756E+03	3.435933E-02	1.182912E-03
6.703571E+03	3.420490E-02	1.178247E-03
6.713386E+03	3.405277E-02	1.173665E-03
6.723200E+03	3.390293E-02	1.169168E-03
6.733015E+03	3.375584E-02	1.164769E-03
6.742830E+03	3.361189E-02	1.160484E-03
6.752645E+03	3.347147E-02	1.156324E-03
6.762460E+03	3.333535E-02	1.152316E-03
6.772275E+03	3.320338E-02	1.148456E-03
6.782090E+03	3.307581E-02	1.144751E-03
6.791905E+03	3.295334E-02	1.141227E-03
6.801720E+03	3.283523E-02	1.137857E-03
6.811534E+03	3.272258E-02	1.134679E-03
6.821349E+03	3.261505E-02	1.131683E-03
6.831164E+03	3.251276E-02	1.128872E-03
6.840979E+03	3.241582E-02	1.126250E-03
6.850794E+03	3.232429E-02	1.123819E-03
6.860609E+03	3.223868E-02	1.121597E-03
6.870424E+03	3.215813E-02	1.119555E-03
6.880239E+03	3.208313E-02	1.117710E-03
6.890054E+03	3.201415E-02	1.116078E-03
6.899868E+03	3.195031E-02	1.114629E-03
6.909683E+03	3.189160E-02	1.113363E-03
6.919498E+03	3.183894E-02	1.112311E-03
6.929313E+03	3.179140E-02	1.111443E-03
6.939128E+03	3.174943E-02	1.110773E-03
6.948943E+03	3.171299E-02	1.110300E-03
6.958758E+03	3.168158E-02	1.110009E-03
6.968573E+03	3.165516E-02	1.109896E-03
6.978388E+03	3.163410E-02	1.109976E-03
6.988203E+03	3.161788E-02	1.110230E-03
6.998017E+03	3.160639E-02	1.110655E-03
7.007832E+03	3.159951E-02	1.111247E-03
7.017647E+03	3.159758E-02	1.112017E-03
7.027462E+03	3.159953E-02	1.112930E-03
7.037277E+03	3.160564E-02	1.113994E-03
7.047092E+03	3.161528E-02	1.115188E-03
7.056907E+03	3.162920E-02	1.116538E-03
7.066722E+03	3.164578E-02	1.117987E-03
7.076537E+03	3.166575E-02	1.119562E-03
7.086351E+03	3.168842E-02	1.121238E-03
7.096166E+03	3.171405E-02	1.123024E-03
7.105981E+03	3.174145E-02	1.124879E-03
7.115796E+03	3.177090E-02	1.126812E-03
7.125611E+03	3.180168E-02	1.128798E-03
7.135426E+03	3.183407E-02	1.130847E-03
7.145241E+03	3.186739E-02	1.132935E-03
7.155056E+03	3.190194E-02	1.135072E-03
7.164871E+03	3.193657E-02	1.137217E-03
7.174685E+03	3.197159E-02	1.139383E-03
7.184500E+03	3.200690E-02	1.141564E-03
7.194315E+03	3.204185E-02	1.143737E-03
7.204130E+03	3.207636E-02	1.145901E-03
7.213945E+03	3.211083E-02	1.148068E-03
7.223760E+03	3.214421E-02	1.150202E-03
7.233575E+03	3.217695E-02	1.152318E-03
7.243390E+03	3.220854E-02	1.154397E-03
7.253205E+03	3.223947E-02	1.156458E-03
7.263019E+03	3.226876E-02	1.158465E-03
7.272834E+03	3.229694E-02	1.160437E-03
7.282649E+03	3.232357E-02	1.162357E-03
7.292464E+03	3.234870E-02	1.164228E-03
7.302279E+03	3.237240E-02	1.166052E-03
7.312094E+03	3.239529E-02	1.167851E-03
7.321909E+03	3.241643E-02	1.169591E-03
7.331724E+03	3.243746E-02	1.171330E-03
7.341539E+03	3.245747E-02	1.173037E-03
7.351353E+03	3.247708E-02	1.174733E-03
7.361168E+03	3.249640E-02	1.176422E-03
7.370983E+03	3.251606E-02	1.178127E-03
7.380798E+03	3.253564E-02	1.179833E-03
7.390613E+03	3.255576E-02	1.181562E-03
7.400428E+03	3.257650E-02	1.183317E-03
7.410243E+03	3.259795E-02	1.185101E-03
7.420058E+03	3.262016E-02	1.186917E-03
7.429873E+03	3.264318E-02	1.188766E-03
7.439687E+03	3.266759E-02	1.190669E-03
7.449502E+03	3.269287E-02	1.192608E-03
7.459317E+03	3.271957E-02	1.194603E-03
7.469132E+03	3.274715E-02	1.196633E-03
7.478947E+03	3.277611E-02	1.198718E-03
7.488762E+03	3.280644E-02	1.200857E-03
7.498577E+03	3.283807E-02	1.203047E-03
7.508392E+03	3.287096E-02	1.205288E-03
7.518207E+03	3.290501E-02	1.207576E-03
7.528022E+03	3.294015E-02	1.209908E-03
7.537836E+03	3.297628E-02	1.212280E-03
7.547651E+03	3.301385E-02	1.214710E-03
7.557466E+03	3.305162E-02	1.217152E-03
7.567281E+03	3.309059E-02	1.219643E-03
7.577096E+03	3.313007E-02	1.222157E-03
7.586911E+03	3.316992E-02	1.224689E-03
7.596726E+03	3.321001E-02	1.227235E-03
7.606541E+03	3.325019E-02	1.229788E-03
7.616356E+03	3.329032E-02	1.232345E-03
