#wls	flux	fluxerr
1.570383E+03	3.270327E-03	9.494367E-05
1.609642E+03	3.321804E-03	9.637799E-05
1.648902E+03	3.365906E-03	9.759490E-05
1.688161E+03	3.403243E-03	9.861238E-05
1.727421E+03	3.432343E-03	9.938814E-05
1.766680E+03	3.452166E-03	9.989245E-05
1.805940E+03	3.458666E-03	1.000088E-04
1.845200E+03	3.450312E-03	9.969380E-05
1.884459E+03	3.423785E-03	9.885248E-05
1.923719E+03	3.376954E-03	9.742458E-05
1.962978E+03	3.312381E-03	9.548534E-05
2.002238E+03	3.238302E-03	9.327331E-05
2.041497E+03	3.173309E-03	9.132433E-05
2.080757E+03	3.141811E-03	9.033967E-05
2.120016E+03	3.167080E-03	9.098542E-05
2.159276E+03	3.259482E-03	9.355466E-05
2.198536E+03	3.411131E-03	9.781576E-05
2.237795E+03	3.606033E-03	1.033055E-04
2.277055E+03	3.824805E-03	1.094650E-04
2.316314E+03	4.054007E-03	1.159075E-04
2.355574E+03	4.283980E-03	1.223558E-04
2.394833E+03	4.510566E-03	1.286906E-04
2.434093E+03	4.732368E-03	1.348718E-04
2.473353E+03	4.949453E-03	1.409013E-04
2.512612E+03	5.162538E-03	1.467994E-04
2.551872E+03	5.371843E-03	1.525722E-04
2.591131E+03	5.578233E-03	1.582440E-04
2.630391E+03	5.782449E-03	1.638356E-04
2.669650E+03	5.986524E-03	1.694042E-04
2.708910E+03	6.190257E-03	1.749437E-04
2.748170E+03	6.395436E-03	1.805040E-04
2.787429E+03	6.601632E-03	1.860722E-04
2.826689E+03	6.808328E-03	1.916333E-04
2.865948E+03	7.014211E-03	1.971495E-04
2.905208E+03	7.218647E-03	2.026028E-04
2.944467E+03	7.421697E-03	2.079943E-04
2.954282E+03	7.472717E-03	2.093458E-04
2.964097E+03	7.523338E-03	2.106847E-04
2.973912E+03	7.574280E-03	2.120311E-04
2.983727E+03	7.624907E-03	2.133671E-04
2.993542E+03	7.676235E-03	2.147213E-04
3.003357E+03	7.728574E-03	2.161022E-04
3.013172E+03	7.781115E-03	2.174873E-04
3.022986E+03	7.834484E-03	2.188939E-04
3.032801E+03	7.888595E-03	2.203197E-04
3.042616E+03	7.942664E-03	2.217427E-04
3.052431E+03	7.998050E-03	2.232008E-04
3.062246E+03	8.053264E-03	2.246525E-04
3.072061E+03	8.109670E-03	2.261358E-04
3.081876E+03	8.165798E-03	2.276096E-04
3.091691E+03	8.223016E-03	2.291121E-04
3.101506E+03	8.280572E-03	2.306223E-04
3.111320E+03	8.338422E-03	2.321389E-04
3.121135E+03	8.397239E-03	2.336807E-04
3.130950E+03	8.456286E-03	2.352271E-04
3.140765E+03	8.516231E-03	2.367966E-04
3.150580E+03	8.576342E-03	2.383689E-04
3.160395E+03	8.638005E-03	2.399825E-04
3.170210E+03	8.699782E-03	2.415973E-04
3.180025E+03	8.762352E-03	2.432322E-04
3.189840E+03	8.826401E-03	2.449063E-04
3.199655E+03	8.891200E-03	2.465991E-04
3.209469E+03	8.956734E-03	2.483103E-04
3.219284E+03	9.024380E-03	2.500781E-04
3.229099E+03	9.092716E-03	2.518628E-04
3.238914E+03	9.162426E-03	2.536834E-04
3.248729E+03	9.233485E-03	2.555392E-04
3.258544E+03	9.306578E-03	2.574490E-04
3.268359E+03	9.381676E-03	2.594120E-04
3.278174E+03	9.458062E-03	2.614083E-04
3.287989E+03	9.537106E-03	2.634756E-04
3.297803E+03	9.618784E-03	2.656132E-04
3.307618E+03	9.702370E-03	2.678009E-04
3.317433E+03	9.788528E-03	2.700570E-04
3.327248E+03	9.877929E-03	2.723999E-04
3.337063E+03	9.970531E-03	2.748282E-04
3.346878E+03	1.006561E-02	2.773220E-04
3.356693E+03	1.016520E-02	2.799369E-04
3.366508E+03	1.026788E-02	2.826339E-04
3.376323E+03	1.037498E-02	2.854493E-04
3.386137E+03	1.048645E-02	2.883816E-04
3.395952E+03	1.060292E-02	2.914480E-04
3.405767E+03	1.072365E-02	2.946279E-04
3.415582E+03	1.084996E-02	2.979572E-04
3.425397E+03	1.098176E-02	3.014335E-04
3.435212E+03	1.111900E-02	3.050547E-04
3.445027E+03	1.126227E-02	3.088374E-04
3.454842E+03	1.141217E-02	3.127975E-04
3.464657E+03	1.156862E-02	3.169323E-04
3.474471E+03	1.173152E-02	3.212391E-04
3.484286E+03	1.190145E-02	3.257333E-04
3.494101E+03	1.207764E-02	3.303937E-04
3.503916E+03	1.226132E-02	3.352535E-04
3.513731E+03	1.245106E-02	3.402733E-04
3.523546E+03	1.264674E-02	3.454495E-04
3.533361E+03	1.284890E-02	3.507970E-04
3.543176E+03	1.305743E-02	3.563120E-04
3.552991E+03	1.327089E-02	3.619549E-04
3.562805E+03	1.349045E-02	3.677577E-04
3.572620E+03	1.371467E-02	3.736810E-04
3.582435E+03	1.394406E-02	3.797381E-04
3.592250E+03	1.417783E-02	3.859071E-04
3.602065E+03	1.441644E-02	3.922009E-04
3.611880E+03	1.465846E-02	3.985799E-04
3.621695E+03	1.490434E-02	4.050565E-04
3.631510E+03	1.515390E-02	4.116253E-04
3.641325E+03	1.540693E-02	4.182806E-04
3.651140E+03	1.566196E-02	4.249821E-04
3.660954E+03	1.592001E-02	4.317578E-04
3.670769E+03	1.617960E-02	4.385669E-04
3.680584E+03	1.644046E-02	4.454026E-04
3.690399E+03	1.670295E-02	4.522740E-04
3.700214E+03	1.696555E-02	4.591399E-04
3.702668E+03	1.293705E-02	3.500698E-04
3.704140E+03	1.294892E-02	3.503628E-04
3.705612E+03	1.287211E-02	3.482565E-04
3.707084E+03	1.285207E-02	3.476866E-04
3.708557E+03	1.284400E-02	3.474404E-04
3.710029E+03	1.285586E-02	3.477334E-04
3.711501E+03	1.288269E-02	3.484310E-04
3.712973E+03	1.288160E-02	3.483735E-04
3.714446E+03	1.291143E-02	3.491521E-04
3.715918E+03	1.289837E-02	3.487710E-04
3.717390E+03	1.288831E-02	3.484708E-04
3.718862E+03	1.309577E-02	3.540516E-04
3.720334E+03	1.334920E-02	3.608742E-04
3.721807E+03	1.348892E-02	3.646218E-04
3.723279E+03	1.354283E-02	3.660495E-04
3.724751E+03	1.365067E-02	3.689346E-04
3.726223E+03	1.378750E-02	3.726027E-04
3.727696E+03	1.384947E-02	3.742472E-04
3.729168E+03	1.389248E-02	3.753791E-04
3.730640E+03	1.392551E-02	3.762411E-04
3.732112E+03	1.404348E-02	3.793978E-04
3.733585E+03	1.411253E-02	3.812322E-04
3.735057E+03	1.425455E-02	3.850376E-04
3.736529E+03	1.448559E-02	3.912465E-04
3.738001E+03	1.459371E-02	3.941351E-04
3.739474E+03	1.468588E-02	3.965921E-04
3.740946E+03	1.490008E-02	4.023439E-04
3.742418E+03	1.508734E-02	4.073674E-04
3.743890E+03	1.516262E-02	4.093667E-04
3.745362E+03	1.525893E-02	4.119333E-04
3.746835E+03	1.538029E-02	4.151758E-04
3.748307E+03	1.544864E-02	4.169869E-04
3.749779E+03	1.554304E-02	4.195007E-04
3.751251E+03	1.571355E-02	4.240682E-04
3.752724E+03	1.558273E-02	4.205034E-04
3.754196E+03	1.568720E-02	4.232882E-04
3.755668E+03	1.578671E-02	4.259383E-04
3.757140E+03	1.602547E-02	4.323451E-04
3.758613E+03	1.597678E-02	4.309962E-04
3.760085E+03	1.609741E-02	4.342149E-04
3.761557E+03	1.635037E-02	4.410022E-04
3.763029E+03	1.666454E-02	4.494394E-04
3.764502E+03	1.683345E-02	4.539577E-04
3.765974E+03	1.677081E-02	4.522313E-04
3.767446E+03	1.667807E-02	4.496936E-04
3.768918E+03	1.663244E-02	4.484265E-04
3.770390E+03	1.666704E-02	4.493225E-04
3.771863E+03	1.697352E-02	4.575474E-04
3.773335E+03	1.716572E-02	4.626903E-04
3.774807E+03	1.691641E-02	4.559331E-04
3.776279E+03	1.687079E-02	4.546660E-04
3.777752E+03	1.680909E-02	4.529659E-04
3.779224E+03	1.667408E-02	4.492909E-04
3.780696E+03	1.667961E-02	4.494028E-04
3.782168E+03	1.670723E-02	4.501100E-04
3.783641E+03	1.679714E-02	4.524950E-04
3.785113E+03	1.689813E-02	4.551780E-04
3.786585E+03	1.700618E-02	4.580508E-04
3.788057E+03	1.704192E-02	4.589754E-04
3.789529E+03	1.711586E-02	4.609287E-04
3.791002E+03	1.721294E-02	4.635047E-04
3.792474E+03	1.722761E-02	4.638615E-04
3.793946E+03	1.716486E-02	4.621338E-04
3.795418E+03	1.713428E-02	4.612723E-04
3.796891E+03	1.725254E-02	4.644176E-04
3.798363E+03	1.736179E-02	4.673198E-04
3.799835E+03	1.726785E-02	4.647526E-04
3.801307E+03	1.726745E-02	4.647033E-04
3.802780E+03	1.730731E-02	4.657376E-04
3.804252E+03	1.717305E-02	4.620862E-04
3.805724E+03	1.724614E-02	4.640142E-04
3.807196E+03	1.754075E-02	4.719018E-04
3.808669E+03	1.768642E-02	4.757813E-04
3.810141E+03	1.776969E-02	4.779816E-04
3.811613E+03	1.780564E-02	4.789087E-04
3.813085E+03	1.785974E-02	4.803238E-04
3.814557E+03	1.799144E-02	4.838255E-04
3.816030E+03	1.816349E-02	4.884117E-04
3.817502E+03	1.831746E-02	4.925108E-04
3.818974E+03	1.850172E-02	4.974235E-04
3.820446E+03	1.866889E-02	5.018762E-04
3.821919E+03	1.883511E-02	5.063023E-04
3.823391E+03	1.897918E-02	5.101326E-04
3.824863E+03	1.908599E-02	5.129605E-04
3.826335E+03	1.924730E-02	5.172527E-04
3.827808E+03	1.939555E-02	5.211932E-04
3.829280E+03	1.947219E-02	5.232089E-04
3.830752E+03	1.952463E-02	5.245740E-04
3.832224E+03	1.968309E-02	5.287871E-04
3.833696E+03	1.986683E-02	5.336786E-04
3.835169E+03	1.988503E-02	5.341227E-04
3.836641E+03	2.010926E-02	5.401003E-04
3.838113E+03	2.036386E-02	5.468927E-04
3.839585E+03	2.041953E-02	5.483416E-04
3.841058E+03	2.050855E-02	5.506860E-04
3.842530E+03	2.063095E-02	5.539261E-04
3.844002E+03	2.077057E-02	5.576279E-04
3.845474E+03	2.101031E-02	5.640168E-04
3.846947E+03	2.105803E-02	5.652503E-04
3.848419E+03	2.120183E-02	5.690622E-04
3.849891E+03	2.151153E-02	5.773262E-04
3.851363E+03	2.175356E-02	5.837726E-04
3.852836E+03	2.186213E-02	5.866366E-04
3.854308E+03	2.188371E-02	5.871662E-04
3.855780E+03	2.183750E-02	5.858768E-04
3.857252E+03	2.202508E-02	5.908595E-04
3.858724E+03	2.221271E-02	5.958428E-04
3.860197E+03	2.241357E-02	6.011798E-04
3.861669E+03	2.251728E-02	6.039104E-04
3.863141E+03	2.255823E-02	6.049575E-04
3.864613E+03	2.269643E-02	6.086123E-04
3.866086E+03	2.281441E-02	6.117242E-04
3.867558E+03	2.291521E-02	6.143749E-04
3.869030E+03	2.305454E-02	6.180582E-04
3.870502E+03	2.317771E-02	6.213075E-04
3.871975E+03	2.336984E-02	6.264048E-04
3.873447E+03	2.351438E-02	6.302256E-04
3.874919E+03	2.364274E-02	6.336121E-04
3.876391E+03	2.357035E-02	6.316182E-04
3.877863E+03	2.344923E-02	6.283193E-04
3.879336E+03	2.348634E-02	6.292601E-04
3.880808E+03	2.358738E-02	6.319137E-04
3.882280E+03	2.362351E-02	6.328278E-04
3.883752E+03	2.365255E-02	6.335517E-04
3.885225E+03	2.366941E-02	6.339494E-04
3.886697E+03	2.372994E-02	6.355163E-04
3.888169E+03	2.378947E-02	6.370563E-04
3.889641E+03	2.368246E-02	6.341367E-04
3.891114E+03	2.367090E-02	6.337731E-04
3.892586E+03	2.367660E-02	6.338717E-04
3.894058E+03	2.366910E-02	6.336168E-04
3.895530E+03	2.363416E-02	6.326274E-04
3.897003E+03	2.360632E-02	6.318283E-04
3.898475E+03	2.352257E-02	6.295327E-04
3.899947E+03	2.338389E-02	6.257677E-04
3.901419E+03	2.342718E-02	6.268726E-04
3.902891E+03	2.336776E-02	6.252292E-04
3.904364E+03	2.330121E-02	6.233951E-04
3.905836E+03	2.337096E-02	6.252077E-04
3.907308E+03	2.334712E-02	6.245164E-04
3.908780E+03	2.329071E-02	6.229541E-04
3.910253E+03	2.327805E-02	6.225620E-04
3.911725E+03	2.335191E-02	6.244838E-04
3.913197E+03	2.351437E-02	6.287742E-04
3.914669E+03	2.348340E-02	6.278923E-04
3.916142E+03	2.334753E-02	6.242058E-04
3.917614E+03	2.327477E-02	6.222070E-04
3.919086E+03	2.327534E-02	6.221687E-04
3.920558E+03	2.321782E-02	6.205779E-04
3.922031E+03	2.311036E-02	6.176525E-04
3.923503E+03	2.306911E-02	6.164969E-04
3.924975E+03	2.306047E-02	6.162128E-04
3.926447E+03	2.308751E-02	6.168823E-04
3.927919E+03	2.304624E-02	6.157264E-04
3.929392E+03	2.307022E-02	6.163140E-04
3.930864E+03	2.303403E-02	6.152942E-04
3.932336E+03	2.288969E-02	6.113858E-04
3.933808E+03	2.285551E-02	6.104199E-04
3.935281E+03	2.285396E-02	6.103260E-04
3.936753E+03	2.272075E-02	6.067161E-04
3.938225E+03	2.258240E-02	6.029694E-04
3.939697E+03	2.255324E-02	6.021390E-04
3.941170E+03	2.251591E-02	6.010902E-04
3.942642E+03	2.246018E-02	5.995505E-04
3.944114E+03	2.246879E-02	5.997283E-04
3.945586E+03	2.247331E-02	5.997970E-04
3.947058E+03	2.242367E-02	5.984204E-04
3.948531E+03	2.241490E-02	5.981345E-04
3.950003E+03	2.244292E-02	5.988302E-04
3.951475E+03	2.243312E-02	5.985169E-04
3.952947E+03	2.240595E-02	5.977399E-04
3.954420E+03	2.245545E-02	5.990085E-04
3.955892E+03	2.252338E-02	6.007683E-04
3.957364E+03	2.244710E-02	5.986816E-04
3.958836E+03	2.235136E-02	5.960763E-04
3.960309E+03	2.219828E-02	5.919425E-04
3.961781E+03	2.225393E-02	5.933748E-04
3.963253E+03	2.235258E-02	5.959533E-04
3.964725E+03	2.230999E-02	5.947660E-04
3.966198E+03	2.238411E-02	5.966899E-04
3.967670E+03	2.228212E-02	5.939194E-04
3.969142E+03	2.219340E-02	5.915033E-04
3.970614E+03	2.228187E-02	5.938093E-04
3.972086E+03	2.236627E-02	5.960065E-04
3.973559E+03	2.237077E-02	5.960743E-04
3.975031E+03	2.231481E-02	5.945314E-04
3.976503E+03	2.232033E-02	5.946264E-04
3.977975E+03	2.240478E-02	5.968240E-04
3.979448E+03	2.242979E-02	5.974381E-04
3.980920E+03	2.235841E-02	5.954849E-04
3.982392E+03	2.235163E-02	5.952520E-04
3.983864E+03	2.239920E-02	5.964669E-04
3.985337E+03	2.239345E-02	5.962613E-04
3.986809E+03	2.224506E-02	5.922585E-04
3.988281E+03	2.207816E-02	5.877634E-04
3.989753E+03	2.213496E-02	5.892238E-04
3.991225E+03	2.219382E-02	5.907389E-04
3.992698E+03	2.208535E-02	5.878001E-04
3.994170E+03	2.203640E-02	5.864458E-04
3.995642E+03	2.202955E-02	5.862120E-04
3.997114E+03	2.202063E-02	5.859232E-04
3.998587E+03	2.199014E-02	5.850605E-04
4.000059E+03	2.206238E-02	5.869309E-04
4.001531E+03	2.213568E-02	5.888291E-04
4.003003E+03	2.209902E-02	5.878021E-04
4.004476E+03	2.212299E-02	5.883881E-04
4.005948E+03	2.213669E-02	5.887007E-04
4.007420E+03	2.206710E-02	5.867984E-04
4.008892E+03	2.198721E-02	5.846223E-04
4.010365E+03	2.184968E-02	5.809144E-04
4.011837E+03	2.170183E-02	5.769325E-04
4.013309E+03	2.165579E-02	5.756578E-04
4.014781E+03	2.160458E-02	5.742461E-04
4.016253E+03	2.149573E-02	5.713023E-04
4.017726E+03	2.135595E-02	5.675373E-04
4.019198E+03	2.121408E-02	5.637171E-04
4.020670E+03	2.114217E-02	5.617567E-04
4.022142E+03	2.105686E-02	5.594405E-04
4.023615E+03	2.096018E-02	5.568228E-04
4.025087E+03	2.095310E-02	5.565855E-04
4.026559E+03	2.095220E-02	5.565123E-04
4.028031E+03	2.085031E-02	5.537569E-04
4.029504E+03	2.075251E-02	5.511106E-04
4.030976E+03	2.081651E-02	5.527613E-04
4.032448E+03	2.076093E-02	5.512368E-04
4.033920E+03	2.052283E-02	5.448664E-04
4.035392E+03	2.047235E-02	5.434779E-04
4.036865E+03	2.048889E-02	5.438689E-04
4.038337E+03	2.043735E-02	5.424527E-04
4.039809E+03	2.047762E-02	5.434734E-04
4.041281E+03	2.052203E-02	5.446036E-04
4.042754E+03	2.075326E-02	5.506909E-04
4.044226E+03	2.081320E-02	5.522324E-04
4.045698E+03	2.078231E-02	5.513638E-04
4.047170E+03	2.081026E-02	5.520562E-04
4.048643E+03	2.093220E-02	5.552416E-04
4.050115E+03	2.101079E-02	5.572767E-04
4.051587E+03	2.109250E-02	5.593941E-04
4.053059E+03	2.107091E-02	5.587718E-04
4.054532E+03	2.104002E-02	5.579029E-04
4.056004E+03	2.106388E-02	5.584860E-04
4.057476E+03	2.113220E-02	5.602475E-04
4.058948E+03	2.121605E-02	5.624203E-04
4.060420E+03	2.123891E-02	5.629762E-04
4.061893E+03	2.130108E-02	5.645736E-04
4.063365E+03	2.141084E-02	5.674321E-04
4.064837E+03	2.140994E-02	5.673577E-04
4.066309E+03	2.144628E-02	5.682700E-04
4.067782E+03	2.144022E-02	5.680585E-04
4.069254E+03	2.143724E-02	5.679290E-04
4.070726E+03	2.147567E-02	5.688962E-04
4.072198E+03	2.148305E-02	5.690408E-04
4.073671E+03	2.149664E-02	5.693499E-04
4.075143E+03	2.157340E-02	5.713319E-04
4.076615E+03	2.163051E-02	5.727929E-04
4.078087E+03	2.160890E-02	5.721694E-04
4.079560E+03	2.163701E-02	5.728625E-04
4.081032E+03	2.170657E-02	5.746527E-04
4.082504E+03	2.167356E-02	5.737273E-04
4.083976E+03	2.163431E-02	5.726371E-04
4.085448E+03	2.155773E-02	5.705589E-04
4.086921E+03	2.158273E-02	5.711693E-04
4.088393E+03	2.160980E-02	5.718345E-04
4.089865E+03	2.162444E-02	5.721704E-04
4.091337E+03	2.163492E-02	5.723966E-04
4.092810E+03	2.156346E-02	5.704545E-04
4.094282E+03	2.157601E-02	5.707352E-04
4.095754E+03	2.160931E-02	5.715648E-04
4.097226E+03	2.153468E-02	5.695398E-04
4.098699E+03	2.152958E-02	5.693536E-04
4.100171E+03	2.153589E-02	5.694693E-04
4.101643E+03	2.142279E-02	5.664277E-04
4.103115E+03	2.139169E-02	5.655546E-04
4.104587E+03	2.144056E-02	5.667955E-04
4.106060E+03	2.144580E-02	5.668831E-04
4.107532E+03	2.144586E-02	5.668334E-04
4.109004E+03	2.140122E-02	5.656027E-04
4.110476E+03	2.132331E-02	5.634930E-04
4.111949E+03	2.123914E-02	5.612180E-04
4.113421E+03	2.115079E-02	5.588329E-04
4.114893E+03	2.105928E-02	5.563650E-04
4.116365E+03	2.096774E-02	5.538967E-04
4.117838E+03	2.087826E-02	5.514830E-04
4.119310E+03	2.078978E-02	5.490963E-04
4.120782E+03	2.073560E-02	5.476160E-04
4.122254E+03	2.068661E-02	5.462728E-04
4.123727E+03	2.063759E-02	5.449292E-04
4.125199E+03	2.059585E-02	5.437779E-04
4.126671E+03	2.048851E-02	5.408951E-04
4.128143E+03	2.044985E-02	5.398255E-04
4.129615E+03	2.042367E-02	5.390856E-04
4.131088E+03	2.044017E-02	5.394724E-04
4.132560E+03	2.047125E-02	5.402438E-04
4.134032E+03	2.051484E-02	5.413451E-04
4.135504E+03	2.060949E-02	5.437934E-04
4.136977E+03	2.065623E-02	5.449774E-04
4.138449E+03	2.064357E-02	5.445942E-04
4.139921E+03	2.070700E-02	5.462179E-04
4.141393E+03	2.078712E-02	5.482816E-04
4.142866E+03	2.081617E-02	5.489981E-04
4.144338E+03	2.083584E-02	5.494670E-04
4.145810E+03	2.085134E-02	5.498259E-04
4.147282E+03	2.092942E-02	5.518348E-04
4.148754E+03	2.106698E-02	5.554113E-04
4.150227E+03	2.117328E-02	5.581631E-04
4.151699E+03	2.126812E-02	5.606124E-04
4.153171E+03	2.125967E-02	5.603388E-04
4.154643E+03	2.121886E-02	5.592122E-04
4.156116E+03	2.134818E-02	5.625693E-04
4.157588E+03	2.137522E-02	5.632307E-04
4.159060E+03	2.130306E-02	5.612783E-04
4.160532E+03	2.134889E-02	5.624347E-04
4.162005E+03	2.135191E-02	5.624629E-04
4.163477E+03	2.136536E-02	5.627662E-04
4.164949E+03	2.141747E-02	5.640874E-04
4.166421E+03	2.151662E-02	5.666471E-04
4.167894E+03	2.155204E-02	5.675282E-04
4.169366E+03	2.155924E-02	5.676661E-04
4.170838E+03	2.169397E-02	5.711617E-04
4.172310E+03	2.179737E-02	5.738318E-04
4.173782E+03	2.188198E-02	5.760066E-04
4.175255E+03	2.197287E-02	5.783465E-04
4.176727E+03	2.213910E-02	5.826686E-04
4.178199E+03	2.220599E-02	5.843756E-04
4.179671E+03	2.216303E-02	5.831919E-04
4.181144E+03	2.205204E-02	5.802184E-04
4.182616E+03	2.209590E-02	5.813194E-04
4.184088E+03	2.217012E-02	5.832189E-04
4.185560E+03	2.217841E-02	5.833835E-04
4.187033E+03	2.222752E-02	5.846220E-04
4.188505E+03	2.230283E-02	5.865491E-04
4.189977E+03	2.236034E-02	5.880079E-04
4.191449E+03	2.241367E-02	5.893565E-04
4.192922E+03	2.247015E-02	5.907877E-04
4.194394E+03	2.255180E-02	5.928800E-04
4.195866E+03	2.252867E-02	5.922178E-04
4.197338E+03	2.243112E-02	5.895996E-04
4.198810E+03	2.227170E-02	5.853556E-04
4.200283E+03	2.215207E-02	5.821582E-04
4.201755E+03	2.200828E-02	5.783265E-04
4.203227E+03	2.188332E-02	5.749902E-04
4.204699E+03	2.188417E-02	5.749598E-04
4.206172E+03	2.186823E-02	5.744884E-04
4.207644E+03	2.185752E-02	5.741546E-04
4.209116E+03	2.172406E-02	5.705965E-04
4.210588E+03	2.155804E-02	5.661838E-04
4.212061E+03	2.145597E-02	5.634516E-04
4.213533E+03	2.137066E-02	5.611599E-04
4.215005E+03	2.131892E-02	5.597497E-04
4.216477E+03	2.125245E-02	5.579535E-04
4.217949E+03	2.114187E-02	5.549993E-04
4.219422E+03	2.103650E-02	5.521825E-04
4.220894E+03	2.090694E-02	5.487315E-04
4.222366E+03	2.081620E-02	5.462998E-04
4.223838E+03	2.072754E-02	5.439230E-04
4.225311E+03	2.056741E-02	5.396713E-04
4.226783E+03	2.038200E-02	5.347573E-04
4.228255E+03	2.026696E-02	5.316900E-04
4.229727E+03	2.027380E-02	5.318206E-04
4.231200E+03	2.025330E-02	5.312341E-04
4.232672E+03	2.015500E-02	5.286071E-04
4.234144E+03	2.005877E-02	5.260348E-04
4.235616E+03	1.999931E-02	5.244273E-04
4.237089E+03	1.991774E-02	5.222404E-04
4.238561E+03	1.973832E-02	5.174885E-04
4.240033E+03	1.961356E-02	5.141703E-04
4.241505E+03	1.956241E-02	5.127821E-04
4.242977E+03	1.942284E-02	5.090769E-04
4.244450E+03	1.930534E-02	5.059505E-04
4.245922E+03	1.924990E-02	5.044512E-04
4.247394E+03	1.923129E-02	5.039168E-04
4.248866E+03	1.920214E-02	5.031067E-04
4.250339E+03	1.916454E-02	5.020755E-04
4.251811E+03	1.914168E-02	5.014302E-04
4.253283E+03	1.912196E-02	5.008676E-04
4.254755E+03	1.904641E-02	4.988426E-04
4.256228E+03	1.897610E-02	4.969552E-04
4.257700E+03	1.895528E-02	4.963643E-04
4.259172E+03	1.890916E-02	4.951111E-04
4.260644E+03	1.892731E-02	4.955405E-04
4.262116E+03	1.884639E-02	4.933763E-04
4.263589E+03	1.880233E-02	4.921775E-04
4.265061E+03	1.880886E-02	4.923030E-04
4.266533E+03	1.873946E-02	4.904414E-04
4.268005E+03	1.866056E-02	4.883312E-04
4.269478E+03	1.862698E-02	4.874074E-04
4.270950E+03	1.861870E-02	4.871459E-04
4.272422E+03	1.867159E-02	4.884847E-04
4.273894E+03	1.866541E-02	4.882778E-04
4.275367E+03	1.868349E-02	4.887057E-04
4.276839E+03	1.866675E-02	4.882225E-04
4.278311E+03	1.868904E-02	4.887604E-04
4.279783E+03	1.867439E-02	4.883322E-04
4.281256E+03	1.872412E-02	4.895874E-04
4.282728E+03	1.871685E-02	4.893520E-04
4.284200E+03	1.868422E-02	4.884538E-04
4.285672E+03	1.867904E-02	4.882733E-04
4.287144E+03	1.869498E-02	4.886446E-04
4.288617E+03	1.878168E-02	4.908655E-04
