#wls	flux	fluxerr
1.570383E+03	1.272022E-03	5.542800E-05
1.609642E+03	1.297434E-03	5.641045E-05
1.648902E+03	1.320415E-03	5.727938E-05
1.688161E+03	1.340981E-03	5.803599E-05
1.727421E+03	1.358760E-03	5.866482E-05
1.766680E+03	1.372839E-03	5.912714E-05
1.805940E+03	1.382031E-03	5.937303E-05
1.845200E+03	1.385213E-03	5.935583E-05
1.884459E+03	1.380971E-03	5.901701E-05
1.923719E+03	1.368092E-03	5.830738E-05
1.962978E+03	1.347592E-03	5.727324E-05
2.002238E+03	1.322525E-03	5.604685E-05
2.041497E+03	1.300334E-03	5.494447E-05
2.080757E+03	1.290911E-03	5.438195E-05
2.120016E+03	1.303834E-03	5.475663E-05
2.159276E+03	1.343366E-03	5.623819E-05
2.198536E+03	1.406513E-03	5.869062E-05
2.237795E+03	1.486483E-03	6.182121E-05
2.277055E+03	1.575392E-03	6.529555E-05
2.316314E+03	1.668282E-03	6.890416E-05
2.355574E+03	1.760787E-03	7.246475E-05
2.394833E+03	1.852155E-03	7.594582E-05
2.434093E+03	1.941579E-03	7.931405E-05
2.473353E+03	2.029492E-03	8.258715E-05
2.512612E+03	2.116267E-03	8.578005E-05
2.551872E+03	2.202700E-03	8.892466E-05
2.591131E+03	2.289589E-03	9.205242E-05
2.630391E+03	2.376931E-03	9.516216E-05
2.669650E+03	2.465760E-03	9.829406E-05
2.708910E+03	2.557068E-03	1.014859E-04
2.748170E+03	2.650616E-03	1.047262E-04
2.787429E+03	2.747255E-03	1.080464E-04
2.826689E+03	2.847792E-03	1.114755E-04
2.865948E+03	2.952568E-03	1.150238E-04
2.905208E+03	3.061851E-03	1.186985E-04
2.944467E+03	3.177073E-03	1.225514E-04
2.954282E+03	3.206866E-03	1.235443E-04
2.964097E+03	3.237291E-03	1.245580E-04
2.973912E+03	3.267930E-03	1.255763E-04
2.983727E+03	3.298810E-03	1.266003E-04
2.993542E+03	3.330472E-03	1.276506E-04
3.003357E+03	3.362627E-03	1.287161E-04
3.013172E+03	3.396065E-03	1.298269E-04
3.022986E+03	3.429907E-03	1.309491E-04
3.032801E+03	3.464111E-03	1.320811E-04
3.042616E+03	3.499474E-03	1.332533E-04
3.052431E+03	3.535122E-03	1.344321E-04
3.062246E+03	3.571858E-03	1.356480E-04
3.072061E+03	3.608810E-03	1.368677E-04
3.081876E+03	3.646363E-03	1.381059E-04
3.091691E+03	3.684909E-03	1.393771E-04
3.101506E+03	3.723574E-03	1.406483E-04
3.111320E+03	3.763173E-03	1.419501E-04
3.121135E+03	3.803256E-03	1.432655E-04
3.130950E+03	3.843795E-03	1.445932E-04
3.140765E+03	3.885185E-03	1.459480E-04
3.150580E+03	3.927399E-03	1.473289E-04
3.160395E+03	3.969569E-03	1.487030E-04
3.170210E+03	4.012932E-03	1.501167E-04
3.180025E+03	4.056621E-03	1.515374E-04
3.189840E+03	4.101031E-03	1.529798E-04
3.199655E+03	4.146137E-03	1.544428E-04
3.209469E+03	4.191912E-03	1.559252E-04
3.219284E+03	4.238330E-03	1.574260E-04
3.229099E+03	4.285364E-03	1.589441E-04
3.238914E+03	4.332993E-03	1.604786E-04
3.248729E+03	4.381180E-03	1.620279E-04
3.258544E+03	4.430326E-03	1.636069E-04
3.268359E+03	4.480393E-03	1.652138E-04
3.278174E+03	4.530943E-03	1.668325E-04
3.287989E+03	4.581939E-03	1.684615E-04
3.297803E+03	4.634187E-03	1.701303E-04
3.307618E+03	4.686820E-03	1.718070E-04
3.317433E+03	4.740230E-03	1.735056E-04
3.327248E+03	4.794786E-03	1.752397E-04
3.337063E+03	4.849634E-03	1.769778E-04
3.346878E+03	4.905561E-03	1.787486E-04
3.356693E+03	4.962529E-03	1.805505E-04
3.366508E+03	5.020093E-03	1.823671E-04
3.376323E+03	5.078207E-03	1.841968E-04
3.386137E+03	5.137658E-03	1.860677E-04
3.395952E+03	5.197585E-03	1.879487E-04
3.405767E+03	5.258755E-03	1.898673E-04
3.415582E+03	5.320320E-03	1.917927E-04
3.425397E+03	5.383038E-03	1.937522E-04
3.435212E+03	5.446865E-03	1.957439E-04
3.445027E+03	5.511348E-03	1.977514E-04
3.454842E+03	5.576843E-03	1.997873E-04
3.464657E+03	5.643301E-03	2.018497E-04
3.474471E+03	5.710669E-03	2.039366E-04
3.484286E+03	5.778895E-03	2.060460E-04
3.494101E+03	5.847929E-03	2.081758E-04
3.503916E+03	5.918108E-03	2.103380E-04
3.513731E+03	5.988986E-03	2.125166E-04
3.523546E+03	6.061279E-03	2.147367E-04
3.533361E+03	6.134166E-03	2.169691E-04
3.543176E+03	6.207969E-03	2.192250E-04
3.552991E+03	6.283005E-03	2.215156E-04
3.562805E+03	6.358838E-03	2.238252E-04
3.572620E+03	6.435782E-03	2.261647E-04
3.582435E+03	6.513397E-03	2.285184E-04
3.592250E+03	6.592359E-03	2.309102E-04
3.602065E+03	6.671868E-03	2.333115E-04
3.611880E+03	6.752581E-03	2.357454E-04
3.621695E+03	6.834419E-03	2.382089E-04
3.631510E+03	6.916590E-03	2.406743E-04
3.641325E+03	7.000096E-03	2.431762E-04
3.651140E+03	7.084488E-03	2.456989E-04
3.660954E+03	7.169675E-03	2.482392E-04
3.670769E+03	7.255568E-03	2.507938E-04
3.680584E+03	7.342073E-03	2.533594E-04
3.690399E+03	7.429778E-03	2.559562E-04
3.700214E+03	7.517879E-03	2.585562E-04
3.710029E+03	7.606602E-03	2.611673E-04
3.719844E+03	7.695832E-03	2.637855E-04
3.729659E+03	7.785431E-03	2.664058E-04
3.739474E+03	7.875603E-03	2.690353E-04
3.749288E+03	7.965872E-03	2.716577E-04
3.759103E+03	8.056733E-03	2.742898E-04
3.768918E+03	8.147381E-03	2.769042E-04
3.778733E+03	8.237976E-03	2.795065E-04
3.788548E+03	8.328346E-03	2.820907E-04
3.798363E+03	8.418319E-03	2.846513E-04
3.808178E+03	8.508029E-03	2.871928E-04
3.817993E+03	8.596975E-03	2.896984E-04
3.827808E+03	8.685283E-03	2.921726E-04
3.837622E+03	8.772763E-03	2.946092E-04
3.847437E+03	8.858926E-03	2.969919E-04
3.857252E+03	8.943890E-03	2.993250E-04
3.867067E+03	9.027777E-03	3.016127E-04
3.876882E+03	9.109810E-03	3.038296E-04
3.886697E+03	9.190131E-03	3.059806E-04
3.896512E+03	9.268583E-03	3.080609E-04
3.906327E+03	9.345019E-03	3.100660E-04
3.916142E+03	9.419599E-03	3.120015E-04
3.925956E+03	9.491644E-03	3.138456E-04
3.935771E+03	9.561618E-03	3.156139E-04
3.945586E+03	9.628902E-03	3.172865E-04
3.955401E+03	9.693710E-03	3.188710E-04
3.965216E+03	9.756280E-03	3.203756E-04
3.975031E+03	9.816078E-03	3.217834E-04
3.984846E+03	9.873123E-03	3.230954E-04
3.994661E+03	9.927723E-03	3.243223E-04
4.004476E+03	9.979943E-03	3.254668E-04
4.014290E+03	1.002938E-02	3.265160E-04
4.024105E+03	1.007665E-02	3.274906E-04
4.033920E+03	1.012141E-02	3.283803E-04
4.043735E+03	1.016409E-02	3.291988E-04
4.053550E+03	1.020464E-02	3.299455E-04
4.063365E+03	1.024307E-02	3.306207E-04
4.073180E+03	1.028007E-02	3.312474E-04
4.082995E+03	1.031524E-02	3.318129E-04
4.092810E+03	1.034909E-02	3.323340E-04
4.102625E+03	1.038193E-02	3.328209E-04
4.112439E+03	1.041387E-02	3.332774E-04
4.122254E+03	1.044503E-02	3.337078E-04
4.132069E+03	1.047579E-02	3.341238E-04
4.141884E+03	1.050629E-02	3.345308E-04
4.151699E+03	1.053693E-02	3.349411E-04
4.161514E+03	1.056790E-02	3.353607E-04
4.171329E+03	1.059959E-02	3.358024E-04
4.181144E+03	1.063200E-02	3.362661E-04
4.190959E+03	1.066555E-02	3.367649E-04
4.200773E+03	1.070045E-02	3.373054E-04
4.210588E+03	1.073711E-02	3.379000E-04
4.220403E+03	1.077552E-02	3.385490E-04
4.230218E+03	1.081590E-02	3.392585E-04
4.240033E+03	1.085843E-02	3.400339E-04
4.249848E+03	1.090325E-02	3.408800E-04
4.259663E+03	1.095034E-02	3.417951E-04
4.269478E+03	1.099978E-02	3.427821E-04
4.279293E+03	1.105146E-02	3.438367E-04
4.289107E+03	1.110520E-02	3.449538E-04
4.298922E+03	1.116095E-02	3.461313E-04
4.308737E+03	1.121795E-02	3.473457E-04
4.318552E+03	1.127623E-02	3.485972E-04
4.328367E+03	1.133507E-02	3.498642E-04
4.338182E+03	1.139377E-02	3.511244E-04
4.347997E+03	1.145188E-02	3.523643E-04
4.357812E+03	1.150876E-02	3.535644E-04
4.367627E+03	1.156361E-02	3.546999E-04
4.377441E+03	1.161636E-02	3.557694E-04
4.387256E+03	1.166663E-02	3.567610E-04
4.397071E+03	1.171461E-02	3.576813E-04
4.406886E+03	1.176002E-02	3.585215E-04
4.416701E+03	1.180300E-02	3.592869E-04
4.426516E+03	1.184339E-02	3.599724E-04
4.436331E+03	1.188116E-02	3.605777E-04
4.446146E+03	1.191597E-02	3.610926E-04
4.455961E+03	1.194810E-02	3.615259E-04
4.465775E+03	1.197706E-02	3.618632E-04
4.475590E+03	1.200268E-02	3.620996E-04
4.485405E+03	1.202509E-02	3.622398E-04
4.495220E+03	1.204402E-02	3.622755E-04
4.505035E+03	1.205933E-02	3.622035E-04
4.514850E+03	1.207094E-02	3.620212E-04
4.524665E+03	1.207877E-02	3.617271E-04
4.534480E+03	1.208264E-02	3.613162E-04
4.544295E+03	1.208270E-02	3.607930E-04
4.554109E+03	1.207898E-02	3.601592E-04
4.563924E+03	1.207154E-02	3.594169E-04
4.573739E+03	1.206033E-02	3.585651E-04
4.583554E+03	1.204551E-02	3.576086E-04
4.593369E+03	1.202736E-02	3.565568E-04
4.603184E+03	1.200582E-02	3.554075E-04
4.612999E+03	1.198140E-02	3.541767E-04
4.622814E+03	1.195423E-02	3.528682E-04
4.632629E+03	1.192459E-02	3.514907E-04
4.642444E+03	1.189279E-02	3.500533E-04
4.652258E+03	1.185902E-02	3.485621E-04
4.662073E+03	1.182363E-02	3.470274E-04
4.671888E+03	1.178683E-02	3.454556E-04
4.681703E+03	1.174915E-02	3.438621E-04
4.691518E+03	1.171068E-02	3.422497E-04
4.701333E+03	1.167194E-02	3.406337E-04
4.711148E+03	1.163305E-02	3.390172E-04
4.720963E+03	1.159424E-02	3.374074E-04
4.730778E+03	1.155604E-02	3.358190E-04
4.740592E+03	1.151855E-02	3.342553E-04
4.750407E+03	1.148213E-02	3.327267E-04
4.760222E+03	1.144676E-02	3.312315E-04
4.770037E+03	1.141278E-02	3.297803E-04
4.779852E+03	1.138041E-02	3.283786E-04
4.789667E+03	1.134971E-02	3.270285E-04
4.799482E+03	1.132101E-02	3.257387E-04
4.809297E+03	1.129424E-02	3.245070E-04
4.819112E+03	1.126969E-02	3.233416E-04
4.828926E+03	1.124741E-02	3.222435E-04
4.838741E+03	1.122766E-02	3.212201E-04
4.848556E+03	1.121036E-02	3.202682E-04
4.858371E+03	1.119576E-02	3.193949E-04
4.868186E+03	1.118399E-02	3.186036E-04
4.878001E+03	1.117503E-02	3.178935E-04
4.887816E+03	1.116914E-02	3.172709E-04
4.897631E+03	1.116615E-02	3.167316E-04
4.907446E+03	1.116643E-02	3.162847E-04
4.917260E+03	1.116979E-02	3.159252E-04
4.927075E+03	1.117646E-02	3.156585E-04
4.936890E+03	1.118650E-02	3.154862E-04
4.946705E+03	1.119996E-02	3.154095E-04
4.956520E+03	1.121691E-02	3.154296E-04
4.966335E+03	1.123727E-02	3.155436E-04
4.976150E+03	1.126118E-02	3.157556E-04
4.985965E+03	1.128856E-02	3.160625E-04
4.995780E+03	1.131966E-02	3.164708E-04
5.005594E+03	1.135424E-02	3.169734E-04
5.015409E+03	1.139229E-02	3.175696E-04
5.025224E+03	1.143403E-02	3.182650E-04
5.035039E+03	1.147919E-02	3.190516E-04
5.044854E+03	1.152770E-02	3.199272E-04
5.054669E+03	1.157976E-02	3.208969E-04
5.064484E+03	1.163518E-02	3.219546E-04
5.074299E+03	1.169373E-02	3.230940E-04
5.084114E+03	1.175544E-02	3.243154E-04
5.093929E+03	1.182032E-02	3.256184E-04
5.103743E+03	1.188799E-02	3.269923E-04
5.113558E+03	1.195843E-02	3.284364E-04
5.123373E+03	1.203162E-02	3.299495E-04
5.133188E+03	1.210712E-02	3.315195E-04
5.143003E+03	1.218503E-02	3.331483E-04
5.152818E+03	1.226502E-02	3.348270E-04
5.162633E+03	1.234687E-02	3.365495E-04
5.172448E+03	1.243038E-02	3.383097E-04
5.182263E+03	1.251532E-02	3.401013E-04
5.192077E+03	1.260158E-02	3.419211E-04
5.201892E+03	1.268879E-02	3.437588E-04
5.211707E+03	1.277668E-02	3.456073E-04
5.221522E+03	1.286497E-02	3.474590E-04
5.231337E+03	1.295354E-02	3.493100E-04
5.241152E+03	1.304195E-02	3.511490E-04
5.250967E+03	1.312991E-02	3.529678E-04
5.260782E+03	1.321711E-02	3.547584E-04
5.270597E+03	1.330336E-02	3.565159E-04
5.280411E+03	1.338809E-02	3.582249E-04
5.290226E+03	1.347123E-02	3.598842E-04
5.300041E+03	1.355234E-02	3.614816E-04
5.309856E+03	1.363107E-02	3.630087E-04
5.319671E+03	1.370713E-02	3.644577E-04
5.329486E+03	1.378020E-02	3.658205E-04
5.339301E+03	1.384984E-02	3.670861E-04
5.349116E+03	1.391606E-02	3.682547E-04
5.358931E+03	1.397830E-02	3.693124E-04
5.368745E+03	1.403631E-02	3.702530E-04
5.378560E+03	1.409016E-02	3.710784E-04
5.388375E+03	1.413920E-02	3.717726E-04
5.398190E+03	1.418355E-02	3.723389E-04
5.408005E+03	1.422306E-02	3.727741E-04
5.417820E+03	1.425746E-02	3.730718E-04
5.427635E+03	1.428667E-02	3.732302E-04
5.437450E+03	1.431077E-02	3.732525E-04
5.447265E+03	1.432961E-02	3.731350E-04
5.457079E+03	1.434351E-02	3.728869E-04
5.466894E+03	1.435223E-02	3.725025E-04
5.476709E+03	1.435602E-02	3.719890E-04
5.486524E+03	1.435503E-02	3.713508E-04
5.496339E+03	1.434943E-02	3.705930E-04
5.506154E+03	1.433944E-02	3.697218E-04
5.515969E+03	1.432530E-02	3.687439E-04
5.525784E+03	1.430743E-02	3.676708E-04
5.535599E+03	1.428599E-02	3.665069E-04
5.545414E+03	1.426144E-02	3.652645E-04
5.555228E+03	1.423397E-02	3.639490E-04
5.565043E+03	1.420395E-02	3.625699E-04
5.574858E+03	1.417188E-02	3.611404E-04
5.584673E+03	1.413796E-02	3.596662E-04
5.594488E+03	1.410257E-02	3.581569E-04
5.604303E+03	1.406620E-02	3.566252E-04
5.614118E+03	1.402906E-02	3.550765E-04
5.623933E+03	1.399147E-02	3.535192E-04
5.633748E+03	1.395376E-02	3.519614E-04
5.643562E+03	1.391636E-02	3.504143E-04
5.653377E+03	1.387940E-02	3.488810E-04
5.663192E+03	1.384301E-02	3.473648E-04
5.673007E+03	1.380768E-02	3.458777E-04
5.682822E+03	1.377347E-02	3.444215E-04
5.692637E+03	1.374043E-02	3.429971E-04
5.702452E+03	1.370883E-02	3.416112E-04
5.712267E+03	1.367882E-02	3.402671E-04
5.722082E+03	1.365046E-02	3.389667E-04
5.731896E+03	1.362372E-02	3.377085E-04
5.741711E+03	1.359865E-02	3.364937E-04
5.751526E+03	1.357540E-02	3.353262E-04
5.761341E+03	1.355385E-02	3.342027E-04
5.771156E+03	1.353401E-02	3.331230E-04
5.780971E+03	1.351598E-02	3.320896E-04
5.790786E+03	1.349947E-02	3.310953E-04
5.800601E+03	1.348456E-02	3.301417E-04
5.810416E+03	1.347107E-02	3.292245E-04
5.820230E+03	1.345919E-02	3.283481E-04
5.830045E+03	1.344848E-02	3.275016E-04
5.839860E+03	1.343912E-02	3.266893E-04
5.849675E+03	1.343091E-02	3.259063E-04
5.859490E+03	1.342377E-02	3.251506E-04
5.869305E+03	1.341763E-02	3.244203E-04
5.879120E+03	1.341242E-02	3.237138E-04
5.888935E+03	1.340794E-02	3.230262E-04
5.898750E+03	1.340410E-02	3.223555E-04
5.908564E+03	1.340098E-02	3.217035E-04
5.918379E+03	1.339826E-02	3.210623E-04
5.928194E+03	1.339600E-02	3.204335E-04
5.938009E+03	1.339413E-02	3.198158E-04
5.947824E+03	1.339235E-02	3.192017E-04
5.957639E+03	1.339085E-02	3.185959E-04
5.967454E+03	1.338932E-02	3.179914E-04
5.977269E+03	1.338770E-02	3.173865E-04
5.987084E+03	1.338582E-02	3.167775E-04
5.996898E+03	1.338375E-02	3.161660E-04
6.006713E+03	1.338117E-02	3.155448E-04
6.016528E+03	1.337803E-02	3.149128E-04
6.026343E+03	1.337413E-02	3.142658E-04
6.036158E+03	1.336918E-02	3.135965E-04
6.045973E+03	1.336309E-02	3.129039E-04
6.055788E+03	1.335543E-02	3.121774E-04
6.065603E+03	1.334599E-02	3.114129E-04
6.075418E+03	1.333482E-02	3.106119E-04
6.085233E+03	1.332187E-02	3.097733E-04
6.095047E+03	1.330756E-02	3.089077E-04
6.104862E+03	1.329183E-02	3.080135E-04
6.114677E+03	1.327499E-02	3.070981E-04
6.124492E+03	1.325681E-02	3.061571E-04
6.134307E+03	1.323763E-02	3.051977E-04
6.144122E+03	1.321733E-02	3.042182E-04
6.153937E+03	1.319584E-02	3.032169E-04
6.163752E+03	1.317347E-02	3.022012E-04
6.173567E+03	1.314986E-02	3.011630E-04
6.183381E+03	1.312506E-02	3.001037E-04
6.193196E+03	1.309924E-02	2.990277E-04
6.203011E+03	1.307217E-02	2.979298E-04
6.212826E+03	1.304378E-02	2.968086E-04
6.222641E+03	1.301410E-02	2.956652E-04
6.232456E+03	1.298319E-02	2.945010E-04
6.242271E+03	1.295068E-02	2.933083E-04
6.252086E+03	1.291678E-02	2.920917E-04
6.261901E+03	1.288140E-02	2.908494E-04
6.271715E+03	1.284433E-02	2.895773E-04
6.281530E+03	1.280552E-02	2.882743E-04
6.291345E+03	1.276502E-02	2.869419E-04
6.301160E+03	1.272265E-02	2.855763E-04
6.310975E+03	1.267824E-02	2.841738E-04
6.320790E+03	1.263185E-02	2.827365E-04
6.330605E+03	1.258335E-02	2.812611E-04
6.340420E+03	1.253268E-02	2.797470E-04
6.350235E+03	1.247958E-02	2.781886E-04
6.360049E+03	1.242416E-02	2.765887E-04
6.369864E+03	1.236643E-02	2.749474E-04
6.379679E+03	1.230612E-02	2.732594E-04
6.389494E+03	1.224353E-02	2.715310E-04
6.399309E+03	1.217867E-02	2.697626E-04
6.409124E+03	1.211171E-02	2.679579E-04
6.418939E+03	1.204272E-02	2.661180E-04
6.428754E+03	1.197188E-02	2.642472E-04
6.438569E+03	1.189942E-02	2.623501E-04
6.448383E+03	1.182556E-02	2.604318E-04
6.458198E+03	1.175031E-02	2.584919E-04
6.468013E+03	1.167406E-02	2.565391E-04
6.477828E+03	1.159698E-02	2.545768E-04
6.487643E+03	1.151925E-02	2.526088E-04
6.497458E+03	1.144104E-02	2.506387E-04
6.507273E+03	1.136269E-02	2.486736E-04
6.517088E+03	1.128437E-02	2.467173E-04
6.526903E+03	1.120630E-02	2.447739E-04
6.536718E+03	1.112878E-02	2.428502E-04
6.546532E+03	1.105177E-02	2.409446E-04
6.556347E+03	1.097569E-02	2.390662E-04
6.566162E+03	1.090060E-02	2.372161E-04
6.575977E+03	1.082667E-02	2.353977E-04
6.585792E+03	1.075420E-02	2.336173E-04
6.595607E+03	1.068322E-02	2.318753E-04
6.605422E+03	1.061402E-02	2.301774E-04
6.615237E+03	1.054649E-02	2.285214E-04
6.625052E+03	1.048103E-02	2.269154E-04
6.634866E+03	1.041777E-02	2.253619E-04
6.644681E+03	1.035671E-02	2.238608E-04
6.654496E+03	1.029787E-02	2.224121E-04
6.664311E+03	1.024170E-02	2.210254E-04
6.674126E+03	1.018797E-02	2.196955E-04
6.683941E+03	1.013689E-02	2.184265E-04
6.693756E+03	1.008866E-02	2.172227E-04
6.703571E+03	1.004327E-02	2.160832E-04
6.713386E+03	1.000077E-02	2.150092E-04
6.723200E+03	9.961244E-03	2.140021E-04
6.733015E+03	9.924743E-03	2.130628E-04
6.742830E+03	9.891441E-03	2.121948E-04
6.752645E+03	9.861134E-03	2.113934E-04
6.762460E+03	9.833982E-03	2.106619E-04
6.772275E+03	9.810122E-03	2.100029E-04
6.782090E+03	9.789330E-03	2.094114E-04
6.791905E+03	9.771853E-03	2.088926E-04
6.801720E+03	9.757571E-03	2.084436E-04
6.811534E+03	9.746351E-03	2.080613E-04
6.821349E+03	9.738412E-03	2.077503E-04
6.831164E+03	9.733610E-03	2.075072E-04
6.840979E+03	9.731782E-03	2.073285E-04
6.850794E+03	9.733134E-03	2.072183E-04
6.860609E+03	9.737484E-03	2.071725E-04
6.870424E+03	9.744656E-03	2.071873E-04
6.880239E+03	9.754828E-03	2.072662E-04
6.890054E+03	9.767792E-03	2.074048E-04
6.899868E+03	9.783473E-03	2.076012E-04
6.909683E+03	9.801658E-03	2.078507E-04
6.919498E+03	9.822490E-03	2.081564E-04
6.929313E+03	9.845740E-03	2.085131E-04
6.939128E+03	9.871298E-03	2.089185E-04
6.948943E+03	9.899030E-03	2.093697E-04
6.958758E+03	9.928819E-03	2.098639E-04
6.968573E+03	9.960513E-03	2.103980E-04
6.978388E+03	9.994103E-03	2.109716E-04
6.988203E+03	1.002918E-02	2.115761E-04
6.998017E+03	1.006570E-02	2.122105E-04
7.007832E+03	1.010363E-02	2.128739E-04
7.017647E+03	1.014266E-02	2.135600E-04
7.027462E+03	1.018261E-02	2.142648E-04
7.037277E+03	1.022330E-02	2.149843E-04
7.047092E+03	1.026451E-02	2.157144E-04
7.056907E+03	1.030620E-02	2.164536E-04
7.066722E+03	1.034789E-02	2.171925E-04
7.076537E+03	1.038978E-02	2.179348E-04
7.086351E+03	1.043126E-02	2.186681E-04
7.096166E+03	1.047240E-02	2.193937E-04
7.105981E+03	1.051287E-02	2.201049E-04
7.115796E+03	1.055259E-02	2.208002E-04
7.125611E+03	1.059127E-02	2.214731E-04
7.135426E+03	1.062884E-02	2.221229E-04
7.145241E+03	1.066514E-02	2.227459E-04
7.155056E+03	1.069986E-02	2.233361E-04
7.164871E+03	1.073301E-02	2.238935E-04
7.174685E+03	1.076445E-02	2.244157E-04
7.184500E+03	1.079394E-02	2.248974E-04
7.194315E+03	1.082167E-02	2.253429E-04
7.204130E+03	1.084740E-02	2.257476E-04
7.213945E+03	1.087111E-02	2.261110E-04
7.223760E+03	1.089288E-02	2.264352E-04
7.233575E+03	1.091258E-02	2.267172E-04
7.243390E+03	1.093036E-02	2.269607E-04
7.253205E+03	1.094611E-02	2.271634E-04
7.263019E+03	1.095987E-02	2.273266E-04
7.272834E+03	1.097187E-02	2.274549E-04
7.282649E+03	1.098221E-02	2.275507E-04
7.292464E+03	1.099069E-02	2.276101E-04
7.302279E+03	1.099759E-02	2.276391E-04
7.312094E+03	1.100304E-02	2.276405E-04
7.321909E+03	1.100719E-02	2.276177E-04
7.331724E+03	1.101036E-02	2.275773E-04
7.341539E+03	1.101255E-02	2.275196E-04
7.351353E+03	1.101394E-02	2.274484E-04
7.361168E+03	1.101469E-02	2.273675E-04
7.370983E+03	1.101498E-02	2.272803E-04
7.380798E+03	1.101480E-02	2.271872E-04
7.390613E+03	1.101463E-02	2.270981E-04
7.400428E+03	1.101416E-02	2.270067E-04
7.410243E+03	1.101382E-02	2.269222E-04
7.420058E+03	1.101358E-02	2.268441E-04
7.429873E+03	1.101370E-02	2.267779E-04
7.439687E+03	1.101395E-02	2.267191E-04
7.449502E+03	1.101456E-02	2.266725E-04
7.459317E+03	1.101541E-02	2.266361E-04
7.469132E+03	1.101683E-02	2.266165E-04
7.478947E+03	1.101851E-02	2.266077E-04
7.488762E+03	1.102041E-02	2.266094E-04
7.498577E+03	1.102264E-02	2.266236E-04
7.508392E+03	1.102497E-02	2.266460E-04
7.518207E+03	1.102744E-02	2.266775E-04
7.528022E+03	1.102977E-02	2.267128E-04
7.537836E+03	1.103196E-02	2.267522E-04
7.547651E+03	1.103370E-02	2.267891E-04
7.557466E+03	1.103478E-02	2.268199E-04
7.567281E+03	1.103501E-02	2.268405E-04
7.577096E+03	1.103430E-02	2.268496E-04
7.586911E+03	1.103227E-02	2.268395E-04
7.596726E+03	1.102881E-02	2.268084E-04
7.606541E+03	1.102353E-02	2.267481E-04
7.616356E+03	1.101617E-02	2.266536E-04
