#wls	flux	fluxerr
1.570383E+03	1.155796E-03	3.505514E-05
1.609642E+03	1.180353E-03	3.571408E-05
1.648902E+03	1.202974E-03	3.630878E-05
1.688161E+03	1.223203E-03	3.682578E-05
1.727421E+03	1.241155E-03	3.726894E-05
1.766680E+03	1.255748E-03	3.760626E-05
1.805940E+03	1.265880E-03	3.780547E-05
1.845200E+03	1.270254E-03	3.782894E-05
1.884459E+03	1.268029E-03	3.765311E-05
1.923719E+03	1.257825E-03	3.723875E-05
1.962978E+03	1.240536E-03	3.661442E-05
2.002238E+03	1.218724E-03	3.585753E-05
2.041497E+03	1.199700E-03	3.518376E-05
2.080757E+03	1.192380E-03	3.485306E-05
2.120016E+03	1.205654E-03	3.512097E-05
2.159276E+03	1.243530E-03	3.609757E-05
2.198536E+03	1.303308E-03	3.769690E-05
2.237795E+03	1.378984E-03	3.973863E-05
2.277055E+03	1.463056E-03	4.200168E-05
2.316314E+03	1.550633E-03	4.434282E-05
2.355574E+03	1.638761E-03	4.667596E-05
2.394833E+03	1.725329E-03	4.894032E-05
2.434093E+03	1.810720E-03	5.114657E-05
2.473353E+03	1.894734E-03	5.328875E-05
2.512612E+03	1.978011E-03	5.538459E-05
2.551872E+03	2.061283E-03	5.745401E-05
2.591131E+03	2.144944E-03	5.950720E-05
2.630391E+03	2.229658E-03	6.156163E-05
2.669650E+03	2.316384E-03	6.364243E-05
2.708910E+03	2.405325E-03	6.575353E-05
2.748170E+03	2.496954E-03	6.790610E-05
2.787429E+03	2.592046E-03	7.011911E-05
2.826689E+03	2.691325E-03	7.240967E-05
2.865948E+03	2.794714E-03	7.477298E-05
2.905208E+03	2.903553E-03	7.724186E-05
2.944467E+03	3.017626E-03	7.980708E-05
2.954282E+03	3.047010E-03	8.046430E-05
2.964097E+03	3.076956E-03	8.113347E-05
2.973912E+03	3.107459E-03	8.181437E-05
2.983727E+03	3.138169E-03	8.249770E-05
2.993542E+03	3.169582E-03	8.319644E-05
3.003357E+03	3.201821E-03	8.391372E-05
3.013172E+03	3.234461E-03	8.463832E-05
3.022986E+03	3.268223E-03	8.538895E-05
3.032801E+03	3.302305E-03	8.614459E-05
3.042616E+03	3.337049E-03	8.691409E-05
3.052431E+03	3.372423E-03	8.769646E-05
3.062246E+03	3.408390E-03	8.849070E-05
3.072061E+03	3.445301E-03	8.930579E-05
3.081876E+03	3.482361E-03	9.012101E-05
3.091691E+03	3.520304E-03	9.095530E-05
3.101506E+03	3.558718E-03	9.179792E-05
3.111320E+03	3.597577E-03	9.264807E-05
3.121135E+03	3.637236E-03	9.351482E-05
3.130950E+03	3.677669E-03	9.439739E-05
3.140765E+03	3.718083E-03	9.527533E-05
3.150580E+03	3.759603E-03	9.617740E-05
3.160395E+03	3.801437E-03	9.708322E-05
3.170210E+03	3.843944E-03	9.800186E-05
3.180025E+03	3.887100E-03	9.893260E-05
3.189840E+03	3.930496E-03	9.986495E-05
3.199655E+03	3.974875E-03	1.008177E-04
3.209469E+03	4.019828E-03	1.017803E-04
3.219284E+03	4.064949E-03	1.027425E-04
3.229099E+03	4.111358E-03	1.037323E-04
3.238914E+03	4.157884E-03	1.047203E-04
3.248729E+03	4.205265E-03	1.057248E-04
3.258544E+03	4.253093E-03	1.067354E-04
3.268359E+03	4.301719E-03	1.077610E-04
3.278174E+03	4.351119E-03	1.088007E-04
3.287989E+03	4.400881E-03	1.098441E-04
3.297803E+03	4.451359E-03	1.109001E-04
3.307618E+03	4.502890E-03	1.119767E-04
3.317433E+03	4.554700E-03	1.130547E-04
3.327248E+03	4.607128E-03	1.141424E-04
3.337063E+03	4.660512E-03	1.152481E-04
3.346878E+03	4.714817E-03	1.163706E-04
3.356693E+03	4.769260E-03	1.174906E-04
3.366508E+03	4.824924E-03	1.186346E-04
3.376323E+03	4.881025E-03	1.197833E-04
3.386137E+03	4.937885E-03	1.209443E-04
3.395952E+03	4.995472E-03	1.221168E-04
3.405767E+03	5.053731E-03	1.232994E-04
3.415582E+03	5.112985E-03	1.244996E-04
3.425397E+03	5.172822E-03	1.257075E-04
3.435212E+03	5.233192E-03	1.269215E-04
3.445027E+03	5.294400E-03	1.281491E-04
3.454842E+03	5.356042E-03	1.293803E-04
3.464657E+03	5.418769E-03	1.306307E-04
3.474471E+03	5.482170E-03	1.318902E-04
3.484286E+03	5.546183E-03	1.331573E-04
3.494101E+03	5.610749E-03	1.344303E-04
3.503916E+03	5.676161E-03	1.357162E-04
3.513731E+03	5.742006E-03	1.370049E-04
3.523546E+03	5.808570E-03	1.383033E-04
3.533361E+03	5.875802E-03	1.396098E-04
3.543176E+03	5.943637E-03	1.409229E-04
3.552991E+03	6.012025E-03	1.422413E-04
3.562805E+03	6.081265E-03	1.435719E-04
3.572620E+03	6.150980E-03	1.449057E-04
3.582435E+03	6.221490E-03	1.462500E-04
3.592250E+03	6.292441E-03	1.475965E-04
3.602065E+03	6.364514E-03	1.489609E-04
3.611880E+03	6.437402E-03	1.503360E-04
3.621695E+03	6.511149E-03	1.517225E-04
3.631510E+03	6.585834E-03	1.531222E-04
3.641325E+03	6.661868E-03	1.545444E-04
3.651140E+03	6.739374E-03	1.559917E-04
3.660954E+03	6.818478E-03	1.574668E-04
3.670769E+03	6.899339E-03	1.589731E-04
3.680584E+03	6.982120E-03	1.605140E-04
3.690399E+03	7.066994E-03	1.620931E-04
3.700214E+03	7.154444E-03	1.637211E-04
3.710029E+03	7.244322E-03	1.653943E-04
3.719844E+03	7.337077E-03	1.671224E-04
3.729659E+03	7.432820E-03	1.689074E-04
3.739474E+03	7.531630E-03	1.707507E-04
3.749288E+03	7.633534E-03	1.726523E-04
3.759103E+03	7.738497E-03	1.746110E-04
3.768918E+03	7.846724E-03	1.766307E-04
3.778733E+03	7.957741E-03	1.787004E-04
3.788548E+03	8.071595E-03	1.808205E-04
3.798363E+03	8.187659E-03	1.829766E-04
3.808178E+03	8.305814E-03	1.851656E-04
3.817993E+03	8.425266E-03	1.873695E-04
3.827808E+03	8.545741E-03	1.895820E-04
3.837622E+03	8.666875E-03	1.917947E-04
3.847437E+03	8.787400E-03	1.939797E-04
3.857252E+03	8.906853E-03	1.961267E-04
3.867067E+03	9.024461E-03	1.982190E-04
3.876882E+03	9.139149E-03	2.002332E-04
3.886697E+03	9.250687E-03	2.021648E-04
3.896512E+03	9.357748E-03	2.039854E-04
3.906327E+03	9.459884E-03	2.056860E-04
3.916142E+03	9.556412E-03	2.072525E-04
3.925956E+03	9.646465E-03	2.086672E-04
3.935771E+03	9.729789E-03	2.099255E-04
3.945586E+03	9.805699E-03	2.110140E-04
3.955401E+03	9.874143E-03	2.119327E-04
3.965216E+03	9.934392E-03	2.126673E-04
3.975031E+03	9.986625E-03	2.132231E-04
3.984846E+03	1.003087E-02	2.136017E-04
3.994661E+03	1.006700E-02	2.138023E-04
4.004476E+03	1.009528E-02	2.138316E-04
4.014290E+03	1.011606E-02	2.136982E-04
4.024105E+03	1.012952E-02	2.134076E-04
4.033920E+03	1.013622E-02	2.129726E-04
4.043735E+03	1.013675E-02	2.124066E-04
4.053550E+03	1.013154E-02	2.117199E-04
4.063365E+03	1.012132E-02	2.109285E-04
4.073180E+03	1.010661E-02	2.100444E-04
4.082995E+03	1.008821E-02	2.090849E-04
4.092810E+03	1.006693E-02	2.080673E-04
4.102625E+03	1.004316E-02	2.070000E-04
4.112439E+03	1.001771E-02	2.059005E-04
4.122254E+03	9.991416E-03	2.047859E-04
4.132069E+03	9.964852E-03	2.036684E-04
4.141884E+03	9.938808E-03	2.025641E-04
4.151699E+03	9.913480E-03	2.014769E-04
4.161514E+03	9.889974E-03	2.004291E-04
4.171329E+03	9.868650E-03	1.994277E-04
4.181144E+03	9.850014E-03	1.984826E-04
4.190959E+03	9.834574E-03	1.976036E-04
4.200773E+03	9.822981E-03	1.968031E-04
4.210588E+03	9.815869E-03	1.960932E-04
4.220403E+03	9.813339E-03	1.954753E-04
4.230218E+03	9.815993E-03	1.949604E-04
4.240033E+03	9.824400E-03	1.945591E-04
4.249848E+03	9.838951E-03	1.942779E-04
4.259663E+03	9.860017E-03	1.941233E-04
4.269478E+03	9.887955E-03	1.941011E-04
4.279293E+03	9.923112E-03	1.942171E-04
4.289107E+03	9.965974E-03	1.944793E-04
4.298922E+03	1.001717E-02	1.948988E-04
4.308737E+03	1.007682E-02	1.954767E-04
4.318552E+03	1.014548E-02	1.962219E-04
4.328367E+03	1.022344E-02	1.971388E-04
4.338182E+03	1.031105E-02	1.982324E-04
4.347997E+03	1.040870E-02	1.995086E-04
4.357812E+03	1.051636E-02	2.009650E-04
4.367627E+03	1.063444E-02	2.026074E-04
4.377441E+03	1.076214E-02	2.044194E-04
4.387256E+03	1.089868E-02	2.063840E-04
4.397071E+03	1.104321E-02	2.084841E-04
4.406886E+03	1.119441E-02	2.106932E-04
4.416701E+03	1.135107E-02	2.129874E-04
4.426516E+03	1.151163E-02	2.153367E-04
4.436331E+03	1.167465E-02	2.177136E-04
4.446146E+03	1.183821E-02	2.200821E-04
4.455961E+03	1.200072E-02	2.224123E-04
4.465775E+03	1.216015E-02	2.246670E-04
4.475590E+03	1.231452E-02	2.268105E-04
4.485405E+03	1.246168E-02	2.288041E-04
4.495220E+03	1.259995E-02	2.306183E-04
4.505035E+03	1.272724E-02	2.322163E-04
4.514850E+03	1.284156E-02	2.335640E-04
4.524665E+03	1.294156E-02	2.346394E-04
4.534480E+03	1.302584E-02	2.354192E-04
4.544295E+03	1.309321E-02	2.358852E-04
4.554109E+03	1.314285E-02	2.360250E-04
4.563924E+03	1.317422E-02	2.358326E-04
4.573739E+03	1.318750E-02	2.353140E-04
4.583554E+03	1.318272E-02	2.344731E-04
4.593369E+03	1.316077E-02	2.333285E-04
4.603184E+03	1.312237E-02	2.318960E-04
4.612999E+03	1.306883E-02	2.302017E-04
4.622814E+03	1.300190E-02	2.282788E-04
4.632629E+03	1.292303E-02	2.261550E-04
4.642444E+03	1.283429E-02	2.238684E-04
4.652258E+03	1.273765E-02	2.214551E-04
4.662073E+03	1.263497E-02	2.189486E-04
4.671888E+03	1.252836E-02	2.163865E-04
4.681703E+03	1.241958E-02	2.137996E-04
4.691518E+03	1.231054E-02	2.112211E-04
4.701333E+03	1.220256E-02	2.086737E-04
4.711148E+03	1.209722E-02	2.061843E-04
4.720963E+03	1.199537E-02	2.037666E-04
4.730778E+03	1.189805E-02	2.014379E-04
4.740592E+03	1.180584E-02	1.992071E-04
4.750407E+03	1.171927E-02	1.970822E-04
4.760222E+03	1.163868E-02	1.950679E-04
4.770037E+03	1.156421E-02	1.931660E-04
4.779852E+03	1.149576E-02	1.913733E-04
4.789667E+03	1.143333E-02	1.896890E-04
4.799482E+03	1.137654E-02	1.881058E-04
4.809297E+03	1.132518E-02	1.866194E-04
4.819112E+03	1.127875E-02	1.852207E-04
4.828926E+03	1.123696E-02	1.839040E-04
4.838741E+03	1.119937E-02	1.826615E-04
4.848556E+03	1.116560E-02	1.814864E-04
4.858371E+03	1.113543E-02	1.803743E-04
4.868186E+03	1.110836E-02	1.793168E-04
4.878001E+03	1.108448E-02	1.783149E-04
4.887816E+03	1.106375E-02	1.773672E-04
4.897631E+03	1.104624E-02	1.764745E-04
4.907446E+03	1.103204E-02	1.756378E-04
4.917260E+03	1.102169E-02	1.748652E-04
4.927075E+03	1.101549E-02	1.741606E-04
4.936890E+03	1.101392E-02	1.735314E-04
4.946705E+03	1.101766E-02	1.729871E-04
4.956520E+03	1.102718E-02	1.725343E-04
4.966335E+03	1.104317E-02	1.721833E-04
4.976150E+03	1.106624E-02	1.719420E-04
4.985965E+03	1.109692E-02	1.718179E-04
4.995780E+03	1.113570E-02	1.718176E-04
5.005594E+03	1.118303E-02	1.719462E-04
5.015409E+03	1.123926E-02	1.722083E-04
5.025224E+03	1.130465E-02	1.726062E-04
5.035039E+03	1.137949E-02	1.731433E-04
5.044854E+03	1.146375E-02	1.738174E-04
5.054669E+03	1.155752E-02	1.746287E-04
5.064484E+03	1.166066E-02	1.755738E-04
5.074299E+03	1.177283E-02	1.766461E-04
5.084114E+03	1.189382E-02	1.778412E-04
5.093929E+03	1.202318E-02	1.791513E-04
5.103743E+03	1.216026E-02	1.805655E-04
5.113558E+03	1.230466E-02	1.820770E-04
5.123373E+03	1.245552E-02	1.836723E-04
5.133188E+03	1.261204E-02	1.853386E-04
5.143003E+03	1.277333E-02	1.870623E-04
5.152818E+03	1.293844E-02	1.888292E-04
5.162633E+03	1.310637E-02	1.906243E-04
5.172448E+03	1.327625E-02	1.924350E-04
5.182263E+03	1.344708E-02	1.942466E-04
5.192077E+03	1.361762E-02	1.960413E-04
5.201892E+03	1.378735E-02	1.978124E-04
5.211707E+03	1.395517E-02	1.995443E-04
5.221522E+03	1.412037E-02	2.012274E-04
5.231337E+03	1.428251E-02	2.028563E-04
5.241152E+03	1.444119E-02	2.044259E-04
5.250967E+03	1.459618E-02	2.059339E-04
5.260782E+03	1.474728E-02	2.073783E-04
5.270597E+03	1.489477E-02	2.087638E-04
5.280411E+03	1.503895E-02	2.100955E-04
5.290226E+03	1.518022E-02	2.113796E-04
5.300041E+03	1.531885E-02	2.126208E-04
5.309856E+03	1.545541E-02	2.138276E-04
5.319671E+03	1.558953E-02	2.149953E-04
5.329486E+03	1.572070E-02	2.161177E-04
5.339301E+03	1.584762E-02	2.171775E-04
5.349116E+03	1.596829E-02	2.181480E-04
5.358931E+03	1.608079E-02	2.190041E-04
5.368745E+03	1.618243E-02	2.197100E-04
5.378560E+03	1.627079E-02	2.202345E-04
5.388375E+03	1.634372E-02	2.205503E-04
5.398190E+03	1.639908E-02	2.206305E-04
5.408005E+03	1.643484E-02	2.204497E-04
5.417820E+03	1.644944E-02	2.199894E-04
5.427635E+03	1.644172E-02	2.192367E-04
5.437450E+03	1.641108E-02	2.181861E-04
5.447265E+03	1.635709E-02	2.168344E-04
5.457079E+03	1.628009E-02	2.151886E-04
5.466894E+03	1.618072E-02	2.132599E-04
5.476709E+03	1.605995E-02	2.110628E-04
5.486524E+03	1.591942E-02	2.086216E-04
5.496339E+03	1.576088E-02	2.059606E-04
5.506154E+03	1.558679E-02	2.031141E-04
5.515969E+03	1.539911E-02	2.001087E-04
5.525784E+03	1.520072E-02	1.969830E-04
5.535599E+03	1.499430E-02	1.937724E-04
5.545414E+03	1.478238E-02	1.905103E-04
5.555228E+03	1.456778E-02	1.872332E-04
5.565043E+03	1.435279E-02	1.839704E-04
5.574858E+03	1.414012E-02	1.807564E-04
5.584673E+03	1.393191E-02	1.776179E-04
5.594488E+03	1.373020E-02	1.745802E-04
5.604303E+03	1.353680E-02	1.716654E-04
5.614118E+03	1.335315E-02	1.688906E-04
5.623933E+03	1.318082E-02	1.662745E-04
5.633748E+03	1.302060E-02	1.638255E-04
5.643562E+03	1.287326E-02	1.615522E-04
5.653377E+03	1.273946E-02	1.594613E-04
5.663192E+03	1.261935E-02	1.575532E-04
5.673007E+03	1.251310E-02	1.558288E-04
5.682822E+03	1.242032E-02	1.542814E-04
5.692637E+03	1.234076E-02	1.529069E-04
5.702452E+03	1.227389E-02	1.516972E-04
5.712267E+03	1.221904E-02	1.506430E-04
5.722082E+03	1.217527E-02	1.497314E-04
5.731896E+03	1.214179E-02	1.489518E-04
5.741711E+03	1.211749E-02	1.482895E-04
5.751526E+03	1.210132E-02	1.477309E-04
5.761341E+03	1.209232E-02	1.472636E-04
5.771156E+03	1.208915E-02	1.468708E-04
5.780971E+03	1.209088E-02	1.465404E-04
5.790786E+03	1.209645E-02	1.462594E-04
5.800601E+03	1.210476E-02	1.460142E-04
5.810416E+03	1.211515E-02	1.457966E-04
5.820230E+03	1.212645E-02	1.455924E-04
5.830045E+03	1.213817E-02	1.453958E-04
5.839860E+03	1.214959E-02	1.451982E-04
5.849675E+03	1.216023E-02	1.449938E-04
5.859490E+03	1.216986E-02	1.447800E-04
5.869305E+03	1.217797E-02	1.445510E-04
5.879120E+03	1.218468E-02	1.443083E-04
5.888935E+03	1.218971E-02	1.440489E-04
5.898750E+03	1.219327E-02	1.437752E-04
5.908564E+03	1.219560E-02	1.434906E-04
5.918379E+03	1.219670E-02	1.431949E-04
5.928194E+03	1.219693E-02	1.428926E-04
5.938009E+03	1.219661E-02	1.425876E-04
5.947824E+03	1.219605E-02	1.422837E-04
5.957639E+03	1.219558E-02	1.419847E-04
5.967454E+03	1.219539E-02	1.416929E-04
5.977269E+03	1.219599E-02	1.414145E-04
5.987084E+03	1.219740E-02	1.411495E-04
5.996898E+03	1.219993E-02	1.409017E-04
6.006713E+03	1.220373E-02	1.406727E-04
6.016528E+03	1.220875E-02	1.404622E-04
6.026343E+03	1.221526E-02	1.402730E-04
6.036158E+03	1.222285E-02	1.401007E-04
6.045973E+03	1.223178E-02	1.399483E-04
6.055788E+03	1.224180E-02	1.398128E-04
6.065603E+03	1.225270E-02	1.396920E-04
6.075418E+03	1.226428E-02	1.395837E-04
6.085233E+03	1.227630E-02	1.394854E-04
6.095047E+03	1.228854E-02	1.393945E-04
6.104862E+03	1.230076E-02	1.393086E-04
6.114677E+03	1.231277E-02	1.392256E-04
6.124492E+03	1.232452E-02	1.391452E-04
6.134307E+03	1.233563E-02	1.390633E-04
6.144122E+03	1.234626E-02	1.389817E-04
6.153937E+03	1.235637E-02	1.389003E-04
6.163752E+03	1.236580E-02	1.388176E-04
6.173567E+03	1.237457E-02	1.387339E-04
6.183381E+03	1.238283E-02	1.386510E-04
6.193196E+03	1.239046E-02	1.385680E-04
6.203011E+03	1.239771E-02	1.384876E-04
6.212826E+03	1.240427E-02	1.384067E-04
6.222641E+03	1.241015E-02	1.383255E-04
6.232456E+03	1.241515E-02	1.382422E-04
6.242271E+03	1.241901E-02	1.381538E-04
6.252086E+03	1.242132E-02	1.380563E-04
6.261901E+03	1.242160E-02	1.379443E-04
6.271715E+03	1.241939E-02	1.378131E-04
6.281530E+03	1.241389E-02	1.376539E-04
6.291345E+03	1.240448E-02	1.374602E-04
6.301160E+03	1.239024E-02	1.372220E-04
6.310975E+03	1.237063E-02	1.369335E-04
6.320790E+03	1.234461E-02	1.365835E-04
6.330605E+03	1.231160E-02	1.361656E-04
6.340420E+03	1.227109E-02	1.356746E-04
6.350235E+03	1.222262E-02	1.351054E-04
6.360049E+03	1.216574E-02	1.344531E-04
6.369864E+03	1.210072E-02	1.337206E-04
6.379679E+03	1.202741E-02	1.329060E-04
6.389494E+03	1.194639E-02	1.320153E-04
6.399309E+03	1.185811E-02	1.310529E-04
6.409124E+03	1.176319E-02	1.300253E-04
6.418939E+03	1.166258E-02	1.289425E-04
6.428754E+03	1.155757E-02	1.278184E-04
6.438569E+03	1.144887E-02	1.266603E-04
6.448383E+03	1.133780E-02	1.254822E-04
6.458198E+03	1.122481E-02	1.242887E-04
6.468013E+03	1.111042E-02	1.230851E-04
6.477828E+03	1.099488E-02	1.218737E-04
6.487643E+03	1.087795E-02	1.206514E-04
6.497458E+03	1.075979E-02	1.194198E-04
6.507273E+03	1.064038E-02	1.181778E-04
6.517088E+03	1.051962E-02	1.169240E-04
6.526903E+03	1.039758E-02	1.156591E-04
6.536718E+03	1.027466E-02	1.143868E-04
6.546532E+03	1.015096E-02	1.131078E-04
6.556347E+03	1.002675E-02	1.118250E-04
6.566162E+03	9.902367E-03	1.105415E-04
6.575977E+03	9.778170E-03	1.092612E-04
6.585792E+03	9.654672E-03	1.079895E-04
6.595607E+03	9.532198E-03	1.067296E-04
6.605422E+03	9.411307E-03	1.054877E-04
6.615237E+03	9.292351E-03	1.042674E-04
6.625052E+03	9.175899E-03	1.030749E-04
6.634866E+03	9.062404E-03	1.019152E-04
6.644681E+03	8.952324E-03	1.007933E-04
6.654496E+03	8.846071E-03	9.971374E-05
6.664311E+03	8.743967E-03	9.868007E-05
6.674126E+03	8.646576E-03	9.769863E-05
6.683941E+03	8.554162E-03	9.677241E-05
6.693756E+03	8.467031E-03	9.590490E-05
6.703571E+03	8.385475E-03	9.509947E-05
6.713386E+03	8.309732E-03	9.435888E-05
6.723200E+03	8.240115E-03	9.368681E-05
6.733015E+03	8.176681E-03	9.308403E-05
6.742830E+03	8.119567E-03	9.255221E-05
6.752645E+03	8.068937E-03	9.209340E-05
6.762460E+03	8.024734E-03	9.170711E-05
6.772275E+03	7.987045E-03	9.139450E-05
6.782090E+03	7.955805E-03	9.115504E-05
6.791905E+03	7.930825E-03	9.098671E-05
6.801720E+03	7.911961E-03	9.088808E-05
6.811534E+03	7.899224E-03	9.085944E-05
6.821349E+03	7.892214E-03	9.089637E-05
6.831164E+03	7.890800E-03	9.099754E-05
6.840979E+03	7.894630E-03	9.115906E-05
6.850794E+03	7.903554E-03	9.137935E-05
6.860609E+03	7.917404E-03	9.165662E-05
6.870424E+03	7.935757E-03	9.198611E-05
6.880239E+03	7.958488E-03	9.236651E-05
6.890054E+03	7.985302E-03	9.279449E-05
6.899868E+03	8.016240E-03	9.327068E-05
6.909683E+03	8.051075E-03	9.379253E-05
6.919498E+03	8.089736E-03	9.435932E-05
6.929313E+03	8.132162E-03	9.497044E-05
6.939128E+03	8.178339E-03	9.562584E-05
6.948943E+03	8.228276E-03	9.632570E-05
6.958758E+03	8.282000E-03	9.707045E-05
6.968573E+03	8.339535E-03	9.786048E-05
6.978388E+03	8.401008E-03	9.869738E-05
6.988203E+03	8.466312E-03	9.957999E-05
6.998017E+03	8.535413E-03	1.005080E-04
7.007832E+03	8.608240E-03	1.014807E-04
7.017647E+03	8.684770E-03	1.024980E-04
7.027462E+03	8.764688E-03	1.035561E-04
7.037277E+03	8.847831E-03	1.046532E-04
7.047092E+03	8.933737E-03	1.057840E-04
7.056907E+03	9.022079E-03	1.069446E-04
7.066722E+03	9.112328E-03	1.081288E-04
7.076537E+03	9.203767E-03	1.093282E-04
7.086351E+03	9.295703E-03	1.105344E-04
7.096166E+03	9.387612E-03	1.117412E-04
7.105981E+03	9.478435E-03	1.129360E-04
7.115796E+03	9.567429E-03	1.141098E-04
7.125611E+03	9.653688E-03	1.152518E-04
7.135426E+03	9.736301E-03	1.163509E-04
7.145241E+03	9.814357E-03	1.173961E-04
7.155056E+03	9.886844E-03	1.183751E-04
7.164871E+03	9.953169E-03	1.192807E-04
7.174685E+03	1.001243E-02	1.201018E-04
7.184500E+03	1.006394E-02	1.208298E-04
7.194315E+03	1.010695E-02	1.214559E-04
7.204130E+03	1.014127E-02	1.219771E-04
7.213945E+03	1.016640E-02	1.223873E-04
7.223760E+03	1.018212E-02	1.226837E-04
7.233575E+03	1.018851E-02	1.228669E-04
7.243390E+03	1.018535E-02	1.229339E-04
7.253205E+03	1.017311E-02	1.228906E-04
7.263019E+03	1.015201E-02	1.227390E-04
7.272834E+03	1.012280E-02	1.224881E-04
7.282649E+03	1.008578E-02	1.221416E-04
7.292464E+03	1.004181E-02	1.217094E-04
7.302279E+03	9.991798E-03	1.212027E-04
7.312094E+03	9.936363E-03	1.206287E-04
7.321909E+03	9.876454E-03	1.199990E-04
7.331724E+03	9.813060E-03	1.193256E-04
7.341539E+03	9.747358E-03	1.186228E-04
7.351353E+03	9.680143E-03	1.179002E-04
7.361168E+03	9.612621E-03	1.171727E-04
7.370983E+03	9.545721E-03	1.164517E-04
7.380798E+03	9.480486E-03	1.157500E-04
7.390613E+03	9.418060E-03	1.150818E-04
7.400428E+03	9.359139E-03	1.144557E-04
7.410243E+03	9.304888E-03	1.138862E-04
7.420058E+03	9.256005E-03	1.133821E-04
7.429873E+03	9.213111E-03	1.129514E-04
7.439687E+03	9.176999E-03	1.126039E-04
7.449502E+03	9.148231E-03	1.123470E-04
7.459317E+03	9.127145E-03	1.121852E-04
7.469132E+03	9.114222E-03	1.121247E-04
7.478947E+03	9.109581E-03	1.121674E-04
7.488762E+03	9.113347E-03	1.123152E-04
7.498577E+03	9.125662E-03	1.125703E-04
7.508392E+03	9.146418E-03	1.129318E-04
7.518207E+03	9.175128E-03	1.133941E-04
7.528022E+03	9.211702E-03	1.139566E-04
7.537836E+03	9.255533E-03	1.146122E-04
7.547651E+03	9.306032E-03	1.153541E-04
7.557466E+03	9.362502E-03	1.161741E-04
7.567281E+03	9.424113E-03	1.170622E-04
7.577096E+03	9.489961E-03	1.180077E-04
7.586911E+03	9.559172E-03	1.190000E-04
7.596726E+03	9.630530E-03	1.200245E-04
7.606541E+03	9.702908E-03	1.210674E-04
7.616356E+03	9.775112E-03	1.221140E-04
