#wls	flux	fluxerr
1.600000E+03	7.150575E-16	2.022968E-17
1.640000E+03	7.248888E-16	2.044747E-17
1.680000E+03	7.352251E-16	2.067640E-17
1.720000E+03	7.459513E-16	2.091302E-17
1.760000E+03	7.573724E-16	2.116567E-17
1.800000E+03	7.693702E-16	2.143077E-17
1.840000E+03	7.820358E-16	2.171061E-17
1.880000E+03	7.954582E-16	2.200734E-17
1.920000E+03	8.098309E-16	2.232598E-17
1.960000E+03	8.252384E-16	2.266846E-17
2.000000E+03	8.417612E-16	2.303654E-17
2.040000E+03	8.595823E-16	2.343475E-17
2.080000E+03	8.788800E-16	2.386736E-17
2.120000E+03	8.998258E-16	2.433840E-17
2.160000E+03	9.227987E-16	2.485736E-17
2.200000E+03	9.477367E-16	2.542172E-17
2.240000E+03	9.749966E-16	2.604016E-17
2.280000E+03	1.004598E-15	2.671217E-17
2.320000E+03	1.036865E-15	2.744524E-17
2.360000E+03	1.071674E-15	2.823495E-17
2.400000E+03	1.109202E-15	2.908465E-17
2.440000E+03	1.149278E-15	2.998864E-17
2.480000E+03	1.191921E-15	3.094606E-17
2.520000E+03	1.237017E-15	3.195265E-17
2.560000E+03	1.284315E-15	3.300061E-17
2.600000E+03	1.333747E-15	3.408697E-17
2.640000E+03	1.385003E-15	3.520256E-17
2.680000E+03	1.438055E-15	3.634550E-17
2.720000E+03	1.492533E-15	3.750534E-17
2.760000E+03	1.548243E-15	3.867616E-17
2.800000E+03	1.604865E-15	3.984902E-17
2.840000E+03	1.662053E-15	4.101460E-17
2.880000E+03	1.719545E-15	4.216577E-17
2.920000E+03	1.776874E-15	4.329057E-17
2.960000E+03	1.834222E-15	4.439309E-17
3.000000E+03	1.891822E-15	4.547851E-17
3.010000E+03	1.906372E-15	4.574979E-17
3.020000E+03	1.920902E-15	4.601909E-17
3.030000E+03	1.935490E-15	4.628828E-17
3.040000E+03	1.950129E-15	4.655720E-17
3.050000E+03	1.964899E-15	4.682769E-17
3.060000E+03	1.979787E-15	4.709946E-17
3.070000E+03	1.994695E-15	4.737015E-17
3.080000E+03	2.009789E-15	4.764370E-17
3.090000E+03	2.024969E-15	4.791768E-17
3.100000E+03	2.040310E-15	4.819389E-17
3.110000E+03	2.055716E-15	4.847000E-17
3.120000E+03	2.071345E-15	4.874973E-17
3.130000E+03	2.087098E-15	4.903075E-17
3.140000E+03	2.103049E-15	4.931472E-17
3.150000E+03	2.119184E-15	4.960131E-17
3.160000E+03	2.135487E-15	4.989011E-17
3.170000E+03	2.152028E-15	5.018274E-17
3.180000E+03	2.168793E-15	5.047880E-17
3.190000E+03	2.185766E-15	5.077791E-17
3.200000E+03	2.203011E-15	5.108152E-17
3.210000E+03	2.220511E-15	5.138922E-17
3.220000E+03	2.238253E-15	5.170059E-17
3.230000E+03	2.256295E-15	5.201702E-17
3.240000E+03	2.274621E-15	5.233804E-17
3.250000E+03	2.293212E-15	5.266320E-17
3.260000E+03	2.312127E-15	5.299379E-17
3.270000E+03	2.331424E-15	5.333107E-17
3.280000E+03	2.351005E-15	5.367280E-17
3.290000E+03	2.371002E-15	5.402188E-17
3.300000E+03	2.391244E-15	5.437442E-17
3.310000E+03	2.411935E-15	5.473497E-17
3.320000E+03	2.432979E-15	5.510129E-17
3.330000E+03	2.454356E-15	5.547288E-17
3.340000E+03	2.476191E-15	5.585252E-17
3.350000E+03	2.498390E-15	5.623801E-17
3.360000E+03	2.520936E-15	5.662890E-17
3.370000E+03	2.543949E-15	5.702786E-17
3.380000E+03	2.567343E-15	5.743286E-17
3.390000E+03	2.591102E-15	5.784349E-17
3.400000E+03	2.615279E-15	5.826090E-17
3.410000E+03	2.639865E-15	5.868480E-17
3.420000E+03	2.664847E-15	5.911483E-17
3.430000E+03	2.690220E-15	5.955085E-17
3.440000E+03	2.715915E-15	5.999125E-17
3.450000E+03	2.742000E-15	6.043748E-17
3.460000E+03	2.768481E-15	6.088961E-17
3.470000E+03	2.795176E-15	6.134357E-17
3.480000E+03	2.822233E-15	6.180260E-17
3.490000E+03	2.849549E-15	6.226437E-17
3.500000E+03	2.877095E-15	6.272820E-17
3.510000E+03	2.904850E-15	6.319359E-17
3.520000E+03	2.932740E-15	6.365891E-17
3.530000E+03	2.960763E-15	6.412410E-17
3.540000E+03	2.988869E-15	6.458804E-17
3.550000E+03	3.017134E-15	6.505236E-17
3.560000E+03	3.045526E-15	6.551633E-17
3.570000E+03	3.074022E-15	6.597943E-17
3.580000E+03	3.102666E-15	6.644262E-17
3.590000E+03	3.131453E-15	6.690572E-17
3.600000E+03	3.160312E-15	6.736722E-17
3.610000E+03	3.189272E-15	6.782771E-17
3.620000E+03	3.218228E-15	6.828497E-17
3.630000E+03	3.247367E-15	6.874291E-17
3.640000E+03	3.276586E-15	6.919936E-17
3.650000E+03	3.306070E-15	6.965818E-17
3.660000E+03	3.335944E-15	7.012197E-17
3.670000E+03	3.366164E-15	7.058972E-17
3.680000E+03	3.396858E-15	7.106404E-17
3.690000E+03	3.428143E-15	7.154733E-17
3.700000E+03	3.460086E-15	7.204084E-17
3.710000E+03	3.492691E-15	7.254456E-17
3.720000E+03	3.526017E-15	7.305960E-17
3.730000E+03	3.560168E-15	7.358800E-17
3.740000E+03	3.595137E-15	7.412948E-17
3.750000E+03	3.631017E-15	7.468580E-17
3.760000E+03	3.667789E-15	7.525642E-17
3.770000E+03	3.705530E-15	7.584278E-17
3.780000E+03	3.744147E-15	7.644283E-17
3.790000E+03	3.783755E-15	7.705876E-17
3.800000E+03	3.824244E-15	7.768814E-17
3.810000E+03	3.865653E-15	7.833168E-17
3.820000E+03	3.907960E-15	7.898871E-17
3.830000E+03	3.951131E-15	7.965842E-17
3.840000E+03	3.995066E-15	8.033866E-17
3.850000E+03	4.039710E-15	8.102819E-17
3.860000E+03	4.085054E-15	8.172672E-17
3.870000E+03	4.131025E-15	8.243264E-17
3.880000E+03	4.177430E-15	8.314202E-17
3.890000E+03	4.224287E-15	8.385516E-17
3.900000E+03	4.271448E-15	8.456898E-17
3.910000E+03	4.318809E-15	8.528142E-17
3.920000E+03	4.366265E-15	8.599034E-17
3.930000E+03	4.413762E-15	8.669467E-17
3.940000E+03	4.461083E-15	8.739013E-17
3.950000E+03	4.508174E-15	8.807569E-17
3.960000E+03	4.554988E-15	8.875043E-17
3.970000E+03	4.601313E-15	8.941030E-17
3.980000E+03	4.647170E-15	9.005573E-17
3.990000E+03	4.692362E-15	9.068304E-17
4.000000E+03	4.736928E-15	9.129301E-17
4.010000E+03	4.780695E-15	9.188241E-17
4.020000E+03	4.823725E-15	9.245259E-17
4.030000E+03	4.865872E-15	9.300085E-17
4.040000E+03	4.907228E-15	9.352907E-17
4.050000E+03	4.947732E-15	9.403621E-17
4.060000E+03	4.987341E-15	9.452158E-17
4.070000E+03	5.026191E-15	9.498789E-17
4.080000E+03	5.064267E-15	9.543498E-17
4.090000E+03	5.101568E-15	9.586294E-17
4.100000E+03	5.138216E-15	9.627420E-17
4.110000E+03	5.174347E-15	9.667136E-17
4.120000E+03	5.209880E-15	9.705304E-17
4.130000E+03	5.245081E-15	9.742425E-17
4.140000E+03	5.279941E-15	9.778486E-17
4.150000E+03	5.314568E-15	9.813695E-17
4.160000E+03	5.349074E-15	9.848261E-17
4.170000E+03	5.383572E-15	9.882391E-17
4.180000E+03	5.418121E-15	9.916194E-17
4.190000E+03	5.452887E-15	9.949974E-17
4.200000E+03	5.487869E-15	9.983725E-17
4.210000E+03	5.523230E-15	1.001774E-16
4.220000E+03	5.558959E-15	1.005199E-16
4.230000E+03	5.595153E-15	1.008664E-16
4.240000E+03	5.631907E-15	1.012186E-16
4.250000E+03	5.669190E-15	1.015759E-16
4.260000E+03	5.707081E-15	1.019396E-16
4.270000E+03	5.745598E-15	1.023098E-16
4.280000E+03	5.784746E-15	1.026866E-16
4.290000E+03	5.824523E-15	1.030699E-16
4.300000E+03	5.864860E-15	1.034583E-16
4.310000E+03	5.905794E-15	1.038524E-16
4.320000E+03	5.947172E-15	1.042495E-16
4.330000E+03	5.989063E-15	1.046505E-16
4.340000E+03	6.031284E-15	1.050524E-16
4.350000E+03	6.073811E-15	1.054546E-16
4.360000E+03	6.116544E-15	1.058554E-16
4.370000E+03	6.159364E-15	1.062526E-16
4.380000E+03	6.202317E-15	1.066471E-16
4.390000E+03	6.245272E-15	1.070367E-16
4.400000E+03	6.288450E-15	1.074250E-16
4.410000E+03	6.331991E-15	1.078145E-16
4.420000E+03	6.376042E-15	1.082076E-16
4.430000E+03	6.420790E-15	1.086074E-16
4.440000E+03	6.466336E-15	1.090155E-16
4.450000E+03	6.512753E-15	1.094330E-16
4.460000E+03	6.560079E-15	1.098605E-16
4.470000E+03	6.608320E-15	1.102977E-16
4.480000E+03	6.657382E-15	1.107431E-16
4.490000E+03	6.707204E-15	1.111955E-16
4.500000E+03	6.757623E-15	1.116520E-16
4.510000E+03	6.808450E-15	1.121093E-16
4.520000E+03	6.859464E-15	1.125639E-16
4.530000E+03	6.910356E-15	1.130106E-16
4.540000E+03	6.960858E-15	1.134451E-16
4.550000E+03	7.010695E-15	1.138628E-16
4.560000E+03	7.059439E-15	1.142571E-16
4.570000E+03	7.106803E-15	1.146235E-16
4.580000E+03	7.152434E-15	1.149565E-16
4.590000E+03	7.195924E-15	1.152499E-16
4.600000E+03	7.237021E-15	1.155000E-16
4.610000E+03	7.275296E-15	1.157004E-16
4.620000E+03	7.310559E-15	1.158485E-16
4.630000E+03	7.342526E-15	1.159404E-16
4.640000E+03	7.370884E-15	1.159718E-16
4.650000E+03	7.395583E-15	1.159424E-16
4.660000E+03	7.416268E-15	1.158473E-16
4.670000E+03	7.432996E-15	1.156880E-16
4.680000E+03	7.445585E-15	1.154626E-16
4.690000E+03	7.453979E-15	1.151707E-16
4.700000E+03	7.458168E-15	1.148129E-16
4.710000E+03	7.458110E-15	1.143894E-16
4.720000E+03	7.453944E-15	1.139030E-16
4.730000E+03	7.445984E-15	1.133592E-16
4.740000E+03	7.434496E-15	1.127626E-16
4.750000E+03	7.419829E-15	1.121191E-16
4.760000E+03	7.402488E-15	1.114370E-16
4.770000E+03	7.382696E-15	1.107200E-16
4.780000E+03	7.360954E-15	1.099760E-16
4.790000E+03	7.337544E-15	1.092096E-16
4.800000E+03	7.312806E-15	1.084261E-16
4.810000E+03	7.287134E-15	1.076317E-16
4.820000E+03	7.260836E-15	1.068309E-16
4.830000E+03	7.234129E-15	1.060271E-16
4.840000E+03	7.207280E-15	1.052243E-16
4.850000E+03	7.180470E-15	1.044252E-16
4.860000E+03	7.153931E-15	1.036331E-16
4.870000E+03	7.127878E-15	1.028511E-16
4.880000E+03	7.102445E-15	1.020812E-16
4.890000E+03	7.077822E-15	1.013258E-16
4.900000E+03	7.054055E-15	1.005857E-16
4.910000E+03	7.031322E-15	9.986307E-17
4.920000E+03	7.009733E-15	9.915946E-17
4.930000E+03	6.989396E-15	9.847620E-17
4.940000E+03	6.970494E-15	9.781568E-17
4.950000E+03	6.953086E-15	9.717848E-17
4.960000E+03	6.937306E-15	9.656626E-17
4.970000E+03	6.923436E-15	9.598269E-17
4.980000E+03	6.911506E-15	9.542788E-17
4.990000E+03	6.901698E-15	9.490405E-17
5.000000E+03	6.894341E-15	9.441538E-17
5.010000E+03	6.889447E-15	9.396168E-17
5.020000E+03	6.887447E-15	9.354838E-17
5.030000E+03	6.888443E-15	9.317647E-17
5.040000E+03	6.892686E-15	9.284882E-17
5.050000E+03	6.900493E-15	9.256921E-17
5.060000E+03	6.912116E-15	9.234047E-17
5.070000E+03	6.927735E-15	9.216440E-17
5.080000E+03	6.947587E-15	9.204350E-17
5.090000E+03	6.971889E-15	9.198003E-17
5.100000E+03	7.000846E-15	9.197597E-17
5.110000E+03	7.034696E-15	9.203376E-17
5.120000E+03	7.073451E-15	9.215280E-17
5.130000E+03	7.117359E-15	9.233558E-17
5.140000E+03	7.166356E-15	9.258051E-17
5.150000E+03	7.220476E-15	9.288727E-17
5.160000E+03	7.279849E-15	9.325680E-17
5.170000E+03	7.344209E-15	9.368494E-17
5.180000E+03	7.413596E-15	9.417149E-17
5.190000E+03	7.487786E-15	9.471292E-17
5.200000E+03	7.566652E-15	9.530699E-17
5.210000E+03	7.649795E-15	9.594807E-17
5.220000E+03	7.736988E-15	9.663276E-17
5.230000E+03	7.827882E-15	9.735623E-17
5.240000E+03	7.922003E-15	9.811219E-17
5.250000E+03	8.018912E-15	9.889485E-17
5.260000E+03	8.118210E-15	9.969905E-17
5.270000E+03	8.219306E-15	1.005174E-16
5.280000E+03	8.321661E-15	1.013431E-16
5.290000E+03	8.424636E-15	1.021686E-16
5.300000E+03	8.527742E-15	1.029880E-16
5.310000E+03	8.630325E-15	1.037936E-16
5.320000E+03	8.731906E-15	1.045799E-16
5.330000E+03	8.831761E-15	1.053387E-16
5.340000E+03	8.929452E-15	1.060653E-16
5.350000E+03	9.024488E-15	1.067543E-16
5.360000E+03	9.116323E-15	1.074000E-16
5.370000E+03	9.204635E-15	1.079993E-16
5.380000E+03	9.288876E-15	1.085464E-16
5.390000E+03	9.368814E-15	1.090396E-16
5.400000E+03	9.444171E-15	1.094764E-16
5.410000E+03	9.514525E-15	1.098528E-16
5.420000E+03	9.579860E-15	1.101695E-16
5.430000E+03	9.639816E-15	1.104234E-16
5.440000E+03	9.694249E-15	1.106136E-16
5.450000E+03	9.743034E-15	1.107398E-16
5.460000E+03	9.785974E-15	1.108007E-16
5.470000E+03	9.822911E-15	1.107954E-16
5.480000E+03	9.853848E-15	1.107250E-16
5.490000E+03	9.878966E-15	1.105925E-16
5.500000E+03	9.898244E-15	1.103984E-16
5.510000E+03	9.911283E-15	1.101393E-16
5.520000E+03	9.917972E-15	1.098148E-16
5.530000E+03	9.918138E-15	1.094240E-16
5.540000E+03	9.911549E-15	1.089651E-16
5.550000E+03	9.898602E-15	1.084430E-16
5.560000E+03	9.879322E-15	1.078588E-16
5.570000E+03	9.854075E-15	1.072168E-16
5.580000E+03	9.823550E-15	1.065251E-16
5.590000E+03	9.788174E-15	1.057888E-16
5.600000E+03	9.748791E-15	1.050172E-16
5.610000E+03	9.706253E-15	1.042198E-16
5.620000E+03	9.661507E-15	1.034069E-16
5.630000E+03	9.615670E-15	1.025904E-16
5.640000E+03	9.569712E-15	1.017806E-16
5.650000E+03	9.524734E-15	1.009889E-16
5.660000E+03	9.481940E-15	1.002280E-16
5.670000E+03	9.442327E-15	9.950775E-17
5.680000E+03	9.407040E-15	9.883989E-17
5.690000E+03	9.377070E-15	9.823421E-17
5.700000E+03	9.353325E-15	9.769953E-17
5.710000E+03	9.336607E-15	9.724354E-17
5.720000E+03	9.327601E-15	9.687259E-17
5.730000E+03	9.326948E-15	9.659253E-17
5.740000E+03	9.334945E-15	9.640559E-17
5.750000E+03	9.351817E-15	9.631326E-17
5.760000E+03	9.377716E-15	9.631628E-17
5.770000E+03	9.412417E-15	9.641154E-17
5.780000E+03	9.455806E-15	9.659707E-17
5.790000E+03	9.507289E-15	9.686610E-17
5.800000E+03	9.566088E-15	9.721001E-17
5.810000E+03	9.631557E-15	9.762168E-17
5.820000E+03	9.702696E-15	9.809044E-17
5.830000E+03	9.778144E-15	9.860215E-17
5.840000E+03	9.856955E-15	9.914693E-17
5.850000E+03	9.937560E-15	9.970882E-17
5.860000E+03	1.001876E-14	1.002756E-16
5.870000E+03	1.009888E-14	1.008307E-16
5.880000E+03	1.017670E-14	1.013620E-16
5.890000E+03	1.025072E-14	1.018546E-16
5.900000E+03	1.031971E-14	1.022968E-16
5.910000E+03	1.038246E-14	1.026768E-16
5.920000E+03	1.043775E-14	1.029832E-16
5.930000E+03	1.048490E-14	1.032097E-16
5.940000E+03	1.052302E-14	1.033481E-16
5.950000E+03	1.055154E-14	1.033936E-16
5.960000E+03	1.057022E-14	1.033442E-16
5.970000E+03	1.057876E-14	1.031978E-16
5.980000E+03	1.057741E-14	1.029574E-16
5.990000E+03	1.056614E-14	1.026234E-16
6.000000E+03	1.054555E-14	1.022021E-16
6.010000E+03	1.051604E-14	1.016980E-16
6.020000E+03	1.047839E-14	1.011191E-16
6.030000E+03	1.043321E-14	1.004719E-16
6.040000E+03	1.038147E-14	9.976603E-17
6.050000E+03	1.032405E-14	9.901027E-17
6.060000E+03	1.026175E-14	9.821258E-17
6.070000E+03	1.019573E-14	9.738428E-17
6.080000E+03	1.012677E-14	9.653300E-17
6.090000E+03	1.005562E-14	9.566602E-17
6.100000E+03	9.983327E-15	9.479341E-17
6.110000E+03	9.910414E-15	9.392010E-17
6.120000E+03	9.837557E-15	9.305253E-17
6.130000E+03	9.765357E-15	9.219631E-17
6.140000E+03	9.694217E-15	9.135521E-17
6.150000E+03	9.624465E-15	9.053223E-17
6.160000E+03	9.556236E-15	8.972856E-17
6.170000E+03	9.489488E-15	8.894370E-17
6.180000E+03	9.424463E-15	8.817986E-17
6.190000E+03	9.361813E-15	8.744302E-17
6.200000E+03	9.301574E-15	8.673340E-17
6.210000E+03	9.244325E-15	8.605629E-17
6.220000E+03	9.190062E-15	8.541151E-17
6.230000E+03	9.139118E-15	8.480202E-17
6.240000E+03	9.091716E-15	8.422977E-17
6.250000E+03	9.047758E-15	8.369371E-17
6.260000E+03	9.007725E-15	8.319816E-17
6.270000E+03	8.971669E-15	8.274347E-17
6.280000E+03	8.939662E-15	8.233017E-17
6.290000E+03	8.912130E-15	8.196206E-17
6.300000E+03	8.889168E-15	8.163990E-17
6.310000E+03	8.870991E-15	8.136551E-17
6.320000E+03	8.857911E-15	8.114166E-17
6.330000E+03	8.849996E-15	8.096884E-17
6.340000E+03	8.847398E-15	8.084834E-17
6.350000E+03	8.850334E-15	8.078205E-17
6.360000E+03	8.858742E-15	8.076933E-17
6.370000E+03	8.872839E-15	8.081206E-17
6.380000E+03	8.892307E-15	8.090730E-17
6.390000E+03	8.917097E-15	8.105458E-17
6.400000E+03	8.947079E-15	8.125267E-17
6.410000E+03	8.981921E-15	8.149857E-17
6.420000E+03	9.021201E-15	8.178849E-17
6.430000E+03	9.064422E-15	8.211796E-17
6.440000E+03	9.110877E-15	8.248065E-17
6.450000E+03	9.159905E-15	8.287068E-17
6.460000E+03	9.210528E-15	8.327932E-17
6.470000E+03	9.262071E-15	8.370054E-17
6.480000E+03	9.313433E-15	8.412428E-17
6.490000E+03	9.363711E-15	8.454223E-17
6.500000E+03	9.411844E-15	8.494471E-17
6.510000E+03	9.456894E-15	8.532313E-17
6.520000E+03	9.497829E-15	8.566804E-17
6.530000E+03	9.534000E-15	8.597344E-17
6.540000E+03	9.564718E-15	8.623298E-17
6.550000E+03	9.589671E-15	8.644370E-17
6.560000E+03	9.608724E-15	8.660422E-17
6.570000E+03	9.621703E-15	8.671276E-17
6.580000E+03	9.628884E-15	8.677166E-17
6.590000E+03	9.630183E-15	8.677994E-17
6.600000E+03	9.625669E-15	8.673802E-17
6.610000E+03	9.615441E-15	8.664658E-17
6.620000E+03	9.599759E-15	8.650774E-17
6.630000E+03	9.578636E-15	8.632141E-17
6.640000E+03	9.552523E-15	8.609142E-17
6.650000E+03	9.521209E-15	8.581566E-17
6.660000E+03	9.485338E-15	8.549972E-17
6.670000E+03	9.445025E-15	8.514441E-17
6.680000E+03	9.400544E-15	8.475199E-17
6.690000E+03	9.352328E-15	8.432617E-17
6.700000E+03	9.300551E-15	8.386832E-17
6.710000E+03	9.245678E-15	8.338243E-17
6.720000E+03	9.187910E-15	8.287015E-17
6.730000E+03	9.127734E-15	8.233568E-17
6.740000E+03	9.065642E-15	8.178332E-17
6.750000E+03	9.001725E-15	8.121372E-17
6.760000E+03	8.936487E-15	8.063129E-17
6.770000E+03	8.870303E-15	8.003928E-17
6.780000E+03	8.803684E-15	7.944217E-17
6.790000E+03	8.736868E-15	7.884200E-17
6.800000E+03	8.670237E-15	7.824211E-17
6.810000E+03	8.604163E-15	7.764575E-17
6.820000E+03	8.539149E-15	7.705738E-17
6.830000E+03	8.475552E-15	7.648012E-17
6.840000E+03	8.413583E-15	7.591583E-17
6.850000E+03	8.353570E-15	7.536735E-17
6.860000E+03	8.295944E-15	7.483853E-17
6.870000E+03	8.240971E-15	7.433168E-17
6.880000E+03	8.188755E-15	7.384768E-17
6.890000E+03	8.139615E-15	7.338934E-17
6.900000E+03	8.093696E-15	7.295792E-17
6.910000E+03	8.050964E-15	7.255302E-17
6.920000E+03	8.011596E-15	7.217619E-17
6.930000E+03	7.975462E-15	7.182619E-17
6.940000E+03	7.942644E-15	7.150369E-17
6.950000E+03	7.913053E-15	7.120781E-17
6.960000E+03	7.886566E-15	7.093738E-17
6.970000E+03	7.862896E-15	7.068976E-17
6.980000E+03	7.841998E-15	7.046447E-17
6.990000E+03	7.823555E-15	7.025860E-17
7.000000E+03	7.807500E-15	7.007148E-17
7.010000E+03	7.793644E-15	6.990137E-17
7.020000E+03	7.781802E-15	6.974653E-17
7.030000E+03	7.771676E-15	6.960424E-17
7.040000E+03	7.763248E-15	6.947428E-17
7.050000E+03	7.756254E-15	6.935426E-17
7.060000E+03	7.750856E-15	6.924556E-17
7.070000E+03	7.746704E-15	6.914503E-17
7.080000E+03	7.743730E-15	6.905201E-17
7.090000E+03	7.742019E-15	6.896724E-17
7.100000E+03	7.741535E-15	6.889034E-17
7.110000E+03	7.742248E-15	6.882103E-17
7.120000E+03	7.743991E-15	6.875779E-17
7.130000E+03	7.746865E-15	6.870150E-17
7.140000E+03	7.750828E-15	6.865175E-17
7.150000E+03	7.755680E-15	6.860677E-17
7.160000E+03	7.761622E-15	6.856831E-17
7.170000E+03	7.768272E-15	6.853299E-17
7.180000E+03	7.775640E-15	6.850090E-17
7.190000E+03	7.783571E-15	6.847068E-17
7.200000E+03	7.792027E-15	6.844200E-17
7.210000E+03	7.800651E-15	6.841177E-17
7.220000E+03	7.809207E-15	6.837794E-17
7.230000E+03	7.817431E-15	6.833827E-17
7.240000E+03	7.825187E-15	6.829163E-17
7.250000E+03	7.832179E-15	6.823554E-17
7.260000E+03	7.838099E-15	6.816742E-17
7.270000E+03	7.842634E-15	6.808467E-17
7.280000E+03	7.845470E-15	6.798473E-17
7.290000E+03	7.846456E-15	6.786646E-17
7.300000E+03	7.845302E-15	6.772755E-17
7.310000E+03	7.841741E-15	6.756589E-17
7.320000E+03	7.835534E-15	6.737969E-17
7.330000E+03	7.826779E-15	6.717001E-17
7.340000E+03	7.815001E-15	6.693308E-17
7.350000E+03	7.800230E-15	6.666943E-17
7.360000E+03	7.782539E-15	6.637998E-17
7.370000E+03	7.761900E-15	6.606481E-17
7.380000E+03	7.738333E-15	6.572439E-17
7.390000E+03	7.711911E-15	6.535967E-17
7.400000E+03	7.682760E-15	6.497204E-17
7.410000E+03	7.651212E-15	6.456462E-17
7.420000E+03	7.617191E-15	6.413708E-17
7.430000E+03	7.581130E-15	6.369339E-17
7.440000E+03	7.543210E-15	6.323534E-17
7.450000E+03	7.504120E-15	6.276900E-17
7.460000E+03	7.463973E-15	6.229558E-17
7.470000E+03	7.423241E-15	6.181924E-17
7.480000E+03	7.382579E-15	6.134568E-17
7.490000E+03	7.342223E-15	6.087701E-17
7.500000E+03	7.303043E-15	6.042065E-17
7.510000E+03	7.265171E-15	5.997782E-17
7.520000E+03	7.229515E-15	5.955613E-17
7.530000E+03	7.196532E-15	5.915943E-17
7.540000E+03	7.166527E-15	5.879030E-17
7.550000E+03	7.140401E-15	5.845617E-17
7.560000E+03	7.118577E-15	5.816053E-17
7.570000E+03	7.101598E-15	5.790784E-17
7.580000E+03	7.089818E-15	5.770097E-17
7.590000E+03	7.083687E-15	5.754360E-17
7.600000E+03	7.083592E-15	5.743885E-17
7.610000E+03	7.089997E-15	5.739052E-17
7.620000E+03	7.102681E-15	5.739682E-17
7.630000E+03	7.122236E-15	5.746259E-17
7.640000E+03	7.148394E-15	5.758574E-17
7.650000E+03	7.181234E-15	5.776701E-17
7.660000E+03	7.220412E-15	5.800378E-17
7.670000E+03	7.265615E-15	5.829374E-17
7.680000E+03	7.316567E-15	5.863493E-17
7.690000E+03	7.372550E-15	5.902189E-17
7.700000E+03	7.432882E-15	5.944951E-17
7.710000E+03	7.496926E-15	5.991314E-17
7.720000E+03	7.563610E-15	6.040465E-17
7.730000E+03	7.631923E-15	6.091650E-17
7.740000E+03	7.700765E-15	6.144045E-17
7.750000E+03	7.769141E-15	6.196916E-17
7.760000E+03	7.835657E-15	6.249210E-17
