#wls	flux	fluxerr
1.600000E+03	6.099253E-16	3.141682E-17
1.640000E+03	6.175973E-16	3.172523E-17
1.680000E+03	6.255367E-16	3.204312E-17
1.720000E+03	6.339229E-16	3.237941E-17
1.760000E+03	6.426533E-16	3.272857E-17
1.800000E+03	6.519066E-16	3.309939E-17
1.840000E+03	6.616719E-16	3.349094E-17
1.880000E+03	6.721270E-16	3.391182E-17
1.920000E+03	6.831622E-16	3.435602E-17
1.960000E+03	6.950480E-16	3.483666E-17
2.000000E+03	7.078622E-16	3.535703E-17
2.040000E+03	7.217756E-16	3.592497E-17
2.080000E+03	7.369563E-16	3.654804E-17
2.120000E+03	7.533742E-16	3.722386E-17
2.160000E+03	7.713812E-16	3.796884E-17
2.200000E+03	7.910318E-16	3.878452E-17
2.240000E+03	8.123720E-16	3.967192E-17
2.280000E+03	8.356324E-16	4.064097E-17
2.320000E+03	8.607410E-16	4.168673E-17
2.360000E+03	8.878071E-16	4.281298E-17
2.400000E+03	9.167319E-16	4.401340E-17
2.440000E+03	9.475950E-16	4.529020E-17
2.480000E+03	9.803623E-16	4.664011E-17
2.520000E+03	1.014790E-15	4.804987E-17
2.560000E+03	1.050812E-15	4.951474E-17
2.600000E+03	1.088340E-15	5.102905E-17
2.640000E+03	1.127365E-15	5.259079E-17
2.680000E+03	1.167575E-15	5.418389E-17
2.720000E+03	1.208923E-15	5.580483E-17
2.760000E+03	1.251255E-15	5.744510E-17
2.800000E+03	1.294398E-15	5.909551E-17
2.840000E+03	1.337989E-15	6.073841E-17
2.880000E+03	1.381753E-15	6.236044E-17
2.920000E+03	1.425586E-15	6.395633E-17
2.960000E+03	1.469379E-15	6.552056E-17
3.000000E+03	1.513350E-15	6.706231E-17
3.010000E+03	1.524430E-15	6.744678E-17
3.020000E+03	1.535516E-15	6.782955E-17
3.030000E+03	1.546603E-15	6.821046E-17
3.040000E+03	1.557771E-15	6.859290E-17
3.050000E+03	1.568930E-15	6.897297E-17
3.060000E+03	1.580240E-15	6.935766E-17
3.070000E+03	1.591528E-15	6.973938E-17
3.080000E+03	1.602873E-15	7.012153E-17
3.090000E+03	1.614348E-15	7.050733E-17
3.100000E+03	1.625866E-15	7.089291E-17
3.110000E+03	1.637499E-15	7.128144E-17
3.120000E+03	1.649241E-15	7.167258E-17
3.130000E+03	1.661084E-15	7.206596E-17
3.140000E+03	1.672943E-15	7.245786E-17
3.150000E+03	1.685045E-15	7.285809E-17
3.160000E+03	1.697223E-15	7.325942E-17
3.170000E+03	1.709549E-15	7.366487E-17
3.180000E+03	1.722012E-15	7.407400E-17
3.190000E+03	1.734682E-15	7.448968E-17
3.200000E+03	1.747471E-15	7.490815E-17
3.210000E+03	1.760444E-15	7.533216E-17
3.220000E+03	1.773594E-15	7.576129E-17
3.230000E+03	1.786908E-15	7.619504E-17
3.240000E+03	1.800451E-15	7.663605E-17
3.250000E+03	1.814210E-15	7.708376E-17
3.260000E+03	1.828247E-15	7.754072E-17
3.270000E+03	1.842477E-15	7.800328E-17
3.280000E+03	1.856960E-15	7.847387E-17
3.290000E+03	1.871684E-15	7.895196E-17
3.300000E+03	1.886706E-15	7.943993E-17
3.310000E+03	1.901943E-15	7.993411E-17
3.320000E+03	1.917524E-15	8.043991E-17
3.330000E+03	1.933433E-15	8.095659E-17
3.340000E+03	1.949587E-15	8.148057E-17
3.350000E+03	1.966111E-15	8.201703E-17
3.360000E+03	1.982923E-15	8.256241E-17
3.370000E+03	2.000146E-15	8.312176E-17
3.380000E+03	2.017697E-15	8.369158E-17
3.390000E+03	2.035566E-15	8.427130E-17
3.400000E+03	2.053872E-15	8.486583E-17
3.410000E+03	2.072538E-15	8.547177E-17
3.420000E+03	2.091618E-15	8.609137E-17
3.430000E+03	2.111102E-15	8.672404E-17
3.440000E+03	2.130981E-15	8.736934E-17
3.450000E+03	2.151248E-15	8.802684E-17
3.460000E+03	2.171963E-15	8.869891E-17
3.470000E+03	2.193056E-15	8.938257E-17
3.480000E+03	2.214590E-15	9.008032E-17
3.490000E+03	2.236504E-15	9.078955E-17
3.500000E+03	2.258803E-15	9.151033E-17
3.510000E+03	2.281434E-15	9.224044E-17
3.520000E+03	2.304469E-15	9.298268E-17
3.530000E+03	2.327805E-15	9.373280E-17
3.540000E+03	2.351463E-15	9.449158E-17
3.550000E+03	2.375410E-15	9.525758E-17
3.560000E+03	2.399618E-15	9.602966E-17
3.570000E+03	2.424184E-15	9.681151E-17
3.580000E+03	2.448914E-15	9.759541E-17
3.590000E+03	2.473912E-15	9.838543E-17
3.600000E+03	2.499165E-15	9.918091E-17
3.610000E+03	2.524592E-15	9.997863E-17
3.620000E+03	2.550167E-15	1.007775E-16
3.630000E+03	2.575867E-15	1.015766E-16
3.640000E+03	2.601779E-15	1.023793E-16
3.650000E+03	2.627825E-15	1.031824E-16
3.660000E+03	2.654043E-15	1.039874E-16
3.670000E+03	2.680468E-15	1.047956E-16
3.680000E+03	2.707082E-15	1.056063E-16
3.690000E+03	2.733979E-15	1.064230E-16
3.700000E+03	2.761088E-15	1.072430E-16
3.710000E+03	2.788499E-15	1.080695E-16
3.720000E+03	2.816194E-15	1.089019E-16
3.730000E+03	2.844207E-15	1.097413E-16
3.740000E+03	2.872569E-15	1.105889E-16
3.750000E+03	2.901255E-15	1.114436E-16
3.760000E+03	2.930342E-15	1.123082E-16
3.770000E+03	2.959799E-15	1.131814E-16
3.780000E+03	2.989590E-15	1.140619E-16
3.790000E+03	3.019784E-15	1.149519E-16
3.800000E+03	3.050386E-15	1.158518E-16
3.810000E+03	3.081298E-15	1.167575E-16
3.820000E+03	3.112572E-15	1.176711E-16
3.830000E+03	3.144204E-15	1.185922E-16
3.840000E+03	3.176131E-15	1.195183E-16
3.850000E+03	3.208341E-15	1.204489E-16
3.860000E+03	3.240813E-15	1.213832E-16
3.870000E+03	3.273475E-15	1.223183E-16
3.880000E+03	3.306295E-15	1.232531E-16
3.890000E+03	3.339296E-15	1.241882E-16
3.900000E+03	3.372386E-15	1.251203E-16
3.910000E+03	3.405477E-15	1.260460E-16
3.920000E+03	3.438578E-15	1.269657E-16
3.930000E+03	3.471593E-15	1.278758E-16
3.940000E+03	3.504478E-15	1.287746E-16
3.950000E+03	3.537189E-15	1.296607E-16
3.960000E+03	3.569682E-15	1.305325E-16
3.970000E+03	3.601869E-15	1.313867E-16
3.980000E+03	3.633717E-15	1.322223E-16
3.990000E+03	3.665245E-15	1.330400E-16
4.000000E+03	3.696386E-15	1.338374E-16
4.010000E+03	3.727077E-15	1.346125E-16
4.020000E+03	3.757367E-15	1.353671E-16
4.030000E+03	3.787267E-15	1.361016E-16
4.040000E+03	3.816753E-15	1.368153E-16
4.050000E+03	3.845808E-15	1.375078E-16
4.060000E+03	3.874584E-15	1.381845E-16
4.070000E+03	3.903093E-15	1.388460E-16
4.080000E+03	3.931361E-15	1.394932E-16
4.090000E+03	3.959475E-15	1.401293E-16
4.100000E+03	3.987533E-15	1.407578E-16
4.110000E+03	4.015692E-15	1.413842E-16
4.120000E+03	4.043969E-15	1.420091E-16
4.130000E+03	4.072479E-15	1.426365E-16
4.140000E+03	4.101346E-15	1.432707E-16
4.150000E+03	4.130744E-15	1.439176E-16
4.160000E+03	4.160695E-15	1.445779E-16
4.170000E+03	4.191316E-15	1.452554E-16
4.180000E+03	4.222771E-15	1.459556E-16
4.190000E+03	4.255068E-15	1.466787E-16
4.200000E+03	4.288304E-15	1.474276E-16
4.210000E+03	4.322619E-15	1.482070E-16
4.220000E+03	4.357987E-15	1.490156E-16
4.230000E+03	4.394475E-15	1.498555E-16
4.240000E+03	4.432132E-15	1.507280E-16
4.250000E+03	4.470995E-15	1.516341E-16
4.260000E+03	4.511032E-15	1.525723E-16
4.270000E+03	4.552195E-15	1.535407E-16
4.280000E+03	4.594520E-15	1.545402E-16
4.290000E+03	4.637921E-15	1.555677E-16
4.300000E+03	4.682344E-15	1.566209E-16
4.310000E+03	4.727662E-15	1.576955E-16
4.320000E+03	4.773831E-15	1.587897E-16
4.330000E+03	4.820689E-15	1.598979E-16
4.340000E+03	4.868106E-15	1.610156E-16
4.350000E+03	4.915993E-15	1.621398E-16
4.360000E+03	4.964208E-15	1.632657E-16
4.370000E+03	5.012604E-15	1.643883E-16
4.380000E+03	5.061099E-15	1.655050E-16
4.390000E+03	5.109631E-15	1.666138E-16
4.400000E+03	5.158222E-15	1.677153E-16
4.410000E+03	5.207083E-15	1.688165E-16
4.420000E+03	5.256340E-15	1.699213E-16
4.430000E+03	5.306121E-15	1.710338E-16
4.440000E+03	5.356602E-15	1.721596E-16
4.450000E+03	5.407886E-15	1.733017E-16
4.460000E+03	5.459986E-15	1.744605E-16
4.470000E+03	5.513052E-15	1.756403E-16
4.480000E+03	5.566950E-15	1.768369E-16
4.490000E+03	5.621671E-15	1.780495E-16
4.500000E+03	5.676976E-15	1.792704E-16
4.510000E+03	5.732745E-15	1.804957E-16
4.520000E+03	5.788570E-15	1.817124E-16
4.530000E+03	5.844231E-15	1.829137E-16
4.540000E+03	5.899352E-15	1.840877E-16
4.550000E+03	5.953397E-15	1.852180E-16
4.560000E+03	6.006054E-15	1.862952E-16
4.570000E+03	6.056750E-15	1.873020E-16
4.580000E+03	6.105101E-15	1.882271E-16
4.590000E+03	6.150546E-15	1.890539E-16
4.600000E+03	6.192746E-15	1.897727E-16
4.610000E+03	6.231208E-15	1.903695E-16
4.620000E+03	6.265556E-15	1.908339E-16
4.630000E+03	6.295485E-15	1.911576E-16
4.640000E+03	6.320821E-15	1.913369E-16
4.650000E+03	6.341285E-15	1.913643E-16
4.660000E+03	6.356871E-15	1.912412E-16
4.670000E+03	6.367462E-15	1.909655E-16
4.680000E+03	6.373151E-15	1.905413E-16
4.690000E+03	6.374038E-15	1.899729E-16
4.700000E+03	6.370348E-15	1.892684E-16
4.710000E+03	6.362229E-15	1.884334E-16
4.720000E+03	6.350061E-15	1.874806E-16
4.730000E+03	6.334247E-15	1.864227E-16
4.740000E+03	6.315077E-15	1.852695E-16
4.750000E+03	6.293284E-15	1.840432E-16
4.760000E+03	6.269208E-15	1.827545E-16
4.770000E+03	6.243486E-15	1.814226E-16
4.780000E+03	6.216476E-15	1.800583E-16
4.790000E+03	6.188690E-15	1.786768E-16
4.800000E+03	6.160534E-15	1.772901E-16
4.810000E+03	6.132258E-15	1.759053E-16
4.820000E+03	6.104191E-15	1.745320E-16
4.830000E+03	6.076559E-15	1.731765E-16
4.840000E+03	6.049553E-15	1.718442E-16
4.850000E+03	6.023265E-15	1.705375E-16
4.860000E+03	5.997822E-15	1.692599E-16
4.870000E+03	5.973259E-15	1.680121E-16
4.880000E+03	5.949655E-15	1.667961E-16
4.890000E+03	5.927068E-15	1.656132E-16
4.900000E+03	5.905370E-15	1.644597E-16
4.910000E+03	5.884665E-15	1.633383E-16
4.920000E+03	5.864934E-15	1.622481E-16
4.930000E+03	5.846102E-15	1.611868E-16
4.940000E+03	5.828224E-15	1.601558E-16
4.950000E+03	5.811248E-15	1.591534E-16
4.960000E+03	5.795261E-15	1.581816E-16
4.970000E+03	5.780321E-15	1.572420E-16
4.980000E+03	5.766462E-15	1.563352E-16
4.990000E+03	5.753875E-15	1.554659E-16
5.000000E+03	5.742682E-15	1.546374E-16
5.010000E+03	5.733168E-15	1.538567E-16
5.020000E+03	5.725605E-15	1.531308E-16
5.030000E+03	5.720189E-15	1.524645E-16
5.040000E+03	5.717379E-15	1.518694E-16
5.050000E+03	5.717482E-15	1.513528E-16
5.060000E+03	5.720926E-15	1.509255E-16
5.070000E+03	5.727969E-15	1.505933E-16
5.080000E+03	5.739082E-15	1.503677E-16
5.090000E+03	5.754540E-15	1.502547E-16
5.100000E+03	5.774590E-15	1.502598E-16
5.110000E+03	5.799613E-15	1.503916E-16
5.120000E+03	5.829713E-15	1.506516E-16
5.130000E+03	5.865123E-15	1.510445E-16
5.140000E+03	5.905966E-15	1.515721E-16
5.150000E+03	5.952252E-15	1.522334E-16
5.160000E+03	6.004053E-15	1.530289E-16
5.170000E+03	6.061267E-15	1.539545E-16
5.180000E+03	6.123848E-15	1.550080E-16
5.190000E+03	6.191572E-15	1.561822E-16
5.200000E+03	6.264209E-15	1.574704E-16
5.210000E+03	6.341466E-15	1.588639E-16
5.220000E+03	6.422981E-15	1.603529E-16
5.230000E+03	6.508266E-15	1.619241E-16
5.240000E+03	6.596954E-15	1.635677E-16
5.250000E+03	6.688362E-15	1.652662E-16
5.260000E+03	6.781874E-15	1.670039E-16
5.270000E+03	6.876892E-15	1.687658E-16
5.280000E+03	6.972642E-15	1.705330E-16
5.290000E+03	7.068388E-15	1.722874E-16
5.300000E+03	7.163383E-15	1.740112E-16
5.310000E+03	7.256809E-15	1.756850E-16
5.320000E+03	7.348015E-15	1.772939E-16
5.330000E+03	7.436324E-15	1.788222E-16
5.340000E+03	7.520972E-15	1.802527E-16
5.350000E+03	7.601497E-15	1.815754E-16
5.360000E+03	7.677467E-15	1.827815E-16
5.370000E+03	7.748557E-15	1.838644E-16
5.380000E+03	7.814406E-15	1.848171E-16
5.390000E+03	7.875076E-15	1.856426E-16
5.400000E+03	7.930514E-15	1.863410E-16
5.410000E+03	7.980761E-15	1.869148E-16
5.420000E+03	8.026013E-15	1.873699E-16
5.430000E+03	8.066596E-15	1.877154E-16
5.440000E+03	8.102708E-15	1.879571E-16
5.450000E+03	8.134529E-15	1.881004E-16
5.460000E+03	8.162448E-15	1.881554E-16
5.470000E+03	8.186460E-15	1.881231E-16
5.480000E+03	8.206789E-15	1.880096E-16
5.490000E+03	8.223208E-15	1.878108E-16
5.500000E+03	8.235498E-15	1.875226E-16
5.510000E+03	8.242979E-15	1.871307E-16
5.520000E+03	8.244706E-15	1.866149E-16
5.530000E+03	8.240124E-15	1.859639E-16
5.540000E+03	8.228661E-15	1.851662E-16
5.550000E+03	8.209869E-15	1.842129E-16
5.560000E+03	8.183714E-15	1.831046E-16
5.570000E+03	8.150259E-15	1.818437E-16
5.580000E+03	8.109991E-15	1.804424E-16
5.590000E+03	8.063634E-15	1.789177E-16
5.600000E+03	8.011960E-15	1.772876E-16
5.610000E+03	7.956008E-15	1.755757E-16
5.620000E+03	7.896963E-15	1.738085E-16
5.630000E+03	7.836214E-15	1.720169E-16
5.640000E+03	7.775159E-15	1.702315E-16
5.650000E+03	7.715266E-15	1.684841E-16
5.660000E+03	7.658046E-15	1.668072E-16
5.670000E+03	7.605017E-15	1.652331E-16
5.680000E+03	7.557761E-15	1.637952E-16
5.690000E+03	7.517568E-15	1.625201E-16
5.700000E+03	7.486042E-15	1.614412E-16
5.710000E+03	7.464277E-15	1.605804E-16
5.720000E+03	7.453457E-15	1.599614E-16
5.730000E+03	7.454514E-15	1.596023E-16
5.740000E+03	7.468180E-15	1.595170E-16
5.750000E+03	7.494965E-15	1.597141E-16
5.760000E+03	7.535207E-15	1.601990E-16
5.770000E+03	7.588823E-15	1.609677E-16
5.780000E+03	7.655604E-15	1.620139E-16
5.790000E+03	7.734887E-15	1.633218E-16
5.800000E+03	7.825874E-15	1.648726E-16
5.810000E+03	7.927391E-15	1.666401E-16
5.820000E+03	8.037987E-15	1.685925E-16
5.830000E+03	8.155953E-15	1.706928E-16
5.840000E+03	8.279359E-15	1.728997E-16
5.850000E+03	8.406189E-15	1.751706E-16
5.860000E+03	8.534131E-15	1.774570E-16
5.870000E+03	8.660998E-15	1.797134E-16
5.880000E+03	8.784434E-15	1.818913E-16
5.890000E+03	8.902446E-15	1.839501E-16
5.900000E+03	9.012812E-15	1.858446E-16
5.910000E+03	9.113792E-15	1.875402E-16
5.920000E+03	9.203900E-15	1.890075E-16
5.930000E+03	9.281728E-15	1.902190E-16
5.940000E+03	9.346260E-15	1.911556E-16
5.950000E+03	9.396886E-15	1.918065E-16
5.960000E+03	9.433098E-15	1.921629E-16
5.970000E+03	9.454893E-15	1.922266E-16
5.980000E+03	9.462456E-15	1.920030E-16
5.990000E+03	9.456245E-15	1.915031E-16
6.000000E+03	9.436968E-15	1.907427E-16
6.010000E+03	9.405560E-15	1.897422E-16
6.020000E+03	9.363142E-15	1.885256E-16
6.030000E+03	9.310984E-15	1.871194E-16
6.040000E+03	9.250460E-15	1.855523E-16
6.050000E+03	9.182999E-15	1.838538E-16
6.060000E+03	9.110038E-15	1.820534E-16
6.070000E+03	9.032984E-15	1.801796E-16
6.080000E+03	8.953068E-15	1.782572E-16
6.090000E+03	8.871521E-15	1.763110E-16
6.100000E+03	8.789353E-15	1.743611E-16
6.110000E+03	8.707530E-15	1.724267E-16
6.120000E+03	8.626773E-15	1.705218E-16
6.130000E+03	8.547643E-15	1.686574E-16
6.140000E+03	8.470552E-15	1.668413E-16
6.150000E+03	8.395664E-15	1.650765E-16
6.160000E+03	8.323287E-15	1.633688E-16
6.170000E+03	8.253314E-15	1.617158E-16
6.180000E+03	8.185720E-15	1.601166E-16
6.190000E+03	8.120579E-15	1.585725E-16
6.200000E+03	8.057813E-15	1.570816E-16
6.210000E+03	7.997320E-15	1.556418E-16
6.220000E+03	7.939004E-15	1.542508E-16
6.230000E+03	7.882906E-15	1.529093E-16
6.240000E+03	7.829037E-15	1.516172E-16
6.250000E+03	7.777318E-15	1.503729E-16
6.260000E+03	7.728050E-15	1.491818E-16
6.270000E+03	7.681453E-15	1.480481E-16
6.280000E+03	7.637948E-15	1.469795E-16
6.290000E+03	7.597858E-15	1.459820E-16
6.300000E+03	7.561765E-15	1.450665E-16
6.310000E+03	7.530201E-15	1.442428E-16
6.320000E+03	7.503719E-15	1.435212E-16
6.330000E+03	7.482766E-15	1.429097E-16
6.340000E+03	7.468019E-15	1.424208E-16
6.350000E+03	7.459723E-15	1.420588E-16
6.360000E+03	7.458201E-15	1.418293E-16
6.370000E+03	7.463840E-15	1.417391E-16
6.380000E+03	7.476521E-15	1.417856E-16
6.390000E+03	7.496153E-15	1.419666E-16
6.400000E+03	7.522579E-15	1.422785E-16
6.410000E+03	7.555386E-15	1.427133E-16
6.420000E+03	7.594012E-15	1.432600E-16
6.430000E+03	7.637652E-15	1.439032E-16
6.440000E+03	7.685373E-15	1.446250E-16
6.450000E+03	7.736334E-15	1.454095E-16
6.460000E+03	7.789322E-15	1.462339E-16
6.470000E+03	7.843168E-15	1.470763E-16
6.480000E+03	7.896678E-15	1.479140E-16
6.490000E+03	7.948867E-15	1.487286E-16
6.500000E+03	7.998466E-15	1.494962E-16
6.510000E+03	8.044560E-15	1.501998E-16
6.520000E+03	8.086191E-15	1.508213E-16
6.530000E+03	8.122479E-15	1.513446E-16
6.540000E+03	8.152719E-15	1.517566E-16
6.550000E+03	8.176884E-15	1.520568E-16
6.560000E+03	8.194737E-15	1.522410E-16
6.570000E+03	8.206424E-15	1.523121E-16
6.580000E+03	8.211709E-15	1.522656E-16
6.590000E+03	8.210732E-15	1.521043E-16
6.600000E+03	8.203794E-15	1.518339E-16
6.610000E+03	8.190792E-15	1.514525E-16
6.620000E+03	8.172001E-15	1.509653E-16
6.630000E+03	8.147735E-15	1.503781E-16
6.640000E+03	8.118121E-15	1.496933E-16
6.650000E+03	8.083547E-15	1.489182E-16
6.660000E+03	8.044315E-15	1.480582E-16
6.670000E+03	8.000866E-15	1.471215E-16
6.680000E+03	7.953327E-15	1.461106E-16
6.690000E+03	7.902392E-15	1.450380E-16
6.700000E+03	7.848208E-15	1.439066E-16
6.710000E+03	7.791140E-15	1.427230E-16
6.720000E+03	7.731774E-15	1.414978E-16
6.730000E+03	7.670241E-15	1.402336E-16
6.740000E+03	7.607106E-15	1.389405E-16
6.750000E+03	7.542598E-15	1.376227E-16
6.760000E+03	7.477047E-15	1.362862E-16
6.770000E+03	7.410783E-15	1.349369E-16
6.780000E+03	7.344244E-15	1.335828E-16
6.790000E+03	7.277662E-15	1.322279E-16
6.800000E+03	7.211503E-15	1.308808E-16
6.810000E+03	7.146036E-15	1.295460E-16
6.820000E+03	7.081665E-15	1.282309E-16
6.830000E+03	7.019022E-15	1.269468E-16
6.840000E+03	6.958233E-15	1.256958E-16
6.850000E+03	6.900057E-15	1.244914E-16
6.860000E+03	6.844722E-15	1.233375E-16
6.870000E+03	6.792637E-15	1.222412E-16
6.880000E+03	6.744270E-15	1.212108E-16
6.890000E+03	6.699926E-15	1.202514E-16
6.900000E+03	6.659727E-15	1.193648E-16
6.910000E+03	6.623908E-15	1.185550E-16
6.920000E+03	6.592507E-15	1.178223E-16
6.930000E+03	6.565362E-15	1.171633E-16
6.940000E+03	6.542316E-15	1.165750E-16
6.950000E+03	6.523335E-15	1.160564E-16
6.960000E+03	6.507803E-15	1.155961E-16
6.970000E+03	6.495665E-15	1.151929E-16
6.980000E+03	6.486326E-15	1.148358E-16
6.990000E+03	6.479383E-15	1.145176E-16
7.000000E+03	6.474445E-15	1.142311E-16
7.010000E+03	6.471355E-15	1.139732E-16
7.020000E+03	6.469480E-15	1.137327E-16
7.030000E+03	6.468762E-15	1.135083E-16
7.040000E+03	6.468899E-15	1.132948E-16
7.050000E+03	6.469861E-15	1.130913E-16
7.060000E+03	6.471476E-15	1.128949E-16
7.070000E+03	6.473736E-15	1.127053E-16
7.080000E+03	6.476799E-15	1.125252E-16
7.090000E+03	6.480648E-15	1.123541E-16
7.100000E+03	6.485406E-15	1.121943E-16
7.110000E+03	6.491319E-15	1.120497E-16
7.120000E+03	6.498420E-15	1.119209E-16
7.130000E+03	6.506843E-15	1.118099E-16
7.140000E+03	6.516695E-15	1.117186E-16
7.150000E+03	6.528168E-15	1.116501E-16
7.160000E+03	6.541188E-15	1.116029E-16
7.170000E+03	6.555857E-15	1.115785E-16
7.180000E+03	6.571892E-15	1.115721E-16
7.190000E+03	6.589521E-15	1.115873E-16
7.200000E+03	6.608353E-15	1.116173E-16
7.210000E+03	6.628169E-15	1.116585E-16
7.220000E+03	6.648936E-15	1.117100E-16
7.230000E+03	6.670109E-15	1.117628E-16
7.240000E+03	6.691446E-15	1.118128E-16
7.250000E+03	6.712436E-15	1.118515E-16
7.260000E+03	6.733012E-15	1.118781E-16
7.270000E+03	6.752373E-15	1.118793E-16
7.280000E+03	6.770183E-15	1.118498E-16
7.290000E+03	6.786230E-15	1.117866E-16
7.300000E+03	6.799828E-15	1.116788E-16
7.310000E+03	6.810683E-15	1.115220E-16
7.320000E+03	6.818284E-15	1.113085E-16
7.330000E+03	6.822666E-15	1.110396E-16
7.340000E+03	6.823163E-15	1.107050E-16
7.350000E+03	6.819791E-15	1.103058E-16
7.360000E+03	6.812377E-15	1.098400E-16
7.370000E+03	6.800678E-15	1.093047E-16
7.380000E+03	6.784889E-15	1.087037E-16
7.390000E+03	6.764888E-15	1.080360E-16
7.400000E+03	6.740605E-15	1.073014E-16
7.410000E+03	6.712409E-15	1.065068E-16
7.420000E+03	6.680347E-15	1.056536E-16
7.430000E+03	6.644646E-15	1.047464E-16
7.440000E+03	6.605465E-15	1.037886E-16
7.450000E+03	6.563277E-15	1.027883E-16
7.460000E+03	6.518487E-15	1.017526E-16
7.470000E+03	6.471566E-15	1.006896E-16
7.480000E+03	6.422915E-15	9.960607E-17
7.490000E+03	6.373251E-15	9.851369E-17
7.500000E+03	6.322974E-15	9.741905E-17
7.510000E+03	6.273033E-15	9.633712E-17
7.520000E+03	6.223930E-15	9.527585E-17
7.530000E+03	6.176573E-15	9.424922E-17
7.540000E+03	6.131653E-15	9.326781E-17
7.550000E+03	6.089874E-15	9.234225E-17
7.560000E+03	6.052303E-15	9.148851E-17
7.570000E+03	6.019506E-15	9.071485E-17
7.580000E+03	5.992257E-15	9.003257E-17
7.590000E+03	5.971397E-15	8.945387E-17
7.600000E+03	5.957469E-15	8.898633E-17
7.610000E+03	5.950928E-15	8.863627E-17
7.620000E+03	5.952493E-15	8.841382E-17
7.630000E+03	5.962285E-15	8.832021E-17
7.640000E+03	5.980529E-15	8.835831E-17
7.650000E+03	6.007541E-15	8.853230E-17
7.660000E+03	6.042859E-15	8.883501E-17
7.670000E+03	6.086448E-15	8.926567E-17
7.680000E+03	6.137845E-15	8.981737E-17
7.690000E+03	6.196147E-15	9.047690E-17
7.700000E+03	6.260778E-15	9.123604E-17
7.710000E+03	6.330612E-15	9.207876E-17
7.720000E+03	6.404512E-15	9.298904E-17
7.730000E+03	6.481343E-15	9.395113E-17
7.740000E+03	6.559479E-15	9.494231E-17
7.750000E+03	6.637755E-15	9.594676E-17
7.760000E+03	6.714566E-15	9.694238E-17
