#wls	flux	fluxerr
1.600000E+03	5.321456E-16	2.044776E-17
1.640000E+03	5.367203E-16	2.061109E-17
1.680000E+03	5.413727E-16	2.077684E-17
1.720000E+03	5.462860E-16	2.095201E-17
1.760000E+03	5.513613E-16	2.113278E-17
1.800000E+03	5.567847E-16	2.132624E-17
1.840000E+03	5.623595E-16	2.152481E-17
1.880000E+03	5.683702E-16	2.173934E-17
1.920000E+03	5.748137E-16	2.196967E-17
1.960000E+03	5.816856E-16	2.221555E-17
2.000000E+03	5.891788E-16	2.248428E-17
2.040000E+03	5.972898E-16	2.277566E-17
2.080000E+03	6.062139E-16	2.309703E-17
2.120000E+03	6.159475E-16	2.344816E-17
2.160000E+03	6.266870E-16	2.383639E-17
2.200000E+03	6.386306E-16	2.426913E-17
2.240000E+03	6.515700E-16	2.473829E-17
2.280000E+03	6.656999E-16	2.525113E-17
2.320000E+03	6.808057E-16	2.579931E-17
2.360000E+03	6.969758E-16	2.638604E-17
2.400000E+03	7.139894E-16	2.700279E-17
2.440000E+03	7.318278E-16	2.764868E-17
2.480000E+03	7.504707E-16	2.832279E-17
2.520000E+03	7.698972E-16	2.902417E-17
2.560000E+03	7.900853E-16	2.975182E-17
2.600000E+03	8.109096E-16	3.050084E-17
2.640000E+03	8.323480E-16	3.127024E-17
2.680000E+03	8.543788E-16	3.205905E-17
2.720000E+03	8.771882E-16	3.287407E-17
2.760000E+03	9.006528E-16	3.371048E-17
2.800000E+03	9.249589E-16	3.457506E-17
2.840000E+03	9.499838E-16	3.546301E-17
2.880000E+03	9.756045E-16	3.636952E-17
2.920000E+03	1.001595E-15	3.728598E-17
2.960000E+03	1.027830E-15	3.820758E-17
3.000000E+03	1.054281E-15	3.913310E-17
3.010000E+03	1.060990E-15	3.936739E-17
3.020000E+03	1.067666E-15	3.960016E-17
3.030000E+03	1.074407E-15	3.983512E-17
3.040000E+03	1.081113E-15	4.006849E-17
3.050000E+03	1.087884E-15	4.030399E-17
3.060000E+03	1.094719E-15	4.054156E-17
3.070000E+03	1.101515E-15	4.077742E-17
3.080000E+03	1.108372E-15	4.101526E-17
3.090000E+03	1.115289E-15	4.125503E-17
3.100000E+03	1.122163E-15	4.149293E-17
3.110000E+03	1.129194E-15	4.173632E-17
3.120000E+03	1.136180E-15	4.197778E-17
3.130000E+03	1.143319E-15	4.222454E-17
3.140000E+03	1.150407E-15	4.246915E-17
3.150000E+03	1.157644E-15	4.271897E-17
3.160000E+03	1.164926E-15	4.297010E-17
3.170000E+03	1.172251E-15	4.322253E-17
3.180000E+03	1.179716E-15	4.347978E-17
3.190000E+03	1.187217E-15	4.373802E-17
3.200000E+03	1.194850E-15	4.400081E-17
3.210000E+03	1.202512E-15	4.426434E-17
3.220000E+03	1.210397E-15	4.453573E-17
3.230000E+03	1.218302E-15	4.480751E-17
3.240000E+03	1.226321E-15	4.508314E-17
3.250000E+03	1.234547E-15	4.536602E-17
3.260000E+03	1.242876E-15	4.565231E-17
3.270000E+03	1.251302E-15	4.594179E-17
3.280000E+03	1.260013E-15	4.624135E-17
3.290000E+03	1.268807E-15	4.654354E-17
3.300000E+03	1.277772E-15	4.685164E-17
3.310000E+03	1.286900E-15	4.716530E-17
3.320000E+03	1.296278E-15	4.748775E-17
3.330000E+03	1.305898E-15	4.781858E-17
3.340000E+03	1.315648E-15	4.815379E-17
3.350000E+03	1.325711E-15	4.850000E-17
3.360000E+03	1.336076E-15	4.885680E-17
3.370000E+03	1.346629E-15	4.921999E-17
3.380000E+03	1.357453E-15	4.959262E-17
3.390000E+03	1.368626E-15	4.997752E-17
3.400000E+03	1.380130E-15	5.037400E-17
3.410000E+03	1.391852E-15	5.077788E-17
3.420000E+03	1.404053E-15	5.119875E-17
3.430000E+03	1.416524E-15	5.162889E-17
3.440000E+03	1.429428E-15	5.207424E-17
3.450000E+03	1.442739E-15	5.253384E-17
3.460000E+03	1.456522E-15	5.301004E-17
3.470000E+03	1.470655E-15	5.349834E-17
3.480000E+03	1.485291E-15	5.400431E-17
3.490000E+03	1.500396E-15	5.452664E-17
3.500000E+03	1.515934E-15	5.506405E-17
3.510000E+03	1.531960E-15	5.561848E-17
3.520000E+03	1.548524E-15	5.619170E-17
3.530000E+03	1.565584E-15	5.678217E-17
3.540000E+03	1.583099E-15	5.738836E-17
3.550000E+03	1.601113E-15	5.801188E-17
3.560000E+03	1.619495E-15	5.864789E-17
3.570000E+03	1.638382E-15	5.930134E-17
3.580000E+03	1.657554E-15	5.996427E-17
3.590000E+03	1.676979E-15	6.063548E-17
3.600000E+03	1.696714E-15	6.131699E-17
3.610000E+03	1.716735E-15	6.200793E-17
3.620000E+03	1.736854E-15	6.270149E-17
3.630000E+03	1.757232E-15	6.340350E-17
3.640000E+03	1.777696E-15	6.410765E-17
3.650000E+03	1.798330E-15	6.481697E-17
3.660000E+03	1.819056E-15	6.552863E-17
3.670000E+03	1.839963E-15	6.624585E-17
3.680000E+03	1.860900E-15	6.696315E-17
3.690000E+03	1.881961E-15	6.768395E-17
3.700000E+03	1.903163E-15	6.840878E-17
3.710000E+03	1.924521E-15	6.913819E-17
3.720000E+03	1.945897E-15	6.986721E-17
3.730000E+03	1.967468E-15	7.060221E-17
3.740000E+03	1.989099E-15	7.133831E-17
3.750000E+03	2.010812E-15	7.207628E-17
3.760000E+03	2.032706E-15	7.281966E-17
3.770000E+03	2.054650E-15	7.356377E-17
3.780000E+03	2.076743E-15	7.431210E-17
3.790000E+03	2.098928E-15	7.506263E-17
3.800000E+03	2.121229E-15	7.581615E-17
3.810000E+03	2.143588E-15	7.657066E-17
3.820000E+03	2.166096E-15	7.732931E-17
3.830000E+03	2.188621E-15	7.808745E-17
3.840000E+03	2.211249E-15	7.884808E-17
3.850000E+03	2.233981E-15	7.961126E-17
3.860000E+03	2.256678E-15	8.037201E-17
3.870000E+03	2.279403E-15	8.113256E-17
3.880000E+03	2.302073E-15	8.188999E-17
3.890000E+03	2.324601E-15	8.264116E-17
3.900000E+03	2.347028E-15	8.338753E-17
3.910000E+03	2.369257E-15	8.412567E-17
3.920000E+03	2.391252E-15	8.485430E-17
3.930000E+03	2.412912E-15	8.556988E-17
3.940000E+03	2.434203E-15	8.627116E-17
3.950000E+03	2.455025E-15	8.695467E-17
3.960000E+03	2.475414E-15	8.762167E-17
3.970000E+03	2.495217E-15	8.826682E-17
3.980000E+03	2.514419E-15	8.888957E-17
3.990000E+03	2.533071E-15	8.949180E-17
4.000000E+03	2.550991E-15	9.006706E-17
4.010000E+03	2.568309E-15	9.062002E-17
4.020000E+03	2.584986E-15	9.114935E-17
4.030000E+03	2.600996E-15	9.165416E-17
4.040000E+03	2.616327E-15	9.213409E-17
4.050000E+03	2.631156E-15	9.259538E-17
4.060000E+03	2.645383E-15	9.303452E-17
4.070000E+03	2.659151E-15	9.345663E-17
4.080000E+03	2.672562E-15	9.386528E-17
4.090000E+03	2.685613E-15	9.426043E-17
4.100000E+03	2.698542E-15	9.465040E-17
4.110000E+03	2.711315E-15	9.503402E-17
4.120000E+03	2.724184E-15	9.542014E-17
4.130000E+03	2.737239E-15	9.581189E-17
4.140000E+03	2.750573E-15	9.621249E-17
4.150000E+03	2.764388E-15	9.662902E-17
4.160000E+03	2.778775E-15	9.706456E-17
4.170000E+03	2.793822E-15	9.752221E-17
4.180000E+03	2.809768E-15	9.801017E-17
4.190000E+03	2.826632E-15	9.852909E-17
4.200000E+03	2.844527E-15	9.908280E-17
4.210000E+03	2.863606E-15	9.967659E-17
4.220000E+03	2.883959E-15	1.003135E-16
4.230000E+03	2.905608E-15	1.009941E-16
4.240000E+03	2.928665E-15	1.017222E-16
4.250000E+03	2.953122E-15	1.024975E-16
4.260000E+03	2.979060E-15	1.033227E-16
4.270000E+03	3.006548E-15	1.042000E-16
4.280000E+03	3.035483E-15	1.051257E-16
4.290000E+03	3.066006E-15	1.061046E-16
4.300000E+03	3.097991E-15	1.071322E-16
4.310000E+03	3.131504E-15	1.082107E-16
4.320000E+03	3.166446E-15	1.093365E-16
4.330000E+03	3.202864E-15	1.105110E-16
4.340000E+03	3.240641E-15	1.117303E-16
4.350000E+03	3.279812E-15	1.129953E-16
4.360000E+03	3.320304E-15	1.143034E-16
4.370000E+03	3.362045E-15	1.156521E-16
4.380000E+03	3.405076E-15	1.170426E-16
4.390000E+03	3.449288E-15	1.184710E-16
4.400000E+03	3.494697E-15	1.199379E-16
4.410000E+03	3.541330E-15	1.214440E-16
4.420000E+03	3.589171E-15	1.229886E-16
4.430000E+03	3.638201E-15	1.245711E-16
4.440000E+03	3.688447E-15	1.261922E-16
4.450000E+03	3.739809E-15	1.278484E-16
4.460000E+03	3.792268E-15	1.295390E-16
4.470000E+03	3.845665E-15	1.312583E-16
4.480000E+03	3.899854E-15	1.330015E-16
4.490000E+03	3.954651E-15	1.347620E-16
4.500000E+03	4.009711E-15	1.365281E-16
4.510000E+03	4.064810E-15	1.382921E-16
4.520000E+03	4.119564E-15	1.400410E-16
4.530000E+03	4.173539E-15	1.417601E-16
4.540000E+03	4.226324E-15	1.434353E-16
4.550000E+03	4.277408E-15	1.450496E-16
4.560000E+03	4.326256E-15	1.465848E-16
4.570000E+03	4.372437E-15	1.480266E-16
4.580000E+03	4.415346E-15	1.493547E-16
4.590000E+03	4.454511E-15	1.505534E-16
4.600000E+03	4.489494E-15	1.516084E-16
4.610000E+03	4.519795E-15	1.525029E-16
4.620000E+03	4.545217E-15	1.532308E-16
4.630000E+03	4.565410E-15	1.537807E-16
4.640000E+03	4.580239E-15	1.541485E-16
4.650000E+03	4.589669E-15	1.543335E-16
4.660000E+03	4.593772E-15	1.543386E-16
4.670000E+03	4.592661E-15	1.541680E-16
4.680000E+03	4.586718E-15	1.538349E-16
4.690000E+03	4.576119E-15	1.533458E-16
4.700000E+03	4.561453E-15	1.527208E-16
4.710000E+03	4.543078E-15	1.519721E-16
4.720000E+03	4.521499E-15	1.511170E-16
4.730000E+03	4.497303E-15	1.501755E-16
4.740000E+03	4.470973E-15	1.491638E-16
4.750000E+03	4.443095E-15	1.481016E-16
4.760000E+03	4.414132E-15	1.470046E-16
4.770000E+03	4.384521E-15	1.458873E-16
4.780000E+03	4.354768E-15	1.447668E-16
4.790000E+03	4.325180E-15	1.436531E-16
4.800000E+03	4.296172E-15	1.425601E-16
4.810000E+03	4.267995E-15	1.414960E-16
4.820000E+03	4.240998E-15	1.404724E-16
4.830000E+03	4.215368E-15	1.394953E-16
4.840000E+03	4.191190E-15	1.385674E-16
4.850000E+03	4.168595E-15	1.376929E-16
4.860000E+03	4.147670E-15	1.368746E-16
4.870000E+03	4.128370E-15	1.361108E-16
4.880000E+03	4.110711E-15	1.354020E-16
4.890000E+03	4.094641E-15	1.347461E-16
4.900000E+03	4.080040E-15	1.341393E-16
4.910000E+03	4.066861E-15	1.335797E-16
4.920000E+03	4.055001E-15	1.330639E-16
4.930000E+03	4.044350E-15	1.325882E-16
4.940000E+03	4.034749E-15	1.321473E-16
4.950000E+03	4.026186E-15	1.317406E-16
4.960000E+03	4.018533E-15	1.313639E-16
4.970000E+03	4.011744E-15	1.310156E-16
4.980000E+03	4.005820E-15	1.306956E-16
4.990000E+03	4.000816E-15	1.304057E-16
5.000000E+03	3.996890E-15	1.301510E-16
5.010000E+03	3.994179E-15	1.299357E-16
5.020000E+03	3.992962E-15	1.297689E-16
5.030000E+03	3.993478E-15	1.296582E-16
5.040000E+03	3.996092E-15	1.296152E-16
5.050000E+03	4.001144E-15	1.296508E-16
5.060000E+03	4.008940E-15	1.297747E-16
5.070000E+03	4.019905E-15	1.300002E-16
5.080000E+03	4.034319E-15	1.303363E-16
5.090000E+03	4.052427E-15	1.307904E-16
5.100000E+03	4.074613E-15	1.313745E-16
5.110000E+03	4.100958E-15	1.320910E-16
5.120000E+03	4.131716E-15	1.329474E-16
5.130000E+03	4.167007E-15	1.339474E-16
5.140000E+03	4.206906E-15	1.350928E-16
5.150000E+03	4.251403E-15	1.363829E-16
5.160000E+03	4.300531E-15	1.378182E-16
5.170000E+03	4.354234E-15	1.393966E-16
5.180000E+03	4.412404E-15	1.411141E-16
5.190000E+03	4.474885E-15	1.429653E-16
5.200000E+03	4.541464E-15	1.449430E-16
5.210000E+03	4.611912E-15	1.470394E-16
5.220000E+03	4.685799E-15	1.492405E-16
5.230000E+03	4.762820E-15	1.515362E-16
5.240000E+03	4.842512E-15	1.539116E-16
5.250000E+03	4.924299E-15	1.563480E-16
5.260000E+03	5.007592E-15	1.588265E-16
5.270000E+03	5.091751E-15	1.613268E-16
5.280000E+03	5.176135E-15	1.638285E-16
5.290000E+03	5.260021E-15	1.663086E-16
5.300000E+03	5.342602E-15	1.687418E-16
5.310000E+03	5.423114E-15	1.711040E-16
5.320000E+03	5.500854E-15	1.733733E-16
5.330000E+03	5.575090E-15	1.755270E-16
5.340000E+03	5.645072E-15	1.775418E-16
5.350000E+03	5.710167E-15	1.793983E-16
5.360000E+03	5.769882E-15	1.810814E-16
5.370000E+03	5.823704E-15	1.825757E-16
5.380000E+03	5.871347E-15	1.838728E-16
5.390000E+03	5.912528E-15	1.849645E-16
5.400000E+03	5.947131E-15	1.858477E-16
5.410000E+03	5.975203E-15	1.865248E-16
5.420000E+03	5.996740E-15	1.869960E-16
5.430000E+03	6.011845E-15	1.872655E-16
5.440000E+03	6.020688E-15	1.873391E-16
5.450000E+03	6.023290E-15	1.872181E-16
5.460000E+03	6.019738E-15	1.869058E-16
5.470000E+03	6.009927E-15	1.863997E-16
5.480000E+03	5.993728E-15	1.856963E-16
5.490000E+03	5.971012E-15	1.847924E-16
5.500000E+03	5.941480E-15	1.836793E-16
5.510000E+03	5.904872E-15	1.823498E-16
5.520000E+03	5.861003E-15	1.807988E-16
5.530000E+03	5.809899E-15	1.790279E-16
5.540000E+03	5.751727E-15	1.770430E-16
5.550000E+03	5.686878E-15	1.748567E-16
5.560000E+03	5.616022E-15	1.724904E-16
5.570000E+03	5.539924E-15	1.699681E-16
5.580000E+03	5.459633E-15	1.673225E-16
5.590000E+03	5.376267E-15	1.645882E-16
5.600000E+03	5.291035E-15	1.618024E-16
5.610000E+03	5.205145E-15	1.590024E-16
5.620000E+03	5.119930E-15	1.562288E-16
5.630000E+03	5.036668E-15	1.535206E-16
5.640000E+03	4.956622E-15	1.509158E-16
5.650000E+03	4.881072E-15	1.484533E-16
5.660000E+03	4.811116E-15	1.461659E-16
5.670000E+03	4.747944E-15	1.440891E-16
5.680000E+03	4.692671E-15	1.422561E-16
5.690000E+03	4.646232E-15	1.406944E-16
5.700000E+03	4.609508E-15	1.394297E-16
5.710000E+03	4.583265E-15	1.384843E-16
5.720000E+03	4.568195E-15	1.378780E-16
5.730000E+03	4.564774E-15	1.376240E-16
5.740000E+03	4.573438E-15	1.377344E-16
5.750000E+03	4.594402E-15	1.382144E-16
5.760000E+03	4.627832E-15	1.390678E-16
5.770000E+03	4.673649E-15	1.402909E-16
5.780000E+03	4.731692E-15	1.418778E-16
5.790000E+03	4.801520E-15	1.438141E-16
5.800000E+03	4.882571E-15	1.460818E-16
5.810000E+03	4.973959E-15	1.486532E-16
5.820000E+03	5.074656E-15	1.514969E-16
5.830000E+03	5.183302E-15	1.545712E-16
5.840000E+03	5.298366E-15	1.578299E-16
5.850000E+03	5.418177E-15	1.612226E-16
5.860000E+03	5.540804E-15	1.646914E-16
5.870000E+03	5.664269E-15	1.681775E-16
5.880000E+03	5.786549E-15	1.716207E-16
5.890000E+03	5.905627E-15	1.749615E-16
5.900000E+03	6.019565E-15	1.781428E-16
5.910000E+03	6.126544E-15	1.811114E-16
5.920000E+03	6.224843E-15	1.838171E-16
5.930000E+03	6.313004E-15	1.862179E-16
5.940000E+03	6.389855E-15	1.882802E-16
5.950000E+03	6.454357E-15	1.899745E-16
5.960000E+03	6.505734E-15	1.912792E-16
5.970000E+03	6.543708E-15	1.921875E-16
5.980000E+03	6.567983E-15	1.926919E-16
5.990000E+03	6.578909E-15	1.928041E-16
6.000000E+03	6.576949E-15	1.925389E-16
6.010000E+03	6.562846E-15	1.919192E-16
6.020000E+03	6.537718E-15	1.909789E-16
6.030000E+03	6.502744E-15	1.897534E-16
6.040000E+03	6.459304E-15	1.882839E-16
6.050000E+03	6.408787E-15	1.866116E-16
6.060000E+03	6.352727E-15	1.847818E-16
6.070000E+03	6.292426E-15	1.828329E-16
6.080000E+03	6.229298E-15	1.808063E-16
6.090000E+03	6.164454E-15	1.787344E-16
6.100000E+03	6.099115E-15	1.766528E-16
6.110000E+03	6.034109E-15	1.745855E-16
6.120000E+03	5.970228E-15	1.725554E-16
6.130000E+03	5.908114E-15	1.705808E-16
6.140000E+03	5.848188E-15	1.686737E-16
6.150000E+03	5.790785E-15	1.668437E-16
6.160000E+03	5.736090E-15	1.650957E-16
6.170000E+03	5.684153E-15	1.634311E-16
6.180000E+03	5.634779E-15	1.618438E-16
6.190000E+03	5.587887E-15	1.603315E-16
6.200000E+03	5.543137E-15	1.588840E-16
6.210000E+03	5.500236E-15	1.574929E-16
6.220000E+03	5.458757E-15	1.561458E-16
6.230000E+03	5.418461E-15	1.548356E-16
6.240000E+03	5.378987E-15	1.535521E-16
6.250000E+03	5.340123E-15	1.522890E-16
6.260000E+03	5.301866E-15	1.510463E-16
6.270000E+03	5.264116E-15	1.498210E-16
6.280000E+03	5.227108E-15	1.486198E-16
6.290000E+03	5.191022E-15	1.474477E-16
6.300000E+03	5.156243E-15	1.463157E-16
6.310000E+03	5.123224E-15	1.452363E-16
6.320000E+03	5.092307E-15	1.442192E-16
6.330000E+03	5.064066E-15	1.432805E-16
6.340000E+03	5.038964E-15	1.424329E-16
6.350000E+03	5.017429E-15	1.416884E-16
6.360000E+03	4.999880E-15	1.410584E-16
6.370000E+03	4.986549E-15	1.405492E-16
6.380000E+03	4.977658E-15	1.401668E-16
6.390000E+03	4.973313E-15	1.399137E-16
6.400000E+03	4.973430E-15	1.397873E-16
6.410000E+03	4.977783E-15	1.397809E-16
6.420000E+03	4.986072E-15	1.398858E-16
6.430000E+03	4.997823E-15	1.400884E-16
6.440000E+03	5.012571E-15	1.403754E-16
6.450000E+03	5.029615E-15	1.407270E-16
6.460000E+03	5.048314E-15	1.411253E-16
6.470000E+03	5.067952E-15	1.415500E-16
6.480000E+03	5.087874E-15	1.419828E-16
6.490000E+03	5.107394E-15	1.424045E-16
6.500000E+03	5.125865E-15	1.427972E-16
6.510000E+03	5.142686E-15	1.431443E-16
6.520000E+03	5.157298E-15	1.434301E-16
6.530000E+03	5.169173E-15	1.436404E-16
6.540000E+03	5.177778E-15	1.437604E-16
6.550000E+03	5.182563E-15	1.437751E-16
6.560000E+03	5.183051E-15	1.436715E-16
6.570000E+03	5.178690E-15	1.434346E-16
6.580000E+03	5.169168E-15	1.430562E-16
6.590000E+03	5.154022E-15	1.425236E-16
6.600000E+03	5.133139E-15	1.418342E-16
6.610000E+03	5.106353E-15	1.409837E-16
6.620000E+03	5.073750E-15	1.399748E-16
6.630000E+03	5.035497E-15	1.388125E-16
6.640000E+03	4.991884E-15	1.375051E-16
6.650000E+03	4.943322E-15	1.360642E-16
6.660000E+03	4.890367E-15	1.345054E-16
6.670000E+03	4.833593E-15	1.328447E-16
6.680000E+03	4.773616E-15	1.310992E-16
6.690000E+03	4.711016E-15	1.292850E-16
6.700000E+03	4.646540E-15	1.274226E-16
6.710000E+03	4.580795E-15	1.255288E-16
6.720000E+03	4.514293E-15	1.236177E-16
6.730000E+03	4.447617E-15	1.217051E-16
6.740000E+03	4.381185E-15	1.198026E-16
6.750000E+03	4.315531E-15	1.179245E-16
6.760000E+03	4.250981E-15	1.160798E-16
6.770000E+03	4.187920E-15	1.142789E-16
6.780000E+03	4.126546E-15	1.125270E-16
6.790000E+03	4.067285E-15	1.108356E-16
6.800000E+03	4.010280E-15	1.092085E-16
6.810000E+03	3.955813E-15	1.076531E-16
6.820000E+03	3.904053E-15	1.061740E-16
6.830000E+03	3.855308E-15	1.047792E-16
6.840000E+03	3.809683E-15	1.034715E-16
6.850000E+03	3.767461E-15	1.022584E-16
6.860000E+03	3.728765E-15	1.011429E-16
6.870000E+03	3.693698E-15	1.001277E-16
6.880000E+03	3.662478E-15	9.921851E-17
6.890000E+03	3.635193E-15	9.841742E-17
6.900000E+03	3.611793E-15	9.772292E-17
6.910000E+03	3.592374E-15	9.713738E-17
6.920000E+03	3.576838E-15	9.665795E-17
6.930000E+03	3.565087E-15	9.628175E-17
6.940000E+03	3.557018E-15	9.600583E-17
6.950000E+03	3.552395E-15	9.582367E-17
6.960000E+03	3.550996E-15	9.572905E-17
6.970000E+03	3.552623E-15	9.571655E-17
6.980000E+03	3.556977E-15	9.577793E-17
6.990000E+03	3.563808E-15	9.590632E-17
7.000000E+03	3.572922E-15	9.609647E-17
7.010000E+03	3.584011E-15	9.633990E-17
7.020000E+03	3.596976E-15	9.663395E-17
7.030000E+03	3.611615E-15	9.697306E-17
7.040000E+03	3.627801E-15	9.735380E-17
7.050000E+03	3.645445E-15	9.777369E-17
7.060000E+03	3.664489E-15	9.823115E-17
7.070000E+03	3.684852E-15	9.872394E-17
7.080000E+03	3.706623E-15	9.925439E-17
7.090000E+03	3.729709E-15	9.982000E-17
7.100000E+03	3.754123E-15	1.004211E-16
7.110000E+03	3.779932E-15	1.010593E-16
7.120000E+03	3.807144E-15	1.017349E-16
7.130000E+03	3.835650E-15	1.024450E-16
7.140000E+03	3.865528E-15	1.031915E-16
7.150000E+03	3.896674E-15	1.039716E-16
7.160000E+03	3.928948E-15	1.047817E-16
7.170000E+03	3.962288E-15	1.056200E-16
7.180000E+03	3.996483E-15	1.064809E-16
7.190000E+03	4.031348E-15	1.073594E-16
7.200000E+03	4.066658E-15	1.082496E-16
7.210000E+03	4.102160E-15	1.091447E-16
7.220000E+03	4.137570E-15	1.100373E-16
7.230000E+03	4.172462E-15	1.109160E-16
7.240000E+03	4.206614E-15	1.117749E-16
7.250000E+03	4.239552E-15	1.126016E-16
7.260000E+03	4.270900E-15	1.133861E-16
7.270000E+03	4.300271E-15	1.141182E-16
7.280000E+03	4.327281E-15	1.147879E-16
7.290000E+03	4.351486E-15	1.153834E-16
7.300000E+03	4.372525E-15	1.158954E-16
7.310000E+03	4.390002E-15	1.163134E-16
7.320000E+03	4.403565E-15	1.166283E-16
7.330000E+03	4.413095E-15	1.168371E-16
7.340000E+03	4.418225E-15	1.169301E-16
7.350000E+03	4.418841E-15	1.169046E-16
7.360000E+03	4.414954E-15	1.167609E-16
7.370000E+03	4.406462E-15	1.164966E-16
7.380000E+03	4.393453E-15	1.161139E-16
7.390000E+03	4.376016E-15	1.156156E-16
7.400000E+03	4.354426E-15	1.150088E-16
7.410000E+03	4.328832E-15	1.142977E-16
7.420000E+03	4.299553E-15	1.134908E-16
7.430000E+03	4.267022E-15	1.125996E-16
7.440000E+03	4.231596E-15	1.116335E-16
7.450000E+03	4.193669E-15	1.106031E-16
7.460000E+03	4.153855E-15	1.095245E-16
7.470000E+03	4.112618E-15	1.084101E-16
7.480000E+03	4.070628E-15	1.072774E-16
7.490000E+03	4.028341E-15	1.061385E-16
7.500000E+03	3.986521E-15	1.050136E-16
7.510000E+03	3.945709E-15	1.039168E-16
7.520000E+03	3.906570E-15	1.028656E-16
7.530000E+03	3.869707E-15	1.018759E-16
7.540000E+03	3.835772E-15	1.009647E-16
7.550000E+03	3.805351E-15	1.001475E-16
7.560000E+03	3.779004E-15	9.943894E-17
7.570000E+03	3.757319E-15	9.885440E-17
7.580000E+03	3.740844E-15	9.840825E-17
7.590000E+03	3.729969E-15	9.811074E-17
7.600000E+03	3.725193E-15	9.797492E-17
7.610000E+03	3.726725E-15	9.800627E-17
7.620000E+03	3.734920E-15	9.821410E-17
7.630000E+03	3.749879E-15	9.860106E-17
7.640000E+03	3.771783E-15	9.917190E-17
7.650000E+03	3.800482E-15	9.992270E-17
7.660000E+03	3.835944E-15	1.008526E-16
7.670000E+03	3.877788E-15	1.019518E-16
7.680000E+03	3.925806E-15	1.032147E-16
7.690000E+03	3.979324E-15	1.046237E-16
7.700000E+03	4.037849E-15	1.061661E-16
7.710000E+03	4.100662E-15	1.078229E-16
7.720000E+03	4.166888E-15	1.095713E-16
7.730000E+03	4.235625E-15	1.113877E-16
7.740000E+03	4.305966E-15	1.132483E-16
7.750000E+03	4.376888E-15	1.151265E-16
7.760000E+03	4.447203E-15	1.169910E-16
