#wls	flux	fluxerr
1.600000E+03	4.752386E-16	1.834062E-17
1.640000E+03	4.794340E-16	1.844720E-17
1.680000E+03	4.837203E-16	1.855524E-17
1.720000E+03	4.882744E-16	1.867145E-17
1.760000E+03	4.929144E-16	1.878877E-17
1.800000E+03	4.978198E-16	1.891392E-17
1.840000E+03	5.029906E-16	1.904679E-17
1.880000E+03	5.084262E-16	1.918719E-17
1.920000E+03	5.143146E-16	1.934205E-17
1.960000E+03	5.204689E-16	1.950414E-17
2.000000E+03	5.271754E-16	1.968400E-17
2.040000E+03	5.344387E-16	1.988151E-17
2.080000E+03	5.421658E-16	2.009295E-17
2.120000E+03	5.506527E-16	2.032898E-17
2.160000E+03	5.598079E-16	2.058586E-17
2.200000E+03	5.697357E-16	2.086705E-17
2.240000E+03	5.804424E-16	2.117236E-17
2.280000E+03	5.918323E-16	2.149789E-17
2.320000E+03	6.041114E-16	2.185069E-17
2.360000E+03	6.170815E-16	2.222314E-17
2.400000E+03	6.308475E-16	2.261857E-17
2.440000E+03	6.453092E-16	2.303294E-17
2.480000E+03	6.604680E-16	2.346587E-17
2.520000E+03	6.762209E-16	2.391327E-17
2.560000E+03	6.926725E-16	2.437842E-17
2.600000E+03	7.098238E-16	2.486092E-17
2.640000E+03	7.275702E-16	2.535664E-17
2.680000E+03	7.460172E-16	2.586884E-17
2.720000E+03	7.650582E-16	2.639337E-17
2.760000E+03	7.846908E-16	2.692972E-17
2.800000E+03	8.049105E-16	2.747732E-17
2.840000E+03	8.257095E-16	2.803549E-17
2.880000E+03	8.468593E-16	2.859609E-17
2.920000E+03	8.684469E-16	2.916176E-17
2.960000E+03	8.904423E-16	2.973116E-17
3.000000E+03	9.130196E-16	3.030977E-17
3.010000E+03	9.187653E-16	3.045616E-17
3.020000E+03	9.246038E-16	3.060496E-17
3.030000E+03	9.305341E-16	3.075612E-17
3.040000E+03	9.364459E-16	3.090598E-17
3.050000E+03	9.423376E-16	3.105451E-17
3.060000E+03	9.484257E-16	3.120881E-17
3.070000E+03	9.544905E-16	3.136165E-17
3.080000E+03	9.607483E-16	3.152013E-17
3.090000E+03	9.669791E-16	3.167700E-17
3.100000E+03	9.732899E-16	3.183577E-17
3.110000E+03	9.796782E-16	3.199635E-17
3.120000E+03	9.861418E-16	3.215864E-17
3.130000E+03	9.926781E-16	3.232257E-17
3.140000E+03	9.993933E-16	3.249155E-17
3.150000E+03	1.006066E-15	3.265840E-17
3.160000E+03	1.012912E-15	3.283007E-17
3.170000E+03	1.019926E-15	3.300644E-17
3.180000E+03	1.026997E-15	3.318382E-17
3.190000E+03	1.034229E-15	3.336560E-17
3.200000E+03	1.041510E-15	3.354810E-17
3.210000E+03	1.049051E-15	3.373819E-17
3.220000E+03	1.056631E-15	3.392865E-17
3.230000E+03	1.064354E-15	3.412280E-17
3.240000E+03	1.072212E-15	3.432044E-17
3.250000E+03	1.080311E-15	3.452486E-17
3.260000E+03	1.088533E-15	3.473230E-17
3.270000E+03	1.096871E-15	3.494253E-17
3.280000E+03	1.105427E-15	3.515874E-17
3.290000E+03	1.114195E-15	3.538070E-17
3.300000E+03	1.123163E-15	3.560804E-17
3.310000E+03	1.132324E-15	3.584048E-17
3.320000E+03	1.141776E-15	3.608110E-17
3.330000E+03	1.151401E-15	3.632610E-17
3.340000E+03	1.161188E-15	3.657513E-17
3.350000E+03	1.171231E-15	3.683114E-17
3.360000E+03	1.181628E-15	3.709714E-17
3.370000E+03	1.192149E-15	3.736587E-17
3.380000E+03	1.202996E-15	3.764362E-17
3.390000E+03	1.214044E-15	3.792648E-17
3.400000E+03	1.225494E-15	3.822062E-17
3.410000E+03	1.237113E-15	3.851881E-17
3.420000E+03	1.249098E-15	3.882705E-17
3.430000E+03	1.261322E-15	3.914144E-17
3.440000E+03	1.273873E-15	3.946457E-17
3.450000E+03	1.286727E-15	3.979574E-17
3.460000E+03	1.299863E-15	4.013418E-17
3.470000E+03	1.313363E-15	4.048240E-17
3.480000E+03	1.327097E-15	4.083637E-17
3.490000E+03	1.341143E-15	4.119842E-17
3.500000E+03	1.355476E-15	4.156774E-17
3.510000E+03	1.370169E-15	4.194653E-17
3.520000E+03	1.385091E-15	4.233074E-17
3.530000E+03	1.400316E-15	4.272258E-17
3.540000E+03	1.415814E-15	4.312108E-17
3.550000E+03	1.431554E-15	4.352524E-17
3.560000E+03	1.447607E-15	4.393723E-17
3.570000E+03	1.586947E-15	4.808297E-17
3.572000E+03	1.587667E-15	4.808808E-17
3.574000E+03	1.579498E-15	4.782403E-17
3.576000E+03	1.587600E-15	4.805265E-17
3.578000E+03	1.583791E-15	4.792068E-17
3.580000E+03	1.579128E-15	4.776297E-17
3.582000E+03	1.583125E-15	4.786721E-17
3.584000E+03	1.576345E-15	4.764562E-17
3.586000E+03	1.557043E-15	4.704582E-17
3.588000E+03	1.563871E-15	4.723566E-17
3.590000E+03	1.538972E-15	4.646741E-17
3.592000E+03	1.549634E-15	4.677300E-17
3.594000E+03	1.555737E-15	4.694082E-17
3.596000E+03	1.541203E-15	4.648607E-17
3.598000E+03	1.528731E-15	4.609377E-17
3.600000E+03	1.518705E-15	4.577550E-17
3.602000E+03	1.548204E-15	4.664831E-17
3.604000E+03	1.546429E-15	4.657855E-17
3.606000E+03	1.552632E-15	4.674903E-17
3.608000E+03	1.540488E-15	4.636715E-17
3.610000E+03	1.544006E-15	4.645676E-17
3.612000E+03	1.553397E-15	4.672296E-17
3.614000E+03	1.562713E-15	4.698669E-17
3.616000E+03	1.571398E-15	4.723126E-17
3.618000E+03	1.579587E-15	4.746076E-17
3.620000E+03	1.593697E-15	4.786792E-17
3.622000E+03	1.603902E-15	4.815753E-17
3.624000E+03	1.605641E-15	4.819282E-17
3.626000E+03	1.605393E-15	4.816845E-17
3.628000E+03	1.631588E-15	4.893721E-17
3.630000E+03	1.672295E-15	5.014053E-17
3.632000E+03	1.685653E-15	5.052328E-17
3.634000E+03	1.698418E-15	5.088797E-17
3.636000E+03	1.715914E-15	5.139408E-17
3.638000E+03	1.711106E-15	5.123205E-17
3.640000E+03	1.701161E-15	5.091633E-17
3.642000E+03	1.703019E-15	5.095401E-17
3.644000E+03	1.700596E-15	5.086356E-17
3.646000E+03	1.693159E-15	5.062329E-17
3.648000E+03	1.665608E-15	4.978198E-17
3.650000E+03	1.666478E-15	4.979042E-17
3.652000E+03	1.692003E-15	5.053519E-17
3.654000E+03	1.681738E-15	5.021087E-17
3.656000E+03	1.682751E-15	5.022338E-17
3.658000E+03	1.711145E-15	5.105276E-17
3.660000E+03	1.709986E-15	5.100015E-17
3.662000E+03	1.701819E-15	5.073864E-17
3.664000E+03	1.694892E-15	5.051422E-17
3.666000E+03	1.691479E-15	5.039468E-17
3.668000E+03	1.701124E-15	5.066409E-17
3.670000E+03	1.685824E-15	5.019064E-17
3.672000E+03	1.676925E-15	4.990798E-17
3.674000E+03	1.681489E-15	5.002608E-17
3.676000E+03	1.688720E-15	5.022339E-17
3.678000E+03	1.708193E-15	5.078452E-17
3.680000E+03	1.699140E-15	5.049744E-17
3.682000E+03	1.721318E-15	5.113842E-17
3.684000E+03	1.734546E-15	5.151309E-17
3.686000E+03	1.744705E-15	5.179640E-17
3.688000E+03	1.743797E-15	5.175104E-17
3.690000E+03	1.759071E-15	5.218579E-17
3.692000E+03	1.777922E-15	5.272627E-17
3.694000E+03	1.768604E-15	5.243126E-17
3.696000E+03	1.787091E-15	5.296047E-17
3.698000E+03	1.784335E-15	5.285996E-17
3.700000E+03	1.781241E-15	5.274951E-17
3.702000E+03	1.789138E-15	5.296450E-17
3.704000E+03	1.797545E-15	5.319439E-17
3.706000E+03	1.802823E-15	5.333156E-17
3.708000E+03	1.812807E-15	5.360778E-17
3.710000E+03	1.810901E-15	5.353230E-17
3.712000E+03	1.810970E-15	5.351525E-17
3.714000E+03	1.800912E-15	5.319901E-17
3.716000E+03	1.790449E-15	5.287105E-17
3.718000E+03	1.787794E-15	5.277377E-17
3.720000E+03	1.791855E-15	5.287474E-17
3.722000E+03	1.787957E-15	5.274084E-17
3.724000E+03	1.774931E-15	5.233787E-17
3.726000E+03	1.750734E-15	5.160589E-17
3.728000E+03	1.739048E-15	5.124307E-17
3.730000E+03	1.726646E-15	5.085939E-17
3.732000E+03	1.722054E-15	5.070597E-17
3.734000E+03	1.718931E-15	5.059587E-17
3.736000E+03	1.701155E-15	5.005467E-17
3.738000E+03	1.700393E-15	5.001431E-17
3.740000E+03	1.699668E-15	4.997504E-17
3.742000E+03	1.679564E-15	4.936621E-17
3.744000E+03	1.687498E-15	4.958157E-17
3.746000E+03	1.682919E-15	4.942929E-17
3.748000E+03	1.679058E-15	4.929814E-17
3.750000E+03	1.672723E-15	4.909450E-17
3.752000E+03	1.676196E-15	4.917872E-17
3.754000E+03	1.669646E-15	4.896894E-17
3.756000E+03	1.679469E-15	4.923929E-17
3.758000E+03	1.685996E-15	4.941286E-17
3.760000E+03	1.693632E-15	4.961877E-17
3.762000E+03	1.676001E-15	4.908453E-17
3.764000E+03	1.687425E-15	4.940127E-17
3.766000E+03	1.665750E-15	4.874914E-17
3.768000E+03	1.663257E-15	4.865861E-17
3.770000E+03	1.663026E-15	4.863429E-17
3.772000E+03	1.641637E-15	4.799145E-17
3.774000E+03	1.651417E-15	4.825994E-17
3.776000E+03	1.661075E-15	4.852463E-17
3.778000E+03	1.658519E-15	4.843244E-17
3.780000E+03	1.665776E-15	4.862677E-17
3.782000E+03	1.665235E-15	4.859341E-17
3.784000E+03	1.673480E-15	4.881632E-17
3.786000E+03	1.658956E-15	4.837514E-17
3.788000E+03	1.652644E-15	4.817362E-17
3.790000E+03	1.648737E-15	4.804232E-17
3.792000E+03	1.657088E-15	4.826818E-17
3.794000E+03	1.636410E-15	4.764856E-17
3.796000E+03	1.615541E-15	4.702384E-17
3.798000E+03	1.607096E-15	4.676107E-17
3.800000E+03	1.610658E-15	4.684770E-17
3.802000E+03	1.613709E-15	4.691941E-17
3.804000E+03	1.610208E-15	4.680061E-17
3.806000E+03	1.622261E-15	4.713380E-17
3.808000E+03	1.613791E-15	4.687066E-17
3.810000E+03	1.598006E-15	4.639532E-17
3.812000E+03	1.585936E-15	4.602815E-17
3.814000E+03	1.588036E-15	4.607232E-17
3.816000E+03	1.589327E-15	4.609300E-17
3.818000E+03	1.603744E-15	4.649418E-17
3.820000E+03	1.591593E-15	4.612511E-17
3.822000E+03	1.585941E-15	4.594457E-17
3.824000E+03	1.591164E-15	4.607906E-17
3.826000E+03	1.595746E-15	4.619492E-17
3.828000E+03	1.603549E-15	4.640386E-17
3.830000E+03	1.612737E-15	4.665270E-17
3.832000E+03	1.625790E-15	4.701313E-17
3.834000E+03	1.628142E-15	4.706395E-17
3.836000E+03	1.632488E-15	4.717233E-17
3.838000E+03	1.632740E-15	4.716236E-17
3.840000E+03	1.639263E-15	4.733348E-17
3.842000E+03	1.648719E-15	4.758912E-17
3.844000E+03	1.667627E-15	4.811728E-17
3.846000E+03	1.676493E-15	4.835539E-17
3.848000E+03	1.685637E-15	4.860133E-17
3.850000E+03	1.702354E-15	4.906535E-17
3.852000E+03	1.715222E-15	4.941812E-17
3.854000E+03	1.723885E-15	4.964949E-17
3.856000E+03	1.739188E-15	5.007188E-17
3.858000E+03	1.739096E-15	5.005085E-17
3.860000E+03	1.737349E-15	4.998225E-17
3.862000E+03	1.741989E-15	5.009732E-17
3.864000E+03	1.758053E-15	5.054073E-17
3.866000E+03	1.777529E-15	5.108187E-17
3.868000E+03	1.798388E-15	5.166233E-17
3.870000E+03	1.816119E-15	5.215250E-17
3.872000E+03	1.838137E-15	5.276537E-17
3.874000E+03	1.869989E-15	5.365995E-17
3.876000E+03	1.900576E-15	5.451761E-17
3.878000E+03	1.928690E-15	5.530368E-17
3.880000E+03	1.956080E-15	5.606842E-17
3.882000E+03	1.991969E-15	5.707609E-17
3.884000E+03	2.014462E-15	5.769930E-17
3.886000E+03	2.031922E-15	5.817797E-17
3.888000E+03	2.050870E-15	5.869883E-17
3.890000E+03	2.068186E-15	5.917259E-17
3.892000E+03	2.090037E-15	5.977571E-17
3.894000E+03	2.110433E-15	6.033677E-17
3.896000E+03	2.139975E-15	6.115877E-17
3.898000E+03	2.170532E-15	6.200915E-17
3.900000E+03	2.202988E-15	6.291312E-17
3.902000E+03	2.226599E-15	6.356389E-17
3.904000E+03	2.249804E-15	6.420258E-17
3.906000E+03	2.275901E-15	6.492330E-17
3.908000E+03	2.302789E-15	6.566601E-17
3.910000E+03	2.324417E-15	6.625822E-17
3.912000E+03	2.339606E-15	6.666647E-17
3.914000E+03	2.334439E-15	6.649461E-17
3.916000E+03	2.343241E-15	6.672058E-17
3.918000E+03	2.371381E-15	6.749681E-17
3.920000E+03	2.374644E-15	6.756462E-17
3.922000E+03	2.396759E-15	6.816854E-17
3.924000E+03	2.418585E-15	6.876380E-17
3.926000E+03	2.435459E-15	6.921785E-17
3.928000E+03	2.455975E-15	6.977503E-17
3.930000E+03	2.448802E-15	6.954538E-17
3.932000E+03	2.458761E-15	6.980227E-17
3.934000E+03	2.471770E-15	7.014551E-17
3.936000E+03	2.489790E-15	7.063060E-17
3.938000E+03	2.497128E-15	7.081242E-17
3.940000E+03	2.498444E-15	7.082340E-17
3.942000E+03	2.493664E-15	7.066158E-17
3.944000E+03	2.508258E-15	7.104866E-17
3.946000E+03	2.513312E-15	7.116529E-17
3.948000E+03	2.528061E-15	7.155627E-17
3.950000E+03	2.537267E-15	7.179005E-17
3.952000E+03	2.551310E-15	7.216048E-17
3.954000E+03	2.548989E-15	7.206796E-17
3.956000E+03	2.547985E-15	7.201269E-17
3.958000E+03	2.558353E-15	7.227874E-17
3.960000E+03	2.556091E-15	7.218787E-17
3.962000E+03	2.559455E-15	7.225588E-17
3.964000E+03	2.563932E-15	7.235523E-17
3.966000E+03	2.574310E-15	7.262095E-17
3.968000E+03	2.591362E-15	7.307466E-17
3.970000E+03	2.592901E-15	7.309071E-17
3.972000E+03	2.607128E-15	7.346428E-17
3.974000E+03	2.628780E-15	7.404669E-17
3.976000E+03	2.631106E-15	7.408446E-17
3.978000E+03	2.636571E-15	7.421055E-17
3.980000E+03	2.639458E-15	7.426399E-17
3.982000E+03	2.637965E-15	7.419416E-17
3.984000E+03	2.641830E-15	7.427502E-17
3.986000E+03	2.640358E-15	7.420579E-17
3.988000E+03	2.653821E-15	7.455621E-17
3.990000E+03	2.653477E-15	7.451857E-17
3.992000E+03	2.655967E-15	7.456052E-17
3.994000E+03	2.664400E-15	7.476918E-17
3.996000E+03	2.674040E-15	7.501151E-17
3.998000E+03	2.693389E-15	7.552591E-17
4.000000E+03	2.707723E-15	7.589932E-17
4.002000E+03	2.723386E-15	7.630969E-17
4.004000E+03	2.744655E-15	7.687673E-17
4.006000E+03	2.765215E-15	7.742347E-17
4.008000E+03	2.768740E-15	7.749300E-17
4.010000E+03	2.780655E-15	7.779720E-17
4.012000E+03	2.807667E-15	7.852337E-17
4.014000E+03	2.812644E-15	7.863295E-17
4.016000E+03	2.824651E-15	7.893889E-17
4.018000E+03	2.835859E-15	7.922226E-17
4.020000E+03	2.828220E-15	7.897907E-17
4.022000E+03	2.842951E-15	7.936050E-17
4.024000E+03	2.855277E-15	7.967454E-17
4.026000E+03	2.862693E-15	7.985134E-17
4.028000E+03	2.882360E-15	8.036958E-17
4.030000E+03	2.906248E-15	8.100506E-17
4.032000E+03	2.930004E-15	8.163639E-17
4.034000E+03	2.935763E-15	8.176595E-17
4.036000E+03	2.937138E-15	8.177333E-17
4.038000E+03	2.927639E-15	8.147807E-17
4.040000E+03	2.922247E-15	8.129725E-17
4.042000E+03	2.930892E-15	8.150693E-17
4.044000E+03	2.920592E-15	8.118978E-17
4.046000E+03	2.907857E-15	8.080516E-17
4.048000E+03	2.900790E-15	8.057827E-17
4.050000E+03	2.895278E-15	8.039471E-17
4.052000E+03	2.889883E-15	8.021452E-17
4.054000E+03	2.877949E-15	7.985300E-17
4.056000E+03	2.879492E-15	7.986555E-17
4.058000E+03	2.870783E-15	7.959380E-17
4.060000E+03	2.871081E-15	7.957189E-17
4.062000E+03	2.859174E-15	7.921185E-17
4.064000E+03	2.849282E-15	7.890784E-17
4.066000E+03	2.844545E-15	7.874677E-17
4.068000E+03	2.833401E-15	7.840848E-17
4.070000E+03	2.827779E-15	7.822320E-17
4.072000E+03	2.816589E-15	7.788407E-17
4.074000E+03	2.809568E-15	7.766042E-17
4.076000E+03	2.787938E-15	7.703323E-17
4.078000E+03	2.775663E-15	7.666491E-17
4.080000E+03	2.788325E-15	7.698538E-17
4.082000E+03	2.769324E-15	7.643167E-17
4.084000E+03	2.741989E-15	7.564845E-17
4.086000E+03	2.720970E-15	7.504000E-17
4.088000E+03	2.709437E-15	7.469350E-17
4.090000E+03	2.699294E-15	7.438555E-17
4.092000E+03	2.691838E-15	7.415183E-17
4.094000E+03	2.675297E-15	7.366811E-17
4.096000E+03	2.660397E-15	7.322988E-17
4.098000E+03	2.646263E-15	7.281307E-17
4.100000E+03	2.632225E-15	7.239920E-17
4.102000E+03	2.614382E-15	7.188101E-17
4.104000E+03	2.613661E-15	7.183377E-17
4.106000E+03	2.617252E-15	7.190503E-17
4.108000E+03	2.618227E-15	7.190438E-17
4.110000E+03	2.611862E-15	7.170218E-17
4.112000E+03	2.596076E-15	7.124160E-17
4.114000E+03	2.593826E-15	7.115267E-17
4.116000E+03	2.620794E-15	7.186497E-17
4.118000E+03	2.636874E-15	7.227830E-17
4.120000E+03	2.635475E-15	7.221231E-17
4.122000E+03	2.647475E-15	7.251340E-17
4.124000E+03	2.647750E-15	7.249319E-17
4.126000E+03	2.650819E-15	7.254945E-17
4.128000E+03	2.651334E-15	7.253580E-17
4.130000E+03	2.643062E-15	7.228182E-17
4.132000E+03	2.644920E-15	7.230491E-17
4.134000E+03	2.643887E-15	7.224902E-17
4.136000E+03	2.645346E-15	7.226119E-17
4.138000E+03	2.643263E-15	7.217663E-17
4.140000E+03	2.651550E-15	7.237517E-17
4.142000E+03	2.657861E-15	7.251964E-17
4.144000E+03	2.673148E-15	7.290879E-17
4.146000E+03	2.676305E-15	7.296688E-17
4.148000E+03	2.688938E-15	7.328321E-17
4.150000E+03	2.680222E-15	7.301763E-17
4.152000E+03	2.687354E-15	7.318385E-17
4.154000E+03	2.695032E-15	7.336478E-17
4.156000E+03	2.718657E-15	7.397947E-17
4.158000E+03	2.722463E-15	7.405460E-17
4.160000E+03	2.711854E-15	7.373770E-17
4.162000E+03	2.714376E-15	7.377792E-17
4.164000E+03	2.701402E-15	7.339705E-17
4.166000E+03	2.701971E-15	7.338432E-17
4.168000E+03	2.691642E-15	7.307566E-17
4.170000E+03	2.684936E-15	7.286559E-17
4.172000E+03	2.687026E-15	7.289424E-17
4.174000E+03	2.677404E-15	7.260528E-17
4.176000E+03	2.663502E-15	7.220051E-17
4.178000E+03	2.654227E-15	7.192140E-17
4.180000E+03	2.629793E-15	7.123187E-17
4.182000E+03	2.607814E-15	7.060936E-17
4.184000E+03	2.604235E-15	7.048528E-17
4.186000E+03	2.604840E-15	7.047452E-17
4.188000E+03	2.607929E-15	7.053090E-17
4.190000E+03	2.599231E-15	7.026857E-17
4.192000E+03	2.605014E-15	7.039776E-17
4.194000E+03	2.597927E-15	7.017918E-17
4.196000E+03	2.584163E-15	6.978046E-17
4.198000E+03	2.587946E-15	6.985566E-17
4.200000E+03	2.584282E-15	6.972985E-17
4.202000E+03	2.592750E-15	6.993134E-17
4.204000E+03	2.606219E-15	7.026751E-17
4.206000E+03	2.607406E-15	7.027238E-17
4.208000E+03	2.598225E-15	6.999792E-17
4.210000E+03	2.594076E-15	6.985914E-17
4.212000E+03	2.598868E-15	6.996118E-17
4.214000E+03	2.593997E-15	6.980309E-17
4.216000E+03	2.602732E-15	7.001107E-17
4.218000E+03	2.610963E-15	7.020532E-17
4.220000E+03	2.612791E-15	7.022733E-17
4.222000E+03	2.618015E-15	7.034055E-17
4.224000E+03	2.625796E-15	7.052235E-17
4.226000E+03	2.617123E-15	7.026223E-17
4.228000E+03	2.638636E-15	7.081238E-17
4.230000E+03	2.652823E-15	7.116558E-17
4.232000E+03	2.660398E-15	7.134118E-17
4.234000E+03	2.640207E-15	7.077234E-17
4.236000E+03	2.620004E-15	7.020359E-17
4.238000E+03	2.619651E-15	7.016698E-17
4.240000E+03	2.632101E-15	7.047314E-17
4.242000E+03	2.631788E-15	7.043749E-17
4.244000E+03	2.644425E-15	7.074830E-17
4.246000E+03	2.659618E-15	7.112720E-17
4.248000E+03	2.670789E-15	7.139827E-17
4.250000E+03	2.679367E-15	7.159985E-17
4.252000E+03	2.689169E-15	7.183392E-17
4.254000E+03	2.701297E-15	7.212993E-17
4.256000E+03	2.737950E-15	7.308029E-17
4.258000E+03	2.733157E-15	7.292408E-17
4.260000E+03	2.747783E-15	7.328587E-17
4.262000E+03	2.747037E-15	7.323758E-17
4.264000E+03	2.744406E-15	7.313904E-17
4.266000E+03	2.763548E-15	7.362062E-17
4.268000E+03	2.770784E-15	7.378475E-17
4.270000E+03	2.782591E-15	7.407040E-17
4.272000E+03	2.787195E-15	7.416414E-17
4.274000E+03	2.789911E-15	7.420762E-17
4.276000E+03	2.793676E-15	7.427891E-17
4.278000E+03	2.801319E-15	7.445319E-17
4.280000E+03	2.808373E-15	7.461169E-17
4.282000E+03	2.783792E-15	7.392990E-17
4.284000E+03	2.769711E-15	7.352739E-17
4.286000E+03	2.755402E-15	7.311911E-17
4.288000E+03	2.752531E-15	7.301455E-17
4.290000E+03	2.750290E-15	7.292674E-17
4.292000E+03	2.747847E-15	7.283364E-17
4.294000E+03	2.746748E-15	7.277621E-17
4.296000E+03	2.744081E-15	7.267730E-17
4.298000E+03	2.733884E-15	7.237909E-17
4.300000E+03	2.732773E-15	7.232152E-17
4.302000E+03	2.748960E-15	7.272163E-17
4.304000E+03	2.756140E-15	7.288320E-17
4.306000E+03	2.748533E-15	7.265378E-17
4.308000E+03	2.753057E-15	7.274505E-17
4.310000E+03	2.743055E-15	7.245256E-17
4.312000E+03	2.743104E-15	7.242566E-17
4.314000E+03	2.760030E-15	7.284421E-17
4.316000E+03	2.778423E-15	7.330111E-17
4.318000E+03	2.771046E-15	7.307803E-17
4.320000E+03	2.763334E-15	7.284629E-17
4.322000E+03	2.774672E-15	7.311670E-17
4.324000E+03	2.774652E-15	7.308770E-17
4.326000E+03	2.780726E-15	7.321919E-17
4.328000E+03	2.766435E-15	7.281453E-17
4.330000E+03	2.768899E-15	7.285101E-17
4.332000E+03	2.781616E-15	7.315707E-17
4.334000E+03	2.790511E-15	7.336244E-17
4.336000E+03	2.790035E-15	7.332134E-17
4.338000E+03	2.789539E-15	7.327977E-17
4.340000E+03	2.791282E-15	7.329698E-17
4.342000E+03	2.796858E-15	7.341480E-17
4.344000E+03	2.801022E-15	7.349544E-17
4.346000E+03	2.808296E-15	7.365758E-17
4.348000E+03	2.822060E-15	7.398976E-17
4.350000E+03	2.824002E-15	7.401180E-17
4.352000E+03	2.838634E-15	7.436628E-17
4.354000E+03	2.845721E-15	7.452289E-17
4.356000E+03	2.857541E-15	7.480325E-17
4.358000E+03	2.856807E-15	7.475489E-17
4.360000E+03	2.855807E-15	7.469959E-17
4.362000E+03	2.855773E-15	7.466958E-17
4.364000E+03	2.847385E-15	7.442124E-17
4.366000E+03	2.840137E-15	7.420284E-17
4.368000E+03	2.848323E-15	7.438771E-17
4.370000E+03	2.864744E-15	7.478739E-17
4.372000E+03	2.861094E-15	7.466296E-17
4.374000E+03	2.860149E-15	7.460919E-17
4.376000E+03	2.869555E-15	7.482536E-17
4.378000E+03	2.876537E-15	7.497817E-17
4.380000E+03	2.869387E-15	7.476263E-17
4.382000E+03	2.876470E-15	7.491794E-17
4.384000E+03	2.885106E-15	7.511355E-17
4.386000E+03	2.885064E-15	7.508317E-17
4.388000E+03	2.871200E-15	7.469321E-17
4.390000E+03	2.864607E-15	7.449262E-17
4.392000E+03	2.856168E-15	7.424420E-17
4.394000E+03	2.859032E-15	7.428966E-17
4.396000E+03	2.860002E-15	7.428588E-17
4.398000E+03	2.868172E-15	7.446902E-17
4.400000E+03	2.873512E-15	7.457856E-17
4.402000E+03	2.893552E-15	7.506936E-17
4.404000E+03	2.892281E-15	7.500711E-17
4.406000E+03	2.889098E-15	7.489533E-17
4.408000E+03	2.890996E-15	7.491530E-17
