#wls	flux	fluxerr
1.600000E+03	4.558726E-16	2.352761E-17
1.640000E+03	4.604516E-16	2.374411E-17
1.680000E+03	4.651336E-16	2.396501E-17
1.720000E+03	4.699153E-16	2.419008E-17
1.760000E+03	4.749777E-16	2.442860E-17
1.800000E+03	4.802287E-16	2.467577E-17
1.840000E+03	4.857613E-16	2.493630E-17
1.880000E+03	4.914804E-16	2.520524E-17
1.920000E+03	4.974796E-16	2.548733E-17
1.960000E+03	5.037583E-16	2.578245E-17
2.000000E+03	5.104134E-16	2.609548E-17
2.040000E+03	5.174457E-16	2.642635E-17
2.080000E+03	5.248548E-16	2.677496E-17
2.120000E+03	5.326393E-16	2.714110E-17
2.160000E+03	5.407965E-16	2.752453E-17
2.200000E+03	5.495286E-16	2.793543E-17
2.240000E+03	5.586271E-16	2.836303E-17
2.280000E+03	5.681893E-16	2.881215E-17
2.320000E+03	5.783136E-16	2.928763E-17
2.360000E+03	5.888863E-16	2.978355E-17
2.400000E+03	5.998947E-16	3.029910E-17
2.440000E+03	6.114312E-16	3.083879E-17
2.480000E+03	6.233695E-16	3.139608E-17
2.520000E+03	6.357956E-16	3.197512E-17
2.560000E+03	6.486826E-16	3.257439E-17
2.600000E+03	6.618882E-16	3.318655E-17
2.640000E+03	6.755945E-16	3.382057E-17
2.680000E+03	6.897574E-16	3.447403E-17
2.720000E+03	7.042128E-16	3.513854E-17
2.760000E+03	7.190105E-16	3.581642E-17
2.800000E+03	7.341906E-16	3.650948E-17
2.840000E+03	7.496704E-16	3.721341E-17
2.880000E+03	7.655786E-16	3.793440E-17
2.920000E+03	7.818046E-16	3.866675E-17
2.960000E+03	7.985569E-16	3.942058E-17
3.000000E+03	8.156886E-16	4.018837E-17
3.010000E+03	8.201194E-16	4.038684E-17
3.020000E+03	8.244704E-16	4.058106E-17
3.030000E+03	8.289607E-16	4.078182E-17
3.040000E+03	8.334761E-16	4.098349E-17
3.050000E+03	8.380136E-16	4.118592E-17
3.060000E+03	8.425698E-16	4.138894E-17
3.070000E+03	8.472516E-16	4.159780E-17
3.080000E+03	8.519451E-16	4.180689E-17
3.090000E+03	8.566468E-16	4.201604E-17
3.100000E+03	8.613530E-16	4.222506E-17
3.110000E+03	8.662789E-16	4.244450E-17
3.120000E+03	8.710920E-16	4.265806E-17
3.130000E+03	8.761157E-16	4.288156E-17
3.140000E+03	8.810187E-16	4.309879E-17
3.150000E+03	8.861229E-16	4.332550E-17
3.160000E+03	8.912065E-16	4.355081E-17
3.170000E+03	8.964808E-16	4.378507E-17
3.180000E+03	9.017250E-16	4.401745E-17
3.190000E+03	9.070417E-16	4.425299E-17
3.200000E+03	9.124257E-16	4.449141E-17
3.210000E+03	9.179783E-16	4.473764E-17
3.220000E+03	9.234804E-16	4.498099E-17
3.230000E+03	9.291390E-16	4.523154E-17
3.240000E+03	9.349476E-16	4.548897E-17
3.250000E+03	9.407941E-16	4.574781E-17
3.260000E+03	9.466727E-16	4.600776E-17
3.270000E+03	9.526817E-16	4.627360E-17
3.280000E+03	9.588141E-16	4.654498E-17
3.290000E+03	9.649592E-16	4.681650E-17
3.300000E+03	9.713170E-16	4.709787E-17
3.310000E+03	9.777762E-16	4.738368E-17
3.320000E+03	9.842273E-16	4.766860E-17
3.330000E+03	9.909692E-16	4.796709E-17
3.340000E+03	9.976881E-16	4.826397E-17
3.350000E+03	1.004579E-15	4.856866E-17
3.360000E+03	1.011534E-15	4.887588E-17
3.370000E+03	1.018743E-15	4.919487E-17
3.380000E+03	1.025998E-15	4.951554E-17
3.390000E+03	1.033391E-15	4.984229E-17
3.400000E+03	1.040913E-15	5.017466E-17
3.410000E+03	1.048554E-15	5.051221E-17
3.420000E+03	1.056402E-15	5.085916E-17
3.430000E+03	1.064351E-15	5.121036E-17
3.440000E+03	1.072489E-15	5.156998E-17
3.450000E+03	1.080803E-15	5.193748E-17
3.460000E+03	1.089189E-15	5.230782E-17
3.470000E+03	1.097829E-15	5.268964E-17
3.480000E+03	1.106614E-15	5.307777E-17
3.490000E+03	1.115536E-15	5.347180E-17
3.500000E+03	1.124585E-15	5.387122E-17
3.510000E+03	1.133843E-15	5.427990E-17
3.520000E+03	1.143296E-15	5.469725E-17
3.530000E+03	1.152937E-15	5.512278E-17
3.540000E+03	1.162749E-15	5.555579E-17
3.550000E+03	1.172814E-15	5.600011E-17
3.560000E+03	1.182943E-15	5.644667E-17
3.570000E+03	1.193301E-15	5.690334E-17
3.580000E+03	1.203877E-15	5.736964E-17
3.590000E+03	1.214663E-15	5.784508E-17
3.600000E+03	1.225648E-15	5.832915E-17
3.610000E+03	1.236829E-15	5.882163E-17
3.620000E+03	1.248280E-15	5.932611E-17
3.630000E+03	1.259918E-15	5.983853E-17
3.640000E+03	1.271820E-15	6.036259E-17
3.650000E+03	1.283984E-15	6.089815E-17
3.660000E+03	1.296327E-15	6.144120E-17
3.670000E+03	1.309009E-15	6.199930E-17
3.680000E+03	1.322025E-15	6.257220E-17
3.690000E+03	1.335214E-15	6.315230E-17
3.700000E+03	1.348813E-15	6.375067E-17
3.710000E+03	1.362658E-15	6.435962E-17
3.720000E+03	1.376905E-15	6.498640E-17
3.730000E+03	1.391393E-15	6.562342E-17
3.740000E+03	1.406273E-15	6.627772E-17
3.750000E+03	1.421463E-15	6.694541E-17
3.760000E+03	1.437032E-15	6.762978E-17
3.770000E+03	1.452975E-15	6.833043E-17
3.780000E+03	1.469212E-15	6.904362E-17
3.790000E+03	1.485881E-15	6.977576E-17
3.800000E+03	1.502829E-15	7.051964E-17
3.810000E+03	1.520191E-15	7.128160E-17
3.820000E+03	1.537886E-15	7.205771E-17
3.830000E+03	1.555974E-15	7.285078E-17
3.840000E+03	1.574442E-15	7.366015E-17
3.850000E+03	1.593211E-15	7.448206E-17
3.860000E+03	1.612337E-15	7.531910E-17
3.870000E+03	1.631806E-15	7.617058E-17
3.880000E+03	1.651540E-15	7.703283E-17
3.890000E+03	1.671657E-15	7.791129E-17
3.900000E+03	1.692078E-15	7.880223E-17
3.910000E+03	1.712856E-15	7.970806E-17
3.920000E+03	1.733848E-15	8.062212E-17
3.930000E+03	1.755171E-15	8.154978E-17
3.940000E+03	1.776750E-15	8.248756E-17
3.950000E+03	1.798576E-15	8.343497E-17
3.960000E+03	1.820703E-15	8.439448E-17
3.970000E+03	1.843063E-15	8.536288E-17
3.980000E+03	1.865651E-15	8.633994E-17
3.990000E+03	1.888524E-15	8.732827E-17
4.000000E+03	1.911565E-15	8.832237E-17
4.010000E+03	1.934895E-15	8.932786E-17
4.020000E+03	1.958460E-15	9.034216E-17
4.030000E+03	1.982210E-15	9.136296E-17
4.040000E+03	2.006277E-15	9.239624E-17
4.050000E+03	2.030555E-15	9.343720E-17
4.060000E+03	2.055123E-15	9.448935E-17
4.070000E+03	2.079946E-15	9.555104E-17
4.080000E+03	2.105048E-15	9.662339E-17
4.090000E+03	2.130458E-15	9.770759E-17
4.100000E+03	2.156205E-15	9.880504E-17
4.110000E+03	2.182270E-15	9.991473E-17
4.120000E+03	2.208686E-15	1.010382E-16
4.130000E+03	2.235495E-15	1.021773E-16
4.140000E+03	2.262734E-15	1.033336E-16
4.150000E+03	2.290392E-15	1.045065E-16
4.160000E+03	2.318457E-15	1.056956E-16
4.170000E+03	2.347028E-15	1.069052E-16
4.180000E+03	2.376040E-15	1.081322E-16
4.190000E+03	2.405589E-15	1.093811E-16
4.200000E+03	2.435664E-15	1.106512E-16
4.210000E+03	2.466253E-15	1.119419E-16
4.220000E+03	2.497395E-15	1.132549E-16
4.230000E+03	2.529070E-15	1.145892E-16
4.240000E+03	2.561262E-15	1.159440E-16
4.250000E+03	2.594046E-15	1.173227E-16
4.260000E+03	2.627342E-15	1.187215E-16
4.270000E+03	2.661168E-15	1.201412E-16
4.280000E+03	2.695431E-15	1.215774E-16
4.290000E+03	2.730186E-15	1.230327E-16
4.300000E+03	2.765326E-15	1.245022E-16
4.310000E+03	2.800840E-15	1.259852E-16
4.320000E+03	2.836658E-15	1.274786E-16
4.330000E+03	2.872649E-15	1.289764E-16
4.340000E+03	2.908780E-15	1.304771E-16
4.350000E+03	2.945003E-15	1.319786E-16
4.360000E+03	2.981172E-15	1.334743E-16
4.370000E+03	3.017183E-15	1.349595E-16
4.380000E+03	3.052937E-15	1.364299E-16
4.390000E+03	3.088336E-15	1.378810E-16
4.400000E+03	3.123344E-15	1.393113E-16
4.410000E+03	3.157834E-15	1.407151E-16
4.420000E+03	3.191738E-15	1.420896E-16
4.430000E+03	3.225039E-15	1.434340E-16
4.440000E+03	3.257621E-15	1.447432E-16
4.450000E+03	3.289514E-15	1.460187E-16
4.460000E+03	3.320599E-15	1.472552E-16
4.470000E+03	3.350897E-15	1.484538E-16
4.480000E+03	3.380321E-15	1.496108E-16
4.490000E+03	3.408835E-15	1.507245E-16
4.500000E+03	3.436390E-15	1.517931E-16
4.510000E+03	3.462985E-15	1.528165E-16
4.520000E+03	3.488468E-15	1.537881E-16
4.530000E+03	3.512875E-15	1.547098E-16
4.540000E+03	3.536097E-15	1.555768E-16
4.550000E+03	3.558119E-15	1.563887E-16
4.560000E+03	3.578880E-15	1.571428E-16
4.570000E+03	3.598316E-15	1.578365E-16
4.580000E+03	3.616370E-15	1.584676E-16
4.590000E+03	3.633034E-15	1.590359E-16
4.600000E+03	3.648260E-15	1.595393E-16
4.610000E+03	3.662005E-15	1.599763E-16
4.620000E+03	3.674233E-15	1.603455E-16
4.630000E+03	3.685014E-15	1.606501E-16
4.640000E+03	3.694236E-15	1.608854E-16
4.650000E+03	3.701986E-15	1.610555E-16
4.660000E+03	3.708269E-15	1.611608E-16
4.670000E+03	3.713097E-15	1.612018E-16
4.680000E+03	3.716496E-15	1.611801E-16
4.690000E+03	3.718501E-15	1.610973E-16
4.700000E+03	3.719250E-15	1.609595E-16
4.710000E+03	3.718701E-15	1.607653E-16
4.720000E+03	3.717013E-15	1.605214E-16
4.730000E+03	3.714163E-15	1.602272E-16
4.740000E+03	3.710362E-15	1.598919E-16
4.750000E+03	3.705602E-15	1.595153E-16
4.760000E+03	3.699972E-15	1.591013E-16
4.770000E+03	3.693604E-15	1.586558E-16
4.780000E+03	3.686634E-15	1.581847E-16
4.790000E+03	3.679113E-15	1.576902E-16
4.800000E+03	3.671131E-15	1.571764E-16
4.810000E+03	3.662868E-15	1.566509E-16
4.820000E+03	3.654414E-15	1.561177E-16
4.830000E+03	3.645814E-15	1.555787E-16
4.840000E+03	3.637237E-15	1.550412E-16
4.850000E+03	3.628767E-15	1.545087E-16
4.860000E+03	3.620480E-15	1.539844E-16
4.870000E+03	3.612494E-15	1.534734E-16
4.880000E+03	3.604877E-15	1.529784E-16
4.890000E+03	3.597741E-15	1.525043E-16
4.900000E+03	3.591105E-15	1.520517E-16
4.910000E+03	3.585115E-15	1.516267E-16
4.920000E+03	3.579784E-15	1.512299E-16
4.930000E+03	3.575169E-15	1.508634E-16
4.940000E+03	3.571401E-15	1.505328E-16
4.950000E+03	3.568450E-15	1.502367E-16
4.960000E+03	3.566443E-15	1.499803E-16
4.970000E+03	3.565427E-15	1.497654E-16
4.980000E+03	3.565404E-15	1.495920E-16
4.990000E+03	3.566454E-15	1.494633E-16
5.000000E+03	3.568617E-15	1.493808E-16
5.010000E+03	3.571929E-15	1.493459E-16
5.020000E+03	3.576464E-15	1.493615E-16
5.030000E+03	3.582211E-15	1.494270E-16
5.040000E+03	3.589198E-15	1.495433E-16
5.050000E+03	3.597525E-15	1.497145E-16
5.060000E+03	3.607090E-15	1.499361E-16
5.070000E+03	3.618023E-15	1.502133E-16
5.080000E+03	3.630287E-15	1.505445E-16
5.090000E+03	3.643840E-15	1.509276E-16
5.100000E+03	3.658707E-15	1.513635E-16
5.110000E+03	3.674907E-15	1.518529E-16
5.120000E+03	3.692329E-15	1.523909E-16
5.130000E+03	3.710967E-15	1.529772E-16
5.140000E+03	3.730807E-15	1.536109E-16
5.150000E+03	3.751703E-15	1.542859E-16
5.160000E+03	3.773654E-15	1.550020E-16
5.170000E+03	3.796525E-15	1.557536E-16
5.180000E+03	3.820211E-15	1.565361E-16
5.190000E+03	3.844593E-15	1.573447E-16
5.200000E+03	3.869535E-15	1.581735E-16
5.210000E+03	3.894933E-15	1.590185E-16
5.220000E+03	3.920548E-15	1.598696E-16
5.230000E+03	3.946293E-15	1.607234E-16
5.240000E+03	3.971947E-15	1.615708E-16
5.250000E+03	3.997323E-15	1.624043E-16
5.260000E+03	4.022183E-15	1.632143E-16
5.270000E+03	4.046412E-15	1.639962E-16
5.280000E+03	4.069765E-15	1.647402E-16
5.290000E+03	4.092038E-15	1.654381E-16
5.300000E+03	4.112986E-15	1.660803E-16
5.310000E+03	4.132452E-15	1.666606E-16
5.320000E+03	4.150292E-15	1.671735E-16
5.330000E+03	4.166236E-15	1.676084E-16
5.340000E+03	4.180116E-15	1.679587E-16
5.350000E+03	4.191823E-15	1.682205E-16
5.360000E+03	4.201219E-15	1.683886E-16
5.370000E+03	4.208190E-15	1.684587E-16
5.380000E+03	4.212555E-15	1.684241E-16
5.390000E+03	4.214336E-15	1.682859E-16
5.400000E+03	4.213486E-15	1.680427E-16
5.410000E+03	4.209949E-15	1.676927E-16
5.420000E+03	4.203695E-15	1.672351E-16
5.430000E+03	4.194848E-15	1.666753E-16
5.440000E+03	4.183434E-15	1.660146E-16
5.450000E+03	4.169548E-15	1.652573E-16
5.460000E+03	4.153263E-15	1.644066E-16
5.470000E+03	4.134761E-15	1.634700E-16
5.480000E+03	4.114148E-15	1.624522E-16
5.490000E+03	4.091631E-15	1.613615E-16
5.500000E+03	4.067371E-15	1.602046E-16
5.510000E+03	4.041494E-15	1.589868E-16
5.520000E+03	4.014169E-15	1.577149E-16
5.530000E+03	3.985610E-15	1.563975E-16
5.540000E+03	3.955998E-15	1.550419E-16
5.550000E+03	3.925489E-15	1.536542E-16
5.560000E+03	3.894285E-15	1.522427E-16
5.570000E+03	3.862679E-15	1.508187E-16
5.580000E+03	3.830815E-15	1.493880E-16
5.590000E+03	3.798961E-15	1.479611E-16
5.600000E+03	3.767349E-15	1.465468E-16
5.610000E+03	3.736175E-15	1.451530E-16
5.620000E+03	3.705744E-15	1.437912E-16
5.630000E+03	3.676247E-15	1.424688E-16
5.640000E+03	3.647902E-15	1.411941E-16
5.650000E+03	3.620917E-15	1.399749E-16
5.660000E+03	3.595490E-15	1.388187E-16
5.670000E+03	3.571805E-15	1.377324E-16
5.680000E+03	3.550026E-15	1.367220E-16
5.690000E+03	3.530268E-15	1.357918E-16
5.700000E+03	3.512733E-15	1.349490E-16
5.710000E+03	3.497459E-15	1.341949E-16
5.720000E+03	3.484571E-15	1.335340E-16
5.730000E+03	3.474104E-15	1.329672E-16
5.740000E+03	3.466141E-15	1.324974E-16
5.750000E+03	3.460672E-15	1.321238E-16
5.760000E+03	3.457702E-15	1.318463E-16
5.770000E+03	3.457250E-15	1.316653E-16
5.780000E+03	3.459244E-15	1.315776E-16
5.790000E+03	3.463593E-15	1.315795E-16
5.800000E+03	3.470257E-15	1.316691E-16
5.810000E+03	3.479142E-15	1.318425E-16
5.820000E+03	3.490104E-15	1.320940E-16
5.830000E+03	3.503052E-15	1.324199E-16
5.840000E+03	3.517812E-15	1.328133E-16
5.850000E+03	3.534203E-15	1.332671E-16
5.860000E+03	3.552130E-15	1.337776E-16
5.870000E+03	3.571394E-15	1.343370E-16
5.880000E+03	3.591788E-15	1.349375E-16
5.890000E+03	3.613138E-15	1.355723E-16
5.900000E+03	3.635303E-15	1.362360E-16
5.910000E+03	3.658076E-15	1.369209E-16
5.920000E+03	3.681291E-15	1.376205E-16
5.930000E+03	3.704784E-15	1.383288E-16
5.940000E+03	3.728370E-15	1.390389E-16
5.950000E+03	3.751943E-15	1.397468E-16
5.960000E+03	3.775376E-15	1.404477E-16
5.970000E+03	3.798517E-15	1.411361E-16
5.980000E+03	3.821227E-15	1.418070E-16
5.990000E+03	3.843533E-15	1.424613E-16
6.000000E+03	3.865254E-15	1.430924E-16
6.010000E+03	3.886332E-15	1.436983E-16
6.020000E+03	3.906799E-15	1.442803E-16
6.030000E+03	3.926591E-15	1.448361E-16
6.040000E+03	3.945650E-15	1.453637E-16
6.050000E+03	3.963966E-15	1.458628E-16
6.060000E+03	3.981615E-15	1.463365E-16
6.070000E+03	3.998488E-15	1.467807E-16
6.080000E+03	4.014668E-15	1.471987E-16
6.090000E+03	4.030166E-15	1.475909E-16
6.100000E+03	4.044915E-15	1.479550E-16
6.110000E+03	4.058998E-15	1.482943E-16
6.120000E+03	4.072340E-15	1.486059E-16
6.130000E+03	4.084978E-15	1.488915E-16
6.140000E+03	4.096863E-15	1.491494E-16
6.150000E+03	4.107940E-15	1.493776E-16
6.160000E+03	4.118182E-15	1.495754E-16
6.170000E+03	4.127559E-15	1.497417E-16
6.180000E+03	4.135949E-15	1.498722E-16
6.190000E+03	4.143344E-15	1.499670E-16
6.200000E+03	4.149651E-15	1.500226E-16
6.210000E+03	4.154931E-15	1.500416E-16
6.220000E+03	4.159084E-15	1.500203E-16
6.230000E+03	4.162125E-15	1.499596E-16
6.240000E+03	4.163989E-15	1.498572E-16
6.250000E+03	4.164611E-15	1.497110E-16
6.260000E+03	4.163971E-15	1.495205E-16
6.270000E+03	4.162011E-15	1.492837E-16
6.280000E+03	4.158674E-15	1.489987E-16
6.290000E+03	4.153914E-15	1.486642E-16
6.300000E+03	4.147769E-15	1.482816E-16
6.310000E+03	4.140124E-15	1.478470E-16
6.320000E+03	4.131032E-15	1.473625E-16
6.330000E+03	4.120431E-15	1.468261E-16
6.340000E+03	4.108351E-15	1.462390E-16
6.350000E+03	4.094825E-15	1.456027E-16
6.360000E+03	4.079772E-15	1.449143E-16
6.370000E+03	4.063279E-15	1.441772E-16
6.380000E+03	4.045317E-15	1.433905E-16
6.390000E+03	4.025983E-15	1.425577E-16
6.400000E+03	4.005255E-15	1.416784E-16
6.410000E+03	3.983194E-15	1.407548E-16
6.420000E+03	3.959787E-15	1.397866E-16
6.430000E+03	3.935098E-15	1.387761E-16
6.440000E+03	3.909195E-15	1.377260E-16
6.450000E+03	3.882067E-15	1.366359E-16
6.460000E+03	3.853740E-15	1.355069E-16
6.470000E+03	3.824323E-15	1.343429E-16
6.480000E+03	3.793767E-15	1.331423E-16
6.490000E+03	3.762140E-15	1.319075E-16
6.500000E+03	3.729510E-15	1.306410E-16
6.510000E+03	3.695911E-15	1.293439E-16
6.520000E+03	3.661375E-15	1.280174E-16
6.530000E+03	3.625903E-15	1.266617E-16
6.540000E+03	3.589656E-15	1.252824E-16
6.550000E+03	3.552573E-15	1.238773E-16
6.560000E+03	3.514830E-15	1.224526E-16
6.570000E+03	3.476418E-15	1.210081E-16
6.580000E+03	3.437482E-15	1.195487E-16
6.590000E+03	3.398057E-15	1.180758E-16
6.600000E+03	3.358261E-15	1.165933E-16
6.610000E+03	3.318142E-15	1.151029E-16
6.620000E+03	3.277820E-15	1.136088E-16
6.630000E+03	3.237392E-15	1.121143E-16
6.640000E+03	3.196917E-15	1.106213E-16
6.650000E+03	3.156566E-15	1.091359E-16
6.660000E+03	3.116407E-15	1.076602E-16
6.670000E+03	3.076547E-15	1.061979E-16
6.680000E+03	3.037093E-15	1.047526E-16
6.690000E+03	2.998185E-15	1.033291E-16
6.700000E+03	2.959899E-15	1.019299E-16
6.710000E+03	2.922374E-15	1.005597E-16
6.720000E+03	2.885679E-15	9.922073E-17
6.730000E+03	2.849950E-15	9.791758E-17
6.740000E+03	2.815284E-15	9.665349E-17
6.750000E+03	2.781772E-15	9.543149E-17
6.760000E+03	2.749472E-15	9.425338E-17
6.770000E+03	2.718496E-15	9.312295E-17
6.780000E+03	2.688953E-15	9.204373E-17
6.790000E+03	2.660851E-15	9.101590E-17
6.800000E+03	2.634285E-15	9.004254E-17
6.810000E+03	2.609341E-15	8.912650E-17
6.820000E+03	2.586010E-15	8.826732E-17
6.830000E+03	2.564397E-15	8.746839E-17
6.840000E+03	2.544507E-15	8.672981E-17
6.850000E+03	2.526373E-15	8.605254E-17
6.860000E+03	2.510047E-15	8.543818E-17
6.870000E+03	2.495520E-15	8.488630E-17
6.880000E+03	2.482803E-15	8.439717E-17
6.890000E+03	2.471902E-15	8.397083E-17
6.900000E+03	2.462847E-15	8.360816E-17
6.910000E+03	2.455604E-15	8.330788E-17
6.920000E+03	2.450162E-15	8.306950E-17
6.930000E+03	2.446536E-15	8.289341E-17
6.940000E+03	2.444675E-15	8.277773E-17
6.950000E+03	2.444554E-15	8.272154E-17
6.960000E+03	2.446143E-15	8.272368E-17
6.970000E+03	2.449436E-15	8.278384E-17
6.980000E+03	2.454366E-15	8.289965E-17
6.990000E+03	2.460885E-15	8.306943E-17
7.000000E+03	2.468947E-15	8.329152E-17
7.010000E+03	2.478498E-15	8.356397E-17
7.020000E+03	2.489480E-15	8.388477E-17
7.030000E+03	2.501829E-15	8.425171E-17
7.040000E+03	2.515446E-15	8.466138E-17
7.050000E+03	2.530320E-15	8.511332E-17
7.060000E+03	2.546311E-15	8.560281E-17
7.070000E+03	2.563364E-15	8.612787E-17
7.080000E+03	2.581390E-15	8.668557E-17
7.090000E+03	2.600262E-15	8.727153E-17
7.100000E+03	2.619878E-15	8.788233E-17
7.110000E+03	2.640160E-15	8.851533E-17
7.120000E+03	2.660962E-15	8.916563E-17
7.130000E+03	2.682165E-15	8.982922E-17
7.140000E+03	2.703641E-15	9.050183E-17
7.150000E+03	2.725260E-15	9.117911E-17
7.160000E+03	2.746887E-15	9.185655E-17
7.170000E+03	2.768381E-15	9.252946E-17
7.180000E+03	2.789564E-15	9.319197E-17
7.190000E+03	2.810326E-15	9.384041E-17
7.200000E+03	2.830524E-15	9.447003E-17
7.210000E+03	2.849941E-15	9.507369E-17
7.220000E+03	2.868507E-15	9.564906E-17
7.230000E+03	2.886049E-15	9.619050E-17
7.240000E+03	2.902471E-15	9.669488E-17
7.250000E+03	2.917583E-15	9.715589E-17
7.260000E+03	2.931306E-15	9.757105E-17
7.270000E+03	2.943543E-15	9.793716E-17
7.280000E+03	2.954212E-15	9.825160E-17
7.290000E+03	2.963207E-15	9.851093E-17
7.300000E+03	2.970515E-15	9.871486E-17
7.310000E+03	2.976074E-15	9.886132E-17
7.320000E+03	2.979909E-15	9.895131E-17
7.330000E+03	2.981997E-15	9.898414E-17
7.340000E+03	2.982412E-15	9.896230E-17
7.350000E+03	2.981173E-15	9.888655E-17
7.360000E+03	2.978359E-15	9.875955E-17
7.370000E+03	2.974105E-15	9.858589E-17
7.380000E+03	2.968497E-15	9.836843E-17
7.390000E+03	2.961670E-15	9.811173E-17
7.400000E+03	2.953856E-15	9.782347E-17
7.410000E+03	2.945108E-15	9.750552E-17
7.420000E+03	2.935720E-15	9.716764E-17
7.430000E+03	2.925809E-15	9.681369E-17
7.440000E+03	2.915610E-15	9.645146E-17
7.450000E+03	2.905361E-15	9.608889E-17
7.460000E+03	2.895233E-15	9.573159E-17
7.470000E+03	2.885389E-15	9.538501E-17
7.480000E+03	2.876035E-15	9.505594E-17
7.490000E+03	2.867404E-15	9.475208E-17
7.500000E+03	2.859649E-15	9.447846E-17
7.510000E+03	2.852954E-15	9.424118E-17
7.520000E+03	2.847485E-15	9.404576E-17
7.530000E+03	2.843405E-15	9.389748E-17
7.540000E+03	2.840817E-15	9.379983E-17
7.550000E+03	2.839924E-15	9.375949E-17
7.560000E+03	2.840762E-15	9.377765E-17
7.570000E+03	2.843424E-15	9.385735E-17
7.580000E+03	2.848055E-15	9.400345E-17
7.590000E+03	2.854634E-15	9.421524E-17
7.600000E+03	2.863227E-15	9.449492E-17
7.610000E+03	2.873803E-15	9.484156E-17
7.620000E+03	2.886384E-15	9.525584E-17
7.630000E+03	2.900926E-15	9.573641E-17
7.640000E+03	2.917326E-15	9.627993E-17
7.650000E+03	2.935532E-15	9.688468E-17
7.660000E+03	2.955422E-15	9.754680E-17
7.670000E+03	2.976855E-15	9.826160E-17
7.680000E+03	2.999621E-15	9.902230E-17
7.690000E+03	3.023602E-15	9.982510E-17
7.700000E+03	3.048501E-15	1.006602E-16
7.710000E+03	3.074114E-15	1.015211E-16
7.720000E+03	3.100175E-15	1.023989E-16
7.730000E+03	3.126357E-15	1.032830E-16
7.740000E+03	3.152441E-15	1.041663E-16
7.750000E+03	3.178068E-15	1.050370E-16
7.760000E+03	3.202909E-15	1.058842E-16
