#wls	flux	fluxerr
1.600000E+03	3.688779E-16	1.694803E-17
1.640000E+03	3.747058E-16	1.720814E-17
1.680000E+03	3.807024E-16	1.747555E-17
1.720000E+03	3.868631E-16	1.775002E-17
1.760000E+03	3.931826E-16	1.803128E-17
1.800000E+03	3.996544E-16	1.831901E-17
1.840000E+03	4.063439E-16	1.861618E-17
1.880000E+03	4.132449E-16	1.892247E-17
1.920000E+03	4.202744E-16	1.923405E-17
1.960000E+03	4.275722E-16	1.955729E-17
2.000000E+03	4.350531E-16	1.988825E-17
2.040000E+03	4.427816E-16	2.022984E-17
2.080000E+03	4.507451E-16	2.058145E-17
2.120000E+03	4.589288E-16	2.094236E-17
2.160000E+03	4.673954E-16	2.131539E-17
2.200000E+03	4.761272E-16	2.169968E-17
2.240000E+03	4.851039E-16	2.209426E-17
2.280000E+03	4.943019E-16	2.249800E-17
2.320000E+03	5.038593E-16	2.291714E-17
2.360000E+03	5.136663E-16	2.334663E-17
2.400000E+03	5.237745E-16	2.378876E-17
2.440000E+03	5.341490E-16	2.424187E-17
2.480000E+03	5.449192E-16	2.471179E-17
2.520000E+03	5.560438E-16	2.519655E-17
2.560000E+03	5.674770E-16	2.569402E-17
2.600000E+03	5.793365E-16	2.620945E-17
2.640000E+03	5.915672E-16	2.674026E-17
2.680000E+03	6.041928E-16	2.728744E-17
2.720000E+03	6.172313E-16	2.785171E-17
2.760000E+03	6.307785E-16	2.843730E-17
2.800000E+03	6.448389E-16	2.904430E-17
2.840000E+03	6.593268E-16	2.966875E-17
2.880000E+03	6.744812E-16	3.032128E-17
2.920000E+03	6.901995E-16	3.099715E-17
2.960000E+03	7.065362E-16	3.169866E-17
3.000000E+03	7.236154E-16	3.243126E-17
3.010000E+03	7.279939E-16	3.261891E-17
3.020000E+03	7.324437E-16	3.280961E-17
3.030000E+03	7.368828E-16	3.299968E-17
3.040000E+03	7.414682E-16	3.319615E-17
3.050000E+03	7.460387E-16	3.339179E-17
3.060000E+03	7.506715E-16	3.359006E-17
3.070000E+03	7.553640E-16	3.379084E-17
3.080000E+03	7.601140E-16	3.399403E-17
3.090000E+03	7.649189E-16	3.419951E-17
3.100000E+03	7.697763E-16	3.440717E-17
3.110000E+03	7.746838E-16	3.461689E-17
3.120000E+03	7.796389E-16	3.482857E-17
3.130000E+03	7.847160E-16	3.504553E-17
3.140000E+03	7.897587E-16	3.526077E-17
3.150000E+03	7.949178E-16	3.548103E-17
3.160000E+03	8.001902E-16	3.570615E-17
3.170000E+03	8.054967E-16	3.593261E-17
3.180000E+03	8.108348E-16	3.616029E-17
3.190000E+03	8.162772E-16	3.639244E-17
3.200000E+03	8.217458E-16	3.662555E-17
3.210000E+03	8.273127E-16	3.686284E-17
3.220000E+03	8.329742E-16	3.710415E-17
3.230000E+03	8.387273E-16	3.734933E-17
3.240000E+03	8.444950E-16	3.759495E-17
3.250000E+03	8.503480E-16	3.784416E-17
3.260000E+03	8.563557E-16	3.810004E-17
3.270000E+03	8.623691E-16	3.835596E-17
3.280000E+03	8.685299E-16	3.861820E-17
3.290000E+03	8.746903E-16	3.888020E-17
3.300000E+03	8.809909E-16	3.914821E-17
3.310000E+03	8.873563E-16	3.941886E-17
3.320000E+03	8.938538E-16	3.969514E-17
3.330000E+03	9.004090E-16	3.997374E-17
3.340000E+03	9.070884E-16	4.025761E-17
3.350000E+03	9.138185E-16	4.054348E-17
3.360000E+03	9.207342E-16	4.083733E-17
3.370000E+03	9.276241E-16	4.112978E-17
3.380000E+03	9.346912E-16	4.142982E-17
3.390000E+03	9.418623E-16	4.173421E-17
3.400000E+03	9.491332E-16	4.204274E-17
3.410000E+03	9.565000E-16	4.235525E-17
3.420000E+03	9.640253E-16	4.267449E-17
3.430000E+03	9.716375E-16	4.299729E-17
3.440000E+03	9.793327E-16	4.332348E-17
3.450000E+03	9.871725E-16	4.365576E-17
3.460000E+03	9.950866E-16	4.399103E-17
3.470000E+03	1.003201E-15	4.433484E-17
3.480000E+03	1.011380E-15	4.468120E-17
3.490000E+03	1.019684E-15	4.503278E-17
3.500000E+03	1.028109E-15	4.538935E-17
3.510000E+03	1.036712E-15	4.575348E-17
3.520000E+03	1.045424E-15	4.612206E-17
3.530000E+03	1.054241E-15	4.649494E-17
3.540000E+03	1.063220E-15	4.687462E-17
3.550000E+03	1.072293E-15	4.725811E-17
3.560000E+03	1.081578E-15	4.765055E-17
3.570000E+03	1.090945E-15	4.804627E-17
3.580000E+03	1.100451E-15	4.844773E-17
3.590000E+03	1.110089E-15	4.885459E-17
3.600000E+03	1.119914E-15	4.926932E-17
3.610000E+03	1.129858E-15	4.968890E-17
3.620000E+03	1.139915E-15	5.011306E-17
3.630000E+03	1.150196E-15	5.054666E-17
3.640000E+03	1.160578E-15	5.098426E-17
3.650000E+03	1.171054E-15	5.142559E-17
3.660000E+03	1.181732E-15	5.187538E-17
3.670000E+03	1.192605E-15	5.233326E-17
3.680000E+03	1.203550E-15	5.279389E-17
3.690000E+03	1.214675E-15	5.326194E-17
3.700000E+03	1.225915E-15	5.373463E-17
3.710000E+03	1.237373E-15	5.421637E-17
3.720000E+03	1.248931E-15	5.470204E-17
3.730000E+03	1.260637E-15	5.519370E-17
3.740000E+03	1.272481E-15	5.569095E-17
3.750000E+03	1.284457E-15	5.619344E-17
3.760000E+03	1.296608E-15	5.670310E-17
3.770000E+03	1.308875E-15	5.721734E-17
3.780000E+03	1.321300E-15	5.773799E-17
3.790000E+03	1.333876E-15	5.826470E-17
3.800000E+03	1.346542E-15	5.879484E-17
3.810000E+03	1.359394E-15	5.933252E-17
3.820000E+03	1.372321E-15	5.987295E-17
3.830000E+03	1.385416E-15	6.042018E-17
3.840000E+03	1.398671E-15	6.097380E-17
3.850000E+03	1.412029E-15	6.153136E-17
3.860000E+03	1.425481E-15	6.209245E-17
3.870000E+03	1.439069E-15	6.265891E-17
3.880000E+03	1.452837E-15	6.323259E-17
3.890000E+03	1.466679E-15	6.380891E-17
3.900000E+03	1.480638E-15	6.438971E-17
3.910000E+03	1.494708E-15	6.497474E-17
3.920000E+03	1.508884E-15	6.556375E-17
3.930000E+03	1.523209E-15	6.615860E-17
3.940000E+03	1.537630E-15	6.675703E-17
3.950000E+03	1.552145E-15	6.735891E-17
3.960000E+03	1.566798E-15	6.796612E-17
3.970000E+03	1.581587E-15	6.857855E-17
3.980000E+03	1.596464E-15	6.919420E-17
3.990000E+03	1.611432E-15	6.981308E-17
4.000000E+03	1.626535E-15	7.043716E-17
4.010000E+03	1.641775E-15	7.106652E-17
4.020000E+03	1.657155E-15	7.170122E-17
4.030000E+03	1.672634E-15	7.233955E-17
4.040000E+03	1.688222E-15	7.298184E-17
4.050000E+03	1.703964E-15	7.363013E-17
4.060000E+03	1.719870E-15	7.428475E-17
4.070000E+03	1.735904E-15	7.494423E-17
4.080000E+03	1.752078E-15	7.560899E-17
4.090000E+03	1.768445E-15	7.628132E-17
4.100000E+03	1.784934E-15	7.695818E-17
4.110000E+03	1.801639E-15	7.764360E-17
4.120000E+03	1.818495E-15	7.833472E-17
4.130000E+03	1.835555E-15	7.903390E-17
4.140000E+03	1.852798E-15	7.974011E-17
4.150000E+03	1.870278E-15	8.045575E-17
4.160000E+03	1.887934E-15	8.117817E-17
4.170000E+03	1.905826E-15	8.190987E-17
4.180000E+03	1.923931E-15	8.264994E-17
4.190000E+03	1.942271E-15	8.339924E-17
4.200000E+03	1.960863E-15	8.415848E-17
4.210000E+03	1.979691E-15	8.492696E-17
4.220000E+03	1.998735E-15	8.570386E-17
4.230000E+03	2.018054E-15	8.649166E-17
4.240000E+03	2.037593E-15	8.728793E-17
4.250000E+03	2.057406E-15	8.809505E-17
4.260000E+03	2.077441E-15	8.891073E-17
4.270000E+03	2.097715E-15	8.973571E-17
4.280000E+03	2.118209E-15	9.056912E-17
4.290000E+03	2.138904E-15	9.141014E-17
4.300000E+03	2.159781E-15	9.225796E-17
4.310000E+03	2.180888E-15	9.311458E-17
4.320000E+03	2.202132E-15	9.397607E-17
4.330000E+03	2.223489E-15	9.484141E-17
4.340000E+03	2.245006E-15	9.571247E-17
4.350000E+03	2.266548E-15	9.658360E-17
4.360000E+03	2.288156E-15	9.745653E-17
4.370000E+03	2.309765E-15	9.832842E-17
4.380000E+03	2.331304E-15	9.919635E-17
4.390000E+03	2.352738E-15	1.000587E-16
4.400000E+03	2.374022E-15	1.009137E-16
4.410000E+03	2.395073E-15	1.017577E-16
4.420000E+03	2.415841E-15	1.025887E-16
4.430000E+03	2.436202E-15	1.034014E-16
4.440000E+03	2.456166E-15	1.041962E-16
4.450000E+03	2.475606E-15	1.049679E-16
4.460000E+03	2.494527E-15	1.057165E-16
4.470000E+03	2.512864E-15	1.064395E-16
4.480000E+03	2.530617E-15	1.071369E-16
4.490000E+03	2.547723E-15	1.078059E-16
4.500000E+03	2.564178E-15	1.084465E-16
4.510000E+03	2.579980E-15	1.090587E-16
4.520000E+03	2.595061E-15	1.096396E-16
4.530000E+03	2.609455E-15	1.101906E-16
4.540000E+03	2.623125E-15	1.107103E-16
4.550000E+03	2.636007E-15	1.111961E-16
4.560000E+03	2.648137E-15	1.116494E-16
4.570000E+03	2.659485E-15	1.120691E-16
4.580000E+03	2.670025E-15	1.124541E-16
4.590000E+03	2.679800E-15	1.128063E-16
4.600000E+03	2.688725E-15	1.131222E-16
4.610000E+03	2.696849E-15	1.134038E-16
4.620000E+03	2.704159E-15	1.136507E-16
4.630000E+03	2.710678E-15	1.138639E-16
4.640000E+03	2.716371E-15	1.140419E-16
4.650000E+03	2.721301E-15	1.141876E-16
4.660000E+03	2.725440E-15	1.142997E-16
4.670000E+03	2.728798E-15	1.143788E-16
4.680000E+03	2.731450E-15	1.144279E-16
4.690000E+03	2.733351E-15	1.144454E-16
4.700000E+03	2.734551E-15	1.144332E-16
4.710000E+03	2.735077E-15	1.143928E-16
4.720000E+03	2.734895E-15	1.143225E-16
4.730000E+03	2.734067E-15	1.142251E-16
4.740000E+03	2.732569E-15	1.140996E-16
4.750000E+03	2.730437E-15	1.139475E-16
4.760000E+03	2.727650E-15	1.137682E-16
4.770000E+03	2.724254E-15	1.135634E-16
4.780000E+03	2.720321E-15	1.133363E-16
4.790000E+03	2.715838E-15	1.130863E-16
4.800000E+03	2.710911E-15	1.128178E-16
4.810000E+03	2.705614E-15	1.125341E-16
4.820000E+03	2.700023E-15	1.122383E-16
4.830000E+03	2.694212E-15	1.119335E-16
4.840000E+03	2.688281E-15	1.116238E-16
4.850000E+03	2.682274E-15	1.113111E-16
4.860000E+03	2.676286E-15	1.109993E-16
4.870000E+03	2.670357E-15	1.106902E-16
4.880000E+03	2.664549E-15	1.103862E-16
4.890000E+03	2.658869E-15	1.100876E-16
4.900000E+03	2.653406E-15	1.097982E-16
4.910000E+03	2.648160E-15	1.095179E-16
4.920000E+03	2.643186E-15	1.092490E-16
4.930000E+03	2.638511E-15	1.089925E-16
4.940000E+03	2.634154E-15	1.087492E-16
4.950000E+03	2.630164E-15	1.085212E-16
4.960000E+03	2.626528E-15	1.083079E-16
4.970000E+03	2.623288E-15	1.081109E-16
4.980000E+03	2.620427E-15	1.079296E-16
4.990000E+03	2.618008E-15	1.077665E-16
5.000000E+03	2.616006E-15	1.076205E-16
5.010000E+03	2.614425E-15	1.074919E-16
5.020000E+03	2.613287E-15	1.073814E-16
5.030000E+03	2.612560E-15	1.072878E-16
5.040000E+03	2.612262E-15	1.072117E-16
5.050000E+03	2.612408E-15	1.071537E-16
5.060000E+03	2.612926E-15	1.071108E-16
5.070000E+03	2.613848E-15	1.070845E-16
5.080000E+03	2.615127E-15	1.070725E-16
5.090000E+03	2.616759E-15	1.070748E-16
5.100000E+03	2.618685E-15	1.070890E-16
5.110000E+03	2.620897E-15	1.071147E-16
5.120000E+03	2.623382E-15	1.071514E-16
5.130000E+03	2.626044E-15	1.071950E-16
5.140000E+03	2.628889E-15	1.072459E-16
5.150000E+03	2.631840E-15	1.073010E-16
5.160000E+03	2.634846E-15	1.073580E-16
5.170000E+03	2.637875E-15	1.074157E-16
5.180000E+03	2.640843E-15	1.074707E-16
5.190000E+03	2.643714E-15	1.075215E-16
5.200000E+03	2.646401E-15	1.075647E-16
5.210000E+03	2.648864E-15	1.075985E-16
5.220000E+03	2.651038E-15	1.076205E-16
5.230000E+03	2.652834E-15	1.076268E-16
5.240000E+03	2.654209E-15	1.076160E-16
5.250000E+03	2.655099E-15	1.075855E-16
5.260000E+03	2.655414E-15	1.075315E-16
5.270000E+03	2.655093E-15	1.074517E-16
5.280000E+03	2.654104E-15	1.073449E-16
5.290000E+03	2.652390E-15	1.072087E-16
5.300000E+03	2.649873E-15	1.070402E-16
5.310000E+03	2.646505E-15	1.068374E-16
5.320000E+03	2.642242E-15	1.065986E-16
5.330000E+03	2.637051E-15	1.063226E-16
5.340000E+03	2.630898E-15	1.060081E-16
5.350000E+03	2.623758E-15	1.056540E-16
5.360000E+03	2.615589E-15	1.052590E-16
5.370000E+03	2.606407E-15	1.048235E-16
5.380000E+03	2.596181E-15	1.043466E-16
5.390000E+03	2.584917E-15	1.038285E-16
5.400000E+03	2.572626E-15	1.032697E-16
5.410000E+03	2.559302E-15	1.026700E-16
5.420000E+03	2.544997E-15	1.020318E-16
5.430000E+03	2.529721E-15	1.013553E-16
5.440000E+03	2.513514E-15	1.006423E-16
5.450000E+03	2.496396E-15	9.989369E-17
5.460000E+03	2.478421E-15	9.911170E-17
5.470000E+03	2.459600E-15	9.829681E-17
5.480000E+03	2.439972E-15	9.745064E-17
5.490000E+03	2.419532E-15	9.657310E-17
5.500000E+03	2.398336E-15	9.566641E-17
5.510000E+03	2.376581E-15	9.473855E-17
5.520000E+03	2.354396E-15	9.379469E-17
5.530000E+03	2.331886E-15	9.283900E-17
5.540000E+03	2.309180E-15	9.187666E-17
5.550000E+03	2.286361E-15	9.091097E-17
5.560000E+03	2.263511E-15	8.994522E-17
5.570000E+03	2.240734E-15	8.898357E-17
5.580000E+03	2.218112E-15	8.802922E-17
5.590000E+03	2.195705E-15	8.708452E-17
5.600000E+03	2.173635E-15	8.615434E-17
5.610000E+03	2.151957E-15	8.524085E-17
5.620000E+03	2.130748E-15	8.434699E-17
5.630000E+03	2.110122E-15	8.347729E-17
5.640000E+03	2.090105E-15	8.263276E-17
5.650000E+03	2.070766E-15	8.181600E-17
5.660000E+03	2.052228E-15	8.103188E-17
5.670000E+03	2.034489E-15	8.028020E-17
5.680000E+03	2.017621E-15	7.956384E-17
5.690000E+03	2.001697E-15	7.888553E-17
5.700000E+03	1.986763E-15	7.824701E-17
5.710000E+03	1.972838E-15	7.764899E-17
5.720000E+03	1.959980E-15	7.709366E-17
5.730000E+03	1.948221E-15	7.658224E-17
5.740000E+03	1.937589E-15	7.611566E-17
5.750000E+03	1.928088E-15	7.569405E-17
5.760000E+03	1.919774E-15	7.531954E-17
5.770000E+03	1.912644E-15	7.499188E-17
5.780000E+03	1.906690E-15	7.471069E-17
5.790000E+03	1.901955E-15	7.447758E-17
5.800000E+03	1.898425E-15	7.429188E-17
5.810000E+03	1.896098E-15	7.415344E-17
5.820000E+03	1.894971E-15	7.406204E-17
5.830000E+03	1.895054E-15	7.401799E-17
5.840000E+03	1.896299E-15	7.401936E-17
5.850000E+03	1.898731E-15	7.406698E-17
5.860000E+03	1.902294E-15	7.415864E-17
5.870000E+03	1.907008E-15	7.429502E-17
5.880000E+03	1.912813E-15	7.447366E-17
5.890000E+03	1.919703E-15	7.469431E-17
5.900000E+03	1.927653E-15	7.495586E-17
5.910000E+03	1.936631E-15	7.525703E-17
5.920000E+03	1.946587E-15	7.559581E-17
5.930000E+03	1.957488E-15	7.597080E-17
5.940000E+03	1.969316E-15	7.638130E-17
5.950000E+03	1.982013E-15	7.682495E-17
5.960000E+03	1.995536E-15	7.730004E-17
5.970000E+03	2.009823E-15	7.780413E-17
5.980000E+03	2.024845E-15	7.833601E-17
5.990000E+03	2.040536E-15	7.889307E-17
6.000000E+03	2.056839E-15	7.947313E-17
6.010000E+03	2.073699E-15	8.007400E-17
6.020000E+03	2.091040E-15	8.069267E-17
6.030000E+03	2.108817E-15	8.132742E-17
6.040000E+03	2.126924E-15	8.197411E-17
6.050000E+03	2.145312E-15	8.263087E-17
6.060000E+03	2.163865E-15	8.329317E-17
6.070000E+03	2.182527E-15	8.395888E-17
6.080000E+03	2.201218E-15	8.462491E-17
6.090000E+03	2.219785E-15	8.528544E-17
6.100000E+03	2.238187E-15	8.593884E-17
6.110000E+03	2.256284E-15	8.657979E-17
6.120000E+03	2.273959E-15	8.720381E-17
6.130000E+03	2.291113E-15	8.780718E-17
6.140000E+03	2.307620E-15	8.838510E-17
6.150000E+03	2.323354E-15	8.893281E-17
6.160000E+03	2.338188E-15	8.944546E-17
6.170000E+03	2.352014E-15	8.991910E-17
6.180000E+03	2.364752E-15	9.035063E-17
6.190000E+03	2.376249E-15	9.073440E-17
6.200000E+03	2.386429E-15	9.106753E-17
6.210000E+03	2.395218E-15	9.134732E-17
6.220000E+03	2.402548E-15	9.157132E-17
6.230000E+03	2.408333E-15	9.173629E-17
6.240000E+03	2.412516E-15	9.184020E-17
6.250000E+03	2.415050E-15	9.188142E-17
6.260000E+03	2.415873E-15	9.185767E-17
6.270000E+03	2.414930E-15	9.176700E-17
6.280000E+03	2.412229E-15	9.160984E-17
6.290000E+03	2.407738E-15	9.138509E-17
6.300000E+03	2.401412E-15	9.109118E-17
6.310000E+03	2.393271E-15	9.072895E-17
6.320000E+03	2.383317E-15	9.029866E-17
6.330000E+03	2.371570E-15	8.980118E-17
6.340000E+03	2.358060E-15	8.923776E-17
6.350000E+03	2.342831E-15	8.861018E-17
6.360000E+03	2.325963E-15	8.792154E-17
6.370000E+03	2.307500E-15	8.717365E-17
6.380000E+03	2.287541E-15	8.637037E-17
6.390000E+03	2.266128E-15	8.551336E-17
6.400000E+03	2.243406E-15	8.460816E-17
6.410000E+03	2.219431E-15	8.365698E-17
6.420000E+03	2.194361E-15	8.266588E-17
6.430000E+03	2.168268E-15	8.163757E-17
6.440000E+03	2.141272E-15	8.057665E-17
6.450000E+03	2.113494E-15	7.948778E-17
6.460000E+03	2.085084E-15	7.837655E-17
6.470000E+03	2.056118E-15	7.724590E-17
6.480000E+03	2.026720E-15	7.610048E-17
6.490000E+03	1.997028E-15	7.494554E-17
6.500000E+03	1.967117E-15	7.378382E-17
6.510000E+03	1.937135E-15	7.262089E-17
6.520000E+03	1.907142E-15	7.145899E-17
6.530000E+03	1.877292E-15	7.030387E-17
6.540000E+03	1.847624E-15	6.915702E-17
6.550000E+03	1.818246E-15	6.802234E-17
6.560000E+03	1.789230E-15	6.690264E-17
6.570000E+03	1.760611E-15	6.579904E-17
6.580000E+03	1.732468E-15	6.471458E-17
6.590000E+03	1.704840E-15	6.365062E-17
6.600000E+03	1.677780E-15	6.260907E-17
6.610000E+03	1.651315E-15	6.159097E-17
6.620000E+03	1.625472E-15	6.059720E-17
6.630000E+03	1.600309E-15	5.962996E-17
6.640000E+03	1.575829E-15	5.868923E-17
6.650000E+03	1.552066E-15	5.777627E-17
6.660000E+03	1.529034E-15	5.689160E-17
6.670000E+03	1.506766E-15	5.603629E-17
6.680000E+03	1.485254E-15	5.521006E-17
6.690000E+03	1.464544E-15	5.441458E-17
6.700000E+03	1.444642E-15	5.364998E-17
6.710000E+03	1.425556E-15	5.291652E-17
6.720000E+03	1.407273E-15	5.221370E-17
6.730000E+03	1.389831E-15	5.154286E-17
6.740000E+03	1.373232E-15	5.090402E-17
6.750000E+03	1.357462E-15	5.029663E-17
6.760000E+03	1.342554E-15	4.972183E-17
6.770000E+03	1.328474E-15	4.917833E-17
6.780000E+03	1.315255E-15	4.866729E-17
6.790000E+03	1.302876E-15	4.818793E-17
6.800000E+03	1.291351E-15	4.774067E-17
6.810000E+03	1.280675E-15	4.732532E-17
6.820000E+03	1.270843E-15	4.694163E-17
6.830000E+03	1.261835E-15	4.658883E-17
6.840000E+03	1.253675E-15	4.626775E-17
6.850000E+03	1.246340E-15	4.597751E-17
6.860000E+03	1.239824E-15	4.571783E-17
6.870000E+03	1.234118E-15	4.548834E-17
6.880000E+03	1.229227E-15	4.528922E-17
6.890000E+03	1.225129E-15	4.511959E-17
6.900000E+03	1.221829E-15	4.497958E-17
6.910000E+03	1.219299E-15	4.486816E-17
6.920000E+03	1.217547E-15	4.478556E-17
6.930000E+03	1.216543E-15	4.473067E-17
6.940000E+03	1.216293E-15	4.470365E-17
6.950000E+03	1.216767E-15	4.470339E-17
6.960000E+03	1.217968E-15	4.472996E-17
6.970000E+03	1.219883E-15	4.478281E-17
6.980000E+03	1.222482E-15	4.486089E-17
6.990000E+03	1.225765E-15	4.496414E-17
7.000000E+03	1.229717E-15	4.509197E-17
7.010000E+03	1.234307E-15	4.524321E-17
7.020000E+03	1.239518E-15	4.541724E-17
7.030000E+03	1.245348E-15	4.561394E-17
7.040000E+03	1.251779E-15	4.583265E-17
7.050000E+03	1.258760E-15	4.607148E-17
7.060000E+03	1.266321E-15	4.633149E-17
7.070000E+03	1.274392E-15	4.661013E-17
7.080000E+03	1.282986E-15	4.690783E-17
7.090000E+03	1.292064E-15	4.722320E-17
7.100000E+03	1.301605E-15	4.755539E-17
7.110000E+03	1.311586E-15	4.790360E-17
7.120000E+03	1.321985E-15	4.826697E-17
7.130000E+03	1.332758E-15	4.864397E-17
7.140000E+03	1.343919E-15	4.903499E-17
7.150000E+03	1.355407E-15	4.943790E-17
7.160000E+03	1.367215E-15	4.985238E-17
7.170000E+03	1.379285E-15	5.027629E-17
7.180000E+03	1.391641E-15	5.071060E-17
7.190000E+03	1.404208E-15	5.115246E-17
7.200000E+03	1.416978E-15	5.160167E-17
7.210000E+03	1.429927E-15	5.205731E-17
7.220000E+03	1.443013E-15	5.251788E-17
7.230000E+03	1.456229E-15	5.298311E-17
7.240000E+03	1.469535E-15	5.345158E-17
7.250000E+03	1.482911E-15	5.392252E-17
7.260000E+03	1.496333E-15	5.439512E-17
7.270000E+03	1.509764E-15	5.486799E-17
7.280000E+03	1.523184E-15	5.534047E-17
7.290000E+03	1.536577E-15	5.581194E-17
7.300000E+03	1.549907E-15	5.628111E-17
7.310000E+03	1.563159E-15	5.674748E-17
7.320000E+03	1.576321E-15	5.721061E-17
7.330000E+03	1.589341E-15	5.766864E-17
7.340000E+03	1.602250E-15	5.812271E-17
7.350000E+03	1.614979E-15	5.857031E-17
7.360000E+03	1.627522E-15	5.901120E-17
7.370000E+03	1.639873E-15	5.944529E-17
7.380000E+03	1.651986E-15	5.987086E-17
7.390000E+03	1.663883E-15	6.028872E-17
7.400000E+03	1.675518E-15	6.069722E-17
7.410000E+03	1.686891E-15	6.109644E-17
7.420000E+03	1.697962E-15	6.148485E-17
7.430000E+03	1.708731E-15	6.186255E-17
7.440000E+03	1.719202E-15	6.222968E-17
7.450000E+03	1.729398E-15	6.258711E-17
7.460000E+03	1.739327E-15	6.293508E-17
7.470000E+03	1.749036E-15	6.327540E-17
7.480000E+03	1.758509E-15	6.360744E-17
7.490000E+03	1.767771E-15	6.393215E-17
7.500000E+03	1.776875E-15	6.425143E-17
7.510000E+03	1.785798E-15	6.456452E-17
7.520000E+03	1.794567E-15	6.487236E-17
7.530000E+03	1.803182E-15	6.517502E-17
7.540000E+03	1.811688E-15	6.547411E-17
7.550000E+03	1.820059E-15	6.576870E-17
7.560000E+03	1.828313E-15	6.605946E-17
7.570000E+03	1.836442E-15	6.634611E-17
7.580000E+03	1.844457E-15	6.662911E-17
7.590000E+03	1.852322E-15	6.690711E-17
7.600000E+03	1.860043E-15	6.718037E-17
7.610000E+03	1.867598E-15	6.744810E-17
7.620000E+03	1.874963E-15	6.770950E-17
7.630000E+03	1.882109E-15	6.796347E-17
7.640000E+03	1.889056E-15	6.821078E-17
7.650000E+03	1.895691E-15	6.844736E-17
7.660000E+03	1.902052E-15	6.867460E-17
7.670000E+03	1.908069E-15	6.889001E-17
7.680000E+03	1.913673E-15	6.909109E-17
7.690000E+03	1.918864E-15	6.927786E-17
7.700000E+03	1.923539E-15	6.944660E-17
7.710000E+03	1.927694E-15	6.959718E-17
7.720000E+03	1.931246E-15	6.972665E-17
7.730000E+03	1.934136E-15	6.983289E-17
7.740000E+03	1.936329E-15	6.991460E-17
7.750000E+03	1.937711E-15	6.996769E-17
7.760000E+03	1.938272E-15	6.999184E-17
