#wls	flux	fluxerr
1.600000E+03	2.119397E-16	2.399588E-17
1.640000E+03	2.155860E-16	2.440751E-17
1.680000E+03	2.193327E-16	2.483043E-17
1.720000E+03	2.231811E-16	2.526478E-17
1.760000E+03	2.271320E-16	2.571065E-17
1.800000E+03	2.311865E-16	2.616813E-17
1.840000E+03	2.353850E-16	2.664183E-17
1.880000E+03	2.396894E-16	2.712742E-17
1.920000E+03	2.441411E-16	2.762956E-17
1.960000E+03	2.487007E-16	2.814379E-17
2.000000E+03	2.534103E-16	2.867488E-17
2.040000E+03	2.582716E-16	2.922302E-17
2.080000E+03	2.632428E-16	2.978345E-17
2.120000E+03	2.683673E-16	3.036107E-17
2.160000E+03	2.736903E-16	3.096102E-17
2.200000E+03	2.791246E-16	3.157338E-17
2.240000E+03	2.847142E-16	3.220316E-17
2.280000E+03	2.905055E-16	3.285558E-17
2.320000E+03	2.964533E-16	3.352550E-17
2.360000E+03	3.025570E-16	3.421286E-17
2.400000E+03	3.088636E-16	3.492297E-17
2.440000E+03	3.153247E-16	3.565033E-17
2.480000E+03	3.219878E-16	3.640030E-17
2.520000E+03	3.288519E-16	3.717276E-17
2.560000E+03	3.359161E-16	3.796758E-17
2.600000E+03	3.431782E-16	3.878452E-17
2.640000E+03	3.506361E-16	3.962330E-17
2.680000E+03	3.583383E-16	4.048941E-17
2.720000E+03	3.662303E-16	4.137665E-17
2.760000E+03	3.743073E-16	4.228447E-17
2.800000E+03	3.826175E-16	4.321830E-17
2.840000E+03	3.911564E-16	4.417761E-17
2.880000E+03	3.998636E-16	4.515555E-17
2.920000E+03	4.088418E-16	4.616371E-17
2.960000E+03	4.179734E-16	4.718879E-17
3.000000E+03	4.273615E-16	4.824240E-17
3.010000E+03	4.297742E-16	4.851315E-17
3.020000E+03	4.321283E-16	4.877725E-17
3.030000E+03	4.345364E-16	4.904742E-17
3.040000E+03	4.369986E-16	4.932367E-17
3.050000E+03	4.394013E-16	4.959318E-17
3.060000E+03	4.418579E-16	4.986874E-17
3.070000E+03	4.443114E-16	5.014391E-17
3.080000E+03	4.467615E-16	5.041868E-17
3.090000E+03	4.492653E-16	5.069947E-17
3.100000E+03	4.517655E-16	5.097982E-17
3.110000E+03	4.542616E-16	5.125969E-17
3.120000E+03	4.567537E-16	5.153907E-17
3.130000E+03	4.592990E-16	5.182443E-17
3.140000E+03	4.618399E-16	5.210925E-17
3.150000E+03	4.644339E-16	5.240004E-17
3.160000E+03	4.669652E-16	5.268370E-17
3.170000E+03	4.695493E-16	5.297331E-17
3.180000E+03	4.721281E-16	5.326227E-17
3.190000E+03	4.747596E-16	5.355716E-17
3.200000E+03	4.773854E-16	5.385136E-17
3.210000E+03	4.800054E-16	5.414487E-17
3.220000E+03	4.826191E-16	5.443764E-17
3.230000E+03	4.852851E-16	5.473627E-17
3.240000E+03	4.879446E-16	5.503414E-17
3.250000E+03	4.905973E-16	5.533120E-17
3.260000E+03	4.933019E-16	5.563408E-17
3.270000E+03	4.959994E-16	5.593612E-17
3.280000E+03	4.986895E-16	5.623729E-17
3.290000E+03	5.014312E-16	5.654424E-17
3.300000E+03	5.041652E-16	5.685029E-17
3.310000E+03	5.068913E-16	5.715540E-17
3.320000E+03	5.096091E-16	5.745954E-17
3.330000E+03	5.123779E-16	5.776941E-17
3.340000E+03	5.151383E-16	5.807827E-17
3.350000E+03	5.179496E-16	5.839283E-17
3.360000E+03	5.206923E-16	5.869963E-17
3.370000E+03	5.234856E-16	5.901209E-17
3.380000E+03	5.263294E-16	5.933020E-17
3.390000E+03	5.291039E-16	5.964046E-17
3.400000E+03	5.319288E-16	5.995636E-17
3.410000E+03	5.348038E-16	6.027786E-17
3.420000E+03	5.376090E-16	6.059146E-17
3.430000E+03	5.404642E-16	6.091064E-17
3.440000E+03	5.433092E-16	6.122863E-17
3.450000E+03	5.462040E-16	6.155220E-17
3.460000E+03	5.490885E-16	6.187455E-17
3.470000E+03	5.519622E-16	6.219566E-17
3.480000E+03	5.548254E-16	6.251553E-17
3.490000E+03	5.577380E-16	6.284093E-17
3.500000E+03	5.606398E-16	6.316506E-17
3.510000E+03	5.635307E-16	6.348791E-17
3.520000E+03	5.664709E-16	6.381628E-17
3.530000E+03	5.694002E-16	6.414337E-17
3.540000E+03	5.723182E-16	6.446914E-17
3.550000E+03	5.752855E-16	6.480043E-17
3.560000E+03	5.782418E-16	6.513042E-17
3.570000E+03	5.811867E-16	6.545908E-17
3.580000E+03	5.841812E-16	6.579328E-17
3.590000E+03	5.871035E-16	6.611930E-17
3.600000E+03	5.900754E-16	6.645085E-17
3.610000E+03	5.930969E-16	6.678795E-17
3.620000E+03	5.960463E-16	6.711688E-17
3.630000E+03	5.990456E-16	6.745137E-17
3.640000E+03	6.020947E-16	6.779143E-17
3.650000E+03	6.050720E-16	6.812335E-17
3.660000E+03	6.080994E-16	6.846086E-17
3.670000E+03	6.111161E-16	6.879710E-17
3.680000E+03	6.141222E-16	6.913211E-17
3.690000E+03	6.171788E-16	6.947276E-17
3.700000E+03	6.202252E-16	6.981219E-17
3.710000E+03	6.232616E-16	7.015046E-17
3.720000E+03	6.262882E-16	7.048756E-17
3.730000E+03	6.293662E-16	7.083039E-17
3.740000E+03	6.324348E-16	7.117212E-17
3.750000E+03	6.354944E-16	7.151277E-17
3.760000E+03	6.386062E-16	7.185925E-17
3.770000E+03	6.416484E-16	7.219784E-17
3.780000E+03	6.447435E-16	7.254232E-17
3.790000E+03	6.478308E-16	7.288588E-17
3.800000E+03	6.509717E-16	7.323541E-17
3.810000E+03	6.540444E-16	7.357720E-17
3.820000E+03	6.571716E-16	7.392507E-17
3.830000E+03	6.602925E-16	7.427218E-17
3.840000E+03	6.634688E-16	7.462545E-17
3.850000E+03	6.665785E-16	7.497118E-17
3.860000E+03	6.697446E-16	7.532319E-17
3.870000E+03	6.729063E-16	7.567466E-17
3.880000E+03	6.760643E-16	7.602564E-17
3.890000E+03	6.792190E-16	7.637619E-17
3.900000E+03	6.824322E-16	7.673327E-17
3.910000E+03	6.855823E-16	7.708318E-17
3.920000E+03	6.887922E-16	7.743976E-17
3.930000E+03	6.920016E-16	7.779621E-17
3.940000E+03	6.952721E-16	7.815948E-17
3.950000E+03	6.984822E-16	7.851590E-17
3.960000E+03	7.016940E-16	7.887244E-17
3.970000E+03	7.049696E-16	7.923609E-17
3.980000E+03	7.082488E-16	7.960008E-17
3.990000E+03	7.115327E-16	7.996452E-17
4.000000E+03	7.148224E-16	8.032957E-17
4.010000E+03	7.181193E-16	8.069535E-17
4.020000E+03	7.214249E-16	8.106205E-17
4.030000E+03	7.248023E-16	8.143674E-17
4.040000E+03	7.281307E-16	8.180587E-17
4.050000E+03	7.315352E-16	8.218348E-17
4.060000E+03	7.348957E-16	8.255606E-17
4.070000E+03	7.383372E-16	8.293769E-17
4.080000E+03	7.418019E-16	8.332185E-17
4.090000E+03	7.452929E-16	8.370889E-17
4.100000E+03	7.488137E-16	8.409922E-17
4.110000E+03	7.523683E-16	8.449326E-17
4.120000E+03	7.559604E-16	8.489145E-17
4.130000E+03	7.595941E-16	8.529422E-17
4.140000E+03	7.632732E-16	8.570204E-17
4.150000E+03	7.670020E-16	8.611534E-17
4.160000E+03	7.707840E-16	8.653455E-17
4.170000E+03	7.746844E-16	8.696696E-17
4.180000E+03	7.785833E-16	8.739914E-17
4.190000E+03	7.825452E-16	8.783830E-17
4.200000E+03	7.865724E-16	8.828472E-17
4.210000E+03	7.906670E-16	8.873861E-17
4.220000E+03	7.948301E-16	8.920011E-17
4.230000E+03	7.990629E-16	8.966935E-17
4.240000E+03	8.033655E-16	9.014632E-17
4.250000E+03	8.077374E-16	9.063099E-17
4.260000E+03	8.121780E-16	9.112328E-17
4.270000E+03	8.166235E-16	9.161603E-17
4.280000E+03	8.211961E-16	9.212295E-17
4.290000E+03	8.258314E-16	9.263680E-17
4.300000E+03	8.304636E-16	9.315021E-17
4.310000E+03	8.351518E-16	9.366981E-17
4.320000E+03	8.399550E-16	9.420221E-17
4.330000E+03	8.447436E-16	9.473287E-17
4.340000E+03	8.495756E-16	9.526830E-17
4.350000E+03	8.543834E-16	9.580093E-17
4.360000E+03	8.592880E-16	9.634430E-17
4.370000E+03	8.642212E-16	9.689078E-17
4.380000E+03	8.691143E-16	9.743266E-17
4.390000E+03	8.740248E-16	9.797639E-17
4.400000E+03	8.789468E-16	9.852131E-17
4.410000E+03	8.838745E-16	9.906676E-17
4.420000E+03	8.888017E-16	9.961205E-17
4.430000E+03	8.936577E-16	1.001493E-16
4.440000E+03	8.984997E-16	1.006848E-16
4.450000E+03	9.033207E-16	1.012179E-16
4.460000E+03	9.081134E-16	1.017477E-16
4.470000E+03	9.128061E-16	1.022662E-16
4.480000E+03	9.175197E-16	1.027869E-16
4.490000E+03	9.221175E-16	1.032946E-16
4.500000E+03	9.265913E-16	1.037883E-16
4.510000E+03	9.310624E-16	1.042816E-16
4.520000E+03	9.353937E-16	1.047591E-16
4.530000E+03	9.396422E-16	1.052272E-16
4.540000E+03	9.437357E-16	1.056779E-16
4.550000E+03	9.477978E-16	1.061250E-16
4.560000E+03	9.516924E-16	1.065532E-16
4.570000E+03	9.554796E-16	1.069694E-16
4.580000E+03	9.590904E-16	1.073656E-16
4.590000E+03	9.625872E-16	1.077491E-16
4.600000E+03	9.659690E-16	1.081196E-16
4.610000E+03	9.691705E-16	1.084698E-16
4.620000E+03	9.723242E-16	1.088146E-16
4.630000E+03	9.752375E-16	1.091324E-16
4.640000E+03	9.781111E-16	1.094457E-16
4.650000E+03	9.808210E-16	1.097406E-16
4.660000E+03	9.834403E-16	1.100253E-16
4.670000E+03	9.859126E-16	1.102934E-16
4.680000E+03	9.883135E-16	1.105536E-16
4.690000E+03	9.905890E-16	1.107996E-16
4.700000E+03	9.928813E-16	1.110474E-16
4.710000E+03	9.950725E-16	1.112839E-16
4.720000E+03	9.971755E-16	1.115105E-16
4.730000E+03	9.992684E-16	1.117358E-16
4.740000E+03	1.001364E-15	1.119614E-16
4.750000E+03	1.003410E-15	1.121814E-16
4.760000E+03	1.005484E-15	1.124045E-16
4.770000E+03	1.007533E-15	1.126246E-16
4.780000E+03	1.009632E-15	1.128504E-16
4.790000E+03	1.011793E-15	1.130830E-16
4.800000E+03	1.013959E-15	1.133161E-16
4.810000E+03	1.016205E-15	1.135581E-16
4.820000E+03	1.018473E-15	1.138025E-16
4.830000E+03	1.020836E-15	1.140573E-16
4.840000E+03	1.023299E-15	1.143233E-16
4.850000E+03	1.025803E-15	1.145938E-16
4.860000E+03	1.028417E-15	1.148766E-16
4.870000E+03	1.031080E-15	1.151648E-16
4.880000E+03	1.033862E-15	1.154661E-16
4.890000E+03	1.036699E-15	1.157736E-16
4.900000E+03	1.039660E-15	1.160949E-16
4.910000E+03	1.042683E-15	1.164229E-16
4.920000E+03	1.045834E-15	1.167652E-16
4.930000E+03	1.049116E-15	1.171220E-16
4.940000E+03	1.052466E-15	1.174863E-16
4.950000E+03	1.055949E-15	1.178655E-16
4.960000E+03	1.059504E-15	1.182525E-16
4.970000E+03	1.063130E-15	1.186475E-16
4.980000E+03	1.066960E-15	1.190650E-16
4.990000E+03	1.070863E-15	1.194906E-16
5.000000E+03	1.074837E-15	1.199241E-16
5.010000E+03	1.078950E-15	1.203730E-16
5.020000E+03	1.083131E-15	1.208293E-16
5.030000E+03	1.087446E-15	1.213005E-16
5.040000E+03	1.091890E-15	1.217861E-16
5.050000E+03	1.096393E-15	1.222781E-16
5.060000E+03	1.101015E-15	1.227832E-16
5.070000E+03	1.105680E-15	1.232931E-16
5.080000E+03	1.110449E-15	1.238144E-16
5.090000E+03	1.115241E-15	1.243382E-16
5.100000E+03	1.120113E-15	1.248708E-16
5.110000E+03	1.124981E-15	1.254028E-16
5.120000E+03	1.129895E-15	1.259399E-16
5.130000E+03	1.134771E-15	1.264726E-16
5.140000E+03	1.139653E-15	1.270059E-16
5.150000E+03	1.144520E-15	1.275375E-16
5.160000E+03	1.149278E-15	1.280568E-16
5.170000E+03	1.153971E-15	1.285686E-16
5.180000E+03	1.158500E-15	1.290622E-16
5.190000E+03	1.162905E-15	1.295419E-16
5.200000E+03	1.167088E-15	1.299967E-16
5.210000E+03	1.171088E-15	1.304310E-16
5.220000E+03	1.174801E-15	1.308333E-16
5.230000E+03	1.178268E-15	1.312081E-16
5.240000E+03	1.181456E-15	1.315519E-16
5.250000E+03	1.184267E-15	1.318535E-16
5.260000E+03	1.186671E-15	1.321098E-16
5.270000E+03	1.188778E-15	1.323329E-16
5.280000E+03	1.190421E-15	1.325043E-16
5.290000E+03	1.191576E-15	1.326215E-16
5.300000E+03	1.192290E-15	1.326896E-16
5.310000E+03	1.192472E-15	1.326982E-16
5.320000E+03	1.192242E-15	1.326612E-16
5.330000E+03	1.191375E-15	1.325533E-16
5.340000E+03	1.189999E-15	1.323888E-16
5.350000E+03	1.188103E-15	1.321663E-16
5.360000E+03	1.185679E-15	1.318853E-16
5.370000E+03	1.182654E-15	1.315374E-16
5.380000E+03	1.179027E-15	1.311227E-16
5.390000E+03	1.174939E-15	1.306567E-16
5.400000E+03	1.170188E-15	1.301172E-16
5.410000E+03	1.164988E-15	1.295277E-16
5.420000E+03	1.159214E-15	1.288746E-16
5.430000E+03	1.152947E-15	1.281668E-16
5.440000E+03	1.146137E-15	1.273988E-16
5.450000E+03	1.138872E-15	1.265804E-16
5.460000E+03	1.131108E-15	1.257065E-16
5.470000E+03	1.122936E-15	1.247875E-16
5.480000E+03	1.114383E-15	1.238264E-16
5.490000E+03	1.105415E-15	1.228193E-16
5.500000E+03	1.096129E-15	1.217771E-16
5.510000E+03	1.086559E-15	1.207036E-16
5.520000E+03	1.076681E-15	1.195959E-16
5.530000E+03	1.066596E-15	1.184655E-16
5.540000E+03	1.056284E-15	1.173100E-16
5.550000E+03	1.045908E-15	1.161478E-16
5.560000E+03	1.035331E-15	1.149634E-16
5.570000E+03	1.024780E-15	1.137820E-16
5.580000E+03	1.014179E-15	1.125954E-16
5.590000E+03	1.003635E-15	1.114152E-16
5.600000E+03	9.931350E-16	1.102402E-16
5.610000E+03	9.827838E-16	1.090819E-16
5.620000E+03	9.726257E-16	1.079452E-16
5.630000E+03	9.626493E-16	1.068289E-16
5.640000E+03	9.529538E-16	1.057440E-16
5.650000E+03	9.435801E-16	1.046950E-16
5.660000E+03	9.345677E-16	1.036862E-16
5.670000E+03	9.259008E-16	1.027160E-16
5.680000E+03	9.176689E-16	1.017941E-16
5.690000E+03	9.098526E-16	1.009186E-16
5.700000E+03	9.025358E-16	1.000986E-16
5.710000E+03	8.957464E-16	9.933721E-17
5.720000E+03	8.895100E-16	9.863731E-17
5.730000E+03	8.837990E-16	9.799579E-17
5.740000E+03	8.786855E-16	9.742065E-17
5.750000E+03	8.741877E-16	9.691386E-17
5.760000E+03	8.702714E-16	9.647164E-17
5.770000E+03	8.670506E-16	9.610659E-17
5.780000E+03	8.643871E-16	9.580338E-17
5.790000E+03	8.624402E-16	9.557966E-17
5.800000E+03	8.611182E-16	9.542524E-17
5.810000E+03	8.605266E-16	9.535178E-17
5.820000E+03	8.605216E-16	9.534336E-17
5.830000E+03	8.612553E-16	9.541678E-17
5.840000E+03	8.626311E-16	9.556135E-17
5.850000E+03	8.647004E-16	9.578272E-17
5.860000E+03	8.674642E-16	9.608100E-17
5.870000E+03	8.709234E-16	9.645626E-17
5.880000E+03	8.750282E-16	9.690298E-17
5.890000E+03	8.798292E-16	9.742673E-17
5.900000E+03	8.853268E-16	9.802755E-17
5.910000E+03	8.915221E-16	9.870554E-17
5.920000E+03	8.983648E-16	9.945511E-17
5.930000E+03	9.059594E-16	1.002878E-16
5.940000E+03	9.142042E-16	1.011924E-16
5.950000E+03	9.231005E-16	1.021689E-16
5.960000E+03	9.327564E-16	1.032294E-16
5.970000E+03	9.430684E-16	1.043624E-16
5.980000E+03	9.540924E-16	1.055739E-16
5.990000E+03	9.658311E-16	1.068644E-16
6.000000E+03	9.782866E-16	1.082340E-16
6.010000E+03	9.914604E-16	1.096829E-16
6.020000E+03	1.005294E-15	1.112046E-16
6.030000E+03	1.019842E-15	1.128051E-16
6.040000E+03	1.035100E-15	1.144839E-16
6.050000E+03	1.051060E-15	1.162402E-16
6.060000E+03	1.067712E-15	1.180726E-16
6.070000E+03	1.084977E-15	1.199727E-16
6.080000E+03	1.102894E-15	1.219445E-16
6.090000E+03	1.121503E-15	1.239926E-16
6.100000E+03	1.140573E-15	1.260914E-16
6.110000E+03	1.160259E-15	1.282581E-16
6.120000E+03	1.180446E-15	1.304799E-16
6.130000E+03	1.201005E-15	1.327424E-16
6.140000E+03	1.222005E-15	1.350533E-16
6.150000E+03	1.243225E-15	1.373884E-16
6.160000E+03	1.264644E-15	1.397452E-16
6.170000E+03	1.286160E-15	1.421123E-16
6.180000E+03	1.307657E-15	1.444771E-16
6.190000E+03	1.328936E-15	1.468174E-16
6.200000E+03	1.350011E-15	1.491350E-16
6.210000E+03	1.370583E-15	1.513967E-16
6.220000E+03	1.390572E-15	1.535938E-16
6.230000E+03	1.409900E-15	1.557177E-16
6.240000E+03	1.428239E-15	1.577320E-16
6.250000E+03	1.445415E-15	1.596177E-16
6.260000E+03	1.461428E-15	1.613748E-16
6.270000E+03	1.476029E-15	1.629758E-16
6.280000E+03	1.488972E-15	1.643937E-16
6.290000E+03	1.500284E-15	1.656314E-16
6.300000E+03	1.509656E-15	1.666548E-16
6.310000E+03	1.517058E-15	1.674607E-16
6.320000E+03	1.522480E-15	1.680480E-16
6.330000E+03	1.525671E-15	1.683892E-16
6.340000E+03	1.526669E-15	1.684882E-16
6.350000E+03	1.525357E-15	1.683326E-16
6.360000E+03	1.521916E-15	1.679420E-16
6.370000E+03	1.516281E-15	1.673095E-16
6.380000E+03	1.508415E-15	1.664310E-16
6.390000E+03	1.498566E-15	1.653340E-16
6.400000E+03	1.486651E-15	1.640093E-16
6.410000E+03	1.472956E-15	1.624884E-16
6.420000E+03	1.457434E-15	1.607664E-16
6.430000E+03	1.440310E-15	1.588678E-16
6.440000E+03	1.421728E-15	1.568089E-16
6.450000E+03	1.401924E-15	1.546155E-16
6.460000E+03	1.380883E-15	1.522860E-16
6.470000E+03	1.358843E-15	1.498468E-16
6.480000E+03	1.335875E-15	1.473057E-16
6.490000E+03	1.312286E-15	1.446964E-16
6.500000E+03	1.288136E-15	1.420256E-16
6.510000E+03	1.263555E-15	1.393078E-16
6.520000E+03	1.238671E-15	1.365569E-16
6.530000E+03	1.213526E-15	1.337776E-16
6.540000E+03	1.188373E-15	1.309979E-16
6.550000E+03	1.163170E-15	1.282130E-16
6.560000E+03	1.138144E-15	1.254480E-16
6.570000E+03	1.113241E-15	1.226970E-16
6.580000E+03	1.088672E-15	1.199830E-16
6.590000E+03	1.064371E-15	1.172991E-16
6.600000E+03	1.040467E-15	1.146591E-16
6.610000E+03	1.017076E-15	1.120761E-16
6.620000E+03	9.941274E-16	1.095421E-16
6.630000E+03	9.717273E-16	1.070688E-16
6.640000E+03	9.499744E-16	1.046672E-16
6.650000E+03	9.287911E-16	1.023286E-16
6.660000E+03	9.082689E-16	1.000631E-16
6.670000E+03	8.884374E-16	9.787398E-17
6.680000E+03	8.693233E-16	9.576412E-17
6.690000E+03	8.509495E-16	9.373608E-17
6.700000E+03	8.333366E-16	9.179206E-17
6.710000E+03	8.165019E-16	8.993399E-17
6.720000E+03	8.004606E-16	8.816350E-17
6.730000E+03	7.852249E-16	8.648196E-17
6.740000E+03	7.708053E-16	8.489047E-17
6.750000E+03	7.572101E-16	8.338995E-17
6.760000E+03	7.444459E-16	8.198111E-17
6.770000E+03	7.325173E-16	8.066445E-17
6.780000E+03	7.214281E-16	7.944036E-17
6.790000E+03	7.111801E-16	7.830905E-17
6.800000E+03	7.017324E-16	7.726598E-17
6.810000E+03	6.931703E-16	7.632054E-17
6.820000E+03	6.854505E-16	7.546794E-17
6.830000E+03	6.785715E-16	7.470804E-17
6.840000E+03	6.724913E-16	7.403616E-17
6.850000E+03	6.672896E-16	7.346108E-17
6.860000E+03	6.629234E-16	7.297806E-17
6.870000E+03	6.593903E-16	7.258684E-17
6.880000E+03	6.566488E-16	7.228280E-17
6.890000E+03	6.547764E-16	7.207451E-17
6.900000E+03	6.537317E-16	7.195738E-17
6.910000E+03	6.534736E-16	7.192687E-17
6.920000E+03	6.540805E-16	7.199162E-17
6.930000E+03	6.554722E-16	7.214279E-17
6.940000E+03	6.577283E-16	7.238912E-17
6.950000E+03	6.607686E-16	7.272180E-17
6.960000E+03	6.646743E-16	7.314974E-17
6.970000E+03	6.693646E-16	7.366405E-17
6.980000E+03	6.749219E-16	7.427379E-17
6.990000E+03	6.812644E-16	7.496996E-17
7.000000E+03	6.884754E-16	7.576170E-17
7.010000E+03	6.964704E-16	7.663974E-17
7.020000E+03	7.052900E-16	7.760852E-17
7.030000E+03	7.149758E-16	7.867260E-17
7.040000E+03	7.254366E-16	7.982198E-17
7.050000E+03	7.367097E-16	8.106073E-17
7.060000E+03	7.488335E-16	8.239308E-17
7.070000E+03	7.617053E-16	8.380773E-17
7.080000E+03	7.753566E-16	8.530815E-17
7.090000E+03	7.897696E-16	8.689236E-17
7.100000E+03	8.049222E-16	8.855795E-17
7.110000E+03	8.207876E-16	9.030196E-17
7.120000E+03	8.373339E-16	9.212087E-17
7.130000E+03	8.545228E-16	9.401050E-17
7.140000E+03	8.723103E-16	9.596597E-17
7.150000E+03	8.906449E-16	9.798164E-17
7.160000E+03	9.094114E-16	1.000448E-16
7.170000E+03	9.286548E-16	1.021605E-16
7.180000E+03	9.482448E-16	1.043143E-16
7.190000E+03	9.680979E-16	1.064970E-16
7.200000E+03	9.880603E-16	1.086919E-16
7.210000E+03	1.008153E-15	1.109011E-16
7.220000E+03	1.028144E-15	1.130990E-16
7.230000E+03	1.047978E-15	1.152798E-16
7.240000E+03	1.067598E-15	1.174371E-16
7.250000E+03	1.086747E-15	1.195426E-16
7.260000E+03	1.105357E-15	1.215889E-16
7.270000E+03	1.123297E-15	1.235615E-16
7.280000E+03	1.140435E-15	1.254459E-16
7.290000E+03	1.156643E-15	1.272282E-16
7.300000E+03	1.171799E-15	1.288949E-16
7.310000E+03	1.185790E-15	1.304334E-16
7.320000E+03	1.198513E-15	1.318326E-16
7.330000E+03	1.209806E-15	1.330744E-16
7.340000E+03	1.219746E-15	1.341676E-16
7.350000E+03	1.228124E-15	1.350892E-16
7.360000E+03	1.235061E-15	1.358523E-16
7.370000E+03	1.240383E-15	1.364378E-16
7.380000E+03	1.244170E-15	1.368546E-16
7.390000E+03	1.246444E-15	1.371051E-16
7.400000E+03	1.247245E-15	1.371936E-16
7.410000E+03	1.246629E-15	1.371265E-16
7.420000E+03	1.244587E-15	1.369026E-16
7.430000E+03	1.241363E-15	1.365486E-16
7.440000E+03	1.236969E-15	1.360662E-16
7.450000E+03	1.231430E-15	1.354579E-16
7.460000E+03	1.224929E-15	1.347439E-16
7.470000E+03	1.217578E-15	1.339365E-16
7.480000E+03	1.209486E-15	1.330476E-16
7.490000E+03	1.200761E-15	1.320892E-16
7.500000E+03	1.191510E-15	1.310731E-16
7.510000E+03	1.181831E-15	1.300098E-16
7.520000E+03	1.171745E-15	1.289020E-16
7.530000E+03	1.161488E-15	1.277755E-16
7.540000E+03	1.150993E-15	1.266228E-16
7.550000E+03	1.140406E-15	1.254600E-16
7.560000E+03	1.129790E-15	1.242942E-16
7.570000E+03	1.119202E-15	1.231315E-16
7.580000E+03	1.108689E-15	1.219772E-16
7.590000E+03	1.098222E-15	1.208279E-16
7.600000E+03	1.087977E-15	1.197031E-16
7.610000E+03	1.077835E-15	1.185897E-16
7.620000E+03	1.067889E-15	1.174980E-16
7.630000E+03	1.058151E-15	1.164293E-16
7.640000E+03	1.048631E-15	1.153845E-16
7.650000E+03	1.039261E-15	1.143564E-16
7.660000E+03	1.030177E-15	1.133597E-16
7.670000E+03	1.021237E-15	1.123790E-16
7.680000E+03	1.012500E-15	1.114206E-16
7.690000E+03	1.003953E-15	1.104832E-16
7.700000E+03	9.955798E-16	1.095651E-16
7.710000E+03	9.873645E-16	1.086643E-16
7.720000E+03	9.792236E-16	1.077718E-16
7.730000E+03	9.712665E-16	1.068996E-16
7.740000E+03	9.633449E-16	1.060313E-16
7.750000E+03	9.555029E-16	1.051719E-16
7.760000E+03	9.477205E-16	1.043190E-16
