#wls	flux	fluxerr
1.600000E+03	3.602687E-15	5.969197E-16
1.640000E+03	4.234301E-15	6.193430E-16
1.680000E+03	4.984616E-15	6.374211E-16
1.720000E+03	5.875418E-15	6.504056E-16
1.760000E+03	6.931276E-15	6.578782E-16
1.800000E+03	8.173437E-15	6.591912E-16
1.840000E+03	9.599877E-15	6.518232E-16
1.880000E+03	1.116539E-14	6.302917E-16
1.920000E+03	1.274845E-14	5.852742E-16
1.960000E+03	1.413425E-14	5.063871E-16
2.000000E+03	1.502000E-14	3.900867E-16
2.040000E+03	1.508401E-14	2.558331E-16
2.080000E+03	1.415549E-14	1.715059E-16
2.120000E+03	1.247309E-14	1.779877E-16
2.160000E+03	1.067572E-14	1.790858E-16
2.200000E+03	9.261976E-15	1.520770E-16
2.240000E+03	8.421281E-15	1.235891E-16
2.280000E+03	8.169463E-15	1.292696E-16
2.320000E+03	8.496732E-15	1.689266E-16
2.360000E+03	9.417307E-15	2.232071E-16
2.400000E+03	1.099322E-14	2.859854E-16
2.440000E+03	1.339879E-14	3.555777E-16
2.480000E+03	1.694547E-14	4.258509E-16
2.520000E+03	2.188174E-14	4.725495E-16
2.560000E+03	2.781212E-14	4.441861E-16
2.600000E+03	3.301333E-14	3.306628E-16
2.640000E+03	3.521271E-14	3.936930E-16
2.680000E+03	3.509218E-14	6.098449E-16
2.720000E+03	3.523693E-14	8.037988E-16
2.760000E+03	3.699316E-14	9.962415E-16
2.800000E+03	4.051478E-14	1.216394E-15
2.840000E+03	4.536731E-14	1.464782E-15
2.880000E+03	5.068899E-14	1.714882E-15
2.920000E+03	5.523479E-14	1.919256E-15
2.960000E+03	5.788649E-14	2.030398E-15
3.000000E+03	5.838961E-14	2.030511E-15
3.010000E+03	5.825204E-14	2.015056E-15
3.020000E+03	5.803973E-14	1.994422E-15
3.030000E+03	5.776985E-14	1.969222E-15
3.040000E+03	5.746147E-14	1.940143E-15
3.050000E+03	5.712841E-14	1.907695E-15
3.060000E+03	5.678396E-14	1.872365E-15
3.070000E+03	5.644045E-14	1.834595E-15
3.080000E+03	5.610532E-14	1.794643E-15
3.090000E+03	5.578488E-14	1.752711E-15
3.100000E+03	5.548534E-14	1.708976E-15
3.110000E+03	5.520614E-14	1.663386E-15
3.120000E+03	5.494839E-14	1.615944E-15
3.130000E+03	5.470957E-14	1.566560E-15
3.140000E+03	5.449062E-14	1.515283E-15
3.150000E+03	5.428564E-14	1.462033E-15
3.160000E+03	5.409336E-14	1.406953E-15
3.170000E+03	5.391336E-14	1.350319E-15
3.180000E+03	5.374566E-14	1.292552E-15
3.190000E+03	5.359031E-14	1.234223E-15
3.200000E+03	5.345483E-14	1.176223E-15
3.210000E+03	5.334456E-14	1.119514E-15
3.220000E+03	5.327067E-14	1.065274E-15
3.230000E+03	5.324531E-14	1.014705E-15
3.240000E+03	5.328515E-14	9.690066E-16
3.250000E+03	5.340817E-14	9.291862E-16
3.260000E+03	5.363422E-14	8.959907E-16
3.270000E+03	5.398363E-14	8.698536E-16
3.280000E+03	5.447959E-14	8.509530E-16
3.290000E+03	5.514509E-14	8.392131E-16
3.298680E+03	6.526279E-14	5.496123E-15
3.301060E+03	6.489713E-14	5.435617E-15
3.303440E+03	6.451283E-14	5.374003E-15
3.305820E+03	6.409974E-14	5.310522E-15
3.308200E+03	6.366103E-14	5.245466E-15
3.310580E+03	6.322639E-14	5.181161E-15
3.312960E+03	6.278724E-14	5.116948E-15
3.315340E+03	6.233266E-14	5.052006E-15
3.317720E+03	6.188216E-14	4.987834E-15
3.320100E+03	6.141001E-14	4.922502E-15
3.322480E+03	6.093415E-14	4.857381E-15
3.324860E+03	6.049204E-14	4.780868E-15
3.327240E+03	6.005479E-14	4.738359E-15
3.329620E+03	5.961539E-14	4.664696E-15
3.332000E+03	5.922292E-14	4.601887E-15
3.334380E+03	5.889060E-14	4.534892E-15
3.336760E+03	5.857475E-14	4.507844E-15
3.339140E+03	5.830106E-14	4.467331E-15
3.341520E+03	5.808270E-14	4.458294E-15
3.343900E+03	5.791497E-14	4.442845E-15
3.346280E+03	5.780948E-14	4.430600E-15
3.348660E+03	5.774829E-14	4.430520E-15
3.351040E+03	5.773990E-14	4.397675E-15
3.353420E+03	5.778350E-14	4.367235E-15
3.355800E+03	5.787669E-14	4.309236E-15
3.358180E+03	5.804272E-14	4.281021E-15
3.360560E+03	5.825747E-14	4.229486E-15
3.362940E+03	5.851699E-14	4.204228E-15
3.365320E+03	5.880185E-14	4.188707E-15
3.367700E+03	5.910350E-14	4.174927E-15
3.370080E+03	5.946533E-14	4.229156E-15
3.372460E+03	5.987255E-14	4.282525E-15
3.374840E+03	6.029181E-14	4.302897E-15
3.377220E+03	6.075483E-14	4.320586E-15
3.379600E+03	6.126777E-14	4.351928E-15
3.381980E+03	6.184993E-14	4.371770E-15
3.384360E+03	6.246641E-14	4.386621E-15
3.386740E+03	6.309475E-14	4.400498E-15
3.389120E+03	6.375735E-14	4.428504E-15
3.391500E+03	6.445109E-14	4.417002E-15
3.393880E+03	6.515583E-14	4.417052E-15
3.396260E+03	6.586231E-14	4.388317E-15
3.398640E+03	6.656974E-14	4.345434E-15
3.401020E+03	6.723799E-14	4.327450E-15
3.403400E+03	6.795503E-14	4.295384E-15
3.405780E+03	6.866221E-14	4.308548E-15
3.408160E+03	6.935645E-14	4.280158E-15
3.410540E+03	7.004238E-14	4.208151E-15
3.412920E+03	7.066608E-14	4.185536E-15
3.415300E+03	7.126689E-14	4.183218E-15
3.417680E+03	7.185253E-14	4.175307E-15
3.420060E+03	7.236144E-14	4.147439E-15
3.422440E+03	7.284602E-14	4.119653E-15
3.424820E+03	7.326707E-14	4.102149E-15
3.427200E+03	7.360852E-14	4.080832E-15
3.429580E+03	7.388351E-14	4.052643E-15
3.431960E+03	7.408367E-14	4.023501E-15
3.434340E+03	7.431580E-14	4.010921E-15
3.436720E+03	7.451157E-14	3.997896E-15
3.439100E+03	7.474543E-14	3.983054E-15
3.441480E+03	7.501658E-14	3.959619E-15
3.443860E+03	7.522529E-14	3.924704E-15
3.446240E+03	7.547511E-14	3.899636E-15
3.448620E+03	7.574223E-14	3.878493E-15
3.451000E+03	7.602893E-14	3.909384E-15
3.453380E+03	7.635280E-14	3.976015E-15
3.455760E+03	7.667247E-14	4.049537E-15
3.458140E+03	7.703306E-14	4.090541E-15
3.460520E+03	7.739325E-14	4.136825E-15
3.462900E+03	7.780653E-14	4.230472E-15
3.465280E+03	7.826520E-14	4.306507E-15
3.467660E+03	7.882267E-14	4.345482E-15
3.470040E+03	7.944827E-14	4.361607E-15
3.472420E+03	8.017246E-14	4.348218E-15
3.474800E+03	8.100274E-14	4.323643E-15
3.477180E+03	8.187797E-14	4.293001E-15
3.479560E+03	8.285145E-14	4.275954E-15
3.481940E+03	8.388496E-14	4.261733E-15
3.484320E+03	8.502413E-14	4.223746E-15
3.486700E+03	8.624597E-14	4.214664E-15
3.489080E+03	8.749711E-14	4.252826E-15
3.491460E+03	8.877750E-14	4.344692E-15
3.493840E+03	9.005668E-14	4.539445E-15
3.496220E+03	9.135746E-14	4.691213E-15
3.498600E+03	9.268738E-14	4.807375E-15
3.500980E+03	9.406921E-14	4.878421E-15
3.503360E+03	9.548007E-14	4.864814E-15
3.505740E+03	9.691994E-14	4.787343E-15
3.508120E+03	9.838877E-14	4.754792E-15
3.510500E+03	9.991683E-14	4.696532E-15
3.512880E+03	1.014662E-13	4.592078E-15
3.515260E+03	1.030443E-13	4.489498E-15
3.517640E+03	1.046663E-13	4.398527E-15
3.520020E+03	1.063019E-13	4.336769E-15
3.522400E+03	1.079737E-13	4.283207E-15
3.524780E+03	1.096816E-13	4.268524E-15
3.527160E+03	1.113577E-13	4.249983E-15
3.529540E+03	1.130245E-13	4.265218E-15
3.531920E+03	1.147048E-13	4.282417E-15
3.534300E+03	1.163607E-13	4.301573E-15
3.536680E+03	1.179395E-13	4.336482E-15
3.539060E+03	1.194789E-13	4.363563E-15
3.541440E+03	1.209866E-13	4.346857E-15
3.543820E+03	1.224324E-13	4.212679E-15
3.546200E+03	1.238013E-13	4.057271E-15
3.548580E+03	1.250559E-13	3.880095E-15
3.550960E+03	1.262262E-13	3.712701E-15
3.553340E+03	1.272975E-13	3.628608E-15
3.555720E+03	1.282397E-13	3.658085E-15
3.558100E+03	1.290455E-13	3.801238E-15
3.560480E+03	1.296851E-13	4.044616E-15
3.562860E+03	1.302111E-13	4.318669E-15
3.565240E+03	1.305938E-13	4.564637E-15
3.567620E+03	1.308409E-13	4.749412E-15
3.570000E+03	1.309600E-13	4.954697E-15
3.572380E+03	1.308988E-13	5.168261E-15
3.574760E+03	1.307325E-13	5.304738E-15
3.577140E+03	1.304837E-13	5.390366E-15
3.579520E+03	1.301152E-13	5.376773E-15
3.581900E+03	1.296569E-13	5.315683E-15
3.584280E+03	1.290568E-13	5.191075E-15
3.586660E+03	1.283299E-13	4.983192E-15
3.589040E+03	1.275287E-13	4.700162E-15
3.591420E+03	1.266683E-13	4.432161E-15
3.593800E+03	1.257562E-13	4.244410E-15
3.596180E+03	1.247925E-13	4.144963E-15
3.598560E+03	1.238220E-13	4.205934E-15
3.600940E+03	1.228969E-13	4.422660E-15
3.603320E+03	1.221214E-13	4.801079E-15
3.605700E+03	1.215549E-13	5.317190E-15
3.608080E+03	1.212714E-13	5.901621E-15
3.610460E+03	1.213077E-13	6.413762E-15
3.612840E+03	1.216633E-13	6.934143E-15
3.615220E+03	1.223378E-13	7.477070E-15
3.617600E+03	1.233381E-13	7.908715E-15
3.619980E+03	1.246637E-13	8.112101E-15
3.622360E+03	1.263215E-13	8.169994E-15
3.624740E+03	1.283183E-13	8.143617E-15
3.627120E+03	1.306390E-13	7.941048E-15
3.629500E+03	1.332902E-13	7.596518E-15
3.631880E+03	1.362790E-13	7.132116E-15
3.634260E+03	1.395974E-13	6.645892E-15
3.636640E+03	1.431856E-13	6.155490E-15
3.639020E+03	1.470284E-13	5.733649E-15
3.641400E+03	1.510812E-13	5.615439E-15
3.643780E+03	1.552548E-13	5.892586E-15
3.646160E+03	1.595418E-13	6.595022E-15
3.648540E+03	1.638829E-13	7.559204E-15
3.650920E+03	1.682337E-13	8.989489E-15
3.653300E+03	1.725132E-13	1.065545E-14
3.655680E+03	1.767214E-13	1.236396E-14
3.658060E+03	1.808217E-13	1.409349E-14
3.660440E+03	1.848288E-13	1.561509E-14
3.662820E+03	1.887577E-13	1.670842E-14
3.665200E+03	1.925497E-13	1.741301E-14
3.667580E+03	1.961755E-13	1.772041E-14
3.669960E+03	1.996281E-13	1.767589E-14
3.672340E+03	2.029004E-13	1.714058E-14
3.674720E+03	2.059634E-13	1.626807E-14
3.677100E+03	2.087733E-13	1.535167E-14
3.679480E+03	2.113601E-13	1.466200E-14
3.681860E+03	2.136726E-13	1.422540E-14
3.684240E+03	2.156895E-13	1.412981E-14
3.686620E+03	2.173820E-13	1.433244E-14
3.689000E+03	2.187360E-13	1.495161E-14
3.691380E+03	2.197521E-13	1.585566E-14
3.693760E+03	2.204308E-13	1.690911E-14
3.696140E+03	2.207435E-13	1.793357E-14
3.698520E+03	2.207055E-13	1.888040E-14
3.700900E+03	2.203392E-13	1.959362E-14
3.703280E+03	2.196233E-13	1.997470E-14
3.705660E+03	2.185949E-13	1.995821E-14
3.708040E+03	2.172762E-13	1.942205E-14
3.710420E+03	2.156897E-13	1.841306E-14
3.712800E+03	2.138720E-13	1.706046E-14
3.715180E+03	2.118019E-13	1.534607E-14
3.717560E+03	2.095016E-13	1.346575E-14
3.719940E+03	2.069788E-13	1.157055E-14
3.722320E+03	2.042628E-13	1.033608E-14
3.724700E+03	2.013540E-13	1.005964E-14
3.727080E+03	1.982673E-13	1.056721E-14
3.729460E+03	1.950391E-13	1.142036E-14
3.731840E+03	1.917203E-13	1.219149E-14
3.734220E+03	1.883329E-13	1.279460E-14
3.736600E+03	1.849059E-13	1.325728E-14
3.738980E+03	1.814826E-13	1.357742E-14
3.741360E+03	1.781064E-13	1.362251E-14
3.743740E+03	1.747772E-13	1.338038E-14
3.746120E+03	1.715093E-13	1.294131E-14
3.748500E+03	1.683387E-13	1.227947E-14
3.750880E+03	1.652868E-13	1.145870E-14
3.753260E+03	1.623678E-13	1.052910E-14
3.755640E+03	1.596031E-13	9.546528E-15
3.758020E+03	1.569923E-13	8.602435E-15
3.760400E+03	1.545640E-13	7.748841E-15
3.762780E+03	1.523106E-13	7.110790E-15
3.765160E+03	1.501889E-13	6.858829E-15
3.767540E+03	1.482272E-13	6.883077E-15
3.769920E+03	1.464252E-13	7.091425E-15
3.772300E+03	1.447685E-13	7.347493E-15
3.774680E+03	1.432638E-13	7.529213E-15
3.777060E+03	1.418394E-13	7.555052E-15
3.779440E+03	1.404953E-13	7.493732E-15
3.781820E+03	1.391597E-13	7.408100E-15
3.784200E+03	1.378113E-13	7.261821E-15
3.786580E+03	1.364573E-13	7.006271E-15
3.788960E+03	1.351190E-13	6.597621E-15
3.791340E+03	1.337751E-13	6.220259E-15
3.793720E+03	1.324327E-13	5.935443E-15
3.796100E+03	1.310989E-13	5.695460E-15
3.798480E+03	1.298591E-13	5.529769E-15
3.800860E+03	1.287415E-13	5.450392E-15
3.803240E+03	1.278027E-13	5.427772E-15
3.805620E+03	1.271063E-13	5.425310E-15
3.808000E+03	1.266446E-13	5.454353E-15
3.810380E+03	1.264387E-13	5.502290E-15
3.812760E+03	1.264950E-13	5.568177E-15
3.815140E+03	1.268202E-13	5.651386E-15
3.817520E+03	1.274491E-13	5.744652E-15
3.819900E+03	1.283812E-13	5.839959E-15
3.822280E+03	1.296230E-13	5.943565E-15
3.824660E+03	1.312092E-13	6.051253E-15
3.827040E+03	1.331251E-13	6.174898E-15
3.829420E+03	1.353347E-13	6.292932E-15
3.831800E+03	1.377812E-13	6.409554E-15
3.834180E+03	1.404923E-13	6.545154E-15
3.836560E+03	1.436083E-13	6.713366E-15
3.838940E+03	1.471565E-13	6.934653E-15
3.841320E+03	1.510096E-13	7.188209E-15
3.843700E+03	1.550617E-13	7.453902E-15
3.846080E+03	1.592631E-13	7.729318E-15
3.848460E+03	1.635574E-13	8.010463E-15
3.850840E+03	1.679164E-13	8.299385E-15
3.853220E+03	1.723120E-13	8.606957E-15
3.855600E+03	1.767511E-13	8.953971E-15
3.857980E+03	1.812475E-13	9.306094E-15
3.860360E+03	1.857593E-13	9.672764E-15
3.862740E+03	1.902443E-13	1.005910E-14
3.865120E+03	1.946469E-13	1.045049E-14
3.867500E+03	1.990019E-13	1.084980E-14
3.869880E+03	2.033445E-13	1.124750E-14
3.872260E+03	2.077026E-13	1.162657E-14
3.874640E+03	2.120691E-13	1.197066E-14
3.877020E+03	2.164022E-13	1.227600E-14
3.879400E+03	2.206812E-13	1.256936E-14
3.881780E+03	2.248712E-13	1.287285E-14
3.884160E+03	2.290005E-13	1.318345E-14
3.886540E+03	2.330828E-13	1.350059E-14
3.888920E+03	2.370975E-13	1.382639E-14
3.891300E+03	2.410587E-13	1.415752E-14
3.893680E+03	2.449455E-13	1.450917E-14
3.896060E+03	2.487860E-13	1.489560E-14
3.898440E+03	2.525593E-13	1.531208E-14
3.900820E+03	2.562587E-13	1.572787E-14
3.903200E+03	2.598774E-13	1.614378E-14
3.905580E+03	2.634432E-13	1.659789E-14
3.907960E+03	2.669287E-13	1.721525E-14
3.910340E+03	2.703270E-13	1.794672E-14
3.912720E+03	2.736383E-13	1.847428E-14
3.915100E+03	2.768008E-13	1.871714E-14
3.917480E+03	2.798078E-13	1.884660E-14
3.919860E+03	2.826802E-13	1.895138E-14
3.922240E+03	2.854046E-13	1.907487E-14
3.924620E+03	2.879675E-13	1.925221E-14
3.927000E+03	2.903279E-13	1.951206E-14
3.929380E+03	2.924657E-13	1.985687E-14
3.931760E+03	2.943949E-13	2.025852E-14
3.934140E+03	2.960885E-13	2.073717E-14
3.936520E+03	2.974989E-13	2.123686E-14
3.938900E+03	2.986130E-13	2.171396E-14
3.941280E+03	2.993970E-13	2.209943E-14
3.943660E+03	2.998379E-13	2.238110E-14
3.946040E+03	2.999363E-13	2.258165E-14
3.948420E+03	2.996997E-13	2.274928E-14
3.950800E+03	2.991286E-13	2.287998E-14
3.953180E+03	2.982238E-13	2.294597E-14
3.955560E+03	2.969721E-13	2.286811E-14
3.957940E+03	2.953742E-13	2.250495E-14
3.960320E+03	2.934580E-13	2.184747E-14
3.962700E+03	2.912445E-13	2.120685E-14
3.965080E+03	2.887548E-13	2.083404E-14
3.967460E+03	2.860232E-13	2.064456E-14
3.969840E+03	2.830707E-13	2.055414E-14
3.972220E+03	2.799316E-13	2.052326E-14
3.974600E+03	2.766063E-13	2.054302E-14
3.976980E+03	2.731291E-13	2.061565E-14
3.979360E+03	2.695205E-13	2.070934E-14
3.981740E+03	2.657741E-13	2.078905E-14
3.984120E+03	2.619239E-13	2.083604E-14
3.986500E+03	2.579769E-13	2.082132E-14
3.988880E+03	2.539333E-13	2.070988E-14
3.991260E+03	2.498135E-13	2.057814E-14
3.993640E+03	2.456583E-13	2.044956E-14
3.996020E+03	2.414676E-13	2.026819E-14
3.998400E+03	2.372753E-13	1.993912E-14
4.000780E+03	2.331220E-13	1.947427E-14
4.003160E+03	2.290614E-13	1.893200E-14
4.005540E+03	2.251204E-13	1.841296E-14
4.007920E+03	2.212854E-13	1.798856E-14
4.010300E+03	2.176031E-13	1.766714E-14
4.012680E+03	2.140668E-13	1.741411E-14
4.015060E+03	2.107164E-13	1.725602E-14
4.017440E+03	2.075382E-13	1.718135E-14
4.019820E+03	2.045587E-13	1.717850E-14
4.022200E+03	2.018045E-13	1.721522E-14
4.024580E+03	1.992618E-13	1.731440E-14
4.026960E+03	1.969571E-13	1.744082E-14
4.029340E+03	1.948764E-13	1.754782E-14
4.031720E+03	1.930865E-13	1.762041E-14
4.034100E+03	1.916740E-13	1.763783E-14
4.036480E+03	1.906649E-13	1.759294E-14
4.038860E+03	1.899450E-13	1.749734E-14
4.041240E+03	1.893465E-13	1.731076E-14
4.043620E+03	1.888625E-13	1.702892E-14
4.046000E+03	1.884931E-13	1.672200E-14
4.048380E+03	1.882511E-13	1.646175E-14
4.050760E+03	1.881233E-13	1.627525E-14
4.053140E+03	1.880759E-13	1.615471E-14
4.055520E+03	1.880823E-13	1.607527E-14
4.057900E+03	1.881357E-13	1.606218E-14
4.060280E+03	1.881562E-13	1.609841E-14
4.062660E+03	1.881504E-13	1.615108E-14
4.065040E+03	1.881184E-13	1.621917E-14
4.067420E+03	1.880669E-13	1.629562E-14
4.069800E+03	1.879827E-13	1.636498E-14
4.072180E+03	1.878591E-13	1.643146E-14
4.074560E+03	1.875835E-13	1.647429E-14
4.076940E+03	1.871626E-13	1.648809E-14
4.079320E+03	1.866101E-13	1.647840E-14
4.081700E+03	1.859724E-13	1.644600E-14
4.084080E+03	1.852695E-13	1.640565E-14
4.086460E+03	1.845083E-13	1.635761E-14
4.088840E+03	1.836887E-13	1.631216E-14
4.091220E+03	1.828307E-13	1.627172E-14
4.093600E+03	1.819212E-13	1.624661E-14
4.095980E+03	1.810196E-13	1.622610E-14
4.098360E+03	1.800929E-13	1.620431E-14
4.100740E+03	1.791479E-13	1.619226E-14
4.103120E+03	1.782306E-13	1.617519E-14
4.105500E+03	1.773806E-13	1.616240E-14
4.107880E+03	1.765913E-13	1.614643E-14
4.110260E+03	1.758822E-13	1.613008E-14
4.112640E+03	1.753126E-13	1.611505E-14
4.115020E+03	1.748625E-13	1.611061E-14
4.117400E+03	1.745777E-13	1.612578E-14
4.119780E+03	1.745042E-13	1.615760E-14
4.122160E+03	1.746284E-13	1.621063E-14
4.124540E+03	1.749304E-13	1.628123E-14
4.126920E+03	1.754100E-13	1.636900E-14
4.129300E+03	1.760603E-13	1.647346E-14
4.131680E+03	1.768746E-13	1.659188E-14
4.134060E+03	1.778265E-13	1.673403E-14
4.136440E+03	1.788764E-13	1.688809E-14
4.138820E+03	1.800504E-13	1.706515E-14
4.141200E+03	1.813092E-13	1.727035E-14
4.143580E+03	1.826723E-13	1.750815E-14
4.145960E+03	1.841068E-13	1.775582E-14
4.148340E+03	1.856061E-13	1.802323E-14
4.150720E+03	1.871571E-13	1.825027E-14
4.153100E+03	1.887206E-13	1.846441E-14
4.155480E+03	1.903226E-13	1.866056E-14
4.157860E+03	1.919436E-13	1.884980E-14
4.160240E+03	1.935313E-13	1.902492E-14
4.162620E+03	1.950858E-13	1.919816E-14
4.165000E+03	1.966138E-13	1.937814E-14
4.167380E+03	1.981151E-13	1.955646E-14
4.169760E+03	1.995704E-13	1.972515E-14
4.172140E+03	2.010059E-13	1.988694E-14
4.174520E+03	2.023563E-13	2.003699E-14
4.176900E+03	2.036544E-13	2.017977E-14
4.179280E+03	2.048547E-13	2.031807E-14
4.181660E+03	2.059313E-13	2.045307E-14
4.184040E+03	2.068778E-13	2.059000E-14
4.186420E+03	2.077010E-13	2.072736E-14
4.188800E+03	2.083620E-13	2.085582E-14
4.191180E+03	2.089065E-13	2.098098E-14
4.193560E+03	2.093215E-13	2.109090E-14
4.195940E+03	2.095813E-13	2.117635E-14
4.198320E+03	2.097120E-13	2.122590E-14
4.200700E+03	2.097138E-13	2.126889E-14
4.203080E+03	2.095608E-13	2.129264E-14
4.205460E+03	2.092532E-13	2.129992E-14
4.207840E+03	2.088041E-13	2.129193E-14
4.210220E+03	2.082525E-13	2.127708E-14
4.212600E+03	2.075986E-13	2.125299E-14
4.214980E+03	2.068423E-13	2.121378E-14
4.217360E+03	2.060163E-13	2.116295E-14
4.219740E+03	2.051528E-13	2.110866E-14
4.222120E+03	2.042390E-13	2.103945E-14
4.224500E+03	2.033008E-13	2.097052E-14
4.226880E+03	2.023770E-13	2.090686E-14
4.229260E+03	2.014676E-13	2.085215E-14
4.231640E+03	2.006242E-13	2.080049E-14
4.234020E+03	1.998468E-13	2.075619E-14
4.236400E+03	1.991418E-13	2.072324E-14
4.238780E+03	1.985157E-13	2.070086E-14
4.241160E+03	1.979747E-13	2.068827E-14
4.243540E+03	1.974995E-13	2.068035E-14
4.245920E+03	1.971480E-13	2.069264E-14
4.248300E+03	1.969267E-13	2.071063E-14
4.250680E+03	1.968162E-13	2.074188E-14
4.253060E+03	1.968356E-13	2.078016E-14
4.255440E+03	1.969655E-13	2.082622E-14
4.257820E+03	1.971673E-13	2.087832E-14
4.260200E+03	1.974216E-13	2.093417E-14
4.262580E+03	1.977605E-13	2.100262E-14
4.264960E+03	1.981260E-13	2.107388E-14
4.267340E+03	1.984989E-13	2.115396E-14
4.269720E+03	1.988598E-13	2.123931E-14
4.272100E+03	1.992152E-13	2.133004E-14
4.274480E+03	1.995264E-13	2.143676E-14
4.276860E+03	1.998579E-13	2.156039E-14
4.279240E+03	2.001710E-13	2.167507E-14
4.281620E+03	2.004594E-13	2.177483E-14
4.284000E+03	2.007038E-13	2.186910E-14
4.286380E+03	2.009170E-13	2.195326E-14
4.288760E+03	2.010799E-13	2.202070E-14
4.291140E+03	2.011474E-13	2.205317E-14
4.293520E+03	2.011003E-13	2.206416E-14
4.295900E+03	2.009515E-13	2.203827E-14
4.298280E+03	2.006432E-13	2.199879E-14
4.300660E+03	2.001948E-13	2.193346E-14
4.303040E+03	1.996064E-13	2.187295E-14
4.305420E+03	1.988843E-13	2.180735E-14
4.307800E+03	1.980093E-13	2.173509E-14
4.310180E+03	1.969944E-13	2.165787E-14
4.312560E+03	1.958588E-13	2.158032E-14
4.314940E+03	1.945577E-13	2.149211E-14
4.317320E+03	1.931295E-13	2.139170E-14
4.319700E+03	1.915678E-13	2.129103E-14
4.322080E+03	1.898663E-13	2.116296E-14
4.324460E+03	1.880056E-13	2.100024E-14
4.326840E+03	1.860051E-13	2.079884E-14
4.329220E+03	1.838583E-13	2.056505E-14
4.331600E+03	1.815460E-13	2.030873E-14
4.333980E+03	1.790937E-13	2.002894E-14
4.336360E+03	1.765209E-13	1.972693E-14
4.338740E+03	1.738465E-13	1.940701E-14
4.341120E+03	1.710579E-13	1.908539E-14
4.343500E+03	1.681870E-13	1.875380E-14
4.345880E+03	1.652273E-13	1.841052E-14
4.348260E+03	1.622303E-13	1.807934E-14
4.350640E+03	1.592085E-13	1.775240E-14
4.353020E+03	1.561557E-13	1.743006E-14
4.355400E+03	1.531102E-13	1.710996E-14
4.357780E+03	1.500526E-13	1.678614E-14
4.360160E+03	1.469959E-13	1.646012E-14
