#wls	flux	fluxerr
1.600000E+03	1.554942E-15	4.306525E-16
1.640000E+03	1.534548E-15	3.910357E-16
1.680000E+03	1.507300E-15	3.510807E-16
1.720000E+03	1.473294E-15	3.113745E-16
1.760000E+03	1.432986E-15	2.725681E-16
1.800000E+03	1.387165E-15	2.353359E-16
1.840000E+03	1.336385E-15	2.002594E-16
1.880000E+03	1.282029E-15	1.679979E-16
1.920000E+03	1.225354E-15	1.391165E-16
1.960000E+03	1.167862E-15	1.141503E-16
2.000000E+03	1.111212E-15	9.358350E-17
2.040000E+03	1.057426E-15	7.781015E-17
2.080000E+03	1.008783E-15	6.695477E-17
2.120000E+03	9.680949E-16	6.063792E-17
2.160000E+03	9.390484E-16	5.798429E-17
2.200000E+03	9.253444E-16	5.804402E-17
2.240000E+03	9.306484E-16	6.021160E-17
2.280000E+03	9.584795E-16	6.423466E-17
2.320000E+03	1.012083E-15	6.998324E-17
2.360000E+03	1.094674E-15	7.730871E-17
2.400000E+03	1.209655E-15	8.602624E-17
2.440000E+03	1.360526E-15	9.594558E-17
2.480000E+03	1.550697E-15	1.070185E-16
2.520000E+03	1.782494E-15	1.196254E-16
2.560000E+03	2.056700E-15	1.350804E-16
2.600000E+03	2.371537E-15	1.559760E-16
2.640000E+03	2.722697E-15	1.858031E-16
2.680000E+03	3.103441E-15	2.274809E-16
2.720000E+03	3.505445E-15	2.820103E-16
2.760000E+03	3.919575E-15	3.482569E-16
2.800000E+03	4.336523E-15	4.234617E-16
2.840000E+03	4.747591E-15	5.038730E-16
2.880000E+03	5.145547E-15	5.852820E-16
2.920000E+03	5.524547E-15	6.633611E-16
2.960000E+03	5.881380E-15	7.340872E-16
3.000000E+03	6.214452E-15	7.938434E-16
3.010000E+03	6.294221E-15	8.067272E-16
3.020000E+03	6.372479E-15	8.186843E-16
3.030000E+03	6.449247E-15	8.296751E-16
3.040000E+03	6.524841E-15	8.397000E-16
3.050000E+03	6.599151E-15	8.487060E-16
3.060000E+03	6.672215E-15	8.566612E-16
3.070000E+03	6.744222E-15	8.635546E-16
3.080000E+03	6.815079E-15	8.693405E-16
3.090000E+03	6.884838E-15	8.739943E-16
3.100000E+03	6.953847E-15	8.775297E-16
3.110000E+03	7.021881E-15	8.798896E-16
3.120000E+03	7.089150E-15	8.810737E-16
3.130000E+03	7.155582E-15	8.810476E-16
3.140000E+03	7.221680E-15	8.798495E-16
3.150000E+03	7.287092E-15	8.774135E-16
3.160000E+03	7.352040E-15	8.737462E-16
3.170000E+03	7.416749E-15	8.688547E-16
3.180000E+03	7.481303E-15	8.627304E-16
3.190000E+03	7.545508E-15	8.553347E-16
3.200000E+03	7.609873E-15	8.467110E-16
3.210000E+03	7.674209E-15	8.368245E-16
3.220000E+03	7.738749E-15	8.256896E-16
3.230000E+03	7.803448E-15	8.132923E-16
3.240000E+03	7.868542E-15	7.996507E-16
3.250000E+03	7.934126E-15	7.847703E-16
3.260000E+03	8.000301E-15	7.686597E-16
3.270000E+03	8.067029E-15	7.513185E-16
3.280000E+03	8.134549E-15	7.327770E-16
3.290000E+03	8.202965E-15	7.130577E-16
3.300000E+03	8.272248E-15	6.921786E-16
3.310000E+03	8.342638E-15	6.701901E-16
3.320000E+03	8.414111E-15	6.471311E-16
3.330000E+03	8.486913E-15	6.230764E-16
3.340000E+03	8.561024E-15	5.980990E-16
3.350000E+03	8.636563E-15	5.723065E-16
3.360000E+03	8.713652E-15	5.458385E-16
3.370000E+03	8.792415E-15	5.188760E-16
3.380000E+03	8.872982E-15	4.916554E-16
3.390000E+03	8.955359E-15	4.644791E-16
3.400000E+03	9.039818E-15	4.377596E-16
3.410000E+03	9.126248E-15	4.120128E-16
3.420000E+03	9.215063E-15	3.879329E-16
3.430000E+03	9.306166E-15	3.663680E-16
3.440000E+03	9.399727E-15	3.483580E-16
3.450000E+03	9.495915E-15	3.350747E-16
3.460000E+03	9.594773E-15	3.276916E-16
3.470000E+03	9.696588E-15	3.271919E-16
3.480000E+03	9.801377E-15	3.341282E-16
3.490000E+03	9.909135E-15	3.485073E-16
3.500000E+03	1.001997E-14	3.698407E-16
3.510000E+03	1.013383E-14	3.973153E-16
3.520000E+03	1.025095E-14	4.300139E-16
3.530000E+03	1.037100E-14	4.670335E-16
3.540000E+03	1.049422E-14	5.076034E-16
3.550000E+03	1.062055E-14	5.510741E-16
3.560000E+03	1.075008E-14	5.969267E-16
3.570000E+03	1.088265E-14	6.447330E-16
3.580000E+03	1.101823E-14	6.941539E-16
3.590000E+03	1.115704E-14	7.449319E-16
3.600000E+03	1.129881E-14	7.968258E-16
3.610000E+03	1.144375E-14	8.496660E-16
3.620000E+03	1.159185E-14	9.032948E-16
3.630000E+03	1.174295E-14	9.575644E-16
3.640000E+03	1.189702E-14	1.012352E-15
3.650000E+03	1.205417E-14	1.067557E-15
3.660000E+03	1.221422E-14	1.123067E-15
3.670000E+03	1.237741E-14	1.178809E-15
3.680000E+03	1.254344E-14	1.234667E-15
3.690000E+03	1.271240E-14	1.290565E-15
3.700000E+03	1.288424E-14	1.346414E-15
3.710000E+03	1.305904E-14	1.402143E-15
3.720000E+03	1.323661E-14	1.457649E-15
3.730000E+03	1.341703E-14	1.512861E-15
3.740000E+03	1.360022E-14	1.567689E-15
3.750000E+03	1.378624E-14	1.622060E-15
3.760000E+03	1.397502E-14	1.675880E-15
3.770000E+03	1.416659E-14	1.729075E-15
3.780000E+03	1.436087E-14	1.781547E-15
3.790000E+03	1.455775E-14	1.833197E-15
3.800000E+03	1.475753E-14	1.883979E-15
3.810000E+03	1.495981E-14	1.933752E-15
3.820000E+03	1.516475E-14	1.982446E-15
3.830000E+03	1.537250E-14	2.029991E-15
3.840000E+03	1.558276E-14	2.076256E-15
3.850000E+03	1.579552E-14	2.121144E-15
3.860000E+03	1.601091E-14	2.164578E-15
3.870000E+03	1.622890E-14	2.206458E-15
3.880000E+03	1.644947E-14	2.246680E-15
3.890000E+03	1.667240E-14	2.285119E-15
3.900000E+03	1.689781E-14	2.321687E-15
3.910000E+03	1.712562E-14	2.356274E-15
3.920000E+03	1.735577E-14	2.388768E-15
3.930000E+03	1.758818E-14	2.419054E-15
3.940000E+03	1.782275E-14	2.447014E-15
3.950000E+03	1.805954E-14	2.472552E-15
3.960000E+03	1.829845E-14	2.495547E-15
3.970000E+03	1.853918E-14	2.515855E-15
3.980000E+03	1.878193E-14	2.533398E-15
3.990000E+03	1.902640E-14	2.548027E-15
4.000000E+03	1.927261E-14	2.559642E-15
4.010000E+03	1.952038E-14	2.568116E-15
4.020000E+03	1.976938E-14	2.573301E-15
4.030000E+03	2.001975E-14	2.575119E-15
4.040000E+03	2.027113E-14	2.573422E-15
4.050000E+03	2.052349E-14	2.568111E-15
4.060000E+03	2.077661E-14	2.559067E-15
4.070000E+03	2.103024E-14	2.546171E-15
4.080000E+03	2.128416E-14	2.529310E-15
4.090000E+03	2.153829E-14	2.508397E-15
4.100000E+03	2.179217E-14	2.483308E-15
4.110000E+03	2.204553E-14	2.453945E-15
4.120000E+03	2.229845E-14	2.420263E-15
4.130000E+03	2.255025E-14	2.382138E-15
4.140000E+03	2.280082E-14	2.339525E-15
4.150000E+03	2.304981E-14	2.292366E-15
4.160000E+03	2.329692E-14	2.240621E-15
4.170000E+03	2.354178E-14	2.184268E-15
4.180000E+03	2.378405E-14	2.123306E-15
4.190000E+03	2.402336E-14	2.057757E-15
4.200000E+03	2.425935E-14	1.987677E-15
4.210000E+03	2.449163E-14	1.913157E-15
4.220000E+03	2.471982E-14	1.834334E-15
4.230000E+03	2.494332E-14	1.751389E-15
4.240000E+03	2.516173E-14	1.664590E-15
4.250000E+03	2.537486E-14	1.574318E-15
4.260000E+03	2.558231E-14	1.481059E-15
4.270000E+03	2.578322E-14	1.385449E-15
4.280000E+03	2.597740E-14	1.288395E-15
4.290000E+03	2.616444E-14	1.191117E-15
4.300000E+03	2.634390E-14	1.095290E-15
4.310000E+03	2.651536E-14	1.003229E-15
4.320000E+03	2.667815E-14	9.181016E-16
4.330000E+03	2.683230E-14	8.441654E-16
4.340000E+03	2.697691E-14	7.867038E-16
4.350000E+03	2.711205E-14	7.515142E-16
4.360000E+03	2.723738E-14	7.434311E-16
4.370000E+03	2.735290E-14	7.645169E-16
4.380000E+03	2.745843E-14	8.131924E-16
4.390000E+03	2.755418E-14	8.851622E-16
4.400000E+03	2.764013E-14	9.751794E-16
4.410000E+03	2.771681E-14	1.078409E-15
4.420000E+03	2.778428E-14	1.190927E-15
4.430000E+03	2.784258E-14	1.309741E-15
4.440000E+03	2.789230E-14	1.432648E-15
4.450000E+03	2.793351E-14	1.557990E-15
4.460000E+03	2.796656E-14	1.684527E-15
4.470000E+03	2.799204E-14	1.811332E-15
4.480000E+03	2.800982E-14	1.937641E-15
4.490000E+03	2.802052E-14	2.062893E-15
4.500000E+03	2.802456E-14	2.186626E-15
4.510000E+03	2.802206E-14	2.308449E-15
4.520000E+03	2.801344E-14	2.428055E-15
4.530000E+03	2.799914E-14	2.545195E-15
4.540000E+03	2.797959E-14	2.659665E-15
4.550000E+03	2.795524E-14	2.771297E-15
4.560000E+03	2.792628E-14	2.879930E-15
4.570000E+03	2.789291E-14	2.985426E-15
4.580000E+03	2.785613E-14	3.087755E-15
4.590000E+03	2.781587E-14	3.186796E-15
4.600000E+03	2.777236E-14	3.282468E-15
4.610000E+03	2.772633E-14	3.374771E-15
4.620000E+03	2.767828E-14	3.463690E-15
4.630000E+03	2.762788E-14	3.549121E-15
4.640000E+03	2.757643E-14	3.631174E-15
4.650000E+03	2.752334E-14	3.709728E-15
4.660000E+03	2.746963E-14	3.784882E-15
4.670000E+03	2.741553E-14	3.856638E-15
4.680000E+03	2.736124E-14	3.925003E-15
4.690000E+03	2.730698E-14	3.989990E-15
4.700000E+03	2.725297E-14	4.051615E-15
4.710000E+03	2.719995E-14	4.109981E-15
4.720000E+03	2.714785E-14	4.165075E-15
4.730000E+03	2.709689E-14	4.216926E-15
4.740000E+03	2.704754E-14	4.265609E-15
4.750000E+03	2.699944E-14	4.311072E-15
4.760000E+03	2.695361E-14	4.353480E-15
4.770000E+03	2.690941E-14	4.392739E-15
4.780000E+03	2.686759E-14	4.428974E-15
4.790000E+03	2.682832E-14	4.462224E-15
4.800000E+03	2.679123E-14	4.492436E-15
4.810000E+03	2.675678E-14	4.519692E-15
4.820000E+03	2.672540E-14	4.544074E-15
4.830000E+03	2.669671E-14	4.565527E-15
4.840000E+03	2.667116E-14	4.584130E-15
4.850000E+03	2.664889E-14	4.599916E-15
4.860000E+03	2.662979E-14	4.612871E-15
4.870000E+03	2.661401E-14	4.623024E-15
4.880000E+03	2.660196E-14	4.630448E-15
4.890000E+03	2.659352E-14	4.635122E-15
4.900000E+03	2.658910E-14	4.637116E-15
4.910000E+03	2.658828E-14	4.636356E-15
4.920000E+03	2.659147E-14	4.632905E-15
4.930000E+03	2.659880E-14	4.626779E-15
4.940000E+03	2.661010E-14	4.617941E-15
4.950000E+03	2.662578E-14	4.606448E-15
4.960000E+03	2.664567E-14	4.592257E-15
4.970000E+03	2.667015E-14	4.575417E-15
4.980000E+03	2.669907E-14	4.555879E-15
4.990000E+03	2.673251E-14	4.533639E-15
5.000000E+03	2.677031E-14	4.508640E-15
5.010000E+03	2.681311E-14	4.480965E-15
5.020000E+03	2.686045E-14	4.450503E-15
5.030000E+03	2.691241E-14	4.417238E-15
5.040000E+03	2.696936E-14	4.381191E-15
5.050000E+03	2.703109E-14	4.342289E-15
5.060000E+03	2.709768E-14	4.300504E-15
5.070000E+03	2.716920E-14	4.255802E-15
5.080000E+03	2.724572E-14	4.208145E-15
5.090000E+03	2.732701E-14	4.157451E-15
5.100000E+03	2.741314E-14	4.103675E-15
5.110000E+03	2.750443E-14	4.046815E-15
5.120000E+03	2.760038E-14	3.986738E-15
5.130000E+03	2.770158E-14	3.923473E-15
5.140000E+03	2.780723E-14	3.856847E-15
5.150000E+03	2.791793E-14	3.786884E-15
5.160000E+03	2.803341E-14	3.713488E-15
5.170000E+03	2.815370E-14	3.636599E-15
5.180000E+03	2.827880E-14	3.556160E-15
5.190000E+03	2.840845E-14	3.472075E-15
5.200000E+03	2.854262E-14	3.384286E-15
5.210000E+03	2.868103E-14	3.292707E-15
5.220000E+03	2.882423E-14	3.197352E-15
5.230000E+03	2.897132E-14	3.098075E-15
5.240000E+03	2.912254E-14	2.994872E-15
5.250000E+03	2.927785E-14	2.887710E-15
5.260000E+03	2.943718E-14	2.776573E-15
5.270000E+03	2.959985E-14	2.661404E-15
5.280000E+03	2.976606E-14	2.542254E-15
5.290000E+03	2.993540E-14	2.419152E-15
5.300000E+03	3.010774E-14	2.292194E-15
5.310000E+03	3.028262E-14	2.161513E-15
5.320000E+03	3.046019E-14	2.027361E-15
5.330000E+03	3.063964E-14	1.890041E-15
5.340000E+03	3.082077E-14	1.750058E-15
5.350000E+03	3.100307E-14	1.608130E-15
5.360000E+03	3.118664E-14	1.465363E-15
5.370000E+03	3.137033E-14	1.323332E-15
5.380000E+03	3.155427E-14	1.184517E-15
5.390000E+03	3.173799E-14	1.052684E-15
5.400000E+03	3.192108E-14	9.336236E-16
5.410000E+03	3.210251E-14	8.358919E-16
5.420000E+03	3.228192E-14	7.708449E-16
5.430000E+03	3.245895E-14	7.499914E-16
5.440000E+03	3.263186E-14	7.792332E-16
5.450000E+03	3.280011E-14	8.550941E-16
5.460000E+03	3.296213E-14	9.676431E-16
5.470000E+03	3.311695E-14	1.106220E-15
5.480000E+03	3.326530E-14	1.262469E-15
5.490000E+03	3.340665E-14	1.430542E-15
5.500000E+03	3.354188E-14	1.606565E-15
5.510000E+03	3.367122E-14	1.787926E-15
5.520000E+03	3.379601E-14	1.972892E-15
5.530000E+03	3.391589E-14	2.160178E-15
5.540000E+03	3.403155E-14	2.348904E-15
5.550000E+03	3.414299E-14	2.538381E-15
5.560000E+03	3.425127E-14	2.728160E-15
5.570000E+03	3.435605E-14	2.917804E-15
5.580000E+03	3.445768E-14	3.107011E-15
5.590000E+03	3.455615E-14	3.295506E-15
5.600000E+03	3.465216E-14	3.483131E-15
5.610000E+03	3.474533E-14	3.669659E-15
5.620000E+03	3.483599E-14	3.854958E-15
5.630000E+03	3.492446E-14	4.038925E-15
5.640000E+03	3.501071E-14	4.221432E-15
5.650000E+03	3.509506E-14	4.402411E-15
5.660000E+03	3.517709E-14	4.581713E-15
5.670000E+03	3.525712E-14	4.759291E-15
5.680000E+03	3.533546E-14	4.935108E-15
5.690000E+03	3.541206E-14	5.109089E-15
5.700000E+03	3.548686E-14	5.281164E-15
5.710000E+03	3.555979E-14	5.451264E-15
5.720000E+03	3.563155E-14	5.619442E-15
5.730000E+03	3.570133E-14	5.785527E-15
5.740000E+03	3.576982E-14	5.949586E-15
5.750000E+03	3.583696E-14	6.111572E-15
5.760000E+03	3.590230E-14	6.271374E-15
5.770000E+03	3.596617E-14	6.429014E-15
5.780000E+03	3.602889E-14	6.584522E-15
5.790000E+03	3.609001E-14	6.737792E-15
5.800000E+03	3.614946E-14	6.888786E-15
5.810000E+03	3.620797E-14	7.037621E-15
5.820000E+03	3.626468E-14	7.184117E-15
5.830000E+03	3.631993E-14	7.328318E-15
5.840000E+03	3.637365E-14	7.470199E-15
5.850000E+03	3.642577E-14	7.609732E-15
5.860000E+03	3.647663E-14	7.746979E-15
5.870000E+03	3.652535E-14	7.881745E-15
5.880000E+03	3.657268E-14	8.014180E-15
5.890000E+03	3.661813E-14	8.144176E-15
5.900000E+03	3.666165E-14	8.271711E-15
5.910000E+03	3.670314E-14	8.396763E-15
5.920000E+03	3.674254E-14	8.519314E-15
5.930000E+03	3.678019E-14	8.639441E-15
5.940000E+03	3.681518E-14	8.756932E-15
5.950000E+03	3.684742E-14	8.871765E-15
5.960000E+03	3.687725E-14	8.984019E-15
5.970000E+03	3.690459E-14	9.093679E-15
5.980000E+03	3.692850E-14	9.200516E-15
5.990000E+03	3.694974E-14	9.304722E-15
6.000000E+03	3.696695E-14	9.405954E-15
6.010000E+03	3.698131E-14	9.504518E-15
6.020000E+03	3.699143E-14	9.600062E-15
6.030000E+03	3.699722E-14	9.692562E-15
6.040000E+03	3.699900E-14	9.782108E-15
6.050000E+03	3.699624E-14	9.868563E-15
6.060000E+03	3.698883E-14	9.951904E-15
6.070000E+03	3.697579E-14	1.003187E-14
6.080000E+03	3.695789E-14	1.010867E-14
6.090000E+03	3.693368E-14	1.018192E-14
6.100000E+03	3.690395E-14	1.025184E-14
6.110000E+03	3.686814E-14	1.031828E-14
6.120000E+03	3.682569E-14	1.038108E-14
6.130000E+03	3.677648E-14	1.044022E-14
6.140000E+03	3.672086E-14	1.049580E-14
6.150000E+03	3.665827E-14	1.054768E-14
6.160000E+03	3.658861E-14	1.059582E-14
6.170000E+03	3.651268E-14	1.064048E-14
6.180000E+03	3.642948E-14	1.068137E-14
6.190000E+03	3.633937E-14	1.071861E-14
6.200000E+03	3.624272E-14	1.075233E-14
6.210000E+03	3.613993E-14	1.078265E-14
6.220000E+03	3.603044E-14	1.080944E-14
6.230000E+03	3.591420E-14	1.083269E-14
6.240000E+03	3.579160E-14	1.085253E-14
6.250000E+03	3.566211E-14	1.086883E-14
6.260000E+03	3.552615E-14	1.088173E-14
6.270000E+03	3.538367E-14	1.089123E-14
6.280000E+03	3.523509E-14	1.089750E-14
6.290000E+03	3.508040E-14	1.090053E-14
6.300000E+03	3.491956E-14	1.090035E-14
6.310000E+03	3.475302E-14	1.089711E-14
6.320000E+03	3.458124E-14	1.089098E-14
6.330000E+03	3.440375E-14	1.088184E-14
6.340000E+03	3.422102E-14	1.086986E-14
6.350000E+03	3.403355E-14	1.085522E-14
6.360000E+03	3.384086E-14	1.083779E-14
6.370000E+03	3.364393E-14	1.081790E-14
6.380000E+03	3.344281E-14	1.079560E-14
6.390000E+03	3.323751E-14	1.077092E-14
6.400000E+03	3.302809E-14	1.074389E-14
6.410000E+03	3.281555E-14	1.071486E-14
6.420000E+03	3.259946E-14	1.068372E-14
6.430000E+03	3.238085E-14	1.065083E-14
6.440000E+03	3.215978E-14	1.061623E-14
6.450000E+03	3.193631E-14	1.057996E-14
6.460000E+03	3.171101E-14	1.054223E-14
6.470000E+03	3.148395E-14	1.050310E-14
6.480000E+03	3.125569E-14	1.046276E-14
6.490000E+03	3.102535E-14	1.042094E-14
6.500000E+03	3.079400E-14	1.037803E-14
6.510000E+03	3.056171E-14	1.033406E-14
6.520000E+03	3.032810E-14	1.028893E-14
6.530000E+03	3.009375E-14	1.024284E-14
6.540000E+03	2.985875E-14	1.019585E-14
6.550000E+03	2.962321E-14	1.014801E-14
6.560000E+03	2.938722E-14	1.009937E-14
6.570000E+03	2.915137E-14	1.005013E-14
6.580000E+03	2.891527E-14	1.000019E-14
6.590000E+03	2.867905E-14	9.949593E-15
6.600000E+03	2.844327E-14	9.898551E-15
6.610000E+03	2.820803E-14	9.847112E-15
6.620000E+03	2.797296E-14	9.795160E-15
6.630000E+03	2.773865E-14	9.742903E-15
6.640000E+03	2.750473E-14	9.690225E-15
6.650000E+03	2.727222E-14	9.637497E-15
6.660000E+03	2.704029E-14	9.584435E-15
6.670000E+03	2.680906E-14	9.531083E-15
6.680000E+03	2.657907E-14	9.477645E-15
6.690000E+03	2.635042E-14	9.424163E-15
6.700000E+03	2.612275E-14	9.370513E-15
6.710000E+03	2.589614E-14	9.316733E-15
6.720000E+03	2.567114E-14	9.263025E-15
6.730000E+03	2.544739E-14	9.209261E-15
6.740000E+03	2.522542E-14	9.155640E-15
6.750000E+03	2.500442E-14	9.101871E-15
6.760000E+03	2.478535E-14	9.048311E-15
6.770000E+03	2.456741E-14	8.994667E-15
6.780000E+03	2.435155E-14	8.941295E-15
6.790000E+03	2.413697E-14	8.887900E-15
6.800000E+03	2.392417E-14	8.834672E-15
6.810000E+03	2.371322E-14	8.781637E-15
6.820000E+03	2.350374E-14	8.728661E-15
6.830000E+03	2.329623E-14	8.675928E-15
6.840000E+03	2.309031E-14	8.623302E-15
6.850000E+03	2.288647E-14	8.570965E-15
6.860000E+03	2.268390E-14	8.518619E-15
6.870000E+03	2.248350E-14	8.466602E-15
6.880000E+03	2.228490E-14	8.414774E-15
6.890000E+03	2.208813E-14	8.363154E-15
6.900000E+03	2.189283E-14	8.311599E-15
6.910000E+03	2.169984E-14	8.260441E-15
6.920000E+03	2.150798E-14	8.209223E-15
6.930000E+03	2.131851E-14	8.158429E-15
6.940000E+03	2.113063E-14	8.107760E-15
6.950000E+03	2.094438E-14	8.057227E-15
6.960000E+03	2.076019E-14	8.006996E-15
6.970000E+03	2.057766E-14	7.956923E-15
6.980000E+03	2.039683E-14	7.907018E-15
6.990000E+03	2.021771E-14	7.857289E-15
7.000000E+03	2.004032E-14	7.807743E-15
7.010000E+03	1.986467E-14	7.758390E-15
7.020000E+03	1.969038E-14	7.709082E-15
7.030000E+03	1.951825E-14	7.660130E-15
7.040000E+03	1.934712E-14	7.611086E-15
7.050000E+03	1.917816E-14	7.562407E-15
7.060000E+03	1.901022E-14	7.513647E-15
7.070000E+03	1.884408E-14	7.465110E-15
7.080000E+03	1.867935E-14	7.416652E-15
7.090000E+03	1.851605E-14	7.368275E-15
7.100000E+03	1.835454E-14	7.320132E-15
7.110000E+03	1.819409E-14	7.271929E-15
7.120000E+03	1.803508E-14	7.223819E-15
7.130000E+03	1.787713E-14	7.175659E-15
7.140000E+03	1.772062E-14	7.127597E-15
7.150000E+03	1.756555E-14	7.079637E-15
7.160000E+03	1.741155E-14	7.031636E-15
7.170000E+03	1.725898E-14	6.983741E-15
7.180000E+03	1.710715E-14	6.935672E-15
7.190000E+03	1.695675E-14	6.887716E-15
7.200000E+03	1.680744E-14	6.839734E-15
7.210000E+03	1.665887E-14	6.791592E-15
7.220000E+03	1.651140E-14	6.743434E-15
7.230000E+03	1.636503E-14	6.695265E-15
7.240000E+03	1.621942E-14	6.646951E-15
7.250000E+03	1.607458E-14	6.598501E-15
7.260000E+03	1.593053E-14	6.549919E-15
7.270000E+03	1.578727E-14	6.501216E-15
7.280000E+03	1.564481E-14	6.452396E-15
7.290000E+03	1.550251E-14	6.403203E-15
7.300000E+03	1.536105E-14	6.353914E-15
7.310000E+03	1.522011E-14	6.304406E-15
7.320000E+03	1.507940E-14	6.254560E-15
7.330000E+03	1.493926E-14	6.204519E-15
7.340000E+03	1.479908E-14	6.154038E-15
7.350000E+03	1.465889E-14	6.103135E-15
7.360000E+03	1.451874E-14	6.051827E-15
7.370000E+03	1.437834E-14	6.000007E-15
7.380000E+03	1.423806E-14	5.947821E-15
7.390000E+03	1.409702E-14	5.894915E-15
7.400000E+03	1.395587E-14	5.841564E-15
7.410000E+03	1.381407E-14	5.787545E-15
7.420000E+03	1.367197E-14	5.733009E-15
7.430000E+03	1.352933E-14	5.677861E-15
7.440000E+03	1.338621E-14	5.622131E-15
7.450000E+03	1.324295E-14	5.565966E-15
7.460000E+03	1.309931E-14	5.509277E-15
7.470000E+03	1.295620E-14	5.452446E-15
7.480000E+03	1.281309E-14	5.395262E-15
7.490000E+03	1.267059E-14	5.337984E-15
7.500000E+03	1.252846E-14	5.280521E-15
7.510000E+03	1.238755E-14	5.223240E-15
7.520000E+03	1.224761E-14	5.166045E-15
7.530000E+03	1.210868E-14	5.108957E-15
7.540000E+03	1.197106E-14	5.052106E-15
7.550000E+03	1.183476E-14	4.995512E-15
7.560000E+03	1.170032E-14	4.939408E-15
7.570000E+03	1.156724E-14	4.883592E-15
7.580000E+03	1.143579E-14	4.828188E-15
7.590000E+03	1.130626E-14	4.773317E-15
7.600000E+03	1.117839E-14	4.718885E-15
7.610000E+03	1.105245E-14	4.665012E-15
7.620000E+03	1.092820E-14	4.611605E-15
7.630000E+03	1.080615E-14	4.558884E-15
7.640000E+03	1.068582E-14	4.506653E-15
7.650000E+03	1.056770E-14	4.455128E-15
7.660000E+03	1.045132E-14	4.404118E-15
7.670000E+03	1.033716E-14	4.353833E-15
7.680000E+03	1.022478E-14	4.304086E-15
7.690000E+03	1.011463E-14	4.255083E-15
7.700000E+03	1.000650E-14	4.206735E-15
7.710000E+03	9.900395E-15	4.159053E-15
7.720000E+03	9.796323E-15	4.112044E-15
7.730000E+03	9.694294E-15	4.065719E-15
7.740000E+03	9.594316E-15	4.020086E-15
7.750000E+03	9.496177E-15	3.975061E-15
7.760000E+03	9.400328E-15	3.930837E-15
