#wls	flux	fluxerr
1.600000E+03	6.562134E-16	2.428181E-16
1.640000E+03	6.419963E-16	2.234408E-16
1.680000E+03	6.280037E-16	2.048791E-16
1.720000E+03	6.143739E-16	1.872158E-16
1.760000E+03	6.013171E-16	1.705497E-16
1.800000E+03	5.891035E-16	1.549881E-16
1.840000E+03	5.778213E-16	1.405860E-16
1.880000E+03	5.678326E-16	1.274709E-16
1.920000E+03	5.593829E-16	1.157424E-16
1.960000E+03	5.527667E-16	1.055199E-16
2.000000E+03	5.483014E-16	9.693676E-17
2.040000E+03	5.464240E-16	9.014691E-17
2.080000E+03	5.475991E-16	8.527724E-17
2.120000E+03	5.523588E-16	8.238068E-17
2.160000E+03	5.614895E-16	8.142994E-17
2.200000E+03	5.757841E-16	8.232231E-17
2.240000E+03	5.961698E-16	8.496529E-17
2.280000E+03	6.236324E-16	8.929699E-17
2.320000E+03	6.590695E-16	9.526484E-17
2.360000E+03	7.032838E-16	1.028287E-16
2.400000E+03	7.569792E-16	1.119792E-16
2.440000E+03	8.207482E-16	1.227540E-16
2.480000E+03	8.951489E-16	1.352686E-16
2.520000E+03	9.804360E-16	1.496956E-16
2.560000E+03	1.076678E-15	1.662948E-16
2.600000E+03	1.183527E-15	1.853582E-16
2.640000E+03	1.300402E-15	2.071474E-16
2.680000E+03	1.426473E-15	2.317336E-16
2.720000E+03	1.560820E-15	2.589250E-16
2.760000E+03	1.702448E-15	2.882769E-16
2.800000E+03	1.850255E-15	3.191192E-16
2.840000E+03	2.003133E-15	3.506031E-16
2.880000E+03	2.160145E-15	3.817657E-16
2.920000E+03	2.320381E-15	4.115378E-16
2.960000E+03	2.483427E-15	4.388631E-16
3.000000E+03	2.648970E-15	4.626616E-16
3.010000E+03	2.690829E-15	4.679533E-16
3.020000E+03	2.732819E-15	4.729393E-16
3.030000E+03	2.774941E-15	4.776039E-16
3.040000E+03	2.817322E-15	4.819531E-16
3.050000E+03	2.859904E-15	4.859610E-16
3.060000E+03	2.902693E-15	4.896132E-16
3.070000E+03	2.945759E-15	4.929059E-16
3.080000E+03	2.989049E-15	4.958150E-16
3.090000E+03	3.032572E-15	4.983274E-16
3.100000E+03	3.076469E-15	5.004513E-16
3.110000E+03	3.120626E-15	5.021538E-16
3.120000E+03	3.165122E-15	5.034340E-16
3.130000E+03	3.209912E-15	5.042710E-16
3.140000E+03	3.255207E-15	5.046852E-16
3.150000E+03	3.300836E-15	5.046371E-16
3.160000E+03	3.346887E-15	5.041288E-16
3.170000E+03	3.393449E-15	5.031624E-16
3.180000E+03	3.440551E-15	5.017317E-16
3.190000E+03	3.488091E-15	4.998126E-16
3.200000E+03	3.536295E-15	4.974296E-16
3.210000E+03	3.585068E-15	4.945619E-16
3.220000E+03	3.634510E-15	4.912182E-16
3.230000E+03	3.684595E-15	4.873913E-16
3.240000E+03	3.735427E-15	4.830938E-16
3.250000E+03	3.787050E-15	4.783321E-16
3.260000E+03	3.839510E-15	4.731157E-16
3.270000E+03	3.892787E-15	4.674499E-16
3.280000E+03	3.946999E-15	4.613603E-16
3.290000E+03	4.002199E-15	4.548691E-16
3.300000E+03	4.058377E-15	4.479972E-16
3.310000E+03	4.115659E-15	4.407873E-16
3.320000E+03	4.174039E-15	4.332756E-16
3.330000E+03	4.233650E-15	4.255218E-16
3.340000E+03	4.294494E-15	4.175830E-16
3.350000E+03	4.356642E-15	4.095359E-16
3.360000E+03	4.420171E-15	4.014724E-16
3.370000E+03	4.485159E-15	3.935008E-16
3.380000E+03	4.551688E-15	3.857480E-16
3.390000E+03	4.619777E-15	3.783562E-16
3.400000E+03	4.689583E-15	3.714997E-16
3.410000E+03	4.761063E-15	3.653582E-16
3.420000E+03	4.834448E-15	3.601519E-16
3.430000E+03	4.909698E-15	3.560952E-16
3.440000E+03	4.986913E-15	3.534208E-16
3.450000E+03	5.066188E-15	3.523589E-16
3.460000E+03	5.147552E-15	3.531194E-16
3.470000E+03	5.231166E-15	3.558917E-16
3.480000E+03	5.317049E-15	3.608129E-16
3.490000E+03	5.405212E-15	3.679676E-16
3.500000E+03	5.495732E-15	3.773894E-16
3.510000E+03	5.588605E-15	3.890546E-16
3.520000E+03	5.683969E-15	4.029042E-16
3.530000E+03	5.781668E-15	4.188243E-16
3.540000E+03	5.881830E-15	4.366973E-16
3.550000E+03	5.984435E-15	4.563813E-16
3.560000E+03	6.089536E-15	4.777341E-16
3.570000E+03	6.197034E-15	5.006021E-16
3.580000E+03	6.306901E-15	5.248411E-16
3.590000E+03	6.419257E-15	5.503259E-16
3.600000E+03	6.533921E-15	5.769138E-16
3.610000E+03	6.651009E-15	6.044957E-16
3.620000E+03	6.770485E-15	6.329572E-16
3.630000E+03	6.892234E-15	6.621836E-16
3.640000E+03	7.016214E-15	6.920723E-16
3.650000E+03	7.142456E-15	7.225338E-16
3.660000E+03	7.270833E-15	7.534671E-16
3.670000E+03	7.401453E-15	7.847990E-16
3.680000E+03	7.534099E-15	8.164259E-16
3.690000E+03	7.668794E-15	8.482709E-16
3.700000E+03	7.805472E-15	8.802501E-16
3.710000E+03	7.944148E-15	9.122900E-16
3.720000E+03	8.084669E-15	9.442989E-16
3.730000E+03	8.227042E-15	9.762039E-16
3.740000E+03	8.371186E-15	1.007923E-15
3.750000E+03	8.517101E-15	1.039384E-15
3.760000E+03	8.664699E-15	1.070503E-15
3.770000E+03	8.813974E-15	1.101209E-15
3.780000E+03	8.964828E-15	1.131417E-15
3.790000E+03	9.117159E-15	1.161042E-15
3.800000E+03	9.271129E-15	1.190034E-15
3.810000E+03	9.426448E-15	1.218284E-15
3.820000E+03	9.583181E-15	1.245728E-15
3.830000E+03	9.741395E-15	1.272305E-15
3.840000E+03	9.900876E-15	1.297915E-15
3.850000E+03	1.006159E-14	1.322482E-15
3.860000E+03	1.022359E-14	1.345944E-15
3.870000E+03	1.038684E-14	1.368226E-15
3.880000E+03	1.055131E-14	1.389254E-15
3.890000E+03	1.071684E-14	1.408939E-15
3.900000E+03	1.088348E-14	1.427220E-15
3.910000E+03	1.105119E-14	1.444025E-15
3.920000E+03	1.121992E-14	1.459281E-15
3.930000E+03	1.138959E-14	1.472915E-15
3.940000E+03	1.156016E-14	1.484858E-15
3.950000E+03	1.173166E-14	1.495054E-15
3.960000E+03	1.190402E-14	1.503436E-15
3.970000E+03	1.207707E-14	1.509925E-15
3.980000E+03	1.225095E-14	1.514484E-15
3.990000E+03	1.242547E-14	1.517040E-15
4.000000E+03	1.260066E-14	1.517548E-15
4.010000E+03	1.277643E-14	1.515952E-15
4.020000E+03	1.295258E-14	1.512190E-15
4.030000E+03	1.312923E-14	1.506240E-15
4.040000E+03	1.330618E-14	1.498045E-15
4.050000E+03	1.348343E-14	1.487583E-15
4.060000E+03	1.366087E-14	1.474821E-15
4.070000E+03	1.383838E-14	1.459733E-15
4.080000E+03	1.401584E-14	1.442300E-15
4.090000E+03	1.419325E-14	1.422524E-15
4.100000E+03	1.437034E-14	1.400390E-15
4.110000E+03	1.454697E-14	1.375906E-15
4.120000E+03	1.472323E-14	1.349114E-15
4.130000E+03	1.489873E-14	1.320022E-15
4.140000E+03	1.507343E-14	1.288686E-15
4.150000E+03	1.524716E-14	1.255166E-15
4.160000E+03	1.541973E-14	1.219541E-15
4.170000E+03	1.559099E-14	1.181909E-15
4.180000E+03	1.576072E-14	1.142395E-15
4.190000E+03	1.592876E-14	1.101151E-15
4.200000E+03	1.609491E-14	1.058364E-15
4.210000E+03	1.625897E-14	1.014263E-15
4.220000E+03	1.642075E-14	9.691324E-16
4.230000E+03	1.657991E-14	9.233127E-16
4.240000E+03	1.673625E-14	8.772407E-16
4.250000E+03	1.688975E-14	8.314697E-16
4.260000E+03	1.704021E-14	7.866846E-16
4.270000E+03	1.718715E-14	7.437334E-16
4.280000E+03	1.733057E-14	7.036986E-16
4.290000E+03	1.747029E-14	6.678968E-16
4.300000E+03	1.760616E-14	6.378835E-16
4.310000E+03	1.773804E-14	6.153897E-16
4.320000E+03	1.786563E-14	6.021595E-16
4.330000E+03	1.798911E-14	5.997173E-16
4.340000E+03	1.810803E-14	6.090411E-16
4.350000E+03	1.822257E-14	6.303979E-16
4.360000E+03	1.833261E-14	6.632905E-16
4.370000E+03	1.843817E-14	7.066387E-16
4.380000E+03	1.853915E-14	7.590257E-16
4.390000E+03	1.863556E-14	8.189506E-16
4.400000E+03	1.872729E-14	8.849793E-16
4.410000E+03	1.881455E-14	9.558493E-16
4.420000E+03	1.889721E-14	1.030464E-15
4.430000E+03	1.897515E-14	1.107897E-15
4.440000E+03	1.904861E-14	1.187393E-15
4.450000E+03	1.911747E-14	1.268303E-15
4.460000E+03	1.918181E-14	1.350092E-15
4.470000E+03	1.924191E-14	1.432320E-15
4.480000E+03	1.929749E-14	1.514581E-15
4.490000E+03	1.934886E-14	1.596558E-15
4.500000E+03	1.939613E-14	1.677968E-15
4.510000E+03	1.943925E-14	1.758552E-15
4.520000E+03	1.947836E-14	1.838093E-15
4.530000E+03	1.951362E-14	1.916402E-15
4.540000E+03	1.954516E-14	1.993314E-15
4.550000E+03	1.957317E-14	2.068683E-15
4.560000E+03	1.959763E-14	2.142359E-15
4.570000E+03	1.961854E-14	2.214207E-15
4.580000E+03	1.963644E-14	2.284166E-15
4.590000E+03	1.965116E-14	2.352106E-15
4.600000E+03	1.966270E-14	2.417923E-15
4.610000E+03	1.967146E-14	2.481572E-15
4.620000E+03	1.967765E-14	2.542994E-15
4.630000E+03	1.968089E-14	2.602066E-15
4.640000E+03	1.968198E-14	2.658817E-15
4.650000E+03	1.968037E-14	2.713112E-15
4.660000E+03	1.967667E-14	2.764972E-15
4.670000E+03	1.967091E-14	2.814348E-15
4.680000E+03	1.966312E-14	2.861198E-15
4.690000E+03	1.965334E-14	2.905483E-15
4.700000E+03	1.964161E-14	2.947168E-15
4.710000E+03	1.962835E-14	2.986281E-15
4.720000E+03	1.961342E-14	3.022769E-15
4.730000E+03	1.959686E-14	3.056609E-15
4.740000E+03	1.957891E-14	3.087815E-15
4.750000E+03	1.955922E-14	3.116310E-15
4.760000E+03	1.953843E-14	3.142177E-15
4.770000E+03	1.951599E-14	3.165314E-15
4.780000E+03	1.949236E-14	3.185778E-15
4.790000E+03	1.946758E-14	3.203569E-15
4.800000E+03	1.944130E-14	3.218622E-15
4.810000E+03	1.941377E-14	3.230974E-15
4.820000E+03	1.938525E-14	3.240662E-15
4.830000E+03	1.935539E-14	3.247629E-15
4.840000E+03	1.932443E-14	3.251921E-15
4.850000E+03	1.929244E-14	3.253549E-15
4.860000E+03	1.925927E-14	3.252497E-15
4.870000E+03	1.922497E-14	3.248782E-15
4.880000E+03	1.918979E-14	3.242457E-15
4.890000E+03	1.915359E-14	3.233512E-15
4.900000E+03	1.911662E-14	3.222004E-15
4.910000E+03	1.907855E-14	3.207893E-15
4.920000E+03	1.903961E-14	3.191239E-15
4.930000E+03	1.899987E-14	3.172074E-15
4.940000E+03	1.895919E-14	3.150397E-15
4.950000E+03	1.891781E-14	3.126274E-15
4.960000E+03	1.887560E-14	3.099707E-15
4.970000E+03	1.883279E-14	3.070766E-15
4.980000E+03	1.878926E-14	3.039459E-15
4.990000E+03	1.874505E-14	3.005825E-15
5.000000E+03	1.870002E-14	2.969876E-15
5.010000E+03	1.865461E-14	2.931718E-15
5.020000E+03	1.860849E-14	2.891335E-15
5.030000E+03	1.856171E-14	2.848775E-15
5.040000E+03	1.851452E-14	2.804116E-15
5.050000E+03	1.846677E-14	2.757380E-15
5.060000E+03	1.841852E-14	2.708619E-15
5.070000E+03	1.836981E-14	2.657887E-15
5.080000E+03	1.832070E-14	2.605241E-15
5.090000E+03	1.827105E-14	2.550712E-15
5.100000E+03	1.822091E-14	2.494360E-15
5.110000E+03	1.817052E-14	2.436275E-15
5.120000E+03	1.811956E-14	2.376471E-15
5.130000E+03	1.806845E-14	2.315065E-15
5.140000E+03	1.801669E-14	2.252055E-15
5.150000E+03	1.796470E-14	2.187564E-15
5.160000E+03	1.791235E-14	2.121646E-15
5.170000E+03	1.785971E-14	2.054382E-15
5.180000E+03	1.780682E-14	1.985858E-15
5.190000E+03	1.775358E-14	1.916143E-15
5.200000E+03	1.770003E-14	1.845334E-15
5.210000E+03	1.764607E-14	1.773516E-15
5.220000E+03	1.759214E-14	1.700836E-15
5.230000E+03	1.753776E-14	1.627360E-15
5.240000E+03	1.748320E-14	1.553236E-15
5.250000E+03	1.742855E-14	1.478606E-15
5.260000E+03	1.737391E-14	1.403628E-15
5.270000E+03	1.731901E-14	1.328452E-15
5.280000E+03	1.726416E-14	1.253298E-15
5.290000E+03	1.720930E-14	1.178390E-15
5.300000E+03	1.715457E-14	1.104011E-15
5.310000E+03	1.709993E-14	1.030491E-15
5.320000E+03	1.704573E-14	9.582620E-16
5.330000E+03	1.699178E-14	8.878342E-16
5.340000E+03	1.693828E-14	8.198876E-16
5.350000E+03	1.688526E-14	7.552939E-16
5.360000E+03	1.683310E-14	6.952027E-16
5.370000E+03	1.678151E-14	6.410599E-16
5.380000E+03	1.673088E-14	5.946993E-16
5.390000E+03	1.668129E-14	5.582432E-16
5.400000E+03	1.663276E-14	5.338866E-16
5.410000E+03	1.658502E-14	5.234406E-16
5.420000E+03	1.653806E-14	5.278096E-16
5.430000E+03	1.649185E-14	5.466420E-16
5.440000E+03	1.644565E-14	5.784192E-16
5.450000E+03	1.639932E-14	6.209718E-16
5.460000E+03	1.635219E-14	6.719641E-16
5.470000E+03	1.630388E-14	7.292714E-16
5.480000E+03	1.625477E-14	7.911508E-16
5.490000E+03	1.620460E-14	8.561896E-16
5.500000E+03	1.615373E-14	9.233178E-16
5.510000E+03	1.610218E-14	9.916991E-16
5.520000E+03	1.605049E-14	1.060721E-15
5.530000E+03	1.599835E-14	1.129867E-15
5.540000E+03	1.594597E-14	1.198761E-15
5.550000E+03	1.589324E-14	1.267089E-15
5.560000E+03	1.584053E-14	1.334637E-15
5.570000E+03	1.578758E-14	1.401190E-15
5.580000E+03	1.573447E-14	1.466598E-15
5.590000E+03	1.568112E-14	1.530724E-15
5.600000E+03	1.562778E-14	1.593488E-15
5.610000E+03	1.557422E-14	1.654781E-15
5.620000E+03	1.552053E-14	1.714543E-15
5.630000E+03	1.546683E-14	1.772725E-15
5.640000E+03	1.541306E-14	1.829276E-15
5.650000E+03	1.535933E-14	1.884168E-15
5.660000E+03	1.530544E-14	1.937345E-15
5.670000E+03	1.525151E-14	1.988795E-15
5.680000E+03	1.519766E-14	2.038512E-15
5.690000E+03	1.514385E-14	2.086476E-15
5.700000E+03	1.509005E-14	2.132671E-15
5.710000E+03	1.503622E-14	2.177082E-15
5.720000E+03	1.498265E-14	2.219746E-15
5.730000E+03	1.492899E-14	2.260610E-15
5.740000E+03	1.487553E-14	2.299716E-15
5.750000E+03	1.482223E-14	2.337064E-15
5.760000E+03	1.476892E-14	2.372630E-15
5.770000E+03	1.471571E-14	2.406440E-15
5.780000E+03	1.466275E-14	2.438525E-15
5.790000E+03	1.460984E-14	2.468865E-15
5.800000E+03	1.455697E-14	2.497468E-15
5.810000E+03	1.450441E-14	2.524398E-15
5.820000E+03	1.445183E-14	2.549610E-15
5.830000E+03	1.439936E-14	2.573146E-15
5.840000E+03	1.434698E-14	2.595019E-15
5.850000E+03	1.429465E-14	2.615243E-15
5.860000E+03	1.424252E-14	2.633866E-15
5.870000E+03	1.419024E-14	2.650847E-15
5.880000E+03	1.413811E-14	2.666264E-15
5.890000E+03	1.408594E-14	2.680109E-15
5.900000E+03	1.403371E-14	2.692404E-15
5.910000E+03	1.398140E-14	2.703172E-15
5.920000E+03	1.392899E-14	2.712440E-15
5.930000E+03	1.387660E-14	2.720264E-15
5.940000E+03	1.382392E-14	2.726611E-15
5.950000E+03	1.377090E-14	2.731511E-15
5.960000E+03	1.371769E-14	2.735026E-15
5.970000E+03	1.366427E-14	2.737190E-15
5.980000E+03	1.361031E-14	2.737975E-15
5.990000E+03	1.355610E-14	2.737480E-15
6.000000E+03	1.350114E-14	2.735649E-15
6.010000E+03	1.344589E-14	2.732617E-15
6.020000E+03	1.338987E-14	2.728331E-15
6.030000E+03	1.333305E-14	2.722835E-15
6.040000E+03	1.327557E-14	2.716207E-15
6.050000E+03	1.321726E-14	2.708464E-15
6.060000E+03	1.315811E-14	2.699655E-15
6.070000E+03	1.309778E-14	2.689768E-15
6.080000E+03	1.303657E-14	2.678923E-15
6.090000E+03	1.297401E-14	2.667079E-15
6.100000E+03	1.291038E-14	2.654360E-15
6.110000E+03	1.284553E-14	2.640793E-15
6.120000E+03	1.277928E-14	2.626408E-15
6.130000E+03	1.271162E-14	2.611271E-15
6.140000E+03	1.264269E-14	2.595479E-15
6.150000E+03	1.257234E-14	2.579066E-15
6.160000E+03	1.250056E-14	2.562102E-15
6.170000E+03	1.242764E-14	2.544721E-15
6.180000E+03	1.235328E-14	2.526928E-15
6.190000E+03	1.227761E-14	2.508826E-15
6.200000E+03	1.220080E-14	2.490519E-15
6.210000E+03	1.212298E-14	2.472109E-15
6.220000E+03	1.204401E-14	2.453634E-15
6.230000E+03	1.196388E-14	2.435164E-15
6.240000E+03	1.188274E-14	2.416799E-15
6.250000E+03	1.180044E-14	2.398575E-15
6.260000E+03	1.171713E-14	2.380588E-15
6.270000E+03	1.163282E-14	2.362901E-15
6.280000E+03	1.154765E-14	2.345604E-15
6.290000E+03	1.146163E-14	2.328755E-15
6.300000E+03	1.137477E-14	2.312405E-15
6.310000E+03	1.128721E-14	2.296637E-15
6.320000E+03	1.119913E-14	2.281524E-15
6.330000E+03	1.111037E-14	2.267076E-15
6.340000E+03	1.102108E-14	2.253358E-15
6.350000E+03	1.093144E-14	2.240433E-15
6.360000E+03	1.084128E-14	2.228292E-15
6.370000E+03	1.075093E-14	2.217016E-15
6.380000E+03	1.066039E-14	2.206620E-15
6.390000E+03	1.056967E-14	2.197110E-15
6.400000E+03	1.047878E-14	2.188487E-15
6.410000E+03	1.038803E-14	2.180812E-15
6.420000E+03	1.029727E-14	2.174042E-15
6.430000E+03	1.020682E-14	2.168229E-15
6.440000E+03	1.011668E-14	2.163352E-15
6.450000E+03	1.002687E-14	2.159388E-15
6.460000E+03	9.937535E-15	2.156342E-15
6.470000E+03	9.848690E-15	2.154183E-15
6.480000E+03	9.760492E-15	2.152908E-15
6.490000E+03	9.672651E-15	2.152415E-15
6.500000E+03	9.585472E-15	2.152729E-15
6.510000E+03	9.498963E-15	2.153808E-15
6.520000E+03	9.412986E-15	2.155574E-15
6.530000E+03	9.327695E-15	2.158015E-15
6.540000E+03	9.243099E-15	2.161086E-15
6.550000E+03	9.159206E-15	2.164740E-15
6.560000E+03	9.076024E-15	2.168929E-15
6.570000E+03	8.993705E-15	2.173643E-15
6.580000E+03	8.912113E-15	2.178799E-15
6.590000E+03	8.831253E-15	2.184354E-15
6.600000E+03	8.751279E-15	2.190298E-15
6.610000E+03	8.672195E-15	2.196589E-15
6.620000E+03	8.593865E-15	2.203149E-15
6.630000E+03	8.516438E-15	2.209975E-15
6.640000E+03	8.439777E-15	2.216991E-15
6.650000E+03	8.364173E-15	2.224235E-15
6.660000E+03	8.289346E-15	2.231599E-15
6.670000E+03	8.215302E-15	2.239049E-15
6.680000E+03	8.142187E-15	2.246593E-15
6.690000E+03	8.070006E-15	2.254201E-15
6.700000E+03	7.998623E-15	2.261807E-15
6.710000E+03	7.928042E-15	2.269387E-15
6.720000E+03	7.858407E-15	2.276955E-15
6.730000E+03	7.789582E-15	2.284452E-15
6.740000E+03	7.721708E-15	2.291896E-15
6.750000E+03	7.654516E-15	2.299190E-15
6.760000E+03	7.588281E-15	2.306397E-15
6.770000E+03	7.522733E-15	2.313420E-15
6.780000E+03	7.458149E-15	2.320329E-15
6.790000E+03	7.394259E-15	2.327027E-15
6.800000E+03	7.331201E-15	2.333547E-15
6.810000E+03	7.268977E-15	2.339878E-15
6.820000E+03	7.207455E-15	2.345969E-15
6.830000E+03	7.146772E-15	2.351856E-15
6.840000E+03	7.086797E-15	2.357490E-15
6.850000E+03	7.027662E-15	2.362909E-15
6.860000E+03	6.969108E-15	2.368020E-15
6.870000E+03	6.911399E-15	2.372910E-15
6.880000E+03	6.854403E-15	2.377531E-15
6.890000E+03	6.798125E-15	2.381882E-15
6.900000E+03	6.742435E-15	2.385916E-15
6.910000E+03	6.687593E-15	2.389723E-15
6.920000E+03	6.633216E-15	2.393168E-15
6.930000E+03	6.579687E-15	2.396388E-15
6.940000E+03	6.526754E-15	2.399294E-15
6.950000E+03	6.474419E-15	2.401886E-15
6.960000E+03	6.422807E-15	2.404214E-15
6.970000E+03	6.371795E-15	2.406235E-15
6.980000E+03	6.321384E-15	2.407951E-15
6.990000E+03	6.271576E-15	2.409366E-15
7.000000E+03	6.222370E-15	2.410483E-15
7.010000E+03	6.173769E-15	2.411308E-15
7.020000E+03	6.125652E-15	2.411798E-15
7.030000E+03	6.078261E-15	2.412051E-15
7.040000E+03	6.031238E-15	2.411931E-15
7.050000E+03	5.984941E-15	2.411585E-15
7.060000E+03	5.939016E-15	2.410876E-15
7.070000E+03	5.893700E-15	2.409905E-15
7.080000E+03	5.848876E-15	2.408630E-15
7.090000E+03	5.804547E-15	2.407056E-15
7.100000E+03	5.760829E-15	2.405238E-15
7.110000E+03	5.717492E-15	2.403086E-15
7.120000E+03	5.674653E-15	2.400654E-15
7.130000E+03	5.632199E-15	2.397900E-15
7.140000E+03	5.590247E-15	2.394880E-15
7.150000E+03	5.548797E-15	2.391598E-15
7.160000E+03	5.507738E-15	2.388015E-15
7.170000E+03	5.467184E-15	2.384184E-15
7.180000E+03	5.426915E-15	2.380015E-15
7.190000E+03	5.387154E-15	2.375613E-15
7.200000E+03	5.347792E-15	2.370936E-15
7.210000E+03	5.308724E-15	2.365942E-15
7.220000E+03	5.270061E-15	2.360686E-15
7.230000E+03	5.231805E-15	2.355176E-15
7.240000E+03	5.193850E-15	2.349370E-15
7.250000E+03	5.156202E-15	2.343275E-15
7.260000E+03	5.118862E-15	2.336898E-15
7.270000E+03	5.081836E-15	2.330247E-15
7.280000E+03	5.045125E-15	2.323329E-15
7.290000E+03	5.008526E-15	2.316054E-15
7.300000E+03	4.972251E-15	2.308526E-15
7.310000E+03	4.936202E-15	2.300705E-15
7.320000E+03	4.900281E-15	2.292551E-15
7.330000E+03	4.864596E-15	2.284118E-15
7.340000E+03	4.828949E-15	2.275319E-15
7.350000E+03	4.793348E-15	2.266163E-15
7.360000E+03	4.757802E-15	2.256658E-15
7.370000E+03	4.722217E-15	2.246763E-15
7.380000E+03	4.686704E-15	2.236537E-15
7.390000E+03	4.650973E-15	2.225845E-15
7.400000E+03	4.615233E-15	2.214791E-15
7.410000E+03	4.579298E-15	2.203291E-15
7.420000E+03	4.543276E-15	2.191401E-15
7.430000E+03	4.507083E-15	2.179085E-15
7.440000E+03	4.470728E-15	2.166351E-15
7.450000E+03	4.434318E-15	2.153256E-15
7.460000E+03	4.397768E-15	2.139764E-15
7.470000E+03	4.361370E-15	2.126022E-15
7.480000E+03	4.324944E-15	2.111947E-15
7.490000E+03	4.288683E-15	2.097640E-15
7.500000E+03	4.252502E-15	2.083064E-15
7.510000E+03	4.216681E-15	2.068363E-15
7.520000E+03	4.181132E-15	2.053499E-15
7.530000E+03	4.145858E-15	2.038479E-15
7.540000E+03	4.110952E-15	2.023357E-15
7.550000E+03	4.076417E-15	2.008137E-15
7.560000E+03	4.042432E-15	1.992916E-15
7.570000E+03	4.008818E-15	1.977610E-15
7.580000E+03	3.975665E-15	1.962270E-15
7.590000E+03	3.943061E-15	1.946943E-15
7.600000E+03	3.910916E-15	1.931593E-15
7.610000E+03	3.879318E-15	1.916266E-15
7.620000E+03	3.848178E-15	1.900925E-15
7.630000E+03	3.817668E-15	1.885659E-15
7.640000E+03	3.787613E-15	1.870387E-15
7.650000E+03	3.758183E-15	1.855197E-15
7.660000E+03	3.729206E-15	1.840009E-15
7.670000E+03	3.700850E-15	1.824910E-15
7.680000E+03	3.672944E-15	1.809820E-15
7.690000E+03	3.645654E-15	1.794825E-15
7.700000E+03	3.618894E-15	1.779885E-15
7.710000E+03	3.592662E-15	1.765005E-15
7.720000E+03	3.566956E-15	1.750186E-15
7.730000E+03	3.541775E-15	1.735430E-15
7.740000E+03	3.517116E-15	1.720740E-15
7.750000E+03	3.492897E-15	1.706079E-15
7.760000E+03	3.469278E-15	1.691527E-15
