#wls	flux	fluxerr
1.600000E+03	1.226876E-16	1.141464E-16
1.640000E+03	1.223321E-16	1.129090E-16
1.680000E+03	1.221470E-16	1.118375E-16
1.720000E+03	1.221157E-16	1.109134E-16
1.760000E+03	1.222684E-16	1.101602E-16
1.800000E+03	1.226353E-16	1.096008E-16
1.840000E+03	1.232018E-16	1.092171E-16
1.880000E+03	1.239995E-16	1.090323E-16
1.920000E+03	1.250384E-16	1.090493E-16
1.960000E+03	1.263291E-16	1.092717E-16
2.000000E+03	1.278836E-16	1.097033E-16
2.040000E+03	1.297149E-16	1.103484E-16
2.080000E+03	1.318847E-16	1.112520E-16
2.120000E+03	1.343623E-16	1.123793E-16
2.160000E+03	1.372135E-16	1.137769E-16
2.200000E+03	1.404346E-16	1.154314E-16
2.240000E+03	1.440729E-16	1.173707E-16
2.280000E+03	1.481792E-16	1.196241E-16
2.320000E+03	1.527570E-16	1.221805E-16
2.360000E+03	1.578903E-16	1.250922E-16
2.400000E+03	1.635892E-16	1.283502E-16
2.440000E+03	1.699208E-16	1.319882E-16
2.480000E+03	1.769586E-16	1.360422E-16
2.520000E+03	1.847541E-16	1.405275E-16
2.560000E+03	1.933938E-16	1.454831E-16
2.600000E+03	2.029733E-16	1.509497E-16
2.640000E+03	2.135976E-16	1.569702E-16
2.680000E+03	2.253497E-16	1.635654E-16
2.720000E+03	2.383884E-16	1.708049E-16
2.760000E+03	2.528542E-16	1.787366E-16
2.800000E+03	2.689020E-16	1.874095E-16
2.840000E+03	2.867017E-16	1.968729E-16
2.880000E+03	3.064793E-16	2.072024E-16
2.920000E+03	3.284844E-16	2.184746E-16
2.960000E+03	3.530348E-16	2.307937E-16
3.000000E+03	3.803489E-16	2.441783E-16
3.010000E+03	3.876433E-16	2.476968E-16
3.020000E+03	3.952000E-16	2.513279E-16
3.030000E+03	4.028869E-16	2.549849E-16
3.040000E+03	4.108455E-16	2.587551E-16
3.050000E+03	4.190350E-16	2.626095E-16
3.060000E+03	4.274127E-16	2.665186E-16
3.070000E+03	4.360299E-16	2.705119E-16
3.080000E+03	4.449403E-16	2.746190E-16
3.090000E+03	4.540522E-16	2.787803E-16
3.100000E+03	4.634188E-16	2.830254E-16
3.110000E+03	4.730953E-16	2.873843E-16
3.120000E+03	4.829873E-16	2.917961E-16
3.130000E+03	4.932007E-16	2.963213E-16
3.140000E+03	5.037425E-16	3.009598E-16
3.150000E+03	5.145153E-16	3.056494E-16
3.160000E+03	5.256283E-16	3.104513E-16
3.170000E+03	5.370355E-16	3.153337E-16
3.180000E+03	5.487962E-16	3.203271E-16
3.190000E+03	5.609177E-16	3.254310E-16
3.200000E+03	5.733524E-16	3.306126E-16
3.210000E+03	5.861616E-16	3.359027E-16
3.220000E+03	5.993527E-16	3.413000E-16
3.230000E+03	6.129332E-16	3.468034E-16
3.240000E+03	6.268533E-16	3.523792E-16
3.250000E+03	6.412348E-16	3.580902E-16
3.260000E+03	6.559699E-16	3.638701E-16
3.270000E+03	6.711829E-16	3.697817E-16
3.280000E+03	6.868235E-16	3.757906E-16
3.290000E+03	7.028994E-16	3.818945E-16
3.300000E+03	7.194794E-16	3.881238E-16
3.310000E+03	7.365114E-16	3.944428E-16
3.320000E+03	7.540655E-16	4.008819E-16
3.330000E+03	7.721514E-16	4.074382E-16
3.340000E+03	7.907148E-16	4.140748E-16
3.350000E+03	8.098277E-16	4.208216E-16
3.360000E+03	8.294999E-16	4.276748E-16
3.370000E+03	8.497407E-16	4.346304E-16
3.380000E+03	8.705596E-16	4.416838E-16
3.390000E+03	8.920334E-16	4.488644E-16
3.400000E+03	9.141052E-16	4.561332E-16
3.410000E+03	9.367842E-16	4.634848E-16
3.420000E+03	9.601490E-16	4.709476E-16
3.430000E+03	9.841403E-16	4.784813E-16
3.440000E+03	1.008838E-15	4.861138E-16
3.450000E+03	1.034252E-15	4.938381E-16
3.460000E+03	1.060394E-15	5.016471E-16
3.470000E+03	1.087273E-15	5.095329E-16
3.480000E+03	1.114974E-15	5.175219E-16
3.490000E+03	1.143359E-15	5.255367E-16
3.500000E+03	1.172587E-15	5.336369E-16
3.510000E+03	1.202668E-15	5.418130E-16
3.520000E+03	1.233537E-15	5.500204E-16
3.530000E+03	1.265359E-15	5.583171E-16
3.540000E+03	1.297987E-15	5.666233E-16
3.550000E+03	1.331511E-15	5.749616E-16
3.560000E+03	1.366018E-15	5.833536E-16
3.570000E+03	1.401359E-15	5.917181E-16
3.580000E+03	1.437785E-15	6.001439E-16
3.590000E+03	1.475143E-15	6.085485E-16
3.600000E+03	1.513524E-15	6.169508E-16
3.610000E+03	1.552853E-15	6.253016E-16
3.620000E+03	1.593307E-15	6.336520E-16
3.630000E+03	1.634808E-15	6.419514E-16
3.640000E+03	1.677365E-15	6.501820E-16
3.650000E+03	1.720983E-15	6.583256E-16
3.660000E+03	1.765844E-15	6.664294E-16
3.670000E+03	1.811780E-15	6.744070E-16
3.680000E+03	1.858795E-15	6.822382E-16
3.690000E+03	1.907071E-15	6.899671E-16
3.700000E+03	1.956525E-15	6.975388E-16
3.710000E+03	2.007161E-15	7.049305E-16
3.720000E+03	2.059071E-15	7.121506E-16
3.730000E+03	2.112169E-15	7.191426E-16
3.740000E+03	2.166546E-15	7.259134E-16
3.750000E+03	2.222112E-15	7.324056E-16
3.760000E+03	2.279053E-15	7.386552E-16
3.770000E+03	2.337276E-15	7.446034E-16
3.780000E+03	2.396683E-15	7.501922E-16
3.790000E+03	2.457462E-15	7.554539E-16
3.800000E+03	2.519613E-15	7.603587E-16
3.810000E+03	2.583033E-15	7.648470E-16
3.820000E+03	2.647717E-15	7.688891E-16
3.830000E+03	2.713857E-15	7.725116E-16
3.840000E+03	2.781247E-15	7.756256E-16
3.850000E+03	2.849879E-15	7.782005E-16
3.860000E+03	2.919945E-15	7.802594E-16
3.870000E+03	2.991335E-15	7.817418E-16
3.880000E+03	3.064039E-15	7.826151E-16
3.890000E+03	3.138047E-15	7.828464E-16
3.900000E+03	3.213344E-15	7.824027E-16
3.910000E+03	3.289920E-15	7.812510E-16
3.920000E+03	3.367759E-15	7.793585E-16
3.930000E+03	3.446955E-15	7.767162E-16
3.940000E+03	3.527280E-15	7.732433E-16
3.950000E+03	3.608932E-15	7.689543E-16
3.960000E+03	3.691789E-15	7.637935E-16
3.970000E+03	3.775836E-15	7.577290E-16
3.980000E+03	3.860949E-15	7.507085E-16
3.990000E+03	3.947327E-15	7.427438E-16
4.000000E+03	4.034738E-15	7.337632E-16
4.010000E+03	4.123274E-15	7.237582E-16
4.020000E+03	4.212809E-15	7.126816E-16
4.030000E+03	4.303437E-15	7.005252E-16
4.040000E+03	4.395033E-15	6.872451E-16
4.050000E+03	4.487580E-15	6.728176E-16
4.060000E+03	4.580952E-15	6.572044E-16
4.070000E+03	4.675244E-15	6.404025E-16
4.080000E+03	4.770219E-15	6.223641E-16
4.090000E+03	4.866082E-15	6.031052E-16
4.100000E+03	4.962709E-15	5.825995E-16
4.110000E+03	5.059856E-15	5.608151E-16
4.120000E+03	5.157621E-15	5.377660E-16
4.130000E+03	5.255984E-15	5.134587E-16
4.140000E+03	5.354815E-15	4.878981E-16
4.150000E+03	5.454091E-15	4.611134E-16
4.160000E+03	5.553676E-15	4.331417E-16
4.170000E+03	5.653430E-15	4.040461E-16
4.180000E+03	5.753436E-15	3.739423E-16
4.190000E+03	5.853549E-15	3.429817E-16
4.200000E+03	5.953618E-15	3.113991E-16
4.210000E+03	6.053601E-15	2.795672E-16
4.220000E+03	6.153341E-15	2.480675E-16
4.230000E+03	6.252792E-15	2.178471E-16
4.240000E+03	6.351794E-15	1.904457E-16
4.250000E+03	6.450299E-15	1.683054E-16
4.260000E+03	6.548148E-15	1.548216E-16
4.270000E+03	6.645182E-15	1.533570E-16
4.280000E+03	6.741475E-15	1.651101E-16
4.290000E+03	6.836870E-15	1.882702E-16
4.300000E+03	6.931213E-15	2.197163E-16
4.310000E+03	7.024352E-15	2.567319E-16
4.320000E+03	7.116368E-15	2.974554E-16
4.330000E+03	7.207115E-15	3.406853E-16
4.340000E+03	7.296443E-15	3.856429E-16
4.350000E+03	7.384436E-15	4.318166E-16
4.360000E+03	7.470826E-15	4.788296E-16
4.370000E+03	7.555690E-15	5.264192E-16
4.380000E+03	7.638871E-15	5.743685E-16
4.390000E+03	7.720324E-15	6.225068E-16
4.400000E+03	7.800000E-15	6.706900E-16
4.410000E+03	7.877733E-15	7.187820E-16
4.420000E+03	7.953700E-15	7.666906E-16
4.430000E+03	8.027614E-15	8.142914E-16
4.440000E+03	8.099418E-15	8.614870E-16
4.450000E+03	8.169170E-15	9.081984E-16
4.460000E+03	8.236582E-15	9.543134E-16
4.470000E+03	8.301711E-15	9.997609E-16
4.480000E+03	8.364386E-15	1.044447E-15
4.490000E+03	8.424551E-15	1.088292E-15
4.500000E+03	8.481928E-15	1.131192E-15
4.510000E+03	8.536580E-15	1.173085E-15
4.520000E+03	8.588456E-15	1.213902E-15
4.530000E+03	8.637290E-15	1.253542E-15
4.540000E+03	8.683041E-15	1.291936E-15
4.550000E+03	8.725783E-15	1.329038E-15
4.560000E+03	8.765262E-15	1.364753E-15
4.570000E+03	8.801560E-15	1.399040E-15
4.580000E+03	8.834653E-15	1.431845E-15
4.590000E+03	8.864302E-15	1.463080E-15
4.600000E+03	8.890712E-15	1.492734E-15
4.610000E+03	8.913655E-15	1.520727E-15
4.620000E+03	8.933236E-15	1.547036E-15
4.630000E+03	8.949454E-15	1.571625E-15
4.640000E+03	8.962313E-15	1.594463E-15
4.650000E+03	8.971823E-15	1.615520E-15
4.660000E+03	8.977890E-15	1.634754E-15
4.670000E+03	8.980745E-15	1.652182E-15
4.680000E+03	8.980200E-15	1.667751E-15
4.690000E+03	8.976490E-15	1.681486E-15
4.700000E+03	8.969438E-15	1.693340E-15
4.710000E+03	8.959184E-15	1.703329E-15
4.720000E+03	8.945766E-15	1.711452E-15
4.730000E+03	8.929026E-15	1.717674E-15
4.740000E+03	8.909015E-15	1.722003E-15
4.750000E+03	8.885687E-15	1.724430E-15
4.760000E+03	8.859004E-15	1.724952E-15
4.770000E+03	8.828837E-15	1.723550E-15
4.780000E+03	8.795259E-15	1.720248E-15
4.790000E+03	8.758059E-15	1.715017E-15
4.800000E+03	8.717707E-15	1.707964E-15
4.810000E+03	8.674188E-15	1.699104E-15
4.820000E+03	8.627775E-15	1.688514E-15
4.830000E+03	8.578645E-15	1.676250E-15
4.840000E+03	8.527156E-15	1.662409E-15
4.850000E+03	8.473202E-15	1.646998E-15
4.860000E+03	8.417138E-15	1.630115E-15
4.870000E+03	8.359041E-15	1.611807E-15
4.880000E+03	8.299077E-15	1.592139E-15
4.890000E+03	8.237321E-15	1.571158E-15
4.900000E+03	8.173939E-15	1.548931E-15
4.910000E+03	8.108917E-15	1.525492E-15
4.920000E+03	8.042504E-15	1.500925E-15
4.930000E+03	7.974774E-15	1.475281E-15
4.940000E+03	7.905797E-15	1.448611E-15
4.950000E+03	7.835647E-15	1.420968E-15
4.960000E+03	7.764397E-15	1.392405E-15
4.970000E+03	7.692200E-15	1.362988E-15
4.980000E+03	7.619124E-15	1.332770E-15
4.990000E+03	7.545317E-15	1.301816E-15
5.000000E+03	7.470689E-15	1.270151E-15
5.010000E+03	7.395542E-15	1.237866E-15
5.020000E+03	7.319784E-15	1.204986E-15
5.030000E+03	7.243482E-15	1.171562E-15
5.040000E+03	7.166924E-15	1.137679E-15
5.050000E+03	7.089947E-15	1.103351E-15
5.060000E+03	7.012759E-15	1.068648E-15
5.070000E+03	6.935346E-15	1.033607E-15
5.080000E+03	6.857837E-15	9.982845E-16
5.090000E+03	6.780286E-15	9.627264E-16
5.100000E+03	6.702749E-15	9.269767E-16
5.110000E+03	6.625278E-15	8.910790E-16
5.120000E+03	6.547924E-15	8.550763E-16
5.130000E+03	6.470803E-15	8.190189E-16
5.140000E+03	6.393897E-15	7.829392E-16
5.150000E+03	6.317253E-15	7.468783E-16
5.160000E+03	6.240980E-15	7.108838E-16
5.170000E+03	6.165120E-15	6.749949E-16
5.180000E+03	6.089651E-15	6.392443E-16
5.190000E+03	6.014736E-15	6.036850E-16
5.200000E+03	5.940289E-15	5.683449E-16
5.210000E+03	5.866407E-15	5.332726E-16
5.220000E+03	5.793181E-15	4.985177E-16
5.230000E+03	5.720580E-15	4.641227E-16
5.240000E+03	5.648633E-15	4.301415E-16
5.250000E+03	5.577367E-15	3.966360E-16
5.260000E+03	5.506914E-15	3.636873E-16
5.270000E+03	5.437128E-15	3.313745E-16
5.280000E+03	5.368189E-15	2.998242E-16
5.290000E+03	5.300002E-15	2.691844E-16
5.300000E+03	5.232685E-15	2.396738E-16
5.310000E+03	5.166138E-15	2.115908E-16
5.320000E+03	5.100471E-15	1.853841E-16
5.330000E+03	5.035685E-15	1.617103E-16
5.340000E+03	4.971728E-15	1.415256E-16
5.350000E+03	4.908651E-15	1.261266E-16
5.360000E+03	4.846451E-15	1.169518E-16
5.370000E+03	4.785172E-15	1.149776E-16
5.380000E+03	4.724763E-15	1.200111E-16
5.390000E+03	4.665266E-15	1.307097E-16
5.400000E+03	4.606723E-15	1.453268E-16
5.410000E+03	4.549036E-15	1.623497E-16
5.420000E+03	4.492289E-15	1.806977E-16
5.430000E+03	4.436472E-15	1.996517E-16
5.440000E+03	4.381533E-15	2.187434E-16
5.450000E+03	4.327546E-15	2.376746E-16
5.460000E+03	4.274454E-15	2.562457E-16
5.470000E+03	4.222243E-15	2.743265E-16
5.480000E+03	4.170938E-15	2.918337E-16
5.490000E+03	4.120520E-15	3.087110E-16
5.500000E+03	4.070931E-15	3.249191E-16
5.510000E+03	4.022153E-15	3.404352E-16
5.520000E+03	3.974208E-15	3.552500E-16
5.530000E+03	3.927075E-15	3.693580E-16
5.540000E+03	3.880697E-15	3.827552E-16
5.550000E+03	3.835057E-15	3.954445E-16
5.560000E+03	3.790137E-15	4.074317E-16
5.570000E+03	3.745921E-15	4.187247E-16
5.580000E+03	3.702392E-15	4.293327E-16
5.590000E+03	3.659497E-15	4.392620E-16
5.600000E+03	3.617224E-15	4.485237E-16
5.610000E+03	3.575594E-15	4.571340E-16
5.620000E+03	3.534522E-15	4.650963E-16
5.630000E+03	3.493999E-15	4.724231E-16
5.640000E+03	3.454048E-15	4.791317E-16
5.650000E+03	3.414623E-15	4.852307E-16
5.660000E+03	3.375716E-15	4.907330E-16
5.670000E+03	3.337317E-15	4.956520E-16
5.680000E+03	3.299385E-15	4.999961E-16
5.690000E+03	3.261914E-15	5.037784E-16
5.700000E+03	3.224897E-15	5.070124E-16
5.710000E+03	3.188358E-15	5.097163E-16
5.720000E+03	3.152230E-15	5.118934E-16
5.730000E+03	3.116507E-15	5.135570E-16
5.740000E+03	3.081216E-15	5.147253E-16
5.750000E+03	3.046322E-15	5.154065E-16
5.760000E+03	3.011820E-15	5.156137E-16
5.770000E+03	2.977738E-15	5.153650E-16
5.780000E+03	2.944012E-15	5.146634E-16
5.790000E+03	2.910640E-15	5.135219E-16
5.800000E+03	2.877677E-15	5.119633E-16
5.810000E+03	2.845036E-15	5.099855E-16
5.820000E+03	2.812770E-15	5.076111E-16
5.830000E+03	2.780877E-15	5.048529E-16
5.840000E+03	2.749301E-15	5.017135E-16
5.850000E+03	2.718067E-15	4.982103E-16
5.860000E+03	2.687200E-15	4.943605E-16
5.870000E+03	2.656646E-15	4.901668E-16
5.880000E+03	2.626405E-15	4.856413E-16
5.890000E+03	2.596526E-15	4.808058E-16
5.900000E+03	2.566931E-15	4.756579E-16
5.910000E+03	2.537671E-15	4.702190E-16
5.920000E+03	2.508745E-15	4.645009E-16
5.930000E+03	2.480102E-15	4.585061E-16
5.940000E+03	2.451790E-15	4.522552E-16
5.950000E+03	2.423785E-15	4.457552E-16
5.960000E+03	2.396061E-15	4.390132E-16
5.970000E+03	2.368667E-15	4.320491E-16
5.980000E+03	2.341576E-15	4.248698E-16
5.990000E+03	2.314789E-15	4.174862E-16
6.000000E+03	2.288304E-15	4.099093E-16
6.010000E+03	2.262120E-15	4.021500E-16
6.020000E+03	2.236238E-15	3.942191E-16
6.030000E+03	2.210677E-15	3.861310E-16
6.040000E+03	2.185393E-15	3.778886E-16
6.050000E+03	2.160449E-15	3.695138E-16
6.060000E+03	2.135802E-15	3.610095E-16
6.070000E+03	2.111491E-15	3.523930E-16
6.080000E+03	2.087473E-15	3.436676E-16
6.090000E+03	2.063809E-15	3.348538E-16
6.100000E+03	2.040454E-15	3.259548E-16
6.110000E+03	2.017468E-15	3.169907E-16
6.120000E+03	1.994807E-15	3.079649E-16
6.130000E+03	1.972508E-15	2.988940E-16
6.140000E+03	1.950548E-15	2.897850E-16
6.150000E+03	1.928944E-15	2.806517E-16
6.160000E+03	1.907693E-15	2.715047E-16
6.170000E+03	1.886735E-15	2.623475E-16
6.180000E+03	1.866086E-15	2.531952E-16
6.190000E+03	1.845727E-15	2.440587E-16
6.200000E+03	1.825711E-15	2.349592E-16
6.210000E+03	1.806017E-15	2.259089E-16
6.220000E+03	1.786661E-15	2.169262E-16
6.230000E+03	1.767604E-15	2.080242E-16
6.240000E+03	1.748861E-15	1.992247E-16
6.250000E+03	1.730414E-15	1.905474E-16
6.260000E+03	1.712243E-15	1.820152E-16
6.270000E+03	1.694365E-15	1.736578E-16
6.280000E+03	1.676743E-15	1.655033E-16
6.290000E+03	1.659410E-15	1.575914E-16
6.300000E+03	1.642315E-15	1.499581E-16
6.310000E+03	1.625473E-15	1.426522E-16
6.320000E+03	1.608901E-15	1.357281E-16
6.330000E+03	1.592580E-15	1.292438E-16
6.340000E+03	1.576494E-15	1.232635E-16
6.350000E+03	1.560673E-15	1.178607E-16
6.360000E+03	1.545100E-15	1.131079E-16
6.370000E+03	1.529774E-15	1.090784E-16
6.380000E+03	1.514692E-15	1.058397E-16
6.390000E+03	1.499868E-15	1.034484E-16
6.400000E+03	1.485283E-15	1.019398E-16
6.410000E+03	1.470965E-15	1.013281E-16
6.420000E+03	1.456877E-15	1.015953E-16
6.430000E+03	1.443044E-15	1.027016E-16
6.440000E+03	1.429460E-15	1.045830E-16
6.450000E+03	1.416103E-15	1.071597E-16
6.460000E+03	1.402994E-15	1.103474E-16
6.470000E+03	1.390128E-15	1.140585E-16
6.480000E+03	1.377481E-15	1.182075E-16
6.490000E+03	1.365077E-15	1.227193E-16
6.500000E+03	1.352892E-15	1.275231E-16
6.510000E+03	1.340950E-15	1.325607E-16
6.520000E+03	1.329200E-15	1.377753E-16
6.530000E+03	1.317678E-15	1.431263E-16
6.540000E+03	1.306350E-15	1.485727E-16
6.550000E+03	1.295223E-15	1.540840E-16
6.560000E+03	1.284263E-15	1.596296E-16
6.570000E+03	1.273507E-15	1.651920E-16
6.580000E+03	1.262908E-15	1.707468E-16
6.590000E+03	1.252487E-15	1.762815E-16
6.600000E+03	1.242239E-15	1.817829E-16
6.610000E+03	1.232146E-15	1.872376E-16
6.620000E+03	1.222203E-15	1.926363E-16
6.630000E+03	1.212419E-15	1.979729E-16
6.640000E+03	1.202789E-15	2.032411E-16
6.650000E+03	1.193310E-15	2.084352E-16
6.660000E+03	1.183962E-15	2.135485E-16
6.670000E+03	1.174769E-15	2.185817E-16
6.680000E+03	1.165714E-15	2.235294E-16
6.690000E+03	1.156793E-15	2.283892E-16
6.700000E+03	1.148002E-15	2.331588E-16
6.710000E+03	1.139350E-15	2.378392E-16
6.720000E+03	1.130834E-15	2.424294E-16
6.730000E+03	1.122450E-15	2.469283E-16
6.740000E+03	1.114195E-15	2.513355E-16
6.750000E+03	1.106079E-15	2.556532E-16
6.760000E+03	1.098085E-15	2.598786E-16
6.770000E+03	1.090210E-15	2.640116E-16
6.780000E+03	1.082464E-15	2.680552E-16
6.790000E+03	1.074845E-15	2.720097E-16
6.800000E+03	1.067348E-15	2.758757E-16
6.810000E+03	1.059971E-15	2.796536E-16
6.820000E+03	1.052724E-15	2.833472E-16
6.830000E+03	1.045591E-15	2.869540E-16
6.840000E+03	1.038582E-15	2.904780E-16
6.850000E+03	1.031683E-15	2.939167E-16
6.860000E+03	1.024903E-15	2.972742E-16
6.870000E+03	1.018239E-15	3.005515E-16
6.880000E+03	1.011690E-15	3.037494E-16
6.890000E+03	1.005252E-15	3.068690E-16
6.900000E+03	9.989350E-16	3.099147E-16
6.910000E+03	9.927135E-16	3.128802E-16
6.920000E+03	9.866087E-16	3.157739E-16
6.930000E+03	9.806066E-16	3.185930E-16
6.940000E+03	9.747170E-16	3.213423E-16
6.950000E+03	9.689260E-16	3.240189E-16
6.960000E+03	9.632432E-16	3.266278E-16
6.970000E+03	9.576551E-16	3.291658E-16
6.980000E+03	9.521714E-16	3.316381E-16
6.990000E+03	9.467901E-16	3.340455E-16
7.000000E+03	9.414979E-16	3.363849E-16
7.010000E+03	9.362932E-16	3.386572E-16
7.020000E+03	9.311970E-16	3.408716E-16
7.030000E+03	9.261849E-16	3.430207E-16
7.040000E+03	9.212665E-16	3.451096E-16
7.050000E+03	9.164289E-16	3.471348E-16
7.060000E+03	9.116819E-16	3.491016E-16
7.070000E+03	9.070127E-16	3.510063E-16
7.080000E+03	9.024310E-16	3.528541E-16
7.090000E+03	8.979355E-16	3.546459E-16
7.100000E+03	8.935135E-16	3.563781E-16
7.110000E+03	8.891749E-16	3.580557E-16
7.120000E+03	8.849071E-16	3.596750E-16
7.130000E+03	8.807089E-16	3.612368E-16
7.140000E+03	8.765902E-16	3.627463E-16
7.150000E+03	8.725386E-16	3.641995E-16
7.160000E+03	8.685529E-16	3.655972E-16
7.170000E+03	8.646432E-16	3.669445E-16
7.180000E+03	8.607861E-16	3.682328E-16
7.190000E+03	8.570027E-16	3.694720E-16
7.200000E+03	8.532809E-16	3.706580E-16
7.210000E+03	8.496196E-16	3.717914E-16
7.220000E+03	8.460179E-16	3.728727E-16
7.230000E+03	8.424747E-16	3.739025E-16
7.240000E+03	8.389784E-16	3.748763E-16
7.250000E+03	8.355497E-16	3.758045E-16
7.260000E+03	8.321767E-16	3.766825E-16
7.270000E+03	8.288586E-16	3.775110E-16
7.280000E+03	8.255947E-16	3.782904E-16
7.290000E+03	8.223839E-16	3.790212E-16
7.300000E+03	8.192255E-16	3.797037E-16
7.310000E+03	8.161187E-16	3.803385E-16
7.320000E+03	8.130628E-16	3.809258E-16
7.330000E+03	8.100674E-16	3.814713E-16
7.340000E+03	8.071319E-16	3.819752E-16
7.350000E+03	8.042555E-16	3.824380E-16
7.360000E+03	8.014373E-16	3.828601E-16
7.370000E+03	7.986872E-16	3.832470E-16
7.380000E+03	7.960043E-16	3.835991E-16
7.390000E+03	7.933983E-16	3.839218E-16
7.400000E+03	7.908685E-16	3.842156E-16
7.410000E+03	7.884141E-16	3.844809E-16
7.420000E+03	7.860551E-16	3.847282E-16
7.430000E+03	7.837802E-16	3.849528E-16
7.440000E+03	7.815783E-16	3.851501E-16
7.450000E+03	7.794488E-16	3.853201E-16
7.460000E+03	7.773804E-16	3.854582E-16
7.470000E+03	7.753727E-16	3.855646E-16
7.480000E+03	7.734146E-16	3.856343E-16
7.490000E+03	7.714953E-16	3.856624E-16
7.500000E+03	7.696144E-16	3.856490E-16
7.510000E+03	7.677714E-16	3.855943E-16
7.520000E+03	7.659452E-16	3.854882E-16
7.530000E+03	7.641560E-16	3.853410E-16
7.540000E+03	7.623830E-16	3.851426E-16
7.550000E+03	7.606256E-16	3.848931E-16
7.560000E+03	7.588939E-16	3.845978E-16
7.570000E+03	7.571671E-16	3.842465E-16
7.580000E+03	7.554652E-16	3.838496E-16
7.590000E+03	7.537676E-16	3.833969E-16
7.600000E+03	7.520942E-16	3.828989E-16
7.610000E+03	7.504246E-16	3.823454E-16
7.620000E+03	7.487684E-16	3.817416E-16
7.630000E+03	7.471255E-16	3.810876E-16
7.640000E+03	7.454956E-16	3.803836E-16
7.650000E+03	7.438784E-16	3.796298E-16
7.660000E+03	7.422735E-16	3.788262E-16
7.670000E+03	7.406708E-16	3.779678E-16
7.680000E+03	7.390900E-16	3.770650E-16
7.690000E+03	7.375109E-16	3.761078E-16
7.700000E+03	7.359532E-16	3.751064E-16
7.710000E+03	7.343966E-16	3.740507E-16
7.720000E+03	7.328609E-16	3.729512E-16
7.730000E+03	7.313360E-16	3.718028E-16
7.740000E+03	7.298215E-16	3.706056E-16
7.750000E+03	7.283272E-16	3.693649E-16
7.760000E+03	7.268429E-16	3.680757E-16
