#wls	flux	fluxerr
1.572591E+03	4.364449E-04	6.926348E-06
1.611906E+03	4.270544E-04	6.772386E-06
1.651221E+03	4.158842E-04	6.590310E-06
1.690536E+03	4.031201E-04	6.383131E-06
1.729850E+03	3.888323E-04	6.152030E-06
1.769165E+03	3.729180E-04	5.895449E-06
1.808480E+03	3.551729E-04	5.610236E-06
1.847795E+03	3.355486E-04	5.295717E-06
1.887110E+03	3.138958E-04	4.949631E-06
1.926424E+03	2.904856E-04	4.576355E-06
1.965739E+03	2.661152E-04	4.188534E-06
2.005054E+03	2.423603E-04	3.811011E-06
2.044369E+03	2.214972E-04	3.479544E-06
2.083683E+03	2.060973E-04	3.234379E-06
2.122998E+03	1.978281E-04	3.101412E-06
2.162313E+03	1.967726E-04	3.081606E-06
2.201628E+03	2.015824E-04	3.153510E-06
2.240943E+03	2.102335E-04	3.285191E-06
2.280257E+03	2.207655E-04	3.445833E-06
2.319572E+03	2.317710E-04	3.613382E-06
2.358887E+03	2.425040E-04	3.776178E-06
2.398202E+03	2.525911E-04	3.928413E-06
2.437517E+03	2.620445E-04	4.070296E-06
2.476831E+03	2.709036E-04	4.202463E-06
2.516146E+03	2.794173E-04	4.328792E-06
2.555461E+03	2.877051E-04	4.451136E-06
2.594776E+03	2.960029E-04	4.573139E-06
2.634090E+03	3.044626E-04	4.697132E-06
2.673405E+03	3.132482E-04	4.825615E-06
2.712720E+03	3.225589E-04	4.961613E-06
2.752035E+03	3.324763E-04	5.106328E-06
2.791350E+03	3.431932E-04	5.262656E-06
2.830664E+03	3.548185E-04	5.432184E-06
2.869979E+03	3.675331E-04	5.617592E-06
2.909294E+03	3.815695E-04	5.822321E-06
2.948609E+03	3.972345E-04	6.050917E-06
2.958437E+03	4.014608E-04	6.112625E-06
2.968266E+03	4.057967E-04	6.175929E-06
2.978095E+03	4.102659E-04	6.241188E-06
2.987923E+03	4.148995E-04	6.308872E-06
2.997752E+03	4.197297E-04	6.379467E-06
3.007581E+03	4.247698E-04	6.453170E-06
3.017410E+03	4.300355E-04	6.530215E-06
3.027238E+03	4.355232E-04	6.610542E-06
3.037067E+03	4.412302E-04	6.694104E-06
3.046896E+03	4.471746E-04	6.781171E-06
3.056724E+03	4.533346E-04	6.871409E-06
3.066553E+03	4.597504E-04	6.965417E-06
3.076382E+03	4.663811E-04	7.062574E-06
3.086210E+03	4.732884E-04	7.163804E-06
3.096039E+03	4.804119E-04	7.268191E-06
3.105868E+03	4.878151E-04	7.376688E-06
3.115697E+03	4.954796E-04	7.489011E-06
3.125525E+03	5.034290E-04	7.605507E-06
3.135354E+03	5.116457E-04	7.725907E-06
3.145183E+03	5.201548E-04	7.850580E-06
3.155011E+03	5.289811E-04	7.979895E-06
3.164840E+03	5.381091E-04	8.113609E-06
3.174669E+03	5.475651E-04	8.252110E-06
3.184497E+03	5.573763E-04	8.395800E-06
3.194326E+03	5.675492E-04	8.544769E-06
3.204155E+03	5.780705E-04	8.698806E-06
3.213983E+03	5.889896E-04	8.858645E-06
3.223812E+03	6.003155E-04	9.024413E-06
3.233641E+03	6.120357E-04	9.195907E-06
3.243470E+03	6.242023E-04	9.373904E-06
3.253298E+03	6.368255E-04	9.558543E-06
3.263127E+03	6.499382E-04	9.750305E-06
3.272956E+03	6.635301E-04	9.949025E-06
3.282784E+03	6.776134E-04	1.015487E-05
3.292613E+03	6.922662E-04	1.036900E-05
3.302442E+03	7.074583E-04	1.059094E-05
3.312270E+03	7.232261E-04	1.082124E-05
3.322099E+03	7.395849E-04	1.106009E-05
3.331928E+03	7.565718E-04	1.130803E-05
3.341757E+03	7.742267E-04	1.156566E-05
3.351585E+03	7.925212E-04	1.183252E-05
3.361414E+03	8.115190E-04	1.210954E-05
3.371243E+03	8.312384E-04	1.239699E-05
3.381071E+03	8.516766E-04	1.269480E-05
3.390900E+03	8.728528E-04	1.300323E-05
3.400729E+03	8.948348E-04	1.332328E-05
3.410557E+03	9.175739E-04	1.365419E-05
3.420386E+03	9.411151E-04	1.399661E-05
3.430215E+03	9.654811E-04	1.435087E-05
3.440043E+03	9.906467E-04	1.471656E-05
3.449872E+03	1.016635E-03	1.509399E-05
3.459701E+03	1.043419E-03	1.548276E-05
3.469530E+03	1.071023E-03	1.588318E-05
3.479358E+03	1.099444E-03	1.629520E-05
3.489187E+03	1.128655E-03	1.671839E-05
3.499016E+03	1.158652E-03	1.715268E-05
3.508844E+03	1.189458E-03	1.759836E-05
3.518673E+03	1.221043E-03	1.805498E-05
3.528502E+03	1.253402E-03	1.852243E-05
3.538330E+03	1.286501E-03	1.900021E-05
3.548159E+03	1.320308E-03	1.948779E-05
3.557988E+03	1.354839E-03	1.998540E-05
3.567817E+03	1.390057E-03	2.049247E-05
3.577645E+03	1.425977E-03	2.100920E-05
3.587474E+03	1.462615E-03	2.153581E-05
3.597303E+03	1.499985E-03	2.207247E-05
3.607131E+03	1.538102E-03	2.261937E-05
3.616960E+03	1.576979E-03	2.317671E-05
3.626789E+03	1.616631E-03	2.374464E-05
3.636617E+03	1.657070E-03	2.432334E-05
3.646446E+03	1.698279E-03	2.491253E-05
3.656275E+03	1.740329E-03	2.551323E-05
3.666103E+03	1.783173E-03	2.612470E-05
3.675932E+03	1.826819E-03	2.674706E-05
3.685761E+03	1.871279E-03	2.738043E-05
3.695590E+03	1.916590E-03	2.802535E-05
3.705418E+03	1.962699E-03	2.868101E-05
3.715247E+03	2.009645E-03	2.934793E-05
3.725076E+03	2.057433E-03	3.002618E-05
3.734904E+03	2.106036E-03	3.071533E-05
3.744733E+03	2.155459E-03	3.141541E-05
3.754562E+03	2.205704E-03	3.212644E-05
3.764390E+03	2.256774E-03	3.284843E-05
3.774219E+03	2.308637E-03	3.358087E-05
3.784048E+03	2.361326E-03	3.432423E-05
3.793877E+03	2.414808E-03	3.507799E-05
3.803705E+03	2.469078E-03	3.584207E-05
3.813534E+03	2.524173E-03	3.661694E-05
3.823363E+03	2.580017E-03	3.740150E-05
3.833191E+03	2.636610E-03	3.819570E-05
3.843020E+03	2.693978E-03	3.899990E-05
3.852849E+03	2.752120E-03	3.981407E-05
3.862677E+03	2.810993E-03	4.063753E-05
3.872506E+03	2.870595E-03	4.147025E-05
3.882335E+03	2.930917E-03	4.231206E-05
3.892163E+03	2.991953E-03	4.316283E-05
3.901992E+03	3.053699E-03	4.402250E-05
3.911821E+03	3.116149E-03	4.489096E-05
3.921650E+03	3.179259E-03	4.576753E-05
3.931478E+03	3.243064E-03	4.665268E-05
3.941307E+03	3.307558E-03	4.754632E-05
3.951136E+03	3.372697E-03	4.844778E-05
3.960964E+03	3.438479E-03	4.935700E-05
3.970793E+03	3.504897E-03	5.027386E-05
3.980622E+03	3.571996E-03	5.119898E-05
3.990450E+03	3.639689E-03	5.213109E-05
4.000279E+03	3.708058E-03	5.307134E-05
4.010108E+03	3.777020E-03	5.401850E-05
4.019937E+03	3.846618E-03	5.497316E-05
4.029765E+03	3.916812E-03	5.593475E-05
4.039594E+03	3.987650E-03	5.690390E-05
4.049423E+03	4.059090E-03	5.788001E-05
4.059251E+03	4.131136E-03	5.886309E-05
4.069080E+03	4.203794E-03	5.985321E-05
4.078909E+03	4.277024E-03	6.084978E-05
4.088737E+03	4.350878E-03	6.185350E-05
4.098566E+03	4.425318E-03	6.286381E-05
4.108395E+03	4.500350E-03	6.388079E-05
4.118223E+03	4.575931E-03	6.490378E-05
4.128052E+03	4.652068E-03	6.593288E-05
4.137881E+03	4.728766E-03	6.696811E-05
4.147710E+03	4.805985E-03	6.800889E-05
4.157538E+03	4.883722E-03	6.905517E-05
4.167367E+03	4.961879E-03	7.010554E-05
4.177196E+03	5.040567E-03	7.116152E-05
4.187024E+03	5.119619E-03	7.222076E-05
4.196853E+03	5.199037E-03	7.328326E-05
4.206682E+03	5.278814E-03	7.434891E-05
4.216510E+03	5.358889E-03	7.541682E-05
4.226339E+03	5.439192E-03	7.648601E-05
4.236168E+03	5.519715E-03	7.755635E-05
4.245997E+03	5.600320E-03	7.862589E-05
4.255825E+03	5.681047E-03	7.969519E-05
4.265654E+03	5.761693E-03	8.076138E-05
4.275483E+03	5.842411E-03	8.182662E-05
4.285311E+03	5.922926E-03	8.288704E-05
4.295140E+03	6.003382E-03	8.394467E-05
4.304969E+03	6.083685E-03	8.499818E-05
4.314797E+03	6.163854E-03	8.604785E-05
4.324626E+03	6.243907E-03	8.709394E-05
4.334455E+03	6.324064E-03	8.813949E-05
4.344283E+03	6.404349E-03	8.918487E-05
4.354112E+03	6.484855E-03	9.023132E-05
4.363941E+03	6.565678E-03	9.128019E-05
4.373770E+03	6.646916E-03	9.233284E-05
4.383598E+03	6.728672E-03	9.339066E-05
4.393427E+03	6.810916E-03	9.445323E-05
4.403256E+03	6.893754E-03	9.552198E-05
4.413084E+03	6.977226E-03	9.659746E-05
4.422913E+03	7.061450E-03	9.768128E-05
4.432742E+03	7.146250E-03	9.877096E-05
4.442570E+03	7.231891E-03	9.987016E-05
4.452399E+03	7.318204E-03	1.009765E-04
4.462228E+03	7.405165E-03	1.020897E-04
4.472057E+03	7.492894E-03	1.032112E-04
4.481885E+03	7.581373E-03	1.043410E-04
4.491714E+03	7.670430E-03	1.054765E-04
4.501543E+03	7.760118E-03	1.066184E-04
4.511371E+03	7.850419E-03	1.077666E-04
4.521200E+03	7.941238E-03	1.089196E-04
4.531029E+03	8.032478E-03	1.100762E-04
4.540857E+03	8.124118E-03	1.112359E-04
4.550686E+03	8.216065E-03	1.123977E-04
4.560515E+03	8.308138E-03	1.135589E-04
4.570343E+03	8.400240E-03	1.147182E-04
4.580172E+03	8.492268E-03	1.158743E-04
4.590001E+03	8.584042E-03	1.170246E-04
4.599830E+03	8.675289E-03	1.181655E-04
4.609658E+03	8.765989E-03	1.192967E-04
4.619487E+03	8.855695E-03	1.204122E-04
4.629316E+03	8.944374E-03	1.215116E-04
4.639144E+03	9.031838E-03	1.225923E-04
4.648973E+03	9.117974E-03	1.236529E-04
4.658802E+03	9.202857E-03	1.246944E-04
4.668630E+03	9.286744E-03	1.257204E-04
4.678459E+03	9.369826E-03	1.267335E-04
4.688288E+03	9.452123E-03	1.277340E-04
4.698117E+03	9.533934E-03	1.287259E-04
4.707945E+03	9.615399E-03	1.297113E-04
4.717774E+03	9.696855E-03	1.306945E-04
4.727603E+03	9.778267E-03	1.316753E-04
4.737431E+03	9.859975E-03	1.326581E-04
4.747260E+03	9.941930E-03	1.336422E-04
4.757089E+03	1.002446E-02	1.346323E-04
4.766917E+03	1.010763E-02	1.356289E-04
4.776746E+03	1.019139E-02	1.366316E-04
4.786575E+03	1.027613E-02	1.376453E-04
4.796403E+03	1.036180E-02	1.386697E-04
4.806232E+03	1.044850E-02	1.397059E-04
4.816061E+03	1.053641E-02	1.407562E-04
4.825890E+03	1.062562E-02	1.418219E-04
4.835718E+03	1.071620E-02	1.429039E-04
4.845547E+03	1.080836E-02	1.440048E-04
4.855376E+03	1.090196E-02	1.451229E-04
4.865204E+03	1.099729E-02	1.462619E-04
4.875033E+03	1.109443E-02	1.474229E-04
4.884862E+03	1.119336E-02	1.486053E-04
4.894690E+03	1.129413E-02	1.498100E-04
4.904519E+03	1.139681E-02	1.510378E-04
4.914348E+03	1.150158E-02	1.522909E-04
4.924177E+03	1.160837E-02	1.535684E-04
4.934005E+03	1.171723E-02	1.548709E-04
4.943834E+03	1.182821E-02	1.561989E-04
4.953663E+03	1.194146E-02	1.575545E-04
4.963491E+03	1.205678E-02	1.589347E-04
4.973320E+03	1.217430E-02	1.603413E-04
4.983149E+03	1.229404E-02	1.617746E-04
4.992977E+03	1.241601E-02	1.632344E-04
5.002806E+03	1.254021E-02	1.647209E-04
5.012635E+03	1.266663E-02	1.662337E-04
5.022463E+03	1.279500E-02	1.677693E-04
5.032292E+03	1.292569E-02	1.693323E-04
5.042121E+03	1.305839E-02	1.709188E-04
5.051950E+03	1.319307E-02	1.725282E-04
5.061778E+03	1.332967E-02	1.741597E-04
5.071607E+03	1.346813E-02	1.758124E-04
5.081436E+03	1.360838E-02	1.774855E-04
5.091264E+03	1.375047E-02	1.791794E-04
5.101093E+03	1.389391E-02	1.808877E-04
5.110922E+03	1.403901E-02	1.826144E-04
5.120750E+03	1.418538E-02	1.843544E-04
5.130579E+03	1.433304E-02	1.861080E-04
5.140408E+03	1.448173E-02	1.878716E-04
5.150237E+03	1.463116E-02	1.896417E-04
5.160065E+03	1.478149E-02	1.914199E-04
5.169894E+03	1.493240E-02	1.932026E-04
5.179723E+03	1.508375E-02	1.949875E-04
5.189551E+03	1.523521E-02	1.967706E-04
5.199380E+03	1.538662E-02	1.985497E-04
5.209209E+03	1.553793E-02	2.003243E-04
5.219037E+03	1.568866E-02	2.020882E-04
5.228866E+03	1.583893E-02	2.038429E-04
5.238695E+03	1.598823E-02	2.055819E-04
5.248523E+03	1.613636E-02	2.073026E-04
5.258352E+03	1.628328E-02	2.090047E-04
5.268181E+03	1.642863E-02	2.106835E-04
5.278010E+03	1.657204E-02	2.123345E-04
5.287838E+03	1.671364E-02	2.139592E-04
5.297667E+03	1.685273E-02	2.155488E-04
5.307496E+03	1.698927E-02	2.171031E-04
5.317324E+03	1.712308E-02	2.186196E-04
5.327153E+03	1.725378E-02	2.200938E-04
5.336982E+03	1.738136E-02	2.215256E-04
5.346810E+03	1.750531E-02	2.229084E-04
5.356639E+03	1.762560E-02	2.242424E-04
5.366468E+03	1.774190E-02	2.255232E-04
5.376297E+03	1.785424E-02	2.267514E-04
5.386125E+03	1.796263E-02	2.279275E-04
5.395954E+03	1.806642E-02	2.290430E-04
5.405783E+03	1.816601E-02	2.301035E-04
5.415611E+03	1.826074E-02	2.311007E-04
5.425440E+03	1.835070E-02	2.320358E-04
5.435269E+03	1.843598E-02	2.329103E-04
5.445097E+03	1.851632E-02	2.337209E-04
5.454926E+03	1.859165E-02	2.344671E-04
5.464755E+03	1.866212E-02	2.351507E-04
5.474583E+03	1.872749E-02	2.357691E-04
5.484412E+03	1.878793E-02	2.363246E-04
5.494241E+03	1.884343E-02	2.368171E-04
5.504070E+03	1.889400E-02	2.372471E-04
5.513898E+03	1.893983E-02	2.376170E-04
5.523727E+03	1.898057E-02	2.379228E-04
5.533556E+03	1.901665E-02	2.381697E-04
5.543384E+03	1.904811E-02	2.383588E-04
5.553213E+03	1.907481E-02	2.384883E-04
5.563042E+03	1.909703E-02	2.385618E-04
5.572870E+03	1.911483E-02	2.385803E-04
5.582699E+03	1.912830E-02	2.385452E-04
5.592528E+03	1.913754E-02	2.384577E-04
5.602357E+03	1.914265E-02	2.383193E-04
5.612185E+03	1.914392E-02	2.381338E-04
5.622014E+03	1.914128E-02	2.379003E-04
5.631843E+03	1.913503E-02	2.376229E-04
5.641671E+03	1.912530E-02	2.373032E-04
5.651500E+03	1.911222E-02	2.369429E-04
5.661329E+03	1.909571E-02	2.365413E-04
5.671157E+03	1.907629E-02	2.361049E-04
5.680986E+03	1.905391E-02	2.356330E-04
5.690815E+03	1.902869E-02	2.351275E-04
5.700643E+03	1.900097E-02	2.345924E-04
5.710472E+03	1.897088E-02	2.340297E-04
5.720301E+03	1.893835E-02	2.334384E-04
5.730130E+03	1.890393E-02	2.328253E-04
5.739958E+03	1.886732E-02	2.321871E-04
5.749787E+03	1.882887E-02	2.315280E-04
5.759616E+03	1.878890E-02	2.308521E-04
5.769444E+03	1.874735E-02	2.301584E-04
5.779273E+03	1.870453E-02	2.294512E-04
5.789102E+03	1.866056E-02	2.287318E-04
5.798930E+03	1.861537E-02	2.279994E-04
5.808759E+03	1.856947E-02	2.272603E-04
5.818588E+03	1.852258E-02	2.265111E-04
5.828417E+03	1.847519E-02	2.257581E-04
5.838245E+03	1.842743E-02	2.250025E-04
5.848074E+03	1.837919E-02	2.242432E-04
5.857903E+03	1.833077E-02	2.234839E-04
5.867731E+03	1.828228E-02	2.227258E-04
5.877560E+03	1.823380E-02	2.219702E-04
5.887389E+03	1.818562E-02	2.212204E-04
5.897217E+03	1.813764E-02	2.204752E-04
5.907046E+03	1.808992E-02	2.197355E-04
5.916875E+03	1.804276E-02	2.190047E-04
5.926703E+03	1.799622E-02	2.182838E-04
5.936532E+03	1.795039E-02	2.175737E-04
5.946361E+03	1.790511E-02	2.168726E-04
5.956190E+03	1.786087E-02	2.161864E-04
5.966018E+03	1.781731E-02	2.155107E-04
5.975847E+03	1.777469E-02	2.148487E-04
5.985676E+03	1.773307E-02	2.142010E-04
5.995504E+03	1.769209E-02	2.135633E-04
6.005333E+03	1.765198E-02	2.129385E-04
6.015162E+03	1.761238E-02	2.123222E-04
6.024990E+03	1.757333E-02	2.117147E-04
6.034819E+03	1.753423E-02	2.111090E-04
6.044648E+03	1.749490E-02	2.105030E-04
6.054477E+03	1.745516E-02	2.098942E-04
6.064305E+03	1.741438E-02	2.092756E-04
6.074134E+03	1.737279E-02	2.086496E-04
6.083963E+03	1.733059E-02	2.080187E-04
6.093791E+03	1.728818E-02	2.073879E-04
6.103620E+03	1.724617E-02	2.067644E-04
6.113449E+03	1.720476E-02	2.061505E-04
6.123277E+03	1.716433E-02	2.055511E-04
6.133106E+03	1.712488E-02	2.049658E-04
6.142935E+03	1.708656E-02	2.043967E-04
6.152763E+03	1.704936E-02	2.038435E-04
6.162592E+03	1.701365E-02	2.033107E-04
6.172421E+03	1.697918E-02	2.027952E-04
6.182250E+03	1.694589E-02	2.022966E-04
6.192078E+03	1.691374E-02	2.018140E-04
6.201907E+03	1.688288E-02	2.013494E-04
6.211736E+03	1.685303E-02	2.008995E-04
6.221564E+03	1.682433E-02	2.004658E-04
6.231393E+03	1.679650E-02	2.000452E-04
6.241222E+03	1.676946E-02	1.996365E-04
6.251050E+03	1.674333E-02	1.992415E-04
6.260879E+03	1.671783E-02	1.988565E-04
6.270708E+03	1.669308E-02	1.984832E-04
6.280537E+03	1.666878E-02	1.981178E-04
6.290365E+03	1.664528E-02	1.977646E-04
6.300194E+03	1.662229E-02	1.974200E-04
6.310023E+03	1.659993E-02	1.970856E-04
6.319851E+03	1.657816E-02	1.967606E-04
6.329680E+03	1.655670E-02	1.964417E-04
6.339509E+03	1.653527E-02	1.961257E-04
6.349337E+03	1.651362E-02	1.958094E-04
6.359166E+03	1.649127E-02	1.954873E-04
6.368995E+03	1.646862E-02	1.951638E-04
6.378823E+03	1.644500E-02	1.948312E-04
6.388652E+03	1.642038E-02	1.944890E-04
6.398481E+03	1.639452E-02	1.941346E-04
6.408310E+03	1.636787E-02	1.937728E-04
6.418138E+03	1.633998E-02	1.933986E-04
6.427967E+03	1.631084E-02	1.930117E-04
6.437796E+03	1.628066E-02	1.926146E-04
6.447624E+03	1.624922E-02	1.922049E-04
6.457453E+03	1.621676E-02	1.917850E-04
6.467282E+03	1.618327E-02	1.913551E-04
6.477110E+03	1.614876E-02	1.909151E-04
6.486939E+03	1.611324E-02	1.904650E-04
6.496768E+03	1.607694E-02	1.900078E-04
6.506597E+03	1.603964E-02	1.895407E-04
6.516425E+03	1.600159E-02	1.890665E-04
6.526254E+03	1.596281E-02	1.885856E-04
6.536083E+03	1.592331E-02	1.880980E-04
6.545911E+03	1.588335E-02	1.876067E-04
6.555740E+03	1.584271E-02	1.871092E-04
6.565569E+03	1.580166E-02	1.866084E-04
6.575397E+03	1.575999E-02	1.861022E-04
6.585226E+03	1.571820E-02	1.855961E-04
6.595055E+03	1.567608E-02	1.850878E-04
6.604883E+03	1.563368E-02	1.845777E-04
6.614712E+03	1.559103E-02	1.840663E-04
6.624541E+03	1.554840E-02	1.835566E-04
6.634370E+03	1.550560E-02	1.830463E-04
6.644198E+03	1.546290E-02	1.825387E-04
6.654027E+03	1.542011E-02	1.820316E-04
6.663856E+03	1.537773E-02	1.815307E-04
6.673684E+03	1.533536E-02	1.810312E-04
6.683513E+03	1.529326E-02	1.805363E-04
6.693342E+03	1.525146E-02	1.800463E-04
6.703170E+03	1.520980E-02	1.795591E-04
6.712999E+03	1.516876E-02	1.790807E-04
6.722828E+03	1.512817E-02	1.786087E-04
6.732657E+03	1.508805E-02	1.781435E-04
6.742485E+03	1.504846E-02	1.776858E-04
6.752314E+03	1.500942E-02	1.772358E-04
6.762143E+03	1.497097E-02	1.767939E-04
6.771971E+03	1.493316E-02	1.763606E-04
6.781800E+03	1.489600E-02	1.759361E-04
6.791629E+03	1.485953E-02	1.755210E-04
6.801457E+03	1.482379E-02	1.751154E-04
6.811286E+03	1.478902E-02	1.747224E-04
6.821115E+03	1.475479E-02	1.743369E-04
6.830943E+03	1.472159E-02	1.739644E-04
6.840772E+03	1.468920E-02	1.736026E-04
6.850601E+03	1.465764E-02	1.732515E-04
6.860430E+03	1.462668E-02	1.729086E-04
6.870258E+03	1.459681E-02	1.725795E-04
6.880087E+03	1.456781E-02	1.722616E-04
6.889916E+03	1.453968E-02	1.719549E-04
6.899744E+03	1.451242E-02	1.716595E-04
6.909573E+03	1.448605E-02	1.713755E-04
6.919402E+03	1.446055E-02	1.711027E-04
6.929230E+03	1.443593E-02	1.708412E-04
6.939059E+03	1.441194E-02	1.705881E-04
6.948888E+03	1.438905E-02	1.703489E-04
6.958717E+03	1.436703E-02	1.701208E-04
6.968545E+03	1.434585E-02	1.699037E-04
6.978374E+03	1.432526E-02	1.696943E-04
6.988203E+03	1.430575E-02	1.694985E-04
6.998031E+03	1.428680E-02	1.693103E-04
7.007860E+03	1.426888E-02	1.691352E-04
7.017689E+03	1.425175E-02	1.689702E-04
7.027517E+03	1.423512E-02	1.688121E-04
7.037346E+03	1.421949E-02	1.686666E-04
7.047175E+03	1.420458E-02	1.685305E-04
7.057003E+03	1.419037E-02	1.684037E-04
7.066832E+03	1.417685E-02	1.682858E-04
7.076661E+03	1.416425E-02	1.681796E-04
7.086490E+03	1.415229E-02	1.680820E-04
7.096318E+03	1.414121E-02	1.679957E-04
7.106147E+03	1.413075E-02	1.679175E-04
7.115976E+03	1.412112E-02	1.678501E-04
7.125804E+03	1.411233E-02	1.677936E-04
7.135633E+03	1.410461E-02	1.677506E-04
7.145462E+03	1.409744E-02	1.677150E-04
7.155290E+03	1.409130E-02	1.676926E-04
7.165119E+03	1.408621E-02	1.676835E-04
7.174948E+03	1.408213E-02	1.676875E-04
7.184777E+03	1.407881E-02	1.677013E-04
7.194605E+03	1.407701E-02	1.677342E-04
7.204434E+03	1.407622E-02	1.677800E-04
7.214263E+03	1.407641E-02	1.678385E-04
7.224091E+03	1.407812E-02	1.679160E-04
7.233920E+03	1.408108E-02	1.680094E-04
7.243749E+03	1.408555E-02	1.681218E-04
7.253577E+03	1.409125E-02	1.682500E-04
7.263406E+03	1.409819E-02	1.683940E-04
7.273235E+03	1.410662E-02	1.685568E-04
7.283063E+03	1.411656E-02	1.687386E-04
7.292892E+03	1.412770E-02	1.689360E-04
7.302721E+03	1.414004E-02	1.691489E-04
7.312550E+03	1.415358E-02	1.693771E-04
7.322378E+03	1.416828E-02	1.696205E-04
7.332207E+03	1.418443E-02	1.698824E-04
7.342036E+03	1.420144E-02	1.701557E-04
7.351864E+03	1.421956E-02	1.704436E-04
7.361693E+03	1.423876E-02	1.707457E-04
7.371522E+03	1.425903E-02	1.710618E-04
7.381350E+03	1.427973E-02	1.713845E-04
7.391179E+03	1.430142E-02	1.717203E-04
7.401008E+03	1.432345E-02	1.720616E-04
7.410837E+03	1.434608E-02	1.724113E-04
7.420665E+03	1.436893E-02	1.727652E-04
7.430494E+03	1.439195E-02	1.731225E-04
7.440323E+03	1.441507E-02	1.734824E-04
7.450151E+03	1.443790E-02	1.738402E-04
7.459980E+03	1.446065E-02	1.741986E-04
7.469809E+03	1.448264E-02	1.745492E-04
7.479637E+03	1.450436E-02	1.748980E-04
7.489466E+03	1.452510E-02	1.752365E-04
7.499295E+03	1.454504E-02	1.755669E-04
7.509123E+03	1.456409E-02	1.758880E-04
7.518952E+03	1.458179E-02	1.761943E-04
7.528781E+03	1.459833E-02	1.764881E-04
7.538610E+03	1.461296E-02	1.767603E-04
7.548438E+03	1.462646E-02	1.770204E-04
7.558267E+03	1.463776E-02	1.772554E-04
7.568096E+03	1.464735E-02	1.774712E-04
7.577924E+03	1.465446E-02	1.776583E-04
7.587753E+03	1.465955E-02	1.778225E-04
7.597582E+03	1.466218E-02	1.779582E-04
7.607410E+03	1.466219E-02	1.780636E-04
7.617239E+03	1.465975E-02	1.781407E-04
7.627068E+03	1.465411E-02	1.781803E-04
