#wls	flux	fluxerr
1.572591E+03	9.181714E-04	7.508861E-06
1.611906E+03	9.023219E-04	7.375054E-06
1.651221E+03	8.824115E-04	7.208112E-06
1.690536E+03	8.586545E-04	7.009847E-06
1.729850E+03	8.313783E-04	6.782995E-06
1.769165E+03	8.002020E-04	6.524512E-06
1.808480E+03	7.647532E-04	6.231432E-06
1.847795E+03	7.246750E-04	5.900930E-06
1.887110E+03	6.797548E-04	5.531367E-06
1.926424E+03	6.306948E-04	5.128549E-06
1.965739E+03	5.789359E-04	4.704276E-06
2.005054E+03	5.281432E-04	4.288376E-06
2.044369E+03	4.833900E-04	3.922016E-06
2.083683E+03	4.502605E-04	3.650376E-06
2.122998E+03	4.325439E-04	3.503944E-06
2.162313E+03	4.306195E-04	3.485499E-06
2.201628E+03	4.416550E-04	3.571822E-06
2.240943E+03	4.612782E-04	3.727310E-06
2.280257E+03	4.853836E-04	3.918630E-06
2.319572E+03	5.108614E-04	4.120588E-06
2.358887E+03	5.360416E-04	4.319681E-06
2.398202E+03	5.600622E-04	4.508963E-06
2.437517E+03	5.828464E-04	4.687827E-06
2.476831E+03	6.046009E-04	4.857947E-06
2.516146E+03	6.256680E-04	5.022085E-06
2.555461E+03	6.464659E-04	5.183596E-06
2.594776E+03	6.673266E-04	5.345132E-06
2.634090E+03	6.887080E-04	5.510342E-06
2.673405E+03	7.108574E-04	5.681174E-06
2.712720E+03	7.341529E-04	5.860609E-06
2.752035E+03	7.589277E-04	6.051259E-06
2.791350E+03	7.854854E-04	6.255481E-06
2.830664E+03	8.143118E-04	6.477071E-06
2.869979E+03	8.459758E-04	6.720461E-06
2.909294E+03	8.812018E-04	6.991291E-06
2.948609E+03	9.208484E-04	7.296232E-06
2.958437E+03	9.315972E-04	7.378937E-06
2.968266E+03	9.426671E-04	7.464115E-06
2.978095E+03	9.540969E-04	7.552070E-06
2.987923E+03	9.659743E-04	7.643493E-06
2.997752E+03	9.783440E-04	7.738733E-06
3.007581E+03	9.912855E-04	7.838414E-06
3.017410E+03	1.004851E-03	7.942944E-06
3.027238E+03	1.018974E-03	8.051787E-06
3.037067E+03	1.033739E-03	8.165620E-06
3.046896E+03	1.049115E-03	8.284173E-06
3.056724E+03	1.065100E-03	8.407434E-06
3.066553E+03	1.081755E-03	8.535882E-06
3.076382E+03	1.099053E-03	8.669292E-06
3.086210E+03	1.117058E-03	8.808168E-06
3.096039E+03	1.135747E-03	8.952310E-06
3.105868E+03	1.155126E-03	9.101773E-06
3.115697E+03	1.175296E-03	9.257334E-06
3.125525E+03	1.196206E-03	9.418595E-06
3.135354E+03	1.217929E-03	9.586121E-06
3.145183E+03	1.240480E-03	9.760013E-06
3.155011E+03	1.263874E-03	9.940387E-06
3.164840E+03	1.288158E-03	1.012760E-05
3.174669E+03	1.313350E-03	1.032180E-05
3.184497E+03	1.339533E-03	1.052361E-05
3.194326E+03	1.366666E-03	1.073270E-05
3.204155E+03	1.394833E-03	1.094974E-05
3.213983E+03	1.424061E-03	1.117491E-05
3.223812E+03	1.454407E-03	1.140865E-05
3.233641E+03	1.485867E-03	1.165092E-05
3.243470E+03	1.518502E-03	1.190220E-05
3.253298E+03	1.552343E-03	1.216271E-05
3.263127E+03	1.587456E-03	1.243294E-05
3.272956E+03	1.623874E-03	1.271315E-05
3.282784E+03	1.661602E-03	1.300337E-05
3.292613E+03	1.700710E-03	1.330412E-05
3.302442E+03	1.741205E-03	1.361545E-05
3.312270E+03	1.783161E-03	1.393793E-05
3.322099E+03	1.826588E-03	1.427160E-05
3.331928E+03	1.871530E-03	1.461681E-05
3.341757E+03	1.918000E-03	1.497363E-05
3.351585E+03	1.966046E-03	1.534243E-05
3.361414E+03	2.015683E-03	1.572330E-05
3.371243E+03	2.066962E-03	1.611663E-05
3.381071E+03	2.119833E-03	1.652200E-05
3.390900E+03	2.174382E-03	1.694008E-05
3.400729E+03	2.230596E-03	1.737073E-05
3.410557E+03	2.288459E-03	1.781382E-05
3.420386E+03	2.348029E-03	1.826978E-05
3.430215E+03	2.409257E-03	1.873820E-05
3.440043E+03	2.472128E-03	1.921896E-05
3.449872E+03	2.536699E-03	1.971247E-05
3.459701E+03	2.602884E-03	2.021806E-05
3.469530E+03	2.670741E-03	2.073614E-05
3.479358E+03	2.740179E-03	2.126599E-05
3.489187E+03	2.811253E-03	2.180803E-05
3.499016E+03	2.883872E-03	2.236153E-05
3.508844E+03	2.958050E-03	2.292657E-05
3.518673E+03	3.033763E-03	2.350294E-05
3.528502E+03	3.111022E-03	2.409073E-05
3.538330E+03	3.189801E-03	2.468971E-05
3.548159E+03	3.270025E-03	2.529927E-05
3.557988E+03	3.351741E-03	2.591976E-05
3.567817E+03	3.434827E-03	2.655023E-05
3.577645E+03	3.519279E-03	2.719062E-05
3.587474E+03	3.605006E-03	2.784020E-05
3.597303E+03	3.692031E-03	2.849915E-05
3.607131E+03	3.780250E-03	2.916664E-05
3.616960E+03	3.869636E-03	2.984245E-05
3.626789E+03	3.960196E-03	3.052661E-05
3.636617E+03	4.051845E-03	3.121846E-05
3.646446E+03	4.144619E-03	3.191826E-05
3.656275E+03	4.238422E-03	3.262524E-05
3.666103E+03	4.333276E-03	3.333957E-05
3.675932E+03	4.429153E-03	3.406101E-05
3.685761E+03	4.525974E-03	3.478894E-05
3.695590E+03	4.623738E-03	3.552335E-05
3.705418E+03	4.722394E-03	3.626383E-05
3.715247E+03	4.821928E-03	3.701024E-05
3.725076E+03	4.922266E-03	3.776202E-05
3.734904E+03	5.023378E-03	3.851892E-05
3.744733E+03	5.125124E-03	3.927985E-05
3.754562E+03	5.227552E-03	4.004517E-05
3.764390E+03	5.330448E-03	4.081324E-05
3.774219E+03	5.433845E-03	4.158429E-05
3.784048E+03	5.537565E-03	4.235695E-05
3.793877E+03	5.641570E-03	4.313093E-05
3.803705E+03	5.745662E-03	4.390470E-05
3.813534E+03	5.849791E-03	4.467789E-05
3.823363E+03	5.953795E-03	4.544924E-05
3.833191E+03	6.057509E-03	4.621750E-05
3.843020E+03	6.160869E-03	4.698218E-05
3.852849E+03	6.263700E-03	4.774194E-05
3.862677E+03	6.365832E-03	4.849550E-05
3.872506E+03	6.467143E-03	4.924193E-05
3.882335E+03	6.567521E-03	4.998038E-05
3.892163E+03	6.666802E-03	5.070961E-05
3.901992E+03	6.764825E-03	5.142841E-05
3.911821E+03	6.861438E-03	5.213565E-05
3.921650E+03	6.956622E-03	5.283117E-05
3.931478E+03	7.050253E-03	5.351407E-05
3.941307E+03	7.142221E-03	5.418352E-05
3.951136E+03	7.232433E-03	5.483883E-05
3.960964E+03	7.320814E-03	5.547945E-05
3.970793E+03	7.407436E-03	5.610595E-05
3.980622E+03	7.492136E-03	5.671712E-05
3.990450E+03	7.575102E-03	5.731439E-05
4.000279E+03	7.656144E-03	5.789636E-05
4.010108E+03	7.735499E-03	5.846482E-05
4.019937E+03	7.813156E-03	5.901972E-05
4.029765E+03	7.889197E-03	5.956170E-05
4.039594E+03	7.963721E-03	6.009152E-05
4.049423E+03	8.036855E-03	6.061016E-05
4.059251E+03	8.108808E-03	6.111920E-05
4.069080E+03	8.179742E-03	6.161989E-05
4.078909E+03	8.249769E-03	6.211307E-05
4.088737E+03	8.319077E-03	6.260017E-05
4.098566E+03	8.387944E-03	6.308329E-05
4.108395E+03	8.456586E-03	6.356406E-05
4.118223E+03	8.525231E-03	6.404419E-05
4.128052E+03	8.594034E-03	6.452485E-05
4.137881E+03	8.663235E-03	6.500783E-05
4.147710E+03	8.733139E-03	6.549541E-05
4.157538E+03	8.803984E-03	6.598938E-05
4.167367E+03	8.875854E-03	6.649034E-05
4.177196E+03	8.949201E-03	6.700166E-05
4.187024E+03	9.024019E-03	6.752329E-05
4.196853E+03	9.100592E-03	6.805732E-05
4.206682E+03	9.179196E-03	6.860580E-05
4.216510E+03	9.259857E-03	6.916889E-05
4.226339E+03	9.342821E-03	6.974841E-05
4.236168E+03	9.428155E-03	7.034481E-05
4.245997E+03	9.515986E-03	7.095902E-05
4.255825E+03	9.606412E-03	7.159174E-05
4.265654E+03	9.699353E-03	7.224233E-05
4.275483E+03	9.794770E-03	7.291047E-05
4.285311E+03	9.892673E-03	7.359621E-05
4.295140E+03	9.993220E-03	7.430068E-05
4.304969E+03	1.009636E-02	7.502351E-05
4.314797E+03	1.020211E-02	7.576471E-05
4.324626E+03	1.031053E-02	7.652473E-05
4.334455E+03	1.042139E-02	7.730186E-05
4.344283E+03	1.053469E-02	7.809602E-05
4.354112E+03	1.065022E-02	7.890564E-05
4.363941E+03	1.076773E-02	7.972885E-05
4.373770E+03	1.088713E-02	8.056492E-05
4.383598E+03	1.100800E-02	8.141076E-05
4.393427E+03	1.113018E-02	8.226521E-05
4.403256E+03	1.125320E-02	8.312468E-05
4.413084E+03	1.137674E-02	8.398692E-05
4.422913E+03	1.150057E-02	8.485009E-05
4.432742E+03	1.162414E-02	8.571018E-05
4.442570E+03	1.174716E-02	8.656511E-05
4.452399E+03	1.186907E-02	8.741065E-05
4.462228E+03	1.198945E-02	8.824388E-05
4.472057E+03	1.210793E-02	8.906199E-05
4.481885E+03	1.222411E-02	8.986215E-05
4.491714E+03	1.233754E-02	9.064095E-05
4.501543E+03	1.244785E-02	9.139583E-05
4.511371E+03	1.255461E-02	9.212366E-05
4.521200E+03	1.265753E-02	9.282237E-05
4.531029E+03	1.275648E-02	9.349100E-05
4.540857E+03	1.285114E-02	9.412733E-05
4.550686E+03	1.294126E-02	9.472952E-05
4.560515E+03	1.302685E-02	9.529776E-05
4.570343E+03	1.310776E-02	9.583106E-05
4.580172E+03	1.318417E-02	9.633064E-05
4.590001E+03	1.325592E-02	9.679560E-05
4.599830E+03	1.332332E-02	9.722816E-05
4.609658E+03	1.338650E-02	9.762928E-05
4.619487E+03	1.344565E-02	9.800050E-05
4.629316E+03	1.350079E-02	9.834203E-05
4.639144E+03	1.355251E-02	9.865812E-05
4.648973E+03	1.360095E-02	9.894995E-05
4.658802E+03	1.364645E-02	9.921997E-05
4.668630E+03	1.368928E-02	9.947024E-05
4.678459E+03	1.373026E-02	9.970669E-05
4.688288E+03	1.376951E-02	9.993020E-05
4.698117E+03	1.380779E-02	1.001465E-04
4.707945E+03	1.384567E-02	1.003594E-04
4.717774E+03	1.388382E-02	1.005741E-04
4.727603E+03	1.392279E-02	1.007944E-04
4.737431E+03	1.396306E-02	1.010238E-04
4.747260E+03	1.400490E-02	1.012643E-04
4.757089E+03	1.404844E-02	1.015168E-04
4.766917E+03	1.409405E-02	1.017840E-04
4.776746E+03	1.414212E-02	1.020684E-04
4.786575E+03	1.419261E-02	1.023701E-04
4.796403E+03	1.424593E-02	1.026918E-04
4.806232E+03	1.430245E-02	1.030361E-04
4.816061E+03	1.436234E-02	1.034043E-04
4.825890E+03	1.442586E-02	1.037982E-04
4.835718E+03	1.449358E-02	1.042218E-04
4.845547E+03	1.456565E-02	1.046763E-04
4.855376E+03	1.464226E-02	1.051627E-04
4.865204E+03	1.472410E-02	1.056862E-04
4.875033E+03	1.481123E-02	1.062469E-04
4.884862E+03	1.490408E-02	1.068481E-04
4.894690E+03	1.500299E-02	1.074919E-04
4.904519E+03	1.510825E-02	1.081805E-04
4.914348E+03	1.522032E-02	1.089170E-04
4.924177E+03	1.533936E-02	1.097024E-04
4.934005E+03	1.546582E-02	1.105400E-04
4.943834E+03	1.559984E-02	1.114305E-04
4.953663E+03	1.574184E-02	1.123770E-04
4.963491E+03	1.589209E-02	1.133813E-04
4.973320E+03	1.605070E-02	1.144439E-04
4.983149E+03	1.621803E-02	1.155674E-04
4.992977E+03	1.639445E-02	1.167543E-04
5.002806E+03	1.657984E-02	1.180037E-04
5.012635E+03	1.677449E-02	1.193175E-04
5.022463E+03	1.697854E-02	1.206965E-04
5.032292E+03	1.719191E-02	1.221401E-04
5.042121E+03	1.741497E-02	1.236508E-04
5.051950E+03	1.764740E-02	1.252262E-04
5.061778E+03	1.788933E-02	1.268671E-04
5.071607E+03	1.814049E-02	1.285715E-04
5.081436E+03	1.840093E-02	1.303397E-04
5.091264E+03	1.867029E-02	1.321689E-04
5.101093E+03	1.894849E-02	1.340586E-04
5.110922E+03	1.923508E-02	1.360052E-04
5.120750E+03	1.952948E-02	1.380049E-04
5.130579E+03	1.983168E-02	1.400573E-04
5.140408E+03	2.014101E-02	1.421576E-04
5.150237E+03	2.045675E-02	1.443006E-04
5.160065E+03	2.077850E-02	1.464836E-04
5.169894E+03	2.110543E-02	1.487006E-04
5.179723E+03	2.143705E-02	1.509479E-04
5.189551E+03	2.177219E-02	1.532175E-04
5.199380E+03	2.211026E-02	1.555051E-04
5.209209E+03	2.245044E-02	1.578048E-04
5.219037E+03	2.279185E-02	1.601106E-04
5.228866E+03	2.313314E-02	1.624128E-04
5.238695E+03	2.347382E-02	1.647082E-04
5.248523E+03	2.381270E-02	1.669884E-04
5.258352E+03	2.414859E-02	1.692449E-04
5.268181E+03	2.448074E-02	1.714727E-04
5.278010E+03	2.480768E-02	1.736616E-04
5.287838E+03	2.512893E-02	1.758083E-04
5.297667E+03	2.544306E-02	1.779026E-04
5.307496E+03	2.574910E-02	1.799383E-04
5.317324E+03	2.604643E-02	1.819108E-04
5.327153E+03	2.633367E-02	1.838106E-04
5.336982E+03	2.660998E-02	1.856322E-04
5.346810E+03	2.687488E-02	1.873723E-04
5.356639E+03	2.712738E-02	1.890241E-04
5.366468E+03	2.736713E-02	1.905853E-04
5.376297E+03	2.759329E-02	1.920504E-04
5.386125E+03	2.780508E-02	1.934139E-04
5.395954E+03	2.800208E-02	1.946733E-04
5.405783E+03	2.818368E-02	1.958244E-04
5.415611E+03	2.835018E-02	1.968695E-04
5.425440E+03	2.850084E-02	1.978037E-04
5.435269E+03	2.863558E-02	1.986266E-04
5.445097E+03	2.875468E-02	1.993404E-04
5.454926E+03	2.885762E-02	1.999416E-04
5.464755E+03	2.894546E-02	2.004378E-04
5.474583E+03	2.901752E-02	2.008245E-04
5.484412E+03	2.907441E-02	2.011060E-04
5.494241E+03	2.911649E-02	2.012851E-04
5.504070E+03	2.914418E-02	2.013649E-04
5.513898E+03	2.915796E-02	2.013489E-04
5.523727E+03	2.915867E-02	2.012428E-04
5.533556E+03	2.914626E-02	2.010467E-04
5.543384E+03	2.912163E-02	2.007669E-04
5.553213E+03	2.908541E-02	2.004078E-04
5.563042E+03	2.903794E-02	1.999720E-04
5.572870E+03	2.898048E-02	1.994683E-04
5.582699E+03	2.891340E-02	1.988993E-04
5.592528E+03	2.883736E-02	1.982696E-04
5.602357E+03	2.875302E-02	1.975839E-04
5.612185E+03	2.866103E-02	1.968468E-04
5.622014E+03	2.856201E-02	1.960626E-04
5.631843E+03	2.845657E-02	1.952356E-04
5.641671E+03	2.834530E-02	1.943699E-04
5.651500E+03	2.822907E-02	1.934715E-04
5.661329E+03	2.810808E-02	1.925419E-04
5.671157E+03	2.798284E-02	1.915846E-04
5.680986E+03	2.785411E-02	1.906049E-04
5.690815E+03	2.772202E-02	1.896036E-04
5.700643E+03	2.758757E-02	1.885877E-04
5.710472E+03	2.745050E-02	1.875555E-04
5.720301E+03	2.731114E-02	1.865091E-04
5.730130E+03	2.717039E-02	1.854548E-04
5.739958E+03	2.702821E-02	1.843924E-04
5.749787E+03	2.688514E-02	1.833254E-04
5.759616E+03	2.674108E-02	1.822533E-04
5.769444E+03	2.659622E-02	1.811773E-04
5.779273E+03	2.645131E-02	1.801027E-04
5.789102E+03	2.630591E-02	1.790263E-04
5.798930E+03	2.616073E-02	1.779530E-04
5.808759E+03	2.601590E-02	1.768838E-04
5.818588E+03	2.587122E-02	1.758171E-04
5.828417E+03	2.572708E-02	1.747557E-04
5.838245E+03	2.558387E-02	1.737023E-04
5.848074E+03	2.544137E-02	1.726554E-04
5.857903E+03	2.530028E-02	1.716196E-04
5.867731E+03	2.516037E-02	1.705934E-04
5.877560E+03	2.502172E-02	1.695773E-04
5.887389E+03	2.488503E-02	1.685762E-04
5.897217E+03	2.475039E-02	1.675905E-04
5.907046E+03	2.461790E-02	1.666209E-04
5.916875E+03	2.448796E-02	1.656701E-04
5.926703E+03	2.436097E-02	1.647408E-04
5.936532E+03	2.423705E-02	1.638339E-04
5.946361E+03	2.411633E-02	1.629500E-04
5.956190E+03	2.399953E-02	1.620941E-04
5.966018E+03	2.388677E-02	1.612671E-04
5.975847E+03	2.377850E-02	1.604717E-04
5.985676E+03	2.367485E-02	1.597090E-04
5.995504E+03	2.357656E-02	1.589839E-04
6.005333E+03	2.348348E-02	1.582953E-04
6.015162E+03	2.339575E-02	1.576440E-04
6.024990E+03	2.331410E-02	1.570351E-04
6.034819E+03	2.323837E-02	1.564674E-04
6.044648E+03	2.316808E-02	1.559377E-04
6.054477E+03	2.310335E-02	1.554466E-04
6.064305E+03	2.304459E-02	1.549969E-04
6.074134E+03	2.299158E-02	1.545872E-04
6.083963E+03	2.294564E-02	1.542262E-04
6.093791E+03	2.290623E-02	1.539102E-04
6.103620E+03	2.287369E-02	1.536416E-04
6.113449E+03	2.284839E-02	1.534228E-04
6.123277E+03	2.283003E-02	1.532517E-04
6.133106E+03	2.281860E-02	1.531283E-04
6.142935E+03	2.281409E-02	1.530524E-04
6.152763E+03	2.281582E-02	1.530194E-04
6.162592E+03	2.282372E-02	1.530289E-04
6.172421E+03	2.283768E-02	1.530802E-04
6.182250E+03	2.285758E-02	1.531723E-04
6.192078E+03	2.288231E-02	1.532979E-04
6.201907E+03	2.291233E-02	1.534600E-04
6.211736E+03	2.294680E-02	1.536530E-04
6.221564E+03	2.298516E-02	1.538731E-04
6.231393E+03	2.302748E-02	1.541208E-04
6.241222E+03	2.307285E-02	1.543901E-04
6.251050E+03	2.312096E-02	1.546788E-04
6.260879E+03	2.317118E-02	1.549828E-04
6.270708E+03	2.322352E-02	1.553022E-04
6.280537E+03	2.327733E-02	1.556325E-04
6.290365E+03	2.333259E-02	1.559737E-04
6.300194E+03	2.338863E-02	1.563214E-04
6.310023E+03	2.344510E-02	1.566732E-04
6.319851E+03	2.350166E-02	1.570267E-04
6.329680E+03	2.355828E-02	1.573818E-04
6.339509E+03	2.361419E-02	1.577333E-04
6.349337E+03	2.366916E-02	1.580797E-04
6.359166E+03	2.372259E-02	1.584170E-04
6.368995E+03	2.377393E-02	1.587414E-04
6.378823E+03	2.382298E-02	1.590518E-04
6.388652E+03	2.386851E-02	1.593398E-04
6.398481E+03	2.391075E-02	1.596070E-04
6.408310E+03	2.394854E-02	1.598456E-04
6.418138E+03	2.398221E-02	1.600579E-04
6.427967E+03	2.401104E-02	1.602390E-04
6.437796E+03	2.403438E-02	1.603846E-04
6.447624E+03	2.405234E-02	1.604954E-04
6.457453E+03	2.406472E-02	1.605702E-04
6.467282E+03	2.407101E-02	1.606054E-04
6.477110E+03	2.407150E-02	1.606030E-04
6.486939E+03	2.406540E-02	1.605578E-04
6.496768E+03	2.405346E-02	1.604747E-04
6.506597E+03	2.403499E-02	1.603490E-04
6.516425E+03	2.401084E-02	1.601866E-04
6.526254E+03	2.398040E-02	1.599832E-04
6.536083E+03	2.394423E-02	1.597426E-04
6.545911E+03	2.390217E-02	1.594637E-04
6.555740E+03	2.385484E-02	1.591506E-04
6.565569E+03	2.380214E-02	1.588027E-04
6.575397E+03	2.374438E-02	1.584220E-04
6.585226E+03	2.368225E-02	1.580130E-04
6.595055E+03	2.361571E-02	1.575756E-04
6.604883E+03	2.354512E-02	1.571120E-04
6.614712E+03	2.347121E-02	1.566271E-04
6.624541E+03	2.339398E-02	1.561208E-04
6.634370E+03	2.331379E-02	1.555957E-04
6.644198E+03	2.323101E-02	1.550541E-04
6.654027E+03	2.314601E-02	1.544984E-04
6.663856E+03	2.305953E-02	1.539335E-04
6.673684E+03	2.297154E-02	1.533593E-04
6.683513E+03	2.288276E-02	1.527806E-04
6.693342E+03	2.279276E-02	1.521945E-04
6.703170E+03	2.270264E-02	1.516081E-04
6.712999E+03	2.261268E-02	1.510236E-04
6.722828E+03	2.252242E-02	1.504376E-04
6.732657E+03	2.243328E-02	1.498597E-04
6.742485E+03	2.234436E-02	1.492839E-04
6.752314E+03	2.225705E-02	1.487194E-04
6.762143E+03	2.217044E-02	1.481602E-04
6.771971E+03	2.208587E-02	1.476152E-04
6.781800E+03	2.200276E-02	1.470805E-04
6.791629E+03	2.192129E-02	1.465572E-04
6.801457E+03	2.184199E-02	1.460490E-04
6.811286E+03	2.176500E-02	1.455567E-04
6.821115E+03	2.169044E-02	1.450812E-04
6.830943E+03	2.161839E-02	1.446230E-04
6.840772E+03	2.154856E-02	1.441800E-04
6.850601E+03	2.148179E-02	1.437580E-04
6.860430E+03	2.141733E-02	1.433521E-04
6.870258E+03	2.135563E-02	1.429649E-04
6.880087E+03	2.129666E-02	1.425966E-04
6.889916E+03	2.124084E-02	1.422497E-04
6.899744E+03	2.118734E-02	1.419189E-04
6.909573E+03	2.113692E-02	1.416092E-04
6.919402E+03	2.108912E-02	1.413174E-04
6.929230E+03	2.104387E-02	1.410432E-04
6.939059E+03	2.100109E-02	1.407859E-04
6.948888E+03	2.096106E-02	1.405476E-04
6.958717E+03	2.092327E-02	1.403247E-04
6.968545E+03	2.088799E-02	1.401191E-04
6.978374E+03	2.085467E-02	1.399271E-04
6.988203E+03	2.082357E-02	1.397504E-04
6.998031E+03	2.079451E-02	1.395879E-04
7.007860E+03	2.076693E-02	1.394356E-04
7.017689E+03	2.074103E-02	1.392952E-04
7.027517E+03	2.071663E-02	1.391653E-04
7.037346E+03	2.069355E-02	1.390446E-04
7.047175E+03	2.067198E-02	1.389346E-04
7.057003E+03	2.065092E-02	1.388284E-04
7.066832E+03	2.063058E-02	1.387275E-04
7.076661E+03	2.061117E-02	1.386333E-04
7.086490E+03	2.059210E-02	1.385418E-04
7.096318E+03	2.057317E-02	1.384517E-04
7.106147E+03	2.055463E-02	1.383646E-04
7.115976E+03	2.053591E-02	1.382768E-04
7.125804E+03	2.051727E-02	1.381899E-04
7.135633E+03	2.049814E-02	1.381002E-04
7.145462E+03	2.047886E-02	1.380098E-04
7.155290E+03	2.045930E-02	1.379180E-04
7.165119E+03	2.043940E-02	1.378243E-04
7.174948E+03	2.041868E-02	1.377254E-04
7.184777E+03	2.039796E-02	1.376270E-04
7.194605E+03	2.037637E-02	1.375232E-04
7.204434E+03	2.035438E-02	1.374169E-04
7.214263E+03	2.033202E-02	1.373087E-04
7.224091E+03	2.030938E-02	1.371989E-04
7.233920E+03	2.028655E-02	1.370882E-04
7.243749E+03	2.026367E-02	1.369775E-04
7.253577E+03	2.024090E-02	1.368680E-04
7.263406E+03	2.021885E-02	1.367637E-04
7.273235E+03	2.019684E-02	1.366602E-04
7.283063E+03	2.017601E-02	1.365650E-04
7.292892E+03	2.015659E-02	1.364797E-04
7.302721E+03	2.013886E-02	1.364063E-04
7.312550E+03	2.012265E-02	1.363435E-04
7.322378E+03	2.010825E-02	1.362935E-04
7.332207E+03	2.009595E-02	1.362581E-04
7.342036E+03	2.008606E-02	1.362395E-04
7.351864E+03	2.007888E-02	1.362397E-04
7.361693E+03	2.007470E-02	1.362608E-04
7.371522E+03	2.007382E-02	1.363048E-04
7.381350E+03	2.007650E-02	1.363734E-04
7.391179E+03	2.008254E-02	1.364654E-04
7.401008E+03	2.009311E-02	1.365887E-04
7.410837E+03	2.010745E-02	1.367383E-04
7.420665E+03	2.012623E-02	1.369186E-04
7.430494E+03	2.014956E-02	1.371306E-04
7.440323E+03	2.017803E-02	1.373781E-04
7.450151E+03	2.021071E-02	1.376550E-04
7.459980E+03	2.024808E-02	1.379646E-04
7.469809E+03	2.029056E-02	1.383098E-04
7.479637E+03	2.033704E-02	1.386830E-04
7.489466E+03	2.038834E-02	1.390900E-04
7.499295E+03	2.044322E-02	1.395221E-04
7.509123E+03	2.050235E-02	1.399842E-04
7.518952E+03	2.056484E-02	1.404702E-04
7.528781E+03	2.063026E-02	1.409771E-04
7.538610E+03	2.069808E-02	1.415013E-04
7.548438E+03	2.076718E-02	1.420353E-04
7.558267E+03	2.083847E-02	1.425853E-04
7.568096E+03	2.090967E-02	1.431358E-04
7.577924E+03	2.098053E-02	1.436849E-04
7.587753E+03	2.105076E-02	1.442307E-04
7.597582E+03	2.111839E-02	1.447598E-04
7.607410E+03	2.118360E-02	1.452734E-04
7.617239E+03	2.124543E-02	1.457649E-04
7.627068E+03	2.130185E-02	1.462202E-04
