#wls	flux	fluxerr
1.572591E+03	6.455081E-04	1.225490E-05
1.611906E+03	6.323343E-04	1.199540E-05
1.651221E+03	6.164380E-04	1.168444E-05
1.690536E+03	5.980010E-04	1.132560E-05
1.729850E+03	5.772945E-04	1.092413E-05
1.769165E+03	5.540742E-04	1.047556E-05
1.808480E+03	5.281084E-04	9.975655E-06
1.847795E+03	4.991075E-04	9.419124E-06
1.887110E+03	4.671298E-04	8.807261E-06
1.926424E+03	4.323872E-04	8.144255E-06
1.965739E+03	3.961865E-04	7.454898E-06
2.005054E+03	3.608257E-04	6.782517E-06
2.044369E+03	3.297907E-04	6.192568E-06
2.083683E+03	3.068203E-04	5.754967E-06
2.122998E+03	2.944037E-04	5.515888E-06
2.162313E+03	2.927882E-04	5.479310E-06
2.201628E+03	2.999472E-04	5.606652E-06
2.240943E+03	3.127901E-04	5.839618E-06
2.280257E+03	3.285514E-04	6.126230E-06
2.319572E+03	3.450652E-04	6.425916E-06
2.358887E+03	3.612369E-04	6.718236E-06
2.398202E+03	3.765345E-04	6.993295E-06
2.437517E+03	3.908859E-04	7.249793E-06
2.476831E+03	4.044719E-04	7.491121E-06
2.516146E+03	4.175013E-04	7.721166E-06
2.555461E+03	4.303041E-04	7.946038E-06
2.594776E+03	4.431383E-04	8.170485E-06
2.634090E+03	4.562156E-04	8.398367E-06
2.673405E+03	4.698531E-04	8.635460E-06
2.712720E+03	4.842032E-04	8.884475E-06
2.752035E+03	4.995617E-04	9.150732E-06
2.791350E+03	5.161352E-04	9.437877E-06
2.830664E+03	5.341403E-04	9.749702E-06
2.869979E+03	5.538630E-04	1.009123E-05
2.909294E+03	5.756904E-04	1.046929E-05
2.948609E+03	6.001650E-04	1.089344E-05
2.958437E+03	6.067873E-04	1.100828E-05
2.968266E+03	6.136068E-04	1.112654E-05
2.978095E+03	6.206550E-04	1.124880E-05
2.987923E+03	6.279490E-04	1.137535E-05
2.997752E+03	6.355639E-04	1.150756E-05
3.007581E+03	6.435509E-04	1.164632E-05
3.017410E+03	6.518773E-04	1.179105E-05
3.027238E+03	6.605907E-04	1.194259E-05
3.037067E+03	6.696612E-04	1.210038E-05
3.046896E+03	6.791128E-04	1.226486E-05
3.056724E+03	6.889434E-04	1.243597E-05
3.066553E+03	6.991793E-04	1.261418E-05
3.076382E+03	7.097948E-04	1.279900E-05
3.086210E+03	7.208441E-04	1.299140E-05
3.096039E+03	7.322771E-04	1.319046E-05
3.105868E+03	7.441763E-04	1.339767E-05
3.115697E+03	7.565201E-04	1.361260E-05
3.125525E+03	7.693139E-04	1.383535E-05
3.135354E+03	7.825901E-04	1.406649E-05
3.145183E+03	7.963829E-04	1.430661E-05
3.155011E+03	8.106741E-04	1.455536E-05
3.164840E+03	8.254989E-04	1.481336E-05
3.174669E+03	8.408676E-04	1.508078E-05
3.184497E+03	8.568445E-04	1.535875E-05
3.194326E+03	8.734149E-04	1.564699E-05
3.204155E+03	8.905916E-04	1.594571E-05
3.213983E+03	9.084424E-04	1.625609E-05
3.223812E+03	9.269552E-04	1.657791E-05
3.233641E+03	9.461726E-04	1.691189E-05
3.243470E+03	9.661122E-04	1.725832E-05
3.253298E+03	9.868184E-04	1.761798E-05
3.263127E+03	1.008311E-03	1.799118E-05
3.272956E+03	1.030637E-03	1.837875E-05
3.282784E+03	1.053790E-03	1.878054E-05
3.292613E+03	1.077849E-03	1.919791E-05
3.302442E+03	1.102809E-03	1.963075E-05
3.312270E+03	1.128722E-03	2.007996E-05
3.322099E+03	1.155615E-03	2.054598E-05
3.331928E+03	1.183487E-03	2.102873E-05
3.341757E+03	1.212421E-03	2.152970E-05
3.351585E+03	1.242391E-03	2.204835E-05
3.361414E+03	1.273483E-03	2.258620E-05
3.371243E+03	1.305673E-03	2.314273E-05
3.381071E+03	1.339021E-03	2.371900E-05
3.390900E+03	1.373502E-03	2.431452E-05
3.400729E+03	1.409179E-03	2.493035E-05
3.410557E+03	1.446058E-03	2.556657E-05
3.420386E+03	1.484114E-03	2.622267E-05
3.430215E+03	1.523383E-03	2.689924E-05
3.440043E+03	1.563839E-03	2.759579E-05
3.449872E+03	1.605456E-03	2.831181E-05
3.459701E+03	1.648270E-03	2.904788E-05
3.469530E+03	1.692223E-03	2.980292E-05
3.479358E+03	1.737347E-03	3.057748E-05
3.489187E+03	1.783551E-03	3.136987E-05
3.499016E+03	1.830897E-03	3.218117E-05
3.508844E+03	1.879287E-03	3.300960E-05
3.518673E+03	1.928719E-03	3.385507E-05
3.528502E+03	1.979154E-03	3.471685E-05
3.538330E+03	2.030516E-03	3.559359E-05
3.548159E+03	2.082727E-03	3.648385E-05
3.557988E+03	2.135806E-03	3.738794E-05
3.567817E+03	2.189737E-03	3.830553E-05
3.577645E+03	2.244534E-03	3.923684E-05
3.587474E+03	2.300214E-03	4.018211E-05
3.597303E+03	2.356789E-03	4.114152E-05
3.607131E+03	2.414271E-03	4.211524E-05
3.616960E+03	2.472672E-03	4.310342E-05
3.626789E+03	2.532037E-03	4.410681E-05
3.636617E+03	2.592374E-03	4.512551E-05
3.646446E+03	2.653653E-03	4.615894E-05
3.656275E+03	2.715914E-03	4.720775E-05
3.666103E+03	2.779161E-03	4.827197E-05
3.675932E+03	2.843355E-03	4.935088E-05
3.685761E+03	2.908574E-03	5.044577E-05
3.695590E+03	2.974732E-03	5.155512E-05
3.705418E+03	3.041860E-03	5.267940E-05
3.715247E+03	3.109954E-03	5.381851E-05
3.725076E+03	3.178961E-03	5.497147E-05
3.734904E+03	3.248945E-03	5.613935E-05
3.744733E+03	3.319811E-03	5.732047E-05
3.754562E+03	3.391622E-03	5.851584E-05
3.764390E+03	3.464271E-03	5.972359E-05
3.774219E+03	3.537779E-03	6.094403E-05
3.784048E+03	3.612116E-03	6.217660E-05
3.793877E+03	3.687305E-03	6.342166E-05
3.803705E+03	3.763221E-03	6.467699E-05
3.813534E+03	3.839927E-03	6.594366E-05
3.823363E+03	3.917294E-03	6.721939E-05
3.833191E+03	3.995385E-03	6.850525E-05
3.843020E+03	4.074160E-03	6.980048E-05
3.852849E+03	4.153493E-03	7.110290E-05
3.862677E+03	4.233489E-03	7.241428E-05
3.872506E+03	4.314018E-03	7.373233E-05
3.882335E+03	4.395038E-03	7.505634E-05
3.892163E+03	4.476620E-03	7.638745E-05
3.901992E+03	4.558629E-03	7.772336E-05
3.911821E+03	4.641080E-03	7.906424E-05
3.921650E+03	4.723997E-03	8.041053E-05
3.931478E+03	4.807250E-03	8.175995E-05
3.941307E+03	4.890917E-03	8.311382E-05
3.951136E+03	4.974978E-03	8.447174E-05
3.960964E+03	5.059304E-03	8.583154E-05
3.970793E+03	5.144046E-03	8.719571E-05
3.980622E+03	5.229084E-03	8.856221E-05
3.990450E+03	5.314409E-03	8.993087E-05
4.000279E+03	5.400131E-03	9.130352E-05
4.010108E+03	5.486142E-03	9.267829E-05
4.019937E+03	5.572503E-03	9.405621E-05
4.029765E+03	5.659224E-03	9.543741E-05
4.039594E+03	5.746327E-03	9.682223E-05
4.049423E+03	5.833828E-03	9.821093E-05
4.059251E+03	5.921754E-03	9.960392E-05
4.069080E+03	6.010073E-03	1.010006E-04
4.078909E+03	6.098878E-03	1.024026E-04
4.088737E+03	6.188144E-03	1.038094E-04
4.098566E+03	6.277971E-03	1.052226E-04
4.108395E+03	6.368277E-03	1.066408E-04
4.118223E+03	6.459168E-03	1.080659E-04
4.128052E+03	6.550687E-03	1.094984E-04
4.137881E+03	6.642753E-03	1.109370E-04
4.147710E+03	6.735413E-03	1.123824E-04
4.157538E+03	6.828708E-03	1.138353E-04
4.167367E+03	6.922552E-03	1.152941E-04
4.177196E+03	7.016983E-03	1.167596E-04
4.187024E+03	7.111969E-03	1.182311E-04
4.196853E+03	7.207476E-03	1.197080E-04
4.206682E+03	7.303389E-03	1.211884E-04
4.216510E+03	7.399665E-03	1.226716E-04
4.226339E+03	7.496169E-03	1.241552E-04
4.236168E+03	7.592905E-03	1.256394E-04
4.245997E+03	7.689582E-03	1.271193E-04
4.255825E+03	7.786182E-03	1.285945E-04
4.265654E+03	7.882454E-03	1.300610E-04
4.275483E+03	7.978284E-03	1.315169E-04
4.285311E+03	8.073619E-03	1.329613E-04
4.295140E+03	8.168244E-03	1.343907E-04
4.304969E+03	8.262165E-03	1.358053E-04
4.314797E+03	8.355450E-03	1.372060E-04
4.324626E+03	8.448250E-03	1.385956E-04
4.334455E+03	8.540713E-03	1.399764E-04
4.344283E+03	8.632830E-03	1.413482E-04
4.354112E+03	8.724747E-03	1.427136E-04
4.363941E+03	8.816691E-03	1.440761E-04
4.373770E+03	8.908653E-03	1.454356E-04
4.383598E+03	9.000695E-03	1.467932E-04
4.393427E+03	9.092894E-03	1.481501E-04
4.403256E+03	9.185395E-03	1.495086E-04
4.413084E+03	9.278107E-03	1.508673E-04
4.422913E+03	9.371014E-03	1.522258E-04
4.432742E+03	9.464279E-03	1.535868E-04
4.442570E+03	9.557806E-03	1.549488E-04
4.452399E+03	9.651498E-03	1.563101E-04
4.462228E+03	9.745444E-03	1.576721E-04
4.472057E+03	9.839462E-03	1.590320E-04
4.481885E+03	9.933655E-03	1.603914E-04
4.491714E+03	1.002794E-02	1.617488E-04
4.501543E+03	1.012215E-02	1.631017E-04
4.511371E+03	1.021622E-02	1.644490E-04
4.521200E+03	1.031027E-02	1.657927E-04
4.531029E+03	1.040408E-02	1.671291E-04
4.540857E+03	1.049758E-02	1.684572E-04
4.550686E+03	1.059075E-02	1.697768E-04
4.560515E+03	1.068357E-02	1.710873E-04
4.570343E+03	1.077592E-02	1.723870E-04
4.580172E+03	1.086768E-02	1.736741E-04
4.590001E+03	1.095888E-02	1.749490E-04
4.599830E+03	1.104942E-02	1.762100E-04
4.609658E+03	1.113900E-02	1.774526E-04
4.619487E+03	1.122776E-02	1.786789E-04
4.629316E+03	1.131540E-02	1.798844E-04
4.639144E+03	1.140186E-02	1.810680E-04
4.648973E+03	1.148716E-02	1.822303E-04
4.658802E+03	1.157135E-02	1.833719E-04
4.668630E+03	1.165446E-02	1.844934E-04
4.678459E+03	1.173642E-02	1.855938E-04
4.688288E+03	1.181747E-02	1.866771E-04
4.698117E+03	1.189766E-02	1.877439E-04
4.707945E+03	1.197701E-02	1.887947E-04
4.717774E+03	1.205577E-02	1.898335E-04
4.727603E+03	1.213389E-02	1.908595E-04
4.737431E+03	1.221161E-02	1.918766E-04
4.747260E+03	1.228939E-02	1.928920E-04
4.757089E+03	1.236738E-02	1.939080E-04
4.766917E+03	1.244594E-02	1.949302E-04
4.776746E+03	1.252531E-02	1.959626E-04
4.786575E+03	1.260585E-02	1.970106E-04
4.796403E+03	1.268791E-02	1.980797E-04
4.806232E+03	1.277170E-02	1.991731E-04
4.816061E+03	1.285731E-02	2.002921E-04
4.825890E+03	1.294519E-02	2.014436E-04
4.835718E+03	1.303552E-02	2.026303E-04
4.845547E+03	1.312836E-02	2.038531E-04
4.855376E+03	1.322413E-02	2.051182E-04
4.865204E+03	1.332272E-02	2.064241E-04
4.875033E+03	1.342455E-02	2.077769E-04
4.884862E+03	1.352977E-02	2.091788E-04
4.894690E+03	1.363825E-02	2.106276E-04
4.904519E+03	1.375050E-02	2.121312E-04
4.914348E+03	1.386638E-02	2.136871E-04
4.924177E+03	1.398614E-02	2.152991E-04
4.934005E+03	1.410988E-02	2.169682E-04
4.943834E+03	1.423754E-02	2.186937E-04
4.953663E+03	1.436935E-02	2.204788E-04
4.963491E+03	1.450538E-02	2.223243E-04
4.973320E+03	1.464554E-02	2.242287E-04
4.983149E+03	1.479002E-02	2.261947E-04
4.992977E+03	1.493871E-02	2.282203E-04
5.002806E+03	1.509177E-02	2.303080E-04
5.012635E+03	1.524920E-02	2.324575E-04
5.022463E+03	1.541071E-02	2.346640E-04
5.032292E+03	1.557671E-02	2.369336E-04
5.042121E+03	1.574671E-02	2.392589E-04
5.051950E+03	1.592080E-02	2.416407E-04
5.061778E+03	1.609889E-02	2.440778E-04
5.071607E+03	1.628105E-02	2.465709E-04
5.081436E+03	1.646684E-02	2.491133E-04
5.091264E+03	1.665614E-02	2.517028E-04
5.101093E+03	1.684910E-02	2.543416E-04
5.110922E+03	1.704506E-02	2.570198E-04
5.120750E+03	1.724417E-02	2.597392E-04
5.130579E+03	1.744602E-02	2.624938E-04
5.140408E+03	1.765040E-02	2.652801E-04
5.150237E+03	1.785704E-02	2.680941E-04
5.160065E+03	1.806551E-02	2.709291E-04
5.169894E+03	1.827568E-02	2.737833E-04
5.179723E+03	1.848706E-02	2.766493E-04
5.189551E+03	1.869953E-02	2.795251E-04
5.199380E+03	1.891236E-02	2.824001E-04
5.209209E+03	1.912540E-02	2.852716E-04
5.219037E+03	1.933828E-02	2.881345E-04
5.228866E+03	1.955043E-02	2.909803E-04
5.238695E+03	1.976148E-02	2.938034E-04
5.248523E+03	1.997122E-02	2.966010E-04
5.258352E+03	2.017888E-02	2.993616E-04
5.268181E+03	2.038404E-02	3.020792E-04
5.278010E+03	2.058652E-02	3.047513E-04
5.287838E+03	2.078592E-02	3.073722E-04
5.297667E+03	2.098144E-02	3.099301E-04
5.307496E+03	2.117290E-02	3.124228E-04
5.317324E+03	2.135972E-02	3.148419E-04
5.327153E+03	2.154174E-02	3.171854E-04
5.336982E+03	2.171819E-02	3.194421E-04
5.346810E+03	2.188895E-02	3.216105E-04
5.356639E+03	2.205348E-02	3.236832E-04
5.366468E+03	2.221125E-02	3.256528E-04
5.376297E+03	2.236199E-02	3.275154E-04
5.386125E+03	2.250521E-02	3.292645E-04
5.395954E+03	2.264067E-02	3.308970E-04
5.405783E+03	2.276840E-02	3.324135E-04
5.415611E+03	2.288821E-02	3.338119E-04
5.425440E+03	2.299995E-02	3.350905E-04
5.435269E+03	2.310375E-02	3.362512E-04
5.445097E+03	2.319904E-02	3.372865E-04
5.454926E+03	2.328622E-02	3.382026E-04
5.464755E+03	2.336527E-02	3.389995E-04
5.474583E+03	2.343595E-02	3.396743E-04
5.484412E+03	2.349851E-02	3.402309E-04
5.494241E+03	2.355277E-02	3.406672E-04
5.504070E+03	2.359904E-02	3.409881E-04
5.513898E+03	2.363742E-02	3.411954E-04
5.523727E+03	2.366802E-02	3.412912E-04
5.533556E+03	2.369100E-02	3.412780E-04
5.543384E+03	2.370625E-02	3.411549E-04
5.553213E+03	2.371446E-02	3.409320E-04
5.563042E+03	2.371556E-02	3.406087E-04
5.572870E+03	2.370977E-02	3.401884E-04
5.582699E+03	2.369755E-02	3.396782E-04
5.592528E+03	2.367888E-02	3.390781E-04
5.602357E+03	2.365401E-02	3.383918E-04
5.612185E+03	2.362365E-02	3.376302E-04
5.622014E+03	2.358758E-02	3.367899E-04
5.631843E+03	2.354605E-02	3.358750E-04
5.641671E+03	2.349979E-02	3.348963E-04
5.651500E+03	2.344883E-02	3.338542E-04
5.661329E+03	2.339341E-02	3.327526E-04
5.671157E+03	2.333403E-02	3.315986E-04
5.680986E+03	2.327045E-02	3.303891E-04
5.690815E+03	2.320365E-02	3.291383E-04
5.700643E+03	2.313339E-02	3.278427E-04
5.710472E+03	2.305989E-02	3.265057E-04
5.720301E+03	2.298388E-02	3.251379E-04
5.730130E+03	2.290533E-02	3.237389E-04
5.739958E+03	2.282446E-02	3.223120E-04
5.749787E+03	2.274148E-02	3.208602E-04
5.759616E+03	2.265684E-02	3.193899E-04
5.769444E+03	2.257072E-02	3.179039E-04
5.779273E+03	2.248308E-02	3.164016E-04
5.789102E+03	2.239434E-02	3.148890E-04
5.798930E+03	2.230491E-02	3.133719E-04
5.808759E+03	2.221472E-02	3.118494E-04
5.818588E+03	2.212391E-02	3.103237E-04
5.828417E+03	2.203290E-02	3.088004E-04
5.838245E+03	2.194158E-02	3.072782E-04
5.848074E+03	2.185058E-02	3.057658E-04
5.857903E+03	2.175978E-02	3.042618E-04
5.867731E+03	2.166933E-02	3.027680E-04
5.877560E+03	2.157932E-02	3.012859E-04
5.887389E+03	2.149014E-02	2.998208E-04
5.897217E+03	2.140189E-02	2.983741E-04
5.907046E+03	2.131442E-02	2.969439E-04
5.916875E+03	2.122834E-02	2.955385E-04
5.926703E+03	2.114325E-02	2.941522E-04
5.936532E+03	2.105972E-02	2.927932E-04
5.946361E+03	2.097735E-02	2.914559E-04
5.956190E+03	2.089672E-02	2.901482E-04
5.966018E+03	2.081766E-02	2.888676E-04
5.975847E+03	2.074024E-02	2.876153E-04
5.985676E+03	2.066476E-02	2.863954E-04
5.995504E+03	2.059105E-02	2.852054E-04
6.005333E+03	2.051941E-02	2.840495E-04
6.015162E+03	2.045012E-02	2.829317E-04
6.024990E+03	2.038275E-02	2.818457E-04
6.034819E+03	2.031807E-02	2.808023E-04
6.044648E+03	2.025611E-02	2.798020E-04
6.054477E+03	2.019715E-02	2.788485E-04
6.064305E+03	2.014121E-02	2.779420E-04
6.074134E+03	2.008804E-02	2.770792E-04
6.083963E+03	2.003791E-02	2.762636E-04
6.093791E+03	1.999031E-02	2.754882E-04
6.103620E+03	1.994523E-02	2.747530E-04
6.113449E+03	1.990214E-02	2.740505E-04
6.123277E+03	1.986152E-02	2.733874E-04
6.133106E+03	1.982308E-02	2.727597E-04
6.142935E+03	1.978677E-02	2.721668E-04
6.152763E+03	1.975252E-02	2.716077E-04
6.162592E+03	1.972029E-02	2.710818E-04
6.172421E+03	1.969024E-02	2.705913E-04
6.182250E+03	1.966178E-02	2.701283E-04
6.192078E+03	1.963558E-02	2.697018E-04
6.201907E+03	1.961103E-02	2.693035E-04
6.211736E+03	1.958827E-02	2.689355E-04
6.221564E+03	1.956717E-02	2.685960E-04
6.231393E+03	1.954759E-02	2.682831E-04
6.241222E+03	1.952940E-02	2.679950E-04
6.251050E+03	1.951271E-02	2.677331E-04
6.260879E+03	1.949706E-02	2.674916E-04
6.270708E+03	1.948282E-02	2.672752E-04
6.280537E+03	1.946926E-02	2.670739E-04
6.290365E+03	1.945644E-02	2.668886E-04
6.300194E+03	1.944412E-02	2.667158E-04
6.310023E+03	1.943207E-02	2.665524E-04
6.319851E+03	1.942030E-02	2.663983E-04
6.329680E+03	1.940776E-02	2.662391E-04
6.339509E+03	1.939508E-02	2.660833E-04
6.349337E+03	1.938143E-02	2.659197E-04
6.359166E+03	1.936683E-02	2.657481E-04
6.368995E+03	1.935125E-02	2.655683E-04
6.378823E+03	1.933468E-02	2.653800E-04
6.388652E+03	1.931682E-02	2.651789E-04
6.398481E+03	1.929736E-02	2.649607E-04
6.408310E+03	1.927627E-02	2.647249E-04
6.418138E+03	1.925376E-02	2.644743E-04
6.427967E+03	1.922926E-02	2.642010E-04
6.437796E+03	1.920327E-02	2.639118E-04
6.447624E+03	1.917493E-02	2.635947E-04
6.457453E+03	1.914477E-02	2.632569E-04
6.467282E+03	1.911276E-02	2.628978E-04
6.477110E+03	1.907861E-02	2.625135E-04
6.486939E+03	1.904232E-02	2.621037E-04
6.496768E+03	1.900416E-02	2.616721E-04
6.506597E+03	1.896388E-02	2.612150E-04
6.516425E+03	1.892177E-02	2.607364E-04
6.526254E+03	1.887758E-02	2.602327E-04
6.536083E+03	1.883190E-02	2.597120E-04
6.545911E+03	1.878424E-02	2.591673E-04
6.555740E+03	1.873494E-02	2.586030E-04
6.565569E+03	1.868404E-02	2.580200E-04
6.575397E+03	1.863162E-02	2.574190E-04
6.585226E+03	1.857805E-02	2.568049E-04
6.595055E+03	1.852286E-02	2.561711E-04
6.604883E+03	1.846668E-02	2.555265E-04
6.614712E+03	1.840962E-02	2.548722E-04
6.624541E+03	1.835149E-02	2.542057E-04
6.634370E+03	1.829269E-02	2.535321E-04
6.644198E+03	1.823302E-02	2.528488E-04
6.654027E+03	1.817288E-02	2.521612E-04
6.663856E+03	1.811238E-02	2.514707E-04
6.673684E+03	1.805162E-02	2.507785E-04
6.683513E+03	1.799071E-02	2.500861E-04
6.693342E+03	1.792947E-02	2.493911E-04
6.703170E+03	1.786856E-02	2.487024E-04
6.712999E+03	1.780782E-02	2.480176E-04
6.722828E+03	1.774733E-02	2.473379E-04
6.732657E+03	1.768690E-02	2.466606E-04
6.742485E+03	1.762748E-02	2.459989E-04
6.752314E+03	1.756830E-02	2.453418E-04
6.762143E+03	1.751001E-02	2.446985E-04
6.771971E+03	1.745212E-02	2.440621E-04
6.781800E+03	1.739526E-02	2.434413E-04
6.791629E+03	1.733951E-02	2.428372E-04
6.801457E+03	1.728436E-02	2.422425E-04
6.811286E+03	1.723042E-02	2.416659E-04
6.821115E+03	1.717774E-02	2.411082E-04
6.830943E+03	1.712581E-02	2.405617E-04
6.840772E+03	1.707522E-02	2.400351E-04
6.850601E+03	1.702601E-02	2.395288E-04
6.860430E+03	1.697790E-02	2.390390E-04
6.870258E+03	1.693093E-02	2.385660E-04
6.880087E+03	1.688510E-02	2.381099E-04
6.889916E+03	1.684071E-02	2.376748E-04
6.899744E+03	1.679747E-02	2.372568E-04
6.909573E+03	1.675566E-02	2.368598E-04
6.919402E+03	1.671499E-02	2.364795E-04
6.929230E+03	1.667572E-02	2.361199E-04
6.939059E+03	1.663756E-02	2.357765E-04
6.948888E+03	1.660046E-02	2.354491E-04
6.958717E+03	1.656471E-02	2.351413E-04
6.968545E+03	1.652997E-02	2.348485E-04
6.978374E+03	1.649649E-02	2.345744E-04
6.988203E+03	1.646396E-02	2.343142E-04
6.998031E+03	1.643261E-02	2.340715E-04
7.007860E+03	1.640242E-02	2.338459E-04
7.017689E+03	1.637303E-02	2.336324E-04
7.027517E+03	1.634440E-02	2.334301E-04
7.037346E+03	1.631708E-02	2.332472E-04
7.047175E+03	1.629012E-02	2.330700E-04
7.057003E+03	1.626438E-02	2.329107E-04
7.066832E+03	1.623950E-02	2.327643E-04
7.076661E+03	1.621514E-02	2.326259E-04
7.086490E+03	1.619187E-02	2.325035E-04
7.096318E+03	1.616903E-02	2.323879E-04
7.106147E+03	1.614718E-02	2.322870E-04
7.115976E+03	1.612600E-02	2.321961E-04
7.125804E+03	1.610575E-02	2.321192E-04
7.135633E+03	1.608610E-02	2.320513E-04
7.145462E+03	1.606732E-02	2.319966E-04
7.155290E+03	1.604941E-02	2.319547E-04
7.165119E+03	1.603266E-02	2.319300E-04
7.174948E+03	1.601674E-02	2.319178E-04
7.184777E+03	1.600196E-02	2.319227E-04
7.194605E+03	1.598833E-02	2.319446E-04
7.204434E+03	1.597584E-02	2.319836E-04
7.214263E+03	1.596483E-02	2.320446E-04
7.224091E+03	1.595563E-02	2.321324E-04
7.233920E+03	1.594795E-02	2.322429E-04
7.243749E+03	1.594213E-02	2.323810E-04
7.253577E+03	1.593821E-02	2.325474E-04
7.263406E+03	1.593654E-02	2.327473E-04
7.273235E+03	1.593716E-02	2.329814E-04
7.283063E+03	1.594012E-02	2.332505E-04
7.292892E+03	1.594512E-02	2.335502E-04
7.302721E+03	1.595287E-02	2.338910E-04
7.312550E+03	1.596274E-02	2.342638E-04
7.322378E+03	1.597476E-02	2.346692E-04
7.332207E+03	1.598932E-02	2.351128E-04
7.342036E+03	1.600610E-02	2.355902E-04
7.351864E+03	1.602478E-02	2.360967E-04
7.361693E+03	1.604539E-02	2.366327E-04
7.371522E+03	1.606758E-02	2.371934E-04
7.381350E+03	1.609170E-02	2.377838E-04
7.391179E+03	1.611705E-02	2.383936E-04
7.401008E+03	1.614395E-02	2.390277E-04
7.410837E+03	1.617237E-02	2.396858E-04
7.420665E+03	1.620157E-02	2.403566E-04
7.430494E+03	1.623147E-02	2.410394E-04
7.440323E+03	1.626235E-02	2.417382E-04
7.450151E+03	1.629414E-02	2.424519E-04
7.459980E+03	1.632601E-02	2.431682E-04
7.469809E+03	1.635818E-02	2.438906E-04
7.479637E+03	1.639053E-02	2.446171E-04
7.489466E+03	1.642291E-02	2.453454E-04
7.499295E+03	1.645514E-02	2.460730E-04
7.509123E+03	1.648666E-02	2.467916E-04
7.518952E+03	1.651766E-02	2.475036E-04
7.528781E+03	1.654753E-02	2.482002E-04
7.538610E+03	1.657604E-02	2.488779E-04
7.548438E+03	1.660333E-02	2.495385E-04
7.558267E+03	1.662913E-02	2.501780E-04
7.568096E+03	1.665280E-02	2.507867E-04
7.577924E+03	1.667406E-02	2.513602E-04
7.587753E+03	1.669299E-02	2.518997E-04
7.597582E+03	1.670930E-02	2.524008E-04
7.607410E+03	1.672231E-02	2.528529E-04
7.617239E+03	1.673172E-02	2.532513E-04
7.627068E+03	1.673760E-02	2.535971E-04
