#wls	flux	fluxerr
1.572591E+03	8.743998E-05	0.000000E+00
1.611906E+03	8.870255E-05	0.000000E+00
1.651221E+03	8.965694E-05	0.000000E+00
1.690536E+03	9.028367E-05	0.000000E+00
1.729850E+03	9.054967E-05	0.000000E+00
1.769165E+03	9.037864E-05	0.000000E+00
1.808480E+03	8.963961E-05	0.000000E+00
1.847795E+03	8.822119E-05	0.000000E+00
1.887110E+03	8.600968E-05	0.000000E+00
1.926424E+03	8.296140E-05	0.000000E+00
1.965739E+03	7.919877E-05	0.000000E+00
2.005054E+03	7.513770E-05	0.000000E+00
2.044369E+03	7.150690E-05	0.000000E+00
2.083683E+03	6.922134E-05	0.000000E+00
2.122998E+03	6.904641E-05	0.000000E+00
2.162313E+03	7.128931E-05	0.000000E+00
2.201628E+03	7.570904E-05	0.000000E+00
2.240943E+03	8.172035E-05	0.000000E+00
2.280257E+03	8.868230E-05	0.000000E+00
2.319572E+03	9.606550E-05	0.000000E+00
2.358887E+03	1.035422E-04	0.000000E+00
2.398202E+03	1.109355E-04	0.000000E+00
2.437517E+03	1.181984E-04	0.000000E+00
2.476831E+03	1.253168E-04	0.000000E+00
2.516146E+03	1.323822E-04	0.000000E+00
2.555461E+03	1.394105E-04	0.000000E+00
2.594776E+03	1.465152E-04	0.000000E+00
2.634090E+03	1.537532E-04	0.000000E+00
2.673405E+03	1.611769E-04	0.000000E+00
2.712720E+03	1.688768E-04	0.000000E+00
2.752035E+03	1.769209E-04	0.000000E+00
2.791350E+03	1.853527E-04	0.000000E+00
2.830664E+03	1.942580E-04	0.000000E+00
2.869979E+03	2.037004E-04	0.000000E+00
2.909294E+03	2.137430E-04	0.000000E+00
2.948609E+03	2.244979E-04	0.000000E+00
2.958437E+03	2.272960E-04	0.000000E+00
2.968266E+03	2.301342E-04	0.000000E+00
2.978095E+03	2.330376E-04	0.000000E+00
2.987923E+03	2.359868E-04	0.000000E+00
2.997752E+03	2.390237E-04	0.000000E+00
3.007581E+03	2.421412E-04	0.000000E+00
3.017410E+03	2.453607E-04	0.000000E+00
3.027238E+03	2.486535E-04	0.000000E+00
3.037067E+03	2.520417E-04	0.000000E+00
3.046896E+03	2.554971E-04	0.000000E+00
3.056724E+03	2.590426E-04	0.000000E+00
3.066553E+03	2.626759E-04	0.000000E+00
3.076382E+03	2.663693E-04	0.000000E+00
3.086210E+03	2.701468E-04	0.000000E+00
3.096039E+03	2.740067E-04	0.000000E+00
3.105868E+03	2.779478E-04	0.000000E+00
3.115697E+03	2.819426E-04	0.000000E+00
3.125525E+03	2.860162E-04	0.000000E+00
3.135354E+03	2.901679E-04	0.000000E+00
3.145183E+03	2.944238E-04	0.000000E+00
3.155011E+03	2.987298E-04	0.000000E+00
3.164840E+03	3.031124E-04	0.000000E+00
3.174669E+03	3.075714E-04	0.000000E+00
3.184497E+03	3.121066E-04	0.000000E+00
3.194326E+03	3.167178E-04	0.000000E+00
3.204155E+03	3.214330E-04	0.000000E+00
3.213983E+03	3.261973E-04	0.000000E+00
3.223812E+03	3.310662E-04	0.000000E+00
3.233641E+03	3.360125E-04	0.000000E+00
3.243470E+03	3.410648E-04	0.000000E+00
3.253298E+03	3.461676E-04	0.000000E+00
3.263127E+03	3.514065E-04	0.000000E+00
3.272956E+03	3.566969E-04	0.000000E+00
3.282784E+03	3.621254E-04	0.000000E+00
3.292613E+03	3.676077E-04	0.000000E+00
3.302442E+03	3.732302E-04	0.000000E+00
3.312270E+03	3.789372E-04	0.000000E+00
3.322099E+03	3.847586E-04	0.000000E+00
3.331928E+03	3.906668E-04	0.000000E+00
3.341757E+03	3.966920E-04	0.000000E+00
3.351585E+03	4.028363E-04	0.000000E+00
3.361414E+03	4.091299E-04	0.000000E+00
3.371243E+03	4.154867E-04	0.000000E+00
3.381071E+03	4.219962E-04	0.000000E+00
3.390900E+03	4.286311E-04	0.000000E+00
3.400729E+03	4.354234E-04	0.000000E+00
3.410557E+03	4.423141E-04	0.000000E+00
3.420386E+03	4.493359E-04	0.000000E+00
3.430215E+03	4.565204E-04	0.000000E+00
3.440043E+03	4.638394E-04	0.000000E+00
3.449872E+03	4.713255E-04	0.000000E+00
3.459701E+03	4.789501E-04	0.000000E+00
3.469530E+03	4.867158E-04	0.000000E+00
3.479358E+03	4.946547E-04	0.000000E+00
3.489187E+03	5.027698E-04	0.000000E+00
3.499016E+03	5.110322E-04	0.000000E+00
3.508844E+03	5.194753E-04	0.000000E+00
3.518673E+03	5.281013E-04	0.000000E+00
3.528502E+03	5.369129E-04	0.000000E+00
3.538330E+03	5.458807E-04	0.000000E+00
3.548159E+03	5.550707E-04	0.000000E+00
3.557988E+03	5.644221E-04	0.000000E+00
3.567817E+03	5.740009E-04	0.000000E+00
3.577645E+03	5.837779E-04	0.000000E+00
3.587474E+03	5.937559E-04	0.000000E+00
3.597303E+03	6.039374E-04	0.000000E+00
3.607131E+03	6.143577E-04	0.000000E+00
3.616960E+03	6.249873E-04	0.000000E+00
3.626789E+03	6.358284E-04	0.000000E+00
3.636617E+03	6.469174E-04	0.000000E+00
3.646446E+03	6.582566E-04	0.000000E+00
3.656275E+03	6.698165E-04	0.000000E+00
3.666103E+03	6.816326E-04	0.000000E+00
3.675932E+03	6.936755E-04	0.000000E+00
3.685761E+03	7.059806E-04	0.000000E+00
3.695590E+03	7.185520E-04	0.000000E+00
3.705418E+03	7.313922E-04	0.000000E+00
3.715247E+03	7.445046E-04	0.000000E+00
3.725076E+03	7.578928E-04	0.000000E+00
3.734904E+03	7.715592E-04	0.000000E+00
3.744733E+03	7.855081E-04	0.000000E+00
3.754562E+03	7.997077E-04	0.000000E+00
3.764390E+03	8.142298E-04	0.000000E+00
3.774219E+03	8.290788E-04	0.000000E+00
3.784048E+03	8.441880E-04	0.000000E+00
3.793877E+03	8.596306E-04	0.000000E+00
3.803705E+03	8.753399E-04	0.000000E+00
3.813534E+03	8.914250E-04	0.000000E+00
3.823363E+03	9.077833E-04	0.000000E+00
3.833191E+03	9.244887E-04	0.000000E+00
3.843020E+03	9.415098E-04	0.000000E+00
3.852849E+03	9.588490E-04	0.000000E+00
3.862677E+03	9.765461E-04	0.000000E+00
3.872506E+03	9.945324E-04	0.000000E+00
3.882335E+03	1.012920E-03	0.000000E+00
3.892163E+03	1.031603E-03	0.000000E+00
3.901992E+03	1.050657E-03	0.000000E+00
3.911821E+03	1.070050E-03	0.000000E+00
3.921650E+03	1.089785E-03	0.000000E+00
3.931478E+03	1.109901E-03	0.000000E+00
3.941307E+03	1.130328E-03	0.000000E+00
3.951136E+03	1.151144E-03	0.000000E+00
3.960964E+03	1.172313E-03	0.000000E+00
3.970793E+03	1.193802E-03	0.000000E+00
3.980622E+03	1.215688E-03	0.000000E+00
3.990450E+03	1.237900E-03	0.000000E+00
4.000279E+03	1.260477E-03	0.000000E+00
4.010108E+03	1.283423E-03	0.000000E+00
4.019937E+03	1.306701E-03	0.000000E+00
4.029765E+03	1.330352E-03	0.000000E+00
4.039594E+03	1.354302E-03	0.000000E+00
4.049423E+03	1.378630E-03	0.000000E+00
4.059251E+03	1.403339E-03	0.000000E+00
4.069080E+03	1.428313E-03	0.000000E+00
4.078909E+03	1.453671E-03	0.000000E+00
4.088737E+03	1.479337E-03	0.000000E+00
4.098566E+03	1.505351E-03	0.000000E+00
4.108395E+03	1.531676E-03	0.000000E+00
4.118223E+03	1.558272E-03	0.000000E+00
4.128052E+03	1.585220E-03	0.000000E+00
4.137881E+03	1.612441E-03	0.000000E+00
4.147710E+03	1.639976E-03	0.000000E+00
4.157538E+03	1.667744E-03	0.000000E+00
4.167367E+03	1.695827E-03	0.000000E+00
4.177196E+03	1.724142E-03	0.000000E+00
4.187024E+03	1.752731E-03	0.000000E+00
4.196853E+03	1.781551E-03	0.000000E+00
4.206682E+03	1.810603E-03	0.000000E+00
4.216510E+03	1.839844E-03	0.000000E+00
4.226339E+03	1.869313E-03	0.000000E+00
4.236168E+03	1.898969E-03	0.000000E+00
4.245997E+03	1.928766E-03	0.000000E+00
4.255825E+03	1.958788E-03	0.000000E+00
4.265654E+03	1.988905E-03	0.000000E+00
4.275483E+03	2.019200E-03	0.000000E+00
4.285311E+03	2.049585E-03	0.000000E+00
4.295140E+03	2.080100E-03	0.000000E+00
4.304969E+03	2.110699E-03	0.000000E+00
4.314797E+03	2.141378E-03	0.000000E+00
4.324626E+03	2.172090E-03	0.000000E+00
4.334455E+03	2.202876E-03	0.000000E+00
4.344283E+03	2.233642E-03	0.000000E+00
4.354112E+03	2.264475E-03	0.000000E+00
4.363941E+03	2.295280E-03	0.000000E+00
4.373770E+03	2.326052E-03	0.000000E+00
4.383598E+03	2.356787E-03	0.000000E+00
4.393427E+03	2.387526E-03	0.000000E+00
4.403256E+03	2.418127E-03	0.000000E+00
4.413084E+03	2.448675E-03	0.000000E+00
4.422913E+03	2.479120E-03	0.000000E+00
4.432742E+03	2.509456E-03	0.000000E+00
4.442570E+03	2.539677E-03	0.000000E+00
4.452399E+03	2.569732E-03	0.000000E+00
4.462228E+03	2.599660E-03	0.000000E+00
4.472057E+03	2.629409E-03	0.000000E+00
4.481885E+03	2.658926E-03	0.000000E+00
4.491714E+03	2.688299E-03	0.000000E+00
4.501543E+03	2.717473E-03	0.000000E+00
4.511371E+03	2.746396E-03	0.000000E+00
4.521200E+03	2.775109E-03	0.000000E+00
4.531029E+03	2.803556E-03	0.000000E+00
4.540857E+03	2.831731E-03	0.000000E+00
4.550686E+03	2.859676E-03	0.000000E+00
4.560515E+03	2.887336E-03	0.000000E+00
4.570343E+03	2.914752E-03	0.000000E+00
4.580172E+03	2.941822E-03	0.000000E+00
4.590001E+03	2.968635E-03	0.000000E+00
4.599830E+03	2.995088E-03	0.000000E+00
4.609658E+03	3.021271E-03	0.000000E+00
4.619487E+03	3.047129E-03	0.000000E+00
4.629316E+03	3.072607E-03	0.000000E+00
4.639144E+03	3.097796E-03	0.000000E+00
4.648973E+03	3.122641E-03	0.000000E+00
4.658802E+03	3.147185E-03	0.000000E+00
4.668630E+03	3.171324E-03	0.000000E+00
4.678459E+03	3.195149E-03	0.000000E+00
4.688288E+03	3.218605E-03	0.000000E+00
4.698117E+03	3.241737E-03	0.000000E+00
4.707945E+03	3.264488E-03	0.000000E+00
4.717774E+03	3.286853E-03	0.000000E+00
4.727603E+03	3.308928E-03	0.000000E+00
4.737431E+03	3.330605E-03	0.000000E+00
4.747260E+03	3.351931E-03	0.000000E+00
4.757089E+03	3.372900E-03	0.000000E+00
4.766917E+03	3.393507E-03	0.000000E+00
4.776746E+03	3.413798E-03	0.000000E+00
4.786575E+03	3.433719E-03	0.000000E+00
4.796403E+03	3.453264E-03	0.000000E+00
4.806232E+03	3.472480E-03	0.000000E+00
4.816061E+03	3.491416E-03	0.000000E+00
4.825890E+03	3.509911E-03	0.000000E+00
4.835718E+03	3.528169E-03	0.000000E+00
4.845547E+03	3.546031E-03	0.000000E+00
4.855376E+03	3.563597E-03	0.000000E+00
4.865204E+03	3.580812E-03	0.000000E+00
4.875033E+03	3.597725E-03	0.000000E+00
4.884862E+03	3.614279E-03	0.000000E+00
4.894690E+03	3.630578E-03	0.000000E+00
4.904519E+03	3.646566E-03	0.000000E+00
4.914348E+03	3.662187E-03	0.000000E+00
4.924177E+03	3.677597E-03	0.000000E+00
4.934005E+03	3.692636E-03	0.000000E+00
4.943834E+03	3.707407E-03	0.000000E+00
4.953663E+03	3.721907E-03	0.000000E+00
4.963491E+03	3.736135E-03	0.000000E+00
4.973320E+03	3.750036E-03	0.000000E+00
4.983149E+03	3.763661E-03	0.000000E+00
4.992977E+03	3.777062E-03	0.000000E+00
5.002806E+03	3.790130E-03	0.000000E+00
5.012635E+03	3.802971E-03	0.000000E+00
5.022463E+03	3.815531E-03	0.000000E+00
5.032292E+03	3.827808E-03	0.000000E+00
5.042121E+03	3.839800E-03	0.000000E+00
5.051950E+03	3.851561E-03	0.000000E+00
5.061778E+03	3.863036E-03	0.000000E+00
5.071607E+03	3.874224E-03	0.000000E+00
5.081436E+03	3.885178E-03	0.000000E+00
5.091264E+03	3.895897E-03	0.000000E+00
5.101093E+03	3.906327E-03	0.000000E+00
5.110922E+03	3.916468E-03	0.000000E+00
5.120750E+03	3.926318E-03	0.000000E+00
5.130579E+03	3.935932E-03	0.000000E+00
5.140408E+03	3.945309E-03	0.000000E+00
5.150237E+03	3.954341E-03	0.000000E+00
5.160065E+03	3.963136E-03	0.000000E+00
5.169894E+03	3.971640E-03	0.000000E+00
5.179723E+03	3.979851E-03	0.000000E+00
5.189551E+03	3.987827E-03	0.000000E+00
5.199380E+03	3.995456E-03	0.000000E+00
5.209209E+03	4.002795E-03	0.000000E+00
5.219037E+03	4.009842E-03	0.000000E+00
5.228866E+03	4.016599E-03	0.000000E+00
5.238695E+03	4.023065E-03	0.000000E+00
5.248523E+03	4.029243E-03	0.000000E+00
5.258352E+03	4.035076E-03	0.000000E+00
5.268181E+03	4.040620E-03	0.000000E+00
5.278010E+03	4.045822E-03	0.000000E+00
5.287838E+03	4.050737E-03	0.000000E+00
5.297667E+03	4.055310E-03	0.000000E+00
5.307496E+03	4.059543E-03	0.000000E+00
5.317324E+03	4.063491E-03	0.000000E+00
5.327153E+03	4.067101E-03	0.000000E+00
5.336982E+03	4.070372E-03	0.000000E+00
5.346810E+03	4.073308E-03	0.000000E+00
5.356639E+03	4.075963E-03	0.000000E+00
5.366468E+03	4.078284E-03	0.000000E+00
5.376297E+03	4.080216E-03	0.000000E+00
5.386125E+03	4.081873E-03	0.000000E+00
5.395954E+03	4.083254E-03	0.000000E+00
5.405783E+03	4.084251E-03	0.000000E+00
5.415611E+03	4.084976E-03	0.000000E+00
5.425440E+03	4.085375E-03	0.000000E+00
5.435269E+03	4.085506E-03	0.000000E+00
5.445097E+03	4.085258E-03	0.000000E+00
5.454926E+03	4.084800E-03	0.000000E+00
5.464755E+03	4.084023E-03	0.000000E+00
5.474583E+03	4.082984E-03	0.000000E+00
5.484412E+03	4.081629E-03	0.000000E+00
5.494241E+03	4.080071E-03	0.000000E+00
5.504070E+03	4.078200E-03	0.000000E+00
5.513898E+03	4.076130E-03	0.000000E+00
5.523727E+03	4.073807E-03	0.000000E+00
5.533556E+03	4.071233E-03	0.000000E+00
5.543384E+03	4.068464E-03	0.000000E+00
5.553213E+03	4.065449E-03	0.000000E+00
5.563042E+03	4.062244E-03	0.000000E+00
5.572870E+03	4.058850E-03	0.000000E+00
5.582699E+03	4.055270E-03	0.000000E+00
5.592528E+03	4.051505E-03	0.000000E+00
5.602357E+03	4.047614E-03	0.000000E+00
5.612185E+03	4.043487E-03	0.000000E+00
5.622014E+03	4.039237E-03	0.000000E+00
5.631843E+03	4.034865E-03	0.000000E+00
5.641671E+03	4.030318E-03	0.000000E+00
5.651500E+03	4.025654E-03	0.000000E+00
5.661329E+03	4.020874E-03	0.000000E+00
5.671157E+03	4.015981E-03	0.000000E+00
5.680986E+03	4.010975E-03	0.000000E+00
5.690815E+03	4.005859E-03	0.000000E+00
5.700643E+03	4.000635E-03	0.000000E+00
5.710472E+03	3.995304E-03	0.000000E+00
5.720301E+03	3.989868E-03	0.000000E+00
5.730130E+03	3.984384E-03	0.000000E+00
5.739958E+03	3.978799E-03	0.000000E+00
5.749787E+03	3.973114E-03	0.000000E+00
5.759616E+03	3.967386E-03	0.000000E+00
5.769444E+03	3.961561E-03	0.000000E+00
5.779273E+03	3.955697E-03	0.000000E+00
5.789102E+03	3.949740E-03	0.000000E+00
5.798930E+03	3.943691E-03	0.000000E+00
5.808759E+03	3.937606E-03	0.000000E+00
5.818588E+03	3.931433E-03	0.000000E+00
5.828417E+03	3.925173E-03	0.000000E+00
5.838245E+03	3.918882E-03	0.000000E+00
5.848074E+03	3.912506E-03	0.000000E+00
5.857903E+03	3.906103E-03	0.000000E+00
5.867731E+03	3.899562E-03	0.000000E+00
5.877560E+03	3.892996E-03	0.000000E+00
5.887389E+03	3.886351E-03	0.000000E+00
5.897217E+03	3.879628E-03	0.000000E+00
5.907046E+03	3.872828E-03	0.000000E+00
5.916875E+03	3.865951E-03	0.000000E+00
5.926703E+03	3.859055E-03	0.000000E+00
5.936532E+03	3.852030E-03	0.000000E+00
5.946361E+03	3.844879E-03	0.000000E+00
5.956190E+03	3.837709E-03	0.000000E+00
5.966018E+03	3.830468E-03	0.000000E+00
5.975847E+03	3.823102E-03	0.000000E+00
5.985676E+03	3.815613E-03	0.000000E+00
5.995504E+03	3.808108E-03	0.000000E+00
6.005333E+03	3.800481E-03	0.000000E+00
6.015162E+03	3.792731E-03	0.000000E+00
6.024990E+03	3.784914E-03	0.000000E+00
6.034819E+03	3.776975E-03	0.000000E+00
6.044648E+03	3.768916E-03	0.000000E+00
6.054477E+03	3.760789E-03	0.000000E+00
6.064305E+03	3.752542E-03	0.000000E+00
6.074134E+03	3.744228E-03	0.000000E+00
6.083963E+03	3.735740E-03	0.000000E+00
6.093791E+03	3.727184E-03	0.000000E+00
6.103620E+03	3.718508E-03	0.000000E+00
6.113449E+03	3.709710E-03	0.000000E+00
6.123277E+03	3.700791E-03	0.000000E+00
6.133106E+03	3.691751E-03	0.000000E+00
6.142935E+03	3.682641E-03	0.000000E+00
6.152763E+03	3.673355E-03	0.000000E+00
6.162592E+03	3.663998E-03	0.000000E+00
6.172421E+03	3.654517E-03	0.000000E+00
6.182250E+03	3.644910E-03	0.000000E+00
6.192078E+03	3.635177E-03	0.000000E+00
6.201907E+03	3.625317E-03	0.000000E+00
6.211736E+03	3.615381E-03	0.000000E+00
6.221564E+03	3.605316E-03	0.000000E+00
6.231393E+03	3.595120E-03	0.000000E+00
6.241222E+03	3.584792E-03	0.000000E+00
6.251050E+03	3.574383E-03	0.000000E+00
6.260879E+03	3.563839E-03	0.000000E+00
6.270708E+03	3.553158E-03	0.000000E+00
6.280537E+03	3.542393E-03	0.000000E+00
6.290365E+03	3.531540E-03	0.000000E+00
6.300194E+03	3.520546E-03	0.000000E+00
6.310023E+03	3.509461E-03	0.000000E+00
6.319851E+03	3.498283E-03	0.000000E+00
6.329680E+03	3.486959E-03	0.000000E+00
6.339509E+03	3.475542E-03	0.000000E+00
6.349337E+03	3.464035E-03	0.000000E+00
6.359166E+03	3.452444E-03	0.000000E+00
6.368995E+03	3.440826E-03	0.000000E+00
6.378823E+03	3.429080E-03	0.000000E+00
6.388652E+03	3.417317E-03	0.000000E+00
6.398481E+03	3.405486E-03	0.000000E+00
6.408310E+03	3.393646E-03	0.000000E+00
6.418138E+03	3.381748E-03	0.000000E+00
6.427967E+03	3.369848E-03	0.000000E+00
6.437796E+03	3.357948E-03	0.000000E+00
6.447624E+03	3.346002E-03	0.000000E+00
6.457453E+03	3.334116E-03	0.000000E+00
6.467282E+03	3.322189E-03	0.000000E+00
6.477110E+03	3.310328E-03	0.000000E+00
6.486939E+03	3.298485E-03	0.000000E+00
6.496768E+03	3.286662E-03	0.000000E+00
6.506597E+03	3.274912E-03	0.000000E+00
6.516425E+03	3.263239E-03	0.000000E+00
6.526254E+03	3.251594E-03	0.000000E+00
6.536083E+03	3.240029E-03	0.000000E+00
6.545911E+03	3.228547E-03	0.000000E+00
6.555740E+03	3.217150E-03	0.000000E+00
6.565569E+03	3.205839E-03	0.000000E+00
6.575397E+03	3.194616E-03	0.000000E+00
6.585226E+03	3.183535E-03	0.000000E+00
6.595055E+03	3.172543E-03	0.000000E+00
6.604883E+03	3.161644E-03	0.000000E+00
6.614712E+03	3.150889E-03	0.000000E+00
6.624541E+03	3.140279E-03	0.000000E+00
6.634370E+03	3.129765E-03	0.000000E+00
6.644198E+03	3.119448E-03	0.000000E+00
6.654027E+03	3.109228E-03	0.000000E+00
6.663856E+03	3.099157E-03	0.000000E+00
6.673684E+03	3.089284E-03	0.000000E+00
6.683513E+03	3.079511E-03	0.000000E+00
6.693342E+03	3.069937E-03	0.000000E+00
6.703170E+03	3.060514E-03	0.000000E+00
6.712999E+03	3.051240E-03	0.000000E+00
6.722828E+03	3.042168E-03	0.000000E+00
6.732657E+03	3.033246E-03	0.000000E+00
6.742485E+03	3.024476E-03	0.000000E+00
6.752314E+03	3.015906E-03	0.000000E+00
6.762143E+03	3.007488E-03	0.000000E+00
6.771971E+03	2.999270E-03	0.000000E+00
6.781800E+03	2.991253E-03	0.000000E+00
6.791629E+03	2.983388E-03	0.000000E+00
6.801457E+03	2.975673E-03	0.000000E+00
6.811286E+03	2.968159E-03	0.000000E+00
6.821115E+03	2.960846E-03	0.000000E+00
6.830943E+03	2.953732E-03	0.000000E+00
6.840772E+03	2.946720E-03	0.000000E+00
6.850601E+03	2.939956E-03	0.000000E+00
6.860430E+03	2.933342E-03	0.000000E+00
6.870258E+03	2.926879E-03	0.000000E+00
6.880087E+03	2.920614E-03	0.000000E+00
6.889916E+03	2.914548E-03	0.000000E+00
6.899744E+03	2.908632E-03	0.000000E+00
6.909573E+03	2.902864E-03	0.000000E+00
6.919402E+03	2.897245E-03	0.000000E+00
6.929230E+03	2.891824E-03	0.000000E+00
6.939059E+03	2.886551E-03	0.000000E+00
6.948888E+03	2.881474E-03	0.000000E+00
6.958717E+03	2.876497E-03	0.000000E+00
6.968545E+03	2.871667E-03	0.000000E+00
6.978374E+03	2.866984E-03	0.000000E+00
6.988203E+03	2.862498E-03	0.000000E+00
6.998031E+03	2.858061E-03	0.000000E+00
7.007860E+03	2.853819E-03	0.000000E+00
7.017689E+03	2.849675E-03	0.000000E+00
7.027517E+03	2.845677E-03	0.000000E+00
7.037346E+03	2.841777E-03	0.000000E+00
7.047175E+03	2.838022E-03	0.000000E+00
7.057003E+03	2.834364E-03	0.000000E+00
7.066832E+03	2.830803E-03	0.000000E+00
7.076661E+03	2.827291E-03	0.000000E+00
7.086490E+03	2.823924E-03	0.000000E+00
7.096318E+03	2.820653E-03	0.000000E+00
7.106147E+03	2.817430E-03	0.000000E+00
7.115976E+03	2.814303E-03	0.000000E+00
7.125804E+03	2.811272E-03	0.000000E+00
7.135633E+03	2.808289E-03	0.000000E+00
7.145462E+03	2.805354E-03	0.000000E+00
7.155290E+03	2.802466E-03	0.000000E+00
7.165119E+03	2.799625E-03	0.000000E+00
7.174948E+03	2.796880E-03	0.000000E+00
7.184777E+03	2.794134E-03	0.000000E+00
7.194605E+03	2.791435E-03	0.000000E+00
7.204434E+03	2.788735E-03	0.000000E+00
7.214263E+03	2.786082E-03	0.000000E+00
7.224091E+03	2.783475E-03	0.000000E+00
7.233920E+03	2.780868E-03	0.000000E+00
7.243749E+03	2.778259E-03	0.000000E+00
7.253577E+03	2.775696E-03	0.000000E+00
7.263406E+03	2.773132E-03	0.000000E+00
7.273235E+03	2.770566E-03	0.000000E+00
7.283063E+03	2.767950E-03	0.000000E+00
7.292892E+03	2.765381E-03	0.000000E+00
7.302721E+03	2.762809E-03	0.000000E+00
7.312550E+03	2.760236E-03	0.000000E+00
7.322378E+03	2.757612E-03	0.000000E+00
7.332207E+03	2.755035E-03	0.000000E+00
7.342036E+03	2.752406E-03	0.000000E+00
7.351864E+03	2.749775E-03	0.000000E+00
7.361693E+03	2.747141E-03	0.000000E+00
7.371522E+03	2.744457E-03	0.000000E+00
7.381350E+03	2.741770E-03	0.000000E+00
7.391179E+03	2.739079E-03	0.000000E+00
7.401008E+03	2.736386E-03	0.000000E+00
7.410837E+03	2.733640E-03	0.000000E+00
7.420665E+03	2.730891E-03	0.000000E+00
7.430494E+03	2.728139E-03	0.000000E+00
7.440323E+03	2.725334E-03	0.000000E+00
7.450151E+03	2.722573E-03	0.000000E+00
7.459980E+03	2.719760E-03	0.000000E+00
7.469809E+03	2.716894E-03	0.000000E+00
7.479637E+03	2.714071E-03	0.000000E+00
7.489466E+03	2.711196E-03	0.000000E+00
7.499295E+03	2.708315E-03	0.000000E+00
7.509123E+03	2.705428E-03	0.000000E+00
7.518952E+03	2.702536E-03	0.000000E+00
7.528781E+03	2.699638E-03	0.000000E+00
7.538610E+03	2.696686E-03	0.000000E+00
7.548438E+03	2.693727E-03	0.000000E+00
7.558267E+03	2.690762E-03	0.000000E+00
7.568096E+03	2.687789E-03	0.000000E+00
7.577924E+03	2.684809E-03	0.000000E+00
7.587753E+03	2.681822E-03	0.000000E+00
7.597582E+03	2.678779E-03	0.000000E+00
7.607410E+03	2.675727E-03	0.000000E+00
7.617239E+03	2.672668E-03	0.000000E+00
7.627068E+03	2.669600E-03	0.000000E+00
