#wls	flux	fluxerr
1.600000E+03	2.219912E-16	3.449935E-18
1.640000E+03	2.244445E-16	3.479567E-18
1.680000E+03	2.272513E-16	3.514287E-18
1.720000E+03	2.304169E-16	3.554125E-18
1.760000E+03	2.339674E-16	3.599429E-18
1.800000E+03	2.379479E-16	3.650834E-18
1.840000E+03	2.423238E-16	3.707741E-18
1.880000E+03	2.471604E-16	3.771085E-18
1.920000E+03	2.524644E-16	3.840891E-18
1.960000E+03	2.582442E-16	3.917209E-18
2.000000E+03	2.644932E-16	3.999855E-18
2.040000E+03	2.712263E-16	4.088970E-18
2.080000E+03	2.784266E-16	4.184210E-18
2.120000E+03	2.860489E-16	4.284809E-18
2.160000E+03	2.941071E-16	4.390888E-18
2.200000E+03	3.025532E-16	4.501643E-18
2.240000E+03	3.113650E-16	4.616661E-18
2.280000E+03	3.205620E-16	4.736144E-18
2.320000E+03	3.302027E-16	4.860865E-18
2.360000E+03	3.403997E-16	4.992375E-18
2.400000E+03	3.512871E-16	5.132512E-18
2.440000E+03	3.630056E-16	5.283175E-18
2.480000E+03	3.757519E-16	5.447040E-18
2.520000E+03	3.896866E-16	5.626212E-18
2.560000E+03	4.050167E-16	5.823418E-18
2.600000E+03	4.219219E-16	6.040939E-18
2.640000E+03	4.406213E-16	6.281564E-18
2.680000E+03	4.613318E-16	6.547993E-18
2.720000E+03	4.843056E-16	6.843357E-18
2.760000E+03	5.098365E-16	7.171299E-18
2.800000E+03	5.382530E-16	7.535857E-18
2.840000E+03	5.699431E-16	7.941805E-18
2.880000E+03	6.053985E-16	8.395235E-18
2.920000E+03	6.451664E-16	8.902861E-18
2.960000E+03	6.899825E-16	9.473813E-18
3.000000E+03	7.406651E-16	1.011814E-17
3.010000E+03	7.543885E-16	1.029238E-17
3.020000E+03	7.685484E-16	1.047206E-17
3.030000E+03	7.831614E-16	1.065736E-17
3.040000E+03	7.982803E-16	1.084899E-17
3.050000E+03	8.139061E-16	1.104692E-17
3.060000E+03	8.300585E-16	1.125140E-17
3.070000E+03	8.467758E-16	1.146291E-17
3.080000E+03	8.640618E-16	1.168148E-17
3.090000E+03	8.819390E-16	1.190737E-17
3.100000E+03	9.004678E-16	1.214136E-17
3.110000E+03	9.196366E-16	1.238327E-17
3.120000E+03	9.394901E-16	1.263365E-17
3.130000E+03	9.600369E-16	1.289258E-17
3.140000E+03	9.813633E-16	1.316118E-17
3.150000E+03	1.003442E-15	1.343905E-17
3.160000E+03	1.026325E-15	1.372682E-17
3.170000E+03	1.050064E-15	1.402516E-17
3.180000E+03	1.074696E-15	1.433449E-17
3.190000E+03	1.100217E-15	1.465473E-17
3.200000E+03	1.126727E-15	1.498712E-17
3.210000E+03	1.154224E-15	1.533163E-17
3.220000E+03	1.182773E-15	1.568902E-17
3.230000E+03	1.212395E-15	1.605954E-17
3.240000E+03	1.243161E-15	1.644403E-17
3.250000E+03	1.275117E-15	1.684307E-17
3.260000E+03	1.308315E-15	1.725727E-17
3.270000E+03	1.342785E-15	1.768693E-17
3.280000E+03	1.378604E-15	1.813301E-17
3.290000E+03	1.415830E-15	1.859619E-17
3.300000E+03	1.454499E-15	1.907687E-17
3.310000E+03	1.494696E-15	1.957605E-17
3.320000E+03	1.536461E-15	2.009419E-17
3.330000E+03	1.579884E-15	2.063237E-17
3.340000E+03	1.625007E-15	2.119104E-17
3.350000E+03	1.671902E-15	2.177104E-17
3.360000E+03	1.720639E-15	2.237318E-17
3.370000E+03	1.771291E-15	2.299831E-17
3.380000E+03	1.823933E-15	2.364725E-17
3.390000E+03	1.878612E-15	2.432055E-17
3.400000E+03	1.935431E-15	2.501939E-17
3.410000E+03	1.994412E-15	2.574394E-17
3.420000E+03	2.055683E-15	2.649573E-17
3.430000E+03	2.119263E-15	2.727485E-17
3.440000E+03	2.185223E-15	2.808210E-17
3.450000E+03	2.253629E-15	2.891818E-17
3.460000E+03	2.324517E-15	2.978343E-17
3.470000E+03	2.397975E-15	3.067880E-17
3.480000E+03	2.474024E-15	3.160443E-17
3.490000E+03	2.552675E-15	3.256032E-17
3.500000E+03	2.633962E-15	3.354675E-17
3.510000E+03	2.717871E-15	3.456336E-17
3.520000E+03	2.804444E-15	3.561057E-17
3.530000E+03	2.893565E-15	3.668674E-17
3.540000E+03	2.985239E-15	3.779180E-17
3.550000E+03	3.079380E-15	3.892450E-17
3.560000E+03	3.175913E-15	4.008377E-17
3.570000E+03	3.274662E-15	4.126725E-17
3.580000E+03	3.375459E-15	4.247271E-17
3.590000E+03	3.478190E-15	4.369860E-17
3.600000E+03	3.582553E-15	4.494102E-17
3.610000E+03	3.688386E-15	4.619784E-17
3.620000E+03	3.795428E-15	4.746574E-17
3.630000E+03	3.903370E-15	4.874079E-17
3.640000E+03	4.011996E-15	5.002026E-17
3.650000E+03	4.121284E-15	5.130383E-17
3.660000E+03	4.231171E-15	5.259070E-17
3.670000E+03	4.341762E-15	5.388213E-17
3.680000E+03	4.453000E-15	5.517740E-17
3.690000E+03	4.564980E-15	5.647765E-17
3.700000E+03	4.677753E-15	5.778348E-17
3.710000E+03	4.791424E-15	5.909616E-17
3.720000E+03	4.905996E-15	6.041567E-17
3.730000E+03	5.021558E-15	6.174307E-17
3.740000E+03	5.138144E-15	6.307870E-17
3.750000E+03	5.255814E-15	6.442328E-17
3.760000E+03	5.374565E-15	6.577670E-17
3.770000E+03	5.494417E-15	6.713917E-17
3.780000E+03	5.615313E-15	6.850992E-17
3.790000E+03	5.737161E-15	6.988779E-17
3.800000E+03	5.859995E-15	7.127314E-17
3.810000E+03	5.983526E-15	7.266243E-17
3.820000E+03	6.107639E-15	7.405424E-17
3.830000E+03	6.232150E-15	7.544630E-17
3.840000E+03	6.356632E-15	7.683344E-17
3.850000E+03	6.480709E-15	7.821115E-17
3.860000E+03	6.603980E-15	7.957464E-17
3.870000E+03	6.725917E-15	8.091759E-17
3.880000E+03	6.845923E-15	8.223293E-17
3.890000E+03	6.963249E-15	8.351181E-17
3.900000E+03	7.077215E-15	8.474624E-17
3.910000E+03	7.187034E-15	8.592702E-17
3.920000E+03	7.291892E-15	8.704468E-17
3.930000E+03	7.390953E-15	8.808954E-17
3.940000E+03	7.483392E-15	8.905211E-17
3.950000E+03	7.568511E-15	8.992451E-17
3.960000E+03	7.645590E-15	9.069861E-17
3.970000E+03	7.713916E-15	9.136643E-17
3.980000E+03	7.773116E-15	9.192404E-17
3.990000E+03	7.822719E-15	9.236640E-17
4.000000E+03	7.862508E-15	9.269152E-17
4.010000E+03	7.892377E-15	9.289869E-17
4.020000E+03	7.912280E-15	9.298792E-17
4.030000E+03	7.922531E-15	9.296346E-17
4.040000E+03	7.923502E-15	9.283021E-17
4.050000E+03	7.915834E-15	9.259620E-17
4.060000E+03	7.900212E-15	9.226987E-17
4.070000E+03	7.877518E-15	9.186198E-17
4.080000E+03	7.848707E-15	9.138404E-17
4.090000E+03	7.814828E-15	9.084855E-17
4.100000E+03	7.776851E-15	9.026709E-17
4.110000E+03	7.735805E-15	8.965178E-17
4.120000E+03	7.692809E-15	8.901576E-17
4.130000E+03	7.648654E-15	8.836825E-17
4.140000E+03	7.604268E-15	8.772006E-17
4.150000E+03	7.560450E-15	8.708037E-17
4.160000E+03	7.517925E-15	8.645751E-17
4.170000E+03	7.477351E-15	8.585896E-17
4.180000E+03	7.439333E-15	8.529158E-17
4.190000E+03	7.404452E-15	8.476187E-17
4.200000E+03	7.373242E-15	8.427578E-17
4.210000E+03	7.346196E-15	8.383874E-17
4.220000E+03	7.323822E-15	8.345635E-17
4.230000E+03	7.306531E-15	8.313303E-17
4.240000E+03	7.294770E-15	8.287361E-17
4.250000E+03	7.289087E-15	8.268403E-17
4.260000E+03	7.289938E-15	8.256915E-17
4.270000E+03	7.297624E-15	8.253206E-17
4.280000E+03	7.312661E-15	8.257824E-17
4.290000E+03	7.335466E-15	8.271204E-17
4.300000E+03	7.366412E-15	8.293730E-17
4.310000E+03	7.405872E-15	8.325780E-17
4.320000E+03	7.454098E-15	8.367598E-17
4.330000E+03	7.511458E-15	8.419554E-17
4.340000E+03	7.577947E-15	8.481600E-17
4.350000E+03	7.653730E-15	8.553879E-17
4.360000E+03	7.738732E-15	8.636266E-17
4.370000E+03	7.832790E-15	8.728536E-17
4.380000E+03	7.935571E-15	8.830281E-17
4.390000E+03	8.046739E-15	8.941087E-17
4.400000E+03	8.165766E-15	9.060333E-17
4.410000E+03	8.292302E-15	9.187601E-17
4.420000E+03	8.425954E-15	9.322424E-17
4.430000E+03	8.566337E-15	9.464349E-17
4.440000E+03	8.713263E-15	9.613145E-17
4.450000E+03	8.866328E-15	9.768339E-17
4.460000E+03	9.024878E-15	9.929192E-17
4.470000E+03	9.188136E-15	1.009483E-16
4.480000E+03	9.354839E-15	1.026385E-16
4.490000E+03	9.523565E-15	1.043468E-16
4.500000E+03	9.692528E-15	1.060537E-16
4.510000E+03	9.859595E-15	1.077359E-16
4.520000E+03	1.002238E-14	1.093674E-16
4.530000E+03	1.017829E-14	1.109204E-16
4.540000E+03	1.032463E-14	1.123659E-16
4.550000E+03	1.045869E-14	1.136746E-16
4.560000E+03	1.057764E-14	1.148168E-16
4.570000E+03	1.067893E-14	1.157651E-16
4.580000E+03	1.076066E-14	1.165002E-16
4.590000E+03	1.082094E-14	1.170022E-16
4.600000E+03	1.085841E-14	1.172573E-16
4.610000E+03	1.087268E-14	1.172625E-16
4.620000E+03	1.086378E-14	1.170189E-16
4.630000E+03	1.083196E-14	1.165301E-16
4.640000E+03	1.077899E-14	1.158162E-16
4.650000E+03	1.070640E-14	1.148944E-16
4.660000E+03	1.061658E-14	1.137910E-16
4.670000E+03	1.051211E-14	1.125344E-16
4.680000E+03	1.039565E-14	1.111535E-16
4.690000E+03	1.026988E-14	1.096774E-16
4.700000E+03	1.013750E-14	1.081351E-16
4.710000E+03	1.000125E-14	1.065562E-16
4.720000E+03	9.863394E-15	1.049648E-16
4.730000E+03	9.726001E-15	1.033828E-16
4.740000E+03	9.590984E-15	1.018307E-16
4.750000E+03	9.459706E-15	1.003226E-16
4.760000E+03	9.333671E-15	9.887444E-17
4.770000E+03	9.213583E-15	9.749332E-17
4.780000E+03	9.100396E-15	9.618910E-17
4.790000E+03	8.994607E-15	9.496678E-17
4.800000E+03	8.896454E-15	9.382856E-17
4.810000E+03	8.806385E-15	9.277889E-17
4.820000E+03	8.724608E-15	9.181964E-17
4.830000E+03	8.650971E-15	9.094891E-17
4.840000E+03	8.585471E-15	9.016638E-17
4.850000E+03	8.527782E-15	8.946831E-17
4.860000E+03	8.477340E-15	8.884853E-17
4.870000E+03	8.433542E-15	8.830045E-17
4.880000E+03	8.395740E-15	8.781708E-17
4.890000E+03	8.363016E-15	8.738859E-17
4.900000E+03	8.334568E-15	8.700644E-17
4.910000E+03	8.309331E-15	8.665940E-17
4.920000E+03	8.286493E-15	8.633888E-17
4.930000E+03	8.265194E-15	8.603583E-17
4.940000E+03	8.244649E-15	8.574206E-17
4.950000E+03	8.224333E-15	8.545206E-17
4.960000E+03	8.203721E-15	8.516036E-17
4.970000E+03	8.182969E-15	8.486859E-17
4.980000E+03	8.162236E-15	8.457837E-17
4.990000E+03	8.141933E-15	8.429396E-17
5.000000E+03	8.122861E-15	8.402362E-17
5.010000E+03	8.106186E-15	8.377935E-17
5.020000E+03	8.092750E-15	8.356979E-17
5.030000E+03	8.083654E-15	8.340619E-17
5.040000E+03	8.080035E-15	8.330017E-17
5.050000E+03	8.082761E-15	8.326051E-17
5.060000E+03	8.092666E-15	8.329564E-17
5.070000E+03	8.110453E-15	8.341264E-17
5.080000E+03	8.136675E-15	8.361697E-17
5.090000E+03	8.171629E-15	8.391150E-17
5.100000E+03	8.215538E-15	8.429831E-17
5.110000E+03	8.268572E-15	8.477898E-17
5.120000E+03	8.330501E-15	8.535094E-17
5.130000E+03	8.401301E-15	8.601377E-17
5.140000E+03	8.480379E-15	8.676122E-17
5.150000E+03	8.567416E-15	8.758989E-17
5.160000E+03	8.661705E-15	8.849241E-17
5.170000E+03	8.762475E-15	8.946079E-17
5.180000E+03	8.868693E-15	9.048440E-17
5.190000E+03	8.979097E-15	9.155029E-17
5.200000E+03	9.092392E-15	9.264522E-17
5.210000E+03	9.206990E-15	9.375302E-17
5.220000E+03	9.321503E-15	9.485957E-17
5.230000E+03	9.434054E-15	9.594584E-17
5.240000E+03	9.543183E-15	9.699706E-17
5.250000E+03	9.647388E-15	9.799809E-17
5.260000E+03	9.745291E-15	9.893508E-17
5.270000E+03	9.835646E-15	9.979551E-17
5.280000E+03	9.917679E-15	1.005717E-16
5.290000E+03	9.990633E-15	1.012562E-16
5.300000E+03	1.005436E-14	1.018477E-16
5.310000E+03	1.010881E-14	1.023458E-16
5.320000E+03	1.015433E-14	1.027543E-16
5.330000E+03	1.019128E-14	1.030769E-16
5.340000E+03	1.022034E-14	1.033206E-16
5.350000E+03	1.024217E-14	1.034923E-16
5.360000E+03	1.025789E-14	1.036034E-16
5.370000E+03	1.026813E-14	1.036604E-16
5.380000E+03	1.027369E-14	1.036714E-16
5.390000E+03	1.027513E-14	1.036421E-16
5.400000E+03	1.027223E-14	1.035705E-16
5.410000E+03	1.026383E-14	1.034447E-16
5.420000E+03	1.024880E-14	1.032535E-16
5.430000E+03	1.022560E-14	1.029815E-16
5.440000E+03	1.019215E-14	1.026076E-16
5.450000E+03	1.014708E-14	1.021184E-16
5.460000E+03	1.008887E-14	1.014985E-16
5.470000E+03	1.001634E-14	1.007361E-16
5.480000E+03	9.929155E-15	9.982807E-17
5.490000E+03	9.826876E-15	9.877001E-17
5.500000E+03	9.709780E-15	9.756481E-17
5.510000E+03	9.578543E-15	9.621934E-17
5.520000E+03	9.434483E-15	9.474688E-17
5.530000E+03	9.278836E-15	9.315990E-17
5.540000E+03	9.113924E-15	9.148172E-17
5.550000E+03	8.942150E-15	8.973646E-17
5.560000E+03	8.766404E-15	8.795310E-17
5.570000E+03	8.589766E-15	8.616250E-17
5.580000E+03	8.415499E-15	8.439732E-17
5.590000E+03	8.246642E-15	8.268795E-17
5.600000E+03	8.086434E-15	8.106678E-17
5.610000E+03	7.937600E-15	7.956100E-17
5.620000E+03	7.802676E-15	7.819592E-17
5.630000E+03	7.683857E-15	7.699342E-17
5.640000E+03	7.582910E-15	7.597110E-17
5.650000E+03	7.501280E-15	7.514331E-17
5.660000E+03	7.439710E-15	7.451737E-17
5.670000E+03	7.398767E-15	7.409889E-17
5.680000E+03	7.378709E-15	7.389035E-17
5.690000E+03	7.379217E-15	7.388849E-17
5.700000E+03	7.399706E-15	7.408737E-17
5.710000E+03	7.439333E-15	7.447852E-17
5.720000E+03	7.496948E-15	7.505040E-17
5.730000E+03	7.570834E-15	7.578577E-17
5.740000E+03	7.659366E-15	7.666838E-17
5.750000E+03	7.760415E-15	7.767691E-17
5.760000E+03	7.871541E-15	7.878695E-17
5.770000E+03	7.990310E-15	7.997415E-17
5.780000E+03	8.114194E-15	8.121325E-17
5.790000E+03	8.240380E-15	8.247612E-17
5.800000E+03	8.366102E-15	8.373510E-17
5.810000E+03	8.488891E-15	8.496553E-17
5.820000E+03	8.605982E-15	8.613975E-17
5.830000E+03	8.715026E-15	8.723428E-17
5.840000E+03	8.813970E-15	8.822859E-17
5.850000E+03	8.901018E-15	8.910472E-17
5.860000E+03	8.974778E-15	8.984873E-17
5.870000E+03	9.034129E-15	9.044940E-17
5.880000E+03	9.078696E-15	9.090296E-17
5.890000E+03	9.108104E-15	9.120564E-17
5.900000E+03	9.122456E-15	9.135844E-17
5.910000E+03	9.122113E-15	9.136492E-17
5.920000E+03	9.107623E-15	9.123054E-17
5.930000E+03	9.079753E-15	9.096294E-17
5.940000E+03	9.039093E-15	9.056797E-17
5.950000E+03	8.986542E-15	9.005457E-17
5.960000E+03	8.923139E-15	8.943311E-17
5.970000E+03	8.849887E-15	8.871357E-17
5.980000E+03	8.767626E-15	8.790430E-17
5.990000E+03	8.677569E-15	8.701741E-17
6.000000E+03	8.580451E-15	8.606021E-17
6.010000E+03	8.477625E-15	8.504620E-17
6.020000E+03	8.369802E-15	8.398246E-17
6.030000E+03	8.258007E-15	8.287922E-17
6.040000E+03	8.143351E-15	8.174758E-17
6.050000E+03	8.026654E-15	8.059574E-17
6.060000E+03	7.908818E-15	7.943269E-17
6.070000E+03	7.790579E-15	7.826579E-17
6.080000E+03	7.673077E-15	7.710648E-17
6.090000E+03	7.556970E-15	7.596134E-17
6.100000E+03	7.443368E-15	7.484152E-17
6.110000E+03	7.333165E-15	7.375601E-17
6.120000E+03	7.227196E-15	7.271320E-17
6.130000E+03	7.126274E-15	7.172129E-17
6.140000E+03	7.031184E-15	7.078822E-17
6.150000E+03	6.942405E-15	6.991885E-17
6.160000E+03	6.860339E-15	6.911725E-17
6.170000E+03	6.785362E-15	6.838729E-17
6.180000E+03	6.717350E-15	6.772778E-17
6.190000E+03	6.656291E-15	6.713865E-17
6.200000E+03	6.601960E-15	6.661771E-17
6.210000E+03	6.554029E-15	6.616170E-17
6.220000E+03	6.511931E-15	6.576496E-17
6.230000E+03	6.475064E-15	6.542143E-17
6.240000E+03	6.443029E-15	6.512714E-17
6.250000E+03	6.415440E-15	6.487822E-17
6.260000E+03	6.391998E-15	6.467167E-17
6.270000E+03	6.372535E-15	6.450586E-17
6.280000E+03	6.357072E-15	6.438100E-17
6.290000E+03	6.345149E-15	6.429251E-17
6.300000E+03	6.336286E-15	6.423554E-17
6.310000E+03	6.330150E-15	6.420674E-17
6.320000E+03	6.326353E-15	6.420222E-17
6.330000E+03	6.324377E-15	6.421674E-17
6.340000E+03	6.323941E-15	6.424745E-17
6.350000E+03	6.324868E-15	6.429257E-17
6.360000E+03	6.326851E-15	6.434899E-17
6.370000E+03	6.329896E-15	6.441678E-17
6.380000E+03	6.333938E-15	6.449529E-17
6.390000E+03	6.338934E-15	6.458408E-17
6.400000E+03	6.344854E-15	6.468285E-17
6.410000E+03	6.351916E-15	6.479384E-17
6.420000E+03	6.360059E-15	6.491644E-17
6.430000E+03	6.369482E-15	6.505269E-17
6.440000E+03	6.380219E-15	6.520296E-17
6.450000E+03	6.392272E-15	6.536728E-17
6.460000E+03	6.405701E-15	6.554628E-17
6.470000E+03	6.420438E-15	6.573929E-17
6.480000E+03	6.436468E-15	6.594619E-17
6.490000E+03	6.453434E-15	6.616332E-17
6.500000E+03	6.471328E-15	6.639062E-17
6.510000E+03	6.489899E-15	6.662552E-17
6.520000E+03	6.508750E-15	6.686396E-17
6.530000E+03	6.527648E-15	6.710355E-17
6.540000E+03	6.546219E-15	6.734043E-17
6.550000E+03	6.564062E-15	6.757046E-17
6.560000E+03	6.580759E-15	6.778933E-17
6.570000E+03	6.595984E-15	6.799363E-17
6.580000E+03	6.609193E-15	6.817773E-17
6.590000E+03	6.619953E-15	6.833710E-17
6.600000E+03	6.627957E-15	6.846853E-17
6.610000E+03	6.632821E-15	6.856796E-17
6.620000E+03	6.634106E-15	6.863081E-17
6.630000E+03	6.631652E-15	6.865530E-17
6.640000E+03	6.625142E-15	6.863807E-17
6.650000E+03	6.614696E-15	6.858027E-17
6.660000E+03	6.600072E-15	6.847930E-17
6.670000E+03	6.581327E-15	6.833565E-17
6.680000E+03	6.558757E-15	6.815227E-17
6.690000E+03	6.532617E-15	6.793174E-17
6.700000E+03	6.503110E-15	6.767608E-17
6.710000E+03	6.470627E-15	6.738928E-17
6.720000E+03	6.435710E-15	6.707689E-17
6.730000E+03	6.398695E-15	6.674237E-17
6.740000E+03	6.360162E-15	6.639172E-17
6.750000E+03	6.320350E-15	6.602738E-17
6.760000E+03	6.279937E-15	6.565640E-17
6.770000E+03	6.239130E-15	6.528094E-17
6.780000E+03	6.198560E-15	6.490758E-17
6.790000E+03	6.158374E-15	6.453786E-17
6.800000E+03	6.119023E-15	6.417652E-17
6.810000E+03	6.080806E-15	6.382672E-17
6.820000E+03	6.043872E-15	6.349003E-17
6.830000E+03	6.008553E-15	6.316999E-17
6.840000E+03	5.974920E-15	6.286737E-17
6.850000E+03	5.943229E-15	6.258491E-17
6.860000E+03	5.913362E-15	6.232142E-17
6.870000E+03	5.885613E-15	6.208004E-17
6.880000E+03	5.859909E-15	6.186006E-17
6.890000E+03	5.836263E-15	6.166165E-17
6.900000E+03	5.814547E-15	6.148354E-17
6.910000E+03	5.794937E-15	6.132762E-17
6.920000E+03	5.777037E-15	6.118977E-17
6.930000E+03	5.761087E-15	6.107255E-17
6.940000E+03	5.746755E-15	6.097253E-17
6.950000E+03	5.733914E-15	6.088839E-17
6.960000E+03	5.722530E-15	6.081981E-17
6.970000E+03	5.712334E-15	6.076396E-17
6.980000E+03	5.703163E-15	6.071917E-17
6.990000E+03	5.694844E-15	6.068361E-17
7.000000E+03	5.687200E-15	6.065541E-17
7.010000E+03	5.680057E-15	6.063275E-17
7.020000E+03	5.673127E-15	6.061258E-17
7.030000E+03	5.666456E-15	6.059538E-17
7.040000E+03	5.659538E-15	6.057577E-17
7.050000E+03	5.652542E-15	6.055554E-17
7.060000E+03	5.644962E-15	6.052928E-17
7.070000E+03	5.636863E-15	6.049766E-17
7.080000E+03	5.627973E-15	6.045776E-17
7.090000E+03	5.618134E-15	6.040787E-17
7.100000E+03	5.607311E-15	6.034758E-17
7.110000E+03	5.595134E-15	6.027287E-17
7.120000E+03	5.581572E-15	6.018340E-17
7.130000E+03	5.566387E-15	6.007654E-17
7.140000E+03	5.549567E-15	5.995213E-17
7.150000E+03	5.530997E-15	5.980886E-17
7.160000E+03	5.510466E-15	5.964440E-17
7.170000E+03	5.487993E-15	5.945892E-17
7.180000E+03	5.463272E-15	5.924903E-17
7.190000E+03	5.436464E-15	5.901640E-17
7.200000E+03	5.407404E-15	5.875920E-17
7.210000E+03	5.375943E-15	5.847571E-17
7.220000E+03	5.342174E-15	5.816687E-17
7.230000E+03	5.306095E-15	5.783258E-17
7.240000E+03	5.267610E-15	5.747174E-17
7.250000E+03	5.226763E-15	5.708472E-17
7.260000E+03	5.183614E-15	5.667211E-17
7.270000E+03	5.138244E-15	5.623471E-17
7.280000E+03	5.090766E-15	5.577369E-17
7.290000E+03	5.041102E-15	5.528810E-17
7.300000E+03	4.989617E-15	5.478189E-17
7.310000E+03	4.936391E-15	5.425584E-17
7.320000E+03	4.881529E-15	5.371105E-17
7.330000E+03	4.825357E-15	5.315104E-17
7.340000E+03	4.767927E-15	5.257634E-17
7.350000E+03	4.709511E-15	5.198988E-17
7.360000E+03	4.650392E-15	5.139476E-17
7.370000E+03	4.590777E-15	5.079322E-17
7.380000E+03	4.531076E-15	5.018978E-17
7.390000E+03	4.471314E-15	4.958468E-17
7.400000E+03	4.412004E-15	4.898364E-17
7.410000E+03	4.353273E-15	4.838805E-17
7.420000E+03	4.295516E-15	4.780231E-17
7.430000E+03	4.238937E-15	4.722873E-17
7.440000E+03	4.183811E-15	4.667042E-17
7.450000E+03	4.130472E-15	4.613114E-17
7.460000E+03	4.079047E-15	4.561237E-17
7.470000E+03	4.029982E-15	4.511918E-17
7.480000E+03	3.983251E-15	4.465136E-17
7.490000E+03	3.939146E-15	4.421228E-17
7.500000E+03	3.897674E-15	4.380210E-17
7.510000E+03	3.859149E-15	4.342448E-17
7.520000E+03	3.823524E-15	4.307898E-17
7.530000E+03	3.790810E-15	4.276588E-17
7.540000E+03	3.761085E-15	4.248614E-17
7.550000E+03	3.734324E-15	4.223962E-17
7.560000E+03	3.710643E-15	4.202774E-17
7.570000E+03	3.689817E-15	4.184806E-17
7.580000E+03	3.671845E-15	4.170070E-17
7.590000E+03	3.656705E-15	4.158550E-17
7.600000E+03	3.644180E-15	4.150011E-17
7.610000E+03	3.634186E-15	4.144369E-17
7.620000E+03	3.626433E-15	4.141303E-17
7.630000E+03	3.620840E-15	4.140729E-17
7.640000E+03	3.616986E-15	4.142175E-17
7.650000E+03	3.614902E-15	4.145683E-17
7.660000E+03	3.614306E-15	4.150939E-17
7.670000E+03	3.615215E-15	4.157967E-17
7.680000E+03	3.617279E-15	4.166370E-17
7.690000E+03	3.620453E-15	4.176102E-17
7.700000E+03	3.624427E-15	4.186809E-17
7.710000E+03	3.628968E-15	4.198226E-17
7.720000E+03	3.633837E-15	4.210077E-17
7.730000E+03	3.638804E-15	4.222097E-17
7.740000E+03	3.643647E-15	4.234027E-17
7.750000E+03	3.648070E-15	4.245521E-17
7.760000E+03	3.652047E-15	4.256546E-17
