#wls	flux	fluxerr
1.600000E+03	1.441075E-16	5.223200E-18
1.640000E+03	1.457829E-16	5.261515E-18
1.680000E+03	1.476768E-16	5.306635E-18
1.720000E+03	1.498119E-16	5.359238E-18
1.760000E+03	1.521954E-16	5.419434E-18
1.800000E+03	1.548493E-16	5.487839E-18
1.840000E+03	1.577804E-16	5.564519E-18
1.880000E+03	1.610241E-16	5.650535E-18
1.920000E+03	1.646012E-16	5.746393E-18
1.960000E+03	1.685188E-16	5.852108E-18
2.000000E+03	1.728117E-16	5.968639E-18
2.040000E+03	1.774883E-16	6.095999E-18
2.080000E+03	1.825582E-16	6.234227E-18
2.120000E+03	1.880587E-16	6.384281E-18
2.160000E+03	1.939639E-16	6.544950E-18
2.200000E+03	2.002520E-16	6.715168E-18
2.240000E+03	2.068678E-16	6.892759E-18
2.280000E+03	2.136751E-16	7.072910E-18
2.320000E+03	2.208276E-16	7.260448E-18
2.360000E+03	2.285009E-16	7.460772E-18
2.400000E+03	2.368331E-16	7.677887E-18
2.440000E+03	2.459395E-16	7.914923E-18
2.480000E+03	2.559385E-16	8.174977E-18
2.520000E+03	2.669414E-16	8.460784E-18
2.560000E+03	2.790422E-16	8.774397E-18
2.600000E+03	2.923548E-16	9.118369E-18
2.640000E+03	3.069913E-16	9.495041E-18
2.680000E+03	3.230631E-16	9.906586E-18
2.720000E+03	3.406833E-16	1.035507E-17
2.760000E+03	3.599915E-16	1.084319E-17
2.800000E+03	3.810855E-16	1.137221E-17
2.840000E+03	4.040806E-16	1.194373E-17
2.880000E+03	4.291471E-16	1.256081E-17
2.920000E+03	4.565126E-16	1.322790E-17
2.960000E+03	4.865257E-16	1.395260E-17
3.000000E+03	5.196270E-16	1.474465E-17
3.010000E+03	5.284379E-16	1.495431E-17
3.020000E+03	5.374790E-16	1.516897E-17
3.030000E+03	5.467672E-16	1.538904E-17
3.040000E+03	5.563073E-16	1.561459E-17
3.050000E+03	5.661043E-16	1.584570E-17
3.060000E+03	5.761757E-16	1.608279E-17
3.070000E+03	5.865144E-16	1.632559E-17
3.080000E+03	5.971508E-16	1.657487E-17
3.090000E+03	6.080782E-16	1.683036E-17
3.100000E+03	6.193149E-16	1.709251E-17
3.110000E+03	6.308671E-16	1.736138E-17
3.120000E+03	6.427537E-16	1.763743E-17
3.130000E+03	6.549812E-16	1.792074E-17
3.140000E+03	6.675564E-16	1.821140E-17
3.150000E+03	6.804989E-16	1.850986E-17
3.160000E+03	6.938030E-16	1.881585E-17
3.170000E+03	7.075016E-16	1.913019E-17
3.180000E+03	7.215895E-16	1.945261E-17
3.190000E+03	7.360872E-16	1.978356E-17
3.200000E+03	7.510027E-16	2.012315E-17
3.210000E+03	7.663438E-16	2.047148E-17
3.220000E+03	7.821320E-16	2.082900E-17
3.230000E+03	7.983756E-16	2.119581E-17
3.240000E+03	8.150698E-16	2.157167E-17
3.250000E+03	8.322636E-16	2.195773E-17
3.260000E+03	8.499252E-16	2.235303E-17
3.270000E+03	8.681041E-16	2.275874E-17
3.280000E+03	8.867821E-16	2.317423E-17
3.290000E+03	9.059822E-16	2.359999E-17
3.300000E+03	9.257277E-16	2.403645E-17
3.310000E+03	9.459991E-16	2.448298E-17
3.320000E+03	9.668335E-16	2.494037E-17
3.330000E+03	9.882414E-16	2.540876E-17
3.340000E+03	1.010218E-15	2.588784E-17
3.350000E+03	1.032772E-15	2.637770E-17
3.360000E+03	1.055914E-15	2.687842E-17
3.370000E+03	1.079666E-15	2.739044E-17
3.380000E+03	1.104010E-15	2.791308E-17
3.390000E+03	1.128986E-15	2.844721E-17
3.400000E+03	1.154572E-15	2.899211E-17
3.410000E+03	1.180780E-15	2.954789E-17
3.420000E+03	1.207634E-15	3.011499E-17
3.430000E+03	1.235101E-15	3.069239E-17
3.440000E+03	1.263221E-15	3.128094E-17
3.450000E+03	1.291993E-15	3.188039E-17
3.460000E+03	1.321382E-15	3.248971E-17
3.470000E+03	1.351434E-15	3.310984E-17
3.480000E+03	1.382116E-15	3.373981E-17
3.490000E+03	1.413445E-15	3.437986E-17
3.500000E+03	1.445425E-15	3.502988E-17
3.510000E+03	1.478013E-15	3.568866E-17
3.520000E+03	1.511233E-15	3.635660E-17
3.530000E+03	1.545064E-15	3.703301E-17
3.540000E+03	1.579489E-15	3.771731E-17
3.550000E+03	1.614510E-15	3.840937E-17
3.560000E+03	1.650101E-15	3.910843E-17
3.570000E+03	1.686260E-15	3.981426E-17
3.580000E+03	1.722970E-15	4.052631E-17
3.590000E+03	1.760259E-15	4.124507E-17
3.600000E+03	1.798139E-15	4.197065E-17
3.610000E+03	1.836615E-15	4.270300E-17
3.620000E+03	1.875726E-15	4.344287E-17
3.630000E+03	1.915521E-15	4.419118E-17
3.640000E+03	1.955995E-15	4.494765E-17
3.650000E+03	1.997198E-15	4.571323E-17
3.660000E+03	2.039078E-15	4.648652E-17
3.670000E+03	2.081654E-15	4.726778E-17
3.680000E+03	2.124927E-15	4.805683E-17
3.690000E+03	2.168899E-15	4.885349E-17
3.700000E+03	2.213588E-15	4.965804E-17
3.710000E+03	2.259036E-15	5.047113E-17
3.720000E+03	2.305203E-15	5.129171E-17
3.730000E+03	2.352168E-15	5.212133E-17
3.740000E+03	2.399906E-15	5.295917E-17
3.750000E+03	2.448448E-15	5.380572E-17
3.760000E+03	2.497819E-15	5.466130E-17
3.770000E+03	2.547970E-15	5.552460E-17
3.780000E+03	2.598945E-15	5.639638E-17
3.790000E+03	2.650693E-15	5.727527E-17
3.800000E+03	2.703188E-15	5.816054E-17
3.810000E+03	2.756366E-15	5.905055E-17
3.820000E+03	2.810167E-15	5.994389E-17
3.830000E+03	2.864490E-15	6.083823E-17
3.840000E+03	2.919240E-15	6.173139E-17
3.850000E+03	2.974281E-15	6.262042E-17
3.860000E+03	3.029504E-15	6.350293E-17
3.870000E+03	3.084735E-15	6.437527E-17
3.880000E+03	3.139784E-15	6.523351E-17
3.890000E+03	3.194467E-15	6.607386E-17
3.900000E+03	3.248560E-15	6.689185E-17
3.910000E+03	3.301874E-15	6.768376E-17
3.920000E+03	3.354157E-15	6.844470E-17
3.930000E+03	3.405172E-15	6.917016E-17
3.940000E+03	3.454654E-15	6.985511E-17
3.950000E+03	3.502329E-15	7.049452E-17
3.960000E+03	3.548011E-15	7.108518E-17
3.970000E+03	3.591385E-15	7.162134E-17
3.980000E+03	3.632256E-15	7.209987E-17
3.990000E+03	3.670399E-15	7.251698E-17
4.000000E+03	3.705637E-15	7.287000E-17
4.010000E+03	3.737830E-15	7.315702E-17
4.020000E+03	3.766817E-15	7.337579E-17
4.030000E+03	3.792570E-15	7.352666E-17
4.040000E+03	3.815052E-15	7.360987E-17
4.050000E+03	3.834309E-15	7.362723E-17
4.060000E+03	3.850415E-15	7.358108E-17
4.070000E+03	3.863500E-15	7.347479E-17
4.080000E+03	3.873807E-15	7.331384E-17
4.090000E+03	3.881541E-15	7.310289E-17
4.100000E+03	3.887013E-15	7.284851E-17
4.110000E+03	3.890569E-15	7.255781E-17
4.120000E+03	3.892524E-15	7.223721E-17
4.130000E+03	3.893304E-15	7.189504E-17
4.140000E+03	3.893252E-15	7.153797E-17
4.150000E+03	3.892775E-15	7.117369E-17
4.160000E+03	3.892272E-15	7.080963E-17
4.170000E+03	3.892075E-15	7.045184E-17
4.180000E+03	3.892589E-15	7.010756E-17
4.190000E+03	3.894081E-15	6.978142E-17
4.200000E+03	3.896947E-15	6.948026E-17
4.210000E+03	3.901413E-15	6.920776E-17
4.220000E+03	3.907766E-15	6.896860E-17
4.230000E+03	3.916245E-15	6.876651E-17
4.240000E+03	3.927093E-15	6.860522E-17
4.250000E+03	3.940438E-15	6.848635E-17
4.260000E+03	3.956507E-15	6.841323E-17
4.270000E+03	3.975413E-15	6.838713E-17
4.280000E+03	3.997250E-15	6.840897E-17
4.290000E+03	4.022152E-15	6.848031E-17
4.300000E+03	4.050206E-15	6.860190E-17
4.310000E+03	4.081416E-15	6.877304E-17
4.320000E+03	4.115834E-15	6.899387E-17
4.330000E+03	4.153498E-15	6.926427E-17
4.340000E+03	4.194434E-15	6.958391E-17
4.350000E+03	4.238660E-15	6.995235E-17
4.360000E+03	4.286223E-15	7.036961E-17
4.370000E+03	4.337139E-15	7.083522E-17
4.380000E+03	4.391432E-15	7.134882E-17
4.390000E+03	4.449235E-15	7.191185E-17
4.400000E+03	4.510594E-15	7.252428E-17
4.410000E+03	4.575593E-15	7.318672E-17
4.420000E+03	4.644255E-15	7.389878E-17
4.430000E+03	4.716439E-15	7.465747E-17
4.440000E+03	4.791934E-15	7.545879E-17
4.450000E+03	4.870571E-15	7.629947E-17
4.460000E+03	4.952061E-15	7.717441E-17
4.470000E+03	5.036089E-15	7.807828E-17
4.480000E+03	5.122267E-15	7.900466E-17
4.490000E+03	5.210033E-15	7.994460E-17
4.500000E+03	5.298852E-15	8.088969E-17
4.510000E+03	5.387997E-15	8.182880E-17
4.520000E+03	5.476637E-15	8.274944E-17
4.530000E+03	5.563886E-15	8.363857E-17
4.540000E+03	5.648689E-15	8.448088E-17
4.550000E+03	5.730022E-15	8.526183E-17
4.560000E+03	5.806832E-15	8.596679E-17
4.570000E+03	5.878025E-15	8.658079E-17
4.580000E+03	5.942486E-15	8.708887E-17
4.590000E+03	5.999268E-15	8.747885E-17
4.600000E+03	6.047475E-15	8.773954E-17
4.610000E+03	6.086338E-15	8.786180E-17
4.620000E+03	6.115294E-15	8.783967E-17
4.630000E+03	6.133850E-15	8.766829E-17
4.640000E+03	6.141807E-15	8.734712E-17
4.650000E+03	6.139120E-15	8.687779E-17
4.660000E+03	6.125956E-15	8.626490E-17
4.670000E+03	6.102694E-15	8.551597E-17
4.680000E+03	6.069930E-15	8.464137E-17
4.690000E+03	6.028456E-15	8.365400E-17
4.700000E+03	5.979356E-15	8.257054E-17
4.710000E+03	5.923762E-15	8.140804E-17
4.720000E+03	5.862934E-15	8.018494E-17
4.730000E+03	5.798327E-15	7.892202E-17
4.740000E+03	5.731298E-15	7.763828E-17
4.750000E+03	5.663272E-15	7.635334E-17
4.760000E+03	5.595715E-15	7.508692E-17
4.770000E+03	5.529986E-15	7.385704E-17
4.780000E+03	5.467322E-15	7.267966E-17
4.790000E+03	5.408952E-15	7.157041E-17
4.800000E+03	5.355921E-15	7.054215E-17
4.810000E+03	5.308941E-15	6.960321E-17
4.820000E+03	5.268562E-15	6.875958E-17
4.830000E+03	5.235130E-15	6.801455E-17
4.840000E+03	5.208829E-15	6.736923E-17
4.850000E+03	5.189684E-15	6.682269E-17
4.860000E+03	5.177517E-15	6.637141E-17
4.870000E+03	5.172140E-15	6.601179E-17
4.880000E+03	5.173041E-15	6.573612E-17
4.890000E+03	5.179677E-15	6.553644E-17
4.900000E+03	5.191444E-15	6.540415E-17
4.910000E+03	5.207601E-15	6.532909E-17
4.920000E+03	5.227339E-15	6.530043E-17
4.930000E+03	5.249700E-15	6.530567E-17
4.940000E+03	5.273893E-15	6.533457E-17
4.950000E+03	5.298982E-15	6.537532E-17
4.960000E+03	5.324104E-15	6.541717E-17
4.970000E+03	5.348454E-15	6.545025E-17
4.980000E+03	5.371317E-15	6.546597E-17
4.990000E+03	5.392043E-15	6.545665E-17
5.000000E+03	5.410179E-15	6.541714E-17
5.010000E+03	5.425489E-15	6.534494E-17
5.020000E+03	5.437808E-15	6.523846E-17
5.030000E+03	5.447145E-15	6.509823E-17
5.040000E+03	5.453826E-15	6.492851E-17
5.050000E+03	5.458055E-15	6.473207E-17
5.060000E+03	5.460405E-15	6.451601E-17
5.070000E+03	5.461422E-15	6.428696E-17
5.080000E+03	5.461539E-15	6.405018E-17
5.090000E+03	5.461520E-15	6.381468E-17
5.100000E+03	5.461855E-15	6.358617E-17
5.110000E+03	5.463108E-15	6.337113E-17
5.120000E+03	5.465849E-15	6.317602E-17
5.130000E+03	5.470434E-15	6.300476E-17
5.140000E+03	5.477262E-15	6.286170E-17
5.150000E+03	5.486721E-15	6.275102E-17
5.160000E+03	5.499031E-15	6.267491E-17
5.170000E+03	5.514401E-15	6.263544E-17
5.180000E+03	5.532931E-15	6.263343E-17
5.190000E+03	5.554773E-15	6.267025E-17
5.200000E+03	5.579869E-15	6.274492E-17
5.210000E+03	5.608334E-15	6.285843E-17
5.220000E+03	5.640082E-15	6.300950E-17
5.230000E+03	5.674999E-15	6.319658E-17
5.240000E+03	5.713003E-15	6.341850E-17
5.250000E+03	5.754065E-15	6.367469E-17
5.260000E+03	5.797994E-15	6.396286E-17
5.270000E+03	5.844795E-15	6.428284E-17
5.280000E+03	5.894522E-15	6.463506E-17
5.290000E+03	5.947068E-15	6.501820E-17
5.300000E+03	6.002759E-15	6.543566E-17
5.310000E+03	6.061680E-15	6.588819E-17
5.320000E+03	6.124382E-15	6.638165E-17
5.330000E+03	6.191180E-15	6.691923E-17
5.340000E+03	6.262795E-15	6.750853E-17
5.350000E+03	6.339919E-15	6.815674E-17
5.360000E+03	6.423225E-15	6.887080E-17
5.370000E+03	6.513581E-15	6.965972E-17
5.380000E+03	6.611488E-15	7.052847E-17
5.390000E+03	6.717733E-15	7.148509E-17
5.400000E+03	6.832049E-15	7.252639E-17
5.410000E+03	6.951871E-15	7.362486E-17
5.420000E+03	7.073944E-15	7.474604E-17
5.430000E+03	7.194865E-15	7.585418E-17
5.440000E+03	7.311134E-15	7.691268E-17
5.450000E+03	7.419448E-15	7.788726E-17
5.460000E+03	7.516759E-15	7.874655E-17
5.470000E+03	7.600381E-15	7.946321E-17
5.480000E+03	7.667999E-15	8.001392E-17
5.490000E+03	7.717804E-15	8.038078E-17
5.500000E+03	7.748690E-15	8.055325E-17
5.510000E+03	7.759977E-15	8.052527E-17
5.520000E+03	7.751569E-15	8.029679E-17
5.530000E+03	7.723957E-15	7.987381E-17
5.540000E+03	7.678348E-15	7.926961E-17
5.550000E+03	7.616233E-15	7.850028E-17
5.560000E+03	7.539788E-15	7.758882E-17
5.570000E+03	7.451324E-15	7.655945E-17
5.580000E+03	7.353575E-15	7.544056E-17
5.590000E+03	7.249505E-15	7.426269E-17
5.600000E+03	7.141900E-15	7.305442E-17
5.610000E+03	7.033713E-15	7.184582E-17
5.620000E+03	6.927678E-15	7.066459E-17
5.630000E+03	6.826244E-15	6.953542E-17
5.640000E+03	6.731669E-15	6.848085E-17
5.650000E+03	6.645978E-15	6.752104E-17
5.660000E+03	6.570812E-15	6.667212E-17
5.670000E+03	6.507434E-15	6.594635E-17
5.680000E+03	6.456933E-15	6.535418E-17
5.690000E+03	6.420106E-15	6.490310E-17
5.700000E+03	6.397279E-15	6.459580E-17
5.710000E+03	6.388723E-15	6.443446E-17
5.720000E+03	6.394466E-15	6.441880E-17
5.730000E+03	6.414251E-15	6.454572E-17
5.740000E+03	6.447602E-15	6.480992E-17
5.750000E+03	6.493835E-15	6.520409E-17
5.760000E+03	6.552065E-15	6.571892E-17
5.770000E+03	6.621276E-15	6.634388E-17
5.780000E+03	6.700121E-15	6.706518E-17
5.790000E+03	6.787282E-15	6.786937E-17
5.800000E+03	6.881057E-15	6.873925E-17
5.810000E+03	6.979663E-15	6.965690E-17
5.820000E+03	7.081347E-15	7.060478E-17
5.830000E+03	7.183972E-15	7.156158E-17
5.840000E+03	7.285583E-15	7.250792E-17
5.850000E+03	7.384240E-15	7.342464E-17
5.860000E+03	7.477906E-15	7.429165E-17
5.870000E+03	7.564815E-15	7.509170E-17
5.880000E+03	7.643200E-15	7.580751E-17
5.890000E+03	7.711745E-15	7.642638E-17
5.900000E+03	7.769122E-15	7.693550E-17
5.910000E+03	7.814338E-15	7.732543E-17
5.920000E+03	7.846765E-15	7.759033E-17
5.930000E+03	7.865878E-15	7.772541E-17
5.940000E+03	7.871603E-15	7.773031E-17
5.950000E+03	7.863958E-15	7.760558E-17
5.960000E+03	7.843390E-15	7.735598E-17
5.970000E+03	7.810492E-15	7.698766E-17
5.980000E+03	7.766061E-15	7.650878E-17
5.990000E+03	7.710974E-15	7.592822E-17
6.000000E+03	7.646427E-15	7.525797E-17
6.010000E+03	7.573618E-15	7.450998E-17
6.020000E+03	7.493710E-15	7.369586E-17
6.030000E+03	7.408060E-15	7.282904E-17
6.040000E+03	7.317827E-15	7.192100E-17
6.050000E+03	7.224118E-15	7.098268E-17
6.060000E+03	7.128222E-15	7.002674E-17
6.070000E+03	7.030983E-15	6.906150E-17
6.080000E+03	6.933389E-15	6.809667E-17
6.090000E+03	6.836054E-15	6.713824E-17
6.100000E+03	6.739713E-15	6.619342E-17
6.110000E+03	6.644812E-15	6.526657E-17
6.120000E+03	6.551751E-15	6.436158E-17
6.130000E+03	6.460816E-15	6.348124E-17
6.140000E+03	6.372104E-15	6.262647E-17
6.150000E+03	6.285697E-15	6.179807E-17
6.160000E+03	6.201586E-15	6.099590E-17
6.170000E+03	6.119686E-15	6.021914E-17
6.180000E+03	6.039839E-15	5.946620E-17
6.190000E+03	5.961761E-15	5.873425E-17
6.200000E+03	5.885271E-15	5.802148E-17
6.210000E+03	5.810090E-15	5.732493E-17
6.220000E+03	5.735940E-15	5.664148E-17
6.230000E+03	5.662629E-15	5.596894E-17
6.240000E+03	5.590006E-15	5.530545E-17
6.250000E+03	5.518084E-15	5.465086E-17
6.260000E+03	5.447388E-15	5.401003E-17
6.270000E+03	5.378566E-15	5.338915E-17
6.280000E+03	5.312333E-15	5.279507E-17
6.290000E+03	5.249165E-15	5.223234E-17
6.300000E+03	5.189842E-15	5.170857E-17
6.310000E+03	5.134717E-15	5.122717E-17
6.320000E+03	5.084272E-15	5.079288E-17
6.330000E+03	5.038823E-15	5.040883E-17
6.340000E+03	4.998599E-15	5.007730E-17
6.350000E+03	4.963673E-15	4.979904E-17
6.360000E+03	4.934122E-15	4.957486E-17
6.370000E+03	4.909964E-15	4.940500E-17
6.380000E+03	4.891110E-15	4.928862E-17
6.390000E+03	4.877436E-15	4.922456E-17
6.400000E+03	4.868872E-15	4.921217E-17
6.410000E+03	4.865123E-15	4.924856E-17
6.420000E+03	4.866026E-15	4.933214E-17
6.430000E+03	4.871344E-15	4.946058E-17
6.440000E+03	4.880765E-15	4.963077E-17
6.450000E+03	4.894192E-15	4.984175E-17
6.460000E+03	4.911312E-15	5.009040E-17
6.470000E+03	4.932028E-15	5.037575E-17
6.480000E+03	4.956174E-15	5.069613E-17
6.490000E+03	4.983498E-15	5.104896E-17
6.500000E+03	5.013808E-15	5.143230E-17
6.510000E+03	5.046896E-15	5.184398E-17
6.520000E+03	5.082524E-15	5.228155E-17
6.530000E+03	5.120416E-15	5.274213E-17
6.540000E+03	5.160334E-15	5.322323E-17
6.550000E+03	5.201835E-15	5.372021E-17
6.560000E+03	5.244423E-15	5.422784E-17
6.570000E+03	5.287805E-15	5.474303E-17
6.580000E+03	5.331317E-15	5.525876E-17
6.590000E+03	5.374521E-15	5.577035E-17
6.600000E+03	5.416876E-15	5.627206E-17
6.610000E+03	5.457844E-15	5.675808E-17
6.620000E+03	5.496894E-15	5.722276E-17
6.630000E+03	5.533432E-15	5.765968E-17
6.640000E+03	5.567087E-15	5.806480E-17
6.650000E+03	5.597353E-15	5.843262E-17
6.660000E+03	5.623974E-15	5.876029E-17
6.670000E+03	5.646581E-15	5.904375E-17
6.680000E+03	5.664972E-15	5.928068E-17
6.690000E+03	5.679127E-15	5.947072E-17
6.700000E+03	5.689014E-15	5.961336E-17
6.710000E+03	5.694487E-15	5.970694E-17
6.720000E+03	5.695866E-15	5.975468E-17
6.730000E+03	5.693149E-15	5.975645E-17
6.740000E+03	5.686785E-15	5.971690E-17
6.750000E+03	5.676976E-15	5.963809E-17
6.760000E+03	5.663960E-15	5.952246E-17
6.770000E+03	5.648301E-15	5.937592E-17
6.780000E+03	5.630178E-15	5.920037E-17
6.790000E+03	5.610076E-15	5.900091E-17
6.800000E+03	5.588383E-15	5.878164E-17
6.810000E+03	5.565470E-15	5.854652E-17
6.820000E+03	5.541597E-15	5.829834E-17
6.830000E+03	5.517201E-15	5.804174E-17
6.840000E+03	5.492492E-15	5.777900E-17
6.850000E+03	5.467855E-15	5.751425E-17
6.860000E+03	5.443443E-15	5.724917E-17
6.870000E+03	5.419479E-15	5.698619E-17
6.880000E+03	5.396255E-15	5.672847E-17
6.890000E+03	5.373733E-15	5.647569E-17
6.900000E+03	5.352242E-15	5.623139E-17
6.910000E+03	5.331777E-15	5.599560E-17
6.920000E+03	5.312406E-15	5.576912E-17
6.930000E+03	5.294160E-15	5.555238E-17
6.940000E+03	5.277039E-15	5.534546E-17
6.950000E+03	5.260916E-15	5.514711E-17
6.960000E+03	5.245833E-15	5.495789E-17
6.970000E+03	5.231709E-15	5.477703E-17
6.980000E+03	5.218441E-15	5.460356E-17
6.990000E+03	5.205710E-15	5.443425E-17
7.000000E+03	5.193685E-15	5.427098E-17
7.010000E+03	5.181924E-15	5.410926E-17
7.020000E+03	5.170484E-15	5.394981E-17
7.030000E+03	5.159114E-15	5.379015E-17
7.040000E+03	5.147669E-15	5.362891E-17
7.050000E+03	5.136003E-15	5.346473E-17
7.060000E+03	5.123975E-15	5.329630E-17
7.070000E+03	5.111344E-15	5.312129E-17
7.080000E+03	5.098084E-15	5.293961E-17
7.090000E+03	5.084067E-15	5.275012E-17
7.100000E+03	5.069072E-15	5.255072E-17
7.110000E+03	5.053085E-15	5.234146E-17
7.120000E+03	5.035892E-15	5.212037E-17
7.130000E+03	5.017391E-15	5.188657E-17
7.140000E+03	4.997476E-15	5.163921E-17
7.150000E+03	4.976154E-15	5.137859E-17
7.160000E+03	4.953129E-15	5.110188E-17
7.170000E+03	4.928316E-15	5.080844E-17
7.180000E+03	4.901844E-15	5.049983E-17
7.190000E+03	4.873441E-15	5.017348E-17
7.200000E+03	4.843054E-15	4.982909E-17
7.210000E+03	4.810744E-15	4.946751E-17
7.220000E+03	4.776384E-15	4.908765E-17
7.230000E+03	4.739965E-15	4.868965E-17
7.240000E+03	4.701497E-15	4.827381E-17
7.250000E+03	4.661006E-15	4.784060E-17
7.260000E+03	4.618635E-15	4.739166E-17
7.270000E+03	4.574248E-15	4.692579E-17
7.280000E+03	4.528126E-15	4.644601E-17
7.290000E+03	4.480267E-15	4.595245E-17
7.300000E+03	4.430790E-15	4.544646E-17
7.310000E+03	4.379925E-15	4.493051E-17
7.320000E+03	4.327728E-15	4.440525E-17
7.330000E+03	4.274457E-15	4.387343E-17
7.340000E+03	4.220290E-15	4.333692E-17
7.350000E+03	4.165507E-15	4.279864E-17
7.360000E+03	4.110303E-15	4.226063E-17
7.370000E+03	4.054971E-15	4.172593E-17
7.380000E+03	3.999623E-15	4.119571E-17
7.390000E+03	3.944740E-15	4.067491E-17
7.400000E+03	3.890524E-15	4.016566E-17
7.410000E+03	3.837089E-15	3.966912E-17
7.420000E+03	3.784903E-15	3.919015E-17
7.430000E+03	3.734072E-15	3.872987E-17
7.440000E+03	3.684874E-15	3.829120E-17
7.450000E+03	3.637406E-15	3.787521E-17
7.460000E+03	3.591935E-15	3.748471E-17
7.470000E+03	3.548379E-15	3.711897E-17
7.480000E+03	3.507076E-15	3.678159E-17
7.490000E+03	3.467937E-15	3.647177E-17
7.500000E+03	3.431201E-15	3.619215E-17
7.510000E+03	3.396930E-15	3.594359E-17
7.520000E+03	3.365179E-15	3.572685E-17
7.530000E+03	3.336149E-15	3.554429E-17
7.540000E+03	3.309696E-15	3.539464E-17
7.550000E+03	3.286057E-15	3.528070E-17
7.560000E+03	3.265195E-15	3.520220E-17
7.570000E+03	3.247121E-15	3.515937E-17
7.580000E+03	3.231739E-15	3.515132E-17
7.590000E+03	3.219098E-15	3.517878E-17
7.600000E+03	3.209097E-15	3.524082E-17
7.610000E+03	3.201749E-15	3.533785E-17
7.620000E+03	3.197218E-15	3.547194E-17
7.630000E+03	3.195613E-15	3.564463E-17
7.640000E+03	3.197182E-15	3.585910E-17
7.650000E+03	3.201204E-15	3.610766E-17
7.660000E+03	3.207119E-15	3.638431E-17
7.670000E+03	3.214259E-15	3.668171E-17
7.680000E+03	3.222233E-15	3.699550E-17
7.690000E+03	3.230576E-15	3.732038E-17
7.700000E+03	3.238970E-15	3.765265E-17
7.710000E+03	3.247153E-15	3.798914E-17
7.720000E+03	3.255068E-15	3.832903E-17
7.730000E+03	3.262270E-15	3.866688E-17
7.740000E+03	3.268839E-15	3.900337E-17
7.750000E+03	3.274454E-15	3.933438E-17
7.760000E+03	3.279063E-15	3.965892E-17
