#wls	flux	fluxerr
1.600000E+03	8.589443E-17	1.426819E-18
1.640000E+03	8.624824E-17	1.431970E-18
1.680000E+03	8.665338E-17	1.437949E-18
1.720000E+03	8.714354E-17	1.445310E-18
1.760000E+03	8.770601E-17	1.453841E-18
1.800000E+03	8.836218E-17	1.463893E-18
1.840000E+03	8.911057E-17	1.475439E-18
1.880000E+03	8.996082E-17	1.488633E-18
1.920000E+03	9.092228E-17	1.503627E-18
1.960000E+03	9.201491E-17	1.520745E-18
2.000000E+03	9.325805E-17	1.540303E-18
2.040000E+03	9.464932E-17	1.562254E-18
2.080000E+03	9.623914E-17	1.587423E-18
2.120000E+03	9.802425E-17	1.615749E-18
2.160000E+03	1.000535E-16	1.648026E-18
2.200000E+03	1.023641E-16	1.684858E-18
2.240000E+03	1.049821E-16	1.726660E-18
2.280000E+03	1.079432E-16	1.774004E-18
2.320000E+03	1.112826E-16	1.827451E-18
2.360000E+03	1.150243E-16	1.887379E-18
2.400000E+03	1.191822E-16	1.953995E-18
2.440000E+03	1.237607E-16	2.027347E-18
2.480000E+03	1.287633E-16	2.107473E-18
2.520000E+03	1.342041E-16	2.194579E-18
2.560000E+03	1.400962E-16	2.288855E-18
2.600000E+03	1.464336E-16	2.390172E-18
2.640000E+03	1.532575E-16	2.499180E-18
2.680000E+03	1.605511E-16	2.615572E-18
2.720000E+03	1.683442E-16	2.739802E-18
2.760000E+03	1.766468E-16	2.871999E-18
2.800000E+03	1.854676E-16	3.012271E-18
2.840000E+03	1.948140E-16	3.160700E-18
2.880000E+03	2.047202E-16	3.317801E-18
2.920000E+03	2.152184E-16	3.484056E-18
2.960000E+03	2.263860E-16	3.660669E-18
3.000000E+03	2.383256E-16	3.849248E-18
3.010000E+03	2.414491E-16	3.898547E-18
3.020000E+03	2.446276E-16	3.948695E-18
3.030000E+03	2.478697E-16	3.999836E-18
3.040000E+03	2.511845E-16	4.052111E-18
3.050000E+03	2.545533E-16	4.105219E-18
3.060000E+03	2.580032E-16	4.159595E-18
3.070000E+03	2.615248E-16	4.215087E-18
3.080000E+03	2.651180E-16	4.271692E-18
3.090000E+03	2.687825E-16	4.329403E-18
3.100000E+03	2.725362E-16	4.388506E-18
3.110000E+03	2.763790E-16	4.448999E-18
3.120000E+03	2.803016E-16	4.510733E-18
3.130000E+03	2.843220E-16	4.573991E-18
3.140000E+03	2.884400E-16	4.638773E-18
3.150000E+03	2.926556E-16	4.705074E-18
3.160000E+03	2.969689E-16	4.772896E-18
3.170000E+03	3.013979E-16	4.842524E-18
3.180000E+03	3.059249E-16	4.913673E-18
3.190000E+03	3.105768E-16	4.986773E-18
3.200000E+03	3.153452E-16	5.061686E-18
3.210000E+03	3.202392E-16	5.138556E-18
3.220000E+03	3.252684E-16	5.217536E-18
3.230000E+03	3.304244E-16	5.298487E-18
3.240000E+03	3.357169E-16	5.381564E-18
3.250000E+03	3.411469E-16	5.466779E-18
3.260000E+03	3.467333E-16	5.554431E-18
3.270000E+03	3.524683E-16	5.644395E-18
3.280000E+03	3.583624E-16	5.736835E-18
3.290000E+03	3.644172E-16	5.831773E-18
3.300000E+03	3.706435E-16	5.929378E-18
3.310000E+03	3.770435E-16	6.029685E-18
3.320000E+03	3.836197E-16	6.132727E-18
3.330000E+03	3.903749E-16	6.238548E-18
3.340000E+03	3.973211E-16	6.347333E-18
3.350000E+03	4.044616E-16	6.459135E-18
3.360000E+03	4.118006E-16	6.574014E-18
3.370000E+03	4.193332E-16	6.691890E-18
3.380000E+03	4.270820E-16	6.813118E-18
3.390000E+03	4.350345E-16	6.937497E-18
3.400000E+03	4.431966E-16	7.065113E-18
3.410000E+03	4.515830E-16	7.196199E-18
3.420000E+03	4.601833E-16	7.330583E-18
3.430000E+03	4.690044E-16	7.468372E-18
3.440000E+03	4.780544E-16	7.609690E-18
3.450000E+03	4.873241E-16	7.754386E-18
3.460000E+03	4.968139E-16	7.902461E-18
3.470000E+03	5.065334E-16	8.054064E-18
3.480000E+03	5.164753E-16	8.209073E-18
3.490000E+03	5.266327E-16	8.367375E-18
3.500000E+03	5.370082E-16	8.529006E-18
3.510000E+03	5.476048E-16	8.694009E-18
3.520000E+03	5.584171E-16	8.862294E-18
3.530000E+03	5.694404E-16	9.033780E-18
3.540000E+03	5.806699E-16	9.208389E-18
3.550000E+03	5.921102E-16	9.386186E-18
3.560000E+03	6.037393E-16	9.566820E-18
3.570000E+03	6.155711E-16	9.750506E-18
3.580000E+03	6.275922E-16	9.937027E-18
3.590000E+03	6.398076E-16	1.012646E-17
3.600000E+03	6.522128E-16	1.031872E-17
3.610000E+03	6.648029E-16	1.051374E-17
3.620000E+03	6.775818E-16	1.071157E-17
3.630000E+03	6.905437E-16	1.091211E-17
3.640000E+03	7.036911E-16	1.111540E-17
3.650000E+03	7.170165E-16	1.132132E-17
3.660000E+03	7.305395E-16	1.153016E-17
3.670000E+03	7.442412E-16	1.174164E-17
3.680000E+03	7.581393E-16	1.195602E-17
3.690000E+03	7.722408E-16	1.217340E-17
3.700000E+03	7.865327E-16	1.239358E-17
3.710000E+03	8.010287E-16	1.261677E-17
3.720000E+03	8.157320E-16	1.284302E-17
3.730000E+03	8.306343E-16	1.307219E-17
3.740000E+03	8.457451E-16	1.330442E-17
3.750000E+03	8.610629E-16	1.353968E-17
3.760000E+03	8.765837E-16	1.377791E-17
3.770000E+03	8.923022E-16	1.401902E-17
3.780000E+03	9.082111E-16	1.426288E-17
3.790000E+03	9.243110E-16	1.450951E-17
3.800000E+03	9.405907E-16	1.475872E-17
3.810000E+03	9.570476E-16	1.501047E-17
3.820000E+03	9.736454E-16	1.526418E-17
3.830000E+03	9.903983E-16	1.552008E-17
3.840000E+03	1.007277E-15	1.577769E-17
3.850000E+03	1.024261E-15	1.603669E-17
3.860000E+03	1.041338E-15	1.629689E-17
3.870000E+03	1.058495E-15	1.655809E-17
3.880000E+03	1.075697E-15	1.681973E-17
3.890000E+03	1.092927E-15	1.708155E-17
3.900000E+03	1.110171E-15	1.734330E-17
3.910000E+03	1.127389E-15	1.760440E-17
3.920000E+03	1.144564E-15	1.786455E-17
3.930000E+03	1.161670E-15	1.812336E-17
3.940000E+03	1.178688E-15	1.838054E-17
3.950000E+03	1.195595E-15	1.863570E-17
3.960000E+03	1.212374E-15	1.888861E-17
3.970000E+03	1.228992E-15	1.913875E-17
3.980000E+03	1.245426E-15	1.938576E-17
3.990000E+03	1.261693E-15	1.962992E-17
4.000000E+03	1.277740E-15	1.987038E-17
4.010000E+03	1.293578E-15	2.010735E-17
4.020000E+03	1.309198E-15	2.034065E-17
4.030000E+03	1.324604E-15	2.057039E-17
4.040000E+03	1.339781E-15	2.079633E-17
4.050000E+03	1.354731E-15	2.101849E-17
4.060000E+03	1.369474E-15	2.123718E-17
4.070000E+03	1.384029E-15	2.145274E-17
4.080000E+03	1.398387E-15	2.166499E-17
4.090000E+03	1.412591E-15	2.187461E-17
4.100000E+03	1.426649E-15	2.208174E-17
4.110000E+03	1.440601E-15	2.228698E-17
4.120000E+03	1.454460E-15	2.249057E-17
4.130000E+03	1.468274E-15	2.269321E-17
4.140000E+03	1.482076E-15	2.289545E-17
4.150000E+03	1.495905E-15	2.309784E-17
4.160000E+03	1.509782E-15	2.330077E-17
4.170000E+03	1.523764E-15	2.350507E-17
4.180000E+03	1.537877E-15	2.371113E-17
4.190000E+03	1.552176E-15	2.391983E-17
4.200000E+03	1.566673E-15	2.413135E-17
4.210000E+03	1.581424E-15	2.434652E-17
4.220000E+03	1.596454E-15	2.456572E-17
4.230000E+03	1.611799E-15	2.478953E-17
4.240000E+03	1.627483E-15	2.501827E-17
4.250000E+03	1.643522E-15	2.525220E-17
4.260000E+03	1.659946E-15	2.549178E-17
4.270000E+03	1.676753E-15	2.573695E-17
4.280000E+03	1.693953E-15	2.598786E-17
4.290000E+03	1.711547E-15	2.624453E-17
4.300000E+03	1.729507E-15	2.650651E-17
4.310000E+03	1.747842E-15	2.677392E-17
4.320000E+03	1.766530E-15	2.704642E-17
4.330000E+03	1.785508E-15	2.732304E-17
4.340000E+03	1.804773E-15	2.760375E-17
4.350000E+03	1.824290E-15	2.788796E-17
4.360000E+03	1.844013E-15	2.817500E-17
4.370000E+03	1.863930E-15	2.846466E-17
4.380000E+03	1.884070E-15	2.875741E-17
4.390000E+03	1.904430E-15	2.905315E-17
4.400000E+03	1.925014E-15	2.935196E-17
4.410000E+03	1.945846E-15	2.965421E-17
4.420000E+03	1.966888E-15	2.995930E-17
4.430000E+03	1.988115E-15	3.026687E-17
4.440000E+03	2.009458E-15	3.057582E-17
4.450000E+03	2.030872E-15	3.088550E-17
4.460000E+03	2.052289E-15	3.119487E-17
4.470000E+03	2.073623E-15	3.150262E-17
4.480000E+03	2.094785E-15	3.180738E-17
4.490000E+03	2.115683E-15	3.210779E-17
4.500000E+03	2.136264E-15	3.240304E-17
4.510000E+03	2.156400E-15	3.269119E-17
4.520000E+03	2.176023E-15	3.297122E-17
4.530000E+03	2.195003E-15	3.324119E-17
4.540000E+03	2.213296E-15	3.350043E-17
4.550000E+03	2.230799E-15	3.374742E-17
4.560000E+03	2.247398E-15	3.398043E-17
4.570000E+03	2.263017E-15	3.419837E-17
4.580000E+03	2.277616E-15	3.440060E-17
4.590000E+03	2.291075E-15	3.458540E-17
4.600000E+03	2.303393E-15	3.475274E-17
4.610000E+03	2.314469E-15	3.490116E-17
4.620000E+03	2.324283E-15	3.503035E-17
4.630000E+03	2.332846E-15	3.514052E-17
4.640000E+03	2.340120E-15	3.523115E-17
4.650000E+03	2.346126E-15	3.530255E-17
4.660000E+03	2.350894E-15	3.535525E-17
4.670000E+03	2.354501E-15	3.539039E-17
4.680000E+03	2.356965E-15	3.540830E-17
4.690000E+03	2.358411E-15	3.541088E-17
4.700000E+03	2.358936E-15	3.539960E-17
4.710000E+03	2.358563E-15	3.537485E-17
4.720000E+03	2.357357E-15	3.533760E-17
4.730000E+03	2.355393E-15	3.528901E-17
4.740000E+03	2.352763E-15	3.523048E-17
4.750000E+03	2.349597E-15	3.516398E-17
4.760000E+03	2.346035E-15	3.509159E-17
4.770000E+03	2.342228E-15	3.501559E-17
4.780000E+03	2.338326E-15	3.493826E-17
4.790000E+03	2.334511E-15	3.486227E-17
4.800000E+03	2.330847E-15	3.478861E-17
4.810000E+03	2.327485E-15	3.471951E-17
4.820000E+03	2.324426E-15	3.465499E-17
4.830000E+03	2.321707E-15	3.459558E-17
4.840000E+03	2.319327E-15	3.454128E-17
4.850000E+03	2.317304E-15	3.449233E-17
4.860000E+03	2.315612E-15	3.444836E-17
4.870000E+03	2.314269E-15	3.440962E-17
4.880000E+03	2.313277E-15	3.437611E-17
4.890000E+03	2.312657E-15	3.434816E-17
4.900000E+03	2.312409E-15	3.432575E-17
4.910000E+03	2.312532E-15	3.430886E-17
4.920000E+03	2.313023E-15	3.429744E-17
4.930000E+03	2.313919E-15	3.429203E-17
4.940000E+03	2.315171E-15	3.429190E-17
4.950000E+03	2.316812E-15	3.429752E-17
4.960000E+03	2.318835E-15	3.430877E-17
4.970000E+03	2.321205E-15	3.432515E-17
4.980000E+03	2.323936E-15	3.434684E-17
4.990000E+03	2.327019E-15	3.437370E-17
5.000000E+03	2.330469E-15	3.440595E-17
5.010000E+03	2.334260E-15	3.444320E-17
5.020000E+03	2.338391E-15	3.448541E-17
5.030000E+03	2.342884E-15	3.453293E-17
5.040000E+03	2.347745E-15	3.458582E-17
5.050000E+03	2.352963E-15	3.464390E-17
5.060000E+03	2.358572E-15	3.470768E-17
5.070000E+03	2.364589E-15	3.477740E-17
5.080000E+03	2.371011E-15	3.485301E-17
5.090000E+03	2.377884E-15	3.493517E-17
5.100000E+03	2.385235E-15	3.502426E-17
5.110000E+03	2.393090E-15	3.512066E-17
5.120000E+03	2.401457E-15	3.522448E-17
5.130000E+03	2.410365E-15	3.533613E-17
5.140000E+03	2.419867E-15	3.545639E-17
5.150000E+03	2.429994E-15	3.558567E-17
5.160000E+03	2.440752E-15	3.572407E-17
5.170000E+03	2.452167E-15	3.587195E-17
5.180000E+03	2.464267E-15	3.602970E-17
5.190000E+03	2.477074E-15	3.619764E-17
5.200000E+03	2.490584E-15	3.637568E-17
5.210000E+03	2.504862E-15	3.656479E-17
5.220000E+03	2.519875E-15	3.676443E-17
5.230000E+03	2.535656E-15	3.697508E-17
5.240000E+03	2.552187E-15	3.719646E-17
5.250000E+03	2.569469E-15	3.742859E-17
5.260000E+03	2.587501E-15	3.767142E-17
5.270000E+03	2.606250E-15	3.792445E-17
5.280000E+03	2.625731E-15	3.818791E-17
5.290000E+03	2.645933E-15	3.846159E-17
5.300000E+03	2.666784E-15	3.874447E-17
5.310000E+03	2.688319E-15	3.903703E-17
5.320000E+03	2.710465E-15	3.933818E-17
5.330000E+03	2.733228E-15	3.964803E-17
5.340000E+03	2.756563E-15	3.996590E-17
5.350000E+03	2.780455E-15	4.029155E-17
5.360000E+03	2.804858E-15	4.062432E-17
5.370000E+03	2.829809E-15	4.096474E-17
5.380000E+03	2.855194E-15	4.131116E-17
5.390000E+03	2.880983E-15	4.166312E-17
5.400000E+03	2.907072E-15	4.201911E-17
5.410000E+03	2.933306E-15	4.237690E-17
5.420000E+03	2.959461E-15	4.273328E-17
5.430000E+03	2.985321E-15	4.308509E-17
5.440000E+03	3.010661E-15	4.342913E-17
5.450000E+03	3.035272E-15	4.376238E-17
5.460000E+03	3.058990E-15	4.408252E-17
5.470000E+03	3.081647E-15	4.438714E-17
5.480000E+03	3.103043E-15	4.467338E-17
5.490000E+03	3.123034E-15	4.493921E-17
5.500000E+03	3.141607E-15	4.518446E-17
5.510000E+03	3.158622E-15	4.540716E-17
5.520000E+03	3.174133E-15	4.560811E-17
5.530000E+03	3.188099E-15	4.578676E-17
5.540000E+03	3.200610E-15	4.594445E-17
5.550000E+03	3.211789E-15	4.608296E-17
5.560000E+03	3.221688E-15	4.620306E-17
5.570000E+03	3.230487E-15	4.630737E-17
5.580000E+03	3.238386E-15	4.639878E-17
5.590000E+03	3.245505E-15	4.647903E-17
5.600000E+03	3.252080E-15	4.655152E-17
5.610000E+03	3.258355E-15	4.661973E-17
5.620000E+03	3.264480E-15	4.668583E-17
5.630000E+03	3.270739E-15	4.675387E-17
5.640000E+03	3.277342E-15	4.682688E-17
5.650000E+03	3.284428E-15	4.690681E-17
5.660000E+03	3.292252E-15	4.699730E-17
5.670000E+03	3.300990E-15	4.710086E-17
5.680000E+03	3.310760E-15	4.721915E-17
5.690000E+03	3.321730E-15	4.735453E-17
5.700000E+03	3.333968E-15	4.750799E-17
5.710000E+03	3.347587E-15	4.768107E-17
5.720000E+03	3.362636E-15	4.787449E-17
5.730000E+03	3.379133E-15	4.808845E-17
5.740000E+03	3.397066E-15	4.832276E-17
5.750000E+03	3.416425E-15	4.857728E-17
5.760000E+03	3.437063E-15	4.884986E-17
5.770000E+03	3.458943E-15	4.913998E-17
5.780000E+03	3.481891E-15	4.944515E-17
5.790000E+03	3.505741E-15	4.976299E-17
5.800000E+03	3.530337E-15	5.009128E-17
5.810000E+03	3.555461E-15	5.042692E-17
5.820000E+03	3.580872E-15	5.076649E-17
5.830000E+03	3.606315E-15	5.110637E-17
5.840000E+03	3.631515E-15	5.144267E-17
5.850000E+03	3.656187E-15	5.177138E-17
5.860000E+03	3.680083E-15	5.208897E-17
5.870000E+03	3.702911E-15	5.239136E-17
5.880000E+03	3.724340E-15	5.267389E-17
5.890000E+03	3.744131E-15	5.293319E-17
5.900000E+03	3.762016E-15	5.316551E-17
5.910000E+03	3.777786E-15	5.336793E-17
5.920000E+03	3.791169E-15	5.353666E-17
5.930000E+03	3.802002E-15	5.366944E-17
5.940000E+03	3.810110E-15	5.376385E-17
5.950000E+03	3.815348E-15	5.381787E-17
5.960000E+03	3.817646E-15	5.383058E-17
5.970000E+03	3.816928E-15	5.380094E-17
5.980000E+03	3.813102E-15	5.372772E-17
5.990000E+03	3.806246E-15	5.361207E-17
6.000000E+03	3.796338E-15	5.345371E-17
6.010000E+03	3.783474E-15	5.325405E-17
6.020000E+03	3.767734E-15	5.301425E-17
6.030000E+03	3.749222E-15	5.273582E-17
6.040000E+03	3.728111E-15	5.242124E-17
6.050000E+03	3.704593E-15	5.207323E-17
6.060000E+03	3.678739E-15	5.169282E-17
6.070000E+03	3.650810E-15	5.128373E-17
6.080000E+03	3.620991E-15	5.084856E-17
6.090000E+03	3.589514E-15	5.039060E-17
6.100000E+03	3.556569E-15	4.991254E-17
6.110000E+03	3.522395E-15	4.941772E-17
6.120000E+03	3.487139E-15	4.890826E-17
6.130000E+03	3.451126E-15	4.838870E-17
6.140000E+03	3.414545E-15	4.786169E-17
6.150000E+03	3.377582E-15	4.732986E-17
6.160000E+03	3.340555E-15	4.679765E-17
6.170000E+03	3.303607E-15	4.626706E-17
6.180000E+03	3.267008E-15	4.574186E-17
6.190000E+03	3.230820E-15	4.522292E-17
6.200000E+03	3.195277E-15	4.471350E-17
6.210000E+03	3.160527E-15	4.421565E-17
6.220000E+03	3.126716E-15	4.373142E-17
6.230000E+03	3.093976E-15	4.326263E-17
6.240000E+03	3.062410E-15	4.281068E-17
6.250000E+03	3.032079E-15	4.237641E-17
6.260000E+03	3.003121E-15	4.196175E-17
6.270000E+03	2.975436E-15	4.156525E-17
6.280000E+03	2.949064E-15	4.118747E-17
6.290000E+03	2.923954E-15	4.082767E-17
6.300000E+03	2.900139E-15	4.048631E-17
6.310000E+03	2.877582E-15	4.016283E-17
6.320000E+03	2.856251E-15	3.985676E-17
6.330000E+03	2.836236E-15	3.956938E-17
6.340000E+03	2.817479E-15	3.929983E-17
6.350000E+03	2.799998E-15	3.904836E-17
6.360000E+03	2.783890E-15	3.881630E-17
6.370000E+03	2.769098E-15	3.860284E-17
6.380000E+03	2.755675E-15	3.840871E-17
6.390000E+03	2.743592E-15	3.823350E-17
6.400000E+03	2.732933E-15	3.807834E-17
6.410000E+03	2.723620E-15	3.794215E-17
6.420000E+03	2.715684E-15	3.782536E-17
6.430000E+03	2.709114E-15	3.772778E-17
6.440000E+03	2.703813E-15	3.764806E-17
6.450000E+03	2.699828E-15	3.758685E-17
6.460000E+03	2.697091E-15	3.754317E-17
6.470000E+03	2.695560E-15	3.751645E-17
6.480000E+03	2.695150E-15	3.750550E-17
6.490000E+03	2.695850E-15	3.751014E-17
6.500000E+03	2.697561E-15	3.752901E-17
6.510000E+03	2.700263E-15	3.756180E-17
6.520000E+03	2.703808E-15	3.760647E-17
6.530000E+03	2.708206E-15	3.766313E-17
6.540000E+03	2.713342E-15	3.773020E-17
6.550000E+03	2.719100E-15	3.780605E-17
6.560000E+03	2.725441E-15	3.789013E-17
6.570000E+03	2.732242E-15	3.798074E-17
6.580000E+03	2.739464E-15	3.807734E-17
6.590000E+03	2.746984E-15	3.817821E-17
6.600000E+03	2.754722E-15	3.828224E-17
6.610000E+03	2.762641E-15	3.838891E-17
6.620000E+03	2.770580E-15	3.849599E-17
6.630000E+03	2.778551E-15	3.860366E-17
6.640000E+03	2.786444E-15	3.871038E-17
6.650000E+03	2.794194E-15	3.881523E-17
6.660000E+03	2.801743E-15	3.891744E-17
6.670000E+03	2.809083E-15	3.901687E-17
6.680000E+03	2.816080E-15	3.911169E-17
6.690000E+03	2.822742E-15	3.920199E-17
6.700000E+03	2.829079E-15	3.928792E-17
6.710000E+03	2.835026E-15	3.936858E-17
6.720000E+03	2.840522E-15	3.944312E-17
6.730000E+03	2.845646E-15	3.951265E-17
6.740000E+03	2.850399E-15	3.957717E-17
6.750000E+03	2.854697E-15	3.963552E-17
6.760000E+03	2.858640E-15	3.968909E-17
6.770000E+03	2.862201E-15	3.973750E-17
6.780000E+03	2.865402E-15	3.978108E-17
6.790000E+03	2.868317E-15	3.982084E-17
6.800000E+03	2.870926E-15	3.985651E-17
6.810000E+03	2.873311E-15	3.988922E-17
6.820000E+03	2.875457E-15	3.991878E-17
6.830000E+03	2.877445E-15	3.994630E-17
6.840000E+03	2.879261E-15	3.997159E-17
6.850000E+03	2.880986E-15	3.999577E-17
6.860000E+03	2.882648E-15	4.001924E-17
6.870000E+03	2.884226E-15	4.004171E-17
6.880000E+03	2.885792E-15	4.006416E-17
6.890000E+03	2.887314E-15	4.008618E-17
6.900000E+03	2.888905E-15	4.010931E-17
6.910000E+03	2.890474E-15	4.013231E-17
6.920000E+03	2.892073E-15	4.015589E-17
6.930000E+03	2.893698E-15	4.018000E-17
6.940000E+03	2.895339E-15	4.020450E-17
6.950000E+03	2.896981E-15	4.022919E-17
6.960000E+03	2.898600E-15	4.025373E-17
6.970000E+03	2.900169E-15	4.027775E-17
6.980000E+03	2.901653E-15	4.030076E-17
6.990000E+03	2.902961E-15	4.032150E-17
7.000000E+03	2.904151E-15	4.034079E-17
7.010000E+03	2.905125E-15	4.035724E-17
7.020000E+03	2.905827E-15	4.037011E-17
7.030000E+03	2.906256E-15	4.037935E-17
7.040000E+03	2.906246E-15	4.038269E-17
7.050000E+03	2.905843E-15	4.038074E-17
7.060000E+03	2.904934E-15	4.037193E-17
7.070000E+03	2.903454E-15	4.035538E-17
7.080000E+03	2.901342E-15	4.033024E-17
7.090000E+03	2.898593E-15	4.029640E-17
7.100000E+03	2.895094E-15	4.025232E-17
7.110000E+03	2.890842E-15	4.019795E-17
7.120000E+03	2.885732E-15	4.013184E-17
7.130000E+03	2.879714E-15	4.005327E-17
7.140000E+03	2.872801E-15	3.996241E-17
7.150000E+03	2.864952E-15	3.985872E-17
7.160000E+03	2.856083E-15	3.974099E-17
7.170000E+03	2.846220E-15	3.960959E-17
7.180000E+03	2.835288E-15	3.946348E-17
7.190000E+03	2.823331E-15	3.930325E-17
7.200000E+03	2.810343E-15	3.912881E-17
7.210000E+03	2.796324E-15	3.894017E-17
7.220000E+03	2.781286E-15	3.873746E-17
7.230000E+03	2.765243E-15	3.852090E-17
7.240000E+03	2.748165E-15	3.829003E-17
7.250000E+03	2.730193E-15	3.804682E-17
7.260000E+03	2.711310E-15	3.779102E-17
7.270000E+03	2.691558E-15	3.752323E-17
7.280000E+03	2.671043E-15	3.724488E-17
7.290000E+03	2.649767E-15	3.695601E-17
7.300000E+03	2.627843E-15	3.665820E-17
7.310000E+03	2.605338E-15	3.635234E-17
7.320000E+03	2.582319E-15	3.603939E-17
7.330000E+03	2.558857E-15	3.572031E-17
7.340000E+03	2.535079E-15	3.539688E-17
7.350000E+03	2.511006E-15	3.506938E-17
7.360000E+03	2.486823E-15	3.474037E-17
7.370000E+03	2.462653E-15	3.441161E-17
7.380000E+03	2.438467E-15	3.408265E-17
7.390000E+03	2.414495E-15	3.375671E-17
7.400000E+03	2.390804E-15	3.343473E-17
7.410000E+03	2.367513E-15	3.311838E-17
7.420000E+03	2.344685E-15	3.280854E-17
7.430000E+03	2.322431E-15	3.250674E-17
7.440000E+03	2.300754E-15	3.221306E-17
7.450000E+03	2.279603E-15	3.192676E-17
7.460000E+03	2.259078E-15	3.164928E-17
7.470000E+03	2.239121E-15	3.137977E-17
7.480000E+03	2.219772E-15	3.111883E-17
7.490000E+03	2.200968E-15	3.086557E-17
7.500000E+03	2.182789E-15	3.062110E-17
7.510000E+03	2.165263E-15	3.038584E-17
7.520000E+03	2.148316E-15	3.015873E-17
7.530000E+03	2.132016E-15	2.994078E-17
7.540000E+03	2.116335E-15	2.973155E-17
7.550000E+03	2.101287E-15	2.953128E-17
7.560000E+03	2.086939E-15	2.934090E-17
7.570000E+03	2.073258E-15	2.915996E-17
7.580000E+03	2.060262E-15	2.898871E-17
7.590000E+03	2.047972E-15	2.882746E-17
7.600000E+03	2.036409E-15	2.867650E-17
7.610000E+03	2.025595E-15	2.853616E-17
7.620000E+03	2.015547E-15	2.840667E-17
7.630000E+03	2.006264E-15	2.828803E-17
7.640000E+03	1.997724E-15	2.817993E-17
7.650000E+03	1.989881E-15	2.808175E-17
7.660000E+03	1.982664E-15	2.799249E-17
7.670000E+03	1.975991E-15	2.791099E-17
7.680000E+03	1.969821E-15	2.783668E-17
7.690000E+03	1.963976E-15	2.776705E-17
7.700000E+03	1.958473E-15	2.770234E-17
7.710000E+03	1.953147E-15	2.764022E-17
7.720000E+03	1.948030E-15	2.758114E-17
7.730000E+03	1.943017E-15	2.752362E-17
7.740000E+03	1.938107E-15	2.746763E-17
7.750000E+03	1.933208E-15	2.741188E-17
7.760000E+03	1.928279E-15	2.735577E-17
