#wls	flux	fluxerr
1.600000E+03	8.852900E-17	2.273862E-18
1.640000E+03	9.020509E-17	2.312692E-18
1.680000E+03	9.199132E-17	2.354074E-18
1.720000E+03	9.387505E-17	2.397661E-18
1.760000E+03	9.589683E-17	2.444465E-18
1.800000E+03	9.802641E-17	2.493683E-18
1.840000E+03	1.003062E-16	2.546367E-18
1.880000E+03	1.027435E-16	2.602664E-18
1.920000E+03	1.053457E-16	2.662727E-18
1.960000E+03	1.081007E-16	2.726208E-18
2.000000E+03	1.110564E-16	2.794271E-18
2.040000E+03	1.142014E-16	2.866581E-18
2.080000E+03	1.175659E-16	2.943844E-18
2.120000E+03	1.211601E-16	3.026260E-18
2.160000E+03	1.249946E-16	3.114028E-18
2.200000E+03	1.291032E-16	3.207921E-18
2.240000E+03	1.334980E-16	3.308167E-18
2.280000E+03	1.381677E-16	3.414403E-18
2.320000E+03	1.431969E-16	3.528632E-18
2.360000E+03	1.485507E-16	3.649896E-18
2.400000E+03	1.542929E-16	3.779658E-18
2.440000E+03	1.604382E-16	3.918158E-18
2.480000E+03	1.670008E-16	4.065621E-18
2.520000E+03	1.740212E-16	4.222897E-18
2.560000E+03	1.815416E-16	4.390856E-18
2.600000E+03	1.895749E-16	4.569653E-18
2.640000E+03	1.981922E-16	4.760819E-18
2.680000E+03	2.074045E-16	4.964425E-18
2.720000E+03	2.172503E-16	5.181188E-18
2.760000E+03	2.277986E-16	5.412522E-18
2.800000E+03	2.390507E-16	5.658212E-18
2.840000E+03	2.510679E-16	5.919447E-18
2.880000E+03	2.639078E-16	6.197300E-18
2.920000E+03	2.775863E-16	6.491836E-18
2.960000E+03	2.921441E-16	6.803684E-18
3.000000E+03	3.076846E-16	7.134900E-18
3.010000E+03	3.117115E-16	7.220412E-18
3.020000E+03	3.158114E-16	7.307374E-18
3.030000E+03	3.199461E-16	7.394896E-18
3.040000E+03	3.241517E-16	7.483805E-18
3.050000E+03	3.284268E-16	7.574065E-18
3.060000E+03	3.327703E-16	7.665641E-18
3.070000E+03	3.371806E-16	7.758490E-18
3.080000E+03	3.416182E-16	7.851700E-18
3.090000E+03	3.461576E-16	7.946973E-18
3.100000E+03	3.507588E-16	8.043386E-18
3.110000E+03	3.554202E-16	8.140895E-18
3.120000E+03	3.601396E-16	8.239442E-18
3.130000E+03	3.649150E-16	8.338978E-18
3.140000E+03	3.697440E-16	8.439438E-18
3.150000E+03	3.746632E-16	8.541652E-18
3.160000E+03	3.796312E-16	8.644670E-18
3.170000E+03	3.846845E-16	8.749316E-18
3.180000E+03	3.897815E-16	8.854632E-18
3.190000E+03	3.949580E-16	8.961433E-18
3.200000E+03	4.001723E-16	9.068758E-18
3.210000E+03	4.054601E-16	9.177414E-18
3.220000E+03	4.108183E-16	9.287323E-18
3.230000E+03	4.162434E-16	9.398397E-18
3.240000E+03	4.216923E-16	9.509658E-18
3.250000E+03	4.272401E-16	9.622794E-18
3.260000E+03	4.328038E-16	9.735926E-18
3.270000E+03	4.384584E-16	9.850737E-18
3.280000E+03	4.441600E-16	9.966229E-18
3.290000E+03	4.499040E-16	1.008230E-17
3.300000E+03	4.557252E-16	1.019972E-17
3.310000E+03	4.615792E-16	1.031748E-17
3.320000E+03	4.675004E-16	1.043636E-17
3.330000E+03	4.734437E-16	1.055533E-17
3.340000E+03	4.794832E-16	1.067605E-17
3.350000E+03	4.855335E-16	1.079660E-17
3.360000E+03	4.915887E-16	1.091685E-17
3.370000E+03	4.977219E-16	1.103842E-17
3.380000E+03	5.039264E-16	1.116116E-17
3.390000E+03	5.101166E-16	1.128315E-17
3.400000E+03	5.163647E-16	1.140599E-17
3.410000E+03	5.226238E-16	1.152866E-17
3.420000E+03	5.288869E-16	1.165097E-17
3.430000E+03	5.352247E-16	1.177450E-17
3.440000E+03	5.415511E-16	1.189733E-17
3.450000E+03	5.478969E-16	1.202015E-17
3.460000E+03	5.542541E-16	1.214277E-17
3.470000E+03	5.606139E-16	1.226500E-17
3.480000E+03	5.669677E-16	1.238665E-17
3.490000E+03	5.733450E-16	1.250837E-17
3.500000E+03	5.796980E-16	1.262910E-17
3.510000E+03	5.860557E-16	1.274947E-17
3.520000E+03	5.924081E-16	1.286928E-17
3.530000E+03	5.987076E-16	1.298748E-17
3.540000E+03	6.050196E-16	1.310549E-17
3.550000E+03	6.112588E-16	1.322148E-17
3.560000E+03	6.174894E-16	1.333682E-17
3.570000E+03	6.237003E-16	1.345128E-17
3.580000E+03	6.298438E-16	1.356383E-17
3.590000E+03	6.359095E-16	1.367425E-17
3.600000E+03	6.419228E-16	1.378310E-17
3.610000E+03	6.479078E-16	1.389090E-17
3.620000E+03	6.537818E-16	1.399586E-17
3.630000E+03	6.596045E-16	1.409929E-17
3.640000E+03	6.653289E-16	1.420019E-17
3.650000E+03	6.709436E-16	1.429831E-17
3.660000E+03	6.765062E-16	1.439489E-17
3.670000E+03	6.819358E-16	1.448822E-17
3.680000E+03	6.872552E-16	1.457879E-17
3.690000E+03	6.924527E-16	1.466636E-17
3.700000E+03	6.975168E-16	1.475072E-17
3.710000E+03	7.024686E-16	1.483230E-17
3.720000E+03	7.072639E-16	1.491019E-17
3.730000E+03	7.119238E-16	1.498485E-17
3.740000E+03	7.164365E-16	1.505604E-17
3.750000E+03	7.207595E-16	1.512289E-17
3.760000E+03	7.249446E-16	1.518650E-17
3.770000E+03	7.289495E-16	1.524600E-17
3.780000E+03	7.327639E-16	1.530119E-17
3.790000E+03	7.363781E-16	1.535189E-17
3.800000E+03	7.398115E-16	1.539852E-17
3.810000E+03	7.430254E-16	1.544029E-17
3.820000E+03	7.460677E-16	1.547823E-17
3.830000E+03	7.488722E-16	1.551098E-17
3.840000E+03	7.514314E-16	1.553840E-17
3.850000E+03	7.537921E-16	1.556149E-17
3.860000E+03	7.559190E-16	1.557955E-17
3.870000E+03	7.578045E-16	1.559244E-17
3.880000E+03	7.594418E-16	1.560004E-17
3.890000E+03	7.608246E-16	1.560226E-17
3.900000E+03	7.619469E-16	1.559899E-17
3.910000E+03	7.628272E-16	1.559065E-17
3.920000E+03	7.634334E-16	1.557660E-17
3.930000E+03	7.637590E-16	1.555675E-17
3.940000E+03	7.637984E-16	1.553100E-17
3.950000E+03	7.635502E-16	1.549937E-17
3.960000E+03	7.630140E-16	1.546186E-17
3.970000E+03	7.621913E-16	1.541856E-17
3.980000E+03	7.610913E-16	1.536966E-17
3.990000E+03	7.597246E-16	1.531543E-17
4.000000E+03	7.580836E-16	1.525573E-17
4.010000E+03	7.562109E-16	1.519145E-17
4.020000E+03	7.541097E-16	1.512268E-17
4.030000E+03	7.518261E-16	1.505036E-17
4.040000E+03	7.493564E-16	1.497446E-17
4.050000E+03	7.467579E-16	1.489612E-17
4.060000E+03	7.440513E-16	1.481578E-17
4.070000E+03	7.412848E-16	1.473442E-17
4.080000E+03	7.385079E-16	1.465301E-17
4.090000E+03	7.357520E-16	1.457218E-17
4.100000E+03	7.330865E-16	1.449332E-17
4.110000E+03	7.305290E-16	1.441675E-17
4.120000E+03	7.281305E-16	1.434346E-17
4.130000E+03	7.259568E-16	1.427475E-17
4.140000E+03	7.240092E-16	1.421061E-17
4.150000E+03	7.223663E-16	1.415256E-17
4.160000E+03	7.210273E-16	1.410056E-17
4.170000E+03	7.200656E-16	1.405600E-17
4.180000E+03	7.194935E-16	1.401908E-17
4.190000E+03	7.193504E-16	1.399054E-17
4.200000E+03	7.196597E-16	1.397078E-17
4.210000E+03	7.204588E-16	1.396048E-17
4.220000E+03	7.217705E-16	1.396002E-17
4.230000E+03	7.236177E-16	1.396981E-17
4.240000E+03	7.260507E-16	1.399075E-17
4.250000E+03	7.290825E-16	1.402303E-17
4.260000E+03	7.327411E-16	1.406713E-17
4.270000E+03	7.370937E-16	1.412427E-17
4.280000E+03	7.421434E-16	1.419442E-17
4.290000E+03	7.479328E-16	1.427835E-17
4.300000E+03	7.545181E-16	1.437703E-17
4.310000E+03	7.619292E-16	1.449096E-17
4.320000E+03	7.701975E-16	1.462064E-17
4.330000E+03	7.793811E-16	1.476709E-17
4.340000E+03	7.895176E-16	1.493092E-17
4.350000E+03	8.006597E-16	1.511302E-17
4.360000E+03	8.128621E-16	1.531433E-17
4.370000E+03	8.261835E-16	1.553583E-17
4.380000E+03	8.406982E-16	1.577881E-17
4.390000E+03	8.564534E-16	1.604402E-17
4.400000E+03	8.734970E-16	1.633224E-17
4.410000E+03	8.918875E-16	1.664441E-17
4.420000E+03	9.116499E-16	1.698088E-17
4.430000E+03	9.328106E-16	1.734199E-17
4.440000E+03	9.553438E-16	1.772711E-17
4.450000E+03	9.792620E-16	1.813635E-17
4.460000E+03	1.004479E-15	1.856797E-17
4.470000E+03	1.030940E-15	1.902082E-17
4.480000E+03	1.058507E-15	1.949224E-17
4.490000E+03	1.087023E-15	1.997925E-17
4.500000E+03	1.116285E-15	2.047801E-17
4.510000E+03	1.146013E-15	2.098334E-17
4.520000E+03	1.175884E-15	2.148928E-17
4.530000E+03	1.205508E-15	2.198872E-17
4.540000E+03	1.234466E-15	2.247406E-17
4.550000E+03	1.262301E-15	2.293709E-17
4.560000E+03	1.288484E-15	2.336831E-17
4.570000E+03	1.312499E-15	2.375859E-17
4.580000E+03	1.333865E-15	2.409944E-17
4.590000E+03	1.352102E-15	2.438251E-17
4.600000E+03	1.366738E-15	2.459963E-17
4.610000E+03	1.377512E-15	2.474648E-17
4.620000E+03	1.384214E-15	2.481970E-17
4.630000E+03	1.386691E-15	2.481697E-17
4.640000E+03	1.385020E-15	2.474009E-17
4.650000E+03	1.379310E-15	2.459145E-17
4.660000E+03	1.369793E-15	2.437557E-17
4.670000E+03	1.356756E-15	2.409794E-17
4.680000E+03	1.340582E-15	2.376570E-17
4.690000E+03	1.321629E-15	2.338550E-17
4.700000E+03	1.300384E-15	2.296623E-17
4.710000E+03	1.277265E-15	2.251548E-17
4.720000E+03	1.252748E-15	2.204178E-17
4.730000E+03	1.227285E-15	2.155322E-17
4.740000E+03	1.201324E-15	2.105775E-17
4.750000E+03	1.175280E-15	2.056268E-17
4.760000E+03	1.149530E-15	2.007457E-17
4.770000E+03	1.124392E-15	1.959895E-17
4.780000E+03	1.100173E-15	1.914107E-17
4.790000E+03	1.077074E-15	1.870437E-17
4.800000E+03	1.055319E-15	1.829257E-17
4.810000E+03	1.035062E-15	1.790822E-17
4.820000E+03	1.016431E-15	1.755338E-17
4.830000E+03	9.994985E-16	1.722914E-17
4.840000E+03	9.843668E-16	1.693710E-17
4.850000E+03	9.710538E-16	1.667738E-17
4.860000E+03	9.596244E-16	1.645093E-17
4.870000E+03	9.500843E-16	1.625766E-17
4.880000E+03	9.424491E-16	1.609766E-17
4.890000E+03	9.367218E-16	1.597079E-17
4.900000E+03	9.328833E-16	1.587655E-17
4.910000E+03	9.308638E-16	1.581359E-17
4.920000E+03	9.305821E-16	1.578035E-17
4.930000E+03	9.319407E-16	1.577502E-17
4.940000E+03	9.347359E-16	1.579402E-17
4.950000E+03	9.387929E-16	1.583426E-17
4.960000E+03	9.438837E-16	1.589180E-17
4.970000E+03	9.498072E-16	1.596316E-17
4.980000E+03	9.563346E-16	1.604444E-17
4.990000E+03	9.632405E-16	1.613180E-17
5.000000E+03	9.703926E-16	1.622301E-17
5.010000E+03	9.776333E-16	1.631542E-17
5.020000E+03	9.848664E-16	1.640743E-17
5.030000E+03	9.920405E-16	1.649817E-17
5.040000E+03	9.991700E-16	1.658791E-17
5.050000E+03	1.006269E-15	1.667686E-17
5.060000E+03	1.013412E-15	1.676630E-17
5.070000E+03	1.020717E-15	1.685815E-17
5.080000E+03	1.028293E-15	1.695423E-17
5.090000E+03	1.036244E-15	1.705617E-17
5.100000E+03	1.044690E-15	1.716598E-17
5.110000E+03	1.053744E-15	1.728545E-17
5.120000E+03	1.063436E-15	1.741502E-17
5.130000E+03	1.073811E-15	1.755540E-17
5.140000E+03	1.084897E-15	1.770697E-17
5.150000E+03	1.096692E-15	1.786965E-17
5.160000E+03	1.109159E-15	1.804282E-17
5.170000E+03	1.122264E-15	1.822585E-17
5.180000E+03	1.135964E-15	1.841799E-17
5.190000E+03	1.150176E-15	1.861789E-17
5.200000E+03	1.164841E-15	1.882454E-17
5.210000E+03	1.179869E-15	1.903648E-17
5.220000E+03	1.195203E-15	1.925275E-17
5.230000E+03	1.210729E-15	1.947151E-17
5.240000E+03	1.226357E-15	1.969133E-17
5.250000E+03	1.242015E-15	1.991104E-17
5.260000E+03	1.257587E-15	2.012879E-17
5.270000E+03	1.272959E-15	2.034278E-17
5.280000E+03	1.288022E-15	2.055129E-17
5.290000E+03	1.302629E-15	2.075204E-17
5.300000E+03	1.316634E-15	2.094271E-17
5.310000E+03	1.329885E-15	2.112098E-17
5.320000E+03	1.342225E-15	2.128441E-17
5.330000E+03	1.353518E-15	2.143091E-17
5.340000E+03	1.363631E-15	2.155847E-17
5.350000E+03	1.372440E-15	2.166525E-17
5.360000E+03	1.379870E-15	2.175014E-17
5.370000E+03	1.385869E-15	2.181244E-17
5.380000E+03	1.390367E-15	2.185115E-17
5.390000E+03	1.393352E-15	2.186619E-17
5.400000E+03	1.394803E-15	2.185735E-17
5.410000E+03	1.394711E-15	2.182459E-17
5.420000E+03	1.393087E-15	2.176817E-17
5.430000E+03	1.389953E-15	2.168854E-17
5.440000E+03	1.385321E-15	2.158599E-17
5.450000E+03	1.379171E-15	2.146028E-17
5.460000E+03	1.371491E-15	2.131133E-17
5.470000E+03	1.362209E-15	2.113812E-17
5.480000E+03	1.351174E-15	2.093840E-17
5.490000E+03	1.338182E-15	2.070910E-17
5.500000E+03	1.323049E-15	2.044752E-17
5.510000E+03	1.305584E-15	2.015081E-17
5.520000E+03	1.285585E-15	1.981600E-17
5.530000E+03	1.262951E-15	1.944167E-17
5.540000E+03	1.237800E-15	1.902977E-17
5.550000E+03	1.210335E-15	1.858359E-17
5.560000E+03	1.180794E-15	1.810685E-17
5.570000E+03	1.149665E-15	1.760717E-17
5.580000E+03	1.117435E-15	1.709204E-17
5.590000E+03	1.084586E-15	1.656890E-17
5.600000E+03	1.051684E-15	1.604639E-17
5.610000E+03	1.019256E-15	1.553252E-17
5.620000E+03	9.877609E-16	1.503424E-17
5.630000E+03	9.576192E-16	1.455787E-17
5.640000E+03	9.292001E-16	1.410892E-17
5.650000E+03	9.028108E-16	1.369194E-17
5.660000E+03	8.786708E-16	1.331014E-17
5.670000E+03	8.569518E-16	1.296598E-17
5.680000E+03	8.378027E-16	1.266158E-17
5.690000E+03	8.213220E-16	1.239826E-17
5.700000E+03	8.075703E-16	1.217680E-17
5.710000E+03	7.966299E-16	1.199829E-17
5.720000E+03	7.885005E-16	1.186258E-17
5.730000E+03	7.831988E-16	1.176977E-17
5.740000E+03	7.807483E-16	1.172007E-17
5.750000E+03	7.810995E-16	1.171260E-17
5.760000E+03	7.842044E-16	1.174650E-17
5.770000E+03	7.900286E-16	1.182112E-17
5.780000E+03	7.984649E-16	1.193474E-17
5.790000E+03	8.093950E-16	1.208547E-17
5.800000E+03	8.226666E-16	1.227094E-17
5.810000E+03	8.380671E-16	1.248786E-17
5.820000E+03	8.553135E-16	1.273194E-17
5.830000E+03	8.741244E-16	1.299892E-17
5.840000E+03	8.941714E-16	1.328387E-17
5.850000E+03	9.150828E-16	1.358122E-17
5.860000E+03	9.364839E-16	1.388540E-17
5.870000E+03	9.579972E-16	1.419080E-17
5.880000E+03	9.792294E-16	1.449161E-17
5.890000E+03	9.998122E-16	1.478242E-17
5.900000E+03	1.019399E-15	1.505814E-17
5.910000E+03	1.037675E-15	1.531418E-17
5.920000E+03	1.054348E-15	1.554630E-17
5.930000E+03	1.069175E-15	1.575099E-17
5.940000E+03	1.081927E-15	1.592498E-17
5.950000E+03	1.092409E-15	1.606547E-17
5.960000E+03	1.100541E-15	1.617139E-17
5.970000E+03	1.106250E-15	1.624174E-17
5.980000E+03	1.109528E-15	1.627655E-17
5.990000E+03	1.110499E-15	1.627768E-17
6.000000E+03	1.109323E-15	1.624759E-17
6.010000E+03	1.106240E-15	1.618986E-17
6.020000E+03	1.101538E-15	1.610877E-17
6.030000E+03	1.095574E-15	1.600957E-17
6.040000E+03	1.088702E-15	1.589749E-17
6.050000E+03	1.081321E-15	1.577839E-17
6.060000E+03	1.073816E-15	1.565787E-17
6.070000E+03	1.066567E-15	1.554150E-17
6.080000E+03	1.059952E-15	1.543475E-17
6.090000E+03	1.054338E-15	1.534296E-17
6.100000E+03	1.050046E-15	1.527074E-17
6.110000E+03	1.047377E-15	1.522246E-17
6.120000E+03	1.046601E-15	1.520199E-17
6.130000E+03	1.047954E-15	1.521270E-17
6.140000E+03	1.051641E-15	1.525754E-17
6.150000E+03	1.057814E-15	1.533863E-17
6.160000E+03	1.066638E-15	1.545832E-17
6.170000E+03	1.078156E-15	1.561719E-17
6.180000E+03	1.092370E-15	1.581523E-17
6.190000E+03	1.109229E-15	1.605165E-17
6.200000E+03	1.128430E-15	1.632202E-17
6.210000E+03	1.149629E-15	1.662136E-17
6.220000E+03	1.172388E-15	1.694333E-17
6.230000E+03	1.196197E-15	1.728053E-17
6.240000E+03	1.220426E-15	1.762390E-17
6.250000E+03	1.244437E-15	1.796423E-17
6.260000E+03	1.267669E-15	1.829342E-17
6.270000E+03	1.289519E-15	1.860282E-17
6.280000E+03	1.309394E-15	1.888391E-17
6.290000E+03	1.326914E-15	1.913124E-17
6.300000E+03	1.341736E-15	1.933992E-17
6.310000E+03	1.353580E-15	1.950591E-17
6.320000E+03	1.362332E-15	1.962765E-17
6.330000E+03	1.367981E-15	1.970497E-17
6.340000E+03	1.370553E-15	1.973832E-17
6.350000E+03	1.370192E-15	1.972975E-17
6.360000E+03	1.367128E-15	1.968260E-17
6.370000E+03	1.361564E-15	1.959981E-17
6.380000E+03	1.353808E-15	1.948580E-17
6.390000E+03	1.344152E-15	1.934481E-17
6.400000E+03	1.332893E-15	1.918107E-17
6.410000E+03	1.320262E-15	1.899792E-17
6.420000E+03	1.306512E-15	1.879899E-17
6.430000E+03	1.291837E-15	1.858706E-17
6.440000E+03	1.276415E-15	1.836467E-17
6.450000E+03	1.260375E-15	1.813365E-17
6.460000E+03	1.243843E-15	1.789584E-17
6.470000E+03	1.226909E-15	1.765247E-17
6.480000E+03	1.209655E-15	1.740476E-17
6.490000E+03	1.192167E-15	1.715390E-17
6.500000E+03	1.174492E-15	1.690053E-17
6.510000E+03	1.156697E-15	1.664565E-17
6.520000E+03	1.138840E-15	1.639006E-17
6.530000E+03	1.120964E-15	1.613436E-17
6.540000E+03	1.103138E-15	1.587952E-17
6.550000E+03	1.085402E-15	1.562613E-17
6.560000E+03	1.067794E-15	1.537471E-17
6.570000E+03	1.050374E-15	1.512610E-17
6.580000E+03	1.033172E-15	1.488076E-17
6.590000E+03	1.016213E-15	1.463900E-17
6.600000E+03	9.995373E-16	1.440142E-17
6.610000E+03	9.831737E-16	1.416841E-17
6.620000E+03	9.671336E-16	1.394014E-17
6.630000E+03	9.514371E-16	1.371689E-17
6.640000E+03	9.361034E-16	1.349892E-17
6.650000E+03	9.211634E-16	1.328668E-17
6.660000E+03	9.066160E-16	1.308014E-17
6.670000E+03	8.925012E-16	1.287989E-17
6.680000E+03	8.788417E-16	1.268625E-17
6.690000E+03	8.656506E-16	1.249939E-17
6.700000E+03	8.529604E-16	1.231981E-17
6.710000E+03	8.407967E-16	1.214785E-17
6.720000E+03	8.291851E-16	1.198389E-17
6.730000E+03	8.181420E-16	1.182818E-17
6.740000E+03	8.077237E-16	1.168152E-17
6.750000E+03	7.979317E-16	1.154395E-17
6.760000E+03	7.888128E-16	1.141614E-17
6.770000E+03	7.803984E-16	1.129857E-17
6.780000E+03	7.727284E-16	1.119180E-17
6.790000E+03	7.658160E-16	1.109605E-17
6.800000E+03	7.597003E-16	1.101189E-17
6.810000E+03	7.544203E-16	1.093990E-17
6.820000E+03	7.499965E-16	1.088038E-17
6.830000E+03	7.464723E-16	1.083399E-17
6.840000E+03	7.438469E-16	1.080073E-17
6.850000E+03	7.421711E-16	1.078134E-17
6.860000E+03	7.414548E-16	1.077601E-17
6.870000E+03	7.417252E-16	1.078513E-17
6.880000E+03	7.429816E-16	1.080872E-17
6.890000E+03	7.452510E-16	1.084721E-17
6.900000E+03	7.485327E-16	1.090060E-17
6.910000E+03	7.528416E-16	1.096913E-17
6.920000E+03	7.581735E-16	1.105278E-17
6.930000E+03	7.645121E-16	1.115133E-17
6.940000E+03	7.718651E-16	1.126493E-17
6.950000E+03	7.801918E-16	1.139301E-17
6.960000E+03	7.894739E-16	1.153533E-17
6.970000E+03	7.996796E-16	1.169147E-17
6.980000E+03	8.107567E-16	1.186069E-17
6.990000E+03	8.226759E-16	1.204259E-17
7.000000E+03	8.353833E-16	1.223642E-17
7.010000E+03	8.487960E-16	1.244100E-17
7.020000E+03	8.628536E-16	1.265547E-17
7.030000E+03	8.774897E-16	1.287888E-17
7.040000E+03	8.925969E-16	1.310969E-17
7.050000E+03	9.081024E-16	1.334686E-17
7.060000E+03	9.239033E-16	1.358889E-17
7.070000E+03	9.398631E-16	1.383381E-17
7.080000E+03	9.558812E-16	1.408014E-17
7.090000E+03	9.718136E-16	1.432579E-17
7.100000E+03	9.875185E-16	1.456867E-17
7.110000E+03	1.002859E-15	1.480677E-17
7.120000E+03	1.017665E-15	1.503758E-17
7.130000E+03	1.031789E-15	1.525891E-17
7.140000E+03	1.045037E-15	1.546788E-17
7.150000E+03	1.057280E-15	1.566256E-17
7.160000E+03	1.068306E-15	1.583979E-17
7.170000E+03	1.077967E-15	1.599734E-17
7.180000E+03	1.086093E-15	1.613262E-17
7.190000E+03	1.092495E-15	1.624280E-17
7.200000E+03	1.097021E-15	1.632555E-17
7.210000E+03	1.099494E-15	1.637815E-17
7.220000E+03	1.099776E-15	1.639846E-17
7.230000E+03	1.097728E-15	1.638434E-17
7.240000E+03	1.093215E-15	1.633364E-17
7.250000E+03	1.086170E-15	1.624529E-17
7.260000E+03	1.076497E-15	1.611769E-17
7.270000E+03	1.064188E-15	1.595060E-17
7.280000E+03	1.049240E-15	1.574387E-17
7.290000E+03	1.031704E-15	1.549810E-17
7.300000E+03	1.011683E-15	1.521469E-17
7.310000E+03	9.893236E-16	1.489574E-17
7.320000E+03	9.648362E-16	1.454426E-17
7.330000E+03	9.384512E-16	1.416358E-17
7.340000E+03	9.104592E-16	1.375799E-17
7.350000E+03	8.812046E-16	1.333258E-17
7.360000E+03	8.509967E-16	1.289192E-17
7.370000E+03	8.202230E-16	1.244183E-17
7.380000E+03	7.892815E-16	1.198828E-17
7.390000E+03	7.584992E-16	1.153620E-17
7.400000E+03	7.282660E-16	1.109152E-17
7.410000E+03	6.989269E-16	1.065948E-17
7.420000E+03	6.707761E-16	1.024462E-17
7.430000E+03	6.440909E-16	9.851229E-18
7.440000E+03	6.191255E-16	9.483257E-18
7.450000E+03	5.960662E-16	9.143655E-18
7.460000E+03	5.750628E-16	8.834830E-18
7.470000E+03	5.562109E-16	8.558372E-18
7.480000E+03	5.395621E-16	8.315207E-18
7.490000E+03	5.250037E-16	8.103738E-18
7.500000E+03	5.123851E-16	7.921772E-18
7.510000E+03	5.015948E-16	7.767717E-18
7.520000E+03	4.924523E-16	7.638895E-18
7.530000E+03	4.847969E-16	7.532925E-18
7.540000E+03	4.784897E-16	7.447748E-18
7.550000E+03	4.734124E-16	7.381614E-18
7.560000E+03	4.694626E-16	7.333015E-18
7.570000E+03	4.665422E-16	7.300504E-18
7.580000E+03	4.645735E-16	7.282938E-18
7.590000E+03	4.634739E-16	7.279097E-18
7.600000E+03	4.631726E-16	7.287939E-18
7.610000E+03	4.635960E-16	7.308368E-18
7.620000E+03	4.646804E-16	7.339441E-18
7.630000E+03	4.663463E-16	7.379957E-18
7.640000E+03	4.685276E-16	7.428919E-18
7.650000E+03	4.711471E-16	7.485147E-18
7.660000E+03	4.741426E-16	7.547692E-18
7.670000E+03	4.774419E-16	7.615438E-18
7.680000E+03	4.809670E-16	7.687166E-18
7.690000E+03	4.846545E-16	7.761883E-18
7.700000E+03	4.884282E-16	7.838383E-18
7.710000E+03	4.922264E-16	7.915682E-18
7.720000E+03	4.959824E-16	7.992708E-18
7.730000E+03	4.996270E-16	8.068338E-18
7.740000E+03	5.031003E-16	8.141591E-18
7.750000E+03	5.063521E-16	8.211636E-18
7.760000E+03	5.093328E-16	8.277644E-18
