#wls	flux	fluxerr
1.600000E+03	3.870043E-17	7.539989E-18
1.640000E+03	3.924541E-17	7.646094E-18
1.680000E+03	3.980744E-17	7.755515E-18
1.720000E+03	4.039367E-17	7.869648E-18
1.760000E+03	4.099756E-17	7.987215E-18
1.800000E+03	4.161932E-17	8.108258E-18
1.840000E+03	4.225916E-17	8.232820E-18
1.880000E+03	4.291732E-17	8.360944E-18
1.920000E+03	4.360132E-17	8.494097E-18
1.960000E+03	4.431163E-17	8.632369E-18
2.000000E+03	4.504122E-17	8.774390E-18
2.040000E+03	4.579791E-17	8.921682E-18
2.080000E+03	4.657452E-17	9.072847E-18
2.120000E+03	4.738677E-17	9.230949E-18
2.160000E+03	4.821978E-17	9.393086E-18
2.200000E+03	4.908174E-17	9.560854E-18
2.240000E+03	4.997324E-17	9.734368E-18
2.280000E+03	5.089486E-17	9.913739E-18
2.320000E+03	5.185546E-17	1.010069E-17
2.360000E+03	5.284771E-17	1.029380E-17
2.400000E+03	5.387236E-17	1.049321E-17
2.440000E+03	5.493871E-17	1.070073E-17
2.480000E+03	5.603937E-17	1.091492E-17
2.520000E+03	5.718402E-17	1.113766E-17
2.560000E+03	5.837408E-17	1.136924E-17
2.600000E+03	5.960220E-17	1.160821E-17
2.640000E+03	6.088776E-17	1.185836E-17
2.680000E+03	6.222388E-17	1.211834E-17
2.720000E+03	6.361265E-17	1.238855E-17
2.760000E+03	6.505639E-17	1.266946E-17
2.800000E+03	6.656719E-17	1.296340E-17
2.840000E+03	6.813877E-17	1.326916E-17
2.880000E+03	6.978407E-17	1.358926E-17
2.920000E+03	7.150719E-17	1.392449E-17
2.960000E+03	7.330280E-17	1.427381E-17
3.000000E+03	7.519563E-17	1.464204E-17
3.010000E+03	7.567941E-17	1.473615E-17
3.020000E+03	7.616656E-17	1.483091E-17
3.030000E+03	7.666726E-17	1.492832E-17
3.040000E+03	7.717155E-17	1.502642E-17
3.050000E+03	7.767952E-17	1.512523E-17
3.060000E+03	7.820144E-17	1.522676E-17
3.070000E+03	7.872726E-17	1.532905E-17
3.080000E+03	7.925709E-17	1.543212E-17
3.090000E+03	7.979103E-17	1.553598E-17
3.100000E+03	8.033945E-17	1.564267E-17
3.110000E+03	8.089225E-17	1.575020E-17
3.120000E+03	8.144952E-17	1.585860E-17
3.130000E+03	8.201135E-17	1.596789E-17
3.140000E+03	8.258830E-17	1.608012E-17
3.150000E+03	8.317013E-17	1.619329E-17
3.160000E+03	8.375694E-17	1.630744E-17
3.170000E+03	8.434885E-17	1.642258E-17
3.180000E+03	8.495658E-17	1.654079E-17
3.190000E+03	8.556975E-17	1.666006E-17
3.200000E+03	8.618850E-17	1.678042E-17
3.210000E+03	8.682365E-17	1.690397E-17
3.220000E+03	8.746473E-17	1.702866E-17
3.230000E+03	8.811189E-17	1.715454E-17
3.240000E+03	8.876529E-17	1.728164E-17
3.250000E+03	8.943592E-17	1.741208E-17
3.260000E+03	9.011320E-17	1.754382E-17
3.270000E+03	9.079727E-17	1.767688E-17
3.280000E+03	9.149930E-17	1.781343E-17
3.290000E+03	9.220857E-17	1.795139E-17
3.300000E+03	9.292527E-17	1.809079E-17
3.310000E+03	9.364958E-17	1.823167E-17
3.320000E+03	9.439286E-17	1.837624E-17
3.330000E+03	9.514423E-17	1.852238E-17
3.340000E+03	9.590393E-17	1.867015E-17
3.350000E+03	9.668343E-17	1.882176E-17
3.360000E+03	9.747178E-17	1.897509E-17
3.370000E+03	9.826921E-17	1.913019E-17
3.380000E+03	9.907595E-17	1.928710E-17
3.390000E+03	9.990370E-17	1.944810E-17
3.400000E+03	1.007414E-16	1.961102E-17
3.410000E+03	1.015892E-16	1.977591E-17
3.420000E+03	1.024590E-16	1.994509E-17
3.430000E+03	1.033280E-16	2.011411E-17
3.440000E+03	1.042313E-16	2.028980E-17
3.450000E+03	1.051344E-16	2.046544E-17
3.460000E+03	1.060609E-16	2.064564E-17
3.470000E+03	1.069995E-16	2.082818E-17
3.480000E+03	1.079504E-16	2.101312E-17
3.490000E+03	1.089140E-16	2.120053E-17
3.500000E+03	1.099026E-16	2.139281E-17
3.510000E+03	1.109046E-16	2.158768E-17
3.520000E+03	1.119325E-16	2.178760E-17
3.530000E+03	1.129624E-16	2.198790E-17
3.540000E+03	1.140190E-16	2.219339E-17
3.550000E+03	1.150905E-16	2.240177E-17
3.560000E+03	1.161895E-16	2.261552E-17
3.570000E+03	1.173043E-16	2.283232E-17
3.580000E+03	1.184350E-16	2.305222E-17
3.590000E+03	1.195821E-16	2.327531E-17
3.600000E+03	1.207460E-16	2.350166E-17
3.610000E+03	1.219395E-16	2.373376E-17
3.620000E+03	1.231504E-16	2.396927E-17
3.630000E+03	1.243921E-16	2.421073E-17
3.640000E+03	1.256390E-16	2.445323E-17
3.650000E+03	1.269171E-16	2.470178E-17
3.660000E+03	1.282138E-16	2.495397E-17
3.670000E+03	1.295427E-16	2.521240E-17
3.680000E+03	1.308773E-16	2.547193E-17
3.690000E+03	1.322444E-16	2.573779E-17
3.700000E+03	1.336307E-16	2.600738E-17
3.710000E+03	1.350361E-16	2.628070E-17
3.720000E+03	1.364742E-16	2.656036E-17
3.730000E+03	1.379312E-16	2.684368E-17
3.740000E+03	1.394067E-16	2.713062E-17
3.750000E+03	1.409003E-16	2.742105E-17
3.760000E+03	1.424251E-16	2.771758E-17
3.770000E+03	1.439526E-16	2.801461E-17
3.780000E+03	1.455096E-16	2.831737E-17
3.790000E+03	1.470807E-16	2.862287E-17
3.800000E+03	1.486787E-16	2.893361E-17
3.810000E+03	1.502733E-16	2.924369E-17
3.820000E+03	1.518909E-16	2.955822E-17
3.830000E+03	1.535145E-16	2.987393E-17
3.840000E+03	1.551415E-16	3.019027E-17
3.850000E+03	1.567830E-16	3.050945E-17
3.860000E+03	1.584063E-16	3.082505E-17
3.870000E+03	1.600365E-16	3.114202E-17
3.880000E+03	1.616546E-16	3.145662E-17
3.890000E+03	1.632559E-16	3.176793E-17
3.900000E+03	1.648352E-16	3.207497E-17
3.910000E+03	1.663871E-16	3.237666E-17
3.920000E+03	1.679215E-16	3.267496E-17
3.930000E+03	1.694176E-16	3.296578E-17
3.940000E+03	1.708544E-16	3.324507E-17
3.950000E+03	1.722573E-16	3.351774E-17
3.960000E+03	1.736055E-16	3.377977E-17
3.970000E+03	1.749101E-16	3.403331E-17
3.980000E+03	1.761356E-16	3.427146E-17
3.990000E+03	1.773097E-16	3.449960E-17
4.000000E+03	1.783984E-16	3.471111E-17
4.010000E+03	1.794313E-16	3.491176E-17
4.020000E+03	1.803920E-16	3.509838E-17
4.030000E+03	1.812652E-16	3.526796E-17
4.040000E+03	1.820842E-16	3.542698E-17
4.050000E+03	1.828360E-16	3.557293E-17
4.060000E+03	1.835404E-16	3.570966E-17
4.070000E+03	1.841715E-16	3.583211E-17
4.080000E+03	1.847513E-16	3.594459E-17
4.090000E+03	1.852876E-16	3.604859E-17
4.100000E+03	1.858046E-16	3.614884E-17
4.110000E+03	1.862803E-16	3.624107E-17
4.120000E+03	1.867407E-16	3.633030E-17
4.130000E+03	1.872123E-16	3.642171E-17
4.140000E+03	1.876752E-16	3.651143E-17
4.150000E+03	1.881722E-16	3.660778E-17
4.160000E+03	1.886843E-16	3.670707E-17
4.170000E+03	1.892547E-16	3.681768E-17
4.180000E+03	1.898645E-16	3.693598E-17
4.190000E+03	1.905415E-16	3.706733E-17
4.200000E+03	1.913132E-16	3.721711E-17
4.210000E+03	1.921610E-16	3.738168E-17
4.220000E+03	1.931276E-16	3.756936E-17
4.230000E+03	1.941939E-16	3.777644E-17
4.240000E+03	1.953870E-16	3.800818E-17
4.250000E+03	1.967187E-16	3.826688E-17
4.260000E+03	1.982006E-16	3.855477E-17
4.270000E+03	1.998439E-16	3.887406E-17
4.280000E+03	2.016599E-16	3.922694E-17
4.290000E+03	2.036602E-16	3.961567E-17
4.300000E+03	2.058559E-16	4.004240E-17
4.310000E+03	2.082581E-16	4.050929E-17
4.320000E+03	2.108616E-16	4.101530E-17
4.330000E+03	2.136929E-16	4.156563E-17
4.340000E+03	2.167788E-16	4.216547E-17
4.350000E+03	2.200958E-16	4.281026E-17
4.360000E+03	2.236692E-16	4.350490E-17
4.370000E+03	2.275067E-16	4.425090E-17
4.380000E+03	2.315969E-16	4.504603E-17
4.390000E+03	2.359789E-16	4.589789E-17
4.400000E+03	2.406194E-16	4.680003E-17
4.410000E+03	2.455349E-16	4.775562E-17
4.420000E+03	2.507211E-16	4.876387E-17
4.430000E+03	2.561697E-16	4.982311E-17
4.440000E+03	2.618680E-16	5.093090E-17
4.450000E+03	2.677782E-16	5.207989E-17
4.460000E+03	2.738956E-16	5.326915E-17
4.470000E+03	2.801907E-16	5.449295E-17
4.480000E+03	2.866276E-16	5.574430E-17
4.490000E+03	2.931640E-16	5.701496E-17
4.500000E+03	2.997297E-16	5.829132E-17
4.510000E+03	3.062917E-16	5.956693E-17
4.520000E+03	3.127911E-16	6.083034E-17
4.530000E+03	3.191419E-16	6.206483E-17
4.540000E+03	3.253012E-16	6.326205E-17
4.550000E+03	3.312029E-16	6.440915E-17
4.560000E+03	3.367821E-16	6.549353E-17
4.570000E+03	3.419528E-16	6.649844E-17
4.580000E+03	3.467067E-16	6.742228E-17
4.590000E+03	3.509211E-16	6.824119E-17
4.600000E+03	3.546290E-16	6.896158E-17
4.610000E+03	3.577510E-16	6.956803E-17
4.620000E+03	3.602933E-16	7.006173E-17
4.630000E+03	3.622497E-16	7.044151E-17
4.640000E+03	3.636008E-16	7.070358E-17
4.650000E+03	3.643894E-16	7.085625E-17
4.660000E+03	3.646187E-16	7.090017E-17
4.670000E+03	3.643772E-16	7.085254E-17
4.680000E+03	3.636607E-16	7.071255E-17
4.690000E+03	3.625220E-16	7.049049E-17
4.700000E+03	3.610680E-16	7.020709E-17
4.710000E+03	3.592842E-16	6.985959E-17
4.720000E+03	3.573052E-16	6.947414E-17
4.730000E+03	3.551425E-16	6.905298E-17
4.740000E+03	3.528789E-16	6.861222E-17
4.750000E+03	3.505465E-16	6.815808E-17
4.760000E+03	3.482211E-16	6.770531E-17
4.770000E+03	3.459501E-16	6.726312E-17
4.780000E+03	3.437535E-16	6.683543E-17
4.790000E+03	3.416929E-16	6.643417E-17
4.800000E+03	3.398014E-16	6.606579E-17
4.810000E+03	3.380852E-16	6.573152E-17
4.820000E+03	3.365908E-16	6.544037E-17
4.830000E+03	3.353158E-16	6.519188E-17
4.840000E+03	3.342981E-16	6.499341E-17
4.850000E+03	3.335494E-16	6.484726E-17
4.860000E+03	3.330564E-16	6.475082E-17
4.870000E+03	3.328467E-16	6.470947E-17
4.880000E+03	3.329012E-16	6.471947E-17
4.890000E+03	3.332421E-16	6.478515E-17
4.900000E+03	3.338673E-16	6.490610E-17
4.910000E+03	3.347520E-16	6.507750E-17
4.920000E+03	3.359122E-16	6.530246E-17
4.930000E+03	3.373200E-16	6.557555E-17
4.940000E+03	3.389895E-16	6.589950E-17
4.950000E+03	3.408902E-16	6.626841E-17
4.960000E+03	3.430350E-16	6.668476E-17
4.970000E+03	3.454145E-16	6.714672E-17
4.980000E+03	3.479966E-16	6.764805E-17
4.990000E+03	3.507937E-16	6.819118E-17
5.000000E+03	3.537734E-16	6.876980E-17
5.010000E+03	3.569481E-16	6.938632E-17
5.020000E+03	3.603083E-16	7.003887E-17
5.030000E+03	3.638214E-16	7.072114E-17
5.040000E+03	3.675002E-16	7.143563E-17
5.050000E+03	3.713116E-16	7.217585E-17
5.060000E+03	3.752680E-16	7.294426E-17
5.070000E+03	3.793583E-16	7.373867E-17
5.080000E+03	3.835458E-16	7.455199E-17
5.090000E+03	3.878165E-16	7.538145E-17
5.100000E+03	3.921782E-16	7.622858E-17
5.110000E+03	3.966132E-16	7.708996E-17
5.120000E+03	4.010764E-16	7.795680E-17
5.130000E+03	4.055692E-16	7.882940E-17
5.140000E+03	4.100664E-16	7.970281E-17
5.150000E+03	4.145135E-16	8.056649E-17
5.160000E+03	4.189049E-16	8.141933E-17
5.170000E+03	4.231811E-16	8.224976E-17
5.180000E+03	4.273325E-16	8.305592E-17
5.190000E+03	4.312957E-16	8.382549E-17
5.200000E+03	4.350594E-16	8.455629E-17
5.210000E+03	4.385864E-16	8.524106E-17
5.220000E+03	4.418128E-16	8.586740E-17
5.230000E+03	4.447303E-16	8.643371E-17
5.240000E+03	4.472791E-16	8.692835E-17
5.250000E+03	4.494570E-16	8.735090E-17
5.260000E+03	4.512390E-16	8.769649E-17
5.270000E+03	4.525762E-16	8.795565E-17
5.280000E+03	4.534807E-16	8.813071E-17
5.290000E+03	4.539141E-16	8.821421E-17
5.300000E+03	4.538990E-16	8.821056E-17
5.310000E+03	4.534356E-16	8.811981E-17
5.320000E+03	4.525019E-16	8.793763E-17
5.330000E+03	4.511356E-16	8.767140E-17
5.340000E+03	4.493238E-16	8.731861E-17
5.350000E+03	4.471396E-16	8.689346E-17
5.360000E+03	4.445227E-16	8.638423E-17
5.370000E+03	4.415783E-16	8.581137E-17
5.380000E+03	4.382513E-16	8.516415E-17
5.390000E+03	4.346478E-16	8.446323E-17
5.400000E+03	4.307410E-16	8.370340E-17
5.410000E+03	4.265833E-16	8.289482E-17
5.420000E+03	4.221733E-16	8.203721E-17
5.430000E+03	4.175852E-16	8.114503E-17
5.440000E+03	4.127645E-16	8.020766E-17
5.450000E+03	4.078059E-16	7.924351E-17
5.460000E+03	4.026769E-16	7.824627E-17
5.470000E+03	3.973939E-16	7.721911E-17
5.480000E+03	3.920189E-16	7.617410E-17
5.490000E+03	3.864941E-16	7.510001E-17
5.500000E+03	3.809028E-16	7.401301E-17
5.510000E+03	3.752118E-16	7.290665E-17
5.520000E+03	3.694578E-16	7.178808E-17
5.530000E+03	3.636560E-16	7.066023E-17
5.540000E+03	3.578023E-16	6.952231E-17
5.550000E+03	3.519381E-16	6.838238E-17
5.560000E+03	3.460861E-16	6.724484E-17
5.570000E+03	3.402509E-16	6.611058E-17
5.580000E+03	3.344816E-16	6.498915E-17
5.590000E+03	3.287893E-16	6.388268E-17
5.600000E+03	3.232462E-16	6.280524E-17
5.610000E+03	3.178481E-16	6.175597E-17
5.620000E+03	3.126314E-16	6.074197E-17
5.630000E+03	3.076703E-16	5.977765E-17
5.640000E+03	3.029636E-16	5.886277E-17
5.650000E+03	2.985655E-16	5.800787E-17
5.660000E+03	2.944922E-16	5.721607E-17
5.670000E+03	2.907938E-16	5.649714E-17
5.680000E+03	2.874998E-16	5.585678E-17
5.690000E+03	2.846368E-16	5.530017E-17
5.700000E+03	2.822113E-16	5.482856E-17
5.710000E+03	2.802602E-16	5.444915E-17
5.720000E+03	2.787993E-16	5.416495E-17
5.730000E+03	2.778236E-16	5.397503E-17
5.740000E+03	2.773736E-16	5.388727E-17
5.750000E+03	2.774186E-16	5.389566E-17
5.760000E+03	2.779563E-16	5.399976E-17
5.770000E+03	2.790121E-16	5.420454E-17
5.780000E+03	2.805401E-16	5.450103E-17
5.790000E+03	2.825381E-16	5.488883E-17
5.800000E+03	2.849650E-16	5.535997E-17
5.810000E+03	2.878248E-16	5.591518E-17
5.820000E+03	2.910477E-16	5.654094E-17
5.830000E+03	2.946093E-16	5.723249E-17
5.840000E+03	2.984637E-16	5.798091E-17
5.850000E+03	3.025420E-16	5.877282E-17
5.860000E+03	3.068075E-16	5.960107E-17
5.870000E+03	3.112031E-16	6.045462E-17
5.880000E+03	3.156707E-16	6.132213E-17
5.890000E+03	3.201523E-16	6.219236E-17
5.900000E+03	3.245725E-16	6.305064E-17
5.910000E+03	3.288977E-16	6.389047E-17
5.920000E+03	3.330810E-16	6.470274E-17
5.930000E+03	3.370828E-16	6.547972E-17
5.940000E+03	3.408518E-16	6.621148E-17
5.950000E+03	3.444077E-16	6.690185E-17
5.960000E+03	3.476999E-16	6.754100E-17
5.970000E+03	3.507512E-16	6.813332E-17
5.980000E+03	3.535541E-16	6.867741E-17
5.990000E+03	3.561769E-16	6.918652E-17
6.000000E+03	3.586138E-16	6.965950E-17
6.010000E+03	3.609326E-16	7.010953E-17
6.020000E+03	3.631882E-16	7.054731E-17
6.030000E+03	3.654428E-16	7.098488E-17
6.040000E+03	3.677630E-16	7.143518E-17
6.050000E+03	3.701963E-16	7.190747E-17
6.060000E+03	3.728579E-16	7.242410E-17
6.070000E+03	3.757729E-16	7.298995E-17
6.080000E+03	3.790312E-16	7.362246E-17
6.090000E+03	3.826955E-16	7.433386E-17
6.100000E+03	3.868002E-16	7.513077E-17
6.110000E+03	3.914420E-16	7.603201E-17
6.120000E+03	3.966165E-16	7.703673E-17
6.130000E+03	4.023804E-16	7.815591E-17
6.140000E+03	4.087570E-16	7.939410E-17
6.150000E+03	4.157589E-16	8.075373E-17
6.160000E+03	4.233876E-16	8.223510E-17
6.170000E+03	4.316321E-16	8.383608E-17
6.180000E+03	4.404426E-16	8.554697E-17
6.190000E+03	4.498354E-16	8.737095E-17
6.200000E+03	4.597071E-16	8.928795E-17
6.210000E+03	4.700215E-16	9.129092E-17
6.220000E+03	4.807026E-16	9.336511E-17
6.230000E+03	4.916622E-16	9.549336E-17
6.240000E+03	5.028000E-16	9.765623E-17
6.250000E+03	5.140058E-16	9.983229E-17
6.260000E+03	5.251283E-16	1.019922E-16
6.270000E+03	5.361043E-16	1.041236E-16
6.280000E+03	5.467392E-16	1.061887E-16
6.290000E+03	5.569325E-16	1.081681E-16
6.300000E+03	5.665532E-16	1.100363E-16
6.310000E+03	5.755094E-16	1.117754E-16
6.320000E+03	5.836123E-16	1.133487E-16
6.330000E+03	5.907506E-16	1.147348E-16
6.340000E+03	5.968995E-16	1.159286E-16
6.350000E+03	6.019416E-16	1.169076E-16
6.360000E+03	6.058128E-16	1.176590E-16
6.370000E+03	6.084293E-16	1.181669E-16
6.380000E+03	6.098381E-16	1.184401E-16
6.390000E+03	6.099566E-16	1.184628E-16
6.400000E+03	6.088323E-16	1.182442E-16
6.410000E+03	6.065302E-16	1.177967E-16
6.420000E+03	6.030195E-16	1.171146E-16
6.430000E+03	5.983949E-16	1.162162E-16
6.440000E+03	5.927254E-16	1.151148E-16
6.450000E+03	5.860896E-16	1.138258E-16
6.460000E+03	5.785720E-16	1.123655E-16
6.470000E+03	5.702625E-16	1.107514E-16
6.480000E+03	5.612178E-16	1.089946E-16
6.490000E+03	5.515990E-16	1.071263E-16
6.500000E+03	5.414611E-16	1.051572E-16
6.510000E+03	5.308582E-16	1.030979E-16
6.520000E+03	5.199393E-16	1.009771E-16
6.530000E+03	5.087173E-16	9.879752E-17
6.540000E+03	4.973283E-16	9.658550E-17
6.550000E+03	4.857769E-16	9.434196E-17
6.560000E+03	4.741849E-16	9.209055E-17
6.570000E+03	4.625488E-16	8.983059E-17
6.580000E+03	4.509488E-16	8.757766E-17
6.590000E+03	4.394576E-16	8.534587E-17
6.600000E+03	4.280612E-16	8.313250E-17
6.610000E+03	4.168246E-16	8.095016E-17
6.620000E+03	4.057808E-16	7.880529E-17
6.630000E+03	3.949602E-16	7.670379E-17
6.640000E+03	3.843903E-16	7.465097E-17
6.650000E+03	3.740959E-16	7.265166E-17
6.660000E+03	3.640999E-16	7.071031E-17
6.670000E+03	3.544233E-16	6.883101E-17
6.680000E+03	3.450853E-16	6.701747E-17
6.690000E+03	3.361040E-16	6.527321E-17
6.700000E+03	3.274960E-16	6.360147E-17
6.710000E+03	3.192770E-16	6.200526E-17
6.720000E+03	3.114613E-16	6.048738E-17
6.730000E+03	3.040625E-16	5.905048E-17
6.740000E+03	2.970748E-16	5.769342E-17
6.750000E+03	2.905476E-16	5.642579E-17
6.760000E+03	2.844733E-16	5.524611E-17
6.770000E+03	2.788447E-16	5.415302E-17
6.780000E+03	2.737073E-16	5.315532E-17
6.790000E+03	2.690527E-16	5.225137E-17
6.800000E+03	2.648736E-16	5.143977E-17
6.810000E+03	2.612121E-16	5.072871E-17
6.820000E+03	2.580603E-16	5.011663E-17
6.830000E+03	2.554107E-16	4.960209E-17
6.840000E+03	2.533044E-16	4.919305E-17
6.850000E+03	2.517183E-16	4.888506E-17
6.860000E+03	2.506936E-16	4.868609E-17
6.870000E+03	2.502086E-16	4.859193E-17
6.880000E+03	2.503054E-16	4.861076E-17
6.890000E+03	2.509636E-16	4.873863E-17
6.900000E+03	2.522273E-16	4.898409E-17
6.910000E+03	2.540780E-16	4.934357E-17
6.920000E+03	2.565462E-16	4.982296E-17
6.930000E+03	2.596640E-16	5.042852E-17
6.940000E+03	2.634161E-16	5.115728E-17
6.950000E+03	2.678377E-16	5.201605E-17
6.960000E+03	2.729663E-16	5.301215E-17
6.970000E+03	2.787899E-16	5.414322E-17
6.980000E+03	2.853490E-16	5.541714E-17
6.990000E+03	2.926689E-16	5.683883E-17
7.000000E+03	3.007761E-16	5.841342E-17
7.010000E+03	3.096983E-16	6.014631E-17
7.020000E+03	3.194639E-16	6.204301E-17
7.030000E+03	3.301230E-16	6.411325E-17
7.040000E+03	3.416622E-16	6.635443E-17
7.050000E+03	3.541291E-16	6.877579E-17
7.060000E+03	3.675244E-16	7.137746E-17
7.070000E+03	3.819148E-16	7.417244E-17
7.080000E+03	3.972928E-16	7.715922E-17
7.090000E+03	4.136659E-16	8.033930E-17
7.100000E+03	4.310316E-16	8.371218E-17
7.110000E+03	4.493756E-16	8.727508E-17
7.120000E+03	4.686375E-16	9.101629E-17
7.130000E+03	4.888280E-16	9.493787E-17
7.140000E+03	5.098480E-16	9.902060E-17
7.150000E+03	5.315684E-16	1.032394E-16
7.160000E+03	5.539329E-16	1.075833E-16
7.170000E+03	5.767174E-16	1.120088E-16
7.180000E+03	5.997686E-16	1.164862E-16
7.190000E+03	6.229053E-16	1.209802E-16
7.200000E+03	6.457925E-16	1.254259E-16
7.210000E+03	6.681803E-16	1.297745E-16
7.220000E+03	6.897514E-16	1.339646E-16
7.230000E+03	7.102110E-16	1.379389E-16
7.240000E+03	7.291121E-16	1.416105E-16
7.250000E+03	7.461381E-16	1.449180E-16
7.260000E+03	7.609347E-16	1.477925E-16
7.270000E+03	7.731177E-16	1.501595E-16
7.280000E+03	7.824875E-16	1.519800E-16
7.290000E+03	7.887441E-16	1.531960E-16
7.300000E+03	7.916469E-16	1.537606E-16
7.310000E+03	7.911825E-16	1.536711E-16
7.320000E+03	7.872118E-16	1.529007E-16
7.330000E+03	7.798854E-16	1.514785E-16
7.340000E+03	7.692327E-16	1.494102E-16
7.350000E+03	7.555155E-16	1.467467E-16
7.360000E+03	7.390146E-16	1.435425E-16
7.370000E+03	7.200684E-16	1.398633E-16
7.380000E+03	6.990585E-16	1.357832E-16
7.390000E+03	6.763937E-16	1.313817E-16
7.400000E+03	6.524937E-16	1.267402E-16
7.410000E+03	6.277325E-16	1.219314E-16
7.420000E+03	6.025914E-16	1.170487E-16
7.430000E+03	5.773577E-16	1.121480E-16
7.440000E+03	5.524394E-16	1.073085E-16
7.450000E+03	5.280493E-16	1.025716E-16
7.460000E+03	5.044672E-16	9.799152E-17
7.470000E+03	4.818885E-16	9.360633E-17
7.480000E+03	4.604639E-16	8.944530E-17
7.490000E+03	4.403038E-16	8.552983E-17
7.500000E+03	4.214531E-16	8.186867E-17
7.510000E+03	4.040098E-16	7.848087E-17
7.520000E+03	3.879333E-16	7.535853E-17
7.530000E+03	3.732429E-16	7.250542E-17
7.540000E+03	3.599128E-16	6.991650E-17
7.550000E+03	3.479034E-16	6.758412E-17
7.560000E+03	3.371651E-16	6.549865E-17
7.570000E+03	3.276417E-16	6.364916E-17
7.580000E+03	3.192717E-16	6.202369E-17
7.590000E+03	3.119701E-16	6.060577E-17
7.600000E+03	3.057131E-16	5.939078E-17
7.610000E+03	3.003930E-16	5.835777E-17
7.620000E+03	2.959637E-16	5.749783E-17
7.630000E+03	2.923588E-16	5.679802E-17
7.640000E+03	2.895116E-16	5.624540E-17
7.650000E+03	2.873365E-16	5.582337E-17
7.660000E+03	2.858060E-16	5.552657E-17
7.670000E+03	2.848145E-16	5.533449E-17
7.680000E+03	2.843140E-16	5.523780E-17
7.690000E+03	2.842367E-16	5.522333E-17
7.700000E+03	2.845137E-16	5.527772E-17
7.710000E+03	2.850759E-16	5.538750E-17
7.720000E+03	2.858341E-16	5.553539E-17
7.730000E+03	2.867577E-16	5.571543E-17
7.740000E+03	2.877389E-16	5.590666E-17
7.750000E+03	2.887299E-16	5.609980E-17
7.760000E+03	2.896658E-16	5.628224E-17
