#wls	flux	fluxerr
1.593625E+03	3.945021E-03	3.203952E-04
1.633466E+03	3.630887E-03	2.939109E-04
1.673307E+03	3.327746E-03	2.684591E-04
1.713147E+03	3.036899E-03	2.441411E-04
1.752988E+03	2.759941E-03	2.210800E-04
1.792829E+03	2.498602E-03	1.994076E-04
1.832669E+03	2.253759E-03	1.791848E-04
1.872510E+03	2.027416E-03	1.605607E-04
1.912351E+03	1.821070E-03	1.436407E-04
1.952191E+03	1.636487E-03	1.285491E-04
1.992032E+03	1.475668E-03	1.154252E-04
2.031873E+03	1.341130E-03	1.044448E-04
2.071713E+03	1.235330E-03	9.577462E-05
2.111554E+03	1.159275E-03	8.946462E-05
2.151394E+03	1.111781E-03	8.539388E-05
2.191235E+03	1.091703E-03	8.344463E-05
2.231076E+03	1.099655E-03	8.363323E-05
2.270916E+03	1.137735E-03	8.608618E-05
2.310757E+03	1.209099E-03	9.100464E-05
2.350598E+03	1.317761E-03	9.864763E-05
2.390438E+03	1.468302E-03	1.093077E-04
2.430279E+03	1.665485E-03	1.232813E-04
2.470120E+03	1.914024E-03	1.408511E-04
2.509960E+03	2.217830E-03	1.622298E-04
2.549801E+03	2.580672E-03	1.876104E-04
2.589641E+03	3.006959E-03	2.172222E-04
2.629482E+03	3.501324E-03	2.512993E-04
2.669323E+03	4.058481E-03	2.893567E-04
2.709163E+03	4.660165E-03	3.299967E-04
2.749004E+03	5.282643E-03	3.714703E-04
2.788845E+03	5.901200E-03	4.120056E-04
2.828685E+03	6.493010E-03	4.500109E-04
2.868526E+03	7.039194E-03	4.842142E-04
2.908367E+03	7.524929E-03	5.136617E-04
2.948207E+03	7.940818E-03	5.378017E-04
2.988048E+03	8.280817E-03	5.563314E-04
2.998008E+03	8.353830E-03	5.600923E-04
3.007968E+03	8.421789E-03	5.634908E-04
3.017928E+03	8.484661E-03	5.665270E-04
3.027888E+03	8.542804E-03	5.692267E-04
3.037849E+03	8.595997E-03	5.715770E-04
3.047809E+03	8.644222E-03	5.735788E-04
3.057769E+03	8.687646E-03	5.752453E-04
3.067729E+03	8.726065E-03	5.765650E-04
3.077689E+03	8.759459E-03	5.775385E-04
3.087649E+03	8.788176E-03	5.781909E-04
3.097610E+03	8.811825E-03	5.784986E-04
3.107570E+03	8.830562E-03	5.784739E-04
3.117530E+03	8.844188E-03	5.781058E-04
3.127490E+03	8.853196E-03	5.774289E-04
3.137450E+03	8.857029E-03	5.764087E-04
3.147410E+03	8.855817E-03	5.750561E-04
3.157371E+03	8.849695E-03	5.733821E-04
3.167331E+03	8.838608E-03	5.713851E-04
3.177291E+03	8.822179E-03	5.690432E-04
3.187251E+03	8.800846E-03	5.663870E-04
3.197211E+03	8.774228E-03	5.633940E-04
3.207171E+03	8.742430E-03	5.600736E-04
3.217131E+03	8.705238E-03	5.564144E-04
3.227092E+03	8.662759E-03	5.524257E-04
3.237052E+03	8.614933E-03	5.481060E-04
3.247012E+03	8.561711E-03	5.434548E-04
3.256972E+03	8.502914E-03	5.384632E-04
3.266932E+03	8.438653E-03	5.331409E-04
3.276892E+03	8.368910E-03	5.274893E-04
3.286853E+03	8.293548E-03	5.215022E-04
3.296813E+03	8.212719E-03	5.151920E-04
3.306773E+03	8.126334E-03	5.085557E-04
3.316733E+03	8.034588E-03	5.016080E-04
3.326693E+03	7.937454E-03	4.943498E-04
3.336653E+03	7.835070E-03	4.867923E-04
3.346614E+03	7.727612E-03	4.789490E-04
3.356574E+03	7.615301E-03	4.708360E-04
3.366534E+03	7.498413E-03	4.624726E-04
3.376494E+03	7.377157E-03	4.538740E-04
3.386454E+03	7.252023E-03	4.450724E-04
3.396414E+03	7.123236E-03	4.360834E-04
3.406375E+03	6.991487E-03	4.269511E-04
3.416335E+03	6.857110E-03	4.176974E-04
3.426295E+03	6.720680E-03	4.083586E-04
3.436255E+03	6.582818E-03	3.989734E-04
3.446215E+03	6.444106E-03	3.895778E-04
3.456175E+03	6.305337E-03	3.802202E-04
3.466135E+03	6.167177E-03	3.709407E-04
3.476096E+03	6.030337E-03	3.617820E-04
3.486056E+03	5.895631E-03	3.527922E-04
3.496016E+03	5.763804E-03	3.440150E-04
3.505976E+03	5.635753E-03	3.355025E-04
3.515936E+03	5.512064E-03	3.272878E-04
3.525896E+03	5.393572E-03	3.194186E-04
3.535857E+03	5.280946E-03	3.119321E-04
3.545817E+03	5.174873E-03	3.048661E-04
3.555777E+03	5.075865E-03	2.982477E-04
3.565737E+03	4.984466E-03	2.921056E-04
3.575697E+03	4.901302E-03	2.864730E-04
3.585657E+03	4.826732E-03	2.813669E-04
3.595618E+03	4.761323E-03	2.768166E-04
3.605578E+03	4.705522E-03	2.728437E-04
3.615538E+03	4.659723E-03	2.694665E-04
3.625498E+03	4.624391E-03	2.667074E-04
3.635458E+03	4.600068E-03	2.645927E-04
3.645418E+03	4.587222E-03	2.631442E-04
3.655378E+03	4.586503E-03	2.623939E-04
3.665339E+03	4.598398E-03	2.623639E-04
3.675299E+03	4.623580E-03	2.630869E-04
3.685259E+03	4.662686E-03	2.645928E-04
3.695219E+03	4.716422E-03	2.669153E-04
3.705179E+03	4.785405E-03	2.700826E-04
3.715139E+03	4.870338E-03	2.741274E-04
3.725100E+03	4.971858E-03	2.790780E-04
3.735060E+03	5.090593E-03	2.849623E-04
3.745020E+03	5.227024E-03	2.917993E-04
3.754980E+03	5.381537E-03	2.996026E-04
3.764940E+03	5.554231E-03	3.083697E-04
3.774900E+03	5.744888E-03	3.180803E-04
3.784861E+03	5.953052E-03	3.287014E-04
3.794821E+03	6.177524E-03	3.401593E-04
3.804781E+03	6.416814E-03	3.523653E-04
3.814741E+03	6.668916E-03	3.652029E-04
3.824701E+03	6.931104E-03	3.785182E-04
3.834661E+03	7.200286E-03	3.921385E-04
3.844622E+03	7.473033E-03	4.058749E-04
3.854582E+03	7.745551E-03	4.195210E-04
3.864542E+03	8.013890E-03	4.328640E-04
3.874502E+03	8.274037E-03	4.456902E-04
3.884462E+03	8.522307E-03	4.578059E-04
3.894422E+03	8.755290E-03	4.690343E-04
3.904382E+03	8.970059E-03	4.792263E-04
3.914343E+03	9.164254E-03	4.882649E-04
3.924303E+03	9.336118E-03	4.960661E-04
3.934263E+03	9.484597E-03	5.025845E-04
3.944223E+03	9.609111E-03	5.078002E-04
3.954183E+03	9.709520E-03	5.117164E-04
3.964143E+03	9.786369E-03	5.143728E-04
3.974104E+03	9.840295E-03	5.158132E-04
3.984064E+03	9.872367E-03	5.161035E-04
3.994024E+03	9.883742E-03	5.153138E-04
4.003984E+03	9.875597E-03	5.135141E-04
4.013944E+03	9.849431E-03	5.107907E-04
4.023904E+03	9.806496E-03	5.072159E-04
4.033865E+03	9.748209E-03	5.028699E-04
4.043825E+03	9.675872E-03	4.978262E-04
4.053785E+03	9.590750E-03	4.921554E-04
4.063745E+03	9.494067E-03	4.859253E-04
4.073705E+03	9.387082E-03	4.792048E-04
4.083665E+03	9.270832E-03	4.720508E-04
4.093625E+03	9.146404E-03	4.645220E-04
4.103586E+03	9.015001E-03	4.566824E-04
4.113546E+03	8.877477E-03	4.485777E-04
4.123506E+03	8.734924E-03	4.402651E-04
4.133466E+03	8.588369E-03	4.317980E-04
4.143426E+03	8.438882E-03	4.232310E-04
4.153386E+03	8.287596E-03	4.146218E-04
4.163347E+03	8.135737E-03	4.060320E-04
4.173307E+03	7.984643E-03	3.975279E-04
4.183267E+03	7.835759E-03	3.891806E-04
4.193227E+03	7.690642E-03	3.810662E-04
4.203187E+03	7.550940E-03	3.732645E-04
4.213147E+03	7.418307E-03	3.658548E-04
4.223108E+03	7.294472E-03	3.589192E-04
4.233068E+03	7.181210E-03	3.525417E-04
4.243028E+03	7.080148E-03	3.467982E-04
4.252988E+03	6.992663E-03	3.417514E-04
4.262948E+03	6.920125E-03	3.374638E-04
4.272908E+03	6.863634E-03	3.339839E-04
4.282869E+03	6.824033E-03	3.313474E-04
4.292829E+03	6.801873E-03	3.295757E-04
4.302789E+03	6.797340E-03	3.286727E-04
4.312749E+03	6.810487E-03	3.286358E-04
4.322709E+03	6.840789E-03	3.294346E-04
4.332669E+03	6.887658E-03	3.310364E-04
4.342629E+03	6.950096E-03	3.333888E-04
4.352590E+03	7.026914E-03	3.364310E-04
4.362550E+03	7.116613E-03	3.400875E-04
4.372510E+03	7.217489E-03	3.442741E-04
4.382470E+03	7.327479E-03	3.488900E-04
4.392430E+03	7.444338E-03	3.538267E-04
4.402390E+03	7.565478E-03	3.589602E-04
4.412351E+03	7.688149E-03	3.641596E-04
4.422311E+03	7.809650E-03	3.692975E-04
4.432271E+03	7.927160E-03	3.742414E-04
4.442231E+03	8.038048E-03	3.788688E-04
4.452191E+03	8.139954E-03	3.830707E-04
4.462151E+03	8.230591E-03	3.867418E-04
4.472112E+03	8.308244E-03	3.898045E-04
4.482072E+03	8.371531E-03	3.921972E-04
4.492032E+03	8.419402E-03	3.938738E-04
4.501992E+03	8.451295E-03	3.948114E-04
4.511952E+03	8.467064E-03	3.950063E-04
4.521912E+03	8.466932E-03	3.944719E-04
4.531873E+03	8.451455E-03	3.932371E-04
4.541833E+03	8.421405E-03	3.913402E-04
4.551793E+03	8.377799E-03	3.888309E-04
4.561753E+03	8.322073E-03	3.857777E-04
4.571713E+03	8.255476E-03	3.822401E-04
4.581673E+03	8.179392E-03	3.782835E-04
4.591633E+03	8.095358E-03	3.739799E-04
4.601594E+03	8.004768E-03	3.693945E-04
4.611554E+03	7.908655E-03	3.645753E-04
4.621514E+03	7.808360E-03	3.595844E-04
4.631474E+03	7.704523E-03	3.544512E-04
4.641434E+03	7.598069E-03	3.492182E-04
4.651394E+03	7.489561E-03	3.439111E-04
4.661355E+03	7.379459E-03	3.385507E-04
4.671315E+03	7.268165E-03	3.331550E-04
4.681275E+03	7.156070E-03	3.277415E-04
4.691235E+03	7.043729E-03	3.223352E-04
4.701195E+03	6.931534E-03	3.169534E-04
4.711155E+03	6.820029E-03	3.116205E-04
4.721116E+03	6.709909E-03	3.063674E-04
4.731076E+03	6.601761E-03	3.012202E-04
4.741036E+03	6.496594E-03	2.962241E-04
4.750996E+03	6.395103E-03	2.914099E-04
4.760956E+03	6.298382E-03	2.868267E-04
4.770916E+03	6.207426E-03	2.825187E-04
4.780876E+03	6.123128E-03	2.785258E-04
4.790837E+03	6.046513E-03	2.748935E-04
4.800797E+03	5.978505E-03	2.716628E-04
4.810757E+03	5.919718E-03	2.688608E-04
4.820717E+03	5.870758E-03	2.665138E-04
4.830677E+03	5.831961E-03	2.646364E-04
4.840637E+03	5.803364E-03	2.632293E-04
4.850598E+03	5.784836E-03	2.622858E-04
4.860558E+03	5.776078E-03	2.617915E-04
4.870518E+03	5.776472E-03	2.617180E-04
4.880478E+03	5.785361E-03	2.620348E-04
4.890438E+03	5.801781E-03	2.626978E-04
4.900398E+03	5.824857E-03	2.636672E-04
4.910359E+03	5.853617E-03	2.648985E-04
4.920319E+03	5.887010E-03	2.663440E-04
4.930279E+03	5.924122E-03	2.679621E-04
4.940239E+03	5.963937E-03	2.697069E-04
4.950199E+03	6.005606E-03	2.715398E-04
4.960159E+03	6.048193E-03	2.734186E-04
4.970120E+03	6.090862E-03	2.753052E-04
4.980080E+03	6.132745E-03	2.771607E-04
4.990040E+03	6.173190E-03	2.789555E-04
5.000000E+03	6.211294E-03	2.806488E-04
5.009960E+03	6.246292E-03	2.822061E-04
5.019920E+03	6.277490E-03	2.835961E-04
5.029880E+03	6.304075E-03	2.847821E-04
5.039841E+03	6.325322E-03	2.857313E-04
5.049801E+03	6.340560E-03	2.864133E-04
5.059761E+03	6.349187E-03	2.868011E-04
5.069721E+03	6.350649E-03	2.868695E-04
5.079681E+03	6.344584E-03	2.866021E-04
5.089641E+03	6.330832E-03	2.859915E-04
5.099602E+03	6.309180E-03	2.850280E-04
5.109562E+03	6.279811E-03	2.837197E-04
5.119522E+03	6.242703E-03	2.820654E-04
5.129482E+03	6.198272E-03	2.800837E-04
5.139442E+03	6.146840E-03	2.777890E-04
5.149402E+03	6.088918E-03	2.752041E-04
5.159363E+03	6.025139E-03	2.723573E-04
5.169323E+03	5.956199E-03	2.692798E-04
5.179283E+03	5.883001E-03	2.660123E-04
5.189243E+03	5.806498E-03	2.625976E-04
5.199203E+03	5.727901E-03	2.590901E-04
5.209163E+03	5.648147E-03	2.555321E-04
5.219124E+03	5.568367E-03	2.519747E-04
5.229084E+03	5.489527E-03	2.484612E-04
5.239044E+03	5.412426E-03	2.450278E-04
5.249004E+03	5.337552E-03	2.416966E-04
5.258964E+03	5.265337E-03	2.384869E-04
5.268924E+03	5.195897E-03	2.354040E-04
5.278884E+03	5.129221E-03	2.324474E-04
5.288845E+03	5.065136E-03	2.296092E-04
5.298805E+03	5.003529E-03	2.268844E-04
5.308765E+03	4.944190E-03	2.242633E-04
5.318725E+03	4.887109E-03	2.217455E-04
5.328685E+03	4.832397E-03	2.193361E-04
5.338645E+03	4.780443E-03	2.170527E-04
5.348606E+03	4.731630E-03	2.149128E-04
5.358566E+03	4.686675E-03	2.129491E-04
5.368526E+03	4.646295E-03	2.111942E-04
5.378486E+03	4.611225E-03	2.096818E-04
5.388446E+03	4.582057E-03	2.084390E-04
5.398406E+03	4.559335E-03	2.074909E-04
5.408367E+03	4.543410E-03	2.068538E-04
5.418327E+03	4.534187E-03	2.065236E-04
5.428287E+03	4.531466E-03	2.064917E-04
5.438247E+03	4.534624E-03	2.067299E-04
5.448207E+03	4.542870E-03	2.072024E-04
5.458167E+03	4.555413E-03	2.078734E-04
5.468127E+03	4.571113E-03	2.086911E-04
5.478088E+03	4.588894E-03	2.096065E-04
5.488048E+03	4.607533E-03	2.105638E-04
5.498008E+03	4.625951E-03	2.115136E-04
5.507968E+03	4.642905E-03	2.123991E-04
5.517928E+03	4.657403E-03	2.131747E-04
5.527888E+03	4.668514E-03	2.137976E-04
5.537849E+03	4.675637E-03	2.142398E-04
5.547809E+03	4.678155E-03	2.144727E-04
5.557769E+03	4.675753E-03	2.144816E-04
5.567729E+03	4.668234E-03	2.142570E-04
5.577689E+03	4.655678E-03	2.138019E-04
5.587649E+03	4.638181E-03	2.131205E-04
5.597610E+03	4.616092E-03	2.122282E-04
5.607570E+03	4.589921E-03	2.111482E-04
5.617530E+03	4.560275E-03	2.099080E-04
5.627490E+03	4.527953E-03	2.085439E-04
5.637450E+03	4.493779E-03	2.070938E-04
5.647410E+03	4.458779E-03	2.056046E-04
5.657371E+03	4.424055E-03	2.041272E-04
5.667331E+03	4.390689E-03	2.027115E-04
5.677291E+03	4.359767E-03	2.014076E-04
5.687251E+03	4.332306E-03	2.002627E-04
5.697211E+03	4.309313E-03	1.993237E-04
5.707171E+03	4.291435E-03	1.986209E-04
5.717131E+03	4.279263E-03	1.981820E-04
5.727092E+03	4.273026E-03	1.980181E-04
5.737052E+03	4.272615E-03	1.981247E-04
5.747012E+03	4.277703E-03	1.984870E-04
5.756972E+03	4.287677E-03	1.990772E-04
5.766932E+03	4.301554E-03	1.998499E-04
5.776892E+03	4.318157E-03	2.007507E-04
5.786853E+03	4.336174E-03	2.017189E-04
5.796813E+03	4.353946E-03	2.026774E-04
5.806773E+03	4.369822E-03	2.035492E-04
5.816733E+03	4.382051E-03	2.042525E-04
5.826693E+03	4.388876E-03	2.047051E-04
5.836653E+03	4.388650E-03	2.048296E-04
5.846614E+03	4.379723E-03	2.045482E-04
5.856574E+03	4.360827E-03	2.038009E-04
5.866534E+03	4.330816E-03	2.025332E-04
5.876494E+03	4.288901E-03	2.007071E-04
5.886454E+03	4.234669E-03	1.983021E-04
5.896414E+03	4.168113E-03	1.953168E-04
5.906375E+03	4.089722E-03	1.917728E-04
5.916335E+03	4.000296E-03	1.877066E-04
5.926295E+03	3.901176E-03	1.831799E-04
5.936255E+03	3.794159E-03	1.782765E-04
5.946215E+03	3.681331E-03	1.730935E-04
5.956175E+03	3.564934E-03	1.677358E-04
5.966135E+03	3.447522E-03	1.623232E-04
5.976096E+03	3.331455E-03	1.569669E-04
5.986056E+03	3.219237E-03	1.517851E-04
5.996016E+03	3.112963E-03	1.468767E-04
6.005976E+03	3.014580E-03	1.423345E-04
6.015936E+03	2.925771E-03	1.382386E-04
6.025896E+03	2.847821E-03	1.346507E-04
6.035857E+03	2.781736E-03	1.316196E-04
6.045817E+03	2.728147E-03	1.291761E-04
6.055777E+03	2.687539E-03	1.273447E-04
6.065737E+03	2.659982E-03	1.261298E-04
6.075697E+03	2.645479E-03	1.255330E-04
6.085657E+03	2.643723E-03	1.255412E-04
6.095618E+03	2.654218E-03	1.261319E-04
6.105578E+03	2.676323E-03	1.272762E-04
6.115538E+03	2.709268E-03	1.289385E-04
6.125498E+03	2.752042E-03	1.310720E-04
6.135458E+03	2.803506E-03	1.336234E-04
6.145418E+03	2.862435E-03	1.365353E-04
6.155378E+03	2.927308E-03	1.397361E-04
6.165339E+03	2.996581E-03	1.431526E-04
6.175299E+03	3.068631E-03	1.467078E-04
6.185259E+03	3.141800E-03	1.503228E-04
6.195219E+03	3.214395E-03	1.539168E-04
6.205179E+03	3.284869E-03	1.574157E-04
6.215139E+03	3.351917E-03	1.607566E-04
6.225100E+03	3.414388E-03	1.638841E-04
6.235060E+03	3.471524E-03	1.667613E-04
6.245020E+03	3.522831E-03	1.693638E-04
6.254980E+03	3.568170E-03	1.716845E-04
6.264940E+03	3.607631E-03	1.737270E-04
6.274900E+03	3.641516E-03	1.755051E-04
6.284861E+03	3.670307E-03	1.770417E-04
6.294821E+03	3.694553E-03	1.783626E-04
6.304781E+03	3.714682E-03	1.794879E-04
6.314741E+03	3.731155E-03	1.804396E-04
6.324701E+03	3.744332E-03	1.812345E-04
6.334661E+03	3.754347E-03	1.818790E-04
6.344622E+03	3.761419E-03	1.823832E-04
6.354582E+03	3.765601E-03	1.827494E-04
6.364542E+03	3.766914E-03	1.829782E-04
6.374502E+03	3.765397E-03	1.830711E-04
6.384462E+03	3.761236E-03	1.830369E-04
6.394422E+03	3.754485E-03	1.828777E-04
6.404382E+03	3.745418E-03	1.826065E-04
6.414343E+03	3.734225E-03	1.822321E-04
6.424303E+03	3.721121E-03	1.817647E-04
6.434263E+03	3.706382E-03	1.812176E-04
6.444223E+03	3.690222E-03	1.806007E-04
6.454183E+03	3.672900E-03	1.799267E-04
6.464143E+03	3.654503E-03	1.791995E-04
6.474104E+03	3.635334E-03	1.784338E-04
6.484064E+03	3.615574E-03	1.776383E-04
6.494024E+03	3.595348E-03	1.768190E-04
6.503984E+03	3.574862E-03	1.759858E-04
6.513944E+03	3.554209E-03	1.751435E-04
6.523904E+03	3.533409E-03	1.742927E-04
6.533865E+03	3.512436E-03	1.734321E-04
6.543825E+03	3.491282E-03	1.725614E-04
6.553785E+03	3.469797E-03	1.716729E-04
6.563745E+03	3.447858E-03	1.707605E-04
6.573705E+03	3.425377E-03	1.698197E-04
6.583665E+03	3.402196E-03	1.688425E-04
6.593625E+03	3.378110E-03	1.678187E-04
6.603586E+03	3.353047E-03	1.667443E-04
6.613546E+03	3.326844E-03	1.656112E-04
6.623506E+03	3.299542E-03	1.644212E-04
6.633466E+03	3.271008E-03	1.631674E-04
6.643426E+03	3.241267E-03	1.618508E-04
6.653386E+03	3.210445E-03	1.604775E-04
6.663347E+03	3.178670E-03	1.590538E-04
6.673307E+03	3.146061E-03	1.575853E-04
6.683267E+03	3.112822E-03	1.560822E-04
6.693227E+03	3.079251E-03	1.545593E-04
6.703187E+03	3.045546E-03	1.530264E-04
6.713147E+03	3.012015E-03	1.514990E-04
6.723108E+03	2.978798E-03	1.499841E-04
6.733068E+03	2.946228E-03	1.484986E-04
6.743028E+03	2.914406E-03	1.470477E-04
6.752988E+03	2.883609E-03	1.456453E-04
6.762948E+03	2.853874E-03	1.442936E-04
6.772908E+03	2.825377E-03	1.430015E-04
6.782869E+03	2.798222E-03	1.417746E-04
6.792829E+03	2.772447E-03	1.406150E-04
6.802789E+03	2.748197E-03	1.395301E-04
6.812749E+03	2.725507E-03	1.385221E-04
6.822709E+03	2.704516E-03	1.375983E-04
6.832669E+03	2.685206E-03	1.367579E-04
6.842629E+03	2.667745E-03	1.360098E-04
6.852590E+03	2.652142E-03	1.353548E-04
6.862550E+03	2.638435E-03	1.347951E-04
6.872510E+03	2.626590E-03	1.343292E-04
6.882470E+03	2.616684E-03	1.339613E-04
6.892430E+03	2.608505E-03	1.336811E-04
6.902390E+03	2.602109E-03	1.334915E-04
6.912351E+03	2.597270E-03	1.333812E-04
6.922311E+03	2.593827E-03	1.333422E-04
6.932271E+03	2.591658E-03	1.333685E-04
6.942231E+03	2.590517E-03	1.334475E-04
6.952191E+03	2.590201E-03	1.335691E-04
6.962151E+03	2.590491E-03	1.337220E-04
6.972112E+03	2.591165E-03	1.338948E-04
6.982072E+03	2.591994E-03	1.340758E-04
6.992032E+03	2.592693E-03	1.342502E-04
7.001992E+03	2.593125E-03	1.344110E-04
7.011952E+03	2.592910E-03	1.345383E-04
7.021912E+03	2.591972E-03	1.346282E-04
7.031873E+03	2.589942E-03	1.346613E-04
7.041833E+03	2.586729E-03	1.346328E-04
7.051793E+03	2.582099E-03	1.345302E-04
7.061753E+03	2.575909E-03	1.343459E-04
7.071713E+03	2.568092E-03	1.340761E-04
7.081673E+03	2.558473E-03	1.337115E-04
7.091633E+03	2.547068E-03	1.332527E-04
7.101594E+03	2.533846E-03	1.326976E-04
7.111554E+03	2.518913E-03	1.320516E-04
7.121514E+03	2.502366E-03	1.313195E-04
7.131474E+03	2.484285E-03	1.305053E-04
7.141434E+03	2.464865E-03	1.296190E-04
7.151394E+03	2.444167E-03	1.286635E-04
7.161355E+03	2.422455E-03	1.276527E-04
7.171315E+03	2.399829E-03	1.265916E-04
7.181275E+03	2.376383E-03	1.254850E-04
7.191235E+03	2.352292E-03	1.243421E-04
7.201195E+03	2.327656E-03	1.231680E-04
7.211155E+03	2.302512E-03	1.219647E-04
7.221116E+03	2.276925E-03	1.207354E-04
7.231076E+03	2.250941E-03	1.194827E-04
7.241036E+03	2.224597E-03	1.182084E-04
7.250996E+03	2.197918E-03	1.169138E-04
7.260956E+03	2.170836E-03	1.155951E-04
7.270916E+03	2.143462E-03	1.142583E-04
7.280876E+03	2.115777E-03	1.129023E-04
7.290837E+03	2.087773E-03	1.115266E-04
7.300797E+03	2.059545E-03	1.101362E-04
7.310757E+03	2.031082E-03	1.087306E-04
7.320717E+03	2.002484E-03	1.073150E-04
7.330677E+03	1.973879E-03	1.058963E-04
7.340637E+03	1.945382E-03	1.044807E-04
7.350598E+03	1.917218E-03	1.030802E-04
7.360558E+03	1.889469E-03	1.016993E-04
7.370518E+03	1.862441E-03	1.003547E-04
7.380478E+03	1.836288E-03	9.905470E-05
7.390438E+03	1.811289E-03	9.781454E-05
7.400398E+03	1.787637E-03	9.664491E-05
7.410359E+03	1.765555E-03	9.555805E-05
7.420319E+03	1.745282E-03	9.456719E-05
7.430279E+03	1.726955E-03	9.368018E-05
7.440239E+03	1.710833E-03	9.291135E-05
7.450199E+03	1.696954E-03	9.226325E-05
7.460159E+03	1.685472E-03	9.174463E-05
7.470120E+03	1.676393E-03	9.135636E-05
7.480080E+03	1.669838E-03	9.110543E-05
7.490040E+03	1.665749E-03	9.098914E-05
7.500000E+03	1.664076E-03	9.100537E-05
7.509960E+03	1.664790E-03	9.115288E-05
7.519920E+03	1.667806E-03	9.142764E-05
7.529880E+03	1.673107E-03	9.182910E-05
7.539841E+03	1.680518E-03	9.234812E-05
7.549801E+03	1.689967E-03	9.298122E-05
7.559761E+03	1.701375E-03	9.372449E-05
7.569721E+03	1.714580E-03	9.456936E-05
7.579681E+03	1.729484E-03	9.551080E-05
7.589641E+03	1.745896E-03	9.653869E-05
7.599602E+03	1.763725E-03	9.764833E-05
7.609562E+03	1.782691E-03	9.882455E-05
7.619522E+03	1.802632E-03	1.000586E-04
7.629482E+03	1.823178E-03	1.013302E-04
7.639442E+03	1.844086E-03	1.026259E-04
7.649402E+03	1.864914E-03	1.039213E-04
7.659363E+03	1.885366E-03	1.051999E-04
7.669323E+03	1.905012E-03	1.064376E-04
7.679283E+03	1.923465E-03	1.076127E-04
7.689243E+03	1.940354E-03	1.087041E-04
7.699203E+03	1.955336E-03	1.096922E-04
7.709163E+03	1.968102E-03	1.105593E-04
7.719124E+03	1.978343E-03	1.112876E-04
7.729084E+03	1.985933E-03	1.118694E-04
