#wls	flux	fluxerr
1.541421E+03	1.247983E-03	3.904519E-05
1.579957E+03	1.252569E-03	3.916628E-05
1.618492E+03	1.257641E-03	3.930179E-05
1.657028E+03	1.263411E-03	3.945828E-05
1.695564E+03	1.269883E-03	3.963583E-05
1.734099E+03	1.277271E-03	3.984102E-05
1.772635E+03	1.285578E-03	4.007391E-05
1.811170E+03	1.294811E-03	4.033458E-05
1.849706E+03	1.305601E-03	4.064263E-05
1.888241E+03	1.317956E-03	4.099814E-05
1.926777E+03	1.331882E-03	4.140120E-05
1.965312E+03	1.347808E-03	4.186494E-05
2.003848E+03	1.365953E-03	4.239597E-05
2.042383E+03	1.386956E-03	4.301396E-05
2.080919E+03	1.410623E-03	4.371258E-05
2.119454E+03	1.437808E-03	4.451804E-05
2.157990E+03	1.468320E-03	4.542407E-05
2.196525E+03	1.502180E-03	4.643097E-05
2.235061E+03	1.539620E-03	4.754555E-05
2.273597E+03	1.580242E-03	4.875516E-05
2.312132E+03	1.624282E-03	5.006668E-05
2.350668E+03	1.671766E-03	5.148054E-05
2.389203E+03	1.722513E-03	5.299065E-05
2.427739E+03	1.776550E-03	5.459751E-05
2.466274E+03	1.833910E-03	5.630159E-05
2.504810E+03	1.894836E-03	5.810995E-05
2.543345E+03	1.958937E-03	6.001006E-05
2.581881E+03	2.026674E-03	6.201553E-05
2.620416E+03	2.098084E-03	6.412694E-05
2.658952E+03	2.173420E-03	6.635142E-05
2.697487E+03	2.253152E-03	6.870270E-05
2.736023E+03	2.337326E-03	7.118140E-05
2.774558E+03	2.425769E-03	7.378159E-05
2.813094E+03	2.517657E-03	7.647747E-05
2.851630E+03	2.613463E-03	7.928269E-05
2.890165E+03	2.712789E-03	8.218451E-05
2.899799E+03	2.738005E-03	8.291994E-05
2.909433E+03	2.763703E-03	8.366928E-05
2.919067E+03	2.789665E-03	8.442593E-05
2.928701E+03	2.815893E-03	8.518991E-05
2.938334E+03	2.842386E-03	8.596121E-05
2.947968E+03	2.869146E-03	8.673984E-05
2.957602E+03	2.896173E-03	8.752581E-05
2.967236E+03	2.923468E-03	8.831914E-05
2.976870E+03	2.951249E-03	8.912639E-05
2.986504E+03	2.979301E-03	8.994102E-05
2.996138E+03	3.007622E-03	9.076303E-05
3.005772E+03	3.036436E-03	9.159907E-05
3.015406E+03	3.065519E-03	9.244244E-05
3.025039E+03	3.095097E-03	9.329989E-05
3.034673E+03	3.125166E-03	9.417130E-05
3.044307E+03	3.155513E-03	9.505024E-05
3.053941E+03	3.186352E-03	9.594310E-05
3.063575E+03	3.217911E-03	9.685679E-05
3.073209E+03	3.249746E-03	9.777784E-05
3.082843E+03	3.282302E-03	9.871966E-05
3.092477E+03	3.315135E-03	9.966889E-05
3.102110E+03	3.348917E-03	1.006457E-04
3.111744E+03	3.383200E-03	1.016365E-04
3.121378E+03	3.417988E-03	1.026415E-04
3.131012E+03	3.453727E-03	1.036740E-04
3.140646E+03	3.489972E-03	1.047207E-04
3.150280E+03	3.527171E-03	1.057949E-04
3.159914E+03	3.565106E-03	1.068901E-04
3.169548E+03	3.604000E-03	1.080129E-04
3.179182E+03	3.643630E-03	1.091566E-04
3.188815E+03	3.684224E-03	1.103280E-04
3.198449E+03	3.726009E-03	1.115339E-04
3.208083E+03	3.768759E-03	1.127673E-04
3.217717E+03	3.812705E-03	1.140353E-04
3.227351E+03	3.857850E-03	1.153378E-04
3.236985E+03	3.904196E-03	1.166748E-04
3.246619E+03	3.951969E-03	1.180531E-04
3.256253E+03	4.001176E-03	1.194728E-04
3.265887E+03	4.051819E-03	1.209338E-04
3.275520E+03	4.104128E-03	1.224430E-04
3.285154E+03	4.158107E-03	1.240004E-04
3.294788E+03	4.214208E-03	1.256195E-04
3.304422E+03	4.271990E-03	1.272870E-04
3.314056E+03	4.331905E-03	1.290162E-04
3.323690E+03	4.394187E-03	1.308141E-04
3.333324E+03	4.458842E-03	1.326807E-04
3.342958E+03	4.526105E-03	1.346229E-04
3.352591E+03	4.596202E-03	1.366473E-04
3.362225E+03	4.668920E-03	1.387475E-04
3.371859E+03	4.745169E-03	1.409503E-04
3.381493E+03	4.824506E-03	1.432425E-04
3.391127E+03	4.907393E-03	1.456376E-04
3.400761E+03	4.993837E-03	1.481358E-04
3.410395E+03	5.084302E-03	1.507505E-04
3.420029E+03	5.178568E-03	1.534751E-04
3.429663E+03	5.276642E-03	1.563096E-04
3.439296E+03	5.378307E-03	1.592475E-04
3.448930E+03	5.483792E-03	1.622952E-04
3.458564E+03	5.592646E-03	1.654394E-04
3.468198E+03	5.705105E-03	1.686868E-04
3.477832E+03	5.820941E-03	1.720305E-04
3.487466E+03	5.940151E-03	1.754703E-04
3.497100E+03	6.062281E-03	1.789926E-04
3.506734E+03	6.187781E-03	1.826106E-04
3.516367E+03	6.315961E-03	1.863036E-04
3.526001E+03	6.447041E-03	1.900781E-04
3.535635E+03	6.580776E-03	1.939267E-04
3.545269E+03	6.717159E-03	1.978491E-04
3.554903E+03	6.855708E-03	2.018309E-04
3.564537E+03	6.996869E-03	2.058851E-04
3.574171E+03	7.140150E-03	2.099971E-04
3.583805E+03	7.285530E-03	2.141662E-04
3.593439E+03	7.432746E-03	2.183845E-04
3.603072E+03	7.581767E-03	2.226511E-04
3.612706E+03	7.732321E-03	2.269578E-04
3.622340E+03	7.884599E-03	2.313101E-04
3.631974E+03	8.038093E-03	2.356931E-04
3.641608E+03	8.192756E-03	2.401052E-04
3.651242E+03	8.348534E-03	2.445448E-04
3.660876E+03	8.505371E-03	2.490103E-04
3.670510E+03	8.662749E-03	2.534863E-04
3.680144E+03	8.821063E-03	2.579844E-04
3.689777E+03	8.979559E-03	2.624824E-04
3.699411E+03	9.138399E-03	2.669851E-04
3.709045E+03	9.297277E-03	2.714835E-04
3.718679E+03	9.456127E-03	2.759756E-04
3.728313E+03	9.614873E-03	2.804591E-04
3.737947E+03	9.773210E-03	2.849252E-04
3.747581E+03	9.930834E-03	2.893650E-04
3.757215E+03	1.008790E-02	2.937830E-04
3.766848E+03	1.024410E-02	2.981704E-04
3.776482E+03	1.039914E-02	3.025183E-04
3.786116E+03	1.055294E-02	3.068249E-04
3.795750E+03	1.070545E-02	3.110881E-04
3.805384E+03	1.085636E-02	3.152995E-04
3.815018E+03	1.100539E-02	3.194509E-04
3.824652E+03	1.115272E-02	3.235475E-04
3.834286E+03	1.129807E-02	3.275813E-04
3.843920E+03	1.144140E-02	3.315514E-04
3.853553E+03	1.158246E-02	3.354503E-04
3.863187E+03	1.172100E-02	3.392710E-04
3.872821E+03	1.185702E-02	3.430134E-04
3.882455E+03	1.199074E-02	3.466843E-04
3.892089E+03	1.212172E-02	3.502710E-04
3.901723E+03	1.224977E-02	3.537679E-04
3.911357E+03	1.237538E-02	3.571897E-04
3.920991E+03	1.249816E-02	3.605249E-04
3.930624E+03	1.261797E-02	3.637694E-04
3.940258E+03	1.273511E-02	3.669324E-04
3.949892E+03	1.284946E-02	3.700107E-04
3.959526E+03	1.296115E-02	3.730077E-04
3.969160E+03	1.307033E-02	3.759278E-04
3.978794E+03	1.317668E-02	3.787624E-04
3.988428E+03	1.328061E-02	3.815231E-04
3.998062E+03	1.338229E-02	3.842150E-04
4.007696E+03	1.348170E-02	3.868375E-04
4.017329E+03	1.357881E-02	3.893900E-04
4.026963E+03	1.367430E-02	3.918917E-04
4.036597E+03	1.376792E-02	3.943361E-04
4.046231E+03	1.386013E-02	3.967363E-04
4.055865E+03	1.395095E-02	3.990926E-04
4.065499E+03	1.404082E-02	4.014181E-04
4.075133E+03	1.412955E-02	4.037068E-04
4.084767E+03	1.421801E-02	4.059843E-04
4.094400E+03	1.430600E-02	4.082445E-04
4.104034E+03	1.439397E-02	4.105003E-04
4.113668E+03	1.448192E-02	4.127515E-04
4.123302E+03	1.457070E-02	4.150227E-04
4.132936E+03	1.466008E-02	4.173072E-04
4.142570E+03	1.475069E-02	4.196227E-04
4.152204E+03	1.484270E-02	4.219742E-04
4.161838E+03	1.493672E-02	4.243786E-04
4.171472E+03	1.503245E-02	4.268277E-04
4.181105E+03	1.513090E-02	4.293499E-04
4.190739E+03	1.523220E-02	4.319486E-04
4.200373E+03	1.533645E-02	4.346264E-04
4.210007E+03	1.544438E-02	4.374042E-04
4.219641E+03	1.555630E-02	4.402900E-04
4.229275E+03	1.567224E-02	4.432851E-04
4.238909E+03	1.579290E-02	4.464088E-04
4.248543E+03	1.591831E-02	4.496613E-04
4.258177E+03	1.604868E-02	4.530487E-04
4.267810E+03	1.618465E-02	4.565887E-04
4.277444E+03	1.632597E-02	4.602737E-04
4.287078E+03	1.647280E-02	4.641082E-04
4.296712E+03	1.662484E-02	4.680834E-04
4.306346E+03	1.678177E-02	4.721898E-04
4.315980E+03	1.694324E-02	4.764173E-04
4.325614E+03	1.710886E-02	4.807549E-04
4.335248E+03	1.727823E-02	4.851911E-04
4.344881E+03	1.745091E-02	4.897131E-04
4.354515E+03	1.762643E-02	4.943077E-04
4.364149E+03	1.780406E-02	4.989543E-04
4.373783E+03	1.798326E-02	5.036377E-04
4.383417E+03	1.816371E-02	5.083484E-04
4.393051E+03	1.834456E-02	5.130631E-04
4.402685E+03	1.852541E-02	5.177705E-04
4.412319E+03	1.870560E-02	5.224523E-04
4.421953E+03	1.888422E-02	5.270824E-04
4.431586E+03	1.906099E-02	5.316540E-04
4.441220E+03	1.923472E-02	5.361333E-04
4.450854E+03	1.940532E-02	5.405185E-04
4.460488E+03	1.957154E-02	5.447748E-04
4.470122E+03	1.973282E-02	5.488865E-04
4.479756E+03	1.988879E-02	5.528442E-04
4.489390E+03	2.003838E-02	5.566185E-04
4.499024E+03	2.018125E-02	5.601998E-04
4.508657E+03	2.031680E-02	5.635721E-04
4.518291E+03	2.044420E-02	5.667129E-04
4.527925E+03	2.056311E-02	5.696134E-04
4.537559E+03	2.067323E-02	5.722654E-04
4.547193E+03	2.077403E-02	5.746550E-04
4.556827E+03	2.086503E-02	5.767695E-04
4.566461E+03	2.094650E-02	5.786172E-04
4.576095E+03	2.101809E-02	5.801883E-04
4.585729E+03	2.107994E-02	5.814881E-04
4.595362E+03	2.113210E-02	5.825179E-04
4.604996E+03	2.117467E-02	5.832811E-04
4.614630E+03	2.120810E-02	5.837911E-04
4.624264E+03	2.123227E-02	5.840446E-04
4.633898E+03	2.124693E-02	5.840360E-04
4.643532E+03	2.125273E-02	5.837830E-04
4.653166E+03	2.125065E-02	5.833134E-04
4.662800E+03	2.124133E-02	5.826452E-04
4.672434E+03	2.122597E-02	5.818116E-04
4.682067E+03	2.120582E-02	5.808474E-04
4.691701E+03	2.118194E-02	5.797820E-04
4.701335E+03	2.115563E-02	5.786511E-04
4.710969E+03	2.112820E-02	5.774903E-04
4.720603E+03	2.110089E-02	5.763340E-04
4.730237E+03	2.107468E-02	5.752091E-04
4.739871E+03	2.105120E-02	5.741595E-04
4.749505E+03	2.103108E-02	5.732025E-04
4.759138E+03	2.101579E-02	5.723776E-04
4.768772E+03	2.100581E-02	5.716981E-04
4.778406E+03	2.100247E-02	5.711994E-04
4.788040E+03	2.100631E-02	5.708962E-04
4.797674E+03	2.101807E-02	5.708077E-04
4.807308E+03	2.103859E-02	5.709569E-04
4.816942E+03	2.106847E-02	5.713588E-04
4.826576E+03	2.110820E-02	5.720267E-04
4.836210E+03	2.115802E-02	5.729663E-04
4.845843E+03	2.121878E-02	5.741999E-04
4.855477E+03	2.129038E-02	5.757242E-04
4.865111E+03	2.137355E-02	5.775586E-04
4.874745E+03	2.146856E-02	5.797096E-04
4.884379E+03	2.157540E-02	5.821761E-04
4.894013E+03	2.169448E-02	5.849683E-04
4.903647E+03	2.182594E-02	5.880895E-04
4.913281E+03	2.196988E-02	5.915417E-04
4.922914E+03	2.212637E-02	5.953263E-04
4.932548E+03	2.229525E-02	5.994376E-04
4.942182E+03	2.247720E-02	6.038937E-04
4.951816E+03	2.267152E-02	6.086748E-04
4.961450E+03	2.287862E-02	6.137913E-04
4.971084E+03	2.309818E-02	6.192341E-04
4.980718E+03	2.333034E-02	6.250058E-04
4.990352E+03	2.357471E-02	6.310956E-04
4.999986E+03	2.383136E-02	6.375044E-04
5.009619E+03	2.409984E-02	6.442194E-04
5.019253E+03	2.438014E-02	6.512399E-04
5.028887E+03	2.467198E-02	6.585578E-04
5.038521E+03	2.497479E-02	6.661571E-04
5.048155E+03	2.528846E-02	6.740342E-04
5.057789E+03	2.561258E-02	6.821778E-04
5.067423E+03	2.594645E-02	6.905682E-04
5.077057E+03	2.628981E-02	6.991984E-04
5.086691E+03	2.664211E-02	7.080532E-04
5.096324E+03	2.700275E-02	7.171158E-04
5.105958E+03	2.737077E-02	7.263608E-04
5.115592E+03	2.774543E-02	7.357678E-04
5.125226E+03	2.812621E-02	7.453227E-04
5.134860E+03	2.851192E-02	7.549939E-04
5.144494E+03	2.890194E-02	7.647645E-04
5.154128E+03	2.929490E-02	7.745982E-04
5.163762E+03	2.969002E-02	7.844739E-04
5.173395E+03	3.008575E-02	7.943510E-04
5.183029E+03	3.048057E-02	8.041894E-04
5.192663E+03	3.087372E-02	8.139688E-04
5.202297E+03	3.126344E-02	8.236433E-04
5.211931E+03	3.164790E-02	8.331648E-04
5.221565E+03	3.202619E-02	8.425099E-04
5.231199E+03	3.239604E-02	8.516189E-04
5.240833E+03	3.275605E-02	8.604561E-04
5.250467E+03	3.310424E-02	8.689696E-04
5.260100E+03	3.343919E-02	8.771234E-04
5.269734E+03	3.375883E-02	8.848638E-04
5.279368E+03	3.406175E-02	8.921549E-04
5.289002E+03	3.434594E-02	8.989449E-04
5.298636E+03	3.460977E-02	9.051924E-04
5.308270E+03	3.485197E-02	9.108653E-04
5.317904E+03	3.507107E-02	9.159267E-04
5.327538E+03	3.526497E-02	9.203234E-04
5.337171E+03	3.543346E-02	9.240507E-04
5.346805E+03	3.557504E-02	9.270716E-04
5.356439E+03	3.568845E-02	9.293546E-04
5.366073E+03	3.577353E-02	9.308973E-04
5.375707E+03	3.582898E-02	9.316676E-04
5.385341E+03	3.585544E-02	9.316838E-04
5.394975E+03	3.585198E-02	9.309234E-04
5.404609E+03	3.581894E-02	9.293966E-04
5.414243E+03	3.575649E-02	9.271102E-04
5.423876E+03	3.566500E-02	9.240751E-04
5.433510E+03	3.554512E-02	9.203096E-04
5.443144E+03	3.539756E-02	9.158341E-04
5.452778E+03	3.522369E-02	9.106855E-04
5.462412E+03	3.502428E-02	9.048847E-04
5.472046E+03	3.480132E-02	8.984852E-04
5.481680E+03	3.455518E-02	8.914974E-04
5.491314E+03	3.428849E-02	8.839905E-04
5.500947E+03	3.400252E-02	8.759986E-04
5.510581E+03	3.369869E-02	8.675591E-04
5.520215E+03	3.337944E-02	8.587357E-04
5.529849E+03	3.304595E-02	8.495596E-04
5.539483E+03	3.270073E-02	8.400962E-04
5.549117E+03	3.234527E-02	8.303844E-04
5.558751E+03	3.198141E-02	8.204717E-04
5.568385E+03	3.161092E-02	8.104041E-04
5.578019E+03	3.123557E-02	8.002272E-04
5.587652E+03	3.085729E-02	7.899910E-04
5.597286E+03	3.047739E-02	7.797284E-04
5.606920E+03	3.009731E-02	7.694770E-04
5.616554E+03	2.971851E-02	7.592739E-04
5.626188E+03	2.934228E-02	7.491518E-04
5.635822E+03	2.896977E-02	7.391399E-04
5.645456E+03	2.860210E-02	7.292665E-04
5.655090E+03	2.824026E-02	7.195567E-04
5.664724E+03	2.788508E-02	7.100313E-04
5.674357E+03	2.753707E-02	7.007026E-04
5.683991E+03	2.719716E-02	6.915944E-04
5.693625E+03	2.686594E-02	6.827208E-04
5.703259E+03	2.654333E-02	6.740794E-04
5.712893E+03	2.623028E-02	6.656939E-04
5.722527E+03	2.592683E-02	6.575649E-04
5.732161E+03	2.563298E-02	6.496917E-04
5.741795E+03	2.534918E-02	6.420853E-04
5.751428E+03	2.507530E-02	6.347420E-04
5.761062E+03	2.481169E-02	6.276699E-04
5.770696E+03	2.455788E-02	6.208566E-04
5.780330E+03	2.431413E-02	6.143085E-04
5.789964E+03	2.408042E-02	6.080244E-04
5.799598E+03	2.385672E-02	6.020028E-04
5.809232E+03	2.364246E-02	5.962292E-04
5.818866E+03	2.343806E-02	5.907138E-04
5.828500E+03	2.324296E-02	5.854418E-04
5.838133E+03	2.305756E-02	5.804227E-04
5.847767E+03	2.288130E-02	5.756419E-04
5.857401E+03	2.271454E-02	5.711087E-04
5.867035E+03	2.255675E-02	5.668087E-04
5.876669E+03	2.240808E-02	5.627453E-04
5.886303E+03	2.226868E-02	5.589223E-04
5.895937E+03	2.213849E-02	5.553375E-04
5.905571E+03	2.201745E-02	5.519888E-04
5.915204E+03	2.190550E-02	5.488747E-04
5.924838E+03	2.180282E-02	5.459992E-04
5.934472E+03	2.170961E-02	5.433668E-04
5.944106E+03	2.162605E-02	5.409819E-04
5.953740E+03	2.155212E-02	5.388434E-04
5.963374E+03	2.148802E-02	5.369561E-04
5.973008E+03	2.143351E-02	5.353132E-04
5.982642E+03	2.138879E-02	5.339201E-04
5.992276E+03	2.135341E-02	5.327646E-04
6.001909E+03	2.132734E-02	5.318459E-04
6.011543E+03	2.131035E-02	5.311580E-04
6.021177E+03	2.130243E-02	5.307003E-04
6.030811E+03	2.130334E-02	5.304665E-04
6.040445E+03	2.131329E-02	5.304617E-04
6.050079E+03	2.133203E-02	5.306794E-04
6.059713E+03	2.135932E-02	5.311132E-04
6.069347E+03	2.139536E-02	5.317680E-04
6.078981E+03	2.143988E-02	5.326371E-04
6.088614E+03	2.149310E-02	5.337252E-04
6.098248E+03	2.155473E-02	5.350254E-04
6.107882E+03	2.162449E-02	5.365306E-04
6.117516E+03	2.170280E-02	5.382508E-04
6.127150E+03	2.178911E-02	5.401724E-04
6.136784E+03	2.188332E-02	5.422927E-04
6.146418E+03	2.198530E-02	5.446085E-04
6.156052E+03	2.209488E-02	5.471153E-04
6.165685E+03	2.221184E-02	5.498074E-04
6.175319E+03	2.233560E-02	5.526706E-04
6.184953E+03	2.246577E-02	5.556948E-04
6.194587E+03	2.260183E-02	5.588668E-04
6.204221E+03	2.274312E-02	5.621707E-04
6.213855E+03	2.288892E-02	5.655879E-04
6.223489E+03	2.303841E-02	5.690986E-04
6.233123E+03	2.319066E-02	5.726796E-04
6.242757E+03	2.334515E-02	5.763178E-04
6.252390E+03	2.350070E-02	5.799845E-04
6.262024E+03	2.365633E-02	5.836549E-04
6.271658E+03	2.381097E-02	5.873030E-04
6.281292E+03	2.396350E-02	5.909013E-04
6.290926E+03	2.411223E-02	5.944077E-04
6.300560E+03	2.425626E-02	5.978008E-04
6.310194E+03	2.439418E-02	6.010452E-04
6.319828E+03	2.452455E-02	6.041060E-04
6.329461E+03	2.464600E-02	6.069494E-04
6.339095E+03	2.475779E-02	6.095575E-04
6.348729E+03	2.485807E-02	6.118848E-04
6.358363E+03	2.494659E-02	6.139252E-04
6.367997E+03	2.502196E-02	6.156450E-04
6.377631E+03	2.508325E-02	6.170209E-04
6.387265E+03	2.512960E-02	6.180324E-04
6.396899E+03	2.516061E-02	6.186699E-04
6.406533E+03	2.517603E-02	6.189271E-04
6.416166E+03	2.517513E-02	6.187862E-04
6.425800E+03	2.515760E-02	6.182399E-04
6.435434E+03	2.512393E-02	6.173006E-04
6.445068E+03	2.507350E-02	6.159527E-04
6.454702E+03	2.500675E-02	6.142074E-04
6.464336E+03	2.492427E-02	6.120794E-04
6.473970E+03	2.482582E-02	6.095629E-04
6.483604E+03	2.471289E-02	6.066941E-04
6.493237E+03	2.458545E-02	6.034731E-04
6.502871E+03	2.444425E-02	5.999177E-04
6.512505E+03	2.429074E-02	5.960637E-04
6.522139E+03	2.412519E-02	5.919177E-04
6.531773E+03	2.394887E-02	5.875111E-04
6.541407E+03	2.376280E-02	5.828689E-04
6.551041E+03	2.356806E-02	5.780173E-04
6.560675E+03	2.336573E-02	5.729829E-04
6.570309E+03	2.315723E-02	5.678005E-04
6.579942E+03	2.294307E-02	5.624823E-04
6.589576E+03	2.272497E-02	5.570708E-04
6.599210E+03	2.250373E-02	5.515852E-04
6.608844E+03	2.228042E-02	5.460519E-04
6.618478E+03	2.205609E-02	5.404965E-04
6.628112E+03	2.183175E-02	5.349434E-04
6.637746E+03	2.160866E-02	5.294237E-04
6.647380E+03	2.138743E-02	5.239520E-04
6.657014E+03	2.116893E-02	5.185495E-04
6.666647E+03	2.095424E-02	5.132428E-04
6.676281E+03	2.074352E-02	5.080356E-04
6.685915E+03	2.053805E-02	5.029588E-04
6.695549E+03	2.033815E-02	4.980206E-04
6.705183E+03	2.014439E-02	4.932346E-04
6.714817E+03	1.995728E-02	4.886131E-04
6.724451E+03	1.977726E-02	4.841671E-04
6.734085E+03	1.960502E-02	4.799130E-04
6.743718E+03	1.944033E-02	4.758454E-04
6.753352E+03	1.928379E-02	4.719785E-04
6.762986E+03	1.913591E-02	4.683249E-04
6.772620E+03	1.899634E-02	4.648761E-04
6.782254E+03	1.886527E-02	4.616363E-04
6.791888E+03	1.874335E-02	4.586217E-04
6.801522E+03	1.863015E-02	4.558212E-04
6.811156E+03	1.852598E-02	4.532428E-04
6.820790E+03	1.843088E-02	4.508870E-04
6.830423E+03	1.834457E-02	4.487472E-04
6.840057E+03	1.826702E-02	4.468224E-04
6.849691E+03	1.819845E-02	4.451177E-04
6.859325E+03	1.813849E-02	4.436245E-04
6.868959E+03	1.808704E-02	4.423399E-04
6.878593E+03	1.804397E-02	4.412608E-04
6.888227E+03	1.800939E-02	4.403896E-04
6.897861E+03	1.798258E-02	4.397089E-04
6.907494E+03	1.796361E-02	4.392202E-04
6.917128E+03	1.795198E-02	4.389114E-04
6.926762E+03	1.794797E-02	4.387893E-04
6.936396E+03	1.795053E-02	4.388278E-04
6.946030E+03	1.795988E-02	4.390326E-04
6.955664E+03	1.797545E-02	4.393895E-04
6.965298E+03	1.799716E-02	4.398966E-04
6.974932E+03	1.802411E-02	4.405321E-04
6.984566E+03	1.805620E-02	4.412929E-04
6.994199E+03	1.809273E-02	4.421627E-04
7.003833E+03	1.813358E-02	4.431377E-04
7.013467E+03	1.817801E-02	4.442003E-04
7.023101E+03	1.822586E-02	4.453462E-04
7.032735E+03	1.827607E-02	4.465500E-04
7.042369E+03	1.832845E-02	4.478067E-04
7.052003E+03	1.838250E-02	4.491038E-04
7.061637E+03	1.843741E-02	4.504221E-04
7.071271E+03	1.849268E-02	4.517489E-04
7.080904E+03	1.854807E-02	4.530786E-04
7.090538E+03	1.860249E-02	4.543844E-04
7.100172E+03	1.865572E-02	4.556608E-04
7.109806E+03	1.870695E-02	4.568884E-04
7.119440E+03	1.875599E-02	4.580623E-04
7.129074E+03	1.880178E-02	4.591566E-04
7.138708E+03	1.884416E-02	4.601673E-04
7.148342E+03	1.888239E-02	4.610767E-04
7.157975E+03	1.891608E-02	4.618751E-04
7.167609E+03	1.894487E-02	4.625535E-04
7.177243E+03	1.896872E-02	4.631113E-04
7.186877E+03	1.898675E-02	4.635268E-04
7.196511E+03	1.899961E-02	4.638160E-04
7.206145E+03	1.900650E-02	4.639594E-04
7.215779E+03	1.900758E-02	4.639609E-04
7.225413E+03	1.900274E-02	4.638177E-04
7.235047E+03	1.899222E-02	4.635358E-04
7.244680E+03	1.897570E-02	4.631075E-04
7.254314E+03	1.895351E-02	4.625409E-04
7.263948E+03	1.892573E-02	4.618376E-04
7.273582E+03	1.889244E-02	4.610000E-04
7.283216E+03	1.885378E-02	4.600315E-04
7.292850E+03	1.880991E-02	4.589359E-04
7.302484E+03	1.876131E-02	4.577249E-04
7.312118E+03	1.870788E-02	4.563960E-04
7.321751E+03	1.865011E-02	4.549616E-04
7.331385E+03	1.858791E-02	4.534193E-04
7.341019E+03	1.852180E-02	4.517816E-04
7.350653E+03	1.845197E-02	4.500536E-04
7.360287E+03	1.837862E-02	4.482398E-04
7.369921E+03	1.830193E-02	4.463447E-04
7.379555E+03	1.822205E-02	4.443722E-04
7.389189E+03	1.813912E-02	4.423255E-04
7.398823E+03	1.805326E-02	4.402077E-04
7.408456E+03	1.796486E-02	4.380281E-04
7.418090E+03	1.787338E-02	4.357739E-04
7.427724E+03	1.777945E-02	4.334603E-04
7.437358E+03	1.768278E-02	4.310803E-04
7.446992E+03	1.758335E-02	4.286336E-04
7.456626E+03	1.748113E-02	4.261189E-04
7.466260E+03	1.737602E-02	4.235347E-04
7.475894E+03	1.726796E-02	4.208786E-04
