#wls	flux	fluxerr
1.541421E+03	1.155544E-03	1.250106E-04
1.579957E+03	1.158665E-03	1.252263E-04
1.618492E+03	1.162138E-03	1.254759E-04
1.657028E+03	1.166182E-03	1.257826E-04
1.695564E+03	1.170804E-03	1.261469E-04
1.734099E+03	1.176227E-03	1.265924E-04
1.772635E+03	1.182461E-03	1.271198E-04
1.811170E+03	1.189731E-03	1.277528E-04
1.849706E+03	1.198053E-03	1.284925E-04
1.888241E+03	1.207656E-03	1.293629E-04
1.926777E+03	1.218559E-03	1.303652E-04
1.965312E+03	1.231215E-03	1.315471E-04
2.003848E+03	1.245431E-03	1.328870E-04
2.042383E+03	1.261888E-03	1.344565E-04
2.080919E+03	1.280400E-03	1.362345E-04
2.119454E+03	1.301439E-03	1.382699E-04
2.157990E+03	1.324827E-03	1.405422E-04
2.196525E+03	1.350604E-03	1.430540E-04
2.235061E+03	1.378811E-03	1.458081E-04
2.273597E+03	1.409494E-03	1.488075E-04
2.312132E+03	1.442700E-03	1.520553E-04
2.350668E+03	1.478025E-03	1.555069E-04
2.389203E+03	1.515966E-03	1.592129E-04
2.427739E+03	1.556120E-03	1.631287E-04
2.466274E+03	1.598534E-03	1.672570E-04
2.504810E+03	1.643486E-03	1.716248E-04
2.543345E+03	1.690563E-03	1.761867E-04
2.581881E+03	1.740280E-03	1.809938E-04
2.620416E+03	1.792690E-03	1.860489E-04
2.658952E+03	1.847610E-03	1.913302E-04
2.697487E+03	1.905090E-03	1.968399E-04
2.736023E+03	1.965177E-03	2.025799E-04
2.774558E+03	2.027434E-03	2.085020E-04
2.813094E+03	2.091894E-03	2.146066E-04
2.851630E+03	2.158585E-03	2.208935E-04
2.890165E+03	2.228026E-03	2.274125E-04
2.899799E+03	2.245858E-03	2.290823E-04
2.909433E+03	2.263756E-03	2.307555E-04
2.919067E+03	2.281967E-03	2.324574E-04
2.928701E+03	2.300245E-03	2.341625E-04
2.938334E+03	2.319087E-03	2.359215E-04
2.947968E+03	2.337746E-03	2.376585E-04
2.957602E+03	2.356972E-03	2.394494E-04
2.967236E+03	2.376265E-03	2.412434E-04
2.976870E+03	2.395876E-03	2.430660E-04
2.986504E+03	2.415806E-03	2.449171E-04
2.996138E+03	2.436055E-03	2.467966E-04
3.005772E+03	2.456624E-03	2.487047E-04
3.015406E+03	2.477514E-03	2.506412E-04
3.025039E+03	2.498472E-03	2.525805E-04
3.034673E+03	2.520260E-03	2.545993E-04
3.044307E+03	2.542115E-03	2.566209E-04
3.053941E+03	2.564549E-03	2.586964E-04
3.063575E+03	2.587308E-03	2.608001E-04
3.073209E+03	2.610391E-03	2.629319E-04
3.082843E+03	2.634310E-03	2.651434E-04
3.092477E+03	2.658557E-03	2.673829E-04
3.102110E+03	2.683387E-03	2.696763E-04
3.111744E+03	2.708545E-03	2.719975E-04
3.121378E+03	2.734546E-03	2.743983E-04
3.131012E+03	2.761134E-03	2.768526E-04
3.140646E+03	2.788570E-03	2.793865E-04
3.150280E+03	2.816595E-03	2.819738E-04
3.159914E+03	2.845211E-03	2.846145E-04
3.169548E+03	2.874939E-03	2.873605E-04
3.179182E+03	2.905260E-03	2.901597E-04
3.188815E+03	2.936697E-03	2.930640E-04
3.198449E+03	2.968728E-03	2.960212E-04
3.208083E+03	3.002141E-03	2.991094E-04
3.217717E+03	3.036414E-03	3.022763E-04
3.227351E+03	3.071809E-03	3.055478E-04
3.236985E+03	3.108329E-03	3.089239E-04
3.246619E+03	3.146239E-03	3.124304E-04
3.256253E+03	3.185540E-03	3.160672E-04
3.265887E+03	3.225971E-03	3.198077E-04
3.275520E+03	3.268061E-03	3.237043E-04
3.285154E+03	3.311546E-03	3.277302E-04
3.294788E+03	3.356430E-03	3.318854E-04
3.304422E+03	3.403243E-03	3.362218E-04
3.314056E+03	3.451986E-03	3.407390E-04
3.323690E+03	3.502392E-03	3.454101E-04
3.333324E+03	3.554465E-03	3.502349E-04
3.342958E+03	3.609003E-03	3.552914E-04
3.352591E+03	3.665205E-03	3.605002E-04
3.362225E+03	3.723872E-03	3.659394E-04
3.371859E+03	3.784733E-03	3.715817E-04
3.381493E+03	3.847788E-03	3.774264E-04
3.391127E+03	3.913297E-03	3.834982E-04
3.400761E+03	3.981259E-03	3.897962E-04
3.410395E+03	4.051669E-03	3.963194E-04
3.420029E+03	4.124787E-03	4.030922E-04
3.429663E+03	4.200333E-03	4.100865E-04
3.439296E+03	4.278571E-03	4.173271E-04
3.448930E+03	4.359487E-03	4.248119E-04
3.458564E+03	4.443336E-03	4.325648E-04
3.468198E+03	4.529559E-03	4.405305E-04
3.477832E+03	4.618411E-03	4.487329E-04
3.487466E+03	4.710140E-03	4.571951E-04
3.497100E+03	4.804452E-03	4.658878E-04
3.506734E+03	4.901320E-03	4.748074E-04
3.516367E+03	5.000988E-03	4.839766E-04
3.526001E+03	5.103148E-03	4.933647E-04
3.535635E+03	5.207762E-03	5.029670E-04
3.545269E+03	5.314797E-03	5.127796E-04
3.554903E+03	5.424479E-03	5.228233E-04
3.564537E+03	5.536492E-03	5.330665E-04
3.574171E+03	5.650785E-03	5.435037E-04
3.583805E+03	5.767301E-03	5.541285E-04
3.593439E+03	5.886258E-03	5.649609E-04
3.603072E+03	6.006777E-03	5.759155E-04
3.612706E+03	6.129611E-03	5.870640E-04
3.622340E+03	6.254144E-03	5.983466E-04
3.631974E+03	6.380579E-03	6.097817E-04
3.641608E+03	6.508568E-03	6.213353E-04
3.651242E+03	6.638297E-03	6.330247E-04
3.660876E+03	6.769141E-03	6.447894E-04
3.670510E+03	6.901564E-03	6.566729E-04
3.680144E+03	7.034652E-03	6.685878E-04
3.689777E+03	7.169132E-03	6.806025E-04
3.699411E+03	7.304369E-03	6.926562E-04
3.709045E+03	7.439993E-03	7.047133E-04
3.718679E+03	7.576450E-03	7.168158E-04
3.728313E+03	7.713100E-03	7.289025E-04
3.737947E+03	7.849847E-03	7.409642E-04
3.747581E+03	7.986861E-03	7.530166E-04
3.757215E+03	8.123775E-03	7.650248E-04
3.766848E+03	8.259955E-03	7.769290E-04
3.776482E+03	8.396122E-03	7.887969E-04
3.786116E+03	8.531376E-03	8.005438E-04
3.795750E+03	8.665901E-03	8.121871E-04
3.805384E+03	8.799357E-03	8.236949E-04
3.815018E+03	8.931933E-03	8.350852E-04
3.824652E+03	9.063040E-03	8.463027E-04
3.834286E+03	9.192878E-03	8.573666E-04
3.843920E+03	9.321139E-03	8.682484E-04
3.853553E+03	9.447790E-03	8.789453E-04
3.863187E+03	9.572538E-03	8.894304E-04
3.872821E+03	9.695634E-03	8.997275E-04
3.882455E+03	9.816557E-03	9.097885E-04
3.892089E+03	9.935579E-03	9.196395E-04
3.901723E+03	1.005247E-02	9.292591E-04
3.911357E+03	1.016727E-02	9.386524E-04
3.920991E+03	1.028003E-02	9.478242E-04
3.930624E+03	1.039058E-02	9.567588E-04
3.940258E+03	1.049924E-02	9.654880E-04
3.949892E+03	1.060539E-02	9.739527E-04
3.959526E+03	1.070987E-02	9.822328E-04
3.969160E+03	1.081207E-02	9.902730E-04
3.978794E+03	1.091265E-02	9.981321E-04
3.988428E+03	1.101126E-02	1.005781E-03
3.998062E+03	1.110833E-02	1.013258E-03
4.007696E+03	1.120379E-02	1.020558E-03
4.017329E+03	1.129761E-02	1.027678E-03
4.026963E+03	1.139048E-02	1.034681E-03
4.036597E+03	1.148236E-02	1.041565E-03
4.046231E+03	1.157324E-02	1.048328E-03
4.055865E+03	1.166359E-02	1.055013E-03
4.065499E+03	1.175340E-02	1.061620E-03
4.075133E+03	1.184292E-02	1.068170E-03
4.084767E+03	1.193260E-02	1.074705E-03
4.094400E+03	1.202223E-02	1.081204E-03
4.104034E+03	1.211250E-02	1.087731E-03
4.113668E+03	1.220363E-02	1.094305E-03
4.123302E+03	1.229541E-02	1.100905E-03
4.132936E+03	1.238849E-02	1.107591E-03
4.142570E+03	1.248310E-02	1.114381E-03
4.152204E+03	1.257921E-02	1.121272E-03
4.161838E+03	1.267701E-02	1.128281E-03
4.171472E+03	1.277691E-02	1.135442E-03
4.181105E+03	1.287907E-02	1.142770E-03
4.190739E+03	1.298342E-02	1.150257E-03
4.200373E+03	1.309053E-02	1.157953E-03
4.210007E+03	1.320010E-02	1.165828E-03
4.219641E+03	1.331244E-02	1.173910E-03
4.229275E+03	1.342740E-02	1.182184E-03
4.238909E+03	1.354550E-02	1.190695E-03
4.248543E+03	1.366634E-02	1.199406E-03
4.258177E+03	1.378994E-02	1.208316E-03
4.267810E+03	1.391628E-02	1.217426E-03
4.277444E+03	1.404536E-02	1.226729E-03
4.287078E+03	1.417710E-02	1.236222E-03
4.296712E+03	1.431123E-02	1.245877E-03
4.306346E+03	1.444786E-02	1.255702E-03
4.315980E+03	1.458663E-02	1.265666E-03
4.325614E+03	1.472760E-02	1.275774E-03
4.335248E+03	1.487061E-02	1.286009E-03
4.344881E+03	1.501500E-02	1.296313E-03
4.354515E+03	1.516097E-02	1.306704E-03
4.364149E+03	1.530804E-02	1.317138E-03
4.373783E+03	1.545593E-02	1.327592E-03
4.383417E+03	1.560432E-02	1.338037E-03
4.393051E+03	1.575287E-02	1.348444E-03
4.402685E+03	1.590103E-02	1.358764E-03
4.412319E+03	1.604839E-02	1.368965E-03
4.421953E+03	1.619458E-02	1.379013E-03
4.431586E+03	1.633895E-02	1.388854E-03
4.441220E+03	1.648129E-02	1.398473E-03
4.450854E+03	1.662097E-02	1.407814E-03
4.460488E+03	1.675752E-02	1.416839E-03
4.470122E+03	1.689027E-02	1.425495E-03
4.479756E+03	1.701900E-02	1.433763E-03
4.489390E+03	1.714282E-02	1.441570E-03
4.499024E+03	1.726172E-02	1.448918E-03
4.508657E+03	1.737484E-02	1.455737E-03
4.518291E+03	1.748198E-02	1.462012E-03
4.527925E+03	1.758252E-02	1.467695E-03
4.537559E+03	1.767609E-02	1.472758E-03
4.547193E+03	1.776235E-02	1.477176E-03
4.556827E+03	1.784122E-02	1.480945E-03
4.566461E+03	1.791198E-02	1.484009E-03
4.576095E+03	1.797463E-02	1.486372E-03
4.585729E+03	1.802878E-02	1.488006E-03
4.595362E+03	1.807430E-02	1.488905E-03
4.604996E+03	1.811117E-02	1.489069E-03
4.614630E+03	1.813941E-02	1.488506E-03
4.624264E+03	1.815895E-02	1.487214E-03
4.633898E+03	1.817025E-02	1.485235E-03
4.643532E+03	1.817356E-02	1.482592E-03
4.653166E+03	1.816971E-02	1.479358E-03
4.662800E+03	1.815943E-02	1.475596E-03
4.672434E+03	1.814353E-02	1.471374E-03
4.682067E+03	1.812306E-02	1.466780E-03
4.691701E+03	1.809850E-02	1.461856E-03
4.701335E+03	1.807115E-02	1.456708E-03
4.710969E+03	1.804191E-02	1.451411E-03
4.720603E+03	1.801145E-02	1.446018E-03
4.730237E+03	1.798084E-02	1.440617E-03
4.739871E+03	1.795091E-02	1.435273E-03
4.749505E+03	1.792267E-02	1.430068E-03
4.759138E+03	1.789666E-02	1.425045E-03
4.768772E+03	1.787363E-02	1.420259E-03
4.778406E+03	1.785444E-02	1.415780E-03
4.788040E+03	1.783972E-02	1.411655E-03
4.797674E+03	1.782987E-02	1.407914E-03
4.807308E+03	1.782583E-02	1.404627E-03
4.816942E+03	1.782788E-02	1.401815E-03
4.826576E+03	1.783648E-02	1.399511E-03
4.836210E+03	1.785223E-02	1.397757E-03
4.845843E+03	1.787548E-02	1.396580E-03
4.855477E+03	1.790637E-02	1.395984E-03
4.865111E+03	1.794536E-02	1.396002E-03
4.874745E+03	1.799268E-02	1.396650E-03
4.884379E+03	1.804875E-02	1.397952E-03
4.894013E+03	1.811351E-02	1.399904E-03
4.903647E+03	1.818710E-02	1.402509E-03
4.913281E+03	1.826981E-02	1.405785E-03
4.922914E+03	1.836148E-02	1.409717E-03
4.932548E+03	1.846255E-02	1.414333E-03
4.942182E+03	1.857260E-02	1.419597E-03
4.951816E+03	1.869179E-02	1.425515E-03
4.961450E+03	1.882003E-02	1.432078E-03
4.971084E+03	1.895742E-02	1.439286E-03
4.980718E+03	1.910360E-02	1.447110E-03
4.990352E+03	1.925839E-02	1.455530E-03
4.999986E+03	1.942157E-02	1.464526E-03
5.009619E+03	1.959329E-02	1.474104E-03
5.019253E+03	1.977264E-02	1.484193E-03
5.028887E+03	1.995969E-02	1.494794E-03
5.038521E+03	2.015407E-02	1.505875E-03
5.048155E+03	2.035536E-02	1.517401E-03
5.057789E+03	2.056310E-02	1.529334E-03
5.067423E+03	2.077656E-02	1.541618E-03
5.077057E+03	2.099542E-02	1.554225E-03
5.086691E+03	2.121905E-02	1.567107E-03
5.096324E+03	2.144662E-02	1.580200E-03
5.105958E+03	2.167785E-02	1.593482E-03
5.115592E+03	2.191180E-02	1.606881E-03
5.125226E+03	2.214745E-02	1.620324E-03
5.134860E+03	2.238443E-02	1.633781E-03
5.144494E+03	2.262141E-02	1.647155E-03
5.154128E+03	2.285771E-02	1.660398E-03
5.163762E+03	2.309261E-02	1.673459E-03
5.173395E+03	2.332468E-02	1.686233E-03
5.183029E+03	2.355313E-02	1.698668E-03
5.192663E+03	2.377718E-02	1.710708E-03
5.202297E+03	2.399529E-02	1.722247E-03
5.211931E+03	2.420665E-02	1.733229E-03
5.221565E+03	2.441020E-02	1.743583E-03
5.231199E+03	2.460513E-02	1.753256E-03
5.240833E+03	2.478990E-02	1.762143E-03
5.250467E+03	2.496399E-02	1.770214E-03
5.260100E+03	2.512615E-02	1.777386E-03
5.269734E+03	2.527570E-02	1.783617E-03
5.279368E+03	2.541148E-02	1.788834E-03
5.289002E+03	2.553264E-02	1.792984E-03
5.298636E+03	2.563867E-02	1.796040E-03
5.308270E+03	2.572888E-02	1.797962E-03
5.317904E+03	2.580264E-02	1.798715E-03
5.327538E+03	2.585917E-02	1.798253E-03
5.337171E+03	2.589831E-02	1.796576E-03
5.346805E+03	2.591946E-02	1.793651E-03
5.356439E+03	2.592320E-02	1.789527E-03
5.366073E+03	2.590862E-02	1.784153E-03
5.375707E+03	2.587624E-02	1.777573E-03
5.385341E+03	2.582566E-02	1.769770E-03
5.394975E+03	2.575787E-02	1.760820E-03
5.404609E+03	2.567242E-02	1.750704E-03
5.414243E+03	2.557025E-02	1.739493E-03
5.423876E+03	2.545188E-02	1.727233E-03
5.433510E+03	2.531744E-02	1.713939E-03
5.443144E+03	2.516812E-02	1.699703E-03
5.452778E+03	2.500471E-02	1.684584E-03
5.462412E+03	2.482781E-02	1.668629E-03
5.472046E+03	2.463834E-02	1.651908E-03
5.481680E+03	2.443749E-02	1.634507E-03
5.491314E+03	2.422626E-02	1.616498E-03
5.500947E+03	2.400545E-02	1.597940E-03
5.510581E+03	2.377611E-02	1.578907E-03
5.520215E+03	2.353953E-02	1.559489E-03
5.529849E+03	2.329678E-02	1.539760E-03
5.539483E+03	2.304867E-02	1.519777E-03
5.549117E+03	2.279648E-02	1.499626E-03
5.558751E+03	2.254122E-02	1.479376E-03
5.568385E+03	2.228364E-02	1.459077E-03
5.578019E+03	2.202470E-02	1.438794E-03
5.587652E+03	2.176552E-02	1.418599E-03
5.597286E+03	2.150675E-02	1.398534E-03
5.606920E+03	2.124941E-02	1.378667E-03
5.616554E+03	2.099426E-02	1.359044E-03
5.626188E+03	2.074179E-02	1.339697E-03
5.635822E+03	2.049265E-02	1.320667E-03
5.645456E+03	2.024745E-02	1.301990E-03
5.655090E+03	2.000671E-02	1.283699E-03
5.664724E+03	1.977112E-02	1.265835E-03
5.674357E+03	1.954092E-02	1.248411E-03
5.683991E+03	1.931630E-02	1.231438E-03
5.693625E+03	1.909796E-02	1.214957E-03
5.703259E+03	1.888582E-02	1.198960E-03
5.712893E+03	1.868031E-02	1.183471E-03
5.722527E+03	1.848162E-02	1.168501E-03
5.732161E+03	1.828957E-02	1.154034E-03
5.741795E+03	1.810463E-02	1.140099E-03
5.751428E+03	1.792692E-02	1.126698E-03
5.761062E+03	1.775614E-02	1.113812E-03
5.770696E+03	1.759236E-02	1.101441E-03
5.780330E+03	1.743594E-02	1.089605E-03
5.789964E+03	1.728639E-02	1.078271E-03
5.799598E+03	1.714386E-02	1.067446E-03
5.809232E+03	1.700835E-02	1.057128E-03
5.818866E+03	1.687966E-02	1.047301E-03
5.828500E+03	1.675776E-02	1.037961E-03
5.838133E+03	1.664262E-02	1.029105E-03
5.847767E+03	1.653386E-02	1.020707E-03
5.857401E+03	1.643160E-02	1.012774E-03
5.867035E+03	1.633550E-02	1.005280E-03
5.876669E+03	1.624565E-02	9.982314E-04
5.886303E+03	1.616155E-02	9.915952E-04
5.895937E+03	1.608317E-02	9.853677E-04
5.905571E+03	1.601046E-02	9.795457E-04
5.915204E+03	1.594293E-02	9.740972E-04
5.924838E+03	1.588039E-02	9.690098E-04
5.934472E+03	1.582282E-02	9.642812E-04
5.944106E+03	1.576972E-02	9.598807E-04
5.953740E+03	1.572092E-02	9.557966E-04
5.963374E+03	1.567638E-02	9.520266E-04
5.973008E+03	1.563607E-02	9.485681E-04
5.982642E+03	1.559995E-02	9.454188E-04
5.992276E+03	1.556861E-02	9.426130E-04
6.001909E+03	1.554183E-02	9.401382E-04
6.011543E+03	1.551987E-02	9.380100E-04
6.021177E+03	1.550299E-02	9.362432E-04
6.030811E+03	1.549113E-02	9.348339E-04
6.040445E+03	1.548437E-02	9.337878E-04
6.050079E+03	1.548294E-02	9.331187E-04
6.059713E+03	1.548677E-02	9.328221E-04
6.069347E+03	1.549577E-02	9.328929E-04
6.078981E+03	1.551014E-02	9.333444E-04
6.088614E+03	1.552979E-02	9.341706E-04
6.098248E+03	1.555476E-02	9.353748E-04
6.107882E+03	1.558475E-02	9.369400E-04
6.117516E+03	1.561994E-02	9.388776E-04
6.127150E+03	1.566017E-02	9.411792E-04
6.136784E+03	1.570543E-02	9.438454E-04
6.146418E+03	1.575537E-02	9.468562E-04
6.156052E+03	1.581012E-02	9.502202E-04
6.165685E+03	1.586928E-02	9.539139E-04
6.175319E+03	1.593295E-02	9.579427E-04
6.184953E+03	1.600069E-02	9.622806E-04
6.194587E+03	1.607236E-02	9.669203E-04
6.204221E+03	1.614765E-02	9.718422E-04
6.213855E+03	1.622643E-02	9.770396E-04
6.223489E+03	1.630772E-02	9.824533E-04
6.233123E+03	1.639117E-02	9.880625E-04
6.242757E+03	1.647605E-02	9.938238E-04
6.252390E+03	1.656160E-02	9.996919E-04
6.262024E+03	1.664706E-02	1.005620E-03
6.271658E+03	1.673200E-02	1.011584E-03
6.281292E+03	1.681528E-02	1.017512E-03
6.290926E+03	1.689629E-02	1.023369E-03
6.300560E+03	1.697424E-02	1.029106E-03
6.310194E+03	1.704837E-02	1.034676E-03
6.319828E+03	1.711790E-02	1.040031E-03
6.329461E+03	1.718230E-02	1.045137E-03
6.339095E+03	1.724047E-02	1.049927E-03
6.348729E+03	1.729195E-02	1.054368E-03
6.358363E+03	1.733629E-02	1.058435E-03
6.367997E+03	1.737273E-02	1.062075E-03
6.377631E+03	1.740074E-02	1.065257E-03
6.387265E+03	1.742008E-02	1.067960E-03
6.396899E+03	1.743034E-02	1.070158E-03
6.406533E+03	1.743102E-02	1.071815E-03
6.416166E+03	1.742226E-02	1.072939E-03
6.425800E+03	1.740352E-02	1.073490E-03
6.435434E+03	1.737509E-02	1.073483E-03
6.445068E+03	1.733679E-02	1.072903E-03
6.454702E+03	1.728887E-02	1.071761E-03
6.464336E+03	1.723129E-02	1.070050E-03
6.473970E+03	1.716468E-02	1.067806E-03
6.483604E+03	1.708895E-02	1.065016E-03
6.493237E+03	1.700485E-02	1.061726E-03
6.502871E+03	1.691262E-02	1.057945E-03
6.512505E+03	1.681294E-02	1.053711E-03
6.522139E+03	1.670615E-02	1.049041E-03
6.531773E+03	1.659302E-02	1.043981E-03
6.541407E+03	1.647400E-02	1.038554E-03
6.551041E+03	1.635010E-02	1.032820E-03
6.560675E+03	1.622181E-02	1.026808E-03
6.570309E+03	1.608982E-02	1.020557E-03
6.579942E+03	1.595481E-02	1.014108E-03
6.589576E+03	1.581768E-02	1.007515E-03
6.599210E+03	1.567893E-02	1.000809E-03
6.608844E+03	1.553924E-02	9.940303E-04
6.618478E+03	1.539967E-02	9.872449E-04
6.628112E+03	1.526028E-02	9.804564E-04
6.637746E+03	1.512228E-02	9.737406E-04
6.647380E+03	1.498589E-02	9.671110E-04
6.657014E+03	1.485186E-02	9.606156E-04
6.666647E+03	1.472073E-02	9.542896E-04
6.676281E+03	1.459299E-02	9.481654E-04
6.685915E+03	1.446913E-02	9.422738E-04
6.695549E+03	1.434940E-02	9.366323E-04
6.705183E+03	1.423454E-02	9.312911E-04
6.714817E+03	1.412457E-02	9.262518E-04
6.724451E+03	1.401999E-02	9.215490E-04
6.734085E+03	1.392110E-02	9.172037E-04
6.743718E+03	1.382816E-02	9.132347E-04
6.753352E+03	1.374122E-02	9.096478E-04
6.762986E+03	1.366065E-02	9.064694E-04
6.772620E+03	1.358662E-02	9.037133E-04
6.782254E+03	1.351910E-02	9.013795E-04
6.791888E+03	1.345838E-02	8.994896E-04
6.801522E+03	1.340453E-02	8.980519E-04
6.811156E+03	1.335729E-02	8.970506E-04
6.820790E+03	1.331703E-02	8.965137E-04
6.830423E+03	1.328359E-02	8.964340E-04
6.840057E+03	1.325698E-02	8.968138E-04
6.849691E+03	1.323717E-02	8.976544E-04
6.859325E+03	1.322395E-02	8.989439E-04
6.868959E+03	1.321741E-02	9.006925E-04
6.878593E+03	1.321747E-02	9.028974E-04
6.888227E+03	1.322388E-02	9.055428E-04
6.897861E+03	1.323633E-02	9.086118E-04
6.907494E+03	1.325485E-02	9.121092E-04
6.917128E+03	1.327930E-02	9.160270E-04
6.926762E+03	1.330933E-02	9.203442E-04
6.936396E+03	1.334475E-02	9.250501E-04
6.946030E+03	1.338536E-02	9.301328E-04
6.955664E+03	1.343075E-02	9.355672E-04
6.965298E+03	1.348087E-02	9.413507E-04
6.974932E+03	1.353512E-02	9.474433E-04
6.984566E+03	1.359321E-02	9.538275E-04
6.994199E+03	1.365486E-02	9.604850E-04
7.003833E+03	1.371977E-02	9.673959E-04
7.013467E+03	1.378727E-02	9.745140E-04
7.023101E+03	1.385738E-02	9.818428E-04
7.032735E+03	1.392924E-02	9.893207E-04
7.042369E+03	1.400266E-02	9.969359E-04
7.052003E+03	1.407710E-02	1.004651E-03
7.061637E+03	1.415202E-02	1.012425E-03
7.071271E+03	1.422703E-02	1.020233E-03
7.080904E+03	1.430157E-02	1.028032E-03
7.090538E+03	1.437526E-02	1.035796E-03
7.100172E+03	1.444753E-02	1.043482E-03
7.109806E+03	1.451782E-02	1.051048E-03
7.119440E+03	1.458554E-02	1.058452E-03
7.129074E+03	1.465034E-02	1.065664E-03
7.138708E+03	1.471185E-02	1.072658E-03
7.148342E+03	1.476935E-02	1.079378E-03
7.157975E+03	1.482250E-02	1.085797E-03
7.167609E+03	1.487098E-02	1.091888E-03
7.177243E+03	1.491450E-02	1.097629E-03
7.186877E+03	1.495298E-02	1.103010E-03
7.196511E+03	1.498618E-02	1.108011E-03
7.206145E+03	1.501387E-02	1.112611E-03
7.215779E+03	1.503625E-02	1.116823E-03
7.225413E+03	1.505316E-02	1.120632E-03
7.235047E+03	1.506445E-02	1.124023E-03
7.244680E+03	1.507041E-02	1.127015E-03
7.254314E+03	1.507095E-02	1.129599E-03
7.263948E+03	1.506601E-02	1.131767E-03
7.273582E+03	1.505574E-02	1.133527E-03
7.283216E+03	1.504013E-02	1.134875E-03
7.292850E+03	1.501957E-02	1.135840E-03
7.302484E+03	1.499369E-02	1.136388E-03
7.312118E+03	1.496312E-02	1.136566E-03
7.321751E+03	1.492770E-02	1.136360E-03
7.331385E+03	1.488750E-02	1.135771E-03
7.341019E+03	1.484278E-02	1.134818E-03
7.350653E+03	1.479341E-02	1.133488E-03
7.360287E+03	1.474009E-02	1.131832E-03
7.369921E+03	1.468229E-02	1.129807E-03
7.379555E+03	1.462050E-02	1.127449E-03
7.389189E+03	1.455500E-02	1.124778E-03
7.398823E+03	1.448528E-02	1.121753E-03
7.408456E+03	1.441202E-02	1.118423E-03
7.418090E+03	1.433529E-02	1.114794E-03
7.427724E+03	1.425479E-02	1.110838E-03
7.437358E+03	1.417076E-02	1.106574E-03
7.446992E+03	1.408349E-02	1.102023E-03
7.456626E+03	1.399282E-02	1.097171E-03
7.466260E+03	1.389883E-02	1.092021E-03
7.475894E+03	1.380157E-02	1.086577E-03
