#wls	flux	fluxerr
1.541421E+03	1.398127E-04	0.000000E+00
1.579957E+03	1.431733E-04	0.000000E+00
1.618492E+03	1.467092E-04	0.000000E+00
1.657028E+03	1.504019E-04	0.000000E+00
1.695564E+03	1.543106E-04	0.000000E+00
1.734099E+03	1.583908E-04	0.000000E+00
1.772635E+03	1.627043E-04	0.000000E+00
1.811170E+03	1.672329E-04	0.000000E+00
1.849706E+03	1.720142E-04	0.000000E+00
1.888241E+03	1.770588E-04	0.000000E+00
1.926777E+03	1.823474E-04	0.000000E+00
1.965312E+03	1.879198E-04	0.000000E+00
2.003848E+03	1.938187E-04	0.000000E+00
2.042383E+03	2.000252E-04	0.000000E+00
2.080919E+03	2.065504E-04	0.000000E+00
2.119454E+03	2.134391E-04	0.000000E+00
2.157990E+03	2.207391E-04	0.000000E+00
2.196525E+03	2.284303E-04	0.000000E+00
2.235061E+03	2.365251E-04	0.000000E+00
2.273597E+03	2.450727E-04	0.000000E+00
2.312132E+03	2.541247E-04	0.000000E+00
2.350668E+03	2.636577E-04	0.000000E+00
2.389203E+03	2.736832E-04	0.000000E+00
2.427739E+03	2.842928E-04	0.000000E+00
2.466274E+03	2.954998E-04	0.000000E+00
2.504810E+03	3.073163E-04	0.000000E+00
2.543345E+03	3.197508E-04	0.000000E+00
2.581881E+03	3.328087E-04	0.000000E+00
2.620416E+03	3.466290E-04	0.000000E+00
2.658952E+03	3.611244E-04	0.000000E+00
2.697487E+03	3.763852E-04	0.000000E+00
2.736023E+03	3.923577E-04	0.000000E+00
2.774558E+03	4.091758E-04	0.000000E+00
2.813094E+03	4.267748E-04	0.000000E+00
2.851630E+03	4.451802E-04	0.000000E+00
2.890165E+03	4.643590E-04	0.000000E+00
2.899799E+03	4.693159E-04	0.000000E+00
2.909433E+03	4.742781E-04	0.000000E+00
2.919067E+03	4.792978E-04	0.000000E+00
2.928701E+03	4.844275E-04	0.000000E+00
2.938334E+03	4.895596E-04	0.000000E+00
2.947968E+03	4.947468E-04	0.000000E+00
2.957602E+03	4.999339E-04	0.000000E+00
2.967236E+03	5.052278E-04	0.000000E+00
2.976870E+03	5.105738E-04	0.000000E+00
2.986504E+03	5.159710E-04	0.000000E+00
2.996138E+03	5.213630E-04	0.000000E+00
3.005772E+03	5.268583E-04	0.000000E+00
3.015406E+03	5.324009E-04	0.000000E+00
3.025039E+03	5.379896E-04	0.000000E+00
3.034673E+03	5.435676E-04	0.000000E+00
3.044307E+03	5.492440E-04	0.000000E+00
3.053941E+03	5.549623E-04	0.000000E+00
3.063575E+03	5.607208E-04	0.000000E+00
3.073209E+03	5.665176E-04	0.000000E+00
3.082843E+03	5.723515E-04	0.000000E+00
3.092477E+03	5.782202E-04	0.000000E+00
3.102110E+03	5.841793E-04	0.000000E+00
3.111744E+03	5.901127E-04	0.000000E+00
3.121378E+03	5.961329E-04	0.000000E+00
3.131012E+03	6.021804E-04	0.000000E+00
3.140646E+03	6.082536E-04	0.000000E+00
3.150280E+03	6.143501E-04	0.000000E+00
3.159914E+03	6.205253E-04	0.000000E+00
3.169548E+03	6.267199E-04	0.000000E+00
3.179182E+03	6.329310E-04	0.000000E+00
3.188815E+03	6.391563E-04	0.000000E+00
3.198449E+03	6.454515E-04	0.000000E+00
3.208083E+03	6.517560E-04	0.000000E+00
3.217717E+03	6.580675E-04	0.000000E+00
3.227351E+03	6.644415E-04	0.000000E+00
3.236985E+03	6.708168E-04	0.000000E+00
3.246619E+03	6.771910E-04	0.000000E+00
3.256253E+03	6.836194E-04	0.000000E+00
3.265887E+03	6.900412E-04	0.000000E+00
3.275520E+03	6.965116E-04	0.000000E+00
3.285154E+03	7.029693E-04	0.000000E+00
3.294788E+03	7.094695E-04	0.000000E+00
3.304422E+03	7.159510E-04	0.000000E+00
3.314056E+03	7.224103E-04	0.000000E+00
3.323690E+03	7.289031E-04	0.000000E+00
3.333324E+03	7.354263E-04	0.000000E+00
3.342958E+03	7.419174E-04	0.000000E+00
3.352591E+03	7.484323E-04	0.000000E+00
3.362225E+03	7.549085E-04	0.000000E+00
3.371859E+03	7.614016E-04	0.000000E+00
3.381493E+03	7.678493E-04	0.000000E+00
3.391127E+03	7.743067E-04	0.000000E+00
3.400761E+03	7.807708E-04	0.000000E+00
3.410395E+03	7.871787E-04	0.000000E+00
3.420029E+03	7.935858E-04	0.000000E+00
3.429663E+03	7.999299E-04	0.000000E+00
3.439296E+03	8.063246E-04	0.000000E+00
3.448930E+03	8.126491E-04	0.000000E+00
3.458564E+03	8.188997E-04	0.000000E+00
3.468198E+03	8.251897E-04	0.000000E+00
3.477832E+03	8.313983E-04	0.000000E+00
3.487466E+03	8.375810E-04	0.000000E+00
3.497100E+03	8.437333E-04	0.000000E+00
3.506734E+03	8.497941E-04	0.000000E+00
3.516367E+03	8.558176E-04	0.000000E+00
3.526001E+03	8.618002E-04	0.000000E+00
3.535635E+03	8.677383E-04	0.000000E+00
3.545269E+03	8.736280E-04	0.000000E+00
3.554903E+03	8.794091E-04	0.000000E+00
3.564537E+03	8.851352E-04	0.000000E+00
3.574171E+03	8.908027E-04	0.000000E+00
3.583805E+03	8.964086E-04	0.000000E+00
3.593439E+03	9.019492E-04	0.000000E+00
3.603072E+03	9.074213E-04	0.000000E+00
3.612706E+03	9.127657E-04	0.000000E+00
3.622340E+03	9.180361E-04	0.000000E+00
3.631974E+03	9.232841E-04	0.000000E+00
3.641608E+03	9.283410E-04	0.000000E+00
3.651242E+03	9.333701E-04	0.000000E+00
3.660876E+03	9.383129E-04	0.000000E+00
3.670510E+03	9.431126E-04	0.000000E+00
3.680144E+03	9.478758E-04	0.000000E+00
3.689777E+03	9.524914E-04	0.000000E+00
3.699411E+03	9.570116E-04	0.000000E+00
3.709045E+03	9.614340E-04	0.000000E+00
3.718679E+03	9.657036E-04	0.000000E+00
3.728313E+03	9.699248E-04	0.000000E+00
3.737947E+03	9.739898E-04	0.000000E+00
3.747581E+03	9.779504E-04	0.000000E+00
3.757215E+03	9.818048E-04	0.000000E+00
3.766848E+03	9.855003E-04	0.000000E+00
3.776482E+03	9.890878E-04	0.000000E+00
3.786116E+03	9.925658E-04	0.000000E+00
3.795750E+03	9.959335E-04	0.000000E+00
3.805384E+03	9.991404E-04	0.000000E+00
3.815018E+03	1.002236E-03	0.000000E+00
3.824652E+03	1.005220E-03	0.000000E+00
3.834286E+03	1.008043E-03	0.000000E+00
3.843920E+03	1.010755E-03	0.000000E+00
3.853553E+03	1.013307E-03	0.000000E+00
3.863187E+03	1.015748E-03	0.000000E+00
3.872821E+03	1.018031E-03	0.000000E+00
3.882455E+03	1.020204E-03	0.000000E+00
3.892089E+03	1.022222E-03	0.000000E+00
3.901723E+03	1.024086E-03	0.000000E+00
3.911357E+03	1.025843E-03	0.000000E+00
3.920991E+03	1.027495E-03	0.000000E+00
3.930624E+03	1.028952E-03	0.000000E+00
3.940258E+03	1.030308E-03	0.000000E+00
3.949892E+03	1.031474E-03	0.000000E+00
3.959526E+03	1.032543E-03	0.000000E+00
3.969160E+03	1.033472E-03	0.000000E+00
3.978794E+03	1.034264E-03	0.000000E+00
3.988428E+03	1.034921E-03	0.000000E+00
3.998062E+03	1.035447E-03	0.000000E+00
4.007696E+03	1.035845E-03	0.000000E+00
4.017329E+03	1.036076E-03	0.000000E+00
4.026963E+03	1.036227E-03	0.000000E+00
4.036597E+03	1.036217E-03	0.000000E+00
4.046231E+03	1.036052E-03	0.000000E+00
4.055865E+03	1.035817E-03	0.000000E+00
4.065499E+03	1.035394E-03	0.000000E+00
4.075133E+03	1.034867E-03	0.000000E+00
4.084767E+03	1.034241E-03	0.000000E+00
4.094400E+03	1.033479E-03	0.000000E+00
4.104034E+03	1.032587E-03	0.000000E+00
4.113668E+03	1.031570E-03	0.000000E+00
4.123302E+03	1.030468E-03	0.000000E+00
4.132936E+03	1.029212E-03	0.000000E+00
4.142570E+03	1.027882E-03	0.000000E+00
4.152204E+03	1.026406E-03	0.000000E+00
4.161838E+03	1.024828E-03	0.000000E+00
4.171472E+03	1.023151E-03	0.000000E+00
4.181105E+03	1.021381E-03	0.000000E+00
4.190739E+03	1.019487E-03	0.000000E+00
4.200373E+03	1.017509E-03	0.000000E+00
4.210007E+03	1.015451E-03	0.000000E+00
4.219641E+03	1.013249E-03	0.000000E+00
4.229275E+03	1.011012E-03	0.000000E+00
4.238909E+03	1.008641E-03	0.000000E+00
4.248543E+03	1.006210E-03	0.000000E+00
4.258177E+03	1.003689E-03	0.000000E+00
4.267810E+03	1.001084E-03	0.000000E+00
4.277444E+03	9.983671E-04	0.000000E+00
4.287078E+03	9.956082E-04	0.000000E+00
4.296712E+03	9.927792E-04	0.000000E+00
4.306346E+03	9.898852E-04	0.000000E+00
4.315980E+03	9.868986E-04	0.000000E+00
4.325614E+03	9.838564E-04	0.000000E+00
4.335248E+03	9.807629E-04	0.000000E+00
4.344881E+03	9.775914E-04	0.000000E+00
4.354515E+03	9.743776E-04	0.000000E+00
4.364149E+03	9.711251E-04	0.000000E+00
4.373783E+03	9.677787E-04	0.000000E+00
4.383417E+03	9.644317E-04	0.000000E+00
4.393051E+03	9.610001E-04	0.000000E+00
4.402685E+03	9.575464E-04	0.000000E+00
4.412319E+03	9.540455E-04	0.000000E+00
4.421953E+03	9.505017E-04	0.000000E+00
4.431586E+03	9.469189E-04	0.000000E+00
4.441220E+03	9.433008E-04	0.000000E+00
4.450854E+03	9.396788E-04	0.000000E+00
4.460488E+03	9.360013E-04	0.000000E+00
4.470122E+03	9.322991E-04	0.000000E+00
4.479756E+03	9.286028E-04	0.000000E+00
4.489390E+03	9.248619E-04	0.000000E+00
4.499024E+03	9.211062E-04	0.000000E+00
4.508657E+03	9.173385E-04	0.000000E+00
4.518291E+03	9.135623E-04	0.000000E+00
4.527925E+03	9.097543E-04	0.000000E+00
4.537559E+03	9.059684E-04	0.000000E+00
4.547193E+03	9.021562E-04	0.000000E+00
4.556827E+03	8.983460E-04	0.000000E+00
4.566461E+03	8.945153E-04	0.000000E+00
4.576095E+03	8.907154E-04	0.000000E+00
4.585729E+03	8.868993E-04	0.000000E+00
4.595362E+03	8.830698E-04	0.000000E+00
4.604996E+03	8.792767E-04	0.000000E+00
4.614630E+03	8.754739E-04	0.000000E+00
4.624264E+03	8.716637E-04	0.000000E+00
4.633898E+03	8.678941E-04	0.000000E+00
4.643532E+03	8.641204E-04	0.000000E+00
4.653166E+03	8.603669E-04	0.000000E+00
4.662800E+03	8.566119E-04	0.000000E+00
4.672434E+03	8.528799E-04	0.000000E+00
4.682067E+03	8.491717E-04	0.000000E+00
4.691701E+03	8.454659E-04	0.000000E+00
4.701335E+03	8.417856E-04	0.000000E+00
4.710969E+03	8.381318E-04	0.000000E+00
4.720603E+03	8.345046E-04	0.000000E+00
4.730237E+03	8.308832E-04	0.000000E+00
4.739871E+03	8.272899E-04	0.000000E+00
4.749505E+03	8.237036E-04	0.000000E+00
4.759138E+03	8.201670E-04	0.000000E+00
4.768772E+03	8.166381E-04	0.000000E+00
4.778406E+03	8.131380E-04	0.000000E+00
4.788040E+03	8.096462E-04	0.000000E+00
4.797674E+03	8.062038E-04	0.000000E+00
4.807308E+03	8.027698E-04	0.000000E+00
4.816942E+03	7.993642E-04	0.000000E+00
4.826576E+03	7.959868E-04	0.000000E+00
4.836210E+03	7.926174E-04	0.000000E+00
4.845843E+03	7.892950E-04	0.000000E+00
4.855477E+03	7.859800E-04	0.000000E+00
4.865111E+03	7.827110E-04	0.000000E+00
4.874745E+03	7.794483E-04	0.000000E+00
4.884379E+03	7.762107E-04	0.000000E+00
4.894013E+03	7.729975E-04	0.000000E+00
4.903647E+03	7.698080E-04	0.000000E+00
4.913281E+03	7.666415E-04	0.000000E+00
4.922914E+03	7.634968E-04	0.000000E+00
4.932548E+03	7.603549E-04	0.000000E+00
4.942182E+03	7.572517E-04	0.000000E+00
4.951816E+03	7.541678E-04	0.000000E+00
4.961450E+03	7.511024E-04	0.000000E+00
4.971084E+03	7.480542E-04	0.000000E+00
4.980718E+03	7.450220E-04	0.000000E+00
4.990352E+03	7.420056E-04	0.000000E+00
4.999986E+03	7.390030E-04	0.000000E+00
5.009619E+03	7.360139E-04	0.000000E+00
5.019253E+03	7.330544E-04	0.000000E+00
5.028887E+03	7.300882E-04	0.000000E+00
5.038521E+03	7.271323E-04	0.000000E+00
5.048155E+03	7.242024E-04	0.000000E+00
5.057789E+03	7.212805E-04	0.000000E+00
5.067423E+03	7.183654E-04	0.000000E+00
5.077057E+03	7.154560E-04	0.000000E+00
5.086691E+03	7.125512E-04	0.000000E+00
5.096324E+03	7.096671E-04	0.000000E+00
5.105958E+03	7.067690E-04	0.000000E+00
5.115592E+03	7.038893E-04	0.000000E+00
5.125226E+03	7.010105E-04	0.000000E+00
5.134860E+03	6.981317E-04	0.000000E+00
5.144494E+03	6.952687E-04	0.000000E+00
5.154128E+03	6.924034E-04	0.000000E+00
5.163762E+03	6.895359E-04	0.000000E+00
5.173395E+03	6.866649E-04	0.000000E+00
5.183029E+03	6.838060E-04	0.000000E+00
5.192663E+03	6.809263E-04	0.000000E+00
5.202297E+03	6.780732E-04	0.000000E+00
5.211931E+03	6.751983E-04	0.000000E+00
5.221565E+03	6.723328E-04	0.000000E+00
5.231199E+03	6.694600E-04	0.000000E+00
5.240833E+03	6.665956E-04	0.000000E+00
5.250467E+03	6.637231E-04	0.000000E+00
5.260100E+03	6.608427E-04	0.000000E+00
5.269734E+03	6.579689E-04	0.000000E+00
5.279368E+03	6.550862E-04	0.000000E+00
5.289002E+03	6.521944E-04	0.000000E+00
5.298636E+03	6.493090E-04	0.000000E+00
5.308270E+03	6.464290E-04	0.000000E+00
5.317904E+03	6.435397E-04	0.000000E+00
5.327538E+03	6.406408E-04	0.000000E+00
5.337171E+03	6.377473E-04	0.000000E+00
5.346805E+03	6.348594E-04	0.000000E+00
5.356439E+03	6.319621E-04	0.000000E+00
5.366073E+03	6.290553E-04	0.000000E+00
5.375707E+03	6.261691E-04	0.000000E+00
5.385341E+03	6.232590E-04	0.000000E+00
5.394975E+03	6.203697E-04	0.000000E+00
5.404609E+03	6.174718E-04	0.000000E+00
5.414243E+03	6.145801E-04	0.000000E+00
5.423876E+03	6.116808E-04	0.000000E+00
5.433510E+03	6.087882E-04	0.000000E+00
5.443144E+03	6.059027E-04	0.000000E+00
5.452778E+03	6.030245E-04	0.000000E+00
5.462412E+03	6.001542E-04	0.000000E+00
5.472046E+03	5.972776E-04	0.000000E+00
5.481680E+03	5.944096E-04	0.000000E+00
5.491314E+03	5.915504E-04	0.000000E+00
5.500947E+03	5.887007E-04	0.000000E+00
5.510581E+03	5.858600E-04	0.000000E+00
5.520215E+03	5.830157E-04	0.000000E+00
5.529849E+03	5.801952E-04	0.000000E+00
5.539483E+03	5.773720E-04	0.000000E+00
5.549117E+03	5.745733E-04	0.000000E+00
5.558751E+03	5.717728E-04	0.000000E+00
5.568385E+03	5.689970E-04	0.000000E+00
5.578019E+03	5.662202E-04	0.000000E+00
5.587652E+03	5.634688E-04	0.000000E+00
5.597286E+03	5.607172E-04	0.000000E+00
5.606920E+03	5.579917E-04	0.000000E+00
5.616554E+03	5.552796E-04	0.000000E+00
5.626188E+03	5.525807E-04	0.000000E+00
5.635822E+03	5.498959E-04	0.000000E+00
5.645456E+03	5.472250E-04	0.000000E+00
5.655090E+03	5.445811E-04	0.000000E+00
5.664724E+03	5.419386E-04	0.000000E+00
5.674357E+03	5.393235E-04	0.000000E+00
5.683991E+03	5.367227E-04	0.000000E+00
5.693625E+03	5.341369E-04	0.000000E+00
5.703259E+03	5.315778E-04	0.000000E+00
5.712893E+03	5.290337E-04	0.000000E+00
5.722527E+03	5.265043E-04	0.000000E+00
5.732161E+03	5.239892E-04	0.000000E+00
5.741795E+03	5.215012E-04	0.000000E+00
5.751428E+03	5.190273E-04	0.000000E+00
5.761062E+03	5.165677E-04	0.000000E+00
5.770696E+03	5.141345E-04	0.000000E+00
5.780330E+03	5.117150E-04	0.000000E+00
5.789964E+03	5.093091E-04	0.000000E+00
5.799598E+03	5.069286E-04	0.000000E+00
5.809232E+03	5.045611E-04	0.000000E+00
5.818866E+03	5.022061E-04	0.000000E+00
5.828500E+03	4.998756E-04	0.000000E+00
5.838133E+03	4.975567E-04	0.000000E+00
5.847767E+03	4.952614E-04	0.000000E+00
5.857401E+03	4.929771E-04	0.000000E+00
5.867035E+03	4.907152E-04	0.000000E+00
5.876669E+03	4.884516E-04	0.000000E+00
5.886303E+03	4.862209E-04	0.000000E+00
5.895937E+03	4.839991E-04	0.000000E+00
5.905571E+03	4.817858E-04	0.000000E+00
5.915204E+03	4.795919E-04	0.000000E+00
5.924838E+03	4.774051E-04	0.000000E+00
5.934472E+03	4.752369E-04	0.000000E+00
5.944106E+03	4.730745E-04	0.000000E+00
5.953740E+03	4.709286E-04	0.000000E+00
5.963374E+03	4.687991E-04	0.000000E+00
5.973008E+03	4.666624E-04	0.000000E+00
5.982642E+03	4.645516E-04	0.000000E+00
5.992276E+03	4.624434E-04	0.000000E+00
6.001909E+03	4.603374E-04	0.000000E+00
6.011543E+03	4.582551E-04	0.000000E+00
6.021177E+03	4.561623E-04	0.000000E+00
6.030811E+03	4.540917E-04	0.000000E+00
6.040445E+03	4.520094E-04	0.000000E+00
6.050079E+03	4.499478E-04	0.000000E+00
6.059713E+03	4.478844E-04	0.000000E+00
6.069347E+03	4.458289E-04	0.000000E+00
6.078981E+03	4.437704E-04	0.000000E+00
6.088614E+03	4.417296E-04	0.000000E+00
6.098248E+03	4.396844E-04	0.000000E+00
6.107882E+03	4.376336E-04	0.000000E+00
6.117516E+03	4.355881E-04	0.000000E+00
6.127150E+03	4.335470E-04	0.000000E+00
6.136784E+03	4.315098E-04	0.000000E+00
6.146418E+03	4.294759E-04	0.000000E+00
6.156052E+03	4.274340E-04	0.000000E+00
6.165685E+03	4.253943E-04	0.000000E+00
6.175319E+03	4.233562E-04	0.000000E+00
6.184953E+03	4.213195E-04	0.000000E+00
6.194587E+03	4.192732E-04	0.000000E+00
6.204221E+03	4.172376E-04	0.000000E+00
6.213855E+03	4.151919E-04	0.000000E+00
6.223489E+03	4.131455E-04	0.000000E+00
6.233123E+03	4.111091E-04	0.000000E+00
6.242757E+03	4.090614E-04	0.000000E+00
6.252390E+03	4.070129E-04	0.000000E+00
6.262024E+03	4.049627E-04	0.000000E+00
6.271658E+03	4.029108E-04	0.000000E+00
6.281292E+03	4.008575E-04	0.000000E+00
6.290926E+03	3.988024E-04	0.000000E+00
6.300560E+03	3.967455E-04	0.000000E+00
6.310194E+03	3.946967E-04	0.000000E+00
6.319828E+03	3.926357E-04	0.000000E+00
6.329461E+03	3.905731E-04	0.000000E+00
6.339095E+03	3.885184E-04	0.000000E+00
6.348729E+03	3.864621E-04	0.000000E+00
6.358363E+03	3.844039E-04	0.000000E+00
6.367997E+03	3.823443E-04	0.000000E+00
6.377631E+03	3.802836E-04	0.000000E+00
6.387265E+03	3.782314E-04	0.000000E+00
6.396899E+03	3.761685E-04	0.000000E+00
6.406533E+03	3.741147E-04	0.000000E+00
6.416166E+03	3.720703E-04	0.000000E+00
6.425800E+03	3.700162E-04	0.000000E+00
6.435434E+03	3.679718E-04	0.000000E+00
6.445068E+03	3.659379E-04	0.000000E+00
6.454702E+03	3.638952E-04	0.000000E+00
6.464336E+03	3.618635E-04	0.000000E+00
6.473970E+03	3.598429E-04	0.000000E+00
6.483604E+03	3.578150E-04	0.000000E+00
6.493237E+03	3.557991E-04	0.000000E+00
6.502871E+03	3.537956E-04	0.000000E+00
6.512505E+03	3.517957E-04	0.000000E+00
6.522139E+03	3.498088E-04	0.000000E+00
6.531773E+03	3.478169E-04	0.000000E+00
6.541407E+03	3.458485E-04	0.000000E+00
6.551041E+03	3.438851E-04	0.000000E+00
6.560675E+03	3.419274E-04	0.000000E+00
6.570309E+03	3.399850E-04	0.000000E+00
6.579942E+03	3.380492E-04	0.000000E+00
6.589576E+03	3.361295E-04	0.000000E+00
6.599210E+03	3.342172E-04	0.000000E+00
6.608844E+03	3.323218E-04	0.000000E+00
6.618478E+03	3.304346E-04	0.000000E+00
6.628112E+03	3.285649E-04	0.000000E+00
6.637746E+03	3.267045E-04	0.000000E+00
6.647380E+03	3.248622E-04	0.000000E+00
6.657014E+03	3.230386E-04	0.000000E+00
6.666647E+03	3.212161E-04	0.000000E+00
6.676281E+03	3.194219E-04	0.000000E+00
6.685915E+03	3.176381E-04	0.000000E+00
6.695549E+03	3.158654E-04	0.000000E+00
6.705183E+03	3.141125E-04	0.000000E+00
6.714817E+03	3.123713E-04	0.000000E+00
6.724451E+03	3.106503E-04	0.000000E+00
6.734085E+03	3.089494E-04	0.000000E+00
6.743718E+03	3.072610E-04	0.000000E+00
6.753352E+03	3.055845E-04	0.000000E+00
6.762986E+03	3.039289E-04	0.000000E+00
6.772620E+03	3.022858E-04	0.000000E+00
6.782254E+03	3.006552E-04	0.000000E+00
6.791888E+03	2.990452E-04	0.000000E+00
6.801522E+03	2.974563E-04	0.000000E+00
6.811156E+03	2.958798E-04	0.000000E+00
6.820790E+03	2.943158E-04	0.000000E+00
6.830423E+03	2.927644E-04	0.000000E+00
6.840057E+03	2.912336E-04	0.000000E+00
6.849691E+03	2.897228E-04	0.000000E+00
6.859325E+03	2.882166E-04	0.000000E+00
6.868959E+03	2.867302E-04	0.000000E+00
6.878593E+03	2.852557E-04	0.000000E+00
6.888227E+03	2.837928E-04	0.000000E+00
6.897861E+03	2.823492E-04	0.000000E+00
6.907494E+03	2.809170E-04	0.000000E+00
6.917128E+03	2.794959E-04	0.000000E+00
6.926762E+03	2.780852E-04	0.000000E+00
6.936396E+03	2.766850E-04	0.000000E+00
6.946030E+03	2.753029E-04	0.000000E+00
6.955664E+03	2.739229E-04	0.000000E+00
6.965298E+03	2.725600E-04	0.000000E+00
6.974932E+03	2.712062E-04	0.000000E+00
6.984566E+03	2.698538E-04	0.000000E+00
6.994199E+03	2.685173E-04	0.000000E+00
7.003833E+03	2.671888E-04	0.000000E+00
7.013467E+03	2.658607E-04	0.000000E+00
7.023101E+03	2.645473E-04	0.000000E+00
7.032735E+03	2.632408E-04	0.000000E+00
7.042369E+03	2.619335E-04	0.000000E+00
7.052003E+03	2.606397E-04	0.000000E+00
7.061637E+03	2.593442E-04	0.000000E+00
7.071271E+03	2.580541E-04	0.000000E+00
7.080904E+03	2.567689E-04	0.000000E+00
7.090538E+03	2.554811E-04	0.000000E+00
7.100172E+03	2.542046E-04	0.000000E+00
7.109806E+03	2.529246E-04	0.000000E+00
7.119440E+03	2.516480E-04	0.000000E+00
7.129074E+03	2.503743E-04	0.000000E+00
7.138708E+03	2.490962E-04	0.000000E+00
7.148342E+03	2.478203E-04	0.000000E+00
7.157975E+03	2.465462E-04	0.000000E+00
7.167609E+03	2.452667E-04	0.000000E+00
7.177243E+03	2.439884E-04	0.000000E+00
7.186877E+03	2.427041E-04	0.000000E+00
7.196511E+03	2.414203E-04	0.000000E+00
7.206145E+03	2.401368E-04	0.000000E+00
7.215779E+03	2.388465E-04	0.000000E+00
7.225413E+03	2.375559E-04	0.000000E+00
7.235047E+03	2.362580E-04	0.000000E+00
7.244680E+03	2.349594E-04	0.000000E+00
7.254314E+03	2.336531E-04	0.000000E+00
7.263948E+03	2.323391E-04	0.000000E+00
7.273582E+03	2.310237E-04	0.000000E+00
7.283216E+03	2.297069E-04	0.000000E+00
7.292850E+03	2.283819E-04	0.000000E+00
7.302484E+03	2.270487E-04	0.000000E+00
7.312118E+03	2.257072E-04	0.000000E+00
7.321751E+03	2.243639E-04	0.000000E+00
7.331385E+03	2.230187E-04	0.000000E+00
7.341019E+03	2.216651E-04	0.000000E+00
7.350653E+03	2.203032E-04	0.000000E+00
7.360287E+03	2.189331E-04	0.000000E+00
7.369921E+03	2.175611E-04	0.000000E+00
7.379555E+03	2.161810E-04	0.000000E+00
7.389189E+03	2.147929E-04	0.000000E+00
7.398823E+03	2.133971E-04	0.000000E+00
7.408456E+03	2.119997E-04	0.000000E+00
7.418090E+03	2.105949E-04	0.000000E+00
7.427724E+03	2.091889E-04	0.000000E+00
7.437358E+03	2.077697E-04	0.000000E+00
7.446992E+03	2.063497E-04	0.000000E+00
7.456626E+03	2.049232E-04	0.000000E+00
7.466260E+03	2.034903E-04	0.000000E+00
7.475894E+03	2.020574E-04	0.000000E+00
