#wls	flux	fluxerr
1.541421E+03	2.527759E-05	0.000000E+00
1.579957E+03	2.573004E-05	0.000000E+00
1.618492E+03	2.619237E-05	0.000000E+00
1.657028E+03	2.666913E-05	0.000000E+00
1.695564E+03	2.716045E-05	0.000000E+00
1.734099E+03	2.766157E-05	0.000000E+00
1.772635E+03	2.817718E-05	0.000000E+00
1.811170E+03	2.870230E-05	0.000000E+00
1.849706E+03	2.924166E-05	0.000000E+00
1.888241E+03	2.979003E-05	0.000000E+00
1.926777E+03	3.035738E-05	0.000000E+00
1.965312E+03	3.093317E-05	0.000000E+00
2.003848E+03	3.151684E-05	0.000000E+00
2.042383E+03	3.211866E-05	0.000000E+00
2.080919E+03	3.272737E-05	0.000000E+00
2.119454E+03	3.334780E-05	0.000000E+00
2.157990E+03	3.397932E-05	0.000000E+00
2.196525E+03	3.461544E-05	0.000000E+00
2.235061E+03	3.526684E-05	0.000000E+00
2.273597E+03	3.592094E-05	0.000000E+00
2.312132E+03	3.658252E-05	0.000000E+00
2.350668E+03	3.725046E-05	0.000000E+00
2.389203E+03	3.792352E-05	0.000000E+00
2.427739E+03	3.860035E-05	0.000000E+00
2.466274E+03	3.927949E-05	0.000000E+00
2.504810E+03	3.995936E-05	0.000000E+00
2.543345E+03	4.063825E-05	0.000000E+00
2.581881E+03	4.131437E-05	0.000000E+00
2.620416E+03	4.197910E-05	0.000000E+00
2.658952E+03	4.264373E-05	0.000000E+00
2.697487E+03	4.329954E-05	0.000000E+00
2.736023E+03	4.394430E-05	0.000000E+00
2.774558E+03	4.457574E-05	0.000000E+00
2.813094E+03	4.519150E-05	0.000000E+00
2.851630E+03	4.578918E-05	0.000000E+00
2.890165E+03	4.636635E-05	0.000000E+00
2.899799E+03	4.650781E-05	0.000000E+00
2.909433E+03	4.664736E-05	0.000000E+00
2.919067E+03	4.678496E-05	0.000000E+00
2.928701E+03	4.692055E-05	0.000000E+00
2.938334E+03	4.705411E-05	0.000000E+00
2.947968E+03	4.718559E-05	0.000000E+00
2.957602E+03	4.732212E-05	0.000000E+00
2.967236E+03	4.744934E-05	0.000000E+00
2.976870E+03	4.757436E-05	0.000000E+00
2.986504E+03	4.770434E-05	0.000000E+00
2.996138E+03	4.782486E-05	0.000000E+00
3.005772E+03	4.795029E-05	0.000000E+00
3.015406E+03	4.807338E-05	0.000000E+00
3.025039E+03	4.819409E-05	0.000000E+00
3.034673E+03	4.830517E-05	0.000000E+00
3.044307E+03	4.842102E-05	0.000000E+00
3.053941E+03	4.853440E-05	0.000000E+00
3.063575E+03	4.864526E-05	0.000000E+00
3.073209E+03	4.875355E-05	0.000000E+00
3.082843E+03	4.885922E-05	0.000000E+00
3.092477E+03	4.896955E-05	0.000000E+00
3.102110E+03	4.906998E-05	0.000000E+00
3.111744E+03	4.916775E-05	0.000000E+00
3.121378E+03	4.926275E-05	0.000000E+00
3.131012E+03	4.936226E-05	0.000000E+00
3.140646E+03	4.945168E-05	0.000000E+00
3.150280E+03	4.954562E-05	0.000000E+00
3.159914E+03	4.962942E-05	0.000000E+00
3.169548E+03	4.971758E-05	0.000000E+00
3.179182E+03	4.980288E-05	0.000000E+00
3.188815E+03	4.988523E-05	0.000000E+00
3.198449E+03	4.995734E-05	0.000000E+00
3.208083E+03	5.003372E-05	0.000000E+00
3.217717E+03	5.010714E-05	0.000000E+00
3.227351E+03	5.017746E-05	0.000000E+00
3.236985E+03	5.024477E-05	0.000000E+00
3.246619E+03	5.030893E-05	0.000000E+00
3.256253E+03	5.037731E-05	0.000000E+00
3.265887E+03	5.043526E-05	0.000000E+00
3.275520E+03	5.049006E-05	0.000000E+00
3.285154E+03	5.054170E-05	0.000000E+00
3.294788E+03	5.059742E-05	0.000000E+00
3.304422E+03	5.064267E-05	0.000000E+00
3.314056E+03	5.069194E-05	0.000000E+00
3.323690E+03	5.073074E-05	0.000000E+00
3.333324E+03	5.077351E-05	0.000000E+00
3.342958E+03	5.080581E-05	0.000000E+00
3.352591E+03	5.084208E-05	0.000000E+00
3.362225E+03	5.087501E-05	0.000000E+00
3.371859E+03	5.089746E-05	0.000000E+00
3.381493E+03	5.092379E-05	0.000000E+00
3.391127E+03	5.094683E-05	0.000000E+00
3.400761E+03	5.096652E-05	0.000000E+00
3.410395E+03	5.098291E-05	0.000000E+00
3.420029E+03	5.099595E-05	0.000000E+00
3.429663E+03	5.100565E-05	0.000000E+00
3.439296E+03	5.101206E-05	0.000000E+00
3.448930E+03	5.101511E-05	0.000000E+00
3.458564E+03	5.101482E-05	0.000000E+00
3.468198E+03	5.101826E-05	0.000000E+00
3.477832E+03	5.101133E-05	0.000000E+00
3.487466E+03	5.100110E-05	0.000000E+00
3.497100E+03	5.098752E-05	0.000000E+00
3.506734E+03	5.097767E-05	0.000000E+00
3.516367E+03	5.095750E-05	0.000000E+00
3.526001E+03	5.093403E-05	0.000000E+00
3.535635E+03	5.091429E-05	0.000000E+00
3.545269E+03	5.088427E-05	0.000000E+00
3.554903E+03	5.085799E-05	0.000000E+00
3.564537E+03	5.082152E-05	0.000000E+00
3.574171E+03	5.078874E-05	0.000000E+00
3.583805E+03	5.075270E-05	0.000000E+00
3.593439E+03	5.070663E-05	0.000000E+00
3.603072E+03	5.066425E-05	0.000000E+00
3.612706E+03	5.061871E-05	0.000000E+00
3.622340E+03	5.056323E-05	0.000000E+00
3.631974E+03	5.051144E-05	0.000000E+00
3.641608E+03	5.045659E-05	0.000000E+00
3.651242E+03	5.039190E-05	0.000000E+00
3.660876E+03	5.033094E-05	0.000000E+00
3.670510E+03	5.026698E-05	0.000000E+00
3.680144E+03	5.020001E-05	0.000000E+00
3.689777E+03	5.013008E-05	0.000000E+00
3.699411E+03	5.005729E-05	0.000000E+00
3.709045E+03	4.997494E-05	0.000000E+00
3.718679E+03	4.989638E-05	0.000000E+00
3.728313E+03	4.981501E-05	0.000000E+00
3.737947E+03	4.973087E-05	0.000000E+00
3.747581E+03	4.964397E-05	0.000000E+00
3.757215E+03	4.955435E-05	0.000000E+00
3.766848E+03	4.946206E-05	0.000000E+00
3.776482E+03	4.936711E-05	0.000000E+00
3.786116E+03	4.926959E-05	0.000000E+00
3.795750E+03	4.916954E-05	0.000000E+00
3.805384E+03	4.906693E-05	0.000000E+00
3.815018E+03	4.896184E-05	0.000000E+00
3.824652E+03	4.885437E-05	0.000000E+00
3.834286E+03	4.874448E-05	0.000000E+00
3.843920E+03	4.862596E-05	0.000000E+00
3.853553E+03	4.851147E-05	0.000000E+00
3.863187E+03	4.839473E-05	0.000000E+00
3.872821E+03	4.827577E-05	0.000000E+00
3.882455E+03	4.815464E-05	0.000000E+00
3.892089E+03	4.803139E-05	0.000000E+00
3.901723E+03	4.790608E-05	0.000000E+00
3.911357E+03	4.777875E-05	0.000000E+00
3.920991E+03	4.764944E-05	0.000000E+00
3.930624E+03	4.751820E-05	0.000000E+00
3.940258E+03	4.738509E-05	0.000000E+00
3.949892E+03	4.725014E-05	0.000000E+00
3.959526E+03	4.710748E-05	0.000000E+00
3.969160E+03	4.696904E-05	0.000000E+00
3.978794E+03	4.682892E-05	0.000000E+00
3.988428E+03	4.668717E-05	0.000000E+00
3.998062E+03	4.654383E-05	0.000000E+00
4.007696E+03	4.639315E-05	0.000000E+00
4.017329E+03	4.624681E-05	0.000000E+00
4.026963E+03	4.609904E-05	0.000000E+00
4.036597E+03	4.594416E-05	0.000000E+00
4.046231E+03	4.579369E-05	0.000000E+00
4.055865E+03	4.564192E-05	0.000000E+00
4.065499E+03	4.548328E-05	0.000000E+00
4.075133E+03	4.532911E-05	0.000000E+00
4.084767E+03	4.516822E-05	0.000000E+00
4.094400E+03	4.501183E-05	0.000000E+00
4.104034E+03	4.484888E-05	0.000000E+00
4.113668E+03	4.468499E-05	0.000000E+00
4.123302E+03	4.452566E-05	0.000000E+00
4.132936E+03	4.435999E-05	0.000000E+00
4.142570E+03	4.419353E-05	0.000000E+00
4.152204E+03	4.403168E-05	0.000000E+00
4.161838E+03	4.386372E-05	0.000000E+00
4.171472E+03	4.369509E-05	0.000000E+00
4.181105E+03	4.352586E-05	0.000000E+00
4.190739E+03	4.335604E-05	0.000000E+00
4.200373E+03	4.318570E-05	0.000000E+00
4.210007E+03	4.301487E-05	0.000000E+00
4.219641E+03	4.284360E-05	0.000000E+00
4.229275E+03	4.267193E-05	0.000000E+00
4.238909E+03	4.249990E-05	0.000000E+00
4.248543E+03	4.232248E-05	0.000000E+00
4.258177E+03	4.214989E-05	0.000000E+00
4.267810E+03	4.197706E-05	0.000000E+00
4.277444E+03	4.179905E-05	0.000000E+00
4.287078E+03	4.162590E-05	0.000000E+00
4.296712E+03	4.144769E-05	0.000000E+00
4.306346E+03	4.127437E-05	0.000000E+00
4.315980E+03	4.109612E-05	0.000000E+00
4.325614E+03	4.091792E-05	0.000000E+00
4.335248E+03	4.074464E-05	0.000000E+00
4.344881E+03	4.056662E-05	0.000000E+00
4.354515E+03	4.038875E-05	0.000000E+00
4.364149E+03	4.021106E-05	0.000000E+00
4.373783E+03	4.003360E-05	0.000000E+00
4.383417E+03	3.985639E-05	0.000000E+00
4.393051E+03	3.967945E-05	0.000000E+00
4.402685E+03	3.949820E-05	0.000000E+00
4.412319E+03	3.932194E-05	0.000000E+00
4.421953E+03	3.914606E-05	0.000000E+00
4.431586E+03	3.896602E-05	0.000000E+00
4.441220E+03	3.879098E-05	0.000000E+00
4.450854E+03	3.861190E-05	0.000000E+00
4.460488E+03	3.843335E-05	0.000000E+00
4.470122E+03	3.825980E-05	0.000000E+00
4.479756E+03	3.808236E-05	0.000000E+00
4.489390E+03	3.790551E-05	0.000000E+00
4.499024E+03	3.772930E-05	0.000000E+00
4.508657E+03	3.755372E-05	0.000000E+00
4.518291E+03	3.737882E-05	0.000000E+00
4.527925E+03	3.720460E-05	0.000000E+00
4.537559E+03	3.702683E-05	0.000000E+00
4.547193E+03	3.685407E-05	0.000000E+00
4.556827E+03	3.667784E-05	0.000000E+00
4.566461E+03	3.650661E-05	0.000000E+00
4.576095E+03	3.633199E-05	0.000000E+00
4.585729E+03	3.615821E-05	0.000000E+00
4.595362E+03	3.598941E-05	0.000000E+00
4.604996E+03	3.581733E-05	0.000000E+00
4.614630E+03	3.564615E-05	0.000000E+00
4.624264E+03	3.547586E-05	0.000000E+00
4.633898E+03	3.530246E-05	0.000000E+00
4.643532E+03	3.513402E-05	0.000000E+00
4.653166E+03	3.496652E-05	0.000000E+00
4.662800E+03	3.479601E-05	0.000000E+00
4.672434E+03	3.463042E-05	0.000000E+00
4.682067E+03	3.446189E-05	0.000000E+00
4.691701E+03	3.429826E-05	0.000000E+00
4.701335E+03	3.413174E-05	0.000000E+00
4.710969E+03	3.396626E-05	0.000000E+00
4.720603E+03	3.380181E-05	0.000000E+00
4.730237E+03	3.363840E-05	0.000000E+00
4.739871E+03	3.347604E-05	0.000000E+00
4.749505E+03	3.331473E-05	0.000000E+00
4.759138E+03	3.315075E-05	0.000000E+00
4.768772E+03	3.299157E-05	0.000000E+00
4.778406E+03	3.282977E-05	0.000000E+00
4.788040E+03	3.267274E-05	0.000000E+00
4.797674E+03	3.251314E-05	0.000000E+00
4.807308E+03	3.235464E-05	0.000000E+00
4.816942E+03	3.219725E-05	0.000000E+00
4.826576E+03	3.204098E-05	0.000000E+00
4.836210E+03	3.188582E-05	0.000000E+00
4.845843E+03	3.173177E-05	0.000000E+00
4.855477E+03	3.157882E-05	0.000000E+00
4.865111E+03	3.142350E-05	0.000000E+00
4.874745E+03	3.127279E-05	0.000000E+00
4.884379E+03	3.111973E-05	0.000000E+00
4.894013E+03	3.097125E-05	0.000000E+00
4.903647E+03	3.082045E-05	0.000000E+00
4.913281E+03	3.067079E-05	0.000000E+00
4.922914E+03	3.052226E-05	0.000000E+00
4.932548E+03	3.037485E-05	0.000000E+00
4.942182E+03	3.022857E-05	0.000000E+00
4.951816E+03	3.008340E-05	0.000000E+00
4.961450E+03	2.993605E-05	0.000000E+00
4.971084E+03	2.979313E-05	0.000000E+00
4.980718E+03	2.964804E-05	0.000000E+00
4.990352E+03	2.950734E-05	0.000000E+00
4.999986E+03	2.936450E-05	0.000000E+00
5.009619E+03	2.922278E-05	0.000000E+00
5.019253E+03	2.908217E-05	0.000000E+00
5.028887E+03	2.894267E-05	0.000000E+00
5.038521E+03	2.880428E-05	0.000000E+00
5.048155E+03	2.866697E-05	0.000000E+00
5.057789E+03	2.853076E-05	0.000000E+00
5.067423E+03	2.839251E-05	0.000000E+00
5.077057E+03	2.825846E-05	0.000000E+00
5.086691E+03	2.812240E-05	0.000000E+00
5.096324E+03	2.799048E-05	0.000000E+00
5.105958E+03	2.785657E-05	0.000000E+00
5.115592E+03	2.772374E-05	0.000000E+00
5.125226E+03	2.759197E-05	0.000000E+00
5.134860E+03	2.746125E-05	0.000000E+00
5.144494E+03	2.733158E-05	0.000000E+00
5.154128E+03	2.720295E-05	0.000000E+00
5.163762E+03	2.707240E-05	0.000000E+00
5.173395E+03	2.694584E-05	0.000000E+00
5.183029E+03	2.681736E-05	0.000000E+00
5.192663E+03	2.669282E-05	0.000000E+00
5.202297E+03	2.656639E-05	0.000000E+00
5.211931E+03	2.644097E-05	0.000000E+00
5.221565E+03	2.631941E-05	0.000000E+00
5.231199E+03	2.619598E-05	0.000000E+00
5.240833E+03	2.607353E-05	0.000000E+00
5.250467E+03	2.595205E-05	0.000000E+00
5.260100E+03	2.582875E-05	0.000000E+00
5.269734E+03	2.570921E-05	0.000000E+00
5.279368E+03	2.559062E-05	0.000000E+00
5.289002E+03	2.547021E-05	0.000000E+00
5.298636E+03	2.535350E-05	0.000000E+00
5.308270E+03	2.523498E-05	0.000000E+00
5.317904E+03	2.511739E-05	0.000000E+00
5.327538E+03	2.500344E-05	0.000000E+00
5.337171E+03	2.488768E-05	0.000000E+00
5.346805E+03	2.477283E-05	0.000000E+00
5.356439E+03	2.465888E-05	0.000000E+00
5.366073E+03	2.454582E-05	0.000000E+00
5.375707E+03	2.443100E-05	0.000000E+00
5.385341E+03	2.431969E-05	0.000000E+00
5.394975E+03	2.420925E-05	0.000000E+00
5.404609E+03	2.409705E-05	0.000000E+00
5.414243E+03	2.398831E-05	0.000000E+00
5.423876E+03	2.387783E-05	0.000000E+00
5.433510E+03	2.376819E-05	0.000000E+00
5.443144E+03	2.366193E-05	0.000000E+00
5.452778E+03	2.355394E-05	0.000000E+00
5.462412E+03	2.344677E-05	0.000000E+00
5.472046E+03	2.334041E-05	0.000000E+00
5.481680E+03	2.323485E-05	0.000000E+00
5.491314E+03	2.313007E-05	0.000000E+00
5.500947E+03	2.302360E-05	0.000000E+00
5.510581E+03	2.292039E-05	0.000000E+00
5.520215E+03	2.281795E-05	0.000000E+00
5.529849E+03	2.271380E-05	0.000000E+00
5.539483E+03	2.261287E-05	0.000000E+00
5.549117E+03	2.251024E-05	0.000000E+00
5.558751E+03	2.240836E-05	0.000000E+00
5.568385E+03	2.230962E-05	0.000000E+00
5.578019E+03	2.220920E-05	0.000000E+00
5.587652E+03	2.210951E-05	0.000000E+00
5.597286E+03	2.201053E-05	0.000000E+00
5.606920E+03	2.191225E-05	0.000000E+00
5.616554E+03	2.181467E-05	0.000000E+00
5.626188E+03	2.171778E-05	0.000000E+00
5.635822E+03	2.162156E-05	0.000000E+00
5.645456E+03	2.152370E-05	0.000000E+00
5.655090E+03	2.142883E-05	0.000000E+00
5.664724E+03	2.133461E-05	0.000000E+00
5.674357E+03	2.123875E-05	0.000000E+00
5.683991E+03	2.114583E-05	0.000000E+00
5.693625E+03	2.105127E-05	0.000000E+00
5.703259E+03	2.095736E-05	0.000000E+00
5.712893E+03	2.086631E-05	0.000000E+00
5.722527E+03	2.077365E-05	0.000000E+00
5.732161E+03	2.068160E-05	0.000000E+00
5.741795E+03	2.059016E-05	0.000000E+00
5.751428E+03	2.049932E-05	0.000000E+00
5.761062E+03	2.040908E-05	0.000000E+00
5.770696E+03	2.031942E-05	0.000000E+00
5.780330E+03	2.023034E-05	0.000000E+00
5.789964E+03	2.014183E-05	0.000000E+00
5.799598E+03	2.005174E-05	0.000000E+00
5.809232E+03	1.996436E-05	0.000000E+00
5.818866E+03	1.987754E-05	0.000000E+00
5.828500E+03	1.978913E-05	0.000000E+00
5.838133E+03	1.970339E-05	0.000000E+00
5.847767E+03	1.961607E-05	0.000000E+00
5.857401E+03	1.953139E-05	0.000000E+00
5.867035E+03	1.944513E-05	0.000000E+00
5.876669E+03	1.936148E-05	0.000000E+00
5.886303E+03	1.927627E-05	0.000000E+00
5.895937E+03	1.919156E-05	0.000000E+00
5.905571E+03	1.910736E-05	0.000000E+00
5.915204E+03	1.902366E-05	0.000000E+00
5.924838E+03	1.894045E-05	0.000000E+00
5.934472E+03	1.885773E-05	0.000000E+00
5.944106E+03	1.877549E-05	0.000000E+00
5.953740E+03	1.869372E-05	0.000000E+00
5.963374E+03	1.861242E-05	0.000000E+00
5.973008E+03	1.853159E-05	0.000000E+00
5.982642E+03	1.845121E-05	0.000000E+00
5.992276E+03	1.837127E-05	0.000000E+00
6.001909E+03	1.828982E-05	0.000000E+00
6.011543E+03	1.821078E-05	0.000000E+00
6.021177E+03	1.813217E-05	0.000000E+00
6.030811E+03	1.805205E-05	0.000000E+00
6.040445E+03	1.797431E-05	0.000000E+00
6.050079E+03	1.789505E-05	0.000000E+00
6.059713E+03	1.781814E-05	0.000000E+00
6.069347E+03	1.773973E-05	0.000000E+00
6.078981E+03	1.766173E-05	0.000000E+00
6.088614E+03	1.758605E-05	0.000000E+00
6.098248E+03	1.750886E-05	0.000000E+00
6.107882E+03	1.743209E-05	0.000000E+00
6.117516E+03	1.735758E-05	0.000000E+00
6.127150E+03	1.728158E-05	0.000000E+00
6.136784E+03	1.720598E-05	0.000000E+00
6.146418E+03	1.713076E-05	0.000000E+00
6.156052E+03	1.705592E-05	0.000000E+00
6.165685E+03	1.698146E-05	0.000000E+00
6.175319E+03	1.690737E-05	0.000000E+00
6.184953E+03	1.683364E-05	0.000000E+00
6.194587E+03	1.676029E-05	0.000000E+00
6.204221E+03	1.668729E-05	0.000000E+00
6.213855E+03	1.661465E-05	0.000000E+00
6.223489E+03	1.654057E-05	0.000000E+00
6.233123E+03	1.646864E-05	0.000000E+00
6.242757E+03	1.639705E-05	0.000000E+00
6.252390E+03	1.632581E-05	0.000000E+00
6.262024E+03	1.625315E-05	0.000000E+00
6.271658E+03	1.618258E-05	0.000000E+00
6.281292E+03	1.611235E-05	0.000000E+00
6.290926E+03	1.604071E-05	0.000000E+00
6.300560E+03	1.597114E-05	0.000000E+00
6.310194E+03	1.590018E-05	0.000000E+00
6.319828E+03	1.583127E-05	0.000000E+00
6.329461E+03	1.576096E-05	0.000000E+00
6.339095E+03	1.569268E-05	0.000000E+00
6.348729E+03	1.562302E-05	0.000000E+00
6.358363E+03	1.555369E-05	0.000000E+00
6.367997E+03	1.548635E-05	0.000000E+00
6.377631E+03	1.541765E-05	0.000000E+00
6.387265E+03	1.534926E-05	0.000000E+00
6.396899E+03	1.528286E-05	0.000000E+00
6.406533E+03	1.521509E-05	0.000000E+00
6.416166E+03	1.514763E-05	0.000000E+00
6.425800E+03	1.508048E-05	0.000000E+00
6.435434E+03	1.501364E-05	0.000000E+00
6.445068E+03	1.494710E-05	0.000000E+00
6.454702E+03	1.488248E-05	0.000000E+00
6.464336E+03	1.481654E-05	0.000000E+00
6.473970E+03	1.475089E-05	0.000000E+00
6.483604E+03	1.468554E-05	0.000000E+00
6.493237E+03	1.462049E-05	0.000000E+00
6.502871E+03	1.455414E-05	0.000000E+00
6.512505E+03	1.448968E-05	0.000000E+00
6.522139E+03	1.442551E-05	0.000000E+00
6.531773E+03	1.436162E-05	0.000000E+00
6.541407E+03	1.429802E-05	0.000000E+00
6.551041E+03	1.423471E-05	0.000000E+00
6.560675E+03	1.417168E-05	0.000000E+00
6.570309E+03	1.410740E-05	0.000000E+00
6.579942E+03	1.404494E-05	0.000000E+00
6.589576E+03	1.398277E-05	0.000000E+00
6.599210E+03	1.391935E-05	0.000000E+00
6.608844E+03	1.385774E-05	0.000000E+00
6.618478E+03	1.379641E-05	0.000000E+00
6.628112E+03	1.373385E-05	0.000000E+00
6.637746E+03	1.367307E-05	0.000000E+00
6.647380E+03	1.361108E-05	0.000000E+00
6.657014E+03	1.355087E-05	0.000000E+00
6.666647E+03	1.348944E-05	0.000000E+00
6.676281E+03	1.342977E-05	0.000000E+00
6.685915E+03	1.336890E-05	0.000000E+00
6.695549E+03	1.330978E-05	0.000000E+00
6.705183E+03	1.324948E-05	0.000000E+00
6.714817E+03	1.318945E-05	0.000000E+00
6.724451E+03	1.313114E-05	0.000000E+00
6.734085E+03	1.307167E-05	0.000000E+00
6.743718E+03	1.301247E-05	0.000000E+00
6.753352E+03	1.295355E-05	0.000000E+00
6.762986E+03	1.289633E-05	0.000000E+00
6.772620E+03	1.283796E-05	0.000000E+00
6.782254E+03	1.277987E-05	0.000000E+00
6.791888E+03	1.272204E-05	0.000000E+00
6.801522E+03	1.266450E-05	0.000000E+00
6.811156E+03	1.260723E-05	0.000000E+00
6.820790E+03	1.255023E-05	0.000000E+00
6.830423E+03	1.249350E-05	0.000000E+00
6.840057E+03	1.243705E-05	0.000000E+00
6.849691E+03	1.238086E-05	0.000000E+00
6.859325E+03	1.232495E-05	0.000000E+00
6.868959E+03	1.226931E-05	0.000000E+00
6.878593E+03	1.221394E-05	0.000000E+00
6.888227E+03	1.215884E-05	0.000000E+00
6.897861E+03	1.210401E-05	0.000000E+00
6.907494E+03	1.204945E-05	0.000000E+00
6.917128E+03	1.199382E-05	0.000000E+00
6.926762E+03	1.193980E-05	0.000000E+00
6.936396E+03	1.188605E-05	0.000000E+00
6.946030E+03	1.183125E-05	0.000000E+00
6.955664E+03	1.177804E-05	0.000000E+00
6.965298E+03	1.172509E-05	0.000000E+00
6.974932E+03	1.167112E-05	0.000000E+00
6.984566E+03	1.161871E-05	0.000000E+00
6.994199E+03	1.156528E-05	0.000000E+00
7.003833E+03	1.151341E-05	0.000000E+00
7.013467E+03	1.146053E-05	0.000000E+00
7.023101E+03	1.140920E-05	0.000000E+00
7.032735E+03	1.135687E-05	0.000000E+00
7.042369E+03	1.130607E-05	0.000000E+00
7.052003E+03	1.125428E-05	0.000000E+00
7.061637E+03	1.120277E-05	0.000000E+00
7.071271E+03	1.115153E-05	0.000000E+00
7.080904E+03	1.110181E-05	0.000000E+00
7.090538E+03	1.105112E-05	0.000000E+00
7.100172E+03	1.100071E-05	0.000000E+00
7.109806E+03	1.095057E-05	0.000000E+00
7.119440E+03	1.090071E-05	0.000000E+00
7.129074E+03	1.085112E-05	0.000000E+00
7.138708E+03	1.080181E-05	0.000000E+00
7.148342E+03	1.075277E-05	0.000000E+00
7.157975E+03	1.070401E-05	0.000000E+00
7.167609E+03	1.065552E-05	0.000000E+00
7.177243E+03	1.060732E-05	0.000000E+00
7.186877E+03	1.055939E-05	0.000000E+00
7.196511E+03	1.051173E-05	0.000000E+00
7.206145E+03	1.046436E-05	0.000000E+00
7.215779E+03	1.041608E-05	0.000000E+00
7.225413E+03	1.036927E-05	0.000000E+00
7.235047E+03	1.032273E-05	0.000000E+00
7.244680E+03	1.027531E-05	0.000000E+00
7.254314E+03	1.022934E-05	0.000000E+00
7.263948E+03	1.018250E-05	0.000000E+00
7.273582E+03	1.013709E-05	0.000000E+00
7.283216E+03	1.009082E-05	0.000000E+00
7.292850E+03	1.004598E-05	0.000000E+00
7.302484E+03	1.000029E-05	0.000000E+00
7.312118E+03	9.956023E-06	0.000000E+00
7.321751E+03	9.910913E-06	0.000000E+00
7.331385E+03	9.866099E-06	0.000000E+00
7.341019E+03	9.822691E-06	0.000000E+00
7.350653E+03	9.778459E-06	0.000000E+00
7.360287E+03	9.734528E-06	0.000000E+00
7.369921E+03	9.690887E-06	0.000000E+00
7.379555E+03	9.647547E-06	0.000000E+00
7.389189E+03	9.604508E-06	0.000000E+00
7.398823E+03	9.561765E-06	0.000000E+00
7.408456E+03	9.519322E-06	0.000000E+00
7.418090E+03	9.477180E-06	0.000000E+00
7.427724E+03	9.435343E-06	0.000000E+00
7.437358E+03	9.393807E-06	0.000000E+00
7.446992E+03	9.352577E-06	0.000000E+00
7.456626E+03	9.310590E-06	0.000000E+00
7.466260E+03	9.269976E-06	0.000000E+00
7.475894E+03	9.229672E-06	0.000000E+00
