#wls	flux	fluxerr
1.541421E+03	1.849843E-06	0.000000E+00
1.579957E+03	1.869644E-06	0.000000E+00
1.618492E+03	1.890256E-06	0.000000E+00
1.657028E+03	1.910654E-06	0.000000E+00
1.695564E+03	1.931155E-06	0.000000E+00
1.734099E+03	1.951737E-06	0.000000E+00
1.772635E+03	1.972729E-06	0.000000E+00
1.811170E+03	1.993406E-06	0.000000E+00
1.849706E+03	2.014448E-06	0.000000E+00
1.888241E+03	2.035477E-06	0.000000E+00
1.926777E+03	2.056463E-06	0.000000E+00
1.965312E+03	2.077376E-06	0.000000E+00
2.003848E+03	2.098182E-06	0.000000E+00
2.042383E+03	2.118849E-06	0.000000E+00
2.080919E+03	2.139719E-06	0.000000E+00
2.119454E+03	2.160001E-06	0.000000E+00
2.157990E+03	2.180418E-06	0.000000E+00
2.196525E+03	2.200162E-06	0.000000E+00
2.235061E+03	2.219967E-06	0.000000E+00
2.273597E+03	2.239404E-06	0.000000E+00
2.312132E+03	2.258430E-06	0.000000E+00
2.350668E+03	2.277402E-06	0.000000E+00
2.389203E+03	2.295474E-06	0.000000E+00
2.427739E+03	2.313408E-06	0.000000E+00
2.466274E+03	2.330343E-06	0.000000E+00
2.504810E+03	2.347052E-06	0.000000E+00
2.543345E+03	2.363079E-06	0.000000E+00
2.581881E+03	2.378379E-06	0.000000E+00
2.620416E+03	2.392903E-06	0.000000E+00
2.658952E+03	2.406606E-06	0.000000E+00
2.697487E+03	2.419444E-06	0.000000E+00
2.736023E+03	2.431796E-06	0.000000E+00
2.774558E+03	2.442773E-06	0.000000E+00
2.813094E+03	2.453183E-06	0.000000E+00
2.851630E+03	2.462135E-06	0.000000E+00
2.890165E+03	2.470447E-06	0.000000E+00
2.899799E+03	2.472462E-06	0.000000E+00
2.909433E+03	2.474407E-06	0.000000E+00
2.919067E+03	2.475852E-06	0.000000E+00
2.928701E+03	2.477657E-06	0.000000E+00
2.938334E+03	2.479390E-06	0.000000E+00
2.947968E+03	2.481053E-06	0.000000E+00
2.957602E+03	2.482213E-06	0.000000E+00
2.967236E+03	2.483732E-06	0.000000E+00
2.976870E+03	2.485177E-06	0.000000E+00
2.986504E+03	2.486549E-06	0.000000E+00
2.996138E+03	2.487848E-06	0.000000E+00
3.005772E+03	2.488643E-06	0.000000E+00
3.015406E+03	2.489793E-06	0.000000E+00
3.025039E+03	2.490869E-06	0.000000E+00
3.034673E+03	2.491870E-06	0.000000E+00
3.044307E+03	2.492364E-06	0.000000E+00
3.053941E+03	2.493213E-06	0.000000E+00
3.063575E+03	2.493987E-06	0.000000E+00
3.073209E+03	2.494684E-06	0.000000E+00
3.082843E+03	2.495304E-06	0.000000E+00
3.092477E+03	2.495847E-06	0.000000E+00
3.102110E+03	2.495882E-06	0.000000E+00
3.111744E+03	2.496271E-06	0.000000E+00
3.121378E+03	2.496582E-06	0.000000E+00
3.131012E+03	2.496814E-06	0.000000E+00
3.140646E+03	2.496969E-06	0.000000E+00
3.150280E+03	2.497045E-06	0.000000E+00
3.159914E+03	2.497043E-06	0.000000E+00
3.169548E+03	2.496532E-06	0.000000E+00
3.179182E+03	2.496372E-06	0.000000E+00
3.188815E+03	2.496134E-06	0.000000E+00
3.198449E+03	2.495816E-06	0.000000E+00
3.208083E+03	2.495419E-06	0.000000E+00
3.217717E+03	2.494943E-06	0.000000E+00
3.227351E+03	2.494387E-06	0.000000E+00
3.236985E+03	2.493753E-06	0.000000E+00
3.246619E+03	2.492611E-06	0.000000E+00
3.256253E+03	2.491817E-06	0.000000E+00
3.265887E+03	2.490945E-06	0.000000E+00
3.275520E+03	2.489993E-06	0.000000E+00
3.285154E+03	2.488961E-06	0.000000E+00
3.294788E+03	2.487851E-06	0.000000E+00
3.304422E+03	2.486662E-06	0.000000E+00
3.314056E+03	2.485393E-06	0.000000E+00
3.323690E+03	2.484045E-06	0.000000E+00
3.333324E+03	2.482619E-06	0.000000E+00
3.342958E+03	2.481113E-06	0.000000E+00
3.352591E+03	2.479105E-06	0.000000E+00
3.362225E+03	2.477444E-06	0.000000E+00
3.371859E+03	2.475704E-06	0.000000E+00
3.381493E+03	2.473886E-06	0.000000E+00
3.391127E+03	2.471991E-06	0.000000E+00
3.400761E+03	2.470018E-06	0.000000E+00
3.410395E+03	2.467968E-06	0.000000E+00
3.420029E+03	2.465841E-06	0.000000E+00
3.429663E+03	2.463637E-06	0.000000E+00
3.439296E+03	2.461357E-06	0.000000E+00
3.448930E+03	2.459002E-06	0.000000E+00
3.458564E+03	2.456570E-06	0.000000E+00
3.468198E+03	2.454063E-06	0.000000E+00
3.477832E+03	2.451482E-06	0.000000E+00
3.487466E+03	2.448825E-06	0.000000E+00
3.497100E+03	2.446095E-06	0.000000E+00
3.506734E+03	2.443291E-06	0.000000E+00
3.516367E+03	2.440414E-06	0.000000E+00
3.526001E+03	2.437050E-06	0.000000E+00
3.535635E+03	2.434028E-06	0.000000E+00
3.545269E+03	2.430934E-06	0.000000E+00
3.554903E+03	2.427769E-06	0.000000E+00
3.564537E+03	2.424534E-06	0.000000E+00
3.574171E+03	2.421228E-06	0.000000E+00
3.583805E+03	2.417853E-06	0.000000E+00
3.593439E+03	2.414408E-06	0.000000E+00
3.603072E+03	2.410895E-06	0.000000E+00
3.612706E+03	2.407313E-06	0.000000E+00
3.622340E+03	2.403664E-06	0.000000E+00
3.631974E+03	2.399949E-06	0.000000E+00
3.641608E+03	2.396167E-06	0.000000E+00
3.651242E+03	2.392319E-06	0.000000E+00
3.660876E+03	2.388407E-06	0.000000E+00
3.670510E+03	2.384431E-06	0.000000E+00
3.680144E+03	2.380391E-06	0.000000E+00
3.689777E+03	2.376288E-06	0.000000E+00
3.699411E+03	2.372122E-06	0.000000E+00
3.709045E+03	2.367896E-06	0.000000E+00
3.718679E+03	2.363608E-06	0.000000E+00
3.728313E+03	2.359261E-06	0.000000E+00
3.737947E+03	2.354457E-06	0.000000E+00
3.747581E+03	2.349992E-06	0.000000E+00
3.757215E+03	2.345469E-06	0.000000E+00
3.766848E+03	2.340890E-06	0.000000E+00
3.776482E+03	2.336254E-06	0.000000E+00
3.786116E+03	2.331563E-06	0.000000E+00
3.795750E+03	2.326817E-06	0.000000E+00
3.805384E+03	2.322017E-06	0.000000E+00
3.815018E+03	2.317164E-06	0.000000E+00
3.824652E+03	2.312258E-06	0.000000E+00
3.834286E+03	2.307301E-06	0.000000E+00
3.843920E+03	2.302293E-06	0.000000E+00
3.853553E+03	2.297236E-06	0.000000E+00
3.863187E+03	2.292129E-06	0.000000E+00
3.872821E+03	2.286590E-06	0.000000E+00
3.882455E+03	2.281389E-06	0.000000E+00
3.892089E+03	2.276141E-06	0.000000E+00
3.901723E+03	2.270848E-06	0.000000E+00
3.911357E+03	2.265510E-06	0.000000E+00
3.920991E+03	2.260128E-06	0.000000E+00
3.930624E+03	2.254703E-06	0.000000E+00
3.940258E+03	2.249236E-06	0.000000E+00
3.949892E+03	2.243727E-06	0.000000E+00
3.959526E+03	2.238178E-06	0.000000E+00
3.969160E+03	2.232215E-06	0.000000E+00
3.978794E+03	2.226589E-06	0.000000E+00
3.988428E+03	2.220924E-06	0.000000E+00
3.998062E+03	2.215223E-06	0.000000E+00
4.007696E+03	2.209486E-06	0.000000E+00
4.017329E+03	2.203713E-06	0.000000E+00
4.026963E+03	2.197907E-06	0.000000E+00
4.036597E+03	2.191700E-06	0.000000E+00
4.046231E+03	2.185828E-06	0.000000E+00
4.055865E+03	2.179925E-06	0.000000E+00
4.065499E+03	2.173991E-06	0.000000E+00
4.075133E+03	2.168027E-06	0.000000E+00
4.084767E+03	2.162034E-06	0.000000E+00
4.094400E+03	2.155652E-06	0.000000E+00
4.104034E+03	2.149605E-06	0.000000E+00
4.113668E+03	2.143530E-06	0.000000E+00
4.123302E+03	2.137431E-06	0.000000E+00
4.132936E+03	2.131306E-06	0.000000E+00
4.142570E+03	2.124804E-06	0.000000E+00
4.152204E+03	2.118634E-06	0.000000E+00
4.161838E+03	2.112441E-06	0.000000E+00
4.171472E+03	2.106227E-06	0.000000E+00
4.181105E+03	2.099644E-06	0.000000E+00
4.190739E+03	2.093391E-06	0.000000E+00
4.200373E+03	2.087119E-06	0.000000E+00
4.210007E+03	2.080830E-06	0.000000E+00
4.219641E+03	2.074178E-06	0.000000E+00
4.229275E+03	2.067856E-06	0.000000E+00
4.238909E+03	2.061519E-06	0.000000E+00
4.248543E+03	2.055166E-06	0.000000E+00
4.258177E+03	2.048460E-06	0.000000E+00
4.267810E+03	2.042081E-06	0.000000E+00
4.277444E+03	2.035690E-06	0.000000E+00
4.287078E+03	2.028951E-06	0.000000E+00
4.296712E+03	2.022539E-06	0.000000E+00
4.306346E+03	2.016117E-06	0.000000E+00
4.315980E+03	2.009352E-06	0.000000E+00
4.325614E+03	2.002913E-06	0.000000E+00
4.335248E+03	1.996466E-06	0.000000E+00
4.344881E+03	1.989683E-06	0.000000E+00
4.354515E+03	1.983224E-06	0.000000E+00
4.364149E+03	1.976432E-06	0.000000E+00
4.373783E+03	1.969963E-06	0.000000E+00
4.383417E+03	1.963490E-06	0.000000E+00
4.393051E+03	1.956690E-06	0.000000E+00
4.402685E+03	1.950212E-06	0.000000E+00
4.412319E+03	1.943410E-06	0.000000E+00
4.421953E+03	1.936930E-06	0.000000E+00
4.431586E+03	1.930448E-06	0.000000E+00
4.441220E+03	1.923648E-06	0.000000E+00
4.450854E+03	1.917167E-06	0.000000E+00
4.460488E+03	1.910372E-06	0.000000E+00
4.470122E+03	1.903896E-06	0.000000E+00
4.479756E+03	1.897108E-06	0.000000E+00
4.489390E+03	1.890637E-06	0.000000E+00
4.499024E+03	1.883860E-06	0.000000E+00
4.508657E+03	1.877398E-06	0.000000E+00
4.518291E+03	1.870632E-06	0.000000E+00
4.527925E+03	1.864181E-06	0.000000E+00
4.537559E+03	1.857429E-06	0.000000E+00
4.547193E+03	1.850991E-06	0.000000E+00
4.556827E+03	1.844256E-06	0.000000E+00
4.566461E+03	1.837833E-06	0.000000E+00
4.576095E+03	1.831117E-06	0.000000E+00
4.585729E+03	1.824411E-06	0.000000E+00
4.595362E+03	1.818015E-06	0.000000E+00
4.604996E+03	1.811331E-06	0.000000E+00
4.614630E+03	1.804956E-06	0.000000E+00
4.624264E+03	1.798295E-06	0.000000E+00
4.633898E+03	1.791646E-06	0.000000E+00
4.643532E+03	1.785305E-06	0.000000E+00
4.653166E+03	1.778683E-06	0.000000E+00
4.662800E+03	1.772076E-06	0.000000E+00
4.672434E+03	1.765772E-06	0.000000E+00
4.682067E+03	1.759193E-06	0.000000E+00
4.691701E+03	1.752630E-06	0.000000E+00
4.701335E+03	1.746368E-06	0.000000E+00
4.710969E+03	1.739835E-06	0.000000E+00
4.720603E+03	1.733319E-06	0.000000E+00
4.730237E+03	1.727103E-06	0.000000E+00
4.739871E+03	1.720620E-06	0.000000E+00
4.749505E+03	1.714154E-06	0.000000E+00
4.759138E+03	1.707707E-06	0.000000E+00
4.768772E+03	1.701556E-06	0.000000E+00
4.778406E+03	1.695144E-06	0.000000E+00
4.788040E+03	1.688751E-06	0.000000E+00
4.797674E+03	1.682377E-06	0.000000E+00
4.807308E+03	1.676023E-06	0.000000E+00
4.816942E+03	1.669961E-06	0.000000E+00
4.826576E+03	1.663645E-06	0.000000E+00
4.836210E+03	1.657349E-06	0.000000E+00
4.845843E+03	1.651074E-06	0.000000E+00
4.855477E+03	1.644820E-06	0.000000E+00
4.865111E+03	1.638586E-06	0.000000E+00
4.874745E+03	1.632373E-06	0.000000E+00
4.884379E+03	1.626448E-06	0.000000E+00
4.894013E+03	1.620277E-06	0.000000E+00
4.903647E+03	1.614128E-06	0.000000E+00
4.913281E+03	1.608001E-06	0.000000E+00
4.922914E+03	1.601897E-06	0.000000E+00
4.932548E+03	1.595814E-06	0.000000E+00
4.942182E+03	1.589754E-06	0.000000E+00
4.951816E+03	1.583716E-06	0.000000E+00
4.961450E+03	1.577701E-06	0.000000E+00
4.971084E+03	1.571710E-06	0.000000E+00
4.980718E+03	1.565741E-06	0.000000E+00
4.990352E+03	1.559795E-06	0.000000E+00
4.999986E+03	1.553873E-06	0.000000E+00
5.009619E+03	1.547974E-06	0.000000E+00
5.019253E+03	1.542099E-06	0.000000E+00
5.028887E+03	1.536247E-06	0.000000E+00
5.038521E+03	1.530420E-06	0.000000E+00
5.048155E+03	1.524615E-06	0.000000E+00
5.057789E+03	1.518835E-06	0.000000E+00
5.067423E+03	1.513079E-06	0.000000E+00
5.077057E+03	1.507101E-06	0.000000E+00
5.086691E+03	1.501394E-06	0.000000E+00
5.096324E+03	1.495711E-06	0.000000E+00
5.105958E+03	1.490053E-06	0.000000E+00
5.115592E+03	1.484418E-06	0.000000E+00
5.125226E+03	1.478808E-06	0.000000E+00
5.134860E+03	1.473222E-06	0.000000E+00
5.144494E+03	1.467423E-06	0.000000E+00
5.154128E+03	1.461886E-06	0.000000E+00
5.163762E+03	1.456375E-06	0.000000E+00
5.173395E+03	1.450888E-06	0.000000E+00
5.183029E+03	1.445426E-06	0.000000E+00
5.192663E+03	1.439753E-06	0.000000E+00
5.202297E+03	1.434341E-06	0.000000E+00
5.211931E+03	1.428952E-06	0.000000E+00
5.221565E+03	1.423589E-06	0.000000E+00
5.231199E+03	1.418019E-06	0.000000E+00
5.240833E+03	1.412705E-06	0.000000E+00
5.250467E+03	1.407416E-06	0.000000E+00
5.260100E+03	1.401923E-06	0.000000E+00
5.269734E+03	1.396683E-06	0.000000E+00
5.279368E+03	1.391468E-06	0.000000E+00
5.289002E+03	1.386052E-06	0.000000E+00
5.298636E+03	1.380886E-06	0.000000E+00
5.308270E+03	1.375745E-06	0.000000E+00
5.317904E+03	1.370405E-06	0.000000E+00
5.327538E+03	1.365312E-06	0.000000E+00
5.337171E+03	1.360244E-06	0.000000E+00
5.346805E+03	1.354980E-06	0.000000E+00
5.356439E+03	1.349961E-06	0.000000E+00
5.366073E+03	1.344747E-06	0.000000E+00
5.375707E+03	1.339776E-06	0.000000E+00
5.385341E+03	1.334613E-06	0.000000E+00
5.394975E+03	1.329691E-06	0.000000E+00
5.404609E+03	1.324577E-06	0.000000E+00
5.414243E+03	1.319703E-06	0.000000E+00
5.423876E+03	1.314852E-06	0.000000E+00
5.433510E+03	1.309813E-06	0.000000E+00
5.443144E+03	1.305010E-06	0.000000E+00
5.452778E+03	1.300019E-06	0.000000E+00
5.462412E+03	1.295054E-06	0.000000E+00
5.472046E+03	1.290322E-06	0.000000E+00
5.481680E+03	1.285405E-06	0.000000E+00
5.491314E+03	1.280720E-06	0.000000E+00
5.500947E+03	1.275851E-06	0.000000E+00
5.510581E+03	1.271212E-06	0.000000E+00
5.520215E+03	1.266391E-06	0.000000E+00
5.529849E+03	1.261594E-06	0.000000E+00
5.539483E+03	1.257025E-06	0.000000E+00
5.549117E+03	1.252275E-06	0.000000E+00
5.558751E+03	1.247751E-06	0.000000E+00
5.568385E+03	1.243048E-06	0.000000E+00
5.578019E+03	1.238369E-06	0.000000E+00
5.587652E+03	1.233913E-06	0.000000E+00
5.597286E+03	1.229280E-06	0.000000E+00
5.606920E+03	1.224670E-06	0.000000E+00
5.616554E+03	1.220280E-06	0.000000E+00
5.626188E+03	1.215716E-06	0.000000E+00
5.635822E+03	1.211174E-06	0.000000E+00
5.645456E+03	1.206851E-06	0.000000E+00
5.655090E+03	1.202354E-06	0.000000E+00
5.664724E+03	1.197879E-06	0.000000E+00
5.674357E+03	1.193428E-06	0.000000E+00
5.683991E+03	1.189191E-06	0.000000E+00
5.693625E+03	1.184783E-06	0.000000E+00
5.703259E+03	1.180397E-06	0.000000E+00
5.712893E+03	1.176033E-06	0.000000E+00
5.722527E+03	1.171881E-06	0.000000E+00
5.732161E+03	1.167560E-06	0.000000E+00
5.741795E+03	1.163260E-06	0.000000E+00
5.751428E+03	1.158983E-06	0.000000E+00
5.761062E+03	1.154727E-06	0.000000E+00
5.770696E+03	1.150491E-06	0.000000E+00
5.780330E+03	1.146463E-06	0.000000E+00
5.789964E+03	1.142269E-06	0.000000E+00
5.799598E+03	1.138097E-06	0.000000E+00
5.809232E+03	1.133945E-06	0.000000E+00
5.818866E+03	1.129814E-06	0.000000E+00
5.828500E+03	1.125703E-06	0.000000E+00
5.838133E+03	1.121613E-06	0.000000E+00
5.847767E+03	1.117543E-06	0.000000E+00
5.857401E+03	1.113674E-06	0.000000E+00
5.867035E+03	1.109644E-06	0.000000E+00
5.876669E+03	1.105634E-06	0.000000E+00
5.886303E+03	1.101643E-06	0.000000E+00
5.895937E+03	1.097673E-06	0.000000E+00
5.905571E+03	1.093722E-06	0.000000E+00
5.915204E+03	1.089790E-06	0.000000E+00
5.924838E+03	1.085879E-06	0.000000E+00
5.934472E+03	1.081986E-06	0.000000E+00
5.944106E+03	1.078113E-06	0.000000E+00
5.953740E+03	1.074258E-06	0.000000E+00
5.963374E+03	1.070423E-06	0.000000E+00
5.973008E+03	1.066606E-06	0.000000E+00
5.982642E+03	1.062809E-06	0.000000E+00
5.992276E+03	1.059029E-06	0.000000E+00
6.001909E+03	1.055268E-06	0.000000E+00
6.011543E+03	1.051526E-06	0.000000E+00
6.021177E+03	1.047803E-06	0.000000E+00
6.030811E+03	1.044097E-06	0.000000E+00
6.040445E+03	1.040409E-06	0.000000E+00
6.050079E+03	1.036740E-06	0.000000E+00
6.059713E+03	1.032921E-06	0.000000E+00
6.069347E+03	1.029288E-06	0.000000E+00
6.078981E+03	1.025672E-06	0.000000E+00
6.088614E+03	1.022074E-06	0.000000E+00
6.098248E+03	1.018493E-06	0.000000E+00
6.107882E+03	1.014931E-06	0.000000E+00
6.117516E+03	1.011385E-06	0.000000E+00
6.127150E+03	1.007856E-06	0.000000E+00
6.136784E+03	1.004182E-06	0.000000E+00
6.146418E+03	1.000688E-06	0.000000E+00
6.156052E+03	9.972117E-07	0.000000E+00
6.165685E+03	9.937516E-07	0.000000E+00
6.175319E+03	9.903084E-07	0.000000E+00
6.184953E+03	9.868816E-07	0.000000E+00
6.194587E+03	9.833123E-07	0.000000E+00
6.204221E+03	9.799193E-07	0.000000E+00
6.213855E+03	9.765426E-07	0.000000E+00
6.223489E+03	9.731824E-07	0.000000E+00
6.233123E+03	9.698383E-07	0.000000E+00
6.242757E+03	9.663537E-07	0.000000E+00
6.252390E+03	9.630424E-07	0.000000E+00
6.262024E+03	9.597471E-07	0.000000E+00
6.271658E+03	9.564679E-07	0.000000E+00
6.281292E+03	9.530499E-07	0.000000E+00
6.290926E+03	9.498027E-07	0.000000E+00
6.300560E+03	9.465714E-07	0.000000E+00
6.310194E+03	9.433554E-07	0.000000E+00
6.319828E+03	9.400028E-07	0.000000E+00
6.329461E+03	9.368183E-07	0.000000E+00
6.339095E+03	9.336495E-07	0.000000E+00
6.348729E+03	9.303449E-07	0.000000E+00
6.358363E+03	9.272068E-07	0.000000E+00
6.367997E+03	9.240843E-07	0.000000E+00
6.377631E+03	9.208274E-07	0.000000E+00
6.387265E+03	9.177352E-07	0.000000E+00
6.396899E+03	9.146582E-07	0.000000E+00
6.406533E+03	9.114485E-07	0.000000E+00
6.416166E+03	9.084018E-07	0.000000E+00
6.425800E+03	9.053699E-07	0.000000E+00
6.435434E+03	9.022066E-07	0.000000E+00
6.445068E+03	8.992046E-07	0.000000E+00
6.454702E+03	8.960724E-07	0.000000E+00
6.464336E+03	8.930999E-07	0.000000E+00
6.473970E+03	8.901426E-07	0.000000E+00
6.483604E+03	8.870556E-07	0.000000E+00
6.493237E+03	8.841273E-07	0.000000E+00
6.502871E+03	8.810706E-07	0.000000E+00
6.512505E+03	8.781714E-07	0.000000E+00
6.522139E+03	8.752866E-07	0.000000E+00
6.531773E+03	8.722750E-07	0.000000E+00
6.541407E+03	8.694188E-07	0.000000E+00
6.551041E+03	8.664367E-07	0.000000E+00
6.560675E+03	8.636096E-07	0.000000E+00
6.570309E+03	8.606570E-07	0.000000E+00
6.579942E+03	8.578586E-07	0.000000E+00
6.589576E+03	8.549354E-07	0.000000E+00
6.599210E+03	8.521652E-07	0.000000E+00
6.608844E+03	8.492711E-07	0.000000E+00
6.618478E+03	8.465292E-07	0.000000E+00
6.628112E+03	8.436642E-07	0.000000E+00
6.637746E+03	8.409505E-07	0.000000E+00
6.647380E+03	8.381142E-07	0.000000E+00
6.657014E+03	8.354287E-07	0.000000E+00
6.666647E+03	8.326210E-07	0.000000E+00
6.676281E+03	8.299634E-07	0.000000E+00
6.685915E+03	8.271844E-07	0.000000E+00
6.695549E+03	8.245541E-07	0.000000E+00
6.705183E+03	8.218042E-07	0.000000E+00
6.714817E+03	8.192013E-07	0.000000E+00
6.724451E+03	8.164796E-07	0.000000E+00
6.734085E+03	8.137723E-07	0.000000E+00
6.743718E+03	8.112111E-07	0.000000E+00
6.753352E+03	8.085316E-07	0.000000E+00
6.762986E+03	8.059978E-07	0.000000E+00
6.772620E+03	8.033469E-07	0.000000E+00
6.782254E+03	8.007099E-07	0.000000E+00
6.791888E+03	7.982171E-07	0.000000E+00
6.801522E+03	7.956083E-07	0.000000E+00
6.811156E+03	7.931429E-07	0.000000E+00
6.820790E+03	7.905619E-07	0.000000E+00
6.830423E+03	7.879953E-07	0.000000E+00
6.840057E+03	7.855703E-07	0.000000E+00
6.849691E+03	7.830315E-07	0.000000E+00
6.859325E+03	7.805066E-07	0.000000E+00
6.868959E+03	7.781225E-07	0.000000E+00
6.878593E+03	7.756254E-07	0.000000E+00
6.888227E+03	7.731427E-07	0.000000E+00
6.897861E+03	7.707990E-07	0.000000E+00
6.907494E+03	7.683437E-07	0.000000E+00
6.917128E+03	7.659026E-07	0.000000E+00
6.926762E+03	7.635994E-07	0.000000E+00
6.936396E+03	7.611858E-07	0.000000E+00
6.946030E+03	7.587861E-07	0.000000E+00
6.955664E+03	7.565238E-07	0.000000E+00
6.965298E+03	7.541518E-07	0.000000E+00
6.974932E+03	7.517934E-07	0.000000E+00
6.984566E+03	7.494493E-07	0.000000E+00
6.994199E+03	7.472410E-07	0.000000E+00
7.003833E+03	7.449243E-07	0.000000E+00
7.013467E+03	7.426219E-07	0.000000E+00
7.023101E+03	7.403330E-07	0.000000E+00
7.032735E+03	7.381786E-07	0.000000E+00
7.042369E+03	7.359175E-07	0.000000E+00
7.052003E+03	7.336704E-07	0.000000E+00
7.061637E+03	7.314371E-07	0.000000E+00
7.071271E+03	7.292182E-07	0.000000E+00
7.080904E+03	7.271316E-07	0.000000E+00
7.090538E+03	7.249397E-07	0.000000E+00
7.100172E+03	7.227621E-07	0.000000E+00
7.109806E+03	7.205984E-07	0.000000E+00
7.119440E+03	7.184486E-07	0.000000E+00
7.129074E+03	7.164298E-07	0.000000E+00
7.138708E+03	7.143078E-07	0.000000E+00
7.148342E+03	7.121998E-07	0.000000E+00
7.157975E+03	7.101056E-07	0.000000E+00
7.167609E+03	7.080257E-07	0.000000E+00
7.177243E+03	7.059598E-07	0.000000E+00
7.186877E+03	7.040228E-07	0.000000E+00
7.196511E+03	7.019847E-07	0.000000E+00
7.206145E+03	6.999605E-07	0.000000E+00
7.215779E+03	6.979502E-07	0.000000E+00
7.225413E+03	6.959542E-07	0.000000E+00
7.235047E+03	6.939726E-07	0.000000E+00
7.244680E+03	6.920049E-07	0.000000E+00
7.254314E+03	6.900510E-07	0.000000E+00
7.263948E+03	6.881115E-07	0.000000E+00
7.273582E+03	6.861859E-07	0.000000E+00
7.283216E+03	6.843868E-07	0.000000E+00
7.292850E+03	6.824894E-07	0.000000E+00
7.302484E+03	6.806064E-07	0.000000E+00
7.312118E+03	6.787377E-07	0.000000E+00
7.321751E+03	6.768829E-07	0.000000E+00
7.331385E+03	6.750425E-07	0.000000E+00
7.341019E+03	6.732163E-07	0.000000E+00
7.350653E+03	6.714045E-07	0.000000E+00
7.360287E+03	6.696066E-07	0.000000E+00
7.369921E+03	6.678235E-07	0.000000E+00
7.379555E+03	6.660547E-07	0.000000E+00
7.389189E+03	6.643002E-07	0.000000E+00
7.398823E+03	6.625601E-07	0.000000E+00
7.408456E+03	6.608342E-07	0.000000E+00
7.418090E+03	6.591232E-07	0.000000E+00
7.427724E+03	6.574260E-07	0.000000E+00
7.437358E+03	6.557440E-07	0.000000E+00
7.446992E+03	6.540759E-07	0.000000E+00
7.456626E+03	6.524226E-07	0.000000E+00
7.466260E+03	6.507836E-07	0.000000E+00
7.475894E+03	6.491593E-07	0.000000E+00
