#wls	flux	fluxerr
1.541421E+03	2.149057E-06	0.000000E+00
1.579957E+03	2.173064E-06	0.000000E+00
1.618492E+03	2.197648E-06	0.000000E+00
1.657028E+03	2.222007E-06	0.000000E+00
1.695564E+03	2.246906E-06	0.000000E+00
1.734099E+03	2.271522E-06	0.000000E+00
1.772635E+03	2.296634E-06	0.000000E+00
1.811170E+03	2.321813E-06	0.000000E+00
1.849706E+03	2.347027E-06	0.000000E+00
1.888241E+03	2.372244E-06	0.000000E+00
1.926777E+03	2.397428E-06	0.000000E+00
1.965312E+03	2.422972E-06	0.000000E+00
2.003848E+03	2.447982E-06	0.000000E+00
2.042383E+03	2.473281E-06	0.000000E+00
2.080919E+03	2.498397E-06	0.000000E+00
2.119454E+03	2.523284E-06	0.000000E+00
2.157990E+03	2.547896E-06	0.000000E+00
2.196525E+03	2.572184E-06	0.000000E+00
2.235061E+03	2.596100E-06	0.000000E+00
2.273597E+03	2.620051E-06	0.000000E+00
2.312132E+03	2.643067E-06	0.000000E+00
2.350668E+03	2.666020E-06	0.000000E+00
2.389203E+03	2.688392E-06	0.000000E+00
2.427739E+03	2.710127E-06	0.000000E+00
2.466274E+03	2.731167E-06	0.000000E+00
2.504810E+03	2.751455E-06	0.000000E+00
2.543345E+03	2.771418E-06	0.000000E+00
2.581881E+03	2.790031E-06	0.000000E+00
2.620416E+03	2.808209E-06	0.000000E+00
2.658952E+03	2.825408E-06	0.000000E+00
2.697487E+03	2.841573E-06	0.000000E+00
2.736023E+03	2.856649E-06	0.000000E+00
2.774558E+03	2.870582E-06	0.000000E+00
2.813094E+03	2.883319E-06	0.000000E+00
2.851630E+03	2.895314E-06	0.000000E+00
2.890165E+03	2.905517E-06	0.000000E+00
2.899799E+03	2.907987E-06	0.000000E+00
2.909433E+03	2.910372E-06	0.000000E+00
2.919067E+03	2.912673E-06	0.000000E+00
2.928701E+03	2.914889E-06	0.000000E+00
2.938334E+03	2.917019E-06	0.000000E+00
2.947968E+03	2.919062E-06	0.000000E+00
2.957602E+03	2.921018E-06	0.000000E+00
2.967236E+03	2.922886E-06	0.000000E+00
2.976870E+03	2.924667E-06	0.000000E+00
2.986504E+03	2.926358E-06	0.000000E+00
2.996138E+03	2.927960E-06	0.000000E+00
3.005772E+03	2.928967E-06	0.000000E+00
3.015406E+03	2.930389E-06	0.000000E+00
3.025039E+03	2.931720E-06	0.000000E+00
3.034673E+03	2.932960E-06	0.000000E+00
3.044307E+03	2.934108E-06	0.000000E+00
3.053941E+03	2.935164E-06	0.000000E+00
3.063575E+03	2.936128E-06	0.000000E+00
3.073209E+03	2.936998E-06	0.000000E+00
3.082843E+03	2.937775E-06	0.000000E+00
3.092477E+03	2.938458E-06	0.000000E+00
3.102110E+03	2.939047E-06	0.000000E+00
3.111744E+03	2.940047E-06	0.000000E+00
3.121378E+03	2.940447E-06	0.000000E+00
3.131012E+03	2.940752E-06	0.000000E+00
3.140646E+03	2.940961E-06	0.000000E+00
3.150280E+03	2.941076E-06	0.000000E+00
3.159914E+03	2.941094E-06	0.000000E+00
3.169548E+03	2.941017E-06	0.000000E+00
3.179182E+03	2.940844E-06	0.000000E+00
3.188815E+03	2.940574E-06	0.000000E+00
3.198449E+03	2.940208E-06	0.000000E+00
3.208083E+03	2.939745E-06	0.000000E+00
3.217717E+03	2.939186E-06	0.000000E+00
3.227351E+03	2.938530E-06	0.000000E+00
3.236985E+03	2.937777E-06	0.000000E+00
3.246619E+03	2.936928E-06	0.000000E+00
3.256253E+03	2.936483E-06	0.000000E+00
3.265887E+03	2.935439E-06	0.000000E+00
3.275520E+03	2.934299E-06	0.000000E+00
3.285154E+03	2.933061E-06	0.000000E+00
3.294788E+03	2.931728E-06	0.000000E+00
3.304422E+03	2.930297E-06	0.000000E+00
3.314056E+03	2.928770E-06	0.000000E+00
3.323690E+03	2.927146E-06	0.000000E+00
3.333324E+03	2.925925E-06	0.000000E+00
3.342958E+03	2.924109E-06	0.000000E+00
3.352591E+03	2.922197E-06	0.000000E+00
3.362225E+03	2.920189E-06	0.000000E+00
3.371859E+03	2.918086E-06	0.000000E+00
3.381493E+03	2.915888E-06	0.000000E+00
3.391127E+03	2.913594E-06	0.000000E+00
3.400761E+03	2.911206E-06	0.000000E+00
3.410395E+03	2.909218E-06	0.000000E+00
3.420029E+03	2.906642E-06	0.000000E+00
3.429663E+03	2.903972E-06	0.000000E+00
3.439296E+03	2.901209E-06	0.000000E+00
3.448930E+03	2.898353E-06	0.000000E+00
3.458564E+03	2.895404E-06	0.000000E+00
3.468198E+03	2.892854E-06	0.000000E+00
3.477832E+03	2.889722E-06	0.000000E+00
3.487466E+03	2.886499E-06	0.000000E+00
3.497100E+03	2.883184E-06	0.000000E+00
3.506734E+03	2.879781E-06	0.000000E+00
3.516367E+03	2.876288E-06	0.000000E+00
3.526001E+03	2.873192E-06	0.000000E+00
3.535635E+03	2.869521E-06	0.000000E+00
3.545269E+03	2.865763E-06	0.000000E+00
3.554903E+03	2.861917E-06	0.000000E+00
3.564537E+03	2.857986E-06	0.000000E+00
3.574171E+03	2.853968E-06	0.000000E+00
3.583805E+03	2.850346E-06	0.000000E+00
3.593439E+03	2.846159E-06	0.000000E+00
3.603072E+03	2.841887E-06	0.000000E+00
3.612706E+03	2.837533E-06	0.000000E+00
3.622340E+03	2.833097E-06	0.000000E+00
3.631974E+03	2.828579E-06	0.000000E+00
3.641608E+03	2.824456E-06	0.000000E+00
3.651242E+03	2.819777E-06	0.000000E+00
3.660876E+03	2.815019E-06	0.000000E+00
3.670510E+03	2.810182E-06	0.000000E+00
3.680144E+03	2.805268E-06	0.000000E+00
3.689777E+03	2.800278E-06	0.000000E+00
3.699411E+03	2.795681E-06	0.000000E+00
3.709045E+03	2.790539E-06	0.000000E+00
3.718679E+03	2.785324E-06	0.000000E+00
3.728313E+03	2.780035E-06	0.000000E+00
3.737947E+03	2.774674E-06	0.000000E+00
3.747581E+03	2.769243E-06	0.000000E+00
3.757215E+03	2.764204E-06	0.000000E+00
3.766848E+03	2.758631E-06	0.000000E+00
3.776482E+03	2.752990E-06	0.000000E+00
3.786116E+03	2.747282E-06	0.000000E+00
3.795750E+03	2.741508E-06	0.000000E+00
3.805384E+03	2.735668E-06	0.000000E+00
3.815018E+03	2.729764E-06	0.000000E+00
3.824652E+03	2.724252E-06	0.000000E+00
3.834286E+03	2.718220E-06	0.000000E+00
3.843920E+03	2.712128E-06	0.000000E+00
3.853553E+03	2.705976E-06	0.000000E+00
3.863187E+03	2.699763E-06	0.000000E+00
3.872821E+03	2.693493E-06	0.000000E+00
3.882455E+03	2.687166E-06	0.000000E+00
3.892089E+03	2.680783E-06	0.000000E+00
3.901723E+03	2.674790E-06	0.000000E+00
3.911357E+03	2.668297E-06	0.000000E+00
3.920991E+03	2.661750E-06	0.000000E+00
3.930624E+03	2.655152E-06	0.000000E+00
3.940258E+03	2.648503E-06	0.000000E+00
3.949892E+03	2.641804E-06	0.000000E+00
3.959526E+03	2.635057E-06	0.000000E+00
3.969160E+03	2.628262E-06	0.000000E+00
3.978794E+03	2.621421E-06	0.000000E+00
3.988428E+03	2.614535E-06	0.000000E+00
3.998062E+03	2.608037E-06	0.000000E+00
4.007696E+03	2.601062E-06	0.000000E+00
4.017329E+03	2.594045E-06	0.000000E+00
4.026963E+03	2.586987E-06	0.000000E+00
4.036597E+03	2.579889E-06	0.000000E+00
4.046231E+03	2.572752E-06	0.000000E+00
4.055865E+03	2.565578E-06	0.000000E+00
4.065499E+03	2.558367E-06	0.000000E+00
4.075133E+03	2.551121E-06	0.000000E+00
4.084767E+03	2.543840E-06	0.000000E+00
4.094400E+03	2.536526E-06	0.000000E+00
4.104034E+03	2.529179E-06	0.000000E+00
4.113668E+03	2.521802E-06	0.000000E+00
4.123302E+03	2.514394E-06	0.000000E+00
4.132936E+03	2.506958E-06	0.000000E+00
4.142570E+03	2.499493E-06	0.000000E+00
4.152204E+03	2.492001E-06	0.000000E+00
4.161838E+03	2.484484E-06	0.000000E+00
4.171472E+03	2.476941E-06	0.000000E+00
4.181105E+03	2.469376E-06	0.000000E+00
4.190739E+03	2.461787E-06	0.000000E+00
4.200373E+03	2.454176E-06	0.000000E+00
4.210007E+03	2.446545E-06	0.000000E+00
4.219641E+03	2.438492E-06	0.000000E+00
4.229275E+03	2.430824E-06	0.000000E+00
4.238909E+03	2.423138E-06	0.000000E+00
4.248543E+03	2.415436E-06	0.000000E+00
4.258177E+03	2.407717E-06	0.000000E+00
4.267810E+03	2.399984E-06	0.000000E+00
4.277444E+03	2.392238E-06	0.000000E+00
4.287078E+03	2.384478E-06	0.000000E+00
4.296712E+03	2.376706E-06	0.000000E+00
4.306346E+03	2.368535E-06	0.000000E+00
4.315980E+03	2.360744E-06	0.000000E+00
4.325614E+03	2.352944E-06	0.000000E+00
4.335248E+03	2.345135E-06	0.000000E+00
4.344881E+03	2.337320E-06	0.000000E+00
4.354515E+03	2.329498E-06	0.000000E+00
4.364149E+03	2.321290E-06	0.000000E+00
4.373783E+03	2.313459E-06	0.000000E+00
4.383417E+03	2.305625E-06	0.000000E+00
4.393051E+03	2.297788E-06	0.000000E+00
4.402685E+03	2.289573E-06	0.000000E+00
4.412319E+03	2.281734E-06	0.000000E+00
4.421953E+03	2.273894E-06	0.000000E+00
4.431586E+03	2.266055E-06	0.000000E+00
4.441220E+03	2.257846E-06	0.000000E+00
4.450854E+03	2.250011E-06	0.000000E+00
4.460488E+03	2.242179E-06	0.000000E+00
4.470122E+03	2.234350E-06	0.000000E+00
4.479756E+03	2.226161E-06	0.000000E+00
4.489390E+03	2.218343E-06	0.000000E+00
4.499024E+03	2.210530E-06	0.000000E+00
4.508657E+03	2.202364E-06	0.000000E+00
4.518291E+03	2.194566E-06	0.000000E+00
4.527925E+03	2.186775E-06	0.000000E+00
4.537559E+03	2.178637E-06	0.000000E+00
4.547193E+03	2.170866E-06	0.000000E+00
4.556827E+03	2.162751E-06	0.000000E+00
4.566461E+03	2.155000E-06	0.000000E+00
4.576095E+03	2.147261E-06	0.000000E+00
4.585729E+03	2.139185E-06	0.000000E+00
4.595362E+03	2.131470E-06	0.000000E+00
4.604996E+03	2.123423E-06	0.000000E+00
4.614630E+03	2.115736E-06	0.000000E+00
4.624264E+03	2.107719E-06	0.000000E+00
4.633898E+03	2.100062E-06	0.000000E+00
4.643532E+03	2.092078E-06	0.000000E+00
4.653166E+03	2.084453E-06	0.000000E+00
4.662800E+03	2.076505E-06	0.000000E+00
4.672434E+03	2.068913E-06	0.000000E+00
4.682067E+03	2.061003E-06	0.000000E+00
4.691701E+03	2.053447E-06	0.000000E+00
4.701335E+03	2.045576E-06	0.000000E+00
4.710969E+03	2.038057E-06	0.000000E+00
4.720603E+03	2.030227E-06	0.000000E+00
4.730237E+03	2.022419E-06	0.000000E+00
4.739871E+03	2.014961E-06	0.000000E+00
4.749505E+03	2.007197E-06	0.000000E+00
4.759138E+03	1.999780E-06	0.000000E+00
4.768772E+03	1.992061E-06	0.000000E+00
4.778406E+03	1.984365E-06	0.000000E+00
4.788040E+03	1.977015E-06	0.000000E+00
4.797674E+03	1.969366E-06	0.000000E+00
4.807308E+03	1.961743E-06	0.000000E+00
4.816942E+03	1.954462E-06	0.000000E+00
4.826576E+03	1.946887E-06	0.000000E+00
4.836210E+03	1.939339E-06	0.000000E+00
4.845843E+03	1.932130E-06	0.000000E+00
4.855477E+03	1.924632E-06	0.000000E+00
4.865111E+03	1.917161E-06	0.000000E+00
4.874745E+03	1.909717E-06	0.000000E+00
4.884379E+03	1.902300E-06	0.000000E+00
4.894013E+03	1.895216E-06	0.000000E+00
4.903647E+03	1.887853E-06	0.000000E+00
4.913281E+03	1.880517E-06	0.000000E+00
4.922914E+03	1.873209E-06	0.000000E+00
4.932548E+03	1.865929E-06	0.000000E+00
4.942182E+03	1.858978E-06	0.000000E+00
4.951816E+03	1.851753E-06	0.000000E+00
4.961450E+03	1.844558E-06	0.000000E+00
4.971084E+03	1.837390E-06	0.000000E+00
4.980718E+03	1.830253E-06	0.000000E+00
4.990352E+03	1.823143E-06	0.000000E+00
4.999986E+03	1.816064E-06	0.000000E+00
5.009619E+03	1.809013E-06	0.000000E+00
5.019253E+03	1.801992E-06	0.000000E+00
5.028887E+03	1.795001E-06	0.000000E+00
5.038521E+03	1.788039E-06	0.000000E+00
5.048155E+03	1.781107E-06	0.000000E+00
5.057789E+03	1.774205E-06	0.000000E+00
5.067423E+03	1.767333E-06	0.000000E+00
5.077057E+03	1.760490E-06	0.000000E+00
5.086691E+03	1.753678E-06	0.000000E+00
5.096324E+03	1.746896E-06	0.000000E+00
5.105958E+03	1.740144E-06	0.000000E+00
5.115592E+03	1.733422E-06	0.000000E+00
5.125226E+03	1.726730E-06	0.000000E+00
5.134860E+03	1.720069E-06	0.000000E+00
5.144494E+03	1.713438E-06	0.000000E+00
5.154128E+03	1.706838E-06	0.000000E+00
5.163762E+03	1.700267E-06	0.000000E+00
5.173395E+03	1.693727E-06	0.000000E+00
5.183029E+03	1.686946E-06	0.000000E+00
5.192663E+03	1.680467E-06	0.000000E+00
5.202297E+03	1.674019E-06	0.000000E+00
5.211931E+03	1.667602E-06	0.000000E+00
5.221565E+03	1.661214E-06	0.000000E+00
5.231199E+03	1.654856E-06	0.000000E+00
5.240833E+03	1.648264E-06	0.000000E+00
5.250467E+03	1.641968E-06	0.000000E+00
5.260100E+03	1.635703E-06	0.000000E+00
5.269734E+03	1.629467E-06	0.000000E+00
5.279368E+03	1.623000E-06	0.000000E+00
5.289002E+03	1.616826E-06	0.000000E+00
5.298636E+03	1.610681E-06	0.000000E+00
5.308270E+03	1.604566E-06	0.000000E+00
5.317904E+03	1.598224E-06	0.000000E+00
5.327538E+03	1.592169E-06	0.000000E+00
5.337171E+03	1.586145E-06	0.000000E+00
5.346805E+03	1.579895E-06	0.000000E+00
5.356439E+03	1.573930E-06	0.000000E+00
5.366073E+03	1.567743E-06	0.000000E+00
5.375707E+03	1.561838E-06	0.000000E+00
5.385341E+03	1.555962E-06	0.000000E+00
5.394975E+03	1.549866E-06	0.000000E+00
5.404609E+03	1.544049E-06	0.000000E+00
5.414243E+03	1.538014E-06	0.000000E+00
5.423876E+03	1.532256E-06	0.000000E+00
5.433510E+03	1.526526E-06	0.000000E+00
5.443144E+03	1.520581E-06	0.000000E+00
5.452778E+03	1.514910E-06	0.000000E+00
5.462412E+03	1.509024E-06	0.000000E+00
5.472046E+03	1.503410E-06	0.000000E+00
5.481680E+03	1.497583E-06	0.000000E+00
5.491314E+03	1.492026E-06	0.000000E+00
5.500947E+03	1.486259E-06	0.000000E+00
5.510581E+03	1.480758E-06	0.000000E+00
5.520215E+03	1.475048E-06	0.000000E+00
5.529849E+03	1.469368E-06	0.000000E+00
5.539483E+03	1.463952E-06	0.000000E+00
5.549117E+03	1.458329E-06	0.000000E+00
5.558751E+03	1.452968E-06	0.000000E+00
5.568385E+03	1.447402E-06	0.000000E+00
5.578019E+03	1.441864E-06	0.000000E+00
5.587652E+03	1.436585E-06	0.000000E+00
5.597286E+03	1.431104E-06	0.000000E+00
5.606920E+03	1.425878E-06	0.000000E+00
5.616554E+03	1.420452E-06	0.000000E+00
5.626188E+03	1.415054E-06	0.000000E+00
5.635822E+03	1.409909E-06	0.000000E+00
5.645456E+03	1.404565E-06	0.000000E+00
5.655090E+03	1.399248E-06	0.000000E+00
5.664724E+03	1.393959E-06	0.000000E+00
5.674357E+03	1.388919E-06	0.000000E+00
5.683991E+03	1.383683E-06	0.000000E+00
5.693625E+03	1.378474E-06	0.000000E+00
5.703259E+03	1.373291E-06	0.000000E+00
5.712893E+03	1.368354E-06	0.000000E+00
5.722527E+03	1.363224E-06	0.000000E+00
5.732161E+03	1.358119E-06	0.000000E+00
5.741795E+03	1.353040E-06	0.000000E+00
5.751428E+03	1.348204E-06	0.000000E+00
5.761062E+03	1.343177E-06	0.000000E+00
5.770696E+03	1.338175E-06	0.000000E+00
5.780330E+03	1.333198E-06	0.000000E+00
5.789964E+03	1.328247E-06	0.000000E+00
5.799598E+03	1.323321E-06	0.000000E+00
5.809232E+03	1.318631E-06	0.000000E+00
5.818866E+03	1.313754E-06	0.000000E+00
5.828500E+03	1.308902E-06	0.000000E+00
5.838133E+03	1.304074E-06	0.000000E+00
5.847767E+03	1.299270E-06	0.000000E+00
5.857401E+03	1.294491E-06	0.000000E+00
5.867035E+03	1.289736E-06	0.000000E+00
5.876669E+03	1.285005E-06	0.000000E+00
5.886303E+03	1.280297E-06	0.000000E+00
5.895937E+03	1.275614E-06	0.000000E+00
5.905571E+03	1.270953E-06	0.000000E+00
5.915204E+03	1.266317E-06	0.000000E+00
5.924838E+03	1.261703E-06	0.000000E+00
5.934472E+03	1.257112E-06	0.000000E+00
5.944106E+03	1.252545E-06	0.000000E+00
5.953740E+03	1.247999E-06	0.000000E+00
5.963374E+03	1.243477E-06	0.000000E+00
5.973008E+03	1.238978E-06	0.000000E+00
5.982642E+03	1.234500E-06	0.000000E+00
5.992276E+03	1.230045E-06	0.000000E+00
6.001909E+03	1.225612E-06	0.000000E+00
6.011543E+03	1.221201E-06	0.000000E+00
6.021177E+03	1.216812E-06	0.000000E+00
6.030811E+03	1.212444E-06	0.000000E+00
6.040445E+03	1.208098E-06	0.000000E+00
6.050079E+03	1.203773E-06	0.000000E+00
6.059713E+03	1.199470E-06	0.000000E+00
6.069347E+03	1.195188E-06	0.000000E+00
6.078981E+03	1.190927E-06	0.000000E+00
6.088614E+03	1.186497E-06	0.000000E+00
6.098248E+03	1.182278E-06	0.000000E+00
6.107882E+03	1.178080E-06	0.000000E+00
6.117516E+03	1.173902E-06	0.000000E+00
6.127150E+03	1.169746E-06	0.000000E+00
6.136784E+03	1.165609E-06	0.000000E+00
6.146418E+03	1.161492E-06	0.000000E+00
6.156052E+03	1.157211E-06	0.000000E+00
6.165685E+03	1.153135E-06	0.000000E+00
6.175319E+03	1.149079E-06	0.000000E+00
6.184953E+03	1.145043E-06	0.000000E+00
6.194587E+03	1.140843E-06	0.000000E+00
6.204221E+03	1.136847E-06	0.000000E+00
6.213855E+03	1.132871E-06	0.000000E+00
6.223489E+03	1.128913E-06	0.000000E+00
6.233123E+03	1.124974E-06	0.000000E+00
6.242757E+03	1.120876E-06	0.000000E+00
6.252390E+03	1.116976E-06	0.000000E+00
6.262024E+03	1.113096E-06	0.000000E+00
6.271658E+03	1.109056E-06	0.000000E+00
6.281292E+03	1.105213E-06	0.000000E+00
6.290926E+03	1.101389E-06	0.000000E+00
6.300560E+03	1.097584E-06	0.000000E+00
6.310194E+03	1.093622E-06	0.000000E+00
6.319828E+03	1.089854E-06	0.000000E+00
6.329461E+03	1.086104E-06	0.000000E+00
6.339095E+03	1.082199E-06	0.000000E+00
6.348729E+03	1.078486E-06	0.000000E+00
6.358363E+03	1.074792E-06	0.000000E+00
6.367997E+03	1.070943E-06	0.000000E+00
6.377631E+03	1.067285E-06	0.000000E+00
6.387265E+03	1.063474E-06	0.000000E+00
6.396899E+03	1.059851E-06	0.000000E+00
6.406533E+03	1.056246E-06	0.000000E+00
6.416166E+03	1.052490E-06	0.000000E+00
6.425800E+03	1.048921E-06	0.000000E+00
6.435434E+03	1.045201E-06	0.000000E+00
6.445068E+03	1.041667E-06	0.000000E+00
6.454702E+03	1.038151E-06	0.000000E+00
6.464336E+03	1.034485E-06	0.000000E+00
6.473970E+03	1.031003E-06	0.000000E+00
6.483604E+03	1.027373E-06	0.000000E+00
6.493237E+03	1.023927E-06	0.000000E+00
6.502871E+03	1.020332E-06	0.000000E+00
6.512505E+03	1.016919E-06	0.000000E+00
6.522139E+03	1.013360E-06	0.000000E+00
6.531773E+03	1.009982E-06	0.000000E+00
6.541407E+03	1.006458E-06	0.000000E+00
6.551041E+03	1.003113E-06	0.000000E+00
6.560675E+03	9.996242E-07	0.000000E+00
6.570309E+03	9.963130E-07	0.000000E+00
6.579942E+03	9.928588E-07	0.000000E+00
6.589576E+03	9.895810E-07	0.000000E+00
6.599210E+03	9.861608E-07	0.000000E+00
6.608844E+03	9.829164E-07	0.000000E+00
6.618478E+03	9.795306E-07	0.000000E+00
6.628112E+03	9.763191E-07	0.000000E+00
6.637746E+03	9.729677E-07	0.000000E+00
6.647380E+03	9.697891E-07	0.000000E+00
6.657014E+03	9.664711E-07	0.000000E+00
6.666647E+03	9.631705E-07	0.000000E+00
6.676281E+03	9.600409E-07	0.000000E+00
6.685915E+03	9.567737E-07	0.000000E+00
6.695549E+03	9.536770E-07	0.000000E+00
6.705183E+03	9.504433E-07	0.000000E+00
6.714817E+03	9.472265E-07	0.000000E+00
6.724451E+03	9.441787E-07	0.000000E+00
6.734085E+03	9.409953E-07	0.000000E+00
6.743718E+03	9.378284E-07	0.000000E+00
6.753352E+03	9.348290E-07	0.000000E+00
6.762986E+03	9.316951E-07	0.000000E+00
6.772620E+03	9.285780E-07	0.000000E+00
6.782254E+03	9.256266E-07	0.000000E+00
6.791888E+03	9.225425E-07	0.000000E+00
6.801522E+03	9.194754E-07	0.000000E+00
6.811156E+03	9.165719E-07	0.000000E+00
6.820790E+03	9.135372E-07	0.000000E+00
6.830423E+03	9.105190E-07	0.000000E+00
6.840057E+03	9.076635E-07	0.000000E+00
6.849691E+03	9.046782E-07	0.000000E+00
6.859325E+03	9.017089E-07	0.000000E+00
6.868959E+03	8.987565E-07	0.000000E+00
6.878593E+03	8.959644E-07	0.000000E+00
6.888227E+03	8.930445E-07	0.000000E+00
6.897861E+03	8.901411E-07	0.000000E+00
6.907494E+03	8.872536E-07	0.000000E+00
6.917128E+03	8.845255E-07	0.000000E+00
6.926762E+03	8.816705E-07	0.000000E+00
6.936396E+03	8.788324E-07	0.000000E+00
6.946030E+03	8.760103E-07	0.000000E+00
6.955664E+03	8.733451E-07	0.000000E+00
6.965298E+03	8.705555E-07	0.000000E+00
6.974932E+03	8.677823E-07	0.000000E+00
6.984566E+03	8.650251E-07	0.000000E+00
6.994199E+03	8.622844E-07	0.000000E+00
7.003833E+03	8.596992E-07	0.000000E+00
7.013467E+03	8.569909E-07	0.000000E+00
7.023101E+03	8.542986E-07	0.000000E+00
7.032735E+03	8.516228E-07	0.000000E+00
7.042369E+03	8.489634E-07	0.000000E+00
7.052003E+03	8.463205E-07	0.000000E+00
7.061637E+03	8.436941E-07	0.000000E+00
7.071271E+03	8.412197E-07	0.000000E+00
7.080904E+03	8.386253E-07	0.000000E+00
7.090538E+03	8.360473E-07	0.000000E+00
7.100172E+03	8.334858E-07	0.000000E+00
7.109806E+03	8.309407E-07	0.000000E+00
7.119440E+03	8.284116E-07	0.000000E+00
7.129074E+03	8.258995E-07	0.000000E+00
7.138708E+03	8.234033E-07	0.000000E+00
7.148342E+03	8.209237E-07	0.000000E+00
7.157975E+03	8.184605E-07	0.000000E+00
7.167609E+03	8.161459E-07	0.000000E+00
7.177243E+03	8.137152E-07	0.000000E+00
7.186877E+03	8.113009E-07	0.000000E+00
7.196511E+03	8.089030E-07	0.000000E+00
7.206145E+03	8.065217E-07	0.000000E+00
7.215779E+03	8.041568E-07	0.000000E+00
7.225413E+03	8.018084E-07	0.000000E+00
7.235047E+03	7.994769E-07	0.000000E+00
7.244680E+03	7.971614E-07	0.000000E+00
7.254314E+03	7.948628E-07	0.000000E+00
7.263948E+03	7.925808E-07	0.000000E+00
7.273582E+03	7.903151E-07	0.000000E+00
7.283216E+03	7.880665E-07	0.000000E+00
7.292850E+03	7.858343E-07	0.000000E+00
7.302484E+03	7.836186E-07	0.000000E+00
7.312118E+03	7.814198E-07	0.000000E+00
7.321751E+03	7.792375E-07	0.000000E+00
7.331385E+03	7.770721E-07	0.000000E+00
7.341019E+03	7.749232E-07	0.000000E+00
7.350653E+03	7.726658E-07	0.000000E+00
7.360287E+03	7.705508E-07	0.000000E+00
7.369921E+03	7.684528E-07	0.000000E+00
7.379555E+03	7.663717E-07	0.000000E+00
7.389189E+03	7.643076E-07	0.000000E+00
7.398823E+03	7.622599E-07	0.000000E+00
7.408456E+03	7.602297E-07	0.000000E+00
7.418090E+03	7.582159E-07	0.000000E+00
7.427724E+03	7.562191E-07	0.000000E+00
7.437358E+03	7.542397E-07	0.000000E+00
7.446992E+03	7.522773E-07	0.000000E+00
7.456626E+03	7.502092E-07	0.000000E+00
7.466260E+03	7.482812E-07	0.000000E+00
7.475894E+03	7.463701E-07	0.000000E+00
