#wls	flux	fluxerr
1.600000E+03	9.762770E-15	2.725279E-15
1.640000E+03	9.132169E-15	2.317829E-15
1.680000E+03	8.497179E-15	1.943228E-15
1.720000E+03	7.861699E-15	1.602934E-15
1.760000E+03	7.230560E-15	1.298063E-15
1.800000E+03	6.609124E-15	1.029214E-15
1.840000E+03	6.000543E-15	7.960672E-16
1.880000E+03	5.410936E-15	5.982543E-16
1.920000E+03	4.844964E-15	4.347246E-16
1.960000E+03	4.307782E-15	3.042311E-16
2.000000E+03	3.804862E-15	2.056317E-16
2.040000E+03	3.342799E-15	1.383425E-16
2.080000E+03	2.929177E-15	1.013373E-16
2.120000E+03	2.576175E-15	8.764150E-17
2.160000E+03	2.303166E-15	8.418609E-17
2.200000E+03	2.125297E-15	8.394901E-17
2.240000E+03	2.054289E-15	8.695037E-17
2.280000E+03	2.103454E-15	9.568012E-17
2.320000E+03	2.287832E-15	1.116799E-16
2.360000E+03	2.630256E-15	1.351339E-16
2.400000E+03	3.168393E-15	1.653871E-16
2.440000E+03	3.954416E-15	1.999377E-16
2.480000E+03	5.048474E-15	2.326237E-16
2.520000E+03	6.498504E-15	2.521922E-16
2.560000E+03	8.303457E-15	2.464168E-16
2.600000E+03	1.036038E-14	2.307849E-16
2.640000E+03	1.245056E-14	3.058608E-16
2.680000E+03	1.435725E-14	5.155993E-16
2.720000E+03	1.595933E-14	7.939219E-16
2.760000E+03	1.720536E-14	1.090111E-15
2.800000E+03	1.809025E-14	1.370326E-15
2.840000E+03	1.864295E-14	1.611205E-15
2.880000E+03	1.891723E-14	1.798765E-15
2.920000E+03	1.898022E-14	1.927313E-15
2.960000E+03	1.890785E-14	1.998171E-15
3.000000E+03	1.877474E-14	2.017190E-15
3.010000E+03	1.874106E-14	2.014867E-15
3.020000E+03	1.870894E-14	2.009946E-15
3.030000E+03	1.867942E-14	2.002569E-15
3.040000E+03	1.865433E-14	1.992966E-15
3.050000E+03	1.863425E-14	1.981229E-15
3.060000E+03	1.862014E-14	1.967491E-15
3.070000E+03	1.861338E-14	1.951926E-15
3.080000E+03	1.861451E-14	1.934615E-15
3.090000E+03	1.862449E-14	1.915678E-15
3.100000E+03	1.864502E-14	1.895307E-15
3.110000E+03	1.867628E-14	1.873525E-15
3.120000E+03	1.871960E-14	1.850469E-15
3.130000E+03	1.877555E-14	1.826190E-15
3.140000E+03	1.884621E-14	1.800878E-15
3.150000E+03	1.893144E-14	1.774495E-15
3.160000E+03	1.903261E-14	1.747141E-15
3.170000E+03	1.915111E-14	1.718903E-15
3.180000E+03	1.928798E-14	1.689824E-15
3.190000E+03	1.944356E-14	1.659877E-15
3.200000E+03	1.962005E-14	1.629185E-15
3.210000E+03	1.981789E-14	1.597705E-15
3.220000E+03	2.003860E-14	1.565477E-15
3.230000E+03	2.028307E-14	1.532479E-15
3.240000E+03	2.055290E-14	1.498732E-15
3.250000E+03	2.084941E-14	1.464226E-15
3.260000E+03	2.117393E-14	1.428939E-15
3.270000E+03	2.152746E-14	1.392822E-15
3.280000E+03	2.191175E-14	1.355862E-15
3.290000E+03	2.232820E-14	1.318019E-15
3.300000E+03	2.277780E-14	1.279218E-15
3.310000E+03	2.326227E-14	1.239423E-15
3.320000E+03	2.378250E-14	1.198545E-15
3.330000E+03	2.434001E-14	1.156529E-15
3.340000E+03	2.493541E-14	1.113276E-15
3.350000E+03	2.556944E-14	1.068709E-15
3.360000E+03	2.624252E-14	1.022760E-15
3.370000E+03	2.695466E-14	9.753900E-16
3.380000E+03	2.770530E-14	9.266160E-16
3.390000E+03	2.849284E-14	8.765439E-16
3.400000E+03	2.931560E-14	8.254744E-16
3.410000E+03	3.016966E-14	7.739359E-16
3.420000E+03	3.105159E-14	7.229038E-16
3.430000E+03	3.195484E-14	6.738818E-16
3.440000E+03	3.287216E-14	6.291583E-16
3.450000E+03	3.379460E-14	5.918955E-16
3.460000E+03	3.471100E-14	5.659536E-16
3.470000E+03	3.560948E-14	5.551370E-16
3.480000E+03	3.647645E-14	5.614906E-16
3.490000E+03	3.729867E-14	5.836894E-16
3.500000E+03	3.806302E-14	6.179119E-16
3.510000E+03	3.875510E-14	6.596024E-16
3.520000E+03	3.936094E-14	7.045877E-16
3.530000E+03	3.986441E-14	7.494247E-16
3.540000E+03	4.025190E-14	7.915567E-16
3.550000E+03	4.051024E-14	8.291536E-16
3.560000E+03	4.062915E-14	8.609616E-16
3.570000E+03	4.060039E-14	8.862088E-16
3.580000E+03	4.042006E-14	9.045423E-16
3.590000E+03	4.008979E-14	9.159189E-16
3.600000E+03	3.961394E-14	9.205440E-16
3.610000E+03	3.900335E-14	9.189061E-16
3.620000E+03	3.827253E-14	9.116136E-16
3.630000E+03	3.743951E-14	8.994250E-16
3.640000E+03	3.652613E-14	8.832207E-16
3.650000E+03	3.555722E-14	8.638975E-16
3.660000E+03	3.455854E-14	8.423738E-16
3.670000E+03	3.355771E-14	8.195942E-16
3.680000E+03	3.258081E-14	7.963671E-16
3.690000E+03	3.165431E-14	7.734869E-16
3.700000E+03	3.080283E-14	7.516821E-16
3.710000E+03	3.004922E-14	7.315551E-16
3.720000E+03	2.941380E-14	7.136315E-16
3.730000E+03	2.891527E-14	6.983792E-16
3.740000E+03	2.856919E-14	6.861074E-16
3.750000E+03	2.838974E-14	6.770864E-16
3.760000E+03	2.838959E-14	6.715569E-16
3.770000E+03	2.857986E-14	6.696882E-16
3.780000E+03	2.897045E-14	6.716335E-16
3.790000E+03	2.957004E-14	6.775235E-16
3.800000E+03	3.038572E-14	6.873962E-16
3.810000E+03	3.142065E-14	7.012167E-16
3.820000E+03	3.267561E-14	7.189126E-16
3.830000E+03	3.414533E-14	7.402161E-16
3.840000E+03	3.581696E-14	7.647352E-16
3.850000E+03	3.767048E-14	7.919862E-16
3.860000E+03	3.967657E-14	8.212588E-16
3.870000E+03	4.179582E-14	8.517247E-16
3.880000E+03	4.398021E-14	8.824816E-16
3.890000E+03	4.617456E-14	9.124488E-16
3.900000E+03	4.832048E-14	9.405525E-16
3.910000E+03	5.036005E-14	9.657564E-16
3.920000E+03	5.224234E-14	9.869860E-16
3.930000E+03	5.392626E-14	1.003345E-15
3.940000E+03	5.538366E-14	1.014231E-15
3.950000E+03	5.660339E-14	1.019283E-15
3.960000E+03	5.758896E-14	1.018554E-15
3.970000E+03	5.835671E-14	1.012504E-15
3.980000E+03	5.893642E-14	1.001833E-15
3.990000E+03	5.936350E-14	9.875187E-16
4.000000E+03	5.967618E-14	9.707164E-16
4.010000E+03	5.990934E-14	9.524036E-16
4.020000E+03	6.009189E-14	9.335336E-16
4.030000E+03	6.024489E-14	9.149471E-16
4.040000E+03	6.037402E-14	8.969703E-16
4.050000E+03	6.047525E-14	8.798060E-16
4.060000E+03	6.053538E-14	8.635128E-16
4.070000E+03	6.053259E-14	8.476864E-16
4.080000E+03	6.044086E-14	8.319039E-16
4.090000E+03	6.023516E-14	8.157949E-16
4.100000E+03	5.989337E-14	7.987022E-16
4.110000E+03	5.939910E-14	7.801597E-16
4.120000E+03	5.874405E-14	7.599493E-16
4.130000E+03	5.792703E-14	7.377171E-16
4.140000E+03	5.695576E-14	7.134484E-16
4.150000E+03	5.584333E-14	6.874503E-16
4.160000E+03	5.460843E-14	6.599954E-16
4.170000E+03	5.327309E-14	6.316863E-16
4.180000E+03	5.186137E-14	6.033695E-16
4.190000E+03	5.039914E-14	5.756825E-16
4.200000E+03	4.891217E-14	5.494239E-16
4.210000E+03	4.742586E-14	5.253708E-16
4.220000E+03	4.596623E-14	5.037323E-16
4.230000E+03	4.455729E-14	4.846593E-16
4.240000E+03	4.322178E-14	4.681988E-16
4.250000E+03	4.198245E-14	4.538107E-16
4.260000E+03	4.085903E-14	4.409722E-16
4.270000E+03	3.986675E-14	4.292921E-16
4.280000E+03	3.901863E-14	4.181656E-16
4.290000E+03	3.832349E-14	4.072138E-16
4.300000E+03	3.778537E-14	3.963461E-16
4.310000E+03	3.740238E-14	3.854344E-16
4.320000E+03	3.716815E-14	3.746537E-16
4.330000E+03	3.707227E-14	3.644282E-16
4.340000E+03	3.709534E-14	3.549953E-16
4.350000E+03	3.721646E-14	3.468477E-16
4.360000E+03	3.741444E-14	3.406521E-16
4.370000E+03	3.766886E-14	3.367990E-16
4.380000E+03	3.796226E-14	3.358136E-16
4.390000E+03	3.828349E-14	3.381063E-16
4.400000E+03	3.862927E-14	3.431723E-16
4.410000E+03	3.900346E-14	3.504430E-16
4.420000E+03	3.941261E-14	3.595453E-16
4.430000E+03	3.986373E-14	3.698110E-16
4.440000E+03	4.036478E-14	3.808534E-16
4.450000E+03	4.091942E-14	3.925584E-16
4.460000E+03	4.152143E-14	4.044806E-16
4.470000E+03	4.215771E-14	4.164047E-16
4.480000E+03	4.280870E-14	4.283836E-16
4.490000E+03	4.344946E-14	4.402408E-16
4.500000E+03	4.405092E-14	4.519416E-16
4.510000E+03	4.458381E-14	4.635408E-16
4.520000E+03	4.502336E-14	4.746772E-16
4.530000E+03	4.534844E-14	4.850969E-16
4.540000E+03	4.554261E-14	4.947497E-16
4.550000E+03	4.559696E-14	5.033544E-16
4.560000E+03	4.550758E-14	5.108300E-16
4.570000E+03	4.527454E-14	5.172774E-16
4.580000E+03	4.490362E-14	5.225467E-16
4.590000E+03	4.440229E-14	5.265652E-16
4.600000E+03	4.378193E-14	5.293536E-16
4.610000E+03	4.305887E-14	5.306497E-16
4.620000E+03	4.225129E-14	5.303251E-16
4.630000E+03	4.137763E-14	5.284744E-16
4.640000E+03	4.046022E-14	5.251807E-16
4.650000E+03	3.951785E-14	5.206604E-16
4.660000E+03	3.856926E-14	5.152635E-16
4.670000E+03	3.762898E-14	5.091622E-16
4.680000E+03	3.670825E-14	5.025500E-16
4.690000E+03	3.581512E-14	4.956241E-16
4.700000E+03	3.495459E-14	4.883793E-16
4.710000E+03	3.412970E-14	4.808559E-16
4.720000E+03	3.334044E-14	4.731362E-16
4.730000E+03	3.258565E-14	4.651772E-16
4.740000E+03	3.186320E-14	4.569892E-16
4.750000E+03	3.116913E-14	4.486077E-16
4.760000E+03	3.050083E-14	4.399764E-16
4.770000E+03	2.985406E-14	4.310608E-16
4.780000E+03	2.922739E-14	4.219122E-16
4.790000E+03	2.862112E-14	4.125047E-16
4.800000E+03	2.803689E-14	4.029051E-16
4.810000E+03	2.747938E-14	3.933126E-16
4.820000E+03	2.695595E-14	3.839262E-16
4.830000E+03	2.647420E-14	3.750069E-16
4.840000E+03	2.604240E-14	3.668416E-16
4.850000E+03	2.566810E-14	3.595853E-16
4.860000E+03	2.535712E-14	3.533802E-16
4.870000E+03	2.511296E-14	3.483441E-16
4.880000E+03	2.493604E-14	3.444279E-16
4.890000E+03	2.482383E-14	3.415718E-16
4.900000E+03	2.477242E-14	3.397317E-16
4.910000E+03	2.477496E-14	3.387273E-16
4.920000E+03	2.482456E-14	3.384208E-16
4.930000E+03	2.491453E-14	3.387228E-16
4.940000E+03	2.503895E-14	3.394618E-16
4.950000E+03	2.519370E-14	3.405383E-16
4.960000E+03	2.537548E-14	3.419121E-16
4.970000E+03	2.558315E-14	3.434767E-16
4.980000E+03	2.581608E-14	3.451834E-16
4.990000E+03	2.607424E-14	3.470537E-16
5.000000E+03	2.635697E-14	3.490281E-16
5.010000E+03	2.666381E-14	3.511208E-16
5.020000E+03	2.699206E-14	3.533839E-16
5.030000E+03	2.733751E-14	3.557653E-16
5.040000E+03	2.769448E-14	3.582580E-16
5.050000E+03	2.805499E-14	3.608768E-16
5.060000E+03	2.840916E-14	3.634849E-16
5.070000E+03	2.874565E-14	3.659692E-16
5.080000E+03	2.905238E-14	3.682453E-16
5.090000E+03	2.931669E-14	3.700688E-16
5.100000E+03	2.952643E-14	3.712402E-16
5.110000E+03	2.967066E-14	3.716273E-16
5.120000E+03	2.973926E-14	3.709818E-16
5.130000E+03	2.972490E-14	3.691695E-16
5.140000E+03	2.962030E-14	3.661476E-16
5.150000E+03	2.942178E-14	3.618119E-16
5.160000E+03	2.912692E-14	3.561703E-16
5.170000E+03	2.873608E-14	3.493326E-16
5.180000E+03	2.825280E-14	3.412805E-16
5.190000E+03	2.768371E-14	3.320782E-16
5.200000E+03	2.704019E-14	3.218780E-16
5.210000E+03	2.633864E-14	3.107246E-16
5.220000E+03	2.559970E-14	2.987893E-16
5.230000E+03	2.484563E-14	2.863533E-16
5.240000E+03	2.410328E-14	2.736399E-16
5.250000E+03	2.339855E-14	2.609597E-16
5.260000E+03	2.275381E-14	2.486574E-16
5.270000E+03	2.218694E-14	2.369115E-16
5.280000E+03	2.171126E-14	2.259038E-16
5.290000E+03	2.133295E-14	2.157689E-16
5.300000E+03	2.105063E-14	2.064231E-16
5.310000E+03	2.085666E-14	1.978107E-16
5.320000E+03	2.073813E-14	1.899163E-16
5.330000E+03	2.067461E-14	1.825557E-16
5.340000E+03	2.064247E-14	1.756684E-16
5.350000E+03	2.061765E-14	1.693042E-16
5.360000E+03	2.057808E-14	1.633918E-16
5.370000E+03	2.050460E-14	1.580383E-16
5.380000E+03	2.038599E-14	1.534795E-16
5.390000E+03	2.022098E-14	1.496985E-16
5.400000E+03	2.001598E-14	1.468506E-16
5.410000E+03	1.978350E-14	1.451474E-16
5.420000E+03	1.954496E-14	1.443147E-16
5.430000E+03	1.932541E-14	1.442022E-16
5.440000E+03	1.914783E-14	1.448845E-16
5.450000E+03	1.903229E-14	1.462230E-16
5.460000E+03	1.899593E-14	1.482446E-16
5.470000E+03	1.905119E-14	1.511596E-16
5.480000E+03	1.920041E-14	1.549940E-16
5.490000E+03	1.943816E-14	1.598755E-16
5.500000E+03	1.975469E-14	1.660166E-16
5.510000E+03	2.013182E-14	1.733221E-16
5.520000E+03	2.054791E-14	1.816731E-16
5.530000E+03	2.098023E-14	1.909156E-16
5.540000E+03	2.140848E-14	2.005534E-16
5.550000E+03	2.181454E-14	2.100715E-16
5.560000E+03	2.218390E-14	2.190931E-16
5.570000E+03	2.250509E-14	2.271871E-16
5.580000E+03	2.277075E-14	2.341360E-16
5.590000E+03	2.297639E-14	2.399488E-16
5.600000E+03	2.312103E-14	2.446314E-16
5.610000E+03	2.320549E-14	2.483410E-16
5.620000E+03	2.323248E-14	2.513425E-16
5.630000E+03	2.320516E-14	2.537421E-16
5.640000E+03	2.312687E-14	2.556669E-16
5.650000E+03	2.300155E-14	2.572560E-16
5.660000E+03	2.283266E-14	2.584435E-16
5.670000E+03	2.262457E-14	2.591912E-16
5.680000E+03	2.238251E-14	2.595267E-16
5.690000E+03	2.211274E-14	2.593851E-16
5.700000E+03	2.182258E-14	2.587872E-16
5.710000E+03	2.152043E-14	2.578477E-16
5.720000E+03	2.121642E-14	2.566297E-16
5.730000E+03	2.092015E-14	2.552562E-16
5.740000E+03	2.064176E-14	2.539125E-16
5.750000E+03	2.039014E-14	2.526822E-16
5.760000E+03	2.017273E-14	2.516769E-16
5.770000E+03	1.999549E-14	2.510361E-16
5.780000E+03	1.986173E-14	2.507869E-16
5.790000E+03	1.977232E-14	2.509653E-16
5.800000E+03	1.972637E-14	2.516236E-16
5.810000E+03	1.972106E-14	2.527057E-16
5.820000E+03	1.975122E-14	2.541581E-16
5.830000E+03	1.981140E-14	2.559561E-16
5.840000E+03	1.989508E-14	2.579748E-16
5.850000E+03	1.999528E-14	2.601125E-16
5.860000E+03	2.010525E-14	2.623018E-16
5.870000E+03	2.021756E-14	2.643847E-16
5.880000E+03	2.032575E-14	2.662515E-16
5.890000E+03	2.042260E-14	2.678250E-16
5.900000E+03	2.050083E-14	2.689598E-16
5.910000E+03	2.055282E-14	2.695551E-16
5.920000E+03	2.057041E-14	2.695573E-16
5.930000E+03	2.054489E-14	2.688503E-16
5.940000E+03	2.046631E-14	2.673521E-16
5.950000E+03	2.032495E-14	2.650231E-16
5.960000E+03	2.011132E-14	2.617479E-16
5.970000E+03	1.981654E-14	2.574543E-16
5.980000E+03	1.943313E-14	2.521163E-16
5.990000E+03	1.895754E-14	2.456668E-16
6.000000E+03	1.838896E-14	2.381052E-16
6.010000E+03	1.773293E-14	2.295373E-16
6.020000E+03	1.699976E-14	2.200369E-16
6.030000E+03	1.620558E-14	2.097703E-16
6.040000E+03	1.537141E-14	1.989669E-16
6.050000E+03	1.452227E-14	1.878088E-16
6.060000E+03	1.368448E-14	1.765370E-16
6.070000E+03	1.288330E-14	1.654440E-16
6.080000E+03	1.214336E-14	1.547994E-16
6.090000E+03	1.148498E-14	1.448855E-16
6.100000E+03	1.092466E-14	1.359906E-16
6.110000E+03	1.047452E-14	1.283229E-16
6.120000E+03	1.014326E-14	1.220590E-16
6.130000E+03	9.936269E-15	1.173094E-16
6.140000E+03	9.855716E-15	1.140500E-16
6.150000E+03	9.902212E-15	1.122299E-16
6.160000E+03	1.007551E-14	1.117899E-16
6.170000E+03	1.037284E-14	1.125793E-16
6.180000E+03	1.078940E-14	1.144618E-16
6.190000E+03	1.131877E-14	1.173226E-16
6.200000E+03	1.194955E-14	1.209306E-16
6.210000E+03	1.266598E-14	1.250828E-16
6.220000E+03	1.344801E-14	1.296316E-16
6.230000E+03	1.427092E-14	1.343571E-16
6.240000E+03	1.510729E-14	1.391415E-16
6.250000E+03	1.592855E-14	1.439482E-16
6.260000E+03	1.670735E-14	1.485826E-16
6.270000E+03	1.742005E-14	1.529449E-16
6.280000E+03	1.804832E-14	1.570420E-16
6.290000E+03	1.857816E-14	1.606659E-16
6.300000E+03	1.900208E-14	1.637331E-16
6.310000E+03	1.931902E-14	1.663294E-16
6.320000E+03	1.953186E-14	1.683819E-16
6.330000E+03	1.964701E-14	1.699497E-16
6.340000E+03	1.967418E-14	1.712204E-16
6.350000E+03	1.962349E-14	1.721683E-16
6.360000E+03	1.950516E-14	1.728273E-16
6.370000E+03	1.933051E-14	1.733235E-16
6.380000E+03	1.910940E-14	1.736063E-16
6.390000E+03	1.885160E-14	1.736841E-16
6.400000E+03	1.856717E-14	1.736516E-16
6.410000E+03	1.826657E-14	1.735021E-16
6.420000E+03	1.795942E-14	1.733117E-16
6.430000E+03	1.765593E-14	1.732756E-16
6.440000E+03	1.736495E-14	1.735236E-16
6.450000E+03	1.709363E-14	1.742248E-16
6.460000E+03	1.684698E-14	1.755515E-16
6.470000E+03	1.662721E-14	1.775115E-16
6.480000E+03	1.643399E-14	1.800497E-16
6.490000E+03	1.626401E-14	1.830679E-16
6.500000E+03	1.611362E-14	1.863872E-16
6.510000E+03	1.597805E-14	1.898517E-16
6.520000E+03	1.585222E-14	1.933587E-16
6.530000E+03	1.573202E-14	1.967966E-16
6.540000E+03	1.561376E-14	2.001025E-16
6.550000E+03	1.549441E-14	2.032602E-16
6.560000E+03	1.537174E-14	2.062237E-16
6.570000E+03	1.524445E-14	2.089769E-16
6.580000E+03	1.511132E-14	2.115223E-16
6.590000E+03	1.497197E-14	2.138308E-16
6.600000E+03	1.482667E-14	2.158964E-16
6.610000E+03	1.467580E-14	2.177339E-16
6.620000E+03	1.451983E-14	2.193311E-16
6.630000E+03	1.435990E-14	2.207034E-16
6.640000E+03	1.419679E-14	2.218792E-16
6.650000E+03	1.403216E-14	2.228738E-16
6.660000E+03	1.386670E-14	2.237018E-16
6.670000E+03	1.370160E-14	2.243991E-16
6.680000E+03	1.353827E-14	2.249807E-16
6.690000E+03	1.337781E-14	2.254676E-16
6.700000E+03	1.322101E-14	2.258883E-16
6.710000E+03	1.306885E-14	2.262523E-16
6.720000E+03	1.292242E-14	2.265827E-16
6.730000E+03	1.278225E-14	2.269040E-16
6.740000E+03	1.264920E-14	2.272291E-16
6.750000E+03	1.252331E-14	2.275664E-16
6.760000E+03	1.240538E-14	2.279474E-16
6.770000E+03	1.229511E-14	2.283671E-16
6.780000E+03	1.219295E-14	2.288415E-16
6.790000E+03	1.209826E-14	2.293748E-16
6.800000E+03	1.201092E-14	2.299635E-16
6.810000E+03	1.193044E-14	2.306036E-16
6.820000E+03	1.185601E-14	2.312915E-16
6.830000E+03	1.178725E-14	2.320155E-16
6.840000E+03	1.172328E-14	2.327608E-16
6.850000E+03	1.166369E-14	2.335277E-16
6.860000E+03	1.160750E-14	2.342917E-16
6.870000E+03	1.155465E-14	2.350530E-16
6.880000E+03	1.150451E-14	2.358070E-16
6.890000E+03	1.145675E-14	2.365434E-16
6.900000E+03	1.141092E-14	2.372551E-16
6.910000E+03	1.136725E-14	2.379556E-16
6.920000E+03	1.132496E-14	2.386256E-16
6.930000E+03	1.128457E-14	2.392788E-16
6.940000E+03	1.124555E-14	2.399121E-16
6.950000E+03	1.120781E-14	2.405209E-16
6.960000E+03	1.117147E-14	2.411105E-16
6.970000E+03	1.113621E-14	2.416816E-16
6.980000E+03	1.110192E-14	2.422295E-16
6.990000E+03	1.106848E-14	2.427537E-16
7.000000E+03	1.103573E-14	2.432580E-16
7.010000E+03	1.100352E-14	2.437356E-16
7.020000E+03	1.097144E-14	2.441785E-16
7.030000E+03	1.093971E-14	2.445968E-16
7.040000E+03	1.090745E-14	2.449660E-16
7.050000E+03	1.087506E-14	2.452943E-16
7.060000E+03	1.084161E-14	2.455639E-16
7.070000E+03	1.080723E-14	2.457723E-16
7.080000E+03	1.077140E-14	2.459058E-16
7.090000E+03	1.073379E-14	2.459600E-16
7.100000E+03	1.069429E-14	2.459271E-16
7.110000E+03	1.065215E-14	2.457891E-16
7.120000E+03	1.060729E-14	2.455476E-16
7.130000E+03	1.055921E-14	2.451877E-16
7.140000E+03	1.050790E-14	2.447091E-16
7.150000E+03	1.045317E-14	2.441120E-16
7.160000E+03	1.039469E-14	2.433856E-16
7.170000E+03	1.033261E-14	2.425339E-16
7.180000E+03	1.026649E-14	2.415511E-16
7.190000E+03	1.019683E-14	2.404453E-16
7.200000E+03	1.012356E-14	2.392147E-16
7.210000E+03	1.004662E-14	2.378617E-16
7.220000E+03	9.966470E-15	2.363936E-16
7.230000E+03	9.883348E-15	2.348171E-16
7.240000E+03	9.797319E-15	2.331384E-16
7.250000E+03	9.708673E-15	2.313633E-16
7.260000E+03	9.617696E-15	2.295019E-16
7.270000E+03	9.524661E-15	2.275680E-16
7.280000E+03	9.429841E-15	2.255705E-16
7.290000E+03	9.333111E-15	2.235124E-16
7.300000E+03	9.235113E-15	2.214193E-16
7.310000E+03	9.135917E-15	2.192975E-16
7.320000E+03	9.035601E-15	2.171566E-16
7.330000E+03	8.934640E-15	2.150187E-16
7.340000E+03	8.832986E-15	2.128871E-16
7.350000E+03	8.731014E-15	2.107766E-16
7.360000E+03	8.629151E-15	2.087042E-16
7.370000E+03	8.527729E-15	2.066762E-16
7.380000E+03	8.427521E-15	2.047087E-16
7.390000E+03	8.328677E-15	2.028008E-16
7.400000E+03	8.232352E-15	2.009659E-16
7.410000E+03	8.139075E-15	1.991998E-16
7.420000E+03	8.049962E-15	1.975105E-16
7.430000E+03	7.965837E-15	1.958897E-16
7.440000E+03	7.887687E-15	1.943342E-16
7.450000E+03	7.816581E-15	1.928479E-16
7.460000E+03	7.753109E-15	1.914267E-16
7.470000E+03	7.698366E-15	1.900857E-16
7.480000E+03	7.652411E-15	1.888195E-16
7.490000E+03	7.615735E-15	1.876349E-16
7.500000E+03	7.588101E-15	1.865243E-16
7.510000E+03	7.569718E-15	1.854939E-16
7.520000E+03	7.559909E-15	1.845273E-16
7.530000E+03	7.557971E-15	1.836097E-16
7.540000E+03	7.563198E-15	1.827285E-16
7.550000E+03	7.574588E-15	1.818635E-16
7.560000E+03	7.591364E-15	1.810022E-16
7.570000E+03	7.612025E-15	1.801164E-16
7.580000E+03	7.635566E-15	1.791882E-16
7.590000E+03	7.661010E-15	1.782013E-16
7.600000E+03	7.687128E-15	1.771345E-16
7.610000E+03	7.713171E-15	1.759747E-16
7.620000E+03	7.738203E-15	1.747054E-16
7.630000E+03	7.761986E-15	1.733268E-16
7.640000E+03	7.783787E-15	1.718251E-16
7.650000E+03	7.803757E-15	1.702075E-16
7.660000E+03	7.821481E-15	1.684693E-16
7.670000E+03	7.837380E-15	1.666204E-16
7.680000E+03	7.851244E-15	1.646581E-16
7.690000E+03	7.863604E-15	1.625961E-16
7.700000E+03	7.874443E-15	1.604328E-16
7.710000E+03	7.883884E-15	1.581710E-16
7.720000E+03	7.891987E-15	1.558134E-16
7.730000E+03	7.898720E-15	1.533570E-16
7.740000E+03	7.903958E-15	1.507996E-16
7.750000E+03	7.907294E-15	1.481353E-16
7.760000E+03	7.908771E-15	1.453637E-16
