#wls	flux	fluxerr
1.600000E+03	1.701213E-14	4.484730E-15
1.640000E+03	1.606162E-14	3.831209E-15
1.680000E+03	1.507423E-14	3.221549E-15
1.720000E+03	1.405580E-14	2.660051E-15
1.760000E+03	1.301438E-14	2.150520E-15
1.800000E+03	1.195952E-14	1.695878E-15
1.840000E+03	1.089715E-14	1.297376E-15
1.880000E+03	9.838693E-15	9.559257E-16
1.920000E+03	8.792618E-15	6.709568E-16
1.960000E+03	7.767579E-15	4.411782E-16
2.000000E+03	6.772038E-15	2.652876E-16
2.040000E+03	5.817077E-15	1.444633E-16
2.080000E+03	4.921943E-15	8.668160E-17
2.120000E+03	4.128283E-15	8.064553E-17
2.160000E+03	3.491212E-15	8.109408E-17
2.200000E+03	3.044394E-15	7.587385E-17
2.240000E+03	2.797157E-15	7.204115E-17
2.280000E+03	2.751337E-15	7.830234E-17
2.320000E+03	2.909091E-15	9.708170E-17
2.360000E+03	3.285537E-15	1.263352E-16
2.400000E+03	3.919256E-15	1.640715E-16
2.440000E+03	4.870578E-15	2.068943E-16
2.480000E+03	6.212032E-15	2.466577E-16
2.520000E+03	8.004357E-15	2.673593E-16
2.560000E+03	1.025952E-14	2.472974E-16
2.600000E+03	1.289957E-14	1.931614E-16
2.640000E+03	1.576486E-14	2.765246E-16
2.680000E+03	1.861223E-14	5.690742E-16
2.720000E+03	2.118648E-14	9.565676E-16
2.760000E+03	2.330440E-14	1.375068E-15
2.800000E+03	2.486308E-14	1.775426E-15
2.840000E+03	2.583888E-14	2.118037E-15
2.880000E+03	2.627642E-14	2.376356E-15
2.920000E+03	2.626629E-14	2.538124E-15
2.960000E+03	2.592888E-14	2.604332E-15
3.000000E+03	2.539066E-14	2.585218E-15
3.010000E+03	2.524010E-14	2.568956E-15
3.020000E+03	2.508618E-14	2.548567E-15
3.030000E+03	2.493066E-14	2.524320E-15
3.040000E+03	2.477632E-14	2.496597E-15
3.050000E+03	2.462419E-14	2.465602E-15
3.060000E+03	2.447583E-14	2.431592E-15
3.070000E+03	2.433326E-14	2.394869E-15
3.080000E+03	2.419740E-14	2.355619E-15
3.090000E+03	2.406967E-14	2.314072E-15
3.100000E+03	2.395243E-14	2.270540E-15
3.110000E+03	2.384601E-14	2.225130E-15
3.120000E+03	2.375220E-14	2.178077E-15
3.130000E+03	2.367179E-14	2.129512E-15
3.140000E+03	2.360744E-14	2.079722E-15
3.150000E+03	2.355898E-14	2.028723E-15
3.160000E+03	2.352813E-14	1.976690E-15
3.170000E+03	2.351657E-14	1.923774E-15
3.180000E+03	2.352554E-14	1.870075E-15
3.190000E+03	2.355544E-14	1.815611E-15
3.200000E+03	2.360889E-14	1.760563E-15
3.210000E+03	2.368636E-14	1.704930E-15
3.220000E+03	2.378969E-14	1.648800E-15
3.230000E+03	2.391991E-14	1.592195E-15
3.240000E+03	2.407899E-14	1.535190E-15
3.250000E+03	2.426855E-14	1.477827E-15
3.260000E+03	2.449032E-14	1.420151E-15
3.270000E+03	2.474571E-14	1.362188E-15
3.280000E+03	2.503713E-14	1.304022E-15
3.290000E+03	2.536667E-14	1.245727E-15
3.300000E+03	2.573620E-14	1.187377E-15
3.310000E+03	2.614860E-14	1.129111E-15
3.320000E+03	2.660609E-14	1.071058E-15
3.330000E+03	2.711195E-14	1.013414E-15
3.340000E+03	2.766885E-14	9.563707E-16
3.350000E+03	2.828012E-14	9.001547E-16
3.360000E+03	2.894930E-14	8.450022E-16
3.370000E+03	2.968015E-14	7.911460E-16
3.380000E+03	3.047657E-14	7.388152E-16
3.390000E+03	3.134203E-14	6.882462E-16
3.400000E+03	3.228073E-14	6.397594E-16
3.410000E+03	3.329500E-14	5.937826E-16
3.420000E+03	3.438819E-14	5.510199E-16
3.430000E+03	3.556032E-14	5.125148E-16
3.440000E+03	3.681034E-14	4.798518E-16
3.450000E+03	3.813449E-14	4.552264E-16
3.460000E+03	3.952513E-14	4.412831E-16
3.470000E+03	4.097167E-14	4.405364E-16
3.480000E+03	4.245906E-14	4.540668E-16
3.482000E+03	3.525752E-14	3.735487E-15
3.483470E+03	3.552703E-14	3.751840E-15
3.484940E+03	3.580343E-14	3.768672E-15
3.486410E+03	3.609128E-14	3.786317E-15
3.487880E+03	3.637232E-14	3.803438E-15
3.489350E+03	3.665112E-14	3.820370E-15
3.490820E+03	3.694595E-14	3.838448E-15
3.492290E+03	3.726137E-14	3.858009E-15
3.493760E+03	3.759740E-14	3.879054E-15
3.495230E+03	3.796775E-14	3.902594E-15
3.496700E+03	3.834729E-14	3.926789E-15
3.498170E+03	3.873374E-14	3.951470E-15
3.499640E+03	3.911567E-14	3.975796E-15
3.501110E+03	3.949765E-14	4.000101E-15
3.502580E+03	3.990025E-14	4.025901E-15
3.504050E+03	4.030519E-14	4.051849E-15
3.505520E+03	4.070105E-14	4.077098E-15
3.506990E+03	4.112439E-14	4.104351E-15
3.508460E+03	4.158208E-14	4.140519E-15
3.509930E+03	4.206270E-14	4.167628E-15
3.511400E+03	4.254109E-14	4.171181E-15
3.512870E+03	4.302412E-14	4.194980E-15
3.514340E+03	4.350265E-14	4.232774E-15
3.515810E+03	4.398581E-14	4.213925E-15
3.517280E+03	4.448734E-14	4.177254E-15
3.518750E+03	4.502782E-14	4.201413E-15
3.520220E+03	4.556837E-14	4.202386E-15
3.521690E+03	4.610899E-14	4.224472E-15
3.523160E+03	4.668172E-14	4.255392E-15
3.524630E+03	4.725910E-14	4.243617E-15
3.526100E+03	4.781368E-14	4.251285E-15
3.527570E+03	4.837291E-14	4.294093E-15
3.529040E+03	4.893908E-14	4.340725E-15
3.530510E+03	4.948702E-14	4.386038E-15
3.531980E+03	5.004190E-14	4.464816E-15
3.533450E+03	5.062432E-14	4.579992E-15
3.534920E+03	5.123429E-14	4.643398E-15
3.536390E+03	5.183289E-14	4.700524E-15
3.537860E+03	5.241555E-14	4.769839E-15
3.539330E+03	5.300288E-14	4.838692E-15
3.540800E+03	5.359714E-14	4.894778E-15
3.542270E+03	5.418234E-14	4.933315E-15
3.543740E+03	5.475616E-14	4.969334E-15
3.545210E+03	5.530716E-14	5.005598E-15
3.546680E+03	5.582846E-14	5.044470E-15
3.548150E+03	5.633838E-14	5.032523E-15
3.549620E+03	5.684379E-14	5.050175E-15
3.551090E+03	5.733553E-14	5.076724E-15
3.552560E+03	5.779984E-14	5.086295E-15
3.554030E+03	5.824131E-14	5.086080E-15
3.555500E+03	5.864847E-14	5.051726E-15
3.556970E+03	5.903507E-14	5.074560E-15
3.558440E+03	5.939193E-14	5.103147E-15
3.559910E+03	5.972822E-14	5.160422E-15
3.561380E+03	6.005767E-14	5.218760E-15
3.562850E+03	6.032759E-14	5.276998E-15
3.564320E+03	6.054482E-14	5.289250E-15
3.565790E+03	6.073688E-14	5.300120E-15
3.567260E+03	6.089915E-14	5.315440E-15
3.568730E+03	6.104311E-14	5.331291E-15
3.570200E+03	6.115729E-14	5.358525E-15
3.571670E+03	6.123939E-14	5.412005E-15
3.573140E+03	6.126646E-14	5.462511E-15
3.574610E+03	6.126373E-14	5.504407E-15
3.576080E+03	6.126330E-14	5.514822E-15
3.577550E+03	6.122846E-14	5.505991E-15
3.579020E+03	6.117068E-14	5.502635E-15
3.580490E+03	6.108996E-14	5.487742E-15
3.581960E+03	6.100006E-14	5.437817E-15
3.583430E+03	6.089638E-14	5.349667E-15
3.584900E+03	6.078810E-14	5.306881E-15
3.586370E+03	6.065227E-14	5.253636E-15
3.587840E+03	6.049807E-14	5.186235E-15
3.589310E+03	6.034614E-14	5.104147E-15
3.590780E+03	6.022174E-14	5.067234E-15
3.592250E+03	6.009961E-14	5.084749E-15
3.593720E+03	5.993386E-14	5.103906E-15
3.595190E+03	5.978645E-14	5.083220E-15
3.596660E+03	5.961377E-14	5.064058E-15
3.598130E+03	5.942730E-14	5.092557E-15
3.599600E+03	5.927294E-14	5.091933E-15
3.601070E+03	5.910020E-14	5.086755E-15
3.602540E+03	5.890677E-14	5.137829E-15
3.604010E+03	5.871331E-14	5.204860E-15
3.605480E+03	5.854738E-14	5.273803E-15
3.606950E+03	5.839981E-14	5.413640E-15
3.608420E+03	5.825681E-14	5.560426E-15
3.609890E+03	5.812298E-14	5.611633E-15
3.611360E+03	5.801900E-14	5.603312E-15
3.612830E+03	5.790811E-14	5.588819E-15
3.614300E+03	5.780870E-14	5.610356E-15
3.615770E+03	5.773684E-14	5.624623E-15
3.617240E+03	5.768565E-14	5.612511E-15
3.618710E+03	5.765514E-14	5.583493E-15
3.620180E+03	5.767748E-14	5.539805E-15
3.621650E+03	5.768833E-14	5.445718E-15
3.623120E+03	5.767390E-14	5.336483E-15
3.624590E+03	5.770774E-14	5.224850E-15
3.626060E+03	5.775768E-14	5.137131E-15
3.627530E+03	5.779613E-14	5.078140E-15
3.629000E+03	5.783459E-14	5.006902E-15
3.630470E+03	5.785006E-14	4.962417E-15
3.631940E+03	5.792302E-14	4.959963E-15
3.633410E+03	5.802588E-14	4.964794E-15
3.634880E+03	5.811726E-14	4.948263E-15
3.636350E+03	5.821556E-14	4.937734E-15
3.637820E+03	5.832536E-14	5.028160E-15
3.639290E+03	5.841679E-14	5.086443E-15
3.640760E+03	5.852203E-14	5.123969E-15
3.642230E+03	5.863188E-14	5.176103E-15
3.643700E+03	5.873485E-14	5.227707E-15
3.645170E+03	5.885394E-14	5.305313E-15
3.646640E+03	5.898685E-14	5.390420E-15
3.648110E+03	5.911749E-14	5.473604E-15
3.649580E+03	5.920441E-14	5.504536E-15
3.651050E+03	5.929136E-14	5.528747E-15
3.652520E+03	5.938522E-14	5.573290E-15
3.653990E+03	5.947449E-14	5.578824E-15
3.655460E+03	5.953845E-14	5.571178E-15
3.656930E+03	5.960703E-14	5.490090E-15
3.658400E+03	5.968483E-14	5.384325E-15
3.659870E+03	5.972810E-14	5.323135E-15
3.661340E+03	5.977369E-14	5.308804E-15
3.662810E+03	5.980547E-14	5.235409E-15
3.664280E+03	5.982574E-14	5.123282E-15
3.665750E+03	5.982298E-14	5.030109E-15
3.667220E+03	5.976495E-14	4.973657E-15
3.668690E+03	5.969079E-14	4.921387E-15
3.670160E+03	5.961202E-14	4.859931E-15
3.671630E+03	5.952172E-14	4.784853E-15
3.673100E+03	5.939224E-14	4.667694E-15
3.674570E+03	5.925123E-14	4.552931E-15
3.676040E+03	5.909407E-14	4.482575E-15
3.677510E+03	5.890924E-14	4.467265E-15
3.678980E+03	5.871977E-14	4.481243E-15
3.680450E+03	5.851415E-14	4.507921E-15
3.681920E+03	5.826011E-14	4.505091E-15
3.683390E+03	5.797606E-14	4.523056E-15
3.684860E+03	5.765510E-14	4.529668E-15
3.686330E+03	5.731335E-14	4.564608E-15
3.687800E+03	5.692083E-14	4.614560E-15
3.689270E+03	5.651443E-14	4.674592E-15
3.690740E+03	5.611258E-14	4.712072E-15
3.692210E+03	5.568301E-14	4.757287E-15
3.693680E+03	5.522340E-14	4.821687E-15
3.695150E+03	5.473375E-14	4.837780E-15
3.696620E+03	5.419560E-14	4.820072E-15
3.698090E+03	5.361125E-14	4.798465E-15
3.699560E+03	5.300375E-14	4.794657E-15
3.701030E+03	5.238232E-14	4.768128E-15
3.702500E+03	5.174235E-14	4.710959E-15
3.703970E+03	5.107000E-14	4.667766E-15
3.705440E+03	5.039293E-14	4.613884E-15
3.706910E+03	4.972962E-14	4.575903E-15
3.708380E+03	4.903622E-14	4.488130E-15
3.709850E+03	4.830579E-14	4.359990E-15
3.711320E+03	4.755911E-14	4.225821E-15
3.712790E+03	4.679617E-14	4.152621E-15
3.714260E+03	4.603082E-14	4.054916E-15
3.715730E+03	4.528844E-14	3.928632E-15
3.717200E+03	4.455057E-14	3.762759E-15
3.718670E+03	4.380799E-14	3.589532E-15
3.720140E+03	4.303298E-14	3.438270E-15
3.721610E+03	4.227633E-14	3.271087E-15
3.723080E+03	4.153112E-14	3.178134E-15
3.724550E+03	4.075578E-14	3.142782E-15
3.726020E+03	4.000113E-14	3.076893E-15
3.727490E+03	3.928101E-14	3.042756E-15
3.728960E+03	3.857003E-14	3.050552E-15
3.730430E+03	3.787281E-14	3.105750E-15
3.731900E+03	3.722401E-14	3.133935E-15
3.733370E+03	3.660053E-14	3.138671E-15
3.734840E+03	3.598621E-14	3.142868E-15
3.736310E+03	3.536718E-14	3.149562E-15
3.737780E+03	3.477348E-14	3.154235E-15
3.739250E+03	3.421436E-14	3.139803E-15
3.740720E+03	3.367134E-14	3.118999E-15
3.742190E+03	3.314674E-14	3.081498E-15
3.743660E+03	3.262669E-14	2.995558E-15
3.745130E+03	3.212968E-14	2.933588E-15
3.746600E+03	3.168115E-14	2.888318E-15
3.748070E+03	3.126723E-14	2.815390E-15
3.749540E+03	3.088332E-14	2.747264E-15
3.751010E+03	3.050628E-14	2.710963E-15
3.752480E+03	3.014076E-14	2.653655E-15
3.753950E+03	2.979138E-14	2.580075E-15
3.755420E+03	2.944657E-14	2.503067E-15
3.756890E+03	2.913409E-14	2.372612E-15
3.758360E+03	2.884702E-14	2.276725E-15
3.759830E+03	2.857378E-14	2.242928E-15
3.761300E+03	2.832133E-14	2.163279E-15
3.762770E+03	2.806884E-14	2.060578E-15
3.764240E+03	2.784640E-14	2.020024E-15
3.765710E+03	2.765400E-14	1.999561E-15
3.767180E+03	2.747778E-14	1.965638E-15
3.768650E+03	2.732236E-14	1.937927E-15
3.770120E+03	2.715304E-14	1.927088E-15
3.771590E+03	2.700452E-14	1.918864E-15
3.773060E+03	2.686755E-14	1.909262E-15
3.774530E+03	2.676298E-14	1.903943E-15
3.776000E+03	2.668617E-14	1.904035E-15
3.777470E+03	2.660009E-14	1.900063E-15
3.778940E+03	2.655104E-14	1.902469E-15
3.780410E+03	2.649504E-14	1.874962E-15
3.781880E+03	2.645293E-14	1.856821E-15
3.783350E+03	2.640618E-14	1.846412E-15
3.784820E+03	2.635248E-14	1.841549E-15
3.786290E+03	2.631035E-14	1.830122E-15
3.787760E+03	2.632381E-14	1.789727E-15
3.789230E+03	2.633959E-14	1.760343E-15
3.790700E+03	2.634610E-14	1.743125E-15
3.792170E+03	2.635262E-14	1.719481E-15
3.793640E+03	2.634986E-14	1.709874E-15
3.795110E+03	2.634248E-14	1.695843E-15
3.796580E+03	2.632814E-14	1.681588E-15
3.798050E+03	2.633929E-14	1.678376E-15
3.799520E+03	2.633885E-14	1.671574E-15
3.800990E+03	2.633147E-14	1.655327E-15
3.802460E+03	2.637276E-14	1.658927E-15
3.803930E+03	2.644883E-14	1.668208E-15
3.805400E+03	2.653418E-14	1.659415E-15
3.806870E+03	2.661260E-14	1.653547E-15
3.808340E+03	2.669566E-14	1.657645E-15
3.809810E+03	2.678801E-14	1.658946E-15
3.811280E+03	2.690356E-14	1.660654E-15
3.812750E+03	2.705392E-14	1.660109E-15
3.814220E+03	2.722750E-14	1.666408E-15
3.815690E+03	2.741501E-14	1.667067E-15
3.817160E+03	2.763736E-14	1.676152E-15
3.818630E+03	2.788989E-14	1.688767E-15
3.820100E+03	2.813782E-14	1.701864E-15
3.821570E+03	2.839738E-14	1.715426E-15
3.823040E+03	2.869875E-14	1.728556E-15
3.824510E+03	2.903034E-14	1.742947E-15
3.825980E+03	2.938750E-14	1.763051E-15
3.827450E+03	2.977023E-14	1.782264E-15
3.828920E+03	3.016464E-14	1.800028E-15
3.830390E+03	3.058231E-14	1.813962E-15
3.831860E+03	3.104182E-14	1.847819E-15
3.833330E+03	3.154319E-14	1.890610E-15
3.834800E+03	3.205392E-14	1.918957E-15
3.836270E+03	3.262277E-14	1.957728E-15
3.837740E+03	3.325208E-14	1.993040E-15
3.839210E+03	3.388613E-14	2.020003E-15
3.840680E+03	3.454348E-14	2.048383E-15
3.842150E+03	3.523345E-14	2.086179E-15
3.843620E+03	3.594443E-14	2.121765E-15
3.845090E+03	3.668571E-14	2.156790E-15
3.846560E+03	3.745032E-14	2.208093E-15
3.848030E+03	3.823131E-14	2.245103E-15
3.849500E+03	3.900776E-14	2.283825E-15
3.850970E+03	3.981686E-14	2.332416E-15
3.852440E+03	4.066092E-14	2.370063E-15
3.853910E+03	4.149350E-14	2.397327E-15
3.855380E+03	4.232154E-14	2.434019E-15
3.856850E+03	4.319619E-14	2.472036E-15
3.858320E+03	4.410119E-14	2.507459E-15
3.859790E+03	4.501561E-14	2.547964E-15
3.861260E+03	4.594876E-14	2.587846E-15
3.862730E+03	4.687275E-14	2.621793E-15
3.864200E+03	4.779455E-14	2.673447E-15
3.865670E+03	4.872811E-14	2.735256E-15
3.867140E+03	4.966878E-14	2.798778E-15
3.868610E+03	5.062587E-14	2.886785E-15
3.870080E+03	5.157612E-14	2.961628E-15
3.871550E+03	5.254046E-14	3.021559E-15
3.873020E+03	5.351890E-14	3.089550E-15
3.874490E+03	5.448585E-14	3.172113E-15
3.875960E+03	5.544596E-14	3.215719E-15
3.877430E+03	5.641319E-14	3.254858E-15
3.878900E+03	5.739685E-14	3.302324E-15
3.880370E+03	5.836669E-14	3.364052E-15
3.881840E+03	5.932968E-14	3.411388E-15
3.883310E+03	6.030446E-14	3.443114E-15
3.884780E+03	6.126774E-14	3.473239E-15
3.886250E+03	6.220789E-14	3.495972E-15
3.887720E+03	6.313653E-14	3.523184E-15
3.889190E+03	6.408393E-14	3.557943E-15
3.890660E+03	6.504544E-14	3.593518E-15
3.892130E+03	6.599079E-14	3.620488E-15
3.893600E+03	6.694094E-14	3.649631E-15
3.895070E+03	6.790519E-14	3.681667E-15
3.896540E+03	6.887658E-14	3.706706E-15
3.898010E+03	6.983180E-14	3.754806E-15
3.899480E+03	7.076853E-14	3.793330E-15
3.900950E+03	7.168676E-14	3.816791E-15
3.902420E+03	7.260512E-14	3.837165E-15
3.903890E+03	7.351896E-14	3.866788E-15
3.905360E+03	7.443992E-14	3.932647E-15
3.906830E+03	7.533772E-14	4.016311E-15
3.908300E+03	7.620536E-14	4.120915E-15
3.909770E+03	7.706846E-14	4.187966E-15
3.911240E+03	7.792703E-14	4.255498E-15
3.912710E+03	7.875309E-14	4.307536E-15
3.914180E+03	7.956762E-14	4.332762E-15
3.915650E+03	8.034731E-14	4.356668E-15
3.917120E+03	8.109680E-14	4.377343E-15
3.918590E+03	8.181843E-14	4.373404E-15
3.920060E+03	8.250519E-14	4.374476E-15
3.921530E+03	8.315475E-14	4.375976E-15
3.923000E+03	8.376942E-14	4.369803E-15
3.924470E+03	8.436319E-14	4.350040E-15
3.925940E+03	8.492207E-14	4.353922E-15
3.927410E+03	8.542505E-14	4.363563E-15
3.928880E+03	8.589545E-14	4.363055E-15
3.930350E+03	8.633560E-14	4.342681E-15
3.931820E+03	8.674082E-14	4.322127E-15
3.933290E+03	8.709477E-14	4.331023E-15
3.934760E+03	8.742311E-14	4.365966E-15
3.936230E+03	8.770949E-14	4.401588E-15
3.937700E+03	8.794925E-14	4.468478E-15
3.939170E+03	8.816570E-14	4.526436E-15
3.940640E+03	8.834952E-14	4.571085E-15
3.942110E+03	8.849601E-14	4.605720E-15
3.943580E+03	8.859584E-14	4.645529E-15
3.945050E+03	8.866067E-14	4.682160E-15
3.946520E+03	8.868349E-14	4.702038E-15
3.947990E+03	8.865495E-14	4.725556E-15
3.949460E+03	8.860072E-14	4.749549E-15
3.950930E+03	8.850445E-14	4.750402E-15
3.952400E+03	8.835446E-14	4.749769E-15
3.953870E+03	8.814606E-14	4.732982E-15
3.955340E+03	8.790726E-14	4.700381E-15
3.956810E+03	8.765442E-14	4.627446E-15
3.958280E+03	8.737818E-14	4.509808E-15
3.959750E+03	8.706686E-14	4.418639E-15
3.961220E+03	8.672513E-14	4.316463E-15
3.962690E+03	8.633661E-14	4.251039E-15
3.964160E+03	8.589663E-14	4.243491E-15
3.965630E+03	8.543322E-14	4.237589E-15
3.967100E+03	8.497676E-14	4.231034E-15
3.968570E+03	8.449919E-14	4.247422E-15
3.970040E+03	8.397013E-14	4.256843E-15
3.971510E+03	8.343866E-14	4.261961E-15
3.972980E+03	8.288841E-14	4.246087E-15
3.974450E+03	8.230769E-14	4.235458E-15
3.975920E+03	8.172688E-14	4.259871E-15
3.977390E+03	8.113430E-14	4.307812E-15
3.978860E+03	8.053228E-14	4.340161E-15
3.980330E+03	7.990678E-14	4.360221E-15
3.981800E+03	7.927885E-14	4.355185E-15
3.983270E+03	7.865551E-14	4.354338E-15
3.984740E+03	7.803910E-14	4.351317E-15
3.986210E+03	7.743195E-14	4.330244E-15
3.987680E+03	7.683641E-14	4.263624E-15
3.989150E+03	7.622441E-14	4.190010E-15
3.990620E+03	7.561465E-14	4.118779E-15
3.992090E+03	7.502119E-14	4.054487E-15
3.993560E+03	7.441594E-14	3.966261E-15
3.995030E+03	7.382464E-14	3.874081E-15
3.996500E+03	7.324964E-14	3.790384E-15
3.997970E+03	7.267924E-14	3.676085E-15
3.999440E+03	7.210875E-14	3.543800E-15
4.000910E+03	7.156393E-14	3.443241E-15
4.002380E+03	7.105882E-14	3.344097E-15
4.003850E+03	7.057003E-14	3.260805E-15
4.005320E+03	7.008351E-14	3.131133E-15
4.006790E+03	6.960629E-14	3.013143E-15
4.008260E+03	6.915710E-14	2.924312E-15
4.009730E+03	6.875468E-14	2.841743E-15
4.011200E+03	6.834986E-14	2.796917E-15
4.012670E+03	6.796840E-14	2.773857E-15
4.014140E+03	6.761734E-14	2.752913E-15
4.015610E+03	6.729668E-14	2.739375E-15
4.017080E+03	6.700643E-14	2.729550E-15
4.018550E+03	6.673254E-14	2.714022E-15
4.020020E+03	6.649141E-14	2.710668E-15
4.021490E+03	6.629711E-14	2.700561E-15
4.022960E+03	6.613560E-14	2.694872E-15
4.024430E+03	6.600452E-14	2.698436E-15
4.025900E+03	6.588984E-14	2.710484E-15
4.027370E+03	6.579858E-14	2.721823E-15
4.028840E+03	6.576122E-14	2.714705E-15
4.030310E+03	6.576605E-14	2.684552E-15
4.031780E+03	6.582481E-14	2.672857E-15
4.033250E+03	6.593985E-14	2.661884E-15
4.034720E+03	6.607366E-14	2.642366E-15
4.036190E+03	6.625205E-14	2.639744E-15
4.037660E+03	6.645158E-14	2.646186E-15
4.039130E+03	6.668162E-14	2.644804E-15
4.040600E+03	6.696330E-14	2.641992E-15
4.042070E+03	6.726379E-14	2.630586E-15
4.043540E+03	6.759716E-14	2.647584E-15
4.045010E+03	6.796342E-14	2.677697E-15
4.046480E+03	6.833444E-14	2.673558E-15
4.047950E+03	6.871724E-14	2.654366E-15
4.049420E+03	6.912825E-14	2.647125E-15
4.050890E+03	6.956514E-14	2.646550E-15
4.052360E+03	7.000914E-14	2.637587E-15
4.053830E+03	7.046728E-14	2.625903E-15
4.055300E+03	7.096070E-14	2.624057E-15
4.056770E+03	7.147766E-14	2.622257E-15
4.058240E+03	7.198766E-14	2.632000E-15
4.059710E+03	7.249539E-14	2.627786E-15
4.061180E+03	7.301023E-14	2.627864E-15
4.062650E+03	7.350871E-14	2.635161E-15
4.064120E+03	7.400962E-14	2.630467E-15
4.065590E+03	7.451999E-14	2.639867E-15
4.067060E+03	7.503748E-14	2.651503E-15
4.068530E+03	7.553156E-14	2.656167E-15
4.070000E+03	7.600692E-14	2.660502E-15
4.071470E+03	7.647765E-14	2.664701E-15
4.072940E+03	7.693670E-14	2.667620E-15
4.074410E+03	7.739113E-14	2.670974E-15
4.075880E+03	7.783856E-14	2.665750E-15
4.077350E+03	7.826022E-14	2.648896E-15
4.078820E+03	7.867254E-14	2.637471E-15
4.080290E+03	7.904496E-14	2.637653E-15
4.081760E+03	7.940334E-14	2.639285E-15
4.083230E+03	7.975001E-14	2.634701E-15
4.084700E+03	8.007558E-14	2.625311E-15
4.086170E+03	8.039180E-14	2.617294E-15
4.087640E+03	8.071276E-14	2.602365E-15
4.089110E+03	8.103377E-14	2.598081E-15
4.090580E+03	8.133836E-14	2.594814E-15
4.092050E+03	8.161713E-14	2.590287E-15
4.093520E+03	8.188184E-14	2.568622E-15
4.094990E+03	8.212070E-14	2.532464E-15
4.096460E+03	8.233373E-14	2.526370E-15
4.097930E+03	8.251857E-14	2.519154E-15
4.099400E+03	8.268931E-14	2.501811E-15
4.100870E+03	8.285773E-14	2.495156E-15
4.102340E+03	8.302147E-14	2.488521E-15
4.103810E+03	8.316875E-14	2.480329E-15
4.105280E+03	8.329253E-14	2.475258E-15
4.106750E+03	8.338103E-14	2.464658E-15
4.108220E+03	8.345542E-14	2.446041E-15
4.109690E+03	8.352510E-14	2.429428E-15
