#wls	flux	fluxerr
1.600000E+03	1.213443E-14	3.141117E-15
1.640000E+03	1.106579E-14	2.592658E-15
1.680000E+03	9.998884E-15	2.099968E-15
1.720000E+03	8.945732E-15	1.665000E-15
1.760000E+03	7.920764E-15	1.288699E-15
1.800000E+03	6.937038E-15	9.702309E-16
1.840000E+03	6.007132E-15	7.073142E-16
1.880000E+03	5.143235E-15	4.963891E-16
1.920000E+03	4.355067E-15	3.326567E-16
1.960000E+03	3.651731E-15	2.106826E-16
2.000000E+03	3.040076E-15	1.248550E-16
2.040000E+03	2.523897E-15	7.056801E-17
2.080000E+03	2.105666E-15	4.529357E-17
2.120000E+03	1.781871E-15	4.070612E-17
2.160000E+03	1.543778E-15	4.075643E-17
2.200000E+03	1.383277E-15	3.989229E-17
2.240000E+03	1.295836E-15	3.970980E-17
2.280000E+03	1.279985E-15	4.297487E-17
2.320000E+03	1.335693E-15	5.051951E-17
2.360000E+03	1.466265E-15	6.152563E-17
2.400000E+03	1.680368E-15	7.485785E-17
2.440000E+03	1.991864E-15	8.882935E-17
2.480000E+03	2.417656E-15	1.004998E-16
2.520000E+03	2.974333E-15	1.053296E-16
2.560000E+03	3.673653E-15	9.886180E-17
2.600000E+03	4.517778E-15	8.808382E-17
2.640000E+03	5.493823E-15	1.196373E-16
2.680000E+03	6.568034E-15	2.185971E-16
2.720000E+03	7.683839E-15	3.620933E-16
2.760000E+03	8.772612E-15	5.326470E-16
2.800000E+03	9.763721E-15	7.141021E-16
2.840000E+03	1.059582E-14	8.892324E-16
2.880000E+03	1.122822E-14	1.041783E-15
2.920000E+03	1.164566E-14	1.159049E-15
2.960000E+03	1.186127E-14	1.233970E-15
3.000000E+03	1.190730E-14	1.265075E-15
3.010000E+03	1.189753E-14	1.266318E-15
3.020000E+03	1.188060E-14	1.265085E-15
3.030000E+03	1.185747E-14	1.261491E-15
3.040000E+03	1.182876E-14	1.255625E-15
3.050000E+03	1.179513E-14	1.247583E-15
3.060000E+03	1.175751E-14	1.237499E-15
3.070000E+03	1.171682E-14	1.225506E-15
3.080000E+03	1.167341E-14	1.211681E-15
3.090000E+03	1.162842E-14	1.196188E-15
3.100000E+03	1.158219E-14	1.179107E-15
3.110000E+03	1.153582E-14	1.160596E-15
3.120000E+03	1.148961E-14	1.140730E-15
3.130000E+03	1.144460E-14	1.119658E-15
3.140000E+03	1.140107E-14	1.097450E-15
3.150000E+03	1.135977E-14	1.074218E-15
3.160000E+03	1.132141E-14	1.050069E-15
3.170000E+03	1.128624E-14	1.025058E-15
3.180000E+03	1.125516E-14	9.993014E-16
3.190000E+03	1.122861E-14	9.728623E-16
3.200000E+03	1.120700E-14	9.458004E-16
3.210000E+03	1.119097E-14	9.181873E-16
3.220000E+03	1.118091E-14	8.900693E-16
3.230000E+03	1.117742E-14	8.615040E-16
3.240000E+03	1.118088E-14	8.325262E-16
3.250000E+03	1.119168E-14	8.031665E-16
3.260000E+03	1.121041E-14	7.734652E-16
3.270000E+03	1.123763E-14	7.434569E-16
3.280000E+03	1.127354E-14	7.131471E-16
3.290000E+03	1.131854E-14	6.825548E-16
3.300000E+03	1.137342E-14	6.517200E-16
3.310000E+03	1.143841E-14	6.206498E-16
3.320000E+03	1.151414E-14	5.893761E-16
3.330000E+03	1.160108E-14	5.579265E-16
3.340000E+03	1.169955E-14	5.263303E-16
3.350000E+03	1.181023E-14	4.946472E-16
3.360000E+03	1.193385E-14	4.629533E-16
3.370000E+03	1.207058E-14	4.313286E-16
3.380000E+03	1.222108E-14	3.999068E-16
3.390000E+03	1.238572E-14	3.688577E-16
3.400000E+03	1.256463E-14	3.384118E-16
3.410000E+03	1.275730E-14	3.088805E-16
3.420000E+03	1.296348E-14	2.807259E-16
3.430000E+03	1.318177E-14	2.545844E-16
3.440000E+03	1.341042E-14	2.313526E-16
3.450000E+03	1.364747E-14	2.122172E-16
3.460000E+03	1.388982E-14	1.985435E-16
3.470000E+03	1.413458E-14	1.915578E-16
3.480000E+03	1.437922E-14	1.917311E-16
3.490000E+03	1.462396E-14	1.982292E-16
3.500000E+03	1.486991E-14	2.094024E-16
3.510000E+03	1.511801E-14	2.234864E-16
3.520000E+03	1.536829E-14	2.390014E-16
3.530000E+03	1.562094E-14	2.548801E-16
3.540000E+03	1.587509E-14	2.704076E-16
3.550000E+03	1.612900E-14	2.851318E-16
3.560000E+03	1.638063E-14	2.987864E-16
3.570000E+03	1.662763E-14	3.112334E-16
3.580000E+03	1.686682E-14	3.224082E-16
3.590000E+03	1.709496E-14	3.322985E-16
3.600000E+03	1.730876E-14	3.409270E-16
3.610000E+03	1.750460E-14	3.483257E-16
3.620000E+03	1.767969E-14	3.545358E-16
3.630000E+03	1.783104E-14	3.595745E-16
3.640000E+03	1.795674E-14	3.634468E-16
3.650000E+03	1.805508E-14	3.661206E-16
3.660000E+03	1.812577E-14	3.675585E-16
3.670000E+03	1.817026E-14	3.677359E-16
3.680000E+03	1.819157E-14	3.666508E-16
3.690000E+03	1.819518E-14	3.643637E-16
3.700000E+03	1.818807E-14	3.609958E-16
3.710000E+03	1.817941E-14	3.567445E-16
3.720000E+03	1.818034E-14	3.518840E-16
3.730000E+03	1.820311E-14	3.467413E-16
3.740000E+03	1.826125E-14	3.416887E-16
3.750000E+03	1.836895E-14	3.371188E-16
3.760000E+03	1.854091E-14	3.334296E-16
3.770000E+03	1.879196E-14	3.310039E-16
3.780000E+03	1.913629E-14	3.301944E-16
3.790000E+03	1.958777E-14	3.313269E-16
3.800000E+03	2.015830E-14	3.346716E-16
3.810000E+03	2.085759E-14	3.404530E-16
3.820000E+03	2.169239E-14	3.488440E-16
3.830000E+03	2.266461E-14	3.599333E-16
3.840000E+03	2.377090E-14	3.737250E-16
3.850000E+03	2.500119E-14	3.901091E-16
3.860000E+03	2.633817E-14	4.088330E-16
3.870000E+03	2.775631E-14	4.294825E-16
3.880000E+03	2.922279E-14	4.514873E-16
3.890000E+03	3.069842E-14	4.741153E-16
3.900000E+03	3.213920E-14	4.965085E-16
3.910000E+03	3.349969E-14	5.177451E-16
3.920000E+03	3.473619E-14	5.368950E-16
3.930000E+03	3.580995E-14	5.531177E-16
3.940000E+03	3.668998E-14	5.657457E-16
3.950000E+03	3.735752E-14	5.743697E-16
3.960000E+03	3.780480E-14	5.788462E-16
3.970000E+03	3.803826E-14	5.793373E-16
3.980000E+03	3.807531E-14	5.762184E-16
3.990000E+03	3.794367E-14	5.700419E-16
4.000000E+03	3.767739E-14	5.614405E-16
4.010000E+03	3.731491E-14	5.510651E-16
4.020000E+03	3.689417E-14	5.395338E-16
4.030000E+03	3.645247E-14	5.274389E-16
4.040000E+03	3.602192E-14	5.152793E-16
4.050000E+03	3.563091E-14	5.035236E-16
4.060000E+03	3.530186E-14	4.925922E-16
4.070000E+03	3.505180E-14	4.828382E-16
4.080000E+03	3.489164E-14	4.745183E-16
4.090000E+03	3.482865E-14	4.677832E-16
4.100000E+03	3.486435E-14	4.626132E-16
4.110000E+03	3.499613E-14	4.588701E-16
4.120000E+03	3.521745E-14	4.563127E-16
4.130000E+03	3.551733E-14	4.545959E-16
4.140000E+03	3.588104E-14	4.533506E-16
4.150000E+03	3.629096E-14	4.522339E-16
4.160000E+03	3.672526E-14	4.509050E-16
4.170000E+03	3.716118E-14	4.491002E-16
4.180000E+03	3.757460E-14	4.466270E-16
4.190000E+03	3.794183E-14	4.433515E-16
4.200000E+03	3.824140E-14	4.392242E-16
4.210000E+03	3.845393E-14	4.342342E-16
4.220000E+03	3.856485E-14	4.283728E-16
4.230000E+03	3.856284E-14	4.216214E-16
4.240000E+03	3.844202E-14	4.139141E-16
4.250000E+03	3.820000E-14	4.050361E-16
4.260000E+03	3.783871E-14	3.947152E-16
4.270000E+03	3.736383E-14	3.826643E-16
4.280000E+03	3.678513E-14	3.685934E-16
4.290000E+03	3.611585E-14	3.523490E-16
4.300000E+03	3.537358E-14	3.340250E-16
4.310000E+03	3.457927E-14	3.139614E-16
4.320000E+03	3.375828E-14	2.927666E-16
4.330000E+03	3.293726E-14	2.711880E-16
4.340000E+03	3.214519E-14	2.499935E-16
4.350000E+03	3.140910E-14	2.299559E-16
4.360000E+03	3.074927E-14	2.117428E-16
4.370000E+03	3.018272E-14	1.955349E-16
4.380000E+03	2.972820E-14	1.808029E-16
4.390000E+03	2.938456E-14	1.676670E-16
4.400000E+03	2.912347E-14	1.578022E-16
4.410000E+03	2.889110E-14	1.547078E-16
4.420000E+03	2.863756E-14	1.613154E-16
4.430000E+03	2.843303E-14	1.751107E-16
4.440000E+03	2.836825E-14	1.923277E-16
4.450000E+03	2.851032E-14	2.107336E-16
4.460000E+03	2.890467E-14	2.294435E-16
4.470000E+03	2.958094E-14	2.484115E-16
4.480000E+03	3.055416E-14	2.679662E-16
4.490000E+03	3.182588E-14	2.884910E-16
4.500000E+03	3.338340E-14	3.103410E-16
4.510000E+03	3.520016E-14	3.337931E-16
4.520000E+03	3.723168E-14	3.589283E-16
4.530000E+03	3.941585E-14	3.856842E-16
4.540000E+03	4.167213E-14	4.138061E-16
4.550000E+03	4.390348E-14	4.427242E-16
4.560000E+03	4.600219E-14	4.716290E-16
4.570000E+03	4.785764E-14	4.994828E-16
4.580000E+03	4.936794E-14	5.249888E-16
4.590000E+03	5.044739E-14	5.468204E-16
4.600000E+03	5.103871E-14	5.639417E-16
4.610000E+03	5.111747E-14	5.757097E-16
4.620000E+03	5.069313E-14	5.820011E-16
4.630000E+03	4.980605E-14	5.831883E-16
4.640000E+03	4.852144E-14	5.799603E-16
4.650000E+03	4.691940E-14	5.731722E-16
4.660000E+03	4.508783E-14	5.636768E-16
4.670000E+03	4.311321E-14	5.521399E-16
4.680000E+03	4.107373E-14	5.390581E-16
4.690000E+03	3.903767E-14	5.248114E-16
4.700000E+03	3.705956E-14	5.096355E-16
4.710000E+03	3.518185E-14	4.937659E-16
4.720000E+03	3.343479E-14	4.775049E-16
4.730000E+03	3.183758E-14	4.611988E-16
4.740000E+03	3.040089E-14	4.452204E-16
4.750000E+03	2.912747E-14	4.299081E-16
4.760000E+03	2.801533E-14	4.155447E-16
4.770000E+03	2.705797E-14	4.023241E-16
4.780000E+03	2.624616E-14	3.903320E-16
4.790000E+03	2.556820E-14	3.795280E-16
4.800000E+03	2.501163E-14	3.698315E-16
4.810000E+03	2.456390E-14	3.611907E-16
4.820000E+03	2.421205E-14	3.535955E-16
4.830000E+03	2.394438E-14	3.471084E-16
4.840000E+03	2.374881E-14	3.418250E-16
4.850000E+03	2.361402E-14	3.378567E-16
4.860000E+03	2.352746E-14	3.352769E-16
4.870000E+03	2.347736E-14	3.340943E-16
4.880000E+03	2.345053E-14	3.341707E-16
4.890000E+03	2.343368E-14	3.352527E-16
4.900000E+03	2.341434E-14	3.369953E-16
4.910000E+03	2.338083E-14	3.389605E-16
4.920000E+03	2.332342E-14	3.406780E-16
4.930000E+03	2.323533E-14	3.416912E-16
4.940000E+03	2.311402E-14	3.415962E-16
4.950000E+03	2.296047E-14	3.400973E-16
4.960000E+03	2.277866E-14	3.370541E-16
4.970000E+03	2.257672E-14	3.325100E-16
4.980000E+03	2.236389E-14	3.266490E-16
4.990000E+03	2.215207E-14	3.197994E-16
5.000000E+03	2.195352E-14	3.123643E-16
5.010000E+03	2.178098E-14	3.047948E-16
5.020000E+03	2.164665E-14	2.975332E-16
5.030000E+03	2.156255E-14	2.909827E-16
5.040000E+03	2.153891E-14	2.854786E-16
5.050000E+03	2.158508E-14	2.812793E-16
5.060000E+03	2.170921E-14	2.785400E-16
5.070000E+03	2.191812E-14	2.773359E-16
5.080000E+03	2.221728E-14	2.776660E-16
5.090000E+03	2.261203E-14	2.794596E-16
5.100000E+03	2.310578E-14	2.826015E-16
5.110000E+03	2.370110E-14	2.869721E-16
5.120000E+03	2.439816E-14	2.924255E-16
5.130000E+03	2.519437E-14	2.988220E-16
5.140000E+03	2.608314E-14	3.060229E-16
5.150000E+03	2.705311E-14	3.138613E-16
5.160000E+03	2.808750E-14	3.221564E-16
5.170000E+03	2.916350E-14	3.306873E-16
5.180000E+03	3.025178E-14	3.391422E-16
5.190000E+03	3.131777E-14	3.471708E-16
5.200000E+03	3.232362E-14	3.544052E-16
5.210000E+03	3.323014E-14	3.604388E-16
5.220000E+03	3.400072E-14	3.649290E-16
5.230000E+03	3.460512E-14	3.676499E-16
5.240000E+03	3.502162E-14	3.684627E-16
5.250000E+03	3.524018E-14	3.673720E-16
5.260000E+03	3.526330E-14	3.644722E-16
5.270000E+03	3.510731E-14	3.598636E-16
5.280000E+03	3.479748E-14	3.536736E-16
5.290000E+03	3.436719E-14	3.460633E-16
5.300000E+03	3.385317E-14	3.371297E-16
5.310000E+03	3.329091E-14	3.269674E-16
5.320000E+03	3.271253E-14	3.157061E-16
5.330000E+03	3.214205E-14	3.034310E-16
5.340000E+03	3.159548E-14	2.902131E-16
5.350000E+03	3.107964E-14	2.760599E-16
5.360000E+03	3.059229E-14	2.608552E-16
5.370000E+03	3.012410E-14	2.444413E-16
5.380000E+03	2.966176E-14	2.266419E-16
5.390000E+03	2.918913E-14	2.072745E-16
5.400000E+03	2.869267E-14	1.864352E-16
5.410000E+03	2.816447E-14	1.647869E-16
5.420000E+03	2.760538E-14	1.439753E-16
5.430000E+03	2.702540E-14	1.273673E-16
5.440000E+03	2.644518E-14	1.197548E-16
5.450000E+03	2.589057E-14	1.240369E-16
5.460000E+03	2.537431E-14	1.370344E-16
5.470000E+03	2.489913E-14	1.532311E-16
5.480000E+03	2.447025E-14	1.693612E-16
5.490000E+03	2.409313E-14	1.840451E-16
5.500000E+03	2.377248E-14	1.968550E-16
5.510000E+03	2.351038E-14	2.076719E-16
5.520000E+03	2.330569E-14	2.165158E-16
5.530000E+03	2.315350E-14	2.235137E-16
5.540000E+03	2.304476E-14	2.288407E-16
5.550000E+03	2.296737E-14	2.327264E-16
5.560000E+03	2.290785E-14	2.354435E-16
5.570000E+03	2.285056E-14	2.372476E-16
5.580000E+03	2.278054E-14	2.383963E-16
5.590000E+03	2.268471E-14	2.390983E-16
5.600000E+03	2.255330E-14	2.394553E-16
5.610000E+03	2.237939E-14	2.395030E-16
5.620000E+03	2.216085E-14	2.392530E-16
5.630000E+03	2.189951E-14	2.386702E-16
5.640000E+03	2.160038E-14	2.377299E-16
5.650000E+03	2.127141E-14	2.364462E-16
5.660000E+03	2.092194E-14	2.348390E-16
5.670000E+03	2.056273E-14	2.329746E-16
5.680000E+03	2.020424E-14	2.309532E-16
5.690000E+03	1.985768E-14	2.288905E-16
5.700000E+03	1.953339E-14	2.269182E-16
5.710000E+03	1.924059E-14	2.251735E-16
5.720000E+03	1.898854E-14	2.237804E-16
5.730000E+03	1.878489E-14	2.228479E-16
5.740000E+03	1.863661E-14	2.224769E-16
5.750000E+03	1.854900E-14	2.227254E-16
5.760000E+03	1.852625E-14	2.236397E-16
5.770000E+03	1.857107E-14	2.252581E-16
5.780000E+03	1.868403E-14	2.275856E-16
5.790000E+03	1.886349E-14	2.306124E-16
5.800000E+03	1.910585E-14	2.343173E-16
5.810000E+03	1.940476E-14	2.386349E-16
5.820000E+03	1.975070E-14	2.434666E-16
5.830000E+03	2.013240E-14	2.486941E-16
5.840000E+03	2.053619E-14	2.541460E-16
5.850000E+03	2.094619E-14	2.596180E-16
5.860000E+03	2.134607E-14	2.648948E-16
5.870000E+03	2.171894E-14	2.697279E-16
5.880000E+03	2.204834E-14	2.738733E-16
5.890000E+03	2.231878E-14	2.771045E-16
5.900000E+03	2.251737E-14	2.792184E-16
5.910000E+03	2.263297E-14	2.800603E-16
5.920000E+03	2.265658E-14	2.795476E-16
5.930000E+03	2.258229E-14	2.776684E-16
5.940000E+03	2.240639E-14	2.744875E-16
5.950000E+03	2.212762E-14	2.701338E-16
5.960000E+03	2.174593E-14	2.647464E-16
5.970000E+03	2.126443E-14	2.585055E-16
5.980000E+03	2.068692E-14	2.515764E-16
5.990000E+03	2.001922E-14	2.440801E-16
6.000000E+03	1.926922E-14	2.361113E-16
6.010000E+03	1.844663E-14	2.277252E-16
6.020000E+03	1.756329E-14	2.189198E-16
6.030000E+03	1.663325E-14	2.096782E-16
6.040000E+03	1.567321E-14	1.999974E-16
6.050000E+03	1.470122E-14	1.898789E-16
6.060000E+03	1.373611E-14	1.793707E-16
6.070000E+03	1.279737E-14	1.685943E-16
6.080000E+03	1.190342E-14	1.577164E-16
6.090000E+03	1.107074E-14	1.469447E-16
6.100000E+03	1.031353E-14	1.365113E-16
6.110000E+03	9.642758E-15	1.266364E-16
6.120000E+03	9.067052E-15	1.175356E-16
6.130000E+03	8.592142E-15	1.094020E-16
6.140000E+03	8.221821E-15	1.024022E-16
6.150000E+03	7.958620E-15	9.667668E-17
6.160000E+03	7.804264E-15	9.233870E-17
6.170000E+03	7.760486E-15	8.947997E-17
6.180000E+03	7.828699E-15	8.816251E-17
6.190000E+03	8.009598E-15	8.838255E-17
6.200000E+03	8.300982E-15	9.002419E-17
6.210000E+03	8.698842E-15	9.291354E-17
6.220000E+03	9.196094E-15	9.685115E-17
6.230000E+03	9.782448E-15	1.016298E-16
6.240000E+03	1.044408E-14	1.070569E-16
6.250000E+03	1.116336E-14	1.129626E-16
6.260000E+03	1.191954E-14	1.192029E-16
6.270000E+03	1.268981E-14	1.256708E-16
6.280000E+03	1.344942E-14	1.322508E-16
6.290000E+03	1.417373E-14	1.387730E-16
6.300000E+03	1.483883E-14	1.450306E-16
6.310000E+03	1.542442E-14	1.508094E-16
6.320000E+03	1.591388E-14	1.558540E-16
6.330000E+03	1.629637E-14	1.599180E-16
6.340000E+03	1.656597E-14	1.627698E-16
6.350000E+03	1.672193E-14	1.641688E-16
6.360000E+03	1.676801E-14	1.638842E-16
6.370000E+03	1.671284E-14	1.617059E-16
6.380000E+03	1.656793E-14	1.574145E-16
6.390000E+03	1.634865E-14	1.508561E-16
6.400000E+03	1.607286E-14	1.419953E-16
6.410000E+03	1.575952E-14	1.309639E-16
6.420000E+03	1.542946E-14	1.182007E-16
6.430000E+03	1.510288E-14	1.046343E-16
6.440000E+03	1.480034E-14	9.200365E-17
6.450000E+03	1.453967E-14	8.322447E-17
6.460000E+03	1.433669E-14	8.198580E-17
6.470000E+03	1.419573E-14	8.915431E-17
6.480000E+03	1.410705E-14	1.014996E-16
6.490000E+03	1.405883E-14	1.159677E-16
6.500000E+03	1.403851E-14	1.306877E-16
6.510000E+03	1.403374E-14	1.446565E-16
6.520000E+03	1.403386E-14	1.573688E-16
6.530000E+03	1.402950E-14	1.685814E-16
6.540000E+03	1.401246E-14	1.782020E-16
6.550000E+03	1.397711E-14	1.862445E-16
6.560000E+03	1.391873E-14	1.927665E-16
6.570000E+03	1.383468E-14	1.978714E-16
6.580000E+03	1.372404E-14	2.016914E-16
6.590000E+03	1.358680E-14	2.043601E-16
6.600000E+03	1.342427E-14	2.060206E-16
6.610000E+03	1.323886E-14	2.068194E-16
6.620000E+03	1.303295E-14	2.068828E-16
6.630000E+03	1.281022E-14	2.063428E-16
6.640000E+03	1.257390E-14	2.053116E-16
6.650000E+03	1.232728E-14	2.038848E-16
6.660000E+03	1.207421E-14	2.021577E-16
6.670000E+03	1.181749E-14	2.002027E-16
6.680000E+03	1.156048E-14	1.980925E-16
6.690000E+03	1.130543E-14	1.958791E-16
6.700000E+03	1.105501E-14	1.936220E-16
6.710000E+03	1.081098E-14	1.913608E-16
6.720000E+03	1.057475E-14	1.891301E-16
6.730000E+03	1.034796E-14	1.869697E-16
6.740000E+03	1.013138E-14	1.849008E-16
6.750000E+03	9.925672E-15	1.829436E-16
6.760000E+03	9.731249E-15	1.811135E-16
6.770000E+03	9.548281E-15	1.794185E-16
6.780000E+03	9.376900E-15	1.778649E-16
6.790000E+03	9.216567E-15	1.764462E-16
6.800000E+03	9.067247E-15	1.751612E-16
6.810000E+03	8.928293E-15	1.739972E-16
6.820000E+03	8.799137E-15	1.729429E-16
6.830000E+03	8.679294E-15	1.719871E-16
6.840000E+03	8.567932E-15	1.711140E-16
6.850000E+03	8.464364E-15	1.703131E-16
6.860000E+03	8.367913E-15	1.695748E-16
6.870000E+03	8.278073E-15	1.688949E-16
6.880000E+03	8.194081E-15	1.682655E-16
6.890000E+03	8.115378E-15	1.676809E-16
6.900000E+03	8.041459E-15	1.671366E-16
6.910000E+03	7.972025E-15	1.666324E-16
6.920000E+03	7.906684E-15	1.661647E-16
6.930000E+03	7.844806E-15	1.657253E-16
6.940000E+03	7.786392E-15	1.653197E-16
6.950000E+03	7.731044E-15	1.649440E-16
6.960000E+03	7.678694E-15	1.646014E-16
6.970000E+03	7.629013E-15	1.642900E-16
6.980000E+03	7.581843E-15	1.640100E-16
6.990000E+03	7.537195E-15	1.637652E-16
7.000000E+03	7.494807E-15	1.635541E-16
7.010000E+03	7.454721E-15	1.633799E-16
7.020000E+03	7.416700E-15	1.632401E-16
7.030000E+03	7.380647E-15	1.631352E-16
7.040000E+03	7.346607E-15	1.630673E-16
7.050000E+03	7.314325E-15	1.630314E-16
7.060000E+03	7.283670E-15	1.630249E-16
7.070000E+03	7.254630E-15	1.630460E-16
7.080000E+03	7.226881E-15	1.630850E-16
7.090000E+03	7.200356E-15	1.631376E-16
7.100000E+03	7.174672E-15	1.631907E-16
7.110000E+03	7.149698E-15	1.632366E-16
7.120000E+03	7.124985E-15	1.632602E-16
7.130000E+03	7.100196E-15	1.632485E-16
7.140000E+03	7.075103E-15	1.631918E-16
7.150000E+03	7.049308E-15	1.630780E-16
7.160000E+03	7.022238E-15	1.628918E-16
7.170000E+03	6.993442E-15	1.626226E-16
7.180000E+03	6.962734E-15	1.622680E-16
7.190000E+03	6.929189E-15	1.618089E-16
7.200000E+03	6.892739E-15	1.612478E-16
7.210000E+03	6.852446E-15	1.605676E-16
7.220000E+03	6.808250E-15	1.597715E-16
7.230000E+03	6.759395E-15	1.588467E-16
7.240000E+03	6.705596E-15	1.577919E-16
7.250000E+03	6.646482E-15	1.566031E-16
7.260000E+03	6.581616E-15	1.552754E-16
7.270000E+03	6.510935E-15	1.538132E-16
7.280000E+03	6.434338E-15	1.522204E-16
7.290000E+03	6.351702E-15	1.505011E-16
7.300000E+03	6.263307E-15	1.486701E-16
7.310000E+03	6.169426E-15	1.467421E-16
7.320000E+03	6.070459E-15	1.447351E-16
7.330000E+03	5.966796E-15	1.426672E-16
7.340000E+03	5.859218E-15	1.405640E-16
7.350000E+03	5.748468E-15	1.384492E-16
7.360000E+03	5.635253E-15	1.363437E-16
7.370000E+03	5.520483E-15	1.342700E-16
7.380000E+03	5.405242E-15	1.322520E-16
7.390000E+03	5.290388E-15	1.303047E-16
7.400000E+03	5.177035E-15	1.284452E-16
7.410000E+03	5.066035E-15	1.266808E-16
7.420000E+03	4.958444E-15	1.250208E-16
7.430000E+03	4.855141E-15	1.234671E-16
7.440000E+03	4.756928E-15	1.220190E-16
7.450000E+03	4.664606E-15	1.206779E-16
7.460000E+03	4.578638E-15	1.194397E-16
7.470000E+03	4.499584E-15	1.183053E-16
7.480000E+03	4.427776E-15	1.172717E-16
7.490000E+03	4.363434E-15	1.163341E-16
7.500000E+03	4.306674E-15	1.154853E-16
7.510000E+03	4.257411E-15	1.147124E-16
7.520000E+03	4.215786E-15	1.140084E-16
7.530000E+03	4.181447E-15	1.133526E-16
7.540000E+03	4.154386E-15	1.127339E-16
7.550000E+03	4.134130E-15	1.121301E-16
7.560000E+03	4.120465E-15	1.115284E-16
7.570000E+03	4.113042E-15	1.109170E-16
7.580000E+03	4.111383E-15	1.102859E-16
7.590000E+03	4.115199E-15	1.096359E-16
7.600000E+03	4.123987E-15	1.089679E-16
7.610000E+03	4.137343E-15	1.082896E-16
7.620000E+03	4.154979E-15	1.076148E-16
7.630000E+03	4.176411E-15	1.069533E-16
7.640000E+03	4.201281E-15	1.063178E-16
7.650000E+03	4.229256E-15	1.057195E-16
7.660000E+03	4.260137E-15	1.051708E-16
7.670000E+03	4.293421E-15	1.046730E-16
7.680000E+03	4.329068E-15	1.042359E-16
7.690000E+03	4.366718E-15	1.038583E-16
7.700000E+03	4.406134E-15	1.035392E-16
7.710000E+03	4.447077E-15	1.032754E-16
7.720000E+03	4.489304E-15	1.030625E-16
7.730000E+03	4.532558E-15	1.028946E-16
7.740000E+03	4.576684E-15	1.027685E-16
7.750000E+03	4.621386E-15	1.026778E-16
7.760000E+03	4.666079E-15	1.026102E-16
