#wls	flux	fluxerr
1.600000E+03	4.432643E-15	1.181124E-15
1.640000E+03	3.940662E-15	9.549488E-16
1.680000E+03	3.478793E-15	7.600562E-16
1.720000E+03	3.050511E-15	5.948291E-16
1.760000E+03	2.658734E-15	4.571864E-16
1.800000E+03	2.305189E-15	3.445814E-16
1.840000E+03	1.990183E-15	2.541446E-16
1.880000E+03	1.713539E-15	1.829794E-16
1.920000E+03	1.473613E-15	1.281800E-16
1.960000E+03	1.268443E-15	8.712953E-17
2.000000E+03	1.095461E-15	5.763519E-17
2.040000E+03	9.518719E-16	3.817075E-17
2.080000E+03	8.350129E-16	2.777988E-17
2.120000E+03	7.432484E-16	2.440410E-17
2.160000E+03	6.755471E-16	2.411971E-17
2.200000E+03	6.317278E-16	2.466242E-17
2.240000E+03	6.116230E-16	2.580879E-17
2.280000E+03	6.158941E-16	2.805816E-17
2.320000E+03	6.453669E-16	3.159479E-17
2.360000E+03	7.016956E-16	3.617241E-17
2.400000E+03	7.874238E-16	4.130960E-17
2.440000E+03	9.061590E-16	4.625268E-17
2.480000E+03	1.061388E-15	4.985706E-17
2.520000E+03	1.255380E-15	5.072703E-17
2.560000E+03	1.487446E-15	4.824442E-17
2.600000E+03	1.751611E-15	4.641121E-17
2.640000E+03	2.037155E-15	5.848777E-17
2.680000E+03	2.330975E-15	9.053365E-17
2.720000E+03	2.620874E-15	1.358581E-16
2.760000E+03	2.895297E-15	1.882866E-16
2.800000E+03	3.144458E-15	2.430785E-16
2.840000E+03	3.360573E-15	2.960374E-16
2.880000E+03	3.538394E-15	3.434451E-16
2.920000E+03	3.676044E-15	3.823254E-16
2.960000E+03	3.775927E-15	4.107628E-16
3.000000E+03	3.843795E-15	4.279344E-16
3.010000E+03	3.856673E-15	4.304655E-16
3.020000E+03	3.868283E-15	4.323179E-16
3.030000E+03	3.878736E-15	4.335003E-16
3.040000E+03	3.888151E-15	4.340237E-16
3.050000E+03	3.896647E-15	4.339014E-16
3.060000E+03	3.904501E-15	4.331649E-16
3.070000E+03	3.911835E-15	4.318300E-16
3.080000E+03	3.918921E-15	4.299297E-16
3.090000E+03	3.925739E-15	4.274656E-16
3.100000E+03	3.932562E-15	4.244719E-16
3.110000E+03	3.939656E-15	4.209817E-16
3.120000E+03	3.947007E-15	4.169982E-16
3.130000E+03	3.954879E-15	4.125543E-16
3.140000E+03	3.963530E-15	4.076811E-16
3.150000E+03	3.972948E-15	4.023811E-16
3.160000E+03	3.983518E-15	3.966967E-16
3.170000E+03	3.995352E-15	3.906412E-16
3.180000E+03	4.008438E-15	3.842150E-16
3.190000E+03	4.023142E-15	3.774542E-16
3.200000E+03	4.039570E-15	3.703677E-16
3.210000E+03	4.057824E-15	3.629633E-16
3.220000E+03	4.078004E-15	3.552473E-16
3.230000E+03	4.100445E-15	3.472451E-16
3.240000E+03	4.125230E-15	3.389577E-16
3.250000E+03	4.152319E-15	3.303755E-16
3.260000E+03	4.182015E-15	3.215161E-16
3.270000E+03	4.214375E-15	3.123754E-16
3.280000E+03	4.249444E-15	3.029486E-16
3.290000E+03	4.287252E-15	2.932301E-16
3.300000E+03	4.328039E-15	2.832289E-16
3.310000E+03	4.371685E-15	2.729307E-16
3.320000E+03	4.418271E-15	2.623373E-16
3.330000E+03	4.467741E-15	2.514456E-16
3.340000E+03	4.520123E-15	2.402631E-16
3.350000E+03	4.575192E-15	2.287921E-16
3.360000E+03	4.632911E-15	2.170569E-16
3.370000E+03	4.692990E-15	2.050864E-16
3.380000E+03	4.755430E-15	1.929454E-16
3.390000E+03	4.819875E-15	1.807146E-16
3.400000E+03	4.886049E-15	1.685226E-16
3.410000E+03	4.953548E-15	1.565543E-16
3.420000E+03	5.022169E-15	1.450822E-16
3.430000E+03	5.091496E-15	1.344777E-16
3.440000E+03	5.161135E-15	1.252380E-16
3.450000E+03	5.230829E-15	1.179838E-16
3.460000E+03	5.300375E-15	1.133940E-16
3.470000E+03	5.369324E-15	1.120468E-16
3.480000E+03	5.437574E-15	1.141997E-16
3.490000E+03	5.504915E-15	1.196170E-16
3.500000E+03	5.571072E-15	1.277110E-16
3.510000E+03	5.635952E-15	1.377864E-16
3.520000E+03	5.699348E-15	1.491923E-16
3.530000E+03	5.761430E-15	1.614014E-16
3.540000E+03	5.822137E-15	1.740023E-16
3.550000E+03	5.881660E-15	1.866948E-16
3.560000E+03	5.940137E-15	1.992602E-16
3.570000E+03	5.997646E-15	2.115399E-16
3.580000E+03	6.054486E-15	2.234301E-16
3.590000E+03	6.110882E-15	2.348603E-16
3.600000E+03	6.166990E-15	2.457843E-16
3.610000E+03	6.223174E-15	2.561848E-16
3.620000E+03	6.279725E-15	2.660580E-16
3.630000E+03	6.337053E-15	2.754179E-16
3.640000E+03	6.395678E-15	2.842934E-16
3.650000E+03	6.456059E-15	2.927190E-16
3.660000E+03	6.518678E-15	3.007363E-16
3.670000E+03	6.584228E-15	3.084013E-16
3.680000E+03	6.653335E-15	3.157707E-16
3.690000E+03	6.726559E-15	3.229005E-16
3.700000E+03	6.804565E-15	3.298535E-16
3.710000E+03	6.888027E-15	3.366937E-16
3.720000E+03	6.977709E-15	3.434897E-16
3.730000E+03	7.074174E-15	3.503002E-16
3.740000E+03	7.178048E-15	3.571860E-16
3.750000E+03	7.289993E-15	3.642090E-16
3.760000E+03	7.410510E-15	3.714213E-16
3.770000E+03	7.539917E-15	3.788641E-16
3.780000E+03	7.678596E-15	3.865802E-16
3.790000E+03	7.826697E-15	3.945986E-16
3.800000E+03	7.984305E-15	4.029426E-16
3.810000E+03	8.151036E-15	4.116099E-16
3.820000E+03	8.326687E-15	4.206050E-16
3.830000E+03	8.510656E-15	4.299096E-16
3.840000E+03	8.702023E-15	4.394874E-16
3.850000E+03	8.899951E-15	4.493035E-16
3.860000E+03	9.103103E-15	4.592955E-16
3.870000E+03	9.309949E-15	4.693890E-16
3.880000E+03	9.519227E-15	4.795204E-16
3.890000E+03	9.729042E-15	4.895921E-16
3.900000E+03	9.937859E-15	4.995223E-16
3.910000E+03	1.014371E-14	5.092049E-16
3.920000E+03	1.034511E-14	5.185564E-16
3.930000E+03	1.054038E-14	5.274806E-16
3.940000E+03	1.072833E-14	5.359048E-16
3.950000E+03	1.090757E-14	5.437434E-16
3.960000E+03	1.107730E-14	5.509395E-16
3.970000E+03	1.123706E-14	5.574499E-16
3.980000E+03	1.138656E-14	5.632398E-16
3.990000E+03	1.152575E-14	5.682824E-16
4.000000E+03	1.165511E-14	5.725763E-16
4.010000E+03	1.177541E-14	5.761317E-16
4.020000E+03	1.188744E-14	5.789564E-16
4.030000E+03	1.199228E-14	5.810709E-16
4.040000E+03	1.209129E-14	5.825051E-16
4.050000E+03	1.218581E-14	5.832830E-16
4.060000E+03	1.227717E-14	5.834257E-16
4.070000E+03	1.236670E-14	5.829476E-16
4.080000E+03	1.245573E-14	5.818598E-16
4.090000E+03	1.254525E-14	5.801501E-16
4.100000E+03	1.263617E-14	5.777981E-16
4.110000E+03	1.272932E-14	5.747742E-16
4.120000E+03	1.282506E-14	5.710214E-16
4.130000E+03	1.292374E-14	5.664780E-16
4.140000E+03	1.302518E-14	5.610562E-16
4.150000E+03	1.312922E-14	5.546651E-16
4.160000E+03	1.323518E-14	5.471922E-16
4.170000E+03	1.334223E-14	5.385222E-16
4.180000E+03	1.344936E-14	5.285355E-16
4.190000E+03	1.355533E-14	5.171138E-16
4.200000E+03	1.365875E-14	5.041449E-16
4.210000E+03	1.375785E-14	4.895207E-16
4.220000E+03	1.385116E-14	4.731676E-16
4.230000E+03	1.393680E-14	4.550265E-16
4.240000E+03	1.401319E-14	4.350841E-16
4.250000E+03	1.407872E-14	4.133682E-16
4.260000E+03	1.413205E-14	3.899649E-16
4.270000E+03	1.417172E-14	3.650146E-16
4.280000E+03	1.419680E-14	3.387421E-16
4.290000E+03	1.420678E-14	3.114626E-16
4.300000E+03	1.420162E-14	2.836006E-16
4.310000E+03	1.418143E-14	2.557087E-16
4.320000E+03	1.414747E-14	2.285249E-16
4.330000E+03	1.410136E-14	2.030055E-16
4.340000E+03	1.404572E-14	1.803862E-16
4.350000E+03	1.398373E-14	1.621553E-16
4.360000E+03	1.391958E-14	1.498043E-16
4.370000E+03	1.385830E-14	1.441344E-16
4.380000E+03	1.380560E-14	1.447387E-16
4.390000E+03	1.376717E-14	1.505926E-16
4.400000E+03	1.374916E-14	1.608032E-16
4.410000E+03	1.375649E-14	1.748426E-16
4.420000E+03	1.379310E-14	1.924111E-16
4.430000E+03	1.386130E-14	2.132054E-16
4.440000E+03	1.396184E-14	2.368541E-16
4.450000E+03	1.409388E-14	2.629468E-16
4.460000E+03	1.425617E-14	2.910885E-16
4.470000E+03	1.444652E-14	3.209099E-16
4.480000E+03	1.466186E-14	3.520690E-16
4.490000E+03	1.489898E-14	3.842579E-16
4.500000E+03	1.515383E-14	4.171768E-16
4.510000E+03	1.542175E-14	4.505232E-16
4.520000E+03	1.569783E-14	4.839949E-16
4.530000E+03	1.597660E-14	5.172739E-16
4.540000E+03	1.625210E-14	5.500233E-16
4.550000E+03	1.651833E-14	5.818991E-16
4.560000E+03	1.676912E-14	6.125470E-16
4.570000E+03	1.699861E-14	6.416216E-16
4.580000E+03	1.720102E-14	6.687811E-16
4.590000E+03	1.737167E-14	6.937286E-16
4.600000E+03	1.750603E-14	7.161824E-16
4.610000E+03	1.760139E-14	7.359442E-16
4.620000E+03	1.765518E-14	7.528366E-16
4.630000E+03	1.766697E-14	7.667894E-16
4.640000E+03	1.763677E-14	7.777681E-16
4.650000E+03	1.756634E-14	7.858349E-16
4.660000E+03	1.745788E-14	7.910882E-16
4.670000E+03	1.731510E-14	7.937128E-16
4.680000E+03	1.714212E-14	7.939264E-16
4.690000E+03	1.694338E-14	7.919760E-16
4.700000E+03	1.672379E-14	7.881406E-16
4.710000E+03	1.648819E-14	7.827047E-16
4.720000E+03	1.624120E-14	7.759479E-16
4.730000E+03	1.598750E-14	7.681573E-16
4.740000E+03	1.573097E-14	7.595832E-16
4.750000E+03	1.547565E-14	7.504831E-16
4.760000E+03	1.522446E-14	7.410608E-16
4.770000E+03	1.498037E-14	7.315192E-16
4.780000E+03	1.474564E-14	7.220241E-16
4.790000E+03	1.452188E-14	7.127046E-16
4.800000E+03	1.431043E-14	7.036739E-16
4.810000E+03	1.411205E-14	6.950110E-16
4.820000E+03	1.392720E-14	6.867763E-16
4.830000E+03	1.375572E-14	6.789949E-16
4.840000E+03	1.359742E-14	6.716856E-16
4.850000E+03	1.345176E-14	6.648444E-16
4.860000E+03	1.331824E-14	6.584672E-16
4.870000E+03	1.319579E-14	6.525151E-16
4.880000E+03	1.308386E-14	6.469740E-16
4.890000E+03	1.298132E-14	6.417956E-16
4.900000E+03	1.288756E-14	6.369557E-16
4.910000E+03	1.280171E-14	6.324141E-16
4.920000E+03	1.272339E-14	6.281533E-16
4.930000E+03	1.265191E-14	6.241384E-16
4.940000E+03	1.258734E-14	6.203722E-16
4.950000E+03	1.252926E-14	6.168311E-16
4.960000E+03	1.247816E-14	6.135362E-16
4.970000E+03	1.243426E-14	6.104945E-16
4.980000E+03	1.239820E-14	6.077336E-16
4.990000E+03	1.237044E-14	6.052711E-16
5.000000E+03	1.235205E-14	6.031543E-16
5.010000E+03	1.234397E-14	6.014229E-16
5.020000E+03	1.234713E-14	6.001131E-16
5.030000E+03	1.236270E-14	5.992724E-16
5.040000E+03	1.239162E-14	5.989340E-16
5.050000E+03	1.243505E-14	5.991376E-16
5.060000E+03	1.249393E-14	5.999091E-16
5.070000E+03	1.256907E-14	6.012646E-16
5.080000E+03	1.266103E-14	6.032014E-16
5.090000E+03	1.277038E-14	6.057133E-16
5.100000E+03	1.289737E-14	6.087713E-16
5.110000E+03	1.304185E-14	6.123211E-16
5.120000E+03	1.320360E-14	6.162990E-16
5.130000E+03	1.338175E-14	6.206006E-16
5.140000E+03	1.357570E-14	6.251278E-16
5.150000E+03	1.378373E-14	6.297219E-16
5.160000E+03	1.400443E-14	6.342297E-16
5.170000E+03	1.423563E-14	6.384561E-16
5.180000E+03	1.447483E-14	6.421837E-16
5.190000E+03	1.471966E-14	6.451939E-16
5.200000E+03	1.496692E-14	6.472272E-16
5.210000E+03	1.521347E-14	6.480247E-16
5.220000E+03	1.545622E-14	6.473280E-16
5.230000E+03	1.569171E-14	6.448660E-16
5.240000E+03	1.591663E-14	6.403808E-16
5.250000E+03	1.612782E-14	6.336288E-16
5.260000E+03	1.632225E-14	6.243876E-16
5.270000E+03	1.649704E-14	6.124572E-16
5.280000E+03	1.664993E-14	5.976846E-16
5.290000E+03	1.677870E-14	5.799456E-16
5.300000E+03	1.688172E-14	5.591678E-16
5.310000E+03	1.695761E-14	5.353238E-16
5.320000E+03	1.700573E-14	5.084509E-16
5.330000E+03	1.702568E-14	4.786388E-16
5.340000E+03	1.701713E-14	4.460307E-16
5.350000E+03	1.698054E-14	4.108550E-16
5.360000E+03	1.691656E-14	3.734182E-16
5.370000E+03	1.682590E-14	3.341314E-16
5.380000E+03	1.670990E-14	2.935681E-16
5.390000E+03	1.656965E-14	2.525427E-16
5.400000E+03	1.640708E-14	2.123235E-16
5.410000E+03	1.622417E-14	1.750176E-16
5.420000E+03	1.602375E-14	1.442951E-16
5.430000E+03	1.580900E-14	1.258725E-16
5.440000E+03	1.558579E-14	1.248710E-16
5.450000E+03	1.536206E-14	1.400232E-16
5.460000E+03	1.514512E-14	1.650800E-16
5.470000E+03	1.493900E-14	1.945789E-16
5.480000E+03	1.474574E-14	2.253991E-16
5.490000E+03	1.456577E-14	2.559491E-16
5.500000E+03	1.439876E-14	2.854238E-16
5.510000E+03	1.424389E-14	3.134122E-16
5.520000E+03	1.409959E-14	3.396946E-16
5.530000E+03	1.396455E-14	3.641688E-16
5.540000E+03	1.383727E-14	3.867912E-16
5.550000E+03	1.371633E-14	4.075571E-16
5.560000E+03	1.360048E-14	4.264885E-16
5.570000E+03	1.348885E-14	4.436333E-16
5.580000E+03	1.338055E-14	4.590496E-16
5.590000E+03	1.327504E-14	4.728119E-16
5.600000E+03	1.317261E-14	4.850310E-16
5.610000E+03	1.307305E-14	4.958039E-16
5.620000E+03	1.297727E-14	5.052712E-16
5.630000E+03	1.288574E-14	5.135598E-16
5.640000E+03	1.279941E-14	5.208154E-16
5.650000E+03	1.271951E-14	5.271949E-16
5.660000E+03	1.264723E-14	5.328522E-16
5.670000E+03	1.258381E-14	5.379399E-16
5.680000E+03	1.253045E-14	5.426059E-16
5.690000E+03	1.248827E-14	5.469902E-16
5.700000E+03	1.245828E-14	5.512216E-16
5.710000E+03	1.244127E-14	5.554153E-16
5.720000E+03	1.243786E-14	5.596704E-16
5.730000E+03	1.244848E-14	5.640741E-16
5.740000E+03	1.247320E-14	5.686884E-16
5.750000E+03	1.251159E-14	5.735481E-16
5.760000E+03	1.256303E-14	5.786728E-16
5.770000E+03	1.262682E-14	5.840728E-16
5.780000E+03	1.270136E-14	5.897115E-16
5.790000E+03	1.278526E-14	5.955561E-16
5.800000E+03	1.287619E-14	6.015280E-16
5.810000E+03	1.297211E-14	6.075554E-16
5.820000E+03	1.307024E-14	6.135301E-16
5.830000E+03	1.316788E-14	6.193431E-16
5.840000E+03	1.326200E-14	6.248676E-16
5.850000E+03	1.334932E-14	6.299630E-16
5.860000E+03	1.342687E-14	6.344991E-16
5.870000E+03	1.349173E-14	6.383481E-16
5.880000E+03	1.354072E-14	6.413673E-16
5.890000E+03	1.357170E-14	6.434609E-16
5.900000E+03	1.358212E-14	6.445130E-16
5.910000E+03	1.357019E-14	6.444417E-16
5.920000E+03	1.353493E-14	6.432030E-16
5.930000E+03	1.347548E-14	6.407564E-16
5.940000E+03	1.339169E-14	6.370955E-16
5.950000E+03	1.328420E-14	6.322486E-16
5.960000E+03	1.315391E-14	6.262562E-16
5.970000E+03	1.300255E-14	6.191981E-16
5.980000E+03	1.283235E-14	6.111762E-16
5.990000E+03	1.264549E-14	6.022902E-16
6.000000E+03	1.244510E-14	5.926836E-16
6.010000E+03	1.223407E-14	5.824895E-16
6.020000E+03	1.201590E-14	5.718687E-16
6.030000E+03	1.179342E-14	5.609503E-16
6.040000E+03	1.157027E-14	5.499025E-16
6.050000E+03	1.134943E-14	5.388611E-16
6.060000E+03	1.113386E-14	5.279601E-16
6.070000E+03	1.092626E-14	5.173219E-16
6.080000E+03	1.072908E-14	5.070549E-16
6.090000E+03	1.054457E-14	4.972574E-16
6.100000E+03	1.037451E-14	4.880040E-16
6.110000E+03	1.022046E-14	4.793562E-16
6.120000E+03	1.008335E-14	4.713442E-16
6.130000E+03	9.964143E-15	4.639954E-16
6.140000E+03	9.863403E-15	4.573163E-16
6.150000E+03	9.781226E-15	4.512869E-16
6.160000E+03	9.717719E-15	4.458834E-16
6.170000E+03	9.672532E-15	4.410560E-16
6.180000E+03	9.644264E-15	4.367019E-16
6.190000E+03	9.631458E-15	4.327113E-16
6.200000E+03	9.632138E-15	4.289465E-16
6.210000E+03	9.644197E-15	4.252603E-16
6.220000E+03	9.665314E-15	4.214928E-16
6.230000E+03	9.693378E-15	4.174905E-16
6.240000E+03	9.725799E-15	4.130778E-16
6.250000E+03	9.760324E-15	4.080934E-16
6.260000E+03	9.794485E-15	4.023683E-16
6.270000E+03	9.826185E-15	3.957521E-16
6.280000E+03	9.853262E-15	3.880973E-16
6.290000E+03	9.873944E-15	3.792798E-16
6.300000E+03	9.886793E-15	3.691980E-16
6.310000E+03	9.890879E-15	3.577819E-16
6.320000E+03	9.885555E-15	3.449854E-16
6.330000E+03	9.870467E-15	3.307895E-16
6.340000E+03	9.845937E-15	3.152177E-16
6.350000E+03	9.812538E-15	2.983231E-16
6.360000E+03	9.771168E-15	2.801956E-16
6.370000E+03	9.722981E-15	2.609665E-16
6.380000E+03	9.669431E-15	2.408205E-16
6.390000E+03	9.611773E-15	2.200025E-16
6.400000E+03	9.551367E-15	1.988596E-16
6.410000E+03	9.489443E-15	1.778912E-16
6.420000E+03	9.427149E-15	1.578367E-16
6.430000E+03	9.364970E-15	1.397888E-16
6.440000E+03	9.303484E-15	1.253112E-16
6.450000E+03	9.242866E-15	1.163182E-16
6.460000E+03	9.183146E-15	1.144085E-16
6.470000E+03	9.124261E-15	1.197826E-16
6.480000E+03	9.066908E-15	1.310373E-16
6.490000E+03	9.011185E-15	1.461549E-16
6.500000E+03	8.957184E-15	1.633920E-16
6.510000E+03	8.904815E-15	1.815201E-16
6.520000E+03	8.853315E-15	1.997312E-16
6.530000E+03	8.802058E-15	2.175123E-16
6.540000E+03	8.750117E-15	2.345295E-16
6.550000E+03	8.696209E-15	2.505545E-16
6.560000E+03	8.639531E-15	2.654445E-16
6.570000E+03	8.578819E-15	2.790901E-16
6.580000E+03	8.513413E-15	2.914325E-16
6.590000E+03	8.442301E-15	3.024235E-16
6.600000E+03	8.365030E-15	3.120503E-16
6.610000E+03	8.281230E-15	3.203162E-16
6.620000E+03	8.190740E-15	3.272433E-16
6.630000E+03	8.093615E-15	3.328704E-16
6.640000E+03	7.989988E-15	3.372466E-16
6.650000E+03	7.880412E-15	3.404442E-16
6.660000E+03	7.765592E-15	3.425469E-16
6.670000E+03	7.646002E-15	3.436317E-16
6.680000E+03	7.522564E-15	3.437973E-16
6.690000E+03	7.396141E-15	3.431412E-16
6.700000E+03	7.267629E-15	3.417623E-16
6.710000E+03	7.138034E-15	3.397640E-16
6.720000E+03	7.008011E-15	3.372318E-16
6.730000E+03	6.878612E-15	3.342674E-16
6.740000E+03	6.750503E-15	3.309517E-16
6.750000E+03	6.624494E-15	3.273696E-16
6.760000E+03	6.501105E-15	3.235884E-16
6.770000E+03	6.380882E-15	3.196735E-16
6.780000E+03	6.264384E-15	3.156876E-16
6.790000E+03	6.151984E-15	3.116810E-16
6.800000E+03	6.043881E-15	3.076918E-16
6.810000E+03	5.940392E-15	3.037614E-16
6.820000E+03	5.841574E-15	2.999152E-16
6.830000E+03	5.747707E-15	2.961872E-16
6.840000E+03	5.658637E-15	2.925873E-16
6.850000E+03	5.574446E-15	2.891350E-16
6.860000E+03	5.494992E-15	2.858365E-16
6.870000E+03	5.420369E-15	2.827087E-16
6.880000E+03	5.350375E-15	2.797515E-16
6.890000E+03	5.284788E-15	2.769624E-16
6.900000E+03	5.223636E-15	2.743509E-16
6.910000E+03	5.166584E-15	2.719065E-16
6.920000E+03	5.113639E-15	2.696356E-16
6.930000E+03	5.064458E-15	2.675256E-16
6.940000E+03	5.019045E-15	2.655813E-16
6.950000E+03	4.977144E-15	2.637934E-16
6.960000E+03	4.938506E-15	2.621521E-16
6.970000E+03	4.903227E-15	2.606657E-16
6.980000E+03	4.870899E-15	2.593153E-16
6.990000E+03	4.841459E-15	2.580998E-16
7.000000E+03	4.814851E-15	2.570183E-16
7.010000E+03	4.790769E-15	2.560562E-16
7.020000E+03	4.769252E-15	2.552171E-16
7.030000E+03	4.750090E-15	2.544909E-16
7.040000E+03	4.733244E-15	2.538767E-16
7.050000E+03	4.718508E-15	2.533642E-16
7.060000E+03	4.705763E-15	2.529477E-16
7.070000E+03	4.694887E-15	2.526213E-16
7.080000E+03	4.685756E-15	2.523786E-16
7.090000E+03	4.678331E-15	2.522178E-16
7.100000E+03	4.672480E-15	2.521321E-16
7.110000E+03	4.667984E-15	2.521098E-16
7.120000E+03	4.664700E-15	2.521433E-16
7.130000E+03	4.662480E-15	2.522246E-16
7.140000E+03	4.661345E-15	2.523549E-16
7.150000E+03	4.660872E-15	2.525114E-16
7.160000E+03	4.661071E-15	2.526948E-16
7.170000E+03	4.661771E-15	2.528958E-16
7.180000E+03	4.662799E-15	2.531053E-16
7.190000E+03	4.663889E-15	2.533090E-16
7.200000E+03	4.664953E-15	2.535025E-16
7.210000E+03	4.665817E-15	2.536767E-16
7.220000E+03	4.666310E-15	2.538227E-16
7.230000E+03	4.666176E-15	2.539271E-16
7.240000E+03	4.665443E-15	2.539920E-16
7.250000E+03	4.663877E-15	2.540053E-16
7.260000E+03	4.661441E-15	2.539655E-16
7.270000E+03	4.657931E-15	2.538625E-16
7.280000E+03	4.653253E-15	2.536917E-16
7.290000E+03	4.647523E-15	2.534602E-16
7.300000E+03	4.640504E-15	2.531559E-16
7.310000E+03	4.632362E-15	2.527883E-16
7.320000E+03	4.623001E-15	2.523530E-16
7.330000E+03	4.612544E-15	2.518571E-16
7.340000E+03	4.601138E-15	2.513090E-16
7.350000E+03	4.588765E-15	2.507078E-16
7.360000E+03	4.575718E-15	2.500697E-16
7.370000E+03	4.562026E-15	2.493960E-16
7.380000E+03	4.547930E-15	2.486993E-16
7.390000E+03	4.533690E-15	2.479933E-16
7.400000E+03	4.519486E-15	2.472868E-16
7.410000E+03	4.505610E-15	2.465945E-16
7.420000E+03	4.492266E-15	2.459260E-16
7.430000E+03	4.479762E-15	2.452964E-16
7.440000E+03	4.468124E-15	2.447050E-16
7.450000E+03	4.457568E-15	2.441615E-16
7.460000E+03	4.448311E-15	2.436751E-16
7.470000E+03	4.440468E-15	2.432494E-16
7.480000E+03	4.434146E-15	2.428873E-16
7.490000E+03	4.429438E-15	2.425912E-16
7.500000E+03	4.426525E-15	2.423676E-16
7.510000E+03	4.425569E-15	2.422225E-16
7.520000E+03	4.426718E-15	2.421607E-16
7.530000E+03	4.429899E-15	2.421753E-16
7.540000E+03	4.435316E-15	2.422743E-16
7.550000E+03	4.443051E-15	2.424591E-16
7.560000E+03	4.453063E-15	2.427247E-16
7.570000E+03	4.465387E-15	2.430698E-16
7.580000E+03	4.480031E-15	2.434921E-16
7.590000E+03	4.497083E-15	2.439932E-16
7.600000E+03	4.516299E-15	2.445567E-16
7.610000E+03	4.537717E-15	2.451812E-16
7.620000E+03	4.561144E-15	2.458526E-16
7.630000E+03	4.586678E-15	2.465718E-16
7.640000E+03	4.613975E-15	2.473153E-16
7.650000E+03	4.642984E-15	2.480750E-16
7.660000E+03	4.673420E-15	2.488289E-16
7.670000E+03	4.705194E-15	2.495649E-16
7.680000E+03	4.738090E-15	2.502627E-16
7.690000E+03	4.771875E-15	2.508998E-16
7.700000E+03	4.806186E-15	2.514458E-16
7.710000E+03	4.840866E-15	2.518794E-16
7.720000E+03	4.875633E-15	2.521714E-16
7.730000E+03	4.910191E-15	2.522900E-16
7.740000E+03	4.944227E-15	2.522015E-16
7.750000E+03	4.977299E-15	2.518637E-16
7.760000E+03	5.009305E-15	2.512504E-16
