#wls	flux	fluxerr
1.600000E+03	9.121602E-16	2.674718E-16
1.640000E+03	8.348007E-16	2.246042E-16
1.680000E+03	7.639922E-16	1.872228E-16
1.720000E+03	6.999811E-16	1.549236E-16
1.760000E+03	6.423742E-16	1.271536E-16
1.800000E+03	5.912396E-16	1.034835E-16
1.840000E+03	5.463222E-16	8.344315E-17
1.880000E+03	5.073377E-16	6.660890E-17
1.920000E+03	4.741560E-16	5.264709E-17
1.960000E+03	4.462664E-16	4.128372E-17
2.000000E+03	4.235866E-16	3.245259E-17
2.040000E+03	4.057778E-16	2.626221E-17
2.080000E+03	3.924738E-16	2.291916E-17
2.120000E+03	3.836460E-16	2.226089E-17
2.160000E+03	3.790095E-16	2.337924E-17
2.200000E+03	3.784689E-16	2.530107E-17
2.240000E+03	3.818971E-16	2.741254E-17
2.280000E+03	3.891387E-16	2.938609E-17
2.320000E+03	4.002893E-16	3.103386E-17
2.360000E+03	4.152143E-16	3.217994E-17
2.400000E+03	4.339636E-16	3.267133E-17
2.440000E+03	4.563821E-16	3.236662E-17
2.480000E+03	4.822635E-16	3.120796E-17
2.520000E+03	5.111491E-16	2.934313E-17
2.560000E+03	5.424917E-16	2.740217E-17
2.600000E+03	5.753664E-16	2.680590E-17
2.640000E+03	6.085313E-16	2.939167E-17
2.680000E+03	6.414184E-16	3.563544E-17
2.720000E+03	6.737898E-16	4.445014E-17
2.760000E+03	7.055322E-16	5.459656E-17
2.800000E+03	7.365450E-16	6.515638E-17
2.840000E+03	7.667791E-16	7.547181E-17
2.880000E+03	7.960693E-16	8.502676E-17
2.920000E+03	8.246589E-16	9.344461E-17
2.960000E+03	8.528124E-16	1.004280E-16
3.000000E+03	8.811203E-16	1.057795E-16
3.010000E+03	8.882931E-16	1.068447E-16
3.020000E+03	8.955736E-16	1.078031E-16
3.030000E+03	9.029711E-16	1.086529E-16
3.040000E+03	9.103890E-16	1.093798E-16
3.050000E+03	9.178364E-16	1.099825E-16
3.060000E+03	9.255352E-16	1.104850E-16
3.070000E+03	9.332832E-16	1.108608E-16
3.080000E+03	9.413035E-16	1.111341E-16
3.090000E+03	9.493930E-16	1.112787E-16
3.100000E+03	9.576689E-16	1.113063E-16
3.110000E+03	9.661417E-16	1.112160E-16
3.120000E+03	9.748217E-16	1.110072E-16
3.130000E+03	9.837195E-16	1.106790E-16
3.140000E+03	9.929536E-16	1.102428E-16
3.150000E+03	1.002318E-15	1.096738E-16
3.160000E+03	1.012039E-15	1.089954E-16
3.170000E+03	1.022127E-15	1.082065E-16
3.180000E+03	1.032482E-15	1.072949E-16
3.190000E+03	1.043223E-15	1.062712E-16
3.200000E+03	1.054248E-15	1.051237E-16
3.210000E+03	1.065785E-15	1.038737E-16
3.220000E+03	1.077620E-15	1.024988E-16
3.230000E+03	1.089869E-15	1.010094E-16
3.240000E+03	1.102536E-15	9.940536E-17
3.250000E+03	1.115736E-15	9.769639E-17
3.260000E+03	1.129359E-15	9.587254E-17
3.270000E+03	1.143402E-15	9.393465E-17
3.280000E+03	1.157977E-15	9.189322E-17
3.290000E+03	1.173077E-15	8.974968E-17
3.300000E+03	1.188696E-15	8.750640E-17
3.310000E+03	1.204820E-15	8.516697E-17
3.320000E+03	1.221551E-15	8.274437E-17
3.330000E+03	1.238755E-15	8.023719E-17
3.340000E+03	1.256408E-15	7.765480E-17
3.350000E+03	1.274599E-15	7.501642E-17
3.360000E+03	1.293413E-15	7.234351E-17
3.370000E+03	1.312579E-15	6.964175E-17
3.380000E+03	1.332291E-15	6.694827E-17
3.390000E+03	1.352381E-15	6.428677E-17
3.400000E+03	1.373037E-15	6.170511E-17
3.410000E+03	1.393962E-15	5.923609E-17
3.420000E+03	1.415333E-15	5.694182E-17
3.430000E+03	1.436966E-15	5.487578E-17
3.440000E+03	1.458910E-15	5.310640E-17
3.450000E+03	1.481094E-15	5.169845E-17
3.460000E+03	1.503446E-15	5.071202E-17
3.470000E+03	1.526018E-15	5.019782E-17
3.480000E+03	1.548626E-15	5.017227E-17
3.490000E+03	1.571350E-15	5.062259E-17
3.500000E+03	1.594160E-15	5.150140E-17
3.510000E+03	1.617154E-15	5.274700E-17
3.520000E+03	1.640188E-15	5.428103E-17
3.530000E+03	1.663365E-15	5.603173E-17
3.540000E+03	1.686666E-15	5.792730E-17
3.550000E+03	1.710073E-15	5.990301E-17
3.560000E+03	1.733687E-15	6.190687E-17
3.570000E+03	1.757369E-15	6.388709E-17
3.580000E+03	1.781225E-15	6.580870E-17
3.590000E+03	1.805119E-15	6.763547E-17
3.600000E+03	1.829280E-15	6.935104E-17
3.610000E+03	1.853582E-15	7.093150E-17
3.620000E+03	1.878028E-15	7.236233E-17
3.630000E+03	1.902631E-15	7.363331E-17
3.640000E+03	1.927534E-15	7.474259E-17
3.650000E+03	1.952667E-15	7.568270E-17
3.660000E+03	1.978098E-15	7.645389E-17
3.670000E+03	2.004153E-15	7.706805E-17
3.680000E+03	2.030733E-15	7.752231E-17
3.690000E+03	2.058013E-15	7.782542E-17
3.700000E+03	2.086434E-15	7.799726E-17
3.710000E+03	2.116041E-15	7.804350E-17
3.720000E+03	2.147273E-15	7.798522E-17
3.730000E+03	2.180403E-15	7.783821E-17
3.740000E+03	2.215986E-15	7.762918E-17
3.750000E+03	2.254524E-15	7.738386E-17
3.760000E+03	2.296579E-15	7.713114E-17
3.770000E+03	2.342652E-15	7.689946E-17
3.780000E+03	2.393489E-15	7.672642E-17
3.790000E+03	2.449579E-15	7.663997E-17
3.800000E+03	2.511524E-15	7.666814E-17
3.810000E+03	2.579598E-15	7.682770E-17
3.820000E+03	2.654037E-15	7.713395E-17
3.830000E+03	2.734843E-15	7.759382E-17
3.840000E+03	2.821789E-15	7.820861E-17
3.850000E+03	2.914392E-15	7.897273E-17
3.860000E+03	3.011722E-15	7.986559E-17
3.870000E+03	3.112880E-15	8.086814E-17
3.880000E+03	3.216108E-15	8.194021E-17
3.890000E+03	3.319970E-15	8.304862E-17
3.900000E+03	3.422436E-15	8.414758E-17
3.910000E+03	3.521302E-15	8.519107E-17
3.920000E+03	3.614650E-15	8.614096E-17
3.930000E+03	3.699938E-15	8.694789E-17
3.940000E+03	3.775366E-15	8.758181E-17
3.950000E+03	3.839067E-15	8.800625E-17
3.960000E+03	3.889648E-15	8.819536E-17
3.970000E+03	3.926041E-15	8.813048E-17
3.980000E+03	3.947876E-15	8.780374E-17
3.990000E+03	3.955442E-15	8.722175E-17
4.000000E+03	3.949184E-15	8.639470E-17
4.010000E+03	3.930310E-15	8.534483E-17
4.020000E+03	3.900544E-15	8.410569E-17
4.030000E+03	3.861650E-15	8.271107E-17
4.040000E+03	3.815695E-15	8.119510E-17
4.050000E+03	3.764723E-15	7.959243E-17
4.060000E+03	3.710849E-15	7.794225E-17
4.070000E+03	3.656057E-15	7.628012E-17
4.080000E+03	3.602182E-15	7.464251E-17
4.090000E+03	3.550776E-15	7.306348E-17
4.100000E+03	3.503254E-15	7.157215E-17
4.110000E+03	3.460811E-15	7.019521E-17
4.120000E+03	3.424320E-15	6.895261E-17
4.130000E+03	3.394541E-15	6.785551E-17
4.140000E+03	3.371842E-15	6.690717E-17
4.150000E+03	3.356388E-15	6.610801E-17
4.160000E+03	3.348257E-15	6.545343E-17
4.170000E+03	3.347186E-15	6.493393E-17
4.180000E+03	3.352892E-15	6.454112E-17
4.190000E+03	3.364689E-15	6.425443E-17
4.200000E+03	3.381956E-15	6.405495E-17
4.210000E+03	3.403795E-15	6.391706E-17
4.220000E+03	3.429324E-15	6.380677E-17
4.230000E+03	3.457327E-15	6.368161E-17
4.240000E+03	3.486759E-15	6.350023E-17
4.250000E+03	3.516189E-15	6.320636E-17
4.260000E+03	3.544320E-15	6.274816E-17
4.270000E+03	3.569737E-15	6.207932E-17
4.280000E+03	3.590889E-15	6.115749E-17
4.290000E+03	3.606558E-15	5.996282E-17
4.300000E+03	3.615548E-15	5.849748E-17
4.310000E+03	3.616796E-15	5.678608E-17
4.320000E+03	3.609759E-15	5.488935E-17
4.330000E+03	3.594237E-15	5.289926E-17
4.340000E+03	3.570482E-15	5.092967E-17
4.350000E+03	3.539376E-15	4.911599E-17
4.360000E+03	3.502242E-15	4.759230E-17
4.370000E+03	3.461058E-15	4.644517E-17
4.380000E+03	3.418705E-15	4.569329E-17
4.390000E+03	3.378300E-15	4.531710E-17
4.400000E+03	3.342990E-15	4.528678E-17
4.410000E+03	3.315555E-15	4.557669E-17
4.420000E+03	3.298690E-15	4.617077E-17
4.430000E+03	3.294773E-15	4.705049E-17
4.440000E+03	3.305966E-15	4.820458E-17
4.450000E+03	3.334133E-15	4.962987E-17
4.460000E+03	3.380535E-15	5.132002E-17
4.470000E+03	3.446222E-15	5.327670E-17
4.480000E+03	3.531861E-15	5.550474E-17
4.490000E+03	3.637337E-15	5.799638E-17
4.500000E+03	3.762157E-15	6.074399E-17
4.510000E+03	3.904933E-15	6.373100E-17
4.520000E+03	4.063510E-15	6.692418E-17
4.530000E+03	4.234696E-15	7.027731E-17
4.540000E+03	4.414280E-15	7.373068E-17
4.550000E+03	4.597126E-15	7.720170E-17
4.560000E+03	4.777187E-15	8.059530E-17
4.570000E+03	4.947817E-15	8.381111E-17
4.580000E+03	5.102165E-15	8.673944E-17
4.590000E+03	5.233670E-15	8.928064E-17
4.600000E+03	5.336264E-15	9.134909E-17
4.610000E+03	5.405567E-15	9.288110E-17
4.620000E+03	5.438459E-15	9.383691E-17
4.630000E+03	5.434177E-15	9.421635E-17
4.640000E+03	5.393781E-15	9.403459E-17
4.650000E+03	5.320467E-15	9.333932E-17
4.660000E+03	5.219097E-15	9.220216E-17
4.670000E+03	5.095425E-15	9.069385E-17
4.680000E+03	4.956119E-15	8.890052E-17
4.690000E+03	4.807848E-15	8.691166E-17
4.700000E+03	4.656685E-15	8.480168E-17
4.710000E+03	4.508215E-15	8.264529E-17
4.720000E+03	4.367197E-15	8.051534E-17
4.730000E+03	4.237221E-15	7.846924E-17
4.740000E+03	4.121113E-15	7.656161E-17
4.750000E+03	4.020835E-15	7.484027E-17
4.760000E+03	3.937497E-15	7.333827E-17
4.770000E+03	3.871615E-15	7.208087E-17
4.780000E+03	3.823296E-15	7.108230E-17
4.790000E+03	3.791998E-15	7.033138E-17
4.800000E+03	3.776835E-15	6.980914E-17
4.810000E+03	3.776711E-15	6.949846E-17
4.820000E+03	3.790417E-15	6.938401E-17
4.830000E+03	3.816505E-15	6.945700E-17
4.840000E+03	3.853531E-15	6.971993E-17
4.850000E+03	3.899638E-15	7.017254E-17
4.860000E+03	3.952782E-15	7.081828E-17
4.870000E+03	4.010606E-15	7.165055E-17
4.880000E+03	4.070041E-15	7.262764E-17
4.890000E+03	4.127723E-15	7.368865E-17
4.900000E+03	4.180246E-15	7.475765E-17
4.910000E+03	4.224136E-15	7.573211E-17
4.920000E+03	4.256173E-15	7.650456E-17
4.930000E+03	4.273678E-15	7.698013E-17
4.940000E+03	4.274731E-15	7.708058E-17
4.950000E+03	4.258207E-15	7.675447E-17
4.960000E+03	4.224097E-15	7.598368E-17
4.970000E+03	4.173441E-15	7.477545E-17
4.980000E+03	4.108146E-15	7.316656E-17
4.990000E+03	4.030877E-15	7.122115E-17
5.000000E+03	3.944794E-15	6.901796E-17
5.010000E+03	3.853375E-15	6.665192E-17
5.020000E+03	3.760027E-15	6.422426E-17
5.030000E+03	3.667900E-15	6.182965E-17
5.040000E+03	3.579988E-15	5.955926E-17
5.050000E+03	3.498721E-15	5.748239E-17
5.060000E+03	3.426162E-15	5.563651E-17
5.070000E+03	3.363925E-15	5.404152E-17
5.080000E+03	3.313315E-15	5.270789E-17
5.090000E+03	3.275443E-15	5.163235E-17
5.100000E+03	3.251239E-15	5.081034E-17
5.110000E+03	3.241380E-15	5.023624E-17
5.120000E+03	3.246497E-15	4.989847E-17
5.130000E+03	3.266994E-15	4.978713E-17
5.140000E+03	3.303201E-15	4.989778E-17
5.150000E+03	3.355145E-15	5.021944E-17
5.160000E+03	3.422714E-15	5.074628E-17
5.170000E+03	3.505502E-15	5.147351E-17
5.180000E+03	3.602706E-15	5.238412E-17
5.190000E+03	3.713125E-15	5.345999E-17
5.200000E+03	3.835159E-15	5.468080E-17
5.210000E+03	3.966739E-15	5.600913E-17
5.220000E+03	4.105331E-15	5.740486E-17
5.230000E+03	4.248073E-15	5.882932E-17
5.240000E+03	4.391738E-15	6.023071E-17
5.250000E+03	4.533084E-15	6.156459E-17
5.260000E+03	4.668812E-15	6.279292E-17
5.270000E+03	4.795884E-15	6.386967E-17
5.280000E+03	4.911913E-15	6.476171E-17
5.290000E+03	5.015178E-15	6.544459E-17
5.300000E+03	5.105088E-15	6.588440E-17
5.310000E+03	5.182208E-15	6.606003E-17
5.320000E+03	5.248278E-15	6.596658E-17
5.330000E+03	5.306239E-15	6.559539E-17
5.340000E+03	5.360145E-15	6.495758E-17
5.350000E+03	5.414627E-15	6.408060E-17
5.360000E+03	5.475006E-15	6.298934E-17
5.370000E+03	5.546811E-15	6.172776E-17
5.380000E+03	5.635607E-15	6.036153E-17
5.390000E+03	5.746453E-15	5.895738E-17
5.400000E+03	5.884152E-15	5.763517E-17
5.410000E+03	6.053029E-15	5.659699E-17
5.420000E+03	6.256640E-15	5.612150E-17
5.430000E+03	6.497649E-15	5.658363E-17
5.440000E+03	6.777037E-15	5.834600E-17
5.450000E+03	7.093259E-15	6.154464E-17
5.460000E+03	7.440386E-15	6.605033E-17
5.470000E+03	7.808854E-15	7.155728E-17
5.480000E+03	8.187010E-15	7.767851E-17
5.490000E+03	8.560703E-15	8.404851E-17
5.500000E+03	8.914607E-15	9.035590E-17
5.510000E+03	9.233687E-15	9.630804E-17
5.520000E+03	9.503764E-15	1.016852E-16
5.530000E+03	9.712313E-15	1.063397E-16
5.540000E+03	9.850338E-15	1.101432E-16
5.550000E+03	9.912299E-15	1.130332E-16
5.560000E+03	9.896913E-15	1.150174E-16
5.570000E+03	9.806565E-15	1.161005E-16
5.580000E+03	9.647861E-15	1.163432E-16
5.590000E+03	9.430145E-15	1.158498E-16
5.600000E+03	9.165360E-15	1.147146E-16
5.610000E+03	8.866589E-15	1.130477E-16
5.620000E+03	8.547262E-15	1.109583E-16
5.630000E+03	8.219985E-15	1.084989E-16
5.640000E+03	7.896405E-15	1.057248E-16
5.650000E+03	7.586360E-15	1.027137E-16
5.660000E+03	7.297859E-15	9.954505E-17
5.670000E+03	7.037085E-15	9.632036E-17
5.680000E+03	6.808821E-15	9.316745E-17
5.690000E+03	6.616191E-15	9.021324E-17
5.700000E+03	6.461017E-15	8.758879E-17
5.710000E+03	6.344191E-15	8.540644E-17
5.720000E+03	6.264701E-15	8.371398E-17
5.730000E+03	6.220867E-15	8.254217E-17
5.740000E+03	6.210098E-15	8.190281E-17
5.750000E+03	6.228686E-15	8.176077E-17
5.760000E+03	6.272159E-15	8.206983E-17
5.770000E+03	6.335405E-15	8.277371E-17
5.780000E+03	6.412682E-15	8.377586E-17
5.790000E+03	6.497434E-15	8.497020E-17
5.800000E+03	6.583110E-15	8.625888E-17
5.810000E+03	6.663141E-15	8.752611E-17
5.820000E+03	6.731155E-15	8.867084E-17
5.830000E+03	6.781556E-15	8.961657E-17
5.840000E+03	6.809685E-15	9.028437E-17
5.850000E+03	6.812226E-15	9.062449E-17
5.860000E+03	6.787066E-15	9.061045E-17
5.870000E+03	6.733670E-15	9.021157E-17
5.880000E+03	6.652932E-15	8.942333E-17
5.890000E+03	6.546887E-15	8.826917E-17
5.900000E+03	6.418452E-15	8.677212E-17
5.910000E+03	6.271318E-15	8.498029E-17
5.920000E+03	6.109570E-15	8.296003E-17
5.930000E+03	5.937475E-15	8.076646E-17
5.940000E+03	5.759287E-15	7.846399E-17
5.950000E+03	5.578895E-15	7.611720E-17
5.960000E+03	5.400014E-15	7.376876E-17
5.970000E+03	5.225582E-15	7.145652E-17
5.980000E+03	5.058185E-15	6.922090E-17
5.990000E+03	4.899660E-15	6.707971E-17
6.000000E+03	4.751306E-15	6.505131E-17
6.010000E+03	4.613807E-15	6.315125E-17
6.020000E+03	4.487422E-15	6.137578E-17
6.030000E+03	4.371894E-15	5.972104E-17
6.040000E+03	4.266711E-15	5.818799E-17
6.050000E+03	4.171139E-15	5.676693E-17
6.060000E+03	4.084320E-15	5.545686E-17
6.070000E+03	4.005368E-15	5.426672E-17
6.080000E+03	3.933538E-15	5.320136E-17
6.090000E+03	3.868067E-15	5.227294E-17
6.100000E+03	3.808486E-15	5.149805E-17
6.110000E+03	3.754629E-15	5.087758E-17
6.120000E+03	3.706527E-15	5.041292E-17
6.130000E+03	3.664431E-15	5.010628E-17
6.140000E+03	3.628898E-15	4.994526E-17
6.150000E+03	3.600591E-15	4.991888E-17
6.160000E+03	3.580146E-15	5.002002E-17
6.170000E+03	3.568040E-15	5.022998E-17
6.180000E+03	3.564669E-15	5.053099E-17
6.190000E+03	3.570212E-15	5.090042E-17
6.200000E+03	3.584587E-15	5.129468E-17
6.210000E+03	3.607460E-15	5.166950E-17
6.220000E+03	3.638494E-15	5.200021E-17
6.230000E+03	3.677277E-15	5.228024E-17
6.240000E+03	3.723360E-15	5.252484E-17
6.250000E+03	3.776427E-15	5.275974E-17
6.260000E+03	3.836380E-15	5.300201E-17
6.270000E+03	3.903251E-15	5.327098E-17
6.280000E+03	3.977065E-15	5.358413E-17
6.290000E+03	4.058078E-15	5.394377E-17
6.300000E+03	4.146395E-15	5.435006E-17
6.310000E+03	4.242027E-15	5.480527E-17
6.320000E+03	4.344844E-15	5.529769E-17
6.330000E+03	4.454377E-15	5.581583E-17
6.340000E+03	4.570087E-15	5.634574E-17
6.350000E+03	4.691077E-15	5.684234E-17
6.360000E+03	4.816361E-15	5.725864E-17
6.370000E+03	4.944936E-15	5.755339E-17
6.380000E+03	5.075849E-15	5.767347E-17
6.390000E+03	5.208389E-15	5.758851E-17
6.400000E+03	5.342281E-15	5.730147E-17
6.410000E+03	5.478009E-15	5.683517E-17
6.420000E+03	5.616591E-15	5.627941E-17
6.430000E+03	5.759695E-15	5.582060E-17
6.440000E+03	5.909782E-15	5.572636E-17
6.450000E+03	6.069433E-15	5.634610E-17
6.460000E+03	6.240332E-15	5.802544E-17
6.470000E+03	6.421864E-15	6.089794E-17
6.480000E+03	6.609406E-15	6.481860E-17
6.490000E+03	6.796134E-15	6.949657E-17
6.500000E+03	6.974664E-15	7.457956E-17
6.510000E+03	7.137169E-15	7.973853E-17
6.520000E+03	7.276012E-15	8.469737E-17
6.530000E+03	7.384872E-15	8.921751E-17
6.540000E+03	7.458471E-15	9.312558E-17
6.550000E+03	7.492881E-15	9.631259E-17
6.560000E+03	7.486272E-15	9.870376E-17
6.570000E+03	7.438285E-15	1.002769E-16
6.580000E+03	7.350209E-15	1.010611E-16
6.590000E+03	7.224916E-15	1.011007E-16
6.600000E+03	7.066608E-15	1.004748E-16
6.610000E+03	6.880314E-15	9.928441E-17
6.620000E+03	6.671747E-15	9.761926E-17
6.630000E+03	6.446995E-15	9.557899E-17
6.640000E+03	6.211873E-15	9.326356E-17
6.650000E+03	5.972246E-15	9.075509E-17
6.660000E+03	5.733150E-15	8.813048E-17
6.670000E+03	5.499148E-15	8.547024E-17
6.680000E+03	5.273977E-15	8.283539E-17
6.690000E+03	5.060515E-15	8.028301E-17
6.700000E+03	4.860978E-15	7.786594E-17
6.710000E+03	4.676616E-15	7.561073E-17
6.720000E+03	4.508244E-15	7.354148E-17
6.730000E+03	4.356001E-15	7.167576E-17
6.740000E+03	4.219521E-15	7.001414E-17
6.750000E+03	4.098128E-15	6.855575E-17
6.760000E+03	3.990987E-15	6.730016E-17
6.770000E+03	3.896989E-15	6.623345E-17
6.780000E+03	3.814886E-15	6.534178E-17
6.790000E+03	3.743565E-15	6.461561E-17
6.800000E+03	3.681767E-15	6.403445E-17
6.810000E+03	3.628268E-15	6.358021E-17
6.820000E+03	3.582093E-15	6.324105E-17
6.830000E+03	3.542089E-15	6.299460E-17
6.840000E+03	3.507399E-15	6.282585E-17
6.850000E+03	3.477119E-15	6.272213E-17
6.860000E+03	3.450569E-15	6.266954E-17
6.870000E+03	3.426937E-15	6.265507E-17
6.880000E+03	3.405730E-15	6.267473E-17
6.890000E+03	3.386327E-15	6.271731E-17
6.900000E+03	3.368295E-15	6.277768E-17
6.910000E+03	3.351219E-15	6.285325E-17
6.920000E+03	3.334708E-15	6.293587E-17
6.930000E+03	3.318551E-15	6.302245E-17
6.940000E+03	3.302436E-15	6.310986E-17
6.950000E+03	3.286247E-15	6.319300E-17
6.960000E+03	3.269891E-15	6.326896E-17
6.970000E+03	3.253359E-15	6.333824E-17
6.980000E+03	3.236734E-15	6.339796E-17
6.990000E+03	3.220140E-15	6.344750E-17
7.000000E+03	3.203852E-15	6.349058E-17
7.010000E+03	3.188175E-15	6.352607E-17
7.020000E+03	3.173470E-15	6.355542E-17
7.030000E+03	3.160082E-15	6.358206E-17
7.040000E+03	3.148410E-15	6.360686E-17
7.050000E+03	3.138895E-15	6.363518E-17
7.060000E+03	3.131886E-15	6.367606E-17
7.070000E+03	3.127732E-15	6.373948E-17
7.080000E+03	3.126749E-15	6.383972E-17
7.090000E+03	3.129191E-15	6.399217E-17
7.100000E+03	3.135215E-15	6.420506E-17
7.110000E+03	3.144902E-15	6.448598E-17
7.120000E+03	3.158217E-15	6.484096E-17
7.130000E+03	3.175054E-15	6.526917E-17
7.140000E+03	3.195225E-15	6.576904E-17
7.150000E+03	3.218529E-15	6.633948E-17
7.160000E+03	3.244523E-15	6.696923E-17
7.170000E+03	3.272963E-15	6.765205E-17
7.180000E+03	3.303344E-15	6.837765E-17
7.190000E+03	3.335318E-15	6.913412E-17
7.200000E+03	3.368500E-15	6.991030E-17
7.210000E+03	3.402490E-15	7.069648E-17
7.220000E+03	3.436976E-15	7.148032E-17
7.230000E+03	3.471690E-15	7.225268E-17
7.240000E+03	3.506364E-15	7.300775E-17
7.250000E+03	3.540827E-15	7.373924E-17
7.260000E+03	3.574912E-15	7.444463E-17
7.270000E+03	3.608573E-15	7.512741E-17
7.280000E+03	3.641654E-15	7.578543E-17
7.290000E+03	3.674109E-15	7.642161E-17
7.300000E+03	3.705885E-15	7.704054E-17
7.310000E+03	3.736894E-15	7.764018E-17
7.320000E+03	3.766927E-15	7.821754E-17
7.330000E+03	3.795829E-15	7.877283E-17
7.340000E+03	3.823375E-15	7.929999E-17
7.350000E+03	3.849246E-15	7.979369E-17
7.360000E+03	3.873144E-15	8.025194E-17
7.370000E+03	3.894674E-15	8.066648E-17
7.380000E+03	3.913435E-15	8.103187E-17
7.390000E+03	3.929104E-15	8.134698E-17
7.400000E+03	3.941409E-15	8.160647E-17
7.410000E+03	3.950051E-15	8.180691E-17
7.420000E+03	3.955000E-15	8.195289E-17
7.430000E+03	3.956252E-15	8.204365E-17
7.440000E+03	3.954104E-15	8.208707E-17
7.450000E+03	3.948978E-15	8.209565E-17
7.460000E+03	3.941573E-15	8.208102E-17
7.470000E+03	3.932649E-15	8.205762E-17
7.480000E+03	3.923191E-15	8.204527E-17
7.490000E+03	3.914325E-15	8.205809E-17
7.500000E+03	3.907199E-15	8.211040E-17
7.510000E+03	3.903011E-15	8.221622E-17
7.520000E+03	3.902864E-15	8.237695E-17
7.530000E+03	3.907802E-15	8.259175E-17
7.540000E+03	3.918818E-15	8.285955E-17
7.550000E+03	3.936560E-15	8.316562E-17
7.560000E+03	3.961436E-15	8.349316E-17
7.570000E+03	3.993800E-15	8.383061E-17
7.580000E+03	4.033544E-15	8.415805E-17
7.590000E+03	4.080489E-15	8.446339E-17
7.600000E+03	4.134083E-15	8.473788E-17
7.610000E+03	4.193588E-15	8.497486E-17
7.620000E+03	4.257918E-15	8.517229E-17
7.630000E+03	4.325942E-15	8.533421E-17
7.640000E+03	4.396162E-15	8.545267E-17
7.650000E+03	4.466815E-15	8.551902E-17
7.660000E+03	4.536072E-15	8.552516E-17
7.670000E+03	4.602153E-15	8.545222E-17
7.680000E+03	4.663046E-15	8.527790E-17
7.690000E+03	4.716823E-15	8.498254E-17
7.700000E+03	4.761671E-15	8.453654E-17
7.710000E+03	4.795973E-15	8.391617E-17
7.720000E+03	4.818207E-15	8.310169E-17
7.730000E+03	4.827261E-15	8.206879E-17
7.740000E+03	4.822412E-15	8.080507E-17
7.750000E+03	4.803169E-15	7.930919E-17
7.760000E+03	4.769566E-15	7.758199E-17
