#wls	flux	fluxerr
1.600000E+03	9.593510E-16	2.806909E-16
1.640000E+03	8.770089E-16	2.354033E-16
1.680000E+03	8.019362E-16	1.960201E-16
1.720000E+03	7.337803E-16	1.619532E-16
1.760000E+03	6.725779E-16	1.327252E-16
1.800000E+03	6.182536E-16	1.078419E-16
1.840000E+03	5.704363E-16	8.678617E-17
1.880000E+03	5.291385E-16	6.915217E-17
1.920000E+03	4.938160E-16	5.452182E-17
1.960000E+03	4.643025E-16	4.264236E-17
2.000000E+03	4.402273E-16	3.340209E-17
2.040000E+03	4.213814E-16	2.692123E-17
2.080000E+03	4.073489E-16	2.341796E-17
2.120000E+03	3.979369E-16	2.272356E-17
2.160000E+03	3.930715E-16	2.389204E-17
2.200000E+03	3.924600E-16	2.588960E-17
2.240000E+03	3.961810E-16	2.809616E-17
2.280000E+03	4.040076E-16	3.017690E-17
2.320000E+03	4.159077E-16	3.192979E-17
2.360000E+03	4.319614E-16	3.318511E-17
2.400000E+03	4.520230E-16	3.376188E-17
2.440000E+03	4.761566E-16	3.352078E-17
2.480000E+03	5.039360E-16	3.237503E-17
2.520000E+03	5.351207E-16	3.048242E-17
2.560000E+03	5.689062E-16	2.847982E-17
2.600000E+03	6.043955E-16	2.787461E-17
2.640000E+03	6.404475E-16	3.064731E-17
2.680000E+03	6.761673E-16	3.730478E-17
2.720000E+03	7.114496E-16	4.669912E-17
2.760000E+03	7.460315E-16	5.751179E-17
2.800000E+03	7.798574E-16	6.877702E-17
2.840000E+03	8.127368E-16	7.978571E-17
2.880000E+03	8.445749E-16	8.999431E-17
2.920000E+03	8.754001E-16	9.897336E-17
2.960000E+03	9.055879E-16	1.064108E-16
3.000000E+03	9.358676E-16	1.121054E-16
3.010000E+03	9.434850E-16	1.132325E-16
3.020000E+03	9.510960E-16	1.142313E-16
3.030000E+03	9.588186E-16	1.151132E-16
3.040000E+03	9.666629E-16	1.158764E-16
3.050000E+03	9.746398E-16	1.165195E-16
3.060000E+03	9.826509E-16	1.170283E-16
3.070000E+03	9.908161E-16	1.174147E-16
3.080000E+03	9.990371E-16	1.176646E-16
3.090000E+03	1.007544E-15	1.178030E-16
3.100000E+03	1.016130E-15	1.178034E-16
3.110000E+03	1.025026E-15	1.176905E-16
3.120000E+03	1.034023E-15	1.174385E-16
3.130000E+03	1.043355E-15	1.170717E-16
3.140000E+03	1.052810E-15	1.165648E-16
3.150000E+03	1.062623E-15	1.159419E-16
3.160000E+03	1.072806E-15	1.152024E-16
3.170000E+03	1.083146E-15	1.143215E-16
3.180000E+03	1.093877E-15	1.133230E-16
3.190000E+03	1.105011E-15	1.122060E-16
3.200000E+03	1.116444E-15	1.109586E-16
3.210000E+03	1.128299E-15	1.095918E-16
3.220000E+03	1.140583E-15	1.081053E-16
3.230000E+03	1.153304E-15	1.064985E-16
3.240000E+03	1.166467E-15	1.047716E-16
3.250000E+03	1.180192E-15	1.029346E-16
3.260000E+03	1.194251E-15	1.009677E-16
3.270000E+03	1.208876E-15	9.889191E-17
3.280000E+03	1.224064E-15	9.670793E-17
3.290000E+03	1.239812E-15	9.441736E-17
3.300000E+03	1.256113E-15	9.202277E-17
3.310000E+03	1.272838E-15	8.951965E-17
3.320000E+03	1.290208E-15	8.693023E-17
3.330000E+03	1.308205E-15	8.426088E-17
3.340000E+03	1.326687E-15	8.151300E-17
3.350000E+03	1.345745E-15	7.870628E-17
3.360000E+03	1.365466E-15	7.586278E-17
3.370000E+03	1.385570E-15	7.298858E-17
3.380000E+03	1.406255E-15	7.012185E-17
3.390000E+03	1.427470E-15	6.729306E-17
3.400000E+03	1.449160E-15	6.453991E-17
3.410000E+03	1.471261E-15	6.190822E-17
3.420000E+03	1.493829E-15	5.945705E-17
3.430000E+03	1.516670E-15	5.724307E-17
3.440000E+03	1.539952E-15	5.534307E-17
3.450000E+03	1.563475E-15	5.382130E-17
3.460000E+03	1.587158E-15	5.274204E-17
3.470000E+03	1.611049E-15	5.215942E-17
3.480000E+03	1.635081E-15	5.209631E-17
3.490000E+03	1.659335E-15	5.253827E-17
3.500000E+03	1.683657E-15	5.343097E-17
3.510000E+03	1.708149E-15	5.470849E-17
3.520000E+03	1.732792E-15	5.629151E-17
3.530000E+03	1.757691E-15	5.810354E-17
3.540000E+03	1.782702E-15	6.006456E-17
3.550000E+03	1.807931E-15	6.211050E-17
3.560000E+03	1.833234E-15	6.417815E-17
3.570000E+03	1.858835E-15	6.622651E-17
3.580000E+03	1.884591E-15	6.821053E-17
3.590000E+03	1.910602E-15	7.010175E-17
3.600000E+03	1.936729E-15	7.186973E-17
3.610000E+03	1.962959E-15	7.349440E-17
3.620000E+03	1.989526E-15	7.496984E-17
3.630000E+03	2.016192E-15	7.627651E-17
3.640000E+03	2.043093E-15	7.741230E-17
3.650000E+03	2.070146E-15	7.836955E-17
3.660000E+03	2.097647E-15	7.915723E-17
3.670000E+03	2.125566E-15	7.977384E-17
3.680000E+03	2.154031E-15	8.022530E-17
3.690000E+03	2.183099E-15	8.051617E-17
3.700000E+03	2.213228E-15	8.066668E-17
3.710000E+03	2.244472E-15	8.068309E-17
3.720000E+03	2.277410E-15	8.059130E-17
3.730000E+03	2.312233E-15	8.040399E-17
3.740000E+03	2.349543E-15	8.014925E-17
3.750000E+03	2.389899E-15	7.985445E-17
3.760000E+03	2.433815E-15	7.954689E-17
3.770000E+03	2.482094E-15	7.926515E-17
3.780000E+03	2.535367E-15	7.904429E-17
3.790000E+03	2.594463E-15	7.892466E-17
3.800000E+03	2.659815E-15	7.892693E-17
3.810000E+03	2.731881E-15	7.907309E-17
3.820000E+03	2.811110E-15	7.938592E-17
3.830000E+03	2.897282E-15	7.986382E-17
3.840000E+03	2.990182E-15	8.050922E-17
3.850000E+03	3.089465E-15	8.132369E-17
3.860000E+03	3.194123E-15	8.228186E-17
3.870000E+03	3.303038E-15	8.335917E-17
3.880000E+03	3.414441E-15	8.451933E-17
3.890000E+03	3.526632E-15	8.571981E-17
3.900000E+03	3.637504E-15	8.691350E-17
3.910000E+03	3.744493E-15	8.804999E-17
3.920000E+03	3.845477E-15	8.908468E-17
3.930000E+03	3.937898E-15	8.997055E-17
3.940000E+03	4.019293E-15	9.066858E-17
3.950000E+03	4.087768E-15	9.113838E-17
3.960000E+03	4.141765E-15	9.135086E-17
3.970000E+03	4.180158E-15	9.129120E-17
3.980000E+03	4.202466E-15	9.094425E-17
3.990000E+03	4.209010E-15	9.031691E-17
4.000000E+03	4.200257E-15	8.942421E-17
4.010000E+03	4.177722E-15	8.828927E-17
4.020000E+03	4.143099E-15	8.694456E-17
4.030000E+03	4.098472E-15	8.543477E-17
4.040000E+03	4.046146E-15	8.379168E-17
4.050000E+03	3.988408E-15	8.205274E-17
4.060000E+03	3.927610E-15	8.026491E-17
4.070000E+03	3.865911E-15	7.846168E-17
4.080000E+03	3.805226E-15	7.668082E-17
4.090000E+03	3.747465E-15	7.496800E-17
4.100000E+03	3.694041E-15	7.334766E-17
4.110000E+03	3.646165E-15	7.184781E-17
4.120000E+03	3.604991E-15	7.049956E-17
4.130000E+03	3.571110E-15	6.930493E-17
4.140000E+03	3.544992E-15	6.826856E-17
4.150000E+03	3.526836E-15	6.739620E-17
4.160000E+03	3.516669E-15	6.667762E-17
4.170000E+03	3.514180E-15	6.610323E-17
4.180000E+03	3.518990E-15	6.566849E-17
4.190000E+03	3.530473E-15	6.535001E-17
4.200000E+03	3.547849E-15	6.512753E-17
4.210000E+03	3.570138E-15	6.498085E-17
4.220000E+03	3.596356E-15	6.486853E-17
4.230000E+03	3.625245E-15	6.474767E-17
4.240000E+03	3.655508E-15	6.457826E-17
4.250000E+03	3.685712E-15	6.429651E-17
4.260000E+03	3.714417E-15	6.384566E-17
4.270000E+03	3.739919E-15	6.317850E-17
4.280000E+03	3.760712E-15	6.224799E-17
4.290000E+03	3.775268E-15	6.102964E-17
4.300000E+03	3.782234E-15	5.953055E-17
4.310000E+03	3.780510E-15	5.777458E-17
4.320000E+03	3.769527E-15	5.582928E-17
4.330000E+03	3.748881E-15	5.379728E-17
4.340000E+03	3.719023E-15	5.179634E-17
4.350000E+03	3.680913E-15	4.996577E-17
4.360000E+03	3.636011E-15	4.844421E-17
4.370000E+03	3.586639E-15	4.731143E-17
4.380000E+03	3.536066E-15	4.657541E-17
4.390000E+03	3.487803E-15	4.621281E-17
4.400000E+03	3.445067E-15	4.617618E-17
4.410000E+03	3.411029E-15	4.643530E-17
4.420000E+03	3.388665E-15	4.697837E-17
4.430000E+03	3.380452E-15	4.778153E-17
4.440000E+03	3.388654E-15	4.883755E-17
4.450000E+03	3.415407E-15	5.015730E-17
4.460000E+03	3.461953E-15	5.173409E-17
4.470000E+03	3.529396E-15	5.357685E-17
4.480000E+03	3.618488E-15	5.570425E-17
4.490000E+03	3.729138E-15	5.810692E-17
4.500000E+03	3.860855E-15	6.078142E-17
4.510000E+03	4.012346E-15	6.372438E-17
4.520000E+03	4.181256E-15	6.689532E-17
4.530000E+03	4.364259E-15	7.024958E-17
4.540000E+03	4.556922E-15	7.373710E-17
4.550000E+03	4.753788E-15	7.726467E-17
4.560000E+03	4.948304E-15	8.073199E-17
4.570000E+03	5.133164E-15	8.404158E-17
4.580000E+03	5.301016E-15	8.706945E-17
4.590000E+03	5.444550E-15	8.970645E-17
4.600000E+03	5.557030E-15	9.186953E-17
4.610000E+03	5.633597E-15	9.347892E-17
4.620000E+03	5.670812E-15	9.449152E-17
4.630000E+03	5.667453E-15	9.491104E-17
4.640000E+03	5.624967E-15	9.474586E-17
4.650000E+03	5.546780E-15	9.404429E-17
4.660000E+03	5.437984E-15	9.288845E-17
4.670000E+03	5.305047E-15	9.134331E-17
4.680000E+03	5.155394E-15	8.950058E-17
4.690000E+03	4.996113E-15	8.746005E-17
4.700000E+03	4.833894E-15	8.529098E-17
4.710000E+03	4.674887E-15	8.307151E-17
4.720000E+03	4.524211E-15	8.088362E-17
4.730000E+03	4.385685E-15	7.878076E-17
4.740000E+03	4.262155E-15	7.681706E-17
4.750000E+03	4.155926E-15	7.505215E-17
4.760000E+03	4.068013E-15	7.351352E-17
4.770000E+03	3.998883E-15	7.222938E-17
4.780000E+03	3.948734E-15	7.122468E-17
4.790000E+03	3.916799E-15	7.047548E-17
4.800000E+03	3.902009E-15	6.995670E-17
4.810000E+03	3.903344E-15	6.965707E-17
4.820000E+03	3.919370E-15	6.955301E-17
4.830000E+03	3.948751E-15	6.963963E-17
4.840000E+03	3.989846E-15	6.992401E-17
4.850000E+03	4.040795E-15	7.040494E-17
4.860000E+03	4.099448E-15	7.109263E-17
4.870000E+03	4.163395E-15	7.199561E-17
4.880000E+03	4.229290E-15	7.306043E-17
4.890000E+03	4.293490E-15	7.422296E-17
4.900000E+03	4.352216E-15	7.541172E-17
4.910000E+03	4.401736E-15	7.650713E-17
4.920000E+03	4.438534E-15	7.738956E-17
4.930000E+03	4.459442E-15	7.795734E-17
4.940000E+03	4.462483E-15	7.812223E-17
4.950000E+03	4.446463E-15	7.782972E-17
4.960000E+03	4.411028E-15	7.706036E-17
4.970000E+03	4.357418E-15	7.581646E-17
4.980000E+03	4.287833E-15	7.413876E-17
4.990000E+03	4.205097E-15	7.210000E-17
5.000000E+03	4.112602E-15	6.977724E-17
5.010000E+03	4.014182E-15	6.727310E-17
5.020000E+03	3.913659E-15	6.470389E-17
5.030000E+03	3.814316E-15	6.216381E-17
5.040000E+03	3.719462E-15	5.975617E-17
5.050000E+03	3.631838E-15	5.756775E-17
5.060000E+03	3.553466E-15	5.562290E-17
5.070000E+03	3.486032E-15	5.393952E-17
5.080000E+03	3.431038E-15	5.253735E-17
5.090000E+03	3.389533E-15	5.140078E-17
5.100000E+03	3.362501E-15	5.052377E-17
5.110000E+03	3.350780E-15	4.990955E-17
5.120000E+03	3.354921E-15	4.953454E-17
5.130000E+03	3.375408E-15	4.938796E-17
5.140000E+03	3.412669E-15	4.947359E-17
5.150000E+03	3.466704E-15	4.977097E-17
5.160000E+03	3.537394E-15	5.027473E-17
5.170000E+03	3.624452E-15	5.099207E-17
5.180000E+03	3.726977E-15	5.189479E-17
5.190000E+03	3.843756E-15	5.296575E-17
5.200000E+03	3.973151E-15	5.419742E-17
5.210000E+03	4.112950E-15	5.553871E-17
5.220000E+03	4.260527E-15	5.694863E-17
5.230000E+03	4.412655E-15	5.839852E-17
5.240000E+03	4.566133E-15	5.982513E-17
5.250000E+03	4.717259E-15	6.118054E-17
5.260000E+03	4.862385E-15	6.244158E-17
5.270000E+03	4.998477E-15	6.354988E-17
5.280000E+03	5.122660E-15	6.447096E-17
5.290000E+03	5.232907E-15	6.519981E-17
5.300000E+03	5.328715E-15	6.568499E-17
5.310000E+03	5.410641E-15	6.590426E-17
5.320000E+03	5.480259E-15	6.586951E-17
5.330000E+03	5.540996E-15	6.555460E-17
5.340000E+03	5.597100E-15	6.496880E-17
5.350000E+03	5.653653E-15	6.416139E-17
5.360000E+03	5.716316E-15	6.313424E-17
5.370000E+03	5.791271E-15	6.193368E-17
5.380000E+03	5.884446E-15	6.064640E-17
5.390000E+03	6.001321E-15	5.930971E-17
5.400000E+03	6.146947E-15	5.803596E-17
5.410000E+03	6.325915E-15	5.704973E-17
5.420000E+03	6.542222E-15	5.660951E-17
5.430000E+03	6.798552E-15	5.709743E-17
5.440000E+03	7.095838E-15	5.892468E-17
5.450000E+03	7.432937E-15	6.220461E-17
5.460000E+03	7.803318E-15	6.678851E-17
5.470000E+03	8.195923E-15	7.236642E-17
5.480000E+03	8.598538E-15	7.849415E-17
5.490000E+03	8.996043E-15	8.479805E-17
5.500000E+03	9.371124E-15	9.100841E-17
5.510000E+03	9.708423E-15	9.680347E-17
5.520000E+03	9.992923E-15	1.019816E-16
5.530000E+03	1.021119E-14	1.064679E-16
5.540000E+03	1.035404E-14	1.101008E-16
5.550000E+03	1.041586E-14	1.128302E-16
5.560000E+03	1.039503E-14	1.147208E-16
5.570000E+03	1.029466E-14	1.157335E-16
5.580000E+03	1.012172E-14	1.159230E-16
5.590000E+03	9.886143E-15	1.154349E-16
5.600000E+03	9.600825E-15	1.143186E-16
5.610000E+03	9.279822E-15	1.126835E-16
5.620000E+03	8.937469E-15	1.106731E-16
5.630000E+03	8.587049E-15	1.082827E-16
5.640000E+03	8.240989E-15	1.055459E-16
5.650000E+03	7.909883E-15	1.025562E-16
5.660000E+03	7.601926E-15	9.936592E-17
5.670000E+03	7.323630E-15	9.607514E-17
5.680000E+03	7.080221E-15	9.283378E-17
5.690000E+03	6.874694E-15	8.976229E-17
5.700000E+03	6.709281E-15	8.701658E-17
5.710000E+03	6.585013E-15	8.474416E-17
5.720000E+03	6.500693E-15	8.297025E-17
5.730000E+03	6.454339E-15	8.172695E-17
5.740000E+03	6.443406E-15	8.105595E-17
5.750000E+03	6.463832E-15	8.089483E-17
5.760000E+03	6.510860E-15	8.119783E-17
5.770000E+03	6.579095E-15	8.193559E-17
5.780000E+03	6.662456E-15	8.298093E-17
5.790000E+03	6.753938E-15	8.422106E-17
5.800000E+03	6.846339E-15	8.557696E-17
5.810000E+03	6.932881E-15	8.690608E-17
5.820000E+03	7.006800E-15	8.810390E-17
5.830000E+03	7.061700E-15	8.911252E-17
5.840000E+03	7.093026E-15	8.983137E-17
5.850000E+03	7.097256E-15	9.021163E-17
5.860000E+03	7.071744E-15	9.024920E-17
5.870000E+03	7.016284E-15	8.988867E-17
5.880000E+03	6.931974E-15	8.912401E-17
5.890000E+03	6.820679E-15	8.799807E-17
5.900000E+03	6.685641E-15	8.651141E-17
5.910000E+03	6.530949E-15	8.471569E-17
5.920000E+03	6.360736E-15	8.269905E-17
5.930000E+03	6.179640E-15	8.049728E-17
5.940000E+03	5.992203E-15	7.817857E-17
5.950000E+03	5.802602E-15	7.583160E-17
5.960000E+03	5.614576E-15	7.347503E-17
5.970000E+03	5.431430E-15	7.114914E-17
5.980000E+03	5.255894E-15	6.891311E-17
5.990000E+03	5.089829E-15	6.676558E-17
6.000000E+03	4.934557E-15	6.472581E-17
6.010000E+03	4.791007E-15	6.282982E-17
6.020000E+03	4.659202E-15	6.105275E-17
6.030000E+03	4.538817E-15	5.938972E-17
6.040000E+03	4.429448E-15	5.785872E-17
6.050000E+03	4.330136E-15	5.643231E-17
6.060000E+03	4.239913E-15	5.510944E-17
6.070000E+03	4.157902E-15	5.391537E-17
6.080000E+03	4.083181E-15	5.284108E-17
6.090000E+03	4.014973E-15	5.190372E-17
6.100000E+03	3.952672E-15	5.113676E-17
6.110000E+03	3.896216E-15	5.052686E-17
6.120000E+03	3.845576E-15	5.007463E-17
6.130000E+03	3.801022E-15	4.979706E-17
6.140000E+03	3.763174E-15	4.966514E-17
6.150000E+03	3.732885E-15	4.966654E-17
6.160000E+03	3.710836E-15	4.980539E-17
6.170000E+03	3.697589E-15	5.005090E-17
6.180000E+03	3.693533E-15	5.038522E-17
6.190000E+03	3.699023E-15	5.079972E-17
6.200000E+03	3.713871E-15	5.123153E-17
6.210000E+03	3.737794E-15	5.162685E-17
6.220000E+03	3.770402E-15	5.196269E-17
6.230000E+03	3.811347E-15	5.222919E-17
6.240000E+03	3.860114E-15	5.244923E-17
6.250000E+03	3.916384E-15	5.266566E-17
6.260000E+03	3.980054E-15	5.288529E-17
6.270000E+03	4.051239E-15	5.313135E-17
6.280000E+03	4.130000E-15	5.343845E-17
6.290000E+03	4.216617E-15	5.379501E-17
6.300000E+03	4.311315E-15	5.420293E-17
6.310000E+03	4.414180E-15	5.468235E-17
6.320000E+03	4.524965E-15	5.520716E-17
6.330000E+03	4.643347E-15	5.577377E-17
6.340000E+03	4.768540E-15	5.638987E-17
6.350000E+03	4.899751E-15	5.699120E-17
6.360000E+03	5.035781E-15	5.752652E-17
6.370000E+03	5.175308E-15	5.797121E-17
6.380000E+03	5.317472E-15	5.824640E-17
6.390000E+03	5.461194E-15	5.831252E-17
6.400000E+03	5.605789E-15	5.818687E-17
6.410000E+03	5.751942E-15	5.785593E-17
6.420000E+03	5.900750E-15	5.739594E-17
6.430000E+03	6.053457E-15	5.701031E-17
6.440000E+03	6.213500E-15	5.696062E-17
6.450000E+03	6.383771E-15	5.761917E-17
6.460000E+03	6.566043E-15	5.939312E-17
6.470000E+03	6.760574E-15	6.241587E-17
6.480000E+03	6.961977E-15	6.650448E-17
6.490000E+03	7.161883E-15	7.135620E-17
6.500000E+03	7.352615E-15	7.656926E-17
6.510000E+03	7.525708E-15	8.180041E-17
6.520000E+03	7.672660E-15	8.679711E-17
6.530000E+03	7.786984E-15	9.129716E-17
6.540000E+03	7.863258E-15	9.513560E-17
6.550000E+03	7.897338E-15	9.824277E-17
6.560000E+03	7.887404E-15	1.005234E-16
6.570000E+03	7.833375E-15	1.019647E-16
6.580000E+03	7.736706E-15	1.026305E-16
6.590000E+03	7.600606E-15	1.025450E-16
6.600000E+03	7.429666E-15	1.017930E-16
6.610000E+03	7.229238E-15	1.005039E-16
6.620000E+03	7.005500E-15	9.874411E-17
6.630000E+03	6.764914E-15	9.661279E-17
6.640000E+03	6.513827E-15	9.423325E-17
6.650000E+03	6.258365E-15	9.166281E-17
6.660000E+03	6.003900E-15	8.897611E-17
6.670000E+03	5.755310E-15	8.627048E-17
6.680000E+03	5.516440E-15	8.358955E-17
6.690000E+03	5.290343E-15	8.099238E-17
6.700000E+03	5.079386E-15	7.854801E-17
6.710000E+03	4.884823E-15	7.626813E-17
6.720000E+03	4.707359E-15	7.417489E-17
6.730000E+03	4.547329E-15	7.230154E-17
6.740000E+03	4.404064E-15	7.063274E-17
6.750000E+03	4.276889E-15	6.916896E-17
6.760000E+03	4.164867E-15	6.791990E-17
6.770000E+03	4.066764E-15	6.686039E-17
6.780000E+03	3.981255E-15	6.597660E-17
6.790000E+03	3.907076E-15	6.526718E-17
6.800000E+03	3.842901E-15	6.470204E-17
6.810000E+03	3.787451E-15	6.426300E-17
6.820000E+03	3.739546E-15	6.394417E-17
6.830000E+03	3.698148E-15	6.371701E-17
6.840000E+03	3.662159E-15	6.356249E-17
6.850000E+03	3.630789E-15	6.347817E-17
6.860000E+03	3.603153E-15	6.343928E-17
6.870000E+03	3.578570E-15	6.343559E-17
6.880000E+03	3.556337E-15	6.346733E-17
6.890000E+03	3.535939E-15	6.351846E-17
6.900000E+03	3.516880E-15	6.358336E-17
6.910000E+03	3.498718E-15	6.366675E-17
6.920000E+03	3.481090E-15	6.375418E-17
6.930000E+03	3.463648E-15	6.384010E-17
6.940000E+03	3.446231E-15	6.393120E-17
6.950000E+03	3.428594E-15	6.401330E-17
6.960000E+03	3.410681E-15	6.408407E-17
6.970000E+03	3.392515E-15	6.415101E-17
6.980000E+03	3.374116E-15	6.420355E-17
6.990000E+03	3.355667E-15	6.424202E-17
7.000000E+03	3.337495E-15	6.427707E-17
7.010000E+03	3.319857E-15	6.429989E-17
7.020000E+03	3.303191E-15	6.431257E-17
7.030000E+03	3.287917E-15	6.432504E-17
7.040000E+03	3.274415E-15	6.433129E-17
7.050000E+03	3.263167E-15	6.433600E-17
7.060000E+03	3.254563E-15	6.435338E-17
7.070000E+03	3.249006E-15	6.439032E-17
7.080000E+03	3.246764E-15	6.446171E-17
7.090000E+03	3.248225E-15	6.459208E-17
7.100000E+03	3.253488E-15	6.478327E-17
7.110000E+03	3.262603E-15	6.504245E-17
7.120000E+03	3.275654E-15	6.538389E-17
7.130000E+03	3.292499E-15	6.580064E-17
7.140000E+03	3.312896E-15	6.629009E-17
7.150000E+03	3.336563E-15	6.685545E-17
7.160000E+03	3.363232E-15	6.748326E-17
7.170000E+03	3.392417E-15	6.816231E-17
7.180000E+03	3.423757E-15	6.889098E-17
7.190000E+03	3.456797E-15	6.964939E-17
7.200000E+03	3.491077E-15	7.042468E-17
7.210000E+03	3.526248E-15	7.121392E-17
7.220000E+03	3.561991E-15	7.199843E-17
7.230000E+03	3.597929E-15	7.276628E-17
7.240000E+03	3.633860E-15	7.351839E-17
7.250000E+03	3.669514E-15	7.424075E-17
7.260000E+03	3.704859E-15	7.493364E-17
7.270000E+03	3.739704E-15	7.560378E-17
7.280000E+03	3.773975E-15	7.624493E-17
7.290000E+03	3.807586E-15	7.685972E-17
7.300000E+03	3.840496E-15	7.745990E-17
7.310000E+03	3.872542E-15	7.803527E-17
7.320000E+03	3.903656E-15	7.858546E-17
7.330000E+03	3.933552E-15	7.911463E-17
7.340000E+03	3.962059E-15	7.961127E-17
7.350000E+03	3.988735E-15	8.006770E-17
7.360000E+03	4.013330E-15	8.049002E-17
7.370000E+03	4.035352E-15	8.086165E-17
7.380000E+03	4.054463E-15	8.117916E-17
7.390000E+03	4.070214E-15	8.144668E-17
7.400000E+03	4.082366E-15	8.165279E-17
7.410000E+03	4.090527E-15	8.179291E-17
7.420000E+03	4.094640E-15	8.187879E-17
7.430000E+03	4.094776E-15	8.190416E-17
7.440000E+03	4.091239E-15	8.187732E-17
7.450000E+03	4.084328E-15	8.181609E-17
7.460000E+03	4.074879E-15	8.172710E-17
7.470000E+03	4.063810E-15	8.162818E-17
7.480000E+03	4.052029E-15	8.154520E-17
7.490000E+03	4.040754E-15	8.148552E-17
7.500000E+03	4.031329E-15	8.146680E-17
7.510000E+03	4.024867E-15	8.150841E-17
7.520000E+03	4.022679E-15	8.160560E-17
7.530000E+03	4.025898E-15	8.175644E-17
7.540000E+03	4.035526E-15	8.196497E-17
7.550000E+03	4.052227E-15	8.220677E-17
7.560000E+03	4.076491E-15	8.246323E-17
7.570000E+03	4.108657E-15	8.272627E-17
7.580000E+03	4.148699E-15	8.297017E-17
7.590000E+03	4.196258E-15	8.317801E-17
7.600000E+03	4.250876E-15	8.334899E-17
7.610000E+03	4.311788E-15	8.347150E-17
7.620000E+03	4.377856E-15	8.354712E-17
7.630000E+03	4.447891E-15	8.359124E-17
7.640000E+03	4.520301E-15	8.358817E-17
7.650000E+03	4.593283E-15	8.353320E-17
7.660000E+03	4.664931E-15	8.343191E-17
7.670000E+03	4.733279E-15	8.325347E-17
7.680000E+03	4.796417E-15	8.298029E-17
7.690000E+03	4.852111E-15	8.260245E-17
7.700000E+03	4.898709E-15	8.208232E-17
7.710000E+03	4.934312E-15	8.139345E-17
7.720000E+03	4.957406E-15	8.053138E-17
7.730000E+03	4.966898E-15	7.945813E-17
7.740000E+03	4.961893E-15	7.815825E-17
7.750000E+03	4.942012E-15	7.664622E-17
7.760000E+03	4.907226E-15	7.490724E-17
