#wls	flux	fluxerr
1.600000E+03	1.273906E-15	3.634627E-16
1.640000E+03	1.148691E-15	3.001242E-16
1.680000E+03	1.034023E-15	2.455292E-16
1.720000E+03	9.303079E-16	1.990064E-16
1.760000E+03	8.372168E-16	1.597046E-16
1.800000E+03	7.547520E-16	1.268629E-16
1.840000E+03	6.822374E-16	9.963634E-17
1.880000E+03	6.195599E-16	7.733715E-17
1.920000E+03	5.661457E-16	5.928905E-17
1.960000E+03	5.214085E-16	4.494809E-17
2.000000E+03	4.849118E-16	3.397425E-17
2.040000E+03	4.559869E-16	2.627303E-17
2.080000E+03	4.340489E-16	2.196172E-17
2.120000E+03	4.184531E-16	2.077476E-17
2.160000E+03	4.091710E-16	2.160764E-17
2.200000E+03	4.061894E-16	2.335102E-17
2.240000E+03	4.091485E-16	2.541406E-17
2.280000E+03	4.179594E-16	2.757660E-17
2.320000E+03	4.324574E-16	2.965964E-17
2.360000E+03	4.528051E-16	3.144917E-17
2.400000E+03	4.789323E-16	3.269144E-17
2.440000E+03	5.107848E-16	3.313617E-17
2.480000E+03	5.481444E-16	3.258994E-17
2.520000E+03	5.905917E-16	3.107978E-17
2.560000E+03	6.375006E-16	2.922350E-17
2.600000E+03	6.879970E-16	2.880767E-17
2.640000E+03	7.411632E-16	3.248697E-17
2.680000E+03	7.957532E-16	4.108331E-17
2.720000E+03	8.505034E-16	5.317402E-17
2.760000E+03	9.039826E-16	6.711310E-17
2.800000E+03	9.552968E-16	8.166557E-17
2.840000E+03	1.003543E-15	9.586242E-17
2.880000E+03	1.048143E-15	1.089165E-16
2.920000E+03	1.088754E-15	1.201778E-16
2.960000E+03	1.125477E-15	1.291532E-16
3.000000E+03	1.158835E-15	1.355096E-16
3.010000E+03	1.166809E-15	1.366727E-16
3.020000E+03	1.174586E-15	1.376520E-16
3.030000E+03	1.182294E-15	1.384595E-16
3.040000E+03	1.189837E-15	1.390811E-16
3.050000E+03	1.197342E-15	1.395295E-16
3.060000E+03	1.204828E-15	1.398047E-16
3.070000E+03	1.212199E-15	1.398939E-16
3.080000E+03	1.219586E-15	1.398108E-16
3.090000E+03	1.227008E-15	1.395562E-16
3.100000E+03	1.234372E-15	1.391188E-16
3.110000E+03	1.241920E-15	1.385250E-16
3.120000E+03	1.249449E-15	1.377515E-16
3.130000E+03	1.257203E-15	1.368249E-16
3.140000E+03	1.264979E-15	1.357228E-16
3.150000E+03	1.273019E-15	1.344714E-16
3.160000E+03	1.281236E-15	1.330610E-16
3.170000E+03	1.289649E-15	1.314941E-16
3.180000E+03	1.298390E-15	1.297846E-16
3.190000E+03	1.307372E-15	1.279239E-16
3.200000E+03	1.316727E-15	1.259256E-16
3.210000E+03	1.326367E-15	1.237819E-16
3.220000E+03	1.336534E-15	1.215161E-16
3.230000E+03	1.347032E-15	1.191111E-16
3.240000E+03	1.357993E-15	1.165801E-16
3.250000E+03	1.369549E-15	1.139356E-16
3.260000E+03	1.381613E-15	1.111714E-16
3.270000E+03	1.394206E-15	1.082917E-16
3.280000E+03	1.407568E-15	1.053172E-16
3.290000E+03	1.421500E-15	1.022352E-16
3.300000E+03	1.436128E-15	9.905893E-17
3.310000E+03	1.451467E-15	9.579390E-17
3.320000E+03	1.467640E-15	9.245358E-17
3.330000E+03	1.484652E-15	8.904487E-17
3.340000E+03	1.502397E-15	8.557010E-17
3.350000E+03	1.521091E-15	8.205314E-17
3.360000E+03	1.540724E-15	7.850688E-17
3.370000E+03	1.561164E-15	7.494266E-17
3.380000E+03	1.582492E-15	7.138807E-17
3.390000E+03	1.604779E-15	6.787565E-17
3.400000E+03	1.627973E-15	6.444000E-17
3.410000E+03	1.651893E-15	6.112080E-17
3.420000E+03	1.676796E-15	5.798517E-17
3.430000E+03	1.702361E-15	5.509011E-17
3.440000E+03	1.728706E-15	5.251877E-17
3.450000E+03	1.755713E-15	5.035257E-17
3.460000E+03	1.783376E-15	4.867457E-17
3.470000E+03	1.811469E-15	4.754694E-17
3.480000E+03	1.840142E-15	4.700863E-17
3.490000E+03	1.869386E-15	4.703849E-17
3.500000E+03	1.899233E-15	4.757366E-17
3.510000E+03	1.929847E-15	4.852922E-17
3.520000E+03	1.961395E-15	4.981032E-17
3.530000E+03	1.993914E-15	5.132129E-17
3.540000E+03	2.027426E-15	5.297619E-17
3.550000E+03	2.062048E-15	5.470544E-17
3.560000E+03	2.097640E-15	5.644724E-17
3.570000E+03	2.134387E-15	5.816206E-17
3.580000E+03	2.171989E-15	5.980919E-17
3.590000E+03	2.210355E-15	6.136352E-17
3.600000E+03	2.249488E-15	6.281081E-17
3.610000E+03	2.289252E-15	6.413968E-17
3.620000E+03	2.329258E-15	6.533697E-17
3.630000E+03	2.369558E-15	6.640627E-17
3.640000E+03	2.409724E-15	6.734158E-17
3.650000E+03	2.449662E-15	6.814937E-17
3.660000E+03	2.489054E-15	6.883241E-17
3.670000E+03	2.527835E-15	6.940237E-17
3.680000E+03	2.565651E-15	6.986409E-17
3.690000E+03	2.602565E-15	7.023429E-17
3.700000E+03	2.638647E-15	7.052910E-17
3.710000E+03	2.674113E-15	7.076709E-17
3.720000E+03	2.709133E-15	7.096350E-17
3.730000E+03	2.744503E-15	7.114736E-17
3.740000E+03	2.780778E-15	7.133807E-17
3.750000E+03	2.818907E-15	7.156213E-17
3.760000E+03	2.860095E-15	7.184928E-17
3.770000E+03	2.905338E-15	7.222084E-17
3.780000E+03	2.956014E-15	7.270470E-17
3.790000E+03	3.013293E-15	7.332063E-17
3.800000E+03	3.078392E-15	7.408704E-17
3.810000E+03	3.152303E-15	7.501518E-17
3.820000E+03	3.236038E-15	7.611640E-17
3.830000E+03	3.330031E-15	7.738913E-17
3.840000E+03	3.434702E-15	7.883373E-17
3.850000E+03	3.549973E-15	8.044213E-17
3.860000E+03	3.675079E-15	8.219463E-17
3.870000E+03	3.809070E-15	8.407208E-17
3.880000E+03	3.950229E-15	8.604276E-17
3.890000E+03	4.096278E-15	8.806679E-17
3.900000E+03	4.244644E-15	9.010153E-17
3.910000E+03	4.392061E-15	9.209226E-17
3.920000E+03	4.535033E-15	9.398123E-17
3.930000E+03	4.669743E-15	9.570521E-17
3.940000E+03	4.792490E-15	9.720404E-17
3.950000E+03	4.899657E-15	9.841908E-17
3.960000E+03	4.988322E-15	9.930484E-17
3.970000E+03	5.055834E-15	9.981947E-17
3.980000E+03	5.100648E-15	9.993999E-17
3.990000E+03	5.122306E-15	9.966118E-17
4.000000E+03	5.120866E-15	9.898394E-17
4.010000E+03	5.097994E-15	9.793642E-17
4.020000E+03	5.055840E-15	9.655348E-17
4.030000E+03	4.997233E-15	9.488181E-17
4.040000E+03	4.925466E-15	9.297666E-17
4.050000E+03	4.844396E-15	9.090426E-17
4.060000E+03	4.757347E-15	8.872133E-17
4.070000E+03	4.667933E-15	8.649037E-17
4.080000E+03	4.579368E-15	8.426740E-17
4.090000E+03	4.494311E-15	8.209955E-17
4.100000E+03	4.415395E-15	8.003482E-17
4.110000E+03	4.344362E-15	7.810637E-17
4.120000E+03	4.283003E-15	7.634909E-17
4.130000E+03	4.232440E-15	7.478587E-17
4.140000E+03	4.193436E-15	7.343272E-17
4.150000E+03	4.166569E-15	7.230119E-17
4.160000E+03	4.151923E-15	7.139221E-17
4.170000E+03	4.149274E-15	7.069986E-17
4.180000E+03	4.158342E-15	7.021559E-17
4.190000E+03	4.178246E-15	6.991847E-17
4.200000E+03	4.207993E-15	6.978308E-17
4.210000E+03	4.246401E-15	6.977719E-17
4.220000E+03	4.291950E-15	6.985784E-17
4.230000E+03	4.342793E-15	6.997123E-17
4.240000E+03	4.396999E-15	7.005659E-17
4.250000E+03	4.452256E-15	7.004232E-17
4.260000E+03	4.506208E-15	6.985461E-17
4.270000E+03	4.556330E-15	6.942031E-17
4.280000E+03	4.599754E-15	6.867076E-17
4.290000E+03	4.633981E-15	6.756176E-17
4.300000E+03	4.656215E-15	6.607389E-17
4.310000E+03	4.664218E-15	6.423521E-17
4.320000E+03	4.655929E-15	6.212499E-17
4.330000E+03	4.630124E-15	5.988623E-17
4.340000E+03	4.586139E-15	5.771354E-17
4.350000E+03	4.524510E-15	5.583453E-17
4.360000E+03	4.446792E-15	5.445530E-17
4.370000E+03	4.356217E-15	5.367486E-17
4.380000E+03	4.258371E-15	5.341580E-17
4.390000E+03	4.159333E-15	5.353524E-17
4.400000E+03	4.065197E-15	5.390439E-17
4.410000E+03	3.981542E-15	5.443776E-17
4.420000E+03	3.913188E-15	5.509520E-17
4.430000E+03	3.864259E-15	5.587145E-17
4.440000E+03	3.838245E-15	5.678651E-17
4.450000E+03	3.837901E-15	5.787353E-17
4.460000E+03	3.865559E-15	5.917400E-17
4.470000E+03	3.922995E-15	6.072943E-17
4.480000E+03	4.011635E-15	6.258015E-17
4.490000E+03	4.132471E-15	6.476086E-17
4.500000E+03	4.285836E-15	6.729578E-17
4.510000E+03	4.471523E-15	7.019940E-17
4.520000E+03	4.688228E-15	7.346742E-17
4.530000E+03	4.933373E-15	7.707533E-17
4.540000E+03	5.202873E-15	8.097670E-17
4.550000E+03	5.490739E-15	8.509866E-17
4.560000E+03	5.789013E-15	8.934337E-17
4.570000E+03	6.088003E-15	9.359255E-17
4.580000E+03	6.376230E-15	9.770559E-17
4.590000E+03	6.641436E-15	1.015336E-16
4.600000E+03	6.871362E-15	1.049276E-16
4.610000E+03	7.054652E-15	1.077463E-16
4.620000E+03	7.182512E-15	1.098780E-16
4.630000E+03	7.248956E-15	1.112401E-16
4.640000E+03	7.252013E-15	1.117956E-16
4.650000E+03	7.193717E-15	1.115547E-16
4.660000E+03	7.079814E-15	1.105736E-16
4.670000E+03	6.918982E-15	1.089466E-16
4.680000E+03	6.722176E-15	1.068021E-16
4.690000E+03	6.500847E-15	1.042796E-16
4.700000E+03	6.266867E-15	1.015303E-16
4.710000E+03	6.030796E-15	9.869089E-17
4.720000E+03	5.801890E-15	9.588338E-17
4.730000E+03	5.587715E-15	9.320742E-17
4.740000E+03	5.393886E-15	9.073685E-17
4.750000E+03	5.224439E-15	8.852632E-17
4.760000E+03	5.081783E-15	8.661004E-17
4.770000E+03	4.967119E-15	8.500919E-17
4.780000E+03	4.880820E-15	8.373823E-17
4.790000E+03	4.822364E-15	8.280253E-17
4.800000E+03	4.790865E-15	8.220602E-17
4.810000E+03	4.784904E-15	8.194636E-17
4.820000E+03	4.802890E-15	8.201900E-17
4.830000E+03	4.842812E-15	8.241228E-17
4.840000E+03	4.902307E-15	8.310776E-17
4.850000E+03	4.978795E-15	8.408214E-17
4.860000E+03	5.069313E-15	8.530549E-17
4.870000E+03	5.170325E-15	8.673893E-17
4.880000E+03	5.277893E-15	8.833694E-17
4.890000E+03	5.387462E-15	9.004220E-17
4.900000E+03	5.493883E-15	9.178214E-17
4.910000E+03	5.591719E-15	9.346957E-17
4.920000E+03	5.675327E-15	9.500128E-17
4.930000E+03	5.739312E-15	9.626417E-17
4.940000E+03	5.778894E-15	9.714249E-17
4.950000E+03	5.790586E-15	9.753496E-17
4.960000E+03	5.772175E-15	9.736210E-17
4.970000E+03	5.723209E-15	9.658128E-17
4.980000E+03	5.644983E-15	9.519171E-17
4.990000E+03	5.540411E-15	9.323417E-17
5.000000E+03	5.413823E-15	9.078603E-17
5.010000E+03	5.270389E-15	8.794834E-17
5.020000E+03	5.115919E-15	8.483807E-17
5.030000E+03	4.956208E-15	8.157352E-17
5.040000E+03	4.796887E-15	7.827056E-17
5.050000E+03	4.642969E-15	7.503451E-17
5.060000E+03	4.498697E-15	7.195652E-17
5.070000E+03	4.367692E-15	6.911461E-17
5.080000E+03	4.252697E-15	6.656757E-17
5.090000E+03	4.155810E-15	6.435743E-17
5.100000E+03	4.078774E-15	6.251448E-17
5.110000E+03	4.022643E-15	6.105307E-17
5.120000E+03	3.988372E-15	5.998130E-17
5.130000E+03	3.976577E-15	5.929918E-17
5.140000E+03	3.987671E-15	5.900165E-17
5.150000E+03	4.021835E-15	5.907856E-17
5.160000E+03	4.079134E-15	5.951723E-17
5.170000E+03	4.159349E-15	6.030028E-17
5.180000E+03	4.261959E-15	6.140517E-17
5.190000E+03	4.386057E-15	6.280392E-17
5.200000E+03	4.530275E-15	6.446228E-17
5.210000E+03	4.692734E-15	6.633909E-17
5.220000E+03	4.870805E-15	6.838361E-17
5.230000E+03	5.061424E-15	7.054011E-17
5.240000E+03	5.260836E-15	7.274348E-17
5.250000E+03	5.464730E-15	7.492176E-17
5.260000E+03	5.668530E-15	7.700006E-17
5.270000E+03	5.867596E-15	7.890260E-17
5.280000E+03	6.057599E-15	8.055869E-17
5.290000E+03	6.234770E-15	8.190593E-17
5.300000E+03	6.396257E-15	8.289373E-17
5.310000E+03	6.540589E-15	8.348856E-17
5.320000E+03	6.667961E-15	8.367475E-17
5.330000E+03	6.780275E-15	8.345103E-17
5.340000E+03	6.881144E-15	8.282992E-17
5.350000E+03	6.975922E-15	8.183840E-17
5.360000E+03	7.071468E-15	8.051758E-17
5.370000E+03	7.175590E-15	7.892537E-17
5.380000E+03	7.296899E-15	7.714954E-17
5.390000E+03	7.444105E-15	7.532192E-17
5.400000E+03	7.625799E-15	7.365087E-17
5.410000E+03	7.849992E-15	7.245495E-17
5.420000E+03	8.123393E-15	7.217911E-17
5.430000E+03	8.451135E-15	7.335963E-17
5.440000E+03	8.836003E-15	7.642780E-17
5.450000E+03	9.276950E-15	8.135711E-17
5.460000E+03	9.768772E-15	8.780562E-17
5.470000E+03	1.030160E-14	9.529915E-17
5.480000E+03	1.086147E-14	1.033543E-16
5.490000E+03	1.143082E-14	1.115373E-16
5.500000E+03	1.198900E-14	1.194815E-16
5.510000E+03	1.251381E-14	1.268932E-16
5.520000E+03	1.298298E-14	1.335508E-16
5.530000E+03	1.337589E-14	1.392985E-16
5.540000E+03	1.367492E-14	1.440291E-16
5.550000E+03	1.386697E-14	1.476789E-16
5.560000E+03	1.394441E-14	1.502210E-16
5.570000E+03	1.390517E-14	1.516529E-16
5.580000E+03	1.375320E-14	1.520055E-16
5.590000E+03	1.349755E-14	1.513395E-16
5.600000E+03	1.315160E-14	1.497435E-16
5.610000E+03	1.273187E-14	1.473306E-16
5.620000E+03	1.225718E-14	1.442369E-16
5.630000E+03	1.174698E-14	1.406049E-16
5.640000E+03	1.122033E-14	1.365799E-16
5.650000E+03	1.069497E-14	1.323056E-16
5.660000E+03	1.018617E-14	1.279140E-16
5.670000E+03	9.706923E-15	1.235347E-16
5.680000E+03	9.267362E-15	1.192924E-16
5.690000E+03	8.874696E-15	1.153025E-16
5.700000E+03	8.533732E-15	1.116734E-16
5.710000E+03	8.247107E-15	1.085031E-16
5.720000E+03	8.015732E-15	1.058751E-16
5.730000E+03	7.838883E-15	1.038515E-16
5.740000E+03	7.714786E-15	1.024727E-16
5.750000E+03	7.640485E-15	1.017498E-16
5.760000E+03	7.612287E-15	1.016705E-16
5.770000E+03	7.625529E-15	1.021972E-16
5.780000E+03	7.674891E-15	1.032722E-16
5.790000E+03	7.754108E-15	1.048168E-16
5.800000E+03	7.856306E-15	1.067383E-16
5.810000E+03	7.973761E-15	1.089279E-16
5.820000E+03	8.098363E-15	1.112684E-16
5.830000E+03	8.221558E-15	1.136349E-16
5.840000E+03	8.334911E-15	1.159014E-16
5.850000E+03	8.430502E-15	1.179466E-16
5.860000E+03	8.501101E-15	1.196554E-16
5.870000E+03	8.540821E-15	1.209274E-16
5.880000E+03	8.545367E-15	1.216817E-16
5.890000E+03	8.512244E-15	1.218620E-16
5.900000E+03	8.440853E-15	1.214396E-16
5.910000E+03	8.332421E-15	1.204157E-16
5.920000E+03	8.189721E-15	1.188202E-16
5.930000E+03	8.016942E-15	1.167099E-16
5.940000E+03	7.819320E-15	1.141639E-16
5.950000E+03	7.602505E-15	1.112723E-16
5.960000E+03	7.372351E-15	1.081303E-16
5.970000E+03	7.134777E-15	1.048342E-16
5.980000E+03	6.894898E-15	1.014667E-16
5.990000E+03	6.657528E-15	9.810290E-17
6.000000E+03	6.426476E-15	9.480138E-17
6.010000E+03	6.204694E-15	9.160818E-17
6.020000E+03	5.994397E-15	8.855907E-17
6.030000E+03	5.796871E-15	8.567766E-17
6.040000E+03	5.612754E-15	8.297909E-17
6.050000E+03	5.442043E-15	8.046889E-17
6.060000E+03	5.284410E-15	7.814729E-17
6.070000E+03	5.139079E-15	7.600689E-17
6.080000E+03	5.005293E-15	7.403908E-17
6.090000E+03	4.882132E-15	7.223267E-17
6.100000E+03	4.768981E-15	7.058181E-17
6.110000E+03	4.665220E-15	6.908168E-17
6.120000E+03	4.570571E-15	6.773418E-17
6.130000E+03	4.485031E-15	6.654609E-17
6.140000E+03	4.408819E-15	6.552667E-17
6.150000E+03	4.342446E-15	6.468725E-17
6.160000E+03	4.286608E-15	6.403814E-17
6.170000E+03	4.242124E-15	6.358616E-17
6.180000E+03	4.209769E-15	6.333251E-17
6.190000E+03	4.190435E-15	6.327597E-17
6.200000E+03	4.184763E-15	6.340839E-17
6.210000E+03	4.193300E-15	6.371925E-17
6.220000E+03	4.216296E-15	6.419468E-17
6.230000E+03	4.253903E-15	6.482226E-17
6.240000E+03	4.305942E-15	6.558979E-17
6.250000E+03	4.372120E-15	6.649011E-17
6.260000E+03	4.452118E-15	6.752234E-17
6.270000E+03	4.545368E-15	6.868699E-17
6.280000E+03	4.651456E-15	6.998893E-17
6.290000E+03	4.769827E-15	7.142905E-17
6.300000E+03	4.900029E-15	7.300539E-17
6.310000E+03	5.041617E-15	7.470969E-17
6.320000E+03	5.193980E-15	7.652329E-17
6.330000E+03	5.356687E-15	7.842274E-17
6.340000E+03	5.529168E-15	8.037586E-17
6.350000E+03	5.710805E-15	8.234441E-17
6.360000E+03	5.901041E-15	8.428772E-17
6.370000E+03	6.099240E-15	8.616399E-17
6.380000E+03	6.305023E-15	8.793978E-17
6.390000E+03	6.518245E-15	8.959877E-17
6.400000E+03	6.739024E-15	9.115425E-17
6.410000E+03	6.967869E-15	9.266462E-17
6.420000E+03	7.205769E-15	9.424889E-17
6.430000E+03	7.453950E-15	9.609272E-17
6.440000E+03	7.713894E-15	9.844471E-17
6.450000E+03	7.986523E-15	1.015818E-16
6.460000E+03	8.272019E-15	1.057555E-16
6.470000E+03	8.568369E-15	1.110741E-16
6.480000E+03	8.870783E-15	1.174369E-16
6.490000E+03	9.172378E-15	1.246061E-16
6.500000E+03	9.464813E-15	1.322625E-16
6.510000E+03	9.738868E-15	1.400540E-16
6.520000E+03	9.985085E-15	1.476338E-16
6.530000E+03	1.019442E-14	1.546870E-16
6.540000E+03	1.035883E-14	1.609478E-16
6.550000E+03	1.047184E-14	1.662104E-16
6.560000E+03	1.052901E-14	1.703339E-16
6.570000E+03	1.052785E-14	1.732370E-16
6.580000E+03	1.046852E-14	1.749035E-16
6.590000E+03	1.035286E-14	1.753611E-16
6.600000E+03	1.018518E-14	1.746890E-16
6.610000E+03	9.971066E-15	1.729944E-16
6.620000E+03	9.717566E-15	1.704124E-16
6.630000E+03	9.432387E-15	1.670905E-16
6.640000E+03	9.123575E-15	1.631823E-16
6.650000E+03	8.799113E-15	1.588397E-16
6.660000E+03	8.466669E-15	1.542091E-16
6.670000E+03	8.133116E-15	1.494230E-16
6.680000E+03	7.804459E-15	1.445992E-16
6.690000E+03	7.485630E-15	1.398368E-16
6.700000E+03	7.180822E-15	1.352228E-16
6.710000E+03	6.893037E-15	1.308229E-16
6.720000E+03	6.624273E-15	1.266847E-16
6.730000E+03	6.375864E-15	1.228440E-16
6.740000E+03	6.148271E-15	1.193197E-16
6.750000E+03	5.941589E-15	1.161239E-16
6.760000E+03	5.755209E-15	1.132548E-16
6.770000E+03	5.588307E-15	1.107059E-16
6.780000E+03	5.439586E-15	1.084606E-16
6.790000E+03	5.307917E-15	1.065053E-16
6.800000E+03	5.191723E-15	1.048163E-16
6.810000E+03	5.089577E-15	1.033723E-16
6.820000E+03	4.999920E-15	1.021481E-16
6.830000E+03	4.921413E-15	1.011223E-16
6.840000E+03	4.852520E-15	1.002683E-16
6.850000E+03	4.792026E-15	9.956553E-17
6.860000E+03	4.738618E-15	9.899010E-17
6.870000E+03	4.691080E-15	9.851955E-17
6.880000E+03	4.648478E-15	9.813668E-17
6.890000E+03	4.609860E-15	9.782329E-17
6.900000E+03	4.574264E-15	9.756047E-17
6.910000E+03	4.541069E-15	9.733616E-17
6.920000E+03	4.509586E-15	9.713635E-17
6.930000E+03	4.479289E-15	9.695021E-17
6.940000E+03	4.449817E-15	9.677017E-17
6.950000E+03	4.420796E-15	9.658802E-17
6.960000E+03	4.392016E-15	9.639884E-17
6.970000E+03	4.363427E-15	9.620104E-17
6.980000E+03	4.334962E-15	9.599241E-17
6.990000E+03	4.306711E-15	9.577408E-17
7.000000E+03	4.278911E-15	9.555045E-17
7.010000E+03	4.251713E-15	9.532406E-17
7.020000E+03	4.225566E-15	9.510439E-17
7.030000E+03	4.200807E-15	9.489886E-17
7.040000E+03	4.177875E-15	9.471752E-17
7.050000E+03	4.157230E-15	9.457153E-17
7.060000E+03	4.139340E-15	9.447270E-17
7.070000E+03	4.124604E-15	9.443163E-17
7.080000E+03	4.113557E-15	9.446240E-17
7.090000E+03	4.106465E-15	9.457308E-17
7.100000E+03	4.103641E-15	9.477285E-17
7.110000E+03	4.105385E-15	9.507044E-17
7.120000E+03	4.111858E-15	9.547127E-17
7.130000E+03	4.123023E-15	9.597584E-17
7.140000E+03	4.138978E-15	9.658752E-17
7.150000E+03	4.159567E-15	9.730353E-17
7.160000E+03	4.184544E-15	9.811879E-17
7.170000E+03	4.213703E-15	9.902892E-17
7.180000E+03	4.246652E-15	1.000252E-16
7.190000E+03	4.282997E-15	1.010990E-16
7.200000E+03	4.322302E-15	1.022405E-16
7.210000E+03	4.364094E-15	1.034398E-16
7.220000E+03	4.407887E-15	1.046865E-16
7.230000E+03	4.453064E-15	1.059679E-16
7.240000E+03	4.499259E-15	1.072779E-16
7.250000E+03	4.545876E-15	1.086054E-16
7.260000E+03	4.592459E-15	1.099438E-16
7.270000E+03	4.638578E-15	1.112876E-16
7.280000E+03	4.683826E-15	1.126327E-16
7.290000E+03	4.727747E-15	1.139750E-16
7.300000E+03	4.769969E-15	1.153126E-16
7.310000E+03	4.810061E-15	1.166428E-16
7.320000E+03	4.847598E-15	1.179632E-16
7.330000E+03	4.882361E-15	1.192763E-16
7.340000E+03	4.913800E-15	1.205758E-16
7.350000E+03	4.941582E-15	1.218591E-16
7.360000E+03	4.965466E-15	1.231245E-16
7.370000E+03	4.985047E-15	1.243633E-16
7.380000E+03	5.000119E-15	1.255684E-16
7.390000E+03	5.010491E-15	1.267294E-16
7.400000E+03	5.016219E-15	1.278373E-16
7.410000E+03	5.017277E-15	1.288768E-16
7.420000E+03	5.013921E-15	1.298358E-16
7.430000E+03	5.006626E-15	1.307047E-16
7.440000E+03	4.995868E-15	1.314731E-16
7.450000E+03	4.982244E-15	1.321349E-16
7.460000E+03	4.966669E-15	1.326953E-16
7.470000E+03	4.949924E-15	1.331600E-16
7.480000E+03	4.933057E-15	1.335454E-16
7.490000E+03	4.916858E-15	1.338650E-16
7.500000E+03	4.902470E-15	1.341444E-16
7.510000E+03	4.890720E-15	1.344035E-16
7.520000E+03	4.882513E-15	1.346657E-16
7.530000E+03	4.878592E-15	1.349516E-16
7.540000E+03	4.879656E-15	1.352812E-16
7.550000E+03	4.886190E-15	1.356697E-16
7.560000E+03	4.898520E-15	1.361282E-16
7.570000E+03	4.916867E-15	1.366657E-16
7.580000E+03	4.941265E-15	1.372866E-16
7.590000E+03	4.971410E-15	1.379869E-16
7.600000E+03	5.007015E-15	1.387635E-16
7.610000E+03	5.047306E-15	1.396008E-16
7.620000E+03	5.091612E-15	1.404865E-16
7.630000E+03	5.138861E-15	1.413977E-16
7.640000E+03	5.188053E-15	1.423139E-16
7.650000E+03	5.237746E-15	1.432020E-16
7.660000E+03	5.286709E-15	1.440347E-16
7.670000E+03	5.333332E-15	1.447737E-16
7.680000E+03	5.376387E-15	1.453904E-16
7.690000E+03	5.414193E-15	1.458432E-16
7.700000E+03	5.445553E-15	1.461028E-16
7.710000E+03	5.469240E-15	1.461384E-16
7.720000E+03	5.484123E-15	1.459212E-16
7.730000E+03	5.489373E-15	1.454304E-16
7.740000E+03	5.484504E-15	1.446539E-16
7.750000E+03	5.469225E-15	1.435846E-16
7.760000E+03	5.443376E-15	1.422192E-16
