#wls	flux	fluxerr
1.600000E+03	1.020059E-15	2.960995E-16
1.640000E+03	9.285377E-16	2.471266E-16
1.680000E+03	8.447838E-16	2.046113E-16
1.720000E+03	7.689446E-16	1.680362E-16
1.760000E+03	7.008893E-16	1.368150E-16
1.800000E+03	6.405246E-16	1.103859E-16
1.840000E+03	5.875505E-16	8.817883E-17
1.880000E+03	5.417245E-16	6.968481E-17
1.920000E+03	5.026560E-16	5.444834E-17
1.960000E+03	4.700227E-16	4.213681E-17
2.000000E+03	4.433862E-16	3.257926E-17
2.040000E+03	4.224432E-16	2.585466E-17
2.080000E+03	4.066552E-16	2.218079E-17
2.120000E+03	3.958734E-16	2.139894E-17
2.160000E+03	3.898462E-16	2.250279E-17
2.200000E+03	3.885958E-16	2.444072E-17
2.240000E+03	3.919263E-16	2.659508E-17
2.280000E+03	3.997140E-16	2.867769E-17
2.320000E+03	4.119244E-16	3.050128E-17
2.360000E+03	4.285919E-16	3.188133E-17
2.400000E+03	4.497279E-16	3.263058E-17
2.440000E+03	4.751186E-16	3.256452E-17
2.480000E+03	5.047021E-16	3.158994E-17
2.520000E+03	5.379420E-16	2.980769E-17
2.560000E+03	5.741976E-16	2.784418E-17
2.600000E+03	6.126057E-16	2.726275E-17
2.640000E+03	6.517718E-16	3.018839E-17
2.680000E+03	6.910358E-16	3.720369E-17
2.720000E+03	7.299783E-16	4.708031E-17
2.760000E+03	7.681017E-16	5.843345E-17
2.800000E+03	8.050491E-16	7.024275E-17
2.840000E+03	8.405735E-16	8.176210E-17
2.880000E+03	8.743720E-16	9.239493E-17
2.920000E+03	9.065192E-16	1.016851E-16
2.960000E+03	9.372738E-16	1.092829E-16
3.000000E+03	9.672833E-16	1.149608E-16
3.010000E+03	9.747521E-16	1.160612E-16
3.020000E+03	9.821742E-16	1.170234E-16
3.030000E+03	9.896681E-16	1.178587E-16
3.040000E+03	9.971375E-16	1.185530E-16
3.050000E+03	1.004810E-15	1.191308E-16
3.060000E+03	1.012375E-15	1.195528E-16
3.070000E+03	1.020168E-15	1.198566E-16
3.080000E+03	1.027987E-15	1.200164E-16
3.090000E+03	1.035953E-15	1.200443E-16
3.100000E+03	1.044079E-15	1.199402E-16
3.110000E+03	1.052380E-15	1.197040E-16
3.120000E+03	1.060870E-15	1.193355E-16
3.130000E+03	1.069563E-15	1.188349E-16
3.140000E+03	1.078364E-15	1.181903E-16
3.150000E+03	1.087615E-15	1.174380E-16
3.160000E+03	1.097004E-15	1.165424E-16
3.170000E+03	1.106762E-15	1.155273E-16
3.180000E+03	1.116796E-15	1.143814E-16
3.190000E+03	1.127119E-15	1.131053E-16
3.200000E+03	1.137965E-15	1.117214E-16
3.210000E+03	1.149128E-15	1.102080E-16
3.220000E+03	1.160730E-15	1.085764E-16
3.230000E+03	1.172673E-15	1.068168E-16
3.240000E+03	1.185190E-15	1.049503E-16
3.250000E+03	1.198179E-15	1.029673E-16
3.260000E+03	1.211763E-15	1.008783E-16
3.270000E+03	1.225835E-15	9.867472E-17
3.280000E+03	1.240398E-15	9.635867E-17
3.290000E+03	1.255683E-15	9.394977E-17
3.300000E+03	1.271462E-15	9.143330E-17
3.310000E+03	1.287957E-15	8.882961E-17
3.320000E+03	1.304932E-15	8.612757E-17
3.330000E+03	1.322719E-15	8.335666E-17
3.340000E+03	1.341070E-15	8.050992E-17
3.350000E+03	1.360078E-15	7.760557E-17
3.360000E+03	1.379711E-15	7.465765E-17
3.370000E+03	1.400052E-15	7.169039E-17
3.380000E+03	1.421057E-15	6.872624E-17
3.390000E+03	1.442556E-15	6.578852E-17
3.400000E+03	1.464727E-15	6.292439E-17
3.410000E+03	1.487385E-15	6.017266E-17
3.420000E+03	1.510453E-15	5.758687E-17
3.430000E+03	1.534090E-15	5.523804E-17
3.440000E+03	1.558211E-15	5.319429E-17
3.450000E+03	1.582604E-15	5.152309E-17
3.460000E+03	1.607180E-15	5.029227E-17
3.470000E+03	1.632216E-15	4.956605E-17
3.480000E+03	1.657278E-15	4.935793E-17
3.490000E+03	1.682692E-15	4.966154E-17
3.500000E+03	1.708319E-15	5.042199E-17
3.510000E+03	1.734150E-15	5.156674E-17
3.520000E+03	1.760300E-15	5.301681E-17
3.530000E+03	1.786760E-15	5.468899E-17
3.540000E+03	1.813521E-15	5.650567E-17
3.550000E+03	1.840686E-15	5.840216E-17
3.560000E+03	1.868111E-15	6.031653E-17
3.570000E+03	1.895888E-15	6.220479E-17
3.580000E+03	1.923984E-15	6.402860E-17
3.590000E+03	1.952482E-15	6.576185E-17
3.600000E+03	1.981102E-15	6.737339E-17
3.610000E+03	2.009923E-15	6.884987E-17
3.620000E+03	2.039023E-15	7.018281E-17
3.630000E+03	2.068246E-15	7.135959E-17
3.640000E+03	2.097560E-15	7.237503E-17
3.650000E+03	2.127062E-15	7.323102E-17
3.660000E+03	2.156633E-15	7.392412E-17
3.670000E+03	2.186303E-15	7.445775E-17
3.680000E+03	2.216140E-15	7.483803E-17
3.690000E+03	2.246381E-15	7.507778E-17
3.700000E+03	2.277104E-15	7.518509E-17
3.710000E+03	2.308582E-15	7.517517E-17
3.720000E+03	2.341183E-15	7.506659E-17
3.730000E+03	2.375485E-15	7.488489E-17
3.740000E+03	2.411727E-15	7.464520E-17
3.750000E+03	2.450913E-15	7.438703E-17
3.760000E+03	2.493584E-15	7.413579E-17
3.770000E+03	2.540679E-15	7.392917E-17
3.780000E+03	2.592952E-15	7.379861E-17
3.790000E+03	2.651352E-15	7.377938E-17
3.800000E+03	2.716425E-15	7.389281E-17
3.810000E+03	2.789028E-15	7.416676E-17
3.820000E+03	2.869292E-15	7.460799E-17
3.830000E+03	2.957770E-15	7.523387E-17
3.840000E+03	3.054176E-15	7.603982E-17
3.850000E+03	3.157991E-15	7.701601E-17
3.860000E+03	3.268656E-15	7.815164E-17
3.870000E+03	3.384748E-15	7.941554E-17
3.880000E+03	3.504671E-15	8.077369E-17
3.890000E+03	3.626564E-15	8.218705E-17
3.900000E+03	3.747986E-15	8.360520E-17
3.910000E+03	3.866089E-15	8.497154E-17
3.920000E+03	3.978479E-15	8.624205E-17
3.930000E+03	4.081968E-15	8.735751E-17
3.940000E+03	4.173992E-15	8.827328E-17
3.950000E+03	4.252021E-15	8.894467E-17
3.960000E+03	4.314225E-15	8.934064E-17
3.970000E+03	4.358974E-15	8.943281E-17
3.980000E+03	4.385705E-15	8.921273E-17
3.990000E+03	4.394337E-15	8.867976E-17
4.000000E+03	4.385638E-15	8.784852E-17
4.010000E+03	4.360926E-15	8.674208E-17
4.020000E+03	4.322314E-15	8.539734E-17
4.030000E+03	4.271973E-15	8.385037E-17
4.040000E+03	4.212673E-15	8.214720E-17
4.050000E+03	4.147060E-15	8.033134E-17
4.060000E+03	4.077848E-15	7.844904E-17
4.070000E+03	4.007598E-15	7.654542E-17
4.080000E+03	3.938549E-15	7.466201E-17
4.090000E+03	3.872861E-15	7.284111E-17
4.100000E+03	3.812023E-15	7.111345E-17
4.110000E+03	3.757765E-15	6.951481E-17
4.120000E+03	3.710966E-15	6.806432E-17
4.130000E+03	3.672630E-15	6.678148E-17
4.140000E+03	3.643135E-15	6.567285E-17
4.150000E+03	3.622834E-15	6.474372E-17
4.160000E+03	3.611658E-15	6.399074E-17
4.170000E+03	3.609302E-15	6.340607E-17
4.180000E+03	3.615469E-15	6.298130E-17
4.190000E+03	3.629417E-15	6.269852E-17
4.200000E+03	3.650210E-15	6.253434E-17
4.210000E+03	3.676876E-15	6.246121E-17
4.220000E+03	3.708116E-15	6.244082E-17
4.230000E+03	3.742536E-15	6.242819E-17
4.240000E+03	3.778650E-15	6.237207E-17
4.250000E+03	3.814606E-15	6.221119E-17
4.260000E+03	3.848722E-15	6.188720E-17
4.270000E+03	3.879087E-15	6.134312E-17
4.280000E+03	3.903624E-15	6.052977E-17
4.290000E+03	3.920614E-15	5.942075E-17
4.300000E+03	3.928370E-15	5.801358E-17
4.310000E+03	3.925439E-15	5.633768E-17
4.320000E+03	3.910872E-15	5.446168E-17
4.330000E+03	3.884341E-15	5.249354E-17
4.340000E+03	3.846104E-15	5.057145E-17
4.350000E+03	3.797074E-15	4.884827E-17
4.360000E+03	3.739125E-15	4.746586E-17
4.370000E+03	3.674839E-15	4.650098E-17
4.380000E+03	3.608179E-15	4.593345E-17
4.390000E+03	3.543312E-15	4.570076E-17
4.400000E+03	3.484424E-15	4.574348E-17
4.410000E+03	3.435093E-15	4.602010E-17
4.420000E+03	3.398595E-15	4.651165E-17
4.430000E+03	3.378057E-15	4.720245E-17
4.440000E+03	3.376185E-15	4.808935E-17
4.450000E+03	3.395173E-15	4.918279E-17
4.460000E+03	3.436673E-15	5.050017E-17
4.470000E+03	3.501992E-15	5.206403E-17
4.480000E+03	3.591882E-15	5.389471E-17
4.490000E+03	3.706681E-15	5.600878E-17
4.500000E+03	3.846058E-15	5.841437E-17
4.510000E+03	4.008800E-15	6.110706E-17
4.520000E+03	4.192963E-15	6.407095E-17
4.530000E+03	4.395289E-15	6.727055E-17
4.540000E+03	4.611310E-15	7.065222E-17
4.550000E+03	4.835221E-15	7.414107E-17
4.560000E+03	5.059930E-15	7.764295E-17
4.570000E+03	5.277236E-15	8.104734E-17
4.580000E+03	5.478385E-15	8.423489E-17
4.590000E+03	5.654566E-15	8.708579E-17
4.600000E+03	5.797547E-15	8.948896E-17
4.610000E+03	5.900668E-15	9.135488E-17
4.620000E+03	5.959180E-15	9.261990E-17
4.630000E+03	5.970974E-15	9.325512E-17
4.640000E+03	5.936679E-15	9.326460E-17
4.650000E+03	5.859772E-15	9.268776E-17
4.660000E+03	5.745785E-15	9.158756E-17
4.670000E+03	5.602252E-15	9.005070E-17
4.680000E+03	5.437360E-15	8.817142E-17
4.690000E+03	5.259723E-15	8.605206E-17
4.700000E+03	5.077395E-15	8.378987E-17
4.710000E+03	4.897634E-15	8.147717E-17
4.720000E+03	4.726542E-15	7.919724E-17
4.730000E+03	4.568988E-15	7.702251E-17
4.740000E+03	4.428428E-15	7.501056E-17
4.750000E+03	4.307354E-15	7.320964E-17
4.760000E+03	4.207151E-15	7.165300E-17
4.770000E+03	4.128440E-15	7.036219E-17
4.780000E+03	4.071185E-15	6.934563E-17
4.790000E+03	4.034820E-15	6.859918E-17
4.800000E+03	4.018343E-15	6.811051E-17
4.810000E+03	4.020581E-15	6.786718E-17
4.820000E+03	4.040058E-15	6.785674E-17
4.830000E+03	4.075197E-15	6.807229E-17
4.840000E+03	4.124149E-15	6.851001E-17
4.850000E+03	4.184789E-15	6.916716E-17
4.860000E+03	4.254682E-15	7.003837E-17
4.870000E+03	4.330792E-15	7.110418E-17
4.880000E+03	4.409769E-15	7.232863E-17
4.890000E+03	4.487716E-15	7.365202E-17
4.900000E+03	4.560380E-15	7.499177E-17
4.910000E+03	4.623518E-15	7.624735E-17
4.920000E+03	4.673003E-15	7.730710E-17
4.930000E+03	4.705249E-15	7.806276E-17
4.940000E+03	4.717370E-15	7.841884E-17
4.950000E+03	4.707591E-15	7.830561E-17
4.960000E+03	4.675443E-15	7.768617E-17
4.970000E+03	4.621733E-15	7.655784E-17
4.980000E+03	4.548449E-15	7.495250E-17
4.990000E+03	4.458747E-15	7.293606E-17
5.000000E+03	4.356376E-15	7.059627E-17
5.010000E+03	4.245558E-15	6.803825E-17
5.020000E+03	4.130647E-15	6.537455E-17
5.030000E+03	4.015767E-15	6.271365E-17
5.040000E+03	3.904620E-15	6.015168E-17
5.050000E+03	3.800485E-15	5.776627E-17
5.060000E+03	3.706025E-15	5.561047E-17
5.070000E+03	3.623426E-15	5.371767E-17
5.080000E+03	3.554352E-15	5.210459E-17
5.090000E+03	3.500149E-15	5.077670E-17
5.100000E+03	3.461920E-15	4.973281E-17
5.110000E+03	3.440469E-15	4.896629E-17
5.120000E+03	3.436528E-15	4.846896E-17
5.130000E+03	3.450523E-15	4.823011E-17
5.140000E+03	3.482832E-15	4.824133E-17
5.150000E+03	3.533610E-15	4.849378E-17
5.160000E+03	3.602827E-15	4.897961E-17
5.170000E+03	3.690100E-15	4.968879E-17
5.180000E+03	3.794722E-15	5.060785E-17
5.190000E+03	3.915564E-15	5.171891E-17
5.200000E+03	4.051094E-15	5.299930E-17
5.210000E+03	4.199041E-15	5.441539E-17
5.220000E+03	4.356792E-15	5.592966E-17
5.230000E+03	4.521145E-15	5.749834E-17
5.240000E+03	4.688483E-15	5.907313E-17
5.250000E+03	4.854909E-15	6.060491E-17
5.260000E+03	5.016416E-15	6.204568E-17
5.270000E+03	5.169316E-15	6.335104E-17
5.280000E+03	5.310389E-15	6.448141E-17
5.290000E+03	5.437206E-15	6.540255E-17
5.300000E+03	5.548658E-15	6.608678E-17
5.310000E+03	5.644807E-15	6.651187E-17
5.320000E+03	5.727140E-15	6.666416E-17
5.330000E+03	5.798757E-15	6.653944E-17
5.340000E+03	5.863794E-15	6.614032E-17
5.350000E+03	5.927576E-15	6.548052E-17
5.360000E+03	5.996161E-15	6.458027E-17
5.370000E+03	6.075832E-15	6.346734E-17
5.380000E+03	6.173125E-15	6.218486E-17
5.390000E+03	6.294382E-15	6.079960E-17
5.400000E+03	6.445415E-15	5.942907E-17
5.410000E+03	6.631775E-15	5.828357E-17
5.420000E+03	6.858370E-15	5.769871E-17
5.430000E+03	7.129408E-15	5.814364E-17
5.440000E+03	7.447528E-15	6.009940E-17
5.450000E+03	7.812619E-15	6.377399E-17
5.460000E+03	8.218353E-15	6.894479E-17
5.470000E+03	8.653157E-15	7.511473E-17
5.480000E+03	9.102463E-15	8.177724E-17
5.490000E+03	9.549541E-15	8.849696E-17
5.500000E+03	9.976385E-15	9.492960E-17
5.510000E+03	1.036471E-14	1.008136E-16
5.520000E+03	1.069725E-14	1.059674E-16
5.530000E+03	1.095885E-14	1.102773E-16
5.540000E+03	1.113801E-14	1.136827E-16
5.550000E+03	1.122731E-14	1.161673E-16
5.560000E+03	1.122453E-14	1.177573E-16
5.570000E+03	1.113163E-14	1.184969E-16
5.580000E+03	1.095567E-14	1.184601E-16
5.590000E+03	1.070705E-14	1.177355E-16
5.600000E+03	1.039960E-14	1.164224E-16
5.610000E+03	1.004820E-14	1.146106E-16
5.620000E+03	9.668822E-15	1.123835E-16
5.630000E+03	9.276720E-15	1.098036E-16
5.640000E+03	8.885726E-15	1.069277E-16
5.650000E+03	8.508207E-15	1.038271E-16
5.660000E+03	8.154212E-15	1.005860E-16
5.670000E+03	7.831568E-15	9.730566E-17
5.680000E+03	7.546153E-15	9.410406E-17
5.690000E+03	7.302041E-15	9.110625E-17
5.700000E+03	7.101558E-15	8.843109E-17
5.710000E+03	6.945439E-15	8.617634E-17
5.720000E+03	6.833101E-15	8.441017E-17
5.730000E+03	6.762857E-15	8.317361E-17
5.740000E+03	6.731940E-15	8.248009E-17
5.750000E+03	6.736556E-15	8.231406E-17
5.760000E+03	6.772155E-15	8.263821E-17
5.770000E+03	6.833306E-15	8.339258E-17
5.780000E+03	6.913742E-15	8.449356E-17
5.790000E+03	7.006603E-15	8.584283E-17
5.800000E+03	7.104660E-15	8.733440E-17
5.810000E+03	7.200396E-15	8.885609E-17
5.820000E+03	7.286572E-15	9.030162E-17
5.830000E+03	7.356397E-15	9.157412E-17
5.840000E+03	7.403935E-15	9.258807E-17
5.850000E+03	7.424551E-15	9.327589E-17
5.860000E+03	7.415083E-15	9.358767E-17
5.870000E+03	7.374008E-15	9.348931E-17
5.880000E+03	7.301496E-15	9.296757E-17
5.890000E+03	7.199035E-15	9.202874E-17
5.900000E+03	7.069371E-15	9.069763E-17
5.910000E+03	6.916437E-15	8.902040E-17
5.920000E+03	6.744548E-15	8.705388E-17
5.930000E+03	6.558575E-15	8.486400E-17
5.940000E+03	6.363388E-15	8.251899E-17
5.950000E+03	6.163543E-15	8.008291E-17
5.960000E+03	5.963442E-15	7.761427E-17
5.970000E+03	5.766821E-15	7.516203E-17
5.980000E+03	5.576663E-15	7.276552E-17
5.990000E+03	5.395371E-15	7.045531E-17
6.000000E+03	5.224763E-15	6.825532E-17
6.010000E+03	5.065740E-15	6.617821E-17
6.020000E+03	4.918809E-15	6.423053E-17
6.030000E+03	4.783926E-15	6.241344E-17
6.040000E+03	4.660616E-15	6.072534E-17
6.050000E+03	4.548168E-15	5.916357E-17
6.060000E+03	4.445701E-15	5.772758E-17
6.070000E+03	4.352201E-15	5.641922E-17
6.080000E+03	4.266828E-15	5.524428E-17
6.090000E+03	4.188752E-15	5.420946E-17
6.100000E+03	4.117486E-15	5.332321E-17
6.110000E+03	4.052658E-15	5.258869E-17
6.120000E+03	3.994303E-15	5.200839E-17
6.130000E+03	3.942733E-15	5.158239E-17
6.140000E+03	3.898385E-15	5.130540E-17
6.150000E+03	3.861937E-15	5.117138E-17
6.160000E+03	3.834151E-15	5.117332E-17
6.170000E+03	3.815629E-15	5.129895E-17
6.180000E+03	3.806929E-15	5.153246E-17
6.190000E+03	3.808451E-15	5.185186E-17
6.200000E+03	3.820359E-15	5.222785E-17
6.210000E+03	3.842605E-15	5.263087E-17
6.220000E+03	3.875138E-15	5.304245E-17
6.230000E+03	3.917627E-15	5.345510E-17
6.240000E+03	3.969814E-15	5.387642E-17
6.250000E+03	4.031484E-15	5.432217E-17
6.260000E+03	4.102431E-15	5.480920E-17
6.270000E+03	4.182585E-15	5.535474E-17
6.280000E+03	4.271991E-15	5.597371E-17
6.290000E+03	4.370653E-15	5.667408E-17
6.300000E+03	4.478552E-15	5.745923E-17
6.310000E+03	4.595652E-15	5.832918E-17
6.320000E+03	4.721645E-15	5.927597E-17
6.330000E+03	4.856047E-15	6.028481E-17
6.340000E+03	4.998025E-15	6.132830E-17
6.350000E+03	5.146651E-15	6.236484E-17
6.360000E+03	5.300700E-15	6.333867E-17
6.370000E+03	5.458910E-15	6.418593E-17
6.380000E+03	5.619957E-15	6.483705E-17
6.390000E+03	5.782914E-15	6.523216E-17
6.400000E+03	5.947148E-15	6.533184E-17
6.410000E+03	6.112931E-15	6.514060E-17
6.420000E+03	6.281250E-15	6.473740E-17
6.430000E+03	6.454296E-15	6.431910E-17
6.440000E+03	6.635407E-15	6.423038E-17
6.450000E+03	6.829155E-15	6.497128E-17
6.460000E+03	7.040550E-15	6.712081E-17
6.470000E+03	7.270113E-15	7.092256E-17
6.480000E+03	7.509619E-15	7.602735E-17
6.490000E+03	7.749163E-15	8.194963E-17
6.500000E+03	7.978528E-15	8.821195E-17
6.510000E+03	8.187923E-15	9.440616E-17
6.520000E+03	8.367966E-15	1.002039E-16
6.530000E+03	8.510813E-15	1.053593E-16
6.540000E+03	8.610169E-15	1.097012E-16
6.550000E+03	8.661622E-15	1.131254E-16
6.560000E+03	8.662842E-15	1.155835E-16
6.570000E+03	8.613696E-15	1.170788E-16
6.580000E+03	8.515744E-15	1.176525E-16
6.590000E+03	8.372634E-15	1.173802E-16
6.600000E+03	8.189497E-15	1.163604E-16
6.610000E+03	7.972396E-15	1.147033E-16
6.620000E+03	7.728223E-15	1.125232E-16
6.630000E+03	7.464280E-15	1.099355E-16
6.640000E+03	7.187723E-15	1.070493E-16
6.650000E+03	6.905251E-15	1.039628E-16
6.660000E+03	6.623184E-15	1.007698E-16
6.670000E+03	6.346713E-15	9.755118E-17
6.680000E+03	6.080417E-15	9.438155E-17
6.690000E+03	5.827704E-15	9.132201E-17
6.700000E+03	5.591186E-15	8.842391E-17
6.710000E+03	5.372450E-15	8.572242E-17
6.720000E+03	5.172509E-15	8.324442E-17
6.730000E+03	4.991467E-15	8.100298E-17
6.740000E+03	4.829123E-15	7.900531E-17
6.750000E+03	4.684680E-15	7.724904E-17
6.760000E+03	4.557158E-15	7.572839E-17
6.770000E+03	4.445250E-15	7.443039E-17
6.780000E+03	4.347628E-15	7.334077E-17
6.790000E+03	4.262808E-15	7.244153E-17
6.800000E+03	4.189453E-15	7.171489E-17
6.810000E+03	4.126103E-15	7.113985E-17
6.820000E+03	4.071420E-15	7.069636E-17
6.830000E+03	4.024147E-15	7.036410E-17
6.840000E+03	3.983173E-15	7.012476E-17
6.850000E+03	3.947388E-15	6.996023E-17
6.860000E+03	3.915835E-15	6.985464E-17
6.870000E+03	3.887753E-15	6.979620E-17
6.880000E+03	3.862234E-15	6.977117E-17
6.890000E+03	3.838751E-15	6.977233E-17
6.900000E+03	3.816623E-15	6.978992E-17
6.910000E+03	3.795396E-15	6.981816E-17
6.920000E+03	3.774646E-15	6.985071E-17
6.930000E+03	3.754031E-15	6.988224E-17
6.940000E+03	3.733288E-15	6.990842E-17
6.950000E+03	3.712191E-15	6.992448E-17
6.960000E+03	3.690744E-15	6.992946E-17
6.970000E+03	3.668856E-15	6.992033E-17
6.980000E+03	3.646675E-15	6.989734E-17
6.990000E+03	3.624393E-15	6.986114E-17
7.000000E+03	3.602289E-15	6.981339E-17
7.010000E+03	3.580671E-15	6.975512E-17
7.020000E+03	3.559998E-15	6.969009E-17
7.030000E+03	3.540723E-15	6.962233E-17
7.040000E+03	3.523275E-15	6.955597E-17
7.050000E+03	3.508175E-15	6.949909E-17
7.060000E+03	3.495888E-15	6.946176E-17
7.070000E+03	3.486750E-15	6.945450E-17
7.080000E+03	3.481231E-15	6.949290E-17
7.090000E+03	3.479594E-15	6.958956E-17
7.100000E+03	3.482060E-15	6.975550E-17
7.110000E+03	3.488760E-15	6.999909E-17
7.120000E+03	3.499682E-15	7.032493E-17
7.130000E+03	3.514799E-15	7.073572E-17
7.140000E+03	3.533949E-15	7.123034E-17
7.150000E+03	3.556841E-15	7.180412E-17
7.160000E+03	3.583106E-15	7.244934E-17
7.170000E+03	3.612413E-15	7.315820E-17
7.180000E+03	3.644345E-15	7.392065E-17
7.190000E+03	3.678423E-15	7.472427E-17
7.200000E+03	3.714211E-15	7.555723E-17
7.210000E+03	3.751290E-15	7.640802E-17
7.220000E+03	3.789222E-15	7.726436E-17
7.230000E+03	3.827710E-15	7.811745E-17
7.240000E+03	3.866351E-15	7.895765E-17
7.250000E+03	3.904890E-15	7.977932E-17
7.260000E+03	3.943117E-15	8.057948E-17
7.270000E+03	3.980859E-15	8.135746E-17
7.280000E+03	4.017868E-15	8.211164E-17
7.290000E+03	4.054118E-15	8.284568E-17
7.300000E+03	4.089318E-15	8.355794E-17
7.310000E+03	4.123365E-15	8.424966E-17
7.320000E+03	4.156021E-15	8.491903E-17
7.330000E+03	4.187005E-15	8.556327E-17
7.340000E+03	4.216040E-15	8.617915E-17
7.350000E+03	4.242752E-15	8.676178E-17
7.360000E+03	4.266790E-15	8.730700E-17
7.370000E+03	4.287728E-15	8.780874E-17
7.380000E+03	4.305148E-15	8.826098E-17
7.390000E+03	4.318671E-15	8.865816E-17
7.400000E+03	4.328046E-15	8.899583E-17
7.410000E+03	4.333129E-15	8.927087E-17
7.420000E+03	4.333808E-15	8.947979E-17
7.430000E+03	4.330256E-15	8.962344E-17
7.440000E+03	4.322831E-15	8.970606E-17
7.450000E+03	4.312087E-15	8.973578E-17
7.460000E+03	4.298830E-15	8.972515E-17
7.470000E+03	4.283974E-15	8.968893E-17
7.480000E+03	4.268576E-15	8.964406E-17
7.490000E+03	4.253904E-15	8.960984E-17
7.500000E+03	4.241173E-15	8.960234E-17
7.510000E+03	4.231592E-15	8.963482E-17
7.520000E+03	4.226431E-15	8.971804E-17
7.530000E+03	4.226748E-15	8.985573E-17
7.540000E+03	4.233438E-15	9.004684E-17
7.550000E+03	4.247251E-15	9.028625E-17
7.560000E+03	4.268659E-15	9.056439E-17
7.570000E+03	4.298008E-15	9.087256E-17
7.580000E+03	4.335151E-15	9.119639E-17
7.590000E+03	4.379975E-15	9.152899E-17
7.600000E+03	4.431880E-15	9.186104E-17
7.610000E+03	4.490055E-15	9.218658E-17
7.620000E+03	4.553499E-15	9.250264E-17
7.630000E+03	4.620841E-15	9.280331E-17
7.640000E+03	4.690731E-15	9.308442E-17
7.650000E+03	4.761240E-15	9.333066E-17
7.660000E+03	4.830614E-15	9.352874E-17
7.670000E+03	4.896945E-15	9.365856E-17
7.680000E+03	4.958015E-15	9.369103E-17
7.690000E+03	5.012039E-15	9.360225E-17
7.700000E+03	5.057129E-15	9.336228E-17
7.710000E+03	5.091418E-15	9.293944E-17
7.720000E+03	5.113489E-15	9.230871E-17
7.730000E+03	5.122241E-15	9.144871E-17
7.740000E+03	5.116791E-15	9.034275E-17
7.750000E+03	5.096724E-15	8.898472E-17
7.760000E+03	5.062053E-15	8.737791E-17
