#wls	flux	fluxerr
1.600000E+03	9.090789E-16	2.673792E-16
1.640000E+03	8.334562E-16	2.249754E-16
1.680000E+03	7.642135E-16	1.879390E-16
1.720000E+03	7.015969E-16	1.558800E-16
1.760000E+03	6.452165E-16	1.282599E-16
1.800000E+03	5.951470E-16	1.046651E-16
1.840000E+03	5.511422E-16	8.464100E-17
1.880000E+03	5.129282E-16	6.778009E-17
1.920000E+03	4.803895E-16	5.376591E-17
1.960000E+03	4.530286E-16	4.234202E-17
2.000000E+03	4.307877E-16	3.346135E-17
2.040000E+03	4.133580E-16	2.724635E-17
2.080000E+03	4.004071E-16	2.390147E-17
2.120000E+03	3.919313E-16	2.325303E-17
2.160000E+03	3.876372E-16	2.440221E-17
2.200000E+03	3.874153E-16	2.637477E-17
2.240000E+03	3.911348E-16	2.854027E-17
2.280000E+03	3.986431E-16	3.055297E-17
2.320000E+03	4.100411E-16	3.221516E-17
2.360000E+03	4.251873E-16	3.334788E-17
2.400000E+03	4.441295E-16	3.379981E-17
2.440000E+03	4.667077E-16	3.343401E-17
2.480000E+03	4.927115E-16	3.220181E-17
2.520000E+03	5.216738E-16	3.026645E-17
2.560000E+03	5.530390E-16	2.827984E-17
2.600000E+03	5.858780E-16	2.767714E-17
2.640000E+03	6.189699E-16	3.027929E-17
2.680000E+03	6.517696E-16	3.656021E-17
2.720000E+03	6.840641E-16	4.544351E-17
2.760000E+03	7.157886E-16	5.568363E-17
2.800000E+03	7.468927E-16	6.635424E-17
2.840000E+03	7.773682E-16	7.679419E-17
2.880000E+03	8.070772E-16	8.648665E-17
2.920000E+03	8.362824E-16	9.505515E-17
2.960000E+03	8.652561E-16	1.022008E-16
3.000000E+03	8.945900E-16	1.077225E-16
3.010000E+03	9.020508E-16	1.088307E-16
3.020000E+03	9.096322E-16	1.098322E-16
3.030000E+03	9.173432E-16	1.107250E-16
3.040000E+03	9.250855E-16	1.114945E-16
3.050000E+03	9.328676E-16	1.121389E-16
3.060000E+03	9.409147E-16	1.126829E-16
3.070000E+03	9.490203E-16	1.130991E-16
3.080000E+03	9.574110E-16	1.134121E-16
3.090000E+03	9.658796E-16	1.135948E-16
3.100000E+03	9.745442E-16	1.136591E-16
3.110000E+03	9.834150E-16	1.136038E-16
3.120000E+03	9.925016E-16	1.134281E-16
3.130000E+03	1.001814E-15	1.131308E-16
3.140000E+03	1.011471E-15	1.127233E-16
3.150000E+03	1.021263E-15	1.121802E-16
3.160000E+03	1.031419E-15	1.115249E-16
3.170000E+03	1.041948E-15	1.107563E-16
3.180000E+03	1.052748E-15	1.098615E-16
3.190000E+03	1.063937E-15	1.088512E-16
3.200000E+03	1.075410E-15	1.077131E-16
3.210000E+03	1.087399E-15	1.064690E-16
3.220000E+03	1.099684E-15	1.050956E-16
3.230000E+03	1.112380E-15	1.036034E-16
3.240000E+03	1.125491E-15	1.019921E-16
3.250000E+03	1.139131E-15	1.002715E-16
3.260000E+03	1.153186E-15	9.843134E-17
3.270000E+03	1.167653E-15	9.647239E-17
3.280000E+03	1.182640E-15	9.440542E-17
3.290000E+03	1.198143E-15	9.223193E-17
3.300000E+03	1.214149E-15	8.995445E-17
3.310000E+03	1.230645E-15	8.757683E-17
3.320000E+03	1.247732E-15	8.511263E-17
3.330000E+03	1.265271E-15	8.256070E-17
3.340000E+03	1.283238E-15	7.993107E-17
3.350000E+03	1.301721E-15	7.724395E-17
3.360000E+03	1.320807E-15	7.452198E-17
3.370000E+03	1.340219E-15	7.177158E-17
3.380000E+03	1.360154E-15	6.903163E-17
3.390000E+03	1.380444E-15	6.632714E-17
3.400000E+03	1.401280E-15	6.370801E-17
3.410000E+03	1.422363E-15	6.120838E-17
3.420000E+03	1.443878E-15	5.889238E-17
3.430000E+03	1.465637E-15	5.681471E-17
3.440000E+03	1.487699E-15	5.504491E-17
3.450000E+03	1.509994E-15	5.364793E-17
3.460000E+03	1.532457E-15	5.268308E-17
3.470000E+03	1.555143E-15	5.220001E-17
3.480000E+03	1.577869E-15	5.221520E-17
3.490000E+03	1.600717E-15	5.271474E-17
3.500000E+03	1.623654E-15	5.365157E-17
3.510000E+03	1.646774E-15	5.496470E-17
3.520000E+03	1.669931E-15	5.657554E-17
3.530000E+03	1.693224E-15	5.841179E-17
3.540000E+03	1.716633E-15	6.040054E-17
3.550000E+03	1.740139E-15	6.247555E-17
3.560000E+03	1.763847E-15	6.458335E-17
3.570000E+03	1.787620E-15	6.667028E-17
3.580000E+03	1.811566E-15	6.869989E-17
3.590000E+03	1.835557E-15	7.063427E-17
3.600000E+03	1.859830E-15	7.245614E-17
3.610000E+03	1.884269E-15	7.414033E-17
3.620000E+03	1.908886E-15	7.567152E-17
3.630000E+03	1.933708E-15	7.703897E-17
3.640000E+03	1.958893E-15	7.824077E-17
3.650000E+03	1.984383E-15	7.926926E-17
3.660000E+03	2.010263E-15	8.012489E-17
3.670000E+03	2.036877E-15	8.082044E-17
3.680000E+03	2.064136E-15	8.135315E-17
3.690000E+03	2.092227E-15	8.173250E-17
3.700000E+03	2.121601E-15	8.197954E-17
3.710000E+03	2.152307E-15	8.210029E-17
3.720000E+03	2.184780E-15	8.211682E-17
3.730000E+03	2.219285E-15	8.204537E-17
3.740000E+03	2.256362E-15	8.191340E-17
3.750000E+03	2.296491E-15	8.174682E-17
3.760000E+03	2.340194E-15	8.157410E-17
3.770000E+03	2.387914E-15	8.142185E-17
3.780000E+03	2.440320E-15	8.132465E-17
3.790000E+03	2.497817E-15	8.130731E-17
3.800000E+03	2.560950E-15	8.139765E-17
3.810000E+03	2.629924E-15	8.161117E-17
3.820000E+03	2.704902E-15	8.196128E-17
3.830000E+03	2.785847E-15	8.245476E-17
3.840000E+03	2.872494E-15	8.309146E-17
3.850000E+03	2.964322E-15	8.386354E-17
3.860000E+03	3.060408E-15	8.475130E-17
3.870000E+03	3.159894E-15	8.573694E-17
3.880000E+03	3.261059E-15	8.677965E-17
3.890000E+03	3.362528E-15	8.784899E-17
3.900000E+03	3.462360E-15	8.890118E-17
3.910000E+03	3.558458E-15	8.989107E-17
3.920000E+03	3.649023E-15	9.078337E-17
3.930000E+03	3.731656E-15	9.152965E-17
3.940000E+03	3.804716E-15	9.210090E-17
3.950000E+03	3.866440E-15	9.246381E-17
3.960000E+03	3.915542E-15	9.259508E-17
3.970000E+03	3.951045E-15	9.247701E-17
3.980000E+03	3.972598E-15	9.210422E-17
3.990000E+03	3.980480E-15	9.148408E-17
4.000000E+03	3.975110E-15	9.062526E-17
4.010000E+03	3.957613E-15	8.955031E-17
4.020000E+03	3.929598E-15	8.829094E-17
4.030000E+03	3.892725E-15	8.687801E-17
4.040000E+03	3.848943E-15	8.534684E-17
4.050000E+03	3.800176E-15	8.373183E-17
4.060000E+03	3.748438E-15	8.207044E-17
4.070000E+03	3.695645E-15	8.039936E-17
4.080000E+03	3.643566E-15	7.875421E-17
4.090000E+03	3.593698E-15	7.716647E-17
4.100000E+03	3.547423E-15	7.566582E-17
4.110000E+03	3.505902E-15	7.427731E-17
4.120000E+03	3.469975E-15	7.301824E-17
4.130000E+03	3.440410E-15	7.190225E-17
4.140000E+03	3.417582E-15	7.093337E-17
4.150000E+03	3.401656E-15	7.011061E-17
4.160000E+03	3.392744E-15	6.943104E-17
4.170000E+03	3.390613E-15	6.888441E-17
4.180000E+03	3.395008E-15	6.845951E-17
4.190000E+03	3.405286E-15	6.813566E-17
4.200000E+03	3.420876E-15	6.789190E-17
4.210000E+03	3.440931E-15	6.769877E-17
4.220000E+03	3.464620E-15	6.752297E-17
4.230000E+03	3.490786E-15	6.732109E-17
4.240000E+03	3.518455E-15	6.705006E-17
4.250000E+03	3.546277E-15	6.665717E-17
4.260000E+03	3.573054E-15	6.609371E-17
4.270000E+03	3.597482E-15	6.531431E-17
4.280000E+03	3.618137E-15	6.428050E-17
4.290000E+03	3.633945E-15	6.297442E-17
4.300000E+03	3.643847E-15	6.139694E-17
4.310000E+03	3.646884E-15	5.957238E-17
4.320000E+03	3.642604E-15	5.755798E-17
4.330000E+03	3.630857E-15	5.543996E-17
4.340000E+03	3.611855E-15	5.333050E-17
4.350000E+03	3.586378E-15	5.136369E-17
4.360000E+03	3.555579E-15	4.967702E-17
4.370000E+03	3.521145E-15	4.837526E-17
4.380000E+03	3.485665E-15	4.749095E-17
4.390000E+03	3.451908E-15	4.702362E-17
4.400000E+03	3.422785E-15	4.696362E-17
4.410000E+03	3.400848E-15	4.729492E-17
4.420000E+03	3.388594E-15	4.800066E-17
4.430000E+03	3.388334E-15	4.905831E-17
4.440000E+03	3.402135E-15	5.044451E-17
4.450000E+03	3.431756E-15	5.213847E-17
4.460000E+03	3.478469E-15	5.412095E-17
4.470000E+03	3.543299E-15	5.637923E-17
4.480000E+03	3.626822E-15	5.890301E-17
4.490000E+03	3.728904E-15	6.167762E-17
4.500000E+03	3.849016E-15	6.468802E-17
4.510000E+03	3.985693E-15	6.790820E-17
4.520000E+03	4.136810E-15	7.130319E-17
4.530000E+03	4.299283E-15	7.482386E-17
4.540000E+03	4.469049E-15	7.840547E-17
4.550000E+03	4.641221E-15	8.196872E-17
4.560000E+03	4.810153E-15	8.542204E-17
4.570000E+03	4.969694E-15	8.866669E-17
4.580000E+03	5.113470E-15	9.160093E-17
4.590000E+03	5.235492E-15	9.413209E-17
4.600000E+03	5.330279E-15	9.617834E-17
4.610000E+03	5.393831E-15	9.768375E-17
4.620000E+03	5.423339E-15	9.861204E-17
4.630000E+03	5.418237E-15	9.896309E-17
4.640000E+03	5.379435E-15	9.875539E-17
4.650000E+03	5.309829E-15	9.803561E-17
4.660000E+03	5.213911E-15	9.687157E-17
4.670000E+03	5.096896E-15	9.533622E-17
4.680000E+03	4.964860E-15	9.351454E-17
4.690000E+03	4.823965E-15	9.149270E-17
4.700000E+03	4.679884E-15	8.934943E-17
4.710000E+03	4.537840E-15	8.716095E-17
4.720000E+03	4.402332E-15	8.499822E-17
4.730000E+03	4.276868E-15	8.292163E-17
4.740000E+03	4.164214E-15	8.098549E-17
4.750000E+03	4.066289E-15	7.923400E-17
4.760000E+03	3.984281E-15	7.770054E-17
4.770000E+03	3.918768E-15	7.640717E-17
4.780000E+03	3.869900E-15	7.536486E-17
4.790000E+03	3.837282E-15	7.456943E-17
4.800000E+03	3.820181E-15	7.400867E-17
4.810000E+03	3.817584E-15	7.366745E-17
4.820000E+03	3.828333E-15	7.353301E-17
4.830000E+03	3.851001E-15	7.359478E-17
4.840000E+03	3.884141E-15	7.384945E-17
4.850000E+03	3.925887E-15	7.429103E-17
4.860000E+03	3.974166E-15	7.491156E-17
4.870000E+03	4.026642E-15	7.569308E-17
4.880000E+03	4.080420E-15	7.659505E-17
4.890000E+03	4.132399E-15	7.755916E-17
4.900000E+03	4.179445E-15	7.851145E-17
4.910000E+03	4.218340E-15	7.936150E-17
4.920000E+03	4.246161E-15	8.001553E-17
4.930000E+03	4.260508E-15	8.038795E-17
4.940000E+03	4.259615E-15	8.040887E-17
4.950000E+03	4.242486E-15	8.003108E-17
4.960000E+03	4.209184E-15	7.923723E-17
4.970000E+03	4.160618E-15	7.803581E-17
4.980000E+03	4.098490E-15	7.646111E-17
4.990000E+03	4.025257E-15	7.457212E-17
5.000000E+03	3.943803E-15	7.244429E-17
5.010000E+03	3.857302E-15	7.016574E-17
5.020000E+03	3.768909E-15	6.782850E-17
5.030000E+03	3.681588E-15	6.552098E-17
5.040000E+03	3.598158E-15	6.332426E-17
5.050000E+03	3.520917E-15	6.129966E-17
5.060000E+03	3.451931E-15	5.949060E-17
5.070000E+03	3.392826E-15	5.792209E-17
5.080000E+03	3.344904E-15	5.660622E-17
5.090000E+03	3.309291E-15	5.554701E-17
5.100000E+03	3.286908E-15	5.474333E-17
5.110000E+03	3.278401E-15	5.418936E-17
5.120000E+03	3.284393E-15	5.387911E-17
5.130000E+03	3.305246E-15	5.380452E-17
5.140000E+03	3.341229E-15	5.395901E-17
5.150000E+03	3.392338E-15	5.433415E-17
5.160000E+03	3.458411E-15	5.492216E-17
5.170000E+03	3.538973E-15	5.571266E-17
5.180000E+03	3.633215E-15	5.669027E-17
5.190000E+03	3.739949E-15	5.783476E-17
5.200000E+03	3.857586E-15	5.911988E-17
5.210000E+03	3.984120E-15	6.051147E-17
5.220000E+03	4.117139E-15	6.196955E-17
5.230000E+03	4.253934E-15	6.345082E-17
5.240000E+03	4.391425E-15	6.490647E-17
5.250000E+03	4.526596E-15	6.629038E-17
5.260000E+03	4.656412E-15	6.755709E-17
5.270000E+03	4.778035E-15	6.866153E-17
5.280000E+03	4.889330E-15	6.956605E-17
5.290000E+03	4.988822E-15	7.023668E-17
5.300000E+03	5.075948E-15	7.064266E-17
5.310000E+03	5.151261E-15	7.076156E-17
5.320000E+03	5.216463E-15	7.058139E-17
5.330000E+03	5.274227E-15	7.009781E-17
5.340000E+03	5.328257E-15	6.931980E-17
5.350000E+03	5.382856E-15	6.826668E-17
5.360000E+03	5.442939E-15	6.696909E-17
5.370000E+03	5.513574E-15	6.547024E-17
5.380000E+03	5.599945E-15	6.383291E-17
5.390000E+03	5.706925E-15	6.214541E-17
5.400000E+03	5.839191E-15	6.054788E-17
5.410000E+03	6.000940E-15	5.925688E-17
5.420000E+03	6.195685E-15	5.858166E-17
5.430000E+03	6.426150E-15	5.891578E-17
5.440000E+03	6.693405E-15	6.063465E-17
5.450000E+03	6.995914E-15	6.389456E-17
5.460000E+03	7.328436E-15	6.859315E-17
5.470000E+03	7.682542E-15	7.443677E-17
5.480000E+03	8.047338E-15	8.104650E-17
5.490000E+03	8.409511E-15	8.802756E-17
5.500000E+03	8.754658E-15	9.501353E-17
5.510000E+03	9.068042E-15	1.016788E-16
5.520000E+03	9.335691E-15	1.077558E-16
5.530000E+03	9.545348E-15	1.130388E-16
5.540000E+03	9.687788E-15	1.173836E-16
5.550000E+03	9.757144E-15	1.207071E-16
5.560000E+03	9.751855E-15	1.229909E-16
5.570000E+03	9.673791E-15	1.242564E-16
5.580000E+03	9.529009E-15	1.245745E-16
5.590000E+03	9.326357E-15	1.240470E-16
5.600000E+03	9.077149E-15	1.227936E-16
5.610000E+03	8.793818E-15	1.209373E-16
5.620000E+03	8.489292E-15	1.185954E-16
5.630000E+03	8.175818E-15	1.158651E-16
5.640000E+03	7.864699E-15	1.128385E-16
5.650000E+03	7.565534E-15	1.096093E-16
5.660000E+03	7.286337E-15	1.062790E-16
5.670000E+03	7.033262E-15	1.029566E-16
5.680000E+03	6.811001E-15	9.976113E-17
5.690000E+03	6.622701E-15	9.681057E-17
5.700000E+03	6.470058E-15	9.421187E-17
5.710000E+03	6.353836E-15	9.205376E-17
5.720000E+03	6.273232E-15	9.038709E-17
5.730000E+03	6.226734E-15	8.923912E-17
5.740000E+03	6.211812E-15	8.860977E-17
5.750000E+03	6.225012E-15	8.847176E-17
5.760000E+03	6.262152E-15	8.877800E-17
5.770000E+03	6.318354E-15	8.946254E-17
5.780000E+03	6.388176E-15	9.044016E-17
5.790000E+03	6.465492E-15	9.161040E-17
5.800000E+03	6.544165E-15	9.287079E-17
5.810000E+03	6.617891E-15	9.411428E-17
5.820000E+03	6.680634E-15	9.524037E-17
5.830000E+03	6.727143E-15	9.616357E-17
5.840000E+03	6.752831E-15	9.680825E-17
5.850000E+03	6.754431E-15	9.711963E-17
5.860000E+03	6.729894E-15	9.706011E-17
5.870000E+03	6.678486E-15	9.660661E-17
5.880000E+03	6.600844E-15	9.575606E-17
5.890000E+03	6.498806E-15	9.452577E-17
5.900000E+03	6.375029E-15	9.294696E-17
5.910000E+03	6.232938E-15	9.106734E-17
5.920000E+03	6.076403E-15	8.894570E-17
5.930000E+03	5.909494E-15	8.664432E-17
5.940000E+03	5.736265E-15	8.422671E-17
5.950000E+03	5.560442E-15	8.175110E-17
5.960000E+03	5.385653E-15	7.927055E-17
5.970000E+03	5.214731E-15	7.682591E-17
5.980000E+03	5.050180E-15	7.445371E-17
5.990000E+03	4.893865E-15	7.218005E-17
6.000000E+03	4.747094E-15	7.002392E-17
6.010000E+03	4.610555E-15	6.799579E-17
6.020000E+03	4.484636E-15	6.610037E-17
6.030000E+03	4.369198E-15	6.433622E-17
6.040000E+03	4.263816E-15	6.270039E-17
6.050000E+03	4.167891E-15	6.118939E-17
6.060000E+03	4.080706E-15	5.980233E-17
6.070000E+03	4.001476E-15	5.854178E-17
6.080000E+03	3.929542E-15	5.741387E-17
6.090000E+03	3.864240E-15	5.642569E-17
6.100000E+03	3.805159E-15	5.558546E-17
6.110000E+03	3.752105E-15	5.489769E-17
6.120000E+03	3.705067E-15	5.436363E-17
6.130000E+03	3.664239E-15	5.398154E-17
6.140000E+03	3.630027E-15	5.374564E-17
6.150000E+03	3.602904E-15	5.364728E-17
6.160000E+03	3.583345E-15	5.367600E-17
6.170000E+03	3.571717E-15	5.381677E-17
6.180000E+03	3.568287E-15	5.405078E-17
6.190000E+03	3.573141E-15	5.435297E-17
6.200000E+03	3.586222E-15	5.469231E-17
6.210000E+03	3.607268E-15	5.503759E-17
6.220000E+03	3.635985E-15	5.536824E-17
6.230000E+03	3.672006E-15	5.567710E-17
6.240000E+03	3.714943E-15	5.596989E-17
6.250000E+03	3.764519E-15	5.626033E-17
6.260000E+03	3.820579E-15	5.656308E-17
6.270000E+03	3.883077E-15	5.689156E-17
6.280000E+03	3.951965E-15	5.725412E-17
6.290000E+03	4.027389E-15	5.765462E-17
6.300000E+03	4.109316E-15	5.808949E-17
6.310000E+03	4.197654E-15	5.855080E-17
6.320000E+03	4.292238E-15	5.902482E-17
6.330000E+03	4.392599E-15	5.948964E-17
6.340000E+03	4.498223E-15	5.991616E-17
6.350000E+03	4.608312E-15	6.026166E-17
6.360000E+03	4.722061E-15	6.047829E-17
6.370000E+03	4.838688E-15	6.051841E-17
6.380000E+03	4.957452E-15	6.033901E-17
6.390000E+03	5.077974E-15	5.991690E-17
6.400000E+03	5.200320E-15	5.926024E-17
6.410000E+03	5.325077E-15	5.842141E-17
6.420000E+03	5.453411E-15	5.752041E-17
6.430000E+03	5.587078E-15	5.676491E-17
6.440000E+03	5.728159E-15	5.644985E-17
6.450000E+03	5.878774E-15	5.692951E-17
6.460000E+03	6.040159E-15	5.853020E-17
6.470000E+03	6.211417E-15	6.139223E-17
6.480000E+03	6.388568E-15	6.539044E-17
6.490000E+03	6.565875E-15	7.024300E-17
6.500000E+03	6.736508E-15	7.560098E-17
6.510000E+03	6.893109E-15	8.111670E-17
6.520000E+03	7.028548E-15	8.648143E-17
6.530000E+03	7.136563E-15	9.143946E-17
6.540000E+03	7.211848E-15	9.579272E-17
6.550000E+03	7.250474E-15	9.940210E-17
6.560000E+03	7.250356E-15	1.021848E-16
6.570000E+03	7.210839E-15	1.041066E-16
6.580000E+03	7.132947E-15	1.051797E-16
6.590000E+03	7.019182E-15	1.054511E-16
6.600000E+03	6.873364E-15	1.049979E-16
6.610000E+03	6.700186E-15	1.039146E-16
6.620000E+03	6.504988E-15	1.023035E-16
6.630000E+03	6.293498E-15	1.002713E-16
6.640000E+03	6.071238E-15	9.791907E-17
6.650000E+03	5.843819E-15	9.534576E-17
6.660000E+03	5.616046E-15	9.263748E-17
6.670000E+03	5.392305E-15	8.987595E-17
6.680000E+03	5.176255E-15	8.713220E-17
6.690000E+03	4.970691E-15	8.446532E-17
6.700000E+03	4.777778E-15	8.192502E-17
6.710000E+03	4.598855E-15	7.954563E-17
6.720000E+03	4.434804E-15	7.735366E-17
6.730000E+03	4.285814E-15	7.536375E-17
6.740000E+03	4.151682E-15	7.358223E-17
6.750000E+03	4.031868E-15	7.200931E-17
6.760000E+03	3.925632E-15	7.064122E-17
6.770000E+03	3.832009E-15	6.946826E-17
6.780000E+03	3.749887E-15	6.847717E-17
6.790000E+03	3.678243E-15	6.765536E-17
6.800000E+03	3.615914E-15	6.698562E-17
6.810000E+03	3.561769E-15	6.645024E-17
6.820000E+03	3.514893E-15	6.603480E-17
6.830000E+03	3.474189E-15	6.571981E-17
6.840000E+03	3.438841E-15	6.549079E-17
6.850000E+03	3.407984E-15	6.533258E-17
6.860000E+03	3.380958E-15	6.523349E-17
6.870000E+03	3.356971E-15	6.517997E-17
6.880000E+03	3.335545E-15	6.516515E-17
6.890000E+03	3.316070E-15	6.517922E-17
6.900000E+03	3.298120E-15	6.521623E-17
6.910000E+03	3.281288E-15	6.527056E-17
6.920000E+03	3.265190E-15	6.533587E-17
6.930000E+03	3.249620E-15	6.540897E-17
6.940000E+03	3.234276E-15	6.548436E-17
6.950000E+03	3.219041E-15	6.555911E-17
6.960000E+03	3.203828E-15	6.563050E-17
6.970000E+03	3.188628E-15	6.569705E-17
6.980000E+03	3.173507E-15	6.575779E-17
6.990000E+03	3.158571E-15	6.581201E-17
7.000000E+03	3.144069E-15	6.586156E-17
7.010000E+03	3.130273E-15	6.590758E-17
7.020000E+03	3.117502E-15	6.595208E-17
7.030000E+03	3.106063E-15	6.599720E-17
7.040000E+03	3.096319E-15	6.604666E-17
7.050000E+03	3.088671E-15	6.610686E-17
7.060000E+03	3.083429E-15	6.618521E-17
7.070000E+03	3.080911E-15	6.629186E-17
7.080000E+03	3.081394E-15	6.643847E-17
7.090000E+03	3.085097E-15	6.663647E-17
7.100000E+03	3.092168E-15	6.689504E-17
7.110000E+03	3.102679E-15	6.722112E-17
7.120000E+03	3.116582E-15	6.761832E-17
7.130000E+03	3.133786E-15	6.808779E-17
7.140000E+03	3.154124E-15	6.862815E-17
7.150000E+03	3.177407E-15	6.923664E-17
7.160000E+03	3.203226E-15	6.990436E-17
7.170000E+03	3.231371E-15	7.062599E-17
7.180000E+03	3.261370E-15	7.138994E-17
7.190000E+03	3.292902E-15	7.218692E-17
7.200000E+03	3.325615E-15	7.300665E-17
7.210000E+03	3.359137E-15	7.383840E-17
7.220000E+03	3.393170E-15	7.467261E-17
7.230000E+03	3.427459E-15	7.550125E-17
7.240000E+03	3.461747E-15	7.631740E-17
7.250000E+03	3.495865E-15	7.711691E-17
7.260000E+03	3.529640E-15	7.789707E-17
7.270000E+03	3.563020E-15	7.865922E-17
7.280000E+03	3.595843E-15	7.940261E-17
7.290000E+03	3.628046E-15	8.012927E-17
7.300000E+03	3.659562E-15	8.084113E-17
7.310000E+03	3.690301E-15	8.153858E-17
7.320000E+03	3.720054E-15	8.221891E-17
7.330000E+03	3.748662E-15	8.288048E-17
7.340000E+03	3.775920E-15	8.351998E-17
7.350000E+03	3.801536E-15	8.413246E-17
7.360000E+03	3.825231E-15	8.471373E-17
7.370000E+03	3.846654E-15	8.525775E-17
7.380000E+03	3.865449E-15	8.575882E-17
7.390000E+03	3.881338E-15	8.621308E-17
7.400000E+03	3.894088E-15	8.661702E-17
7.410000E+03	3.903452E-15	8.696666E-17
7.420000E+03	3.909439E-15	8.726364E-17
7.430000E+03	3.912054E-15	8.750839E-17
7.440000E+03	3.911602E-15	8.770779E-17
7.450000E+03	3.908512E-15	8.787090E-17
7.460000E+03	3.903431E-15	8.801023E-17
7.470000E+03	3.897065E-15	8.813849E-17
7.480000E+03	3.890349E-15	8.827200E-17
7.490000E+03	3.884321E-15	8.842652E-17
7.500000E+03	3.880028E-15	8.861556E-17
7.510000E+03	3.878579E-15	8.885101E-17
7.520000E+03	3.880992E-15	8.913892E-17
7.530000E+03	3.888205E-15	8.948105E-17
7.540000E+03	3.901120E-15	8.987707E-17
7.550000E+03	3.920357E-15	9.031925E-17
7.560000E+03	3.946289E-15	9.079561E-17
7.570000E+03	3.979222E-15	9.129612E-17
7.580000E+03	4.019071E-15	9.180620E-17
7.590000E+03	4.065672E-15	9.231591E-17
7.600000E+03	4.118468E-15	9.281392E-17
7.610000E+03	4.176764E-15	9.329302E-17
7.620000E+03	4.239520E-15	9.374513E-17
7.630000E+03	4.305636E-15	9.416537E-17
7.640000E+03	4.373691E-15	9.454313E-17
7.650000E+03	4.442016E-15	9.486337E-17
7.660000E+03	4.508868E-15	9.510852E-17
7.670000E+03	4.572539E-15	9.525856E-17
7.680000E+03	4.631111E-15	9.528661E-17
7.690000E+03	4.682749E-15	9.516522E-17
7.700000E+03	4.725707E-15	9.486538E-17
7.710000E+03	4.758460E-15	9.436077E-17
7.720000E+03	4.779573E-15	9.362572E-17
7.730000E+03	4.787970E-15	9.263962E-17
7.740000E+03	4.782968E-15	9.139048E-17
7.750000E+03	4.764121E-15	8.987295E-17
7.760000E+03	4.731444E-15	8.809204E-17
