#wls	flux	fluxerr
1.600000E+03	1.412856E-15	3.993849E-16
1.640000E+03	1.267546E-15	3.278995E-16
1.680000E+03	1.134367E-15	2.664969E-16
1.720000E+03	1.013642E-15	2.143675E-16
1.760000E+03	9.055613E-16	1.706427E-16
1.800000E+03	8.094563E-16	1.342993E-16
1.840000E+03	7.251565E-16	1.044609E-16
1.880000E+03	6.521747E-16	8.025600E-17
1.920000E+03	5.897362E-16	6.087552E-17
1.960000E+03	5.374513E-16	4.568947E-17
2.000000E+03	4.945071E-16	3.420960E-17
2.040000E+03	4.603615E-16	2.622182E-17
2.080000E+03	4.344192E-16	2.168965E-17
2.120000E+03	4.159273E-16	2.024555E-17
2.160000E+03	4.046948E-16	2.077663E-17
2.200000E+03	4.004950E-16	2.223324E-17
2.240000E+03	4.029401E-16	2.408317E-17
2.280000E+03	4.117370E-16	2.613096E-17
2.320000E+03	4.269907E-16	2.822836E-17
2.360000E+03	4.486425E-16	3.014111E-17
2.400000E+03	4.769190E-16	3.161588E-17
2.440000E+03	5.116758E-16	3.236544E-17
2.480000E+03	5.527107E-16	3.215650E-17
2.520000E+03	5.996017E-16	3.096850E-17
2.560000E+03	6.516425E-16	2.937512E-17
2.600000E+03	7.081659E-16	2.918382E-17
2.640000E+03	7.683407E-16	3.320258E-17
2.680000E+03	8.305955E-16	4.236654E-17
2.720000E+03	8.930168E-16	5.523860E-17
2.760000E+03	9.538025E-16	7.012738E-17
2.800000E+03	1.011585E-15	8.570433E-17
2.840000E+03	1.065318E-15	1.009097E-16
2.880000E+03	1.113739E-15	1.148081E-16
2.920000E+03	1.156698E-15	1.266896E-16
2.960000E+03	1.194040E-15	1.359749E-16
3.000000E+03	1.226451E-15	1.423137E-16
3.010000E+03	1.233782E-15	1.434006E-16
3.020000E+03	1.241035E-15	1.443079E-16
3.030000E+03	1.248006E-15	1.450091E-16
3.040000E+03	1.254824E-15	1.455166E-16
3.050000E+03	1.261397E-15	1.458179E-16
3.060000E+03	1.267854E-15	1.459265E-16
3.070000E+03	1.274217E-15	1.458434E-16
3.080000E+03	1.280503E-15	1.455700E-16
3.090000E+03	1.286625E-15	1.450958E-16
3.100000E+03	1.292823E-15	1.444476E-16
3.110000E+03	1.299007E-15	1.436154E-16
3.120000E+03	1.305090E-15	1.425900E-16
3.130000E+03	1.311312E-15	1.413982E-16
3.140000E+03	1.317586E-15	1.400312E-16
3.150000E+03	1.323933E-15	1.384924E-16
3.160000E+03	1.330376E-15	1.367854E-16
3.170000E+03	1.337044E-15	1.349249E-16
3.180000E+03	1.343853E-15	1.329037E-16
3.190000E+03	1.350931E-15	1.307363E-16
3.200000E+03	1.358301E-15	1.284265E-16
3.210000E+03	1.365881E-15	1.259685E-16
3.220000E+03	1.373799E-15	1.233766E-16
3.230000E+03	1.382185E-15	1.206646E-16
3.240000E+03	1.390851E-15	1.178184E-16
3.250000E+03	1.400033E-15	1.148613E-16
3.260000E+03	1.409755E-15	1.117978E-16
3.270000E+03	1.419937E-15	1.086250E-16
3.280000E+03	1.430710E-15	1.053569E-16
3.290000E+03	1.441993E-15	1.019924E-16
3.300000E+03	1.454021E-15	9.855339E-17
3.310000E+03	1.466816E-15	9.504657E-17
3.320000E+03	1.480297E-15	9.147315E-17
3.330000E+03	1.494585E-15	8.784897E-17
3.340000E+03	1.509695E-15	8.418415E-17
3.350000E+03	1.525636E-15	8.049063E-17
3.360000E+03	1.542514E-15	7.678785E-17
3.370000E+03	1.560323E-15	7.309224E-17
3.380000E+03	1.579051E-15	6.942432E-17
3.390000E+03	1.598882E-15	6.581846E-17
3.400000E+03	1.619577E-15	6.229732E-17
3.410000E+03	1.641194E-15	5.890519E-17
3.420000E+03	1.663886E-15	5.569830E-17
3.430000E+03	1.687475E-15	5.273160E-17
3.440000E+03	1.711977E-15	5.007740E-17
3.450000E+03	1.737283E-15	4.781204E-17
3.460000E+03	1.763478E-15	4.601910E-17
3.470000E+03	1.790320E-15	4.476385E-17
3.480000E+03	1.817818E-15	4.408483E-17
3.490000E+03	1.846105E-15	4.395960E-17
3.500000E+03	1.875272E-15	4.431834E-17
3.510000E+03	1.905619E-15	4.507587E-17
3.520000E+03	1.937117E-15	4.613394E-17
3.530000E+03	1.969922E-15	4.740399E-17
3.540000E+03	2.004170E-15	4.880895E-17
3.550000E+03	2.039858E-15	5.028300E-17
3.560000E+03	2.076960E-15	5.177316E-17
3.570000E+03	2.115307E-15	5.323600E-17
3.580000E+03	2.155024E-15	5.464629E-17
3.590000E+03	2.195785E-15	5.597509E-17
3.600000E+03	2.237449E-15	5.720570E-17
3.610000E+03	2.279836E-15	5.832735E-17
3.620000E+03	2.322731E-15	5.933308E-17
3.630000E+03	2.365883E-15	6.022054E-17
3.640000E+03	2.408792E-15	6.098612E-17
3.650000E+03	2.451355E-15	6.163917E-17
3.660000E+03	2.493026E-15	6.218190E-17
3.670000E+03	2.533595E-15	6.262768E-17
3.680000E+03	2.572691E-15	6.298525E-17
3.690000E+03	2.610120E-15	6.326874E-17
3.700000E+03	2.645711E-15	6.349262E-17
3.710000E+03	2.679608E-15	6.367466E-17
3.720000E+03	2.712239E-15	6.383746E-17
3.730000E+03	2.743945E-15	6.399860E-17
3.740000E+03	2.775595E-15	6.418039E-17
3.750000E+03	2.808271E-15	6.440661E-17
3.760000E+03	2.843215E-15	6.470183E-17
3.770000E+03	2.881774E-15	6.508596E-17
3.780000E+03	2.925479E-15	6.558090E-17
3.790000E+03	2.975856E-15	6.620699E-17
3.800000E+03	3.034269E-15	6.697596E-17
3.810000E+03	3.102072E-15	6.789912E-17
3.820000E+03	3.180318E-15	6.898274E-17
3.830000E+03	3.269824E-15	7.022720E-17
3.840000E+03	3.371075E-15	7.162933E-17
3.850000E+03	3.484173E-15	7.318321E-17
3.860000E+03	3.608500E-15	7.487197E-17
3.870000E+03	3.743219E-15	7.668241E-17
3.880000E+03	3.886831E-15	7.859541E-17
3.890000E+03	4.036984E-15	8.057686E-17
3.900000E+03	4.190926E-15	8.259316E-17
3.910000E+03	4.345498E-15	8.460772E-17
3.920000E+03	4.496845E-15	8.656041E-17
3.930000E+03	4.641144E-15	8.839438E-17
3.940000E+03	4.774120E-15	9.004793E-17
3.950000E+03	4.891980E-15	9.145901E-17
3.960000E+03	4.991382E-15	9.257692E-17
3.970000E+03	5.069232E-15	9.335655E-17
3.980000E+03	5.123732E-15	9.376021E-17
3.990000E+03	5.154016E-15	9.376819E-17
4.000000E+03	5.160228E-15	9.338070E-17
4.010000E+03	5.143578E-15	9.260104E-17
4.020000E+03	5.106505E-15	9.146049E-17
4.030000E+03	5.051747E-15	9.000481E-17
4.040000E+03	4.983126E-15	8.829164E-17
4.050000E+03	4.904154E-15	8.638383E-17
4.060000E+03	4.818855E-15	8.436001E-17
4.070000E+03	4.730720E-15	8.227331E-17
4.080000E+03	4.643164E-15	8.018187E-17
4.090000E+03	4.559204E-15	7.814416E-17
4.100000E+03	4.481314E-15	7.619816E-17
4.110000E+03	4.411632E-15	7.438294E-17
4.120000E+03	4.351877E-15	7.273634E-17
4.130000E+03	4.303345E-15	7.127763E-17
4.140000E+03	4.266809E-15	7.002283E-17
4.150000E+03	4.243017E-15	6.899123E-17
4.160000E+03	4.231999E-15	6.817552E-17
4.170000E+03	4.233719E-15	6.757227E-17
4.180000E+03	4.247695E-15	6.717690E-17
4.190000E+03	4.273173E-15	6.696920E-17
4.200000E+03	4.309113E-15	6.693141E-17
4.210000E+03	4.354294E-15	6.704643E-17
4.220000E+03	4.406994E-15	6.726780E-17
4.230000E+03	4.465518E-15	6.755222E-17
4.240000E+03	4.527706E-15	6.785102E-17
4.250000E+03	4.591214E-15	6.808709E-17
4.260000E+03	4.653788E-15	6.818918E-17
4.270000E+03	4.712582E-15	6.808783E-17
4.280000E+03	4.764927E-15	6.770534E-17
4.290000E+03	4.807768E-15	6.698168E-17
4.300000E+03	4.838485E-15	6.589791E-17
4.310000E+03	4.854368E-15	6.445477E-17
4.320000E+03	4.853209E-15	6.271277E-17
4.330000E+03	4.833300E-15	6.079576E-17
4.340000E+03	4.793996E-15	5.886771E-17
4.350000E+03	4.735335E-15	5.713185E-17
4.360000E+03	4.658714E-15	5.579317E-17
4.370000E+03	4.567461E-15	5.494613E-17
4.380000E+03	4.467155E-15	5.453901E-17
4.390000E+03	4.364274E-15	5.446625E-17
4.400000E+03	4.265093E-15	5.462673E-17
4.410000E+03	4.175386E-15	5.496354E-17
4.420000E+03	4.100545E-15	5.546069E-17
4.430000E+03	4.044936E-15	5.610344E-17
4.440000E+03	4.012714E-15	5.690235E-17
4.450000E+03	4.007230E-15	5.788483E-17
4.460000E+03	4.031133E-15	5.907863E-17
4.470000E+03	4.086601E-15	6.052065E-17
4.480000E+03	4.175539E-15	6.225639E-17
4.490000E+03	4.299271E-15	6.432183E-17
4.500000E+03	4.458714E-15	6.675652E-17
4.510000E+03	4.654084E-15	6.959307E-17
4.520000E+03	4.884527E-15	7.282583E-17
4.530000E+03	5.147795E-15	7.643252E-17
4.540000E+03	5.439999E-15	8.037558E-17
4.550000E+03	5.755165E-15	8.457040E-17
4.560000E+03	6.084976E-15	8.891349E-17
4.570000E+03	6.419022E-15	9.329312E-17
4.580000E+03	6.744820E-15	9.755878E-17
4.590000E+03	7.048608E-15	1.015673E-16
4.600000E+03	7.316044E-15	1.051857E-16
4.610000E+03	7.534142E-15	1.082583E-16
4.620000E+03	7.692077E-15	1.106661E-16
4.630000E+03	7.782086E-15	1.123346E-16
4.640000E+03	7.801439E-15	1.131940E-16
4.650000E+03	7.752037E-15	1.132407E-16
4.660000E+03	7.639161E-15	1.125275E-16
4.670000E+03	7.472924E-15	1.111322E-16
4.680000E+03	7.265087E-15	1.091743E-16
4.690000E+03	7.028790E-15	1.068183E-16
4.700000E+03	6.776964E-15	1.042057E-16
4.710000E+03	6.521789E-15	1.014893E-16
4.720000E+03	6.273853E-15	9.881289E-17
4.730000E+03	6.041330E-15	9.625315E-17
4.740000E+03	5.830688E-15	9.387602E-17
4.750000E+03	5.646475E-15	9.173839E-17
4.760000E+03	5.491126E-15	8.985661E-17
4.770000E+03	5.366076E-15	8.824814E-17
4.780000E+03	5.271697E-15	8.693124E-17
4.790000E+03	5.207431E-15	8.590797E-17
4.800000E+03	5.172239E-15	8.518664E-17
4.810000E+03	5.164766E-15	8.478030E-17
4.820000E+03	5.183183E-15	8.468278E-17
4.830000E+03	5.225379E-15	8.489371E-17
4.840000E+03	5.289028E-15	8.541613E-17
4.850000E+03	5.371522E-15	8.622674E-17
4.860000E+03	5.469901E-15	8.730471E-17
4.870000E+03	5.580668E-15	8.863197E-17
4.880000E+03	5.699884E-15	9.016733E-17
4.890000E+03	5.822764E-15	9.186558E-17
4.900000E+03	5.943969E-15	9.367788E-17
4.910000E+03	6.057362E-15	9.551048E-17
4.920000E+03	6.156317E-15	9.725823E-17
4.930000E+03	6.234397E-15	9.880853E-17
4.940000E+03	6.286037E-15	1.000087E-16
4.950000E+03	6.306577E-15	1.007148E-16
4.960000E+03	6.293005E-15	1.008210E-16
4.970000E+03	6.244715E-15	1.002516E-16
4.980000E+03	6.162711E-15	9.898390E-17
4.990000E+03	6.049929E-15	9.705806E-17
5.000000E+03	5.910997E-15	9.454742E-17
5.010000E+03	5.751836E-15	9.157080E-17
5.020000E+03	5.578760E-15	8.826394E-17
5.030000E+03	5.398477E-15	8.474140E-17
5.040000E+03	5.217565E-15	8.112267E-17
5.050000E+03	5.041828E-15	7.752826E-17
5.060000E+03	4.876105E-15	7.405730E-17
5.070000E+03	4.724552E-15	7.080830E-17
5.080000E+03	4.590349E-15	6.786546E-17
5.090000E+03	4.475856E-15	6.527367E-17
5.100000E+03	4.383045E-15	6.307470E-17
5.110000E+03	4.313219E-15	6.130211E-17
5.120000E+03	4.267366E-15	5.996038E-17
5.130000E+03	4.246300E-15	5.905825E-17
5.140000E+03	4.250603E-15	5.860683E-17
5.150000E+03	4.280558E-15	5.858777E-17
5.160000E+03	4.336267E-15	5.898839E-17
5.170000E+03	4.417780E-15	5.980259E-17
5.180000E+03	4.524535E-15	6.098667E-17
5.190000E+03	4.655818E-15	6.250107E-17
5.200000E+03	4.810357E-15	6.431049E-17
5.210000E+03	4.986237E-15	6.635174E-17
5.220000E+03	5.180943E-15	6.856612E-17
5.230000E+03	5.391194E-15	7.089987E-17
5.240000E+03	5.613009E-15	7.327063E-17
5.250000E+03	5.841801E-15	7.560409E-17
5.260000E+03	6.072392E-15	7.783311E-17
5.270000E+03	6.299496E-15	7.985628E-17
5.280000E+03	6.517919E-15	8.158719E-17
5.290000E+03	6.722869E-15	8.296368E-17
5.300000E+03	6.910623E-15	8.390705E-17
5.310000E+03	7.078750E-15	8.437726E-17
5.320000E+03	7.226505E-15	8.438196E-17
5.330000E+03	7.355326E-15	8.392708E-17
5.340000E+03	7.468679E-15	8.306877E-17
5.350000E+03	7.571828E-15	8.188615E-17
5.360000E+03	7.672714E-15	8.038896E-17
5.370000E+03	7.780836E-15	7.861864E-17
5.380000E+03	7.906230E-15	7.666823E-17
5.390000E+03	8.059500E-15	7.461781E-17
5.400000E+03	8.251156E-15	7.266287E-17
5.410000E+03	8.491333E-15	7.115971E-17
5.420000E+03	8.787707E-15	7.053986E-17
5.430000E+03	9.146593E-15	7.141884E-17
5.440000E+03	9.571581E-15	7.433998E-17
5.450000E+03	1.006127E-14	7.924131E-17
5.460000E+03	1.060794E-14	8.569712E-17
5.470000E+03	1.119888E-14	9.319881E-17
5.480000E+03	1.181648E-14	1.011361E-16
5.490000E+03	1.243946E-14	1.090515E-16
5.500000E+03	1.304329E-14	1.166618E-16
5.510000E+03	1.360380E-14	1.236422E-16
5.520000E+03	1.409715E-14	1.298363E-16
5.530000E+03	1.450161E-14	1.352423E-16
5.540000E+03	1.480046E-14	1.397072E-16
5.550000E+03	1.498217E-14	1.431916E-16
5.560000E+03	1.504024E-14	1.457638E-16
5.570000E+03	1.497462E-14	1.473005E-16
5.580000E+03	1.479019E-14	1.477707E-16
5.590000E+03	1.449665E-14	1.472700E-16
5.600000E+03	1.410790E-14	1.457792E-16
5.610000E+03	1.364038E-14	1.433849E-16
5.620000E+03	1.311279E-14	1.402806E-16
5.630000E+03	1.254523E-14	1.365609E-16
5.640000E+03	1.195743E-14	1.323868E-16
5.650000E+03	1.136772E-14	1.279588E-16
5.660000E+03	1.079344E-14	1.233620E-16
5.670000E+03	1.024932E-14	1.187169E-16
5.680000E+03	9.746681E-15	1.141806E-16
5.690000E+03	9.294428E-15	1.098508E-16
5.700000E+03	8.898581E-15	1.058516E-16
5.710000E+03	8.562839E-15	1.023260E-16
5.720000E+03	8.288522E-15	9.934513E-17
5.730000E+03	8.075663E-15	9.699594E-17
5.740000E+03	7.922959E-15	9.536173E-17
5.750000E+03	7.827542E-15	9.442679E-17
5.760000E+03	7.785930E-15	9.418335E-17
5.770000E+03	7.794002E-15	9.463169E-17
5.780000E+03	7.846306E-15	9.568405E-17
5.790000E+03	7.936960E-15	9.726662E-17
5.800000E+03	8.059226E-15	9.932178E-17
5.810000E+03	8.205241E-15	1.017230E-16
5.820000E+03	8.366344E-15	1.043594E-16
5.830000E+03	8.533246E-15	1.071411E-16
5.840000E+03	8.696459E-15	1.099196E-16
5.850000E+03	8.846163E-15	1.125653E-16
5.860000E+03	8.972918E-15	1.149755E-16
5.870000E+03	9.068885E-15	1.169998E-16
5.880000E+03	9.127257E-15	1.185193E-16
5.890000E+03	9.143013E-15	1.194650E-16
5.900000E+03	9.113539E-15	1.197469E-16
5.910000E+03	9.038421E-15	1.193339E-16
5.920000E+03	8.919348E-15	1.182577E-16
5.930000E+03	8.760139E-15	1.165404E-16
5.940000E+03	8.565942E-15	1.142555E-16
5.950000E+03	8.343190E-15	1.115260E-16
5.960000E+03	8.099029E-15	1.084492E-16
5.970000E+03	7.840669E-15	1.051478E-16
5.980000E+03	7.575045E-15	1.017507E-16
5.990000E+03	7.308436E-15	9.831885E-17
6.000000E+03	7.046285E-15	9.491705E-17
6.010000E+03	6.792951E-15	9.161573E-17
6.020000E+03	6.551367E-15	8.843397E-17
6.030000E+03	6.323512E-15	8.540144E-17
6.040000E+03	6.110662E-15	8.255795E-17
6.050000E+03	5.912808E-15	7.989579E-17
6.060000E+03	5.729407E-15	7.741746E-17
6.070000E+03	5.559668E-15	7.513230E-17
6.080000E+03	5.402464E-15	7.300567E-17
6.090000E+03	5.256626E-15	7.101554E-17
6.100000E+03	5.121179E-15	6.915945E-17
6.110000E+03	4.995512E-15	6.741913E-17
6.120000E+03	4.879280E-15	6.579920E-17
6.130000E+03	4.772424E-15	6.432591E-17
6.140000E+03	4.675510E-15	6.301469E-17
6.150000E+03	4.589256E-15	6.189687E-17
6.160000E+03	4.514634E-15	6.101068E-17
6.170000E+03	4.452992E-15	6.035779E-17
6.180000E+03	4.405613E-15	5.994070E-17
6.190000E+03	4.373710E-15	5.976517E-17
6.200000E+03	4.358157E-15	5.980112E-17
6.210000E+03	4.359721E-15	6.002383E-17
6.220000E+03	4.378825E-15	6.041732E-17
6.230000E+03	4.415278E-15	6.094548E-17
6.240000E+03	4.468877E-15	6.158849E-17
6.250000E+03	4.539077E-15	6.234308E-17
6.260000E+03	4.625289E-15	6.320588E-17
6.270000E+03	4.726747E-15	6.419157E-17
6.280000E+03	4.842799E-15	6.532788E-17
6.290000E+03	4.972780E-15	6.661485E-17
6.300000E+03	5.116180E-15	6.806117E-17
6.310000E+03	5.272403E-15	6.967716E-17
6.320000E+03	5.440991E-15	7.142897E-17
6.330000E+03	5.621387E-15	7.328394E-17
6.340000E+03	5.813081E-15	7.522214E-17
6.350000E+03	6.015219E-15	7.719025E-17
6.360000E+03	6.227005E-15	7.915006E-17
6.370000E+03	6.447569E-15	8.107686E-17
6.380000E+03	6.675880E-15	8.290642E-17
6.390000E+03	6.911177E-15	8.459995E-17
6.400000E+03	7.153053E-15	8.616261E-17
6.410000E+03	7.401423E-15	8.760501E-17
6.420000E+03	7.656860E-15	8.902165E-17
6.430000E+03	7.920568E-15	9.061658E-17
6.440000E+03	8.194571E-15	9.265907E-17
6.450000E+03	8.481048E-15	9.551134E-17
6.460000E+03	8.781596E-15	9.955157E-17
6.470000E+03	9.094948E-15	1.049143E-16
6.480000E+03	9.415837E-15	1.114369E-16
6.490000E+03	9.735991E-15	1.188020E-16
6.500000E+03	1.004629E-14	1.266079E-16
6.510000E+03	1.033704E-14	1.344746E-16
6.520000E+03	1.059826E-14	1.420747E-16
6.530000E+03	1.082093E-14	1.490994E-16
6.540000E+03	1.099704E-14	1.553167E-16
6.550000E+03	1.112004E-14	1.605741E-16
6.560000E+03	1.118538E-14	1.647380E-16
6.570000E+03	1.119068E-14	1.677485E-16
6.580000E+03	1.113562E-14	1.696111E-16
6.590000E+03	1.102203E-14	1.703382E-16
6.600000E+03	1.085371E-14	1.699943E-16
6.610000E+03	1.063618E-14	1.686919E-16
6.620000E+03	1.037636E-14	1.665326E-16
6.630000E+03	1.008163E-14	1.636419E-16
6.640000E+03	9.760427E-15	1.601763E-16
6.650000E+03	9.420700E-15	1.562552E-16
6.660000E+03	9.070556E-15	1.520148E-16
6.670000E+03	8.717111E-15	1.475894E-16
6.680000E+03	8.366936E-15	1.430819E-16
6.690000E+03	8.025535E-15	1.385912E-16
6.700000E+03	7.697366E-15	1.342110E-16
6.710000E+03	7.385923E-15	1.300002E-16
6.720000E+03	7.093480E-15	1.260080E-16
6.730000E+03	6.821887E-15	1.222852E-16
6.740000E+03	6.571694E-15	1.188439E-16
6.750000E+03	6.343184E-15	1.156993E-16
6.760000E+03	6.135823E-15	1.128591E-16
6.770000E+03	5.948943E-15	1.103147E-16
6.780000E+03	5.781362E-15	1.080544E-16
6.790000E+03	5.631811E-15	1.060701E-16
6.800000E+03	5.498961E-15	1.043411E-16
6.810000E+03	5.381273E-15	1.028476E-16
6.820000E+03	5.277342E-15	1.015765E-16
6.830000E+03	5.185724E-15	1.005028E-16
6.840000E+03	5.104942E-15	9.960462E-17
6.850000E+03	5.033702E-15	9.886728E-17
6.860000E+03	4.970808E-15	9.826735E-17
6.870000E+03	4.914932E-15	9.778231E-17
6.880000E+03	4.865018E-15	9.739860E-17
6.890000E+03	4.820071E-15	9.709433E-17
6.900000E+03	4.779112E-15	9.685146E-17
6.910000E+03	4.741435E-15	9.666110E-17
6.920000E+03	4.706270E-15	9.650469E-17
6.930000E+03	4.672997E-15	9.637012E-17
6.940000E+03	4.641083E-15	9.625060E-17
6.950000E+03	4.610131E-15	9.613441E-17
6.960000E+03	4.579832E-15	9.601496E-17
6.970000E+03	4.549972E-15	9.589090E-17
6.980000E+03	4.520476E-15	9.575659E-17
6.990000E+03	4.491296E-15	9.561011E-17
7.000000E+03	4.462654E-15	9.545870E-17
7.010000E+03	4.434663E-15	9.530113E-17
7.020000E+03	4.407744E-15	9.514620E-17
7.030000E+03	4.382132E-15	9.500226E-17
7.040000E+03	4.358268E-15	9.487691E-17
7.050000E+03	4.336739E-15	9.478429E-17
7.060000E+03	4.317832E-15	9.473527E-17
7.070000E+03	4.302209E-15	9.474334E-17
7.080000E+03	4.290207E-15	9.481785E-17
7.090000E+03	4.282234E-15	9.497244E-17
7.100000E+03	4.278648E-15	9.521384E-17
7.110000E+03	4.279797E-15	9.555115E-17
7.120000E+03	4.285773E-15	9.599026E-17
7.130000E+03	4.296755E-15	9.653334E-17
7.140000E+03	4.312832E-15	9.718299E-17
7.150000E+03	4.333764E-15	9.793690E-17
7.160000E+03	4.359574E-15	9.879331E-17
7.170000E+03	4.389828E-15	9.974273E-17
7.180000E+03	4.424323E-15	1.007835E-16
7.190000E+03	4.462598E-15	1.019032E-16
7.200000E+03	4.504189E-15	1.030923E-16
7.210000E+03	4.548523E-15	1.043414E-16
7.220000E+03	4.595083E-15	1.056376E-16
7.230000E+03	4.643392E-15	1.069722E-16
7.240000E+03	4.692840E-15	1.083365E-16
7.250000E+03	4.742868E-15	1.097182E-16
7.260000E+03	4.793058E-15	1.111119E-16
7.270000E+03	4.842803E-15	1.125112E-16
7.280000E+03	4.891835E-15	1.139131E-16
7.290000E+03	4.939622E-15	1.153117E-16
7.300000E+03	4.985770E-15	1.167082E-16
7.310000E+03	5.029849E-15	1.180977E-16
7.320000E+03	5.071572E-15	1.194817E-16
7.330000E+03	5.110491E-15	1.208608E-16
7.340000E+03	5.146246E-15	1.222315E-16
7.350000E+03	5.178396E-15	1.235898E-16
7.360000E+03	5.206508E-15	1.249327E-16
7.370000E+03	5.230341E-15	1.262540E-16
7.380000E+03	5.249471E-15	1.275421E-16
7.390000E+03	5.263841E-15	1.287927E-16
7.400000E+03	5.273142E-15	1.299854E-16
7.410000E+03	5.277552E-15	1.311089E-16
7.420000E+03	5.277075E-15	1.321454E-16
7.430000E+03	5.272141E-15	1.330771E-16
7.440000E+03	5.263171E-15	1.338853E-16
7.450000E+03	5.250854E-15	1.345622E-16
7.460000E+03	5.235901E-15	1.351059E-16
7.470000E+03	5.219113E-15	1.355221E-16
7.480000E+03	5.201360E-15	1.358232E-16
7.490000E+03	5.183556E-15	1.360270E-16
7.500000E+03	5.166784E-15	1.361593E-16
7.510000E+03	5.151805E-15	1.362405E-16
7.520000E+03	5.139641E-15	1.362996E-16
7.530000E+03	5.131082E-15	1.363612E-16
7.540000E+03	5.126809E-15	1.364477E-16
7.550000E+03	5.127525E-15	1.365825E-16
7.560000E+03	5.133466E-15	1.367767E-16
7.570000E+03	5.144924E-15	1.370429E-16
7.580000E+03	5.162007E-15	1.373887E-16
7.590000E+03	5.184550E-15	1.378143E-16
7.600000E+03	5.212194E-15	1.383146E-16
7.610000E+03	5.244471E-15	1.388821E-16
7.620000E+03	5.280576E-15	1.394999E-16
7.630000E+03	5.319702E-15	1.401518E-16
7.640000E+03	5.360740E-15	1.408135E-16
7.650000E+03	5.402715E-15	1.414642E-16
7.660000E+03	5.444327E-15	1.420749E-16
7.670000E+03	5.484313E-15	1.426169E-16
7.680000E+03	5.521489E-15	1.430638E-16
7.690000E+03	5.554536E-15	1.433852E-16
7.700000E+03	5.582296E-15	1.435546E-16
7.710000E+03	5.603812E-15	1.435504E-16
7.720000E+03	5.618106E-15	1.433501E-16
7.730000E+03	5.624554E-15	1.429401E-16
7.740000E+03	5.622564E-15	1.423072E-16
7.750000E+03	5.611855E-15	1.414458E-16
7.760000E+03	5.592376E-15	1.403557E-16
