#wls	flux	fluxerr
1.600000E+03	6.569319E-16	2.011497E-16
1.640000E+03	6.138570E-16	1.730255E-16
1.680000E+03	5.743673E-16	1.480380E-16
1.720000E+03	5.384250E-16	1.259467E-16
1.760000E+03	5.059643E-16	1.065129E-16
1.800000E+03	4.768057E-16	8.949188E-17
1.840000E+03	4.511207E-16	7.472925E-17
1.880000E+03	4.286014E-16	6.201423E-17
1.920000E+03	4.092890E-16	5.124935E-17
1.960000E+03	3.929766E-16	4.237440E-17
2.000000E+03	3.796313E-16	3.544854E-17
2.040000E+03	3.692327E-16	3.061244E-17
2.080000E+03	3.616377E-16	2.796409E-17
2.120000E+03	3.568304E-16	2.732202E-17
2.160000E+03	3.546708E-16	2.807742E-17
2.200000E+03	3.550126E-16	2.952515E-17
2.240000E+03	3.578025E-16	3.112967E-17
2.280000E+03	3.628803E-16	3.253182E-17
2.320000E+03	3.702310E-16	3.351177E-17
2.360000E+03	3.797724E-16	3.391971E-17
2.400000E+03	3.913348E-16	3.365127E-17
2.440000E+03	4.048474E-16	3.267166E-17
2.480000E+03	4.201216E-16	3.103822E-17
2.520000E+03	4.369099E-16	2.899805E-17
2.560000E+03	4.548372E-16	2.713764E-17
2.600000E+03	4.736513E-16	2.651910E-17
2.640000E+03	4.930538E-16	2.831419E-17
2.680000E+03	5.127536E-16	3.275527E-17
2.720000E+03	5.328145E-16	3.911141E-17
2.760000E+03	5.531563E-16	4.650770E-17
2.800000E+03	5.738505E-16	5.428258E-17
2.840000E+03	5.951066E-16	6.197975E-17
2.880000E+03	6.170860E-16	6.926327E-17
2.920000E+03	6.401550E-16	7.589547E-17
2.960000E+03	6.646167E-16	8.167980E-17
3.000000E+03	6.907875E-16	8.644988E-17
3.010000E+03	6.976498E-16	8.746811E-17
3.020000E+03	7.046656E-16	8.841411E-17
3.030000E+03	7.118385E-16	8.928552E-17
3.040000E+03	7.191718E-16	9.007996E-17
3.050000E+03	7.266687E-16	9.079505E-17
3.060000E+03	7.343323E-16	9.142840E-17
3.070000E+03	7.421653E-16	9.197760E-17
3.080000E+03	7.501703E-16	9.244023E-17
3.090000E+03	7.584454E-16	9.282562E-17
3.100000E+03	7.668009E-16	9.310777E-17
3.110000E+03	7.755275E-16	9.331932E-17
3.120000E+03	7.843368E-16	9.342265E-17
3.130000E+03	7.934235E-16	9.343851E-17
3.140000E+03	8.027888E-16	9.336414E-17
3.150000E+03	8.123348E-16	9.318546E-17
3.160000E+03	8.220602E-16	9.290002E-17
3.170000E+03	8.321618E-16	9.252754E-17
3.180000E+03	8.424396E-16	9.204308E-17
3.190000E+03	8.529903E-16	9.145516E-17
3.200000E+03	8.638107E-16	9.076123E-17
3.210000E+03	8.749976E-16	8.996926E-17
3.220000E+03	8.863441E-16	8.905607E-17
3.230000E+03	8.979445E-16	8.803026E-17
3.240000E+03	9.098938E-16	8.690001E-17
3.250000E+03	9.220819E-16	8.565388E-17
3.260000E+03	9.346020E-16	8.430048E-17
3.270000E+03	9.473407E-16	8.282997E-17
3.280000E+03	9.604936E-16	8.126067E-17
3.290000E+03	9.737361E-16	7.956708E-17
3.300000E+03	9.873664E-16	7.777762E-17
3.310000E+03	1.001265E-15	7.588688E-17
3.320000E+03	1.015416E-15	7.389994E-17
3.330000E+03	1.029801E-15	7.182389E-17
3.340000E+03	1.044507E-15	6.967540E-17
3.350000E+03	1.059410E-15	6.745928E-17
3.360000E+03	1.074487E-15	6.519162E-17
3.370000E+03	1.089932E-15	6.290510E-17
3.380000E+03	1.105508E-15	6.061156E-17
3.390000E+03	1.121408E-15	5.835346E-17
3.400000E+03	1.137502E-15	5.616176E-17
3.410000E+03	1.153767E-15	5.408104E-17
3.420000E+03	1.170182E-15	5.216344E-17
3.430000E+03	1.186830E-15	5.047261E-17
3.440000E+03	1.203692E-15	4.907185E-17
3.450000E+03	1.220746E-15	4.802540E-17
3.460000E+03	1.237973E-15	4.739208E-17
3.470000E+03	1.255353E-15	4.721696E-17
3.480000E+03	1.272871E-15	4.752135E-17
3.490000E+03	1.290615E-15	4.829856E-17
3.500000E+03	1.308570E-15	4.951086E-17
3.510000E+03	1.326613E-15	5.109855E-17
3.520000E+03	1.344949E-15	5.300484E-17
3.530000E+03	1.363354E-15	5.515391E-17
3.540000E+03	1.382145E-15	5.749397E-17
3.550000E+03	1.400999E-15	5.995280E-17
3.560000E+03	1.420132E-15	6.248722E-17
3.570000E+03	1.439553E-15	6.505277E-17
3.580000E+03	1.459377E-15	6.761704E-17
3.590000E+03	1.479411E-15	7.013964E-17
3.600000E+03	1.499781E-15	7.260069E-17
3.610000E+03	1.520621E-15	7.498605E-17
3.620000E+03	1.541962E-15	7.728143E-17
3.630000E+03	1.563737E-15	7.947155E-17
3.640000E+03	1.586196E-15	8.156061E-17
3.650000E+03	1.609178E-15	8.353502E-17
3.660000E+03	1.632939E-15	8.540510E-17
3.670000E+03	1.657428E-15	8.716731E-17
3.680000E+03	1.682698E-15	8.882507E-17
3.690000E+03	1.709007E-15	9.039378E-17
3.700000E+03	1.736206E-15	9.186849E-17
3.710000E+03	1.764456E-15	9.326114E-17
3.720000E+03	1.793820E-15	9.457892E-17
3.730000E+03	1.824362E-15	9.582934E-17
3.740000E+03	1.856154E-15	9.701991E-17
3.750000E+03	1.889367E-15	9.816293E-17
3.760000E+03	1.924074E-15	9.926467E-17
3.770000E+03	1.960246E-15	1.003252E-16
3.780000E+03	1.997941E-15	1.013482E-16
3.790000E+03	2.037399E-15	1.023456E-16
3.800000E+03	2.078437E-15	1.033070E-16
3.810000E+03	2.121235E-15	1.042397E-16
3.820000E+03	2.165531E-15	1.051295E-16
3.830000E+03	2.211413E-15	1.059796E-16
3.840000E+03	2.258614E-15	1.067772E-16
3.850000E+03	2.306911E-15	1.075136E-16
3.860000E+03	2.356021E-15	1.081797E-16
3.870000E+03	2.405699E-15	1.087704E-16
3.880000E+03	2.455442E-15	1.092716E-16
3.890000E+03	2.504790E-15	1.096739E-16
3.900000E+03	2.553331E-15	1.099724E-16
3.910000E+03	2.600414E-15	1.101542E-16
3.920000E+03	2.645563E-15	1.102157E-16
3.930000E+03	2.687996E-15	1.101427E-16
3.940000E+03	2.727439E-15	1.099435E-16
3.950000E+03	2.763064E-15	1.096052E-16
3.960000E+03	2.794499E-15	1.091343E-16
3.970000E+03	2.821458E-15	1.085394E-16
3.980000E+03	2.843574E-15	1.078242E-16
3.990000E+03	2.860621E-15	1.069945E-16
4.000000E+03	2.872801E-15	1.060673E-16
4.010000E+03	2.880104E-15	1.050460E-16
4.020000E+03	2.882945E-15	1.039441E-16
4.030000E+03	2.881688E-15	1.027684E-16
4.040000E+03	2.876979E-15	1.015324E-16
4.050000E+03	2.869368E-15	1.002434E-16
4.060000E+03	2.859537E-15	9.891279E-17
4.070000E+03	2.848110E-15	9.754991E-17
4.080000E+03	2.835862E-15	9.617055E-17
4.090000E+03	2.823465E-15	9.478826E-17
4.100000E+03	2.811403E-15	9.341187E-17
4.110000E+03	2.800410E-15	9.205955E-17
4.120000E+03	2.790800E-15	9.073575E-17
4.130000E+03	2.783178E-15	8.945387E-17
4.140000E+03	2.777930E-15	8.821870E-17
4.150000E+03	2.775167E-15	8.702421E-17
4.160000E+03	2.775256E-15	8.586994E-17
4.170000E+03	2.778279E-15	8.474380E-17
4.180000E+03	2.784237E-15	8.362892E-17
4.190000E+03	2.793180E-15	8.250796E-17
4.200000E+03	2.804900E-15	8.135513E-17
4.210000E+03	2.819314E-15	8.014890E-17
4.220000E+03	2.836113E-15	7.886261E-17
4.230000E+03	2.855128E-15	7.747575E-17
4.240000E+03	2.876042E-15	7.596603E-17
4.250000E+03	2.898579E-15	7.431510E-17
4.260000E+03	2.922330E-15	7.250529E-17
4.270000E+03	2.947058E-15	7.052909E-17
4.280000E+03	2.972409E-15	6.838466E-17
4.290000E+03	2.998037E-15	6.608317E-17
4.300000E+03	3.023669E-15	6.365530E-17
4.310000E+03	3.048994E-15	6.115437E-17
4.320000E+03	3.073795E-15	5.866420E-17
4.330000E+03	3.097843E-15	5.630049E-17
4.340000E+03	3.120977E-15	5.421095E-17
4.350000E+03	3.143236E-15	5.256717E-17
4.360000E+03	3.164557E-15	5.153487E-17
4.370000E+03	3.185302E-15	5.123537E-17
4.380000E+03	3.205763E-15	5.169631E-17
4.390000E+03	3.226424E-15	5.288047E-17
4.400000E+03	3.247973E-15	5.471731E-17
4.410000E+03	3.270951E-15	5.711815E-17
4.420000E+03	3.296202E-15	5.999135E-17
4.430000E+03	3.324382E-15	6.323009E-17
4.440000E+03	3.356235E-15	6.673239E-17
4.450000E+03	3.392336E-15	7.040838E-17
4.460000E+03	3.433310E-15	7.418719E-17
4.470000E+03	3.479594E-15	7.801202E-17
4.480000E+03	3.531400E-15	8.183775E-17
4.490000E+03	3.588788E-15	8.563054E-17
4.500000E+03	3.651645E-15	8.936549E-17
4.510000E+03	3.719499E-15	9.302037E-17
4.520000E+03	3.791658E-15	9.657699E-17
4.530000E+03	3.867143E-15	1.000180E-16
4.540000E+03	3.944674E-15	1.033249E-16
4.550000E+03	4.022687E-15	1.064765E-16
4.560000E+03	4.099359E-15	1.094487E-16
4.570000E+03	4.172671E-15	1.122138E-16
4.580000E+03	4.240493E-15	1.147420E-16
4.590000E+03	4.300681E-15	1.170025E-16
4.600000E+03	4.351209E-15	1.189666E-16
4.610000E+03	4.390292E-15	1.206093E-16
4.620000E+03	4.416512E-15	1.219118E-16
4.630000E+03	4.428977E-15	1.228649E-16
4.640000E+03	4.427172E-15	1.234634E-16
4.650000E+03	4.411390E-15	1.237179E-16
4.660000E+03	4.382264E-15	1.236425E-16
4.670000E+03	4.341173E-15	1.232663E-16
4.680000E+03	4.289706E-15	1.226197E-16
4.690000E+03	4.229880E-15	1.217415E-16
4.700000E+03	4.163955E-15	1.206756E-16
4.710000E+03	4.094148E-15	1.194646E-16
4.720000E+03	4.022665E-15	1.181519E-16
4.730000E+03	3.951499E-15	1.167779E-16
4.740000E+03	3.882451E-15	1.153804E-16
4.750000E+03	3.817028E-15	1.139927E-16
4.760000E+03	3.756325E-15	1.126394E-16
4.770000E+03	3.701219E-15	1.113425E-16
4.780000E+03	3.652283E-15	1.101187E-16
4.790000E+03	3.609777E-15	1.089784E-16
4.800000E+03	3.573888E-15	1.079326E-16
4.810000E+03	3.544418E-15	1.069824E-16
4.820000E+03	3.521071E-15	1.061272E-16
4.830000E+03	3.503480E-15	1.053659E-16
4.840000E+03	3.490954E-15	1.046884E-16
4.850000E+03	3.482863E-15	1.040886E-16
4.860000E+03	3.478453E-15	1.035578E-16
4.870000E+03	3.476891E-15	1.030867E-16
4.880000E+03	3.477195E-15	1.026622E-16
4.890000E+03	3.478476E-15	1.022738E-16
4.900000E+03	3.479592E-15	1.019024E-16
4.910000E+03	3.479485E-15	1.015285E-16
4.920000E+03	3.477147E-15	1.011309E-16
4.930000E+03	3.471523E-15	1.006828E-16
4.940000E+03	3.461768E-15	1.001593E-16
4.950000E+03	3.447154E-15	9.953569E-17
4.960000E+03	3.427364E-15	9.879620E-17
4.970000E+03	3.402138E-15	9.792538E-17
4.980000E+03	3.371752E-15	9.692257E-17
4.990000E+03	3.336626E-15	9.579132E-17
5.000000E+03	3.297484E-15	9.454433E-17
5.010000E+03	3.255303E-15	9.320211E-17
5.020000E+03	3.211141E-15	9.178801E-17
5.030000E+03	3.166248E-15	9.033147E-17
5.040000E+03	3.121755E-15	8.885932E-17
5.050000E+03	3.078888E-15	8.740241E-17
5.060000E+03	3.038650E-15	8.598638E-17
5.070000E+03	3.002066E-15	8.463845E-17
5.080000E+03	2.969968E-15	8.338070E-17
5.090000E+03	2.943025E-15	8.223066E-17
5.100000E+03	2.921857E-15	8.120407E-17
5.110000E+03	2.906935E-15	8.031224E-17
5.120000E+03	2.898601E-15	7.956199E-17
5.130000E+03	2.897161E-15	7.895773E-17
5.140000E+03	2.902787E-15	7.849819E-17
5.150000E+03	2.915555E-15	7.817687E-17
5.160000E+03	2.935405E-15	7.798172E-17
5.170000E+03	2.962273E-15	7.789937E-17
5.180000E+03	2.995865E-15	7.791016E-17
5.190000E+03	3.035913E-15	7.799573E-17
5.200000E+03	3.081946E-15	7.813390E-17
5.210000E+03	3.133390E-15	7.830148E-17
5.220000E+03	3.189637E-15	7.847618E-17
5.230000E+03	3.249987E-15	7.863486E-17
5.240000E+03	3.313566E-15	7.875071E-17
5.250000E+03	3.379582E-15	7.879892E-17
5.260000E+03	3.447085E-15	7.874982E-17
5.270000E+03	3.515251E-15	7.857452E-17
5.280000E+03	3.583291E-15	7.824203E-17
5.290000E+03	3.650502E-15	7.771991E-17
5.300000E+03	3.716476E-15	7.697804E-17
5.310000E+03	3.780898E-15	7.598395E-17
5.320000E+03	3.843827E-15	7.470878E-17
5.330000E+03	3.905750E-15	7.312871E-17
5.340000E+03	3.967352E-15	7.122329E-17
5.350000E+03	4.029758E-15	6.898398E-17
5.360000E+03	4.094471E-15	6.641796E-17
5.370000E+03	4.163252E-15	6.355302E-17
5.380000E+03	4.238004E-15	6.044644E-17
5.390000E+03	4.320960E-15	5.720339E-17
5.400000E+03	4.414278E-15	5.399486E-17
5.410000E+03	4.520090E-15	5.108848E-17
5.420000E+03	4.640323E-15	4.887031E-17
5.430000E+03	4.776564E-15	4.782693E-17
5.440000E+03	4.929891E-15	4.841581E-17
5.450000E+03	5.100553E-15	5.083777E-17
5.460000E+03	5.287207E-15	5.493339E-17
5.470000E+03	5.486779E-15	6.031113E-17
5.480000E+03	5.694979E-15	6.655074E-17
5.490000E+03	5.906531E-15	7.328793E-17
5.500000E+03	6.115045E-15	8.022472E-17
5.510000E+03	6.313745E-15	8.712351E-17
5.520000E+03	6.495633E-15	9.379104E-17
5.530000E+03	6.654137E-15	1.000705E-16
5.540000E+03	6.783266E-15	1.058305E-16
5.550000E+03	6.878274E-15	1.109666E-16
5.560000E+03	6.935856E-15	1.154004E-16
5.570000E+03	6.954497E-15	1.190812E-16
5.580000E+03	6.934532E-15	1.219876E-16
5.590000E+03	6.877793E-15	1.241220E-16
5.600000E+03	6.787819E-15	1.255155E-16
5.610000E+03	6.669356E-15	1.262217E-16
5.620000E+03	6.527800E-15	1.263091E-16
5.630000E+03	6.369288E-15	1.258641E-16
5.640000E+03	6.199812E-15	1.249759E-16
5.650000E+03	6.025333E-15	1.237401E-16
5.660000E+03	5.851275E-15	1.222491E-16
5.670000E+03	5.682403E-15	1.205922E-16
5.680000E+03	5.522705E-15	1.188545E-16
5.690000E+03	5.375305E-15	1.171146E-16
5.700000E+03	5.242641E-15	1.154481E-16
5.710000E+03	5.126348E-15	1.139226E-16
5.720000E+03	5.027330E-15	1.125959E-16
5.730000E+03	4.945914E-15	1.115154E-16
5.740000E+03	4.881897E-15	1.107152E-16
5.750000E+03	4.834447E-15	1.102105E-16
5.760000E+03	4.802309E-15	1.100012E-16
5.770000E+03	4.783766E-15	1.100707E-16
5.780000E+03	4.776877E-15	1.103913E-16
5.790000E+03	4.779215E-15	1.109188E-16
5.800000E+03	4.788266E-15	1.116021E-16
5.810000E+03	4.801268E-15	1.123805E-16
5.820000E+03	4.815445E-15	1.131895E-16
5.830000E+03	4.828118E-15	1.139643E-16
5.840000E+03	4.836623E-15	1.146384E-16
5.850000E+03	4.838695E-15	1.151535E-16
5.860000E+03	4.832336E-15	1.154571E-16
5.870000E+03	4.816080E-15	1.155087E-16
5.880000E+03	4.788898E-15	1.152788E-16
5.890000E+03	4.750177E-15	1.147482E-16
5.900000E+03	4.699946E-15	1.139141E-16
5.910000E+03	4.638606E-15	1.127830E-16
5.920000E+03	4.567094E-15	1.113757E-16
5.930000E+03	4.486458E-15	1.097161E-16
5.940000E+03	4.398206E-15	1.078402E-16
5.950000E+03	4.303832E-15	1.057849E-16
5.960000E+03	4.205070E-15	1.035933E-16
5.970000E+03	4.103488E-15	1.013051E-16
5.980000E+03	4.000674E-15	9.896018E-17
5.990000E+03	3.898140E-15	9.659565E-17
6.000000E+03	3.797204E-15	9.424322E-17
6.010000E+03	3.698929E-15	9.192759E-17
6.020000E+03	3.604326E-15	8.967145E-17
6.030000E+03	3.514063E-15	8.748852E-17
6.040000E+03	3.428750E-15	8.539091E-17
6.050000E+03	3.348680E-15	8.338293E-17
6.060000E+03	3.274089E-15	8.146827E-17
6.070000E+03	3.205046E-15	7.964812E-17
6.080000E+03	3.141544E-15	7.792387E-17
6.090000E+03	3.083404E-15	7.629534E-17
6.100000E+03	3.030485E-15	7.476599E-17
6.110000E+03	2.982582E-15	7.333986E-17
6.120000E+03	2.939505E-15	7.202246E-17
6.130000E+03	2.901038E-15	7.081830E-17
6.140000E+03	2.866983E-15	6.973063E-17
6.150000E+03	2.837226E-15	6.876242E-17
6.160000E+03	2.811629E-15	6.791344E-17
6.170000E+03	2.790144E-15	6.718273E-17
6.180000E+03	2.772718E-15	6.656671E-17
6.190000E+03	2.759344E-15	6.606033E-17
6.200000E+03	2.749851E-15	6.565231E-17
6.210000E+03	2.744167E-15	6.533161E-17
6.220000E+03	2.742145E-15	6.508344E-17
6.230000E+03	2.743636E-15	6.489130E-17
6.240000E+03	2.748502E-15	6.473776E-17
6.250000E+03	2.756597E-15	6.460468E-17
6.260000E+03	2.767791E-15	6.447375E-17
6.270000E+03	2.781950E-15	6.432611E-17
6.280000E+03	2.799016E-15	6.414343E-17
6.290000E+03	2.819038E-15	6.390823E-17
6.300000E+03	2.842006E-15	6.359984E-17
6.310000E+03	2.868039E-15	6.319866E-17
6.320000E+03	2.897259E-15	6.268305E-17
6.330000E+03	2.929804E-15	6.202950E-17
6.340000E+03	2.965838E-15	6.121274E-17
6.350000E+03	3.005447E-15	6.020417E-17
6.360000E+03	3.048756E-15	5.897642E-17
6.370000E+03	3.095869E-15	5.750571E-17
6.380000E+03	3.146775E-15	5.577566E-17
6.390000E+03	3.201569E-15	5.378976E-17
6.400000E+03	3.260237E-15	5.157949E-17
6.410000E+03	3.322771E-15	4.922357E-17
6.420000E+03	3.389189E-15	4.687138E-17
6.430000E+03	3.459265E-15	4.476563E-17
6.440000E+03	3.532866E-15	4.326415E-17
6.450000E+03	3.609519E-15	4.281082E-17
6.460000E+03	3.688634E-15	4.382991E-17
6.470000E+03	3.769180E-15	4.649645E-17
6.480000E+03	3.849774E-15	5.063953E-17
6.490000E+03	3.928661E-15	5.591591E-17
6.500000E+03	4.003968E-15	6.195373E-17
6.510000E+03	4.073623E-15	6.841701E-17
6.520000E+03	4.135666E-15	7.502685E-17
6.530000E+03	4.188106E-15	8.155402E-17
6.540000E+03	4.229320E-15	8.781647E-17
6.550000E+03	4.257796E-15	9.366608E-17
6.560000E+03	4.272467E-15	9.898908E-17
6.570000E+03	4.272628E-15	1.037006E-16
6.580000E+03	4.258097E-15	1.077456E-16
6.590000E+03	4.229028E-15	1.110930E-16
6.600000E+03	4.185942E-15	1.137336E-16
6.610000E+03	4.129857E-15	1.156830E-16
6.620000E+03	4.062009E-15	1.169719E-16
6.630000E+03	3.983870E-15	1.176460E-16
6.640000E+03	3.897122E-15	1.177628E-16
6.650000E+03	3.803491E-15	1.173867E-16
6.660000E+03	3.704686E-15	1.165847E-16
6.670000E+03	3.602499E-15	1.154295E-16
6.680000E+03	3.498503E-15	1.139889E-16
6.690000E+03	3.394223E-15	1.123300E-16
6.700000E+03	3.290941E-15	1.105131E-16
6.710000E+03	3.189838E-15	1.085952E-16
6.720000E+03	3.091870E-15	1.066258E-16
6.730000E+03	2.997806E-15	1.046479E-16
6.740000E+03	2.908243E-15	1.026980E-16
6.750000E+03	2.823611E-15	1.008060E-16
6.760000E+03	2.744194E-15	9.899612E-17
6.770000E+03	2.670177E-15	9.728779E-17
6.780000E+03	2.601575E-15	9.569336E-17
6.790000E+03	2.538343E-15	9.422193E-17
6.800000E+03	2.480392E-15	9.287991E-17
6.810000E+03	2.427517E-15	9.166842E-17
6.820000E+03	2.379533E-15	9.058822E-17
6.830000E+03	2.336165E-15	8.963595E-17
6.840000E+03	2.297179E-15	8.880879E-17
6.850000E+03	2.262276E-15	8.810079E-17
6.860000E+03	2.231211E-15	8.750725E-17
6.870000E+03	2.203712E-15	8.702204E-17
6.880000E+03	2.179470E-15	8.663683E-17
6.890000E+03	2.158315E-15	8.634836E-17
6.900000E+03	2.139962E-15	8.614848E-17
6.910000E+03	2.124197E-15	8.603140E-17
6.920000E+03	2.110847E-15	8.599270E-17
6.930000E+03	2.099729E-15	8.602740E-17
6.940000E+03	2.090632E-15	8.612901E-17
6.950000E+03	2.083485E-15	8.629660E-17
6.960000E+03	2.078086E-15	8.652369E-17
6.970000E+03	2.074371E-15	8.680948E-17
6.980000E+03	2.072223E-15	8.715060E-17
6.990000E+03	2.071562E-15	8.754526E-17
7.000000E+03	2.072324E-15	8.799222E-17
7.010000E+03	2.074459E-15	8.849071E-17
7.020000E+03	2.077931E-15	8.904044E-17
7.030000E+03	2.082714E-15	8.964153E-17
7.040000E+03	2.088769E-15	9.029338E-17
7.050000E+03	2.096136E-15	9.099891E-17
7.060000E+03	2.104738E-15	9.175586E-17
7.070000E+03	2.114621E-15	9.256753E-17
7.080000E+03	2.125786E-15	9.343518E-17
7.090000E+03	2.138173E-15	9.435779E-17
7.100000E+03	2.151824E-15	9.533879E-17
7.110000E+03	2.166669E-15	9.637692E-17
7.120000E+03	2.182706E-15	9.747418E-17
7.130000E+03	2.199871E-15	9.862992E-17
7.140000E+03	2.218142E-15	9.984564E-17
7.150000E+03	2.237462E-15	1.011214E-16
7.160000E+03	2.257706E-15	1.024543E-16
7.170000E+03	2.278821E-15	1.038453E-16
7.180000E+03	2.300718E-15	1.052937E-16
7.190000E+03	2.323273E-15	1.067973E-16
7.200000E+03	2.346412E-15	1.083570E-16
7.210000E+03	2.369998E-15	1.099706E-16
7.220000E+03	2.393891E-15	1.116365E-16
7.230000E+03	2.418041E-15	1.133569E-16
7.240000E+03	2.442279E-15	1.151294E-16
7.250000E+03	2.466529E-15	1.169554E-16
7.260000E+03	2.490661E-15	1.188344E-16
7.270000E+03	2.514581E-15	1.207672E-16
7.280000E+03	2.538170E-15	1.227536E-16
7.290000E+03	2.561414E-15	1.247980E-16
7.300000E+03	2.584183E-15	1.268989E-16
7.310000E+03	2.606449E-15	1.290596E-16
7.320000E+03	2.628136E-15	1.312799E-16
7.330000E+03	2.649208E-15	1.335607E-16
7.340000E+03	2.669643E-15	1.359027E-16
7.350000E+03	2.689430E-15	1.383054E-16
7.360000E+03	2.708574E-15	1.407680E-16
7.370000E+03	2.727091E-15	1.432880E-16
7.380000E+03	2.745015E-15	1.458622E-16
7.390000E+03	2.762394E-15	1.484859E-16
7.400000E+03	2.779256E-15	1.511513E-16
7.410000E+03	2.795716E-15	1.538532E-16
7.420000E+03	2.811835E-15	1.565815E-16
7.430000E+03	2.827757E-15	1.593291E-16
7.440000E+03	2.843607E-15	1.620872E-16
7.450000E+03	2.859513E-15	1.648473E-16
7.460000E+03	2.875541E-15	1.675979E-16
7.470000E+03	2.891933E-15	1.703392E-16
7.480000E+03	2.908753E-15	1.730618E-16
7.490000E+03	2.926127E-15	1.757620E-16
7.500000E+03	2.944171E-15	1.784363E-16
7.510000E+03	2.963025E-15	1.810840E-16
7.520000E+03	2.982771E-15	1.837021E-16
7.530000E+03	3.003393E-15	1.862822E-16
7.540000E+03	3.024996E-15	1.888242E-16
7.550000E+03	3.047581E-15	1.913219E-16
7.560000E+03	3.071032E-15	1.937626E-16
7.570000E+03	3.095354E-15	1.961408E-16
7.580000E+03	3.120433E-15	1.984441E-16
7.590000E+03	3.146074E-15	2.006548E-16
7.600000E+03	3.172082E-15	2.027552E-16
7.610000E+03	3.198262E-15	2.047274E-16
7.620000E+03	3.224343E-15	2.065486E-16
7.630000E+03	3.249978E-15	2.081911E-16
7.640000E+03	3.274875E-15	2.096305E-16
7.650000E+03	3.298637E-15	2.108357E-16
7.660000E+03	3.320979E-15	2.117829E-16
7.670000E+03	3.341442E-15	2.124372E-16
7.680000E+03	3.359741E-15	2.127750E-16
7.690000E+03	3.375431E-15	2.127633E-16
7.700000E+03	3.388263E-15	2.123816E-16
7.710000E+03	3.397893E-15	2.116043E-16
7.720000E+03	3.404058E-15	2.104115E-16
7.730000E+03	3.406546E-15	2.087876E-16
7.740000E+03	3.405244E-15	2.067238E-16
7.750000E+03	3.400010E-15	2.042105E-16
7.760000E+03	3.390849E-15	2.012484E-16
