#wls	flux	fluxerr
1.600000E+03	6.009780E-16	1.886006E-16
1.640000E+03	5.667569E-16	1.640136E-16
1.680000E+03	5.352144E-16	1.419233E-16
1.720000E+03	5.063423E-16	1.221681E-16
1.760000E+03	4.802978E-16	1.046290E-16
1.800000E+03	4.569172E-16	8.912022E-17
1.840000E+03	4.362141E-16	7.551955E-17
1.880000E+03	4.180178E-16	6.370348E-17
1.920000E+03	4.023239E-16	5.362623E-17
1.960000E+03	3.890390E-16	4.528903E-17
2.000000E+03	3.781416E-16	3.877101E-17
2.040000E+03	3.695258E-16	3.418077E-17
2.080000E+03	3.630741E-16	3.156243E-17
2.120000E+03	3.586758E-16	3.071777E-17
2.160000E+03	3.562727E-16	3.113355E-17
2.200000E+03	3.559425E-16	3.222022E-17
2.240000E+03	3.574786E-16	3.347132E-17
2.280000E+03	3.608689E-16	3.454714E-17
2.320000E+03	3.660962E-16	3.522863E-17
2.360000E+03	3.730030E-16	3.536854E-17
2.400000E+03	3.814862E-16	3.489274E-17
2.440000E+03	3.914947E-16	3.380567E-17
2.480000E+03	4.028224E-16	3.220520E-17
2.520000E+03	4.153871E-16	3.037449E-17
2.560000E+03	4.290370E-16	2.885693E-17
2.600000E+03	4.435708E-16	2.848361E-17
2.640000E+03	4.590556E-16	3.009609E-17
2.680000E+03	4.753870E-16	3.386911E-17
2.720000E+03	4.923835E-16	3.928714E-17
2.760000E+03	5.100909E-16	4.568601E-17
2.800000E+03	5.286214E-16	5.251524E-17
2.840000E+03	5.480559E-16	5.936099E-17
2.880000E+03	5.686751E-16	6.593249E-17
2.920000E+03	5.906235E-16	7.198994E-17
2.960000E+03	6.143163E-16	7.736546E-17
3.000000E+03	6.399249E-16	8.188506E-17
3.010000E+03	6.467307E-16	8.287277E-17
3.020000E+03	6.535978E-16	8.378514E-17
3.030000E+03	6.607045E-16	8.464220E-17
3.040000E+03	6.679652E-16	8.543018E-17
3.050000E+03	6.753820E-16	8.614657E-17
3.060000E+03	6.829570E-16	8.678883E-17
3.070000E+03	6.907815E-16	8.736579E-17
3.080000E+03	6.987679E-16	8.786351E-17
3.090000E+03	7.069174E-16	8.827940E-17
3.100000E+03	7.152308E-16	8.861089E-17
3.110000E+03	7.238916E-16	8.887785E-17
3.120000E+03	7.326267E-16	8.904387E-17
3.130000E+03	7.417114E-16	8.913983E-17
3.140000E+03	7.508697E-16	8.912971E-17
3.150000E+03	7.603782E-16	8.904398E-17
3.160000E+03	7.700508E-16	8.885798E-17
3.170000E+03	7.800730E-16	8.859068E-17
3.180000E+03	7.902561E-16	8.821796E-17
3.190000E+03	8.006913E-16	8.774808E-17
3.200000E+03	8.113757E-16	8.717862E-17
3.210000E+03	8.224014E-16	8.651740E-17
3.220000E+03	8.335734E-16	8.574218E-17
3.230000E+03	8.450782E-16	8.487117E-17
3.240000E+03	8.569110E-16	8.390245E-17
3.250000E+03	8.689695E-16	8.282527E-17
3.260000E+03	8.812459E-16	8.163932E-17
3.270000E+03	8.938299E-16	8.035375E-17
3.280000E+03	9.067132E-16	7.896907E-17
3.290000E+03	9.197882E-16	7.747839E-17
3.300000E+03	9.332418E-16	7.590118E-17
3.310000E+03	9.469648E-16	7.423287E-17
3.320000E+03	9.608459E-16	7.247162E-17
3.330000E+03	9.751712E-16	7.064768E-17
3.340000E+03	9.896285E-16	6.874860E-17
3.350000E+03	1.004404E-15	6.680156E-17
3.360000E+03	1.019382E-15	6.481572E-17
3.370000E+03	1.034750E-15	6.282371E-17
3.380000E+03	1.050290E-15	6.083720E-17
3.390000E+03	1.066088E-15	5.889208E-17
3.400000E+03	1.082126E-15	5.702371E-17
3.410000E+03	1.098390E-15	5.527355E-17
3.420000E+03	1.114963E-15	5.369402E-17
3.430000E+03	1.131728E-15	5.233231E-17
3.440000E+03	1.148769E-15	5.124854E-17
3.450000E+03	1.166070E-15	5.049740E-17
3.460000E+03	1.183513E-15	5.012404E-17
3.470000E+03	1.201285E-15	5.017524E-17
3.480000E+03	1.219270E-15	5.066572E-17
3.490000E+03	1.237456E-15	5.159063E-17
3.500000E+03	1.255833E-15	5.292374E-17
3.510000E+03	1.274496E-15	5.462819E-17
3.520000E+03	1.293438E-15	5.665418E-17
3.530000E+03	1.312653E-15	5.894832E-17
3.540000E+03	1.332137E-15	6.145761E-17
3.550000E+03	1.351990E-15	6.413690E-17
3.560000E+03	1.372008E-15	6.693122E-17
3.570000E+03	1.392398E-15	6.981016E-17
3.580000E+03	1.413162E-15	7.273923E-17
3.590000E+03	1.434307E-15	7.568900E-17
3.600000E+03	1.455841E-15	7.863476E-17
3.610000E+03	1.477775E-15	8.155601E-17
3.620000E+03	1.500221E-15	8.444168E-17
3.630000E+03	1.523094E-15	8.727290E-17
3.640000E+03	1.546510E-15	9.004497E-17
3.650000E+03	1.570484E-15	9.275010E-17
3.660000E+03	1.594937E-15	9.537675E-17
3.670000E+03	1.620086E-15	9.793291E-17
3.680000E+03	1.645949E-15	1.004165E-16
3.690000E+03	1.672347E-15	1.028145E-16
3.700000E+03	1.699595E-15	1.051450E-16
3.710000E+03	1.727511E-15	1.073968E-16
3.720000E+03	1.756306E-15	1.095834E-16
3.730000E+03	1.785795E-15	1.116943E-16
3.740000E+03	1.816179E-15	1.137435E-16
3.750000E+03	1.847362E-15	1.157265E-16
3.760000E+03	1.879431E-15	1.176507E-16
3.770000E+03	1.912370E-15	1.195171E-16
3.780000E+03	1.946053E-15	1.213200E-16
3.790000E+03	1.980629E-15	1.230710E-16
3.800000E+03	2.015846E-15	1.247569E-16
3.810000E+03	2.051819E-15	1.263875E-16
3.820000E+03	2.088354E-15	1.279538E-16
3.830000E+03	2.125426E-15	1.294578E-16
3.840000E+03	2.162892E-15	1.308947E-16
3.850000E+03	2.200493E-15	1.322533E-16
3.860000E+03	2.238133E-15	1.335331E-16
3.870000E+03	2.275604E-15	1.347273E-16
3.880000E+03	2.312585E-15	1.358236E-16
3.890000E+03	2.349017E-15	1.368257E-16
3.900000E+03	2.384555E-15	1.377210E-16
3.910000E+03	2.419030E-15	1.385079E-16
3.920000E+03	2.452001E-15	1.391694E-16
3.930000E+03	2.483405E-15	1.397104E-16
3.940000E+03	2.512918E-15	1.401207E-16
3.950000E+03	2.540336E-15	1.403969E-16
3.960000E+03	2.565575E-15	1.405410E-16
3.970000E+03	2.588414E-15	1.405470E-16
3.980000E+03	2.608770E-15	1.404150E-16
3.990000E+03	2.626694E-15	1.401509E-16
4.000000E+03	2.642036E-15	1.397485E-16
4.010000E+03	2.655040E-15	1.392205E-16
4.020000E+03	2.665749E-15	1.385676E-16
4.030000E+03	2.674263E-15	1.377915E-16
4.040000E+03	2.680962E-15	1.369074E-16
4.050000E+03	2.685951E-15	1.359142E-16
4.060000E+03	2.689597E-15	1.348235E-16
4.070000E+03	2.692137E-15	1.336389E-16
4.080000E+03	2.693898E-15	1.323678E-16
4.090000E+03	2.695208E-15	1.310167E-16
4.100000E+03	2.696395E-15	1.295910E-16
4.110000E+03	2.697704E-15	1.280918E-16
4.120000E+03	2.699434E-15	1.265216E-16
4.130000E+03	2.701863E-15	1.248812E-16
4.140000E+03	2.705238E-15	1.231692E-16
4.150000E+03	2.709714E-15	1.213791E-16
4.160000E+03	2.715416E-15	1.195025E-16
4.170000E+03	2.722561E-15	1.175342E-16
4.180000E+03	2.731147E-15	1.154593E-16
4.190000E+03	2.741323E-15	1.132690E-16
4.200000E+03	2.753088E-15	1.109487E-16
4.210000E+03	2.766410E-15	1.084832E-16
4.220000E+03	2.781295E-15	1.058606E-16
4.230000E+03	2.797667E-15	1.030680E-16
4.240000E+03	2.815433E-15	1.000961E-16
4.250000E+03	2.834600E-15	9.694368E-17
4.260000E+03	2.855000E-15	9.361076E-17
4.270000E+03	2.876570E-15	9.011046E-17
4.280000E+03	2.899145E-15	8.646519E-17
4.290000E+03	2.922728E-15	8.271921E-17
4.300000E+03	2.947177E-15	7.893359E-17
4.310000E+03	2.972474E-15	7.519989E-17
4.320000E+03	2.998575E-15	7.164107E-17
4.330000E+03	3.025413E-15	6.841574E-17
4.340000E+03	3.053060E-15	6.572013E-17
4.350000E+03	3.081615E-15	6.377230E-17
4.360000E+03	3.111101E-15	6.277758E-17
4.370000E+03	3.141597E-15	6.287710E-17
4.380000E+03	3.173173E-15	6.410593E-17
4.390000E+03	3.205893E-15	6.640837E-17
4.400000E+03	3.239885E-15	6.967733E-17
4.410000E+03	3.275179E-15	7.378062E-17
4.420000E+03	3.311864E-15	7.857459E-17
4.430000E+03	3.350086E-15	8.390575E-17
4.440000E+03	3.389869E-15	8.962297E-17
4.450000E+03	3.431359E-15	9.559937E-17
4.460000E+03	3.474495E-15	1.017277E-16
4.470000E+03	3.519301E-15	1.079261E-16
4.480000E+03	3.565621E-15	1.141264E-16
4.490000E+03	3.613259E-15	1.202748E-16
4.500000E+03	3.661925E-15	1.263262E-16
4.510000E+03	3.711276E-15	1.322436E-16
4.520000E+03	3.760716E-15	1.379880E-16
4.530000E+03	3.809758E-15	1.435299E-16
4.540000E+03	3.857673E-15	1.488350E-16
4.550000E+03	3.903766E-15	1.538733E-16
4.560000E+03	3.947239E-15	1.586133E-16
4.570000E+03	3.987270E-15	1.630239E-16
4.580000E+03	4.023044E-15	1.670756E-16
4.590000E+03	4.053841E-15	1.707433E-16
4.600000E+03	4.078963E-15	1.740033E-16
4.610000E+03	4.097817E-15	1.768365E-16
4.620000E+03	4.109955E-15	1.792297E-16
4.630000E+03	4.115192E-15	1.811808E-16
4.640000E+03	4.113315E-15	1.826861E-16
4.650000E+03	4.104505E-15	1.837586E-16
4.660000E+03	4.089024E-15	1.844143E-16
4.670000E+03	4.067302E-15	1.846762E-16
4.680000E+03	4.039923E-15	1.845738E-16
4.690000E+03	4.007592E-15	1.841416E-16
4.700000E+03	3.971199E-15	1.834225E-16
4.710000E+03	3.931495E-15	1.824528E-16
4.720000E+03	3.889441E-15	1.812788E-16
4.730000E+03	3.845793E-15	1.799375E-16
4.740000E+03	3.801499E-15	1.784752E-16
4.750000E+03	3.757202E-15	1.769245E-16
4.760000E+03	3.713555E-15	1.753192E-16
4.770000E+03	3.671152E-15	1.736907E-16
4.780000E+03	3.630476E-15	1.720660E-16
4.790000E+03	3.591811E-15	1.704631E-16
4.800000E+03	3.555376E-15	1.688975E-16
4.810000E+03	3.521365E-15	1.673842E-16
4.820000E+03	3.489788E-15	1.659295E-16
4.830000E+03	3.460522E-15	1.645339E-16
4.840000E+03	3.433488E-15	1.632000E-16
4.850000E+03	3.408454E-15	1.619234E-16
4.860000E+03	3.385130E-15	1.606969E-16
4.870000E+03	3.363223E-15	1.595126E-16
4.880000E+03	3.342368E-15	1.583591E-16
4.890000E+03	3.322223E-15	1.572255E-16
4.900000E+03	3.302366E-15	1.560965E-16
4.910000E+03	3.282505E-15	1.549621E-16
4.920000E+03	3.262263E-15	1.538073E-16
4.930000E+03	3.241345E-15	1.526202E-16
4.940000E+03	3.219589E-15	1.513940E-16
4.950000E+03	3.196753E-15	1.501173E-16
4.960000E+03	3.172824E-15	1.487884E-16
4.970000E+03	3.147796E-15	1.474054E-16
4.980000E+03	3.121716E-15	1.459679E-16
4.990000E+03	3.094784E-15	1.444824E-16
5.000000E+03	3.067242E-15	1.429567E-16
5.010000E+03	3.039397E-15	1.414014E-16
5.020000E+03	3.011646E-15	1.398311E-16
5.030000E+03	2.984356E-15	1.382587E-16
5.040000E+03	2.957955E-15	1.367000E-16
5.050000E+03	2.932946E-15	1.351736E-16
5.060000E+03	2.909665E-15	1.336907E-16
5.070000E+03	2.888628E-15	1.322701E-16
5.080000E+03	2.870194E-15	1.309233E-16
5.090000E+03	2.854690E-15	1.296595E-16
5.100000E+03	2.842466E-15	1.284886E-16
5.110000E+03	2.833826E-15	1.274173E-16
5.120000E+03	2.828933E-15	1.264454E-16
5.130000E+03	2.827993E-15	1.255733E-16
5.140000E+03	2.831160E-15	1.247982E-16
5.150000E+03	2.838448E-15	1.241095E-16
5.160000E+03	2.849939E-15	1.234989E-16
5.170000E+03	2.865576E-15	1.229501E-16
5.180000E+03	2.885285E-15	1.224451E-16
5.190000E+03	2.908945E-15	1.219626E-16
5.200000E+03	2.936394E-15	1.214779E-16
5.210000E+03	2.967466E-15	1.209650E-16
5.220000E+03	3.001867E-15	1.203912E-16
5.230000E+03	3.039405E-15	1.197266E-16
5.240000E+03	3.079781E-15	1.189356E-16
5.250000E+03	3.122720E-15	1.179825E-16
5.260000E+03	3.167923E-15	1.168292E-16
5.270000E+03	3.215211E-15	1.154413E-16
5.280000E+03	3.264338E-15	1.137807E-16
5.290000E+03	3.315141E-15	1.118118E-16
5.300000E+03	3.367481E-15	1.095000E-16
5.310000E+03	3.421362E-15	1.068158E-16
5.320000E+03	3.476868E-15	1.037339E-16
5.330000E+03	3.534061E-15	1.002316E-16
5.340000E+03	3.593160E-15	9.629686E-17
5.350000E+03	3.654505E-15	9.193076E-17
5.360000E+03	3.718473E-15	8.715099E-17
5.370000E+03	3.785506E-15	8.200250E-17
5.380000E+03	3.856010E-15	7.657107E-17
5.390000E+03	3.930569E-15	7.101259E-17
5.400000E+03	4.009691E-15	6.558491E-17
5.410000E+03	4.093809E-15	6.069826E-17
5.420000E+03	4.183288E-15	5.695749E-17
5.430000E+03	4.278516E-15	5.512867E-17
5.440000E+03	4.379589E-15	5.591745E-17
5.450000E+03	4.486300E-15	5.961781E-17
5.460000E+03	4.597766E-15	6.594963E-17
5.470000E+03	4.712547E-15	7.428824E-17
5.480000E+03	4.828682E-15	8.398454E-17
5.490000E+03	4.944031E-15	9.450729E-17
5.500000E+03	5.056228E-15	1.054475E-16
5.510000E+03	5.162775E-15	1.164872E-16
5.520000E+03	5.261247E-15	1.273727E-16
5.530000E+03	5.349407E-15	1.378967E-16
5.540000E+03	5.425213E-15	1.478852E-16
5.550000E+03	5.486916E-15	1.571930E-16
5.560000E+03	5.533255E-15	1.657051E-16
5.570000E+03	5.563578E-15	1.733390E-16
5.580000E+03	5.577544E-15	1.800354E-16
5.590000E+03	5.575509E-15	1.857692E-16
5.600000E+03	5.558278E-15	1.905424E-16
5.610000E+03	5.527046E-15	1.943813E-16
5.620000E+03	5.483543E-15	1.973410E-16
5.630000E+03	5.429608E-15	1.994902E-16
5.640000E+03	5.367309E-15	2.009141E-16
5.650000E+03	5.298788E-15	2.017076E-16
5.660000E+03	5.226169E-15	2.019710E-16
5.670000E+03	5.151476E-15	2.018053E-16
5.680000E+03	5.076564E-15	2.013083E-16
5.690000E+03	5.003022E-15	2.005700E-16
5.700000E+03	4.932331E-15	1.996772E-16
5.710000E+03	4.865500E-15	1.986986E-16
5.720000E+03	4.803402E-15	1.976967E-16
5.730000E+03	4.746530E-15	1.967178E-16
5.740000E+03	4.695199E-15	1.957992E-16
5.750000E+03	4.649374E-15	1.949620E-16
5.760000E+03	4.608832E-15	1.942173E-16
5.770000E+03	4.573186E-15	1.935669E-16
5.780000E+03	4.541777E-15	1.929991E-16
5.790000E+03	4.513800E-15	1.924934E-16
5.800000E+03	4.488424E-15	1.920262E-16
5.810000E+03	4.464695E-15	1.915666E-16
5.820000E+03	4.441575E-15	1.910783E-16
5.830000E+03	4.418114E-15	1.905270E-16
5.840000E+03	4.393311E-15	1.898750E-16
5.850000E+03	4.366239E-15	1.890865E-16
5.860000E+03	4.336204E-15	1.881347E-16
5.870000E+03	4.302517E-15	1.869923E-16
5.880000E+03	4.264645E-15	1.856381E-16
5.890000E+03	4.222267E-15	1.840597E-16
5.900000E+03	4.175275E-15	1.822534E-16
5.910000E+03	4.123651E-15	1.802194E-16
5.920000E+03	4.067584E-15	1.779664E-16
5.930000E+03	4.007406E-15	1.755096E-16
5.940000E+03	3.943536E-15	1.728675E-16
5.950000E+03	3.876572E-15	1.700666E-16
5.960000E+03	3.807143E-15	1.671343E-16
5.970000E+03	3.735887E-15	1.640988E-16
5.980000E+03	3.663466E-15	1.609886E-16
5.990000E+03	3.590674E-15	1.578385E-16
6.000000E+03	3.518071E-15	1.546724E-16
6.010000E+03	3.446280E-15	1.515171E-16
6.020000E+03	3.375935E-15	1.484000E-16
6.030000E+03	3.307506E-15	1.453408E-16
6.040000E+03	3.241397E-15	1.423565E-16
6.050000E+03	3.177974E-15	1.394626E-16
6.060000E+03	3.117598E-15	1.366740E-16
6.070000E+03	3.060411E-15	1.339963E-16
6.080000E+03	3.006652E-15	1.314393E-16
6.090000E+03	2.956444E-15	1.290073E-16
6.100000E+03	2.909813E-15	1.267006E-16
6.110000E+03	2.866859E-15	1.245223E-16
6.120000E+03	2.827545E-15	1.224688E-16
6.130000E+03	2.791889E-15	1.205387E-16
6.140000E+03	2.759842E-15	1.187267E-16
6.150000E+03	2.731341E-15	1.170263E-16
6.160000E+03	2.706344E-15	1.154306E-16
6.170000E+03	2.684800E-15	1.139315E-16
6.180000E+03	2.666606E-15	1.125171E-16
6.190000E+03	2.651734E-15	1.111778E-16
6.200000E+03	2.640104E-15	1.099001E-16
6.210000E+03	2.631738E-15	1.086735E-16
6.220000E+03	2.626557E-15	1.074819E-16
6.230000E+03	2.624558E-15	1.063105E-16
6.240000E+03	2.625690E-15	1.051413E-16
6.250000E+03	2.629907E-15	1.039547E-16
6.260000E+03	2.637186E-15	1.027307E-16
6.270000E+03	2.647487E-15	1.014465E-16
6.280000E+03	2.660766E-15	1.000782E-16
6.290000E+03	2.676984E-15	9.860025E-17
6.300000E+03	2.696152E-15	9.698762E-17
6.310000E+03	2.718168E-15	9.521036E-17
6.320000E+03	2.743032E-15	9.324162E-17
6.330000E+03	2.770649E-15	9.105163E-17
6.340000E+03	2.800963E-15	8.861360E-17
6.350000E+03	2.833896E-15	8.590352E-17
6.360000E+03	2.869257E-15	8.290028E-17
6.370000E+03	2.906935E-15	7.959577E-17
6.380000E+03	2.946698E-15	7.599476E-17
6.390000E+03	2.988355E-15	7.212857E-17
6.400000E+03	3.031580E-15	6.806309E-17
6.410000E+03	3.076053E-15	6.392089E-17
6.420000E+03	3.121335E-15	5.990271E-17
6.430000E+03	3.166986E-15	5.631734E-17
6.440000E+03	3.212505E-15	5.359457E-17
6.450000E+03	3.257259E-15	5.224710E-17
6.460000E+03	3.300585E-15	5.272514E-17
6.470000E+03	3.341832E-15	5.517879E-17
6.480000E+03	3.380165E-15	5.937445E-17
6.490000E+03	3.414825E-15	6.487637E-17
6.500000E+03	3.445052E-15	7.123069E-17
6.510000E+03	3.470072E-15	7.804880E-17
6.520000E+03	3.489160E-15	8.502388E-17
6.530000E+03	3.501635E-15	9.191929E-17
6.540000E+03	3.507066E-15	9.855811E-17
6.550000E+03	3.504927E-15	1.048006E-16
6.560000E+03	3.495062E-15	1.105475E-16
6.570000E+03	3.477284E-15	1.157218E-16
6.580000E+03	3.451720E-15	1.202754E-16
6.590000E+03	3.418544E-15	1.241771E-16
6.600000E+03	3.378157E-15	1.274169E-16
6.610000E+03	3.331024E-15	1.299984E-16
6.620000E+03	3.277802E-15	1.319419E-16
6.630000E+03	3.219210E-15	1.332783E-16
6.640000E+03	3.155998E-15	1.340467E-16
6.650000E+03	3.089069E-15	1.342980E-16
6.660000E+03	3.019237E-15	1.340839E-16
6.670000E+03	2.947349E-15	1.334610E-16
6.680000E+03	2.874224E-15	1.324869E-16
6.690000E+03	2.800668E-15	1.312205E-16
6.700000E+03	2.727368E-15	1.297161E-16
6.710000E+03	2.655000E-15	1.280278E-16
6.720000E+03	2.584109E-15	1.262034E-16
6.730000E+03	2.515216E-15	1.242890E-16
6.740000E+03	2.448738E-15	1.223249E-16
6.750000E+03	2.385009E-15	1.203462E-16
6.760000E+03	2.324270E-15	1.183823E-16
6.770000E+03	2.266745E-15	1.164604E-16
6.780000E+03	2.212595E-15	1.146035E-16
6.790000E+03	2.161851E-15	1.128263E-16
6.800000E+03	2.114576E-15	1.111443E-16
6.810000E+03	2.070788E-15	1.095692E-16
6.820000E+03	2.030401E-15	1.081063E-16
6.830000E+03	1.993399E-15	1.067636E-16
6.840000E+03	1.959672E-15	1.055431E-16
6.850000E+03	1.929117E-15	1.044463E-16
6.860000E+03	1.901643E-15	1.034745E-16
6.870000E+03	1.877106E-15	1.026255E-16
6.880000E+03	1.855378E-15	1.018974E-16
6.890000E+03	1.836330E-15	1.012876E-16
6.900000E+03	1.819856E-15	1.007942E-16
6.910000E+03	1.805805E-15	1.004127E-16
6.920000E+03	1.794056E-15	1.001393E-16
6.930000E+03	1.784509E-15	9.997162E-17
6.940000E+03	1.777029E-15	9.990463E-17
6.950000E+03	1.771508E-15	9.993468E-17
6.960000E+03	1.767844E-15	1.000582E-16
6.970000E+03	1.765961E-15	1.002730E-16
6.980000E+03	1.765750E-15	1.005745E-16
6.990000E+03	1.767127E-15	1.009599E-16
7.000000E+03	1.770014E-15	1.014263E-16
7.010000E+03	1.774342E-15	1.019712E-16
7.020000E+03	1.780043E-15	1.025921E-16
7.030000E+03	1.787056E-15	1.032869E-16
7.040000E+03	1.795303E-15	1.040524E-16
7.050000E+03	1.804773E-15	1.048894E-16
7.060000E+03	1.815373E-15	1.057937E-16
7.070000E+03	1.827075E-15	1.067652E-16
7.080000E+03	1.839833E-15	1.078025E-16
7.090000E+03	1.853576E-15	1.089031E-16
7.100000E+03	1.868259E-15	1.100657E-16
7.110000E+03	1.883855E-15	1.112906E-16
7.120000E+03	1.900292E-15	1.125754E-16
7.130000E+03	1.917520E-15	1.139191E-16
7.140000E+03	1.935485E-15	1.153205E-16
7.150000E+03	1.954131E-15	1.167787E-16
7.160000E+03	1.973400E-15	1.182928E-16
7.170000E+03	1.993233E-15	1.198618E-16
7.180000E+03	2.013542E-15	1.214835E-16
7.190000E+03	2.034288E-15	1.231584E-16
7.200000E+03	2.055407E-15	1.248861E-16
7.210000E+03	2.076781E-15	1.266627E-16
7.220000E+03	2.098396E-15	1.284909E-16
7.230000E+03	2.120162E-15	1.303690E-16
7.240000E+03	2.142042E-15	1.322982E-16
7.250000E+03	2.163923E-15	1.342754E-16
7.260000E+03	2.185773E-15	1.363022E-16
7.270000E+03	2.207541E-15	1.383789E-16
7.280000E+03	2.229179E-15	1.405056E-16
7.290000E+03	2.250615E-15	1.426810E-16
7.300000E+03	2.271840E-15	1.449068E-16
7.310000E+03	2.292798E-15	1.471816E-16
7.320000E+03	2.313493E-15	1.495068E-16
7.330000E+03	2.333881E-15	1.518805E-16
7.340000E+03	2.353984E-15	1.543037E-16
7.350000E+03	2.373770E-15	1.567734E-16
7.360000E+03	2.393248E-15	1.592881E-16
7.370000E+03	2.412461E-15	1.618477E-16
7.380000E+03	2.431401E-15	1.644476E-16
7.390000E+03	2.450095E-15	1.670844E-16
7.400000E+03	2.468639E-15	1.697589E-16
7.410000E+03	2.486979E-15	1.724603E-16
7.420000E+03	2.505251E-15	1.751903E-16
7.430000E+03	2.523439E-15	1.779395E-16
7.440000E+03	2.541622E-15	1.807044E-16
7.450000E+03	2.559882E-15	1.834816E-16
7.460000E+03	2.578232E-15	1.862625E-16
7.470000E+03	2.596685E-15	1.890380E-16
7.480000E+03	2.615280E-15	1.918013E-16
7.490000E+03	2.634084E-15	1.945474E-16
7.500000E+03	2.653089E-15	1.972661E-16
7.510000E+03	2.672312E-15	1.999491E-16
7.520000E+03	2.691757E-15	2.025874E-16
7.530000E+03	2.711418E-15	2.051714E-16
7.540000E+03	2.731239E-15	2.076878E-16
7.550000E+03	2.751256E-15	2.101305E-16
7.560000E+03	2.771347E-15	2.124816E-16
7.570000E+03	2.791445E-15	2.147273E-16
7.580000E+03	2.811540E-15	2.168583E-16
7.590000E+03	2.831459E-15	2.188528E-16
7.600000E+03	2.851125E-15	2.206964E-16
7.610000E+03	2.870370E-15	2.223678E-16
7.620000E+03	2.889088E-15	2.238502E-16
7.630000E+03	2.907124E-15	2.251234E-16
7.640000E+03	2.924274E-15	2.261634E-16
7.650000E+03	2.940402E-15	2.269514E-16
7.660000E+03	2.955330E-15	2.274657E-16
7.670000E+03	2.968877E-15	2.276848E-16
7.680000E+03	2.980825E-15	2.275844E-16
7.690000E+03	2.991075E-15	2.271502E-16
7.700000E+03	2.999381E-15	2.263567E-16
7.710000E+03	3.005622E-15	2.251893E-16
7.720000E+03	3.009652E-15	2.236319E-16
7.730000E+03	3.011300E-15	2.216677E-16
7.740000E+03	3.010532E-15	2.192908E-16
7.750000E+03	3.007214E-15	2.164893E-16
7.760000E+03	3.001270E-15	2.132569E-16
