#wls	flux	fluxerr
1.600000E+03	5.799515E-16	1.841034E-16
1.640000E+03	5.488072E-16	1.607765E-16
1.680000E+03	5.201721E-16	1.397594E-16
1.720000E+03	4.939286E-16	1.208783E-16
1.760000E+03	4.701449E-16	1.040181E-16
1.800000E+03	4.487692E-16	8.904463E-17
1.840000E+03	4.298226E-16	7.585945E-17
1.880000E+03	4.131442E-16	6.436200E-17
1.920000E+03	3.987349E-16	5.452755E-17
1.960000E+03	3.865041E-16	4.637352E-17
2.000000E+03	3.764280E-16	3.998591E-17
2.040000E+03	3.683954E-16	3.546527E-17
2.080000E+03	3.622181E-16	3.282937E-17
2.120000E+03	3.579329E-16	3.188824E-17
2.160000E+03	3.554183E-16	3.216068E-17
2.200000E+03	3.547008E-16	3.309135E-17
2.240000E+03	3.556598E-16	3.419876E-17
2.280000E+03	3.583622E-16	3.515629E-17
2.320000E+03	3.626008E-16	3.572901E-17
2.360000E+03	3.684255E-16	3.579540E-17
2.400000E+03	3.756783E-16	3.528595E-17
2.440000E+03	3.842582E-16	3.421404E-17
2.480000E+03	3.941255E-16	3.270402E-17
2.520000E+03	4.051722E-16	3.103402E-17
2.560000E+03	4.172972E-16	2.971094E-17
2.600000E+03	4.304110E-16	2.947084E-17
2.640000E+03	4.444238E-16	3.102274E-17
2.680000E+03	4.593419E-16	3.452039E-17
2.720000E+03	4.751199E-16	3.953567E-17
2.760000E+03	4.917320E-16	4.548709E-17
2.800000E+03	5.093471E-16	5.188302E-17
2.840000E+03	5.280244E-16	5.833609E-17
2.880000E+03	5.478549E-16	6.454943E-17
2.920000E+03	5.691978E-16	7.031655E-17
2.960000E+03	5.922761E-16	7.545353E-17
3.000000E+03	6.174067E-16	7.980934E-17
3.010000E+03	6.240622E-16	8.076167E-17
3.020000E+03	6.308633E-16	8.165331E-17
3.030000E+03	6.378119E-16	8.248179E-17
3.040000E+03	6.449102E-16	8.324461E-17
3.050000E+03	6.521601E-16	8.393930E-17
3.060000E+03	6.596497E-16	8.457445E-17
3.070000E+03	6.672949E-16	8.513650E-17
3.080000E+03	6.750970E-16	8.562293E-17
3.090000E+03	6.831448E-16	8.604227E-17
3.100000E+03	6.913524E-16	8.638092E-17
3.110000E+03	6.998088E-16	8.664731E-17
3.120000E+03	7.084266E-16	8.682792E-17
3.130000E+03	7.172950E-16	8.693109E-17
3.140000E+03	7.264149E-16	8.695415E-17
3.150000E+03	7.356968E-16	8.688385E-17
3.160000E+03	7.453201E-16	8.673888E-17
3.170000E+03	7.551042E-16	8.649558E-17
3.180000E+03	7.651382E-16	8.616211E-17
3.190000E+03	7.754206E-16	8.573611E-17
3.200000E+03	7.859495E-16	8.521540E-17
3.210000E+03	7.968146E-16	8.460776E-17
3.220000E+03	8.079212E-16	8.390133E-17
3.230000E+03	8.192657E-16	8.309463E-17
3.240000E+03	8.308435E-16	8.218662E-17
3.250000E+03	8.427432E-16	8.118572E-17
3.260000E+03	8.549600E-16	8.009127E-17
3.270000E+03	8.673938E-16	7.889467E-17
3.280000E+03	8.801321E-16	7.760571E-17
3.290000E+03	8.931676E-16	7.622613E-17
3.300000E+03	9.064922E-16	7.475879E-17
3.310000E+03	9.200971E-16	7.320790E-17
3.320000E+03	9.339725E-16	7.157934E-17
3.330000E+03	9.482045E-16	6.988802E-17
3.340000E+03	9.625887E-16	6.812956E-17
3.350000E+03	9.774037E-16	6.633739E-17
3.360000E+03	9.924431E-16	6.451331E-17
3.370000E+03	1.007693E-15	6.267710E-17
3.380000E+03	1.023336E-15	6.086449E-17
3.390000E+03	1.039162E-15	5.909166E-17
3.400000E+03	1.055351E-15	5.740340E-17
3.410000E+03	1.071693E-15	5.582754E-17
3.420000E+03	1.088369E-15	5.441861E-17
3.430000E+03	1.105364E-15	5.322430E-17
3.440000E+03	1.122565E-15	5.229028E-17
3.450000E+03	1.140054E-15	5.167128E-17
3.460000E+03	1.157819E-15	5.141248E-17
3.470000E+03	1.175744E-15	5.154457E-17
3.480000E+03	1.194017E-15	5.209475E-17
3.490000E+03	1.212625E-15	5.306009E-17
3.500000E+03	1.231357E-15	5.440997E-17
3.510000E+03	1.250502E-15	5.612228E-17
3.520000E+03	1.269851E-15	5.814476E-17
3.530000E+03	1.289497E-15	6.043473E-17
3.540000E+03	1.309432E-15	6.294481E-17
3.550000E+03	1.329653E-15	6.562974E-17
3.560000E+03	1.350156E-15	6.844773E-17
3.570000E+03	1.371039E-15	7.136643E-17
3.580000E+03	1.392302E-15	7.435315E-17
3.590000E+03	1.413945E-15	7.737954E-17
3.600000E+03	1.435972E-15	8.042133E-17
3.610000E+03	1.458386E-15	8.345796E-17
3.620000E+03	1.481194E-15	8.647222E-17
3.630000E+03	1.504499E-15	8.945570E-17
3.640000E+03	1.528212E-15	9.239112E-17
3.650000E+03	1.552439E-15	9.527515E-17
3.660000E+03	1.577286E-15	9.810672E-17
3.670000E+03	1.602565E-15	1.008684E-16
3.680000E+03	1.628481E-15	1.035682E-16
3.690000E+03	1.654942E-15	1.061975E-16
3.700000E+03	1.682052E-15	1.087605E-16
3.710000E+03	1.709812E-15	1.112565E-16
3.720000E+03	1.738224E-15	1.136848E-16
3.730000E+03	1.767282E-15	1.160456E-16
3.740000E+03	1.796977E-15	1.183390E-16
3.750000E+03	1.827390E-15	1.205714E-16
3.760000E+03	1.858400E-15	1.227367E-16
3.770000E+03	1.890165E-15	1.248470E-16
3.780000E+03	1.922452E-15	1.268894E-16
3.790000E+03	1.955301E-15	1.288689E-16
3.800000E+03	1.988644E-15	1.307838E-16
3.810000E+03	2.022491E-15	1.326379E-16
3.820000E+03	2.056745E-15	1.344280E-16
3.830000E+03	2.091108E-15	1.361384E-16
3.840000E+03	2.125727E-15	1.377829E-16
3.850000E+03	2.160367E-15	1.393502E-16
3.860000E+03	2.194777E-15	1.408290E-16
3.870000E+03	2.228969E-15	1.422251E-16
3.880000E+03	2.262578E-15	1.435206E-16
3.890000E+03	2.295599E-15	1.447205E-16
3.900000E+03	2.327835E-15	1.458183E-16
3.910000E+03	2.358917E-15	1.467964E-16
3.920000E+03	2.388835E-15	1.476600E-16
3.930000E+03	2.417412E-15	1.484034E-16
3.940000E+03	2.444398E-15	1.490164E-16
3.950000E+03	2.469739E-15	1.495000E-16
3.960000E+03	2.493319E-15	1.498509E-16
3.970000E+03	2.514967E-15	1.500617E-16
3.980000E+03	2.534633E-15	1.501313E-16
3.990000E+03	2.552467E-15	1.500692E-16
4.000000E+03	2.568244E-15	1.498619E-16
4.010000E+03	2.582188E-15	1.495206E-16
4.020000E+03	2.594393E-15	1.490480E-16
4.030000E+03	2.604914E-15	1.484430E-16
4.040000E+03	2.613915E-15	1.477097E-16
4.050000E+03	2.621588E-15	1.468527E-16
4.060000E+03	2.628148E-15	1.458766E-16
4.070000E+03	2.633826E-15	1.447861E-16
4.080000E+03	2.638795E-15	1.435815E-16
4.090000E+03	2.643375E-15	1.422706E-16
4.100000E+03	2.647748E-15	1.408524E-16
4.110000E+03	2.652094E-15	1.393254E-16
4.120000E+03	2.656720E-15	1.376939E-16
4.130000E+03	2.661785E-15	1.359539E-16
4.140000E+03	2.667498E-15	1.341031E-16
4.150000E+03	2.674051E-15	1.321379E-16
4.160000E+03	2.681490E-15	1.300469E-16
4.170000E+03	2.690027E-15	1.278268E-16
4.180000E+03	2.699729E-15	1.254670E-16
4.190000E+03	2.710700E-15	1.229591E-16
4.200000E+03	2.722966E-15	1.202918E-16
4.210000E+03	2.736535E-15	1.174545E-16
4.220000E+03	2.751454E-15	1.144402E-16
4.230000E+03	2.767753E-15	1.112442E-16
4.240000E+03	2.785339E-15	1.078609E-16
4.250000E+03	2.804221E-15	1.042946E-16
4.260000E+03	2.824348E-15	1.005552E-16
4.270000E+03	2.845716E-15	9.666457E-17
4.280000E+03	2.868218E-15	9.265434E-17
4.290000E+03	2.891909E-15	8.857948E-17
4.300000E+03	2.916639E-15	8.451097E-17
4.310000E+03	2.942426E-15	8.055348E-17
4.320000E+03	2.969298E-15	7.684528E-17
4.330000E+03	2.997189E-15	7.355887E-17
4.340000E+03	3.026148E-15	7.090309E-17
4.350000E+03	3.056127E-15	6.910201E-17
4.360000E+03	3.087136E-15	6.836345E-17
4.370000E+03	3.119239E-15	6.882258E-17
4.380000E+03	3.152455E-15	7.049716E-17
4.390000E+03	3.186702E-15	7.330473E-17
4.400000E+03	3.222089E-15	7.710905E-17
4.410000E+03	3.258569E-15	8.174640E-17
4.420000E+03	3.296128E-15	8.705284E-17
4.430000E+03	3.334743E-15	9.287456E-17
4.440000E+03	3.374363E-15	9.907439E-17
4.450000E+03	3.414858E-15	1.055324E-16
4.460000E+03	3.456209E-15	1.121513E-16
4.470000E+03	3.498248E-15	1.188464E-16
4.480000E+03	3.540855E-15	1.255497E-16
4.490000E+03	3.583800E-15	1.322018E-16
4.500000E+03	3.626693E-15	1.387476E-16
4.510000E+03	3.669332E-15	1.451473E-16
4.520000E+03	3.711207E-15	1.513557E-16
4.530000E+03	3.751953E-15	1.573386E-16
4.540000E+03	3.790962E-15	1.630558E-16
4.550000E+03	3.827742E-15	1.684756E-16
4.560000E+03	3.861786E-15	1.735680E-16
4.570000E+03	3.892536E-15	1.783032E-16
4.580000E+03	3.919451E-15	1.826542E-16
4.590000E+03	3.942032E-15	1.865971E-16
4.600000E+03	3.959888E-15	1.901145E-16
4.610000E+03	3.972657E-15	1.931914E-16
4.620000E+03	3.980070E-15	1.958184E-16
4.630000E+03	3.982016E-15	1.979943E-16
4.640000E+03	3.978449E-15	1.997220E-16
4.650000E+03	3.969489E-15	2.010130E-16
4.660000E+03	3.955371E-15	2.018851E-16
4.670000E+03	3.936340E-15	2.023568E-16
4.680000E+03	3.912832E-15	2.024567E-16
4.690000E+03	3.885365E-15	2.022176E-16
4.700000E+03	3.854511E-15	2.016755E-16
4.710000E+03	3.820790E-15	2.008634E-16
4.720000E+03	3.784879E-15	1.998232E-16
4.730000E+03	3.747313E-15	1.985888E-16
4.740000E+03	3.708745E-15	1.972008E-16
4.750000E+03	3.669654E-15	1.956906E-16
4.760000E+03	3.630558E-15	1.940918E-16
4.770000E+03	3.591872E-15	1.924323E-16
4.780000E+03	3.553943E-15	1.907367E-16
4.790000E+03	3.517131E-15	1.890304E-16
4.800000E+03	3.481554E-15	1.873256E-16
4.810000E+03	3.447428E-15	1.856398E-16
4.820000E+03	3.414815E-15	1.839823E-16
4.830000E+03	3.383714E-15	1.823589E-16
4.840000E+03	3.354071E-15	1.807721E-16
4.850000E+03	3.325780E-15	1.792218E-16
4.860000E+03	3.298735E-15	1.777073E-16
4.870000E+03	3.272761E-15	1.762240E-16
4.880000E+03	3.247658E-15	1.747654E-16
4.890000E+03	3.223258E-15	1.733262E-16
4.900000E+03	3.199276E-15	1.718946E-16
4.910000E+03	3.175588E-15	1.704665E-16
4.920000E+03	3.152013E-15	1.690342E-16
4.930000E+03	3.128398E-15	1.675908E-16
4.940000E+03	3.104663E-15	1.661327E-16
4.950000E+03	3.080662E-15	1.646520E-16
4.960000E+03	3.056437E-15	1.631502E-16
4.970000E+03	3.032010E-15	1.616272E-16
4.980000E+03	3.007416E-15	1.600831E-16
4.990000E+03	2.982842E-15	1.585254E-16
5.000000E+03	2.958384E-15	1.569564E-16
5.010000E+03	2.934311E-15	1.553872E-16
5.020000E+03	2.910824E-15	1.538248E-16
5.030000E+03	2.888185E-15	1.522791E-16
5.040000E+03	2.866701E-15	1.507621E-16
5.050000E+03	2.846626E-15	1.492824E-16
5.060000E+03	2.828278E-15	1.478516E-16
5.070000E+03	2.811935E-15	1.464788E-16
5.080000E+03	2.797832E-15	1.451701E-16
5.090000E+03	2.786247E-15	1.439334E-16
5.100000E+03	2.777401E-15	1.427726E-16
5.110000E+03	2.771489E-15	1.416896E-16
5.120000E+03	2.768675E-15	1.406837E-16
5.130000E+03	2.769090E-15	1.397514E-16
5.140000E+03	2.772833E-15	1.388864E-16
5.150000E+03	2.779966E-15	1.380793E-16
5.160000E+03	2.790518E-15	1.373179E-16
5.170000E+03	2.804488E-15	1.365867E-16
5.180000E+03	2.821838E-15	1.358675E-16
5.190000E+03	2.842504E-15	1.351390E-16
5.200000E+03	2.866394E-15	1.343773E-16
5.210000E+03	2.893393E-15	1.335558E-16
5.220000E+03	2.923367E-15	1.326458E-16
5.230000E+03	2.956167E-15	1.316165E-16
5.240000E+03	2.991669E-15	1.304370E-16
5.250000E+03	3.029653E-15	1.290713E-16
5.260000E+03	3.069997E-15	1.274869E-16
5.270000E+03	3.112561E-15	1.256501E-16
5.280000E+03	3.157225E-15	1.235278E-16
5.290000E+03	3.203861E-15	1.210877E-16
5.300000E+03	3.252473E-15	1.183037E-16
5.310000E+03	3.302969E-15	1.151488E-16
5.320000E+03	3.355397E-15	1.116053E-16
5.330000E+03	3.409778E-15	1.076612E-16
5.340000E+03	3.466241E-15	1.033181E-16
5.350000E+03	3.524920E-15	9.859222E-17
5.360000E+03	3.585939E-15	9.352235E-17
5.370000E+03	3.649514E-15	8.818325E-17
5.380000E+03	3.715797E-15	8.269790E-17
5.390000E+03	3.784965E-15	7.726317E-17
5.400000E+03	3.857205E-15	7.217858E-17
5.410000E+03	3.932576E-15	6.787144E-17
5.420000E+03	4.011043E-15	6.489872E-17
5.430000E+03	4.092577E-15	6.387219E-17
5.440000E+03	4.176876E-15	6.525502E-17
5.450000E+03	4.263471E-15	6.914272E-17
5.460000E+03	4.351808E-15	7.527211E-17
5.470000E+03	4.440919E-15	8.318344E-17
5.480000E+03	4.529702E-15	9.238782E-17
5.490000E+03	4.616922E-15	1.024513E-16
5.500000E+03	4.701186E-15	1.130139E-16
5.510000E+03	4.780997E-15	1.237820E-16
5.520000E+03	4.854922E-15	1.345158E-16
5.530000E+03	4.921653E-15	1.450184E-16
5.540000E+03	4.979884E-15	1.551218E-16
5.550000E+03	5.028752E-15	1.646936E-16
5.560000E+03	5.067392E-15	1.736205E-16
5.570000E+03	5.095372E-15	1.818186E-16
5.580000E+03	5.112456E-15	1.892256E-16
5.590000E+03	5.118863E-15	1.958084E-16
5.600000E+03	5.114901E-15	2.015500E-16
5.610000E+03	5.101293E-15	2.064604E-16
5.620000E+03	5.078989E-15	2.105691E-16
5.630000E+03	5.048965E-15	2.139160E-16
5.640000E+03	5.012523E-15	2.165629E-16
5.650000E+03	4.970838E-15	2.185728E-16
5.660000E+03	4.925298E-15	2.200241E-16
5.670000E+03	4.877065E-15	2.209893E-16
5.680000E+03	4.827419E-15	2.215496E-16
5.690000E+03	4.777337E-15	2.217748E-16
5.700000E+03	4.727802E-15	2.217362E-16
5.710000E+03	4.679591E-15	2.214959E-16
5.720000E+03	4.633311E-15	2.211080E-16
5.730000E+03	4.589347E-15	2.206152E-16
5.740000E+03	4.548004E-15	2.200551E-16
5.750000E+03	4.509327E-15	2.194515E-16
5.760000E+03	4.473296E-15	2.188231E-16
5.770000E+03	4.439615E-15	2.181737E-16
5.780000E+03	4.408041E-15	2.175075E-16
5.790000E+03	4.378095E-15	2.168154E-16
5.800000E+03	4.349263E-15	2.160848E-16
5.810000E+03	4.320975E-15	2.152987E-16
5.820000E+03	4.292587E-15	2.144348E-16
5.830000E+03	4.263533E-15	2.134733E-16
5.840000E+03	4.233185E-15	2.123900E-16
5.850000E+03	4.200999E-15	2.111639E-16
5.860000E+03	4.166535E-15	2.097781E-16
5.870000E+03	4.129317E-15	2.082132E-16
5.880000E+03	4.089085E-15	2.064596E-16
5.890000E+03	4.045646E-15	2.045108E-16
5.900000E+03	3.998878E-15	2.023633E-16
5.910000E+03	3.948815E-15	2.000206E-16
5.920000E+03	3.895631E-15	1.974934E-16
5.930000E+03	3.839489E-15	1.947911E-16
5.940000E+03	3.780786E-15	1.919350E-16
5.950000E+03	3.719809E-15	1.889400E-16
5.960000E+03	3.657114E-15	1.858350E-16
5.970000E+03	3.593084E-15	1.826394E-16
5.980000E+03	3.528297E-15	1.793827E-16
5.990000E+03	3.463232E-15	1.760888E-16
6.000000E+03	3.398392E-15	1.727829E-16
6.010000E+03	3.334226E-15	1.694871E-16
6.020000E+03	3.271217E-15	1.662253E-16
6.030000E+03	3.209776E-15	1.630173E-16
6.040000E+03	3.150239E-15	1.598790E-16
6.050000E+03	3.092897E-15	1.568239E-16
6.060000E+03	3.038083E-15	1.538676E-16
6.070000E+03	2.985967E-15	1.510168E-16
6.080000E+03	2.936762E-15	1.482803E-16
6.090000E+03	2.890582E-15	1.456618E-16
6.100000E+03	2.847537E-15	1.431640E-16
6.110000E+03	2.807701E-15	1.407877E-16
6.120000E+03	2.771098E-15	1.385304E-16
6.130000E+03	2.737753E-15	1.363891E-16
6.140000E+03	2.707674E-15	1.343593E-16
6.150000E+03	2.680853E-15	1.324348E-16
6.160000E+03	2.657244E-15	1.306068E-16
6.170000E+03	2.636870E-15	1.288688E-16
6.180000E+03	2.619695E-15	1.272105E-16
6.190000E+03	2.605678E-15	1.256202E-16
6.200000E+03	2.594726E-15	1.240824E-16
6.210000E+03	2.586843E-15	1.225856E-16
6.220000E+03	2.581958E-15	1.211130E-16
6.230000E+03	2.580022E-15	1.196481E-16
6.240000E+03	2.581011E-15	1.181743E-16
6.250000E+03	2.584849E-15	1.166714E-16
6.260000E+03	2.591535E-15	1.151217E-16
6.270000E+03	2.600988E-15	1.135031E-16
6.280000E+03	2.613174E-15	1.117948E-16
6.290000E+03	2.628053E-15	1.099756E-16
6.300000E+03	2.645550E-15	1.080227E-16
6.310000E+03	2.665581E-15	1.059141E-16
6.320000E+03	2.688045E-15	1.036286E-16
6.330000E+03	2.712877E-15	1.011497E-16
6.340000E+03	2.739885E-15	9.846069E-17
6.350000E+03	2.768956E-15	9.555505E-17
6.360000E+03	2.799896E-15	9.243360E-17
6.370000E+03	2.832448E-15	8.910963E-17
6.380000E+03	2.866429E-15	8.561888E-17
6.390000E+03	2.901477E-15	8.201831E-17
6.400000E+03	2.937269E-15	7.840154E-17
6.410000E+03	2.973439E-15	7.490495E-17
6.420000E+03	3.009544E-15	7.171368E-17
6.430000E+03	3.045097E-15	6.906210E-17
6.440000E+03	3.079596E-15	6.721862E-17
6.450000E+03	3.112504E-15	6.644604E-17
6.460000E+03	3.143255E-15	6.694139E-17
6.470000E+03	3.171256E-15	6.877017E-17
6.480000E+03	3.195967E-15	7.184463E-17
6.490000E+03	3.216901E-15	7.596325E-17
6.500000E+03	3.233487E-15	8.086466E-17
6.510000E+03	3.245297E-15	8.628145E-17
6.520000E+03	3.251783E-15	9.196361E-17
6.530000E+03	3.252569E-15	9.769830E-17
6.540000E+03	3.247400E-15	1.033111E-16
6.550000E+03	3.235979E-15	1.086580E-16
6.560000E+03	3.218290E-15	1.136318E-16
6.570000E+03	3.194326E-15	1.181488E-16
6.580000E+03	3.164193E-15	1.221494E-16
6.590000E+03	3.128212E-15	1.255984E-16
6.600000E+03	3.086701E-15	1.284756E-16
6.610000E+03	3.040107E-15	1.307779E-16
6.620000E+03	2.988953E-15	1.325159E-16
6.630000E+03	2.933823E-15	1.337120E-16
6.640000E+03	2.875379E-15	1.343995E-16
6.650000E+03	2.814243E-15	1.346162E-16
6.660000E+03	2.751080E-15	1.344067E-16
6.670000E+03	2.686575E-15	1.338206E-16
6.680000E+03	2.621362E-15	1.329078E-16
6.690000E+03	2.556012E-15	1.317173E-16
6.700000E+03	2.491137E-15	1.303011E-16
6.710000E+03	2.427185E-15	1.287039E-16
6.720000E+03	2.364633E-15	1.269715E-16
6.730000E+03	2.303872E-15	1.251450E-16
6.740000E+03	2.245232E-15	1.232617E-16
6.750000E+03	2.188986E-15	1.213549E-16
6.760000E+03	2.135379E-15	1.194552E-16
6.770000E+03	2.084551E-15	1.175865E-16
6.780000E+03	2.036646E-15	1.157715E-16
6.790000E+03	1.991718E-15	1.140267E-16
6.800000E+03	1.949809E-15	1.123666E-16
6.810000E+03	1.910972E-15	1.108053E-16
6.820000E+03	1.875142E-15	1.093491E-16
6.830000E+03	1.842279E-15	1.080046E-16
6.840000E+03	1.812365E-15	1.067787E-16
6.850000E+03	1.785284E-15	1.056719E-16
6.860000E+03	1.760970E-15	1.046868E-16
6.870000E+03	1.739330E-15	1.038234E-16
6.880000E+03	1.720264E-15	1.030809E-16
6.890000E+03	1.703670E-15	1.024579E-16
6.900000E+03	1.689441E-15	1.019521E-16
6.910000E+03	1.677455E-15	1.015596E-16
6.920000E+03	1.667647E-15	1.012800E-16
6.930000E+03	1.659877E-15	1.011076E-16
6.940000E+03	1.654086E-15	1.010414E-16
6.950000E+03	1.650140E-15	1.010758E-16
6.960000E+03	1.647988E-15	1.012098E-16
6.970000E+03	1.647503E-15	1.014375E-16
6.980000E+03	1.648622E-15	1.017570E-16
6.990000E+03	1.651268E-15	1.021651E-16
7.000000E+03	1.655367E-15	1.026587E-16
7.010000E+03	1.660828E-15	1.032338E-16
7.020000E+03	1.667624E-15	1.038900E-16
7.030000E+03	1.675654E-15	1.046222E-16
7.040000E+03	1.684856E-15	1.054280E-16
7.050000E+03	1.695214E-15	1.063075E-16
7.060000E+03	1.706610E-15	1.072548E-16
7.070000E+03	1.719054E-15	1.082714E-16
7.080000E+03	1.732429E-15	1.093516E-16
7.090000E+03	1.746725E-15	1.104960E-16
7.100000E+03	1.761892E-15	1.117027E-16
7.110000E+03	1.777834E-15	1.129674E-16
7.120000E+03	1.794541E-15	1.142910E-16
7.130000E+03	1.811940E-15	1.156705E-16
7.140000E+03	1.829976E-15	1.171043E-16
7.150000E+03	1.848572E-15	1.185895E-16
7.160000E+03	1.867717E-15	1.201275E-16
7.170000E+03	1.887308E-15	1.217141E-16
7.180000E+03	1.907335E-15	1.233510E-16
7.190000E+03	1.927670E-15	1.250325E-16
7.200000E+03	1.948326E-15	1.267622E-16
7.210000E+03	1.969198E-15	1.285360E-16
7.220000E+03	1.990230E-15	1.303533E-16
7.230000E+03	2.011391E-15	1.322149E-16
7.240000E+03	2.032604E-15	1.341188E-16
7.250000E+03	2.053819E-15	1.360646E-16
7.260000E+03	2.075015E-15	1.380537E-16
7.270000E+03	2.096097E-15	1.400825E-16
7.280000E+03	2.117079E-15	1.421544E-16
7.290000E+03	2.137900E-15	1.442677E-16
7.300000E+03	2.158506E-15	1.464203E-16
7.310000E+03	2.178926E-15	1.486157E-16
7.320000E+03	2.199090E-15	1.508500E-16
7.330000E+03	2.219012E-15	1.531245E-16
7.340000E+03	2.238687E-15	1.554384E-16
7.350000E+03	2.258116E-15	1.577909E-16
7.360000E+03	2.277304E-15	1.601807E-16
7.370000E+03	2.296233E-15	1.626039E-16
7.380000E+03	2.314950E-15	1.650604E-16
7.390000E+03	2.333475E-15	1.675479E-16
7.400000E+03	2.351833E-15	1.700633E-16
7.410000E+03	2.370052E-15	1.726032E-16
7.420000E+03	2.388133E-15	1.751616E-16
7.430000E+03	2.406170E-15	1.777386E-16
7.440000E+03	2.424195E-15	1.803295E-16
7.450000E+03	2.442210E-15	1.829270E-16
7.460000E+03	2.460279E-15	1.855278E-16
7.470000E+03	2.478366E-15	1.881210E-16
7.480000E+03	2.496526E-15	1.907024E-16
7.490000E+03	2.514779E-15	1.932649E-16
7.500000E+03	2.533104E-15	1.957983E-16
7.510000E+03	2.551539E-15	1.982967E-16
7.520000E+03	2.570048E-15	2.007486E-16
7.530000E+03	2.588649E-15	2.031466E-16
7.540000E+03	2.607285E-15	2.054777E-16
7.550000E+03	2.625922E-15	2.077303E-16
7.560000E+03	2.644512E-15	2.098920E-16
7.570000E+03	2.662995E-15	2.119493E-16
7.580000E+03	2.681336E-15	2.138906E-16
7.590000E+03	2.699380E-15	2.156951E-16
7.600000E+03	2.717102E-15	2.173521E-16
7.610000E+03	2.734361E-15	2.188416E-16
7.620000E+03	2.751039E-15	2.201456E-16
7.630000E+03	2.767009E-15	2.212455E-16
7.640000E+03	2.782174E-15	2.221250E-16
7.650000E+03	2.796320E-15	2.227589E-16
7.660000E+03	2.809339E-15	2.231303E-16
7.670000E+03	2.821120E-15	2.232228E-16
7.680000E+03	2.831479E-15	2.230144E-16
7.690000E+03	2.840234E-15	2.224835E-16
7.700000E+03	2.847317E-15	2.216187E-16
7.710000E+03	2.852594E-15	2.204036E-16
7.720000E+03	2.855863E-15	2.188174E-16
7.730000E+03	2.857083E-15	2.168531E-16
7.740000E+03	2.856074E-15	2.144937E-16
7.750000E+03	2.852819E-15	2.117362E-16
7.760000E+03	2.847243E-15	2.085739E-16
