#wls	flux	fluxerr
1.600000E+03	4.445067E-16	1.553208E-16
1.640000E+03	4.276983E-16	1.388963E-16
1.680000E+03	4.120351E-16	1.237011E-16
1.720000E+03	3.975900E-16	1.097081E-16
1.760000E+03	3.843418E-16	9.686575E-17
1.800000E+03	3.722613E-16	8.513232E-17
1.840000E+03	3.613121E-16	7.448174E-17
1.880000E+03	3.515182E-16	6.492330E-17
1.920000E+03	3.428232E-16	5.648032E-17
1.960000E+03	3.351009E-16	4.920792E-17
2.000000E+03	3.284146E-16	4.323398E-17
2.040000E+03	3.226280E-16	3.867946E-17
2.080000E+03	3.177313E-16	3.564295E-17
2.120000E+03	3.136077E-16	3.404259E-17
2.160000E+03	3.102934E-16	3.355901E-17
2.200000E+03	3.078343E-16	3.376222E-17
2.240000E+03	3.061599E-16	3.425275E-17
2.280000E+03	3.053120E-16	3.474805E-17
2.320000E+03	3.052176E-16	3.506002E-17
2.360000E+03	3.060250E-16	3.511574E-17
2.400000E+03	3.075542E-16	3.487829E-17
2.440000E+03	3.099602E-16	3.441451E-17
2.480000E+03	3.131889E-16	3.383208E-17
2.520000E+03	3.173080E-16	3.331870E-17
2.560000E+03	3.223465E-16	3.311735E-17
2.600000E+03	3.283997E-16	3.350432E-17
2.640000E+03	3.355602E-16	3.470195E-17
2.680000E+03	3.437782E-16	3.675285E-17
2.720000E+03	3.531367E-16	3.954594E-17
2.760000E+03	3.637192E-16	4.289061E-17
2.800000E+03	3.754571E-16	4.656032E-17
2.840000E+03	3.884659E-16	5.036127E-17
2.880000E+03	4.028842E-16	5.412407E-17
2.920000E+03	4.188155E-16	5.769385E-17
2.960000E+03	4.363838E-16	6.093183E-17
3.000000E+03	4.559115E-16	6.373529E-17
3.010000E+03	4.611253E-16	6.435496E-17
3.020000E+03	4.665117E-16	6.494320E-17
3.030000E+03	4.720130E-16	6.548973E-17
3.040000E+03	4.776310E-16	6.599259E-17
3.050000E+03	4.834284E-16	6.645819E-17
3.060000E+03	4.893469E-16	6.687629E-17
3.070000E+03	4.955107E-16	6.726156E-17
3.080000E+03	5.018010E-16	6.759549E-17
3.090000E+03	5.082200E-16	6.787626E-17
3.100000E+03	5.148934E-16	6.811840E-17
3.110000E+03	5.217014E-16	6.830366E-17
3.120000E+03	5.287707E-16	6.844642E-17
3.130000E+03	5.359809E-16	6.852870E-17
3.140000E+03	5.433972E-16	6.855682E-17
3.150000E+03	5.510863E-16	6.853686E-17
3.160000E+03	5.589263E-16	6.845142E-17
3.170000E+03	5.670474E-16	6.831447E-17
3.180000E+03	5.753907E-16	6.811665E-17
3.190000E+03	5.839603E-16	6.785660E-17
3.200000E+03	5.928251E-16	6.754040E-17
3.210000E+03	6.019903E-16	6.716662E-17
3.220000E+03	6.113317E-16	6.671982E-17
3.230000E+03	6.210490E-16	6.622061E-17
3.240000E+03	6.310179E-16	6.565415E-17
3.250000E+03	6.413096E-16	6.502704E-17
3.260000E+03	6.519302E-16	6.433915E-17
3.270000E+03	6.628864E-16	6.359076E-17
3.280000E+03	6.741847E-16	6.278262E-17
3.290000E+03	6.858319E-16	6.191608E-17
3.300000E+03	6.978348E-16	6.099314E-17
3.310000E+03	7.102005E-16	6.001658E-17
3.320000E+03	7.230040E-16	5.899568E-17
3.330000E+03	7.362532E-16	5.793466E-17
3.340000E+03	7.498868E-16	5.683374E-17
3.350000E+03	7.639109E-16	5.570028E-17
3.360000E+03	7.784708E-16	5.455299E-17
3.370000E+03	7.934332E-16	5.339216E-17
3.380000E+03	8.088725E-16	5.223511E-17
3.390000E+03	8.248634E-16	5.110072E-17
3.400000E+03	8.412664E-16	4.999691E-17
3.410000E+03	8.582238E-16	4.895169E-17
3.420000E+03	8.757348E-16	4.798641E-17
3.430000E+03	8.937229E-16	4.712078E-17
3.440000E+03	9.121804E-16	4.638029E-17
3.450000E+03	9.312435E-16	4.579816E-17
3.460000E+03	9.507535E-16	4.539160E-17
3.470000E+03	9.708438E-16	4.518904E-17
3.480000E+03	9.913527E-16	4.519841E-17
3.490000E+03	1.012420E-15	4.543186E-17
3.500000E+03	1.034040E-15	4.588561E-17
3.510000E+03	1.056128E-15	4.654532E-17
3.520000E+03	1.078745E-15	4.739767E-17
3.530000E+03	1.101872E-15	4.842203E-17
3.540000E+03	1.125484E-15	4.959531E-17
3.550000E+03	1.149548E-15	5.089333E-17
3.560000E+03	1.174022E-15	5.229190E-17
3.570000E+03	1.198935E-15	5.377112E-17
3.580000E+03	1.224151E-15	5.530549E-17
3.590000E+03	1.249761E-15	5.688189E-17
3.600000E+03	1.275535E-15	5.847499E-17
3.610000E+03	1.301474E-15	6.007224E-17
3.620000E+03	1.327573E-15	6.166341E-17
3.630000E+03	1.353667E-15	6.323310E-17
3.640000E+03	1.379752E-15	6.477545E-17
3.650000E+03	1.405664E-15	6.627923E-17
3.660000E+03	1.431492E-15	6.774650E-17
3.670000E+03	1.457015E-15	6.916616E-17
3.680000E+03	1.482348E-15	7.054399E-17
3.690000E+03	1.507471E-15	7.187990E-17
3.700000E+03	1.532229E-15	7.316765E-17
3.710000E+03	1.556896E-15	7.442132E-17
3.720000E+03	1.581457E-15	7.564091E-17
3.730000E+03	1.606011E-15	7.683111E-17
3.740000E+03	1.630683E-15	7.799732E-17
3.750000E+03	1.655625E-15	7.914538E-17
3.760000E+03	1.681161E-15	8.028878E-17
3.770000E+03	1.707313E-15	8.142597E-17
3.780000E+03	1.734332E-15	8.256623E-17
3.790000E+03	1.762382E-15	8.371449E-17
3.800000E+03	1.791599E-15	8.487469E-17
3.810000E+03	1.822161E-15	8.605320E-17
3.820000E+03	1.854043E-15	8.724758E-17
3.830000E+03	1.887392E-15	8.846442E-17
3.840000E+03	1.921983E-15	8.969393E-17
3.850000E+03	1.957750E-15	9.093488E-17
3.860000E+03	1.994473E-15	9.218012E-17
3.870000E+03	2.031855E-15	9.342013E-17
3.880000E+03	2.069605E-15	9.464648E-17
3.890000E+03	2.107213E-15	9.584159E-17
3.900000E+03	2.144266E-15	9.699291E-17
3.910000E+03	2.180239E-15	9.808291E-17
3.920000E+03	2.214510E-15	9.908985E-17
3.930000E+03	2.246611E-15	9.999855E-17
3.940000E+03	2.276099E-15	1.007943E-16
3.950000E+03	2.302359E-15	1.014541E-16
3.960000E+03	2.325072E-15	1.019669E-16
3.970000E+03	2.343938E-15	1.023216E-16
3.980000E+03	2.358766E-15	1.025106E-16
3.990000E+03	2.369553E-15	1.025334E-16
4.000000E+03	2.376211E-15	1.023843E-16
4.010000E+03	2.379047E-15	1.020741E-16
4.020000E+03	2.378206E-15	1.016052E-16
4.030000E+03	2.374135E-15	1.009922E-16
4.040000E+03	2.367350E-15	1.002519E-16
4.050000E+03	2.358236E-15	9.939497E-17
4.060000E+03	2.347342E-15	9.843843E-17
4.070000E+03	2.335294E-15	9.740215E-17
4.080000E+03	2.322646E-15	9.630276E-17
4.090000E+03	2.309820E-15	9.515107E-17
4.100000E+03	2.297429E-15	9.396571E-17
4.110000E+03	2.285818E-15	9.275388E-17
4.120000E+03	2.275443E-15	9.152709E-17
4.130000E+03	2.266596E-15	9.028974E-17
4.140000E+03	2.259508E-15	8.904356E-17
4.150000E+03	2.254502E-15	8.779322E-17
4.160000E+03	2.251592E-15	8.653071E-17
4.170000E+03	2.250931E-15	8.525300E-17
4.180000E+03	2.252565E-15	8.395241E-17
4.190000E+03	2.256444E-15	8.261722E-17
4.200000E+03	2.262474E-15	8.123399E-17
4.210000E+03	2.270564E-15	7.978964E-17
4.220000E+03	2.280542E-15	7.826886E-17
4.230000E+03	2.292251E-15	7.665811E-17
4.240000E+03	2.305469E-15	7.494362E-17
4.250000E+03	2.320001E-15	7.311555E-17
4.260000E+03	2.335558E-15	7.116534E-17
4.270000E+03	2.351938E-15	6.909294E-17
4.280000E+03	2.368909E-15	6.690474E-17
4.290000E+03	2.386296E-15	6.461854E-17
4.300000E+03	2.403869E-15	6.226283E-17
4.310000E+03	2.421477E-15	5.988325E-17
4.320000E+03	2.439010E-15	5.754424E-17
4.330000E+03	2.456411E-15	5.533091E-17
4.340000E+03	2.473635E-15	5.334765E-17
4.350000E+03	2.490740E-15	5.171467E-17
4.360000E+03	2.507812E-15	5.055416E-17
4.370000E+03	2.525012E-15	4.996850E-17
4.380000E+03	2.542623E-15	5.001712E-17
4.390000E+03	2.560836E-15	5.072024E-17
4.400000E+03	2.580076E-15	5.207267E-17
4.410000E+03	2.600656E-15	5.404041E-17
4.420000E+03	2.622937E-15	5.656370E-17
4.430000E+03	2.647395E-15	5.956026E-17
4.440000E+03	2.674470E-15	6.293686E-17
4.450000E+03	2.704508E-15	6.660379E-17
4.460000E+03	2.737932E-15	7.048815E-17
4.470000E+03	2.774942E-15	7.452936E-17
4.480000E+03	2.815714E-15	7.868284E-17
4.490000E+03	2.860111E-15	8.290949E-17
4.500000E+03	2.907895E-15	8.717797E-17
4.510000E+03	2.958526E-15	9.145595E-17
4.520000E+03	3.011276E-15	9.571056E-17
4.530000E+03	3.065117E-15	9.990283E-17
4.540000E+03	3.118981E-15	1.039943E-16
4.550000E+03	3.171435E-15	1.079354E-16
4.560000E+03	3.221008E-15	1.116749E-16
4.570000E+03	3.266255E-15	1.151625E-16
4.580000E+03	3.305630E-15	1.183431E-16
4.590000E+03	3.337728E-15	1.211660E-16
4.600000E+03	3.361329E-15	1.235857E-16
4.610000E+03	3.375477E-15	1.255653E-16
4.620000E+03	3.379497E-15	1.270771E-16
4.630000E+03	3.373170E-15	1.281095E-16
4.640000E+03	3.356622E-15	1.286633E-16
4.650000E+03	3.330358E-15	1.287535E-16
4.660000E+03	3.295187E-15	1.284067E-16
4.670000E+03	3.252246E-15	1.276629E-16
4.680000E+03	3.202930E-15	1.265730E-16
4.690000E+03	3.148650E-15	1.251897E-16
4.700000E+03	3.091026E-15	1.235754E-16
4.710000E+03	3.031544E-15	1.217886E-16
4.720000E+03	2.971646E-15	1.198875E-16
4.730000E+03	2.912643E-15	1.179265E-16
4.740000E+03	2.855644E-15	1.159531E-16
4.750000E+03	2.801611E-15	1.140102E-16
4.760000E+03	2.751281E-15	1.121322E-16
4.770000E+03	2.705264E-15	1.103499E-16
4.780000E+03	2.663895E-15	1.086832E-16
4.790000E+03	2.627434E-15	1.071499E-16
4.800000E+03	2.595894E-15	1.057581E-16
4.810000E+03	2.569181E-15	1.045120E-16
4.820000E+03	2.547134E-15	1.034136E-16
4.830000E+03	2.529391E-15	1.024565E-16
4.840000E+03	2.515549E-15	1.016329E-16
4.850000E+03	2.505028E-15	1.009276E-16
4.860000E+03	2.497261E-15	1.003257E-16
4.870000E+03	2.491586E-15	9.980801E-17
4.880000E+03	2.487273E-15	9.935182E-17
4.890000E+03	2.483621E-15	9.893475E-17
4.900000E+03	2.479850E-15	9.852992E-17
4.910000E+03	2.475295E-15	9.811374E-17
4.920000E+03	2.469298E-15	9.766131E-17
4.930000E+03	2.461354E-15	9.715211E-17
4.940000E+03	2.450998E-15	9.656575E-17
4.950000E+03	2.437997E-15	9.588965E-17
4.960000E+03	2.422255E-15	9.511566E-17
4.970000E+03	2.403818E-15	9.424069E-17
4.980000E+03	2.382948E-15	9.327013E-17
4.990000E+03	2.359979E-15	9.221246E-17
5.000000E+03	2.335473E-15	9.108590E-17
5.010000E+03	2.309983E-15	8.990922E-17
5.020000E+03	2.284205E-15	8.870773E-17
5.030000E+03	2.258841E-15	8.750784E-17
5.040000E+03	2.234593E-15	8.633678E-17
5.050000E+03	2.212145E-15	8.522134E-17
5.060000E+03	2.192113E-15	8.418582E-17
5.070000E+03	2.175107E-15	8.325390E-17
5.080000E+03	2.161625E-15	8.244421E-17
5.090000E+03	2.152164E-15	8.177444E-17
5.100000E+03	2.147059E-15	8.125468E-17
5.110000E+03	2.146617E-15	8.089268E-17
5.120000E+03	2.151123E-15	8.069368E-17
5.130000E+03	2.160699E-15	8.065523E-17
5.140000E+03	2.175443E-15	8.077233E-17
5.150000E+03	2.195426E-15	8.103745E-17
5.160000E+03	2.220579E-15	8.143611E-17
5.170000E+03	2.250750E-15	8.194943E-17
5.180000E+03	2.285755E-15	8.255581E-17
5.190000E+03	2.325324E-15	8.322918E-17
5.200000E+03	2.369026E-15	8.393648E-17
5.210000E+03	2.416413E-15	8.464310E-17
5.220000E+03	2.466950E-15	8.531072E-17
5.230000E+03	2.519948E-15	8.589519E-17
5.240000E+03	2.574753E-15	8.635365E-17
5.250000E+03	2.630584E-15	8.663926E-17
5.260000E+03	2.686657E-15	8.670604E-17
5.270000E+03	2.742196E-15	8.650936E-17
5.280000E+03	2.796457E-15	8.600735E-17
5.290000E+03	2.848802E-15	8.516327E-17
5.300000E+03	2.898645E-15	8.394412E-17
5.310000E+03	2.945573E-15	8.232470E-17
5.320000E+03	2.989344E-15	8.028780E-17
5.330000E+03	3.029945E-15	7.782626E-17
5.340000E+03	3.067503E-15	7.494187E-17
5.350000E+03	3.102382E-15	7.164984E-17
5.360000E+03	3.135135E-15	6.798109E-17
5.370000E+03	3.166515E-15	6.398815E-17
5.380000E+03	3.197311E-15	5.975131E-17
5.390000E+03	3.228528E-15	5.539766E-17
5.400000E+03	3.261112E-15	5.111873E-17
5.410000E+03	3.296020E-15	4.720237E-17
5.420000E+03	3.334111E-15	4.405684E-17
5.430000E+03	3.376054E-15	4.219298E-17
5.440000E+03	3.422132E-15	4.209137E-17
5.450000E+03	3.472127E-15	4.396276E-17
5.460000E+03	3.525077E-15	4.764397E-17
5.470000E+03	3.579557E-15	5.271739E-17
5.480000E+03	3.633822E-15	5.871207E-17
5.490000E+03	3.685712E-15	6.521502E-17
5.500000E+03	3.733152E-15	7.190259E-17
5.510000E+03	3.774039E-15	7.852399E-17
5.520000E+03	3.806406E-15	8.488358E-17
5.530000E+03	3.828625E-15	9.082937E-17
5.540000E+03	3.839523E-15	9.624601E-17
5.550000E+03	3.838352E-15	1.010485E-16
5.560000E+03	3.825035E-15	1.051855E-16
5.570000E+03	3.799908E-15	1.086310E-16
5.580000E+03	3.763963E-15	1.113898E-16
5.590000E+03	3.718630E-15	1.134914E-16
5.600000E+03	3.665722E-15	1.149870E-16
5.610000E+03	3.607322E-15	1.159461E-16
5.620000E+03	3.545670E-15	1.164513E-16
5.630000E+03	3.483082E-15	1.165949E-16
5.640000E+03	3.421742E-15	1.164711E-16
5.650000E+03	3.363763E-15	1.161764E-16
5.660000E+03	3.310985E-15	1.158013E-16
5.670000E+03	3.265034E-15	1.154311E-16
5.680000E+03	3.227292E-15	1.151436E-16
5.690000E+03	3.198786E-15	1.150038E-16
5.700000E+03	3.180280E-15	1.150659E-16
5.710000E+03	3.172262E-15	1.153723E-16
5.720000E+03	3.174853E-15	1.159495E-16
5.730000E+03	3.187891E-15	1.168107E-16
5.740000E+03	3.210892E-15	1.179544E-16
5.750000E+03	3.243079E-15	1.193653E-16
5.760000E+03	3.283277E-15	1.210112E-16
5.770000E+03	3.329982E-15	1.228454E-16
5.780000E+03	3.381471E-15	1.248121E-16
5.790000E+03	3.435647E-15	1.268403E-16
5.800000E+03	3.490178E-15	1.288502E-16
5.810000E+03	3.542652E-15	1.307589E-16
5.820000E+03	3.590568E-15	1.324804E-16
5.830000E+03	3.631493E-15	1.339311E-16
5.840000E+03	3.663149E-15	1.350333E-16
5.850000E+03	3.683611E-15	1.357220E-16
5.860000E+03	3.691424E-15	1.359491E-16
5.870000E+03	3.685583E-15	1.356821E-16
5.880000E+03	3.665691E-15	1.349103E-16
5.890000E+03	3.631976E-15	1.336446E-16
5.900000E+03	3.585120E-15	1.319116E-16
5.910000E+03	3.526401E-15	1.297588E-16
5.920000E+03	3.457428E-15	1.272449E-16
5.930000E+03	3.380188E-15	1.244419E-16
5.940000E+03	3.296666E-15	1.214209E-16
5.950000E+03	3.209054E-15	1.182603E-16
5.960000E+03	3.119382E-15	1.150325E-16
5.970000E+03	3.029568E-15	1.118055E-16
5.980000E+03	2.941320E-15	1.086396E-16
5.990000E+03	2.856098E-15	1.055861E-16
6.000000E+03	2.775067E-15	1.026857E-16
6.010000E+03	2.699150E-15	9.997033E-17
6.020000E+03	2.629041E-15	9.746354E-17
6.030000E+03	2.565119E-15	9.517752E-17
6.040000E+03	2.507634E-15	9.311969E-17
6.050000E+03	2.456627E-15	9.128983E-17
6.060000E+03	2.411942E-15	8.968031E-17
6.070000E+03	2.373396E-15	8.828226E-17
6.080000E+03	2.340612E-15	8.707944E-17
6.090000E+03	2.313185E-15	8.605422E-17
6.100000E+03	2.290631E-15	8.518570E-17
6.110000E+03	2.272470E-15	8.445283E-17
6.120000E+03	2.258130E-15	8.383084E-17
6.130000E+03	2.247074E-15	8.329595E-17
6.140000E+03	2.238741E-15	8.282333E-17
6.150000E+03	2.232560E-15	8.238763E-17
6.160000E+03	2.228028E-15	8.196584E-17
6.170000E+03	2.224609E-15	8.153370E-17
6.180000E+03	2.221855E-15	8.107016E-17
6.190000E+03	2.219416E-15	8.055766E-17
6.200000E+03	2.216989E-15	7.998017E-17
6.210000E+03	2.214430E-15	7.932724E-17
6.220000E+03	2.211593E-15	7.858795E-17
6.230000E+03	2.208480E-15	7.775626E-17
6.240000E+03	2.205096E-15	7.682546E-17
6.250000E+03	2.201612E-15	7.579392E-17
6.260000E+03	2.198207E-15	7.465924E-17
6.270000E+03	2.195122E-15	7.341990E-17
6.280000E+03	2.192705E-15	7.207671E-17
6.290000E+03	2.191225E-15	7.062626E-17
6.300000E+03	2.191020E-15	6.906607E-17
6.310000E+03	2.192439E-15	6.739250E-17
6.320000E+03	2.195740E-15	6.559776E-17
6.330000E+03	2.201159E-15	6.367269E-17
6.340000E+03	2.208903E-15	6.160726E-17
6.350000E+03	2.219118E-15	5.939084E-17
6.360000E+03	2.231824E-15	5.701242E-17
6.370000E+03	2.247063E-15	5.446770E-17
6.380000E+03	2.264772E-15	5.175977E-17
6.390000E+03	2.284805E-15	4.890632E-17
6.400000E+03	2.306979E-15	4.594997E-17
6.410000E+03	2.331078E-15	4.297119E-17
6.420000E+03	2.356776E-15	4.010390E-17
6.430000E+03	2.383684E-15	3.755431E-17
6.440000E+03	2.411372E-15	3.560724E-17
6.450000E+03	2.439246E-15	3.459001E-17
6.460000E+03	2.466549E-15	3.477171E-17
6.470000E+03	2.492220E-15	3.622178E-17
6.480000E+03	2.515022E-15	3.876636E-17
6.490000E+03	2.533538E-15	4.209009E-17
6.500000E+03	2.546267E-15	4.585427E-17
6.510000E+03	2.551898E-15	4.976502E-17
6.520000E+03	2.549250E-15	5.358787E-17
6.530000E+03	2.537423E-15	5.714518E-17
6.540000E+03	2.515814E-15	6.030657E-17
6.550000E+03	2.484205E-15	6.298265E-17
6.560000E+03	2.442749E-15	6.511890E-17
6.570000E+03	2.391967E-15	6.669116E-17
6.580000E+03	2.332655E-15	6.770007E-17
6.590000E+03	2.265959E-15	6.817046E-17
6.600000E+03	2.193177E-15	6.814345E-17
6.610000E+03	2.115735E-15	6.767333E-17
6.620000E+03	2.035113E-15	6.682310E-17
6.630000E+03	1.952789E-15	6.566100E-17
6.640000E+03	1.870142E-15	6.425536E-17
6.650000E+03	1.788424E-15	6.267223E-17
6.660000E+03	1.708747E-15	6.097372E-17
6.670000E+03	1.631992E-15	5.921360E-17
6.680000E+03	1.558935E-15	5.744104E-17
6.690000E+03	1.490120E-15	5.569551E-17
6.700000E+03	1.425945E-15	5.400950E-17
6.710000E+03	1.366683E-15	5.240882E-17
6.720000E+03	1.312445E-15	5.091145E-17
6.730000E+03	1.263272E-15	4.953071E-17
6.740000E+03	1.219078E-15	4.827328E-17
6.750000E+03	1.179768E-15	4.714394E-17
6.760000E+03	1.145172E-15	4.614303E-17
6.770000E+03	1.115073E-15	4.526786E-17
6.780000E+03	1.089233E-15	4.451392E-17
6.790000E+03	1.067450E-15	4.387743E-17
6.800000E+03	1.049445E-15	4.335074E-17
6.810000E+03	1.034984E-15	4.292783E-17
6.820000E+03	1.023836E-15	4.260246E-17
6.830000E+03	1.015750E-15	4.236750E-17
6.840000E+03	1.010495E-15	4.221646E-17
6.850000E+03	1.007844E-15	4.214313E-17
6.860000E+03	1.007576E-15	4.214160E-17
6.870000E+03	1.009490E-15	4.220675E-17
6.880000E+03	1.013354E-15	4.233230E-17
6.890000E+03	1.018981E-15	4.251377E-17
6.900000E+03	1.026190E-15	4.274699E-17
6.910000E+03	1.034775E-15	4.302664E-17
6.920000E+03	1.044589E-15	4.334975E-17
6.930000E+03	1.055461E-15	4.371224E-17
6.940000E+03	1.067234E-15	4.411044E-17
6.950000E+03	1.079810E-15	4.454270E-17
6.960000E+03	1.093068E-15	4.500626E-17
6.970000E+03	1.106909E-15	4.549883E-17
6.980000E+03	1.121294E-15	4.602020E-17
6.990000E+03	1.136166E-15	4.656897E-17
7.000000E+03	1.151484E-15	4.714410E-17
7.010000E+03	1.167267E-15	4.774656E-17
7.020000E+03	1.183507E-15	4.837589E-17
7.030000E+03	1.200218E-15	4.903233E-17
7.040000E+03	1.217405E-15	4.971559E-17
7.050000E+03	1.235120E-15	5.042717E-17
7.060000E+03	1.253368E-15	5.116666E-17
7.070000E+03	1.272161E-15	5.193405E-17
7.080000E+03	1.291503E-15	5.272906E-17
7.090000E+03	1.311385E-15	5.355106E-17
7.100000E+03	1.331783E-15	5.439896E-17
7.110000E+03	1.352677E-15	5.527187E-17
7.120000E+03	1.373977E-15	5.616623E-17
7.130000E+03	1.395630E-15	5.707985E-17
7.140000E+03	1.417571E-15	5.800991E-17
7.150000E+03	1.439683E-15	5.895149E-17
7.160000E+03	1.461859E-15	5.989974E-17
7.170000E+03	1.483981E-15	6.084939E-17
7.180000E+03	1.505927E-15	6.179489E-17
7.190000E+03	1.527593E-15	6.273153E-17
7.200000E+03	1.548817E-15	6.365246E-17
7.210000E+03	1.569543E-15	6.455542E-17
7.220000E+03	1.589602E-15	6.543407E-17
7.230000E+03	1.608939E-15	6.628707E-17
7.240000E+03	1.627454E-15	6.711165E-17
7.250000E+03	1.645105E-15	6.790781E-17
7.260000E+03	1.661829E-15	6.867479E-17
7.270000E+03	1.677622E-15	6.941456E-17
7.280000E+03	1.692484E-15	7.012899E-17
7.290000E+03	1.706407E-15	7.081974E-17
7.300000E+03	1.719445E-15	7.149083E-17
7.310000E+03	1.731645E-15	7.214579E-17
7.320000E+03	1.743036E-15	7.278743E-17
7.330000E+03	1.753726E-15	7.342146E-17
7.340000E+03	1.763750E-15	7.405066E-17
7.350000E+03	1.773169E-15	7.467847E-17
7.360000E+03	1.782055E-15	7.530891E-17
7.370000E+03	1.790429E-15	7.594347E-17
7.380000E+03	1.798348E-15	7.658504E-17
7.390000E+03	1.805812E-15	7.723387E-17
7.400000E+03	1.812837E-15	7.789055E-17
7.410000E+03	1.819454E-15	7.855618E-17
7.420000E+03	1.825673E-15	7.923024E-17
7.430000E+03	1.831451E-15	7.990959E-17
7.440000E+03	1.836827E-15	8.059376E-17
7.450000E+03	1.841820E-15	8.128082E-17
7.460000E+03	1.846465E-15	8.196845E-17
7.470000E+03	1.850834E-15	8.265514E-17
7.480000E+03	1.854963E-15	8.333694E-17
7.490000E+03	1.858929E-15	8.401084E-17
7.500000E+03	1.862818E-15	8.467380E-17
7.510000E+03	1.866730E-15	8.532279E-17
7.520000E+03	1.870742E-15	8.595380E-17
7.530000E+03	1.875009E-15	8.656654E-17
7.540000E+03	1.879556E-15	8.715521E-17
7.550000E+03	1.884527E-15	8.772026E-17
7.560000E+03	1.889973E-15	8.825908E-17
7.570000E+03	1.895983E-15	8.877186E-17
7.580000E+03	1.902542E-15	8.925554E-17
7.590000E+03	1.909687E-15	8.971087E-17
7.600000E+03	1.917374E-15	9.013614E-17
7.610000E+03	1.925601E-15	9.053296E-17
7.620000E+03	1.934228E-15	9.089726E-17
7.630000E+03	1.943128E-15	9.122636E-17
7.640000E+03	1.952167E-15	9.151733E-17
7.650000E+03	1.961118E-15	9.176309E-17
7.660000E+03	1.969780E-15	9.195721E-17
7.670000E+03	1.977870E-15	9.208904E-17
7.680000E+03	1.985143E-15	9.214889E-17
7.690000E+03	1.991290E-15	9.212345E-17
7.700000E+03	1.996030E-15	9.200005E-17
7.710000E+03	1.999096E-15	9.176603E-17
7.720000E+03	2.000272E-15	9.141053E-17
7.730000E+03	1.999321E-15	9.092128E-17
7.740000E+03	1.996103E-15	9.029003E-17
7.750000E+03	1.990474E-15	8.950779E-17
7.760000E+03	1.982368E-15	8.856879E-17
