#wls	flux	fluxerr
1.600000E+03	4.101428E-16	1.498548E-16
1.640000E+03	3.960304E-16	1.350407E-16
1.680000E+03	3.828880E-16	1.212743E-16
1.720000E+03	3.706318E-16	1.084957E-16
1.760000E+03	3.593878E-16	9.671488E-17
1.800000E+03	3.490576E-16	8.588353E-17
1.840000E+03	3.396103E-16	7.598983E-17
1.880000E+03	3.310732E-16	6.705353E-17
1.920000E+03	3.233393E-16	5.909037E-17
1.960000E+03	3.164250E-16	5.217225E-17
2.000000E+03	3.103391E-16	4.639584E-17
2.040000E+03	3.049158E-16	4.184622E-17
2.080000E+03	3.002866E-16	3.862290E-17
2.120000E+03	2.963023E-16	3.666007E-17
2.160000E+03	2.929909E-16	3.571165E-17
2.200000E+03	2.903849E-16	3.543726E-17
2.240000E+03	2.884164E-16	3.550603E-17
2.280000E+03	2.871279E-16	3.567361E-17
2.320000E+03	2.865106E-16	3.577388E-17
2.360000E+03	2.866087E-16	3.572429E-17
2.400000E+03	2.874185E-16	3.550199E-17
2.440000E+03	2.889425E-16	3.514242E-17
2.480000E+03	2.912402E-16	3.474086E-17
2.520000E+03	2.943318E-16	3.443621E-17
2.560000E+03	2.982989E-16	3.441252E-17
2.600000E+03	3.031872E-16	3.486137E-17
2.640000E+03	3.091421E-16	3.594539E-17
2.680000E+03	3.161236E-16	3.768910E-17
2.720000E+03	3.242578E-16	4.002022E-17
2.760000E+03	3.334781E-16	4.278524E-17
2.800000E+03	3.439298E-16	4.583686E-17
2.840000E+03	3.555751E-16	4.900520E-17
2.880000E+03	3.686447E-16	5.216577E-17
2.920000E+03	3.831870E-16	5.517984E-17
2.960000E+03	3.994237E-16	5.794084E-17
3.000000E+03	4.175494E-16	6.034267E-17
3.010000E+03	4.224053E-16	6.087562E-17
3.020000E+03	4.273684E-16	6.137413E-17
3.030000E+03	4.324938E-16	6.184405E-17
3.040000E+03	4.377841E-16	6.228357E-17
3.050000E+03	4.431883E-16	6.268331E-17
3.060000E+03	4.487622E-16	6.304909E-17
3.070000E+03	4.544548E-16	6.337158E-17
3.080000E+03	4.603769E-16	6.366410E-17
3.090000E+03	4.664233E-16	6.390984E-17
3.100000E+03	4.727060E-16	6.412199E-17
3.110000E+03	4.791190E-16	6.428392E-17
3.120000E+03	4.857205E-16	6.440136E-17
3.130000E+03	4.925694E-16	6.447987E-17
3.140000E+03	4.995590E-16	6.450323E-17
3.150000E+03	5.068043E-16	6.448424E-17
3.160000E+03	5.142541E-16	6.441408E-17
3.170000E+03	5.219689E-16	6.429819E-17
3.180000E+03	5.298412E-16	6.412119E-17
3.190000E+03	5.379883E-16	6.389554E-17
3.200000E+03	5.464161E-16	6.361974E-17
3.210000E+03	5.550732E-16	6.328588E-17
3.220000E+03	5.640227E-16	6.289946E-17
3.230000E+03	5.732712E-16	6.245945E-17
3.240000E+03	5.827673E-16	6.195878E-17
3.250000E+03	5.926343E-16	6.140934E-17
3.260000E+03	6.027632E-16	6.079858E-17
3.270000E+03	6.132199E-16	6.013269E-17
3.280000E+03	6.240722E-16	5.941776E-17
3.290000E+03	6.352701E-16	5.864873E-17
3.300000E+03	6.468228E-16	5.782701E-17
3.310000E+03	6.587400E-16	5.695465E-17
3.320000E+03	6.710927E-16	5.603948E-17
3.330000E+03	6.838317E-16	5.507974E-17
3.340000E+03	6.970300E-16	5.408473E-17
3.350000E+03	7.107009E-16	5.305964E-17
3.360000E+03	7.248584E-16	5.201085E-17
3.370000E+03	7.395174E-16	5.094606E-17
3.380000E+03	7.546299E-16	4.987024E-17
3.390000E+03	7.703369E-16	4.880242E-17
3.400000E+03	7.866545E-16	4.775408E-17
3.410000E+03	8.034683E-16	4.673047E-17
3.420000E+03	8.209184E-16	4.575356E-17
3.430000E+03	8.390164E-16	4.483827E-17
3.440000E+03	8.577065E-16	4.399680E-17
3.450000E+03	8.771287E-16	4.325173E-17
3.460000E+03	8.971589E-16	4.261140E-17
3.470000E+03	9.179378E-16	4.209540E-17
3.480000E+03	9.393387E-16	4.170735E-17
3.490000E+03	9.615043E-16	4.145891E-17
3.500000E+03	9.844422E-16	4.135066E-17
3.510000E+03	1.008086E-15	4.137579E-17
3.520000E+03	1.032501E-15	4.152915E-17
3.530000E+03	1.057674E-15	4.179905E-17
3.540000E+03	1.083577E-15	4.217094E-17
3.550000E+03	1.110173E-15	4.262812E-17
3.560000E+03	1.137408E-15	4.315254E-17
3.570000E+03	1.165284E-15	4.372834E-17
3.580000E+03	1.193719E-15	4.433709E-17
3.590000E+03	1.222541E-15	4.495855E-17
3.600000E+03	1.251783E-15	4.558207E-17
3.610000E+03	1.281168E-15	4.618809E-17
3.620000E+03	1.310696E-15	4.677022E-17
3.630000E+03	1.340128E-15	4.731672E-17
3.640000E+03	1.369281E-15	4.782169E-17
3.650000E+03	1.398036E-15	4.828514E-17
3.660000E+03	1.426261E-15	4.871028E-17
3.670000E+03	1.453595E-15	4.909554E-17
3.680000E+03	1.479914E-15	4.944972E-17
3.690000E+03	1.505123E-15	4.978344E-17
3.700000E+03	1.529029E-15	5.010321E-17
3.710000E+03	1.551671E-15	5.042056E-17
3.720000E+03	1.573037E-15	5.074130E-17
3.730000E+03	1.593463E-15	5.107717E-17
3.740000E+03	1.613109E-15	5.142831E-17
3.750000E+03	1.632554E-15	5.180281E-17
3.760000E+03	1.652304E-15	5.220241E-17
3.770000E+03	1.672852E-15	5.262545E-17
3.780000E+03	1.694782E-15	5.307199E-17
3.790000E+03	1.718812E-15	5.354640E-17
3.800000E+03	1.745317E-15	5.404369E-17
3.810000E+03	1.774888E-15	5.456795E-17
3.820000E+03	1.807798E-15	5.511657E-17
3.830000E+03	1.844268E-15	5.568899E-17
3.840000E+03	1.884373E-15	5.628466E-17
3.850000E+03	1.928178E-15	5.690724E-17
3.860000E+03	1.975280E-15	5.755131E-17
3.870000E+03	2.025234E-15	5.821500E-17
3.880000E+03	2.077549E-15	5.889895E-17
3.890000E+03	2.131241E-15	5.959250E-17
3.900000E+03	2.185445E-15	6.029005E-17
3.910000E+03	2.238928E-15	6.097586E-17
3.920000E+03	2.290358E-15	6.162997E-17
3.930000E+03	2.338584E-15	6.223538E-17
3.940000E+03	2.382246E-15	6.276760E-17
3.950000E+03	2.420156E-15	6.320440E-17
3.960000E+03	2.451355E-15	6.352767E-17
3.970000E+03	2.474892E-15	6.371722E-17
3.980000E+03	2.490401E-15	6.376545E-17
3.990000E+03	2.497612E-15	6.366493E-17
4.000000E+03	2.496591E-15	6.341463E-17
4.010000E+03	2.487944E-15	6.302481E-17
4.020000E+03	2.472278E-15	6.250390E-17
4.030000E+03	2.450637E-15	6.186962E-17
4.040000E+03	2.424153E-15	6.114023E-17
4.050000E+03	2.393922E-15	6.033227E-17
4.060000E+03	2.361303E-15	5.946891E-17
4.070000E+03	2.327418E-15	5.856767E-17
4.080000E+03	2.293363E-15	5.764675E-17
4.090000E+03	2.260064E-15	5.672204E-17
4.100000E+03	2.228370E-15	5.580940E-17
4.110000E+03	2.198993E-15	5.492321E-17
4.120000E+03	2.172457E-15	5.407475E-17
4.130000E+03	2.149255E-15	5.327525E-17
4.140000E+03	2.129611E-15	5.252992E-17
4.150000E+03	2.113728E-15	5.184382E-17
4.160000E+03	2.101742E-15	5.121996E-17
4.170000E+03	2.093506E-15	5.065414E-17
4.180000E+03	2.089004E-15	5.014453E-17
4.190000E+03	2.087913E-15	4.968062E-17
4.200000E+03	2.090048E-15	4.925381E-17
4.210000E+03	2.094986E-15	4.884829E-17
4.220000E+03	2.102290E-15	4.844631E-17
4.230000E+03	2.111518E-15	4.802937E-17
4.240000E+03	2.122154E-15	4.757789E-17
4.250000E+03	2.133702E-15	4.707401E-17
4.260000E+03	2.145580E-15	4.649992E-17
4.270000E+03	2.157327E-15	4.584261E-17
4.280000E+03	2.168387E-15	4.508915E-17
4.290000E+03	2.178281E-15	4.423158E-17
4.300000E+03	2.186634E-15	4.326836E-17
4.310000E+03	2.193086E-15	4.220357E-17
4.320000E+03	2.197461E-15	4.105206E-17
4.330000E+03	2.199681E-15	3.983892E-17
4.340000E+03	2.199816E-15	3.860090E-17
4.350000E+03	2.198096E-15	3.738596E-17
4.360000E+03	2.194909E-15	3.625070E-17
4.370000E+03	2.190840E-15	3.525627E-17
4.380000E+03	2.186508E-15	3.446199E-17
4.390000E+03	2.182751E-15	3.392539E-17
4.400000E+03	2.180401E-15	3.369375E-17
4.410000E+03	2.180350E-15	3.379719E-17
4.420000E+03	2.183727E-15	3.424226E-17
4.430000E+03	2.191755E-15	3.500726E-17
4.440000E+03	2.205714E-15	3.605186E-17
4.450000E+03	2.226944E-15	3.733268E-17
4.460000E+03	2.256594E-15	3.881128E-17
4.470000E+03	2.295536E-15	4.045836E-17
4.480000E+03	2.344440E-15	4.225543E-17
4.490000E+03	2.403626E-15	4.418986E-17
4.500000E+03	2.473092E-15	4.625267E-17
4.510000E+03	2.552424E-15	4.843408E-17
4.520000E+03	2.640730E-15	5.071950E-17
4.530000E+03	2.736550E-15	5.308718E-17
4.540000E+03	2.837899E-15	5.550825E-17
4.550000E+03	2.942286E-15	5.794672E-17
4.560000E+03	3.046532E-15	6.035680E-17
4.570000E+03	3.147165E-15	6.269097E-17
4.580000E+03	3.240318E-15	6.489660E-17
4.590000E+03	3.322178E-15	6.692313E-17
4.600000E+03	3.388999E-15	6.871811E-17
4.610000E+03	3.437738E-15	7.023512E-17
4.620000E+03	3.466079E-15	7.143180E-17
4.630000E+03	3.472783E-15	7.227543E-17
4.640000E+03	3.457749E-15	7.274369E-17
4.650000E+03	3.422031E-15	7.282906E-17
4.660000E+03	3.367750E-15	7.254186E-17
4.670000E+03	3.297853E-15	7.190930E-17
4.680000E+03	3.215789E-15	7.097349E-17
4.690000E+03	3.125292E-15	6.978961E-17
4.700000E+03	3.030078E-15	6.841931E-17
4.710000E+03	2.933608E-15	6.692453E-17
4.720000E+03	2.838906E-15	6.536082E-17
4.730000E+03	2.748429E-15	6.377238E-17
4.740000E+03	2.664126E-15	6.219429E-17
4.750000E+03	2.587488E-15	6.065506E-17
4.760000E+03	2.519476E-15	5.917507E-17
4.770000E+03	2.460638E-15	5.776959E-17
4.780000E+03	2.411278E-15	5.645219E-17
4.790000E+03	2.371428E-15	5.523335E-17
4.800000E+03	2.340903E-15	5.412123E-17
4.810000E+03	2.319350E-15	5.312192E-17
4.820000E+03	2.306290E-15	5.223985E-17
4.830000E+03	2.301167E-15	5.147861E-17
4.840000E+03	2.303293E-15	5.083941E-17
4.850000E+03	2.311897E-15	5.032166E-17
4.860000E+03	2.326071E-15	4.992260E-17
4.870000E+03	2.344717E-15	4.963630E-17
4.880000E+03	2.366565E-15	4.945395E-17
4.890000E+03	2.390137E-15	4.936340E-17
4.900000E+03	2.413755E-15	4.934830E-17
4.910000E+03	2.435580E-15	4.938669E-17
4.920000E+03	2.453704E-15	4.945013E-17
4.930000E+03	2.466397E-15	4.950505E-17
4.940000E+03	2.472192E-15	4.951160E-17
4.950000E+03	2.470047E-15	4.942843E-17
4.960000E+03	2.459421E-15	4.921770E-17
4.970000E+03	2.440443E-15	4.885204E-17
4.980000E+03	2.413677E-15	4.831479E-17
4.990000E+03	2.380244E-15	4.760633E-17
5.000000E+03	2.341523E-15	4.673984E-17
5.010000E+03	2.299129E-15	4.574102E-17
5.020000E+03	2.254772E-15	4.464414E-17
5.030000E+03	2.210110E-15	4.348752E-17
5.040000E+03	2.166647E-15	4.231188E-17
5.050000E+03	2.125846E-15	4.116249E-17
5.060000E+03	2.088882E-15	4.008271E-17
5.070000E+03	2.056732E-15	3.911285E-17
5.080000E+03	2.030228E-15	3.828659E-17
5.090000E+03	2.010015E-15	3.762719E-17
5.100000E+03	1.996539E-15	3.714733E-17
5.110000E+03	1.990229E-15	3.685351E-17
5.120000E+03	1.991382E-15	3.674455E-17
5.130000E+03	2.000284E-15	3.681616E-17
5.140000E+03	2.017128E-15	3.706113E-17
5.150000E+03	2.042075E-15	3.747069E-17
5.160000E+03	2.075233E-15	3.803470E-17
5.170000E+03	2.116596E-15	3.873964E-17
5.180000E+03	2.166028E-15	3.956745E-17
5.190000E+03	2.223224E-15	4.049556E-17
5.200000E+03	2.287750E-15	4.149893E-17
5.210000E+03	2.358976E-15	4.254925E-17
5.220000E+03	2.435986E-15	4.361452E-17
5.230000E+03	2.517719E-15	4.466208E-17
5.240000E+03	2.602899E-15	4.565756E-17
5.250000E+03	2.689997E-15	4.656598E-17
5.260000E+03	2.777343E-15	4.735522E-17
5.270000E+03	2.863159E-15	4.799720E-17
5.280000E+03	2.945658E-15	4.847092E-17
5.290000E+03	3.023046E-15	4.876202E-17
5.300000E+03	3.093734E-15	4.886289E-17
5.310000E+03	3.156462E-15	4.877059E-17
5.320000E+03	3.210347E-15	4.848039E-17
5.330000E+03	3.255128E-15	4.798308E-17
5.340000E+03	3.291075E-15	4.726407E-17
5.350000E+03	3.319111E-15	4.630844E-17
5.360000E+03	3.340656E-15	4.510301E-17
5.370000E+03	3.357674E-15	4.364657E-17
5.380000E+03	3.372482E-15	4.195802E-17
5.390000E+03	3.387659E-15	4.008615E-17
5.400000E+03	3.406021E-15	3.812407E-17
5.410000E+03	3.430517E-15	3.622312E-17
5.420000E+03	3.464001E-15	3.460007E-17
5.430000E+03	3.508916E-15	3.352539E-17
5.440000E+03	3.567063E-15	3.326985E-17
5.450000E+03	3.638642E-15	3.400253E-17
5.460000E+03	3.722212E-15	3.571691E-17
5.470000E+03	3.814459E-15	3.823835E-17
5.480000E+03	3.910805E-15	4.130812E-17
5.490000E+03	4.005739E-15	4.466327E-17
5.500000E+03	4.093388E-15	4.807791E-17
5.510000E+03	4.167952E-15	5.137177E-17
5.520000E+03	4.223989E-15	5.440665E-17
5.530000E+03	4.256978E-15	5.708071E-17
5.540000E+03	4.263717E-15	5.932156E-17
5.550000E+03	4.242476E-15	6.108425E-17
5.560000E+03	4.193081E-15	6.234943E-17
5.570000E+03	4.117169E-15	6.312321E-17
5.580000E+03	4.017763E-15	6.343081E-17
5.590000E+03	3.899000E-15	6.331112E-17
5.600000E+03	3.766024E-15	6.281372E-17
5.610000E+03	3.624302E-15	6.199149E-17
5.620000E+03	3.479212E-15	6.089693E-17
5.630000E+03	3.335970E-15	5.958456E-17
5.640000E+03	3.199018E-15	5.810758E-17
5.650000E+03	3.072235E-15	5.652732E-17
5.660000E+03	2.958775E-15	5.491072E-17
5.670000E+03	2.861085E-15	5.332811E-17
5.680000E+03	2.781124E-15	5.185305E-17
5.690000E+03	2.720328E-15	5.055654E-17
5.700000E+03	2.679885E-15	4.950720E-17
5.710000E+03	2.660553E-15	4.876248E-17
5.720000E+03	2.662851E-15	4.836793E-17
5.730000E+03	2.686958E-15	4.835263E-17
5.740000E+03	2.732551E-15	4.872253E-17
5.750000E+03	2.798806E-15	4.945870E-17
5.760000E+03	2.884353E-15	5.052096E-17
5.770000E+03	2.987066E-15	5.185110E-17
5.780000E+03	3.104140E-15	5.338004E-17
5.790000E+03	3.231964E-15	5.503188E-17
5.800000E+03	3.366137E-15	5.672853E-17
5.810000E+03	3.501429E-15	5.839080E-17
5.820000E+03	3.632047E-15	5.994269E-17
5.830000E+03	3.751938E-15	6.131168E-17
5.840000E+03	3.855186E-15	6.242853E-17
5.850000E+03	3.936582E-15	6.323395E-17
5.860000E+03	3.991795E-15	6.367873E-17
5.870000E+03	4.017982E-15	6.373079E-17
5.880000E+03	4.013933E-15	6.337966E-17
5.890000E+03	3.979995E-15	6.263651E-17
5.900000E+03	3.918105E-15	6.153369E-17
5.910000E+03	3.831512E-15	6.012114E-17
5.920000E+03	3.724441E-15	5.845984E-17
5.930000E+03	3.601736E-15	5.661488E-17
5.940000E+03	3.468461E-15	5.465365E-17
5.950000E+03	3.329547E-15	5.264344E-17
5.960000E+03	3.189450E-15	5.064607E-17
5.970000E+03	3.052189E-15	4.871869E-17
5.980000E+03	2.920917E-15	4.690481E-17
5.990000E+03	2.798106E-15	4.523517E-17
6.000000E+03	2.685526E-15	4.372946E-17
6.010000E+03	2.584303E-15	4.239895E-17
6.020000E+03	2.495007E-15	4.124786E-17
6.030000E+03	2.417735E-15	4.027608E-17
6.040000E+03	2.352288E-15	3.948203E-17
6.050000E+03	2.298168E-15	3.886091E-17
6.060000E+03	2.254640E-15	3.840480E-17
6.070000E+03	2.220918E-15	3.810392E-17
6.080000E+03	2.196029E-15	3.794235E-17
6.090000E+03	2.179000E-15	3.790210E-17
6.100000E+03	2.168793E-15	3.796256E-17
6.110000E+03	2.164405E-15	3.810245E-17
6.120000E+03	2.164781E-15	3.829928E-17
6.130000E+03	2.168964E-15	3.853278E-17
6.140000E+03	2.175961E-15	3.878219E-17
6.150000E+03	2.184842E-15	3.902914E-17
6.160000E+03	2.194678E-15	3.925688E-17
6.170000E+03	2.204585E-15	3.945060E-17
6.180000E+03	2.213721E-15	3.959727E-17
6.190000E+03	2.221281E-15	3.968496E-17
6.200000E+03	2.226509E-15	3.970211E-17
6.210000E+03	2.228818E-15	3.964103E-17
6.220000E+03	2.227797E-15	3.949894E-17
6.230000E+03	2.223254E-15	3.927810E-17
6.240000E+03	2.215254E-15	3.898506E-17
6.250000E+03	2.204149E-15	3.862837E-17
6.260000E+03	2.190578E-15	3.821620E-17
6.270000E+03	2.175421E-15	3.775673E-17
6.280000E+03	2.159757E-15	3.725936E-17
6.290000E+03	2.144660E-15	3.673195E-17
6.300000E+03	2.131313E-15	3.618389E-17
6.310000E+03	2.120710E-15	3.562069E-17
6.320000E+03	2.113763E-15	3.504476E-17
6.330000E+03	2.111194E-15	3.445332E-17
6.340000E+03	2.113568E-15	3.383847E-17
6.350000E+03	2.121163E-15	3.318443E-17
6.360000E+03	2.134136E-15	3.247218E-17
6.370000E+03	2.152482E-15	3.168093E-17
6.380000E+03	2.176077E-15	3.079192E-17
6.390000E+03	2.204754E-15	2.979485E-17
6.400000E+03	2.238284E-15	2.869490E-17
6.410000E+03	2.276525E-15	2.752414E-17
6.420000E+03	2.319362E-15	2.635412E-17
6.430000E+03	2.366809E-15	2.531030E-17
6.440000E+03	2.418938E-15	2.457560E-17
6.450000E+03	2.475670E-15	2.436747E-17
6.460000E+03	2.536399E-15	2.486912E-17
6.470000E+03	2.599644E-15	2.613895E-17
6.480000E+03	2.662852E-15	2.807533E-17
6.490000E+03	2.722599E-15	3.046727E-17
6.500000E+03	2.775079E-15	3.307254E-17
6.510000E+03	2.816454E-15	3.566844E-17
6.520000E+03	2.843373E-15	3.807345E-17
6.530000E+03	2.853048E-15	4.014767E-17
6.540000E+03	2.843661E-15	4.179491E-17
6.550000E+03	2.814333E-15	4.295794E-17
6.560000E+03	2.765233E-15	4.361530E-17
6.570000E+03	2.697532E-15	4.377837E-17
6.580000E+03	2.613206E-15	4.348505E-17
6.590000E+03	2.514909E-15	4.279327E-17
6.600000E+03	2.405691E-15	4.177263E-17
6.610000E+03	2.288795E-15	4.049686E-17
6.620000E+03	2.167479E-15	3.903776E-17
6.630000E+03	2.044750E-15	3.746124E-17
6.640000E+03	1.923321E-15	3.582725E-17
6.650000E+03	1.805450E-15	3.418718E-17
6.660000E+03	1.692939E-15	3.258456E-17
6.670000E+03	1.587134E-15	3.105511E-17
6.680000E+03	1.488962E-15	2.962644E-17
6.690000E+03	1.398983E-15	2.831856E-17
6.700000E+03	1.317449E-15	2.714409E-17
6.710000E+03	1.244360E-15	2.610867E-17
6.720000E+03	1.179547E-15	2.521273E-17
6.730000E+03	1.122676E-15	2.445182E-17
6.740000E+03	1.073351E-15	2.381838E-17
6.750000E+03	1.031098E-15	2.330157E-17
6.760000E+03	9.954253E-16	2.288870E-17
6.770000E+03	9.658353E-16	2.256540E-17
6.780000E+03	9.418630E-16	2.231753E-17
6.790000E+03	9.230168E-16	2.213084E-17
6.800000E+03	9.088938E-16	2.199415E-17
6.810000E+03	8.991043E-16	2.189792E-17
6.820000E+03	8.932803E-16	2.183447E-17
6.830000E+03	8.910902E-16	2.179831E-17
6.840000E+03	8.922434E-16	2.178620E-17
6.850000E+03	8.964105E-16	2.179511E-17
6.860000E+03	9.033328E-16	2.182461E-17
6.870000E+03	9.127013E-16	2.187368E-17
6.880000E+03	9.242377E-16	2.194220E-17
6.890000E+03	9.376388E-16	2.202915E-17
6.900000E+03	9.526197E-16	2.213377E-17
6.910000E+03	9.688830E-16	2.225493E-17
6.920000E+03	9.861231E-16	2.239126E-17
6.930000E+03	1.004078E-15	2.254273E-17
6.940000E+03	1.022458E-15	2.270906E-17
6.950000E+03	1.041039E-15	2.289155E-17
6.960000E+03	1.059613E-15	2.309155E-17
6.970000E+03	1.078066E-15	2.331130E-17
6.980000E+03	1.096297E-15	2.355129E-17
6.990000E+03	1.114306E-15	2.381241E-17
7.000000E+03	1.132156E-15	2.409532E-17
7.010000E+03	1.149919E-15	2.439952E-17
7.020000E+03	1.167746E-15	2.472541E-17
7.030000E+03	1.185797E-15	2.507299E-17
7.040000E+03	1.204221E-15	2.544145E-17
7.050000E+03	1.223210E-15	2.583058E-17
7.060000E+03	1.242887E-15	2.623887E-17
7.070000E+03	1.263363E-15	2.666465E-17
7.080000E+03	1.284730E-15	2.710698E-17
7.090000E+03	1.306996E-15	2.756511E-17
7.100000E+03	1.330182E-15	2.804072E-17
7.110000E+03	1.354271E-15	2.853699E-17
7.120000E+03	1.379161E-15	2.905681E-17
7.130000E+03	1.404776E-15	2.960387E-17
7.140000E+03	1.430976E-15	3.017936E-17
7.150000E+03	1.457549E-15	3.078016E-17
7.160000E+03	1.484333E-15	3.139983E-17
7.170000E+03	1.511089E-15	3.202655E-17
7.180000E+03	1.537604E-15	3.264649E-17
7.190000E+03	1.563618E-15	3.324372E-17
7.200000E+03	1.588891E-15	3.380393E-17
7.210000E+03	1.613208E-15	3.431691E-17
7.220000E+03	1.636345E-15	3.477708E-17
7.230000E+03	1.658076E-15	3.518384E-17
7.240000E+03	1.678246E-15	3.554194E-17
7.250000E+03	1.696692E-15	3.585793E-17
7.260000E+03	1.713346E-15	3.614017E-17
7.270000E+03	1.728171E-15	3.639532E-17
7.280000E+03	1.741169E-15	3.662671E-17
7.290000E+03	1.752445E-15	3.683669E-17
7.300000E+03	1.762128E-15	3.702673E-17
7.310000E+03	1.770385E-15	3.719912E-17
7.320000E+03	1.777409E-15	3.735816E-17
7.330000E+03	1.783384E-15	3.750988E-17
7.340000E+03	1.788537E-15	3.766268E-17
7.350000E+03	1.793077E-15	3.782501E-17
7.360000E+03	1.797127E-15	3.800225E-17
7.370000E+03	1.800755E-15	3.819611E-17
7.380000E+03	1.804072E-15	3.840787E-17
7.390000E+03	1.807018E-15	3.863566E-17
7.400000E+03	1.809538E-15	3.887920E-17
7.410000E+03	1.811591E-15	3.914115E-17
7.420000E+03	1.813068E-15	3.942534E-17
7.430000E+03	1.813829E-15	3.973617E-17
7.440000E+03	1.813819E-15	4.007931E-17
7.450000E+03	1.812897E-15	4.045499E-17
7.460000E+03	1.811096E-15	4.086156E-17
7.470000E+03	1.808410E-15	4.129114E-17
7.480000E+03	1.804966E-15	4.173475E-17
7.490000E+03	1.800877E-15	4.217980E-17
7.500000E+03	1.796376E-15	4.261438E-17
7.510000E+03	1.791682E-15	4.302482E-17
7.520000E+03	1.787078E-15	4.339776E-17
7.530000E+03	1.782804E-15	4.371820E-17
7.540000E+03	1.779104E-15	4.397150E-17
7.550000E+03	1.776171E-15	4.414270E-17
7.560000E+03	1.774241E-15	4.422095E-17
7.570000E+03	1.773422E-15	4.419777E-17
7.580000E+03	1.773866E-15	4.407286E-17
7.590000E+03	1.775647E-15	4.385199E-17
7.600000E+03	1.778853E-15	4.354942E-17
7.610000E+03	1.783507E-15	4.318540E-17
7.620000E+03	1.789553E-15	4.278488E-17
7.630000E+03	1.796891E-15	4.237625E-17
7.640000E+03	1.805365E-15	4.198842E-17
7.650000E+03	1.814653E-15	4.164547E-17
7.660000E+03	1.824441E-15	4.136687E-17
7.670000E+03	1.834278E-15	4.116143E-17
7.680000E+03	1.843597E-15	4.102825E-17
7.690000E+03	1.851905E-15	4.096246E-17
7.700000E+03	1.858608E-15	4.095266E-17
7.710000E+03	1.863244E-15	4.098830E-17
7.720000E+03	1.865328E-15	4.105784E-17
7.730000E+03	1.864500E-15	4.115244E-17
7.740000E+03	1.860416E-15	4.126365E-17
7.750000E+03	1.852943E-15	4.138667E-17
7.760000E+03	1.841987E-15	4.151470E-17
