#wls	flux	fluxerr
1.600000E+03	2.512146E-16	1.220421E-16
1.640000E+03	2.448845E-16	1.140285E-16
1.680000E+03	2.388673E-16	1.064779E-16
1.720000E+03	2.331600E-16	9.938471E-17
1.760000E+03	2.277587E-16	9.274326E-17
1.800000E+03	2.226991E-16	8.656348E-17
1.840000E+03	2.179335E-16	8.082121E-17
1.880000E+03	2.134566E-16	7.550962E-17
1.920000E+03	2.093382E-16	7.064571E-17
1.960000E+03	2.055314E-16	6.620167E-17
2.000000E+03	2.020294E-16	6.216142E-17
2.040000E+03	1.988613E-16	5.851538E-17
2.080000E+03	1.960201E-16	5.523744E-17
2.120000E+03	1.935338E-16	5.230673E-17
2.160000E+03	1.913309E-16	4.967171E-17
2.200000E+03	1.895080E-16	4.732395E-17
2.240000E+03	1.880296E-16	4.522008E-17
2.280000E+03	1.868960E-16	4.332964E-17
2.320000E+03	1.861402E-16	4.163551E-17
2.360000E+03	1.857957E-16	4.012793E-17
2.400000E+03	1.858671E-16	3.880031E-17
2.440000E+03	1.863911E-16	3.766353E-17
2.480000E+03	1.873489E-16	3.672735E-17
2.520000E+03	1.888419E-16	3.603389E-17
2.560000E+03	1.908610E-16	3.560763E-17
2.600000E+03	1.934633E-16	3.548434E-17
2.640000E+03	1.967136E-16	3.568904E-17
2.680000E+03	2.006951E-16	3.622105E-17
2.720000E+03	2.054307E-16	3.704081E-17
2.760000E+03	2.109829E-16	3.810080E-17
2.800000E+03	2.174847E-16	3.935726E-17
2.840000E+03	2.249697E-16	4.074375E-17
2.880000E+03	2.336004E-16	4.221458E-17
2.920000E+03	2.435296E-16	4.372039E-17
2.960000E+03	2.549030E-16	4.520783E-17
3.000000E+03	2.679210E-16	4.662923E-17
3.010000E+03	2.714744E-16	4.697131E-17
3.020000E+03	2.751593E-16	4.730726E-17
3.030000E+03	2.789488E-16	4.763095E-17
3.040000E+03	2.828763E-16	4.794661E-17
3.050000E+03	2.869455E-16	4.825328E-17
3.060000E+03	2.911601E-16	4.854997E-17
3.070000E+03	2.955240E-16	4.883568E-17
3.080000E+03	3.000103E-16	4.910431E-17
3.090000E+03	3.046851E-16	4.936505E-17
3.100000E+03	3.095220E-16	4.961175E-17
3.110000E+03	3.145255E-16	4.984336E-17
3.120000E+03	3.197006E-16	5.005883E-17
3.130000E+03	3.250520E-16	5.025710E-17
3.140000E+03	3.306173E-16	5.044200E-17
3.150000E+03	3.363700E-16	5.060748E-17
3.160000E+03	3.423155E-16	5.075244E-17
3.170000E+03	3.484925E-16	5.088060E-17
3.180000E+03	3.548745E-16	5.098599E-17
3.190000E+03	3.615011E-16	5.107225E-17
3.200000E+03	3.683792E-16	5.113818E-17
3.210000E+03	3.754822E-16	5.117796E-17
3.220000E+03	3.828511E-16	5.119513E-17
3.230000E+03	3.904589E-16	5.118403E-17
3.240000E+03	3.983822E-16	5.115265E-17
3.250000E+03	4.065598E-16	5.109094E-17
3.260000E+03	4.150699E-16	5.100680E-17
3.270000E+03	4.238501E-16	5.089056E-17
3.280000E+03	4.329802E-16	5.075005E-17
3.290000E+03	4.424332E-16	5.058024E-17
3.300000E+03	4.522179E-16	5.038061E-17
3.310000E+03	4.623800E-16	5.015485E-17
3.320000E+03	4.728918E-16	4.989864E-17
3.330000E+03	4.837997E-16	4.961601E-17
3.340000E+03	4.950753E-16	4.930334E-17
3.350000E+03	5.067655E-16	4.896512E-17
3.360000E+03	5.188797E-16	4.860229E-17
3.370000E+03	5.313875E-16	4.821262E-17
3.380000E+03	5.443763E-16	4.780525E-17
3.390000E+03	5.578154E-16	4.737895E-17
3.400000E+03	5.717126E-16	4.693679E-17
3.410000E+03	5.860752E-16	4.648251E-17
3.420000E+03	6.009097E-16	4.602059E-17
3.430000E+03	6.162640E-16	4.555934E-17
3.440000E+03	6.321016E-16	4.510144E-17
3.450000E+03	6.484691E-16	4.465641E-17
3.460000E+03	6.653707E-16	4.423093E-17
3.470000E+03	6.828092E-16	4.383152E-17
3.480000E+03	7.007415E-16	4.346086E-17
3.490000E+03	7.192571E-16	4.312824E-17
3.500000E+03	7.383110E-16	4.283282E-17
3.510000E+03	7.579007E-16	4.257558E-17
3.520000E+03	7.780685E-16	4.235944E-17
3.530000E+03	7.987618E-16	4.218188E-17
3.540000E+03	8.199707E-16	4.204292E-17
3.550000E+03	8.417779E-16	4.194728E-17
3.560000E+03	8.640703E-16	4.188978E-17
3.570000E+03	8.869232E-16	4.187479E-17
3.580000E+03	9.102112E-16	4.189702E-17
3.590000E+03	9.340015E-16	4.196032E-17
3.600000E+03	9.582080E-16	4.206135E-17
3.610000E+03	9.828413E-16	4.220111E-17
3.620000E+03	1.007806E-15	4.237593E-17
3.630000E+03	1.033107E-15	4.258653E-17
3.640000E+03	1.058691E-15	4.283155E-17
3.650000E+03	1.084504E-15	4.310991E-17
3.660000E+03	1.110484E-15	4.342100E-17
3.670000E+03	1.136620E-15	4.376682E-17
3.680000E+03	1.162790E-15	4.414553E-17
3.690000E+03	1.188924E-15	4.455745E-17
3.700000E+03	1.215010E-15	4.500430E-17
3.710000E+03	1.240989E-15	4.548446E-17
3.720000E+03	1.266823E-15	4.599485E-17
3.730000E+03	1.292501E-15	4.653081E-17
3.740000E+03	1.318107E-15	4.708802E-17
3.750000E+03	1.343659E-15	4.765677E-17
3.760000E+03	1.369272E-15	4.822827E-17
3.770000E+03	1.395154E-15	4.879488E-17
3.780000E+03	1.421435E-15	4.934455E-17
3.790000E+03	1.448429E-15	4.987090E-17
3.800000E+03	1.476285E-15	5.036172E-17
3.810000E+03	1.505204E-15	5.080732E-17
3.820000E+03	1.535365E-15	5.119904E-17
3.830000E+03	1.566915E-15	5.152976E-17
3.840000E+03	1.600020E-15	5.179628E-17
3.850000E+03	1.634738E-15	5.199599E-17
3.860000E+03	1.671006E-15	5.212725E-17
3.870000E+03	1.708856E-15	5.219664E-17
3.880000E+03	1.747989E-15	5.220591E-17
3.890000E+03	1.788160E-15	5.216403E-17
3.900000E+03	1.828999E-15	5.208140E-17
3.910000E+03	1.869824E-15	5.196410E-17
3.920000E+03	1.910058E-15	5.182469E-17
3.930000E+03	1.948895E-15	5.167163E-17
3.940000E+03	1.985393E-15	5.151028E-17
3.950000E+03	2.018638E-15	5.134495E-17
3.960000E+03	2.047792E-15	5.117836E-17
3.970000E+03	2.071977E-15	5.100693E-17
3.980000E+03	2.090577E-15	5.082640E-17
3.990000E+03	2.103095E-15	5.062839E-17
4.000000E+03	2.109258E-15	5.040302E-17
4.010000E+03	2.108980E-15	5.013877E-17
4.020000E+03	2.102473E-15	4.982700E-17
4.030000E+03	2.090275E-15	4.946439E-17
4.040000E+03	2.072897E-15	4.904580E-17
4.050000E+03	2.051108E-15	4.857240E-17
4.060000E+03	2.025819E-15	4.804947E-17
4.070000E+03	1.997885E-15	4.748166E-17
4.080000E+03	1.968258E-15	4.687671E-17
4.090000E+03	1.937746E-15	4.623961E-17
4.100000E+03	1.907087E-15	4.557402E-17
4.110000E+03	1.877054E-15	4.488602E-17
4.120000E+03	1.848146E-15	4.417783E-17
4.130000E+03	1.820883E-15	4.345539E-17
4.140000E+03	1.795602E-15	4.272399E-17
4.150000E+03	1.772582E-15	4.199134E-17
4.160000E+03	1.752008E-15	4.126621E-17
4.170000E+03	1.733973E-15	4.055814E-17
4.180000E+03	1.718412E-15	3.987507E-17
4.190000E+03	1.705282E-15	3.922660E-17
4.200000E+03	1.694428E-15	3.862040E-17
4.210000E+03	1.685593E-15	3.806188E-17
4.220000E+03	1.678469E-15	3.755432E-17
4.230000E+03	1.672740E-15	3.709972E-17
4.240000E+03	1.668063E-15	3.669788E-17
4.250000E+03	1.664059E-15	3.634553E-17
4.260000E+03	1.660354E-15	3.603776E-17
4.270000E+03	1.656624E-15	3.576920E-17
4.280000E+03	1.652545E-15	3.553315E-17
4.290000E+03	1.647866E-15	3.532401E-17
4.300000E+03	1.642300E-15	3.513584E-17
4.310000E+03	1.635762E-15	3.496738E-17
4.320000E+03	1.628080E-15	3.481604E-17
4.330000E+03	1.619334E-15	3.468458E-17
4.340000E+03	1.609580E-15	3.457425E-17
4.350000E+03	1.599044E-15	3.448842E-17
4.360000E+03	1.588098E-15	3.443147E-17
4.370000E+03	1.577200E-15	3.440614E-17
4.380000E+03	1.566933E-15	3.441388E-17
4.390000E+03	1.557993E-15	3.445680E-17
4.400000E+03	1.551140E-15	3.453776E-17
4.410000E+03	1.547143E-15	3.466026E-17
4.420000E+03	1.546752E-15	3.482848E-17
4.430000E+03	1.550764E-15	3.504879E-17
4.440000E+03	1.559900E-15	3.532748E-17
4.450000E+03	1.574835E-15	3.567158E-17
4.460000E+03	1.596229E-15	3.608960E-17
4.470000E+03	1.624707E-15	3.659113E-17
4.480000E+03	1.660781E-15	3.718538E-17
4.490000E+03	1.704949E-15	3.788313E-17
4.500000E+03	1.757535E-15	3.869350E-17
4.510000E+03	1.818786E-15	3.962579E-17
4.520000E+03	1.888681E-15	4.068505E-17
4.530000E+03	1.966988E-15	4.187373E-17
4.540000E+03	2.053131E-15	4.318864E-17
4.550000E+03	2.146168E-15	4.462031E-17
4.560000E+03	2.244687E-15	4.615201E-17
4.570000E+03	2.346843E-15	4.776119E-17
4.580000E+03	2.450289E-15	4.941831E-17
4.590000E+03	2.552252E-15	5.108846E-17
4.600000E+03	2.649663E-15	5.273274E-17
4.610000E+03	2.739237E-15	5.430765E-17
4.620000E+03	2.817723E-15	5.576844E-17
4.630000E+03	2.882036E-15	5.706935E-17
4.640000E+03	2.929666E-15	5.816861E-17
4.650000E+03	2.958722E-15	5.902789E-17
4.660000E+03	2.968216E-15	5.961651E-17
4.670000E+03	2.958069E-15	5.991103E-17
4.680000E+03	2.929268E-15	5.990116E-17
4.690000E+03	2.883559E-15	5.958716E-17
4.700000E+03	2.823457E-15	5.898351E-17
4.710000E+03	2.751910E-15	5.811660E-17
4.720000E+03	2.672111E-15	5.702430E-17
4.730000E+03	2.587161E-15	5.574995E-17
4.740000E+03	2.500061E-15	5.434244E-17
4.750000E+03	2.413395E-15	5.284796E-17
4.760000E+03	2.329336E-15	5.130832E-17
4.770000E+03	2.249615E-15	4.975956E-17
4.780000E+03	2.175473E-15	4.823010E-17
4.790000E+03	2.107900E-15	4.674528E-17
4.800000E+03	2.047497E-15	4.532439E-17
4.810000E+03	1.994618E-15	4.398382E-17
4.820000E+03	1.949279E-15	4.273475E-17
4.830000E+03	1.911428E-15	4.158918E-17
4.840000E+03	1.880802E-15	4.055617E-17
4.850000E+03	1.857038E-15	3.964357E-17
4.860000E+03	1.839690E-15	3.885761E-17
4.870000E+03	1.828282E-15	3.820241E-17
4.880000E+03	1.822184E-15	3.767648E-17
4.890000E+03	1.820754E-15	3.727635E-17
4.900000E+03	1.823252E-15	3.699545E-17
4.910000E+03	1.828876E-15	3.682495E-17
4.920000E+03	1.836685E-15	3.675259E-17
4.930000E+03	1.845736E-15	3.676508E-17
4.940000E+03	1.854973E-15	3.684458E-17
4.950000E+03	1.863354E-15	3.697079E-17
4.960000E+03	1.869925E-15	3.712146E-17
4.970000E+03	1.873840E-15	3.727179E-17
4.980000E+03	1.874507E-15	3.739862E-17
4.990000E+03	1.871508E-15	3.748016E-17
5.000000E+03	1.864768E-15	3.750044E-17
5.010000E+03	1.854484E-15	3.744957E-17
5.020000E+03	1.841057E-15	3.732328E-17
5.030000E+03	1.825133E-15	3.712392E-17
5.040000E+03	1.807477E-15	3.685834E-17
5.050000E+03	1.788929E-15	3.653671E-17
5.060000E+03	1.770344E-15	3.617109E-17
5.070000E+03	1.752549E-15	3.577551E-17
5.080000E+03	1.736331E-15	3.536653E-17
5.090000E+03	1.722373E-15	3.496197E-17
5.100000E+03	1.711270E-15	3.458059E-17
5.110000E+03	1.703530E-15	3.424073E-17
5.120000E+03	1.699571E-15	3.395876E-17
5.130000E+03	1.699760E-15	3.374909E-17
5.140000E+03	1.704349E-15	3.362221E-17
5.150000E+03	1.713627E-15	3.358685E-17
5.160000E+03	1.727750E-15	3.364714E-17
5.170000E+03	1.746881E-15	3.380579E-17
5.180000E+03	1.771104E-15	3.406246E-17
5.190000E+03	1.800501E-15	3.441644E-17
5.200000E+03	1.835022E-15	3.486473E-17
5.210000E+03	1.874596E-15	3.540447E-17
5.220000E+03	1.919049E-15	3.603196E-17
5.230000E+03	1.968110E-15	3.674277E-17
5.240000E+03	2.021397E-15	3.753089E-17
5.250000E+03	2.078418E-15	3.838867E-17
5.260000E+03	2.138572E-15	3.930614E-17
5.270000E+03	2.201139E-15	4.026975E-17
5.280000E+03	2.265355E-15	4.126428E-17
5.290000E+03	2.330382E-15	4.227242E-17
5.300000E+03	2.395331E-15	4.327502E-17
5.310000E+03	2.459369E-15	4.425377E-17
5.320000E+03	2.521659E-15	4.519050E-17
5.330000E+03	2.581500E-15	4.606921E-17
5.340000E+03	2.638228E-15	4.687531E-17
5.350000E+03	2.691428E-15	4.759982E-17
5.360000E+03	2.740750E-15	4.823600E-17
5.370000E+03	2.786087E-15	4.878458E-17
5.380000E+03	2.827432E-15	4.925259E-17
5.390000E+03	2.864968E-15	4.965523E-17
5.400000E+03	2.898919E-15	5.001402E-17
5.410000E+03	2.929561E-15	5.035590E-17
5.420000E+03	2.957261E-15	5.071089E-17
5.430000E+03	2.982210E-15	5.110471E-17
5.440000E+03	3.004522E-15	5.155364E-17
5.450000E+03	3.023928E-15	5.204759E-17
5.460000E+03	3.039909E-15	5.256276E-17
5.470000E+03	3.051915E-15	5.307215E-17
5.480000E+03	3.059181E-15	5.354502E-17
5.490000E+03	3.061004E-15	5.395437E-17
5.500000E+03	3.056502E-15	5.427332E-17
5.510000E+03	3.044723E-15	5.447608E-17
5.520000E+03	3.024643E-15	5.453834E-17
5.530000E+03	2.995556E-15	5.444354E-17
5.540000E+03	2.956905E-15	5.417852E-17
5.550000E+03	2.908450E-15	5.373663E-17
5.560000E+03	2.850307E-15	5.311805E-17
5.570000E+03	2.782995E-15	5.232953E-17
5.580000E+03	2.707407E-15	5.138438E-17
5.590000E+03	2.624894E-15	5.030412E-17
5.600000E+03	2.537081E-15	4.911408E-17
5.610000E+03	2.445808E-15	4.784247E-17
5.620000E+03	2.353098E-15	4.651923E-17
5.630000E+03	2.261048E-15	4.517389E-17
5.640000E+03	2.171676E-15	4.383421E-17
5.650000E+03	2.086862E-15	4.252665E-17
5.660000E+03	2.008208E-15	4.127410E-17
5.670000E+03	1.937151E-15	4.009955E-17
5.680000E+03	1.874821E-15	3.902378E-17
5.690000E+03	1.822091E-15	3.806596E-17
5.700000E+03	1.779669E-15	3.724568E-17
5.710000E+03	1.748069E-15	3.658194E-17
5.720000E+03	1.727730E-15	3.609454E-17
5.730000E+03	1.718911E-15	3.580041E-17
5.740000E+03	1.721815E-15	3.571432E-17
5.750000E+03	1.736437E-15	3.584425E-17
5.760000E+03	1.762700E-15	3.619479E-17
5.770000E+03	1.800338E-15	3.676541E-17
5.780000E+03	1.848857E-15	3.755005E-17
5.790000E+03	1.907603E-15	3.853942E-17
5.800000E+03	1.975614E-15	3.971821E-17
5.810000E+03	2.051553E-15	4.106364E-17
5.820000E+03	2.133806E-15	4.254781E-17
5.830000E+03	2.220360E-15	4.413534E-17
5.840000E+03	2.308845E-15	4.578339E-17
5.850000E+03	2.396638E-15	4.744359E-17
5.860000E+03	2.480969E-15	4.906361E-17
5.870000E+03	2.558995E-15	5.058730E-17
5.880000E+03	2.628036E-15	5.195995E-17
5.890000E+03	2.685642E-15	5.312981E-17
5.900000E+03	2.729824E-15	5.405289E-17
5.910000E+03	2.759123E-15	5.469560E-17
5.920000E+03	2.772794E-15	5.503961E-17
5.930000E+03	2.770690E-15	5.507952E-17
5.940000E+03	2.753352E-15	5.482532E-17
5.950000E+03	2.721894E-15	5.429964E-17
5.960000E+03	2.677989E-15	5.353642E-17
5.970000E+03	2.623630E-15	5.257590E-17
5.980000E+03	2.561063E-15	5.146269E-17
5.990000E+03	2.492622E-15	5.024155E-17
6.000000E+03	2.420599E-15	4.895530E-17
6.010000E+03	2.347105E-15	4.764235E-17
6.020000E+03	2.274043E-15	4.633604E-17
6.030000E+03	2.203034E-15	4.506436E-17
6.040000E+03	2.135389E-15	4.385008E-17
6.050000E+03	2.072065E-15	4.270976E-17
6.060000E+03	2.013813E-15	4.165726E-17
6.070000E+03	1.961036E-15	4.070068E-17
6.080000E+03	1.913956E-15	3.984528E-17
6.090000E+03	1.872545E-15	3.909183E-17
6.100000E+03	1.836648E-15	3.843898E-17
6.110000E+03	1.805979E-15	3.788242E-17
6.120000E+03	1.780152E-15	3.741595E-17
6.130000E+03	1.758682E-15	3.703141E-17
6.140000E+03	1.741074E-15	3.672036E-17
6.150000E+03	1.726776E-15	3.647315E-17
6.160000E+03	1.715249E-15	3.628022E-17
6.170000E+03	1.705943E-15	3.613120E-17
6.180000E+03	1.698308E-15	3.601554E-17
6.190000E+03	1.691906E-15	3.592494E-17
6.200000E+03	1.686370E-15	3.585236E-17
6.210000E+03	1.681307E-15	3.579047E-17
6.220000E+03	1.676403E-15	3.573374E-17
6.230000E+03	1.671444E-15	3.567872E-17
6.240000E+03	1.666211E-15	3.562187E-17
6.250000E+03	1.660651E-15	3.556270E-17
6.260000E+03	1.654778E-15	3.550129E-17
6.270000E+03	1.648730E-15	3.543960E-17
6.280000E+03	1.642718E-15	3.538038E-17
6.290000E+03	1.637064E-15	3.532792E-17
6.300000E+03	1.632192E-15	3.528827E-17
6.310000E+03	1.628578E-15	3.526866E-17
6.320000E+03	1.626686E-15	3.527607E-17
6.330000E+03	1.627056E-15	3.531976E-17
6.340000E+03	1.630157E-15	3.540842E-17
6.350000E+03	1.636449E-15	3.555141E-17
6.360000E+03	1.646276E-15	3.575673E-17
6.370000E+03	1.659981E-15	3.603345E-17
6.380000E+03	1.677694E-15	3.638674E-17
6.390000E+03	1.699509E-15	3.682177E-17
6.400000E+03	1.725326E-15	3.734008E-17
6.410000E+03	1.754885E-15	3.793986E-17
6.420000E+03	1.787814E-15	3.861703E-17
6.430000E+03	1.823491E-15	3.936223E-17
6.440000E+03	1.861165E-15	4.016297E-17
6.450000E+03	1.899848E-15	4.100138E-17
6.460000E+03	1.938458E-15	4.185718E-17
6.470000E+03	1.975687E-15	4.270416E-17
6.480000E+03	2.010143E-15	4.351346E-17
6.490000E+03	2.040361E-15	4.425352E-17
6.500000E+03	2.064859E-15	4.489086E-17
6.510000E+03	2.082181E-15	4.539155E-17
6.520000E+03	2.091036E-15	4.572464E-17
6.530000E+03	2.090312E-15	4.586239E-17
6.540000E+03	2.079192E-15	4.578319E-17
6.550000E+03	2.057190E-15	4.547253E-17
6.560000E+03	2.024177E-15	4.492319E-17
6.570000E+03	1.980444E-15	4.413712E-17
6.580000E+03	1.926648E-15	4.312460E-17
6.590000E+03	1.863823E-15	4.190460E-17
6.600000E+03	1.793274E-15	4.050330E-17
6.610000E+03	1.716557E-15	3.895413E-17
6.620000E+03	1.635289E-15	3.729335E-17
6.630000E+03	1.551167E-15	3.555992E-17
6.640000E+03	1.465826E-15	3.379149E-17
6.650000E+03	1.380809E-15	3.202295E-17
6.660000E+03	1.297476E-15	3.028448E-17
6.670000E+03	1.216997E-15	2.860147E-17
6.680000E+03	1.140301E-15	2.699339E-17
6.690000E+03	1.068078E-15	2.547435E-17
6.700000E+03	1.000845E-15	2.405467E-17
6.710000E+03	9.388937E-16	2.273988E-17
6.720000E+03	8.823579E-16	2.153237E-17
6.730000E+03	8.312380E-16	2.043211E-17
6.740000E+03	7.854334E-16	1.943727E-17
6.750000E+03	7.447803E-16	1.854515E-17
6.760000E+03	7.090573E-16	1.775217E-17
6.770000E+03	6.780074E-16	1.705417E-17
6.780000E+03	6.513846E-16	1.644743E-17
6.790000E+03	6.289169E-16	1.592745E-17
6.800000E+03	6.103518E-16	1.548995E-17
6.810000E+03	5.954264E-16	1.513007E-17
6.820000E+03	5.839274E-16	1.484394E-17
6.830000E+03	5.756207E-16	1.462683E-17
6.840000E+03	5.703089E-16	1.447477E-17
6.850000E+03	5.678031E-16	1.438393E-17
6.860000E+03	5.679271E-16	1.435078E-17
6.870000E+03	5.705165E-16	1.437212E-17
6.880000E+03	5.754224E-16	1.444525E-17
6.890000E+03	5.824817E-16	1.456716E-17
6.900000E+03	5.915552E-16	1.473551E-17
6.910000E+03	6.025058E-16	1.494794E-17
6.920000E+03	6.151818E-16	1.520155E-17
6.930000E+03	6.294448E-16	1.549364E-17
6.940000E+03	6.451325E-16	1.582074E-17
6.950000E+03	6.621135E-16	1.617992E-17
6.960000E+03	6.802423E-16	1.656785E-17
6.970000E+03	6.993606E-16	1.698090E-17
6.980000E+03	7.193505E-16	1.741646E-17
6.990000E+03	7.400886E-16	1.787191E-17
7.000000E+03	7.614470E-16	1.834468E-17
7.010000E+03	7.833534E-16	1.883350E-17
7.020000E+03	8.057279E-16	1.933701E-17
7.030000E+03	8.285312E-16	1.985473E-17
7.040000E+03	8.517148E-16	2.038582E-17
7.050000E+03	8.752898E-16	2.093072E-17
7.060000E+03	8.992497E-16	2.148940E-17
7.070000E+03	9.236070E-16	2.206208E-17
7.080000E+03	9.483780E-16	2.264905E-17
7.090000E+03	9.735763E-16	2.325059E-17
7.100000E+03	9.991952E-16	2.386638E-17
7.110000E+03	1.025241E-15	2.449657E-17
7.120000E+03	1.051691E-15	2.514078E-17
7.130000E+03	1.078507E-15	2.579824E-17
7.140000E+03	1.105615E-15	2.646749E-17
7.150000E+03	1.132948E-15	2.714728E-17
7.160000E+03	1.160390E-15	2.783502E-17
7.170000E+03	1.187821E-15	2.852786E-17
7.180000E+03	1.215099E-15	2.922241E-17
7.190000E+03	1.242067E-15	2.991460E-17
7.200000E+03	1.268556E-15	3.059997E-17
7.210000E+03	1.294369E-15	3.127357E-17
7.220000E+03	1.319339E-15	3.193122E-17
7.230000E+03	1.343265E-15	3.256858E-17
7.240000E+03	1.365988E-15	3.318324E-17
7.250000E+03	1.387310E-15	3.377313E-17
7.260000E+03	1.407120E-15	3.434028E-17
7.270000E+03	1.425242E-15	3.488771E-17
7.280000E+03	1.441617E-15	3.542429E-17
7.290000E+03	1.456180E-15	3.596263E-17
7.300000E+03	1.468842E-15	3.651904E-17
7.310000E+03	1.479659E-15	3.711768E-17
7.320000E+03	1.488609E-15	3.778481E-17
7.330000E+03	1.495774E-15	3.855241E-17
7.340000E+03	1.501230E-15	3.945355E-17
7.350000E+03	1.505095E-15	4.052195E-17
7.360000E+03	1.507470E-15	4.178794E-17
7.370000E+03	1.508528E-15	4.327824E-17
7.380000E+03	1.508409E-15	4.501113E-17
7.390000E+03	1.507232E-15	4.699491E-17
7.400000E+03	1.505143E-15	4.922816E-17
7.410000E+03	1.502274E-15	5.169870E-17
7.420000E+03	1.498691E-15	5.438275E-17
7.430000E+03	1.494475E-15	5.724887E-17
7.440000E+03	1.489687E-15	6.026017E-17
7.450000E+03	1.484391E-15	6.337915E-17
7.460000E+03	1.478609E-15	6.656810E-17
7.470000E+03	1.472433E-15	6.979550E-17
7.480000E+03	1.465855E-15	7.302879E-17
7.490000E+03	1.458962E-15	7.624330E-17
7.500000E+03	1.451760E-15	7.941378E-17
7.510000E+03	1.444307E-15	8.252089E-17
7.520000E+03	1.436604E-15	8.554477E-17
7.530000E+03	1.428682E-15	8.847001E-17
7.540000E+03	1.420555E-15	9.128215E-17
7.550000E+03	1.412267E-15	9.397098E-17
7.560000E+03	1.403785E-15	9.652307E-17
7.570000E+03	1.395149E-15	9.893130E-17
7.580000E+03	1.386339E-15	1.011860E-16
7.590000E+03	1.377370E-15	1.032814E-16
7.600000E+03	1.368235E-15	1.052110E-16
7.610000E+03	1.358926E-15	1.069697E-16
7.620000E+03	1.349434E-15	1.085528E-16
7.630000E+03	1.339746E-15	1.099566E-16
7.640000E+03	1.329868E-15	1.111793E-16
7.650000E+03	1.319784E-15	1.122187E-16
7.660000E+03	1.309462E-15	1.130715E-16
7.670000E+03	1.298889E-15	1.137364E-16
7.680000E+03	1.288082E-15	1.142161E-16
7.690000E+03	1.277010E-15	1.145092E-16
7.700000E+03	1.265641E-15	1.146149E-16
7.710000E+03	1.253980E-15	1.145363E-16
7.720000E+03	1.242013E-15	1.142755E-16
7.730000E+03	1.229747E-15	1.138369E-16
7.740000E+03	1.217139E-15	1.132211E-16
7.750000E+03	1.204197E-15	1.124341E-16
7.760000E+03	1.190933E-15	1.114824E-16
