#wls	flux	fluxerr
1.600000E+03	1.826801E-16	1.196207E-16
1.640000E+03	1.788384E-16	1.142294E-16
1.680000E+03	1.751597E-16	1.090752E-16
1.720000E+03	1.716151E-16	1.041351E-16
1.760000E+03	1.682667E-16	9.944092E-17
1.800000E+03	1.650846E-16	9.496766E-17
1.840000E+03	1.620982E-16	9.072456E-17
1.880000E+03	1.593068E-16	8.670258E-17
1.920000E+03	1.566836E-16	8.287852E-17
1.960000E+03	1.542564E-16	7.925883E-17
2.000000E+03	1.520514E-16	7.584716E-17
2.040000E+03	1.500431E-16	7.262076E-17
2.080000E+03	1.482577E-16	6.958286E-17
2.120000E+03	1.466963E-16	6.672407E-17
2.160000E+03	1.453608E-16	6.403597E-17
2.200000E+03	1.442772E-16	6.152114E-17
2.240000E+03	1.434483E-16	5.917221E-17
2.280000E+03	1.428780E-16	5.698354E-17
2.320000E+03	1.425718E-16	5.495136E-17
2.360000E+03	1.425799E-16	5.309006E-17
2.400000E+03	1.428875E-16	5.138990E-17
2.440000E+03	1.435041E-16	4.985206E-17
2.480000E+03	1.444830E-16	4.849352E-17
2.520000E+03	1.458369E-16	4.731636E-17
2.560000E+03	1.475814E-16	4.632279E-17
2.600000E+03	1.497775E-16	4.552625E-17
2.640000E+03	1.524280E-16	4.491676E-17
2.680000E+03	1.555824E-16	4.449100E-17
2.720000E+03	1.593168E-16	4.424424E-17
2.760000E+03	1.636519E-16	4.414874E-17
2.800000E+03	1.686984E-16	4.419540E-17
2.840000E+03	1.744916E-16	4.434922E-17
2.880000E+03	1.811380E-16	4.458940E-17
2.920000E+03	1.887334E-16	4.488770E-17
2.960000E+03	1.974064E-16	4.521949E-17
3.000000E+03	2.072548E-16	4.554881E-17
3.010000E+03	2.099343E-16	4.563113E-17
3.020000E+03	2.126706E-16	4.570493E-17
3.030000E+03	2.155107E-16	4.577947E-17
3.040000E+03	2.184570E-16	4.585412E-17
3.050000E+03	2.214655E-16	4.591868E-17
3.060000E+03	2.245844E-16	4.598223E-17
3.070000E+03	2.278160E-16	4.604417E-17
3.080000E+03	2.311159E-16	4.609452E-17
3.090000E+03	2.345567E-16	4.614688E-17
3.100000E+03	2.380701E-16	4.618671E-17
3.110000E+03	2.417298E-16	4.622746E-17
3.120000E+03	2.454665E-16	4.625483E-17
3.130000E+03	2.493552E-16	4.628211E-17
3.140000E+03	2.533501E-16	4.629978E-17
3.150000E+03	2.574537E-16	4.630753E-17
3.160000E+03	2.616935E-16	4.630951E-17
3.170000E+03	2.660723E-16	4.630541E-17
3.180000E+03	2.705935E-16	4.629496E-17
3.190000E+03	2.752348E-16	4.627367E-17
3.200000E+03	2.800244E-16	4.624580E-17
3.210000E+03	2.849658E-16	4.621130E-17
3.220000E+03	2.900624E-16	4.617022E-17
3.230000E+03	2.953175E-16	4.612270E-17
3.240000E+03	3.007082E-16	4.606494E-17
3.250000E+03	3.062910E-16	4.600549E-17
3.260000E+03	3.120162E-16	4.593677E-17
3.270000E+03	3.179413E-16	4.586745E-17
3.280000E+03	3.240157E-16	4.579041E-17
3.290000E+03	3.302981E-16	4.571446E-17
3.300000E+03	3.367372E-16	4.563300E-17
3.310000E+03	3.433927E-16	4.555500E-17
3.320000E+03	3.502409E-16	4.547816E-17
3.330000E+03	3.573148E-16	4.540785E-17
3.340000E+03	3.645612E-16	4.533861E-17
3.350000E+03	3.720423E-16	4.527986E-17
3.360000E+03	3.797338E-16	4.523025E-17
3.370000E+03	3.876701E-16	4.519580E-17
3.380000E+03	3.958263E-16	4.517562E-17
3.390000E+03	4.042380E-16	4.517601E-17
3.400000E+03	4.128797E-16	4.519648E-17
3.410000E+03	4.217879E-16	4.524353E-17
3.420000E+03	4.309369E-16	4.531695E-17
3.430000E+03	4.403638E-16	4.542331E-17
3.440000E+03	4.500751E-16	4.556584E-17
3.450000E+03	4.600444E-16	4.574445E-17
3.460000E+03	4.703105E-16	4.596554E-17
3.470000E+03	4.808800E-16	4.623209E-17
3.480000E+03	4.917598E-16	4.654686E-17
3.490000E+03	5.029569E-16	4.691239E-17
3.500000E+03	5.144781E-16	4.733092E-17
3.510000E+03	5.262955E-16	4.780121E-17
3.520000E+03	5.384856E-16	4.833121E-17
3.530000E+03	5.510207E-16	4.891900E-17
3.540000E+03	5.639078E-16	4.956548E-17
3.550000E+03	5.771899E-16	5.027437E-17
3.560000E+03	5.908010E-16	5.103949E-17
3.570000E+03	6.048207E-16	5.186707E-17
3.580000E+03	6.192183E-16	5.275344E-17
3.590000E+03	6.340379E-16	5.370105E-17
3.600000E+03	6.492470E-16	5.470562E-17
3.610000E+03	6.648896E-16	5.576912E-17
3.620000E+03	6.809315E-16	5.688677E-17
3.630000E+03	6.974167E-16	5.806019E-17
3.640000E+03	7.143091E-16	5.928417E-17
3.650000E+03	7.316523E-16	6.056010E-17
3.660000E+03	7.494497E-16	6.188592E-17
3.670000E+03	7.676623E-16	6.325601E-17
3.680000E+03	7.863756E-16	6.467506E-17
3.690000E+03	8.055068E-16	6.613381E-17
3.700000E+03	8.250983E-16	6.763340E-17
3.710000E+03	8.451500E-16	6.917142E-17
3.720000E+03	8.656602E-16	7.074541E-17
3.730000E+03	8.866257E-16	7.235282E-17
3.740000E+03	9.080415E-16	7.399100E-17
3.750000E+03	9.298995E-16	7.565716E-17
3.760000E+03	9.522351E-16	7.735213E-17
3.770000E+03	9.749406E-16	7.906521E-17
3.780000E+03	9.980885E-16	8.080053E-17
3.790000E+03	1.021606E-15	8.255052E-17
3.800000E+03	1.045457E-15	8.431097E-17
3.810000E+03	1.069648E-15	8.608115E-17
3.820000E+03	1.094027E-15	8.784798E-17
3.830000E+03	1.118678E-15	8.961748E-17
3.840000E+03	1.143374E-15	9.137122E-17
3.850000E+03	1.168125E-15	9.310992E-17
3.860000E+03	1.192825E-15	9.482558E-17
3.870000E+03	1.217256E-15	9.650129E-17
3.880000E+03	1.241437E-15	9.813968E-17
3.890000E+03	1.265072E-15	9.971825E-17
3.900000E+03	1.288109E-15	1.012343E-16
3.910000E+03	1.310386E-15	1.026767E-16
3.920000E+03	1.331684E-15	1.040296E-16
3.930000E+03	1.351837E-15	1.052817E-16
3.940000E+03	1.370735E-15	1.064259E-16
3.950000E+03	1.388172E-15	1.074474E-16
3.960000E+03	1.404063E-15	1.083407E-16
3.970000E+03	1.418182E-15	1.090896E-16
3.980000E+03	1.430594E-15	1.096994E-16
3.990000E+03	1.441074E-15	1.101535E-16
4.000000E+03	1.449693E-15	1.104574E-16
4.010000E+03	1.456396E-15	1.106070E-16
4.020000E+03	1.461218E-15	1.106045E-16
4.030000E+03	1.464225E-15	1.104549E-16
4.040000E+03	1.465515E-15	1.101651E-16
4.050000E+03	1.465265E-15	1.097481E-16
4.060000E+03	1.463527E-15	1.092073E-16
4.070000E+03	1.460520E-15	1.085590E-16
4.080000E+03	1.456382E-15	1.078133E-16
4.090000E+03	1.451352E-15	1.069878E-16
4.100000E+03	1.445622E-15	1.060971E-16
4.110000E+03	1.439336E-15	1.051521E-16
4.120000E+03	1.432722E-15	1.041699E-16
4.130000E+03	1.425904E-15	1.031604E-16
4.140000E+03	1.419034E-15	1.021357E-16
4.150000E+03	1.412205E-15	1.011037E-16
4.160000E+03	1.405613E-15	1.000800E-16
4.170000E+03	1.399268E-15	9.906681E-17
4.180000E+03	1.393280E-15	9.807408E-17
4.190000E+03	1.387659E-15	9.710475E-17
4.200000E+03	1.382436E-15	9.616356E-17
4.210000E+03	1.377663E-15	9.525699E-17
4.220000E+03	1.373263E-15	9.438296E-17
4.230000E+03	1.369263E-15	9.354687E-17
4.240000E+03	1.365608E-15	9.274881E-17
4.250000E+03	1.362312E-15	9.199390E-17
4.260000E+03	1.359316E-15	9.128264E-17
4.270000E+03	1.356571E-15	9.061624E-17
4.280000E+03	1.354136E-15	9.000349E-17
4.290000E+03	1.351947E-15	8.944482E-17
4.300000E+03	1.350022E-15	8.894627E-17
4.310000E+03	1.348398E-15	8.851486E-17
4.320000E+03	1.347133E-15	8.815863E-17
4.330000E+03	1.346305E-15	8.788661E-17
4.340000E+03	1.345983E-15	8.770663E-17
4.350000E+03	1.346320E-15	8.763140E-17
4.360000E+03	1.347398E-15	8.766791E-17
4.370000E+03	1.349413E-15	8.782932E-17
4.380000E+03	1.352549E-15	8.812656E-17
4.390000E+03	1.356972E-15	8.856843E-17
4.400000E+03	1.362888E-15	8.916577E-17
4.410000E+03	1.370511E-15	8.992942E-17
4.420000E+03	1.380052E-15	9.087019E-17
4.430000E+03	1.391686E-15	9.199671E-17
4.440000E+03	1.405637E-15	9.332105E-17
4.450000E+03	1.422053E-15	9.485056E-17
4.460000E+03	1.441057E-15	9.659127E-17
4.470000E+03	1.462830E-15	9.855362E-17
4.480000E+03	1.487364E-15	1.007356E-16
4.490000E+03	1.514756E-15	1.031426E-16
4.500000E+03	1.544988E-15	1.057723E-16
4.510000E+03	1.577914E-15	1.086140E-16
4.520000E+03	1.613410E-15	1.116581E-16
4.530000E+03	1.651240E-15	1.148876E-16
4.540000E+03	1.691049E-15	1.182765E-16
4.550000E+03	1.732456E-15	1.217968E-16
4.560000E+03	1.774922E-15	1.254090E-16
4.570000E+03	1.817887E-15	1.290714E-16
4.580000E+03	1.860604E-15	1.327282E-16
4.590000E+03	1.902362E-15	1.363258E-16
4.600000E+03	1.942367E-15	1.398036E-16
4.610000E+03	1.979799E-15	1.430986E-16
4.620000E+03	2.013843E-15	1.461474E-16
4.630000E+03	2.043680E-15	1.488860E-16
4.640000E+03	2.068602E-15	1.512578E-16
4.650000E+03	2.088079E-15	1.532189E-16
4.660000E+03	2.101522E-15	1.547211E-16
4.670000E+03	2.108691E-15	1.557417E-16
4.680000E+03	2.109438E-15	1.562653E-16
4.690000E+03	2.103718E-15	1.562841E-16
4.700000E+03	2.091810E-15	1.558152E-16
4.710000E+03	2.074081E-15	1.548823E-16
4.720000E+03	2.050961E-15	1.535151E-16
4.730000E+03	2.023177E-15	1.517659E-16
4.740000E+03	1.991325E-15	1.496779E-16
4.750000E+03	1.956228E-15	1.473120E-16
4.760000E+03	1.918622E-15	1.447234E-16
4.770000E+03	1.879303E-15	1.419726E-16
4.780000E+03	1.838969E-15	1.391127E-16
4.790000E+03	1.798328E-15	1.361983E-16
4.800000E+03	1.757957E-15	1.332748E-16
4.810000E+03	1.718418E-15	1.303861E-16
4.820000E+03	1.680161E-15	1.275682E-16
4.830000E+03	1.643551E-15	1.248507E-16
4.840000E+03	1.608847E-15	1.222549E-16
4.850000E+03	1.576310E-15	1.198027E-16
4.860000E+03	1.546027E-15	1.175021E-16
4.870000E+03	1.518121E-15	1.153644E-16
4.880000E+03	1.492586E-15	1.133902E-16
4.890000E+03	1.469391E-15	1.115784E-16
4.900000E+03	1.448464E-15	1.099246E-16
4.910000E+03	1.429748E-15	1.084251E-16
4.920000E+03	1.413043E-15	1.070652E-16
4.930000E+03	1.398268E-15	1.058390E-16
4.940000E+03	1.385217E-15	1.047310E-16
4.950000E+03	1.373748E-15	1.037300E-16
4.960000E+03	1.363697E-15	1.028232E-16
4.970000E+03	1.354905E-15	1.019979E-16
4.980000E+03	1.347228E-15	1.012423E-16
4.990000E+03	1.340559E-15	1.005471E-16
5.000000E+03	1.334766E-15	9.990142E-17
5.010000E+03	1.329765E-15	9.929738E-17
5.020000E+03	1.325515E-15	9.873048E-17
5.030000E+03	1.321959E-15	9.819485E-17
5.040000E+03	1.319105E-15	9.768945E-17
5.050000E+03	1.316963E-15	9.721327E-17
5.060000E+03	1.315561E-15	9.676673E-17
5.070000E+03	1.314926E-15	9.634988E-17
5.080000E+03	1.315155E-15	9.596810E-17
5.090000E+03	1.316277E-15	9.562132E-17
5.100000E+03	1.318401E-15	9.531561E-17
5.110000E+03	1.321557E-15	9.505098E-17
5.120000E+03	1.325855E-15	9.483287E-17
5.130000E+03	1.331331E-15	9.466164E-17
5.140000E+03	1.338035E-15	9.453815E-17
5.150000E+03	1.346021E-15	9.446361E-17
5.160000E+03	1.355289E-15	9.443508E-17
5.170000E+03	1.365837E-15	9.444974E-17
5.180000E+03	1.377648E-15	9.450341E-17
5.190000E+03	1.390679E-15	9.459055E-17
5.200000E+03	1.404890E-15	9.470579E-17
5.210000E+03	1.420175E-15	9.483972E-17
5.220000E+03	1.436446E-15	9.498480E-17
5.230000E+03	1.453528E-15	9.512837E-17
5.240000E+03	1.471314E-15	9.526303E-17
5.250000E+03	1.489606E-15	9.537679E-17
5.260000E+03	1.508235E-15	9.546068E-17
5.270000E+03	1.526946E-15	9.550191E-17
5.280000E+03	1.545560E-15	9.549432E-17
5.290000E+03	1.563822E-15	9.542878E-17
5.300000E+03	1.581493E-15	9.529930E-17
5.310000E+03	1.598330E-15	9.510202E-17
5.320000E+03	1.614123E-15	9.483694E-17
5.330000E+03	1.628593E-15	9.450248E-17
5.340000E+03	1.641548E-15	9.410419E-17
5.350000E+03	1.652792E-15	9.364907E-17
5.360000E+03	1.662149E-15	9.314686E-17
5.370000E+03	1.669467E-15	9.260972E-17
5.380000E+03	1.674623E-15	9.205178E-17
5.390000E+03	1.677522E-15	9.148845E-17
5.400000E+03	1.678074E-15	9.093424E-17
5.410000E+03	1.676266E-15	9.040568E-17
5.420000E+03	1.672086E-15	8.991589E-17
5.430000E+03	1.665545E-15	8.947400E-17
5.440000E+03	1.656675E-15	8.908315E-17
5.450000E+03	1.645495E-15	8.873822E-17
5.460000E+03	1.632114E-15	8.843217E-17
5.470000E+03	1.616559E-15	8.814886E-17
5.480000E+03	1.598943E-15	8.787416E-17
5.490000E+03	1.579348E-15	8.759076E-17
5.500000E+03	1.557942E-15	8.728575E-17
5.510000E+03	1.534816E-15	8.694231E-17
5.520000E+03	1.510170E-15	8.655086E-17
5.530000E+03	1.484131E-15	8.609917E-17
5.540000E+03	1.456934E-15	8.558317E-17
5.550000E+03	1.428748E-15	8.499696E-17
5.560000E+03	1.399844E-15	8.434316E-17
5.570000E+03	1.370449E-15	8.362412E-17
5.580000E+03	1.340830E-15	8.284682E-17
5.590000E+03	1.311265E-15	8.202149E-17
5.600000E+03	1.282063E-15	8.116240E-17
5.610000E+03	1.253517E-15	8.028508E-17
5.620000E+03	1.225886E-15	7.940465E-17
5.630000E+03	1.199514E-15	7.854361E-17
5.640000E+03	1.174645E-15	7.771943E-17
5.650000E+03	1.151579E-15	7.695458E-17
5.660000E+03	1.130529E-15	7.626674E-17
5.670000E+03	1.111736E-15	7.567639E-17
5.680000E+03	1.095397E-15	7.520180E-17
5.690000E+03	1.081685E-15	7.485980E-17
5.700000E+03	1.070756E-15	7.466661E-17
5.710000E+03	1.062690E-15	7.463312E-17
5.720000E+03	1.057614E-15	7.477351E-17
5.730000E+03	1.055526E-15	7.509281E-17
5.740000E+03	1.056467E-15	7.559888E-17
5.750000E+03	1.060410E-15	7.629436E-17
5.760000E+03	1.067287E-15	7.717861E-17
5.770000E+03	1.076970E-15	7.824621E-17
5.780000E+03	1.089315E-15	7.949013E-17
5.790000E+03	1.104111E-15	8.089795E-17
5.800000E+03	1.121094E-15	8.245279E-17
5.810000E+03	1.139941E-15	8.413310E-17
5.820000E+03	1.160259E-15	8.591138E-17
5.830000E+03	1.181650E-15	8.775948E-17
5.840000E+03	1.203620E-15	8.964138E-17
5.850000E+03	1.225648E-15	9.151892E-17
5.860000E+03	1.247192E-15	9.335157E-17
5.870000E+03	1.267696E-15	9.509769E-17
5.880000E+03	1.286633E-15	9.671745E-17
5.890000E+03	1.303470E-15	9.817020E-17
5.900000E+03	1.317722E-15	9.941897E-17
5.910000E+03	1.329038E-15	1.004366E-16
5.920000E+03	1.337118E-15	1.012000E-16
5.930000E+03	1.341726E-15	1.016907E-16
5.940000E+03	1.342820E-15	1.019052E-16
5.950000E+03	1.340412E-15	1.018440E-16
5.960000E+03	1.334646E-15	1.015181E-16
5.970000E+03	1.325765E-15	1.009459E-16
5.980000E+03	1.314100E-15	1.001526E-16
5.990000E+03	1.300045E-15	9.916854E-17
6.000000E+03	1.284059E-15	9.802903E-17
6.010000E+03	1.266586E-15	9.676824E-17
6.020000E+03	1.248069E-15	9.542063E-17
6.030000E+03	1.228995E-15	9.402385E-17
6.040000E+03	1.209761E-15	9.260871E-17
6.050000E+03	1.190720E-15	9.120275E-17
6.060000E+03	1.172227E-15	8.983373E-17
6.070000E+03	1.154526E-15	8.852077E-17
6.080000E+03	1.137803E-15	8.727849E-17
6.090000E+03	1.122219E-15	8.611979E-17
6.100000E+03	1.107882E-15	8.505321E-17
6.110000E+03	1.094795E-15	8.407939E-17
6.120000E+03	1.082952E-15	8.319815E-17
6.130000E+03	1.072342E-15	8.240887E-17
6.140000E+03	1.062853E-15	8.170322E-17
6.150000E+03	1.054397E-15	8.107477E-17
6.160000E+03	1.046854E-15	8.051436E-17
6.170000E+03	1.040072E-15	8.001067E-17
6.180000E+03	1.033930E-15	7.955447E-17
6.190000E+03	1.028289E-15	7.913534E-17
6.200000E+03	1.023001E-15	7.874212E-17
6.210000E+03	1.017964E-15	7.836708E-17
6.220000E+03	1.013074E-15	7.800248E-17
6.230000E+03	1.008234E-15	7.764090E-17
6.240000E+03	1.003398E-15	7.727915E-17
6.250000E+03	9.985184E-16	7.691346E-17
6.260000E+03	9.936156E-16	7.654563E-17
6.270000E+03	9.886578E-16	7.617327E-17
6.280000E+03	9.837302E-16	7.580299E-17
6.290000E+03	9.788589E-16	7.543681E-17
6.300000E+03	9.741171E-16	7.508041E-17
6.310000E+03	9.696197E-16	7.474264E-17
6.320000E+03	9.654250E-16	7.442795E-17
6.330000E+03	9.616213E-16	7.414316E-17
6.340000E+03	9.583212E-16	7.389692E-17
6.350000E+03	9.555630E-16	7.369216E-17
6.360000E+03	9.534278E-16	7.353516E-17
6.370000E+03	9.519119E-16	7.342561E-17
6.380000E+03	9.510293E-16	7.336463E-17
6.390000E+03	9.507311E-16	7.334847E-17
6.400000E+03	9.509795E-16	7.337427E-17
6.410000E+03	9.516540E-16	7.343279E-17
6.420000E+03	9.526119E-16	7.351310E-17
6.430000E+03	9.536742E-16	7.360148E-17
6.440000E+03	9.546434E-16	7.368278E-17
6.450000E+03	9.552455E-16	7.373598E-17
6.460000E+03	9.552452E-16	7.374302E-17
6.470000E+03	9.543449E-16	7.368103E-17
6.480000E+03	9.522719E-16	7.352905E-17
6.490000E+03	9.487275E-16	7.326411E-17
6.500000E+03	9.434615E-16	7.286693E-17
6.510000E+03	9.362221E-16	7.231809E-17
6.520000E+03	9.268308E-16	7.160376E-17
6.530000E+03	9.151463E-16	7.071296E-17
6.540000E+03	9.010889E-16	6.963940E-17
6.550000E+03	8.846469E-16	6.838201E-17
6.560000E+03	8.658648E-16	6.694400E-17
6.570000E+03	8.449006E-16	6.533735E-17
6.580000E+03	8.219331E-16	6.357561E-17
6.590000E+03	7.972129E-16	6.167791E-17
6.600000E+03	7.710500E-16	5.966797E-17
6.610000E+03	7.437605E-16	5.757005E-17
6.620000E+03	7.156942E-16	5.541103E-17
6.630000E+03	6.872182E-16	5.321922E-17
6.640000E+03	6.586795E-16	5.102142E-17
6.650000E+03	6.303958E-16	4.884219E-17
6.660000E+03	6.026797E-16	4.670579E-17
6.670000E+03	5.757981E-16	4.463294E-17
6.680000E+03	5.499793E-16	4.264141E-17
6.690000E+03	5.254026E-16	4.074518E-17
6.700000E+03	5.022348E-16	3.895727E-17
6.710000E+03	4.805768E-16	3.728558E-17
6.720000E+03	4.605123E-16	3.573668E-17
6.730000E+03	4.420699E-16	3.431284E-17
6.740000E+03	4.252840E-16	3.301679E-17
6.750000E+03	4.101507E-16	3.184824E-17
6.760000E+03	3.966352E-16	3.080454E-17
6.770000E+03	3.847249E-16	2.988471E-17
6.780000E+03	3.743625E-16	2.908433E-17
6.790000E+03	3.654983E-16	2.839956E-17
6.800000E+03	3.580852E-16	2.782676E-17
6.810000E+03	3.520671E-16	2.736159E-17
6.820000E+03	3.473877E-16	2.699972E-17
6.830000E+03	3.439849E-16	2.673637E-17
6.840000E+03	3.418103E-16	2.656780E-17
6.850000E+03	3.408168E-16	2.649041E-17
6.860000E+03	3.409407E-16	2.649930E-17
6.870000E+03	3.421379E-16	2.659111E-17
6.880000E+03	3.443537E-16	2.676164E-17
6.890000E+03	3.475525E-16	2.700818E-17
6.900000E+03	3.516811E-16	2.732667E-17
6.910000E+03	3.566932E-16	2.771355E-17
6.920000E+03	3.625424E-16	2.816527E-17
6.930000E+03	3.691761E-16	2.867782E-17
6.940000E+03	3.765619E-16	2.924870E-17
6.950000E+03	3.846482E-16	2.987396E-17
6.960000E+03	3.933905E-16	3.055020E-17
6.970000E+03	4.027386E-16	3.127357E-17
6.980000E+03	4.126656E-16	3.204201E-17
6.990000E+03	4.231174E-16	3.285141E-17
7.000000E+03	4.340727E-16	3.370017E-17
7.010000E+03	4.454825E-16	3.458457E-17
7.020000E+03	4.573241E-16	3.550294E-17
7.030000E+03	4.695705E-16	3.645328E-17
7.040000E+03	4.821974E-16	3.743382E-17
7.050000E+03	4.951741E-16	3.844233E-17
7.060000E+03	5.084985E-16	3.947876E-17
7.070000E+03	5.221235E-16	4.053964E-17
7.080000E+03	5.360574E-16	4.162578E-17
7.090000E+03	5.502596E-16	4.273422E-17
7.100000E+03	5.647053E-16	4.386323E-17
7.110000E+03	5.793761E-16	4.501162E-17
7.120000E+03	5.942276E-16	4.617618E-17
7.130000E+03	6.092191E-16	4.735403E-17
7.140000E+03	6.243147E-16	4.854264E-17
7.150000E+03	6.394487E-16	4.973722E-17
7.160000E+03	6.545590E-16	5.093327E-17
7.170000E+03	6.695765E-16	5.212575E-17
7.180000E+03	6.844132E-16	5.330818E-17
7.190000E+03	6.990134E-16	5.447660E-17
7.200000E+03	7.132804E-16	5.562386E-17
7.210000E+03	7.271140E-16	5.674255E-17
7.220000E+03	7.404401E-16	5.782730E-17
7.230000E+03	7.531595E-16	5.887076E-17
7.240000E+03	7.652042E-16	5.986802E-17
7.250000E+03	7.764843E-16	6.081245E-17
7.260000E+03	7.869314E-16	6.169910E-17
7.270000E+03	7.965018E-16	6.252491E-17
7.280000E+03	8.051343E-16	6.328544E-17
7.290000E+03	8.127943E-16	6.397831E-17
7.300000E+03	8.194610E-16	6.460216E-17
7.310000E+03	8.251123E-16	6.515550E-17
7.320000E+03	8.297858E-16	6.564149E-17
7.330000E+03	8.334712E-16	6.605944E-17
7.340000E+03	8.362321E-16	6.641443E-17
7.350000E+03	8.380651E-16	6.670615E-17
7.360000E+03	8.390691E-16	6.694236E-17
7.370000E+03	8.392559E-16	6.712377E-17
7.380000E+03	8.387352E-16	6.725887E-17
7.390000E+03	8.375248E-16	6.734867E-17
7.400000E+03	8.357197E-16	6.740035E-17
7.410000E+03	8.333657E-16	6.741705E-17
7.420000E+03	8.305349E-16	6.740397E-17
7.430000E+03	8.272469E-16	6.736204E-17
7.440000E+03	8.235773E-16	6.729664E-17
7.450000E+03	8.195479E-16	6.720879E-17
7.460000E+03	8.151896E-16	6.710018E-17
7.470000E+03	8.105281E-16	6.697202E-17
7.480000E+03	8.055842E-16	6.682515E-17
7.490000E+03	8.003762E-16	6.666012E-17
7.500000E+03	7.949212E-16	6.647737E-17
7.510000E+03	7.892369E-16	6.627739E-17
7.520000E+03	7.833429E-16	6.606080E-17
7.530000E+03	7.772622E-16	6.582853E-17
7.540000E+03	7.710070E-16	6.558060E-17
7.550000E+03	7.646382E-16	6.532115E-17
7.560000E+03	7.581620E-16	6.504978E-17
7.570000E+03	7.516460E-16	6.477134E-17
7.580000E+03	7.451026E-16	6.448603E-17
7.590000E+03	7.385874E-16	6.419787E-17
7.600000E+03	7.321403E-16	6.390959E-17
7.610000E+03	7.257975E-16	6.362374E-17
7.620000E+03	7.195758E-16	6.334125E-17
7.630000E+03	7.135258E-16	6.306613E-17
7.640000E+03	7.076336E-16	6.279678E-17
7.650000E+03	7.019156E-16	6.253439E-17
7.660000E+03	6.963628E-16	6.227795E-17
7.670000E+03	6.909539E-16	6.202540E-17
7.680000E+03	6.856424E-16	6.177246E-17
7.690000E+03	6.804099E-16	6.151738E-17
7.700000E+03	6.751750E-16	6.125273E-17
7.710000E+03	6.698872E-16	6.097388E-17
7.720000E+03	6.644764E-16	6.067437E-17
7.730000E+03	6.588555E-16	6.034619E-17
7.740000E+03	6.529751E-16	5.998474E-17
7.750000E+03	6.467360E-16	5.958083E-17
7.760000E+03	6.400820E-16	5.912921E-17
