#wls	flux	fluxerr
1.600000E+03	2.033618E-16	1.218673E-16
1.640000E+03	1.988808E-16	1.157634E-16
1.680000E+03	1.945596E-16	1.099325E-16
1.720000E+03	1.904687E-16	1.044087E-16
1.760000E+03	1.865731E-16	9.916503E-17
1.800000E+03	1.828730E-16	9.419404E-17
1.840000E+03	1.794001E-16	8.950338E-17
1.880000E+03	1.761524E-16	8.508171E-17
1.920000E+03	1.731284E-16	8.091731E-17
1.960000E+03	1.703271E-16	7.699816E-17
2.000000E+03	1.677765E-16	7.332443E-17
2.040000E+03	1.654470E-16	6.986997E-17
2.080000E+03	1.633669E-16	6.663385E-17
2.120000E+03	1.615363E-16	6.360263E-17
2.160000E+03	1.599827E-16	6.077385E-17
2.200000E+03	1.586811E-16	5.812546E-17
2.240000E+03	1.576860E-16	5.566633E-17
2.280000E+03	1.569750E-16	5.337851E-17
2.320000E+03	1.565783E-16	5.126516E-17
2.360000E+03	1.565262E-16	4.933132E-17
2.400000E+03	1.568023E-16	4.757015E-17
2.440000E+03	1.574641E-16	4.600141E-17
2.480000E+03	1.584991E-16	4.462685E-17
2.520000E+03	1.599672E-16	4.347235E-17
2.560000E+03	1.619061E-16	4.255840E-17
2.600000E+03	1.643092E-16	4.189312E-17
2.640000E+03	1.672212E-16	4.149054E-17
2.680000E+03	1.707421E-16	4.135897E-17
2.720000E+03	1.748677E-16	4.146200E-17
2.760000E+03	1.797152E-16	4.178217E-17
2.800000E+03	1.853398E-16	4.228120E-17
2.840000E+03	1.918745E-16	4.293485E-17
2.880000E+03	1.993460E-16	4.369214E-17
2.920000E+03	2.079569E-16	4.453874E-17
2.960000E+03	2.177834E-16	4.542980E-17
3.000000E+03	2.289883E-16	4.633672E-17
3.010000E+03	2.320440E-16	4.656630E-17
3.020000E+03	2.351887E-16	4.679236E-17
3.030000E+03	2.384246E-16	4.701434E-17
3.040000E+03	2.417791E-16	4.723664E-17
3.050000E+03	2.452549E-16	4.745865E-17
3.060000E+03	2.488293E-16	4.767494E-17
3.070000E+03	2.525305E-16	4.788985E-17
3.080000E+03	2.563613E-16	4.810285E-17
3.090000E+03	2.602990E-16	4.830857E-17
3.100000E+03	2.643722E-16	4.851138E-17
3.110000E+03	2.685842E-16	4.871077E-17
3.120000E+03	2.729119E-16	4.890154E-17
3.130000E+03	2.774114E-16	4.909276E-17
3.140000E+03	2.820330E-16	4.927457E-17
3.150000E+03	2.868069E-16	4.945135E-17
3.160000E+03	2.917639E-16	4.962741E-17
3.170000E+03	2.968535E-16	4.979317E-17
3.180000E+03	3.021066E-16	4.995309E-17
3.190000E+03	3.075550E-16	5.011155E-17
3.200000E+03	3.131472E-16	5.025934E-17
3.210000E+03	3.189432E-16	5.040551E-17
3.220000E+03	3.249194E-16	5.054558E-17
3.230000E+03	3.310801E-16	5.067973E-17
3.240000E+03	3.374587E-16	5.081262E-17
3.250000E+03	3.440311E-16	5.094018E-17
3.260000E+03	3.508017E-16	5.106292E-17
3.270000E+03	3.578052E-16	5.118578E-17
3.280000E+03	3.650469E-16	5.130945E-17
3.290000E+03	3.725020E-16	5.143058E-17
3.300000E+03	3.801753E-16	5.155030E-17
3.310000E+03	3.881028E-16	5.167405E-17
3.320000E+03	3.962903E-16	5.180323E-17
3.330000E+03	4.047437E-16	5.193945E-17
3.340000E+03	4.134689E-16	5.208452E-17
3.350000E+03	4.224398E-16	5.223648E-17
3.360000E+03	4.317268E-16	5.240560E-17
3.370000E+03	4.412710E-16	5.258641E-17
3.380000E+03	4.511442E-16	5.278950E-17
3.390000E+03	4.612864E-16	5.300996E-17
3.400000E+03	4.717708E-16	5.325867E-17
3.410000E+03	4.825702E-16	5.353503E-17
3.420000E+03	4.937255E-16	5.384626E-17
3.430000E+03	5.052089E-16	5.419208E-17
3.440000E+03	5.170261E-16	5.457607E-17
3.450000E+03	5.292189E-16	5.500550E-17
3.460000E+03	5.417576E-16	5.548004E-17
3.470000E+03	5.546839E-16	5.600655E-17
3.480000E+03	5.680039E-16	5.658787E-17
3.490000E+03	5.817228E-16	5.722637E-17
3.500000E+03	5.958075E-16	5.792027E-17
3.510000E+03	6.102993E-16	5.867472E-17
3.520000E+03	6.252404E-16	5.949440E-17
3.530000E+03	6.405567E-16	6.037247E-17
3.540000E+03	6.563282E-16	6.131650E-17
3.550000E+03	6.725178E-16	6.232257E-17
3.560000E+03	6.891258E-16	6.339009E-17
3.570000E+03	7.061933E-16	6.452193E-17
3.580000E+03	7.236789E-16	6.571315E-17
3.590000E+03	7.415806E-16	6.696226E-17
3.600000E+03	7.599376E-16	6.827133E-17
3.610000E+03	7.787470E-16	6.963841E-17
3.620000E+03	7.980049E-16	7.106136E-17
3.630000E+03	8.176622E-16	7.253394E-17
3.640000E+03	8.377995E-16	7.406133E-17
3.650000E+03	8.583205E-16	7.563301E-17
3.660000E+03	8.793048E-16	7.725391E-17
3.670000E+03	9.006510E-16	7.891303E-17
3.680000E+03	9.224370E-16	8.061508E-17
3.690000E+03	9.446490E-16	8.235671E-17
3.700000E+03	9.672239E-16	8.413032E-17
3.710000E+03	9.901421E-16	8.593211E-17
3.720000E+03	1.013429E-15	8.776223E-17
3.730000E+03	1.037011E-15	8.961239E-17
3.740000E+03	1.060910E-15	9.148238E-17
3.750000E+03	1.085092E-15	9.336763E-17
3.760000E+03	1.109523E-15	9.526330E-17
3.770000E+03	1.134163E-15	9.716431E-17
3.780000E+03	1.158965E-15	9.906527E-17
3.790000E+03	1.183879E-15	1.009605E-16
3.800000E+03	1.208848E-15	1.028440E-16
3.810000E+03	1.233811E-15	1.047094E-16
3.820000E+03	1.258749E-15	1.065546E-16
3.830000E+03	1.283536E-15	1.083681E-16
3.840000E+03	1.308143E-15	1.101472E-16
3.850000E+03	1.332379E-15	1.118756E-16
3.860000E+03	1.356307E-15	1.135586E-16
3.870000E+03	1.379727E-15	1.151797E-16
3.880000E+03	1.402589E-15	1.167351E-16
3.890000E+03	1.424740E-15	1.182124E-16
3.900000E+03	1.446126E-15	1.196080E-16
3.910000E+03	1.466644E-15	1.209139E-16
3.920000E+03	1.486194E-15	1.221226E-16
3.930000E+03	1.504628E-15	1.232225E-16
3.940000E+03	1.521909E-15	1.242113E-16
3.950000E+03	1.537957E-15	1.250830E-16
3.960000E+03	1.552703E-15	1.258324E-16
3.970000E+03	1.566090E-15	1.264551E-16
3.980000E+03	1.578027E-15	1.269438E-16
3.990000E+03	1.588537E-15	1.273005E-16
4.000000E+03	1.597611E-15	1.275240E-16
4.010000E+03	1.605258E-15	1.276145E-16
4.020000E+03	1.611502E-15	1.275734E-16
4.030000E+03	1.616336E-15	1.273995E-16
4.040000E+03	1.619868E-15	1.271002E-16
4.050000E+03	1.622122E-15	1.266767E-16
4.060000E+03	1.623187E-15	1.261349E-16
4.070000E+03	1.623205E-15	1.254851E-16
4.080000E+03	1.622283E-15	1.247344E-16
4.090000E+03	1.620444E-15	1.238840E-16
4.100000E+03	1.617854E-15	1.229459E-16
4.110000E+03	1.614633E-15	1.219290E-16
4.120000E+03	1.610903E-15	1.208421E-16
4.130000E+03	1.606743E-15	1.196915E-16
4.140000E+03	1.602312E-15	1.184895E-16
4.150000E+03	1.597684E-15	1.172422E-16
4.160000E+03	1.592927E-15	1.159561E-16
4.170000E+03	1.588223E-15	1.146462E-16
4.180000E+03	1.583588E-15	1.133161E-16
4.190000E+03	1.579113E-15	1.119753E-16
4.200000E+03	1.574843E-15	1.106307E-16
4.210000E+03	1.570928E-15	1.092973E-16
4.220000E+03	1.567363E-15	1.079802E-16
4.230000E+03	1.564214E-15	1.066901E-16
4.240000E+03	1.561540E-15	1.054385E-16
4.250000E+03	1.559363E-15	1.042352E-16
4.260000E+03	1.557737E-15	1.030933E-16
4.270000E+03	1.556679E-15	1.020247E-16
4.280000E+03	1.556274E-15	1.010466E-16
4.290000E+03	1.556537E-15	1.001728E-16
4.300000E+03	1.557520E-15	9.942021E-17
4.310000E+03	1.559209E-15	9.880220E-17
4.320000E+03	1.561722E-15	9.834042E-17
4.330000E+03	1.565022E-15	9.804628E-17
4.340000E+03	1.569230E-15	9.793990E-17
4.350000E+03	1.574349E-15	9.803182E-17
4.360000E+03	1.580449E-15	9.833368E-17
4.370000E+03	1.587604E-15	9.885344E-17
4.380000E+03	1.595866E-15	9.959287E-17
4.390000E+03	1.605315E-15	1.005519E-16
4.400000E+03	1.616004E-15	1.017254E-16
4.410000E+03	1.628009E-15	1.031080E-16
4.420000E+03	1.641395E-15	1.046923E-16
4.430000E+03	1.656188E-15	1.064678E-16
4.440000E+03	1.672455E-15	1.084268E-16
4.450000E+03	1.690125E-15	1.105533E-16
4.460000E+03	1.709252E-15	1.128398E-16
4.470000E+03	1.729774E-15	1.152724E-16
4.480000E+03	1.751633E-15	1.178379E-16
4.490000E+03	1.774678E-15	1.205179E-16
4.500000E+03	1.798845E-15	1.233004E-16
4.510000E+03	1.823948E-15	1.261658E-16
4.520000E+03	1.849765E-15	1.290925E-16
4.530000E+03	1.876069E-15	1.320587E-16
4.540000E+03	1.902633E-15	1.350431E-16
4.550000E+03	1.929110E-15	1.380158E-16
4.560000E+03	1.955215E-15	1.409517E-16
4.570000E+03	1.980615E-15	1.438220E-16
4.580000E+03	2.004933E-15	1.465949E-16
4.590000E+03	2.027814E-15	1.492401E-16
4.600000E+03	2.048909E-15	1.517276E-16
4.610000E+03	2.067910E-15	1.540307E-16
4.620000E+03	2.084470E-15	1.561197E-16
4.630000E+03	2.098273E-15	1.579674E-16
4.640000E+03	2.109139E-15	1.595567E-16
4.650000E+03	2.116808E-15	1.608650E-16
4.660000E+03	2.121172E-15	1.618813E-16
4.670000E+03	2.122148E-15	1.625969E-16
4.680000E+03	2.119717E-15	1.630082E-16
4.690000E+03	2.113890E-15	1.631147E-16
4.700000E+03	2.104830E-15	1.629276E-16
4.710000E+03	2.092633E-15	1.624536E-16
4.720000E+03	2.077567E-15	1.617132E-16
4.730000E+03	2.059822E-15	1.607212E-16
4.740000E+03	2.039737E-15	1.595046E-16
4.750000E+03	2.017591E-15	1.580859E-16
4.760000E+03	1.993706E-15	1.564916E-16
4.770000E+03	1.968411E-15	1.547487E-16
4.780000E+03	1.942085E-15	1.528887E-16
4.790000E+03	1.914990E-15	1.509340E-16
4.800000E+03	1.887453E-15	1.489122E-16
4.810000E+03	1.859753E-15	1.468472E-16
4.820000E+03	1.832144E-15	1.447611E-16
4.830000E+03	1.804876E-15	1.426756E-16
4.840000E+03	1.778124E-15	1.406062E-16
4.850000E+03	1.752079E-15	1.385699E-16
4.860000E+03	1.726904E-15	1.365811E-16
4.870000E+03	1.702664E-15	1.346463E-16
4.880000E+03	1.679492E-15	1.327773E-16
4.890000E+03	1.657451E-15	1.309801E-16
4.900000E+03	1.636583E-15	1.292588E-16
4.910000E+03	1.616913E-15	1.276158E-16
4.920000E+03	1.598473E-15	1.260540E-16
4.930000E+03	1.581238E-15	1.245716E-16
4.940000E+03	1.565220E-15	1.231692E-16
4.950000E+03	1.550420E-15	1.218465E-16
4.960000E+03	1.536776E-15	1.205981E-16
4.970000E+03	1.524324E-15	1.194258E-16
4.980000E+03	1.513000E-15	1.183236E-16
4.990000E+03	1.502801E-15	1.172899E-16
5.000000E+03	1.493708E-15	1.163215E-16
5.010000E+03	1.485721E-15	1.154169E-16
5.020000E+03	1.478809E-15	1.145717E-16
5.030000E+03	1.473001E-15	1.137860E-16
5.040000E+03	1.468255E-15	1.130541E-16
5.050000E+03	1.464588E-15	1.123747E-16
5.060000E+03	1.462002E-15	1.117454E-16
5.070000E+03	1.460521E-15	1.111649E-16
5.080000E+03	1.460148E-15	1.106303E-16
5.090000E+03	1.460873E-15	1.101373E-16
5.100000E+03	1.462699E-15	1.096827E-16
5.110000E+03	1.465665E-15	1.092653E-16
5.120000E+03	1.469733E-15	1.088784E-16
5.130000E+03	1.474935E-15	1.085199E-16
5.140000E+03	1.481219E-15	1.081816E-16
5.150000E+03	1.488586E-15	1.078588E-16
5.160000E+03	1.497025E-15	1.075460E-16
5.170000E+03	1.506461E-15	1.072329E-16
5.180000E+03	1.516883E-15	1.069139E-16
5.190000E+03	1.528214E-15	1.065787E-16
5.200000E+03	1.540364E-15	1.062167E-16
5.210000E+03	1.553288E-15	1.058205E-16
5.220000E+03	1.566854E-15	1.053774E-16
5.230000E+03	1.580995E-15	1.048802E-16
5.240000E+03	1.595555E-15	1.043166E-16
5.250000E+03	1.610408E-15	1.036777E-16
5.260000E+03	1.625458E-15	1.029582E-16
5.270000E+03	1.640500E-15	1.021482E-16
5.280000E+03	1.655427E-15	1.012461E-16
5.290000E+03	1.670064E-15	1.002490E-16
5.300000E+03	1.684278E-15	9.915998E-17
5.310000E+03	1.697873E-15	9.798194E-17
5.320000E+03	1.710697E-15	9.672463E-17
5.330000E+03	1.722648E-15	9.540481E-17
5.340000E+03	1.733523E-15	9.403845E-17
5.350000E+03	1.743239E-15	9.265260E-17
5.360000E+03	1.751658E-15	9.127592E-17
5.370000E+03	1.758680E-15	8.994285E-17
5.380000E+03	1.764196E-15	8.869035E-17
5.390000E+03	1.768179E-15	8.756062E-17
5.400000E+03	1.770510E-15	8.659022E-17
5.410000E+03	1.771191E-15	8.581775E-17
5.420000E+03	1.770174E-15	8.527200E-17
5.430000E+03	1.767445E-15	8.497285E-17
5.440000E+03	1.762998E-15	8.492669E-17
5.450000E+03	1.756836E-15	8.512349E-17
5.460000E+03	1.748972E-15	8.553996E-17
5.470000E+03	1.739413E-15	8.614223E-17
5.480000E+03	1.728245E-15	8.689349E-17
5.490000E+03	1.715488E-15	8.775024E-17
5.500000E+03	1.701246E-15	8.867253E-17
5.510000E+03	1.685621E-15	8.962220E-17
5.520000E+03	1.668737E-15	9.056550E-17
5.530000E+03	1.650738E-15	9.147407E-17
5.540000E+03	1.631804E-15	9.232653E-17
5.550000E+03	1.612091E-15	9.310524E-17
5.560000E+03	1.591788E-15	9.379938E-17
5.570000E+03	1.571115E-15	9.440456E-17
5.580000E+03	1.550276E-15	9.492007E-17
5.590000E+03	1.529498E-15	9.535051E-17
5.600000E+03	1.508952E-15	9.570050E-17
5.610000E+03	1.488899E-15	9.598324E-17
5.620000E+03	1.469500E-15	9.620834E-17
5.630000E+03	1.450961E-15	9.639041E-17
5.640000E+03	1.433457E-15	9.654385E-17
5.650000E+03	1.417168E-15	9.668463E-17
5.660000E+03	1.402220E-15	9.682634E-17
5.670000E+03	1.388757E-15	9.698438E-17
5.680000E+03	1.376900E-15	9.717332E-17
5.690000E+03	1.366717E-15	9.740419E-17
5.700000E+03	1.358271E-15	9.768774E-17
5.710000E+03	1.351619E-15	9.803425E-17
5.720000E+03	1.346777E-15	9.845095E-17
5.730000E+03	1.343737E-15	9.894310E-17
5.740000E+03	1.342468E-15	9.951381E-17
5.750000E+03	1.342929E-15	1.001653E-16
5.760000E+03	1.345024E-15	1.008950E-16
5.770000E+03	1.348649E-15	1.016994E-16
5.780000E+03	1.353690E-15	1.025739E-16
5.790000E+03	1.360014E-15	1.035119E-16
5.800000E+03	1.367397E-15	1.044996E-16
5.810000E+03	1.375696E-15	1.055288E-16
5.820000E+03	1.384684E-15	1.065845E-16
5.830000E+03	1.394136E-15	1.076517E-16
5.840000E+03	1.403817E-15	1.087140E-16
5.850000E+03	1.413485E-15	1.097544E-16
5.860000E+03	1.422896E-15	1.107555E-16
5.870000E+03	1.431812E-15	1.116997E-16
5.880000E+03	1.440003E-15	1.125704E-16
5.890000E+03	1.447271E-15	1.133531E-16
5.900000E+03	1.453388E-15	1.140307E-16
5.910000E+03	1.458202E-15	1.145920E-16
5.920000E+03	1.461575E-15	1.150270E-16
5.930000E+03	1.463402E-15	1.153280E-16
5.940000E+03	1.463595E-15	1.154886E-16
5.950000E+03	1.462138E-15	1.155080E-16
5.960000E+03	1.459034E-15	1.153872E-16
5.970000E+03	1.454302E-15	1.151280E-16
5.980000E+03	1.448012E-15	1.147366E-16
5.990000E+03	1.440280E-15	1.142224E-16
6.000000E+03	1.431210E-15	1.135944E-16
6.010000E+03	1.420945E-15	1.128640E-16
6.020000E+03	1.409640E-15	1.120443E-16
6.030000E+03	1.397443E-15	1.111472E-16
6.040000E+03	1.384558E-15	1.101895E-16
6.050000E+03	1.371103E-15	1.091809E-16
6.060000E+03	1.357294E-15	1.081388E-16
6.070000E+03	1.343236E-15	1.070722E-16
6.080000E+03	1.329109E-15	1.059956E-16
6.090000E+03	1.315031E-15	1.049188E-16
6.100000E+03	1.301120E-15	1.038515E-16
6.110000E+03	1.287482E-15	1.028023E-16
6.120000E+03	1.274204E-15	1.017787E-16
6.130000E+03	1.261347E-15	1.007857E-16
6.140000E+03	1.248985E-15	9.982955E-17
6.150000E+03	1.237152E-15	9.891304E-17
6.160000E+03	1.225897E-15	9.804047E-17
6.170000E+03	1.215229E-15	9.721272E-17
6.180000E+03	1.205177E-15	9.643242E-17
6.190000E+03	1.195735E-15	9.569904E-17
6.200000E+03	1.186900E-15	9.501276E-17
6.210000E+03	1.178668E-15	9.437325E-17
6.220000E+03	1.171027E-15	9.377982E-17
6.230000E+03	1.163978E-15	9.323263E-17
6.240000E+03	1.157473E-15	9.272799E-17
6.250000E+03	1.151521E-15	9.226674E-17
6.260000E+03	1.146084E-15	9.184591E-17
6.270000E+03	1.141121E-15	9.146233E-17
6.280000E+03	1.136633E-15	9.111610E-17
6.290000E+03	1.132571E-15	9.080352E-17
6.300000E+03	1.128899E-15	9.052174E-17
6.310000E+03	1.125577E-15	9.026753E-17
6.320000E+03	1.122571E-15	9.003836E-17
6.330000E+03	1.119799E-15	8.982774E-17
6.340000E+03	1.117231E-15	8.963326E-17
6.350000E+03	1.114784E-15	8.944839E-17
6.360000E+03	1.112397E-15	8.926829E-17
6.370000E+03	1.109970E-15	8.908510E-17
6.380000E+03	1.107411E-15	8.889144E-17
6.390000E+03	1.104633E-15	8.868045E-17
6.400000E+03	1.101512E-15	8.844232E-17
6.410000E+03	1.097962E-15	8.817023E-17
6.420000E+03	1.093835E-15	8.785231E-17
6.430000E+03	1.089021E-15	8.747993E-17
6.440000E+03	1.083399E-15	8.704330E-17
6.450000E+03	1.076832E-15	8.653162E-17
6.460000E+03	1.069250E-15	8.593919E-17
6.470000E+03	1.060503E-15	8.525406E-17
6.480000E+03	1.050528E-15	8.447105E-17
6.490000E+03	1.039232E-15	8.358280E-17
6.500000E+03	1.026572E-15	8.258575E-17
6.510000E+03	1.012512E-15	8.147693E-17
6.520000E+03	9.970267E-16	8.025421E-17
6.530000E+03	9.801588E-16	7.892084E-17
6.540000E+03	9.619222E-16	7.747782E-17
6.550000E+03	9.424245E-16	7.593361E-17
6.560000E+03	9.217201E-16	7.429238E-17
6.570000E+03	8.999518E-16	7.256545E-17
6.580000E+03	8.772574E-16	7.076367E-17
6.590000E+03	8.537920E-16	6.889932E-17
6.600000E+03	8.297242E-16	6.698576E-17
6.610000E+03	8.052431E-16	6.503803E-17
6.620000E+03	7.805086E-16	6.306883E-17
6.630000E+03	7.557362E-16	6.109536E-17
6.640000E+03	7.310829E-16	5.913014E-17
6.650000E+03	7.067305E-16	5.718769E-17
6.660000E+03	6.828390E-16	5.528086E-17
6.670000E+03	6.595558E-16	5.342145E-17
6.680000E+03	6.370219E-16	5.162082E-17
6.690000E+03	6.153436E-16	4.988755E-17
6.700000E+03	5.946287E-16	4.823033E-17
6.710000E+03	5.749588E-16	4.665581E-17
6.720000E+03	5.563993E-16	4.516933E-17
6.730000E+03	5.390004E-16	4.377502E-17
6.740000E+03	5.227984E-16	4.247588E-17
6.750000E+03	5.078238E-16	4.127449E-17
6.760000E+03	4.940813E-16	4.017132E-17
6.770000E+03	4.815808E-16	3.916728E-17
6.780000E+03	4.703096E-16	3.826147E-17
6.790000E+03	4.602629E-16	3.745357E-17
6.800000E+03	4.514298E-16	3.674284E-17
6.810000E+03	4.437762E-16	3.612661E-17
6.820000E+03	4.372848E-16	3.560357E-17
6.830000E+03	4.319362E-16	3.517227E-17
6.840000E+03	4.276973E-16	3.483010E-17
6.850000E+03	4.245407E-16	3.457493E-17
6.860000E+03	4.224455E-16	3.440514E-17
6.870000E+03	4.213785E-16	3.431813E-17
6.880000E+03	4.213194E-16	3.431233E-17
6.890000E+03	4.222364E-16	3.438522E-17
6.900000E+03	4.241109E-16	3.453537E-17
6.910000E+03	4.269186E-16	3.476088E-17
6.920000E+03	4.306298E-16	3.505940E-17
6.930000E+03	4.352211E-16	3.542910E-17
6.940000E+03	4.406830E-16	3.586929E-17
6.950000E+03	4.469800E-16	3.637714E-17
6.960000E+03	4.540960E-16	3.695144E-17
6.970000E+03	4.620014E-16	3.758986E-17
6.980000E+03	4.706798E-16	3.829116E-17
6.990000E+03	4.801073E-16	3.905350E-17
7.000000E+03	4.902518E-16	3.987437E-17
7.010000E+03	5.010946E-16	4.075237E-17
7.020000E+03	5.126006E-16	4.168479E-17
7.030000E+03	5.247485E-16	4.267005E-17
7.040000E+03	5.374916E-16	4.370451E-17
7.050000E+03	5.508212E-16	4.478767E-17
7.060000E+03	5.646778E-16	4.591489E-17
7.070000E+03	5.790407E-16	4.708476E-17
7.080000E+03	5.938619E-16	4.829364E-17
7.090000E+03	6.090894E-16	4.953763E-17
7.100000E+03	6.246967E-16	5.081495E-17
7.110000E+03	6.406170E-16	5.212058E-17
7.120000E+03	6.568094E-16	5.345168E-17
7.130000E+03	6.732104E-16	5.480365E-17
7.140000E+03	6.897747E-16	5.617340E-17
7.150000E+03	7.064337E-16	5.755608E-17
7.160000E+03	7.231381E-16	5.894850E-17
7.170000E+03	7.398043E-16	6.034472E-17
7.180000E+03	7.563801E-16	6.174154E-17
7.190000E+03	7.728019E-16	6.313490E-17
7.200000E+03	7.889940E-16	6.451988E-17
7.210000E+03	8.049052E-16	6.589369E-17
7.220000E+03	8.204484E-16	6.725073E-17
7.230000E+03	8.355886E-16	6.858976E-17
7.240000E+03	8.502556E-16	6.990681E-17
7.250000E+03	8.643822E-16	7.119821E-17
7.260000E+03	8.779312E-16	7.246285E-17
7.270000E+03	8.908574E-16	7.369903E-17
7.280000E+03	9.030927E-16	7.490319E-17
7.290000E+03	9.146299E-16	7.607681E-17
7.300000E+03	9.254121E-16	7.721716E-17
7.310000E+03	9.354302E-16	7.832547E-17
7.320000E+03	9.446678E-16	7.940218E-17
7.330000E+03	9.530998E-16	8.044686E-17
7.340000E+03	9.607214E-16	8.146053E-17
7.350000E+03	9.675338E-16	8.244443E-17
7.360000E+03	9.735435E-16	8.339994E-17
7.370000E+03	9.787617E-16	8.432852E-17
7.380000E+03	9.832044E-16	8.523159E-17
7.390000E+03	9.868759E-16	8.610916E-17
7.400000E+03	9.898142E-16	8.696372E-17
7.410000E+03	9.920297E-16	8.779489E-17
7.420000E+03	9.935651E-16	8.860472E-17
7.430000E+03	9.944343E-16	8.939225E-17
7.440000E+03	9.946674E-16	9.015753E-17
7.450000E+03	9.943105E-16	9.090172E-17
7.460000E+03	9.933634E-16	9.162142E-17
7.470000E+03	9.918876E-16	9.231857E-17
7.480000E+03	9.898978E-16	9.299056E-17
7.490000E+03	9.874386E-16	9.363739E-17
7.500000E+03	9.845071E-16	9.425447E-17
7.510000E+03	9.811611E-16	9.484284E-17
7.520000E+03	9.774106E-16	9.539901E-17
7.530000E+03	9.732795E-16	9.592079E-17
7.540000E+03	9.688051E-16	9.640746E-17
7.550000E+03	9.639924E-16	9.685519E-17
7.560000E+03	9.588750E-16	9.726317E-17
7.570000E+03	9.534537E-16	9.762750E-17
7.580000E+03	9.477578E-16	9.794736E-17
7.590000E+03	9.417989E-16	9.822040E-17
7.600000E+03	9.355715E-16	9.844274E-17
7.610000E+03	9.290975E-16	9.861361E-17
7.620000E+03	9.223815E-16	9.873072E-17
7.630000E+03	9.154257E-16	9.879181E-17
7.640000E+03	9.082300E-16	9.879467E-17
7.650000E+03	9.007921E-16	9.873709E-17
7.660000E+03	8.931078E-16	9.861697E-17
7.670000E+03	8.851710E-16	9.843225E-17
7.680000E+03	8.769744E-16	9.818098E-17
7.690000E+03	8.685230E-16	9.786290E-17
7.700000E+03	8.597796E-16	9.747323E-17
7.710000E+03	8.507622E-16	9.701364E-17
7.720000E+03	8.414472E-16	9.648138E-17
7.730000E+03	8.318391E-16	9.587707E-17
7.740000E+03	8.219030E-16	9.519709E-17
7.750000E+03	8.116594E-16	9.444434E-17
7.760000E+03	8.010904E-16	9.361756E-17
