#wls	flux	fluxerr
1.600000E+03	1.908805E-16	1.206936E-16
1.640000E+03	1.867842E-16	1.150191E-16
1.680000E+03	1.828628E-16	1.096029E-16
1.720000E+03	1.791174E-16	1.044396E-16
1.760000E+03	1.755489E-16	9.952329E-17
1.800000E+03	1.721880E-16	9.486387E-17
1.840000E+03	1.690044E-16	9.043602E-17
1.880000E+03	1.660276E-16	8.624712E-17
1.920000E+03	1.632570E-16	8.228697E-17
1.960000E+03	1.606923E-16	7.854531E-17
2.000000E+03	1.583339E-16	7.501190E-17
2.040000E+03	1.562086E-16	7.168867E-17
2.080000E+03	1.543164E-16	6.856407E-17
2.120000E+03	1.526580E-16	6.562734E-17
2.160000E+03	1.512352E-16	6.286875E-17
2.200000E+03	1.500750E-16	6.028956E-17
2.240000E+03	1.491801E-16	5.788143E-17
2.280000E+03	1.485544E-16	5.563810E-17
2.320000E+03	1.482266E-16	5.356397E-17
2.360000E+03	1.482027E-16	5.165647E-17
2.400000E+03	1.485129E-16	4.992349E-17
2.440000E+03	1.491660E-16	4.836723E-17
2.480000E+03	1.501949E-16	4.699956E-17
2.520000E+03	1.515904E-16	4.582008E-17
2.560000E+03	1.534333E-16	4.485565E-17
2.600000E+03	1.556988E-16	4.409816E-17
2.640000E+03	1.584754E-16	4.356615E-17
2.680000E+03	1.617930E-16	4.325022E-17
2.720000E+03	1.656884E-16	4.313211E-17
2.760000E+03	1.702488E-16	4.319781E-17
2.800000E+03	1.755475E-16	4.342250E-17
2.840000E+03	1.816440E-16	4.377299E-17
2.880000E+03	1.886507E-16	4.422510E-17
2.920000E+03	1.966685E-16	4.474820E-17
2.960000E+03	2.058109E-16	4.531123E-17
3.000000E+03	2.162509E-16	4.589302E-17
3.010000E+03	2.190708E-16	4.603577E-17
3.020000E+03	2.219739E-16	4.617537E-17
3.030000E+03	2.249858E-16	4.631619E-17
3.040000E+03	2.280850E-16	4.645278E-17
3.050000E+03	2.312976E-16	4.658948E-17
3.060000E+03	2.346020E-16	4.672093E-17
3.070000E+03	2.380247E-16	4.685143E-17
3.080000E+03	2.415439E-16	4.697571E-17
3.090000E+03	2.451865E-16	4.709806E-17
3.100000E+03	2.489305E-16	4.721330E-17
3.110000E+03	2.528033E-16	4.732571E-17
3.120000E+03	2.568078E-16	4.743487E-17
3.130000E+03	2.609219E-16	4.753576E-17
3.140000E+03	2.651734E-16	4.763270E-17
3.150000E+03	2.695657E-16	4.772535E-17
3.160000E+03	2.741019E-16	4.781346E-17
3.170000E+03	2.787594E-16	4.789234E-17
3.180000E+03	2.835672E-16	4.796636E-17
3.190000E+03	2.885288E-16	4.803545E-17
3.200000E+03	2.936744E-16	4.810397E-17
3.210000E+03	2.989545E-16	4.816322E-17
3.220000E+03	3.043992E-16	4.821777E-17
3.230000E+03	3.100124E-16	4.826790E-17
3.240000E+03	3.157978E-16	4.831400E-17
3.250000E+03	3.217594E-16	4.835656E-17
3.260000E+03	3.279292E-16	4.840037E-17
3.270000E+03	3.342555E-16	4.843787E-17
3.280000E+03	3.407988E-16	4.847825E-17
3.290000E+03	3.475352E-16	4.851844E-17
3.300000E+03	3.544982E-16	4.856370E-17
3.310000E+03	3.616341E-16	4.860742E-17
3.320000E+03	3.690357E-16	4.866308E-17
3.330000E+03	3.766192E-16	4.872062E-17
3.340000E+03	3.844793E-16	4.879366E-17
3.350000E+03	3.925306E-16	4.887273E-17
3.360000E+03	4.008698E-16	4.897161E-17
3.370000E+03	4.094410E-16	4.908515E-17
3.380000E+03	4.182808E-16	4.921974E-17
3.390000E+03	4.273632E-16	4.937446E-17
3.400000E+03	4.367254E-16	4.955591E-17
3.410000E+03	4.463736E-16	4.976706E-17
3.420000E+03	4.563468E-16	5.001458E-17
3.430000E+03	4.665525E-16	5.029071E-17
3.440000E+03	4.770955E-16	5.060933E-17
3.450000E+03	4.879493E-16	5.096985E-17
3.460000E+03	4.991543E-16	5.137870E-17
3.470000E+03	5.106484E-16	5.183154E-17
3.480000E+03	5.224715E-16	5.233444E-17
3.490000E+03	5.346652E-16	5.289316E-17
3.500000E+03	5.472004E-16	5.350614E-17
3.510000E+03	5.601190E-16	5.417853E-17
3.520000E+03	5.733909E-16	5.490814E-17
3.530000E+03	5.870211E-16	5.569593E-17
3.540000E+03	6.010520E-16	5.654605E-17
3.550000E+03	6.154893E-16	5.745881E-17
3.560000E+03	6.302998E-16	5.843063E-17
3.570000E+03	6.455261E-16	5.946470E-17
3.580000E+03	6.611724E-16	6.056041E-17
3.590000E+03	6.772427E-16	6.171684E-17
3.600000E+03	6.937000E-16	6.292919E-17
3.610000E+03	7.106268E-16	6.420332E-17
3.620000E+03	7.279440E-16	6.553031E-17
3.630000E+03	7.457345E-16	6.691571E-17
3.640000E+03	7.639574E-16	6.835386E-17
3.650000E+03	7.826119E-16	6.984262E-17
3.660000E+03	8.016957E-16	7.137965E-17
3.670000E+03	8.212487E-16	7.296638E-17
3.680000E+03	8.412233E-16	7.459640E-17
3.690000E+03	8.616128E-16	7.626695E-17
3.700000E+03	8.824533E-16	7.797910E-17
3.710000E+03	9.037350E-16	7.972988E-17
3.720000E+03	9.253999E-16	8.151211E-17
3.730000E+03	9.474777E-16	8.332643E-17
3.740000E+03	9.699028E-16	8.516515E-17
3.750000E+03	9.926984E-16	8.702849E-17
3.760000E+03	1.015837E-15	8.891235E-17
3.770000E+03	1.039287E-15	9.081231E-17
3.780000E+03	1.063010E-15	9.272358E-17
3.790000E+03	1.086962E-15	9.464102E-17
3.800000E+03	1.111092E-15	9.655903E-17
3.810000E+03	1.135343E-15	9.847157E-17
3.820000E+03	1.159597E-15	1.003678E-16
3.830000E+03	1.183882E-15	1.022494E-16
3.840000E+03	1.208117E-15	1.041089E-16
3.850000E+03	1.232110E-15	1.059297E-16
3.860000E+03	1.255868E-15	1.077121E-16
3.870000E+03	1.279182E-15	1.094385E-16
3.880000E+03	1.302100E-15	1.111131E-16
3.890000E+03	1.324351E-15	1.127132E-16
3.900000E+03	1.345923E-15	1.142383E-16
3.910000E+03	1.366647E-15	1.156745E-16
3.920000E+03	1.386405E-15	1.170126E-16
3.930000E+03	1.405140E-15	1.182480E-16
3.940000E+03	1.422639E-15	1.193638E-16
3.950000E+03	1.438965E-15	1.203653E-16
3.960000E+03	1.453876E-15	1.212330E-16
3.970000E+03	1.467406E-15	1.219698E-16
3.980000E+03	1.479450E-15	1.225673E-16
3.990000E+03	1.489974E-15	1.230227E-16
4.000000E+03	1.499012E-15	1.233388E-16
4.010000E+03	1.506470E-15	1.235077E-16
4.020000E+03	1.512473E-15	1.235394E-16
4.030000E+03	1.517016E-15	1.234334E-16
4.040000E+03	1.520116E-15	1.231907E-16
4.050000E+03	1.521953E-15	1.228257E-16
4.060000E+03	1.522528E-15	1.223381E-16
4.070000E+03	1.521998E-15	1.217407E-16
4.080000E+03	1.520482E-15	1.210428E-16
4.090000E+03	1.518063E-15	1.202512E-16
4.100000E+03	1.514916E-15	1.193800E-16
4.110000E+03	1.511085E-15	1.184333E-16
4.120000E+03	1.506789E-15	1.174289E-16
4.130000E+03	1.502152E-15	1.163776E-16
4.140000E+03	1.497168E-15	1.152801E-16
4.150000E+03	1.492076E-15	1.141565E-16
4.160000E+03	1.486897E-15	1.130102E-16
4.170000E+03	1.481766E-15	1.118539E-16
4.180000E+03	1.476726E-15	1.106935E-16
4.190000E+03	1.471815E-15	1.095349E-16
4.200000E+03	1.467174E-15	1.083925E-16
4.210000E+03	1.462783E-15	1.072687E-16
4.220000E+03	1.458730E-15	1.061745E-16
4.230000E+03	1.454985E-15	1.051130E-16
4.240000E+03	1.451659E-15	1.040979E-16
4.250000E+03	1.448716E-15	1.031326E-16
4.260000E+03	1.446230E-15	1.022290E-16
4.270000E+03	1.444200E-15	1.013940E-16
4.280000E+03	1.442666E-15	1.006376E-16
4.290000E+03	1.441640E-15	9.996789E-17
4.300000E+03	1.441204E-15	9.939805E-17
4.310000E+03	1.441380E-15	9.893681E-17
4.320000E+03	1.442202E-15	9.859318E-17
4.330000E+03	1.443805E-15	9.838268E-17
4.340000E+03	1.446174E-15	9.830969E-17
4.350000E+03	1.449462E-15	9.838885E-17
4.360000E+03	1.453703E-15	9.862545E-17
4.370000E+03	1.459031E-15	9.902994E-17
4.380000E+03	1.465526E-15	9.960726E-17
4.390000E+03	1.473299E-15	1.003631E-16
4.400000E+03	1.482434E-15	1.013000E-16
4.410000E+03	1.493068E-15	1.024234E-16
4.420000E+03	1.505246E-15	1.037318E-16
4.430000E+03	1.519120E-15	1.052308E-16
4.440000E+03	1.534709E-15	1.069165E-16
4.450000E+03	1.552072E-15	1.087880E-16
4.460000E+03	1.571247E-15	1.108430E-16
4.470000E+03	1.592277E-15	1.130796E-16
4.480000E+03	1.615049E-15	1.154852E-16
4.490000E+03	1.639569E-15	1.180559E-16
4.500000E+03	1.665711E-15	1.207784E-16
4.510000E+03	1.693338E-15	1.236386E-16
4.520000E+03	1.722267E-15	1.266193E-16
4.530000E+03	1.752236E-15	1.296973E-16
4.540000E+03	1.782997E-15	1.328504E-16
4.550000E+03	1.814195E-15	1.360480E-16
4.560000E+03	1.845427E-15	1.392559E-16
4.570000E+03	1.876350E-15	1.424440E-16
4.580000E+03	1.906493E-15	1.455720E-16
4.590000E+03	1.935361E-15	1.485977E-16
4.600000E+03	1.962514E-15	1.514826E-16
4.610000E+03	1.987447E-15	1.541832E-16
4.620000E+03	2.009707E-15	1.566595E-16
4.630000E+03	2.028906E-15	1.588766E-16
4.640000E+03	2.044634E-15	1.607979E-16
4.650000E+03	2.056610E-15	1.623970E-16
4.660000E+03	2.064523E-15	1.636453E-16
4.670000E+03	2.068279E-15	1.645318E-16
4.680000E+03	2.067738E-15	1.650418E-16
4.690000E+03	2.062983E-15	1.651793E-16
4.700000E+03	2.054086E-15	1.649476E-16
4.710000E+03	2.041203E-15	1.643575E-16
4.720000E+03	2.024664E-15	1.634342E-16
4.730000E+03	2.004765E-15	1.622009E-16
4.740000E+03	1.981918E-15	1.606905E-16
4.750000E+03	1.956477E-15	1.589319E-16
4.760000E+03	1.928944E-15	1.569665E-16
4.770000E+03	1.899739E-15	1.548291E-16
4.780000E+03	1.869334E-15	1.525597E-16
4.790000E+03	1.838130E-15	1.501921E-16
4.800000E+03	1.806531E-15	1.477610E-16
4.810000E+03	1.774963E-15	1.453029E-16
4.820000E+03	1.743705E-15	1.428424E-16
4.830000E+03	1.713074E-15	1.404072E-16
4.840000E+03	1.683319E-15	1.380193E-16
4.850000E+03	1.654645E-15	1.356972E-16
4.860000E+03	1.627240E-15	1.334577E-16
4.870000E+03	1.601201E-15	1.313101E-16
4.880000E+03	1.576616E-15	1.292629E-16
4.890000E+03	1.553563E-15	1.273232E-16
4.900000E+03	1.532090E-15	1.254958E-16
4.910000E+03	1.512128E-15	1.237756E-16
4.920000E+03	1.493747E-15	1.221686E-16
4.930000E+03	1.476845E-15	1.206665E-16
4.940000E+03	1.461417E-15	1.192688E-16
4.950000E+03	1.447385E-15	1.179688E-16
4.960000E+03	1.434710E-15	1.167627E-16
4.970000E+03	1.423307E-15	1.156428E-16
4.980000E+03	1.413157E-15	1.146065E-16
4.990000E+03	1.404181E-15	1.136464E-16
5.000000E+03	1.396307E-15	1.127551E-16
5.010000E+03	1.389550E-15	1.119324E-16
5.020000E+03	1.383813E-15	1.111688E-16
5.030000E+03	1.379107E-15	1.104633E-16
5.040000E+03	1.375413E-15	1.098123E-16
5.050000E+03	1.372717E-15	1.092127E-16
5.060000E+03	1.370997E-15	1.086602E-16
5.070000E+03	1.370274E-15	1.081542E-16
5.080000E+03	1.370573E-15	1.076939E-16
5.090000E+03	1.371865E-15	1.072744E-16
5.100000E+03	1.374201E-15	1.068966E-16
5.110000E+03	1.377571E-15	1.065568E-16
5.120000E+03	1.381984E-15	1.062524E-16
5.130000E+03	1.387444E-15	1.059804E-16
5.140000E+03	1.393969E-15	1.057387E-16
5.150000E+03	1.401530E-15	1.055216E-16
5.160000E+03	1.410107E-15	1.053242E-16
5.170000E+03	1.419692E-15	1.051422E-16
5.180000E+03	1.430244E-15	1.049691E-16
5.190000E+03	1.441690E-15	1.047965E-16
5.200000E+03	1.453961E-15	1.046165E-16
5.210000E+03	1.466976E-15	1.044210E-16
5.220000E+03	1.480662E-15	1.042028E-16
5.230000E+03	1.494909E-15	1.039534E-16
5.240000E+03	1.509554E-15	1.036616E-16
5.250000E+03	1.524504E-15	1.033221E-16
5.260000E+03	1.539590E-15	1.029266E-16
5.270000E+03	1.554658E-15	1.024691E-16
5.280000E+03	1.569566E-15	1.019468E-16
5.290000E+03	1.584100E-15	1.013547E-16
5.300000E+03	1.598110E-15	1.006941E-16
5.310000E+03	1.611422E-15	9.996788E-17
5.320000E+03	1.623868E-15	9.918182E-17
5.330000E+03	1.635280E-15	9.834473E-17
5.340000E+03	1.645503E-15	9.746865E-17
5.350000E+03	1.654367E-15	9.656729E-17
5.360000E+03	1.661762E-15	9.565971E-17
5.370000E+03	1.667546E-15	9.476450E-17
5.380000E+03	1.671640E-15	9.390420E-17
5.390000E+03	1.673940E-15	9.309916E-17
5.400000E+03	1.674380E-15	9.237016E-17
5.410000E+03	1.672938E-15	9.173702E-17
5.420000E+03	1.669566E-15	9.121331E-17
5.430000E+03	1.664255E-15	9.080842E-17
5.440000E+03	1.657017E-15	9.052478E-17
5.450000E+03	1.647901E-15	9.035841E-17
5.460000E+03	1.636929E-15	9.029615E-17
5.470000E+03	1.624140E-15	9.031988E-17
5.480000E+03	1.609658E-15	9.041198E-17
5.490000E+03	1.593583E-15	9.055087E-17
5.500000E+03	1.575986E-15	9.071243E-17
5.510000E+03	1.557044E-15	9.087854E-17
5.520000E+03	1.536885E-15	9.102955E-17
5.530000E+03	1.515697E-15	9.115111E-17
5.540000E+03	1.493619E-15	9.122857E-17
5.550000E+03	1.470904E-15	9.125712E-17
5.560000E+03	1.447715E-15	9.122955E-17
5.570000E+03	1.424284E-15	9.114606E-17
5.580000E+03	1.400808E-15	9.100786E-17
5.590000E+03	1.377545E-15	9.082300E-17
5.600000E+03	1.354678E-15	9.059739E-17
5.610000E+03	1.332460E-15	9.034414E-17
5.620000E+03	1.311084E-15	9.007451E-17
5.630000E+03	1.290751E-15	8.980231E-17
5.640000E+03	1.271669E-15	8.954341E-17
5.650000E+03	1.253997E-15	8.931161E-17
5.660000E+03	1.237911E-15	8.912307E-17
5.670000E+03	1.223552E-15	8.899226E-17
5.680000E+03	1.211042E-15	8.893284E-17
5.690000E+03	1.200481E-15	8.895731E-17
5.700000E+03	1.191964E-15	8.907794E-17
5.710000E+03	1.185512E-15	8.930166E-17
5.720000E+03	1.181188E-15	8.963836E-17
5.730000E+03	1.178995E-15	9.009338E-17
5.740000E+03	1.178894E-15	9.066853E-17
5.750000E+03	1.180851E-15	9.136563E-17
5.760000E+03	1.184787E-15	9.218266E-17
5.770000E+03	1.190591E-15	9.311491E-17
5.780000E+03	1.198126E-15	9.415484E-17
5.790000E+03	1.207222E-15	9.529211E-17
5.800000E+03	1.217677E-15	9.651351E-17
5.810000E+03	1.229264E-15	9.780314E-17
5.820000E+03	1.241726E-15	9.914251E-17
5.830000E+03	1.254801E-15	1.005123E-16
5.840000E+03	1.268174E-15	1.018884E-16
5.850000E+03	1.281532E-15	1.032468E-16
5.860000E+03	1.294576E-15	1.045641E-16
5.870000E+03	1.306970E-15	1.058140E-16
5.880000E+03	1.318427E-15	1.069734E-16
5.890000E+03	1.328641E-15	1.080181E-16
5.900000E+03	1.337355E-15	1.089273E-16
5.910000E+03	1.344366E-15	1.096848E-16
5.920000E+03	1.349479E-15	1.102748E-16
5.930000E+03	1.352568E-15	1.106872E-16
5.940000E+03	1.353578E-15	1.109178E-16
5.950000E+03	1.352472E-15	1.109637E-16
5.960000E+03	1.349305E-15	1.108298E-16
5.970000E+03	1.344127E-15	1.105205E-16
5.980000E+03	1.337106E-15	1.100499E-16
5.990000E+03	1.328396E-15	1.094312E-16
6.000000E+03	1.318196E-15	1.086811E-16
6.010000E+03	1.306729E-15	1.078186E-16
6.020000E+03	1.294231E-15	1.068635E-16
6.030000E+03	1.280959E-15	1.058375E-16
6.040000E+03	1.267110E-15	1.047574E-16
6.050000E+03	1.252910E-15	1.036424E-16
6.060000E+03	1.238600E-15	1.025128E-16
6.070000E+03	1.224350E-15	1.013831E-16
6.080000E+03	1.210303E-15	1.002657E-16
6.090000E+03	1.196598E-15	9.917223E-17
6.100000E+03	1.183377E-15	9.811509E-17
6.110000E+03	1.170690E-15	9.709876E-17
6.120000E+03	1.158599E-15	9.612851E-17
6.130000E+03	1.147156E-15	9.520909E-17
6.140000E+03	1.136361E-15	9.434081E-17
6.150000E+03	1.126214E-15	9.352390E-17
6.160000E+03	1.116718E-15	9.275871E-17
6.170000E+03	1.107829E-15	9.204198E-17
6.180000E+03	1.099529E-15	9.137241E-17
6.190000E+03	1.091748E-15	9.074432E-17
6.200000E+03	1.084476E-15	9.015705E-17
6.210000E+03	1.077656E-15	8.960602E-17
6.220000E+03	1.071248E-15	8.908814E-17
6.230000E+03	1.065217E-15	8.860059E-17
6.240000E+03	1.059533E-15	8.814098E-17
6.250000E+03	1.054186E-15	8.770867E-17
6.260000E+03	1.049128E-15	8.729970E-17
6.270000E+03	1.044376E-15	8.691563E-17
6.280000E+03	1.039909E-15	8.655468E-17
6.290000E+03	1.035722E-15	8.621661E-17
6.300000E+03	1.031814E-15	8.590139E-17
6.310000E+03	1.028184E-15	8.560901E-17
6.320000E+03	1.024846E-15	8.534056E-17
6.330000E+03	1.021776E-15	8.509430E-17
6.340000E+03	1.018964E-15	8.486918E-17
6.350000E+03	1.016385E-15	8.466344E-17
6.360000E+03	1.014024E-15	8.447565E-17
6.370000E+03	1.011819E-15	8.430081E-17
6.380000E+03	1.009711E-15	8.413399E-17
6.390000E+03	1.007639E-15	8.397021E-17
6.400000E+03	1.005511E-15	8.380191E-17
6.410000E+03	1.003207E-15	8.361900E-17
6.420000E+03	1.000618E-15	8.341262E-17
6.430000E+03	9.976102E-16	8.317159E-17
6.440000E+03	9.940233E-16	8.288261E-17
6.450000E+03	9.897196E-16	8.253427E-17
6.460000E+03	9.845438E-16	8.211365E-17
6.470000E+03	9.783424E-16	8.160801E-17
6.480000E+03	9.709841E-16	8.100638E-17
6.490000E+03	9.623063E-16	8.029523E-17
6.500000E+03	9.522239E-16	7.946742E-17
6.510000E+03	9.406320E-16	7.851415E-17
6.520000E+03	9.274835E-16	7.743140E-17
6.530000E+03	9.127354E-16	7.621552E-17
6.540000E+03	8.964090E-16	7.486813E-17
6.550000E+03	8.785479E-16	7.339274E-17
6.560000E+03	8.592195E-16	7.179483E-17
6.570000E+03	8.385664E-16	7.008612E-17
6.580000E+03	8.167100E-16	6.827659E-17
6.590000E+03	7.938511E-16	6.638285E-17
6.600000E+03	7.701738E-16	6.442010E-17
6.610000E+03	7.458907E-16	6.240597E-17
6.620000E+03	7.212344E-16	6.035980E-17
6.630000E+03	6.964279E-16	5.830011E-17
6.640000E+03	6.716794E-16	5.624423E-17
6.650000E+03	6.472095E-16	5.421058E-17
6.660000E+03	6.232134E-16	5.221544E-17
6.670000E+03	5.998683E-16	5.027365E-17
6.680000E+03	5.773310E-16	4.839834E-17
6.690000E+03	5.557363E-16	4.660082E-17
6.700000E+03	5.352050E-16	4.489127E-17
6.710000E+03	5.158181E-16	4.327651E-17
6.720000E+03	4.976447E-16	4.176238E-17
6.730000E+03	4.807420E-16	4.035375E-17
6.740000E+03	4.651412E-16	3.905329E-17
6.750000E+03	4.508509E-16	3.786178E-17
6.760000E+03	4.378887E-16	3.678078E-17
6.770000E+03	4.262324E-16	3.580848E-17
6.780000E+03	4.158727E-16	3.494415E-17
6.790000E+03	4.067929E-16	3.418645E-17
6.800000E+03	3.989513E-16	3.353196E-17
6.810000E+03	3.923293E-16	3.297914E-17
6.820000E+03	3.868861E-16	3.252465E-17
6.830000E+03	3.825864E-16	3.216557E-17
6.840000E+03	3.794006E-16	3.189946E-17
6.850000E+03	3.772866E-16	3.172283E-17
6.860000E+03	3.762090E-16	3.163277E-17
6.870000E+03	3.761393E-16	3.162692E-17
6.880000E+03	3.770376E-16	3.170197E-17
6.890000E+03	3.788772E-16	3.185574E-17
6.900000E+03	3.816261E-16	3.208559E-17
6.910000E+03	3.852470E-16	3.238840E-17
6.920000E+03	3.897091E-16	3.276167E-17
6.930000E+03	3.949891E-16	3.320346E-17
6.940000E+03	4.010577E-16	3.371136E-17
6.950000E+03	4.078859E-16	3.428301E-17
6.960000E+03	4.154316E-16	3.491490E-17
6.970000E+03	4.236868E-16	3.560643E-17
6.980000E+03	4.326095E-16	3.635416E-17
6.990000E+03	4.421714E-16	3.715576E-17
7.000000E+03	4.523518E-16	3.800959E-17
7.010000E+03	4.631229E-16	3.891341E-17
7.020000E+03	4.744489E-16	3.986432E-17
7.030000E+03	4.863011E-16	4.086003E-17
7.040000E+03	4.986503E-16	4.189823E-17
7.050000E+03	5.114752E-16	4.297728E-17
7.060000E+03	5.247366E-16	4.409407E-17
7.070000E+03	5.384113E-16	4.524683E-17
7.080000E+03	5.524472E-16	4.643143E-17
7.090000E+03	5.668168E-16	4.764579E-17
7.100000E+03	5.814813E-16	4.888693E-17
7.110000E+03	5.964090E-16	5.015251E-17
7.120000E+03	6.115246E-16	5.143652E-17
7.130000E+03	6.268100E-16	5.273784E-17
7.140000E+03	6.421922E-16	5.405074E-17
7.150000E+03	6.576259E-16	5.537188E-17
7.160000E+03	6.730407E-16	5.669585E-17
7.170000E+03	6.883854E-16	5.801889E-17
7.180000E+03	7.035833E-16	5.933513E-17
7.190000E+03	7.185669E-16	6.063955E-17
7.200000E+03	7.332549E-16	6.192597E-17
7.210000E+03	7.476033E-16	6.319142E-17
7.220000E+03	7.615317E-16	6.442988E-17
7.230000E+03	7.749603E-16	6.563543E-17
7.240000E+03	7.878389E-16	6.680462E-17
7.250000E+03	8.001082E-16	6.793330E-17
7.260000E+03	8.117005E-16	6.901657E-17
7.270000E+03	8.225675E-16	7.005118E-17
7.280000E+03	8.326682E-16	7.103446E-17
7.290000E+03	8.419692E-16	7.196434E-17
7.300000E+03	8.504602E-16	7.284068E-17
7.310000E+03	8.580958E-16	7.366024E-17
7.320000E+03	8.648825E-16	7.442415E-17
7.330000E+03	8.708059E-16	7.513162E-17
7.340000E+03	8.758892E-16	7.578498E-17
7.350000E+03	8.801484E-16	7.638579E-17
7.360000E+03	8.835902E-16	7.693470E-17
7.370000E+03	8.862422E-16	7.743397E-17
7.380000E+03	8.881518E-16	7.788744E-17
7.390000E+03	8.893391E-16	7.829642E-17
7.400000E+03	8.898420E-16	7.866359E-17
7.410000E+03	8.896841E-16	7.899022E-17
7.420000E+03	8.889359E-16	7.928158E-17
7.430000E+03	8.876214E-16	7.953868E-17
7.440000E+03	8.857789E-16	7.976366E-17
7.450000E+03	8.834304E-16	7.995707E-17
7.460000E+03	8.806422E-16	8.012335E-17
7.470000E+03	8.774179E-16	8.026116E-17
7.480000E+03	8.738055E-16	8.037313E-17
7.490000E+03	8.698360E-16	8.046030E-17
7.500000E+03	8.655246E-16	8.052216E-17
7.510000E+03	8.609156E-16	8.056090E-17
7.520000E+03	8.560373E-16	8.057725E-17
7.530000E+03	8.509177E-16	8.057189E-17
7.540000E+03	8.455690E-16	8.054409E-17
7.550000E+03	8.400328E-16	8.049591E-17
7.560000E+03	8.343348E-16	8.042803E-17
7.570000E+03	8.284849E-16	8.033965E-17
7.580000E+03	8.225350E-16	8.023418E-17
7.590000E+03	8.164768E-16	8.010926E-17
7.600000E+03	8.103281E-16	7.996519E-17
7.610000E+03	8.041317E-16	7.980490E-17
7.620000E+03	7.978692E-16	7.962537E-17
7.630000E+03	7.915604E-16	7.942747E-17
7.640000E+03	7.852054E-16	7.921029E-17
7.650000E+03	7.787992E-16	7.897247E-17
7.660000E+03	7.723311E-16	7.871219E-17
7.670000E+03	7.657714E-16	7.842579E-17
7.680000E+03	7.591125E-16	7.811194E-17
7.690000E+03	7.523286E-16	7.776755E-17
7.700000E+03	7.453898E-16	7.738916E-17
7.710000E+03	7.382631E-16	7.697308E-17
7.720000E+03	7.309138E-16	7.651546E-17
7.730000E+03	7.232933E-16	7.601110E-17
7.740000E+03	7.153797E-16	7.545764E-17
7.750000E+03	7.071398E-16	7.485158E-17
7.760000E+03	6.985437E-16	7.418986E-17
