#wls	flux	fluxerr
1.600000E+03	1.289243E-16	1.075843E-16
1.640000E+03	1.264907E-16	1.039139E-16
1.680000E+03	1.241619E-16	1.003812E-16
1.720000E+03	1.219178E-16	9.696727E-17
1.760000E+03	1.197814E-16	9.368750E-17
1.800000E+03	1.177339E-16	9.052405E-17
1.840000E+03	1.157971E-16	8.749083E-17
1.880000E+03	1.139916E-16	8.459930E-17
1.920000E+03	1.122801E-16	8.181776E-17
1.960000E+03	1.107021E-16	7.917132E-17
2.000000E+03	1.092403E-16	7.664305E-17
2.040000E+03	1.078967E-16	7.423025E-17
2.080000E+03	1.066912E-16	7.194190E-17
2.120000E+03	1.056253E-16	6.977399E-17
2.160000E+03	1.047014E-16	6.772268E-17
2.200000E+03	1.039221E-16	6.578421E-17
2.240000E+03	1.032907E-16	6.395497E-17
2.280000E+03	1.028113E-16	6.223140E-17
2.320000E+03	1.025043E-16	6.061937E-17
2.360000E+03	1.023745E-16	5.911441E-17
2.400000E+03	1.024125E-16	5.770344E-17
2.440000E+03	1.026563E-16	5.639980E-17
2.480000E+03	1.031138E-16	5.519820E-17
2.520000E+03	1.037643E-16	5.407753E-17
2.560000E+03	1.046644E-16	5.305676E-17
2.600000E+03	1.058118E-16	5.212209E-17
2.640000E+03	1.072216E-16	5.126760E-17
2.680000E+03	1.089263E-16	5.049399E-17
2.720000E+03	1.109463E-16	4.979403E-17
2.760000E+03	1.133200E-16	4.916674E-17
2.800000E+03	1.160442E-16	4.859082E-17
2.840000E+03	1.191961E-16	4.807726E-17
2.880000E+03	1.227965E-16	4.761042E-17
2.920000E+03	1.269032E-16	4.718703E-17
2.960000E+03	1.315485E-16	4.679168E-17
3.000000E+03	1.368204E-16	4.642658E-17
3.010000E+03	1.382453E-16	4.633945E-17
3.020000E+03	1.397052E-16	4.625039E-17
3.030000E+03	1.412178E-16	4.616480E-17
3.040000E+03	1.427844E-16	4.608250E-17
3.050000E+03	1.443895E-16	4.599794E-17
3.060000E+03	1.460341E-16	4.591107E-17
3.070000E+03	1.477367E-16	4.582717E-17
3.080000E+03	1.494986E-16	4.574609E-17
3.090000E+03	1.513215E-16	4.566770E-17
3.100000E+03	1.531896E-16	4.558669E-17
3.110000E+03	1.551041E-16	4.550304E-17
3.120000E+03	1.570842E-16	4.542192E-17
3.130000E+03	1.591318E-16	4.534324E-17
3.140000E+03	1.612486E-16	4.526695E-17
3.150000E+03	1.634187E-16	4.518798E-17
3.160000E+03	1.656434E-16	4.510642E-17
3.170000E+03	1.679615E-16	4.503227E-17
3.180000E+03	1.703384E-16	4.495563E-17
3.190000E+03	1.727760E-16	4.487667E-17
3.200000E+03	1.753138E-16	4.480523E-17
3.210000E+03	1.779168E-16	4.473173E-17
3.220000E+03	1.805869E-16	4.465641E-17
3.230000E+03	1.833653E-16	4.458900E-17
3.240000E+03	1.862159E-16	4.452024E-17
3.250000E+03	1.891412E-16	4.445048E-17
3.260000E+03	1.921835E-16	4.438936E-17
3.270000E+03	1.953061E-16	4.432794E-17
3.280000E+03	1.985321E-16	4.427126E-17
3.290000E+03	2.018442E-16	4.421524E-17
3.300000E+03	2.052662E-16	4.416494E-17
3.310000E+03	2.088018E-16	4.412090E-17
3.320000E+03	2.124547E-16	4.408371E-17
3.330000E+03	2.162290E-16	4.405400E-17
3.340000E+03	2.201070E-16	4.402813E-17
3.350000E+03	2.241144E-16	4.401127E-17
3.360000E+03	2.282334E-16	4.399994E-17
3.370000E+03	2.325131E-16	4.400365E-17
3.380000E+03	2.369134E-16	4.401474E-17
3.390000E+03	2.414618E-16	4.403851E-17
3.400000E+03	2.461636E-16	4.407601E-17
3.410000E+03	2.510006E-16	4.412416E-17
3.420000E+03	2.560259E-16	4.419249E-17
3.430000E+03	2.611976E-16	4.427385E-17
3.440000E+03	2.665456E-16	4.437368E-17
3.450000E+03	2.720513E-16	4.448915E-17
3.460000E+03	2.777714E-16	4.462980E-17
3.470000E+03	2.836621E-16	4.478879E-17
3.480000E+03	2.897558E-16	4.497161E-17
3.490000E+03	2.960599E-16	4.517964E-17
3.500000E+03	3.025818E-16	4.541429E-17
3.510000E+03	3.093296E-16	4.567699E-17
3.520000E+03	3.162833E-16	4.596511E-17
3.530000E+03	3.234781E-16	4.628412E-17
3.540000E+03	3.309224E-16	4.663540E-17
3.550000E+03	3.386246E-16	4.702036E-17
3.560000E+03	3.465933E-16	4.744034E-17
3.570000E+03	3.548371E-16	4.789667E-17
3.580000E+03	3.633340E-16	4.838657E-17
3.590000E+03	3.721222E-16	4.891533E-17
3.600000E+03	3.812103E-16	4.948415E-17
3.610000E+03	3.906067E-16	5.009415E-17
3.620000E+03	4.003195E-16	5.074642E-17
3.630000E+03	4.103567E-16	5.144194E-17
3.640000E+03	4.206917E-16	5.217740E-17
3.650000E+03	4.313644E-16	5.295780E-17
3.660000E+03	4.423812E-16	5.378383E-17
3.670000E+03	4.537477E-16	5.465611E-17
3.680000E+03	4.654687E-16	5.557511E-17
3.690000E+03	4.775481E-16	5.654115E-17
3.700000E+03	4.899503E-16	5.754994E-17
3.710000E+03	5.027515E-16	5.861034E-17
3.720000E+03	5.158746E-16	5.971315E-17
3.730000E+03	5.293548E-16	6.086238E-17
3.740000E+03	5.431465E-16	6.205265E-17
3.750000E+03	5.573234E-16	6.329225E-17
3.760000E+03	5.718352E-16	6.457527E-17
3.770000E+03	5.866254E-16	6.589520E-17
3.780000E+03	6.017191E-16	6.725474E-17
3.790000E+03	6.170958E-16	6.865148E-17
3.800000E+03	6.326855E-16	7.007748E-17
3.810000E+03	6.485499E-16	7.153948E-17
3.820000E+03	6.645639E-16	7.302350E-17
3.830000E+03	6.807353E-16	7.453033E-17
3.840000E+03	6.970219E-16	7.605517E-17
3.850000E+03	7.133271E-16	7.758739E-17
3.860000E+03	7.296478E-16	7.912652E-17
3.870000E+03	7.459288E-16	8.066639E-17
3.880000E+03	7.621112E-16	8.220047E-17
3.890000E+03	7.780807E-16	8.371622E-17
3.900000E+03	7.938778E-16	8.521777E-17
3.910000E+03	8.092776E-16	8.668072E-17
3.920000E+03	8.243745E-16	8.811490E-17
3.930000E+03	8.389959E-16	8.950148E-17
3.940000E+03	8.531333E-16	9.083922E-17
3.950000E+03	8.666723E-16	9.211549E-17
3.960000E+03	8.796703E-16	9.333595E-17
3.970000E+03	8.919102E-16	9.447706E-17
3.980000E+03	9.035206E-16	9.555195E-17
3.990000E+03	9.143548E-16	9.654456E-17
4.000000E+03	9.243883E-16	9.745179E-17
4.010000E+03	9.336638E-16	9.827766E-17
4.020000E+03	9.421770E-16	9.902116E-17
4.030000E+03	9.498749E-16	9.967630E-17
4.040000E+03	9.567723E-16	1.002442E-16
4.050000E+03	9.629511E-16	1.007331E-16
4.060000E+03	9.684437E-16	1.011462E-16
4.070000E+03	9.732320E-16	1.014812E-16
4.080000E+03	9.773627E-16	1.017430E-16
4.090000E+03	9.809450E-16	1.019429E-16
4.100000E+03	9.839771E-16	1.020807E-16
4.110000E+03	9.865748E-16	1.021687E-16
4.120000E+03	9.887409E-16	1.022073E-16
4.130000E+03	9.905361E-16	1.022031E-16
4.140000E+03	9.920767E-16	1.021687E-16
4.150000E+03	9.933088E-16	1.020989E-16
4.160000E+03	9.944008E-16	1.020118E-16
4.170000E+03	9.954056E-16	1.019133E-16
4.180000E+03	9.962635E-16	1.017980E-16
4.190000E+03	9.971323E-16	1.016831E-16
4.200000E+03	9.980018E-16	1.015683E-16
4.210000E+03	9.988603E-16	1.014535E-16
4.220000E+03	9.998558E-16	1.013547E-16
4.230000E+03	1.001026E-15	1.012768E-16
4.240000E+03	1.002300E-15	1.012139E-16
4.250000E+03	1.003770E-15	1.011764E-16
4.260000E+03	1.005471E-15	1.011693E-16
4.270000E+03	1.007443E-15	1.011978E-16
4.280000E+03	1.009726E-15	1.012673E-16
4.290000E+03	1.012362E-15	1.013834E-16
4.300000E+03	1.015397E-15	1.015521E-16
4.310000E+03	1.018879E-15	1.017797E-16
4.320000E+03	1.022811E-15	1.020677E-16
4.330000E+03	1.027352E-15	1.024333E-16
4.340000E+03	1.032460E-15	1.028733E-16
4.350000E+03	1.038250E-15	1.034004E-16
4.360000E+03	1.044790E-15	1.040219E-16
4.370000E+03	1.052099E-15	1.047401E-16
4.380000E+03	1.060301E-15	1.055675E-16
4.390000E+03	1.069468E-15	1.065110E-16
4.400000E+03	1.079620E-15	1.075722E-16
4.410000E+03	1.090876E-15	1.087625E-16
4.420000E+03	1.103300E-15	1.100875E-16
4.430000E+03	1.116895E-15	1.115467E-16
4.440000E+03	1.131706E-15	1.131438E-16
4.450000E+03	1.147817E-15	1.148868E-16
4.460000E+03	1.165247E-15	1.167766E-16
4.470000E+03	1.183941E-15	1.188073E-16
4.480000E+03	1.203878E-15	1.209759E-16
4.490000E+03	1.225068E-15	1.232830E-16
4.500000E+03	1.247384E-15	1.257151E-16
4.510000E+03	1.270785E-15	1.282675E-16
4.520000E+03	1.295084E-15	1.309208E-16
4.530000E+03	1.320120E-15	1.336580E-16
4.540000E+03	1.345699E-15	1.364589E-16
4.550000E+03	1.371657E-15	1.393060E-16
4.560000E+03	1.397681E-15	1.421667E-16
4.570000E+03	1.423490E-15	1.450114E-16
4.580000E+03	1.448842E-15	1.478146E-16
4.590000E+03	1.473290E-15	1.505296E-16
4.600000E+03	1.496631E-15	1.531342E-16
4.610000E+03	1.518468E-15	1.555866E-16
4.620000E+03	1.538474E-15	1.578519E-16
4.630000E+03	1.556340E-15	1.598969E-16
4.640000E+03	1.571848E-15	1.616975E-16
4.650000E+03	1.584617E-15	1.632132E-16
4.660000E+03	1.594509E-15	1.644279E-16
4.670000E+03	1.601437E-15	1.653313E-16
4.680000E+03	1.605171E-15	1.658978E-16
4.690000E+03	1.605806E-15	1.661361E-16
4.700000E+03	1.603230E-15	1.660331E-16
4.710000E+03	1.597660E-15	1.656100E-16
4.720000E+03	1.589101E-15	1.648660E-16
4.730000E+03	1.577805E-15	1.638267E-16
4.740000E+03	1.564067E-15	1.625217E-16
4.750000E+03	1.548025E-15	1.609646E-16
4.760000E+03	1.530033E-15	1.591920E-16
4.770000E+03	1.510460E-15	1.572419E-16
4.780000E+03	1.489498E-15	1.551342E-16
4.790000E+03	1.467524E-15	1.529080E-16
4.800000E+03	1.444842E-15	1.505953E-16
4.810000E+03	1.421745E-15	1.482269E-16
4.820000E+03	1.398449E-15	1.458255E-16
4.830000E+03	1.375315E-15	1.434292E-16
4.840000E+03	1.352454E-15	1.410501E-16
4.850000E+03	1.330171E-15	1.387203E-16
4.860000E+03	1.308526E-15	1.364467E-16
4.870000E+03	1.287712E-15	1.342497E-16
4.880000E+03	1.267842E-15	1.321416E-16
4.890000E+03	1.249006E-15	1.301320E-16
4.900000E+03	1.231221E-15	1.282232E-16
4.910000E+03	1.214630E-15	1.264303E-16
4.920000E+03	1.199167E-15	1.247464E-16
4.930000E+03	1.184939E-15	1.231828E-16
4.940000E+03	1.171853E-15	1.217301E-16
4.950000E+03	1.159948E-15	1.203920E-16
4.960000E+03	1.149206E-15	1.191666E-16
4.970000E+03	1.139560E-15	1.180468E-16
4.980000E+03	1.131070E-15	1.170387E-16
4.990000E+03	1.123620E-15	1.161297E-16
5.000000E+03	1.117223E-15	1.153209E-16
5.010000E+03	1.111848E-15	1.146086E-16
5.020000E+03	1.107464E-15	1.139893E-16
5.030000E+03	1.104042E-15	1.134593E-16
5.040000E+03	1.101555E-15	1.130153E-16
5.050000E+03	1.099935E-15	1.126498E-16
5.060000E+03	1.099240E-15	1.123681E-16
5.070000E+03	1.099363E-15	1.121587E-16
5.080000E+03	1.100321E-15	1.120227E-16
5.090000E+03	1.102089E-15	1.119570E-16
5.100000E+03	1.104641E-15	1.119583E-16
5.110000E+03	1.107949E-15	1.120231E-16
5.120000E+03	1.111941E-15	1.121435E-16
5.130000E+03	1.116661E-15	1.123237E-16
5.140000E+03	1.121987E-15	1.125507E-16
5.150000E+03	1.127954E-15	1.128278E-16
5.160000E+03	1.134425E-15	1.131409E-16
5.170000E+03	1.141380E-15	1.134879E-16
5.180000E+03	1.148748E-15	1.138616E-16
5.190000E+03	1.156452E-15	1.142546E-16
5.200000E+03	1.164405E-15	1.146586E-16
5.210000E+03	1.172511E-15	1.150646E-16
5.220000E+03	1.180668E-15	1.154634E-16
5.230000E+03	1.188764E-15	1.158452E-16
5.240000E+03	1.196682E-15	1.161999E-16
5.250000E+03	1.204255E-15	1.165132E-16
5.260000E+03	1.211444E-15	1.167831E-16
5.270000E+03	1.218075E-15	1.169956E-16
5.280000E+03	1.223976E-15	1.171367E-16
5.290000E+03	1.229107E-15	1.172059E-16
5.300000E+03	1.233255E-15	1.171865E-16
5.310000E+03	1.236391E-15	1.170795E-16
5.320000E+03	1.238363E-15	1.168747E-16
5.330000E+03	1.239028E-15	1.165629E-16
5.340000E+03	1.238390E-15	1.161491E-16
5.350000E+03	1.236290E-15	1.156228E-16
5.360000E+03	1.232761E-15	1.149918E-16
5.370000E+03	1.227725E-15	1.142530E-16
5.380000E+03	1.221162E-15	1.134086E-16
5.390000E+03	1.213030E-15	1.124584E-16
5.400000E+03	1.203435E-15	1.114151E-16
5.410000E+03	1.192370E-15	1.102804E-16
5.420000E+03	1.179891E-15	1.090605E-16
5.430000E+03	1.166108E-15	1.077660E-16
5.440000E+03	1.151024E-15	1.063958E-16
5.450000E+03	1.134777E-15	1.049608E-16
5.460000E+03	1.117515E-15	1.034712E-16
5.470000E+03	1.099278E-15	1.019267E-16
5.480000E+03	1.080271E-15	1.003418E-16
5.490000E+03	1.060588E-15	9.872048E-17
5.500000E+03	1.040370E-15	9.707070E-17
5.510000E+03	1.019760E-15	9.540102E-17
5.520000E+03	9.989030E-16	9.372041E-17
5.530000E+03	9.779454E-16	9.203828E-17
5.540000E+03	9.570659E-16	9.036753E-17
5.550000E+03	9.363719E-16	8.871486E-17
5.560000E+03	9.160024E-16	8.709043E-17
5.570000E+03	8.960910E-16	8.550445E-17
5.580000E+03	8.767961E-16	8.397000E-17
5.590000E+03	8.581761E-16	8.249112E-17
5.600000E+03	8.404045E-16	8.108333E-17
5.610000E+03	8.235546E-16	7.975300E-17
5.620000E+03	8.077497E-16	7.851171E-17
5.630000E+03	7.930457E-16	7.736488E-17
5.640000E+03	7.795183E-16	7.632012E-17
5.650000E+03	7.672329E-16	7.538433E-17
5.660000E+03	7.562450E-16	7.456362E-17
5.670000E+03	7.466257E-16	7.386586E-17
5.680000E+03	7.383828E-16	7.329279E-17
5.690000E+03	7.315662E-16	7.285043E-17
5.700000E+03	7.261634E-16	7.253865E-17
5.710000E+03	7.221773E-16	7.235886E-17
5.720000E+03	7.195994E-16	7.231138E-17
5.730000E+03	7.184353E-16	7.239787E-17
5.740000E+03	7.186275E-16	7.261366E-17
5.750000E+03	7.201571E-16	7.295785E-17
5.760000E+03	7.229413E-16	7.342303E-17
5.770000E+03	7.269086E-16	7.400285E-17
5.780000E+03	7.319993E-16	7.469202E-17
5.790000E+03	7.380879E-16	7.547844E-17
5.800000E+03	7.450857E-16	7.635368E-17
5.810000E+03	7.528382E-16	7.730240E-17
5.820000E+03	7.612027E-16	7.831036E-17
5.830000E+03	7.700515E-16	7.936472E-17
5.840000E+03	7.792203E-16	8.044880E-17
5.850000E+03	7.885092E-16	8.154206E-17
5.860000E+03	7.977405E-16	8.262618E-17
5.870000E+03	8.067636E-16	8.368551E-17
5.880000E+03	8.153750E-16	8.469885E-17
5.890000E+03	8.234352E-16	8.565155E-17
5.900000E+03	8.307592E-16	8.652419E-17
5.910000E+03	8.372361E-16	8.730500E-17
5.920000E+03	8.427464E-16	8.798127E-17
5.930000E+03	8.471636E-16	8.853957E-17
5.940000E+03	8.504168E-16	8.897224E-17
5.950000E+03	8.524923E-16	8.927764E-17
5.960000E+03	8.533747E-16	8.945395E-17
5.970000E+03	8.530449E-16	8.949900E-17
5.980000E+03	8.515700E-16	8.941971E-17
5.990000E+03	8.489793E-16	8.921905E-17
6.000000E+03	8.453820E-16	8.890845E-17
6.010000E+03	8.408730E-16	8.849784E-17
6.020000E+03	8.355286E-16	8.799529E-17
6.030000E+03	8.294923E-16	8.741595E-17
6.040000E+03	8.228515E-16	8.676911E-17
6.050000E+03	8.157812E-16	8.607331E-17
6.060000E+03	8.083064E-16	8.533132E-17
6.070000E+03	8.006201E-16	8.456363E-17
6.080000E+03	7.927617E-16	8.377457E-17
6.090000E+03	7.848467E-16	8.297648E-17
6.100000E+03	7.769223E-16	8.217454E-17
6.110000E+03	7.690804E-16	8.137861E-17
6.120000E+03	7.613728E-16	8.059436E-17
6.130000E+03	7.538132E-16	7.982338E-17
6.140000E+03	7.464862E-16	7.907480E-17
6.150000E+03	7.393326E-16	7.834251E-17
6.160000E+03	7.324457E-16	7.763654E-17
6.170000E+03	7.257793E-16	7.695214E-17
6.180000E+03	7.193870E-16	7.629513E-17
6.190000E+03	7.131884E-16	7.565711E-17
6.200000E+03	7.072560E-16	7.504591E-17
6.210000E+03	7.015319E-16	7.445548E-17
6.220000E+03	6.960345E-16	7.388790E-17
6.230000E+03	6.907571E-16	7.334256E-17
6.240000E+03	6.856937E-16	7.281890E-17
6.250000E+03	6.808396E-16	7.231652E-17
6.260000E+03	6.761669E-16	7.183253E-17
6.270000E+03	6.716983E-16	7.136941E-17
6.280000E+03	6.674324E-16	7.092709E-17
6.290000E+03	6.633442E-16	7.050295E-17
6.300000E+03	6.594807E-16	7.010205E-17
6.310000E+03	6.557912E-16	6.971905E-17
6.320000E+03	6.522952E-16	6.935607E-17
6.330000E+03	6.489850E-16	6.901231E-17
6.340000E+03	6.458487E-16	6.868657E-17
6.350000E+03	6.428696E-16	6.837709E-17
6.360000E+03	6.400250E-16	6.808149E-17
6.370000E+03	6.372624E-16	6.779422E-17
6.380000E+03	6.345691E-16	6.751397E-17
6.390000E+03	6.319251E-16	6.723862E-17
6.400000E+03	6.292331E-16	6.695786E-17
6.410000E+03	6.264588E-16	6.666808E-17
6.420000E+03	6.235384E-16	6.636249E-17
6.430000E+03	6.204028E-16	6.603379E-17
6.440000E+03	6.169564E-16	6.567181E-17
6.450000E+03	6.131696E-16	6.527343E-17
6.460000E+03	6.089443E-16	6.482825E-17
6.470000E+03	6.041852E-16	6.432611E-17
6.480000E+03	5.988687E-16	6.376453E-17
6.490000E+03	5.929110E-16	6.313460E-17
6.500000E+03	5.862386E-16	6.242849E-17
6.510000E+03	5.788558E-16	6.164667E-17
6.520000E+03	5.706935E-16	6.078178E-17
6.530000E+03	5.617640E-16	5.983511E-17
6.540000E+03	5.520947E-16	5.880957E-17
6.550000E+03	5.416685E-16	5.770331E-17
6.560000E+03	5.305677E-16	5.652509E-17
6.570000E+03	5.188101E-16	5.527679E-17
6.580000E+03	5.065080E-16	5.397031E-17
6.590000E+03	4.937086E-16	5.261071E-17
6.600000E+03	4.805459E-16	5.121220E-17
6.610000E+03	4.670873E-16	4.978197E-17
6.620000E+03	4.534775E-16	4.833541E-17
6.630000E+03	4.397926E-16	4.688061E-17
6.640000E+03	4.261760E-16	4.543285E-17
6.650000E+03	4.127168E-16	4.400163E-17
6.660000E+03	3.995005E-16	4.259604E-17
6.670000E+03	3.866506E-16	4.122926E-17
6.680000E+03	3.742354E-16	3.990858E-17
6.690000E+03	3.623290E-16	3.864190E-17
6.700000E+03	3.509952E-16	3.743602E-17
6.710000E+03	3.403002E-16	3.629803E-17
6.720000E+03	3.302613E-16	3.522975E-17
6.730000E+03	3.209255E-16	3.423624E-17
6.740000E+03	3.123297E-16	3.332143E-17
6.750000E+03	3.044671E-16	3.248459E-17
6.760000E+03	2.973715E-16	3.172936E-17
6.770000E+03	2.910243E-16	3.105375E-17
6.780000E+03	2.854475E-16	3.046012E-17
6.790000E+03	2.806253E-16	2.994680E-17
6.800000E+03	2.765499E-16	2.951296E-17
6.810000E+03	2.732217E-16	2.915866E-17
6.820000E+03	2.706076E-16	2.888039E-17
6.830000E+03	2.687048E-16	2.867786E-17
6.840000E+03	2.675095E-16	2.855066E-17
6.850000E+03	2.669861E-16	2.849503E-17
6.860000E+03	2.671401E-16	2.851155E-17
6.870000E+03	2.679454E-16	2.859748E-17
6.880000E+03	2.693866E-16	2.875115E-17
6.890000E+03	2.714474E-16	2.897089E-17
6.900000E+03	2.741118E-16	2.925498E-17
6.910000E+03	2.773737E-16	2.960281E-17
6.920000E+03	2.811948E-16	3.001029E-17
6.930000E+03	2.855680E-16	3.047669E-17
6.940000E+03	2.904861E-16	3.100127E-17
6.950000E+03	2.959189E-16	3.158085E-17
6.960000E+03	3.018462E-16	3.221327E-17
6.970000E+03	3.082467E-16	3.289630E-17
6.980000E+03	3.150978E-16	3.362754E-17
6.990000E+03	3.223755E-16	3.440448E-17
7.000000E+03	3.300545E-16	3.522443E-17
7.010000E+03	3.381079E-16	3.608458E-17
7.020000E+03	3.465209E-16	3.698335E-17
7.030000E+03	3.552366E-16	3.791471E-17
7.040000E+03	3.642505E-16	3.887822E-17
7.050000E+03	3.735154E-16	3.986887E-17
7.060000E+03	3.829805E-16	4.088129E-17
7.070000E+03	3.926380E-16	4.191467E-17
7.080000E+03	4.024337E-16	4.296324E-17
7.090000E+03	4.123257E-16	4.402260E-17
7.100000E+03	4.222703E-16	4.508809E-17
7.110000E+03	4.322217E-16	4.615488E-17
7.120000E+03	4.421324E-16	4.721790E-17
7.130000E+03	4.519530E-16	4.827190E-17
7.140000E+03	4.616326E-16	4.931150E-17
7.150000E+03	4.711193E-16	5.033116E-17
7.160000E+03	4.803603E-16	5.132526E-17
7.170000E+03	4.893027E-16	5.228817E-17
7.180000E+03	4.978939E-16	5.321427E-17
7.190000E+03	5.060823E-16	5.409805E-17
7.200000E+03	5.138177E-16	5.493417E-17
7.210000E+03	5.210527E-16	5.571754E-17
7.220000E+03	5.277428E-16	5.644340E-17
7.230000E+03	5.338474E-16	5.710739E-17
7.240000E+03	5.393304E-16	5.770565E-17
7.250000E+03	5.441392E-16	5.823252E-17
7.260000E+03	5.482921E-16	5.868993E-17
7.270000E+03	5.517486E-16	5.907353E-17
7.280000E+03	5.544739E-16	5.937955E-17
7.290000E+03	5.565066E-16	5.961210E-17
7.300000E+03	5.578031E-16	5.976646E-17
7.310000E+03	5.583930E-16	5.984576E-17
7.320000E+03	5.582899E-16	5.985143E-17
7.330000E+03	5.575134E-16	5.978549E-17
7.340000E+03	5.560882E-16	5.965056E-17
7.350000E+03	5.540436E-16	5.944974E-17
7.360000E+03	5.513907E-16	5.918413E-17
7.370000E+03	5.482109E-16	5.886241E-17
7.380000E+03	5.444983E-16	5.848392E-17
7.390000E+03	5.403162E-16	5.805535E-17
7.400000E+03	5.357061E-16	5.758110E-17
7.410000E+03	5.307099E-16	5.706562E-17
7.420000E+03	5.253477E-16	5.651101E-17
7.430000E+03	5.196821E-16	5.592391E-17
7.440000E+03	5.137527E-16	5.530853E-17
7.450000E+03	5.075975E-16	5.466888E-17
7.460000E+03	5.012527E-16	5.400881E-17
7.470000E+03	4.947321E-16	5.332974E-17
7.480000E+03	4.880888E-16	5.263731E-17
7.490000E+03	4.813527E-16	5.193472E-17
7.500000E+03	4.745518E-16	5.122492E-17
7.510000E+03	4.676926E-16	5.050855E-17
7.520000E+03	4.608185E-16	4.979025E-17
7.530000E+03	4.539511E-16	4.907232E-17
7.540000E+03	4.470913E-16	4.835481E-17
7.550000E+03	4.402756E-16	4.764161E-17
7.560000E+03	4.335191E-16	4.693432E-17
7.570000E+03	4.268170E-16	4.623239E-17
7.580000E+03	4.202157E-16	4.554081E-17
7.590000E+03	4.136882E-16	4.485664E-17
7.600000E+03	4.072410E-16	4.418055E-17
7.610000E+03	4.008949E-16	4.351479E-17
7.620000E+03	3.946505E-16	4.285940E-17
7.630000E+03	3.884898E-16	4.221241E-17
7.640000E+03	3.824410E-16	4.157689E-17
7.650000E+03	3.764493E-16	4.094686E-17
7.660000E+03	3.705534E-16	4.032655E-17
7.670000E+03	3.647107E-16	3.971132E-17
7.680000E+03	3.589087E-16	3.909981E-17
7.690000E+03	3.531633E-16	3.849375E-17
7.700000E+03	3.474138E-16	3.788654E-17
7.710000E+03	3.416886E-16	3.728126E-17
7.720000E+03	3.359416E-16	3.667291E-17
7.730000E+03	3.301711E-16	3.606127E-17
7.740000E+03	3.243472E-16	3.544312E-17
7.750000E+03	3.184697E-16	3.481840E-17
7.760000E+03	3.125122E-16	3.418422E-17
