#wls	flux	fluxerr
1.600000E+03	1.244722E-16	1.062501E-16
1.640000E+03	1.221602E-16	1.027319E-16
1.680000E+03	1.199070E-16	9.930989E-17
1.720000E+03	1.177769E-16	9.603523E-17
1.760000E+03	1.157300E-16	9.287207E-17
1.800000E+03	1.137879E-16	8.983506E-17
1.840000E+03	1.119328E-16	8.690707E-17
1.880000E+03	1.101857E-16	8.410134E-17
1.920000E+03	1.085659E-16	8.142885E-17
1.960000E+03	1.070383E-16	7.885927E-17
2.000000E+03	1.056405E-16	7.641669E-17
2.040000E+03	1.043564E-16	7.408493E-17
2.080000E+03	1.031882E-16	7.186141E-17
2.120000E+03	1.021548E-16	6.975484E-17
2.160000E+03	1.012584E-16	6.776141E-17
2.200000E+03	1.005014E-16	6.587747E-17
2.240000E+03	9.987118E-17	6.408931E-17
2.280000E+03	9.940315E-17	6.241400E-17
2.320000E+03	9.908568E-17	6.083760E-17
2.360000E+03	9.892391E-17	5.935668E-17
2.400000E+03	9.895384E-17	5.798539E-17
2.440000E+03	9.915182E-17	5.670150E-17
2.480000E+03	9.954073E-17	5.550974E-17
2.520000E+03	1.001296E-16	5.440571E-17
2.560000E+03	1.009436E-16	5.339265E-17
2.600000E+03	1.019947E-16	5.246521E-17
2.640000E+03	1.032825E-16	5.161064E-17
2.680000E+03	1.048524E-16	5.083810E-17
2.720000E+03	1.067087E-16	5.013429E-17
2.760000E+03	1.088880E-16	4.949990E-17
2.800000E+03	1.114154E-16	4.892820E-17
2.840000E+03	1.143203E-16	4.841238E-17
2.880000E+03	1.176362E-16	4.794557E-17
2.920000E+03	1.214173E-16	4.752700E-17
2.960000E+03	1.257244E-16	4.715547E-17
3.000000E+03	1.305950E-16	4.681822E-17
3.010000E+03	1.318980E-16	4.673519E-17
3.020000E+03	1.332500E-16	4.665706E-17
3.030000E+03	1.346522E-16	4.658370E-17
3.040000E+03	1.360895E-16	4.650941E-17
3.050000E+03	1.375794E-16	4.643971E-17
3.060000E+03	1.391067E-16	4.636897E-17
3.070000E+03	1.406893E-16	4.630267E-17
3.080000E+03	1.423117E-16	4.623526E-17
3.090000E+03	1.439753E-16	4.616675E-17
3.100000E+03	1.457151E-16	4.610790E-17
3.110000E+03	1.474820E-16	4.604255E-17
3.120000E+03	1.493286E-16	4.598672E-17
3.130000E+03	1.512050E-16	4.592448E-17
3.140000E+03	1.531646E-16	4.587169E-17
3.150000E+03	1.551747E-16	4.581782E-17
3.160000E+03	1.572368E-16	4.576299E-17
3.170000E+03	1.593705E-16	4.571244E-17
3.180000E+03	1.615779E-16	4.566618E-17
3.190000E+03	1.638430E-16	4.561921E-17
3.200000E+03	1.661862E-16	4.557674E-17
3.210000E+03	1.685913E-16	4.553384E-17
3.220000E+03	1.710791E-16	4.549571E-17
3.230000E+03	1.736333E-16	4.545754E-17
3.240000E+03	1.762753E-16	4.542449E-17
3.250000E+03	1.790078E-16	4.539677E-17
3.260000E+03	1.818145E-16	4.536974E-17
3.270000E+03	1.847175E-16	4.534855E-17
3.280000E+03	1.877201E-16	4.533350E-17
3.290000E+03	1.908057E-16	4.532013E-17
3.300000E+03	1.939973E-16	4.531361E-17
3.310000E+03	1.972782E-16	4.530961E-17
3.320000E+03	2.006723E-16	4.531331E-17
3.330000E+03	2.041835E-16	4.532516E-17
3.340000E+03	2.077949E-16	4.534102E-17
3.350000E+03	2.115315E-16	4.536609E-17
3.360000E+03	2.153762E-16	4.539638E-17
3.370000E+03	2.193768E-16	4.544165E-17
3.380000E+03	2.234723E-16	4.548889E-17
3.390000E+03	2.277338E-16	4.555244E-17
3.400000E+03	2.321219E-16	4.562399E-17
3.410000E+03	2.366643E-16	4.570884E-17
3.420000E+03	2.413434E-16	4.580332E-17
3.430000E+03	2.462119E-16	4.591721E-17
3.440000E+03	2.512045E-16	4.603807E-17
3.450000E+03	2.563991E-16	4.618014E-17
3.460000E+03	2.617539E-16	4.633554E-17
3.470000E+03	2.672999E-16	4.650967E-17
3.480000E+03	2.730186E-16	4.669919E-17
3.490000E+03	2.789683E-16	4.691392E-17
3.500000E+03	2.851051E-16	4.714621E-17
3.510000E+03	2.914355E-16	4.739719E-17
3.520000E+03	2.980208E-16	4.767673E-17
3.530000E+03	3.048152E-16	4.797730E-17
3.540000E+03	3.118257E-16	4.830010E-17
3.550000E+03	3.191166E-16	4.865507E-17
3.560000E+03	3.266398E-16	4.903472E-17
3.570000E+03	3.344027E-16	4.944032E-17
3.580000E+03	3.424726E-16	4.988186E-17
3.590000E+03	3.507985E-16	5.035187E-17
3.600000E+03	3.594188E-16	5.085601E-17
3.610000E+03	3.683101E-16	5.139113E-17
3.620000E+03	3.775438E-16	5.196735E-17
3.630000E+03	3.870639E-16	5.257704E-17
3.640000E+03	3.968761E-16	5.322137E-17
3.650000E+03	4.070542E-16	5.391050E-17
3.660000E+03	4.175368E-16	5.463654E-17
3.670000E+03	4.283279E-16	5.540046E-17
3.680000E+03	4.395025E-16	5.621239E-17
3.690000E+03	4.509927E-16	5.706400E-17
3.700000E+03	4.627989E-16	5.795592E-17
3.710000E+03	4.749965E-16	5.889812E-17
3.720000E+03	4.875088E-16	5.988156E-17
3.730000E+03	5.003708E-16	6.091116E-17
3.740000E+03	5.135370E-16	6.198199E-17
3.750000E+03	5.270392E-16	6.309854E-17
3.760000E+03	5.408675E-16	6.426022E-17
3.770000E+03	5.550092E-16	6.546607E-17
3.780000E+03	5.694044E-16	6.670964E-17
3.790000E+03	5.840313E-16	6.798903E-17
3.800000E+03	5.989555E-16	6.931239E-17
3.810000E+03	6.140605E-16	7.066665E-17
3.820000E+03	6.293132E-16	7.204850E-17
3.830000E+03	6.447732E-16	7.346508E-17
3.840000E+03	6.603073E-16	7.490142E-17
3.850000E+03	6.758715E-16	7.635273E-17
3.860000E+03	6.914689E-16	7.781944E-17
3.870000E+03	7.070514E-16	7.929603E-17
3.880000E+03	7.225164E-16	8.077082E-17
3.890000E+03	7.378614E-16	8.224324E-17
3.900000E+03	7.529789E-16	8.370085E-17
3.910000E+03	7.678658E-16	8.514281E-17
3.920000E+03	7.824126E-16	8.655629E-17
3.930000E+03	7.966188E-16	8.794053E-17
3.940000E+03	8.104328E-16	8.928894E-17
3.950000E+03	8.237488E-16	9.058898E-17
3.960000E+03	8.365203E-16	9.183458E-17
3.970000E+03	8.487630E-16	9.302648E-17
3.980000E+03	8.604423E-16	9.415986E-17
3.990000E+03	8.714130E-16	9.521786E-17
4.000000E+03	8.818274E-16	9.621616E-17
4.010000E+03	8.914956E-16	9.713310E-17
4.020000E+03	9.005864E-16	9.798627E-17
4.030000E+03	9.089238E-16	9.875570E-17
4.040000E+03	9.166337E-16	9.945445E-17
4.050000E+03	9.236723E-16	1.000772E-16
4.060000E+03	9.301209E-16	1.006323E-16
4.070000E+03	9.359483E-16	1.011161E-16
4.080000E+03	9.411882E-16	1.015320E-16
4.090000E+03	9.459380E-16	1.018904E-16
4.100000E+03	9.501803E-16	1.021895E-16
4.110000E+03	9.539602E-16	1.024343E-16
4.120000E+03	9.573243E-16	1.026301E-16
4.130000E+03	9.603797E-16	1.027887E-16
4.140000E+03	9.631158E-16	1.029095E-16
4.150000E+03	9.655811E-16	1.029981E-16
4.160000E+03	9.678233E-16	1.030603E-16
4.170000E+03	9.698892E-16	1.031019E-16
4.180000E+03	9.718817E-16	1.031344E-16
4.190000E+03	9.737295E-16	1.031512E-16
4.200000E+03	9.755901E-16	1.031698E-16
4.210000E+03	9.774472E-16	1.031894E-16
4.220000E+03	9.792848E-16	1.032093E-16
4.230000E+03	9.812558E-16	1.032466E-16
4.240000E+03	9.833431E-16	1.033005E-16
4.250000E+03	9.855864E-16	1.033763E-16
4.260000E+03	9.880261E-16	1.034792E-16
4.270000E+03	9.907039E-16	1.036146E-16
4.280000E+03	9.936076E-16	1.037823E-16
4.290000E+03	9.968935E-16	1.039997E-16
4.300000E+03	1.000498E-15	1.042610E-16
4.310000E+03	1.004583E-15	1.045840E-16
4.320000E+03	1.009089E-15	1.049634E-16
4.330000E+03	1.014129E-15	1.054117E-16
4.340000E+03	1.019758E-15	1.059353E-16
4.350000E+03	1.025983E-15	1.065355E-16
4.360000E+03	1.032974E-15	1.072303E-16
4.370000E+03	1.040684E-15	1.080152E-16
4.380000E+03	1.049231E-15	1.089023E-16
4.390000E+03	1.058619E-15	1.098923E-16
4.400000E+03	1.068962E-15	1.109969E-16
4.410000E+03	1.080316E-15	1.122215E-16
4.420000E+03	1.092729E-15	1.135709E-16
4.430000E+03	1.106186E-15	1.150433E-16
4.440000E+03	1.120719E-15	1.166415E-16
4.450000E+03	1.136462E-15	1.183791E-16
4.460000E+03	1.153308E-15	1.202445E-16
4.470000E+03	1.171246E-15	1.222361E-16
4.480000E+03	1.190308E-15	1.243567E-16
4.490000E+03	1.210386E-15	1.265946E-16
4.500000E+03	1.231470E-15	1.289483E-16
4.510000E+03	1.253404E-15	1.314011E-16
4.520000E+03	1.276130E-15	1.339461E-16
4.530000E+03	1.299441E-15	1.365611E-16
4.540000E+03	1.323226E-15	1.392339E-16
4.550000E+03	1.347222E-15	1.419362E-16
4.560000E+03	1.371206E-15	1.446435E-16
4.570000E+03	1.394931E-15	1.473290E-16
4.580000E+03	1.418199E-15	1.499710E-16
4.590000E+03	1.440733E-15	1.525391E-16
4.600000E+03	1.462110E-15	1.549875E-16
4.610000E+03	1.482177E-15	1.572988E-16
4.620000E+03	1.500581E-15	1.594344E-16
4.630000E+03	1.517122E-15	1.613716E-16
4.640000E+03	1.531479E-15	1.630751E-16
4.650000E+03	1.543357E-15	1.645120E-16
4.660000E+03	1.552783E-15	1.656840E-16
4.670000E+03	1.559399E-15	1.665513E-16
4.680000E+03	1.563246E-15	1.671172E-16
4.690000E+03	1.564132E-15	1.673599E-16
4.700000E+03	1.562201E-15	1.672934E-16
4.710000E+03	1.557433E-15	1.669147E-16
4.720000E+03	1.549928E-15	1.662336E-16
4.730000E+03	1.539901E-15	1.652721E-16
4.740000E+03	1.527398E-15	1.640346E-16
4.750000E+03	1.512775E-15	1.625587E-16
4.760000E+03	1.496210E-15	1.608631E-16
4.770000E+03	1.477966E-15	1.589758E-16
4.780000E+03	1.458256E-15	1.569196E-16
4.790000E+03	1.437554E-15	1.547453E-16
4.800000E+03	1.415946E-15	1.524624E-16
4.810000E+03	1.393767E-15	1.501070E-16
4.820000E+03	1.371274E-15	1.477073E-16
4.830000E+03	1.348768E-15	1.452956E-16
4.840000E+03	1.326351E-15	1.428835E-16
4.850000E+03	1.304281E-15	1.404991E-16
4.860000E+03	1.282789E-15	1.381677E-16
4.870000E+03	1.261970E-15	1.358999E-16
4.880000E+03	1.241900E-15	1.337041E-16
4.890000E+03	1.222793E-15	1.316039E-16
4.900000E+03	1.204682E-15	1.296028E-16
4.910000E+03	1.187583E-15	1.277030E-16
4.920000E+03	1.171647E-15	1.259209E-16
4.930000E+03	1.156859E-15	1.242548E-16
4.940000E+03	1.143239E-15	1.227071E-16
4.950000E+03	1.130798E-15	1.212788E-16
4.960000E+03	1.119535E-15	1.199699E-16
4.970000E+03	1.109445E-15	1.187795E-16
4.980000E+03	1.100513E-15	1.177059E-16
4.990000E+03	1.092720E-15	1.167470E-16
5.000000E+03	1.086046E-15	1.158999E-16
5.010000E+03	1.080464E-15	1.151617E-16
5.020000E+03	1.075948E-15	1.145291E-16
5.030000E+03	1.072468E-15	1.139985E-16
5.040000E+03	1.070039E-15	1.135710E-16
5.050000E+03	1.068541E-15	1.132333E-16
5.060000E+03	1.067986E-15	1.129863E-16
5.070000E+03	1.068340E-15	1.128258E-16
5.080000E+03	1.069611E-15	1.127520E-16
5.090000E+03	1.071673E-15	1.127514E-16
5.100000E+03	1.074574E-15	1.128283E-16
5.110000E+03	1.078182E-15	1.129685E-16
5.120000E+03	1.082536E-15	1.131758E-16
5.130000E+03	1.087498E-15	1.134352E-16
5.140000E+03	1.093098E-15	1.137496E-16
5.150000E+03	1.099227E-15	1.141076E-16
5.160000E+03	1.105818E-15	1.145020E-16
5.170000E+03	1.112795E-15	1.149250E-16
5.180000E+03	1.120075E-15	1.153682E-16
5.190000E+03	1.127568E-15	1.158227E-16
5.200000E+03	1.135178E-15	1.162793E-16
5.210000E+03	1.142803E-15	1.167281E-16
5.220000E+03	1.150381E-15	1.171637E-16
5.230000E+03	1.157704E-15	1.175664E-16
5.240000E+03	1.164749E-15	1.179349E-16
5.250000E+03	1.171301E-15	1.182495E-16
5.260000E+03	1.177330E-15	1.185091E-16
5.270000E+03	1.182669E-15	1.186989E-16
5.280000E+03	1.187196E-15	1.188095E-16
5.290000E+03	1.190794E-15	1.188318E-16
5.300000E+03	1.193401E-15	1.187625E-16
5.310000E+03	1.194819E-15	1.185851E-16
5.320000E+03	1.195050E-15	1.183029E-16
5.330000E+03	1.193917E-15	1.179019E-16
5.340000E+03	1.191449E-15	1.173880E-16
5.350000E+03	1.187544E-15	1.167546E-16
5.360000E+03	1.182215E-15	1.160057E-16
5.370000E+03	1.175348E-15	1.151331E-16
5.380000E+03	1.167037E-15	1.141483E-16
5.390000E+03	1.157207E-15	1.130458E-16
5.400000E+03	1.145984E-15	1.118397E-16
5.410000E+03	1.133420E-15	1.105356E-16
5.420000E+03	1.119495E-15	1.091321E-16
5.430000E+03	1.104383E-15	1.076455E-16
5.440000E+03	1.088095E-15	1.060760E-16
5.450000E+03	1.070869E-15	1.044452E-16
5.460000E+03	1.052701E-15	1.027504E-16
5.470000E+03	1.033762E-15	1.010058E-16
5.480000E+03	1.014229E-15	9.922565E-17
5.490000E+03	9.942022E-16	9.741671E-17
5.500000E+03	9.738634E-16	9.559358E-17
5.510000E+03	9.532815E-16	9.375974E-17
5.520000E+03	9.326753E-16	9.193360E-17
5.530000E+03	9.121488E-16	9.012243E-17
5.540000E+03	8.918741E-16	8.834050E-17
5.550000E+03	8.719134E-16	8.659152E-17
5.560000E+03	8.524939E-16	8.489587E-17
5.570000E+03	8.336323E-16	8.325342E-17
5.580000E+03	8.155040E-16	8.168017E-17
5.590000E+03	7.981771E-16	8.018176E-17
5.600000E+03	7.817437E-16	7.876657E-17
5.610000E+03	7.663160E-16	7.744532E-17
5.620000E+03	7.519359E-16	7.622195E-17
5.630000E+03	7.386671E-16	7.510282E-17
5.640000E+03	7.265915E-16	7.409640E-17
5.650000E+03	7.157248E-16	7.320461E-17
5.660000E+03	7.061300E-16	7.243435E-17
5.670000E+03	6.978056E-16	7.178607E-17
5.680000E+03	6.907697E-16	7.126229E-17
5.690000E+03	6.850577E-16	7.086742E-17
5.700000E+03	6.806697E-16	7.060227E-17
5.710000E+03	6.775447E-16	7.046132E-17
5.720000E+03	6.757179E-16	7.044906E-17
5.730000E+03	6.751628E-16	7.056354E-17
5.740000E+03	6.758173E-16	7.079907E-17
5.750000E+03	6.776354E-16	7.115158E-17
5.760000E+03	6.805870E-16	7.161860E-17
5.770000E+03	6.846052E-16	7.219375E-17
5.780000E+03	6.895586E-16	7.286377E-17
5.790000E+03	6.954372E-16	7.362810E-17
5.800000E+03	7.020866E-16	7.447086E-17
5.810000E+03	7.093941E-16	7.538046E-17
5.820000E+03	7.172639E-16	7.634703E-17
5.830000E+03	7.255358E-16	7.735374E-17
5.840000E+03	7.340973E-16	7.838874E-17
5.850000E+03	7.428019E-16	7.943649E-17
5.860000E+03	7.514701E-16	8.047784E-17
5.870000E+03	7.599497E-16	8.149642E-17
5.880000E+03	7.681202E-16	8.247925E-17
5.890000E+03	7.758377E-16	8.341075E-17
5.900000E+03	7.829364E-16	8.427294E-17
5.910000E+03	7.893231E-16	8.505562E-17
5.920000E+03	7.948897E-16	8.574692E-17
5.930000E+03	7.995147E-16	8.633356E-17
5.940000E+03	8.031272E-16	8.680766E-17
5.950000E+03	8.057404E-16	8.717044E-17
5.960000E+03	8.072646E-16	8.741203E-17
5.970000E+03	8.076942E-16	8.753166E-17
5.980000E+03	8.070766E-16	8.753430E-17
5.990000E+03	8.054470E-16	8.742365E-17
6.000000E+03	8.028578E-16	8.720534E-17
6.010000E+03	7.993449E-16	8.688318E-17
6.020000E+03	7.949874E-16	8.646574E-17
6.030000E+03	7.899349E-16	8.596929E-17
6.040000E+03	7.842184E-16	8.539722E-17
6.050000E+03	7.779642E-16	8.476333E-17
6.060000E+03	7.712370E-16	8.407474E-17
6.070000E+03	7.641600E-16	8.334496E-17
6.080000E+03	7.568209E-16	8.258364E-17
6.090000E+03	7.493013E-16	8.179982E-17
6.100000E+03	7.416461E-16	8.099852E-17
6.110000E+03	7.339513E-16	8.019035E-17
6.120000E+03	7.262746E-16	7.938175E-17
6.130000E+03	7.186372E-16	7.857517E-17
6.140000E+03	7.111093E-16	7.777844E-17
6.150000E+03	7.037248E-16	7.699539E-17
6.160000E+03	6.965107E-16	7.622911E-17
6.170000E+03	6.894880E-16	7.548204E-17
6.180000E+03	6.826455E-16	7.475309E-17
6.190000E+03	6.760224E-16	7.404664E-17
6.200000E+03	6.696267E-16	7.336371E-17
6.210000E+03	6.634375E-16	7.270211E-17
6.220000E+03	6.575110E-16	7.206810E-17
6.230000E+03	6.517966E-16	7.145625E-17
6.240000E+03	6.463215E-16	7.086959E-17
6.250000E+03	6.410855E-16	7.030821E-17
6.260000E+03	6.360624E-16	6.976931E-17
6.270000E+03	6.313014E-16	6.925833E-17
6.280000E+03	6.267490E-16	6.876951E-17
6.290000E+03	6.224267E-16	6.830523E-17
6.300000E+03	6.183285E-16	6.786490E-17
6.310000E+03	6.144464E-16	6.744768E-17
6.320000E+03	6.107693E-16	6.705242E-17
6.330000E+03	6.072589E-16	6.667494E-17
6.340000E+03	6.039215E-16	6.631598E-17
6.350000E+03	6.007587E-16	6.597575E-17
6.360000E+03	5.976949E-16	6.564598E-17
6.370000E+03	5.947219E-16	6.532582E-17
6.380000E+03	5.918021E-16	6.501116E-17
6.390000E+03	5.888928E-16	6.469733E-17
6.400000E+03	5.859223E-16	6.437651E-17
6.410000E+03	5.828859E-16	6.404819E-17
6.420000E+03	5.796801E-16	6.370104E-17
6.430000E+03	5.762929E-16	6.333375E-17
6.440000E+03	5.726168E-16	6.293454E-17
6.450000E+03	5.686372E-16	6.250182E-17
6.460000E+03	5.642482E-16	6.202397E-17
6.470000E+03	5.594164E-16	6.149732E-17
6.480000E+03	5.540898E-16	6.091618E-17
6.490000E+03	5.482234E-16	6.027561E-17
6.500000E+03	5.417807E-16	5.957157E-17
6.510000E+03	5.347350E-16	5.880116E-17
6.520000E+03	5.270714E-16	5.796272E-17
6.530000E+03	5.187873E-16	5.705596E-17
6.540000E+03	5.098935E-16	5.608204E-17
6.550000E+03	5.004138E-16	5.504360E-17
6.560000E+03	4.903856E-16	5.394472E-17
6.570000E+03	4.798583E-16	5.279081E-17
6.580000E+03	4.688928E-16	5.158857E-17
6.590000E+03	4.575595E-16	5.034572E-17
6.600000E+03	4.459367E-16	4.907087E-17
6.610000E+03	4.341086E-16	4.777325E-17
6.620000E+03	4.221627E-16	4.646251E-17
6.630000E+03	4.101882E-16	4.514843E-17
6.640000E+03	3.982736E-16	4.384073E-17
6.650000E+03	3.865045E-16	4.254885E-17
6.660000E+03	3.749625E-16	4.128176E-17
6.670000E+03	3.637235E-16	4.004781E-17
6.680000E+03	3.528568E-16	3.885461E-17
6.690000E+03	3.424241E-16	3.770896E-17
6.700000E+03	3.324793E-16	3.661681E-17
6.710000E+03	3.230820E-16	3.558471E-17
6.720000E+03	3.142432E-16	3.461387E-17
6.730000E+03	3.060074E-16	3.370920E-17
6.740000E+03	2.984111E-16	3.287472E-17
6.750000E+03	2.914466E-16	3.210960E-17
6.760000E+03	2.851506E-16	3.141787E-17
6.770000E+03	2.795062E-16	3.079770E-17
6.780000E+03	2.745400E-16	3.025201E-17
6.790000E+03	2.702399E-16	2.977949E-17
6.800000E+03	2.666025E-16	2.937978E-17
6.810000E+03	2.636117E-16	2.905109E-17
6.820000E+03	2.612825E-16	2.879512E-17
6.830000E+03	2.595955E-16	2.860973E-17
6.840000E+03	2.585523E-16	2.849512E-17
6.850000E+03	2.581213E-16	2.844781E-17
6.860000E+03	2.583029E-16	2.846787E-17
6.870000E+03	2.590864E-16	2.855414E-17
6.880000E+03	2.604716E-16	2.870662E-17
6.890000E+03	2.624254E-16	2.892168E-17
6.900000E+03	2.649469E-16	2.919922E-17
6.910000E+03	2.680351E-16	2.953919E-17
6.920000E+03	2.716663E-16	2.993897E-17
6.930000E+03	2.758153E-16	3.039582E-17
6.940000E+03	2.804910E-16	3.091073E-17
6.950000E+03	2.856664E-16	3.148077E-17
6.960000E+03	2.913249E-16	3.210412E-17
6.970000E+03	2.974485E-16	3.277883E-17
6.980000E+03	3.040175E-16	3.350275E-17
6.990000E+03	3.110104E-16	3.427354E-17
7.000000E+03	3.184040E-16	3.508866E-17
7.010000E+03	3.261728E-16	3.594535E-17
7.020000E+03	3.342893E-16	3.684058E-17
7.030000E+03	3.427383E-16	3.777272E-17
7.040000E+03	3.514586E-16	3.873505E-17
7.050000E+03	3.604298E-16	3.972534E-17
7.060000E+03	3.696308E-16	4.074131E-17
7.070000E+03	3.789908E-16	4.177515E-17
7.080000E+03	3.884832E-16	4.282400E-17
7.090000E+03	3.980813E-16	4.388491E-17
7.100000E+03	4.077048E-16	4.494907E-17
7.110000E+03	4.173404E-16	4.601503E-17
7.120000E+03	4.269026E-16	4.707340E-17
7.130000E+03	4.363769E-16	4.812258E-17
7.140000E+03	4.456738E-16	4.915274E-17
7.150000E+03	4.547592E-16	5.016014E-17
7.160000E+03	4.636007E-16	5.114120E-17
7.170000E+03	4.721064E-16	5.208582E-17
7.180000E+03	4.802659E-16	5.299287E-17
7.190000E+03	4.879889E-16	5.385235E-17
7.200000E+03	4.952490E-16	5.466140E-17
7.210000E+03	5.020026E-16	5.541516E-17
7.220000E+03	5.082317E-16	5.611168E-17
7.230000E+03	5.138564E-16	5.674211E-17
7.240000E+03	5.188675E-16	5.730542E-17
7.250000E+03	5.232390E-16	5.779873E-17
7.260000E+03	5.269505E-16	5.821976E-17
7.270000E+03	5.299875E-16	5.856688E-17
7.280000E+03	5.323179E-16	5.883652E-17
7.290000E+03	5.339857E-16	5.903350E-17
7.300000E+03	5.349709E-16	5.915559E-17
7.310000E+03	5.352590E-16	5.920114E-17
7.320000E+03	5.348878E-16	5.917428E-17
7.330000E+03	5.338769E-16	5.907713E-17
7.340000E+03	5.322738E-16	5.891491E-17
7.350000E+03	5.300595E-16	5.868547E-17
7.360000E+03	5.272657E-16	5.839225E-17
7.370000E+03	5.239735E-16	5.804418E-17
7.380000E+03	5.201959E-16	5.764267E-17
7.390000E+03	5.159483E-16	5.718934E-17
7.400000E+03	5.112931E-16	5.669106E-17
7.410000E+03	5.062698E-16	5.615216E-17
7.420000E+03	5.009183E-16	5.557700E-17
7.430000E+03	4.952776E-16	5.496986E-17
7.440000E+03	4.893642E-16	5.433251E-17
7.450000E+03	4.832375E-16	5.367148E-17
7.460000E+03	4.769331E-16	5.299070E-17
7.470000E+03	4.704850E-16	5.229386E-17
7.480000E+03	4.639251E-16	5.158446E-17
7.490000E+03	4.572629E-16	5.086352E-17
7.500000E+03	4.505471E-16	5.013641E-17
7.510000E+03	4.438034E-16	4.940594E-17
7.520000E+03	4.370550E-16	4.867464E-17
7.530000E+03	4.303034E-16	4.794266E-17
7.540000E+03	4.235872E-16	4.721423E-17
7.550000E+03	4.169225E-16	4.649113E-17
7.560000E+03	4.103231E-16	4.577487E-17
7.570000E+03	4.037821E-16	4.506463E-17
7.580000E+03	3.973451E-16	4.436551E-17
7.590000E+03	3.909649E-16	4.367218E-17
7.600000E+03	3.846995E-16	4.299113E-17
7.610000E+03	3.785156E-16	4.231863E-17
7.620000E+03	3.724306E-16	4.165658E-17
7.630000E+03	3.664418E-16	4.100472E-17
7.640000E+03	3.605283E-16	4.036067E-17
7.650000E+03	3.547004E-16	3.972560E-17
7.660000E+03	3.489498E-16	3.909859E-17
7.670000E+03	3.432511E-16	3.847678E-17
7.680000E+03	3.376094E-16	3.786077E-17
7.690000E+03	3.320127E-16	3.724919E-17
7.700000E+03	3.264330E-16	3.663894E-17
7.710000E+03	3.208875E-16	3.603193E-17
7.720000E+03	3.153184E-16	3.542171E-17
7.730000E+03	3.097572E-16	3.481179E-17
7.740000E+03	3.041624E-16	3.419754E-17
7.750000E+03	2.985234E-16	3.357773E-17
7.760000E+03	2.928577E-16	3.295438E-17
