#wls	flux	fluxerr
1.600000E+03	9.993970E-17	9.904967E-17
1.640000E+03	9.831041E-17	9.641554E-17
1.680000E+03	9.674357E-17	9.386200E-17
1.720000E+03	9.524066E-17	9.138901E-17
1.760000E+03	9.380318E-17	8.899645E-17
1.800000E+03	9.241688E-17	8.666925E-17
1.840000E+03	9.111523E-17	8.443716E-17
1.880000E+03	8.988381E-17	8.228450E-17
1.920000E+03	8.872433E-17	8.021077E-17
1.960000E+03	8.765339E-17	7.822859E-17
2.000000E+03	8.664319E-17	7.631062E-17
2.040000E+03	8.572510E-17	7.448215E-17
2.080000E+03	8.488663E-17	7.272931E-17
2.120000E+03	8.414416E-17	7.106311E-17
2.160000E+03	8.348609E-17	6.947037E-17
2.200000E+03	8.292894E-17	6.796142E-17
2.240000E+03	8.246210E-17	6.652374E-17
2.280000E+03	8.208919E-17	6.515652E-17
2.320000E+03	8.184050E-17	6.387949E-17
2.360000E+03	8.169373E-17	6.267022E-17
2.400000E+03	8.166685E-17	6.153773E-17
2.440000E+03	8.176521E-17	6.048051E-17
2.480000E+03	8.199493E-17	5.949716E-17
2.520000E+03	8.235014E-17	5.857722E-17
2.560000E+03	8.286436E-17	5.773781E-17
2.600000E+03	8.353374E-17	5.696842E-17
2.640000E+03	8.436851E-17	5.626789E-17
2.680000E+03	8.539314E-17	5.564352E-17
2.720000E+03	8.659524E-17	5.507739E-17
2.760000E+03	8.801573E-17	5.458514E-17
2.800000E+03	8.965905E-17	5.415748E-17
2.840000E+03	9.155823E-17	5.380135E-17
2.880000E+03	9.373639E-17	5.351549E-17
2.920000E+03	9.620645E-17	5.329109E-17
2.960000E+03	9.899831E-17	5.312717E-17
3.000000E+03	1.021606E-16	5.302998E-17
3.010000E+03	1.030248E-16	5.302169E-17
3.020000E+03	1.038984E-16	5.300867E-17
3.030000E+03	1.048108E-16	5.300565E-17
3.040000E+03	1.057338E-16	5.299791E-17
3.050000E+03	1.066971E-16	5.300009E-17
3.060000E+03	1.076871E-16	5.300481E-17
3.070000E+03	1.087044E-16	5.301207E-17
3.080000E+03	1.097650E-16	5.302906E-17
3.090000E+03	1.108397E-16	5.304128E-17
3.100000E+03	1.119595E-16	5.306314E-17
3.110000E+03	1.131103E-16	5.308737E-17
3.120000E+03	1.142931E-16	5.311393E-17
3.130000E+03	1.155244E-16	5.314994E-17
3.140000E+03	1.167743E-16	5.318104E-17
3.150000E+03	1.180749E-16	5.322146E-17
3.160000E+03	1.193960E-16	5.325691E-17
3.170000E+03	1.207703E-16	5.330154E-17
3.180000E+03	1.221996E-16	5.335525E-17
3.190000E+03	1.236527E-16	5.340383E-17
3.200000E+03	1.251469E-16	5.345430E-17
3.210000E+03	1.267003E-16	5.351361E-17
3.220000E+03	1.282980E-16	5.357463E-17
3.230000E+03	1.299412E-16	5.363727E-17
3.240000E+03	1.316316E-16	5.370146E-17
3.250000E+03	1.333880E-16	5.377408E-17
3.260000E+03	1.351776E-16	5.384106E-17
3.270000E+03	1.370369E-16	5.391624E-17
3.280000E+03	1.389503E-16	5.399254E-17
3.290000E+03	1.409196E-16	5.406983E-17
3.300000E+03	1.429468E-16	5.414800E-17
3.310000E+03	1.450523E-16	5.423383E-17
3.320000E+03	1.472014E-16	5.431335E-17
3.330000E+03	1.494335E-16	5.440022E-17
3.340000E+03	1.517323E-16	5.448740E-17
3.350000E+03	1.541002E-16	5.457471E-17
3.360000E+03	1.565592E-16	5.466886E-17
3.370000E+03	1.590729E-16	5.475594E-17
3.380000E+03	1.616834E-16	5.484950E-17
3.390000E+03	1.643739E-16	5.494248E-17
3.400000E+03	1.671472E-16	5.503471E-17
3.410000E+03	1.700063E-16	5.512599E-17
3.420000E+03	1.729544E-16	5.521611E-17
3.430000E+03	1.760163E-16	5.531167E-17
3.440000E+03	1.791526E-16	5.539887E-17
3.450000E+03	1.824102E-16	5.549108E-17
3.460000E+03	1.857713E-16	5.558129E-17
3.470000E+03	1.892397E-16	5.566931E-17
3.480000E+03	1.928428E-16	5.576166E-17
3.490000E+03	1.965385E-16	5.584467E-17
3.500000E+03	2.003782E-16	5.593160E-17
3.510000E+03	2.043432E-16	5.601554E-17
3.520000E+03	2.084381E-16	5.609632E-17
3.530000E+03	2.126681E-16	5.617381E-17
3.540000E+03	2.170383E-16	5.624786E-17
3.550000E+03	2.215801E-16	5.632502E-17
3.560000E+03	2.262474E-16	5.639193E-17
3.570000E+03	2.310987E-16	5.646183E-17
3.580000E+03	2.361141E-16	5.652808E-17
3.590000E+03	2.412998E-16	5.659076E-17
3.600000E+03	2.466625E-16	5.665000E-17
3.610000E+03	2.522379E-16	5.671253E-17
3.620000E+03	2.579756E-16	5.676552E-17
3.630000E+03	2.639416E-16	5.682243E-17
3.640000E+03	2.701143E-16	5.687716E-17
3.650000E+03	2.765015E-16	5.693030E-17
3.660000E+03	2.831112E-16	5.698257E-17
3.670000E+03	2.899515E-16	5.703479E-17
3.680000E+03	2.970642E-16	5.709442E-17
3.690000E+03	3.043912E-16	5.714973E-17
3.700000E+03	3.120087E-16	5.721491E-17
3.710000E+03	3.198559E-16	5.727869E-17
3.720000E+03	3.280116E-16	5.735558E-17
3.730000E+03	3.364487E-16	5.744111E-17
3.740000E+03	3.452127E-16	5.754378E-17
3.750000E+03	3.542351E-16	5.765320E-17
3.760000E+03	3.635588E-16	5.777825E-17
3.770000E+03	3.732294E-16	5.792795E-17
3.780000E+03	3.831692E-16	5.809245E-17
3.790000E+03	3.934616E-16	5.828732E-17
3.800000E+03	4.040646E-16	5.850914E-17
3.810000E+03	4.149735E-16	5.876080E-17
3.820000E+03	4.261803E-16	5.904504E-17
3.830000E+03	4.376723E-16	5.936433E-17
3.840000E+03	4.494320E-16	5.972078E-17
3.850000E+03	4.614361E-16	6.011600E-17
3.860000E+03	4.737052E-16	6.055734E-17
3.870000E+03	4.861032E-16	6.103218E-17
3.880000E+03	4.986880E-16	6.155262E-17
3.890000E+03	5.113042E-16	6.210399E-17
3.900000E+03	5.239993E-16	6.269640E-17
3.910000E+03	5.366550E-16	6.331939E-17
3.920000E+03	5.491999E-16	6.396785E-17
3.930000E+03	5.615578E-16	6.463565E-17
3.940000E+03	5.736498E-16	6.531579E-17
3.950000E+03	5.853964E-16	6.600061E-17
3.960000E+03	5.967204E-16	6.668207E-17
3.970000E+03	6.075494E-16	6.735208E-17
3.980000E+03	6.178191E-16	6.800286E-17
3.990000E+03	6.275394E-16	6.863427E-17
4.000000E+03	6.365436E-16	6.922633E-17
4.010000E+03	6.448696E-16	6.978120E-17
4.020000E+03	6.525748E-16	7.030272E-17
4.030000E+03	6.595382E-16	7.077530E-17
4.040000E+03	6.658516E-16	7.120624E-17
4.050000E+03	6.716248E-16	7.160465E-17
4.060000E+03	6.767824E-16	7.195987E-17
4.070000E+03	6.815278E-16	7.229110E-17
4.080000E+03	6.858057E-16	7.259009E-17
4.090000E+03	6.898352E-16	7.287785E-17
4.100000E+03	6.935677E-16	7.314726E-17
4.110000E+03	6.972240E-16	7.341973E-17
4.120000E+03	7.007485E-16	7.368778E-17
4.130000E+03	7.043498E-16	7.397187E-17
4.140000E+03	7.079536E-16	7.426290E-17
4.150000E+03	7.117457E-16	7.457927E-17
4.160000E+03	7.156247E-16	7.490941E-17
4.170000E+03	7.197477E-16	7.526901E-17
4.180000E+03	7.239822E-16	7.564359E-17
4.190000E+03	7.283861E-16	7.603877E-17
4.200000E+03	7.330040E-16	7.645886E-17
4.210000E+03	7.376595E-16	7.688523E-17
4.220000E+03	7.423724E-16	7.731986E-17
4.230000E+03	7.470850E-16	7.775666E-17
4.240000E+03	7.518033E-16	7.819628E-17
4.250000E+03	7.563202E-16	7.861719E-17
4.260000E+03	7.606393E-16	7.901984E-17
4.270000E+03	7.646979E-16	7.939778E-17
4.280000E+03	7.684416E-16	7.974538E-17
4.290000E+03	7.717559E-16	8.005082E-17
4.300000E+03	7.747545E-16	8.032589E-17
4.310000E+03	7.773560E-16	8.056213E-17
4.320000E+03	7.794996E-16	8.075321E-17
4.330000E+03	7.813610E-16	8.091726E-17
4.340000E+03	7.828559E-16	8.104547E-17
4.350000E+03	7.841386E-16	8.115372E-17
4.360000E+03	7.853882E-16	8.126040E-17
4.370000E+03	7.865954E-16	8.136444E-17
4.380000E+03	7.879861E-16	8.148902E-17
4.390000E+03	7.896649E-16	8.164475E-17
4.400000E+03	7.919645E-16	8.186583E-17
4.410000E+03	7.950191E-16	8.216587E-17
4.420000E+03	7.989717E-16	8.255936E-17
4.430000E+03	8.041108E-16	8.307580E-17
4.440000E+03	8.107254E-16	8.374473E-17
4.450000E+03	8.188858E-16	8.457306E-17
4.460000E+03	8.288653E-16	8.558869E-17
4.470000E+03	8.407774E-16	8.680303E-17
4.480000E+03	8.549339E-16	8.824796E-17
4.490000E+03	8.713248E-16	8.992220E-17
4.500000E+03	8.902042E-16	9.185182E-17
4.510000E+03	9.114809E-16	9.402727E-17
4.520000E+03	9.352416E-16	9.645748E-17
4.530000E+03	9.614377E-16	9.913751E-17
4.540000E+03	9.898668E-16	1.020466E-16
4.550000E+03	1.020501E-15	1.051822E-16
4.560000E+03	1.052885E-15	1.084978E-16
4.570000E+03	1.086730E-15	1.119640E-16
4.580000E+03	1.121569E-15	1.155330E-16
4.590000E+03	1.156840E-15	1.191478E-16
4.600000E+03	1.191799E-15	1.227320E-16
4.610000E+03	1.225931E-15	1.262334E-16
4.620000E+03	1.258272E-15	1.295530E-16
4.630000E+03	1.288142E-15	1.326214E-16
4.640000E+03	1.314774E-15	1.353600E-16
4.650000E+03	1.337341E-15	1.376841E-16
4.660000E+03	1.355436E-15	1.395518E-16
4.670000E+03	1.368327E-15	1.408879E-16
4.680000E+03	1.375770E-15	1.416672E-16
4.690000E+03	1.377464E-15	1.418585E-16
4.700000E+03	1.373629E-15	1.414841E-16
4.710000E+03	1.364209E-15	1.405377E-16
4.720000E+03	1.349653E-15	1.390650E-16
4.730000E+03	1.330440E-15	1.371143E-16
4.740000E+03	1.307162E-15	1.347459E-16
4.750000E+03	1.280387E-15	1.320172E-16
4.760000E+03	1.250943E-15	1.290124E-16
4.770000E+03	1.219558E-15	1.258057E-16
4.780000E+03	1.186946E-15	1.224695E-16
4.790000E+03	1.153680E-15	1.190622E-16
4.800000E+03	1.120466E-15	1.156560E-16
4.810000E+03	1.087837E-15	1.123053E-16
4.820000E+03	1.056241E-15	1.090560E-16
4.830000E+03	1.025964E-15	1.059375E-16
4.840000E+03	9.974551E-16	1.029963E-16
4.850000E+03	9.706812E-16	1.002293E-16
4.860000E+03	9.460181E-16	9.767557E-17
4.870000E+03	9.234586E-16	9.533493E-17
4.880000E+03	9.029495E-16	9.320245E-17
4.890000E+03	8.845391E-16	9.128376E-17
4.900000E+03	8.681629E-16	8.957279E-17
4.910000E+03	8.536583E-16	8.805342E-17
4.920000E+03	8.409783E-16	8.672135E-17
4.930000E+03	8.299895E-16	8.556333E-17
4.940000E+03	8.205490E-16	8.456503E-17
4.950000E+03	8.124462E-16	8.370504E-17
4.960000E+03	8.056018E-16	8.297534E-17
4.970000E+03	7.998775E-16	8.236174E-17
4.980000E+03	7.951464E-16	8.185107E-17
4.990000E+03	7.912349E-16	8.142521E-17
5.000000E+03	7.881735E-16	8.108695E-17
5.010000E+03	7.857034E-16	8.080925E-17
5.020000E+03	7.839565E-16	8.060517E-17
5.030000E+03	7.827776E-16	8.045826E-17
5.040000E+03	7.822143E-16	8.037294E-17
5.050000E+03	7.822697E-16	8.034908E-17
5.060000E+03	7.829599E-16	8.038802E-17
5.070000E+03	7.842501E-16	8.048594E-17
5.080000E+03	7.862320E-16	8.065216E-17
5.090000E+03	7.889376E-16	8.088996E-17
5.100000E+03	7.923348E-16	8.119618E-17
5.110000E+03	7.965679E-16	8.158578E-17
5.120000E+03	8.015263E-16	8.204771E-17
5.130000E+03	8.072080E-16	8.258207E-17
5.140000E+03	8.137208E-16	8.320018E-17
5.150000E+03	8.209072E-16	8.388627E-17
5.160000E+03	8.287791E-16	8.464184E-17
5.170000E+03	8.372684E-16	8.546020E-17
5.180000E+03	8.462248E-16	8.632624E-17
5.190000E+03	8.556094E-16	8.723619E-17
5.200000E+03	8.653038E-16	8.817818E-17
5.210000E+03	8.751755E-16	8.913888E-17
5.220000E+03	8.850124E-16	9.009683E-17
5.230000E+03	8.947249E-16	9.104309E-17
5.240000E+03	9.041496E-16	9.196122E-17
5.250000E+03	9.131169E-16	9.283418E-17
5.260000E+03	9.213847E-16	9.363756E-17
5.270000E+03	9.288490E-16	9.436103E-17
5.280000E+03	9.353398E-16	9.498756E-17
5.290000E+03	9.406931E-16	9.550073E-17
5.300000E+03	9.446826E-16	9.587782E-17
5.310000E+03	9.472371E-16	9.611183E-17
5.320000E+03	9.482308E-16	9.619017E-17
5.330000E+03	9.475572E-16	9.610220E-17
5.340000E+03	9.450612E-16	9.583231E-17
5.350000E+03	9.407559E-16	9.538190E-17
5.360000E+03	9.346104E-16	9.474786E-17
5.370000E+03	9.266225E-16	9.392991E-17
5.380000E+03	9.167501E-16	9.292369E-17
5.390000E+03	9.051194E-16	9.174183E-17
5.400000E+03	8.918129E-16	9.039252E-17
5.410000E+03	8.769378E-16	8.888637E-17
5.420000E+03	8.605572E-16	8.722956E-17
5.430000E+03	8.428829E-16	8.544327E-17
5.440000E+03	8.240715E-16	8.354316E-17
5.450000E+03	8.042869E-16	8.154562E-17
5.460000E+03	7.836957E-16	7.946737E-17
5.470000E+03	7.624065E-16	7.731925E-17
5.480000E+03	7.406400E-16	7.512356E-17
5.490000E+03	7.185499E-16	7.289582E-17
5.500000E+03	6.962293E-16	7.064543E-17
5.510000E+03	6.739196E-16	6.839688E-17
5.520000E+03	6.516456E-16	6.615269E-17
5.530000E+03	6.295786E-16	6.393023E-17
5.540000E+03	6.078317E-16	6.174099E-17
5.550000E+03	5.864697E-16	5.959151E-17
5.560000E+03	5.656868E-16	5.750150E-17
5.570000E+03	5.455008E-16	5.547267E-17
5.580000E+03	5.260577E-16	5.351979E-17
5.590000E+03	5.074211E-16	5.164918E-17
5.600000E+03	4.897675E-16	4.987868E-17
5.610000E+03	4.731203E-16	4.821051E-17
5.620000E+03	4.576108E-16	4.665790E-17
5.630000E+03	4.433279E-16	4.522975E-17
5.640000E+03	4.303543E-16	4.393436E-17
5.650000E+03	4.187346E-16	4.277614E-17
5.660000E+03	4.085692E-16	4.176526E-17
5.670000E+03	3.999175E-16	4.090775E-17
5.680000E+03	3.928310E-16	4.020884E-17
5.690000E+03	3.873532E-16	3.967302E-17
5.700000E+03	3.835204E-16	3.930407E-17
5.710000E+03	3.813334E-16	3.910215E-17
5.720000E+03	3.808420E-16	3.907251E-17
5.730000E+03	3.820598E-16	3.921669E-17
5.740000E+03	3.849907E-16	3.953531E-17
5.750000E+03	3.895993E-16	4.002488E-17
5.760000E+03	3.959217E-16	4.068938E-17
5.770000E+03	4.038613E-16	4.151909E-17
5.780000E+03	4.133864E-16	4.251099E-17
5.790000E+03	4.244096E-16	4.365637E-17
5.800000E+03	4.368121E-16	4.494326E-17
5.810000E+03	4.504388E-16	4.635597E-17
5.820000E+03	4.650601E-16	4.787112E-17
5.830000E+03	4.804708E-16	4.946783E-17
5.840000E+03	4.963912E-16	5.111753E-17
5.850000E+03	5.125026E-16	5.278760E-17
5.860000E+03	5.284537E-16	5.444202E-17
5.870000E+03	5.438706E-16	5.604240E-17
5.880000E+03	5.583290E-16	5.754507E-17
5.890000E+03	5.715349E-16	5.891977E-17
5.900000E+03	5.830542E-16	6.012175E-17
5.910000E+03	5.926218E-16	6.112361E-17
5.920000E+03	5.999921E-16	6.189993E-17
5.930000E+03	6.049944E-16	6.243296E-17
5.940000E+03	6.074973E-16	6.270898E-17
5.950000E+03	6.075928E-16	6.273730E-17
5.960000E+03	6.052799E-16	6.251760E-17
5.970000E+03	6.007714E-16	6.207161E-17
5.980000E+03	5.943013E-16	6.142326E-17
5.990000E+03	5.861541E-16	6.060166E-17
6.000000E+03	5.766463E-16	5.963928E-17
6.010000E+03	5.661085E-16	5.857005E-17
6.020000E+03	5.548685E-16	5.742761E-17
6.030000E+03	5.431965E-16	5.623970E-17
6.040000E+03	5.314155E-16	5.503958E-17
6.050000E+03	5.198083E-16	5.385634E-17
6.060000E+03	5.084986E-16	5.270271E-17
6.070000E+03	4.976832E-16	5.159900E-17
6.080000E+03	4.874398E-16	5.055321E-17
6.090000E+03	4.779135E-16	4.958041E-17
6.100000E+03	4.691019E-16	4.868037E-17
6.110000E+03	4.609716E-16	4.784971E-17
6.120000E+03	4.535644E-16	4.709286E-17
6.130000E+03	4.467622E-16	4.639766E-17
6.140000E+03	4.405310E-16	4.576071E-17
6.150000E+03	4.348225E-16	4.517714E-17
6.160000E+03	4.294839E-16	4.463117E-17
6.170000E+03	4.244573E-16	4.411694E-17
6.180000E+03	4.196230E-16	4.362210E-17
6.190000E+03	4.149611E-16	4.314473E-17
6.200000E+03	4.103675E-16	4.267406E-17
6.210000E+03	4.057521E-16	4.220081E-17
6.220000E+03	4.011312E-16	4.172673E-17
6.230000E+03	3.964173E-16	4.124277E-17
6.240000E+03	3.916602E-16	4.075413E-17
6.250000E+03	3.868098E-16	4.025559E-17
6.260000E+03	3.819212E-16	3.975288E-17
6.270000E+03	3.770357E-16	3.925029E-17
6.280000E+03	3.722079E-16	3.875345E-17
6.290000E+03	3.675027E-16	3.826910E-17
6.300000E+03	3.629926E-16	3.780476E-17
6.310000E+03	3.587271E-16	3.736554E-17
6.320000E+03	3.548371E-16	3.696506E-17
6.330000E+03	3.513693E-16	3.660818E-17
6.340000E+03	3.483659E-16	3.629930E-17
6.350000E+03	3.459385E-16	3.605007E-17
6.360000E+03	3.440830E-16	3.586009E-17
6.370000E+03	3.428596E-16	3.573568E-17
6.380000E+03	3.423122E-16	3.568150E-17
6.390000E+03	3.423906E-16	3.569236E-17
6.400000E+03	3.431023E-16	3.576913E-17
6.410000E+03	3.444087E-16	3.590789E-17
6.420000E+03	3.462504E-16	3.610250E-17
6.430000E+03	3.485461E-16	3.634459E-17
6.440000E+03	3.511932E-16	3.662353E-17
6.450000E+03	3.540686E-16	3.692657E-17
6.460000E+03	3.570040E-16	3.723621E-17
6.470000E+03	3.598963E-16	3.754177E-17
6.480000E+03	3.625514E-16	3.782301E-17
6.490000E+03	3.647690E-16	3.805908E-17
6.500000E+03	3.664325E-16	3.823777E-17
6.510000E+03	3.673518E-16	3.833924E-17
6.520000E+03	3.673525E-16	3.834524E-17
6.530000E+03	3.663397E-16	3.824577E-17
6.540000E+03	3.642484E-16	3.803395E-17
6.550000E+03	3.609662E-16	3.769793E-17
6.560000E+03	3.565022E-16	3.723854E-17
6.570000E+03	3.509040E-16	3.666064E-17
6.580000E+03	3.441775E-16	3.596473E-17
6.590000E+03	3.364438E-16	3.516340E-17
6.600000E+03	3.278271E-16	3.426953E-17
6.610000E+03	3.184740E-16	3.329844E-17
6.620000E+03	3.085473E-16	3.226711E-17
6.630000E+03	2.982171E-16	3.119335E-17
6.640000E+03	2.876544E-16	3.009506E-17
6.650000E+03	2.770247E-16	2.898957E-17
6.660000E+03	2.664819E-16	2.789301E-17
6.670000E+03	2.561653E-16	2.681996E-17
6.680000E+03	2.461966E-16	2.578316E-17
6.690000E+03	2.366604E-16	2.479144E-17
6.700000E+03	2.276772E-16	2.385739E-17
6.710000E+03	2.192936E-16	2.298585E-17
6.720000E+03	2.115582E-16	2.218185E-17
6.730000E+03	2.044891E-16	2.144721E-17
6.740000E+03	1.981387E-16	2.078738E-17
6.750000E+03	1.924863E-16	2.020012E-17
6.760000E+03	1.875633E-16	1.968867E-17
6.770000E+03	1.833356E-16	1.924939E-17
6.780000E+03	1.798216E-16	1.888419E-17
6.790000E+03	1.769801E-16	1.858872E-17
6.800000E+03	1.748227E-16	1.836417E-17
6.810000E+03	1.733052E-16	1.820591E-17
6.820000E+03	1.724232E-16	1.811350E-17
6.830000E+03	1.721714E-16	1.808640E-17
6.840000E+03	1.725048E-16	1.811992E-17
6.850000E+03	1.734177E-16	1.821354E-17
6.860000E+03	1.748910E-16	1.836533E-17
6.870000E+03	1.769052E-16	1.857329E-17
6.880000E+03	1.794538E-16	1.883685E-17
6.890000E+03	1.824883E-16	1.915101E-17
6.900000E+03	1.859999E-16	1.951492E-17
6.910000E+03	1.899648E-16	1.992620E-17
6.920000E+03	1.943578E-16	2.038227E-17
6.930000E+03	1.991518E-16	2.088040E-17
6.940000E+03	2.043187E-16	2.141767E-17
6.950000E+03	2.098285E-16	2.199103E-17
6.960000E+03	2.156340E-16	2.259555E-17
6.970000E+03	2.217364E-16	2.323142E-17
6.980000E+03	2.280879E-16	2.389363E-17
6.990000E+03	2.346569E-16	2.457890E-17
7.000000E+03	2.414125E-16	2.528399E-17
7.010000E+03	2.483052E-16	2.600372E-17
7.020000E+03	2.553442E-16	2.673903E-17
7.030000E+03	2.624625E-16	2.748290E-17
7.040000E+03	2.696735E-16	2.823672E-17
7.050000E+03	2.769316E-16	2.899566E-17
7.060000E+03	2.841887E-16	2.975470E-17
7.070000E+03	2.914625E-16	3.051564E-17
7.080000E+03	2.986814E-16	3.127097E-17
7.090000E+03	3.058388E-16	3.202001E-17
7.100000E+03	3.129286E-16	3.276209E-17
7.110000E+03	3.198695E-16	3.348870E-17
7.120000E+03	3.266494E-16	3.419858E-17
7.130000E+03	3.332298E-16	3.488772E-17
7.140000E+03	3.395962E-16	3.555460E-17
7.150000E+03	3.456529E-16	3.618923E-17
7.160000E+03	3.513817E-16	3.678972E-17
7.170000E+03	3.567381E-16	3.735143E-17
7.180000E+03	3.616786E-16	3.786981E-17
7.190000E+03	3.661616E-16	3.834050E-17
7.200000E+03	3.701196E-16	3.875645E-17
7.210000E+03	3.735766E-16	3.912017E-17
7.220000E+03	3.764754E-16	3.942565E-17
7.230000E+03	3.787939E-16	3.967057E-17
7.240000E+03	3.804869E-16	3.985018E-17
7.250000E+03	3.816065E-16	3.996992E-17
7.260000E+03	3.820926E-16	4.002347E-17
7.270000E+03	3.820126E-16	4.001790E-17
7.280000E+03	3.813209E-16	3.994839E-17
7.290000E+03	3.800988E-16	3.982346E-17
7.300000E+03	3.783134E-16	3.963964E-17
7.310000E+03	3.760270E-16	3.940346E-17
7.320000E+03	3.733060E-16	3.912187E-17
7.330000E+03	3.701307E-16	3.879280E-17
7.340000E+03	3.665730E-16	3.842379E-17
7.350000E+03	3.626764E-16	3.801936E-17
7.360000E+03	3.584843E-16	3.758408E-17
7.370000E+03	3.540115E-16	3.711947E-17
7.380000E+03	3.493559E-16	3.663580E-17
7.390000E+03	3.445279E-16	3.613413E-17
7.400000E+03	3.395633E-16	3.561824E-17
7.410000E+03	3.344678E-16	3.508870E-17
7.420000E+03	3.293240E-16	3.455418E-17
7.430000E+03	3.241035E-16	3.401174E-17
7.440000E+03	3.188542E-16	3.346639E-17
7.450000E+03	3.136191E-16	3.292266E-17
7.460000E+03	3.083622E-16	3.237681E-17
7.470000E+03	3.031215E-16	3.183282E-17
7.480000E+03	2.979078E-16	3.129186E-17
7.490000E+03	2.927312E-16	3.075497E-17
7.500000E+03	2.876013E-16	3.022313E-17
7.510000E+03	2.825280E-16	2.969740E-17
7.520000E+03	2.774999E-16	2.917650E-17
7.530000E+03	2.725742E-16	2.866639E-17
7.540000E+03	2.677412E-16	2.816599E-17
7.550000E+03	2.629940E-16	2.767449E-17
7.560000E+03	2.583700E-16	2.719573E-17
7.570000E+03	2.539054E-16	2.673344E-17
7.580000E+03	2.495743E-16	2.628480E-17
7.590000E+03	2.454126E-16	2.585352E-17
7.600000E+03	2.414337E-16	2.544097E-17
7.610000E+03	2.376489E-16	2.504831E-17
7.620000E+03	2.340671E-16	2.467643E-17
7.630000E+03	2.306935E-16	2.432593E-17
7.640000E+03	2.275112E-16	2.399505E-17
7.650000E+03	2.245550E-16	2.368752E-17
7.660000E+03	2.217812E-16	2.339879E-17
7.670000E+03	2.191973E-16	2.312972E-17
7.680000E+03	2.168056E-16	2.288064E-17
7.690000E+03	2.145508E-16	2.264581E-17
7.700000E+03	2.124282E-16	2.242476E-17
7.710000E+03	2.104115E-16	2.221482E-17
7.720000E+03	2.084725E-16	2.201305E-17
7.730000E+03	2.065643E-16	2.181453E-17
7.740000E+03	2.046905E-16	2.161968E-17
7.750000E+03	2.028034E-16	2.142349E-17
7.760000E+03	2.008570E-16	2.122113E-17
