#wls	flux	fluxerr
1.600000E+03	9.492814E-17	9.833366E-17
1.640000E+03	9.350685E-17	9.596421E-17
1.680000E+03	9.212856E-17	9.365195E-17
1.720000E+03	9.082687E-17	9.142985E-17
1.760000E+03	8.957153E-17	8.926585E-17
1.800000E+03	8.836479E-17	8.716110E-17
1.840000E+03	8.723881E-17	8.514581E-17
1.880000E+03	8.616504E-17	8.319016E-17
1.920000E+03	8.517485E-17	8.132270E-17
1.960000E+03	8.424081E-17	7.951505E-17
2.000000E+03	8.337959E-17	7.778108E-17
2.040000E+03	8.260716E-17	7.613322E-17
2.080000E+03	8.189779E-17	7.454511E-17
2.120000E+03	8.126804E-17	7.302952E-17
2.160000E+03	8.073402E-17	7.159794E-17
2.200000E+03	8.028501E-17	7.023751E-17
2.240000E+03	7.991111E-17	6.893652E-17
2.280000E+03	7.964245E-17	6.771765E-17
2.320000E+03	7.948274E-17	6.657985E-17
2.360000E+03	7.941046E-17	6.550090E-17
2.400000E+03	7.945649E-17	6.450217E-17
2.440000E+03	7.962631E-17	6.358291E-17
2.480000E+03	7.990055E-17	6.272249E-17
2.520000E+03	8.032462E-17	6.195108E-17
2.560000E+03	8.086815E-17	6.123883E-17
2.600000E+03	8.156563E-17	6.060559E-17
2.640000E+03	8.242723E-17	6.005136E-17
2.680000E+03	8.346454E-17	5.957635E-17
2.720000E+03	8.466467E-17	5.916281E-17
2.760000E+03	8.608134E-17	5.883903E-17
2.800000E+03	8.770533E-17	5.858780E-17
2.840000E+03	8.956895E-17	5.841937E-17
2.880000E+03	9.169426E-17	5.833516E-17
2.920000E+03	9.409248E-17	5.832831E-17
2.960000E+03	9.680580E-17	5.840967E-17
3.000000E+03	9.986706E-17	5.858173E-17
3.010000E+03	1.006974E-16	5.864297E-17
3.020000E+03	1.015508E-16	5.870904E-17
3.030000E+03	1.024129E-16	5.877149E-17
3.040000E+03	1.033140E-16	5.884739E-17
3.050000E+03	1.042399E-16	5.892829E-17
3.060000E+03	1.051915E-16	5.901425E-17
3.070000E+03	1.061694E-16	5.910533E-17
3.080000E+03	1.071898E-16	5.921008E-17
3.090000E+03	1.082227E-16	5.931160E-17
3.100000E+03	1.092999E-16	5.942691E-17
3.110000E+03	1.103910E-16	5.953914E-17
3.120000E+03	1.115283E-16	5.966531E-17
3.130000E+03	1.126971E-16	5.979702E-17
3.140000E+03	1.138983E-16	5.993436E-17
3.150000E+03	1.151328E-16	6.007740E-17
3.160000E+03	1.164016E-16	6.022623E-17
3.170000E+03	1.177223E-16	6.038942E-17
3.180000E+03	1.190631E-16	6.055011E-17
3.190000E+03	1.204581E-16	6.072536E-17
3.200000E+03	1.218752E-16	6.089830E-17
3.210000E+03	1.233492E-16	6.108602E-17
3.220000E+03	1.248646E-16	6.128013E-17
3.230000E+03	1.264227E-16	6.148076E-17
3.240000E+03	1.280246E-16	6.168803E-17
3.250000E+03	1.296719E-16	6.190205E-17
3.260000E+03	1.313659E-16	6.212298E-17
3.270000E+03	1.331263E-16	6.235948E-17
3.280000E+03	1.349184E-16	6.259462E-17
3.290000E+03	1.367803E-16	6.284566E-17
3.300000E+03	1.386955E-16	6.310422E-17
3.310000E+03	1.406656E-16	6.337047E-17
3.320000E+03	1.426924E-16	6.364457E-17
3.330000E+03	1.447777E-16	6.392673E-17
3.340000E+03	1.469233E-16	6.421714E-17
3.350000E+03	1.491311E-16	6.451600E-17
3.360000E+03	1.514234E-16	6.483223E-17
3.370000E+03	1.537619E-16	6.514870E-17
3.380000E+03	1.561896E-16	6.548305E-17
3.390000E+03	1.586672E-16	6.581810E-17
3.400000E+03	1.612390E-16	6.617162E-17
3.410000E+03	1.638864E-16	6.653515E-17
3.420000E+03	1.666118E-16	6.690902E-17
3.430000E+03	1.694176E-16	6.729353E-17
3.440000E+03	1.723291E-16	6.769794E-17
3.450000E+03	1.753039E-16	6.810484E-17
3.460000E+03	1.783668E-16	6.852347E-17
3.470000E+03	1.815443E-16	6.896325E-17
3.480000E+03	1.847922E-16	6.940663E-17
3.490000E+03	1.881611E-16	6.987210E-17
3.500000E+03	1.916301E-16	7.035113E-17
3.510000E+03	1.952022E-16	7.084423E-17
3.520000E+03	1.988805E-16	7.135193E-17
3.530000E+03	2.026679E-16	7.187477E-17
3.540000E+03	2.065675E-16	7.241334E-17
3.550000E+03	2.105825E-16	7.296823E-17
3.560000E+03	2.147432E-16	7.354946E-17
3.570000E+03	2.189984E-16	7.413898E-17
3.580000E+03	2.234065E-16	7.475627E-17
3.590000E+03	2.279143E-16	7.538313E-17
3.600000E+03	2.325820E-16	7.603931E-17
3.610000E+03	2.373840E-16	7.671607E-17
3.620000E+03	2.423233E-16	7.741417E-17
3.630000E+03	2.474025E-16	7.813440E-17
3.640000E+03	2.526242E-16	7.887752E-17
3.650000E+03	2.579905E-16	7.964434E-17
3.660000E+03	2.635036E-16	8.043561E-17
3.670000E+03	2.691653E-16	8.125211E-17
3.680000E+03	2.749770E-16	8.209457E-17
3.690000E+03	2.809744E-16	8.297393E-17
3.700000E+03	2.870897E-16	8.387050E-17
3.710000E+03	2.933929E-16	8.480541E-17
3.720000E+03	2.998126E-16	8.575853E-17
3.730000E+03	3.064202E-16	8.675119E-17
3.740000E+03	3.131785E-16	8.777336E-17
3.750000E+03	3.200851E-16	8.882532E-17
3.760000E+03	3.270974E-16	8.989632E-17
3.770000E+03	3.342900E-16	9.100798E-17
3.780000E+03	3.416193E-16	9.214936E-17
3.790000E+03	3.490796E-16	9.332008E-17
3.800000E+03	3.566644E-16	9.451961E-17
3.810000E+03	3.643660E-16	9.574719E-17
3.820000E+03	3.722201E-16	9.701338E-17
3.830000E+03	3.801294E-16	9.829402E-17
3.840000E+03	3.881265E-16	9.959910E-17
3.850000E+03	3.962001E-16	1.009270E-16
3.860000E+03	4.043852E-16	1.022878E-16
3.870000E+03	4.125740E-16	1.036554E-16
3.880000E+03	4.208487E-16	1.050519E-16
3.890000E+03	4.290967E-16	1.064501E-16
3.900000E+03	4.374023E-16	1.078722E-16
3.910000E+03	4.456491E-16	1.092904E-16
3.920000E+03	4.539241E-16	1.107271E-16
3.930000E+03	4.621075E-16	1.121537E-16
3.940000E+03	4.702900E-16	1.135931E-16
3.950000E+03	4.784042E-16	1.150296E-16
3.960000E+03	4.863803E-16	1.164469E-16
3.970000E+03	4.943159E-16	1.178689E-16
3.980000E+03	5.021439E-16	1.192797E-16
3.990000E+03	5.097955E-16	1.206633E-16
4.000000E+03	5.173766E-16	1.220449E-16
4.010000E+03	5.248221E-16	1.234090E-16
4.020000E+03	5.320658E-16	1.247401E-16
4.030000E+03	5.392225E-16	1.260649E-16
4.040000E+03	5.462301E-16	1.273685E-16
4.050000E+03	5.530873E-16	1.286505E-16
4.060000E+03	5.597322E-16	1.298960E-16
4.070000E+03	5.662911E-16	1.311341E-16
4.080000E+03	5.727054E-16	1.323506E-16
4.090000E+03	5.789797E-16	1.335461E-16
4.100000E+03	5.850550E-16	1.347066E-16
4.110000E+03	5.910666E-16	1.358629E-16
4.120000E+03	5.969577E-16	1.370012E-16
4.130000E+03	6.026698E-16	1.381076E-16
4.140000E+03	6.083430E-16	1.392139E-16
4.150000E+03	6.139201E-16	1.403065E-16
4.160000E+03	6.193421E-16	1.413713E-16
4.170000E+03	6.247522E-16	1.424407E-16
4.180000E+03	6.300236E-16	1.434854E-16
4.190000E+03	6.353014E-16	1.445380E-16
4.200000E+03	6.404571E-16	1.455688E-16
4.210000E+03	6.456373E-16	1.466109E-16
4.220000E+03	6.507125E-16	1.476345E-16
4.230000E+03	6.557609E-16	1.486571E-16
4.240000E+03	6.608630E-16	1.496966E-16
4.250000E+03	6.658881E-16	1.507231E-16
4.260000E+03	6.709175E-16	1.517549E-16
4.270000E+03	6.759633E-16	1.527944E-16
4.280000E+03	6.810383E-16	1.538443E-16
4.290000E+03	6.861566E-16	1.549077E-16
4.300000E+03	6.913336E-16	1.559877E-16
4.310000E+03	6.965860E-16	1.570879E-16
4.320000E+03	7.019314E-16	1.582122E-16
4.330000E+03	7.073890E-16	1.593647E-16
4.340000E+03	7.129043E-16	1.605330E-16
4.350000E+03	7.186467E-16	1.617551E-16
4.360000E+03	7.245636E-16	1.630190E-16
4.370000E+03	7.306008E-16	1.643124E-16
4.380000E+03	7.368547E-16	1.656567E-16
4.390000E+03	7.434228E-16	1.670738E-16
4.400000E+03	7.501714E-16	1.685334E-16
4.410000E+03	7.571944E-16	1.700566E-16
4.420000E+03	7.645071E-16	1.716466E-16
4.430000E+03	7.721212E-16	1.733060E-16
4.440000E+03	7.800450E-16	1.750365E-16
4.450000E+03	7.882817E-16	1.768386E-16
4.460000E+03	7.968296E-16	1.787119E-16
4.470000E+03	8.055990E-16	1.806362E-16
4.480000E+03	8.147381E-16	1.826446E-16
4.490000E+03	8.240610E-16	1.846953E-16
4.500000E+03	8.336201E-16	1.868000E-16
4.510000E+03	8.433779E-16	1.889503E-16
4.520000E+03	8.533750E-16	1.911552E-16
4.530000E+03	8.633002E-16	1.933449E-16
4.540000E+03	8.733497E-16	1.955633E-16
4.550000E+03	8.833686E-16	1.977757E-16
4.560000E+03	8.932814E-16	1.999652E-16
4.570000E+03	9.029169E-16	2.020933E-16
4.580000E+03	9.122773E-16	2.041607E-16
4.590000E+03	9.213650E-16	2.061678E-16
4.600000E+03	9.299075E-16	2.080536E-16
4.610000E+03	9.379050E-16	2.098182E-16
4.620000E+03	9.452698E-16	2.114418E-16
4.630000E+03	9.518245E-16	2.128850E-16
4.640000E+03	9.576790E-16	2.141721E-16
4.650000E+03	9.626710E-16	2.152669E-16
4.660000E+03	9.666472E-16	2.161351E-16
4.670000E+03	9.696548E-16	2.167871E-16
4.680000E+03	9.716598E-16	2.172155E-16
4.690000E+03	9.726421E-16	2.174156E-16
4.700000E+03	9.725962E-16	2.173861E-16
4.710000E+03	9.714366E-16	2.171080E-16
4.720000E+03	9.693756E-16	2.166285E-16
4.730000E+03	9.662619E-16	2.159140E-16
4.740000E+03	9.623323E-16	2.150171E-16
4.750000E+03	9.574612E-16	2.139098E-16
4.760000E+03	9.518125E-16	2.126287E-16
4.770000E+03	9.453735E-16	2.111708E-16
4.780000E+03	9.384108E-16	2.095957E-16
4.790000E+03	9.308318E-16	2.078827E-16
4.800000E+03	9.229060E-16	2.060919E-16
4.810000E+03	9.145466E-16	2.042039E-16
4.820000E+03	9.059321E-16	2.022586E-16
4.830000E+03	8.971491E-16	2.002751E-16
4.840000E+03	8.881956E-16	1.982532E-16
4.850000E+03	8.793190E-16	1.962479E-16
4.860000E+03	8.704230E-16	1.942379E-16
4.870000E+03	8.616572E-16	1.922564E-16
4.880000E+03	8.531608E-16	1.903346E-16
4.890000E+03	8.447433E-16	1.884299E-16
4.900000E+03	8.366913E-16	1.866063E-16
4.910000E+03	8.289621E-16	1.848543E-16
4.920000E+03	8.215099E-16	1.831636E-16
4.930000E+03	8.144388E-16	1.815575E-16
4.940000E+03	8.077684E-16	1.800403E-16
4.950000E+03	8.015131E-16	1.786153E-16
4.960000E+03	7.956824E-16	1.772846E-16
4.970000E+03	7.902818E-16	1.760493E-16
4.980000E+03	7.852397E-16	1.748936E-16
4.990000E+03	7.806285E-16	1.738335E-16
5.000000E+03	7.765157E-16	1.728841E-16
5.010000E+03	7.726771E-16	1.719955E-16
5.020000E+03	7.693195E-16	1.712137E-16
5.030000E+03	7.663589E-16	1.705200E-16
5.040000E+03	7.637107E-16	1.698955E-16
5.050000E+03	7.614305E-16	1.693527E-16
5.060000E+03	7.595710E-16	1.689033E-16
5.070000E+03	7.579027E-16	1.684962E-16
5.080000E+03	7.566151E-16	1.681736E-16
5.090000E+03	7.556155E-16	1.679150E-16
5.100000E+03	7.548103E-16	1.676995E-16
5.110000E+03	7.542429E-16	1.675369E-16
5.120000E+03	7.539547E-16	1.674363E-16
5.130000E+03	7.537082E-16	1.673452E-16
5.140000E+03	7.536794E-16	1.673026E-16
5.150000E+03	7.537655E-16	1.672858E-16
5.160000E+03	7.538623E-16	1.672718E-16
5.170000E+03	7.540019E-16	1.672677E-16
5.180000E+03	7.542146E-16	1.672805E-16
5.190000E+03	7.542543E-16	1.672555E-16
5.200000E+03	7.542867E-16	1.672297E-16
5.210000E+03	7.542014E-16	1.671786E-16
5.220000E+03	7.538880E-16	1.670780E-16
5.230000E+03	7.533735E-16	1.669339E-16
5.240000E+03	7.526852E-16	1.667524E-16
5.250000E+03	7.515778E-16	1.664794E-16
5.260000E+03	7.502178E-16	1.661519E-16
5.270000E+03	7.485003E-16	1.657467E-16
5.280000E+03	7.463237E-16	1.652414E-16
5.290000E+03	7.437929E-16	1.646594E-16
5.300000E+03	7.407457E-16	1.639649E-16
5.310000E+03	7.372270E-16	1.631678E-16
5.320000E+03	7.331522E-16	1.622496E-16
5.330000E+03	7.286405E-16	1.612366E-16
5.340000E+03	7.235521E-16	1.600980E-16
5.350000E+03	7.180149E-16	1.588622E-16
5.360000E+03	7.119020E-16	1.575010E-16
5.370000E+03	7.052868E-16	1.560308E-16
5.380000E+03	6.981833E-16	1.544546E-16
5.390000E+03	6.905487E-16	1.527629E-16
5.400000E+03	6.825322E-16	1.509888E-16
5.410000E+03	6.740399E-16	1.491113E-16
5.420000E+03	6.652270E-16	1.471648E-16
5.430000E+03	6.560113E-16	1.451310E-16
5.440000E+03	6.464943E-16	1.430323E-16
5.450000E+03	6.366632E-16	1.408658E-16
5.460000E+03	6.266794E-16	1.386670E-16
5.470000E+03	6.164783E-16	1.364216E-16
5.480000E+03	6.062207E-16	1.341650E-16
5.490000E+03	5.958476E-16	1.318841E-16
5.500000E+03	5.854646E-16	1.296021E-16
5.510000E+03	5.751219E-16	1.273301E-16
5.520000E+03	5.648182E-16	1.250675E-16
5.530000E+03	5.547034E-16	1.228476E-16
5.540000E+03	5.447727E-16	1.206691E-16
5.550000E+03	5.350225E-16	1.185312E-16
5.560000E+03	5.255446E-16	1.164541E-16
5.570000E+03	5.163783E-16	1.144464E-16
5.580000E+03	5.075603E-16	1.125162E-16
5.590000E+03	4.991244E-16	1.106710E-16
5.600000E+03	4.910572E-16	1.089077E-16
5.610000E+03	4.834743E-16	1.072518E-16
5.620000E+03	4.763127E-16	1.056895E-16
5.630000E+03	4.696364E-16	1.042349E-16
5.640000E+03	4.634624E-16	1.028917E-16
5.650000E+03	4.578038E-16	1.016629E-16
5.660000E+03	4.526704E-16	1.005506E-16
5.670000E+03	4.480682E-16	9.955616E-17
5.680000E+03	4.439600E-16	9.867142E-17
5.690000E+03	4.404237E-16	9.791365E-17
5.700000E+03	4.373754E-16	9.726427E-17
5.710000E+03	4.348455E-16	9.673008E-17
5.720000E+03	4.328210E-16	9.630823E-17
5.730000E+03	4.312852E-16	9.599504E-17
5.740000E+03	4.302174E-16	9.578597E-17
5.750000E+03	4.295931E-16	9.567561E-17
5.760000E+03	4.293459E-16	9.564921E-17
5.770000E+03	4.295198E-16	9.571664E-17
5.780000E+03	4.300029E-16	9.585302E-17
5.790000E+03	4.308323E-16	9.606664E-17
5.800000E+03	4.318895E-16	9.633111E-17
5.810000E+03	4.331675E-16	9.664491E-17
5.820000E+03	4.346190E-16	9.699751E-17
5.830000E+03	4.361562E-16	9.736931E-17
5.840000E+03	4.378060E-16	9.776634E-17
5.850000E+03	4.394792E-16	9.816868E-17
5.860000E+03	4.410864E-16	9.855634E-17
5.870000E+03	4.426172E-16	9.892698E-17
5.880000E+03	4.440639E-16	9.927885E-17
5.890000E+03	4.453037E-16	9.958446E-17
5.900000E+03	4.463353E-16	9.984346E-17
5.910000E+03	4.471226E-16	1.000477E-16
5.920000E+03	4.476346E-16	1.001903E-16
5.930000E+03	4.478459E-16	1.002654E-16
5.940000E+03	4.476975E-16	1.002597E-16
5.950000E+03	4.472553E-16	1.001879E-16
5.960000E+03	4.464333E-16	1.000308E-16
5.970000E+03	4.453095E-16	9.980565E-17
5.980000E+03	4.438099E-16	9.949583E-17
5.990000E+03	4.419841E-16	9.911242E-17
6.000000E+03	4.398470E-16	9.865868E-17
6.010000E+03	4.374175E-16	9.813879E-17
6.020000E+03	4.347180E-16	9.755768E-17
6.030000E+03	4.317730E-16	9.692086E-17
6.040000E+03	4.286092E-16	9.623423E-17
6.050000E+03	4.252162E-16	9.549545E-17
6.060000E+03	4.216977E-16	9.472774E-17
6.070000E+03	4.180430E-16	9.392872E-17
6.080000E+03	4.142422E-16	9.309609E-17
6.090000E+03	4.103579E-16	9.224395E-17
6.100000E+03	4.064501E-16	9.138573E-17
6.110000E+03	4.024680E-16	9.051005E-17
6.120000E+03	3.984679E-16	8.962959E-17
6.130000E+03	3.944678E-16	8.874835E-17
6.140000E+03	3.904834E-16	8.786989E-17
6.150000E+03	3.865285E-16	8.699736E-17
6.160000E+03	3.826151E-16	8.613345E-17
6.170000E+03	3.787200E-16	8.527297E-17
6.180000E+03	3.749197E-16	8.443315E-17
6.190000E+03	3.711879E-16	8.360809E-17
6.200000E+03	3.674983E-16	8.279192E-17
6.210000E+03	3.639225E-16	8.200074E-17
6.220000E+03	3.604000E-16	8.122101E-17
6.230000E+03	3.569680E-16	8.046107E-17
6.240000E+03	3.536615E-16	7.972887E-17
6.250000E+03	3.504204E-16	7.901090E-17
6.260000E+03	3.472793E-16	7.831494E-17
6.270000E+03	3.442402E-16	7.764152E-17
6.280000E+03	3.413049E-16	7.699102E-17
6.290000E+03	3.384743E-16	7.636369E-17
6.300000E+03	3.357486E-16	7.575959E-17
6.310000E+03	3.331271E-16	7.517859E-17
6.320000E+03	3.306082E-16	7.462035E-17
6.330000E+03	3.281598E-16	7.407764E-17
6.340000E+03	3.258365E-16	7.356283E-17
6.350000E+03	3.236035E-16	7.306806E-17
6.360000E+03	3.214253E-16	7.258531E-17
6.370000E+03	3.193509E-16	7.212573E-17
6.380000E+03	3.173133E-16	7.167416E-17
6.390000E+03	3.153581E-16	7.124090E-17
6.400000E+03	3.134159E-16	7.081033E-17
6.410000E+03	3.115010E-16	7.038568E-17
6.420000E+03	3.096261E-16	6.996980E-17
6.430000E+03	3.077194E-16	6.954654E-17
6.440000E+03	3.057925E-16	6.911846E-17
6.450000E+03	3.038283E-16	6.868177E-17
6.460000E+03	3.018103E-16	6.823270E-17
6.470000E+03	2.997223E-16	6.776760E-17
6.480000E+03	2.975489E-16	6.728300E-17
6.490000E+03	2.952762E-16	6.677576E-17
6.500000E+03	2.928920E-16	6.624312E-17
6.510000E+03	2.903862E-16	6.568279E-17
6.520000E+03	2.877511E-16	6.509303E-17
6.530000E+03	2.849818E-16	6.447274E-17
6.540000E+03	2.820511E-16	6.381573E-17
6.550000E+03	2.790109E-16	6.313378E-17
6.560000E+03	2.758401E-16	6.242207E-17
6.570000E+03	2.725214E-16	6.167672E-17
6.580000E+03	2.691148E-16	6.091127E-17
6.590000E+03	2.655847E-16	6.011767E-17
6.600000E+03	2.619951E-16	5.931042E-17
6.610000E+03	2.583166E-16	5.848285E-17
6.620000E+03	2.546159E-16	5.765007E-17
6.630000E+03	2.508683E-16	5.680646E-17
6.640000E+03	2.471418E-16	5.596741E-17
6.650000E+03	2.434143E-16	5.512796E-17
6.660000E+03	2.397316E-16	5.429847E-17
6.670000E+03	2.361168E-16	5.348414E-17
6.680000E+03	2.326131E-16	5.269480E-17
6.690000E+03	2.291998E-16	5.192573E-17
6.700000E+03	2.259185E-16	5.118636E-17
6.710000E+03	2.227880E-16	5.048099E-17
6.720000E+03	2.198260E-16	4.981358E-17
6.730000E+03	2.170481E-16	4.918772E-17
6.740000E+03	2.144684E-16	4.860660E-17
6.750000E+03	2.120993E-16	4.807302E-17
6.760000E+03	2.099513E-16	4.758940E-17
6.770000E+03	2.080335E-16	4.715776E-17
6.780000E+03	2.063530E-16	4.677977E-17
6.790000E+03	2.049155E-16	4.645673E-17
6.800000E+03	2.037254E-16	4.618959E-17
6.810000E+03	2.027668E-16	4.597483E-17
6.820000E+03	2.020783E-16	4.582117E-17
6.830000E+03	2.016415E-16	4.572447E-17
6.840000E+03	2.014372E-16	4.568037E-17
6.850000E+03	2.015000E-16	4.569677E-17
6.860000E+03	2.018086E-16	4.576881E-17
6.870000E+03	2.023405E-16	4.589143E-17
6.880000E+03	2.031276E-16	4.607186E-17
6.890000E+03	2.041271E-16	4.630043E-17
6.900000E+03	2.053695E-16	4.658406E-17
6.910000E+03	2.068099E-16	4.691258E-17
6.920000E+03	2.084777E-16	4.729268E-17
6.930000E+03	2.103259E-16	4.771369E-17
6.940000E+03	2.123828E-16	4.818210E-17
6.950000E+03	2.145994E-16	4.868676E-17
6.960000E+03	2.169836E-16	4.922947E-17
6.970000E+03	2.195232E-16	4.980752E-17
6.980000E+03	2.222261E-16	5.042267E-17
6.990000E+03	2.250383E-16	5.106272E-17
7.000000E+03	2.279661E-16	5.172907E-17
7.010000E+03	2.309948E-16	5.241844E-17
7.020000E+03	2.341094E-16	5.312738E-17
7.030000E+03	2.372941E-16	5.385236E-17
7.040000E+03	2.405329E-16	5.458973E-17
7.050000E+03	2.438092E-16	5.533575E-17
7.060000E+03	2.471061E-16	5.608657E-17
7.070000E+03	2.504065E-16	5.683831E-17
7.080000E+03	2.536929E-16	5.758704E-17
7.090000E+03	2.569478E-16	5.832877E-17
7.100000E+03	2.601539E-16	5.905954E-17
7.110000E+03	2.632692E-16	5.976987E-17
7.120000E+03	2.663248E-16	6.046681E-17
7.130000E+03	2.692799E-16	6.114107E-17
7.140000E+03	2.721179E-16	6.178889E-17
7.150000E+03	2.747974E-16	6.240088E-17
7.160000E+03	2.773538E-16	6.298507E-17
7.170000E+03	2.797216E-16	6.352659E-17
7.180000E+03	2.819389E-16	6.403409E-17
7.190000E+03	2.839415E-16	6.449297E-17
7.200000E+03	2.857707E-16	6.491259E-17
7.210000E+03	2.873638E-16	6.527874E-17
7.220000E+03	2.887389E-16	6.559549E-17
7.230000E+03	2.899160E-16	6.586742E-17
7.240000E+03	2.908361E-16	6.608107E-17
7.250000E+03	2.915224E-16	6.624171E-17
7.260000E+03	2.919727E-16	6.634886E-17
7.270000E+03	2.921867E-16	6.640241E-17
7.280000E+03	2.921653E-16	6.640259E-17
7.290000E+03	2.919114E-16	6.635000E-17
7.300000E+03	2.914290E-16	6.624556E-17
7.310000E+03	2.907236E-16	6.609052E-17
7.320000E+03	2.898019E-16	6.588638E-17
7.330000E+03	2.886719E-16	6.563494E-17
7.340000E+03	2.873424E-16	6.533821E-17
7.350000E+03	2.858232E-16	6.499840E-17
7.360000E+03	2.840983E-16	6.461184E-17
7.370000E+03	2.822321E-16	6.419319E-17
7.380000E+03	2.801833E-16	6.373302E-17
7.390000E+03	2.780164E-16	6.324602E-17
7.400000E+03	2.756912E-16	6.272301E-17
7.410000E+03	2.732719E-16	6.217860E-17
7.420000E+03	2.707191E-16	6.160379E-17
7.430000E+03	2.680959E-16	6.101296E-17
7.440000E+03	2.653633E-16	6.039721E-17
7.450000E+03	2.625583E-16	5.976497E-17
7.460000E+03	2.596920E-16	5.911873E-17
7.470000E+03	2.567751E-16	5.846092E-17
7.480000E+03	2.538176E-16	5.779384E-17
7.490000E+03	2.508293E-16	5.711967E-17
7.500000E+03	2.478192E-16	5.644046E-17
7.510000E+03	2.447958E-16	5.575814E-17
7.520000E+03	2.417667E-16	5.507448E-17
7.530000E+03	2.387393E-16	5.439109E-17
7.540000E+03	2.357201E-16	5.370947E-17
7.550000E+03	2.326926E-16	5.302587E-17
7.560000E+03	2.297065E-16	5.235162E-17
7.570000E+03	2.267223E-16	5.167767E-17
7.580000E+03	2.237870E-16	5.101476E-17
7.590000E+03	2.208607E-16	5.035378E-17
7.600000E+03	2.179880E-16	4.970491E-17
7.610000E+03	2.151286E-16	4.905893E-17
7.620000E+03	2.123042E-16	4.842082E-17
7.630000E+03	2.095150E-16	4.779062E-17
7.640000E+03	2.067604E-16	4.716821E-17
7.650000E+03	2.040394E-16	4.655332E-17
7.660000E+03	2.013502E-16	4.594556E-17
7.670000E+03	1.986905E-16	4.534443E-17
7.680000E+03	1.960577E-16	4.474931E-17
7.690000E+03	1.934486E-16	4.415949E-17
7.700000E+03	1.908414E-16	4.357001E-17
7.710000E+03	1.882694E-16	4.298847E-17
7.720000E+03	1.857103E-16	4.240977E-17
7.730000E+03	1.831425E-16	4.182897E-17
7.740000E+03	1.805803E-16	4.124936E-17
7.750000E+03	1.780372E-16	4.067401E-17
7.760000E+03	1.754748E-16	4.009419E-17
