#wls	flux	fluxerr
1.600000E+03	9.366992E-17	9.835842E-17
1.640000E+03	9.230783E-17	9.606587E-17
1.680000E+03	9.098825E-17	9.382889E-17
1.720000E+03	8.974440E-17	9.168060E-17
1.760000E+03	8.854636E-17	8.958882E-17
1.800000E+03	8.741137E-17	8.756982E-17
1.840000E+03	8.632615E-17	8.560880E-17
1.880000E+03	8.532218E-17	8.373540E-17
1.920000E+03	8.437174E-17	8.192041E-17
1.960000E+03	8.349146E-17	8.017829E-17
2.000000E+03	8.268330E-17	7.850880E-17
2.040000E+03	8.194938E-17	7.691170E-17
2.080000E+03	8.127829E-17	7.537404E-17
2.120000E+03	8.070009E-17	7.392124E-17
2.160000E+03	8.020366E-17	7.254008E-17
2.200000E+03	7.979203E-17	7.123034E-17
2.240000E+03	7.946853E-17	6.999185E-17
2.280000E+03	7.923687E-17	6.882447E-17
2.320000E+03	7.910111E-17	6.772813E-17
2.360000E+03	7.906582E-17	6.670281E-17
2.400000E+03	7.914892E-17	6.575926E-17
2.440000E+03	7.934311E-17	6.488656E-17
2.480000E+03	7.965474E-17	6.408500E-17
2.520000E+03	8.009095E-17	6.335499E-17
2.560000E+03	8.067251E-17	6.270707E-17
2.600000E+03	8.139563E-17	6.213165E-17
2.640000E+03	8.227041E-17	6.162966E-17
2.680000E+03	8.332126E-17	6.121174E-17
2.720000E+03	8.454818E-17	6.086944E-17
2.760000E+03	8.597900E-17	6.061369E-17
2.800000E+03	8.761721E-17	6.043684E-17
2.840000E+03	8.949513E-17	6.035028E-17
2.880000E+03	9.162077E-17	6.034723E-17
2.920000E+03	9.403237E-17	6.043975E-17
2.960000E+03	9.674388E-17	6.062211E-17
3.000000E+03	9.980134E-17	6.090727E-17
3.010000E+03	1.006193E-16	6.099233E-17
3.020000E+03	1.014749E-16	6.109202E-17
3.030000E+03	1.023387E-16	6.118848E-17
3.040000E+03	1.032416E-16	6.129973E-17
3.050000E+03	1.041539E-16	6.140792E-17
3.060000E+03	1.051067E-16	6.153108E-17
3.070000E+03	1.060856E-16	6.166034E-17
3.080000E+03	1.070912E-16	6.179579E-17
3.090000E+03	1.081244E-16	6.193752E-17
3.100000E+03	1.091858E-16	6.208566E-17
3.110000E+03	1.102764E-16	6.224029E-17
3.120000E+03	1.113969E-16	6.240154E-17
3.130000E+03	1.125643E-16	6.257852E-17
3.140000E+03	1.137473E-16	6.275335E-17
3.150000E+03	1.149793E-16	6.294417E-17
3.160000E+03	1.162285E-16	6.313309E-17
3.170000E+03	1.175289E-16	6.333827E-17
3.180000E+03	1.188650E-16	6.355084E-17
3.190000E+03	1.202379E-16	6.377095E-17
3.200000E+03	1.216487E-16	6.399875E-17
3.210000E+03	1.230985E-16	6.423440E-17
3.220000E+03	1.245884E-16	6.447805E-17
3.230000E+03	1.261373E-16	6.473900E-17
3.240000E+03	1.277112E-16	6.499921E-17
3.250000E+03	1.293470E-16	6.527710E-17
3.260000E+03	1.310099E-16	6.555459E-17
3.270000E+03	1.327378E-16	6.585021E-17
3.280000E+03	1.345139E-16	6.615500E-17
3.290000E+03	1.363396E-16	6.646919E-17
3.300000E+03	1.382165E-16	6.679300E-17
3.310000E+03	1.401461E-16	6.712668E-17
3.320000E+03	1.421298E-16	6.747047E-17
3.330000E+03	1.441695E-16	6.782462E-17
3.340000E+03	1.462867E-16	6.819879E-17
3.350000E+03	1.484433E-16	6.857453E-17
3.360000E+03	1.506815E-16	6.897092E-17
3.370000E+03	1.529621E-16	6.936942E-17
3.380000E+03	1.553286E-16	6.978925E-17
3.390000E+03	1.577621E-16	7.022133E-17
3.400000E+03	1.602648E-16	7.066600E-17
3.410000E+03	1.628385E-16	7.112362E-17
3.420000E+03	1.654853E-16	7.159457E-17
3.430000E+03	1.682074E-16	7.207925E-17
3.440000E+03	1.710068E-16	7.257806E-17
3.450000E+03	1.738858E-16	7.309144E-17
3.460000E+03	1.768703E-16	7.362967E-17
3.470000E+03	1.799154E-16	7.417358E-17
3.480000E+03	1.830713E-16	7.474337E-17
3.490000E+03	1.863165E-16	7.532970E-17
3.500000E+03	1.896283E-16	7.592305E-17
3.510000E+03	1.930588E-16	7.654397E-17
3.520000E+03	1.965858E-16	7.718304E-17
3.530000E+03	2.002116E-16	7.784080E-17
3.540000E+03	2.039386E-16	7.851784E-17
3.550000E+03	2.077690E-16	7.921473E-17
3.560000E+03	2.117053E-16	7.993208E-17
3.570000E+03	2.157777E-16	8.068102E-17
3.580000E+03	2.199326E-16	8.144120E-17
3.590000E+03	2.242000E-16	8.222368E-17
3.600000E+03	2.286113E-16	8.303983E-17
3.610000E+03	2.331099E-16	8.386887E-17
3.620000E+03	2.377572E-16	8.473297E-17
3.630000E+03	2.425252E-16	8.562200E-17
3.640000E+03	2.473839E-16	8.652546E-17
3.650000E+03	2.523973E-16	8.746601E-17
3.660000E+03	2.575352E-16	8.843320E-17
3.670000E+03	2.627985E-16	8.942751E-17
3.680000E+03	2.681877E-16	9.044942E-17
3.690000E+03	2.737030E-16	9.149934E-17
3.700000E+03	2.793441E-16	9.257761E-17
3.710000E+03	2.851106E-16	9.368452E-17
3.720000E+03	2.910014E-16	9.482027E-17
3.730000E+03	2.970523E-16	9.599700E-17
3.740000E+03	3.031877E-16	9.719080E-17
3.750000E+03	3.094417E-16	9.841349E-17
3.760000E+03	3.158507E-16	9.967726E-17
3.770000E+03	3.223331E-16	1.009571E-16
3.780000E+03	3.289644E-16	1.022775E-16
3.790000E+03	3.356590E-16	1.036126E-16
3.800000E+03	3.424939E-16	1.049872E-16
3.810000E+03	3.493795E-16	1.063747E-16
3.820000E+03	3.563944E-16	1.077999E-16
3.830000E+03	3.634895E-16	1.092487E-16
3.840000E+03	3.706571E-16	1.107199E-16
3.850000E+03	3.778429E-16	1.121981E-16
3.860000E+03	3.851296E-16	1.137090E-16
3.870000E+03	3.924628E-16	1.152371E-16
3.880000E+03	3.998331E-16	1.167807E-16
3.890000E+03	4.072306E-16	1.183376E-16
3.900000E+03	4.146454E-16	1.199058E-16
3.910000E+03	4.220673E-16	1.214830E-16
3.920000E+03	4.294861E-16	1.230671E-16
3.930000E+03	4.368917E-16	1.246557E-16
3.940000E+03	4.442742E-16	1.262467E-16
3.950000E+03	4.516239E-16	1.278377E-16
3.960000E+03	4.589315E-16	1.294267E-16
3.970000E+03	4.661883E-16	1.310115E-16
3.980000E+03	4.733861E-16	1.325901E-16
3.990000E+03	4.805172E-16	1.341607E-16
4.000000E+03	4.875750E-16	1.357216E-16
4.010000E+03	4.945535E-16	1.372712E-16
4.020000E+03	5.014475E-16	1.388082E-16
4.030000E+03	5.082529E-16	1.403314E-16
4.040000E+03	5.149665E-16	1.418399E-16
4.050000E+03	5.215858E-16	1.433330E-16
4.060000E+03	5.281096E-16	1.448101E-16
4.070000E+03	5.345374E-16	1.462710E-16
4.080000E+03	5.408695E-16	1.477155E-16
4.090000E+03	5.471073E-16	1.491438E-16
4.100000E+03	5.532526E-16	1.505562E-16
4.110000E+03	5.593083E-16	1.519531E-16
4.120000E+03	5.652778E-16	1.533352E-16
4.130000E+03	5.711652E-16	1.547032E-16
4.140000E+03	5.769748E-16	1.560581E-16
4.150000E+03	5.827119E-16	1.574010E-16
4.160000E+03	5.883819E-16	1.587331E-16
4.170000E+03	5.939908E-16	1.600555E-16
4.180000E+03	5.995447E-16	1.613698E-16
4.190000E+03	6.050502E-16	1.626774E-16
4.200000E+03	6.104459E-16	1.639614E-16
4.210000E+03	6.158756E-16	1.652604E-16
4.220000E+03	6.212787E-16	1.665576E-16
4.230000E+03	6.265934E-16	1.678364E-16
4.240000E+03	6.319672E-16	1.691359E-16
4.250000E+03	6.373394E-16	1.704397E-16
4.260000E+03	6.426478E-16	1.717309E-16
4.270000E+03	6.480436E-16	1.730498E-16
4.280000E+03	6.533938E-16	1.743606E-16
4.290000E+03	6.587796E-16	1.756847E-16
4.300000E+03	6.642844E-16	1.770443E-16
4.310000E+03	6.697733E-16	1.784033E-16
4.320000E+03	6.753295E-16	1.797835E-16
4.330000E+03	6.809639E-16	1.811878E-16
4.340000E+03	6.866872E-16	1.826188E-16
4.350000E+03	6.925098E-16	1.840791E-16
4.360000E+03	6.984417E-16	1.855714E-16
4.370000E+03	7.044925E-16	1.870979E-16
4.380000E+03	7.106706E-16	1.886607E-16
4.390000E+03	7.169834E-16	1.902617E-16
4.400000E+03	7.233589E-16	1.918817E-16
4.410000E+03	7.299565E-16	1.935628E-16
4.420000E+03	7.366221E-16	1.952641E-16
4.430000E+03	7.435128E-16	1.970269E-16
4.440000E+03	7.504672E-16	1.988086E-16
4.450000E+03	7.575584E-16	2.006283E-16
4.460000E+03	7.648586E-16	2.025050E-16
4.470000E+03	7.721933E-16	2.043924E-16
4.480000E+03	7.796269E-16	2.063076E-16
4.490000E+03	7.871393E-16	2.082451E-16
4.500000E+03	7.946229E-16	2.101763E-16
4.510000E+03	8.022168E-16	2.121381E-16
4.520000E+03	8.098061E-16	2.140998E-16
4.530000E+03	8.172698E-16	2.160296E-16
4.540000E+03	8.247400E-16	2.179622E-16
4.550000E+03	8.320028E-16	2.198410E-16
4.560000E+03	8.390998E-16	2.216771E-16
4.570000E+03	8.459844E-16	2.234581E-16
4.580000E+03	8.526091E-16	2.251713E-16
4.590000E+03	8.589256E-16	2.268040E-16
4.600000E+03	8.648858E-16	2.283435E-16
4.610000E+03	8.704425E-16	2.297773E-16
4.620000E+03	8.754602E-16	2.310695E-16
4.630000E+03	8.800769E-16	2.322567E-16
4.640000E+03	8.840729E-16	2.332807E-16
4.650000E+03	8.875046E-16	2.341564E-16
4.660000E+03	8.904344E-16	2.349003E-16
4.670000E+03	8.926569E-16	2.354581E-16
4.680000E+03	8.941553E-16	2.358254E-16
4.690000E+03	8.951026E-16	2.360478E-16
4.700000E+03	8.954048E-16	2.361004E-16
4.710000E+03	8.949753E-16	2.359605E-16
4.720000E+03	8.940076E-16	2.356789E-16
4.730000E+03	8.923384E-16	2.352126E-16
4.740000E+03	8.900834E-16	2.345921E-16
4.750000E+03	8.872732E-16	2.338254E-16
4.760000E+03	8.839435E-16	2.329219E-16
4.770000E+03	8.801348E-16	2.318922E-16
4.780000E+03	8.758027E-16	2.307246E-16
4.790000E+03	8.711712E-16	2.294781E-16
4.800000E+03	8.661135E-16	2.281193E-16
4.810000E+03	8.608543E-16	2.267072E-16
4.820000E+03	8.552710E-16	2.252097E-16
4.830000E+03	8.495007E-16	2.236628E-16
4.840000E+03	8.435085E-16	2.220574E-16
4.850000E+03	8.375112E-16	2.204504E-16
4.860000E+03	8.314693E-16	2.188314E-16
4.870000E+03	8.253435E-16	2.171902E-16
4.880000E+03	8.192573E-16	2.155592E-16
4.890000E+03	8.133280E-16	2.139693E-16
4.900000E+03	8.074270E-16	2.123866E-16
4.910000E+03	8.015860E-16	2.108194E-16
4.920000E+03	7.959905E-16	2.093167E-16
4.930000E+03	7.905834E-16	2.078633E-16
4.940000E+03	7.853066E-16	2.064440E-16
4.950000E+03	7.802544E-16	2.050836E-16
4.960000E+03	7.755158E-16	2.038054E-16
4.970000E+03	7.709473E-16	2.025717E-16
4.980000E+03	7.665571E-16	2.013848E-16
4.990000E+03	7.624998E-16	2.002852E-16
5.000000E+03	7.587011E-16	1.992535E-16
5.010000E+03	7.550859E-16	1.982699E-16
5.020000E+03	7.517254E-16	1.973531E-16
5.030000E+03	7.486870E-16	1.965208E-16
5.040000E+03	7.458166E-16	1.957326E-16
5.050000E+03	7.431057E-16	1.949862E-16
5.060000E+03	7.406877E-16	1.943168E-16
5.070000E+03	7.384771E-16	1.937019E-16
5.080000E+03	7.363877E-16	1.931189E-16
5.090000E+03	7.344751E-16	1.925825E-16
5.100000E+03	7.327926E-16	1.921066E-16
5.110000E+03	7.311790E-16	1.916490E-16
5.120000E+03	7.296144E-16	1.912047E-16
5.130000E+03	7.282184E-16	1.908048E-16
5.140000E+03	7.268975E-16	1.904251E-16
5.150000E+03	7.255580E-16	1.900411E-16
5.160000E+03	7.242454E-16	1.896647E-16
5.170000E+03	7.229342E-16	1.892893E-16
5.180000E+03	7.215985E-16	1.889082E-16
5.190000E+03	7.202118E-16	1.885146E-16
5.200000E+03	7.187475E-16	1.881016E-16
5.210000E+03	7.171101E-16	1.876442E-16
5.220000E+03	7.154112E-16	1.871719E-16
5.230000E+03	7.134878E-16	1.866419E-16
5.240000E+03	7.113835E-16	1.860658E-16
5.250000E+03	7.090746E-16	1.854375E-16
5.260000E+03	7.065386E-16	1.847512E-16
5.270000E+03	7.037548E-16	1.840015E-16
5.280000E+03	7.006374E-16	1.831661E-16
5.290000E+03	6.973039E-16	1.822759E-16
5.300000E+03	6.936068E-16	1.812922E-16
5.310000E+03	6.896016E-16	1.802297E-16
5.320000E+03	6.852797E-16	1.790862E-16
5.330000E+03	6.806357E-16	1.778602E-16
5.340000E+03	6.756030E-16	1.765346E-16
5.350000E+03	6.703117E-16	1.751432E-16
5.360000E+03	6.646380E-16	1.736537E-16
5.370000E+03	6.587164E-16	1.721013E-16
5.380000E+03	6.524322E-16	1.704561E-16
5.390000E+03	6.458623E-16	1.687380E-16
5.400000E+03	6.390239E-16	1.669516E-16
5.410000E+03	6.319367E-16	1.651019E-16
5.420000E+03	6.245640E-16	1.631794E-16
5.430000E+03	6.170495E-16	1.612215E-16
5.440000E+03	6.093025E-16	1.592045E-16
5.450000E+03	6.014109E-16	1.571512E-16
5.460000E+03	5.934045E-16	1.550694E-16
5.470000E+03	5.853146E-16	1.529671E-16
5.480000E+03	5.771730E-16	1.508527E-16
5.490000E+03	5.690122E-16	1.487343E-16
5.500000E+03	5.608117E-16	1.466068E-16
5.510000E+03	5.527103E-16	1.445061E-16
5.520000E+03	5.446349E-16	1.424132E-16
5.530000E+03	5.366695E-16	1.403498E-16
5.540000E+03	5.288440E-16	1.383238E-16
5.550000E+03	5.211870E-16	1.363425E-16
5.560000E+03	5.137260E-16	1.344130E-16
5.570000E+03	5.064863E-16	1.325420E-16
5.580000E+03	4.994918E-16	1.307355E-16
5.590000E+03	4.927179E-16	1.289871E-16
5.600000E+03	4.862317E-16	1.273143E-16
5.610000E+03	4.800955E-16	1.257334E-16
5.620000E+03	4.742338E-16	1.242246E-16
5.630000E+03	4.687048E-16	1.228031E-16
5.640000E+03	4.635186E-16	1.214715E-16
5.650000E+03	4.586400E-16	1.202206E-16
5.660000E+03	4.541606E-16	1.190744E-16
5.670000E+03	4.500397E-16	1.180221E-16
5.680000E+03	4.462355E-16	1.170530E-16
5.690000E+03	4.427882E-16	1.161775E-16
5.700000E+03	4.396928E-16	1.153942E-16
5.710000E+03	4.369827E-16	1.147121E-16
5.720000E+03	4.345660E-16	1.141069E-16
5.730000E+03	4.324310E-16	1.135757E-16
5.740000E+03	4.306441E-16	1.131359E-16
5.750000E+03	4.291478E-16	1.127724E-16
5.760000E+03	4.278829E-16	1.124697E-16
5.770000E+03	4.269085E-16	1.122433E-16
5.780000E+03	4.261216E-16	1.120661E-16
5.790000E+03	4.255774E-16	1.119528E-16
5.800000E+03	4.251701E-16	1.118754E-16
5.810000E+03	4.249121E-16	1.118374E-16
5.820000E+03	4.247752E-16	1.118311E-16
5.830000E+03	4.247306E-16	1.118491E-16
5.840000E+03	4.247093E-16	1.118732E-16
5.850000E+03	4.247616E-16	1.119166E-16
5.860000E+03	4.248193E-16	1.119613E-16
5.870000E+03	4.248149E-16	1.119896E-16
5.880000E+03	4.247614E-16	1.120048E-16
5.890000E+03	4.246735E-16	1.120108E-16
5.900000E+03	4.244488E-16	1.119805E-16
5.910000E+03	4.241061E-16	1.119189E-16
5.920000E+03	4.236271E-16	1.118210E-16
5.930000E+03	4.229960E-16	1.116828E-16
5.940000E+03	4.222002E-16	1.115007E-16
5.950000E+03	4.212298E-16	1.112722E-16
5.960000E+03	4.200387E-16	1.109850E-16
5.970000E+03	4.187018E-16	1.106589E-16
5.980000E+03	4.171786E-16	1.102831E-16
5.990000E+03	4.154321E-16	1.098478E-16
6.000000E+03	4.135058E-16	1.093644E-16
6.010000E+03	4.114446E-16	1.088448E-16
6.020000E+03	4.091800E-16	1.082709E-16
6.030000E+03	4.067609E-16	1.076554E-16
6.040000E+03	4.041990E-16	1.070016E-16
6.050000E+03	4.015069E-16	1.063126E-16
6.060000E+03	3.986981E-16	1.055921E-16
6.070000E+03	3.957864E-16	1.048437E-16
6.080000E+03	3.927859E-16	1.040711E-16
6.090000E+03	3.896743E-16	1.032684E-16
6.100000E+03	3.865385E-16	1.024585E-16
6.110000E+03	3.833191E-16	1.016259E-16
6.120000E+03	3.801010E-16	1.007929E-16
6.130000E+03	3.768248E-16	9.994375E-17
6.140000E+03	3.735726E-16	9.910032E-17
6.150000E+03	3.702846E-16	9.824674E-17
6.160000E+03	3.670058E-16	9.739491E-17
6.170000E+03	3.637447E-16	9.654716E-17
6.180000E+03	3.605095E-16	9.570561E-17
6.190000E+03	3.573071E-16	9.487216E-17
6.200000E+03	3.541438E-16	9.404847E-17
6.210000E+03	3.510252E-16	9.323605E-17
6.220000E+03	3.479560E-16	9.243618E-17
6.230000E+03	3.449403E-16	9.164995E-17
6.240000E+03	3.419815E-16	9.087830E-17
6.250000E+03	3.390506E-16	9.011350E-17
6.260000E+03	3.362134E-16	8.937310E-17
6.270000E+03	3.334080E-16	8.864066E-17
6.280000E+03	3.306980E-16	8.793308E-17
6.290000E+03	3.280211E-16	8.723385E-17
6.300000E+03	3.254385E-16	8.655924E-17
6.310000E+03	3.228876E-16	8.589262E-17
6.320000E+03	3.203971E-16	8.524164E-17
6.330000E+03	3.179941E-16	8.461354E-17
6.340000E+03	3.156151E-16	8.399145E-17
6.350000E+03	3.132860E-16	8.338226E-17
6.360000E+03	3.110019E-16	8.278467E-17
6.370000E+03	3.087572E-16	8.219722E-17
6.380000E+03	3.065456E-16	8.161824E-17
6.390000E+03	3.043602E-16	8.104594E-17
6.400000E+03	3.021939E-16	8.047839E-17
6.410000E+03	3.000389E-16	7.991353E-17
6.420000E+03	2.978872E-16	7.934927E-17
6.430000E+03	2.957028E-16	7.877603E-17
6.440000E+03	2.935336E-16	7.820656E-17
6.450000E+03	2.913436E-16	7.763127E-17
6.460000E+03	2.890979E-16	7.704089E-17
6.470000E+03	2.868443E-16	7.644813E-17
6.480000E+03	2.845219E-16	7.583680E-17
6.490000E+03	2.821791E-16	7.521981E-17
6.500000E+03	2.797581E-16	7.458172E-17
6.510000E+03	2.773085E-16	7.393577E-17
6.520000E+03	2.747757E-16	7.326739E-17
6.530000E+03	2.722111E-16	7.259032E-17
6.540000E+03	2.695638E-16	7.189099E-17
6.550000E+03	2.668621E-16	7.117692E-17
6.560000E+03	2.641099E-16	7.044915E-17
6.570000E+03	2.613370E-16	6.971568E-17
6.580000E+03	2.585006E-16	6.896503E-17
6.590000E+03	2.556337E-16	6.820602E-17
6.600000E+03	2.527454E-16	6.744112E-17
6.610000E+03	2.498462E-16	6.667308E-17
6.620000E+03	2.469472E-16	6.590491E-17
6.630000E+03	2.440605E-16	6.513982E-17
6.640000E+03	2.411986E-16	6.438114E-17
6.650000E+03	2.383743E-16	6.363233E-17
6.660000E+03	2.356009E-16	6.289688E-17
6.670000E+03	2.328691E-16	6.217238E-17
6.680000E+03	2.302364E-16	6.147415E-17
6.690000E+03	2.276931E-16	6.079959E-17
6.700000E+03	2.252511E-16	6.015193E-17
6.710000E+03	2.229008E-16	5.952857E-17
6.720000E+03	2.206955E-16	5.894380E-17
6.730000E+03	2.186240E-16	5.839457E-17
6.740000E+03	2.166745E-16	5.787781E-17
6.750000E+03	2.148970E-16	5.740682E-17
6.760000E+03	2.132778E-16	5.697798E-17
6.770000E+03	2.118031E-16	5.658762E-17
6.780000E+03	2.104987E-16	5.624264E-17
6.790000E+03	2.093891E-16	5.594958E-17
6.800000E+03	2.084376E-16	5.569865E-17
6.810000E+03	2.076866E-16	5.550122E-17
6.820000E+03	2.070982E-16	5.534711E-17
6.830000E+03	2.066929E-16	5.524187E-17
6.840000E+03	2.064904E-16	5.519076E-17
6.850000E+03	2.064503E-16	5.518300E-17
6.860000E+03	2.065908E-16	5.522342E-17
6.870000E+03	2.069092E-16	5.531139E-17
6.880000E+03	2.074225E-16	5.545138E-17
6.890000E+03	2.080868E-16	5.563176E-17
6.900000E+03	2.089176E-16	5.585660E-17
6.910000E+03	2.099095E-16	5.612451E-17
6.920000E+03	2.110567E-16	5.643393E-17
6.930000E+03	2.123525E-16	5.678311E-17
6.940000E+03	2.137898E-16	5.717016E-17
6.950000E+03	2.153609E-16	5.759300E-17
6.960000E+03	2.170574E-16	5.804943E-17
6.970000E+03	2.188704E-16	5.853707E-17
6.980000E+03	2.207692E-16	5.904773E-17
6.990000E+03	2.227863E-16	5.959007E-17
7.000000E+03	2.248901E-16	6.015568E-17
7.010000E+03	2.270698E-16	6.074166E-17
7.020000E+03	2.293140E-16	6.134499E-17
7.030000E+03	2.315887E-16	6.195659E-17
7.040000E+03	2.339265E-16	6.258515E-17
7.050000E+03	2.362928E-16	6.322146E-17
7.060000E+03	2.386521E-16	6.385600E-17
7.070000E+03	2.410376E-16	6.449767E-17
7.080000E+03	2.433901E-16	6.513063E-17
7.090000E+03	2.457437E-16	6.576399E-17
7.100000E+03	2.480381E-16	6.638164E-17
7.110000E+03	2.503085E-16	6.699300E-17
7.120000E+03	2.524940E-16	6.758177E-17
7.130000E+03	2.546064E-16	6.815111E-17
7.140000E+03	2.566588E-16	6.870452E-17
7.150000E+03	2.585900E-16	6.922561E-17
7.160000E+03	2.604139E-16	6.971809E-17
7.170000E+03	2.621199E-16	7.017918E-17
7.180000E+03	2.636986E-16	7.060629E-17
7.190000E+03	2.651669E-16	7.100395E-17
7.200000E+03	2.664650E-16	7.135619E-17
7.210000E+03	2.676115E-16	7.166796E-17
7.220000E+03	2.686002E-16	7.193756E-17
7.230000E+03	2.694257E-16	7.216359E-17
7.240000E+03	2.700838E-16	7.234489E-17
7.250000E+03	2.705713E-16	7.248058E-17
7.260000E+03	2.708594E-16	7.256299E-17
7.270000E+03	2.710001E-16	7.260597E-17
7.280000E+03	2.709667E-16	7.260242E-17
7.290000E+03	2.707602E-16	7.255256E-17
7.300000E+03	2.703559E-16	7.244978E-17
7.310000E+03	2.698097E-16	7.230905E-17
7.320000E+03	2.690987E-16	7.212421E-17
7.330000E+03	2.682011E-16	7.188941E-17
7.340000E+03	2.671748E-16	7.162017E-17
7.350000E+03	2.659731E-16	7.130396E-17
7.360000E+03	2.646550E-16	7.095656E-17
7.370000E+03	2.631751E-16	7.056583E-17
7.380000E+03	2.615670E-16	7.014075E-17
7.390000E+03	2.598641E-16	6.969026E-17
7.400000E+03	2.580230E-16	6.920269E-17
7.410000E+03	2.560775E-16	6.868714E-17
7.420000E+03	2.540358E-16	6.814580E-17
7.430000E+03	2.519063E-16	6.758087E-17
7.440000E+03	2.496971E-16	6.699454E-17
7.450000E+03	2.474163E-16	6.638897E-17
7.460000E+03	2.450718E-16	6.576628E-17
7.470000E+03	2.426713E-16	6.512851E-17
7.480000E+03	2.402223E-16	6.447766E-17
7.490000E+03	2.377317E-16	6.381562E-17
7.500000E+03	2.352064E-16	6.314420E-17
7.510000E+03	2.326296E-16	6.245889E-17
7.520000E+03	2.300538E-16	6.177377E-17
7.530000E+03	2.274611E-16	6.108405E-17
7.540000E+03	2.248343E-16	6.038507E-17
7.550000E+03	2.222229E-16	5.969017E-17
7.560000E+03	2.195866E-16	5.898849E-17
7.570000E+03	2.169515E-16	5.828702E-17
7.580000E+03	2.143422E-16	5.759238E-17
7.590000E+03	2.117182E-16	5.689371E-17
7.600000E+03	2.091035E-16	5.619744E-17
7.610000E+03	2.064999E-16	5.550403E-17
7.620000E+03	2.039086E-16	5.481384E-17
7.630000E+03	2.013508E-16	5.413255E-17
7.640000E+03	1.987864E-16	5.344936E-17
7.650000E+03	1.962161E-16	5.276450E-17
7.660000E+03	1.936795E-16	5.208859E-17
7.670000E+03	1.911561E-16	5.141610E-17
7.680000E+03	1.886450E-16	5.074685E-17
7.690000E+03	1.861453E-16	5.008054E-17
7.700000E+03	1.836373E-16	4.941188E-17
7.710000E+03	1.811569E-16	4.875055E-17
7.720000E+03	1.786659E-16	4.808625E-17
7.730000E+03	1.761991E-16	4.742839E-17
7.740000E+03	1.737193E-16	4.676691E-17
7.750000E+03	1.712605E-16	4.611098E-17
7.760000E+03	1.687864E-16	4.545083E-17
