#wls	flux	fluxerr
1.600000E+03	1.623895E-16	0.000000E+00
1.640000E+03	1.671543E-16	0.000000E+00
1.680000E+03	1.721977E-16	0.000000E+00
1.720000E+03	1.775221E-16	0.000000E+00
1.760000E+03	1.831440E-16	0.000000E+00
1.800000E+03	1.890939E-16	0.000000E+00
1.840000E+03	1.953369E-16	0.000000E+00
1.880000E+03	2.019150E-16	0.000000E+00
1.920000E+03	2.088206E-16	0.000000E+00
1.960000E+03	2.160439E-16	0.000000E+00
2.000000E+03	2.235577E-16	0.000000E+00
2.040000E+03	2.313479E-16	0.000000E+00
2.080000E+03	2.393686E-16	0.000000E+00
2.120000E+03	2.475427E-16	0.000000E+00
2.160000E+03	2.558382E-16	0.000000E+00
2.200000E+03	2.641634E-16	0.000000E+00
2.240000E+03	2.724431E-16	0.000000E+00
2.280000E+03	2.806328E-16	0.000000E+00
2.320000E+03	2.887172E-16	0.000000E+00
2.360000E+03	2.967224E-16	0.000000E+00
2.400000E+03	3.046860E-16	0.000000E+00
2.440000E+03	3.126422E-16	0.000000E+00
2.480000E+03	3.206618E-16	0.000000E+00
2.520000E+03	3.287701E-16	0.000000E+00
2.560000E+03	3.370148E-16	0.000000E+00
2.600000E+03	3.454006E-16	0.000000E+00
2.640000E+03	3.539419E-16	0.000000E+00
2.680000E+03	3.626267E-16	0.000000E+00
2.720000E+03	3.714417E-16	0.000000E+00
2.760000E+03	3.803741E-16	0.000000E+00
2.800000E+03	3.893998E-16	0.000000E+00
2.840000E+03	3.984970E-16	0.000000E+00
2.880000E+03	4.076678E-16	0.000000E+00
2.920000E+03	4.168941E-16	0.000000E+00
2.960000E+03	4.262132E-16	0.000000E+00
3.000000E+03	4.356309E-16	0.000000E+00
3.010000E+03	4.380163E-16	0.000000E+00
3.020000E+03	4.404039E-16	0.000000E+00
3.030000E+03	4.427934E-16	0.000000E+00
3.040000E+03	4.452041E-16	0.000000E+00
3.050000E+03	4.476256E-16	0.000000E+00
3.060000E+03	4.500572E-16	0.000000E+00
3.070000E+03	4.525083E-16	0.000000E+00
3.080000E+03	4.549686E-16	0.000000E+00
3.090000E+03	4.574377E-16	0.000000E+00
3.100000E+03	4.599343E-16	0.000000E+00
3.110000E+03	4.624387E-16	0.000000E+00
3.120000E+03	4.649599E-16	0.000000E+00
3.130000E+03	4.674883E-16	0.000000E+00
3.140000E+03	4.700513E-16	0.000000E+00
3.150000E+03	4.726206E-16	0.000000E+00
3.160000E+03	4.752050E-16	0.000000E+00
3.170000E+03	4.778133E-16	0.000000E+00
3.180000E+03	4.804450E-16	0.000000E+00
3.190000E+03	4.830818E-16	0.000000E+00
3.200000E+03	4.857500E-16	0.000000E+00
3.210000E+03	4.884316E-16	0.000000E+00
3.220000E+03	4.911352E-16	0.000000E+00
3.230000E+03	4.938516E-16	0.000000E+00
3.240000E+03	4.965892E-16	0.000000E+00
3.250000E+03	4.993479E-16	0.000000E+00
3.260000E+03	5.021273E-16	0.000000E+00
3.270000E+03	5.049187E-16	0.000000E+00
3.280000E+03	5.077305E-16	0.000000E+00
3.290000E+03	5.105624E-16	0.000000E+00
3.300000E+03	5.134061E-16	0.000000E+00
3.310000E+03	5.162697E-16	0.000000E+00
3.320000E+03	5.191449E-16	0.000000E+00
3.330000E+03	5.220399E-16	0.000000E+00
3.340000E+03	5.249466E-16	0.000000E+00
3.350000E+03	5.278650E-16	0.000000E+00
3.360000E+03	5.307951E-16	0.000000E+00
3.370000E+03	5.337372E-16	0.000000E+00
3.380000E+03	5.366915E-16	0.000000E+00
3.390000E+03	5.396500E-16	0.000000E+00
3.400000E+03	5.426210E-16	0.000000E+00
3.410000E+03	5.455891E-16	0.000000E+00
3.420000E+03	5.485701E-16	0.000000E+00
3.430000E+03	5.515491E-16	0.000000E+00
3.440000E+03	5.545263E-16	0.000000E+00
3.450000E+03	5.575024E-16	0.000000E+00
3.460000E+03	5.604701E-16	0.000000E+00
3.470000E+03	5.634377E-16	0.000000E+00
3.480000E+03	5.663980E-16	0.000000E+00
3.490000E+03	5.693443E-16	0.000000E+00
3.500000E+03	5.722774E-16	0.000000E+00
3.510000E+03	5.751906E-16	0.000000E+00
3.520000E+03	5.780919E-16	0.000000E+00
3.530000E+03	5.809603E-16	0.000000E+00
3.540000E+03	5.838042E-16	0.000000E+00
3.550000E+03	5.866170E-16	0.000000E+00
3.560000E+03	5.893999E-16	0.000000E+00
3.570000E+03	5.921396E-16	0.000000E+00
3.580000E+03	5.948304E-16	0.000000E+00
3.590000E+03	5.974802E-16	0.000000E+00
3.600000E+03	6.000696E-16	0.000000E+00
3.610000E+03	6.026065E-16	0.000000E+00
3.620000E+03	6.050855E-16	0.000000E+00
3.630000E+03	6.074940E-16	0.000000E+00
3.640000E+03	6.098270E-16	0.000000E+00
3.650000E+03	6.120857E-16	0.000000E+00
3.660000E+03	6.142583E-16	0.000000E+00
3.670000E+03	6.163529E-16	0.000000E+00
3.680000E+03	6.183510E-16	0.000000E+00
3.690000E+03	6.202544E-16	0.000000E+00
3.700000E+03	6.220582E-16	0.000000E+00
3.710000E+03	6.237638E-16	0.000000E+00
3.720000E+03	6.253599E-16	0.000000E+00
3.730000E+03	6.268480E-16	0.000000E+00
3.740000E+03	6.282236E-16	0.000000E+00
3.750000E+03	6.294880E-16	0.000000E+00
3.760000E+03	6.306366E-16	0.000000E+00
3.770000E+03	6.316708E-16	0.000000E+00
3.780000E+03	6.325859E-16	0.000000E+00
3.790000E+03	6.333772E-16	0.000000E+00
3.800000E+03	6.340584E-16	0.000000E+00
3.810000E+03	6.346125E-16	0.000000E+00
3.820000E+03	6.350468E-16	0.000000E+00
3.830000E+03	6.353689E-16	0.000000E+00
3.840000E+03	6.355679E-16	0.000000E+00
3.850000E+03	6.356448E-16	0.000000E+00
3.860000E+03	6.356068E-16	0.000000E+00
3.870000E+03	6.354551E-16	0.000000E+00
3.880000E+03	6.351906E-16	0.000000E+00
3.890000E+03	6.348083E-16	0.000000E+00
3.900000E+03	6.343149E-16	0.000000E+00
3.910000E+03	6.337114E-16	0.000000E+00
3.920000E+03	6.329986E-16	0.000000E+00
3.930000E+03	6.321771E-16	0.000000E+00
3.940000E+03	6.312477E-16	0.000000E+00
3.950000E+03	6.302167E-16	0.000000E+00
3.960000E+03	6.290848E-16	0.000000E+00
3.970000E+03	6.278468E-16	0.000000E+00
3.980000E+03	6.265147E-16	0.000000E+00
3.990000E+03	6.250831E-16	0.000000E+00
4.000000E+03	6.235583E-16	0.000000E+00
4.010000E+03	6.219405E-16	0.000000E+00
4.020000E+03	6.202248E-16	0.000000E+00
4.030000E+03	6.184225E-16	0.000000E+00
4.040000E+03	6.165286E-16	0.000000E+00
4.050000E+03	6.145491E-16	0.000000E+00
4.060000E+03	6.124842E-16	0.000000E+00
4.070000E+03	6.103343E-16	0.000000E+00
4.080000E+03	6.081001E-16	0.000000E+00
4.090000E+03	6.057872E-16	0.000000E+00
4.100000E+03	6.033909E-16	0.000000E+00
4.110000E+03	6.009118E-16	0.000000E+00
4.120000E+03	5.983610E-16	0.000000E+00
4.130000E+03	5.957287E-16	0.000000E+00
4.140000E+03	5.930209E-16	0.000000E+00
4.150000E+03	5.902384E-16	0.000000E+00
4.160000E+03	5.873822E-16	0.000000E+00
4.170000E+03	5.844534E-16	0.000000E+00
4.180000E+03	5.814531E-16	0.000000E+00
4.190000E+03	5.783825E-16	0.000000E+00
4.200000E+03	5.752433E-16	0.000000E+00
4.210000E+03	5.720369E-16	0.000000E+00
4.220000E+03	5.687654E-16	0.000000E+00
4.230000E+03	5.654255E-16	0.000000E+00
4.240000E+03	5.620197E-16	0.000000E+00
4.250000E+03	5.585553E-16	0.000000E+00
4.260000E+03	5.550351E-16	0.000000E+00
4.270000E+03	5.514523E-16	0.000000E+00
4.280000E+03	5.478150E-16	0.000000E+00
4.290000E+03	5.441272E-16	0.000000E+00
4.300000E+03	5.403925E-16	0.000000E+00
4.310000E+03	5.366153E-16	0.000000E+00
4.320000E+03	5.327957E-16	0.000000E+00
4.330000E+03	5.289479E-16	0.000000E+00
4.340000E+03	5.250683E-16	0.000000E+00
4.350000E+03	5.211717E-16	0.000000E+00
4.360000E+03	5.172641E-16	0.000000E+00
4.370000E+03	5.133557E-16	0.000000E+00
4.380000E+03	5.094517E-16	0.000000E+00
4.390000E+03	5.055592E-16	0.000000E+00
4.400000E+03	5.016772E-16	0.000000E+00
4.410000E+03	4.978101E-16	0.000000E+00
4.420000E+03	4.939514E-16	0.000000E+00
4.430000E+03	4.900942E-16	0.000000E+00
4.440000E+03	4.862408E-16	0.000000E+00
4.450000E+03	4.823853E-16	0.000000E+00
4.460000E+03	4.785264E-16	0.000000E+00
4.470000E+03	4.746681E-16	0.000000E+00
4.480000E+03	4.708017E-16	0.000000E+00
4.490000E+03	4.669320E-16	0.000000E+00
4.500000E+03	4.630600E-16	0.000000E+00
4.510000E+03	4.591826E-16	0.000000E+00
4.520000E+03	4.553017E-16	0.000000E+00
4.530000E+03	4.514193E-16	0.000000E+00
4.540000E+03	4.475376E-16	0.000000E+00
4.550000E+03	4.436594E-16	0.000000E+00
4.560000E+03	4.397830E-16	0.000000E+00
4.570000E+03	4.359073E-16	0.000000E+00
4.580000E+03	4.320439E-16	0.000000E+00
4.590000E+03	4.281875E-16	0.000000E+00
4.600000E+03	4.243376E-16	0.000000E+00
4.610000E+03	4.205017E-16	0.000000E+00
4.620000E+03	4.166833E-16	0.000000E+00
4.630000E+03	4.128740E-16	0.000000E+00
4.640000E+03	4.090894E-16	0.000000E+00
4.650000E+03	4.053175E-16	0.000000E+00
4.660000E+03	4.015698E-16	0.000000E+00
4.670000E+03	3.978461E-16	0.000000E+00
4.680000E+03	3.941465E-16	0.000000E+00
4.690000E+03	3.904707E-16	0.000000E+00
4.700000E+03	3.868188E-16	0.000000E+00
4.710000E+03	3.831984E-16	0.000000E+00
4.720000E+03	3.796058E-16	0.000000E+00
4.730000E+03	3.760409E-16	0.000000E+00
4.740000E+03	3.725076E-16	0.000000E+00
4.750000E+03	3.689987E-16	0.000000E+00
4.760000E+03	3.655254E-16	0.000000E+00
4.770000E+03	3.620767E-16	0.000000E+00
4.780000E+03	3.586601E-16	0.000000E+00
4.790000E+03	3.552762E-16	0.000000E+00
4.800000E+03	3.519176E-16	0.000000E+00
4.810000E+03	3.485886E-16	0.000000E+00
4.820000E+03	3.452928E-16	0.000000E+00
4.830000E+03	3.420236E-16	0.000000E+00
4.840000E+03	3.387850E-16	0.000000E+00
4.850000E+03	3.355772E-16	0.000000E+00
4.860000E+03	3.323975E-16	0.000000E+00
4.870000E+03	3.292462E-16	0.000000E+00
4.880000E+03	3.261272E-16	0.000000E+00
4.890000E+03	3.230378E-16	0.000000E+00
4.900000E+03	3.199817E-16	0.000000E+00
4.910000E+03	3.169530E-16	0.000000E+00
4.920000E+03	3.139555E-16	0.000000E+00
4.930000E+03	3.109900E-16	0.000000E+00
4.940000E+03	3.080538E-16	0.000000E+00
4.950000E+03	3.051508E-16	0.000000E+00
4.960000E+03	3.022787E-16	0.000000E+00
4.970000E+03	2.994411E-16	0.000000E+00
4.980000E+03	2.966359E-16	0.000000E+00
4.990000E+03	2.938638E-16	0.000000E+00
5.000000E+03	2.911226E-16	0.000000E+00
5.010000E+03	2.884190E-16	0.000000E+00
5.020000E+03	2.857481E-16	0.000000E+00
5.030000E+03	2.831107E-16	0.000000E+00
5.040000E+03	2.805107E-16	0.000000E+00
5.050000E+03	2.779460E-16	0.000000E+00
5.060000E+03	2.754177E-16	0.000000E+00
5.070000E+03	2.729266E-16	0.000000E+00
5.080000E+03	2.704738E-16	0.000000E+00
5.090000E+03	2.680577E-16	0.000000E+00
5.100000E+03	2.656791E-16	0.000000E+00
5.110000E+03	2.633418E-16	0.000000E+00
5.120000E+03	2.610417E-16	0.000000E+00
5.130000E+03	2.587851E-16	0.000000E+00
5.140000E+03	2.565653E-16	0.000000E+00
5.150000E+03	2.543886E-16	0.000000E+00
5.160000E+03	2.522537E-16	0.000000E+00
5.170000E+03	2.501618E-16	0.000000E+00
5.180000E+03	2.481141E-16	0.000000E+00
5.190000E+03	2.461093E-16	0.000000E+00
5.200000E+03	2.441486E-16	0.000000E+00
5.210000E+03	2.422310E-16	0.000000E+00
5.220000E+03	2.403625E-16	0.000000E+00
5.230000E+03	2.385373E-16	0.000000E+00
5.240000E+03	2.367592E-16	0.000000E+00
5.250000E+03	2.350293E-16	0.000000E+00
5.260000E+03	2.333492E-16	0.000000E+00
5.270000E+03	2.317155E-16	0.000000E+00
5.280000E+03	2.301320E-16	0.000000E+00
5.290000E+03	2.285976E-16	0.000000E+00
5.300000E+03	2.271139E-16	0.000000E+00
5.310000E+03	2.256799E-16	0.000000E+00
5.320000E+03	2.242992E-16	0.000000E+00
5.330000E+03	2.229689E-16	0.000000E+00
5.340000E+03	2.216901E-16	0.000000E+00
5.350000E+03	2.204622E-16	0.000000E+00
5.360000E+03	2.192887E-16	0.000000E+00
5.370000E+03	2.181641E-16	0.000000E+00
5.380000E+03	2.170919E-16	0.000000E+00
5.390000E+03	2.160714E-16	0.000000E+00
5.400000E+03	2.151014E-16	0.000000E+00
5.410000E+03	2.141764E-16	0.000000E+00
5.420000E+03	2.132957E-16	0.000000E+00
5.430000E+03	2.124579E-16	0.000000E+00
5.440000E+03	2.116533E-16	0.000000E+00
5.450000E+03	2.108807E-16	0.000000E+00
5.460000E+03	2.101324E-16	0.000000E+00
5.470000E+03	2.094048E-16	0.000000E+00
5.480000E+03	2.087047E-16	0.000000E+00
5.490000E+03	2.080301E-16	0.000000E+00
5.500000E+03	2.073876E-16	0.000000E+00
5.510000E+03	2.067788E-16	0.000000E+00
5.520000E+03	2.062120E-16	0.000000E+00
5.530000E+03	2.056844E-16	0.000000E+00
5.540000E+03	2.051994E-16	0.000000E+00
5.550000E+03	2.047564E-16	0.000000E+00
5.560000E+03	2.043606E-16	0.000000E+00
5.570000E+03	2.040088E-16	0.000000E+00
5.580000E+03	2.037020E-16	0.000000E+00
5.590000E+03	2.034391E-16	0.000000E+00
5.600000E+03	2.032226E-16	0.000000E+00
5.610000E+03	2.030495E-16	0.000000E+00
5.620000E+03	2.029202E-16	0.000000E+00
5.630000E+03	2.028354E-16	0.000000E+00
5.640000E+03	2.027938E-16	0.000000E+00
5.650000E+03	2.027958E-16	0.000000E+00
5.660000E+03	2.028379E-16	0.000000E+00
5.670000E+03	2.029207E-16	0.000000E+00
5.680000E+03	2.030448E-16	0.000000E+00
5.690000E+03	2.032088E-16	0.000000E+00
5.700000E+03	2.034110E-16	0.000000E+00
5.710000E+03	2.036502E-16	0.000000E+00
5.720000E+03	2.039293E-16	0.000000E+00
5.730000E+03	2.042422E-16	0.000000E+00
5.740000E+03	2.045922E-16	0.000000E+00
5.750000E+03	2.049777E-16	0.000000E+00
5.760000E+03	2.053953E-16	0.000000E+00
5.770000E+03	2.058459E-16	0.000000E+00
5.780000E+03	2.063302E-16	0.000000E+00
5.790000E+03	2.068450E-16	0.000000E+00
5.800000E+03	2.073890E-16	0.000000E+00
5.810000E+03	2.079652E-16	0.000000E+00
5.820000E+03	2.085683E-16	0.000000E+00
5.830000E+03	2.091992E-16	0.000000E+00
5.840000E+03	2.098567E-16	0.000000E+00
5.850000E+03	2.105398E-16	0.000000E+00
5.860000E+03	2.112496E-16	0.000000E+00
5.870000E+03	2.119806E-16	0.000000E+00
5.880000E+03	2.127362E-16	0.000000E+00
5.890000E+03	2.135131E-16	0.000000E+00
5.900000E+03	2.143101E-16	0.000000E+00
5.910000E+03	2.151264E-16	0.000000E+00
5.920000E+03	2.159608E-16	0.000000E+00
5.930000E+03	2.168148E-16	0.000000E+00
5.940000E+03	2.176825E-16	0.000000E+00
5.950000E+03	2.185629E-16	0.000000E+00
5.960000E+03	2.194574E-16	0.000000E+00
5.970000E+03	2.203651E-16	0.000000E+00
5.980000E+03	2.212797E-16	0.000000E+00
5.990000E+03	2.222054E-16	0.000000E+00
6.000000E+03	2.231335E-16	0.000000E+00
6.010000E+03	2.240705E-16	0.000000E+00
6.020000E+03	2.250077E-16	0.000000E+00
6.030000E+03	2.259439E-16	0.000000E+00
6.040000E+03	2.268805E-16	0.000000E+00
6.050000E+03	2.278139E-16	0.000000E+00
6.060000E+03	2.287426E-16	0.000000E+00
6.070000E+03	2.296602E-16	0.000000E+00
6.080000E+03	2.305707E-16	0.000000E+00
6.090000E+03	2.314648E-16	0.000000E+00
6.100000E+03	2.323463E-16	0.000000E+00
6.110000E+03	2.332114E-16	0.000000E+00
6.120000E+03	2.340558E-16	0.000000E+00
6.130000E+03	2.348780E-16	0.000000E+00
6.140000E+03	2.356795E-16	0.000000E+00
6.150000E+03	2.364559E-16	0.000000E+00
6.160000E+03	2.372057E-16	0.000000E+00
6.170000E+03	2.379333E-16	0.000000E+00
6.180000E+03	2.386316E-16	0.000000E+00
6.190000E+03	2.393018E-16	0.000000E+00
6.200000E+03	2.399456E-16	0.000000E+00
6.210000E+03	2.405648E-16	0.000000E+00
6.220000E+03	2.411549E-16	0.000000E+00
6.230000E+03	2.417143E-16	0.000000E+00
6.240000E+03	2.422451E-16	0.000000E+00
6.250000E+03	2.427426E-16	0.000000E+00
6.260000E+03	2.432086E-16	0.000000E+00
6.270000E+03	2.436417E-16	0.000000E+00
6.280000E+03	2.440438E-16	0.000000E+00
6.290000E+03	2.444139E-16	0.000000E+00
6.300000E+03	2.447504E-16	0.000000E+00
6.310000E+03	2.450555E-16	0.000000E+00
6.320000E+03	2.453315E-16	0.000000E+00
6.330000E+03	2.455737E-16	0.000000E+00
6.340000E+03	2.457846E-16	0.000000E+00
6.350000E+03	2.459664E-16	0.000000E+00
6.360000E+03	2.461147E-16	0.000000E+00
6.370000E+03	2.462353E-16	0.000000E+00
6.380000E+03	2.463276E-16	0.000000E+00
6.390000E+03	2.463906E-16	0.000000E+00
6.400000E+03	2.464234E-16	0.000000E+00
6.410000E+03	2.464324E-16	0.000000E+00
6.420000E+03	2.464133E-16	0.000000E+00
6.430000E+03	2.463728E-16	0.000000E+00
6.440000E+03	2.463102E-16	0.000000E+00
6.450000E+03	2.462252E-16	0.000000E+00
6.460000E+03	2.461209E-16	0.000000E+00
6.470000E+03	2.459969E-16	0.000000E+00
6.480000E+03	2.458566E-16	0.000000E+00
6.490000E+03	2.456922E-16	0.000000E+00
6.500000E+03	2.455110E-16	0.000000E+00
6.510000E+03	2.453128E-16	0.000000E+00
6.520000E+03	2.450936E-16	0.000000E+00
6.530000E+03	2.448569E-16	0.000000E+00
6.540000E+03	2.446027E-16	0.000000E+00
6.550000E+03	2.443311E-16	0.000000E+00
6.560000E+03	2.440417E-16	0.000000E+00
6.570000E+03	2.437387E-16	0.000000E+00
6.580000E+03	2.434182E-16	0.000000E+00
6.590000E+03	2.430802E-16	0.000000E+00
6.600000E+03	2.427288E-16	0.000000E+00
6.610000E+03	2.423640E-16	0.000000E+00
6.620000E+03	2.419824E-16	0.000000E+00
6.630000E+03	2.415878E-16	0.000000E+00
6.640000E+03	2.411766E-16	0.000000E+00
6.650000E+03	2.407573E-16	0.000000E+00
6.660000E+03	2.403219E-16	0.000000E+00
6.670000E+03	2.398709E-16	0.000000E+00
6.680000E+03	2.394088E-16	0.000000E+00
6.690000E+03	2.389358E-16	0.000000E+00
6.700000E+03	2.384482E-16	0.000000E+00
6.710000E+03	2.379467E-16	0.000000E+00
6.720000E+03	2.374356E-16	0.000000E+00
6.730000E+03	2.369114E-16	0.000000E+00
6.740000E+03	2.363790E-16	0.000000E+00
6.750000E+03	2.358302E-16	0.000000E+00
6.760000E+03	2.352740E-16	0.000000E+00
6.770000E+03	2.347027E-16	0.000000E+00
6.780000E+03	2.341253E-16	0.000000E+00
6.790000E+03	2.335337E-16	0.000000E+00
6.800000E+03	2.329331E-16	0.000000E+00
6.810000E+03	2.323239E-16	0.000000E+00
6.820000E+03	2.317024E-16	0.000000E+00
6.830000E+03	2.310736E-16	0.000000E+00
6.840000E+03	2.304338E-16	0.000000E+00
6.850000E+03	2.297881E-16	0.000000E+00
6.860000E+03	2.291283E-16	0.000000E+00
6.870000E+03	2.284637E-16	0.000000E+00
6.880000E+03	2.277908E-16	0.000000E+00
6.890000E+03	2.271102E-16	0.000000E+00
6.900000E+03	2.264181E-16	0.000000E+00
6.910000E+03	2.257240E-16	0.000000E+00
6.920000E+03	2.250154E-16	0.000000E+00
6.930000E+03	2.243060E-16	0.000000E+00
6.940000E+03	2.235877E-16	0.000000E+00
6.950000E+03	2.228612E-16	0.000000E+00
6.960000E+03	2.221315E-16	0.000000E+00
6.970000E+03	2.213948E-16	0.000000E+00
6.980000E+03	2.206518E-16	0.000000E+00
6.990000E+03	2.199031E-16	0.000000E+00
7.000000E+03	2.191493E-16	0.000000E+00
7.010000E+03	2.183909E-16	0.000000E+00
7.020000E+03	2.176244E-16	0.000000E+00
7.030000E+03	2.168588E-16	0.000000E+00
7.040000E+03	2.160819E-16	0.000000E+00
7.050000E+03	2.153070E-16	0.000000E+00
7.060000E+03	2.145219E-16	0.000000E+00
7.070000E+03	2.137359E-16	0.000000E+00
7.080000E+03	2.129449E-16	0.000000E+00
7.090000E+03	2.121498E-16	0.000000E+00
7.100000E+03	2.113552E-16	0.000000E+00
7.110000E+03	2.105532E-16	0.000000E+00
7.120000E+03	2.097484E-16	0.000000E+00
7.130000E+03	2.089374E-16	0.000000E+00
7.140000E+03	2.081247E-16	0.000000E+00
7.150000E+03	2.073109E-16	0.000000E+00
7.160000E+03	2.064923E-16	0.000000E+00
7.170000E+03	2.056736E-16	0.000000E+00
7.180000E+03	2.048469E-16	0.000000E+00
7.190000E+03	2.040211E-16	0.000000E+00
7.200000E+03	2.031924E-16	0.000000E+00
7.210000E+03	2.023573E-16	0.000000E+00
7.220000E+03	2.015203E-16	0.000000E+00
7.230000E+03	2.006820E-16	0.000000E+00
7.240000E+03	1.998388E-16	0.000000E+00
7.250000E+03	1.989910E-16	0.000000E+00
7.260000E+03	1.981393E-16	0.000000E+00
7.270000E+03	1.972841E-16	0.000000E+00
7.280000E+03	1.964259E-16	0.000000E+00
7.290000E+03	1.955571E-16	0.000000E+00
7.300000E+03	1.946864E-16	0.000000E+00
7.310000E+03	1.938101E-16	0.000000E+00
7.320000E+03	1.929247E-16	0.000000E+00
7.330000E+03	1.920349E-16	0.000000E+00
7.340000E+03	1.911331E-16	0.000000E+00
7.350000E+03	1.902200E-16	0.000000E+00
7.360000E+03	1.892960E-16	0.000000E+00
7.370000E+03	1.883578E-16	0.000000E+00
7.380000E+03	1.874100E-16	0.000000E+00
7.390000E+03	1.864412E-16	0.000000E+00
7.400000E+03	1.854602E-16	0.000000E+00
7.410000E+03	1.844595E-16	0.000000E+00
7.420000E+03	1.834438E-16	0.000000E+00
7.430000E+03	1.824098E-16	0.000000E+00
7.440000E+03	1.813581E-16	0.000000E+00
7.450000E+03	1.802934E-16	0.000000E+00
7.460000E+03	1.792122E-16	0.000000E+00
7.470000E+03	1.781269E-16	0.000000E+00
7.480000E+03	1.770301E-16	0.000000E+00
7.490000E+03	1.759302E-16	0.000000E+00
7.500000E+03	1.748239E-16	0.000000E+00
7.510000E+03	1.737228E-16	0.000000E+00
7.520000E+03	1.726239E-16	0.000000E+00
7.530000E+03	1.715273E-16	0.000000E+00
7.540000E+03	1.704374E-16	0.000000E+00
7.550000E+03	1.693544E-16	0.000000E+00
7.560000E+03	1.682861E-16	0.000000E+00
7.570000E+03	1.672255E-16	0.000000E+00
7.580000E+03	1.661766E-16	0.000000E+00
7.590000E+03	1.651432E-16	0.000000E+00
7.600000E+03	1.641220E-16	0.000000E+00
7.610000E+03	1.631169E-16	0.000000E+00
7.620000E+03	1.621246E-16	0.000000E+00
7.630000E+03	1.611525E-16	0.000000E+00
7.640000E+03	1.601935E-16	0.000000E+00
7.650000E+03	1.592552E-16	0.000000E+00
7.660000E+03	1.583306E-16	0.000000E+00
7.670000E+03	1.574269E-16	0.000000E+00
7.680000E+03	1.565373E-16	0.000000E+00
7.690000E+03	1.556691E-16	0.000000E+00
7.700000E+03	1.548189E-16	0.000000E+00
7.710000E+03	1.539869E-16	0.000000E+00
7.720000E+03	1.531733E-16	0.000000E+00
7.730000E+03	1.523782E-16	0.000000E+00
7.740000E+03	1.516019E-16	0.000000E+00
7.750000E+03	1.508411E-16	0.000000E+00
7.760000E+03	1.501029E-16	0.000000E+00
