#wls	flux	fluxerr
1.600000E+03	2.617327E-16	1.736528E-17
1.640000E+03	2.710246E-16	1.788194E-17
1.680000E+03	2.808759E-16	1.842617E-17
1.720000E+03	2.912981E-16	1.899780E-17
1.760000E+03	3.023265E-16	1.959817E-17
1.800000E+03	3.140198E-16	2.023004E-17
1.840000E+03	3.263282E-16	2.088906E-17
1.880000E+03	3.393298E-16	2.157909E-17
1.920000E+03	3.530197E-16	2.229856E-17
1.960000E+03	3.673885E-16	2.304559E-17
2.000000E+03	3.823958E-16	2.381635E-17
2.040000E+03	3.980228E-16	2.460836E-17
2.080000E+03	4.141933E-16	2.541561E-17
2.120000E+03	4.307745E-16	2.622877E-17
2.160000E+03	4.477084E-16	2.704324E-17
2.200000E+03	4.648300E-16	2.784809E-17
2.240000E+03	4.819985E-16	2.863413E-17
2.280000E+03	4.991235E-16	2.939544E-17
2.320000E+03	5.161646E-16	3.012917E-17
2.360000E+03	5.331538E-16	3.083677E-17
2.400000E+03	5.501439E-16	3.152080E-17
2.440000E+03	5.671814E-16	3.218336E-17
2.480000E+03	5.843797E-16	3.283020E-17
2.520000E+03	6.017700E-16	3.346226E-17
2.560000E+03	6.194243E-16	3.408260E-17
2.600000E+03	6.373349E-16	3.468983E-17
2.640000E+03	6.555120E-16	3.528348E-17
2.680000E+03	6.739145E-16	3.586036E-17
2.720000E+03	6.924990E-16	3.641723E-17
2.760000E+03	7.112214E-16	3.695095E-17
2.800000E+03	7.300162E-16	3.745740E-17
2.840000E+03	7.488212E-16	3.793280E-17
2.880000E+03	7.676208E-16	3.837590E-17
2.920000E+03	7.863622E-16	3.878369E-17
2.960000E+03	8.050991E-16	3.915852E-17
3.000000E+03	8.238291E-16	3.949994E-17
3.010000E+03	8.285390E-16	3.958141E-17
3.020000E+03	8.332401E-16	3.966035E-17
3.030000E+03	8.379320E-16	3.973676E-17
3.040000E+03	8.426511E-16	3.981236E-17
3.050000E+03	8.473774E-16	3.988618E-17
3.060000E+03	8.521103E-16	3.995819E-17
3.070000E+03	8.568668E-16	4.002919E-17
3.080000E+03	8.616280E-16	4.009826E-17
3.090000E+03	8.663928E-16	4.016537E-17
3.100000E+03	8.711970E-16	4.023215E-17
3.110000E+03	8.760031E-16	4.029686E-17
3.120000E+03	8.808288E-16	4.036031E-17
3.130000E+03	8.856554E-16	4.042163E-17
3.140000E+03	8.905356E-16	4.048321E-17
3.150000E+03	8.954154E-16	4.054259E-17
3.160000E+03	9.003125E-16	4.060056E-17
3.170000E+03	9.052433E-16	4.065784E-17
3.180000E+03	9.102074E-16	4.071440E-17
3.190000E+03	9.151702E-16	4.076869E-17
3.200000E+03	9.201825E-16	4.082295E-17
3.210000E+03	9.252102E-16	4.087566E-17
3.220000E+03	9.302700E-16	4.092753E-17
3.230000E+03	9.353452E-16	4.097783E-17
3.240000E+03	9.404524E-16	4.102727E-17
3.250000E+03	9.455917E-16	4.107584E-17
3.260000E+03	9.507633E-16	4.112354E-17
3.270000E+03	9.559510E-16	4.116965E-17
3.280000E+03	9.611716E-16	4.121489E-17
3.290000E+03	9.664255E-16	4.125926E-17
3.300000E+03	9.716973E-16	4.130210E-17
3.310000E+03	9.770037E-16	4.134410E-17
3.320000E+03	9.823297E-16	4.138462E-17
3.330000E+03	9.876917E-16	4.142435E-17
3.340000E+03	9.930754E-16	4.146266E-17
3.350000E+03	9.984817E-16	4.149961E-17
3.360000E+03	1.003912E-15	4.153524E-17
3.370000E+03	1.009368E-15	4.156959E-17
3.380000E+03	1.014850E-15	4.160273E-17
3.390000E+03	1.020346E-15	4.163410E-17
3.400000E+03	1.025872E-15	4.166438E-17
3.410000E+03	1.031399E-15	4.169244E-17
3.420000E+03	1.036961E-15	4.171956E-17
3.430000E+03	1.042528E-15	4.174463E-17
3.440000E+03	1.048104E-15	4.176775E-17
3.450000E+03	1.053691E-15	4.178903E-17
3.460000E+03	1.059277E-15	4.180800E-17
3.470000E+03	1.064878E-15	4.182534E-17
3.480000E+03	1.070483E-15	4.184060E-17
3.490000E+03	1.076081E-15	4.185336E-17
3.500000E+03	1.081674E-15	4.186374E-17
3.510000E+03	1.087251E-15	4.187135E-17
3.520000E+03	1.092829E-15	4.187686E-17
3.530000E+03	1.098371E-15	4.187883E-17
3.540000E+03	1.103892E-15	4.187796E-17
3.550000E+03	1.109383E-15	4.187389E-17
3.560000E+03	1.114846E-15	4.186678E-17
3.570000E+03	1.120259E-15	4.185581E-17
3.580000E+03	1.125612E-15	4.184066E-17
3.590000E+03	1.130922E-15	4.182203E-17
3.600000E+03	1.136152E-15	4.179865E-17
3.610000E+03	1.141319E-15	4.177121E-17
3.620000E+03	1.146415E-15	4.173944E-17
3.630000E+03	1.151417E-15	4.170260E-17
3.640000E+03	1.156315E-15	4.166046E-17
3.650000E+03	1.161114E-15	4.161326E-17
3.660000E+03	1.165793E-15	4.156032E-17
3.670000E+03	1.170366E-15	4.150231E-17
3.680000E+03	1.174801E-15	4.143815E-17
3.690000E+03	1.179102E-15	4.136807E-17
3.700000E+03	1.183258E-15	4.129190E-17
3.710000E+03	1.187275E-15	4.120988E-17
3.720000E+03	1.191130E-15	4.112140E-17
3.730000E+03	1.194827E-15	4.102671E-17
3.740000E+03	1.198358E-15	4.092565E-17
3.750000E+03	1.201724E-15	4.081845E-17
3.760000E+03	1.204918E-15	4.070496E-17
3.770000E+03	1.207942E-15	4.058541E-17
3.780000E+03	1.210786E-15	4.045964E-17
3.790000E+03	1.213442E-15	4.032748E-17
3.800000E+03	1.215936E-15	4.018996E-17
3.810000E+03	1.218233E-15	4.004613E-17
3.820000E+03	1.220348E-15	3.989658E-17
3.830000E+03	1.222295E-15	3.974193E-17
3.840000E+03	1.224052E-15	3.958161E-17
3.850000E+03	1.225619E-15	3.941583E-17
3.860000E+03	1.227011E-15	3.924516E-17
3.870000E+03	1.228229E-15	3.906981E-17
3.880000E+03	1.229271E-15	3.888990E-17
3.890000E+03	1.230128E-15	3.870527E-17
3.900000E+03	1.230814E-15	3.851651E-17
3.910000E+03	1.231325E-15	3.832366E-17
3.920000E+03	1.231666E-15	3.812700E-17
3.930000E+03	1.231833E-15	3.792658E-17
3.940000E+03	1.231828E-15	3.772264E-17
3.950000E+03	1.231661E-15	3.751558E-17
3.960000E+03	1.231332E-15	3.730554E-17
3.970000E+03	1.230828E-15	3.709234E-17
3.980000E+03	1.230172E-15	3.687675E-17
3.990000E+03	1.229350E-15	3.665853E-17
4.000000E+03	1.228374E-15	3.643815E-17
4.010000E+03	1.227241E-15	3.621566E-17
4.020000E+03	1.225940E-15	3.599090E-17
4.030000E+03	1.224489E-15	3.576454E-17
4.040000E+03	1.222878E-15	3.553637E-17
4.050000E+03	1.221115E-15	3.530680E-17
4.060000E+03	1.219197E-15	3.507585E-17
4.070000E+03	1.217122E-15	3.484361E-17
4.080000E+03	1.214888E-15	3.461016E-17
4.090000E+03	1.212503E-15	3.437583E-17
4.100000E+03	1.209956E-15	3.414040E-17
4.110000E+03	1.207240E-15	3.390388E-17
4.120000E+03	1.204377E-15	3.366694E-17
4.130000E+03	1.201342E-15	3.342901E-17
4.140000E+03	1.198141E-15	3.319038E-17
4.150000E+03	1.194772E-15	3.295111E-17
4.160000E+03	1.191230E-15	3.271118E-17
4.170000E+03	1.187514E-15	3.247065E-17
4.180000E+03	1.183618E-15	3.222947E-17
4.190000E+03	1.179538E-15	3.198764E-17
4.200000E+03	1.175270E-15	3.174516E-17
4.210000E+03	1.170811E-15	3.150201E-17
4.220000E+03	1.166153E-15	3.125811E-17
4.230000E+03	1.161285E-15	3.101321E-17
4.240000E+03	1.156198E-15	3.076720E-17
4.250000E+03	1.150898E-15	3.052030E-17
4.260000E+03	1.145380E-15	3.027244E-17
4.270000E+03	1.139616E-15	3.002296E-17
4.280000E+03	1.133611E-15	2.977206E-17
4.290000E+03	1.127358E-15	2.951961E-17
4.300000E+03	1.120848E-15	2.926546E-17
4.310000E+03	1.114075E-15	2.900942E-17
4.320000E+03	1.107021E-15	2.875098E-17
4.330000E+03	1.099699E-15	2.849035E-17
4.340000E+03	1.092082E-15	2.822676E-17
4.350000E+03	1.084181E-15	2.796044E-17
4.360000E+03	1.075990E-15	2.769108E-17
4.370000E+03	1.067510E-15	2.741863E-17
4.380000E+03	1.058733E-15	2.714278E-17
4.390000E+03	1.049662E-15	2.686349E-17
4.400000E+03	1.040305E-15	2.658083E-17
4.410000E+03	1.030702E-15	2.629571E-17
4.420000E+03	1.020872E-15	2.600851E-17
4.430000E+03	1.010836E-15	2.571960E-17
4.440000E+03	1.000630E-15	2.542978E-17
4.450000E+03	9.902709E-16	2.513934E-17
4.460000E+03	9.797842E-16	2.484876E-17
4.470000E+03	9.692022E-16	2.455875E-17
4.480000E+03	9.585293E-16	2.426925E-17
4.490000E+03	9.477956E-16	2.398090E-17
4.500000E+03	9.370207E-16	2.369405E-17
4.510000E+03	9.262148E-16	2.340881E-17
4.520000E+03	9.153952E-16	2.312548E-17
4.530000E+03	9.045785E-16	2.284435E-17
4.540000E+03	8.937801E-16	2.256569E-17
4.550000E+03	8.830145E-16	2.228971E-17
4.560000E+03	8.722870E-16	2.201643E-17
4.570000E+03	8.616022E-16	2.174585E-17
4.580000E+03	8.509888E-16	2.147857E-17
4.590000E+03	8.404416E-16	2.121436E-17
4.600000E+03	8.299636E-16	2.095316E-17
4.610000E+03	8.195731E-16	2.069535E-17
4.620000E+03	8.092796E-16	2.044107E-17
4.630000E+03	7.990688E-16	2.018984E-17
4.640000E+03	7.889727E-16	1.994240E-17
4.650000E+03	7.789691E-16	1.969810E-17
4.660000E+03	7.690812E-16	1.945743E-17
4.670000E+03	7.593087E-16	1.922031E-17
4.680000E+03	7.496518E-16	1.898667E-17
4.690000E+03	7.401098E-16	1.875642E-17
4.700000E+03	7.306824E-16	1.852950E-17
4.710000E+03	7.213834E-16	1.830617E-17
4.720000E+03	7.122047E-16	1.808619E-17
4.730000E+03	7.031454E-16	1.786947E-17
4.740000E+03	6.942116E-16	1.765612E-17
4.750000E+03	6.853883E-16	1.744570E-17
4.760000E+03	6.766952E-16	1.723867E-17
4.770000E+03	6.681108E-16	1.703444E-17
4.780000E+03	6.596476E-16	1.683329E-17
4.790000E+03	6.513043E-16	1.663515E-17
4.800000E+03	6.430668E-16	1.643963E-17
4.810000E+03	6.349408E-16	1.624683E-17
4.820000E+03	6.269319E-16	1.605688E-17
4.830000E+03	6.190261E-16	1.586939E-17
4.840000E+03	6.112292E-16	1.568447E-17
4.850000E+03	6.035403E-16	1.550210E-17
4.860000E+03	5.959524E-16	1.532206E-17
4.870000E+03	5.884651E-16	1.514432E-17
4.880000E+03	5.810839E-16	1.496902E-17
4.890000E+03	5.738021E-16	1.479597E-17
4.900000E+03	5.666252E-16	1.462529E-17
4.910000E+03	5.595411E-16	1.445666E-17
4.920000E+03	5.525554E-16	1.429022E-17
4.930000E+03	5.456677E-16	1.412594E-17
4.940000E+03	5.388725E-16	1.396368E-17
4.950000E+03	5.321749E-16	1.380357E-17
4.960000E+03	5.255698E-16	1.364546E-17
4.970000E+03	5.190625E-16	1.348950E-17
4.980000E+03	5.126478E-16	1.333554E-17
4.990000E+03	5.063259E-16	1.318360E-17
5.000000E+03	5.000919E-16	1.303353E-17
5.010000E+03	4.939566E-16	1.288563E-17
5.020000E+03	4.879102E-16	1.273965E-17
5.030000E+03	4.819531E-16	1.259559E-17
5.040000E+03	4.760913E-16	1.245362E-17
5.050000E+03	4.703201E-16	1.231361E-17
5.060000E+03	4.646405E-16	1.217561E-17
5.070000E+03	4.590534E-16	1.203963E-17
5.080000E+03	4.535595E-16	1.190571E-17
5.090000E+03	4.481552E-16	1.177376E-17
5.100000E+03	4.428417E-16	1.164381E-17
5.110000E+03	4.376244E-16	1.151602E-17
5.120000E+03	4.324956E-16	1.139020E-17
5.130000E+03	4.274657E-16	1.126661E-17
5.140000E+03	4.225224E-16	1.114496E-17
5.150000E+03	4.176761E-16	1.102553E-17
5.160000E+03	4.129238E-16	1.090824E-17
5.170000E+03	4.082672E-16	1.079315E-17
5.180000E+03	4.037075E-16	1.068030E-17
5.190000E+03	3.992425E-16	1.056965E-17
5.200000E+03	3.948738E-16	1.046125E-17
5.210000E+03	3.905991E-16	1.035505E-17
5.220000E+03	3.864283E-16	1.025133E-17
5.230000E+03	3.823513E-16	1.014982E-17
5.240000E+03	3.783742E-16	1.005070E-17
5.250000E+03	3.744988E-16	9.954029E-18
5.260000E+03	3.707272E-16	9.859876E-18
5.270000E+03	3.670541E-16	9.768111E-18
5.280000E+03	3.634854E-16	9.678903E-18
5.290000E+03	3.600197E-16	9.592226E-18
5.300000E+03	3.566596E-16	9.508160E-18
5.310000E+03	3.534037E-16	9.426682E-18
5.320000E+03	3.502583E-16	9.347970E-18
5.330000E+03	3.472191E-16	9.271917E-18
5.340000E+03	3.442887E-16	9.198612E-18
5.350000E+03	3.414667E-16	9.128050E-18
5.360000E+03	3.387596E-16	9.060417E-18
5.370000E+03	3.361603E-16	8.995534E-18
5.380000E+03	3.336755E-16	8.933596E-18
5.390000E+03	3.313055E-16	8.874616E-18
5.400000E+03	3.290505E-16	8.818614E-18
5.410000E+03	3.269045E-16	8.765440E-18
5.420000E+03	3.248683E-16	8.715125E-18
5.430000E+03	3.229430E-16	8.667713E-18
5.440000E+03	3.211169E-16	8.622897E-18
5.450000E+03	3.193918E-16	8.580735E-18
5.460000E+03	3.177594E-16	8.541015E-18
5.470000E+03	3.162178E-16	8.503692E-18
5.480000E+03	3.147811E-16	8.469138E-18
5.490000E+03	3.134505E-16	8.437384E-18
5.500000E+03	3.122375E-16	8.408737E-18
5.510000E+03	3.111393E-16	8.383124E-18
5.520000E+03	3.101617E-16	8.360699E-18
5.530000E+03	3.092951E-16	8.341201E-18
5.540000E+03	3.085395E-16	8.324628E-18
5.550000E+03	3.078891E-16	8.310822E-18
5.560000E+03	3.073474E-16	8.299878E-18
5.570000E+03	3.069060E-16	8.291567E-18
5.580000E+03	3.065628E-16	8.285834E-18
5.590000E+03	3.063131E-16	8.282545E-18
5.600000E+03	3.061584E-16	8.281742E-18
5.610000E+03	3.060911E-16	8.283219E-18
5.620000E+03	3.061102E-16	8.286947E-18
5.630000E+03	3.062149E-16	8.292901E-18
5.640000E+03	3.064013E-16	8.300975E-18
5.650000E+03	3.066688E-16	8.311153E-18
5.660000E+03	3.070111E-16	8.323258E-18
5.670000E+03	3.074279E-16	8.337282E-18
5.680000E+03	3.079191E-16	8.353224E-18
5.690000E+03	3.084819E-16	8.371000E-18
5.700000E+03	3.091133E-16	8.390533E-18
5.710000E+03	3.098106E-16	8.411743E-18
5.720000E+03	3.105777E-16	8.434736E-18
5.730000E+03	3.114054E-16	8.459261E-18
5.740000E+03	3.122979E-16	8.485430E-18
5.750000E+03	3.132530E-16	8.513181E-18
5.760000E+03	3.142651E-16	8.542357E-18
5.770000E+03	3.153352E-16	8.572988E-18
5.780000E+03	3.164647E-16	8.605109E-18
5.790000E+03	3.176483E-16	8.638573E-18
5.800000E+03	3.188839E-16	8.673324E-18
5.810000E+03	3.201766E-16	8.709494E-18
5.820000E+03	3.215177E-16	8.746850E-18
5.830000E+03	3.229088E-16	8.785432E-18
5.840000E+03	3.243482E-16	8.825191E-18
5.850000E+03	3.258343E-16	8.866084E-18
5.860000E+03	3.273689E-16	8.908159E-18
5.870000E+03	3.289433E-16	8.951178E-18
5.880000E+03	3.305633E-16	8.995295E-18
5.890000E+03	3.322234E-16	9.040367E-18
5.900000E+03	3.339222E-16	9.086348E-18
5.910000E+03	3.356582E-16	9.133203E-18
5.920000E+03	3.374299E-16	9.180885E-18
5.930000E+03	3.392395E-16	9.229459E-18
5.940000E+03	3.410781E-16	9.278679E-18
5.950000E+03	3.429439E-16	9.328500E-18
5.960000E+03	3.448394E-16	9.378992E-18
5.970000E+03	3.467632E-16	9.430113E-18
5.980000E+03	3.487058E-16	9.481609E-18
5.990000E+03	3.506734E-16	9.533654E-18
6.000000E+03	3.526527E-16	9.585881E-18
6.010000E+03	3.546541E-16	9.638583E-18
6.020000E+03	3.566636E-16	9.691377E-18
6.030000E+03	3.586796E-16	9.744224E-18
6.040000E+03	3.607045E-16	9.797195E-18
6.050000E+03	3.627324E-16	9.850131E-18
6.060000E+03	3.647613E-16	9.902985E-18
6.070000E+03	3.667808E-16	9.955478E-18
6.080000E+03	3.687977E-16	1.000780E-17
6.090000E+03	3.707966E-16	1.005954E-17
6.100000E+03	3.727844E-16	1.011089E-17
6.110000E+03	3.747544E-16	1.016168E-17
6.120000E+03	3.766999E-16	1.021173E-17
6.130000E+03	3.786185E-16	1.026099E-17
6.140000E+03	3.805124E-16	1.030952E-17
6.150000E+03	3.823748E-16	1.035714E-17
6.160000E+03	3.842029E-16	1.040380E-17
6.170000E+03	3.860039E-16	1.044970E-17
6.180000E+03	3.877659E-16	1.049452E-17
6.190000E+03	3.894908E-16	1.053833E-17
6.200000E+03	3.911812E-16	1.058121E-17
6.210000E+03	3.928395E-16	1.062323E-17
6.220000E+03	3.944582E-16	1.066421E-17
6.230000E+03	3.960346E-16	1.070408E-17
6.240000E+03	3.975708E-16	1.074292E-17
6.250000E+03	3.990594E-16	1.078053E-17
6.260000E+03	4.005021E-16	1.081698E-17
6.270000E+03	4.018963E-16	1.085221E-17
6.280000E+03	4.032444E-16	1.088630E-17
6.290000E+03	4.045433E-16	1.091918E-17
6.300000E+03	4.057899E-16	1.095078E-17
6.310000E+03	4.069867E-16	1.098119E-17
6.320000E+03	4.081361E-16	1.101048E-17
6.330000E+03	4.092294E-16	1.103843E-17
6.340000E+03	4.102691E-16	1.106513E-17
6.350000E+03	4.112576E-16	1.109066E-17
6.360000E+03	4.121861E-16	1.111479E-17
6.370000E+03	4.130628E-16	1.113777E-17
6.380000E+03	4.138846E-16	1.115952E-17
6.390000E+03	4.146483E-16	1.117997E-17
6.400000E+03	4.153508E-16	1.119907E-17
6.410000E+03	4.160007E-16	1.121704E-17
6.420000E+03	4.165892E-16	1.123368E-17
6.430000E+03	4.171252E-16	1.124925E-17
6.440000E+03	4.176063E-16	1.126367E-17
6.450000E+03	4.180294E-16	1.127690E-17
6.460000E+03	4.183981E-16	1.128904E-17
6.470000E+03	4.187101E-16	1.130005E-17
6.480000E+03	4.189696E-16	1.131005E-17
6.490000E+03	4.191619E-16	1.131866E-17
6.500000E+03	4.192986E-16	1.132619E-17
6.510000E+03	4.193785E-16	1.133261E-17
6.520000E+03	4.193944E-16	1.133770E-17
6.530000E+03	4.193520E-16	1.134161E-17
6.540000E+03	4.192507E-16	1.134428E-17
6.550000E+03	4.190894E-16	1.134569E-17
6.560000E+03	4.188676E-16	1.134580E-17
6.570000E+03	4.185913E-16	1.134475E-17
6.580000E+03	4.182537E-16	1.134235E-17
6.590000E+03	4.178546E-16	1.133857E-17
6.600000E+03	4.174010E-16	1.133358E-17
6.610000E+03	4.168933E-16	1.132738E-17
6.620000E+03	4.163251E-16	1.131977E-17
6.630000E+03	4.157039E-16	1.131095E-17
6.640000E+03	4.150236E-16	1.130072E-17
6.650000E+03	4.142992E-16	1.128948E-17
6.660000E+03	4.135180E-16	1.127686E-17
6.670000E+03	4.126810E-16	1.126288E-17
6.680000E+03	4.117969E-16	1.124775E-17
6.690000E+03	4.108670E-16	1.123150E-17
6.700000E+03	4.098858E-16	1.121395E-17
6.710000E+03	4.088551E-16	1.119515E-17
6.720000E+03	4.077839E-16	1.117531E-17
6.730000E+03	4.066668E-16	1.115428E-17
6.740000E+03	4.055127E-16	1.113229E-17
6.750000E+03	4.043097E-16	1.110899E-17
6.760000E+03	4.030739E-16	1.108482E-17
6.770000E+03	4.017930E-16	1.105941E-17
6.780000E+03	4.004837E-16	1.103322E-17
6.790000E+03	3.991335E-16	1.100589E-17
6.800000E+03	3.977521E-16	1.097767E-17
6.810000E+03	3.963414E-16	1.094861E-17
6.820000E+03	3.948963E-16	1.091855E-17
6.830000E+03	3.934265E-16	1.088775E-17
6.840000E+03	3.919268E-16	1.085605E-17
6.850000E+03	3.904066E-16	1.082370E-17
6.860000E+03	3.888536E-16	1.079036E-17
6.870000E+03	3.872843E-16	1.075647E-17
6.880000E+03	3.856938E-16	1.072189E-17
6.890000E+03	3.840838E-16	1.068666E-17
6.900000E+03	3.824494E-16	1.065062E-17
6.910000E+03	3.808068E-16	1.061424E-17
6.920000E+03	3.791363E-16	1.057695E-17
6.930000E+03	3.774616E-16	1.053940E-17
6.940000E+03	3.757698E-16	1.050124E-17
6.950000E+03	3.740629E-16	1.046251E-17
6.960000E+03	3.723495E-16	1.042345E-17
6.970000E+03	3.706245E-16	1.038390E-17
6.980000E+03	3.688890E-16	1.034391E-17
6.990000E+03	3.671448E-16	1.030352E-17
7.000000E+03	3.653934E-16	1.026275E-17
7.010000E+03	3.636360E-16	1.022166E-17
7.020000E+03	3.618668E-16	1.018006E-17
7.030000E+03	3.601015E-16	1.013841E-17
7.040000E+03	3.583199E-16	1.009613E-17
7.050000E+03	3.565445E-16	1.005386E-17
7.060000E+03	3.547550E-16	1.001102E-17
7.070000E+03	3.529667E-16	9.968044E-18
7.080000E+03	3.511738E-16	9.924767E-18
7.090000E+03	3.493770E-16	9.881214E-18
7.100000E+03	3.475843E-16	9.837610E-18
7.110000E+03	3.457826E-16	9.793586E-18
7.120000E+03	3.439799E-16	9.749371E-18
7.130000E+03	3.421699E-16	9.704787E-18
7.140000E+03	3.403605E-16	9.660064E-18
7.150000E+03	3.385525E-16	9.615221E-18
7.160000E+03	3.367398E-16	9.570094E-18
7.170000E+03	3.349299E-16	9.524893E-18
7.180000E+03	3.331101E-16	9.479268E-18
7.190000E+03	3.312946E-16	9.433623E-18
7.200000E+03	3.294775E-16	9.387792E-18
7.210000E+03	3.276528E-16	9.341610E-18
7.220000E+03	3.258281E-16	9.295300E-18
7.230000E+03	3.240040E-16	9.248882E-18
7.240000E+03	3.221747E-16	9.202196E-18
7.250000E+03	3.203411E-16	9.155274E-18
7.260000E+03	3.185041E-16	9.108143E-18
7.270000E+03	3.166645E-16	9.060834E-18
7.280000E+03	3.148232E-16	9.013376E-18
7.290000E+03	3.129678E-16	8.965426E-18
7.300000E+03	3.111127E-16	8.917396E-18
7.310000E+03	3.092523E-16	8.869134E-18
7.320000E+03	3.073809E-16	8.820482E-18
7.330000E+03	3.055061E-16	8.771667E-18
7.340000E+03	3.036163E-16	8.722359E-18
7.350000E+03	3.017126E-16	8.672596E-18
7.360000E+03	2.997961E-16	8.622416E-18
7.370000E+03	2.978618E-16	8.571684E-18
7.380000E+03	2.959172E-16	8.520621E-18
7.390000E+03	2.939448E-16	8.468728E-18
7.400000E+03	2.919585E-16	8.416413E-18
7.410000E+03	2.899471E-16	8.363361E-18
7.420000E+03	2.879184E-16	8.309798E-18
7.430000E+03	2.858673E-16	8.255590E-18
7.440000E+03	2.837954E-16	8.200786E-18
7.450000E+03	2.817102E-16	8.145606E-18
7.460000E+03	2.796067E-16	8.089918E-18
7.470000E+03	2.775041E-16	8.034284E-18
7.480000E+03	2.753920E-16	7.978403E-18
7.490000E+03	2.732830E-16	7.922654E-18
7.500000E+03	2.711725E-16	7.866906E-18
7.510000E+03	2.690788E-16	7.811701E-18
7.520000E+03	2.669971E-16	7.756906E-18
7.530000E+03	2.649281E-16	7.702547E-18
7.540000E+03	2.628785E-16	7.648831E-18
7.550000E+03	2.608487E-16	7.595775E-18
7.560000E+03	2.588511E-16	7.543746E-18
7.570000E+03	2.568745E-16	7.492431E-18
7.580000E+03	2.549254E-16	7.442025E-18
7.590000E+03	2.530098E-16	7.392712E-18
7.600000E+03	2.511225E-16	7.344349E-18
7.610000E+03	2.492694E-16	7.297119E-18
7.620000E+03	2.474453E-16	7.250877E-18
7.630000E+03	2.456619E-16	7.205972E-18
7.640000E+03	2.439081E-16	7.162090E-18
7.650000E+03	2.421953E-16	7.119579E-18
7.660000E+03	2.405128E-16	7.078126E-18
7.670000E+03	2.388716E-16	7.038072E-18
7.680000E+03	2.372611E-16	6.999106E-18
7.690000E+03	2.356924E-16	6.961569E-18
7.700000E+03	2.341600E-16	6.925310E-18
7.710000E+03	2.326642E-16	6.890344E-18
7.720000E+03	2.312049E-16	6.856683E-18
7.730000E+03	2.297824E-16	6.824337E-18
7.740000E+03	2.283967E-16	6.793324E-18
7.750000E+03	2.270423E-16	6.763489E-18
7.760000E+03	2.257302E-16	6.735166E-18
