#wls	flux	fluxerr
1.600000E+03	2.675523E-16	8.778255E-18
1.640000E+03	2.777505E-16	9.082594E-18
1.680000E+03	2.885965E-16	9.405089E-18
1.720000E+03	3.001094E-16	9.746048E-18
1.760000E+03	3.123331E-16	1.010656E-17
1.800000E+03	3.253362E-16	1.048848E-17
1.840000E+03	3.390754E-16	1.089002E-17
1.880000E+03	3.536406E-16	1.131365E-17
1.920000E+03	3.690356E-16	1.175906E-17
1.960000E+03	3.852598E-16	1.222575E-17
2.000000E+03	4.022796E-16	1.271219E-17
2.040000E+03	4.200835E-16	1.321754E-17
2.080000E+03	4.385988E-16	1.373902E-17
2.120000E+03	4.576913E-16	1.427197E-17
2.160000E+03	4.773040E-16	1.481418E-17
2.200000E+03	4.972638E-16	1.535989E-17
2.240000E+03	5.174205E-16	1.590411E-17
2.280000E+03	5.376750E-16	1.644352E-17
2.320000E+03	5.579790E-16	1.697639E-17
2.360000E+03	5.783620E-16	1.750339E-17
2.400000E+03	5.988739E-16	1.802576E-17
2.440000E+03	6.195574E-16	1.854450E-17
2.480000E+03	6.405274E-16	1.906272E-17
2.520000E+03	6.618078E-16	1.958077E-17
2.560000E+03	6.834660E-16	2.010023E-17
2.600000E+03	7.054793E-16	2.062001E-17
2.640000E+03	7.278426E-16	2.113953E-17
2.680000E+03	7.504909E-16	2.165650E-17
2.720000E+03	7.733533E-16	2.216848E-17
2.760000E+03	7.963542E-16	2.267296E-17
2.800000E+03	8.193912E-16	2.316673E-17
2.840000E+03	8.423625E-16	2.364668E-17
2.880000E+03	8.652156E-16	2.411115E-17
2.920000E+03	8.878548E-16	2.455736E-17
2.960000E+03	9.103037E-16	2.498587E-17
3.000000E+03	9.325225E-16	2.539552E-17
3.010000E+03	9.380692E-16	2.549574E-17
3.020000E+03	9.435897E-16	2.559445E-17
3.030000E+03	9.490824E-16	2.569162E-17
3.040000E+03	9.545883E-16	2.578834E-17
3.050000E+03	9.600845E-16	2.588401E-17
3.060000E+03	9.655693E-16	2.597857E-17
3.070000E+03	9.710622E-16	2.607254E-17
3.080000E+03	9.765408E-16	2.616532E-17
3.090000E+03	9.820039E-16	2.625689E-17
3.100000E+03	9.874913E-16	2.634829E-17
3.110000E+03	9.929606E-16	2.643840E-17
3.120000E+03	9.984311E-16	2.652772E-17
3.130000E+03	1.003882E-15	2.661571E-17
3.140000E+03	1.009372E-15	2.670392E-17
3.150000E+03	1.014840E-15	2.679073E-17
3.160000E+03	1.020306E-15	2.687666E-17
3.170000E+03	1.025789E-15	2.696221E-17
3.180000E+03	1.031288E-15	2.704735E-17
3.190000E+03	1.036763E-15	2.713104E-17
3.200000E+03	1.042273E-15	2.721480E-17
3.210000E+03	1.047779E-15	2.729762E-17
3.220000E+03	1.053299E-15	2.737999E-17
3.230000E+03	1.058816E-15	2.746141E-17
3.240000E+03	1.064348E-15	2.754239E-17
3.250000E+03	1.069897E-15	2.762293E-17
3.260000E+03	1.075461E-15	2.770303E-17
3.270000E+03	1.081024E-15	2.778226E-17
3.280000E+03	1.086606E-15	2.786111E-17
3.290000E+03	1.092207E-15	2.793959E-17
3.300000E+03	1.097811E-15	2.801728E-17
3.310000E+03	1.103438E-15	2.809467E-17
3.320000E+03	1.109071E-15	2.817137E-17
3.330000E+03	1.114731E-15	2.824789E-17
3.340000E+03	1.120402E-15	2.832379E-17
3.350000E+03	1.126086E-15	2.839915E-17
3.360000E+03	1.131787E-15	2.847406E-17
3.370000E+03	1.137508E-15	2.854858E-17
3.380000E+03	1.143251E-15	2.862278E-17
3.390000E+03	1.149004E-15	2.869634E-17
3.400000E+03	1.154787E-15	2.876975E-17
3.410000E+03	1.160570E-15	2.884226E-17
3.420000E+03	1.166393E-15	2.891485E-17
3.430000E+03	1.172224E-15	2.898678E-17
3.440000E+03	1.178071E-15	2.905817E-17
3.450000E+03	1.183938E-15	2.912914E-17
3.460000E+03	1.189813E-15	2.919944E-17
3.470000E+03	1.195721E-15	2.926960E-17
3.480000E+03	1.201647E-15	2.933932E-17
3.490000E+03	1.207584E-15	2.940838E-17
3.500000E+03	1.213540E-15	2.947698E-17
3.510000E+03	1.219502E-15	2.954482E-17
3.520000E+03	1.225496E-15	2.961249E-17
3.530000E+03	1.231480E-15	2.967903E-17
3.540000E+03	1.237477E-15	2.974496E-17
3.550000E+03	1.243478E-15	2.981008E-17
3.560000E+03	1.249494E-15	2.987461E-17
3.570000E+03	1.255497E-15	2.993795E-17
3.580000E+03	1.261485E-15	3.000000E-17
3.590000E+03	1.267477E-15	3.006121E-17
3.600000E+03	1.273437E-15	3.012079E-17
3.610000E+03	1.279387E-15	3.017921E-17
3.620000E+03	1.285320E-15	3.023635E-17
3.630000E+03	1.291215E-15	3.029168E-17
3.640000E+03	1.297063E-15	3.034505E-17
3.650000E+03	1.302873E-15	3.039663E-17
3.660000E+03	1.308622E-15	3.044592E-17
3.670000E+03	1.314331E-15	3.049345E-17
3.680000E+03	1.319964E-15	3.053833E-17
3.690000E+03	1.325527E-15	3.058078E-17
3.700000E+03	1.331010E-15	3.062056E-17
3.710000E+03	1.336420E-15	3.065786E-17
3.720000E+03	1.341733E-15	3.069212E-17
3.730000E+03	1.346952E-15	3.072347E-17
3.740000E+03	1.352068E-15	3.075172E-17
3.750000E+03	1.357084E-15	3.077694E-17
3.760000E+03	1.361988E-15	3.079892E-17
3.770000E+03	1.366783E-15	3.081771E-17
3.780000E+03	1.371457E-15	3.083310E-17
3.790000E+03	1.375997E-15	3.084481E-17
3.800000E+03	1.380431E-15	3.085352E-17
3.810000E+03	1.384719E-15	3.085835E-17
3.820000E+03	1.388874E-15	3.085962E-17
3.830000E+03	1.392911E-15	3.085769E-17
3.840000E+03	1.396801E-15	3.085197E-17
3.850000E+03	1.400546E-15	3.084251E-17
3.860000E+03	1.404156E-15	3.082960E-17
3.870000E+03	1.407632E-15	3.081328E-17
3.880000E+03	1.410972E-15	3.079353E-17
3.890000E+03	1.414166E-15	3.077017E-17
3.900000E+03	1.417222E-15	3.074343E-17
3.910000E+03	1.420143E-15	3.071339E-17
3.920000E+03	1.422927E-15	3.068004E-17
3.930000E+03	1.425574E-15	3.064342E-17
3.940000E+03	1.428084E-15	3.060357E-17
3.950000E+03	1.430469E-15	3.056079E-17
3.960000E+03	1.432728E-15	3.051506E-17
3.970000E+03	1.434849E-15	3.046618E-17
3.980000E+03	1.436854E-15	3.041466E-17
3.990000E+03	1.438730E-15	3.036024E-17
4.000000E+03	1.440489E-15	3.030322E-17
4.010000E+03	1.442125E-15	3.024350E-17
4.020000E+03	1.443627E-15	3.018088E-17
4.030000E+03	1.445014E-15	3.011580E-17
4.040000E+03	1.446269E-15	3.004793E-17
4.050000E+03	1.447402E-15	2.997753E-17
4.060000E+03	1.448406E-15	2.990448E-17
4.070000E+03	1.449279E-15	2.982874E-17
4.080000E+03	1.450011E-15	2.975020E-17
4.090000E+03	1.450612E-15	2.966905E-17
4.100000E+03	1.451059E-15	2.958490E-17
4.110000E+03	1.451348E-15	2.949768E-17
4.120000E+03	1.451497E-15	2.940780E-17
4.130000E+03	1.451473E-15	2.931465E-17
4.140000E+03	1.451282E-15	2.921835E-17
4.150000E+03	1.450916E-15	2.911883E-17
4.160000E+03	1.450369E-15	2.901598E-17
4.170000E+03	1.449632E-15	2.890970E-17
4.180000E+03	1.448700E-15	2.879990E-17
4.190000E+03	1.447566E-15	2.868652E-17
4.200000E+03	1.446221E-15	2.856941E-17
4.210000E+03	1.444662E-15	2.844856E-17
4.220000E+03	1.442880E-15	2.832384E-17
4.230000E+03	1.440857E-15	2.819498E-17
4.240000E+03	1.438586E-15	2.806187E-17
4.250000E+03	1.436075E-15	2.792472E-17
4.260000E+03	1.433319E-15	2.778349E-17
4.270000E+03	1.430284E-15	2.763760E-17
4.280000E+03	1.426981E-15	2.748729E-17
4.290000E+03	1.423403E-15	2.733252E-17
4.300000E+03	1.419547E-15	2.717323E-17
4.310000E+03	1.415407E-15	2.700944E-17
4.320000E+03	1.410969E-15	2.684089E-17
4.330000E+03	1.406255E-15	2.666806E-17
4.340000E+03	1.401238E-15	2.649051E-17
4.350000E+03	1.395940E-15	2.630871E-17
4.360000E+03	1.390363E-15	2.612274E-17
4.370000E+03	1.384521E-15	2.593287E-17
4.380000E+03	1.378415E-15	2.573917E-17
4.390000E+03	1.372061E-15	2.554198E-17
4.400000E+03	1.365461E-15	2.534135E-17
4.410000E+03	1.358640E-15	2.513776E-17
4.420000E+03	1.351598E-15	2.493123E-17
4.430000E+03	1.344336E-15	2.472185E-17
4.440000E+03	1.336884E-15	2.451014E-17
4.450000E+03	1.329246E-15	2.429621E-17
4.460000E+03	1.321440E-15	2.408040E-17
4.470000E+03	1.313497E-15	2.386330E-17
4.480000E+03	1.305410E-15	2.364479E-17
4.490000E+03	1.297212E-15	2.342546E-17
4.500000E+03	1.288923E-15	2.320569E-17
4.510000E+03	1.280550E-15	2.298562E-17
4.520000E+03	1.272113E-15	2.276556E-17
4.530000E+03	1.263630E-15	2.254588E-17
4.540000E+03	1.255119E-15	2.232688E-17
4.550000E+03	1.246598E-15	2.210887E-17
4.560000E+03	1.238071E-15	2.189191E-17
4.570000E+03	1.229543E-15	2.167607E-17
4.580000E+03	1.221051E-15	2.146201E-17
4.590000E+03	1.212586E-15	2.124954E-17
4.600000E+03	1.204150E-15	2.103867E-17
4.610000E+03	1.195765E-15	2.082980E-17
4.620000E+03	1.187442E-15	2.062309E-17
4.630000E+03	1.179158E-15	2.041811E-17
4.640000E+03	1.170958E-15	2.021562E-17
4.650000E+03	1.162804E-15	2.001497E-17
4.660000E+03	1.154728E-15	1.981669E-17
4.670000E+03	1.146728E-15	1.962070E-17
4.680000E+03	1.138801E-15	1.942694E-17
4.690000E+03	1.130944E-15	1.923536E-17
4.700000E+03	1.123154E-15	1.904589E-17
4.710000E+03	1.115453E-15	1.885885E-17
4.720000E+03	1.107823E-15	1.867396E-17
4.730000E+03	1.100267E-15	1.849121E-17
4.740000E+03	1.092789E-15	1.831070E-17
4.750000E+03	1.085369E-15	1.813203E-17
4.760000E+03	1.078035E-15	1.795570E-17
4.770000E+03	1.070756E-15	1.778114E-17
4.780000E+03	1.063551E-15	1.760867E-17
4.790000E+03	1.056420E-15	1.743826E-17
4.800000E+03	1.049338E-15	1.726952E-17
4.810000E+03	1.042318E-15	1.710260E-17
4.820000E+03	1.035366E-15	1.693763E-17
4.830000E+03	1.028463E-15	1.677427E-17
4.840000E+03	1.021618E-15	1.661264E-17
4.850000E+03	1.014828E-15	1.645271E-17
4.860000E+03	1.008083E-15	1.629430E-17
4.870000E+03	1.001381E-15	1.613735E-17
4.880000E+03	9.947303E-16	1.598202E-17
4.890000E+03	9.881194E-16	1.582808E-17
4.900000E+03	9.815564E-16	1.567568E-17
4.910000E+03	9.750191E-16	1.552444E-17
4.920000E+03	9.685157E-16	1.537449E-17
4.930000E+03	9.620444E-16	1.522581E-17
4.940000E+03	9.555934E-16	1.507819E-17
4.950000E+03	9.491711E-16	1.493178E-17
4.960000E+03	9.427666E-16	1.478638E-17
4.970000E+03	9.363885E-16	1.464214E-17
4.980000E+03	9.300266E-16	1.449889E-17
4.990000E+03	9.236808E-16	1.435663E-17
5.000000E+03	9.173421E-16	1.421521E-17
5.010000E+03	9.110300E-16	1.407495E-17
5.020000E+03	9.047268E-16	1.393556E-17
5.030000E+03	8.984342E-16	1.379706E-17
5.040000E+03	8.921635E-16	1.365964E-17
5.050000E+03	8.859076E-16	1.352319E-17
5.060000E+03	8.796695E-16	1.338773E-17
5.070000E+03	8.734518E-16	1.325333E-17
5.080000E+03	8.672580E-16	1.312002E-17
5.090000E+03	8.610826E-16	1.298772E-17
5.100000E+03	8.549294E-16	1.285650E-17
5.110000E+03	8.488115E-16	1.272654E-17
5.120000E+03	8.427156E-16	1.259764E-17
5.130000E+03	8.366637E-16	1.247013E-17
5.140000E+03	8.306352E-16	1.234370E-17
5.150000E+03	8.246524E-16	1.221869E-17
5.160000E+03	8.187126E-16	1.209504E-17
5.170000E+03	8.128217E-16	1.197283E-17
5.180000E+03	8.069859E-16	1.185217E-17
5.190000E+03	8.012034E-16	1.173301E-17
5.200000E+03	7.954811E-16	1.161546E-17
5.210000E+03	7.898176E-16	1.149948E-17
5.220000E+03	7.842363E-16	1.138541E-17
5.230000E+03	7.787200E-16	1.127300E-17
5.240000E+03	7.732838E-16	1.116246E-17
5.250000E+03	7.679346E-16	1.105387E-17
5.260000E+03	7.626790E-16	1.094734E-17
5.270000E+03	7.575080E-16	1.084271E-17
5.280000E+03	7.524355E-16	1.074018E-17
5.290000E+03	7.474597E-16	1.063971E-17
5.300000E+03	7.425860E-16	1.054138E-17
5.310000E+03	7.378122E-16	1.044515E-17
5.320000E+03	7.331502E-16	1.035116E-17
5.330000E+03	7.285893E-16	1.025927E-17
5.340000E+03	7.241333E-16	1.016951E-17
5.350000E+03	7.197783E-16	1.008183E-17
5.360000E+03	7.155345E-16	9.996356E-18
5.370000E+03	7.113824E-16	9.912809E-18
5.380000E+03	7.073317E-16	9.831316E-18
5.390000E+03	7.033768E-16	9.751794E-18
5.400000E+03	6.995120E-16	9.674157E-18
5.410000E+03	6.957175E-16	9.598124E-18
5.420000E+03	6.919877E-16	9.523615E-18
5.430000E+03	6.883163E-16	9.450540E-18
5.440000E+03	6.846701E-16	9.378442E-18
5.450000E+03	6.810432E-16	9.307232E-18
5.460000E+03	6.774092E-16	9.236538E-18
5.470000E+03	6.737559E-16	9.166184E-18
5.480000E+03	6.701053E-16	9.096454E-18
5.490000E+03	6.664517E-16	9.027262E-18
5.500000E+03	6.628173E-16	8.958893E-18
5.510000E+03	6.592117E-16	8.891468E-18
5.520000E+03	6.556646E-16	8.825369E-18
5.530000E+03	6.521721E-16	8.760530E-18
5.540000E+03	6.487498E-16	8.697145E-18
5.550000E+03	6.453999E-16	8.635226E-18
5.560000E+03	6.421436E-16	8.575040E-18
5.570000E+03	6.389754E-16	8.516499E-18
5.580000E+03	6.359023E-16	8.459678E-18
5.590000E+03	6.329239E-16	8.404556E-18
5.600000E+03	6.300522E-16	8.351277E-18
5.610000E+03	6.272793E-16	8.299721E-18
5.620000E+03	6.246095E-16	8.249929E-18
5.630000E+03	6.220465E-16	8.201935E-18
5.640000E+03	6.195874E-16	8.155688E-18
5.650000E+03	6.172350E-16	8.111208E-18
5.660000E+03	6.149791E-16	8.068351E-18
5.670000E+03	6.128223E-16	8.027138E-18
5.680000E+03	6.107668E-16	7.987585E-18
5.690000E+03	6.088083E-16	7.949626E-18
5.700000E+03	6.069429E-16	7.913196E-18
5.710000E+03	6.051658E-16	7.878227E-18
5.720000E+03	6.034862E-16	7.844824E-18
5.730000E+03	6.018868E-16	7.812758E-18
5.740000E+03	6.003766E-16	7.782135E-18
5.750000E+03	5.989516E-16	7.752895E-18
5.760000E+03	5.976017E-16	7.724901E-18
5.770000E+03	5.963297E-16	7.698182E-18
5.780000E+03	5.951387E-16	7.672772E-18
5.790000E+03	5.940187E-16	7.648538E-18
5.800000E+03	5.929670E-16	7.625436E-18
5.810000E+03	5.919932E-16	7.603590E-18
5.820000E+03	5.910817E-16	7.582791E-18
5.830000E+03	5.902364E-16	7.563088E-18
5.840000E+03	5.894544E-16	7.544440E-18
5.850000E+03	5.887336E-16	7.526818E-18
5.860000E+03	5.880778E-16	7.510268E-18
5.870000E+03	5.874715E-16	7.494592E-18
5.880000E+03	5.869256E-16	7.479925E-18
5.890000E+03	5.864310E-16	7.466151E-18
5.900000E+03	5.859851E-16	7.453238E-18
5.910000E+03	5.855850E-16	7.441150E-18
5.920000E+03	5.852281E-16	7.429852E-18
5.930000E+03	5.849182E-16	7.419395E-18
5.940000E+03	5.846387E-16	7.409570E-18
5.950000E+03	5.843862E-16	7.400336E-18
5.960000E+03	5.841642E-16	7.391741E-18
5.970000E+03	5.839691E-16	7.383741E-18
5.980000E+03	5.837838E-16	7.376125E-18
5.990000E+03	5.836185E-16	7.369024E-18
6.000000E+03	5.834493E-16	7.362142E-18
6.010000E+03	5.832933E-16	7.355699E-18
6.020000E+03	5.831270E-16	7.349403E-18
6.030000E+03	5.829475E-16	7.343225E-18
6.040000E+03	5.827594E-16	7.337228E-18
6.050000E+03	5.825535E-16	7.331302E-18
6.060000E+03	5.823283E-16	7.325435E-18
6.070000E+03	5.820687E-16	7.319443E-18
6.080000E+03	5.817879E-16	7.313500E-18
6.090000E+03	5.814645E-16	7.307342E-18
6.100000E+03	5.811127E-16	7.301157E-18
6.110000E+03	5.807259E-16	7.294868E-18
6.120000E+03	5.802979E-16	7.288404E-18
6.130000E+03	5.798296E-16	7.281785E-18
6.140000E+03	5.793296E-16	7.275126E-18
6.150000E+03	5.787923E-16	7.268362E-18
6.160000E+03	5.782190E-16	7.261520E-18
6.170000E+03	5.776262E-16	7.254812E-18
6.180000E+03	5.770009E-16	7.248084E-18
6.190000E+03	5.763518E-16	7.241453E-18
6.200000E+03	5.756881E-16	7.235041E-18
6.210000E+03	5.750184E-16	7.228963E-18
6.220000E+03	5.743367E-16	7.223153E-18
6.230000E+03	5.736440E-16	7.217631E-18
6.240000E+03	5.729484E-16	7.212506E-18
6.250000E+03	5.722431E-16	7.207701E-18
6.260000E+03	5.715357E-16	7.203319E-18
6.270000E+03	5.708262E-16	7.199368E-18
6.280000E+03	5.701218E-16	7.195948E-18
6.290000E+03	5.694219E-16	7.193058E-18
6.300000E+03	5.687253E-16	7.190692E-18
6.310000E+03	5.680384E-16	7.188939E-18
6.320000E+03	5.673675E-16	7.187887E-18
6.330000E+03	5.667025E-16	7.187416E-18
6.340000E+03	5.660486E-16	7.187603E-18
6.350000E+03	5.654111E-16	7.188521E-18
6.360000E+03	5.647785E-16	7.190032E-18
6.370000E+03	5.641628E-16	7.192300E-18
6.380000E+03	5.635596E-16	7.195275E-18
6.390000E+03	5.629642E-16	7.198907E-18
6.400000E+03	5.623709E-16	7.203130E-18
6.410000E+03	5.617900E-16	7.208084E-18
6.420000E+03	5.612068E-16	7.213589E-18
6.430000E+03	5.606306E-16	7.219771E-18
6.440000E+03	5.600542E-16	7.226532E-18
6.450000E+03	5.594698E-16	7.233758E-18
6.460000E+03	5.588773E-16	7.241434E-18
6.470000E+03	5.582684E-16	7.249436E-18
6.480000E+03	5.576425E-16	7.257744E-18
6.490000E+03	5.569736E-16	7.266001E-18
6.500000E+03	5.562693E-16	7.274289E-18
6.510000E+03	5.555203E-16	7.282468E-18
6.520000E+03	5.547089E-16	7.290287E-18
6.530000E+03	5.538345E-16	7.297718E-18
6.540000E+03	5.528908E-16	7.304657E-18
6.550000E+03	5.518746E-16	7.311040E-18
6.560000E+03	5.507837E-16	7.316814E-18
6.570000E+03	5.496249E-16	7.322048E-18
6.580000E+03	5.483880E-16	7.326583E-18
6.590000E+03	5.470717E-16	7.330378E-18
6.600000E+03	5.456847E-16	7.333525E-18
6.610000E+03	5.442266E-16	7.335996E-18
6.620000E+03	5.426887E-16	7.337652E-18
6.630000E+03	5.410810E-16	7.338601E-18
6.640000E+03	5.393954E-16	7.338711E-18
6.650000E+03	5.376514E-16	7.338227E-18
6.660000E+03	5.358329E-16	7.336901E-18
6.670000E+03	5.339421E-16	7.334743E-18
6.680000E+03	5.319904E-16	7.331886E-18
6.690000E+03	5.299808E-16	7.328349E-18
6.700000E+03	5.279074E-16	7.324029E-18
6.710000E+03	5.257732E-16	7.318947E-18
6.720000E+03	5.235915E-16	7.313263E-18
6.730000E+03	5.213568E-16	7.306886E-18
6.740000E+03	5.190826E-16	7.299981E-18
6.750000E+03	5.167548E-16	7.292333E-18
6.760000E+03	5.143963E-16	7.284246E-18
6.770000E+03	5.119935E-16	7.275511E-18
6.780000E+03	5.095696E-16	7.266441E-18
6.790000E+03	5.071112E-16	7.256827E-18
6.800000E+03	5.046323E-16	7.246858E-18
6.810000E+03	5.021380E-16	7.236590E-18
6.820000E+03	4.996242E-16	7.225953E-18
6.830000E+03	4.971049E-16	7.215138E-18
6.840000E+03	4.945758E-16	7.204070E-18
6.850000E+03	4.920512E-16	7.192946E-18
6.860000E+03	4.895171E-16	7.181556E-18
6.870000E+03	4.869965E-16	7.170226E-18
6.880000E+03	4.844848E-16	7.158881E-18
6.890000E+03	4.819858E-16	7.147573E-18
6.900000E+03	4.794948E-16	7.136223E-18
6.910000E+03	4.770336E-16	7.125151E-18
6.920000E+03	4.745785E-16	7.114002E-18
6.930000E+03	4.721602E-16	7.103229E-18
6.940000E+03	4.697634E-16	7.092602E-18
6.950000E+03	4.673911E-16	7.082162E-18
6.960000E+03	4.650549E-16	7.072085E-18
6.970000E+03	4.627480E-16	7.062265E-18
6.980000E+03	4.604725E-16	7.052734E-18
6.990000E+03	4.582302E-16	7.043520E-18
7.000000E+03	4.560225E-16	7.034646E-18
7.010000E+03	4.538508E-16	7.026132E-18
7.020000E+03	4.517069E-16	7.017854E-18
7.030000E+03	4.496095E-16	7.010102E-18
7.040000E+03	4.475323E-16	7.002468E-18
7.050000E+03	4.455018E-16	6.995370E-18
7.060000E+03	4.434918E-16	6.988396E-18
7.070000E+03	4.415192E-16	6.981815E-18
7.080000E+03	4.395748E-16	6.975482E-18
7.090000E+03	4.376577E-16	6.969386E-18
7.100000E+03	4.357755E-16	6.963649E-18
7.110000E+03	4.339093E-16	6.957972E-18
7.120000E+03	4.320668E-16	6.952476E-18
7.130000E+03	4.302373E-16	6.946993E-18
7.140000E+03	4.284281E-16	6.941639E-18
7.150000E+03	4.266373E-16	6.936386E-18
7.160000E+03	4.248546E-16	6.931065E-18
7.170000E+03	4.230868E-16	6.925789E-18
7.180000E+03	4.213151E-16	6.920247E-18
7.190000E+03	4.195550E-16	6.914693E-18
7.200000E+03	4.177965E-16	6.908965E-18
7.210000E+03	4.160298E-16	6.902897E-18
7.220000E+03	4.142627E-16	6.896614E-18
7.230000E+03	4.124939E-16	6.890098E-18
7.240000E+03	4.107150E-16	6.883203E-18
7.250000E+03	4.089254E-16	6.875916E-18
7.260000E+03	4.071252E-16	6.868241E-18
7.270000E+03	4.053150E-16	6.860180E-18
7.280000E+03	4.034951E-16	6.851740E-18
7.290000E+03	4.016498E-16	6.842649E-18
7.300000E+03	3.997970E-16	6.833210E-18
7.310000E+03	3.979296E-16	6.823299E-18
7.320000E+03	3.960408E-16	6.812796E-18
7.330000E+03	3.941408E-16	6.801873E-18
7.340000E+03	3.922146E-16	6.790271E-18
7.350000E+03	3.902644E-16	6.778022E-18
7.360000E+03	3.882923E-16	6.765160E-18
7.370000E+03	3.862922E-16	6.751573E-18
7.380000E+03	3.842743E-16	6.737438E-18
7.390000E+03	3.822167E-16	6.722365E-18
7.400000E+03	3.801376E-16	6.706670E-18
7.410000E+03	3.780232E-16	6.690107E-18
7.420000E+03	3.758836E-16	6.672850E-18
7.430000E+03	3.737132E-16	6.654794E-18
7.440000E+03	3.715139E-16	6.635969E-18
7.450000E+03	3.692957E-16	6.616551E-18
7.460000E+03	3.670525E-16	6.596429E-18
7.470000E+03	3.648098E-16	6.576060E-18
7.480000E+03	3.625536E-16	6.555187E-18
7.490000E+03	3.603009E-16	6.534123E-18
7.500000E+03	3.580454E-16	6.512752E-18
7.510000E+03	3.558117E-16	6.491524E-18
7.520000E+03	3.535932E-16	6.470323E-18
7.530000E+03	3.513906E-16	6.449166E-18
7.540000E+03	3.492128E-16	6.428219E-18
7.550000E+03	3.470603E-16	6.407498E-18
7.560000E+03	3.449492E-16	6.387305E-18
7.570000E+03	3.428645E-16	6.367372E-18
7.580000E+03	3.408144E-16	6.347855E-18
7.590000E+03	3.388068E-16	6.328909E-18
7.600000E+03	3.368343E-16	6.310404E-18
7.610000E+03	3.349046E-16	6.292492E-18
7.620000E+03	3.330106E-16	6.275045E-18
7.630000E+03	3.311670E-16	6.258351E-18
7.640000E+03	3.293591E-16	6.242141E-18
7.650000E+03	3.276019E-16	6.226704E-18
7.660000E+03	3.258805E-16	6.211769E-18
7.670000E+03	3.242096E-16	6.197623E-18
7.680000E+03	3.225747E-16	6.183997E-18
7.690000E+03	3.209906E-16	6.171183E-18
7.700000E+03	3.194499E-16	6.159047E-18
7.710000E+03	3.179527E-16	6.147604E-18
7.720000E+03	3.164991E-16	6.136860E-18
7.730000E+03	3.150895E-16	6.126831E-18
7.740000E+03	3.137238E-16	6.117527E-18
7.750000E+03	3.123950E-16	6.108817E-18
7.760000E+03	3.111178E-16	6.100999E-18
