#wls	flux	fluxerr
1.600000E+03	3.038690E-16	5.253146E-18
1.640000E+03	3.167913E-16	5.471172E-18
1.680000E+03	3.305878E-16	5.703703E-18
1.720000E+03	3.453638E-16	5.952490E-18
1.760000E+03	3.611280E-16	6.217605E-18
1.800000E+03	3.779842E-16	6.500759E-18
1.840000E+03	3.959699E-16	6.802509E-18
1.880000E+03	4.151868E-16	7.124504E-18
1.920000E+03	4.357007E-16	7.467773E-18
1.960000E+03	4.575739E-16	7.833270E-18
2.000000E+03	4.807948E-16	8.220679E-18
2.040000E+03	5.054140E-16	8.630740E-18
2.080000E+03	5.314400E-16	9.063469E-18
2.120000E+03	5.587667E-16	9.516921E-18
2.160000E+03	5.872758E-16	9.988952E-18
2.200000E+03	6.167297E-16	1.047539E-17
2.240000E+03	6.468398E-16	1.097123E-17
2.280000E+03	6.774483E-16	1.147370E-17
2.320000E+03	7.084583E-16	1.198106E-17
2.360000E+03	7.401253E-16	1.249755E-17
2.400000E+03	7.726595E-16	1.302660E-17
2.440000E+03	8.062228E-16	1.357080E-17
2.480000E+03	8.410326E-16	1.413368E-17
2.520000E+03	8.771792E-16	1.471657E-17
2.560000E+03	9.146581E-16	1.531921E-17
2.600000E+03	9.535486E-16	1.594276E-17
2.640000E+03	9.937238E-16	1.658490E-17
2.680000E+03	1.035100E-15	1.724405E-17
2.720000E+03	1.077428E-15	1.791586E-17
2.760000E+03	1.120535E-15	1.859732E-17
2.800000E+03	1.164086E-15	1.928271E-17
2.840000E+03	1.207795E-15	1.996717E-17
2.880000E+03	1.251389E-15	2.064610E-17
2.920000E+03	1.294641E-15	2.131573E-17
2.960000E+03	1.337405E-15	2.197358E-17
3.000000E+03	1.379608E-15	2.261843E-17
3.010000E+03	1.390053E-15	2.277731E-17
3.020000E+03	1.400473E-15	2.293556E-17
3.030000E+03	1.410829E-15	2.309251E-17
3.040000E+03	1.421178E-15	2.324910E-17
3.050000E+03	1.431479E-15	2.340466E-17
3.060000E+03	1.441724E-15	2.355909E-17
3.070000E+03	1.451907E-15	2.371225E-17
3.080000E+03	1.462082E-15	2.386504E-17
3.090000E+03	1.472179E-15	2.401632E-17
3.100000E+03	1.482251E-15	2.416695E-17
3.110000E+03	1.492262E-15	2.431634E-17
3.120000E+03	1.502232E-15	2.446481E-17
3.130000E+03	1.512154E-15	2.461227E-17
3.140000E+03	1.522020E-15	2.475857E-17
3.150000E+03	1.531822E-15	2.490359E-17
3.160000E+03	1.541582E-15	2.504770E-17
3.170000E+03	1.551264E-15	2.519029E-17
3.180000E+03	1.560890E-15	2.533173E-17
3.190000E+03	1.570451E-15	2.547187E-17
3.200000E+03	1.579940E-15	2.561060E-17
3.210000E+03	1.589380E-15	2.574830E-17
3.220000E+03	1.598705E-15	2.588391E-17
3.230000E+03	1.607995E-15	2.601869E-17
3.240000E+03	1.617158E-15	2.615120E-17
3.250000E+03	1.626273E-15	2.628268E-17
3.260000E+03	1.635278E-15	2.641215E-17
3.270000E+03	1.644195E-15	2.653996E-17
3.280000E+03	1.653019E-15	2.666604E-17
3.290000E+03	1.661719E-15	2.678988E-17
3.300000E+03	1.670342E-15	2.691227E-17
3.310000E+03	1.678834E-15	2.703230E-17
3.320000E+03	1.687193E-15	2.714995E-17
3.330000E+03	1.695464E-15	2.726597E-17
3.340000E+03	1.703596E-15	2.737953E-17
3.350000E+03	1.711587E-15	2.749060E-17
3.360000E+03	1.719437E-15	2.759919E-17
3.370000E+03	1.727171E-15	2.770569E-17
3.380000E+03	1.734739E-15	2.780933E-17
3.390000E+03	1.742145E-15	2.791014E-17
3.400000E+03	1.749414E-15	2.800855E-17
3.410000E+03	1.756524E-15	2.810421E-17
3.420000E+03	1.763480E-15	2.819719E-17
3.430000E+03	1.770240E-15	2.828684E-17
3.440000E+03	1.776833E-15	2.837363E-17
3.450000E+03	1.783265E-15	2.845765E-17
3.460000E+03	1.789499E-15	2.853832E-17
3.470000E+03	1.795545E-15	2.861580E-17
3.480000E+03	1.801388E-15	2.868987E-17
3.490000E+03	1.807063E-15	2.876107E-17
3.500000E+03	1.812515E-15	2.882856E-17
3.510000E+03	1.817779E-15	2.889289E-17
3.520000E+03	1.822826E-15	2.895358E-17
3.530000E+03	1.827650E-15	2.901058E-17
3.540000E+03	1.832246E-15	2.906380E-17
3.550000E+03	1.836589E-15	2.911287E-17
3.560000E+03	1.840698E-15	2.915806E-17
3.570000E+03	1.844530E-15	2.919874E-17
3.580000E+03	1.848085E-15	2.923489E-17
3.590000E+03	1.851384E-15	2.926686E-17
3.600000E+03	1.854406E-15	2.929433E-17
3.610000E+03	1.857154E-15	2.931736E-17
3.620000E+03	1.859611E-15	2.933568E-17
3.630000E+03	1.861760E-15	2.934905E-17
3.640000E+03	1.863604E-15	2.935750E-17
3.650000E+03	1.865110E-15	2.936054E-17
3.660000E+03	1.866298E-15	2.935850E-17
3.670000E+03	1.867137E-15	2.935089E-17
3.680000E+03	1.867628E-15	2.933775E-17
3.690000E+03	1.867792E-15	2.931941E-17
3.700000E+03	1.867595E-15	2.929537E-17
3.710000E+03	1.867038E-15	2.926564E-17
3.720000E+03	1.866156E-15	2.923078E-17
3.730000E+03	1.864928E-15	2.919047E-17
3.740000E+03	1.863353E-15	2.914472E-17
3.750000E+03	1.861458E-15	2.909398E-17
3.760000E+03	1.859223E-15	2.903791E-17
3.770000E+03	1.856655E-15	2.897665E-17
3.780000E+03	1.853779E-15	2.891062E-17
3.790000E+03	1.850584E-15	2.883963E-17
3.800000E+03	1.847075E-15	2.876377E-17
3.810000E+03	1.843255E-15	2.868314E-17
3.820000E+03	1.839128E-15	2.859777E-17
3.830000E+03	1.834709E-15	2.850793E-17
3.840000E+03	1.829985E-15	2.841342E-17
3.850000E+03	1.824973E-15	2.831450E-17
3.860000E+03	1.819686E-15	2.821141E-17
3.870000E+03	1.814111E-15	2.810394E-17
3.880000E+03	1.808248E-15	2.799212E-17
3.890000E+03	1.802128E-15	2.787643E-17
3.900000E+03	1.795754E-15	2.775693E-17
3.910000E+03	1.789112E-15	2.763340E-17
3.920000E+03	1.782236E-15	2.750639E-17
3.930000E+03	1.775142E-15	2.737614E-17
3.940000E+03	1.767806E-15	2.724231E-17
3.950000E+03	1.760259E-15	2.710538E-17
3.960000E+03	1.752520E-15	2.696565E-17
3.970000E+03	1.744593E-15	2.682320E-17
3.980000E+03	1.736467E-15	2.667785E-17
3.990000E+03	1.728188E-15	2.653031E-17
4.000000E+03	1.719743E-15	2.638042E-17
4.010000E+03	1.711135E-15	2.622819E-17
4.020000E+03	1.702391E-15	2.607409E-17
4.030000E+03	1.693498E-15	2.591789E-17
4.040000E+03	1.684483E-15	2.576001E-17
4.050000E+03	1.675318E-15	2.560006E-17
4.060000E+03	1.666042E-15	2.543860E-17
4.070000E+03	1.656640E-15	2.527544E-17
4.080000E+03	1.647112E-15	2.511057E-17
4.090000E+03	1.637483E-15	2.494438E-17
4.100000E+03	1.627729E-15	2.477651E-17
4.110000E+03	1.617889E-15	2.460754E-17
4.120000E+03	1.607939E-15	2.443716E-17
4.130000E+03	1.597898E-15	2.426561E-17
4.140000E+03	1.587784E-15	2.409318E-17
4.150000E+03	1.577590E-15	2.391979E-17
4.160000E+03	1.567337E-15	2.374576E-17
4.170000E+03	1.557037E-15	2.357126E-17
4.180000E+03	1.546689E-15	2.339627E-17
4.190000E+03	1.536330E-15	2.322136E-17
4.200000E+03	1.525950E-15	2.304640E-17
4.210000E+03	1.515588E-15	2.287195E-17
4.220000E+03	1.505237E-15	2.269794E-17
4.230000E+03	1.494927E-15	2.252478E-17
4.240000E+03	1.484675E-15	2.235277E-17
4.250000E+03	1.474475E-15	2.218178E-17
4.260000E+03	1.464370E-15	2.201248E-17
4.270000E+03	1.454366E-15	2.184495E-17
4.280000E+03	1.444470E-15	2.167929E-17
4.290000E+03	1.434687E-15	2.151558E-17
4.300000E+03	1.425046E-15	2.135423E-17
4.310000E+03	1.415561E-15	2.119549E-17
4.320000E+03	1.406215E-15	2.103905E-17
4.330000E+03	1.397040E-15	2.088541E-17
4.340000E+03	1.388015E-15	2.073425E-17
4.350000E+03	1.379172E-15	2.058606E-17
4.360000E+03	1.370496E-15	2.044058E-17
4.370000E+03	1.362005E-15	2.029807E-17
4.380000E+03	1.353711E-15	2.015874E-17
4.390000E+03	1.345629E-15	2.002275E-17
4.400000E+03	1.337765E-15	1.989024E-17
4.410000E+03	1.330132E-15	1.976137E-17
4.420000E+03	1.322745E-15	1.963634E-17
4.430000E+03	1.315603E-15	1.951515E-17
4.440000E+03	1.308717E-15	1.939794E-17
4.450000E+03	1.302078E-15	1.928457E-17
4.460000E+03	1.295707E-15	1.917537E-17
4.470000E+03	1.289596E-15	1.907016E-17
4.480000E+03	1.283745E-15	1.896898E-17
4.490000E+03	1.278157E-15	1.887183E-17
4.500000E+03	1.272832E-15	1.877873E-17
4.510000E+03	1.267773E-15	1.868970E-17
4.520000E+03	1.262981E-15	1.860475E-17
4.530000E+03	1.258435E-15	1.852356E-17
4.540000E+03	1.254157E-15	1.844643E-17
4.550000E+03	1.250122E-15	1.837302E-17
4.560000E+03	1.246328E-15	1.830326E-17
4.570000E+03	1.242759E-15	1.823693E-17
4.580000E+03	1.239421E-15	1.817411E-17
4.590000E+03	1.236297E-15	1.811451E-17
4.600000E+03	1.233357E-15	1.805773E-17
4.610000E+03	1.230614E-15	1.800392E-17
4.620000E+03	1.228036E-15	1.795263E-17
4.630000E+03	1.225605E-15	1.790358E-17
4.640000E+03	1.223322E-15	1.785677E-17
4.650000E+03	1.221177E-15	1.781208E-17
4.660000E+03	1.219128E-15	1.776887E-17
4.670000E+03	1.217192E-15	1.772738E-17
4.680000E+03	1.215349E-15	1.768735E-17
4.690000E+03	1.213583E-15	1.764851E-17
4.700000E+03	1.211891E-15	1.761081E-17
4.710000E+03	1.210255E-15	1.757403E-17
4.720000E+03	1.208677E-15	1.753816E-17
4.730000E+03	1.207123E-15	1.750272E-17
4.740000E+03	1.205593E-15	1.746770E-17
4.750000E+03	1.204091E-15	1.743319E-17
4.760000E+03	1.202576E-15	1.739855E-17
4.770000E+03	1.201066E-15	1.736407E-17
4.780000E+03	1.199543E-15	1.732950E-17
4.790000E+03	1.197995E-15	1.729463E-17
4.800000E+03	1.196440E-15	1.725975E-17
4.810000E+03	1.194841E-15	1.722434E-17
4.820000E+03	1.193233E-15	1.718887E-17
4.830000E+03	1.191579E-15	1.715283E-17
4.840000E+03	1.189900E-15	1.711652E-17
4.850000E+03	1.188171E-15	1.707960E-17
4.860000E+03	1.186415E-15	1.704237E-17
4.870000E+03	1.184605E-15	1.700447E-17
4.880000E+03	1.182748E-15	1.696600E-17
4.890000E+03	1.180844E-15	1.692694E-17
4.900000E+03	1.178874E-15	1.688705E-17
4.910000E+03	1.176833E-15	1.684625E-17
4.920000E+03	1.174717E-15	1.680448E-17
4.930000E+03	1.172531E-15	1.676182E-17
4.940000E+03	1.170247E-15	1.671786E-17
4.950000E+03	1.167881E-15	1.667286E-17
4.960000E+03	1.165406E-15	1.662642E-17
4.970000E+03	1.162830E-15	1.657866E-17
4.980000E+03	1.160139E-15	1.652938E-17
4.990000E+03	1.157330E-15	1.647856E-17
5.000000E+03	1.154405E-15	1.642620E-17
5.010000E+03	1.151375E-15	1.637250E-17
5.020000E+03	1.148220E-15	1.631713E-17
5.030000E+03	1.144953E-15	1.626033E-17
5.040000E+03	1.141567E-15	1.620198E-17
5.050000E+03	1.138077E-15	1.614230E-17
5.060000E+03	1.134476E-15	1.608120E-17
5.070000E+03	1.130756E-15	1.601855E-17
5.080000E+03	1.126932E-15	1.595459E-17
5.090000E+03	1.123008E-15	1.588937E-17
5.100000E+03	1.118975E-15	1.582276E-17
5.110000E+03	1.114826E-15	1.575468E-17
5.120000E+03	1.110585E-15	1.568545E-17
5.130000E+03	1.106234E-15	1.561485E-17
5.140000E+03	1.101778E-15	1.554293E-17
5.150000E+03	1.097220E-15	1.546975E-17
5.160000E+03	1.092568E-15	1.539540E-17
5.170000E+03	1.087816E-15	1.531983E-17
5.180000E+03	1.082985E-15	1.524330E-17
5.190000E+03	1.078060E-15	1.516565E-17
5.200000E+03	1.073062E-15	1.508715E-17
5.210000E+03	1.067982E-15	1.500767E-17
5.220000E+03	1.062852E-15	1.492767E-17
5.230000E+03	1.057661E-15	1.484701E-17
5.240000E+03	1.052434E-15	1.476602E-17
5.250000E+03	1.047161E-15	1.468456E-17
5.260000E+03	1.041864E-15	1.460296E-17
5.270000E+03	1.036554E-15	1.452136E-17
5.280000E+03	1.031221E-15	1.443963E-17
5.290000E+03	1.025876E-15	1.435791E-17
5.300000E+03	1.020539E-15	1.427649E-17
5.310000E+03	1.015207E-15	1.419533E-17
5.320000E+03	1.009880E-15	1.411443E-17
5.330000E+03	1.004564E-15	1.403387E-17
5.340000E+03	9.992683E-16	1.395378E-17
5.350000E+03	9.939988E-16	1.387423E-17
5.360000E+03	9.887532E-16	1.379521E-17
5.370000E+03	9.835483E-16	1.371694E-17
5.380000E+03	9.783819E-16	1.363939E-17
5.390000E+03	9.732707E-16	1.356279E-17
5.400000E+03	9.682136E-16	1.348713E-17
5.410000E+03	9.632384E-16	1.341279E-17
5.420000E+03	9.583630E-16	1.334002E-17
5.430000E+03	9.535864E-16	1.326881E-17
5.440000E+03	9.489459E-16	1.319966E-17
5.450000E+03	9.444500E-16	1.313271E-17
5.460000E+03	9.400688E-16	1.306752E-17
5.470000E+03	9.358386E-16	1.300459E-17
5.480000E+03	9.317476E-16	1.294377E-17
5.490000E+03	9.277838E-16	1.288487E-17
5.500000E+03	9.239433E-16	1.282784E-17
5.510000E+03	9.202096E-16	1.277245E-17
5.520000E+03	9.165655E-16	1.271845E-17
5.530000E+03	9.130107E-16	1.266584E-17
5.540000E+03	9.095253E-16	1.261433E-17
5.550000E+03	9.061153E-16	1.256401E-17
5.560000E+03	9.027761E-16	1.251481E-17
5.570000E+03	8.994923E-16	1.246652E-17
5.580000E+03	8.962658E-16	1.241916E-17
5.590000E+03	8.930883E-16	1.237260E-17
5.600000E+03	8.899504E-16	1.232672E-17
5.610000E+03	8.868515E-16	1.228152E-17
5.620000E+03	8.837818E-16	1.223684E-17
5.630000E+03	8.807313E-16	1.219255E-17
5.640000E+03	8.776995E-16	1.214864E-17
5.650000E+03	8.746770E-16	1.210497E-17
5.660000E+03	8.716647E-16	1.206157E-17
5.670000E+03	8.686544E-16	1.201831E-17
5.680000E+03	8.656394E-16	1.197510E-17
5.690000E+03	8.626223E-16	1.193197E-17
5.700000E+03	8.595978E-16	1.188886E-17
5.710000E+03	8.565615E-16	1.184568E-17
5.720000E+03	8.535182E-16	1.180252E-17
5.730000E+03	8.504650E-16	1.175932E-17
5.740000E+03	8.474079E-16	1.171618E-17
5.750000E+03	8.443361E-16	1.167294E-17
5.760000E+03	8.412658E-16	1.162982E-17
5.770000E+03	8.381873E-16	1.158668E-17
5.780000E+03	8.350998E-16	1.154352E-17
5.790000E+03	8.320211E-16	1.150057E-17
5.800000E+03	8.289335E-16	1.145760E-17
5.810000E+03	8.258554E-16	1.141485E-17
5.820000E+03	8.227881E-16	1.137234E-17
5.830000E+03	8.197328E-16	1.133009E-17
5.840000E+03	8.166826E-16	1.128800E-17
5.850000E+03	8.136570E-16	1.124634E-17
5.860000E+03	8.106495E-16	1.120501E-17
5.870000E+03	8.076710E-16	1.116417E-17
5.880000E+03	8.047236E-16	1.112384E-17
5.890000E+03	8.018003E-16	1.108392E-17
5.900000E+03	7.989113E-16	1.104457E-17
5.910000E+03	7.960660E-16	1.100589E-17
5.920000E+03	7.932466E-16	1.096766E-17
5.930000E+03	7.904607E-16	1.092996E-17
5.940000E+03	7.877059E-16	1.089277E-17
5.950000E+03	7.849877E-16	1.085616E-17
5.960000E+03	7.822841E-16	1.081983E-17
5.970000E+03	7.796071E-16	1.078394E-17
5.980000E+03	7.769335E-16	1.074817E-17
5.990000E+03	7.742654E-16	1.071255E-17
6.000000E+03	7.715963E-16	1.067698E-17
6.010000E+03	7.689112E-16	1.064126E-17
6.020000E+03	7.662131E-16	1.060543E-17
6.030000E+03	7.634796E-16	1.056918E-17
6.040000E+03	7.607245E-16	1.053270E-17
6.050000E+03	7.579189E-16	1.049558E-17
6.060000E+03	7.550791E-16	1.045805E-17
6.070000E+03	7.521879E-16	1.041987E-17
6.080000E+03	7.492559E-16	1.038119E-17
6.090000E+03	7.462682E-16	1.034180E-17
6.100000E+03	7.432289E-16	1.030175E-17
6.110000E+03	7.401344E-16	1.026099E-17
6.120000E+03	7.369906E-16	1.021961E-17
6.130000E+03	7.337862E-16	1.017744E-17
6.140000E+03	7.305194E-16	1.013446E-17
6.150000E+03	7.271972E-16	1.009077E-17
6.160000E+03	7.238178E-16	1.004633E-17
6.170000E+03	7.203617E-16	1.000088E-17
6.180000E+03	7.168353E-16	9.954504E-18
6.190000E+03	7.132360E-16	9.907159E-18
6.200000E+03	7.095694E-16	9.858925E-18
6.210000E+03	7.058493E-16	9.809992E-18
6.220000E+03	7.020891E-16	9.760542E-18
6.230000E+03	6.983103E-16	9.710876E-18
6.240000E+03	6.945515E-16	9.661528E-18
6.250000E+03	6.908244E-16	9.612661E-18
6.260000E+03	6.871311E-16	9.564303E-18
6.270000E+03	6.835092E-16	9.516975E-18
6.280000E+03	6.799687E-16	9.470821E-18
6.290000E+03	6.765022E-16	9.425732E-18
6.300000E+03	6.731457E-16	9.382215E-18
6.310000E+03	6.698822E-16	9.340032E-18
6.320000E+03	6.667385E-16	9.299555E-18
6.330000E+03	6.637056E-16	9.260663E-18
6.340000E+03	6.607919E-16	9.223474E-18
6.350000E+03	6.579967E-16	9.187977E-18
6.360000E+03	6.553185E-16	9.154153E-18
6.370000E+03	6.527557E-16	9.121981E-18
6.380000E+03	6.502963E-16	9.091296E-18
6.390000E+03	6.479284E-16	9.061931E-18
6.400000E+03	6.456570E-16	9.033957E-18
6.410000E+03	6.434590E-16	9.007051E-18
6.420000E+03	6.413380E-16	8.981262E-18
6.430000E+03	6.392783E-16	8.956370E-18
6.440000E+03	6.372726E-16	8.932273E-18
6.450000E+03	6.353222E-16	8.908987E-18
6.460000E+03	6.334372E-16	8.886655E-18
6.470000E+03	6.316086E-16	8.865147E-18
6.480000E+03	6.298362E-16	8.844465E-18
6.490000E+03	6.281203E-16	8.824607E-18
6.500000E+03	6.264416E-16	8.805305E-18
6.510000E+03	6.248095E-16	8.786689E-18
6.520000E+03	6.232151E-16	8.768634E-18
6.530000E+03	6.216398E-16	8.750878E-18
6.540000E+03	6.200915E-16	8.733530E-18
6.550000E+03	6.185454E-16	8.716241E-18
6.560000E+03	6.169772E-16	8.698665E-18
6.570000E+03	6.153931E-16	8.680890E-18
6.580000E+03	6.137714E-16	8.662606E-18
6.590000E+03	6.121018E-16	8.643667E-18
6.600000E+03	6.103851E-16	8.624081E-18
6.610000E+03	6.085942E-16	8.603463E-18
6.620000E+03	6.067228E-16	8.581721E-18
6.630000E+03	6.047863E-16	8.559070E-18
6.640000E+03	6.027611E-16	8.535172E-18
6.650000E+03	6.006450E-16	8.509993E-18
6.660000E+03	5.984468E-16	8.483654E-18
6.670000E+03	5.961564E-16	8.456008E-18
6.680000E+03	5.937745E-16	8.427063E-18
6.690000E+03	5.913131E-16	8.396984E-18
6.700000E+03	5.887548E-16	8.365523E-18
6.710000E+03	5.861033E-16	8.332727E-18
6.720000E+03	5.833833E-16	8.298945E-18
6.730000E+03	5.805801E-16	8.263963E-18
6.740000E+03	5.776997E-16	8.227865E-18
6.750000E+03	5.747591E-16	8.190888E-18
6.760000E+03	5.717555E-16	8.152992E-18
6.770000E+03	5.686969E-16	8.114287E-18
6.780000E+03	5.655914E-16	8.074887E-18
6.790000E+03	5.624476E-16	8.034910E-18
6.800000E+03	5.592643E-16	7.994339E-18
6.810000E+03	5.560602E-16	7.953438E-18
6.820000E+03	5.528440E-16	7.912331E-18
6.830000E+03	5.496146E-16	7.871001E-18
6.840000E+03	5.463902E-16	7.829708E-18
6.850000E+03	5.431696E-16	7.788430E-18
6.860000E+03	5.399605E-16	7.747282E-18
6.870000E+03	5.367708E-16	7.706373E-18
6.880000E+03	5.335981E-16	7.665670E-18
6.890000E+03	5.304690E-16	7.625553E-18
6.900000E+03	5.273804E-16	7.585979E-18
6.910000E+03	5.243284E-16	7.546893E-18
6.920000E+03	5.213286E-16	7.508519E-18
6.930000E+03	5.183763E-16	7.470790E-18
6.940000E+03	5.154764E-16	7.433777E-18
6.950000E+03	5.126429E-16	7.397682E-18
6.960000E+03	5.098697E-16	7.362419E-18
6.970000E+03	5.071603E-16	7.328039E-18
6.980000E+03	5.045174E-16	7.294585E-18
6.990000E+03	5.019436E-16	7.262091E-18
7.000000E+03	4.994312E-16	7.230450E-18
7.010000E+03	4.970011E-16	7.199965E-18
7.020000E+03	4.946351E-16	7.170375E-18
7.030000E+03	4.923340E-16	7.141690E-18
7.040000E+03	4.901076E-16	7.114058E-18
7.050000E+03	4.879463E-16	7.087336E-18
7.060000E+03	4.858491E-16	7.061515E-18
7.070000E+03	4.838150E-16	7.036580E-18
7.080000E+03	4.818422E-16	7.012507E-18
7.090000E+03	4.799384E-16	6.989409E-18
7.100000E+03	4.780817E-16	6.966967E-18
7.110000E+03	4.762689E-16	6.945138E-18
7.120000E+03	4.745061E-16	6.924009E-18
7.130000E+03	4.727893E-16	6.903525E-18
7.140000E+03	4.711047E-16	6.883484E-18
7.150000E+03	4.694575E-16	6.863963E-18
7.160000E+03	4.678236E-16	6.844611E-18
7.170000E+03	4.662177E-16	6.825642E-18
7.180000E+03	4.646254E-16	6.806845E-18
7.190000E+03	4.630422E-16	6.788156E-18
7.200000E+03	4.614545E-16	6.769374E-18
7.210000E+03	4.598774E-16	6.750722E-18
7.220000E+03	4.582886E-16	6.731871E-18
7.230000E+03	4.566950E-16	6.712920E-18
7.240000E+03	4.550849E-16	6.693700E-18
7.250000E+03	4.534664E-16	6.674328E-18
7.260000E+03	4.518293E-16	6.654653E-18
7.270000E+03	4.501734E-16	6.634673E-18
7.280000E+03	4.485089E-16	6.614533E-18
7.290000E+03	4.468270E-16	6.594108E-18
7.300000E+03	4.451387E-16	6.573558E-18
7.310000E+03	4.434271E-16	6.552632E-18
7.320000E+03	4.417035E-16	6.531497E-18
7.330000E+03	4.399799E-16	6.510328E-18
7.340000E+03	4.382396E-16	6.488882E-18
7.350000E+03	4.364945E-16	6.467331E-18
7.360000E+03	4.347378E-16	6.445574E-18
7.370000E+03	4.329813E-16	6.423786E-18
7.380000E+03	4.312179E-16	6.401863E-18
7.390000E+03	4.294499E-16	6.379837E-18
7.400000E+03	4.276794E-16	6.357741E-18
7.410000E+03	4.258991E-16	6.335465E-18
7.420000E+03	4.241110E-16	6.313037E-18
7.430000E+03	4.223170E-16	6.290486E-18
7.440000E+03	4.205188E-16	6.267839E-18
7.450000E+03	4.187275E-16	6.245259E-18
7.460000E+03	4.169352E-16	6.222629E-18
7.470000E+03	4.151622E-16	6.200251E-18
7.480000E+03	4.134098E-16	6.178146E-18
7.490000E+03	4.116792E-16	6.156334E-18
7.500000E+03	4.099717E-16	6.134832E-18
7.510000E+03	4.082883E-16	6.113657E-18
7.520000E+03	4.066485E-16	6.093104E-18
7.530000E+03	4.050345E-16	6.072902E-18
7.540000E+03	4.034562E-16	6.053206E-18
7.550000E+03	4.019141E-16	6.034021E-18
7.560000E+03	4.004177E-16	6.015493E-18
7.570000E+03	3.989486E-16	5.997345E-18
7.580000E+03	3.975161E-16	5.979718E-18
7.590000E+03	3.961199E-16	5.962609E-18
7.600000E+03	3.947689E-16	5.946152E-18
7.610000E+03	3.934440E-16	5.930063E-18
7.620000E+03	3.921631E-16	5.914611E-18
7.630000E+03	3.909163E-16	5.899647E-18
7.640000E+03	3.896934E-16	5.885020E-18
7.650000E+03	3.885123E-16	5.871000E-18
7.660000E+03	3.873627E-16	5.857433E-18
7.670000E+03	3.862439E-16	5.844309E-18
7.680000E+03	3.851552E-16	5.831618E-18
7.690000E+03	3.840959E-16	5.819351E-18
7.700000E+03	3.830653E-16	5.807498E-18
7.710000E+03	3.820721E-16	5.796193E-18
7.720000E+03	3.810975E-16	5.785149E-18
7.730000E+03	3.801595E-16	5.774644E-18
7.740000E+03	3.792486E-16	5.764531E-18
7.750000E+03	3.783645E-16	5.754807E-18
7.760000E+03	3.775068E-16	5.745470E-18
