#wls	flux	fluxerr
1.600000E+03	2.429338E-16	3.114228E-18
1.640000E+03	2.494480E-16	3.193489E-18
1.680000E+03	2.562170E-16	3.275675E-18
1.720000E+03	2.632795E-16	3.361258E-18
1.760000E+03	2.706370E-16	3.450228E-18
1.800000E+03	2.783293E-16	3.543062E-18
1.840000E+03	2.863572E-16	3.639743E-18
1.880000E+03	2.948422E-16	3.741775E-18
1.920000E+03	3.037462E-16	3.848636E-18
1.960000E+03	3.131524E-16	3.961339E-18
2.000000E+03	3.231469E-16	4.080920E-18
2.040000E+03	3.338175E-16	4.208435E-18
2.080000E+03	3.451664E-16	4.343845E-18
2.120000E+03	3.573692E-16	4.489293E-18
2.160000E+03	3.705164E-16	4.645831E-18
2.200000E+03	3.846517E-16	4.813920E-18
2.240000E+03	3.998613E-16	4.994535E-18
2.280000E+03	4.162736E-16	5.189175E-18
2.320000E+03	4.339215E-16	5.398124E-18
2.360000E+03	4.528288E-16	5.621555E-18
2.400000E+03	4.731059E-16	5.860699E-18
2.440000E+03	4.946627E-16	6.114294E-18
2.480000E+03	5.175872E-16	6.383280E-18
2.520000E+03	5.417124E-16	6.665446E-18
2.560000E+03	5.671459E-16	6.961960E-18
2.600000E+03	5.936864E-16	7.270197E-18
2.640000E+03	6.213573E-16	7.590291E-18
2.680000E+03	6.500155E-16	7.920340E-18
2.720000E+03	6.795452E-16	8.258792E-18
2.760000E+03	7.099054E-16	8.605006E-18
2.800000E+03	7.407869E-16	8.955104E-18
2.840000E+03	7.721001E-16	9.307894E-18
2.880000E+03	8.035363E-16	9.659559E-18
2.920000E+03	8.349073E-16	1.000777E-17
2.960000E+03	8.660928E-16	1.035102E-17
3.000000E+03	8.970798E-16	1.068913E-17
3.010000E+03	9.048317E-16	1.077328E-17
3.020000E+03	9.125269E-16	1.085658E-17
3.030000E+03	9.202054E-16	1.093950E-17
3.040000E+03	9.279059E-16	1.102250E-17
3.050000E+03	9.356214E-16	1.110550E-17
3.060000E+03	9.432990E-16	1.118787E-17
3.070000E+03	9.509771E-16	1.127007E-17
3.080000E+03	9.586470E-16	1.135198E-17
3.090000E+03	9.663022E-16	1.143354E-17
3.100000E+03	9.739788E-16	1.151517E-17
3.110000E+03	9.816238E-16	1.159624E-17
3.120000E+03	9.893178E-16	1.167770E-17
3.130000E+03	9.969621E-16	1.175839E-17
3.140000E+03	1.004679E-15	1.183975E-17
3.150000E+03	1.012330E-15	1.192014E-17
3.160000E+03	1.020033E-15	1.200096E-17
3.170000E+03	1.027736E-15	1.208158E-17
3.180000E+03	1.035471E-15	1.216240E-17
3.190000E+03	1.043184E-15	1.224275E-17
3.200000E+03	1.050906E-15	1.232302E-17
3.210000E+03	1.058669E-15	1.240357E-17
3.220000E+03	1.066416E-15	1.248375E-17
3.230000E+03	1.074179E-15	1.256390E-17
3.240000E+03	1.081984E-15	1.264436E-17
3.250000E+03	1.089818E-15	1.272496E-17
3.260000E+03	1.097628E-15	1.280506E-17
3.270000E+03	1.105479E-15	1.288545E-17
3.280000E+03	1.113355E-15	1.296593E-17
3.290000E+03	1.121203E-15	1.304587E-17
3.300000E+03	1.129087E-15	1.312603E-17
3.310000E+03	1.136989E-15	1.320619E-17
3.320000E+03	1.144931E-15	1.328660E-17
3.330000E+03	1.152856E-15	1.336661E-17
3.340000E+03	1.160750E-15	1.344605E-17
3.350000E+03	1.168705E-15	1.352598E-17
3.360000E+03	1.176629E-15	1.360535E-17
3.370000E+03	1.184538E-15	1.368433E-17
3.380000E+03	1.192416E-15	1.376274E-17
3.390000E+03	1.200278E-15	1.384075E-17
3.400000E+03	1.208140E-15	1.391855E-17
3.410000E+03	1.215911E-15	1.399508E-17
3.420000E+03	1.223640E-15	1.407092E-17
3.430000E+03	1.231307E-15	1.414585E-17
3.440000E+03	1.238859E-15	1.421923E-17
3.450000E+03	1.246276E-15	1.429086E-17
3.460000E+03	1.253609E-15	1.436130E-17
3.470000E+03	1.260737E-15	1.442921E-17
3.480000E+03	1.267681E-15	1.449480E-17
3.490000E+03	1.274424E-15	1.455790E-17
3.500000E+03	1.280891E-15	1.461766E-17
3.510000E+03	1.287073E-15	1.467397E-17
3.520000E+03	1.292901E-15	1.472607E-17
3.530000E+03	1.298371E-15	1.477392E-17
3.540000E+03	1.303455E-15	1.481721E-17
3.550000E+03	1.308093E-15	1.485528E-17
3.560000E+03	1.312267E-15	1.488793E-17
3.570000E+03	1.315987E-15	1.491530E-17
3.580000E+03	1.319212E-15	1.493692E-17
3.590000E+03	1.321935E-15	1.495275E-17
3.600000E+03	1.324127E-15	1.496247E-17
3.610000E+03	1.325767E-15	1.496587E-17
3.620000E+03	1.326892E-15	1.496337E-17
3.630000E+03	1.327492E-15	1.495489E-17
3.640000E+03	1.327614E-15	1.494098E-17
3.650000E+03	1.327309E-15	1.492220E-17
3.660000E+03	1.326629E-15	1.489919E-17
3.670000E+03	1.325631E-15	1.487257E-17
3.680000E+03	1.324368E-15	1.484298E-17
3.690000E+03	1.322902E-15	1.481108E-17
3.700000E+03	1.321285E-15	1.477750E-17
3.710000E+03	1.319555E-15	1.474264E-17
3.720000E+03	1.317812E-15	1.470765E-17
3.730000E+03	1.316064E-15	1.467259E-17
3.740000E+03	1.314362E-15	1.463804E-17
3.750000E+03	1.312755E-15	1.460455E-17
3.760000E+03	1.311306E-15	1.457283E-17
3.770000E+03	1.310011E-15	1.454279E-17
3.780000E+03	1.308923E-15	1.451506E-17
3.790000E+03	1.308068E-15	1.448989E-17
3.800000E+03	1.307446E-15	1.446727E-17
3.810000E+03	1.307071E-15	1.444736E-17
3.820000E+03	1.306949E-15	1.443023E-17
3.830000E+03	1.307082E-15	1.441587E-17
3.840000E+03	1.307446E-15	1.440401E-17
3.850000E+03	1.308053E-15	1.439479E-17
3.860000E+03	1.308871E-15	1.438784E-17
3.870000E+03	1.309885E-15	1.438299E-17
3.880000E+03	1.311100E-15	1.438027E-17
3.890000E+03	1.312457E-15	1.437905E-17
3.900000E+03	1.313938E-15	1.437913E-17
3.910000E+03	1.315545E-15	1.438050E-17
3.920000E+03	1.317256E-15	1.438296E-17
3.930000E+03	1.319036E-15	1.438608E-17
3.940000E+03	1.320865E-15	1.438966E-17
3.950000E+03	1.322725E-15	1.439351E-17
3.960000E+03	1.324597E-15	1.439741E-17
3.970000E+03	1.326463E-15	1.440116E-17
3.980000E+03	1.328302E-15	1.440456E-17
3.990000E+03	1.330076E-15	1.440717E-17
4.000000E+03	1.331782E-15	1.440898E-17
4.010000E+03	1.333394E-15	1.440970E-17
4.020000E+03	1.334870E-15	1.440888E-17
4.030000E+03	1.336183E-15	1.440624E-17
4.040000E+03	1.337304E-15	1.440149E-17
4.050000E+03	1.338217E-15	1.439445E-17
4.060000E+03	1.338860E-15	1.438445E-17
4.070000E+03	1.339232E-15	1.437152E-17
4.080000E+03	1.339270E-15	1.435496E-17
4.090000E+03	1.338960E-15	1.433466E-17
4.100000E+03	1.338257E-15	1.431015E-17
4.110000E+03	1.337155E-15	1.428137E-17
4.120000E+03	1.335613E-15	1.424791E-17
4.130000E+03	1.333615E-15	1.420962E-17
4.140000E+03	1.331148E-15	1.416636E-17
4.150000E+03	1.328185E-15	1.411788E-17
4.160000E+03	1.324736E-15	1.406430E-17
4.170000E+03	1.320779E-15	1.400541E-17
4.180000E+03	1.316317E-15	1.394126E-17
4.190000E+03	1.311335E-15	1.387171E-17
4.200000E+03	1.305840E-15	1.379686E-17
4.210000E+03	1.299840E-15	1.371681E-17
4.220000E+03	1.293334E-15	1.363156E-17
4.230000E+03	1.286339E-15	1.354134E-17
4.240000E+03	1.278853E-15	1.344612E-17
4.250000E+03	1.270932E-15	1.334651E-17
4.260000E+03	1.262572E-15	1.324250E-17
4.270000E+03	1.253819E-15	1.313458E-17
4.280000E+03	1.244721E-15	1.302328E-17
4.290000E+03	1.235324E-15	1.290909E-17
4.300000E+03	1.225680E-15	1.279255E-17
4.310000E+03	1.215853E-15	1.267435E-17
4.320000E+03	1.205893E-15	1.255502E-17
4.330000E+03	1.195883E-15	1.243542E-17
4.340000E+03	1.185860E-15	1.231596E-17
4.350000E+03	1.175932E-15	1.219774E-17
4.360000E+03	1.166120E-15	1.208098E-17
4.370000E+03	1.156526E-15	1.196672E-17
4.380000E+03	1.147191E-15	1.185539E-17
4.390000E+03	1.138174E-15	1.174758E-17
4.400000E+03	1.129494E-15	1.164349E-17
4.410000E+03	1.121174E-15	1.154333E-17
4.420000E+03	1.113194E-15	1.144686E-17
4.430000E+03	1.105543E-15	1.135399E-17
4.440000E+03	1.098211E-15	1.126458E-17
4.450000E+03	1.091193E-15	1.117859E-17
4.460000E+03	1.084491E-15	1.109600E-17
4.470000E+03	1.078086E-15	1.101662E-17
4.480000E+03	1.071994E-15	1.094059E-17
4.490000E+03	1.066221E-15	1.086797E-17
4.500000E+03	1.060792E-15	1.079900E-17
4.510000E+03	1.055695E-15	1.073355E-17
4.520000E+03	1.050982E-15	1.067212E-17
4.530000E+03	1.046645E-15	1.061462E-17
4.540000E+03	1.042695E-15	1.056116E-17
4.550000E+03	1.039161E-15	1.051200E-17
4.560000E+03	1.036048E-15	1.046718E-17
4.570000E+03	1.033337E-15	1.042649E-17
4.580000E+03	1.031032E-15	1.038997E-17
4.590000E+03	1.029123E-15	1.035748E-17
4.600000E+03	1.027582E-15	1.032874E-17
4.610000E+03	1.026377E-15	1.030341E-17
4.620000E+03	1.025478E-15	1.028118E-17
4.630000E+03	1.024842E-15	1.026159E-17
4.640000E+03	1.024409E-15	1.024405E-17
4.650000E+03	1.024129E-15	1.022805E-17
4.660000E+03	1.023947E-15	1.021303E-17
4.670000E+03	1.023798E-15	1.019834E-17
4.680000E+03	1.023607E-15	1.018322E-17
4.690000E+03	1.023329E-15	1.016726E-17
4.700000E+03	1.022874E-15	1.014953E-17
4.710000E+03	1.022204E-15	1.012969E-17
4.720000E+03	1.021270E-15	1.010724E-17
4.730000E+03	1.020033E-15	1.008181E-17
4.740000E+03	1.018484E-15	1.005335E-17
4.750000E+03	1.016642E-15	1.002203E-17
4.760000E+03	1.014520E-15	9.987995E-18
4.770000E+03	1.012118E-15	9.951267E-18
4.780000E+03	1.009471E-15	9.912189E-18
4.790000E+03	1.006601E-15	9.870988E-18
4.800000E+03	1.003550E-15	9.828088E-18
4.810000E+03	1.000327E-15	9.783589E-18
4.820000E+03	9.969781E-16	9.737941E-18
4.830000E+03	9.935168E-16	9.691280E-18
4.840000E+03	9.899894E-16	9.644065E-18
4.850000E+03	9.864172E-16	9.596505E-18
4.860000E+03	9.828059E-16	9.548658E-18
4.870000E+03	9.792021E-16	9.500978E-18
4.880000E+03	9.756087E-16	9.453492E-18
4.890000E+03	9.720378E-16	9.406320E-18
4.900000E+03	9.685060E-16	9.359619E-18
4.910000E+03	9.650191E-16	9.313445E-18
4.920000E+03	9.615804E-16	9.267828E-18
4.930000E+03	9.582003E-16	9.222868E-18
4.940000E+03	9.548600E-16	9.178381E-18
4.950000E+03	9.515776E-16	9.134541E-18
4.960000E+03	9.483526E-16	9.091340E-18
4.970000E+03	9.451763E-16	9.048695E-18
4.980000E+03	9.420515E-16	9.006629E-18
4.990000E+03	9.389827E-16	8.965185E-18
5.000000E+03	9.359867E-16	8.924521E-18
5.010000E+03	9.330644E-16	8.884644E-18
5.020000E+03	9.302286E-16	8.845673E-18
5.030000E+03	9.274938E-16	8.807744E-18
5.040000E+03	9.248850E-16	8.771089E-18
5.050000E+03	9.224001E-16	8.735684E-18
5.060000E+03	9.200634E-16	8.701757E-18
5.070000E+03	9.178882E-16	8.669426E-18
5.080000E+03	9.158858E-16	8.638794E-18
5.090000E+03	9.140644E-16	8.609931E-18
5.100000E+03	9.124292E-16	8.582880E-18
5.110000E+03	9.109647E-16	8.557490E-18
5.120000E+03	9.096987E-16	8.534014E-18
5.130000E+03	9.086119E-16	8.512267E-18
5.140000E+03	9.077034E-16	8.492232E-18
5.150000E+03	9.069725E-16	8.473899E-18
5.160000E+03	9.064199E-16	8.457268E-18
5.170000E+03	9.060486E-16	8.442360E-18
5.180000E+03	9.058725E-16	8.429298E-18
5.190000E+03	9.058720E-16	8.417896E-18
5.200000E+03	9.060830E-16	8.408480E-18
5.210000E+03	9.064971E-16	8.400966E-18
5.220000E+03	9.071326E-16	8.395517E-18
5.230000E+03	9.079885E-16	8.392114E-18
5.240000E+03	9.090606E-16	8.390715E-18
5.250000E+03	9.103684E-16	8.391491E-18
5.260000E+03	9.118998E-16	8.394323E-18
5.270000E+03	9.136467E-16	8.399131E-18
5.280000E+03	9.155869E-16	8.405703E-18
5.290000E+03	9.177020E-16	8.413864E-18
5.300000E+03	9.199773E-16	8.423478E-18
5.310000E+03	9.223668E-16	8.434117E-18
5.320000E+03	9.248560E-16	8.445647E-18
5.330000E+03	9.273901E-16	8.457568E-18
5.340000E+03	9.299291E-16	8.469513E-18
5.350000E+03	9.324396E-16	8.481181E-18
5.360000E+03	9.348675E-16	8.492084E-18
5.370000E+03	9.371577E-16	8.501727E-18
5.380000E+03	9.392833E-16	8.509872E-18
5.390000E+03	9.411717E-16	8.515870E-18
5.400000E+03	9.427908E-16	8.519443E-18
5.410000E+03	9.441036E-16	8.520268E-18
5.420000E+03	9.450700E-16	8.517994E-18
5.430000E+03	9.456768E-16	8.512519E-18
5.440000E+03	9.458920E-16	8.503567E-18
5.450000E+03	9.457233E-16	8.491225E-18
5.460000E+03	9.451718E-16	8.475515E-18
5.470000E+03	9.442692E-16	8.456739E-18
5.480000E+03	9.430595E-16	8.435300E-18
5.490000E+03	9.415574E-16	8.411342E-18
5.500000E+03	9.398255E-16	8.385434E-18
5.510000E+03	9.378355E-16	8.357330E-18
5.520000E+03	9.355916E-16	8.327079E-18
5.530000E+03	9.331023E-16	8.294764E-18
5.540000E+03	9.303605E-16	8.260330E-18
5.550000E+03	9.273708E-16	8.223828E-18
5.560000E+03	9.241488E-16	8.185401E-18
5.570000E+03	9.206910E-16	8.145030E-18
5.580000E+03	9.170127E-16	8.102855E-18
5.590000E+03	9.131192E-16	8.058931E-18
5.600000E+03	9.090158E-16	8.013311E-18
5.610000E+03	9.047175E-16	7.966134E-18
5.620000E+03	9.002134E-16	7.917311E-18
5.630000E+03	8.955318E-16	7.867096E-18
5.640000E+03	8.906857E-16	7.815608E-18
5.650000E+03	8.856822E-16	7.762916E-18
5.660000E+03	8.805505E-16	7.709277E-18
5.670000E+03	8.753127E-16	7.654892E-18
5.680000E+03	8.699935E-16	7.599975E-18
5.690000E+03	8.646178E-16	7.544750E-18
5.700000E+03	8.592107E-16	7.489434E-18
5.710000E+03	8.538042E-16	7.434309E-18
5.720000E+03	8.484101E-16	7.379475E-18
5.730000E+03	8.430552E-16	7.325165E-18
5.740000E+03	8.377530E-16	7.271495E-18
5.750000E+03	8.325141E-16	7.218556E-18
5.760000E+03	8.273368E-16	7.166331E-18
5.770000E+03	8.222427E-16	7.115004E-18
5.780000E+03	8.172251E-16	7.064516E-18
5.790000E+03	8.122844E-16	7.014867E-18
5.800000E+03	8.074292E-16	6.966131E-18
5.810000E+03	8.026595E-16	6.918304E-18
5.820000E+03	7.979674E-16	6.871316E-18
5.830000E+03	7.933720E-16	6.825330E-18
5.840000E+03	7.888600E-16	6.780229E-18
5.850000E+03	7.844460E-16	6.736136E-18
5.860000E+03	7.801465E-16	6.693191E-18
5.870000E+03	7.759637E-16	6.651410E-18
5.880000E+03	7.719180E-16	6.610965E-18
5.890000E+03	7.680234E-16	6.571973E-18
5.900000E+03	7.642858E-16	6.534479E-18
5.910000E+03	7.607358E-16	6.498745E-18
5.920000E+03	7.573692E-16	6.464729E-18
5.930000E+03	7.542129E-16	6.432657E-18
5.940000E+03	7.512726E-16	6.402575E-18
5.950000E+03	7.485417E-16	6.374422E-18
5.960000E+03	7.460245E-16	6.348231E-18
5.970000E+03	7.437111E-16	6.323915E-18
5.980000E+03	7.415861E-16	6.301340E-18
5.990000E+03	7.396369E-16	6.280396E-18
6.000000E+03	7.378297E-16	6.260794E-18
6.010000E+03	7.361357E-16	6.242288E-18
6.020000E+03	7.345323E-16	6.224687E-18
6.030000E+03	7.329882E-16	6.207724E-18
6.040000E+03	7.314723E-16	6.191138E-18
6.050000E+03	7.299477E-16	6.174615E-18
6.060000E+03	7.284056E-16	6.158083E-18
6.070000E+03	7.268075E-16	6.141219E-18
6.080000E+03	7.251443E-16	6.123946E-18
6.090000E+03	7.234034E-16	6.106162E-18
6.100000E+03	7.215599E-16	6.087656E-18
6.110000E+03	7.196178E-16	6.068467E-18
6.120000E+03	7.175604E-16	6.048454E-18
6.130000E+03	7.153903E-16	6.027643E-18
6.140000E+03	7.130876E-16	6.005866E-18
6.150000E+03	7.106507E-16	5.983114E-18
6.160000E+03	7.080795E-16	5.959386E-18
6.170000E+03	7.053571E-16	5.934543E-18
6.180000E+03	7.025008E-16	5.908730E-18
6.190000E+03	6.995269E-16	5.882088E-18
6.200000E+03	6.964602E-16	5.854824E-18
6.210000E+03	6.933331E-16	5.827212E-18
6.220000E+03	6.901610E-16	5.799383E-18
6.230000E+03	6.869678E-16	5.771536E-18
6.240000E+03	6.837611E-16	5.743736E-18
6.250000E+03	6.805574E-16	5.716121E-18
6.260000E+03	6.773661E-16	5.688769E-18
6.270000E+03	6.742143E-16	5.661910E-18
6.280000E+03	6.711064E-16	5.635577E-18
6.290000E+03	6.680568E-16	5.609893E-18
6.300000E+03	6.650815E-16	5.584993E-18
6.310000E+03	6.622071E-16	5.561097E-18
6.320000E+03	6.594454E-16	5.538307E-18
6.330000E+03	6.568258E-16	5.516868E-18
6.340000E+03	6.543627E-16	5.496903E-18
6.350000E+03	6.520793E-16	5.478606E-18
6.360000E+03	6.500068E-16	5.462241E-18
6.370000E+03	6.481592E-16	5.447927E-18
6.380000E+03	6.465655E-16	5.435908E-18
6.390000E+03	6.452357E-16	5.426272E-18
6.400000E+03	6.442011E-16	5.419285E-18
6.410000E+03	6.434641E-16	5.414969E-18
6.420000E+03	6.430390E-16	5.413447E-18
6.430000E+03	6.429258E-16	5.414720E-18
6.440000E+03	6.431102E-16	5.418669E-18
6.450000E+03	6.435714E-16	5.425117E-18
6.460000E+03	6.442819E-16	5.433838E-18
6.470000E+03	6.451991E-16	5.444471E-18
6.480000E+03	6.463084E-16	5.456894E-18
6.490000E+03	6.475471E-16	5.470580E-18
6.500000E+03	6.488730E-16	5.485172E-18
6.510000E+03	6.502323E-16	5.500215E-18
6.520000E+03	6.515947E-16	5.515453E-18
6.530000E+03	6.528948E-16	5.530329E-18
6.540000E+03	6.540865E-16	5.544451E-18
6.550000E+03	6.551357E-16	5.557526E-18
6.560000E+03	6.559941E-16	5.569139E-18
6.570000E+03	6.566351E-16	5.579059E-18
6.580000E+03	6.570276E-16	5.587015E-18
6.590000E+03	6.571451E-16	5.592776E-18
6.600000E+03	6.569664E-16	5.596150E-18
6.610000E+03	6.564841E-16	5.597067E-18
6.620000E+03	6.556776E-16	5.595341E-18
6.630000E+03	6.545488E-16	5.590979E-18
6.640000E+03	6.530946E-16	5.583942E-18
6.650000E+03	6.513154E-16	5.574224E-18
6.660000E+03	6.492244E-16	5.561926E-18
6.670000E+03	6.468195E-16	5.547019E-18
6.680000E+03	6.441201E-16	5.529656E-18
6.690000E+03	6.411297E-16	5.509858E-18
6.700000E+03	6.378828E-16	5.487909E-18
6.710000E+03	6.343882E-16	5.463873E-18
6.720000E+03	6.306662E-16	5.437915E-18
6.730000E+03	6.267396E-16	5.410221E-18
6.740000E+03	6.226413E-16	5.381067E-18
6.750000E+03	6.183874E-16	5.350581E-18
6.760000E+03	6.140133E-16	5.319062E-18
6.770000E+03	6.095362E-16	5.286651E-18
6.780000E+03	6.050005E-16	5.253726E-18
6.790000E+03	6.004135E-16	5.220347E-18
6.800000E+03	5.958088E-16	5.186797E-18
6.810000E+03	5.912087E-16	5.153271E-18
6.820000E+03	5.866254E-16	5.119868E-18
6.830000E+03	5.820954E-16	5.086906E-18
6.840000E+03	5.776262E-16	5.054449E-18
6.850000E+03	5.732326E-16	5.022624E-18
6.860000E+03	5.689267E-16	4.991536E-18
6.870000E+03	5.647186E-16	4.961276E-18
6.880000E+03	5.606167E-16	4.931916E-18
6.890000E+03	5.566273E-16	4.903514E-18
6.900000E+03	5.527546E-16	4.876107E-18
6.910000E+03	5.490014E-16	4.849721E-18
6.920000E+03	5.453689E-16	4.824370E-18
6.930000E+03	5.418656E-16	4.800129E-18
6.940000E+03	5.384723E-16	4.776831E-18
6.950000E+03	5.352039E-16	4.754610E-18
6.960000E+03	5.320481E-16	4.733359E-18
6.970000E+03	5.290007E-16	4.713043E-18
6.980000E+03	5.260484E-16	4.693545E-18
6.990000E+03	5.232036E-16	4.674977E-18
7.000000E+03	5.204527E-16	4.657220E-18
7.010000E+03	5.177904E-16	4.640228E-18
7.020000E+03	5.152122E-16	4.623961E-18
7.030000E+03	5.127132E-16	4.608379E-18
7.040000E+03	5.102890E-16	4.593442E-18
7.050000E+03	5.079357E-16	4.579116E-18
7.060000E+03	5.056408E-16	4.565290E-18
7.070000E+03	5.034179E-16	4.552089E-18
7.080000E+03	5.012551E-16	4.539404E-18
7.090000E+03	4.991496E-16	4.527212E-18
7.100000E+03	4.970896E-16	4.515407E-18
7.110000E+03	4.950898E-16	4.504121E-18
7.120000E+03	4.931301E-16	4.493176E-18
7.130000E+03	4.912250E-16	4.482701E-18
7.140000E+03	4.893630E-16	4.472593E-18
7.150000E+03	4.875322E-16	4.462745E-18
7.160000E+03	4.857465E-16	4.453282E-18
7.170000E+03	4.839938E-16	4.444096E-18
7.180000E+03	4.822699E-16	4.435147E-18
7.190000E+03	4.805708E-16	4.426399E-18
7.200000E+03	4.789004E-16	4.417888E-18
7.210000E+03	4.772454E-16	4.409491E-18
7.220000E+03	4.756101E-16	4.401248E-18
7.230000E+03	4.739811E-16	4.393034E-18
7.240000E+03	4.723627E-16	4.384887E-18
7.250000E+03	4.707507E-16	4.376770E-18
7.260000E+03	4.691502E-16	4.368728E-18
7.270000E+03	4.675405E-16	4.360569E-18
7.280000E+03	4.659361E-16	4.352426E-18
7.290000E+03	4.643350E-16	4.344280E-18
7.300000E+03	4.627351E-16	4.336111E-18
7.310000E+03	4.611267E-16	4.327826E-18
7.320000E+03	4.595351E-16	4.319663E-18
7.330000E+03	4.579427E-16	4.311456E-18
7.340000E+03	4.563497E-16	4.303206E-18
7.350000E+03	4.547745E-16	4.295086E-18
7.360000E+03	4.532094E-16	4.287022E-18
7.370000E+03	4.516648E-16	4.279114E-18
7.380000E+03	4.501342E-16	4.271301E-18
7.390000E+03	4.486200E-16	4.263605E-18
7.400000E+03	4.471338E-16	4.256136E-18
7.410000E+03	4.456787E-16	4.248925E-18
7.420000E+03	4.442492E-16	4.241919E-18
7.430000E+03	4.428490E-16	4.235155E-18
7.440000E+03	4.414813E-16	4.228666E-18
7.450000E+03	4.401499E-16	4.222486E-18
7.460000E+03	4.388669E-16	4.216735E-18
7.470000E+03	4.376179E-16	4.211276E-18
7.480000E+03	4.364146E-16	4.206221E-18
7.490000E+03	4.352596E-16	4.201598E-18
7.500000E+03	4.341551E-16	4.197431E-18
7.510000E+03	4.330850E-16	4.193563E-18
7.520000E+03	4.320680E-16	4.190179E-18
7.530000E+03	4.310869E-16	4.187113E-18
7.540000E+03	4.301504E-16	4.184452E-18
7.550000E+03	4.292492E-16	4.182105E-18
7.560000E+03	4.283818E-16	4.180061E-18
7.570000E+03	4.275468E-16	4.178306E-18
7.580000E+03	4.267330E-16	4.176732E-18
7.590000E+03	4.259467E-16	4.175401E-18
7.600000E+03	4.251677E-16	4.174115E-18
7.610000E+03	4.244103E-16	4.173016E-18
7.620000E+03	4.236538E-16	4.171901E-18
7.630000E+03	4.229042E-16	4.170827E-18
7.640000E+03	4.221582E-16	4.169763E-18
7.650000E+03	4.214044E-16	4.168596E-18
7.660000E+03	4.206492E-16	4.167390E-18
7.670000E+03	4.198736E-16	4.165953E-18
7.680000E+03	4.191027E-16	4.164537E-18
7.690000E+03	4.183100E-16	4.162875E-18
7.700000E+03	4.175138E-16	4.161151E-18
7.710000E+03	4.166976E-16	4.159198E-18
7.720000E+03	4.158816E-16	4.157218E-18
7.730000E+03	4.150601E-16	4.155153E-18
7.740000E+03	4.142367E-16	4.153039E-18
7.750000E+03	4.134246E-16	4.151009E-18
7.760000E+03	4.126108E-16	4.148931E-18
