#wls	flux	fluxerr
1.600000E+03	2.402101E-16	2.450005E-18
1.640000E+03	2.458022E-16	2.503639E-18
1.680000E+03	2.515630E-16	2.558748E-18
1.720000E+03	2.575332E-16	2.615730E-18
1.760000E+03	2.637124E-16	2.674564E-18
1.800000E+03	2.701436E-16	2.735670E-18
1.840000E+03	2.768268E-16	2.799023E-18
1.880000E+03	2.837609E-16	2.864595E-18
1.920000E+03	2.910831E-16	2.933745E-18
1.960000E+03	2.987966E-16	3.006476E-18
2.000000E+03	3.069026E-16	3.082770E-18
2.040000E+03	3.154985E-16	3.163572E-18
2.080000E+03	3.246356E-16	3.249356E-18
2.120000E+03	3.344666E-16	3.341606E-18
2.160000E+03	3.449446E-16	3.439801E-18
2.200000E+03	3.562760E-16	3.545945E-18
2.240000E+03	3.684103E-16	3.659467E-18
2.280000E+03	3.813414E-16	3.780245E-18
2.320000E+03	3.951115E-16	3.908626E-18
2.360000E+03	4.095940E-16	4.043289E-18
2.400000E+03	4.248152E-16	4.184427E-18
2.440000E+03	4.407400E-16	4.331622E-18
2.480000E+03	4.572672E-16	4.483812E-18
2.520000E+03	4.743408E-16	4.640385E-18
2.560000E+03	4.918946E-16	4.800629E-18
2.600000E+03	5.099089E-16	4.964290E-18
2.640000E+03	5.281806E-16	5.129336E-18
2.680000E+03	5.467240E-16	5.295859E-18
2.720000E+03	5.654268E-16	5.462722E-18
2.760000E+03	5.842216E-16	5.629236E-18
2.800000E+03	6.030854E-16	5.795141E-18
2.840000E+03	6.218650E-16	5.958934E-18
2.880000E+03	6.403364E-16	6.118453E-18
2.920000E+03	6.580932E-16	6.269822E-18
2.960000E+03	6.750622E-16	6.412376E-18
3.000000E+03	6.909350E-16	6.543237E-18
3.010000E+03	6.946652E-16	6.573501E-18
3.020000E+03	6.983771E-16	6.603516E-18
3.030000E+03	7.020116E-16	6.632724E-18
3.040000E+03	7.055655E-16	6.661094E-18
3.050000E+03	7.090355E-16	6.688598E-18
3.060000E+03	7.124181E-16	6.715204E-18
3.070000E+03	7.157099E-16	6.740881E-18
3.080000E+03	7.189077E-16	6.765602E-18
3.090000E+03	7.220616E-16	6.789840E-18
3.100000E+03	7.251141E-16	6.813054E-18
3.110000E+03	7.280617E-16	6.835214E-18
3.120000E+03	7.309540E-16	6.856787E-18
3.130000E+03	7.337341E-16	6.877242E-18
3.140000E+03	7.364510E-16	6.897037E-18
3.150000E+03	7.391003E-16	6.916137E-18
3.160000E+03	7.416260E-16	6.934015E-18
3.170000E+03	7.440762E-16	6.951126E-18
3.180000E+03	7.464978E-16	6.967908E-18
3.190000E+03	7.487838E-16	6.983365E-18
3.200000E+03	7.510318E-16	6.998408E-18
3.210000E+03	7.531362E-16	7.012055E-18
3.220000E+03	7.552433E-16	7.025669E-18
3.230000E+03	7.572477E-16	7.038272E-18
3.240000E+03	7.591448E-16	7.049824E-18
3.250000E+03	7.610283E-16	7.061195E-18
3.260000E+03	7.627945E-16	7.071425E-18
3.270000E+03	7.645356E-16	7.081370E-18
3.280000E+03	7.661971E-16	7.090527E-18
3.290000E+03	7.678212E-16	7.099286E-18
3.300000E+03	7.693540E-16	7.107153E-18
3.310000E+03	7.708369E-16	7.114511E-18
3.320000E+03	7.723096E-16	7.121727E-18
3.330000E+03	7.737183E-16	7.128305E-18
3.340000E+03	7.751020E-16	7.134606E-18
3.350000E+03	7.764527E-16	7.140557E-18
3.360000E+03	7.777625E-16	7.146086E-18
3.370000E+03	7.790678E-16	7.151530E-18
3.380000E+03	7.803594E-16	7.156802E-18
3.390000E+03	7.816281E-16	7.161819E-18
3.400000E+03	7.829076E-16	7.166890E-18
3.410000E+03	7.841872E-16	7.171918E-18
3.420000E+03	7.855402E-16	7.177571E-18
3.430000E+03	7.868705E-16	7.182971E-18
3.440000E+03	7.882493E-16	7.188768E-18
3.450000E+03	7.897044E-16	7.195213E-18
3.460000E+03	7.912212E-16	7.202172E-18
3.470000E+03	7.928257E-16	7.209879E-18
3.480000E+03	7.945424E-16	7.218555E-18
3.490000E+03	7.963170E-16	7.227704E-18
3.500000E+03	7.982889E-16	7.238589E-18
3.510000E+03	8.003643E-16	7.250354E-18
3.520000E+03	8.026027E-16	7.263535E-18
3.530000E+03	8.049872E-16	7.277975E-18
3.540000E+03	8.075738E-16	7.294177E-18
3.550000E+03	8.103093E-16	7.311653E-18
3.560000E+03	8.131784E-16	7.330264E-18
3.570000E+03	8.161334E-16	7.349575E-18
3.580000E+03	8.191984E-16	7.369800E-18
3.590000E+03	8.222970E-16	7.390250E-18
3.600000E+03	8.254593E-16	7.411194E-18
3.610000E+03	8.286511E-16	7.432325E-18
3.620000E+03	8.318765E-16	7.453676E-18
3.630000E+03	8.350798E-16	7.474751E-18
3.640000E+03	8.383377E-16	7.496233E-18
3.650000E+03	8.415732E-16	7.517434E-18
3.660000E+03	8.448389E-16	7.538824E-18
3.670000E+03	8.481290E-16	7.560351E-18
3.680000E+03	8.514717E-16	7.582265E-18
3.690000E+03	8.548396E-16	7.604320E-18
3.700000E+03	8.583239E-16	7.627326E-18
3.710000E+03	8.619017E-16	7.651078E-18
3.720000E+03	8.656094E-16	7.675894E-18
3.730000E+03	8.694564E-16	7.701855E-18
3.740000E+03	8.734798E-16	7.729284E-18
3.750000E+03	8.776895E-16	7.758266E-18
3.760000E+03	8.821464E-16	7.789331E-18
3.770000E+03	8.868309E-16	7.822300E-18
3.780000E+03	8.917724E-16	7.857425E-18
3.790000E+03	8.969952E-16	7.894914E-18
3.800000E+03	9.025181E-16	7.934922E-18
3.810000E+03	9.083048E-16	7.977124E-18
3.820000E+03	9.144117E-16	8.022006E-18
3.830000E+03	9.207685E-16	8.068941E-18
3.840000E+03	9.273966E-16	8.118112E-18
3.850000E+03	9.342664E-16	8.169252E-18
3.860000E+03	9.413689E-16	8.222273E-18
3.870000E+03	9.486933E-16	8.277076E-18
3.880000E+03	9.562047E-16	8.333350E-18
3.890000E+03	9.638686E-16	8.390788E-18
3.900000E+03	9.716957E-16	8.449480E-18
3.910000E+03	9.796524E-16	8.509129E-18
3.920000E+03	9.877060E-16	8.569447E-18
3.930000E+03	9.958471E-16	8.630350E-18
3.940000E+03	1.004067E-15	8.691761E-18
3.950000E+03	1.012335E-15	8.753415E-18
3.960000E+03	1.020623E-15	8.815061E-18
3.970000E+03	1.028944E-15	8.876813E-18
3.980000E+03	1.037268E-15	8.938412E-18
3.990000E+03	1.045585E-15	8.999773E-18
4.000000E+03	1.053862E-15	9.060608E-18
4.010000E+03	1.062064E-15	9.120628E-18
4.020000E+03	1.070174E-15	9.179681E-18
4.030000E+03	1.078190E-15	9.237761E-18
4.040000E+03	1.086046E-15	9.294296E-18
4.050000E+03	1.093693E-15	9.348880E-18
4.060000E+03	1.101140E-15	9.401590E-18
4.070000E+03	1.108312E-15	9.451797E-18
4.080000E+03	1.115153E-15	9.499028E-18
4.090000E+03	1.121648E-15	9.543168E-18
4.100000E+03	1.127743E-15	9.583775E-18
4.110000E+03	1.133406E-15	9.620585E-18
4.120000E+03	1.138613E-15	9.653408E-18
4.130000E+03	1.143301E-15	9.681717E-18
4.140000E+03	1.147473E-15	9.705566E-18
4.150000E+03	1.151117E-15	9.724863E-18
4.160000E+03	1.154201E-15	9.739363E-18
4.170000E+03	1.156699E-15	9.748853E-18
4.180000E+03	1.158638E-15	9.753583E-18
4.190000E+03	1.159971E-15	9.753165E-18
4.200000E+03	1.160703E-15	9.747683E-18
4.210000E+03	1.160805E-15	9.736892E-18
4.220000E+03	1.160286E-15	9.720901E-18
4.230000E+03	1.159101E-15	9.699338E-18
4.240000E+03	1.157302E-15	9.672671E-18
4.250000E+03	1.154856E-15	9.640642E-18
4.260000E+03	1.151790E-15	9.603498E-18
4.270000E+03	1.148109E-15	9.561289E-18
4.280000E+03	1.143892E-15	9.514695E-18
4.290000E+03	1.139139E-15	9.463745E-18
4.300000E+03	1.133929E-15	9.409091E-18
4.310000E+03	1.128307E-15	9.351138E-18
4.320000E+03	1.122355E-15	9.290576E-18
4.330000E+03	1.116093E-15	9.227573E-18
4.340000E+03	1.109635E-15	9.163080E-18
4.350000E+03	1.103024E-15	9.097468E-18
4.360000E+03	1.096302E-15	9.031077E-18
4.370000E+03	1.089545E-15	8.964549E-18
4.380000E+03	1.082792E-15	8.898195E-18
4.390000E+03	1.076055E-15	8.832116E-18
4.400000E+03	1.069391E-15	8.766776E-18
4.410000E+03	1.062804E-15	8.702215E-18
4.420000E+03	1.056313E-15	8.638575E-18
4.430000E+03	1.049959E-15	8.576187E-18
4.440000E+03	1.043726E-15	8.514926E-18
4.450000E+03	1.037630E-15	8.454911E-18
4.460000E+03	1.031664E-15	8.396082E-18
4.470000E+03	1.025828E-15	8.338441E-18
4.480000E+03	1.020134E-15	8.282070E-18
4.490000E+03	1.014602E-15	8.227139E-18
4.500000E+03	1.009264E-15	8.173886E-18
4.510000E+03	1.004154E-15	8.122599E-18
4.520000E+03	9.993122E-16	8.073583E-18
4.530000E+03	9.947634E-16	8.027035E-18
4.540000E+03	9.905413E-16	7.983216E-18
4.550000E+03	9.866847E-16	7.942429E-18
4.560000E+03	9.831988E-16	7.904705E-18
4.570000E+03	9.801037E-16	7.870195E-18
4.580000E+03	9.773975E-16	7.838871E-18
4.590000E+03	9.750563E-16	7.810530E-18
4.600000E+03	9.730829E-16	7.785186E-18
4.610000E+03	9.714231E-16	7.762392E-18
4.620000E+03	9.700738E-16	7.742116E-18
4.630000E+03	9.689648E-16	7.723788E-18
4.640000E+03	9.680545E-16	7.707071E-18
4.650000E+03	9.673066E-16	7.691670E-18
4.660000E+03	9.666464E-16	7.676987E-18
4.670000E+03	9.660308E-16	7.662678E-18
4.680000E+03	9.654050E-16	7.648307E-18
4.690000E+03	9.647040E-16	7.633360E-18
4.700000E+03	9.638893E-16	7.617536E-18
4.710000E+03	9.629274E-16	7.600574E-18
4.720000E+03	9.617800E-16	7.582176E-18
4.730000E+03	9.604170E-16	7.562109E-18
4.740000E+03	9.588500E-16	7.540474E-18
4.750000E+03	9.570667E-16	7.517178E-18
4.760000E+03	9.550859E-16	7.492376E-18
4.770000E+03	9.529233E-16	7.466196E-18
4.780000E+03	9.506016E-16	7.438822E-18
4.790000E+03	9.481600E-16	7.410565E-18
4.800000E+03	9.456090E-16	7.381510E-18
4.810000E+03	9.429515E-16	7.351683E-18
4.820000E+03	9.402135E-16	7.321291E-18
4.830000E+03	9.374206E-16	7.290534E-18
4.840000E+03	9.345773E-16	7.259451E-18
4.850000E+03	9.317073E-16	7.228225E-18
4.860000E+03	9.288324E-16	7.197028E-18
4.870000E+03	9.259614E-16	7.165927E-18
4.880000E+03	9.231105E-16	7.135048E-18
4.890000E+03	9.202916E-16	7.104483E-18
4.900000E+03	9.175125E-16	7.074290E-18
4.910000E+03	9.147662E-16	7.044416E-18
4.920000E+03	9.120708E-16	7.014999E-18
4.930000E+03	9.094015E-16	6.985847E-18
4.940000E+03	9.067698E-16	6.957048E-18
4.950000E+03	9.041472E-16	6.928384E-18
4.960000E+03	9.015446E-16	6.899937E-18
4.970000E+03	8.989455E-16	6.871581E-18
4.980000E+03	8.963467E-16	6.843293E-18
4.990000E+03	8.937588E-16	6.815152E-18
5.000000E+03	8.911879E-16	6.787207E-18
5.010000E+03	8.886460E-16	6.759548E-18
5.020000E+03	8.861420E-16	6.732243E-18
5.030000E+03	8.837176E-16	6.705606E-18
5.040000E+03	8.813805E-16	6.679695E-18
5.050000E+03	8.791769E-16	6.654858E-18
5.060000E+03	8.771321E-16	6.631282E-18
5.070000E+03	8.752586E-16	6.609059E-18
5.080000E+03	8.735818E-16	6.588375E-18
5.090000E+03	8.721108E-16	6.569295E-18
5.100000E+03	8.708485E-16	6.551833E-18
5.110000E+03	8.697914E-16	6.535961E-18
5.120000E+03	8.689225E-16	6.521545E-18
5.130000E+03	8.682578E-16	6.508701E-18
5.140000E+03	8.677588E-16	6.497134E-18
5.150000E+03	8.674329E-16	6.486898E-18
5.160000E+03	8.672647E-16	6.477873E-18
5.170000E+03	8.672623E-16	6.470116E-18
5.180000E+03	8.674230E-16	6.463603E-18
5.190000E+03	8.677681E-16	6.458490E-18
5.200000E+03	8.683069E-16	6.454842E-18
5.210000E+03	8.690695E-16	6.452877E-18
5.220000E+03	8.700774E-16	6.452751E-18
5.230000E+03	8.713413E-16	6.454537E-18
5.240000E+03	8.728849E-16	6.458406E-18
5.250000E+03	8.747166E-16	6.464413E-18
5.260000E+03	8.768278E-16	6.472487E-18
5.270000E+03	8.792195E-16	6.482632E-18
5.280000E+03	8.818763E-16	6.494728E-18
5.290000E+03	8.847761E-16	6.508605E-18
5.300000E+03	8.878813E-16	6.523985E-18
5.310000E+03	8.911585E-16	6.540617E-18
5.320000E+03	8.945781E-16	6.558283E-18
5.330000E+03	8.980875E-16	6.576594E-18
5.340000E+03	9.016477E-16	6.595266E-18
5.350000E+03	9.051971E-16	6.613848E-18
5.360000E+03	9.086888E-16	6.632001E-18
5.370000E+03	9.120546E-16	6.649231E-18
5.380000E+03	9.152249E-16	6.665035E-18
5.390000E+03	9.181570E-16	6.679108E-18
5.400000E+03	9.207820E-16	6.690960E-18
5.410000E+03	9.230349E-16	6.700125E-18
5.420000E+03	9.248840E-16	6.706385E-18
5.430000E+03	9.262696E-16	6.709319E-18
5.440000E+03	9.271715E-16	6.708792E-18
5.450000E+03	9.275668E-16	6.704653E-18
5.460000E+03	9.274705E-16	6.697021E-18
5.470000E+03	9.269005E-16	6.686038E-18
5.480000E+03	9.259182E-16	6.672159E-18
5.490000E+03	9.245884E-16	6.655859E-18
5.500000E+03	9.229741E-16	6.637598E-18
5.510000E+03	9.210824E-16	6.617433E-18
5.520000E+03	9.189082E-16	6.595335E-18
5.530000E+03	9.164397E-16	6.571223E-18
5.540000E+03	9.137181E-16	6.545399E-18
5.550000E+03	9.107512E-16	6.517924E-18
5.560000E+03	9.075454E-16	6.488849E-18
5.570000E+03	9.041295E-16	6.458383E-18
5.580000E+03	9.004909E-16	6.426441E-18
5.590000E+03	8.966563E-16	6.393217E-18
5.600000E+03	8.926039E-16	6.358559E-18
5.610000E+03	8.883380E-16	6.322501E-18
5.620000E+03	8.838555E-16	6.285025E-18
5.630000E+03	8.791592E-16	6.246155E-18
5.640000E+03	8.742585E-16	6.205960E-18
5.650000E+03	8.691715E-16	6.164573E-18
5.660000E+03	8.639333E-16	6.122243E-18
5.670000E+03	8.585684E-16	6.079149E-18
5.680000E+03	8.531322E-16	6.035682E-18
5.690000E+03	8.476386E-16	5.991940E-18
5.700000E+03	8.421522E-16	5.948382E-18
5.710000E+03	8.366995E-16	5.905193E-18
5.720000E+03	8.313022E-16	5.862525E-18
5.730000E+03	8.260001E-16	5.820656E-18
5.740000E+03	8.207921E-16	5.779577E-18
5.750000E+03	8.157038E-16	5.739466E-18
5.760000E+03	8.107296E-16	5.700281E-18
5.770000E+03	8.058678E-16	5.662006E-18
5.780000E+03	8.011133E-16	5.624605E-18
5.790000E+03	7.964596E-16	5.588030E-18
5.800000E+03	7.919076E-16	5.552285E-18
5.810000E+03	7.874432E-16	5.517269E-18
5.820000E+03	7.830615E-16	5.482947E-18
5.830000E+03	7.787604E-16	5.449300E-18
5.840000E+03	7.745404E-16	5.416333E-18
5.850000E+03	7.704061E-16	5.384076E-18
5.860000E+03	7.663661E-16	5.352587E-18
5.870000E+03	7.624336E-16	5.321957E-18
5.880000E+03	7.586265E-16	5.292308E-18
5.890000E+03	7.549589E-16	5.263739E-18
5.900000E+03	7.514637E-16	5.236475E-18
5.910000E+03	7.481672E-16	5.210698E-18
5.920000E+03	7.450800E-16	5.186480E-18
5.930000E+03	7.422403E-16	5.164084E-18
5.940000E+03	7.396579E-16	5.143575E-18
5.950000E+03	7.373352E-16	5.124967E-18
5.960000E+03	7.352800E-16	5.108313E-18
5.970000E+03	7.334746E-16	5.093487E-18
5.980000E+03	7.319059E-16	5.080397E-18
5.990000E+03	7.305281E-16	5.068722E-18
6.000000E+03	7.293095E-16	5.058242E-18
6.010000E+03	7.282050E-16	5.048644E-18
6.020000E+03	7.271663E-16	5.039592E-18
6.030000E+03	7.261295E-16	5.030643E-18
6.040000E+03	7.250629E-16	5.021581E-18
6.050000E+03	7.239096E-16	5.012010E-18
6.060000E+03	7.226487E-16	5.001787E-18
6.070000E+03	7.212361E-16	4.990610E-18
6.080000E+03	7.196661E-16	4.978438E-18
6.090000E+03	7.179100E-16	4.965078E-18
6.100000E+03	7.159693E-16	4.950538E-18
6.110000E+03	7.138518E-16	4.934874E-18
6.120000E+03	7.115626E-16	4.918124E-18
6.130000E+03	7.091108E-16	4.900350E-18
6.140000E+03	7.065082E-16	4.881635E-18
6.150000E+03	7.037750E-16	4.862120E-18
6.160000E+03	7.009322E-16	4.841948E-18
6.170000E+03	6.979998E-16	4.821260E-18
6.180000E+03	6.949891E-16	4.800132E-18
6.190000E+03	6.919171E-16	4.778683E-18
6.200000E+03	6.887834E-16	4.756910E-18
6.210000E+03	6.856011E-16	4.734902E-18
6.220000E+03	6.823592E-16	4.712585E-18
6.230000E+03	6.790617E-16	4.689984E-18
6.240000E+03	6.757047E-16	4.667073E-18
6.250000E+03	6.722934E-16	4.643887E-18
6.260000E+03	6.688272E-16	4.620422E-18
6.270000E+03	6.653226E-16	4.596790E-18
6.280000E+03	6.617843E-16	4.573025E-18
6.290000E+03	6.582201E-16	4.549178E-18
6.300000E+03	6.546557E-16	4.525429E-18
6.310000E+03	6.511059E-16	4.501876E-18
6.320000E+03	6.476026E-16	4.478742E-18
6.330000E+03	6.441668E-16	4.456171E-18
6.340000E+03	6.408220E-16	4.434325E-18
6.350000E+03	6.376147E-16	4.413525E-18
6.360000E+03	6.345646E-16	4.393910E-18
6.370000E+03	6.317058E-16	4.375716E-18
6.380000E+03	6.290719E-16	4.359176E-18
6.390000E+03	6.266942E-16	4.344509E-18
6.400000E+03	6.246003E-16	4.331909E-18
6.410000E+03	6.228058E-16	4.321487E-18
6.420000E+03	6.213271E-16	4.313358E-18
6.430000E+03	6.201736E-16	4.307590E-18
6.440000E+03	6.193469E-16	4.304195E-18
6.450000E+03	6.188409E-16	4.303133E-18
6.460000E+03	6.186413E-16	4.304306E-18
6.470000E+03	6.187261E-16	4.307563E-18
6.480000E+03	6.190809E-16	4.312807E-18
6.490000E+03	6.196717E-16	4.319802E-18
6.500000E+03	6.204681E-16	4.328338E-18
6.510000E+03	6.214371E-16	4.338188E-18
6.520000E+03	6.225451E-16	4.349116E-18
6.530000E+03	6.237433E-16	4.360785E-18
6.540000E+03	6.249930E-16	4.372923E-18
6.550000E+03	6.262248E-16	4.385045E-18
6.560000E+03	6.273717E-16	4.396678E-18
6.570000E+03	6.283734E-16	4.407399E-18
6.580000E+03	6.291925E-16	4.416941E-18
6.590000E+03	6.297706E-16	4.424888E-18
6.600000E+03	6.300963E-16	4.431157E-18
6.610000E+03	6.301369E-16	4.435508E-18
6.620000E+03	6.298748E-16	4.437813E-18
6.630000E+03	6.292981E-16	4.437979E-18
6.640000E+03	6.284067E-16	4.435998E-18
6.650000E+03	6.272032E-16	4.431879E-18
6.660000E+03	6.256771E-16	4.425540E-18
6.670000E+03	6.238295E-16	4.416980E-18
6.680000E+03	6.216812E-16	4.406337E-18
6.690000E+03	6.192261E-16	4.393559E-18
6.700000E+03	6.164854E-16	4.378788E-18
6.710000E+03	6.134835E-16	4.362187E-18
6.720000E+03	6.102243E-16	4.343778E-18
6.730000E+03	6.067538E-16	4.323877E-18
6.740000E+03	6.030809E-16	4.302543E-18
6.750000E+03	5.992331E-16	4.279963E-18
6.760000E+03	5.952555E-16	4.256453E-18
6.770000E+03	5.911640E-16	4.232122E-18
6.780000E+03	5.869980E-16	4.207248E-18
6.790000E+03	5.827886E-16	4.182047E-18
6.800000E+03	5.785645E-16	4.156723E-18
6.810000E+03	5.743521E-16	4.131464E-18
6.820000E+03	5.701826E-16	4.106491E-18
6.830000E+03	5.660614E-16	4.081844E-18
6.840000E+03	5.620225E-16	4.057764E-18
6.850000E+03	5.580739E-16	4.034313E-18
6.860000E+03	5.542294E-16	4.011588E-18
6.870000E+03	5.505001E-16	3.989673E-18
6.880000E+03	5.468954E-16	3.968635E-18
6.890000E+03	5.434299E-16	3.948582E-18
6.900000E+03	5.401016E-16	3.929503E-18
6.910000E+03	5.369137E-16	3.911423E-18
6.920000E+03	5.338753E-16	3.894409E-18
6.930000E+03	5.309711E-16	3.878355E-18
6.940000E+03	5.282139E-16	3.863354E-18
6.950000E+03	5.255930E-16	3.849332E-18
6.960000E+03	5.231039E-16	3.836259E-18
6.970000E+03	5.207416E-16	3.824099E-18
6.980000E+03	5.185005E-16	3.812814E-18
6.990000E+03	5.163821E-16	3.802419E-18
7.000000E+03	5.143664E-16	3.792767E-18
7.010000E+03	5.124553E-16	3.783874E-18
7.020000E+03	5.106510E-16	3.775759E-18
7.030000E+03	5.089347E-16	3.768285E-18
7.040000E+03	5.073020E-16	3.761421E-18
7.050000E+03	5.057639E-16	3.755250E-18
7.060000E+03	5.043026E-16	3.749642E-18
7.070000E+03	5.029225E-16	3.744630E-18
7.080000E+03	5.016207E-16	3.740195E-18
7.090000E+03	5.003879E-16	3.736270E-18
7.100000E+03	4.992218E-16	3.732837E-18
7.110000E+03	4.981279E-16	3.729940E-18
7.120000E+03	4.970972E-16	3.727511E-18
7.130000E+03	4.961276E-16	3.725538E-18
7.140000E+03	4.952170E-16	3.724006E-18
7.150000E+03	4.943704E-16	3.722952E-18
7.160000E+03	4.935700E-16	3.722244E-18
7.170000E+03	4.928193E-16	3.721909E-18
7.180000E+03	4.921065E-16	3.721860E-18
7.190000E+03	4.914409E-16	3.722166E-18
7.200000E+03	4.907948E-16	3.722620E-18
7.210000E+03	4.901764E-16	3.723282E-18
7.220000E+03	4.895719E-16	3.724049E-18
7.230000E+03	4.889822E-16	3.724927E-18
7.240000E+03	4.883860E-16	3.725753E-18
7.250000E+03	4.877849E-16	3.726539E-18
7.260000E+03	4.871663E-16	3.727188E-18
7.270000E+03	4.865329E-16	3.727719E-18
7.280000E+03	4.858736E-16	3.728046E-18
7.290000E+03	4.851923E-16	3.728197E-18
7.300000E+03	4.844718E-16	3.728040E-18
7.310000E+03	4.837173E-16	3.727612E-18
7.320000E+03	4.829273E-16	3.726901E-18
7.330000E+03	4.820937E-16	3.725840E-18
7.340000E+03	4.812159E-16	3.724425E-18
7.350000E+03	4.803015E-16	3.722712E-18
7.360000E+03	4.793365E-16	3.720590E-18
7.370000E+03	4.783297E-16	3.718127E-18
7.380000E+03	4.772756E-16	3.715277E-18
7.390000E+03	4.761841E-16	3.712116E-18
7.400000E+03	4.750435E-16	3.708550E-18
7.410000E+03	4.738648E-16	3.704664E-18
7.420000E+03	4.726445E-16	3.700427E-18
7.430000E+03	4.713867E-16	3.695872E-18
7.440000E+03	4.700959E-16	3.691031E-18
7.450000E+03	4.687840E-16	3.685996E-18
7.460000E+03	4.674404E-16	3.680684E-18
7.470000E+03	4.660914E-16	3.675300E-18
7.480000E+03	4.647261E-16	3.669757E-18
7.490000E+03	4.633549E-16	3.664137E-18
7.500000E+03	4.619807E-16	3.658462E-18
7.510000E+03	4.606128E-16	3.652805E-18
7.520000E+03	4.592444E-16	3.647114E-18
7.530000E+03	4.578835E-16	3.641450E-18
7.540000E+03	4.565291E-16	3.635806E-18
7.550000E+03	4.551799E-16	3.630172E-18
7.560000E+03	4.538337E-16	3.624529E-18
7.570000E+03	4.524874E-16	3.618854E-18
7.580000E+03	4.511450E-16	3.613178E-18
7.590000E+03	4.497953E-16	3.607409E-18
7.600000E+03	4.484412E-16	3.601574E-18
7.610000E+03	4.470709E-16	3.595575E-18
7.620000E+03	4.456870E-16	3.589432E-18
7.630000E+03	4.442846E-16	3.583106E-18
7.640000E+03	4.428590E-16	3.576558E-18
7.650000E+03	4.414056E-16	3.569750E-18
7.660000E+03	4.399206E-16	3.562650E-18
7.670000E+03	4.384010E-16	3.555232E-18
7.680000E+03	4.368447E-16	3.547478E-18
7.690000E+03	4.352583E-16	3.539441E-18
7.700000E+03	4.336283E-16	3.531009E-18
7.710000E+03	4.319715E-16	3.522318E-18
7.720000E+03	4.302844E-16	3.513338E-18
7.730000E+03	4.285725E-16	3.504113E-18
7.740000E+03	4.268420E-16	3.494694E-18
7.750000E+03	4.251002E-16	3.485138E-18
7.760000E+03	4.233549E-16	3.475510E-18
