#wls	flux	fluxerr
1.600000E+03	1.158479E-16	3.168042E-18
1.640000E+03	1.187333E-16	3.241988E-18
1.680000E+03	1.216829E-16	3.317316E-18
1.720000E+03	1.247380E-16	3.395124E-18
1.760000E+03	1.278750E-16	3.474752E-18
1.800000E+03	1.310912E-16	3.556095E-18
1.840000E+03	1.344066E-16	3.639671E-18
1.880000E+03	1.378179E-16	3.725366E-18
1.920000E+03	1.413214E-16	3.813046E-18
1.960000E+03	1.449123E-16	3.902556E-18
2.000000E+03	1.486099E-16	3.994381E-18
2.040000E+03	1.523828E-16	4.087646E-18
2.080000E+03	1.562489E-16	4.182801E-18
2.120000E+03	1.601998E-16	4.279586E-18
2.160000E+03	1.642528E-16	4.378426E-18
2.200000E+03	1.683703E-16	4.478287E-18
2.240000E+03	1.725946E-16	4.580256E-18
2.280000E+03	1.768850E-16	4.683214E-18
2.320000E+03	1.812540E-16	4.787457E-18
2.360000E+03	1.857134E-16	4.893256E-18
2.400000E+03	1.902160E-16	4.999330E-18
2.440000E+03	1.947985E-16	5.106607E-18
2.480000E+03	1.994089E-16	5.213684E-18
2.520000E+03	2.040805E-16	5.321399E-18
2.560000E+03	2.088154E-16	5.429764E-18
2.600000E+03	2.135537E-16	5.537183E-18
2.640000E+03	2.182917E-16	5.643534E-18
2.680000E+03	2.230829E-16	5.750167E-18
2.720000E+03	2.278288E-16	5.854507E-18
2.760000E+03	2.325768E-16	5.957750E-18
2.800000E+03	2.372818E-16	6.058713E-18
2.840000E+03	2.419844E-16	6.158411E-18
2.880000E+03	2.465748E-16	6.254028E-18
2.920000E+03	2.511456E-16	6.347902E-18
2.960000E+03	2.556113E-16	6.437857E-18
3.000000E+03	2.599722E-16	6.523896E-18
3.010000E+03	2.610663E-16	6.545302E-18
3.020000E+03	2.621406E-16	6.566130E-18
3.030000E+03	2.631942E-16	6.586358E-18
3.040000E+03	2.642540E-16	6.606661E-18
3.050000E+03	2.653189E-16	6.627012E-18
3.060000E+03	2.663605E-16	6.646697E-18
3.070000E+03	2.674054E-16	6.666384E-18
3.080000E+03	2.684524E-16	6.686041E-18
3.090000E+03	2.694738E-16	6.704977E-18
3.100000E+03	2.704956E-16	6.723843E-18
3.110000E+03	2.715169E-16	6.742614E-18
3.120000E+03	2.725103E-16	6.760609E-18
3.130000E+03	2.735279E-16	6.779123E-18
3.140000E+03	2.745161E-16	6.796825E-18
3.150000E+03	2.755005E-16	6.814350E-18
3.160000E+03	2.765062E-16	6.832321E-18
3.170000E+03	2.774805E-16	6.849429E-18
3.180000E+03	2.784486E-16	6.866305E-18
3.190000E+03	2.794353E-16	6.883555E-18
3.200000E+03	2.803891E-16	6.899909E-18
3.210000E+03	2.813599E-16	6.916599E-18
3.220000E+03	2.823219E-16	6.932987E-18
3.230000E+03	2.832743E-16	6.949058E-18
3.240000E+03	2.842416E-16	6.965406E-18
3.250000E+03	2.851983E-16	6.981411E-18
3.260000E+03	2.861442E-16	6.997066E-18
3.270000E+03	2.871028E-16	7.012947E-18
3.280000E+03	2.880738E-16	7.029042E-18
3.290000E+03	2.890324E-16	7.044750E-18
3.300000E+03	2.899790E-16	7.060075E-18
3.310000E+03	2.909365E-16	7.075580E-18
3.320000E+03	2.919045E-16	7.091254E-18
3.330000E+03	2.928826E-16	7.107082E-18
3.340000E+03	2.938705E-16	7.123057E-18
3.350000E+03	2.948452E-16	7.138620E-18
3.360000E+03	2.958517E-16	7.154865E-18
3.370000E+03	2.968451E-16	7.170699E-18
3.380000E+03	2.978696E-16	7.187190E-18
3.390000E+03	2.988810E-16	7.203273E-18
3.400000E+03	2.999231E-16	7.219998E-18
3.410000E+03	3.009739E-16	7.236838E-18
3.420000E+03	3.020547E-16	7.254299E-18
3.430000E+03	3.031442E-16	7.271869E-18
3.440000E+03	3.042423E-16	7.289545E-18
3.450000E+03	3.053701E-16	7.307830E-18
3.460000E+03	3.065066E-16	7.326221E-18
3.470000E+03	3.076726E-16	7.345211E-18
3.480000E+03	3.088679E-16	7.364791E-18
3.490000E+03	3.100922E-16	7.384954E-18
3.500000E+03	3.113256E-16	7.405222E-18
3.510000E+03	3.125881E-16	7.426070E-18
3.520000E+03	3.138991E-16	7.447954E-18
3.530000E+03	3.152195E-16	7.469942E-18
3.540000E+03	3.165877E-16	7.492944E-18
3.550000E+03	3.179845E-16	7.516499E-18
3.560000E+03	3.194095E-16	7.540596E-18
3.570000E+03	3.208816E-16	7.565675E-18
3.580000E+03	3.223814E-16	7.591278E-18
3.590000E+03	3.239090E-16	7.617402E-18
3.600000E+03	3.254824E-16	7.644467E-18
3.610000E+03	3.271009E-16	7.672452E-18
3.620000E+03	3.287639E-16	7.701337E-18
3.630000E+03	3.304529E-16	7.730686E-18
3.640000E+03	3.322028E-16	7.761311E-18
3.650000E+03	3.339776E-16	7.792364E-18
3.660000E+03	3.358112E-16	7.824635E-18
3.670000E+03	3.376682E-16	7.857292E-18
3.680000E+03	3.395817E-16	7.891103E-18
3.690000E+03	3.415506E-16	7.926033E-18
3.700000E+03	3.435563E-16	7.961649E-18
3.710000E+03	3.455977E-16	7.997919E-18
3.720000E+03	3.476899E-16	8.035188E-18
3.730000E+03	3.498149E-16	8.073033E-18
3.740000E+03	3.519869E-16	8.111783E-18
3.750000E+03	3.542042E-16	8.151388E-18
3.760000E+03	3.564645E-16	8.191792E-18
3.770000E+03	3.587655E-16	8.232939E-18
3.780000E+03	3.611050E-16	8.274771E-18
3.790000E+03	3.634804E-16	8.317223E-18
3.800000E+03	3.658890E-16	8.360233E-18
3.810000E+03	3.683282E-16	8.403735E-18
3.820000E+03	3.708102E-16	8.448003E-18
3.830000E+03	3.733168E-16	8.492617E-18
3.840000E+03	3.758597E-16	8.537843E-18
3.850000E+03	3.784060E-16	8.582927E-18
3.860000E+03	3.809966E-16	8.628794E-18
3.870000E+03	3.835985E-16	8.674695E-18
3.880000E+03	3.862227E-16	8.720874E-18
3.890000E+03	3.888511E-16	8.766920E-18
3.900000E+03	3.914944E-16	8.813074E-18
3.910000E+03	3.941485E-16	8.859241E-18
3.920000E+03	3.968097E-16	8.905335E-18
3.930000E+03	3.994600E-16	8.950953E-18
3.940000E+03	4.021099E-16	8.996327E-18
3.950000E+03	4.047551E-16	9.041363E-18
3.960000E+03	4.073921E-16	9.085981E-18
3.970000E+03	4.100169E-16	9.130093E-18
3.980000E+03	4.126127E-16	9.173326E-18
3.990000E+03	4.151893E-16	9.215901E-18
4.000000E+03	4.177435E-16	9.257744E-18
4.010000E+03	4.202718E-16	9.298784E-18
4.020000E+03	4.227712E-16	9.338955E-18
4.030000E+03	4.252265E-16	9.377922E-18
4.040000E+03	4.276475E-16	9.415910E-18
4.050000E+03	4.300199E-16	9.452603E-18
4.060000E+03	4.323418E-16	9.487966E-18
4.070000E+03	4.346239E-16	9.522239E-18
4.080000E+03	4.368650E-16	9.555397E-18
4.090000E+03	4.390402E-16	9.586903E-18
4.100000E+03	4.411612E-16	9.617017E-18
4.110000E+03	4.432283E-16	9.645753E-18
4.120000E+03	4.452419E-16	9.673123E-18
4.130000E+03	4.471916E-16	9.698909E-18
4.140000E+03	4.490905E-16	9.723398E-18
4.150000E+03	4.509292E-16	9.746395E-18
4.160000E+03	4.526993E-16	9.767727E-18
4.170000E+03	4.544265E-16	9.787949E-18
4.180000E+03	4.560921E-16	9.806669E-18
4.190000E+03	4.577008E-16	9.823992E-18
4.200000E+03	4.592468E-16	9.839801E-18
4.210000E+03	4.607570E-16	9.854678E-18
4.220000E+03	4.622162E-16	9.868304E-18
4.230000E+03	4.636310E-16	9.880823E-18
4.240000E+03	4.650087E-16	9.892395E-18
4.250000E+03	4.663467E-16	9.902970E-18
4.260000E+03	4.676533E-16	9.912730E-18
4.270000E+03	4.689273E-16	9.921651E-18
4.280000E+03	4.701879E-16	9.930144E-18
4.290000E+03	4.714347E-16	9.938201E-18
4.300000E+03	4.726775E-16	9.946030E-18
4.310000E+03	4.739077E-16	9.953450E-18
4.320000E+03	4.751546E-16	9.961080E-18
4.330000E+03	4.764010E-16	9.968554E-18
4.340000E+03	4.776762E-16	9.976487E-18
4.350000E+03	4.789726E-16	9.984716E-18
4.360000E+03	4.803010E-16	9.993466E-18
4.370000E+03	4.816719E-16	1.000295E-17
4.380000E+03	4.830865E-16	1.001318E-17
4.390000E+03	4.845543E-16	1.002436E-17
4.400000E+03	4.860738E-16	1.003645E-17
4.410000E+03	4.876501E-16	1.004954E-17
4.420000E+03	4.892874E-16	1.006372E-17
4.430000E+03	4.909810E-16	1.007889E-17
4.440000E+03	4.927425E-16	1.009526E-17
4.450000E+03	4.945489E-16	1.011237E-17
4.460000E+03	4.964195E-16	1.013060E-17
4.470000E+03	4.983478E-16	1.014981E-17
4.480000E+03	5.003349E-16	1.017002E-17
4.490000E+03	5.023653E-16	1.019090E-17
4.500000E+03	5.044562E-16	1.021279E-17
4.510000E+03	5.065998E-16	1.023553E-17
4.520000E+03	5.087876E-16	1.025894E-17
4.530000E+03	5.110191E-16	1.028301E-17
4.540000E+03	5.133017E-16	1.030786E-17
4.550000E+03	5.156178E-16	1.033316E-17
4.560000E+03	5.179737E-16	1.035901E-17
4.570000E+03	5.203673E-16	1.038537E-17
4.580000E+03	5.227879E-16	1.041202E-17
4.590000E+03	5.252326E-16	1.043890E-17
4.600000E+03	5.276979E-16	1.046594E-17
4.610000E+03	5.301877E-16	1.049320E-17
4.620000E+03	5.326897E-16	1.052044E-17
4.630000E+03	5.351913E-16	1.054742E-17
4.640000E+03	5.377030E-16	1.057433E-17
4.650000E+03	5.402034E-16	1.060076E-17
4.660000E+03	5.426942E-16	1.062673E-17
4.670000E+03	5.451694E-16	1.065214E-17
4.680000E+03	5.476219E-16	1.067684E-17
4.690000E+03	5.500370E-16	1.070055E-17
4.700000E+03	5.524230E-16	1.072343E-17
4.710000E+03	5.547567E-16	1.074505E-17
4.720000E+03	5.570460E-16	1.076555E-17
4.730000E+03	5.592672E-16	1.078449E-17
4.740000E+03	5.614281E-16	1.080202E-17
4.750000E+03	5.635126E-16	1.081785E-17
4.760000E+03	5.655127E-16	1.083182E-17
4.770000E+03	5.674203E-16	1.084380E-17
4.780000E+03	5.692428E-16	1.085393E-17
4.790000E+03	5.709569E-16	1.086179E-17
4.800000E+03	5.725625E-16	1.086738E-17
4.810000E+03	5.740523E-16	1.087059E-17
4.820000E+03	5.754190E-16	1.087128E-17
4.830000E+03	5.766635E-16	1.086950E-17
4.840000E+03	5.777717E-16	1.086498E-17
4.850000E+03	5.787451E-16	1.085779E-17
4.860000E+03	5.795859E-16	1.084797E-17
4.870000E+03	5.802738E-16	1.083517E-17
4.880000E+03	5.808195E-16	1.081961E-17
4.890000E+03	5.812191E-16	1.080123E-17
4.900000E+03	5.814692E-16	1.077999E-17
4.910000E+03	5.815673E-16	1.075586E-17
4.920000E+03	5.815188E-16	1.072896E-17
4.930000E+03	5.813148E-16	1.069916E-17
4.940000E+03	5.809623E-16	1.066660E-17
4.950000E+03	5.804687E-16	1.063143E-17
4.960000E+03	5.798194E-16	1.059342E-17
4.970000E+03	5.790385E-16	1.055302E-17
4.980000E+03	5.781127E-16	1.051000E-17
4.990000E+03	5.770522E-16	1.046458E-17
5.000000E+03	5.758599E-16	1.041682E-17
5.010000E+03	5.745470E-16	1.036695E-17
5.020000E+03	5.731102E-16	1.031493E-17
5.030000E+03	5.715687E-16	1.026111E-17
5.040000E+03	5.699131E-16	1.020535E-17
5.050000E+03	5.681559E-16	1.014788E-17
5.060000E+03	5.663029E-16	1.008883E-17
5.070000E+03	5.643673E-16	1.002844E-17
5.080000E+03	5.623551E-16	9.966837E-18
5.090000E+03	5.602656E-16	9.904012E-18
5.100000E+03	5.581053E-16	9.840096E-18
5.110000E+03	5.558946E-16	9.775459E-18
5.120000E+03	5.536259E-16	9.709977E-18
5.130000E+03	5.513197E-16	9.644017E-18
5.140000E+03	5.489683E-16	9.577453E-18
5.150000E+03	5.465848E-16	9.510519E-18
5.160000E+03	5.441821E-16	9.443445E-18
5.170000E+03	5.417521E-16	9.376098E-18
5.180000E+03	5.393140E-16	9.308813E-18
5.190000E+03	5.368664E-16	9.241568E-18
5.200000E+03	5.344075E-16	9.174339E-18
5.210000E+03	5.319552E-16	9.107431E-18
5.220000E+03	5.295009E-16	9.040701E-18
5.230000E+03	5.270616E-16	8.974440E-18
5.240000E+03	5.246280E-16	8.908491E-18
5.250000E+03	5.222039E-16	8.842916E-18
5.260000E+03	5.198050E-16	8.777985E-18
5.270000E+03	5.174154E-16	8.713425E-18
5.280000E+03	5.150502E-16	8.649494E-18
5.290000E+03	5.127057E-16	8.586124E-18
5.300000E+03	5.103903E-16	8.523457E-18
5.310000E+03	5.080937E-16	8.461319E-18
5.320000E+03	5.058176E-16	8.399739E-18
5.330000E+03	5.035763E-16	8.338950E-18
5.340000E+03	5.013529E-16	8.278672E-18
5.350000E+03	4.991611E-16	8.219130E-18
5.360000E+03	4.969964E-16	8.160248E-18
5.370000E+03	4.948602E-16	8.102045E-18
5.380000E+03	4.927478E-16	8.044444E-18
5.390000E+03	4.906724E-16	7.987660E-18
5.400000E+03	4.886176E-16	7.931420E-18
5.410000E+03	4.865962E-16	7.875935E-18
5.420000E+03	4.846039E-16	7.821129E-18
5.430000E+03	4.826415E-16	7.767017E-18
5.440000E+03	4.807102E-16	7.713612E-18
5.450000E+03	4.788109E-16	7.660928E-18
5.460000E+03	4.769443E-16	7.608974E-18
5.470000E+03	4.751052E-16	7.557663E-18
5.480000E+03	4.733050E-16	7.507175E-18
5.490000E+03	4.715323E-16	7.457323E-18
5.500000E+03	4.697917E-16	7.408177E-18
5.510000E+03	4.680805E-16	7.359691E-18
5.520000E+03	4.663952E-16	7.311810E-18
5.530000E+03	4.647324E-16	7.264475E-18
5.540000E+03	4.630938E-16	7.217714E-18
5.550000E+03	4.614702E-16	7.171379E-18
5.560000E+03	4.598580E-16	7.125415E-18
5.570000E+03	4.582592E-16	7.079852E-18
5.580000E+03	4.566704E-16	7.034638E-18
5.590000E+03	4.550940E-16	6.989810E-18
5.600000E+03	4.535163E-16	6.945155E-18
5.610000E+03	4.519509E-16	6.900888E-18
5.620000E+03	4.503850E-16	6.856810E-18
5.630000E+03	4.488221E-16	6.812975E-18
5.640000E+03	4.472605E-16	6.769362E-18
5.650000E+03	4.457044E-16	6.726034E-18
5.660000E+03	4.441477E-16	6.682899E-18
5.670000E+03	4.425951E-16	6.640032E-18
5.680000E+03	4.410516E-16	6.597507E-18
5.690000E+03	4.395119E-16	6.555247E-18
5.700000E+03	4.379763E-16	6.513256E-18
5.710000E+03	4.364507E-16	6.471624E-18
5.720000E+03	4.349354E-16	6.430358E-18
5.730000E+03	4.334317E-16	6.389475E-18
5.740000E+03	4.319404E-16	6.348987E-18
5.750000E+03	4.304678E-16	6.308989E-18
5.760000E+03	4.290100E-16	6.269423E-18
5.770000E+03	4.275682E-16	6.230307E-18
5.780000E+03	4.261489E-16	6.191734E-18
5.790000E+03	4.247586E-16	6.153800E-18
5.800000E+03	4.233829E-16	6.116293E-18
5.810000E+03	4.220385E-16	6.079458E-18
5.820000E+03	4.207216E-16	6.043235E-18
5.830000E+03	4.194329E-16	6.007636E-18
5.840000E+03	4.181735E-16	5.972674E-18
5.850000E+03	4.169442E-16	5.938359E-18
5.860000E+03	4.157456E-16	5.904701E-18
5.870000E+03	4.145781E-16	5.871704E-18
5.880000E+03	4.134422E-16	5.839372E-18
5.890000E+03	4.123430E-16	5.807779E-18
5.900000E+03	4.112704E-16	5.776781E-18
5.910000E+03	4.102294E-16	5.746445E-18
5.920000E+03	4.092196E-16	5.716769E-18
5.930000E+03	4.082406E-16	5.687745E-18
5.940000E+03	4.072866E-16	5.659293E-18
5.950000E+03	4.063620E-16	5.631474E-18
5.960000E+03	4.054661E-16	5.604277E-18
5.970000E+03	4.045927E-16	5.577620E-18
5.980000E+03	4.037410E-16	5.551490E-18
5.990000E+03	4.029148E-16	5.525943E-18
6.000000E+03	4.021081E-16	5.500896E-18
6.010000E+03	4.013196E-16	5.476334E-18
6.020000E+03	4.005484E-16	5.452247E-18
6.030000E+03	3.997884E-16	5.428553E-18
6.040000E+03	3.990488E-16	5.405379E-18
6.050000E+03	3.983136E-16	5.382514E-18
6.060000E+03	3.975972E-16	5.360151E-18
6.070000E+03	3.968839E-16	5.338085E-18
6.080000E+03	3.961833E-16	5.316448E-18
6.090000E+03	3.954905E-16	5.295175E-18
6.100000E+03	3.948053E-16	5.274269E-18
6.110000E+03	3.941281E-16	5.253738E-18
6.120000E+03	3.934594E-16	5.233593E-18
6.130000E+03	3.927951E-16	5.213783E-18
6.140000E+03	3.921413E-16	5.194391E-18
6.150000E+03	3.914944E-16	5.175375E-18
6.160000E+03	3.908611E-16	5.156826E-18
6.170000E+03	3.902382E-16	5.138708E-18
6.180000E+03	3.896333E-16	5.121119E-18
6.190000E+03	3.890438E-16	5.104035E-18
6.200000E+03	3.884726E-16	5.087492E-18
6.210000E+03	3.879228E-16	5.071535E-18
6.220000E+03	3.873978E-16	5.056214E-18
6.230000E+03	3.869062E-16	5.041640E-18
6.240000E+03	3.864419E-16	5.027740E-18
6.250000E+03	3.860189E-16	5.014697E-18
6.260000E+03	3.856363E-16	5.002503E-18
6.270000E+03	3.852935E-16	4.991152E-18
6.280000E+03	3.850050E-16	4.980835E-18
6.290000E+03	3.847703E-16	4.971548E-18
6.300000E+03	3.845940E-16	4.963352E-18
6.310000E+03	3.844807E-16	4.956309E-18
6.320000E+03	3.844399E-16	4.950546E-18
6.330000E+03	3.844661E-16	4.945994E-18
6.340000E+03	3.845739E-16	4.942843E-18
6.350000E+03	3.847622E-16	4.941085E-18
6.360000E+03	3.850404E-16	4.940840E-18
6.370000E+03	3.854072E-16	4.942098E-18
6.380000E+03	3.858661E-16	4.944908E-18
6.390000E+03	3.864253E-16	4.949380E-18
6.400000E+03	3.870827E-16	4.955491E-18
6.410000E+03	3.878508E-16	4.963408E-18
6.420000E+03	3.887215E-16	4.973033E-18
6.430000E+03	3.897012E-16	4.984455E-18
6.440000E+03	3.907908E-16	4.997693E-18
6.450000E+03	3.919854E-16	5.012693E-18
6.460000E+03	3.933001E-16	5.029656E-18
6.470000E+03	3.947179E-16	5.048376E-18
6.480000E+03	3.962477E-16	5.068975E-18
6.490000E+03	3.978810E-16	5.091353E-18
6.500000E+03	3.996196E-16	5.115536E-18
6.510000E+03	4.014590E-16	5.141468E-18
6.520000E+03	4.033884E-16	5.169010E-18
6.530000E+03	4.054125E-16	5.198229E-18
6.540000E+03	4.075108E-16	5.228860E-18
6.550000E+03	4.096854E-16	5.260938E-18
6.560000E+03	4.119045E-16	5.294052E-18
6.570000E+03	4.141630E-16	5.328141E-18
6.580000E+03	4.164443E-16	5.362994E-18
6.590000E+03	4.187307E-16	5.398382E-18
6.600000E+03	4.210047E-16	5.434081E-18
6.610000E+03	4.232536E-16	5.469926E-18
6.620000E+03	4.254476E-16	5.505529E-18
6.630000E+03	4.275861E-16	5.540880E-18
6.640000E+03	4.296393E-16	5.575587E-18
6.650000E+03	4.315956E-16	5.609494E-18
6.660000E+03	4.334384E-16	5.642377E-18
6.670000E+03	4.351517E-16	5.674018E-18
6.680000E+03	4.367266E-16	5.704291E-18
6.690000E+03	4.381433E-16	5.732922E-18
6.700000E+03	4.393954E-16	5.759815E-18
6.710000E+03	4.404721E-16	5.784813E-18
6.720000E+03	4.413641E-16	5.807773E-18
6.730000E+03	4.420634E-16	5.828573E-18
6.740000E+03	4.425640E-16	5.847112E-18
6.750000E+03	4.428681E-16	5.863398E-18
6.760000E+03	4.429666E-16	5.877285E-18
6.770000E+03	4.428651E-16	5.888827E-18
6.780000E+03	4.425581E-16	5.897923E-18
6.790000E+03	4.420543E-16	5.904667E-18
6.800000E+03	4.413643E-16	5.909171E-18
6.810000E+03	4.404808E-16	5.911314E-18
6.820000E+03	4.394167E-16	5.911243E-18
6.830000E+03	4.381867E-16	5.909129E-18
6.840000E+03	4.367932E-16	5.904981E-18
6.850000E+03	4.352462E-16	5.898907E-18
6.860000E+03	4.335626E-16	5.891113E-18
6.870000E+03	4.317473E-16	5.881644E-18
6.880000E+03	4.298183E-16	5.870722E-18
6.890000E+03	4.277812E-16	5.858400E-18
6.900000E+03	4.256543E-16	5.844913E-18
6.910000E+03	4.234499E-16	5.830408E-18
6.920000E+03	4.211736E-16	5.814945E-18
6.930000E+03	4.188370E-16	5.798670E-18
6.940000E+03	4.164644E-16	5.781902E-18
6.950000E+03	4.140541E-16	5.764606E-18
6.960000E+03	4.116231E-16	5.747007E-18
6.970000E+03	4.091752E-16	5.729146E-18
6.980000E+03	4.067260E-16	5.711235E-18
6.990000E+03	4.042844E-16	5.693387E-18
7.000000E+03	4.018524E-16	5.675627E-18
7.010000E+03	3.994438E-16	5.658142E-18
7.020000E+03	3.970591E-16	5.640937E-18
7.030000E+03	3.947108E-16	5.624184E-18
7.040000E+03	3.923922E-16	5.607787E-18
7.050000E+03	3.901263E-16	5.592070E-18
7.060000E+03	3.878991E-16	5.576836E-18
7.070000E+03	3.857263E-16	5.562308E-18
7.080000E+03	3.836048E-16	5.548442E-18
7.090000E+03	3.815312E-16	5.535191E-18
7.100000E+03	3.795191E-16	5.522752E-18
7.110000E+03	3.775580E-16	5.510978E-18
7.120000E+03	3.756549E-16	5.499968E-18
7.130000E+03	3.738042E-16	5.489647E-18
7.140000E+03	3.720118E-16	5.480103E-18
7.150000E+03	3.702715E-16	5.471246E-18
7.160000E+03	3.685885E-16	5.463158E-18
7.170000E+03	3.669501E-16	5.455653E-18
7.180000E+03	3.653610E-16	5.448804E-18
7.190000E+03	3.638197E-16	5.442588E-18
7.200000E+03	3.623186E-16	5.436898E-18
7.210000E+03	3.608615E-16	5.431793E-18
7.220000E+03	3.594352E-16	5.427072E-18
7.230000E+03	3.580486E-16	5.422875E-18
7.240000E+03	3.566937E-16	5.419081E-18
7.250000E+03	3.553628E-16	5.415573E-18
7.260000E+03	3.540587E-16	5.412397E-18
7.270000E+03	3.527789E-16	5.409515E-18
7.280000E+03	3.515101E-16	5.406720E-18
7.290000E+03	3.502605E-16	5.404140E-18
7.300000E+03	3.490168E-16	5.401568E-18
7.310000E+03	3.477818E-16	5.399048E-18
7.320000E+03	3.465532E-16	5.396540E-18
7.330000E+03	3.453232E-16	5.393923E-18
7.340000E+03	3.440894E-16	5.391156E-18
7.350000E+03	3.428497E-16	5.388203E-18
7.360000E+03	3.416020E-16	5.385029E-18
7.370000E+03	3.403441E-16	5.381595E-18
7.380000E+03	3.390744E-16	5.377872E-18
7.390000E+03	3.377858E-16	5.373743E-18
7.400000E+03	3.364817E-16	5.369261E-18
7.410000E+03	3.351557E-16	5.364316E-18
7.420000E+03	3.338117E-16	5.358967E-18
7.430000E+03	3.324432E-16	5.353105E-18
7.440000E+03	3.310493E-16	5.346711E-18
7.450000E+03	3.296344E-16	5.339850E-18
7.460000E+03	3.281876E-16	5.332340E-18
7.470000E+03	3.267185E-16	5.324334E-18
7.480000E+03	3.252219E-16	5.315740E-18
7.490000E+03	3.237025E-16	5.306632E-18
7.500000E+03	3.221506E-16	5.296843E-18
7.510000E+03	3.205762E-16	5.286534E-18
7.520000E+03	3.189748E-16	5.275627E-18
7.530000E+03	3.173470E-16	5.264124E-18
7.540000E+03	3.156982E-16	5.252113E-18
7.550000E+03	3.140245E-16	5.239525E-18
7.560000E+03	3.123317E-16	5.226451E-18
7.570000E+03	3.106161E-16	5.212825E-18
7.580000E+03	3.088837E-16	5.198746E-18
7.590000E+03	3.071359E-16	5.184234E-18
7.600000E+03	3.053693E-16	5.169227E-18
7.610000E+03	3.035902E-16	5.153830E-18
7.620000E+03	3.018003E-16	5.138069E-18
7.630000E+03	3.000013E-16	5.121971E-18
7.640000E+03	2.981949E-16	5.105565E-18
7.650000E+03	2.963830E-16	5.088879E-18
7.660000E+03	2.945672E-16	5.071942E-18
7.670000E+03	2.927498E-16	5.054791E-18
7.680000E+03	2.909325E-16	5.037456E-18
7.690000E+03	2.891217E-16	5.020049E-18
7.700000E+03	2.873105E-16	5.002447E-18
7.710000E+03	2.855097E-16	4.984843E-18
7.720000E+03	2.837167E-16	4.967189E-18
7.730000E+03	2.819380E-16	4.949602E-18
7.740000E+03	2.801663E-16	4.931956E-18
7.750000E+03	2.784126E-16	4.914443E-18
7.760000E+03	2.766741E-16	4.897020E-18
