#wls	flux	fluxerr
1.600000E+03	1.117762E-16	4.496600E-18
1.640000E+03	1.144574E-16	4.596412E-18
1.680000E+03	1.172133E-16	4.698624E-18
1.720000E+03	1.200420E-16	4.803123E-18
1.760000E+03	1.229412E-16	4.909775E-18
1.800000E+03	1.259294E-16	5.019285E-18
1.840000E+03	1.289822E-16	5.130632E-18
1.880000E+03	1.320949E-16	5.243595E-18
1.920000E+03	1.353085E-16	5.359752E-18
1.960000E+03	1.385725E-16	5.477057E-18
2.000000E+03	1.419273E-16	5.597065E-18
2.040000E+03	1.453433E-16	5.718558E-18
2.080000E+03	1.488373E-16	5.842144E-18
2.120000E+03	1.524013E-16	5.967457E-18
2.160000E+03	1.560261E-16	6.094085E-18
2.200000E+03	1.597268E-16	6.222570E-18
2.240000E+03	1.634665E-16	6.351417E-18
2.280000E+03	1.672844E-16	6.482091E-18
2.320000E+03	1.711406E-16	6.612994E-18
2.360000E+03	1.750459E-16	6.744492E-18
2.400000E+03	1.789836E-16	6.875879E-18
2.440000E+03	1.829620E-16	7.007427E-18
2.480000E+03	1.869610E-16	7.138310E-18
2.520000E+03	1.909858E-16	7.268677E-18
2.560000E+03	1.950123E-16	7.397559E-18
2.600000E+03	1.990147E-16	7.523936E-18
2.640000E+03	2.030474E-16	7.649816E-18
2.680000E+03	2.070253E-16	7.771950E-18
2.720000E+03	2.109710E-16	7.891155E-18
2.760000E+03	2.148773E-16	8.007131E-18
2.800000E+03	2.187346E-16	8.119493E-18
2.840000E+03	2.225039E-16	8.226764E-18
2.880000E+03	2.261981E-16	8.329416E-18
2.920000E+03	2.297740E-16	8.425849E-18
2.960000E+03	2.332141E-16	8.515429E-18
3.000000E+03	2.365511E-16	8.599365E-18
3.010000E+03	2.373645E-16	8.619296E-18
3.020000E+03	2.381631E-16	8.638569E-18
3.030000E+03	2.389714E-16	8.658080E-18
3.040000E+03	2.397381E-16	8.675962E-18
3.050000E+03	2.405131E-16	8.694030E-18
3.060000E+03	2.412956E-16	8.712250E-18
3.070000E+03	2.420347E-16	8.728785E-18
3.080000E+03	2.427799E-16	8.745425E-18
3.090000E+03	2.435303E-16	8.762132E-18
3.100000E+03	2.442356E-16	8.777104E-18
3.110000E+03	2.449695E-16	8.792983E-18
3.120000E+03	2.456575E-16	8.807100E-18
3.130000E+03	2.463722E-16	8.822054E-18
3.140000E+03	2.470403E-16	8.835229E-18
3.150000E+03	2.477336E-16	8.849185E-18
3.160000E+03	2.483797E-16	8.861340E-18
3.170000E+03	2.490495E-16	8.874227E-18
3.180000E+03	2.496952E-16	8.886139E-18
3.190000E+03	2.503399E-16	8.897902E-18
3.200000E+03	2.509599E-16	8.908670E-18
3.210000E+03	2.516013E-16	8.920085E-18
3.220000E+03	2.522175E-16	8.930487E-18
3.230000E+03	2.528086E-16	8.939887E-18
3.240000E+03	2.534198E-16	8.949888E-18
3.250000E+03	2.540058E-16	8.958880E-18
3.260000E+03	2.546113E-16	8.968447E-18
3.270000E+03	2.551917E-16	8.977017E-18
3.280000E+03	2.557695E-16	8.985377E-18
3.290000E+03	2.563446E-16	8.993529E-18
3.300000E+03	2.569173E-16	9.001481E-18
3.310000E+03	2.575093E-16	9.009996E-18
3.320000E+03	2.580778E-16	9.017569E-18
3.330000E+03	2.586661E-16	9.025715E-18
3.340000E+03	2.592321E-16	9.032969E-18
3.350000E+03	2.598186E-16	9.040819E-18
3.360000E+03	2.604050E-16	9.048544E-18
3.370000E+03	2.609921E-16	9.056175E-18
3.380000E+03	2.616009E-16	9.064435E-18
3.390000E+03	2.622117E-16	9.072643E-18
3.400000E+03	2.628253E-16	9.080824E-18
3.410000E+03	2.634626E-16	9.089696E-18
3.420000E+03	2.641241E-16	9.099276E-18
3.430000E+03	2.647714E-16	9.108234E-18
3.440000E+03	2.654643E-16	9.118628E-18
3.450000E+03	2.661645E-16	9.129137E-18
3.460000E+03	2.668732E-16	9.139802E-18
3.470000E+03	2.676107E-16	9.151314E-18
3.480000E+03	2.683778E-16	9.163692E-18
3.490000E+03	2.691754E-16	9.176966E-18
3.500000E+03	2.700044E-16	9.191160E-18
3.510000E+03	2.708475E-16	9.205680E-18
3.520000E+03	2.717244E-16	9.221190E-18
3.530000E+03	2.726359E-16	9.237713E-18
3.540000E+03	2.735832E-16	9.255283E-18
3.550000E+03	2.745672E-16	9.273925E-18
3.560000E+03	2.756066E-16	9.294259E-18
3.570000E+03	2.766671E-16	9.315125E-18
3.580000E+03	2.777675E-16	9.337150E-18
3.590000E+03	2.789261E-16	9.360936E-18
3.600000E+03	2.801262E-16	9.385919E-18
3.610000E+03	2.813690E-16	9.412128E-18
3.620000E+03	2.826554E-16	9.439586E-18
3.630000E+03	2.840027E-16	9.468864E-18
3.640000E+03	2.853951E-16	9.499420E-18
3.650000E+03	2.868333E-16	9.531269E-18
3.660000E+03	2.883341E-16	9.564967E-18
3.670000E+03	2.898980E-16	9.600509E-18
3.680000E+03	2.915090E-16	9.637359E-18
3.690000E+03	2.931674E-16	9.675520E-18
3.700000E+03	2.948894E-16	9.715513E-18
3.710000E+03	2.966749E-16	9.757320E-18
3.720000E+03	2.985235E-16	9.800920E-18
3.730000E+03	3.004193E-16	9.845779E-18
3.740000E+03	3.023774E-16	9.892382E-18
3.750000E+03	3.043970E-16	9.940689E-18
3.760000E+03	3.064773E-16	9.990660E-18
3.770000E+03	3.086020E-16	1.004175E-17
3.780000E+03	3.108002E-16	1.009491E-17
3.790000E+03	3.130401E-16	1.014908E-17
3.800000E+03	3.153352E-16	1.020468E-17
3.810000E+03	3.176838E-16	1.026167E-17
3.820000E+03	3.200836E-16	1.031994E-17
3.830000E+03	3.225322E-16	1.037941E-17
3.840000E+03	3.250273E-16	1.044000E-17
3.850000E+03	3.275806E-16	1.050207E-17
3.860000E+03	3.301599E-16	1.056458E-17
3.870000E+03	3.327770E-16	1.062789E-17
3.880000E+03	3.354282E-16	1.069189E-17
3.890000E+03	3.381100E-16	1.075645E-17
3.900000E+03	3.408332E-16	1.082191E-17
3.910000E+03	3.435653E-16	1.088723E-17
3.920000E+03	3.463166E-16	1.095273E-17
3.930000E+03	3.490970E-16	1.101871E-17
3.940000E+03	3.518741E-16	1.108415E-17
3.950000E+03	3.546578E-16	1.114936E-17
3.960000E+03	3.574573E-16	1.121463E-17
3.970000E+03	3.602406E-16	1.127894E-17
3.980000E+03	3.630172E-16	1.134260E-17
3.990000E+03	3.657825E-16	1.140546E-17
4.000000E+03	3.685320E-16	1.146739E-17
4.010000E+03	3.712479E-16	1.152782E-17
4.020000E+03	3.739529E-16	1.158747E-17
4.030000E+03	3.766159E-16	1.164538E-17
4.040000E+03	3.792465E-16	1.170185E-17
4.050000E+03	3.818275E-16	1.175636E-17
4.060000E+03	3.843556E-16	1.180880E-17
4.070000E+03	3.868535E-16	1.185990E-17
4.080000E+03	3.892791E-16	1.190835E-17
4.090000E+03	3.916558E-16	1.195490E-17
4.100000E+03	3.939683E-16	1.199908E-17
4.110000E+03	3.962021E-16	1.204047E-17
4.120000E+03	3.983809E-16	1.207979E-17
4.130000E+03	4.004911E-16	1.211665E-17
4.140000E+03	4.025195E-16	1.215066E-17
4.150000E+03	4.044785E-16	1.218220E-17
4.160000E+03	4.063684E-16	1.221131E-17
4.170000E+03	4.081777E-16	1.223765E-17
4.180000E+03	4.099080E-16	1.226128E-17
4.190000E+03	4.115610E-16	1.228228E-17
4.200000E+03	4.131394E-16	1.230072E-17
4.210000E+03	4.146459E-16	1.231672E-17
4.220000E+03	4.160838E-16	1.233039E-17
4.230000E+03	4.174455E-16	1.234150E-17
4.240000E+03	4.187354E-16	1.235021E-17
4.250000E+03	4.199697E-16	1.235701E-17
4.260000E+03	4.211308E-16	1.236140E-17
4.270000E+03	4.222359E-16	1.236388E-17
4.280000E+03	4.232907E-16	1.236465E-17
4.290000E+03	4.242902E-16	1.236357E-17
4.300000E+03	4.252521E-16	1.236116E-17
4.310000E+03	4.261611E-16	1.235698E-17
4.320000E+03	4.270456E-16	1.235188E-17
4.330000E+03	4.278912E-16	1.234543E-17
4.340000E+03	4.287154E-16	1.233815E-17
4.350000E+03	4.295144E-16	1.232995E-17
4.360000E+03	4.302956E-16	1.232103E-17
4.370000E+03	4.310553E-16	1.231129E-17
4.380000E+03	4.318211E-16	1.230153E-17
4.390000E+03	4.325791E-16	1.229135E-17
4.400000E+03	4.333475E-16	1.228126E-17
4.410000E+03	4.341142E-16	1.227092E-17
4.420000E+03	4.349079E-16	1.226115E-17
4.430000E+03	4.357166E-16	1.225160E-17
4.440000E+03	4.365579E-16	1.224276E-17
4.450000E+03	4.374392E-16	1.223483E-17
4.460000E+03	4.383577E-16	1.222771E-17
4.470000E+03	4.393103E-16	1.222133E-17
4.480000E+03	4.403221E-16	1.221635E-17
4.490000E+03	4.413794E-16	1.221239E-17
4.500000E+03	4.424966E-16	1.220985E-17
4.510000E+03	4.436779E-16	1.220881E-17
4.520000E+03	4.449176E-16	1.220910E-17
4.530000E+03	4.462188E-16	1.221080E-17
4.540000E+03	4.475839E-16	1.221396E-17
4.550000E+03	4.490146E-16	1.221861E-17
4.560000E+03	4.505121E-16	1.222476E-17
4.570000E+03	4.520676E-16	1.223216E-17
4.580000E+03	4.536898E-16	1.224103E-17
4.590000E+03	4.553778E-16	1.225133E-17
4.600000E+03	4.571208E-16	1.226276E-17
4.610000E+03	4.589166E-16	1.227523E-17
4.620000E+03	4.607618E-16	1.228866E-17
4.630000E+03	4.626617E-16	1.230316E-17
4.640000E+03	4.646029E-16	1.231837E-17
4.650000E+03	4.665805E-16	1.233415E-17
4.660000E+03	4.685887E-16	1.235033E-17
4.670000E+03	4.706124E-16	1.236651E-17
4.680000E+03	4.726626E-16	1.238297E-17
4.690000E+03	4.747234E-16	1.239930E-17
4.700000E+03	4.767870E-16	1.241528E-17
4.710000E+03	4.788367E-16	1.243048E-17
4.720000E+03	4.808727E-16	1.244492E-17
4.730000E+03	4.828957E-16	1.245859E-17
4.740000E+03	4.848787E-16	1.247083E-17
4.750000E+03	4.868219E-16	1.248164E-17
4.760000E+03	4.887162E-16	1.249079E-17
4.770000E+03	4.905523E-16	1.249807E-17
4.780000E+03	4.923212E-16	1.250326E-17
4.790000E+03	4.940140E-16	1.250614E-17
4.800000E+03	4.956215E-16	1.250652E-17
4.810000E+03	4.971352E-16	1.250418E-17
4.820000E+03	4.985465E-16	1.249894E-17
4.830000E+03	4.998558E-16	1.249084E-17
4.840000E+03	5.010467E-16	1.247949E-17
4.850000E+03	5.021116E-16	1.246473E-17
4.860000E+03	5.030435E-16	1.244643E-17
4.870000E+03	5.038449E-16	1.242468E-17
4.880000E+03	5.045099E-16	1.239935E-17
4.890000E+03	5.050248E-16	1.237017E-17
4.900000E+03	5.053936E-16	1.233725E-17
4.910000E+03	5.056130E-16	1.230057E-17
4.920000E+03	5.056717E-16	1.225987E-17
4.930000E+03	5.055851E-16	1.221558E-17
4.940000E+03	5.053351E-16	1.216730E-17
4.950000E+03	5.049390E-16	1.211549E-17
4.960000E+03	5.043895E-16	1.206001E-17
4.970000E+03	5.036887E-16	1.200095E-17
4.980000E+03	5.028398E-16	1.193843E-17
4.990000E+03	5.018552E-16	1.187278E-17
5.000000E+03	5.007318E-16	1.180396E-17
5.010000E+03	4.994754E-16	1.173216E-17
5.020000E+03	4.981094E-16	1.165794E-17
5.030000E+03	4.966247E-16	1.158114E-17
5.040000E+03	4.950378E-16	1.150216E-17
5.050000E+03	4.933491E-16	1.142104E-17
5.060000E+03	4.915839E-16	1.133840E-17
5.070000E+03	4.897358E-16	1.125412E-17
5.080000E+03	4.878226E-16	1.116861E-17
5.090000E+03	4.858619E-16	1.108232E-17
5.100000E+03	4.838478E-16	1.099511E-17
5.110000E+03	4.818062E-16	1.090758E-17
5.120000E+03	4.797307E-16	1.081962E-17
5.130000E+03	4.776465E-16	1.073178E-17
5.140000E+03	4.755549E-16	1.064411E-17
5.150000E+03	4.734718E-16	1.055697E-17
5.160000E+03	4.713903E-16	1.047020E-17
5.170000E+03	4.693329E-16	1.038431E-17
5.180000E+03	4.672988E-16	1.029928E-17
5.190000E+03	4.652942E-16	1.021523E-17
5.200000E+03	4.633315E-16	1.013243E-17
5.210000E+03	4.614080E-16	1.005083E-17
5.220000E+03	4.595347E-16	9.970641E-18
5.230000E+03	4.576998E-16	9.891610E-18
5.240000E+03	4.559201E-16	9.814091E-18
5.250000E+03	4.541895E-16	9.737941E-18
5.260000E+03	4.525158E-16	9.663317E-18
5.270000E+03	4.508917E-16	9.590053E-18
5.280000E+03	4.493163E-16	9.518122E-18
5.290000E+03	4.477884E-16	9.447488E-18
5.300000E+03	4.463061E-16	9.378102E-18
5.310000E+03	4.448741E-16	9.310056E-18
5.320000E+03	4.434828E-16	9.243139E-18
5.330000E+03	4.421295E-16	9.177289E-18
5.340000E+03	4.408110E-16	9.112434E-18
5.350000E+03	4.395244E-16	9.048509E-18
5.360000E+03	4.382667E-16	8.985446E-18
5.370000E+03	4.370416E-16	8.923320E-18
5.380000E+03	4.358328E-16	8.861795E-18
5.390000E+03	4.346512E-16	8.801088E-18
5.400000E+03	4.334808E-16	8.740877E-18
5.410000E+03	4.323329E-16	8.681391E-18
5.420000E+03	4.311923E-16	8.622318E-18
5.430000E+03	4.300703E-16	8.563892E-18
5.440000E+03	4.289586E-16	8.505944E-18
5.450000E+03	4.278491E-16	8.448318E-18
5.460000E+03	4.267534E-16	8.391244E-18
5.470000E+03	4.256633E-16	8.334557E-18
5.480000E+03	4.245766E-16	8.278217E-18
5.490000E+03	4.234912E-16	8.222178E-18
5.500000E+03	4.224045E-16	8.166389E-18
5.510000E+03	4.213125E-16	8.110774E-18
5.520000E+03	4.202177E-16	8.055382E-18
5.530000E+03	4.191096E-16	8.000011E-18
5.540000E+03	4.179837E-16	7.944578E-18
5.550000E+03	4.168360E-16	7.889012E-18
5.560000E+03	4.156690E-16	7.833367E-18
5.570000E+03	4.144728E-16	7.777459E-18
5.580000E+03	4.132443E-16	7.721239E-18
5.590000E+03	4.119874E-16	7.664787E-18
5.600000E+03	4.107002E-16	7.608073E-18
5.610000E+03	4.093752E-16	7.550967E-18
5.620000E+03	4.080177E-16	7.493577E-18
5.630000E+03	4.066282E-16	7.435918E-18
5.640000E+03	4.052073E-16	7.378011E-18
5.650000E+03	4.037499E-16	7.319771E-18
5.660000E+03	4.022708E-16	7.261473E-18
5.670000E+03	4.007662E-16	7.203054E-18
5.680000E+03	3.992391E-16	7.144578E-18
5.690000E+03	3.976931E-16	7.086111E-18
5.700000E+03	3.961318E-16	7.027727E-18
5.710000E+03	3.945659E-16	6.969614E-18
5.720000E+03	3.929934E-16	6.911743E-18
5.730000E+03	3.914189E-16	6.854196E-18
5.740000E+03	3.898532E-16	6.797164E-18
5.750000E+03	3.883007E-16	6.740723E-18
5.760000E+03	3.867602E-16	6.684850E-18
5.770000E+03	3.852422E-16	6.629725E-18
5.780000E+03	3.837509E-16	6.575417E-18
5.790000E+03	3.822904E-16	6.521994E-18
5.800000E+03	3.808590E-16	6.469418E-18
5.810000E+03	3.794659E-16	6.417845E-18
5.820000E+03	3.781205E-16	6.367426E-18
5.830000E+03	3.768141E-16	6.318006E-18
5.840000E+03	3.755549E-16	6.269718E-18
5.850000E+03	3.743513E-16	6.222696E-18
5.860000E+03	3.731933E-16	6.176763E-18
5.870000E+03	3.720883E-16	6.132034E-18
5.880000E+03	3.710429E-16	6.088614E-18
5.890000E+03	3.700519E-16	6.046407E-18
5.900000E+03	3.691155E-16	6.005409E-18
5.910000E+03	3.682274E-16	5.965511E-18
5.920000E+03	3.674044E-16	5.926977E-18
5.930000E+03	3.666275E-16	5.889498E-18
5.940000E+03	3.659011E-16	5.853136E-18
5.950000E+03	3.652288E-16	5.817944E-18
5.960000E+03	3.646023E-16	5.783789E-18
5.970000E+03	3.640190E-16	5.750621E-18
5.980000E+03	3.634754E-16	5.718388E-18
5.990000E+03	3.629685E-16	5.687038E-18
6.000000E+03	3.624946E-16	5.656515E-18
6.010000E+03	3.620499E-16	5.626760E-18
6.020000E+03	3.616366E-16	5.597809E-18
6.030000E+03	3.612394E-16	5.569427E-18
6.040000E+03	3.608663E-16	5.541742E-18
6.050000E+03	3.605078E-16	5.514613E-18
6.060000E+03	3.601549E-16	5.487908E-18
6.070000E+03	3.598163E-16	5.461765E-18
6.080000E+03	3.594776E-16	5.435975E-18
6.090000E+03	3.591484E-16	5.410690E-18
6.100000E+03	3.588209E-16	5.385799E-18
6.110000E+03	3.584880E-16	5.361207E-18
6.120000E+03	3.581549E-16	5.337001E-18
6.130000E+03	3.578271E-16	5.313271E-18
6.140000E+03	3.574934E-16	5.289862E-18
6.150000E+03	3.571606E-16	5.266885E-18
6.160000E+03	3.568303E-16	5.244370E-18
6.170000E+03	3.564986E-16	5.222275E-18
6.180000E+03	3.561804E-16	5.200823E-18
6.190000E+03	3.558669E-16	5.179897E-18
6.200000E+03	3.555681E-16	5.159652E-18
6.210000E+03	3.552886E-16	5.140161E-18
6.220000E+03	3.550331E-16	5.121504E-18
6.230000E+03	3.548074E-16	5.103768E-18
6.240000E+03	3.546112E-16	5.086961E-18
6.250000E+03	3.544572E-16	5.071268E-18
6.260000E+03	3.543520E-16	5.056795E-18
6.270000E+03	3.543030E-16	5.043649E-18
6.280000E+03	3.543176E-16	5.031943E-18
6.290000E+03	3.543977E-16	5.021713E-18
6.300000E+03	3.545634E-16	5.013247E-18
6.310000E+03	3.548111E-16	5.006500E-18
6.320000E+03	3.551552E-16	5.001681E-18
6.330000E+03	3.556042E-16	4.998917E-18
6.340000E+03	3.561665E-16	4.998334E-18
6.350000E+03	3.568510E-16	5.000061E-18
6.360000E+03	3.576658E-16	5.004221E-18
6.370000E+03	3.586250E-16	5.011020E-18
6.380000E+03	3.597244E-16	5.020408E-18
6.390000E+03	3.609772E-16	5.032581E-18
6.400000E+03	3.623962E-16	5.047731E-18
6.410000E+03	3.639749E-16	5.065780E-18
6.420000E+03	3.657305E-16	5.086983E-18
6.430000E+03	3.676669E-16	5.111412E-18
6.440000E+03	3.697737E-16	5.138943E-18
6.450000E+03	3.720643E-16	5.169783E-18
6.460000E+03	3.745376E-16	5.203942E-18
6.470000E+03	3.771839E-16	5.241309E-18
6.480000E+03	3.799975E-16	5.281837E-18
6.490000E+03	3.829767E-16	5.325529E-18
6.500000E+03	3.861103E-16	5.372255E-18
6.510000E+03	3.893843E-16	5.421830E-18
6.520000E+03	3.927749E-16	5.473936E-18
6.530000E+03	3.962683E-16	5.528393E-18
6.540000E+03	3.998453E-16	5.584945E-18
6.550000E+03	4.034893E-16	5.643374E-18
6.560000E+03	4.071817E-16	5.703427E-18
6.570000E+03	4.109081E-16	5.764915E-18
6.580000E+03	4.146301E-16	5.827307E-18
6.590000E+03	4.183353E-16	5.890431E-18
6.600000E+03	4.219881E-16	5.953791E-18
6.610000E+03	4.255582E-16	6.016955E-18
6.620000E+03	4.290214E-16	6.079578E-18
6.630000E+03	4.323459E-16	6.141198E-18
6.640000E+03	4.354921E-16	6.201237E-18
6.650000E+03	4.384282E-16	6.259220E-18
6.660000E+03	4.411315E-16	6.314799E-18
6.670000E+03	4.435813E-16	6.367643E-18
6.680000E+03	4.457354E-16	6.417109E-18
6.690000E+03	4.475700E-16	6.462808E-18
6.700000E+03	4.490809E-16	6.504627E-18
6.710000E+03	4.502430E-16	6.542150E-18
6.720000E+03	4.510437E-16	6.575131E-18
6.730000E+03	4.514741E-16	6.603374E-18
6.740000E+03	4.515377E-16	6.626861E-18
6.750000E+03	4.512178E-16	6.645276E-18
6.760000E+03	4.505345E-16	6.658838E-18
6.770000E+03	4.494875E-16	6.667463E-18
6.780000E+03	4.480961E-16	6.671364E-18
6.790000E+03	4.463670E-16	6.670561E-18
6.800000E+03	4.443179E-16	6.665243E-18
6.810000E+03	4.419772E-16	6.655761E-18
6.820000E+03	4.393675E-16	6.642380E-18
6.830000E+03	4.365045E-16	6.625271E-18
6.840000E+03	4.334216E-16	6.604874E-18
6.850000E+03	4.301370E-16	6.581404E-18
6.860000E+03	4.266848E-16	6.555325E-18
6.870000E+03	4.230915E-16	6.526991E-18
6.880000E+03	4.193751E-16	6.496633E-18
6.890000E+03	4.155687E-16	6.464719E-18
6.900000E+03	4.116966E-16	6.431590E-18
6.910000E+03	4.077817E-16	6.397574E-18
6.920000E+03	4.038382E-16	6.362863E-18
6.930000E+03	3.998940E-16	6.327875E-18
6.940000E+03	3.959677E-16	6.292885E-18
6.950000E+03	3.920689E-16	6.258035E-18
6.960000E+03	3.882204E-16	6.223677E-18
6.970000E+03	3.844359E-16	6.190025E-18
6.980000E+03	3.807274E-16	6.157271E-18
6.990000E+03	3.770983E-16	6.125473E-18
7.000000E+03	3.735646E-16	6.094892E-18
7.010000E+03	3.701268E-16	6.065546E-18
7.020000E+03	3.668051E-16	6.037774E-18
7.030000E+03	3.635834E-16	6.011320E-18
7.040000E+03	3.604792E-16	5.986490E-18
7.050000E+03	3.574950E-16	5.963337E-18
7.060000E+03	3.546255E-16	5.941790E-18
7.070000E+03	3.518781E-16	5.921988E-18
7.080000E+03	3.492458E-16	5.903832E-18
7.090000E+03	3.467275E-16	5.887321E-18
7.100000E+03	3.443286E-16	5.872562E-18
7.110000E+03	3.420399E-16	5.859417E-18
7.120000E+03	3.398589E-16	5.847860E-18
7.130000E+03	3.377823E-16	5.837855E-18
7.140000E+03	3.358067E-16	5.829357E-18
7.150000E+03	3.339281E-16	5.822314E-18
7.160000E+03	3.321426E-16	5.816674E-18
7.170000E+03	3.304457E-16	5.812374E-18
7.180000E+03	3.288331E-16	5.809352E-18
7.190000E+03	3.273002E-16	5.807542E-18
7.200000E+03	3.258358E-16	5.806758E-18
7.210000E+03	3.244354E-16	5.806931E-18
7.220000E+03	3.231068E-16	5.808213E-18
7.230000E+03	3.218329E-16	5.810304E-18
7.240000E+03	3.206089E-16	5.813130E-18
7.250000E+03	3.194302E-16	5.816614E-18
7.260000E+03	3.182984E-16	5.820791E-18
7.270000E+03	3.172030E-16	5.825478E-18
7.280000E+03	3.161394E-16	5.830596E-18
7.290000E+03	3.151036E-16	5.836073E-18
7.300000E+03	3.140913E-16	5.841834E-18
7.310000E+03	3.131046E-16	5.847921E-18
7.320000E+03	3.121213E-16	5.853923E-18
7.330000E+03	3.111558E-16	5.860109E-18
7.340000E+03	3.101987E-16	5.866302E-18
7.350000E+03	3.092404E-16	5.872320E-18
7.360000E+03	3.082837E-16	5.878215E-18
7.370000E+03	3.073194E-16	5.883810E-18
7.380000E+03	3.063507E-16	5.889161E-18
7.390000E+03	3.053688E-16	5.894100E-18
7.400000E+03	3.043773E-16	5.898688E-18
7.410000E+03	3.033679E-16	5.902762E-18
7.420000E+03	3.023386E-16	5.906278E-18
7.430000E+03	3.012934E-16	5.909308E-18
7.440000E+03	3.002250E-16	5.911703E-18
7.450000E+03	2.991318E-16	5.913428E-18
7.460000E+03	2.980130E-16	5.914458E-18
7.470000E+03	2.968734E-16	5.914881E-18
7.480000E+03	2.957007E-16	5.914450E-18
7.490000E+03	2.945064E-16	5.913386E-18
7.500000E+03	2.932845E-16	5.911561E-18
7.510000E+03	2.920295E-16	5.908859E-18
7.520000E+03	2.907532E-16	5.905510E-18
7.530000E+03	2.894508E-16	5.901413E-18
7.540000E+03	2.881229E-16	5.896574E-18
7.550000E+03	2.867650E-16	5.890895E-18
7.560000E+03	2.853899E-16	5.884632E-18
7.570000E+03	2.839934E-16	5.877697E-18
7.580000E+03	2.825716E-16	5.870002E-18
7.590000E+03	2.811378E-16	5.861818E-18
7.600000E+03	2.796828E-16	5.852951E-18
7.610000E+03	2.782142E-16	5.843561E-18
7.620000E+03	2.767347E-16	5.833694E-18
7.630000E+03	2.752465E-16	5.823402E-18
7.640000E+03	2.737523E-16	5.812735E-18
7.650000E+03	2.722546E-16	5.801752E-18
7.660000E+03	2.707562E-16	5.790507E-18
7.670000E+03	2.692545E-16	5.778947E-18
7.680000E+03	2.677628E-16	5.767361E-18
7.690000E+03	2.662732E-16	5.755577E-18
7.700000E+03	2.647939E-16	5.743778E-18
7.710000E+03	2.633276E-16	5.732022E-18
7.720000E+03	2.618714E-16	5.720255E-18
7.730000E+03	2.604388E-16	5.708772E-18
7.740000E+03	2.590214E-16	5.697395E-18
7.750000E+03	2.576270E-16	5.686302E-18
7.760000E+03	2.562576E-16	5.675545E-18
