#wls	flux	fluxerr
1.600000E+03	1.138071E-16	3.404972E-18
1.640000E+03	1.166286E-16	3.483858E-18
1.680000E+03	1.195116E-16	3.564163E-18
1.720000E+03	1.224963E-16	3.647064E-18
1.760000E+03	1.255597E-16	3.731844E-18
1.800000E+03	1.286990E-16	3.818396E-18
1.840000E+03	1.319334E-16	3.907259E-18
1.880000E+03	1.352366E-16	3.997624E-18
1.920000E+03	1.386509E-16	4.090711E-18
1.960000E+03	1.421486E-16	4.185665E-18
2.000000E+03	1.457239E-16	4.282283E-18
2.040000E+03	1.493950E-16	4.381063E-18
2.080000E+03	1.531296E-16	4.481023E-18
2.120000E+03	1.569699E-16	4.583364E-18
2.160000E+03	1.608813E-16	4.687035E-18
2.200000E+03	1.648795E-16	4.792450E-18
2.240000E+03	1.689528E-16	4.899232E-18
2.280000E+03	1.730880E-16	5.006957E-18
2.320000E+03	1.773248E-16	5.116732E-18
2.360000E+03	1.815923E-16	5.226468E-18
2.400000E+03	1.859273E-16	5.337186E-18
2.440000E+03	1.903102E-16	5.448278E-18
2.480000E+03	1.947471E-16	5.559882E-18
2.520000E+03	1.992426E-16	5.672085E-18
2.560000E+03	2.037417E-16	5.783277E-18
2.600000E+03	2.082437E-16	5.893409E-18
2.640000E+03	2.127752E-16	6.003195E-18
2.680000E+03	2.173310E-16	6.112452E-18
2.720000E+03	2.218451E-16	6.219286E-18
2.760000E+03	2.263071E-16	6.323383E-18
2.800000E+03	2.307610E-16	6.425950E-18
2.840000E+03	2.351612E-16	6.525692E-18
2.880000E+03	2.394885E-16	6.622054E-18
2.920000E+03	2.437211E-16	6.714426E-18
2.960000E+03	2.478907E-16	6.803668E-18
3.000000E+03	2.519429E-16	6.888282E-18
3.010000E+03	2.529280E-16	6.908448E-18
3.020000E+03	2.539217E-16	6.928764E-18
3.030000E+03	2.548964E-16	6.948471E-18
3.040000E+03	2.558512E-16	6.967547E-18
3.050000E+03	2.568388E-16	6.987426E-18
3.060000E+03	2.577783E-16	7.005907E-18
3.070000E+03	2.587220E-16	7.024416E-18
3.080000E+03	2.596691E-16	7.042927E-18
3.090000E+03	2.605926E-16	7.060708E-18
3.100000E+03	2.615436E-16	7.079145E-18
3.110000E+03	2.624436E-16	7.096110E-18
3.120000E+03	2.633693E-16	7.113683E-18
3.130000E+03	2.642685E-16	7.130449E-18
3.140000E+03	2.651661E-16	7.147083E-18
3.150000E+03	2.660363E-16	7.162887E-18
3.160000E+03	2.669286E-16	7.179198E-18
3.170000E+03	2.678172E-16	7.195317E-18
3.180000E+03	2.686765E-16	7.210559E-18
3.190000E+03	2.695309E-16	7.225583E-18
3.200000E+03	2.704045E-16	7.241026E-18
3.210000E+03	2.712475E-16	7.255562E-18
3.220000E+03	2.721081E-16	7.270479E-18
3.230000E+03	2.729377E-16	7.284474E-18
3.240000E+03	2.737839E-16	7.298822E-18
3.250000E+03	2.746224E-16	7.312872E-18
3.260000E+03	2.754528E-16	7.326617E-18
3.270000E+03	2.762983E-16	7.340668E-18
3.280000E+03	2.771351E-16	7.354398E-18
3.290000E+03	2.779632E-16	7.367803E-18
3.300000E+03	2.788054E-16	7.381487E-18
3.310000E+03	2.796387E-16	7.394842E-18
3.320000E+03	2.804633E-16	7.407871E-18
3.330000E+03	2.813237E-16	7.421751E-18
3.340000E+03	2.821753E-16	7.435302E-18
3.350000E+03	2.830182E-16	7.448527E-18
3.360000E+03	2.838746E-16	7.462012E-18
3.370000E+03	2.847446E-16	7.475752E-18
3.380000E+03	2.856279E-16	7.489745E-18
3.390000E+03	2.865250E-16	7.503996E-18
3.400000E+03	2.874358E-16	7.518502E-18
3.410000E+03	2.883396E-16	7.532723E-18
3.420000E+03	2.892786E-16	7.547758E-18
3.430000E+03	2.902321E-16	7.563065E-18
3.440000E+03	2.912003E-16	7.578647E-18
3.450000E+03	2.921839E-16	7.594518E-18
3.460000E+03	2.931830E-16	7.610680E-18
3.470000E+03	2.942180E-16	7.627662E-18
3.480000E+03	2.952693E-16	7.644950E-18
3.490000E+03	2.963570E-16	7.663060E-18
3.500000E+03	2.974617E-16	7.681491E-18
3.510000E+03	2.985841E-16	7.700255E-18
3.520000E+03	2.997626E-16	7.720341E-18
3.530000E+03	3.009595E-16	7.740771E-18
3.540000E+03	3.021752E-16	7.761554E-18
3.550000E+03	3.034474E-16	7.783654E-18
3.560000E+03	3.047391E-16	7.806116E-18
3.570000E+03	3.060874E-16	7.829887E-18
3.580000E+03	3.074556E-16	7.854026E-18
3.590000E+03	3.088804E-16	7.879460E-18
3.600000E+03	3.103258E-16	7.905270E-18
3.610000E+03	3.118275E-16	7.932359E-18
3.620000E+03	3.133678E-16	7.960270E-18
3.630000E+03	3.149637E-16	7.989434E-18
3.640000E+03	3.165977E-16	8.019395E-18
3.650000E+03	3.182697E-16	8.050149E-18
3.660000E+03	3.199964E-16	8.082112E-18
3.670000E+03	3.217770E-16	8.115258E-18
3.680000E+03	3.235943E-16	8.149144E-18
3.690000E+03	3.254642E-16	8.184168E-18
3.700000E+03	3.273858E-16	8.220298E-18
3.710000E+03	3.293419E-16	8.257099E-18
3.720000E+03	3.313638E-16	8.295349E-18
3.730000E+03	3.334181E-16	8.334201E-18
3.740000E+03	3.355353E-16	8.374418E-18
3.750000E+03	3.376979E-16	8.415550E-18
3.760000E+03	3.399044E-16	8.457556E-18
3.770000E+03	3.421528E-16	8.500382E-18
3.780000E+03	3.444413E-16	8.543974E-18
3.790000E+03	3.467832E-16	8.588656E-18
3.800000E+03	3.491606E-16	8.633982E-18
3.810000E+03	3.515713E-16	8.679889E-18
3.820000E+03	3.540279E-16	8.726682E-18
3.830000E+03	3.565272E-16	8.774278E-18
3.840000E+03	3.590514E-16	8.822234E-18
3.850000E+03	3.616124E-16	8.870832E-18
3.860000E+03	3.641922E-16	8.919635E-18
3.870000E+03	3.668021E-16	8.968907E-18
3.880000E+03	3.694384E-16	9.018561E-18
3.890000E+03	3.720835E-16	9.068156E-18
3.900000E+03	3.747478E-16	9.117948E-18
3.910000E+03	3.774277E-16	9.167842E-18
3.920000E+03	3.801189E-16	9.217735E-18
3.930000E+03	3.828178E-16	9.267537E-18
3.940000E+03	3.855066E-16	9.316812E-18
3.950000E+03	3.881953E-16	9.365801E-18
3.960000E+03	3.908797E-16	9.414408E-18
3.970000E+03	3.935562E-16	9.462540E-18
3.980000E+03	3.962206E-16	9.510099E-18
3.990000E+03	3.988562E-16	9.556682E-18
4.000000E+03	4.014725E-16	9.602522E-18
4.010000E+03	4.040529E-16	9.647225E-18
4.020000E+03	4.066075E-16	9.691031E-18
4.030000E+03	4.091328E-16	9.733862E-18
4.040000E+03	4.116132E-16	9.775350E-18
4.050000E+03	4.140589E-16	9.815738E-18
4.060000E+03	4.164548E-16	9.854679E-18
4.070000E+03	4.187991E-16	9.892129E-18
4.080000E+03	4.210902E-16	9.928062E-18
4.090000E+03	4.233269E-16	9.962452E-18
4.100000E+03	4.255084E-16	9.995286E-18
4.110000E+03	4.276341E-16	1.002656E-17
4.120000E+03	4.297040E-16	1.005628E-17
4.130000E+03	4.317066E-16	1.008418E-17
4.140000E+03	4.336432E-16	1.011030E-17
4.150000E+03	4.355154E-16	1.013468E-17
4.160000E+03	4.373365E-16	1.015766E-17
4.170000E+03	4.390860E-16	1.017874E-17
4.180000E+03	4.407785E-16	1.019829E-17
4.190000E+03	4.424064E-16	1.021613E-17
4.200000E+03	4.439738E-16	1.023236E-17
4.210000E+03	4.454964E-16	1.024736E-17
4.220000E+03	4.469575E-16	1.026075E-17
4.230000E+03	4.483628E-16	1.027266E-17
4.240000E+03	4.497188E-16	1.028325E-17
4.250000E+03	4.510424E-16	1.029292E-17
4.260000E+03	4.523199E-16	1.030135E-17
4.270000E+03	4.535590E-16	1.030873E-17
4.280000E+03	4.547675E-16	1.031524E-17
4.290000E+03	4.559538E-16	1.032107E-17
4.300000E+03	4.571263E-16	1.032642E-17
4.310000E+03	4.582839E-16	1.033126E-17
4.320000E+03	4.594256E-16	1.033557E-17
4.330000E+03	4.605706E-16	1.033980E-17
4.340000E+03	4.617185E-16	1.034391E-17
4.350000E+03	4.628786E-16	1.034813E-17
4.360000E+03	4.640599E-16	1.035266E-17
4.370000E+03	4.652526E-16	1.035726E-17
4.380000E+03	4.664843E-16	1.036256E-17
4.390000E+03	4.677442E-16	1.036831E-17
4.400000E+03	4.690398E-16	1.037467E-17
4.410000E+03	4.703864E-16	1.038197E-17
4.420000E+03	4.717712E-16	1.038992E-17
4.430000E+03	4.731994E-16	1.039864E-17
4.440000E+03	4.746845E-16	1.040840E-17
4.450000E+03	4.762127E-16	1.041891E-17
4.460000E+03	4.777878E-16	1.043024E-17
4.470000E+03	4.794219E-16	1.044264E-17
4.480000E+03	4.811091E-16	1.045597E-17
4.490000E+03	4.828517E-16	1.047027E-17
4.500000E+03	4.846431E-16	1.048541E-17
4.510000E+03	4.864850E-16	1.050139E-17
4.520000E+03	4.883870E-16	1.051842E-17
4.530000E+03	4.903327E-16	1.053614E-17
4.540000E+03	4.923308E-16	1.055473E-17
4.550000E+03	4.943807E-16	1.057417E-17
4.560000E+03	4.964652E-16	1.059407E-17
4.570000E+03	4.985996E-16	1.061476E-17
4.580000E+03	5.007735E-16	1.063602E-17
4.590000E+03	5.029848E-16	1.065778E-17
4.600000E+03	5.052306E-16	1.067998E-17
4.610000E+03	5.075075E-16	1.070255E-17
4.620000E+03	5.098032E-16	1.072521E-17
4.630000E+03	5.121136E-16	1.074788E-17
4.640000E+03	5.144421E-16	1.077063E-17
4.650000E+03	5.167831E-16	1.079334E-17
4.660000E+03	5.191227E-16	1.081570E-17
4.670000E+03	5.214550E-16	1.083761E-17
4.680000E+03	5.237814E-16	1.085908E-17
4.690000E+03	5.260866E-16	1.087981E-17
4.700000E+03	5.283718E-16	1.089981E-17
4.710000E+03	5.306130E-16	1.091861E-17
4.720000E+03	5.328268E-16	1.093653E-17
4.730000E+03	5.349807E-16	1.095294E-17
4.740000E+03	5.370913E-16	1.096815E-17
4.750000E+03	5.391337E-16	1.098169E-17
4.760000E+03	5.410997E-16	1.099339E-17
4.770000E+03	5.429890E-16	1.100327E-17
4.780000E+03	5.448017E-16	1.101132E-17
4.790000E+03	5.465132E-16	1.101706E-17
4.800000E+03	5.481236E-16	1.102053E-17
4.810000E+03	5.496252E-16	1.102157E-17
4.820000E+03	5.510186E-16	1.102021E-17
4.830000E+03	5.522884E-16	1.101617E-17
4.840000E+03	5.534278E-16	1.100933E-17
4.850000E+03	5.544467E-16	1.099990E-17
4.860000E+03	5.553229E-16	1.098747E-17
4.870000E+03	5.560672E-16	1.097228E-17
4.880000E+03	5.566588E-16	1.095393E-17
4.890000E+03	5.571096E-16	1.093268E-17
4.900000E+03	5.574079E-16	1.090834E-17
4.910000E+03	5.575591E-16	1.088102E-17
4.920000E+03	5.575608E-16	1.085071E-17
4.930000E+03	5.574196E-16	1.081756E-17
4.940000E+03	5.571190E-16	1.078127E-17
4.950000E+03	5.566672E-16	1.074203E-17
4.960000E+03	5.560725E-16	1.070004E-17
4.970000E+03	5.553368E-16	1.065533E-17
4.980000E+03	5.544622E-16	1.060799E-17
4.990000E+03	5.534516E-16	1.055809E-17
5.000000E+03	5.523088E-16	1.050573E-17
5.010000E+03	5.510380E-16	1.045101E-17
5.020000E+03	5.496439E-16	1.039404E-17
5.030000E+03	5.481471E-16	1.033523E-17
5.040000E+03	5.465309E-16	1.027429E-17
5.050000E+03	5.448240E-16	1.021177E-17
5.060000E+03	5.430253E-16	1.014768E-17
5.070000E+03	5.411344E-16	1.008202E-17
5.080000E+03	5.391731E-16	1.001522E-17
5.090000E+03	5.371412E-16	9.947281E-18
5.100000E+03	5.350534E-16	9.878492E-18
5.110000E+03	5.329022E-16	9.808727E-18
5.120000E+03	5.307096E-16	9.738402E-18
5.130000E+03	5.284824E-16	9.667652E-18
5.140000E+03	5.262207E-16	9.596484E-18
5.150000E+03	5.239380E-16	9.525153E-18
5.160000E+03	5.216340E-16	9.453658E-18
5.170000E+03	5.193147E-16	9.382114E-18
5.180000E+03	5.169998E-16	9.310883E-18
5.190000E+03	5.146808E-16	9.239810E-18
5.200000E+03	5.123630E-16	9.168994E-18
5.210000E+03	5.100577E-16	9.098640E-18
5.220000E+03	5.077623E-16	9.028699E-18
5.230000E+03	5.054874E-16	8.959362E-18
5.240000E+03	5.032296E-16	8.890567E-18
5.250000E+03	5.009985E-16	8.822483E-18
5.260000E+03	4.987900E-16	8.755034E-18
5.270000E+03	4.966065E-16	8.688262E-18
5.280000E+03	4.944497E-16	8.622192E-18
5.290000E+03	4.923212E-16	8.556854E-18
5.300000E+03	4.902223E-16	8.492266E-18
5.310000E+03	4.881541E-16	8.428443E-18
5.320000E+03	4.861173E-16	8.365394E-18
5.330000E+03	4.841062E-16	8.303021E-18
5.340000E+03	4.821277E-16	8.241439E-18
5.350000E+03	4.801823E-16	8.180652E-18
5.360000E+03	4.782640E-16	8.120555E-18
5.370000E+03	4.763731E-16	8.061152E-18
5.380000E+03	4.745098E-16	8.002445E-18
5.390000E+03	4.726807E-16	7.944539E-18
5.400000E+03	4.708736E-16	7.887230E-18
5.410000E+03	4.691009E-16	7.830723E-18
5.420000E+03	4.673507E-16	7.774815E-18
5.430000E+03	4.656293E-16	7.719612E-18
5.440000E+03	4.639427E-16	7.665209E-18
5.450000E+03	4.622790E-16	7.611407E-18
5.460000E+03	4.606379E-16	7.558201E-18
5.470000E+03	4.590311E-16	7.505776E-18
5.480000E+03	4.574461E-16	7.453926E-18
5.490000E+03	4.558877E-16	7.402727E-18
5.500000E+03	4.543543E-16	7.352146E-18
5.510000E+03	4.528430E-16	7.302137E-18
5.520000E+03	4.513503E-16	7.252640E-18
5.530000E+03	4.498727E-16	7.203595E-18
5.540000E+03	4.484064E-16	7.154943E-18
5.550000E+03	4.469478E-16	7.106624E-18
5.560000E+03	4.454934E-16	7.058583E-18
5.570000E+03	4.440454E-16	7.010856E-18
5.580000E+03	4.426007E-16	6.963394E-18
5.590000E+03	4.411507E-16	6.916063E-18
5.600000E+03	4.396984E-16	6.868915E-18
5.610000E+03	4.382361E-16	6.821827E-18
5.620000E+03	4.367733E-16	6.774953E-18
5.630000E+03	4.353029E-16	6.728184E-18
5.640000E+03	4.338295E-16	6.681595E-18
5.650000E+03	4.323468E-16	6.635091E-18
5.660000E+03	4.308602E-16	6.588758E-18
5.670000E+03	4.293643E-16	6.542516E-18
5.680000E+03	4.278707E-16	6.496545E-18
5.690000E+03	4.263746E-16	6.450774E-18
5.700000E+03	4.248771E-16	6.405222E-18
5.710000E+03	4.233794E-16	6.359909E-18
5.720000E+03	4.218889E-16	6.314948E-18
5.730000E+03	4.204070E-16	6.270362E-18
5.740000E+03	4.189302E-16	6.226100E-18
5.750000E+03	4.174661E-16	6.182274E-18
5.760000E+03	4.160166E-16	6.138915E-18
5.770000E+03	4.145892E-16	6.096132E-18
5.780000E+03	4.131751E-16	6.053797E-18
5.790000E+03	4.117872E-16	6.012096E-18
5.800000E+03	4.104222E-16	5.970981E-18
5.810000E+03	4.090815E-16	5.930473E-18
5.820000E+03	4.077726E-16	5.890678E-18
5.830000E+03	4.064916E-16	5.851538E-18
5.840000E+03	4.052451E-16	5.813147E-18
5.850000E+03	4.040343E-16	5.775521E-18
5.860000E+03	4.028548E-16	5.738593E-18
5.870000E+03	4.017076E-16	5.702377E-18
5.880000E+03	4.005982E-16	5.666950E-18
5.890000E+03	3.995271E-16	5.632316E-18
5.900000E+03	3.984889E-16	5.598398E-18
5.910000E+03	3.974887E-16	5.565268E-18
5.920000E+03	3.965209E-16	5.532843E-18
5.930000E+03	3.955902E-16	5.501189E-18
5.940000E+03	3.946903E-16	5.470217E-18
5.950000E+03	3.938202E-16	5.439916E-18
5.960000E+03	3.929841E-16	5.410340E-18
5.970000E+03	3.921804E-16	5.381469E-18
5.980000E+03	3.913973E-16	5.353142E-18
5.990000E+03	3.906437E-16	5.325482E-18
6.000000E+03	3.899076E-16	5.298325E-18
6.010000E+03	3.891976E-16	5.271792E-18
6.020000E+03	3.885068E-16	5.245792E-18
6.030000E+03	3.878340E-16	5.220309E-18
6.040000E+03	3.871720E-16	5.195251E-18
6.050000E+03	3.865301E-16	5.170746E-18
6.060000E+03	3.858966E-16	5.146640E-18
6.070000E+03	3.852704E-16	5.122926E-18
6.080000E+03	3.846559E-16	5.099662E-18
6.090000E+03	3.840525E-16	5.076848E-18
6.100000E+03	3.834548E-16	5.054416E-18
6.110000E+03	3.828678E-16	5.032438E-18
6.120000E+03	3.822816E-16	5.010787E-18
6.130000E+03	3.817072E-16	4.989614E-18
6.140000E+03	3.811457E-16	4.968937E-18
6.150000E+03	3.805880E-16	4.948643E-18
6.160000E+03	3.800412E-16	4.928829E-18
6.170000E+03	3.795126E-16	4.909596E-18
6.180000E+03	3.789942E-16	4.890844E-18
6.190000E+03	3.784943E-16	4.872685E-18
6.200000E+03	3.780160E-16	4.855164E-18
6.210000E+03	3.775630E-16	4.838333E-18
6.220000E+03	3.771394E-16	4.822247E-18
6.230000E+03	3.767490E-16	4.806962E-18
6.240000E+03	3.763968E-16	4.792541E-18
6.250000E+03	3.760821E-16	4.778983E-18
6.260000E+03	3.758153E-16	4.766422E-18
6.270000E+03	3.756015E-16	4.754927E-18
6.280000E+03	3.754462E-16	4.744570E-18
6.290000E+03	3.753550E-16	4.735426E-18
6.300000E+03	3.753281E-16	4.727500E-18
6.310000E+03	3.753818E-16	4.721001E-18
6.320000E+03	3.755112E-16	4.715872E-18
6.330000E+03	3.757271E-16	4.712251E-18
6.340000E+03	3.760404E-16	4.710279E-18
6.350000E+03	3.764456E-16	4.709893E-18
6.360000E+03	3.769532E-16	4.711227E-18
6.370000E+03	3.775732E-16	4.714413E-18
6.380000E+03	3.782993E-16	4.719378E-18
6.390000E+03	3.791460E-16	4.726309E-18
6.400000E+03	3.801116E-16	4.735191E-18
6.410000E+03	3.811985E-16	4.746064E-18
6.420000E+03	3.824141E-16	4.759028E-18
6.430000E+03	3.837543E-16	4.774042E-18
6.440000E+03	3.852245E-16	4.791186E-18
6.450000E+03	3.868187E-16	4.810394E-18
6.460000E+03	3.885404E-16	4.831723E-18
6.470000E+03	3.903864E-16	4.855148E-18
6.480000E+03	3.923524E-16	4.880631E-18
6.490000E+03	3.944326E-16	4.908112E-18
6.500000E+03	3.966198E-16	4.937507E-18
6.510000E+03	3.989052E-16	4.968712E-18
6.520000E+03	4.012783E-16	5.001599E-18
6.530000E+03	4.037325E-16	5.036091E-18
6.540000E+03	4.062549E-16	5.072030E-18
6.550000E+03	4.088269E-16	5.109189E-18
6.560000E+03	4.114401E-16	5.147466E-18
6.570000E+03	4.140724E-16	5.186587E-18
6.580000E+03	4.167188E-16	5.226493E-18
6.590000E+03	4.193548E-16	5.266879E-18
6.600000E+03	4.219614E-16	5.307503E-18
6.610000E+03	4.245185E-16	5.348114E-18
6.620000E+03	4.270125E-16	5.388535E-18
6.630000E+03	4.294231E-16	5.428506E-18
6.640000E+03	4.317237E-16	5.467683E-18
6.650000E+03	4.339007E-16	5.505886E-18
6.660000E+03	4.359351E-16	5.542858E-18
6.670000E+03	4.378085E-16	5.578355E-18
6.680000E+03	4.395108E-16	5.612228E-18
6.690000E+03	4.410125E-16	5.644082E-18
6.700000E+03	4.423200E-16	5.673977E-18
6.710000E+03	4.434008E-16	5.701472E-18
6.720000E+03	4.442649E-16	5.726668E-18
6.730000E+03	4.448905E-16	5.749255E-18
6.740000E+03	4.452785E-16	5.769213E-18
6.750000E+03	4.454251E-16	5.786463E-18
6.760000E+03	4.453289E-16	5.800949E-18
6.770000E+03	4.449905E-16	5.812644E-18
6.780000E+03	4.444126E-16	5.821548E-18
6.790000E+03	4.436070E-16	5.827779E-18
6.800000E+03	4.425735E-16	5.831296E-18
6.810000E+03	4.413276E-16	5.832265E-18
6.820000E+03	4.398722E-16	5.830689E-18
6.830000E+03	4.382257E-16	5.826775E-18
6.840000E+03	4.363938E-16	5.820563E-18
6.850000E+03	4.343968E-16	5.812289E-18
6.860000E+03	4.322490E-16	5.802111E-18
6.870000E+03	4.299584E-16	5.790105E-18
6.880000E+03	4.275468E-16	5.776534E-18
6.890000E+03	4.250364E-16	5.761671E-18
6.900000E+03	4.224288E-16	5.745511E-18
6.910000E+03	4.197458E-16	5.728327E-18
6.920000E+03	4.169953E-16	5.710204E-18
6.930000E+03	4.142051E-16	5.691503E-18
6.940000E+03	4.113821E-16	5.672301E-18
6.950000E+03	4.085392E-16	5.652762E-18
6.960000E+03	4.056823E-16	5.632952E-18
6.970000E+03	4.028358E-16	5.613198E-18
6.980000E+03	3.999973E-16	5.593461E-18
6.990000E+03	3.971831E-16	5.573956E-18
7.000000E+03	3.944020E-16	5.554805E-18
7.010000E+03	3.916621E-16	5.536114E-18
7.020000E+03	3.889641E-16	5.517892E-18
7.030000E+03	3.863205E-16	5.500315E-18
7.040000E+03	3.837368E-16	5.483461E-18
7.050000E+03	3.812175E-16	5.467397E-18
7.060000E+03	3.787602E-16	5.452087E-18
7.070000E+03	3.763681E-16	5.437583E-18
7.080000E+03	3.740499E-16	5.424012E-18
7.090000E+03	3.718009E-16	5.411312E-18
7.100000E+03	3.696224E-16	5.399507E-18
7.110000E+03	3.675210E-16	5.388697E-18
7.120000E+03	3.654848E-16	5.378713E-18
7.130000E+03	3.635255E-16	5.369733E-18
7.140000E+03	3.616299E-16	5.361570E-18
7.150000E+03	3.598033E-16	5.354306E-18
7.160000E+03	3.580436E-16	5.347917E-18
7.170000E+03	3.563434E-16	5.342299E-18
7.180000E+03	3.547064E-16	5.337509E-18
7.190000E+03	3.531243E-16	5.333432E-18
7.200000E+03	3.515944E-16	5.330032E-18
7.210000E+03	3.501143E-16	5.327274E-18
7.220000E+03	3.486809E-16	5.325116E-18
7.230000E+03	3.472915E-16	5.323521E-18
7.240000E+03	3.459428E-16	5.322443E-18
7.250000E+03	3.446260E-16	5.321748E-18
7.260000E+03	3.433380E-16	5.321392E-18
7.270000E+03	3.420813E-16	5.321414E-18
7.280000E+03	3.408472E-16	5.321681E-18
7.290000E+03	3.396325E-16	5.322142E-18
7.300000E+03	3.384341E-16	5.322752E-18
7.310000E+03	3.372489E-16	5.323461E-18
7.320000E+03	3.360742E-16	5.324223E-18
7.330000E+03	3.349013E-16	5.324902E-18
7.340000E+03	3.337275E-16	5.325453E-18
7.350000E+03	3.325558E-16	5.325919E-18
7.360000E+03	3.313781E-16	5.326171E-18
7.370000E+03	3.301974E-16	5.326252E-18
7.380000E+03	3.290007E-16	5.325951E-18
7.390000E+03	3.277967E-16	5.325402E-18
7.400000E+03	3.265726E-16	5.324395E-18
7.410000E+03	3.253376E-16	5.323074E-18
7.420000E+03	3.240791E-16	5.321231E-18
7.430000E+03	3.228013E-16	5.318927E-18
7.440000E+03	3.214976E-16	5.316050E-18
7.450000E+03	3.201778E-16	5.312754E-18
7.460000E+03	3.188303E-16	5.308844E-18
7.470000E+03	3.174544E-16	5.304303E-18
7.480000E+03	3.160605E-16	5.299296E-18
7.490000E+03	3.146378E-16	5.293639E-18
7.500000E+03	3.131861E-16	5.287323E-18
7.510000E+03	3.117112E-16	5.280438E-18
7.520000E+03	3.102131E-16	5.272983E-18
7.530000E+03	3.086873E-16	5.264874E-18
7.540000E+03	3.071399E-16	5.256207E-18
7.550000E+03	3.055664E-16	5.246906E-18
7.560000E+03	3.039732E-16	5.237071E-18
7.570000E+03	3.023615E-16	5.226722E-18
7.580000E+03	3.007324E-16	5.215874E-18
7.590000E+03	2.990827E-16	5.204466E-18
7.600000E+03	2.974190E-16	5.192610E-18
7.610000E+03	2.957379E-16	5.180244E-18
7.620000E+03	2.940513E-16	5.167575E-18
7.630000E+03	2.923513E-16	5.154459E-18
7.640000E+03	2.906447E-16	5.141017E-18
7.650000E+03	2.889335E-16	5.127283E-18
7.660000E+03	2.872199E-16	5.113294E-18
7.670000E+03	2.855061E-16	5.099089E-18
7.680000E+03	2.837894E-16	5.084619E-18
7.690000E+03	2.820814E-16	5.070094E-18
7.700000E+03	2.803749E-16	5.055384E-18
7.710000E+03	2.786815E-16	5.040698E-18
7.720000E+03	2.769937E-16	5.025906E-18
7.730000E+03	2.753185E-16	5.011133E-18
7.740000E+03	2.736578E-16	4.996417E-18
7.750000E+03	2.720136E-16	4.981797E-18
7.760000E+03	2.703877E-16	4.967312E-18
