#wls	flux	fluxerr
1.600000E+03	1.016260E-16	2.656117E-18
1.640000E+03	1.038501E-16	2.710298E-18
1.680000E+03	1.061301E-16	2.765665E-18
1.720000E+03	1.084641E-16	2.822156E-18
1.760000E+03	1.108309E-16	2.879205E-18
1.800000E+03	1.132462E-16	2.937205E-18
1.840000E+03	1.157066E-16	2.996057E-18
1.880000E+03	1.182288E-16	3.056171E-18
1.920000E+03	1.207689E-16	3.116402E-18
1.960000E+03	1.233624E-16	3.177647E-18
2.000000E+03	1.259842E-16	3.239245E-18
2.040000E+03	1.286495E-16	3.301573E-18
2.080000E+03	1.313527E-16	3.364468E-18
2.120000E+03	1.340658E-16	3.427199E-18
2.160000E+03	1.368249E-16	3.490672E-18
2.200000E+03	1.396009E-16	3.554127E-18
2.240000E+03	1.423853E-16	3.617336E-18
2.280000E+03	1.451916E-16	3.680624E-18
2.320000E+03	1.480103E-16	3.743738E-18
2.360000E+03	1.508312E-16	3.806407E-18
2.400000E+03	1.536436E-16	3.868343E-18
2.440000E+03	1.564354E-16	3.929235E-18
2.480000E+03	1.592412E-16	3.989940E-18
2.520000E+03	1.620013E-16	4.048951E-18
2.560000E+03	1.647251E-16	4.106495E-18
2.600000E+03	1.674456E-16	4.163391E-18
2.640000E+03	1.701004E-16	4.218081E-18
2.680000E+03	1.726976E-16	4.270760E-18
2.720000E+03	1.752445E-16	4.321611E-18
2.760000E+03	1.777242E-16	4.370216E-18
2.800000E+03	1.801192E-16	4.416151E-18
2.840000E+03	1.824120E-16	4.458994E-18
2.880000E+03	1.846311E-16	4.499453E-18
2.920000E+03	1.867348E-16	4.536519E-18
2.960000E+03	1.887277E-16	4.570321E-18
3.000000E+03	1.906137E-16	4.600973E-18
3.010000E+03	1.910592E-16	4.607921E-18
3.020000E+03	1.914826E-16	4.614303E-18
3.030000E+03	1.919285E-16	4.621192E-18
3.040000E+03	1.923516E-16	4.627498E-18
3.050000E+03	1.927518E-16	4.633223E-18
3.060000E+03	1.931734E-16	4.639424E-18
3.070000E+03	1.935713E-16	4.645027E-18
3.080000E+03	1.939459E-16	4.650036E-18
3.090000E+03	1.943185E-16	4.654966E-18
3.100000E+03	1.946890E-16	4.659814E-18
3.110000E+03	1.950571E-16	4.664571E-18
3.120000E+03	1.954005E-16	4.668708E-18
3.130000E+03	1.957411E-16	4.672745E-18
3.140000E+03	1.960782E-16	4.676668E-18
3.150000E+03	1.964115E-16	4.680470E-18
3.160000E+03	1.967195E-16	4.683640E-18
3.170000E+03	1.970234E-16	4.686680E-18
3.180000E+03	1.973017E-16	4.689083E-18
3.190000E+03	1.975961E-16	4.691842E-18
3.200000E+03	1.978648E-16	4.693958E-18
3.210000E+03	1.981280E-16	4.695920E-18
3.220000E+03	1.983859E-16	4.697724E-18
3.230000E+03	1.986176E-16	4.698882E-18
3.240000E+03	1.988437E-16	4.699881E-18
3.250000E+03	1.990643E-16	4.700725E-18
3.260000E+03	1.992796E-16	4.701416E-18
3.270000E+03	1.994900E-16	4.701965E-18
3.280000E+03	1.996958E-16	4.702381E-18
3.290000E+03	1.998779E-16	4.702212E-18
3.300000E+03	2.000573E-16	4.701956E-18
3.310000E+03	2.002348E-16	4.701632E-18
3.320000E+03	2.004116E-16	4.701266E-18
3.330000E+03	2.005886E-16	4.700879E-18
3.340000E+03	2.007477E-16	4.700052E-18
3.350000E+03	2.009292E-16	4.699723E-18
3.360000E+03	2.010957E-16	4.699020E-18
3.370000E+03	2.012680E-16	4.698428E-18
3.380000E+03	2.014477E-16	4.697984E-18
3.390000E+03	2.016363E-16	4.697724E-18
3.400000E+03	2.018357E-16	4.697689E-18
3.410000E+03	2.020472E-16	4.697911E-18
3.420000E+03	2.022727E-16	4.698433E-18
3.430000E+03	2.025139E-16	4.699293E-18
3.440000E+03	2.027541E-16	4.700103E-18
3.450000E+03	2.030316E-16	4.701748E-18
3.460000E+03	2.033116E-16	4.703424E-18
3.470000E+03	2.036318E-16	4.705999E-18
3.480000E+03	2.039578E-16	4.708677E-18
3.490000E+03	2.043272E-16	4.712326E-18
3.500000E+03	2.047059E-16	4.716157E-18
3.510000E+03	2.051140E-16	4.720629E-18
3.520000E+03	2.055707E-16	4.726185E-18
3.530000E+03	2.060433E-16	4.732066E-18
3.540000E+03	2.065515E-16	4.738729E-18
3.550000E+03	2.071148E-16	4.746614E-18
3.560000E+03	2.077014E-16	4.754990E-18
3.570000E+03	2.083309E-16	4.764304E-18
3.580000E+03	2.090059E-16	4.774611E-18
3.590000E+03	2.097457E-16	4.786349E-18
3.600000E+03	2.105189E-16	4.798797E-18
3.610000E+03	2.113447E-16	4.812390E-18
3.620000E+03	2.122421E-16	4.827556E-18
3.630000E+03	2.131801E-16	4.843586E-18
3.640000E+03	2.141772E-16	4.860897E-18
3.650000E+03	2.152523E-16	4.879911E-18
3.660000E+03	2.163744E-16	4.899921E-18
3.670000E+03	2.175785E-16	4.921717E-18
3.680000E+03	2.188338E-16	4.944593E-18
3.690000E+03	2.201751E-16	4.969333E-18
3.700000E+03	2.215717E-16	4.995239E-18
3.710000E+03	2.230585E-16	5.023092E-18
3.720000E+03	2.246047E-16	5.052191E-18
3.730000E+03	2.262453E-16	5.083317E-18
3.740000E+03	2.279493E-16	5.115770E-18
3.750000E+03	2.297512E-16	5.150317E-18
3.760000E+03	2.316363E-16	5.186622E-18
3.770000E+03	2.335897E-16	5.224343E-18
3.780000E+03	2.356450E-16	5.264226E-18
3.790000E+03	2.377700E-16	5.305546E-18
3.800000E+03	2.399975E-16	5.349027E-18
3.810000E+03	2.422941E-16	5.393916E-18
3.820000E+03	2.446915E-16	5.440917E-18
3.830000E+03	2.471552E-16	5.489252E-18
3.840000E+03	2.497160E-16	5.539598E-18
3.850000E+03	2.523382E-16	5.591161E-18
3.860000E+03	2.550355E-16	5.644234E-18
3.870000E+03	2.578213E-16	5.699109E-18
3.880000E+03	2.606586E-16	5.754964E-18
3.890000E+03	2.635606E-16	5.812084E-18
3.900000E+03	2.665233E-16	5.870376E-18
3.910000E+03	2.695429E-16	5.929752E-18
3.920000E+03	2.725982E-16	5.989740E-18
3.930000E+03	2.757188E-16	6.050989E-18
3.940000E+03	2.788663E-16	6.112651E-18
3.950000E+03	2.820529E-16	6.174989E-18
3.960000E+03	2.852736E-16	6.237893E-18
3.970000E+03	2.885231E-16	6.301245E-18
3.980000E+03	2.917958E-16	6.364917E-18
3.990000E+03	2.950681E-16	6.428397E-18
4.000000E+03	2.983511E-16	6.491923E-18
4.010000E+03	3.016380E-16	6.555352E-18
4.020000E+03	3.049046E-16	6.618151E-18
4.030000E+03	3.081782E-16	6.680920E-18
4.040000E+03	3.113990E-16	6.742360E-18
4.050000E+03	3.146120E-16	6.803451E-18
4.060000E+03	3.177742E-16	6.863261E-18
4.070000E+03	3.208955E-16	6.922014E-18
4.080000E+03	3.239505E-16	6.979161E-18
4.090000E+03	3.269316E-16	7.034550E-18
4.100000E+03	3.298677E-16	7.088800E-18
4.110000E+03	3.326982E-16	7.140622E-18
4.120000E+03	3.354708E-16	7.191044E-18
4.130000E+03	3.381264E-16	7.238804E-18
4.140000E+03	3.406954E-16	7.284568E-18
4.150000E+03	3.431733E-16	7.328240E-18
4.160000E+03	3.455200E-16	7.368977E-18
4.170000E+03	3.477669E-16	7.407461E-18
4.180000E+03	3.499105E-16	7.443620E-18
4.190000E+03	3.519115E-16	7.476635E-18
4.200000E+03	3.538026E-16	7.507205E-18
4.210000E+03	3.555634E-16	7.534913E-18
4.220000E+03	3.571920E-16	7.559728E-18
4.230000E+03	3.587051E-16	7.582012E-18
4.240000E+03	3.600668E-16	7.601021E-18
4.250000E+03	3.613131E-16	7.617525E-18
4.260000E+03	3.624102E-16	7.630824E-18
4.270000E+03	3.633960E-16	7.641724E-18
4.280000E+03	3.642389E-16	7.649576E-18
4.290000E+03	3.649780E-16	7.655208E-18
4.300000E+03	3.655839E-16	7.658017E-18
4.310000E+03	3.660798E-16	7.658497E-18
4.320000E+03	3.664721E-16	7.656795E-18
4.330000E+03	3.667678E-16	7.653062E-18
4.340000E+03	3.669739E-16	7.647455E-18
4.350000E+03	3.670805E-16	7.639776E-18
4.360000E+03	3.671116E-16	7.630531E-18
4.370000E+03	3.670736E-16	7.619860E-18
4.380000E+03	3.669562E-16	7.607560E-18
4.390000E+03	3.667823E-16	7.594106E-18
4.400000E+03	3.665609E-16	7.579691E-18
4.410000E+03	3.662883E-16	7.564245E-18
4.420000E+03	3.659925E-16	7.548351E-18
4.430000E+03	3.656700E-16	7.531938E-18
4.440000E+03	3.653329E-16	7.515257E-18
4.450000E+03	3.650089E-16	7.498877E-18
4.460000E+03	3.646940E-16	7.482717E-18
4.470000E+03	3.644155E-16	7.467332E-18
4.480000E+03	3.641696E-16	7.452644E-18
4.490000E+03	3.639678E-16	7.438884E-18
4.500000E+03	3.638213E-16	7.426277E-18
4.510000E+03	3.637558E-16	7.415344E-18
4.520000E+03	3.637666E-16	7.405978E-18
4.530000E+03	3.638634E-16	7.398375E-18
4.540000E+03	3.640552E-16	7.392709E-18
4.550000E+03	3.643503E-16	7.389140E-18
4.560000E+03	3.647707E-16	7.388107E-18
4.570000E+03	3.652935E-16	7.389134E-18
4.580000E+03	3.659528E-16	7.392905E-18
4.590000E+03	3.667233E-16	7.398896E-18
4.600000E+03	3.676360E-16	7.407725E-18
4.610000E+03	3.686619E-16	7.418797E-18
4.620000E+03	3.698134E-16	7.432351E-18
4.630000E+03	3.711005E-16	7.448579E-18
4.640000E+03	3.724878E-16	7.466759E-18
4.650000E+03	3.739806E-16	7.486993E-18
4.660000E+03	3.755684E-16	7.509059E-18
4.670000E+03	3.772390E-16	7.532710E-18
4.680000E+03	3.789645E-16	7.557382E-18
4.690000E+03	3.807603E-16	7.583374E-18
4.700000E+03	3.825835E-16	7.609832E-18
4.710000E+03	3.844351E-16	7.636772E-18
4.720000E+03	3.863021E-16	7.663933E-18
4.730000E+03	3.881583E-16	7.690798E-18
4.740000E+03	3.900216E-16	7.717719E-18
4.750000E+03	3.918535E-16	7.743937E-18
4.760000E+03	3.936457E-16	7.769292E-18
4.770000E+03	3.954200E-16	7.794213E-18
4.780000E+03	3.971414E-16	7.818015E-18
4.790000E+03	3.988192E-16	7.840886E-18
4.800000E+03	4.004345E-16	7.862457E-18
4.810000E+03	4.019975E-16	7.882934E-18
4.820000E+03	4.035042E-16	7.902243E-18
4.830000E+03	4.049500E-16	7.920296E-18
4.840000E+03	4.063147E-16	7.936706E-18
4.850000E+03	4.076060E-16	7.951633E-18
4.860000E+03	4.088010E-16	7.964630E-18
4.870000E+03	4.099039E-16	7.975789E-18
4.880000E+03	4.109019E-16	7.984872E-18
4.890000E+03	4.117668E-16	7.991335E-18
4.900000E+03	4.124971E-16	7.995162E-18
4.910000E+03	4.130767E-16	7.996052E-18
4.920000E+03	4.134753E-16	7.993430E-18
4.930000E+03	4.136927E-16	7.987307E-18
4.940000E+03	4.137169E-16	7.977467E-18
4.950000E+03	4.135253E-16	7.963484E-18
4.960000E+03	4.131274E-16	7.945564E-18
4.970000E+03	4.125088E-16	7.923443E-18
4.980000E+03	4.116882E-16	7.897495E-18
4.990000E+03	4.106735E-16	7.867888E-18
5.000000E+03	4.094764E-16	7.834863E-18
5.010000E+03	4.080978E-16	7.798448E-18
5.020000E+03	4.065554E-16	7.758998E-18
5.030000E+03	4.048967E-16	7.717425E-18
5.040000E+03	4.031149E-16	7.673614E-18
5.050000E+03	4.012319E-16	7.627986E-18
5.060000E+03	3.992962E-16	7.581474E-18
5.070000E+03	3.973019E-16	7.533967E-18
5.080000E+03	3.952692E-16	7.485854E-18
5.090000E+03	3.932435E-16	7.437995E-18
5.100000E+03	3.912157E-16	7.390220E-18
5.110000E+03	3.892024E-16	7.342840E-18
5.120000E+03	3.872444E-16	7.296626E-18
5.130000E+03	3.853300E-16	7.251354E-18
5.140000E+03	3.834866E-16	7.207533E-18
5.150000E+03	3.817162E-16	7.165199E-18
5.160000E+03	3.800593E-16	7.125104E-18
5.170000E+03	3.785071E-16	7.087077E-18
5.180000E+03	3.770893E-16	7.051666E-18
5.190000E+03	3.758108E-16	7.018954E-18
5.200000E+03	3.747010E-16	6.989481E-18
5.210000E+03	3.737758E-16	6.963529E-18
5.220000E+03	3.730484E-16	6.941335E-18
5.230000E+03	3.725286E-16	6.923063E-18
5.240000E+03	3.722093E-16	6.908574E-18
5.250000E+03	3.721027E-16	6.898078E-18
5.260000E+03	3.722034E-16	6.891460E-18
5.270000E+03	3.725008E-16	6.888511E-18
5.280000E+03	3.729671E-16	6.888708E-18
5.290000E+03	3.736074E-16	6.892132E-18
5.300000E+03	3.743753E-16	6.897919E-18
5.310000E+03	3.752591E-16	6.905846E-18
5.320000E+03	3.762336E-16	6.915443E-18
5.330000E+03	3.772733E-16	6.926237E-18
5.340000E+03	3.783409E-16	6.937542E-18
5.350000E+03	3.794364E-16	6.949358E-18
5.360000E+03	3.805125E-16	6.960818E-18
5.370000E+03	3.815596E-16	6.971750E-18
5.380000E+03	3.825578E-16	6.981796E-18
5.390000E+03	3.834890E-16	6.990628E-18
5.400000E+03	3.843369E-16	6.997957E-18
5.410000E+03	3.850871E-16	7.003527E-18
5.420000E+03	3.857152E-16	7.006904E-18
5.430000E+03	3.862359E-16	7.008360E-18
5.440000E+03	3.866289E-16	7.007540E-18
5.450000E+03	3.868762E-16	7.004125E-18
5.460000E+03	3.869986E-16	6.998502E-18
5.470000E+03	3.869696E-16	6.990199E-18
5.480000E+03	3.868130E-16	6.979658E-18
5.490000E+03	3.865043E-16	6.966444E-18
5.500000E+03	3.860669E-16	6.950985E-18
5.510000E+03	3.854698E-16	6.932731E-18
5.520000E+03	3.847304E-16	6.912008E-18
5.530000E+03	3.838306E-16	6.888494E-18
5.540000E+03	3.827539E-16	6.861903E-18
5.550000E+03	3.815217E-16	6.832628E-18
5.560000E+03	3.801206E-16	6.800439E-18
5.570000E+03	3.785510E-16	6.765350E-18
5.580000E+03	3.768145E-16	6.727401E-18
5.590000E+03	3.749140E-16	6.686647E-18
5.600000E+03	3.728531E-16	6.643165E-18
5.610000E+03	3.706366E-16	6.597047E-18
5.620000E+03	3.682823E-16	6.548618E-18
5.630000E+03	3.657744E-16	6.497600E-18
5.640000E+03	3.631461E-16	6.444592E-18
5.650000E+03	3.603976E-16	6.389603E-18
5.660000E+03	3.575440E-16	6.332904E-18
5.670000E+03	3.546027E-16	6.274809E-18
5.680000E+03	3.516049E-16	6.215871E-18
5.690000E+03	3.485499E-16	6.156079E-18
5.700000E+03	3.454822E-16	6.096223E-18
5.710000E+03	3.424134E-16	6.036504E-18
5.720000E+03	3.393752E-16	5.977480E-18
5.730000E+03	3.363651E-16	5.919104E-18
5.740000E+03	3.334207E-16	5.862034E-18
5.750000E+03	3.305543E-16	5.806483E-18
5.760000E+03	3.277545E-16	5.752248E-18
5.770000E+03	3.250486E-16	5.699799E-18
5.780000E+03	3.224305E-16	5.649027E-18
5.790000E+03	3.199127E-16	5.600146E-18
5.800000E+03	3.174866E-16	5.552999E-18
5.810000E+03	3.151536E-16	5.507605E-18
5.820000E+03	3.129155E-16	5.463992E-18
5.830000E+03	3.107843E-16	5.422366E-18
5.840000E+03	3.087629E-16	5.382768E-18
5.850000E+03	3.068354E-16	5.344920E-18
5.860000E+03	3.050355E-16	5.309403E-18
5.870000E+03	3.033392E-16	5.275792E-18
5.880000E+03	3.017711E-16	5.244513E-18
5.890000E+03	3.003276E-16	5.215496E-18
5.900000E+03	2.990236E-16	5.188995E-18
5.910000E+03	2.978644E-16	5.165097E-18
5.920000E+03	2.968352E-16	5.143538E-18
5.930000E+03	2.959672E-16	5.124857E-18
5.940000E+03	2.952331E-16	5.108572E-18
5.950000E+03	2.946596E-16	5.095143E-18
5.960000E+03	2.942137E-16	5.083993E-18
5.970000E+03	2.939157E-16	5.075467E-18
5.980000E+03	2.937352E-16	5.069040E-18
5.990000E+03	2.936574E-16	5.064449E-18
6.000000E+03	2.936744E-16	5.061557E-18
6.010000E+03	2.937575E-16	5.059870E-18
6.020000E+03	2.938962E-16	5.059203E-18
6.030000E+03	2.940706E-16	5.059212E-18
6.040000E+03	2.942521E-16	5.059408E-18
6.050000E+03	2.944327E-16	5.059652E-18
6.060000E+03	2.945871E-16	5.059512E-18
6.070000E+03	2.947118E-16	5.058930E-18
6.080000E+03	2.947870E-16	5.057566E-18
6.090000E+03	2.948238E-16	5.055615E-18
6.100000E+03	2.947887E-16	5.052502E-18
6.110000E+03	2.947073E-16	5.048672E-18
6.120000E+03	2.945599E-16	5.043788E-18
6.130000E+03	2.943566E-16	5.038026E-18
6.140000E+03	2.940902E-16	5.031264E-18
6.150000E+03	2.937732E-16	5.023718E-18
6.160000E+03	2.934094E-16	5.015455E-18
6.170000E+03	2.929938E-16	5.006393E-18
6.180000E+03	2.925506E-16	4.996945E-18
6.190000E+03	2.920565E-16	4.986715E-18
6.200000E+03	2.915457E-16	4.976289E-18
6.210000E+03	2.910050E-16	4.965443E-18
6.220000E+03	2.904498E-16	4.954440E-18
6.230000E+03	2.898864E-16	4.943389E-18
6.240000E+03	2.893208E-16	4.932391E-18
6.250000E+03	2.887500E-16	4.921400E-18
6.260000E+03	2.881904E-16	4.910692E-18
6.270000E+03	2.876497E-16	4.900401E-18
6.280000E+03	2.871263E-16	4.890499E-18
6.290000E+03	2.866482E-16	4.881464E-18
6.300000E+03	2.862059E-16	4.873134E-18
6.310000E+03	2.858194E-16	4.865851E-18
6.320000E+03	2.854996E-16	4.859800E-18
6.330000E+03	2.852487E-16	4.855021E-18
6.340000E+03	2.850980E-16	4.852044E-18
6.350000E+03	2.850413E-16	4.850766E-18
6.360000E+03	2.851017E-16	4.851582E-18
6.370000E+03	2.852937E-16	4.854738E-18
6.380000E+03	2.856332E-16	4.860505E-18
6.390000E+03	2.861372E-16	4.869179E-18
6.400000E+03	2.868247E-16	4.881080E-18
6.410000E+03	2.877070E-16	4.896404E-18
6.420000E+03	2.888261E-16	4.915870E-18
6.430000E+03	2.901873E-16	4.939571E-18
6.440000E+03	2.918263E-16	4.968120E-18
6.450000E+03	2.937802E-16	5.002152E-18
6.460000E+03	2.960566E-16	5.041805E-18
6.470000E+03	2.986927E-16	5.087717E-18
6.480000E+03	3.017143E-16	5.140336E-18
6.490000E+03	3.051449E-16	5.200075E-18
6.500000E+03	3.090049E-16	5.267286E-18
6.510000E+03	3.133104E-16	5.342253E-18
6.520000E+03	3.180709E-16	5.425150E-18
6.530000E+03	3.232891E-16	5.516032E-18
6.540000E+03	3.289541E-16	5.614727E-18
6.550000E+03	3.350392E-16	5.720793E-18
6.560000E+03	3.415051E-16	5.833567E-18
6.570000E+03	3.482997E-16	5.952177E-18
6.580000E+03	3.553574E-16	6.075510E-18
6.590000E+03	3.625990E-16	6.202227E-18
6.600000E+03	3.699329E-16	6.330767E-18
6.610000E+03	3.772682E-16	6.459583E-18
6.620000E+03	3.844671E-16	6.586318E-18
6.630000E+03	3.914230E-16	6.709150E-18
6.640000E+03	3.980279E-16	6.826220E-18
6.650000E+03	4.041338E-16	6.934985E-18
6.660000E+03	4.096531E-16	7.033930E-18
6.670000E+03	4.144675E-16	7.121005E-18
6.680000E+03	4.184861E-16	7.194628E-18
6.690000E+03	4.216350E-16	7.253505E-18
6.700000E+03	4.238592E-16	7.296656E-18
6.710000E+03	4.251230E-16	7.323437E-18
6.720000E+03	4.254257E-16	7.333800E-18
6.730000E+03	4.247432E-16	7.327292E-18
6.740000E+03	4.231308E-16	7.304827E-18
6.750000E+03	4.206189E-16	7.266895E-18
6.760000E+03	4.172701E-16	7.214536E-18
6.770000E+03	4.131623E-16	7.149061E-18
6.780000E+03	4.083833E-16	7.071956E-18
6.790000E+03	4.030417E-16	6.985068E-18
6.800000E+03	3.972052E-16	6.889544E-18
6.810000E+03	3.909963E-16	6.787480E-18
6.820000E+03	3.844911E-16	6.680179E-18
6.830000E+03	3.777738E-16	6.569086E-18
6.840000E+03	3.709348E-16	6.455757E-18
6.850000E+03	3.640172E-16	6.340931E-18
6.860000E+03	3.571087E-16	6.226128E-18
6.870000E+03	3.502506E-16	6.112063E-18
6.880000E+03	3.434897E-16	5.999549E-18
6.890000E+03	3.368660E-16	5.889286E-18
6.900000E+03	3.304129E-16	5.781857E-18
6.910000E+03	3.241691E-16	5.677947E-18
6.920000E+03	3.181445E-16	5.577732E-18
6.930000E+03	3.123442E-16	5.481310E-18
6.940000E+03	3.068138E-16	5.389487E-18
6.950000E+03	3.015279E-16	5.301826E-18
6.960000E+03	2.965021E-16	5.218612E-18
6.970000E+03	2.917485E-16	5.140067E-18
6.980000E+03	2.872455E-16	5.065820E-18
6.990000E+03	2.830111E-16	4.996201E-18
7.000000E+03	2.790307E-16	4.930963E-18
7.010000E+03	2.752992E-16	4.870023E-18
7.020000E+03	2.718195E-16	4.813450E-18
7.030000E+03	2.685651E-16	4.760778E-18
7.040000E+03	2.655471E-16	4.712220E-18
7.050000E+03	2.627380E-16	4.667296E-18
7.060000E+03	2.601478E-16	4.626194E-18
7.070000E+03	2.577574E-16	4.588583E-18
7.080000E+03	2.555570E-16	4.554302E-18
7.090000E+03	2.535366E-16	4.523177E-18
7.100000E+03	2.516857E-16	4.495034E-18
7.110000E+03	2.500029E-16	4.469854E-18
7.120000E+03	2.484597E-16	4.447133E-18
7.130000E+03	2.470544E-16	4.426852E-18
7.140000E+03	2.457856E-16	4.408991E-18
7.150000E+03	2.446254E-16	4.393056E-18
7.160000E+03	2.435816E-16	4.379193E-18
7.170000E+03	2.426362E-16	4.367083E-18
7.180000E+03	2.417712E-16	4.356408E-18
7.190000E+03	2.409962E-16	4.347344E-18
7.200000E+03	2.402859E-16	4.339440E-18
7.210000E+03	2.396510E-16	4.332892E-18
7.220000E+03	2.390764E-16	4.327432E-18
7.230000E+03	2.385479E-16	4.322804E-18
7.240000E+03	2.380783E-16	4.319242E-18
7.250000E+03	2.376457E-16	4.316354E-18
7.260000E+03	2.372552E-16	4.314233E-18
7.270000E+03	2.369122E-16	4.312977E-18
7.280000E+03	2.365960E-16	4.312216E-18
7.290000E+03	2.363124E-16	4.312053E-18
7.300000E+03	2.360582E-16	4.312433E-18
7.310000E+03	2.358303E-16	4.313301E-18
7.320000E+03	2.356254E-16	4.314599E-18
7.330000E+03	2.354401E-16	4.316261E-18
7.340000E+03	2.352617E-16	4.318060E-18
7.350000E+03	2.351040E-16	4.320246E-18
7.360000E+03	2.349455E-16	4.322427E-18
7.370000E+03	2.347910E-16	4.324689E-18
7.380000E+03	2.346365E-16	4.326959E-18
7.390000E+03	2.344780E-16	4.329166E-18
7.400000E+03	2.343033E-16	4.331079E-18
7.410000E+03	2.341173E-16	4.332790E-18
7.420000E+03	2.339169E-16	4.334240E-18
7.430000E+03	2.336990E-16	4.335369E-18
7.440000E+03	2.334608E-16	4.336127E-18
7.450000E+03	2.331913E-16	4.336304E-18
7.460000E+03	2.328970E-16	4.336022E-18
7.470000E+03	2.325763E-16	4.335249E-18
7.480000E+03	2.322192E-16	4.333794E-18
7.490000E+03	2.318334E-16	4.331798E-18
7.500000E+03	2.314185E-16	4.329255E-18
7.510000E+03	2.309742E-16	4.326155E-18
7.520000E+03	2.304924E-16	4.322346E-18
7.530000E+03	2.299825E-16	4.317998E-18
7.540000E+03	2.294368E-16	4.312966E-18
7.550000E+03	2.288655E-16	4.307441E-18
7.560000E+03	2.282704E-16	4.301453E-18
7.570000E+03	2.276534E-16	4.295038E-18
7.580000E+03	2.270080E-16	4.288071E-18
7.590000E+03	2.263450E-16	4.280753E-18
7.600000E+03	2.256582E-16	4.272966E-18
7.610000E+03	2.249588E-16	4.264919E-18
7.620000E+03	2.242402E-16	4.256490E-18
7.630000E+03	2.235137E-16	4.247889E-18
7.640000E+03	2.227817E-16	4.239161E-18
7.650000E+03	2.220382E-16	4.230194E-18
7.660000E+03	2.212947E-16	4.221204E-18
7.670000E+03	2.205454E-16	4.212081E-18
7.680000E+03	2.198019E-16	4.203046E-18
7.690000E+03	2.190676E-16	4.194165E-18
7.700000E+03	2.183375E-16	4.185342E-18
7.710000E+03	2.176154E-16	4.176653E-18
7.720000E+03	2.169136E-16	4.168330E-18
7.730000E+03	2.162361E-16	4.160456E-18
7.740000E+03	2.155787E-16	4.152950E-18
7.750000E+03	2.149537E-16	4.146052E-18
7.760000E+03	2.143569E-16	4.139680E-18
