#wls	flux	fluxerr
1.600000E+03	1.122845E-16	4.746028E-18
1.640000E+03	1.148348E-16	4.844851E-18
1.680000E+03	1.174309E-16	4.944952E-18
1.720000E+03	1.201106E-16	5.047891E-18
1.760000E+03	1.228515E-16	5.152683E-18
1.800000E+03	1.256500E-16	5.259141E-18
1.840000E+03	1.285025E-16	5.367071E-18
1.880000E+03	1.314046E-16	5.476247E-18
1.920000E+03	1.343735E-16	5.587349E-18
1.960000E+03	1.374046E-16	5.700130E-18
2.000000E+03	1.404920E-16	5.814308E-18
2.040000E+03	1.436529E-16	5.930539E-18
2.080000E+03	1.468331E-16	6.046541E-18
2.120000E+03	1.500717E-16	6.163876E-18
2.160000E+03	1.533602E-16	6.282147E-18
2.200000E+03	1.566891E-16	6.400913E-18
2.240000E+03	1.600478E-16	6.519690E-18
2.280000E+03	1.634242E-16	6.637944E-18
2.320000E+03	1.668565E-16	6.757170E-18
2.360000E+03	1.703058E-16	6.875741E-18
2.400000E+03	1.737570E-16	6.993003E-18
2.440000E+03	1.772196E-16	7.109297E-18
2.480000E+03	1.806764E-16	7.223881E-18
2.520000E+03	1.841083E-16	7.335962E-18
2.560000E+03	1.875481E-16	7.446801E-18
2.600000E+03	1.909479E-16	7.554459E-18
2.640000E+03	1.943377E-16	7.660094E-18
2.680000E+03	1.976403E-16	7.760627E-18
2.720000E+03	2.009091E-16	7.858142E-18
2.760000E+03	2.040906E-16	7.950529E-18
2.800000E+03	2.072085E-16	8.038704E-18
2.840000E+03	2.102330E-16	8.121497E-18
2.880000E+03	2.131326E-16	8.197700E-18
2.920000E+03	2.159012E-16	8.267099E-18
2.960000E+03	2.185561E-16	8.330377E-18
3.000000E+03	2.210625E-16	8.386237E-18
3.010000E+03	2.216634E-16	8.398952E-18
3.020000E+03	2.222554E-16	8.411220E-18
3.030000E+03	2.228379E-16	8.423023E-18
3.040000E+03	2.234104E-16	8.434336E-18
3.050000E+03	2.239723E-16	8.445143E-18
3.060000E+03	2.245230E-16	8.455420E-18
3.070000E+03	2.250620E-16	8.465152E-18
3.080000E+03	2.255888E-16	8.474317E-18
3.090000E+03	2.261029E-16	8.482898E-18
3.100000E+03	2.266038E-16	8.490880E-18
3.110000E+03	2.270909E-16	8.498241E-18
3.120000E+03	2.275637E-16	8.504963E-18
3.130000E+03	2.280453E-16	8.511908E-18
3.140000E+03	2.284881E-16	8.517306E-18
3.150000E+03	2.289386E-16	8.522885E-18
3.160000E+03	2.293729E-16	8.527765E-18
3.170000E+03	2.297906E-16	8.531923E-18
3.180000E+03	2.301915E-16	8.535360E-18
3.190000E+03	2.305980E-16	8.538901E-18
3.200000E+03	2.309868E-16	8.541691E-18
3.210000E+03	2.313580E-16	8.543733E-18
3.220000E+03	2.317114E-16	8.545021E-18
3.230000E+03	2.320690E-16	8.546367E-18
3.240000E+03	2.324088E-16	8.546961E-18
3.250000E+03	2.327308E-16	8.546807E-18
3.260000E+03	2.330570E-16	8.546711E-18
3.270000E+03	2.333659E-16	8.545889E-18
3.280000E+03	2.336580E-16	8.544362E-18
3.290000E+03	2.339553E-16	8.542930E-18
3.300000E+03	2.342369E-16	8.540833E-18
3.310000E+03	2.345247E-16	8.538868E-18
3.320000E+03	2.347983E-16	8.536298E-18
3.330000E+03	2.350795E-16	8.533913E-18
3.340000E+03	2.353487E-16	8.530999E-18
3.350000E+03	2.356273E-16	8.528333E-18
3.360000E+03	2.358962E-16	8.525225E-18
3.370000E+03	2.361767E-16	8.522443E-18
3.380000E+03	2.364699E-16	8.520028E-18
3.390000E+03	2.367575E-16	8.517314E-18
3.400000E+03	2.370605E-16	8.515057E-18
3.410000E+03	2.373608E-16	8.512607E-18
3.420000E+03	2.376793E-16	8.510714E-18
3.430000E+03	2.380175E-16	8.509425E-18
3.440000E+03	2.383767E-16	8.508782E-18
3.450000E+03	2.387397E-16	8.508172E-18
3.460000E+03	2.391270E-16	8.508321E-18
3.470000E+03	2.395402E-16	8.509279E-18
3.480000E+03	2.399807E-16	8.511097E-18
3.490000E+03	2.404322E-16	8.513188E-18
3.500000E+03	2.409147E-16	8.516258E-18
3.510000E+03	2.414480E-16	8.520996E-18
3.520000E+03	2.419978E-16	8.526194E-18
3.530000E+03	2.425842E-16	8.532545E-18
3.540000E+03	2.432089E-16	8.540107E-18
3.550000E+03	2.438566E-16	8.548338E-18
3.560000E+03	2.445642E-16	8.558521E-18
3.570000E+03	2.453161E-16	8.570100E-18
3.580000E+03	2.461144E-16	8.583140E-18
3.590000E+03	2.469610E-16	8.597702E-18
3.600000E+03	2.478582E-16	8.613848E-18
3.610000E+03	2.488076E-16	8.631634E-18
3.620000E+03	2.498114E-16	8.651119E-18
3.630000E+03	2.508716E-16	8.672360E-18
3.640000E+03	2.519900E-16	8.695413E-18
3.650000E+03	2.531683E-16	8.720323E-18
3.660000E+03	2.544246E-16	8.747701E-18
3.670000E+03	2.557282E-16	8.776473E-18
3.680000E+03	2.571130E-16	8.807798E-18
3.690000E+03	2.585643E-16	8.841151E-18
3.700000E+03	2.600836E-16	8.876570E-18
3.710000E+03	2.616881E-16	8.914631E-18
3.720000E+03	2.633472E-16	8.954272E-18
3.730000E+03	2.650936E-16	8.996595E-18
3.740000E+03	2.669123E-16	9.041068E-18
3.750000E+03	2.688040E-16	9.087704E-18
3.760000E+03	2.707691E-16	9.136497E-18
3.770000E+03	2.728232E-16	9.187963E-18
3.780000E+03	2.749506E-16	9.241550E-18
3.790000E+03	2.771509E-16	9.297228E-18
3.800000E+03	2.794386E-16	9.355468E-18
3.810000E+03	2.817816E-16	9.415182E-18
3.820000E+03	2.842094E-16	9.477334E-18
3.830000E+03	2.867198E-16	9.541837E-18
3.840000E+03	2.892800E-16	9.607584E-18
3.850000E+03	2.919180E-16	9.675489E-18
3.860000E+03	2.946156E-16	9.744931E-18
3.870000E+03	2.973695E-16	9.815789E-18
3.880000E+03	3.001762E-16	9.887935E-18
3.890000E+03	3.030470E-16	9.961728E-18
3.900000E+03	3.059475E-16	1.003602E-17
3.910000E+03	3.089037E-16	1.011166E-17
3.920000E+03	3.118957E-16	1.018798E-17
3.930000E+03	3.149338E-16	1.026531E-17
3.940000E+03	3.179828E-16	1.034249E-17
3.950000E+03	3.210524E-16	1.041983E-17
3.960000E+03	3.241524E-16	1.049765E-17
3.970000E+03	3.272618E-16	1.057526E-17
3.980000E+03	3.303598E-16	1.065197E-17
3.990000E+03	3.334705E-16	1.072857E-17
4.000000E+03	3.365578E-16	1.080390E-17
4.010000E+03	3.396452E-16	1.087871E-17
4.020000E+03	3.426966E-16	1.095184E-17
4.030000E+03	3.457205E-16	1.102357E-17
4.040000E+03	3.487105E-16	1.109371E-17
4.050000E+03	3.516604E-16	1.116206E-17
4.060000E+03	3.545638E-16	1.122842E-17
4.070000E+03	3.573999E-16	1.129215E-17
4.080000E+03	3.601629E-16	1.135308E-17
4.090000E+03	3.628767E-16	1.141197E-17
4.100000E+03	3.655065E-16	1.146775E-17
4.110000E+03	3.680475E-16	1.152027E-17
4.120000E+03	3.705099E-16	1.156988E-17
4.130000E+03	3.728749E-16	1.161601E-17
4.140000E+03	3.751392E-16	1.165857E-17
4.150000E+03	3.773140E-16	1.169794E-17
4.160000E+03	3.793679E-16	1.173316E-17
4.170000E+03	3.813277E-16	1.176509E-17
4.180000E+03	3.831778E-16	1.179326E-17
4.190000E+03	3.849029E-16	1.181724E-17
4.200000E+03	3.865314E-16	1.183792E-17
4.210000E+03	3.880353E-16	1.185446E-17
4.220000E+03	3.894298E-16	1.186736E-17
4.230000E+03	3.907165E-16	1.187669E-17
4.240000E+03	3.918841E-16	1.188214E-17
4.250000E+03	3.929493E-16	1.188423E-17
4.260000E+03	3.939021E-16	1.188269E-17
4.270000E+03	3.947470E-16	1.187769E-17
4.280000E+03	3.954889E-16	1.186938E-17
4.290000E+03	3.961467E-16	1.185837E-17
4.300000E+03	3.967128E-16	1.184445E-17
4.310000E+03	3.971804E-16	1.182744E-17
4.320000E+03	3.975826E-16	1.180834E-17
4.330000E+03	3.979002E-16	1.178660E-17
4.340000E+03	3.981535E-16	1.176285E-17
4.350000E+03	3.983370E-16	1.173693E-17
4.360000E+03	3.984711E-16	1.170947E-17
4.370000E+03	3.985635E-16	1.168070E-17
4.380000E+03	3.985970E-16	1.165013E-17
4.390000E+03	3.986049E-16	1.161876E-17
4.400000E+03	3.985844E-16	1.158649E-17
4.410000E+03	3.985467E-16	1.155367E-17
4.420000E+03	3.985026E-16	1.152062E-17
4.430000E+03	3.984636E-16	1.148766E-17
4.440000E+03	3.984405E-16	1.145511E-17
4.450000E+03	3.984441E-16	1.142328E-17
4.460000E+03	3.984733E-16	1.139212E-17
4.470000E+03	3.985386E-16	1.136194E-17
4.480000E+03	3.986611E-16	1.133332E-17
4.490000E+03	3.988502E-16	1.130652E-17
4.500000E+03	3.991031E-16	1.128144E-17
4.510000E+03	3.994283E-16	1.125831E-17
4.520000E+03	3.998331E-16	1.123731E-17
4.530000E+03	4.003244E-16	1.121862E-17
4.540000E+03	4.009192E-16	1.120270E-17
4.550000E+03	4.016006E-16	1.118905E-17
4.560000E+03	4.023837E-16	1.117807E-17
4.570000E+03	4.032717E-16	1.116982E-17
4.580000E+03	4.042664E-16	1.116433E-17
4.590000E+03	4.053687E-16	1.116160E-17
4.600000E+03	4.065673E-16	1.116129E-17
4.610000E+03	4.078712E-16	1.116362E-17
4.620000E+03	4.092670E-16	1.116821E-17
4.630000E+03	4.107610E-16	1.117521E-17
4.640000E+03	4.123478E-16	1.118443E-17
4.650000E+03	4.140101E-16	1.119541E-17
4.660000E+03	4.157402E-16	1.120791E-17
4.670000E+03	4.175405E-16	1.122197E-17
4.680000E+03	4.193908E-16	1.123704E-17
4.690000E+03	4.212813E-16	1.125286E-17
4.700000E+03	4.232124E-16	1.126942E-17
4.710000E+03	4.251628E-16	1.128614E-17
4.720000E+03	4.271216E-16	1.130274E-17
4.730000E+03	4.290783E-16	1.131893E-17
4.740000E+03	4.310328E-16	1.133472E-17
4.750000E+03	4.329641E-16	1.134956E-17
4.760000E+03	4.348619E-16	1.136319E-17
4.770000E+03	4.367164E-16	1.137536E-17
4.780000E+03	4.385285E-16	1.138612E-17
4.790000E+03	4.402676E-16	1.139467E-17
4.800000E+03	4.419455E-16	1.140135E-17
4.810000E+03	4.435426E-16	1.140566E-17
4.820000E+03	4.450496E-16	1.140740E-17
4.830000E+03	4.464679E-16	1.140662E-17
4.840000E+03	4.477671E-16	1.140258E-17
4.850000E+03	4.489588E-16	1.139560E-17
4.860000E+03	4.500230E-16	1.138520E-17
4.870000E+03	4.509502E-16	1.137119E-17
4.880000E+03	4.517414E-16	1.135362E-17
4.890000E+03	4.523665E-16	1.133177E-17
4.900000E+03	4.528376E-16	1.130600E-17
4.910000E+03	4.531468E-16	1.127615E-17
4.920000E+03	4.532662E-16	1.124157E-17
4.930000E+03	4.532112E-16	1.120269E-17
4.940000E+03	4.529669E-16	1.115919E-17
4.950000E+03	4.525418E-16	1.111134E-17
4.960000E+03	4.519250E-16	1.105890E-17
4.970000E+03	4.511184E-16	1.100199E-17
4.980000E+03	4.501365E-16	1.094100E-17
4.990000E+03	4.489853E-16	1.087612E-17
5.000000E+03	4.476528E-16	1.080711E-17
5.010000E+03	4.461795E-16	1.073500E-17
5.020000E+03	4.445471E-16	1.065938E-17
5.030000E+03	4.427991E-16	1.058133E-17
5.040000E+03	4.409202E-16	1.050053E-17
5.050000E+03	4.389557E-16	1.041808E-17
5.060000E+03	4.369017E-16	1.033392E-17
5.070000E+03	4.347850E-16	1.024869E-17
5.080000E+03	4.326123E-16	1.016258E-17
5.090000E+03	4.304101E-16	1.007623E-17
5.100000E+03	4.281856E-16	9.989813E-18
5.110000E+03	4.259736E-16	9.904145E-18
5.120000E+03	4.237714E-16	9.819163E-18
5.130000E+03	4.216035E-16	9.735437E-18
5.140000E+03	4.194755E-16	9.653090E-18
5.150000E+03	4.174107E-16	9.572650E-18
5.160000E+03	4.154313E-16	9.494611E-18
5.170000E+03	4.135227E-16	9.418625E-18
5.180000E+03	4.117231E-16	9.345545E-18
5.190000E+03	4.100337E-16	9.275378E-18
5.200000E+03	4.084540E-16	9.208090E-18
5.210000E+03	4.070001E-16	9.144018E-18
5.220000E+03	4.056767E-16	9.083247E-18
5.230000E+03	4.044871E-16	9.025819E-18
5.240000E+03	4.034320E-16	8.971727E-18
5.250000E+03	4.025099E-16	8.920910E-18
5.260000E+03	4.017087E-16	8.873076E-18
5.270000E+03	4.010396E-16	8.828448E-18
5.280000E+03	4.004862E-16	8.786643E-18
5.290000E+03	4.000303E-16	8.747240E-18
5.300000E+03	3.996693E-16	8.710168E-18
5.310000E+03	3.993991E-16	8.675320E-18
5.320000E+03	3.991894E-16	8.642029E-18
5.330000E+03	3.990348E-16	8.610170E-18
5.340000E+03	3.989212E-16	8.579432E-18
5.350000E+03	3.988428E-16	8.549691E-18
5.360000E+03	3.987695E-16	8.520299E-18
5.370000E+03	3.986967E-16	8.491164E-18
5.380000E+03	3.986208E-16	8.462218E-18
5.390000E+03	3.985146E-16	8.432889E-18
5.400000E+03	3.983770E-16	8.403167E-18
5.410000E+03	3.982088E-16	8.373082E-18
5.420000E+03	3.979869E-16	8.342163E-18
5.430000E+03	3.977236E-16	8.310682E-18
5.440000E+03	3.974080E-16	8.278424E-18
5.450000E+03	3.970303E-16	8.245204E-18
5.460000E+03	3.966075E-16	8.211392E-18
5.470000E+03	3.961325E-16	8.176850E-18
5.480000E+03	3.956152E-16	8.141792E-18
5.490000E+03	3.950404E-16	8.105906E-18
5.500000E+03	3.944231E-16	8.069508E-18
5.510000E+03	3.937472E-16	8.032270E-18
5.520000E+03	3.930030E-16	7.994007E-18
5.530000E+03	3.921808E-16	7.954524E-18
5.540000E+03	3.912795E-16	7.913813E-18
5.550000E+03	3.902830E-16	7.871554E-18
5.560000E+03	3.891846E-16	7.827628E-18
5.570000E+03	3.879874E-16	7.782106E-18
5.580000E+03	3.866799E-16	7.734771E-18
5.590000E+03	3.852604E-16	7.685604E-18
5.600000E+03	3.837371E-16	7.634778E-18
5.610000E+03	3.821035E-16	7.582177E-18
5.620000E+03	3.803712E-16	7.528042E-18
5.630000E+03	3.785371E-16	7.472323E-18
5.640000E+03	3.766156E-16	7.415313E-18
5.650000E+03	3.746147E-16	7.357176E-18
5.660000E+03	3.725356E-16	7.297943E-18
5.670000E+03	3.703887E-16	7.237823E-18
5.680000E+03	3.681931E-16	7.177191E-18
5.690000E+03	3.659603E-16	7.116275E-18
5.700000E+03	3.637025E-16	7.055309E-18
5.710000E+03	3.614241E-16	6.994378E-18
5.720000E+03	3.591450E-16	6.933860E-18
5.730000E+03	3.568765E-16	6.873972E-18
5.740000E+03	3.546297E-16	6.814917E-18
5.750000E+03	3.524071E-16	6.756740E-18
5.760000E+03	3.502259E-16	6.699755E-18
5.770000E+03	3.481016E-16	6.644255E-18
5.780000E+03	3.460272E-16	6.590089E-18
5.790000E+03	3.440169E-16	6.537521E-18
5.800000E+03	3.420769E-16	6.486653E-18
5.810000E+03	3.402127E-16	6.437579E-18
5.820000E+03	3.384291E-16	6.390376E-18
5.830000E+03	3.367307E-16	6.345119E-18
5.840000E+03	3.351218E-16	6.301874E-18
5.850000E+03	3.336060E-16	6.260698E-18
5.860000E+03	3.321870E-16	6.221645E-18
5.870000E+03	3.308676E-16	6.184755E-18
5.880000E+03	3.296505E-16	6.150068E-18
5.890000E+03	3.285448E-16	6.117736E-18
5.900000E+03	3.275446E-16	6.087640E-18
5.910000E+03	3.266437E-16	6.059651E-18
5.920000E+03	3.258557E-16	6.034010E-18
5.930000E+03	3.251790E-16	6.010678E-18
5.940000E+03	3.245970E-16	5.989336E-18
5.950000E+03	3.241201E-16	5.970165E-18
5.960000E+03	3.237289E-16	5.952801E-18
5.970000E+03	3.234381E-16	5.937505E-18
5.980000E+03	3.232190E-16	5.923744E-18
5.990000E+03	3.230701E-16	5.911486E-18
6.000000E+03	3.229886E-16	5.900672E-18
6.010000E+03	3.229643E-16	5.891115E-18
6.020000E+03	3.229725E-16	5.882363E-18
6.030000E+03	3.230164E-16	5.874472E-18
6.040000E+03	3.230783E-16	5.867121E-18
6.050000E+03	3.231478E-16	5.860121E-18
6.060000E+03	3.232223E-16	5.853431E-18
6.070000E+03	3.232861E-16	5.846764E-18
6.080000E+03	3.233312E-16	5.839983E-18
6.090000E+03	3.233581E-16	5.833102E-18
6.100000E+03	3.233544E-16	5.825900E-18
6.110000E+03	3.233230E-16	5.818435E-18
6.120000E+03	3.232471E-16	5.810410E-18
6.130000E+03	3.231460E-16	5.802178E-18
6.140000E+03	3.229980E-16	5.793356E-18
6.150000E+03	3.228180E-16	5.784214E-18
6.160000E+03	3.226077E-16	5.774787E-18
6.170000E+03	3.223555E-16	5.764876E-18
6.180000E+03	3.220787E-16	5.754795E-18
6.190000E+03	3.217818E-16	5.744627E-18
6.200000E+03	3.214624E-16	5.734334E-18
6.210000E+03	3.211330E-16	5.724145E-18
6.220000E+03	3.207857E-16	5.713919E-18
6.230000E+03	3.204484E-16	5.704162E-18
6.240000E+03	3.201140E-16	5.694748E-18
6.250000E+03	3.197904E-16	5.685820E-18
6.260000E+03	3.194928E-16	5.677654E-18
6.270000E+03	3.192231E-16	5.670285E-18
6.280000E+03	3.189977E-16	5.664009E-18
6.290000E+03	3.188192E-16	5.658874E-18
6.300000E+03	3.187055E-16	5.655202E-18
6.310000E+03	3.186673E-16	5.653187E-18
6.320000E+03	3.187094E-16	5.652916E-18
6.330000E+03	3.188510E-16	5.654736E-18
6.340000E+03	3.190978E-16	5.658751E-18
6.350000E+03	3.194704E-16	5.665331E-18
6.360000E+03	3.199754E-16	5.674603E-18
6.370000E+03	3.206348E-16	5.686961E-18
6.380000E+03	3.214636E-16	5.702680E-18
6.390000E+03	3.224775E-16	5.722050E-18
6.400000E+03	3.236853E-16	5.745236E-18
6.410000E+03	3.251107E-16	5.772671E-18
6.420000E+03	3.267702E-16	5.804665E-18
6.430000E+03	3.286803E-16	5.841527E-18
6.440000E+03	3.308499E-16	5.883430E-18
6.450000E+03	3.333094E-16	5.930941E-18
6.460000E+03	3.360583E-16	5.984073E-18
6.470000E+03	3.391174E-16	6.043222E-18
6.480000E+03	3.424979E-16	6.108620E-18
6.490000E+03	3.462089E-16	6.180458E-18
6.500000E+03	3.502478E-16	6.258726E-18
6.510000E+03	3.546328E-16	6.343774E-18
6.520000E+03	3.593531E-16	6.435437E-18
6.530000E+03	3.644000E-16	6.533589E-18
6.540000E+03	3.697547E-16	6.637921E-18
6.550000E+03	3.753844E-16	6.747877E-18
6.560000E+03	3.812487E-16	6.862756E-18
6.570000E+03	3.872988E-16	6.981712E-18
6.580000E+03	3.934793E-16	7.103766E-18
6.590000E+03	3.997366E-16	7.227973E-18
6.600000E+03	4.059936E-16	7.352952E-18
6.610000E+03	4.121767E-16	7.477376E-18
6.620000E+03	4.182086E-16	7.599845E-18
6.630000E+03	4.240197E-16	7.719088E-18
6.640000E+03	4.295205E-16	7.833454E-18
6.650000E+03	4.346327E-16	7.941488E-18
6.660000E+03	4.392915E-16	8.041970E-18
6.670000E+03	4.434173E-16	8.133392E-18
6.680000E+03	4.469587E-16	8.214753E-18
6.690000E+03	4.498416E-16	8.284627E-18
6.700000E+03	4.520559E-16	8.342745E-18
6.710000E+03	4.535496E-16	8.388067E-18
6.720000E+03	4.543048E-16	8.420168E-18
6.730000E+03	4.543269E-16	8.439053E-18
6.740000E+03	4.536122E-16	8.444553E-18
6.750000E+03	4.521907E-16	8.437124E-18
6.760000E+03	4.500922E-16	8.417224E-18
6.770000E+03	4.473457E-16	8.385294E-18
6.780000E+03	4.440097E-16	8.342334E-18
6.790000E+03	4.401273E-16	8.289065E-18
6.800000E+03	4.357788E-16	8.226909E-18
6.810000E+03	4.309937E-16	8.156349E-18
6.820000E+03	4.258663E-16	8.079095E-18
6.830000E+03	4.204385E-16	7.995879E-18
6.840000E+03	4.147713E-16	7.907806E-18
6.850000E+03	4.089435E-16	7.816331E-18
6.860000E+03	4.029901E-16	7.722086E-18
6.870000E+03	3.969722E-16	7.626210E-18
6.880000E+03	3.909270E-16	7.529396E-18
6.890000E+03	3.849063E-16	7.432624E-18
6.900000E+03	3.789477E-16	7.336612E-18
6.910000E+03	3.730840E-16	7.241992E-18
6.920000E+03	3.673344E-16	7.149139E-18
6.930000E+03	3.617321E-16	7.058708E-18
6.940000E+03	3.562973E-16	6.971102E-18
6.950000E+03	3.510459E-16	6.886652E-18
6.960000E+03	3.459824E-16	6.805461E-18
6.970000E+03	3.411251E-16	6.727911E-18
6.980000E+03	3.364727E-16	6.653999E-18
6.990000E+03	3.320379E-16	6.584004E-18
7.000000E+03	3.278232E-16	6.517999E-18
7.010000E+03	3.238288E-16	6.456017E-18
7.020000E+03	3.200455E-16	6.397902E-18
7.030000E+03	3.164786E-16	6.343789E-18
7.040000E+03	3.131163E-16	6.293469E-18
7.050000E+03	3.099615E-16	6.247029E-18
7.060000E+03	3.070084E-16	6.204378E-18
7.070000E+03	3.042426E-16	6.165256E-18
7.080000E+03	3.016570E-16	6.129544E-18
7.090000E+03	2.992515E-16	6.097266E-18
7.100000E+03	2.970181E-16	6.068282E-18
7.110000E+03	2.949408E-16	6.042290E-18
7.120000E+03	2.930187E-16	6.019295E-18
7.130000E+03	2.912355E-16	5.998984E-18
7.140000E+03	2.895828E-16	5.981204E-18
7.150000E+03	2.880593E-16	5.965946E-18
7.160000E+03	2.866492E-16	5.952903E-18
7.170000E+03	2.853443E-16	5.941918E-18
7.180000E+03	2.841439E-16	5.932993E-18
7.190000E+03	2.830329E-16	5.925828E-18
7.200000E+03	2.820039E-16	5.920283E-18
7.210000E+03	2.810502E-16	5.916223E-18
7.220000E+03	2.801718E-16	5.913665E-18
7.230000E+03	2.793555E-16	5.912336E-18
7.240000E+03	2.785952E-16	5.912120E-18
7.250000E+03	2.778784E-16	5.912755E-18
7.260000E+03	2.772136E-16	5.914432E-18
7.270000E+03	2.765887E-16	5.916899E-18
7.280000E+03	2.760060E-16	5.920209E-18
7.290000E+03	2.754466E-16	5.923965E-18
7.300000E+03	2.749063E-16	5.928075E-18
7.310000E+03	2.743946E-16	5.932751E-18
7.320000E+03	2.739001E-16	5.937748E-18
7.330000E+03	2.734189E-16	5.942982E-18
7.340000E+03	2.729398E-16	5.948216E-18
7.350000E+03	2.724659E-16	5.953510E-18
7.360000E+03	2.719931E-16	5.958780E-18
7.370000E+03	2.715179E-16	5.963948E-18
7.380000E+03	2.710364E-16	5.968928E-18
7.390000E+03	2.705385E-16	5.973491E-18
7.400000E+03	2.700274E-16	5.977713E-18
7.410000E+03	2.694936E-16	5.981371E-18
7.420000E+03	2.689407E-16	5.984550E-18
7.430000E+03	2.683664E-16	5.987190E-18
7.440000E+03	2.677613E-16	5.989079E-18
7.450000E+03	2.671304E-16	5.990325E-18
7.460000E+03	2.664651E-16	5.990726E-18
7.470000E+03	2.657709E-16	5.990405E-18
7.480000E+03	2.650468E-16	5.989334E-18
7.490000E+03	2.642784E-16	5.987182E-18
7.500000E+03	2.634794E-16	5.984249E-18
7.510000E+03	2.626495E-16	5.980529E-18
7.520000E+03	2.617826E-16	5.975874E-18
7.530000E+03	2.608860E-16	5.970446E-18
7.540000E+03	2.599474E-16	5.963960E-18
7.550000E+03	2.589815E-16	5.956748E-18
7.560000E+03	2.579903E-16	5.948847E-18
7.570000E+03	2.569687E-16	5.940141E-18
7.580000E+03	2.559190E-16	5.930676E-18
7.590000E+03	2.548436E-16	5.920503E-18
7.600000E+03	2.537517E-16	5.909835E-18
7.610000E+03	2.526327E-16	5.898421E-18
7.620000E+03	2.515094E-16	5.886793E-18
7.630000E+03	2.503652E-16	5.874557E-18
7.640000E+03	2.492097E-16	5.861942E-18
7.650000E+03	2.480531E-16	5.849180E-18
7.660000E+03	2.468918E-16	5.836195E-18
7.670000E+03	2.457297E-16	5.823073E-18
7.680000E+03	2.445768E-16	5.810054E-18
7.690000E+03	2.434238E-16	5.796923E-18
7.700000E+03	2.422874E-16	5.784074E-18
7.710000E+03	2.411587E-16	5.771300E-18
7.720000E+03	2.400540E-16	5.758996E-18
7.730000E+03	2.389706E-16	5.747103E-18
7.740000E+03	2.379123E-16	5.735714E-18
7.750000E+03	2.368826E-16	5.724919E-18
7.760000E+03	2.358848E-16	5.714808E-18
