#wls	flux	fluxerr
1.600000E+03	8.349840E-17	9.047699E-19
1.640000E+03	8.513638E-17	9.224081E-19
1.680000E+03	8.679878E-17	9.403036E-19
1.720000E+03	8.848364E-17	9.584347E-19
1.760000E+03	9.020415E-17	9.769442E-19
1.800000E+03	9.194297E-17	9.956437E-19
1.840000E+03	9.369743E-17	1.014504E-18
1.880000E+03	9.548065E-17	1.033667E-18
1.920000E+03	9.727383E-17	1.052928E-18
1.960000E+03	9.909000E-17	1.072428E-18
2.000000E+03	1.009261E-16	1.092135E-18
2.040000E+03	1.027618E-16	1.111826E-18
2.080000E+03	1.046270E-16	1.131826E-18
2.120000E+03	1.064837E-16	1.151724E-18
2.160000E+03	1.083446E-16	1.171655E-18
2.200000E+03	1.102052E-16	1.191571E-18
2.240000E+03	1.120783E-16	1.211610E-18
2.280000E+03	1.139415E-16	1.231530E-18
2.320000E+03	1.157892E-16	1.251269E-18
2.360000E+03	1.176343E-16	1.270968E-18
2.400000E+03	1.194712E-16	1.290565E-18
2.440000E+03	1.212758E-16	1.309798E-18
2.480000E+03	1.230606E-16	1.328803E-18
2.520000E+03	1.248193E-16	1.347514E-18
2.560000E+03	1.265460E-16	1.365864E-18
2.600000E+03	1.282346E-16	1.383787E-18
2.640000E+03	1.298976E-16	1.401420E-18
2.680000E+03	1.315101E-16	1.418493E-18
2.720000E+03	1.330851E-16	1.435146E-18
2.760000E+03	1.345976E-16	1.451110E-18
2.800000E+03	1.360801E-16	1.466734E-18
2.840000E+03	1.374896E-16	1.481556E-18
2.880000E+03	1.388401E-16	1.495727E-18
2.920000E+03	1.401468E-16	1.509410E-18
2.960000E+03	1.413875E-16	1.522368E-18
3.000000E+03	1.425607E-16	1.534582E-18
3.010000E+03	1.428550E-16	1.537644E-18
3.020000E+03	1.431403E-16	1.540608E-18
3.030000E+03	1.434170E-16	1.543478E-18
3.040000E+03	1.436847E-16	1.546251E-18
3.050000E+03	1.439621E-16	1.549128E-18
3.060000E+03	1.442310E-16	1.551911E-18
3.070000E+03	1.444911E-16	1.554600E-18
3.080000E+03	1.447612E-16	1.557394E-18
3.090000E+03	1.450229E-16	1.560097E-18
3.100000E+03	1.452762E-16	1.562709E-18
3.110000E+03	1.455397E-16	1.565430E-18
3.120000E+03	1.457952E-16	1.568064E-18
3.130000E+03	1.460427E-16	1.570611E-18
3.140000E+03	1.463008E-16	1.573271E-18
3.150000E+03	1.465334E-16	1.575655E-18
3.160000E+03	1.467949E-16	1.578349E-18
3.170000E+03	1.470314E-16	1.580773E-18
3.180000E+03	1.472792E-16	1.583319E-18
3.190000E+03	1.475206E-16	1.585795E-18
3.200000E+03	1.477561E-16	1.588205E-18
3.210000E+03	1.480036E-16	1.590744E-18
3.220000E+03	1.482459E-16	1.593226E-18
3.230000E+03	1.484832E-16	1.595653E-18
3.240000E+03	1.487338E-16	1.598222E-18
3.250000E+03	1.489805E-16	1.600749E-18
3.260000E+03	1.492413E-16	1.603425E-18
3.270000E+03	1.494815E-16	1.605880E-18
3.280000E+03	1.497369E-16	1.608496E-18
3.290000E+03	1.500080E-16	1.611281E-18
3.300000E+03	1.502604E-16	1.613863E-18
3.310000E+03	1.505298E-16	1.616627E-18
3.320000E+03	1.508167E-16	1.619578E-18
3.330000E+03	1.511045E-16	1.622537E-18
3.340000E+03	1.513938E-16	1.625511E-18
3.350000E+03	1.516856E-16	1.628511E-18
3.360000E+03	1.519979E-16	1.631730E-18
3.370000E+03	1.523142E-16	1.634990E-18
3.380000E+03	1.526354E-16	1.638303E-18
3.390000E+03	1.529796E-16	1.641860E-18
3.400000E+03	1.533305E-16	1.645489E-18
3.410000E+03	1.536890E-16	1.649198E-18
3.420000E+03	1.540732E-16	1.653181E-18
3.430000E+03	1.544669E-16	1.657264E-18
3.440000E+03	1.548712E-16	1.661461E-18
3.450000E+03	1.553040E-16	1.665962E-18
3.460000E+03	1.557495E-16	1.670596E-18
3.470000E+03	1.562254E-16	1.675557E-18
3.480000E+03	1.567162E-16	1.680674E-18
3.490000E+03	1.572226E-16	1.685958E-18
3.500000E+03	1.577459E-16	1.691422E-18
3.510000E+03	1.583040E-16	1.697257E-18
3.520000E+03	1.588811E-16	1.703294E-18
3.530000E+03	1.594784E-16	1.709546E-18
3.540000E+03	1.601137E-16	1.716202E-18
3.550000E+03	1.607712E-16	1.723096E-18
3.560000E+03	1.614687E-16	1.730416E-18
3.570000E+03	1.621741E-16	1.737819E-18
3.580000E+03	1.629383E-16	1.745850E-18
3.590000E+03	1.637125E-16	1.753985E-18
3.600000E+03	1.645309E-16	1.762592E-18
3.610000E+03	1.653779E-16	1.771503E-18
3.620000E+03	1.662545E-16	1.780729E-18
3.630000E+03	1.671783E-16	1.790457E-18
3.640000E+03	1.681335E-16	1.800520E-18
3.650000E+03	1.691211E-16	1.810927E-18
3.660000E+03	1.701584E-16	1.821864E-18
3.670000E+03	1.712298E-16	1.833163E-18
3.680000E+03	1.723359E-16	1.844830E-18
3.690000E+03	1.734940E-16	1.857050E-18
3.700000E+03	1.746713E-16	1.869474E-18
3.710000E+03	1.759188E-16	1.882645E-18
3.720000E+03	1.771862E-16	1.896027E-18
3.730000E+03	1.785080E-16	1.909987E-18
3.740000E+03	1.798674E-16	1.924346E-18
3.750000E+03	1.812648E-16	1.939107E-18
3.760000E+03	1.827171E-16	1.954452E-18
3.770000E+03	1.842075E-16	1.970201E-18
3.780000E+03	1.857358E-16	1.986352E-18
3.790000E+03	1.873018E-16	2.002901E-18
3.800000E+03	1.889225E-16	2.020032E-18
3.810000E+03	1.905802E-16	2.037554E-18
3.820000E+03	1.922743E-16	2.055461E-18
3.830000E+03	1.940042E-16	2.073746E-18
3.840000E+03	1.957866E-16	2.092588E-18
3.850000E+03	1.976032E-16	2.111790E-18
3.860000E+03	1.994528E-16	2.131340E-18
3.870000E+03	2.013341E-16	2.151225E-18
3.880000E+03	2.032639E-16	2.171622E-18
3.890000E+03	2.052228E-16	2.192326E-18
3.900000E+03	2.072092E-16	2.213318E-18
3.910000E+03	2.092214E-16	2.234581E-18
3.920000E+03	2.112760E-16	2.256291E-18
3.930000E+03	2.133341E-16	2.278033E-18
3.940000E+03	2.154309E-16	2.300183E-18
3.950000E+03	2.175455E-16	2.322517E-18
3.960000E+03	2.196755E-16	2.345011E-18
3.970000E+03	2.218378E-16	2.367843E-18
3.980000E+03	2.239919E-16	2.390583E-18
3.990000E+03	2.261732E-16	2.413606E-18
4.000000E+03	2.283603E-16	2.436685E-18
4.010000E+03	2.305312E-16	2.459587E-18
4.020000E+03	2.327407E-16	2.482894E-18
4.030000E+03	2.349286E-16	2.505965E-18
4.040000E+03	2.371112E-16	2.528974E-18
4.050000E+03	2.392859E-16	2.551891E-18
4.060000E+03	2.414692E-16	2.574895E-18
4.070000E+03	2.436389E-16	2.597749E-18
4.080000E+03	2.457727E-16	2.620213E-18
4.090000E+03	2.479070E-16	2.642677E-18
4.100000E+03	2.500197E-16	2.664905E-18
4.110000E+03	2.521083E-16	2.686870E-18
4.120000E+03	2.541699E-16	2.708542E-18
4.130000E+03	2.562023E-16	2.729897E-18
4.140000E+03	2.582032E-16	2.750910E-18
4.150000E+03	2.601703E-16	2.771558E-18
4.160000E+03	2.621017E-16	2.791819E-18
4.170000E+03	2.639954E-16	2.811674E-18
4.180000E+03	2.658495E-16	2.831103E-18
4.190000E+03	2.676831E-16	2.850306E-18
4.200000E+03	2.694536E-16	2.868834E-18
4.210000E+03	2.711804E-16	2.886891E-18
4.220000E+03	2.728623E-16	2.904464E-18
4.230000E+03	2.744984E-16	2.921545E-18
4.240000E+03	2.760879E-16	2.938126E-18
4.250000E+03	2.776306E-16	2.954203E-18
4.260000E+03	2.791257E-16	2.969770E-18
4.270000E+03	2.805527E-16	2.984609E-18
4.280000E+03	2.819531E-16	2.999159E-18
4.290000E+03	2.832857E-16	3.012983E-18
4.300000E+03	2.845924E-16	3.026529E-18
4.310000E+03	2.858326E-16	3.039363E-18
4.320000E+03	2.870485E-16	3.051936E-18
4.330000E+03	2.882000E-16	3.063820E-18
4.340000E+03	2.893092E-16	3.075250E-18
4.350000E+03	2.903570E-16	3.086023E-18
4.360000E+03	2.913868E-16	3.096603E-18
4.370000E+03	2.923800E-16	3.106790E-18
4.380000E+03	2.933184E-16	3.116391E-18
4.390000E+03	2.942252E-16	3.125654E-18
4.400000E+03	2.951036E-16	3.134613E-18
4.410000E+03	2.959571E-16	3.143302E-18
4.420000E+03	2.967682E-16	3.151541E-18
4.430000E+03	2.975617E-16	3.159589E-18
4.440000E+03	2.983413E-16	3.167485E-18
4.450000E+03	2.991109E-16	3.175274E-18
4.460000E+03	2.998743E-16	3.182995E-18
4.470000E+03	3.006150E-16	3.190471E-18
4.480000E+03	3.013574E-16	3.197963E-18
4.490000E+03	3.021050E-16	3.205508E-18
4.500000E+03	3.028615E-16	3.213144E-18
4.510000E+03	3.036098E-16	3.220691E-18
4.520000E+03	3.043735E-16	3.228398E-18
4.530000E+03	3.051349E-16	3.236079E-18
4.540000E+03	3.059376E-16	3.244195E-18
4.550000E+03	3.067431E-16	3.252337E-18
4.560000E+03	3.075535E-16	3.260529E-18
4.570000E+03	3.084110E-16	3.269217E-18
4.580000E+03	3.092764E-16	3.277986E-18
4.590000E+03	3.101505E-16	3.286845E-18
4.600000E+03	3.110748E-16	3.296233E-18
4.610000E+03	3.120089E-16	3.305720E-18
4.620000E+03	3.129527E-16	3.315309E-18
4.630000E+03	3.139262E-16	3.325208E-18
4.640000E+03	3.149284E-16	3.335409E-18
4.650000E+03	3.159584E-16	3.345900E-18
4.660000E+03	3.169947E-16	3.356455E-18
4.670000E+03	3.180353E-16	3.367052E-18
4.680000E+03	3.191191E-16	3.378102E-18
4.690000E+03	3.202031E-16	3.389151E-18
4.700000E+03	3.212849E-16	3.400175E-18
4.710000E+03	3.223822E-16	3.411358E-18
4.720000E+03	3.234921E-16	3.422671E-18
4.730000E+03	3.245912E-16	3.433867E-18
4.740000E+03	3.256967E-16	3.445127E-18
4.750000E+03	3.267850E-16	3.456201E-18
4.760000E+03	3.278730E-16	3.467269E-18
4.770000E+03	3.289369E-16	3.478078E-18
4.780000E+03	3.299935E-16	3.488808E-18
4.790000E+03	3.310394E-16	3.499420E-18
4.800000E+03	3.320507E-16	3.509664E-18
4.810000E+03	3.330444E-16	3.519719E-18
4.820000E+03	3.339967E-16	3.529333E-18
4.830000E+03	3.349248E-16	3.538687E-18
4.840000E+03	3.358050E-16	3.547534E-18
4.850000E+03	3.366547E-16	3.556056E-18
4.860000E+03	3.374509E-16	3.564010E-18
4.870000E+03	3.382113E-16	3.571583E-18
4.880000E+03	3.389131E-16	3.578535E-18
4.890000E+03	3.395749E-16	3.585063E-18
4.900000E+03	3.401742E-16	3.590928E-18
4.910000E+03	3.407301E-16	3.596334E-18
4.920000E+03	3.412416E-16	3.601269E-18
4.930000E+03	3.416874E-16	3.605510E-18
4.940000E+03	3.420672E-16	3.609052E-18
4.950000E+03	3.424014E-16	3.612113E-18
4.960000E+03	3.426904E-16	3.614696E-18
4.970000E+03	3.429147E-16	3.616596E-18
4.980000E+03	3.430755E-16	3.617825E-18
4.990000E+03	3.431948E-16	3.618615E-18
5.000000E+03	3.432744E-16	3.618987E-18
5.010000E+03	3.432962E-16	3.618750E-18
5.020000E+03	3.432634E-16	3.617936E-18
5.030000E+03	3.431987E-16	3.616786E-18
5.040000E+03	3.431053E-16	3.615335E-18
5.050000E+03	3.429666E-16	3.613407E-18
5.060000E+03	3.427863E-16	3.611040E-18
5.070000E+03	3.425880E-16	3.608485E-18
5.080000E+03	3.423756E-16	3.605782E-18
5.090000E+03	3.421332E-16	3.602764E-18
5.100000E+03	3.418645E-16	3.599470E-18
5.110000E+03	3.415934E-16	3.596150E-18
5.120000E+03	3.413234E-16	3.592844E-18
5.130000E+03	3.410384E-16	3.589382E-18
5.140000E+03	3.407616E-16	3.586005E-18
5.150000E+03	3.404763E-16	3.582541E-18
5.160000E+03	3.401858E-16	3.579023E-18
5.170000E+03	3.399120E-16	3.575682E-18
5.180000E+03	3.396571E-16	3.572542E-18
5.190000E+03	3.394036E-16	3.569416E-18
5.200000E+03	3.391722E-16	3.566524E-18
5.210000E+03	3.389448E-16	3.563676E-18
5.220000E+03	3.387411E-16	3.561078E-18
5.230000E+03	3.385423E-16	3.558532E-18
5.240000E+03	3.383670E-16	3.556234E-18
5.250000E+03	3.381955E-16	3.553977E-18
5.260000E+03	3.380457E-16	3.551950E-18
5.270000E+03	3.378971E-16	3.549936E-18
5.280000E+03	3.377667E-16	3.548115E-18
5.290000E+03	3.376521E-16	3.546460E-18
5.300000E+03	3.375127E-16	3.544546E-18
5.310000E+03	3.374025E-16	3.542940E-18
5.320000E+03	3.372805E-16	3.541211E-18
5.330000E+03	3.371621E-16	3.539521E-18
5.340000E+03	3.370248E-16	3.537635E-18
5.350000E+03	3.368651E-16	3.535513E-18
5.360000E+03	3.367169E-16	3.533515E-18
5.370000E+03	3.365199E-16	3.531006E-18
5.380000E+03	3.363269E-16	3.528540E-18
5.390000E+03	3.360967E-16	3.525685E-18
5.400000E+03	3.358257E-16	3.522405E-18
5.410000E+03	3.355294E-16	3.518861E-18
5.420000E+03	3.352043E-16	3.515017E-18
5.430000E+03	3.348289E-16	3.510648E-18
5.440000E+03	3.344190E-16	3.505919E-18
5.450000E+03	3.339533E-16	3.500608E-18
5.460000E+03	3.334484E-16	3.494887E-18
5.470000E+03	3.329016E-16	3.488731E-18
5.480000E+03	3.322929E-16	3.481929E-18
5.490000E+03	3.316389E-16	3.474656E-18
5.500000E+03	3.309196E-16	3.466702E-18
5.510000E+03	3.301519E-16	3.458243E-18
5.520000E+03	3.293342E-16	3.449265E-18
5.530000E+03	3.284469E-16	3.439562E-18
5.540000E+03	3.274895E-16	3.429127E-18
5.550000E+03	3.264977E-16	3.418336E-18
5.560000E+03	3.254350E-16	3.406808E-18
5.570000E+03	3.243017E-16	3.394545E-18
5.580000E+03	3.231347E-16	3.381933E-18
5.590000E+03	3.218988E-16	3.368605E-18
5.600000E+03	3.205960E-16	3.354581E-18
5.610000E+03	3.192458E-16	3.340066E-18
5.620000E+03	3.178506E-16	3.325086E-18
5.630000E+03	3.163954E-16	3.309482E-18
5.640000E+03	3.149183E-16	3.293655E-18
5.650000E+03	3.133703E-16	3.277092E-18
5.660000E+03	3.118071E-16	3.260375E-18
5.670000E+03	3.101982E-16	3.243185E-18
5.680000E+03	3.085646E-16	3.225742E-18
5.690000E+03	3.068936E-16	3.207916E-18
5.700000E+03	3.052068E-16	3.189928E-18
5.710000E+03	3.035083E-16	3.171824E-18
5.720000E+03	3.017860E-16	3.153477E-18
5.730000E+03	3.000608E-16	3.135107E-18
5.740000E+03	2.983373E-16	3.116759E-18
5.750000E+03	2.966197E-16	3.098478E-18
5.760000E+03	2.948956E-16	3.080136E-18
5.770000E+03	2.931856E-16	3.061947E-18
5.780000E+03	2.914774E-16	3.043782E-18
5.790000E+03	2.898067E-16	3.026014E-18
5.800000E+03	2.881447E-16	3.008343E-18
5.810000E+03	2.864949E-16	2.990804E-18
5.820000E+03	2.848918E-16	2.973759E-18
5.830000E+03	2.833062E-16	2.956902E-18
5.840000E+03	2.817564E-16	2.940424E-18
5.850000E+03	2.802443E-16	2.924344E-18
5.860000E+03	2.787560E-16	2.908518E-18
5.870000E+03	2.773086E-16	2.893124E-18
5.880000E+03	2.759030E-16	2.878171E-18
5.890000E+03	2.745400E-16	2.863667E-18
5.900000E+03	2.732050E-16	2.849461E-18
5.910000E+03	2.719134E-16	2.835711E-18
5.920000E+03	2.706650E-16	2.822418E-18
5.930000E+03	2.694595E-16	2.809576E-18
5.940000E+03	2.682814E-16	2.797024E-18
5.950000E+03	2.671449E-16	2.784911E-18
5.960000E+03	2.660489E-16	2.773224E-18
5.970000E+03	2.649921E-16	2.761950E-18
5.980000E+03	2.639587E-16	2.750923E-18
5.990000E+03	2.629761E-16	2.740431E-18
6.000000E+03	2.620138E-16	2.730156E-18
6.010000E+03	2.610847E-16	2.720229E-18
6.020000E+03	2.601726E-16	2.710485E-18
6.030000E+03	2.593046E-16	2.701203E-18
6.040000E+03	2.584504E-16	2.692070E-18
6.050000E+03	2.576226E-16	2.683215E-18
6.060000E+03	2.568198E-16	2.674624E-18
6.070000E+03	2.560405E-16	2.666282E-18
6.080000E+03	2.552693E-16	2.658029E-18
6.090000E+03	2.545336E-16	2.650149E-18
6.100000E+03	2.538040E-16	2.642336E-18
6.110000E+03	2.530944E-16	2.634735E-18
6.120000E+03	2.524040E-16	2.627338E-18
6.130000E+03	2.517187E-16	2.619999E-18
6.140000E+03	2.510667E-16	2.613009E-18
6.150000E+03	2.504204E-16	2.606083E-18
6.160000E+03	2.498083E-16	2.599516E-18
6.170000E+03	2.492035E-16	2.593029E-18
6.180000E+03	2.486211E-16	2.586779E-18
6.190000E+03	2.480485E-16	2.580634E-18
6.200000E+03	2.475152E-16	2.574903E-18
6.210000E+03	2.469957E-16	2.569318E-18
6.220000E+03	2.465195E-16	2.564188E-18
6.230000E+03	2.460615E-16	2.559251E-18
6.240000E+03	2.456382E-16	2.554677E-18
6.250000E+03	2.452521E-16	2.550496E-18
6.260000E+03	2.449065E-16	2.546738E-18
6.270000E+03	2.446043E-16	2.543435E-18
6.280000E+03	2.443351E-16	2.540480E-18
6.290000E+03	2.441296E-16	2.538189E-18
6.300000E+03	2.439638E-16	2.536316E-18
6.310000E+03	2.438686E-16	2.535180E-18
6.320000E+03	2.438199E-16	2.534530E-18
6.330000E+03	2.438350E-16	2.534547E-18
6.340000E+03	2.439171E-16	2.535265E-18
6.350000E+03	2.440698E-16	2.536719E-18
6.360000E+03	2.442958E-16	2.538938E-18
6.370000E+03	2.445983E-16	2.541956E-18
6.380000E+03	2.449661E-16	2.545656E-18
6.390000E+03	2.454293E-16	2.550350E-18
6.400000E+03	2.459622E-16	2.555772E-18
6.410000E+03	2.465940E-16	2.562225E-18
6.420000E+03	2.472982E-16	2.569433E-18
6.430000E+03	2.480893E-16	2.577548E-18
6.440000E+03	2.489814E-16	2.586714E-18
6.450000E+03	2.499454E-16	2.596633E-18
6.460000E+03	2.509941E-16	2.607433E-18
6.470000E+03	2.521252E-16	2.619092E-18
6.480000E+03	2.533354E-16	2.631577E-18
6.490000E+03	2.546203E-16	2.644842E-18
6.500000E+03	2.559606E-16	2.658685E-18
6.510000E+03	2.573788E-16	2.673340E-18
6.520000E+03	2.588533E-16	2.688584E-18
6.530000E+03	2.603759E-16	2.704330E-18
6.540000E+03	2.619220E-16	2.720324E-18
6.550000E+03	2.635111E-16	2.736766E-18
6.560000E+03	2.651017E-16	2.753229E-18
6.570000E+03	2.667116E-16	2.769895E-18
6.580000E+03	2.682974E-16	2.786314E-18
6.590000E+03	2.698759E-16	2.802660E-18
6.600000E+03	2.714021E-16	2.818468E-18
6.610000E+03	2.728927E-16	2.833908E-18
6.620000E+03	2.743015E-16	2.848503E-18
6.630000E+03	2.756299E-16	2.862265E-18
6.640000E+03	2.768791E-16	2.875209E-18
6.650000E+03	2.780038E-16	2.886864E-18
6.660000E+03	2.790067E-16	2.897259E-18
6.670000E+03	2.798759E-16	2.906267E-18
6.680000E+03	2.806003E-16	2.913776E-18
6.690000E+03	2.811865E-16	2.919853E-18
6.700000E+03	2.815939E-16	2.924078E-18
6.710000E+03	2.818322E-16	2.926549E-18
6.720000E+03	2.818963E-16	2.927216E-18
6.730000E+03	2.817833E-16	2.926047E-18
6.740000E+03	2.814916E-16	2.923026E-18
6.750000E+03	2.810217E-16	2.918158E-18
6.760000E+03	2.803758E-16	2.911465E-18
6.770000E+03	2.795574E-16	2.902985E-18
6.780000E+03	2.785722E-16	2.892776E-18
6.790000E+03	2.774269E-16	2.880906E-18
6.800000E+03	2.761295E-16	2.867461E-18
6.810000E+03	2.746893E-16	2.852535E-18
6.820000E+03	2.731165E-16	2.836236E-18
6.830000E+03	2.714220E-16	2.818675E-18
6.840000E+03	2.696173E-16	2.799973E-18
6.850000E+03	2.676991E-16	2.780093E-18
6.860000E+03	2.657107E-16	2.759487E-18
6.870000E+03	2.636488E-16	2.738120E-18
6.880000E+03	2.615256E-16	2.716119E-18
6.890000E+03	2.593534E-16	2.693609E-18
6.900000E+03	2.571437E-16	2.670713E-18
6.910000E+03	2.548930E-16	2.647392E-18
6.920000E+03	2.526420E-16	2.624070E-18
6.930000E+03	2.503858E-16	2.600696E-18
6.940000E+03	2.481342E-16	2.577369E-18
6.950000E+03	2.458815E-16	2.554033E-18
6.960000E+03	2.436647E-16	2.531072E-18
6.970000E+03	2.414769E-16	2.508412E-18
6.980000E+03	2.393104E-16	2.485976E-18
6.990000E+03	2.371998E-16	2.464121E-18
7.000000E+03	2.351359E-16	2.442751E-18
7.010000E+03	2.331095E-16	2.421771E-18
7.020000E+03	2.311520E-16	2.401510E-18
7.030000E+03	2.292394E-16	2.381715E-18
7.040000E+03	2.274013E-16	2.362695E-18
7.050000E+03	2.256130E-16	2.344192E-18
7.060000E+03	2.239026E-16	2.326500E-18
7.070000E+03	2.222446E-16	2.309354E-18
7.080000E+03	2.206659E-16	2.293032E-18
7.090000E+03	2.191406E-16	2.277266E-18
7.100000E+03	2.176815E-16	2.262188E-18
7.110000E+03	2.163011E-16	2.247928E-18
7.120000E+03	2.149725E-16	2.234208E-18
7.130000E+03	2.137076E-16	2.221151E-18
7.140000E+03	2.125052E-16	2.208743E-18
7.150000E+03	2.113636E-16	2.196969E-18
7.160000E+03	2.102812E-16	2.185809E-18
7.170000E+03	2.092559E-16	2.175246E-18
7.180000E+03	2.082860E-16	2.165258E-18
7.190000E+03	2.073693E-16	2.155824E-18
7.200000E+03	2.065036E-16	2.146920E-18
7.210000E+03	2.056865E-16	2.138523E-18
7.220000E+03	2.049037E-16	2.130484E-18
7.230000E+03	2.041774E-16	2.123033E-18
7.240000E+03	2.034807E-16	2.115890E-18
7.250000E+03	2.028359E-16	2.109287E-18
7.260000E+03	2.022159E-16	2.102945E-18
7.270000E+03	2.016433E-16	2.097095E-18
7.280000E+03	2.010912E-16	2.091459E-18
7.290000E+03	2.005694E-16	2.086140E-18
7.300000E+03	2.000760E-16	2.081117E-18
7.310000E+03	1.996087E-16	2.076366E-18
7.320000E+03	1.991655E-16	2.071866E-18
7.330000E+03	1.987444E-16	2.067597E-18
7.340000E+03	1.983433E-16	2.063538E-18
7.350000E+03	1.979484E-16	2.059544E-18
7.360000E+03	1.975819E-16	2.055847E-18
7.370000E+03	1.972181E-16	2.052177E-18
7.380000E+03	1.968793E-16	2.048771E-18
7.390000E+03	1.965401E-16	2.045359E-18
7.400000E+03	1.962109E-16	2.042054E-18
7.410000E+03	1.958903E-16	2.038839E-18
7.420000E+03	1.955774E-16	2.035704E-18
7.430000E+03	1.952707E-16	2.032636E-18
7.440000E+03	1.949573E-16	2.029499E-18
7.450000E+03	1.946603E-16	2.026533E-18
7.460000E+03	1.943549E-16	2.023481E-18
7.470000E+03	1.940644E-16	2.020585E-18
7.480000E+03	1.937643E-16	2.017590E-18
7.490000E+03	1.934661E-16	2.014615E-18
7.500000E+03	1.931695E-16	2.011658E-18
7.510000E+03	1.928622E-16	2.008591E-18
7.520000E+03	1.925680E-16	2.005661E-18
7.530000E+03	1.922752E-16	2.002747E-18
7.540000E+03	1.919718E-16	1.999723E-18
7.550000E+03	1.916700E-16	1.996716E-18
7.560000E+03	1.913701E-16	1.993730E-18
7.570000E+03	1.910726E-16	1.990770E-18
7.580000E+03	1.907778E-16	1.987839E-18
7.590000E+03	1.904747E-16	1.984822E-18
7.600000E+03	1.901876E-16	1.981973E-18
7.610000E+03	1.898933E-16	1.979051E-18
7.620000E+03	1.896047E-16	1.976189E-18
7.630000E+03	1.893227E-16	1.973396E-18
7.640000E+03	1.890481E-16	1.970680E-18
7.650000E+03	1.887698E-16	1.967928E-18
7.660000E+03	1.885128E-16	1.965398E-18
7.670000E+03	1.882540E-16	1.962851E-18
7.680000E+03	1.880065E-16	1.960422E-18
7.690000E+03	1.877709E-16	1.958119E-18
7.700000E+03	1.875484E-16	1.955952E-18
7.710000E+03	1.873279E-16	1.953808E-18
7.720000E+03	1.871340E-16	1.951943E-18
7.730000E+03	1.869436E-16	1.950115E-18
7.740000E+03	1.867694E-16	1.948457E-18
7.750000E+03	1.866119E-16	1.946974E-18
7.760000E+03	1.864597E-16	1.945548E-18
