#wls	flux	fluxerr
1.597671E+03	5.231089E-03	1.352428E-04
1.637612E+03	4.586526E-03	1.169352E-04
1.677554E+03	3.950267E-03	9.929360E-05
1.717496E+03	3.336779E-03	8.267122E-05
1.757438E+03	2.760062E-03	6.738786E-05
1.797379E+03	2.229504E-03	5.363117E-05
1.837321E+03	1.753586E-03	4.155276E-05
1.877263E+03	1.339097E-03	3.125180E-05
1.917205E+03	9.899331E-04	2.275073E-05
1.957146E+03	7.076406E-04	1.601315E-05
1.997088E+03	4.904120E-04	1.092598E-05
2.037030E+03	3.329641E-04	7.303101E-06
2.076972E+03	2.262779E-04	4.886014E-06
2.116914E+03	1.589919E-04	3.379870E-06
2.156855E+03	1.195703E-04	2.502596E-06
2.196797E+03	9.917418E-05	2.043904E-06
2.236739E+03	9.262904E-05	1.880090E-06
2.276681E+03	9.846602E-05	1.968738E-06
2.316622E+03	1.181724E-04	2.328170E-06
2.356564E+03	1.568778E-04	3.046568E-06
2.396506E+03	2.252215E-04	4.312985E-06
2.436448E+03	3.416720E-04	6.454617E-06
2.476389E+03	5.352783E-04	9.979424E-06
2.516331E+03	8.470910E-04	1.559126E-05
2.556273E+03	1.328617E-03	2.415042E-05
2.596215E+03	2.036858E-03	3.657589E-05
2.636156E+03	3.028802E-03	5.374480E-05
2.676098E+03	4.334796E-03	7.602817E-05
2.716040E+03	5.935553E-03	1.029207E-04
2.755982E+03	7.773904E-03	1.332905E-04
2.795924E+03	9.771614E-03	1.656972E-04
2.835865E+03	1.184263E-02	1.986300E-04
2.875807E+03	1.389797E-02	2.305922E-04
2.915749E+03	1.584296E-02	2.600550E-04
2.955691E+03	1.757467E-02	2.854191E-04
2.995632E+03	1.898788E-02	3.051151E-04
3.005618E+03	1.928080E-02	3.090035E-04
3.015603E+03	1.954657E-02	3.124361E-04
3.025589E+03	1.978509E-02	3.154147E-04
3.035574E+03	1.999560E-02	3.179310E-04
3.045560E+03	2.017948E-02	3.200100E-04
3.055545E+03	2.033843E-02	3.216822E-04
3.065530E+03	2.047119E-02	3.229306E-04
3.075516E+03	2.057900E-02	3.237776E-04
3.085501E+03	2.066121E-02	3.242162E-04
3.095487E+03	2.071924E-02	3.242713E-04
3.105472E+03	2.075349E-02	3.239520E-04
3.115458E+03	2.076511E-02	3.232790E-04
3.125443E+03	2.075628E-02	3.222886E-04
3.135429E+03	2.072779E-02	3.209954E-04
3.145414E+03	2.068263E-02	3.194479E-04
3.155399E+03	2.062156E-02	3.176594E-04
3.165385E+03	2.054780E-02	3.156812E-04
3.175370E+03	2.046270E-02	3.135356E-04
3.185356E+03	2.036919E-02	3.112683E-04
3.195341E+03	2.026906E-02	3.089074E-04
3.205327E+03	2.016478E-02	3.064913E-04
3.215312E+03	2.005843E-02	3.040517E-04
3.225298E+03	1.995198E-02	3.016187E-04
3.235283E+03	1.984698E-02	2.992154E-04
3.245268E+03	1.974588E-02	2.968783E-04
3.255254E+03	1.965000E-02	2.946267E-04
3.265239E+03	1.956117E-02	2.924870E-04
3.275225E+03	1.948049E-02	2.904748E-04
3.285210E+03	1.940923E-02	2.886081E-04
3.295196E+03	1.934891E-02	2.869077E-04
3.305181E+03	1.930028E-02	2.853833E-04
3.315166E+03	1.926461E-02	2.840525E-04
3.325152E+03	1.924282E-02	2.829268E-04
3.335137E+03	1.923518E-02	2.820084E-04
3.345123E+03	1.924302E-02	2.813148E-04
3.355108E+03	1.926680E-02	2.808510E-04
3.365094E+03	1.930719E-02	2.806243E-04
3.375079E+03	1.936483E-02	2.806420E-04
3.385065E+03	1.943979E-02	2.809028E-04
3.395050E+03	1.953313E-02	2.814196E-04
3.405035E+03	1.964506E-02	2.821931E-04
3.415021E+03	1.977572E-02	2.832229E-04
3.425006E+03	1.992544E-02	2.845110E-04
3.434992E+03	2.009437E-02	2.860573E-04
3.444977E+03	2.028207E-02	2.878529E-04
3.454963E+03	2.048857E-02	2.898955E-04
3.464948E+03	2.071273E-02	2.921668E-04
3.474934E+03	2.095294E-02	2.946415E-04
3.484919E+03	2.120539E-02	2.972644E-04
3.494904E+03	2.146522E-02	2.999653E-04
3.504890E+03	2.172699E-02	3.026673E-04
3.514875E+03	2.198519E-02	3.052933E-04
3.524861E+03	2.223412E-02	3.077645E-04
3.534846E+03	2.246843E-02	3.100081E-04
3.544832E+03	2.268347E-02	3.119617E-04
3.554817E+03	2.287512E-02	3.135709E-04
3.564803E+03	2.304031E-02	3.147969E-04
3.574788E+03	2.317656E-02	3.156092E-04
3.584773E+03	2.328299E-02	3.159993E-04
3.594759E+03	2.335969E-02	3.159723E-04
3.604744E+03	2.340845E-02	3.155565E-04
3.614730E+03	2.343151E-02	3.147853E-04
3.624715E+03	2.343273E-02	3.137138E-04
3.634701E+03	2.341615E-02	3.123991E-04
3.644686E+03	2.338739E-02	3.109181E-04
3.654671E+03	2.335243E-02	3.093516E-04
3.664657E+03	2.331769E-02	3.077853E-04
3.674642E+03	2.329001E-02	3.063089E-04
3.684628E+03	2.327632E-02	3.050123E-04
3.694613E+03	2.328324E-02	3.039797E-04
3.704599E+03	2.331753E-02	3.032962E-04
3.714584E+03	2.338518E-02	3.030352E-04
3.724570E+03	2.349235E-02	3.032713E-04
3.734555E+03	2.364421E-02	3.040650E-04
3.744540E+03	2.384529E-02	3.054678E-04
3.754526E+03	2.409965E-02	3.075237E-04
3.764511E+03	2.441074E-02	3.102687E-04
3.774497E+03	2.478075E-02	3.137214E-04
3.784482E+03	2.521130E-02	3.178934E-04
3.794468E+03	2.570254E-02	3.227770E-04
3.804453E+03	2.625371E-02	3.283530E-04
3.814439E+03	2.686298E-02	3.345891E-04
3.824424E+03	2.752721E-02	3.414368E-04
3.834409E+03	2.824141E-02	3.488259E-04
3.844395E+03	2.899997E-02	3.566789E-04
3.854380E+03	2.979488E-02	3.648906E-04
3.864366E+03	3.061819E-02	3.733578E-04
3.874351E+03	3.145966E-02	3.819513E-04
3.884337E+03	3.230945E-02	3.905490E-04
3.894322E+03	3.315622E-02	3.990128E-04
3.904308E+03	3.398900E-02	4.072115E-04
3.914293E+03	3.479677E-02	4.150157E-04
3.924278E+03	3.556934E-02	4.223082E-04
3.934264E+03	3.629714E-02	4.289820E-04
3.944249E+03	3.697242E-02	4.349529E-04
3.954235E+03	3.758791E-02	4.401445E-04
3.964220E+03	3.813844E-02	4.445066E-04
3.974206E+03	3.862008E-02	4.480044E-04
3.984191E+03	3.903096E-02	4.506283E-04
3.994176E+03	3.936997E-02	4.523774E-04
4.004162E+03	3.963714E-02	4.532646E-04
4.014147E+03	3.983352E-02	4.533140E-04
4.024133E+03	3.996153E-02	4.525655E-04
4.034118E+03	4.002321E-02	4.510541E-04
4.044104E+03	4.002195E-02	4.488296E-04
4.054089E+03	3.996054E-02	4.459341E-04
4.064075E+03	3.984251E-02	4.424178E-04
4.074060E+03	3.967159E-02	4.383319E-04
4.084045E+03	3.945122E-02	4.337237E-04
4.094031E+03	3.918502E-02	4.286419E-04
4.104016E+03	3.887669E-02	4.231351E-04
4.114002E+03	3.853072E-02	4.172595E-04
4.123987E+03	3.815082E-02	4.110622E-04
4.133973E+03	3.774154E-02	4.045981E-04
4.143958E+03	3.730709E-02	3.979177E-04
4.153944E+03	3.685252E-02	3.910793E-04
4.163929E+03	3.638315E-02	3.841429E-04
4.173914E+03	3.590406E-02	3.771648E-04
4.183900E+03	3.542112E-02	3.702086E-04
4.193885E+03	3.494015E-02	3.633359E-04
4.203871E+03	3.446814E-02	3.566190E-04
4.213856E+03	3.401240E-02	3.501323E-04
4.223842E+03	3.358140E-02	3.439605E-04
4.233827E+03	3.318341E-02	3.381844E-04
4.243813E+03	3.282741E-02	3.328903E-04
4.253798E+03	3.252168E-02	3.281560E-04
4.263783E+03	3.227360E-02	3.240483E-04
4.273769E+03	3.208759E-02	3.206035E-04
4.283754E+03	3.196592E-02	3.178355E-04
4.293740E+03	3.190693E-02	3.157194E-04
4.303725E+03	3.190398E-02	3.141815E-04
4.313711E+03	3.194676E-02	3.131139E-04
4.323696E+03	3.202121E-02	3.123739E-04
4.333681E+03	3.210885E-02	3.117786E-04
4.343667E+03	3.219002E-02	3.111365E-04
4.353652E+03	3.224658E-02	3.102740E-04
4.363638E+03	3.226770E-02	3.090906E-04
4.373623E+03	3.225601E-02	3.076162E-04
4.383609E+03	3.222320E-02	3.059658E-04
4.393594E+03	3.218518E-02	3.042923E-04
4.403580E+03	3.216085E-02	3.027742E-04
4.413565E+03	3.216999E-02	3.015953E-04
4.423550E+03	3.223322E-02	3.009439E-04
4.433536E+03	3.237006E-02	3.009946E-04
4.443521E+03	3.259993E-02	3.019180E-04
4.453507E+03	3.294219E-02	3.038814E-04
4.463492E+03	3.341273E-02	3.070176E-04
4.473478E+03	3.401759E-02	3.113676E-04
4.483463E+03	3.473207E-02	3.166913E-04
4.493449E+03	3.551167E-02	3.225725E-04
4.503434E+03	3.630721E-02	3.285592E-04
4.513419E+03	3.707413E-02	3.342474E-04
4.523405E+03	3.777338E-02	3.392885E-04
4.533390E+03	3.837142E-02	3.433883E-04
4.543376E+03	3.884462E-02	3.463453E-04
4.553361E+03	3.917658E-02	3.480248E-04
4.563347E+03	3.935689E-02	3.483473E-04
4.573332E+03	3.937892E-02	3.472678E-04
4.583318E+03	3.924219E-02	3.447958E-04
4.593303E+03	3.895083E-02	3.409816E-04
4.603288E+03	3.851567E-02	3.359329E-04
4.613274E+03	3.795158E-02	3.297915E-04
4.623259E+03	3.727880E-02	3.227440E-04
4.633245E+03	3.652108E-02	3.150046E-04
4.643230E+03	3.570449E-02	3.068044E-04
4.653216E+03	3.485318E-02	2.983550E-04
4.663201E+03	3.398949E-02	2.898499E-04
4.673186E+03	3.313200E-02	2.814473E-04
4.683172E+03	3.229546E-02	2.732713E-04
4.693157E+03	3.149060E-02	2.654097E-04
4.703143E+03	3.072376E-02	2.579126E-04
4.713128E+03	2.999921E-02	2.508116E-04
4.723114E+03	2.931816E-02	2.441125E-04
4.733099E+03	2.868066E-02	2.378113E-04
4.743085E+03	2.808477E-02	2.318874E-04
4.753070E+03	2.752836E-02	2.263193E-04
4.763055E+03	2.700825E-02	2.210768E-04
4.773041E+03	2.652152E-02	2.161324E-04
4.783026E+03	2.606488E-02	2.114560E-04
4.793012E+03	2.563568E-02	2.070232E-04
4.802997E+03	2.523245E-02	2.028193E-04
4.812983E+03	2.485538E-02	1.988433E-04
4.822968E+03	2.450589E-02	1.951037E-04
4.832954E+03	2.418568E-02	1.916112E-04
4.842939E+03	2.389732E-02	1.883830E-04
4.852924E+03	2.364295E-02	1.854323E-04
4.862910E+03	2.342290E-02	1.827579E-04
4.872895E+03	2.323537E-02	1.803421E-04
4.882881E+03	2.307753E-02	1.781592E-04
4.892866E+03	2.294550E-02	1.761763E-04
4.902852E+03	2.283642E-02	1.743682E-04
4.912837E+03	2.274772E-02	1.727130E-04
4.922823E+03	2.267906E-02	1.712057E-04
4.932808E+03	2.263345E-02	1.698666E-04
4.942793E+03	2.261622E-02	1.687328E-04
4.952779E+03	2.263450E-02	1.678537E-04
4.962764E+03	2.269763E-02	1.672936E-04
4.972750E+03	2.281505E-02	1.671158E-04
4.982735E+03	2.299604E-02	1.673809E-04
4.992721E+03	2.324700E-02	1.681265E-04
5.002706E+03	2.357186E-02	1.693715E-04
5.012691E+03	2.397216E-02	1.711165E-04
5.022677E+03	2.444502E-02	1.733308E-04
5.032662E+03	2.498399E-02	1.759588E-04
5.042648E+03	2.557889E-02	1.789205E-04
5.052633E+03	2.621532E-02	1.821079E-04
5.062619E+03	2.687468E-02	1.853875E-04
5.072604E+03	2.753571E-02	1.886110E-04
5.082590E+03	2.817422E-02	1.916144E-04
5.092575E+03	2.876486E-02	1.942309E-04
5.102560E+03	2.928285E-02	1.963027E-04
5.112546E+03	2.970716E-02	1.977018E-04
5.122531E+03	3.001951E-02	1.983228E-04
5.132517E+03	3.020660E-02	1.980962E-04
5.142502E+03	3.025882E-02	1.969796E-04
5.152488E+03	3.017225E-02	1.949688E-04
5.162473E+03	2.994677E-02	1.920848E-04
5.172459E+03	2.958669E-02	1.883765E-04
5.182444E+03	2.910150E-02	1.839244E-04
5.192429E+03	2.850517E-02	1.788351E-04
5.202415E+03	2.781701E-02	1.732452E-04
5.212400E+03	2.706046E-02	1.673130E-04
5.222386E+03	2.626269E-02	1.612149E-04
5.232371E+03	2.545481E-02	1.551464E-04
5.242357E+03	2.466788E-02	1.492966E-04
5.252342E+03	2.393049E-02	1.438344E-04
5.262328E+03	2.326631E-02	1.388948E-04
5.272313E+03	2.269469E-02	1.345834E-04
5.282298E+03	2.222963E-02	1.309715E-04
5.292284E+03	2.187908E-02	1.280936E-04
5.302269E+03	2.164635E-02	1.259566E-04
5.312255E+03	2.152896E-02	1.245343E-04
5.322240E+03	2.151706E-02	1.237595E-04
5.332226E+03	2.159519E-02	1.235352E-04
5.342211E+03	2.174399E-02	1.237448E-04
5.352196E+03	2.193907E-02	1.242464E-04
5.362182E+03	2.215291E-02	1.248840E-04
5.372167E+03	2.235711E-02	1.254995E-04
5.382153E+03	2.252516E-02	1.259479E-04
5.392138E+03	2.263263E-02	1.260964E-04
5.402124E+03	2.266017E-02	1.258407E-04
5.412109E+03	2.259691E-02	1.251241E-04
5.422095E+03	2.246193E-02	1.240542E-04
5.432080E+03	2.229595E-02	1.228560E-04
5.442065E+03	2.214012E-02	1.217538E-04
5.452051E+03	2.202825E-02	1.209301E-04
5.462036E+03	2.198499E-02	1.205164E-04
5.472022E+03	2.202279E-02	1.205768E-04
5.482007E+03	2.214582E-02	1.211305E-04
5.491993E+03	2.235188E-02	1.221624E-04
5.501978E+03	2.263290E-02	1.236261E-04
5.511964E+03	2.297600E-02	1.254492E-04
5.521949E+03	2.336414E-02	1.275373E-04
5.531934E+03	2.377626E-02	1.297739E-04
5.541920E+03	2.418898E-02	1.320303E-04
5.551905E+03	2.457974E-02	1.341822E-04
5.561891E+03	2.493055E-02	1.361298E-04
5.571876E+03	2.522656E-02	1.377904E-04
5.581862E+03	2.545794E-02	1.391086E-04
5.591847E+03	2.561881E-02	1.400499E-04
5.601833E+03	2.570825E-02	1.406073E-04
5.611818E+03	2.572859E-02	1.407910E-04
5.621803E+03	2.568420E-02	1.406230E-04
5.631789E+03	2.558297E-02	1.401443E-04
5.641774E+03	2.543289E-02	1.393966E-04
5.651760E+03	2.524256E-02	1.384254E-04
5.661745E+03	2.502180E-02	1.372830E-04
5.671731E+03	2.477918E-02	1.360153E-04
5.681716E+03	2.452378E-02	1.346708E-04
5.691701E+03	2.426424E-02	1.332963E-04
5.701687E+03	2.400871E-02	1.319360E-04
5.711672E+03	2.376495E-02	1.306320E-04
5.721658E+03	2.354013E-02	1.294234E-04
5.731643E+03	2.334072E-02	1.283457E-04
5.741629E+03	2.317213E-02	1.274283E-04
5.751614E+03	2.303771E-02	1.266898E-04
5.761600E+03	2.294033E-02	1.261459E-04
5.771585E+03	2.287959E-02	1.257942E-04
5.781570E+03	2.285437E-02	1.256287E-04
5.791556E+03	2.286132E-02	1.256311E-04
5.801541E+03	2.289607E-02	1.257771E-04
5.811527E+03	2.295318E-02	1.260372E-04
5.821512E+03	2.302759E-02	1.263836E-04
5.831498E+03	2.311434E-02	1.267896E-04
5.841483E+03	2.320938E-02	1.272332E-04
5.851469E+03	2.330937E-02	1.276967E-04
5.861454E+03	2.341130E-02	1.281644E-04
5.871439E+03	2.351162E-02	1.286176E-04
5.881425E+03	2.360764E-02	1.290426E-04
5.891410E+03	2.369536E-02	1.294187E-04
5.901396E+03	2.377069E-02	1.297248E-04
5.911381E+03	2.382842E-02	1.299342E-04
5.921367E+03	2.386178E-02	1.300115E-04
5.931352E+03	2.386301E-02	1.299165E-04
5.941338E+03	2.382164E-02	1.295943E-04
5.951323E+03	2.372369E-02	1.289711E-04
5.961308E+03	2.355376E-02	1.279656E-04
5.971294E+03	2.329387E-02	1.264826E-04
5.981279E+03	2.292584E-02	1.244261E-04
5.991265E+03	2.243278E-02	1.217065E-04
6.001250E+03	2.180192E-02	1.182566E-04
6.011236E+03	2.102751E-02	1.140463E-04
6.021221E+03	2.011230E-02	1.090910E-04
6.031207E+03	1.907304E-02	1.034808E-04
6.041192E+03	1.793972E-02	9.737686E-05
6.051177E+03	1.675213E-02	9.099262E-05
6.061163E+03	1.555557E-02	8.457117E-05
6.071148E+03	1.439865E-02	7.837383E-05
6.081134E+03	1.332517E-02	7.263675E-05
6.091119E+03	1.236970E-02	6.754709E-05
6.101105E+03	1.155803E-02	6.324597E-05
6.111090E+03	1.090732E-02	5.982934E-05
6.121075E+03	1.042842E-02	5.736079E-05
6.131061E+03	1.012705E-02	5.587795E-05
6.141046E+03	1.000701E-02	5.541029E-05
6.151032E+03	1.006751E-02	5.596424E-05
6.161017E+03	1.030091E-02	5.751036E-05
6.171003E+03	1.069412E-02	5.999049E-05
6.180988E+03	1.123031E-02	6.332645E-05
6.190974E+03	1.188534E-02	6.739907E-05
6.200959E+03	1.262768E-02	7.204500E-05
6.210944E+03	1.342118E-02	7.707055E-05
6.220930E+03	1.422903E-02	8.227356E-05
6.230915E+03	1.501457E-02	8.744679E-05
6.240901E+03	1.574315E-02	9.238842E-05
6.250886E+03	1.638874E-02	9.694029E-05
6.260872E+03	1.693204E-02	1.009784E-04
6.270857E+03	1.736128E-02	1.044186E-04
6.280843E+03	1.767117E-02	1.072125E-04
6.290828E+03	1.786192E-02	1.093424E-04
6.300813E+03	1.793960E-02	1.108256E-04
6.310799E+03	1.791424E-02	1.117041E-04
6.320784E+03	1.779921E-02	1.120424E-04
6.330770E+03	1.761006E-02	1.119210E-04
6.340755E+03	1.736458E-02	1.114382E-04
6.350741E+03	1.708121E-02	1.107004E-04
6.360726E+03	1.677893E-02	1.098219E-04
6.370712E+03	1.647663E-02	1.089215E-04
6.380697E+03	1.619185E-02	1.081139E-04
6.390682E+03	1.593931E-02	1.074995E-04
6.400668E+03	1.572732E-02	1.071396E-04
6.410653E+03	1.555319E-02	1.070220E-04
6.420639E+03	1.541003E-02	1.071051E-04
6.430624E+03	1.529193E-02	1.073524E-04
6.440610E+03	1.519259E-02	1.077230E-04
6.450595E+03	1.510648E-02	1.081802E-04
6.460580E+03	1.502923E-02	1.086938E-04
6.470566E+03	1.495660E-02	1.092339E-04
6.480551E+03	1.488568E-02	1.097787E-04
6.490537E+03	1.481377E-02	1.103074E-04
6.500522E+03	1.473897E-02	1.108049E-04
6.510508E+03	1.465920E-02	1.112536E-04
6.520493E+03	1.457393E-02	1.116478E-04
6.530479E+03	1.448193E-02	1.119757E-04
6.540464E+03	1.438301E-02	1.122338E-04
6.550449E+03	1.427712E-02	1.124195E-04
6.560435E+03	1.416426E-02	1.125309E-04
6.570420E+03	1.404520E-02	1.125718E-04
6.580406E+03	1.392065E-02	1.125462E-04
6.590391E+03	1.379127E-02	1.124580E-04
6.600377E+03	1.365803E-02	1.123136E-04
6.610362E+03	1.352186E-02	1.121195E-04
6.620348E+03	1.338390E-02	1.118845E-04
6.630333E+03	1.324455E-02	1.116112E-04
6.640318E+03	1.310476E-02	1.113072E-04
6.650304E+03	1.296512E-02	1.109772E-04
6.660289E+03	1.282595E-02	1.106239E-04
6.670275E+03	1.268788E-02	1.102527E-04
6.680260E+03	1.255104E-02	1.098650E-04
6.690246E+03	1.241595E-02	1.094654E-04
6.700231E+03	1.228245E-02	1.090528E-04
6.710217E+03	1.215099E-02	1.086315E-04
6.720202E+03	1.202196E-02	1.082055E-04
6.730187E+03	1.189508E-02	1.077727E-04
6.740173E+03	1.177066E-02	1.073364E-04
6.750158E+03	1.164853E-02	1.068954E-04
6.760144E+03	1.152884E-02	1.064518E-04
6.770129E+03	1.141129E-02	1.060032E-04
6.780115E+03	1.129575E-02	1.055489E-04
6.790100E+03	1.118226E-02	1.050897E-04
6.800085E+03	1.107025E-02	1.046208E-04
6.810071E+03	1.095998E-02	1.041450E-04
6.820056E+03	1.085096E-02	1.036580E-04
6.830042E+03	1.074351E-02	1.031633E-04
6.840027E+03	1.063725E-02	1.026576E-04
6.850013E+03	1.053221E-02	1.021418E-04
6.859998E+03	1.042872E-02	1.016193E-04
6.869984E+03	1.032692E-02	1.010920E-04
6.879969E+03	1.022666E-02	1.005587E-04
6.889954E+03	1.012856E-02	1.000262E-04
6.899940E+03	1.003269E-02	9.949565E-05
6.909925E+03	9.939484E-03	9.897179E-05
6.919911E+03	9.848786E-03	9.845375E-05
6.929896E+03	9.760991E-03	9.794600E-05
6.939882E+03	9.676240E-03	9.745054E-05
6.949867E+03	9.594460E-03	9.696721E-05
6.959853E+03	9.515905E-03	9.649914E-05
6.969838E+03	9.440581E-03	9.604698E-05
6.979823E+03	9.368285E-03	9.560920E-05
6.989809E+03	9.298957E-03	9.518571E-05
6.999794E+03	9.232477E-03	9.477579E-05
7.009780E+03	9.168874E-03	9.438021E-05
7.019765E+03	9.107601E-03	9.399377E-05
7.029751E+03	9.048756E-03	9.361793E-05
7.039736E+03	8.991691E-03	9.324634E-05
7.049722E+03	8.936243E-03	9.287767E-05
7.059707E+03	8.881834E-03	9.250621E-05
7.069692E+03	8.828207E-03	9.212959E-05
7.079678E+03	8.774915E-03	9.174339E-05
7.089663E+03	8.721326E-03	9.134123E-05
7.099649E+03	8.666810E-03	9.091673E-05
7.109634E+03	8.611322E-03	9.046962E-05
7.119620E+03	8.554341E-03	8.999459E-05
7.129605E+03	8.495576E-03	8.948880E-05
7.139590E+03	8.434774E-03	8.894976E-05
7.149576E+03	8.371535E-03	8.837347E-05
7.159561E+03	8.305831E-03	8.775984E-05
7.169547E+03	8.237298E-03	8.710528E-05
7.179532E+03	8.165741E-03	8.640794E-05
7.189518E+03	8.091134E-03	8.566786E-05
7.199503E+03	8.013144E-03	8.488178E-05
7.209489E+03	7.931773E-03	8.405004E-05
7.219474E+03	7.846572E-03	8.316822E-05
7.229459E+03	7.757647E-03	8.223782E-05
7.239445E+03	7.664998E-03	8.125922E-05
7.249430E+03	7.568699E-03	8.023362E-05
7.259416E+03	7.468906E-03	7.916314E-05
7.269401E+03	7.365838E-03	7.805054E-05
7.279387E+03	7.259639E-03	7.689784E-05
7.289372E+03	7.150816E-03	7.571090E-05
7.299358E+03	7.039729E-03	7.449405E-05
7.309343E+03	6.926793E-03	7.325219E-05
7.319328E+03	6.812302E-03	7.198895E-05
7.329314E+03	6.696861E-03	7.071124E-05
7.339299E+03	6.581093E-03	6.942611E-05
7.349285E+03	6.465182E-03	6.813603E-05
7.359270E+03	6.349726E-03	6.684774E-05
7.369256E+03	6.235168E-03	6.556636E-05
7.379241E+03	6.122109E-03	6.429863E-05
7.389227E+03	6.010862E-03	6.304823E-05
7.399212E+03	5.902052E-03	6.182206E-05
7.409197E+03	5.796358E-03	6.062756E-05
7.419183E+03	5.694253E-03	5.946993E-05
7.429168E+03	5.596650E-03	5.835892E-05
7.439154E+03	5.503995E-03	5.729936E-05
7.449139E+03	5.417127E-03	5.630006E-05
7.459125E+03	5.336622E-03	5.536707E-05
7.469110E+03	5.263247E-03	5.450831E-05
7.479095E+03	5.197270E-03	5.372649E-05
7.489081E+03	5.139221E-03	5.302697E-05
7.499066E+03	5.089352E-03	5.241216E-05
7.509052E+03	5.047584E-03	5.188108E-05
7.519037E+03	5.014058E-03	5.143496E-05
7.529023E+03	4.988335E-03	5.106907E-05
7.539008E+03	4.970208E-03	5.078111E-05
7.548994E+03	4.959180E-03	5.056578E-05
7.558979E+03	4.954971E-03	5.042010E-05
7.568964E+03	4.957072E-03	5.033874E-05
7.578950E+03	4.965233E-03	5.031905E-05
7.588935E+03	4.979038E-03	5.035676E-05
7.598921E+03	4.998268E-03	5.044962E-05
7.608906E+03	5.022913E-03	5.059754E-05
7.618892E+03	5.052831E-03	5.079908E-05
7.628877E+03	5.088113E-03	5.105524E-05
7.638863E+03	5.129082E-03	5.136931E-05
7.648848E+03	5.175897E-03	5.174298E-05
7.658833E+03	5.229009E-03	5.218087E-05
7.668819E+03	5.288523E-03	5.268417E-05
7.678804E+03	5.354986E-03	5.325850E-05
7.688790E+03	5.428539E-03	5.390549E-05
7.698775E+03	5.509028E-03	5.462387E-05
7.708761E+03	5.596345E-03	5.541292E-05
7.718746E+03	5.689768E-03	5.626594E-05
7.728732E+03	5.788421E-03	5.717478E-05
7.738717E+03	5.891303E-03	5.813022E-05
7.748702E+03	5.996948E-03	5.911853E-05
