#wls	flux	fluxerr
1.597671E+03	1.235029E-03	1.128138E-04
1.637612E+03	1.002765E-03	9.026745E-05
1.677554E+03	8.024472E-04	7.118056E-05
1.717496E+03	6.335552E-04	5.537641E-05
1.757438E+03	4.938563E-04	4.253400E-05
1.797379E+03	3.802624E-04	3.227262E-05
1.837321E+03	2.895309E-04	2.421601E-05
1.877263E+03	2.181235E-04	1.798177E-05
1.917205E+03	1.627926E-04	1.323056E-05
1.957146E+03	1.207129E-04	9.674526E-06
1.997088E+03	8.931065E-05	7.060911E-06
2.037030E+03	6.655459E-05	5.192738E-06
2.076972E+03	5.074862E-05	3.909448E-06
2.116914E+03	4.045064E-05	3.078465E-06
2.156855E+03	3.445071E-05	2.591738E-06
2.196797E+03	3.176922E-05	2.364029E-06
2.236739E+03	3.174827E-05	2.338230E-06
2.276681E+03	3.413007E-05	2.489372E-06
2.316622E+03	3.902555E-05	2.820637E-06
2.356564E+03	4.692768E-05	3.362928E-06
2.396506E+03	5.872958E-05	4.174989E-06
2.436448E+03	7.574013E-05	5.343515E-06
2.476389E+03	9.969186E-05	6.982780E-06
2.516331E+03	1.325868E-04	9.223037E-06
2.556273E+03	1.764181E-04	1.219076E-05
2.596215E+03	2.326747E-04	1.597471E-05
2.636156E+03	3.017511E-04	2.058657E-05
2.676098E+03	3.827050E-04	2.594656E-05
2.716040E+03	4.734633E-04	3.189973E-05
2.755982E+03	5.705777E-04	3.820158E-05
2.795924E+03	6.698073E-04	4.455955E-05
2.835865E+03	7.661117E-04	5.063431E-05
2.875807E+03	8.546695E-04	5.610877E-05
2.915749E+03	9.310819E-04	6.070154E-05
2.955691E+03	9.923688E-04	6.423131E-05
2.995632E+03	1.037086E-03	6.662189E-05
3.005618E+03	1.045744E-03	6.704821E-05
3.015603E+03	1.053302E-03	6.740078E-05
3.025589E+03	1.059939E-03	6.769135E-05
3.035574E+03	1.065623E-03	6.791826E-05
3.045560E+03	1.070463E-03	6.808868E-05
3.055545E+03	1.074646E-03	6.821485E-05
3.065530E+03	1.078111E-03	6.829303E-05
3.075516E+03	1.080951E-03	6.832941E-05
3.085501E+03	1.083114E-03	6.832080E-05
3.095487E+03	1.084704E-03	6.827395E-05
3.105472E+03	1.085750E-03	6.819084E-05
3.115458E+03	1.086285E-03	6.807377E-05
3.125443E+03	1.086345E-03	6.792510E-05
3.135429E+03	1.085900E-03	6.774303E-05
3.145414E+03	1.085131E-03	6.753913E-05
3.155399E+03	1.084011E-03	6.731169E-05
3.165385E+03	1.082584E-03	6.706355E-05
3.175370E+03	1.080960E-03	6.680165E-05
3.185356E+03	1.079118E-03	6.652468E-05
3.195341E+03	1.077167E-03	6.623944E-05
3.205327E+03	1.075151E-03	6.594860E-05
3.215312E+03	1.073113E-03	6.565482E-05
3.225298E+03	1.071029E-03	6.535665E-05
3.235283E+03	1.069071E-03	6.506442E-05
3.245268E+03	1.067275E-03	6.478035E-05
3.255254E+03	1.065616E-03	6.450272E-05
3.265239E+03	1.064193E-03	6.423742E-05
3.275225E+03	1.062977E-03	6.398263E-05
3.285210E+03	1.062124E-03	6.374746E-05
3.295196E+03	1.061602E-03	6.352984E-05
3.305181E+03	1.061498E-03	6.333473E-05
3.315166E+03	1.061779E-03	6.315990E-05
3.325152E+03	1.062584E-03	6.301339E-05
3.335137E+03	1.063877E-03	6.289266E-05
3.345123E+03	1.065676E-03	6.279853E-05
3.355108E+03	1.068111E-03	6.273827E-05
3.365094E+03	1.071140E-03	6.270896E-05
3.375079E+03	1.074774E-03	6.271096E-05
3.385065E+03	1.079135E-03	6.275081E-05
3.395050E+03	1.084175E-03	6.282528E-05
3.405035E+03	1.089901E-03	6.293430E-05
3.415021E+03	1.096478E-03	6.308687E-05
3.425006E+03	1.103801E-03	6.327638E-05
3.434992E+03	1.111979E-03	6.350841E-05
3.444977E+03	1.120958E-03	6.377934E-05
3.454963E+03	1.130894E-03	6.409738E-05
3.464948E+03	1.141734E-03	6.445873E-05
3.474934E+03	1.153578E-03	6.486834E-05
3.484919E+03	1.166372E-03	6.532242E-05
3.494904E+03	1.180268E-03	6.582861E-05
3.504890E+03	1.195213E-03	6.638308E-05
3.514875E+03	1.211309E-03	6.699055E-05
3.524861E+03	1.228555E-03	6.765007E-05
3.534846E+03	1.247006E-03	6.836357E-05
3.544832E+03	1.266616E-03	6.912755E-05
3.554817E+03	1.287443E-03	6.994409E-05
3.564803E+03	1.309451E-03	7.081004E-05
3.574788E+03	1.332604E-03	7.172250E-05
3.584773E+03	1.356970E-03	7.268396E-05
3.594759E+03	1.382476E-03	7.368938E-05
3.604744E+03	1.409149E-03	7.473897E-05
3.614730E+03	1.436973E-03	7.583082E-05
3.624715E+03	1.465986E-03	7.696571E-05
3.634701E+03	1.496184E-03	7.814214E-05
3.644686E+03	1.527612E-03	7.936129E-05
3.654671E+03	1.560227E-03	8.061957E-05
3.664657E+03	1.594187E-03	8.192382E-05
3.674642E+03	1.629402E-03	8.326805E-05
3.684628E+03	1.665990E-03	8.465679E-05
3.694613E+03	1.703917E-03	8.608684E-05
3.704599E+03	1.743306E-03	8.756291E-05
3.714584E+03	1.784175E-03	8.908422E-05
3.724570E+03	1.826495E-03	9.064769E-05
3.734555E+03	1.870434E-03	9.225994E-05
3.744540E+03	1.916008E-03	9.391994E-05
3.754526E+03	1.963173E-03	9.562360E-05
3.764511E+03	2.011979E-03	9.737158E-05
3.774497E+03	2.062526E-03	9.916667E-05
3.784482E+03	2.114737E-03	1.010032E-04
3.794468E+03	2.168690E-03	1.028829E-04
3.804453E+03	2.224281E-03	1.047989E-04
3.814439E+03	2.281558E-03	1.067512E-04
3.824424E+03	2.340437E-03	1.087339E-04
3.834409E+03	2.400820E-03	1.107406E-04
3.844395E+03	2.462639E-03	1.127662E-04
3.854380E+03	2.525815E-03	1.148053E-04
3.864366E+03	2.590240E-03	1.168513E-04
3.874351E+03	2.655679E-03	1.188918E-04
3.884337E+03	2.722046E-03	1.209218E-04
3.894322E+03	2.789121E-03	1.229302E-04
3.904308E+03	2.856730E-03	1.249083E-04
3.914293E+03	2.924682E-03	1.268468E-04
3.924278E+03	2.992654E-03	1.287313E-04
3.934264E+03	3.060495E-03	1.305548E-04
3.944249E+03	3.127922E-03	1.323055E-04
3.954235E+03	3.194655E-03	1.339717E-04
3.964220E+03	3.260591E-03	1.355497E-04
3.974206E+03	3.325321E-03	1.370234E-04
3.984191E+03	3.388631E-03	1.383851E-04
3.994176E+03	3.450373E-03	1.396304E-04
4.004162E+03	3.510285E-03	1.407504E-04
4.014147E+03	3.568052E-03	1.417347E-04
4.024133E+03	3.623626E-03	1.425839E-04
4.034118E+03	3.676789E-03	1.432919E-04
4.044104E+03	3.727267E-03	1.438510E-04
4.054089E+03	3.775067E-03	1.442647E-04
4.064075E+03	3.819952E-03	1.445273E-04
4.074060E+03	3.861837E-03	1.446392E-04
4.084045E+03	3.900588E-03	1.445992E-04
4.094031E+03	3.936224E-03	1.444119E-04
4.104016E+03	3.968651E-03	1.440779E-04
4.114002E+03	3.997800E-03	1.435989E-04
4.123987E+03	4.023749E-03	1.429819E-04
4.133973E+03	4.046408E-03	1.422280E-04
4.143958E+03	4.065967E-03	1.413481E-04
4.153944E+03	4.082314E-03	1.403426E-04
4.163929E+03	4.095687E-03	1.392239E-04
4.173914E+03	4.106094E-03	1.379965E-04
4.183900E+03	4.113817E-03	1.366738E-04
4.193885E+03	4.118855E-03	1.352597E-04
4.203871E+03	4.121548E-03	1.337690E-04
4.213856E+03	4.122130E-03	1.322127E-04
4.223842E+03	4.120804E-03	1.306006E-04
4.233827E+03	4.117863E-03	1.289448E-04
4.243813E+03	4.113618E-03	1.272576E-04
4.253798E+03	4.108528E-03	1.255555E-04
4.263783E+03	4.102824E-03	1.238473E-04
4.273769E+03	4.096944E-03	1.221477E-04
4.283754E+03	4.091332E-03	1.204710E-04
4.293740E+03	4.086444E-03	1.188310E-04
4.303725E+03	4.082631E-03	1.172382E-04
4.313711E+03	4.080419E-03	1.157073E-04
4.323696E+03	4.080277E-03	1.142509E-04
4.333681E+03	4.082675E-03	1.128811E-04
4.343667E+03	4.088017E-03	1.116072E-04
4.353652E+03	4.096867E-03	1.104429E-04
4.363638E+03	4.109666E-03	1.093978E-04
4.373623E+03	4.126842E-03	1.084805E-04
4.383609E+03	4.148856E-03	1.077003E-04
4.393594E+03	4.176093E-03	1.070641E-04
4.403580E+03	4.208960E-03	1.065792E-04
4.413565E+03	4.247772E-03	1.062502E-04
4.423550E+03	4.292801E-03	1.060805E-04
4.433536E+03	4.344151E-03	1.060697E-04
4.443521E+03	4.402039E-03	1.062201E-04
4.453507E+03	4.466321E-03	1.065256E-04
4.463492E+03	4.537050E-03	1.069853E-04
4.473478E+03	4.613872E-03	1.075892E-04
4.483463E+03	4.696368E-03	1.083266E-04
4.493449E+03	4.784071E-03	1.091864E-04
4.503434E+03	4.876159E-03	1.101504E-04
4.513419E+03	4.971880E-03	1.112033E-04
4.523405E+03	5.070335E-03	1.123271E-04
4.533390E+03	5.170475E-03	1.135018E-04
4.543376E+03	5.271326E-03	1.147100E-04
4.553361E+03	5.371747E-03	1.159315E-04
4.563347E+03	5.470718E-03	1.171479E-04
4.573332E+03	5.567105E-03	1.183370E-04
4.583318E+03	5.659945E-03	1.194802E-04
4.593303E+03	5.748296E-03	1.205594E-04
4.603288E+03	5.831302E-03	1.215582E-04
4.613274E+03	5.908302E-03	1.224643E-04
4.623259E+03	5.978636E-03	1.232651E-04
4.633245E+03	6.041932E-03	1.239535E-04
4.643230E+03	6.097905E-03	1.245242E-04
4.653216E+03	6.146506E-03	1.249760E-04
4.663201E+03	6.187836E-03	1.253103E-04
4.673186E+03	6.222075E-03	1.255300E-04
4.683172E+03	6.249667E-03	1.256427E-04
4.693157E+03	6.271106E-03	1.256567E-04
4.703143E+03	6.286963E-03	1.255816E-04
4.713128E+03	6.297956E-03	1.254293E-04
4.723114E+03	6.304768E-03	1.252114E-04
4.733099E+03	6.308317E-03	1.249434E-04
4.743085E+03	6.309307E-03	1.246366E-04
4.753070E+03	6.308628E-03	1.243060E-04
4.763055E+03	6.306932E-03	1.239617E-04
4.773041E+03	6.305020E-03	1.236166E-04
4.783026E+03	6.303439E-03	1.232787E-04
4.793012E+03	6.302523E-03	1.229518E-04
4.802997E+03	6.302688E-03	1.226415E-04
4.812983E+03	6.304353E-03	1.223532E-04
4.822968E+03	6.307736E-03	1.220887E-04
4.832954E+03	6.312926E-03	1.218472E-04
4.842939E+03	6.320167E-03	1.216309E-04
4.852924E+03	6.329522E-03	1.214388E-04
4.862910E+03	6.341087E-03	1.212704E-04
4.872895E+03	6.354996E-03	1.211259E-04
4.882881E+03	6.371162E-03	1.210017E-04
4.892866E+03	6.389698E-03	1.208976E-04
4.902852E+03	6.410575E-03	1.208111E-04
4.912837E+03	6.433980E-03	1.207435E-04
4.922823E+03	6.459843E-03	1.206916E-04
4.932808E+03	6.488248E-03	1.206549E-04
4.942793E+03	6.519446E-03	1.206361E-04
4.952779E+03	6.553510E-03	1.206344E-04
4.962764E+03	6.590598E-03	1.206509E-04
4.972750E+03	6.630909E-03	1.206871E-04
4.982735E+03	6.674728E-03	1.207459E-04
4.992721E+03	6.722216E-03	1.208282E-04
5.002706E+03	6.773629E-03	1.209363E-04
5.012691E+03	6.829285E-03	1.210734E-04
5.022677E+03	6.889515E-03	1.212431E-04
5.032662E+03	6.954423E-03	1.214444E-04
5.042648E+03	7.024304E-03	1.216800E-04
5.052633E+03	7.099360E-03	1.219505E-04
5.062619E+03	7.179758E-03	1.222559E-04
5.072604E+03	7.265700E-03	1.225968E-04
5.082590E+03	7.357255E-03	1.229714E-04
5.092575E+03	7.454373E-03	1.233759E-04
5.102560E+03	7.557006E-03	1.238067E-04
5.112546E+03	7.665121E-03	1.242604E-04
5.122531E+03	7.778545E-03	1.247319E-04
5.132517E+03	7.897027E-03	1.252146E-04
5.142502E+03	8.020173E-03	1.257005E-04
5.152488E+03	8.147760E-03	1.261844E-04
5.162473E+03	8.279177E-03	1.266560E-04
5.172459E+03	8.414003E-03	1.271083E-04
5.182444E+03	8.551679E-03	1.275331E-04
5.192429E+03	8.691698E-03	1.279240E-04
5.202415E+03	8.833255E-03	1.282709E-04
5.212400E+03	8.975788E-03	1.285685E-04
5.222386E+03	9.118630E-03	1.288110E-04
5.232371E+03	9.261220E-03	1.289952E-04
5.242357E+03	9.402721E-03	1.291153E-04
5.252342E+03	9.542597E-03	1.291711E-04
5.262328E+03	9.680246E-03	1.291623E-04
5.272313E+03	9.815102E-03	1.290905E-04
5.282298E+03	9.946530E-03	1.289578E-04
5.292284E+03	1.007424E-02	1.287717E-04
5.302269E+03	1.019758E-02	1.285360E-04
5.312255E+03	1.031610E-02	1.282584E-04
5.322240E+03	1.042953E-02	1.279496E-04
5.332226E+03	1.053746E-02	1.276195E-04
5.342211E+03	1.063945E-02	1.272780E-04
5.352196E+03	1.073515E-02	1.269369E-04
5.362182E+03	1.082425E-02	1.266087E-04
5.372167E+03	1.090660E-02	1.263080E-04
5.382153E+03	1.098182E-02	1.260464E-04
5.392138E+03	1.104999E-02	1.258402E-04
5.402124E+03	1.111120E-02	1.257056E-04
5.412109E+03	1.116560E-02	1.256576E-04
5.422095E+03	1.121289E-02	1.257056E-04
5.432080E+03	1.125280E-02	1.258565E-04
5.442065E+03	1.128485E-02	1.261044E-04
5.452051E+03	1.130886E-02	1.264389E-04
5.462036E+03	1.132479E-02	1.268493E-04
5.472022E+03	1.133283E-02	1.273260E-04
5.482007E+03	1.133303E-02	1.278566E-04
5.491993E+03	1.132561E-02	1.284297E-04
5.501978E+03	1.131097E-02	1.290352E-04
5.511964E+03	1.128924E-02	1.296596E-04
5.521949E+03	1.126105E-02	1.302950E-04
5.531934E+03	1.122687E-02	1.309321E-04
5.541920E+03	1.118714E-02	1.315612E-04
5.551905E+03	1.114246E-02	1.321754E-04
5.561891E+03	1.109372E-02	1.327719E-04
5.571876E+03	1.104145E-02	1.333442E-04
5.581862E+03	1.098661E-02	1.338926E-04
5.591847E+03	1.092991E-02	1.344147E-04
5.601833E+03	1.087214E-02	1.349109E-04
5.611818E+03	1.081424E-02	1.353836E-04
5.621803E+03	1.075696E-02	1.358350E-04
5.631789E+03	1.070104E-02	1.362673E-04
5.641774E+03	1.064716E-02	1.366832E-04
5.651760E+03	1.059588E-02	1.370849E-04
5.661745E+03	1.054768E-02	1.374740E-04
5.671731E+03	1.050295E-02	1.378517E-04
5.681716E+03	1.046202E-02	1.382189E-04
5.691701E+03	1.042502E-02	1.385743E-04
5.701687E+03	1.039180E-02	1.389135E-04
5.711672E+03	1.036232E-02	1.392332E-04
5.721658E+03	1.033627E-02	1.395273E-04
5.731643E+03	1.031323E-02	1.397879E-04
5.741629E+03	1.029264E-02	1.400057E-04
5.751614E+03	1.027374E-02	1.401684E-04
5.761600E+03	1.025601E-02	1.402670E-04
5.771585E+03	1.023849E-02	1.402871E-04
5.781570E+03	1.022032E-02	1.402154E-04
5.791556E+03	1.020059E-02	1.400382E-04
5.801541E+03	1.017848E-02	1.397436E-04
5.811527E+03	1.015290E-02	1.393159E-04
5.821512E+03	1.012321E-02	1.387462E-04
5.831498E+03	1.008841E-02	1.380214E-04
5.841483E+03	1.004802E-02	1.371357E-04
5.851469E+03	1.000137E-02	1.360812E-04
5.861454E+03	9.947886E-03	1.348528E-04
5.871439E+03	9.887478E-03	1.334515E-04
5.881425E+03	9.819771E-03	1.318758E-04
5.891410E+03	9.744859E-03	1.301310E-04
5.901396E+03	9.662881E-03	1.282235E-04
5.911381E+03	9.574021E-03	1.261609E-04
5.921367E+03	9.478806E-03	1.239557E-04
5.931352E+03	9.377688E-03	1.216200E-04
5.941338E+03	9.271226E-03	1.191674E-04
5.951323E+03	9.160364E-03	1.166165E-04
5.961308E+03	9.045833E-03	1.139836E-04
5.971294E+03	8.928321E-03	1.112841E-04
5.981279E+03	8.809024E-03	1.085398E-04
5.991265E+03	8.688598E-03	1.057657E-04
6.001250E+03	8.568154E-03	1.029820E-04
6.011236E+03	8.448429E-03	1.002040E-04
6.021221E+03	8.330392E-03	9.744984E-05
6.031207E+03	8.214799E-03	9.473448E-05
6.041192E+03	8.102528E-03	9.207418E-05
6.051177E+03	7.994219E-03	8.948220E-05
6.061163E+03	7.890620E-03	8.697284E-05
6.071148E+03	7.792156E-03	8.455674E-05
6.081134E+03	7.699595E-03	8.224829E-05
6.091119E+03	7.613216E-03	8.005669E-05
6.101105E+03	7.533395E-03	7.799245E-05
6.111090E+03	7.460679E-03	7.606818E-05
6.121075E+03	7.395133E-03	7.429197E-05
6.131061E+03	7.337088E-03	7.267520E-05
6.141046E+03	7.286653E-03	7.122768E-05
6.151032E+03	7.243962E-03	6.996017E-05
6.161017E+03	7.209095E-03	6.888363E-05
6.171003E+03	7.182085E-03	6.800927E-05
6.180988E+03	7.162775E-03	6.734715E-05
6.190974E+03	7.151203E-03	6.690968E-05
6.200959E+03	7.147061E-03	6.670633E-05
6.210944E+03	7.150094E-03	6.674719E-05
6.220930E+03	7.160173E-03	6.704333E-05
6.230915E+03	7.176983E-03	6.760359E-05
6.240901E+03	7.200180E-03	6.843273E-05
6.250886E+03	7.229394E-03	6.952585E-05
6.260872E+03	7.264455E-03	7.087750E-05
6.270857E+03	7.304756E-03	7.247712E-05
6.280843E+03	7.350047E-03	7.431689E-05
6.290828E+03	7.399800E-03	7.638563E-05
6.300813E+03	7.453518E-03	7.867194E-05
6.310799E+03	7.510660E-03	8.116352E-05
6.320784E+03	7.570546E-03	8.384615E-05
6.330770E+03	7.632628E-03	8.670663E-05
6.340755E+03	7.696159E-03	8.972913E-05
6.350741E+03	7.760553E-03	9.289918E-05
6.360726E+03	7.824989E-03	9.619904E-05
6.370712E+03	7.888969E-03	9.961438E-05
6.380697E+03	7.951815E-03	1.031282E-04
6.390682E+03	8.013139E-03	1.067267E-04
6.400668E+03	8.072161E-03	1.103907E-04
6.410653E+03	8.127723E-03	1.140947E-04
6.420639E+03	8.178560E-03	1.178105E-04
6.430624E+03	8.223490E-03	1.215093E-04
6.440610E+03	8.261471E-03	1.251630E-04
6.450595E+03	8.291679E-03	1.287456E-04
6.460580E+03	8.313213E-03	1.322289E-04
6.470566E+03	8.325856E-03	1.355947E-04
6.480551E+03	8.329104E-03	1.388199E-04
6.490537E+03	8.322640E-03	1.418842E-04
6.500522E+03	8.306553E-03	1.447740E-04
6.510508E+03	8.280435E-03	1.474675E-04
6.520493E+03	8.244483E-03	1.499537E-04
6.530479E+03	8.198815E-03	1.522204E-04
6.540464E+03	8.143554E-03	1.542564E-04
6.550449E+03	8.078941E-03	1.560531E-04
6.560435E+03	8.005424E-03	1.576069E-04
6.570420E+03	7.923553E-03	1.589170E-04
6.580406E+03	7.833778E-03	1.599821E-04
6.590391E+03	7.736921E-03	1.608092E-04
6.600377E+03	7.633579E-03	1.614026E-04
6.610362E+03	7.524503E-03	1.617707E-04
6.620348E+03	7.410669E-03	1.619283E-04
6.630333E+03	7.292697E-03	1.618841E-04
6.640318E+03	7.171581E-03	1.616563E-04
6.650304E+03	7.048040E-03	1.612583E-04
6.660289E+03	6.922944E-03	1.607084E-04
6.670275E+03	6.797040E-03	1.600232E-04
6.680260E+03	6.670950E-03	1.592175E-04
6.690246E+03	6.545497E-03	1.583121E-04
6.700231E+03	6.421116E-03	1.573191E-04
6.710217E+03	6.298508E-03	1.562581E-04
6.720202E+03	6.178072E-03	1.551420E-04
6.730187E+03	6.060300E-03	1.539863E-04
6.740173E+03	5.945387E-03	1.528000E-04
6.750158E+03	5.833866E-03	1.516005E-04
6.760144E+03	5.725818E-03	1.503942E-04
6.770129E+03	5.621428E-03	1.491904E-04
6.780115E+03	5.520989E-03	1.480013E-04
6.790100E+03	5.424371E-03	1.468278E-04
6.800085E+03	5.331854E-03	1.456820E-04
6.810071E+03	5.243316E-03	1.445648E-04
6.820056E+03	5.158894E-03	1.434844E-04
6.830042E+03	5.078347E-03	1.424381E-04
6.840027E+03	5.001836E-03	1.414346E-04
6.850013E+03	4.929229E-03	1.404739E-04
6.859998E+03	4.860374E-03	1.395554E-04
6.869984E+03	4.795256E-03	1.386821E-04
6.879969E+03	4.733778E-03	1.378546E-04
6.889954E+03	4.675774E-03	1.370713E-04
6.899940E+03	4.621275E-03	1.363358E-04
6.909925E+03	4.570044E-03	1.356442E-04
6.919911E+03	4.522042E-03	1.349978E-04
6.929896E+03	4.477103E-03	1.343940E-04
6.939882E+03	4.435194E-03	1.338341E-04
6.949867E+03	4.396208E-03	1.333171E-04
6.959853E+03	4.360049E-03	1.328419E-04
6.969838E+03	4.326561E-03	1.324055E-04
6.979823E+03	4.295647E-03	1.320067E-04
6.989809E+03	4.267275E-03	1.316459E-04
6.999794E+03	4.241353E-03	1.313216E-04
7.009780E+03	4.217726E-03	1.310302E-04
7.019765E+03	4.196301E-03	1.307701E-04
7.029751E+03	4.177045E-03	1.305410E-04
7.039736E+03	4.159800E-03	1.303389E-04
7.049722E+03	4.144464E-03	1.301614E-04
7.059707E+03	4.130937E-03	1.300059E-04
7.069692E+03	4.119115E-03	1.298697E-04
7.079678E+03	4.108949E-03	1.297517E-04
7.089663E+03	4.100211E-03	1.296451E-04
7.099649E+03	4.092838E-03	1.295480E-04
7.109634E+03	4.086723E-03	1.294574E-04
7.119620E+03	4.081737E-03	1.293693E-04
7.129605E+03	4.077764E-03	1.292801E-04
7.139590E+03	4.074616E-03	1.291838E-04
7.149576E+03	4.072232E-03	1.290785E-04
7.159561E+03	4.070428E-03	1.289584E-04
7.169547E+03	4.069144E-03	1.288215E-04
7.179532E+03	4.068205E-03	1.286621E-04
7.189518E+03	4.067491E-03	1.284765E-04
7.199503E+03	4.066900E-03	1.282612E-04
7.209489E+03	4.066394E-03	1.280152E-04
7.219474E+03	4.065757E-03	1.277316E-04
7.229459E+03	4.065035E-03	1.274117E-04
7.239445E+03	4.064032E-03	1.270495E-04
7.249430E+03	4.062752E-03	1.266452E-04
7.259416E+03	4.061091E-03	1.261957E-04
7.269401E+03	4.059081E-03	1.257020E-04
7.279387E+03	4.056708E-03	1.251639E-04
7.289372E+03	4.053843E-03	1.245777E-04
7.299358E+03	4.050635E-03	1.239482E-04
7.309343E+03	4.047117E-03	1.232765E-04
7.319328E+03	4.043202E-03	1.225604E-04
7.329314E+03	4.039021E-03	1.218041E-04
7.339299E+03	4.034651E-03	1.210102E-04
7.349285E+03	4.030182E-03	1.201816E-04
7.359270E+03	4.025657E-03	1.193198E-04
7.369256E+03	4.021257E-03	1.184305E-04
7.379241E+03	4.017103E-03	1.175172E-04
7.389227E+03	4.013271E-03	1.165823E-04
7.399212E+03	4.009903E-03	1.156298E-04
7.409197E+03	4.007141E-03	1.146638E-04
7.419183E+03	4.005078E-03	1.136867E-04
7.429168E+03	4.003930E-03	1.127043E-04
7.439154E+03	4.003782E-03	1.117185E-04
7.449139E+03	4.004919E-03	1.107367E-04
7.459125E+03	4.007351E-03	1.097584E-04
7.469110E+03	4.011354E-03	1.087902E-04
7.479095E+03	4.016916E-03	1.078308E-04
7.489081E+03	4.024298E-03	1.068858E-04
7.499066E+03	4.033600E-03	1.059566E-04
7.509052E+03	4.044849E-03	1.050422E-04
7.519037E+03	4.058122E-03	1.041431E-04
7.529023E+03	4.073540E-03	1.032605E-04
7.539008E+03	4.091072E-03	1.023918E-04
7.548994E+03	4.110807E-03	1.015372E-04
7.558979E+03	4.132664E-03	1.006928E-04
7.568964E+03	4.156685E-03	9.985741E-05
7.578950E+03	4.182749E-03	9.902624E-05
7.588935E+03	4.210919E-03	9.819879E-05
7.598921E+03	4.240948E-03	9.736736E-05
7.608906E+03	4.272781E-03	9.652901E-05
7.618892E+03	4.306196E-03	9.567715E-05
7.628877E+03	4.341161E-03	9.480983E-05
7.638863E+03	4.377326E-03	9.391830E-05
7.648848E+03	4.414622E-03	9.300045E-05
7.658833E+03	4.452656E-03	9.204772E-05
7.668819E+03	4.491237E-03	9.105638E-05
7.678804E+03	4.530084E-03	9.002144E-05
7.688790E+03	4.568980E-03	8.893992E-05
7.698775E+03	4.607454E-03	8.780453E-05
7.708761E+03	4.645264E-03	8.661338E-05
7.718746E+03	4.682076E-03	8.536369E-05
7.728732E+03	4.717553E-03	8.405356E-05
7.738717E+03	4.751429E-03	8.268333E-05
7.748702E+03	4.783196E-03	8.125020E-05
