#wls	flux	fluxerr
1.597671E+03	4.120533E-04	6.093725E-05
1.637612E+03	3.466443E-04	5.085806E-05
1.677554E+03	2.901238E-04	4.222321E-05
1.717496E+03	2.417390E-04	3.489419E-05
1.757438E+03	2.007287E-04	2.873440E-05
1.797379E+03	1.662341E-04	2.359653E-05
1.837321E+03	1.373282E-04	1.932738E-05
1.877263E+03	1.131475E-04	1.578686E-05
1.917205E+03	9.297562E-05	1.285910E-05
1.957146E+03	7.626371E-05	1.045454E-05
1.997088E+03	6.257036E-05	8.500778E-06
2.037030E+03	5.166163E-05	6.955370E-06
2.076972E+03	4.341057E-05	5.791234E-06
2.116914E+03	3.774207E-05	4.988696E-06
2.156855E+03	3.445551E-05	4.511985E-06
2.196797E+03	3.324133E-05	4.312181E-06
2.236739E+03	3.370450E-05	4.330894E-06
2.276681E+03	3.548830E-05	4.516542E-06
2.316622E+03	3.833321E-05	4.831499E-06
2.356564E+03	4.211248E-05	5.255946E-06
2.396506E+03	4.680080E-05	5.783185E-06
2.436448E+03	5.242775E-05	6.413299E-06
2.476389E+03	5.902623E-05	7.146556E-06
2.516331E+03	6.667063E-05	7.987939E-06
2.556273E+03	7.536672E-05	8.933814E-06
2.596215E+03	8.509377E-05	9.977285E-06
2.636156E+03	9.574646E-05	1.110162E-05
2.676098E+03	1.072278E-04	1.229144E-05
2.716040E+03	1.193686E-04	1.352355E-05
2.755982E+03	1.320244E-04	1.477831E-05
2.795924E+03	1.450013E-04	1.603123E-05
2.835865E+03	1.581264E-04	1.726111E-05
2.875807E+03	1.712463E-04	1.844976E-05
2.915749E+03	1.842687E-04	1.958623E-05
2.955691E+03	1.971223E-04	2.066233E-05
2.995632E+03	2.098169E-04	2.167863E-05
3.005618E+03	2.129943E-04	2.192626E-05
3.015603E+03	2.161632E-04	2.217023E-05
3.025589E+03	2.192952E-04	2.240764E-05
3.035574E+03	2.224538E-04	2.264499E-05
3.045560E+03	2.256571E-04	2.288404E-05
3.055545E+03	2.288939E-04	2.312361E-05
3.065530E+03	2.321618E-04	2.336338E-05
3.075516E+03	2.354886E-04	2.360609E-05
3.085501E+03	2.388426E-04	2.384850E-05
3.095487E+03	2.422531E-04	2.409344E-05
3.105472E+03	2.456890E-04	2.433776E-05
3.115458E+03	2.491803E-04	2.458437E-05
3.125443E+03	2.527276E-04	2.483324E-05
3.135429E+03	2.563002E-04	2.508127E-05
3.145414E+03	2.599616E-04	2.533459E-05
3.155399E+03	2.636503E-04	2.558712E-05
3.165385E+03	2.673994E-04	2.584199E-05
3.175370E+03	2.712427E-04	2.610236E-05
3.185356E+03	2.751187E-04	2.636220E-05
3.195341E+03	2.790942E-04	2.662782E-05
3.205327E+03	2.831402E-04	2.689629E-05
3.215312E+03	2.872595E-04	2.716781E-05
3.225298E+03	2.914882E-04	2.744563E-05
3.235283E+03	2.957978E-04	2.772692E-05
3.245268E+03	3.002247E-04	2.801496E-05
3.255254E+03	3.047407E-04	2.830694E-05
3.265239E+03	3.093831E-04	2.860617E-05
3.275225E+03	3.141570E-04	2.891294E-05
3.285210E+03	3.190673E-04	2.922750E-05
3.295196E+03	3.241195E-04	2.955014E-05
3.305181E+03	3.293191E-04	2.988115E-05
3.315166E+03	3.346720E-04	3.022083E-05
3.325152E+03	3.402178E-04	3.057252E-05
3.335137E+03	3.459292E-04	3.093350E-05
3.345123E+03	3.518121E-04	3.130402E-05
3.355108E+03	3.579077E-04	3.168748E-05
3.365094E+03	3.642230E-04	3.208418E-05
3.375079E+03	3.707652E-04	3.249442E-05
3.385065E+03	3.775067E-04	3.291544E-05
3.395050E+03	3.845250E-04	3.335368E-05
3.405035E+03	3.917928E-04	3.380636E-05
3.415021E+03	3.993538E-04	3.427683E-05
3.425006E+03	4.071447E-04	3.475929E-05
3.434992E+03	4.152814E-04	3.526318E-05
3.444977E+03	4.237011E-04	3.578270E-05
3.454963E+03	3.281810E-04	2.756379E-05
3.456960E+03	3.271843E-04	2.744969E-05
3.458957E+03	3.280460E-04	2.749151E-05
3.460954E+03	3.288835E-04	2.753110E-05
3.462951E+03	3.300443E-04	2.759756E-05
3.464948E+03	3.309325E-04	2.764100E-05
3.466945E+03	3.319207E-04	2.769260E-05
3.468942E+03	3.333819E-04	2.778340E-05
3.470939E+03	3.354413E-04	2.792371E-05
3.472936E+03	3.382739E-04	2.812790E-05
3.474934E+03	3.402874E-04	2.826350E-05
3.476931E+03	3.417545E-04	2.835337E-05
3.478928E+03	3.449425E-04	2.858555E-05
3.480925E+03	3.486572E-04	2.886071E-05
3.482922E+03	3.507535E-04	2.900132E-05
3.484919E+03	3.540996E-04	2.924474E-05
3.486916E+03	3.578734E-04	2.952279E-05
3.488913E+03	3.610259E-04	2.974891E-05
3.490910E+03	3.652065E-04	3.005902E-05
3.492907E+03	3.690906E-04	3.034395E-05
3.494904E+03	3.732786E-04	3.065308E-05
3.496902E+03	3.770198E-04	3.092473E-05
3.498899E+03	3.806643E-04	3.118773E-05
3.500896E+03	3.844373E-04	3.146053E-05
3.502893E+03	3.879380E-04	3.171034E-05
3.504890E+03	3.920439E-04	3.200886E-05
3.506887E+03	3.962792E-04	3.231713E-05
3.508884E+03	4.008449E-04	3.265148E-05
3.510881E+03	4.053393E-04	3.297915E-05
3.512878E+03	4.109442E-04	3.339616E-05
3.514875E+03	4.155985E-04	3.373493E-05
3.516872E+03	4.206093E-04	3.410168E-05
3.518869E+03	4.259774E-04	3.449639E-05
3.520867E+03	4.311993E-04	3.487822E-05
3.522864E+03	4.361236E-04	3.523498E-05
3.524861E+03	4.415569E-04	3.563185E-05
3.526858E+03	4.478278E-04	3.609515E-05
3.528855E+03	4.543568E-04	3.657801E-05
3.530852E+03	4.605890E-04	3.703572E-05
3.532849E+03	4.670292E-04	3.750892E-05
3.534846E+03	4.734502E-04	3.797930E-05
3.536843E+03	4.797003E-04	3.843473E-05
3.538840E+03	4.860828E-04	3.889952E-05
3.540837E+03	4.925220E-04	3.936759E-05
3.542835E+03	4.981822E-04	3.977220E-05
3.544832E+03	5.061532E-04	4.035995E-05
3.546829E+03	5.113184E-04	4.072266E-05
3.548826E+03	5.161586E-04	4.105850E-05
3.550823E+03	5.202930E-04	4.133729E-05
3.552820E+03	5.246850E-04	4.163569E-05
3.554817E+03	5.288272E-04	4.191341E-05
3.556814E+03	5.333292E-04	4.221877E-05
3.558811E+03	5.385216E-04	4.257782E-05
3.560808E+03	5.434900E-04	4.291813E-05
3.562805E+03	5.479034E-04	4.321367E-05
3.564803E+03	5.512261E-04	4.342241E-05
3.566800E+03	5.544756E-04	4.362470E-05
3.568797E+03	5.579066E-04	4.384059E-05
3.570794E+03	5.621565E-04	4.412004E-05
3.572791E+03	5.638087E-04	4.419501E-05
3.574788E+03	5.652070E-04	4.424974E-05
3.576785E+03	5.661471E-04	4.426833E-05
3.578782E+03	5.675477E-04	4.432267E-05
3.580779E+03	5.681063E-04	4.431102E-05
3.582776E+03	5.689466E-04	4.432117E-05
3.584773E+03	5.674339E-04	4.414804E-05
3.586770E+03	5.679418E-04	4.413218E-05
3.588768E+03	5.666574E-04	4.397709E-05
3.590765E+03	5.651156E-04	4.380226E-05
3.592762E+03	5.641105E-04	4.366924E-05
3.594759E+03	5.635661E-04	4.357199E-05
3.596756E+03	5.620460E-04	4.339948E-05
3.598753E+03	5.609352E-04	4.325879E-05
3.600750E+03	5.605938E-04	4.317754E-05
3.602747E+03	5.614599E-04	4.318920E-05
3.604744E+03	5.628152E-04	4.323825E-05
3.606741E+03	5.637348E-04	4.325355E-05
3.608738E+03	5.642434E-04	4.323715E-05
3.610736E+03	5.655764E-04	4.328370E-05
3.612733E+03	5.679412E-04	4.340881E-05
3.614730E+03	5.696899E-04	4.348639E-05
3.616727E+03	5.718786E-04	4.359714E-05
3.618724E+03	5.740696E-04	4.370758E-05
3.620721E+03	5.761594E-04	4.380987E-05
3.622718E+03	5.793620E-04	4.399621E-05
3.624715E+03	5.824126E-04	4.417036E-05
3.626712E+03	5.868365E-04	4.444788E-05
3.628709E+03	5.925836E-04	4.482458E-05
3.630706E+03	5.969135E-04	4.509304E-05
3.632704E+03	6.038883E-04	4.556015E-05
3.634701E+03	6.104299E-04	4.599320E-05
3.636698E+03	6.177035E-04	4.648000E-05
3.638695E+03	6.269032E-04	4.711006E-05
3.640692E+03	6.359825E-04	4.772921E-05
3.642689E+03	6.450189E-04	4.834331E-05
3.644686E+03	6.553627E-04	4.905343E-05
3.646683E+03	6.651715E-04	4.972146E-05
3.648680E+03	6.763158E-04	5.048720E-05
3.650677E+03	6.889015E-04	5.135813E-05
3.652674E+03	7.013441E-04	5.221585E-05
3.654671E+03	7.147102E-04	5.313972E-05
3.656669E+03	7.275431E-04	5.402129E-05
3.658666E+03	7.427340E-04	5.507510E-05
3.660663E+03	7.565587E-04	5.602466E-05
3.662660E+03	7.711802E-04	5.703034E-05
3.664657E+03	7.861297E-04	5.805727E-05
3.666654E+03	8.019559E-04	5.914583E-05
3.668651E+03	8.183210E-04	6.027085E-05
3.670648E+03	8.361664E-04	6.150143E-05
3.672645E+03	8.528534E-04	6.264330E-05
3.674642E+03	8.694007E-04	6.377152E-05
3.676639E+03	8.867504E-04	6.495515E-05
3.678637E+03	9.054010E-04	6.623040E-05
3.680634E+03	9.222632E-04	6.737121E-05
3.682631E+03	9.390117E-04	6.850028E-05
3.684628E+03	9.574301E-04	6.974758E-05
3.686625E+03	9.740569E-04	7.086078E-05
3.688622E+03	9.892570E-04	7.186694E-05
3.690619E+03	1.006023E-03	7.298358E-05
3.692616E+03	1.019758E-03	7.387717E-05
3.694613E+03	1.033060E-03	7.473667E-05
3.696610E+03	1.044746E-03	7.547659E-05
3.698607E+03	1.056233E-03	7.619980E-05
3.700605E+03	1.067337E-03	7.689305E-05
3.702602E+03	1.076636E-03	7.745407E-05
3.704599E+03	1.085944E-03	7.801387E-05
3.706596E+03	1.093627E-03	7.845513E-05
3.708593E+03	1.099287E-03	7.874981E-05
3.710590E+03	1.104187E-03	7.898897E-05
3.712587E+03	1.107772E-03	7.913311E-05
3.714584E+03	1.108348E-03	7.906185E-05
3.716581E+03	1.108714E-03	7.897540E-05
3.718578E+03	1.107705E-03	7.879104E-05
3.720575E+03	1.104921E-03	7.848079E-05
3.722572E+03	1.101791E-03	7.814647E-05
3.724570E+03	1.097572E-03	7.773557E-05
3.726567E+03	1.091811E-03	7.721645E-05
3.728564E+03	1.084055E-03	7.655755E-05
3.730561E+03	1.074247E-03	7.575550E-05
3.732558E+03	1.063182E-03	7.486683E-05
3.734555E+03	1.051308E-03	7.392351E-05
3.736552E+03	1.037349E-03	7.283615E-05
3.738549E+03	1.023190E-03	7.173752E-05
3.740546E+03	1.008404E-03	7.059787E-05
3.742543E+03	9.907534E-04	6.926095E-05
3.744540E+03	9.735380E-04	6.795795E-05
3.746538E+03	9.523863E-04	6.638405E-05
3.748535E+03	9.325728E-04	6.490757E-05
3.750532E+03	9.121515E-04	6.339286E-05
3.752529E+03	8.916556E-04	6.187711E-05
3.754526E+03	8.705772E-04	6.032516E-05
3.756523E+03	8.489958E-04	5.874267E-05
3.758520E+03	8.257068E-04	5.704660E-05
3.760517E+03	8.014032E-04	5.528527E-05
3.762514E+03	7.780377E-04	5.359351E-05
3.764511E+03	7.551831E-04	5.194166E-05
3.766508E+03	7.320897E-04	5.027807E-05
3.768506E+03	7.101517E-04	4.869841E-05
3.770503E+03	6.878951E-04	4.710142E-05
3.772500E+03	6.652925E-04	4.548533E-05
3.774497E+03	6.420210E-04	4.382819E-05
3.776494E+03	6.196114E-04	4.223457E-05
3.778491E+03	5.969627E-04	4.062926E-05
3.780488E+03	5.747198E-04	3.905617E-05
3.782485E+03	5.537449E-04	3.757368E-05
3.784482E+03	5.334475E-04	3.614139E-05
3.786479E+03	5.143675E-04	3.479562E-05
3.788476E+03	4.956443E-04	3.347787E-05
3.790473E+03	4.784921E-04	3.226992E-05
3.792471E+03	4.628869E-04	3.116965E-05
3.794468E+03	4.484798E-04	3.015315E-05
3.796465E+03	4.353000E-04	2.922200E-05
3.798462E+03	4.243496E-04	2.844299E-05
3.800459E+03	4.155515E-04	2.781026E-05
3.802456E+03	4.083408E-04	2.728541E-05
3.804453E+03	4.026658E-04	2.686450E-05
3.806450E+03	3.972013E-04	2.645877E-05
3.808447E+03	3.944152E-04	2.623229E-05
3.810444E+03	3.933351E-04	2.611966E-05
3.812441E+03	3.948597E-04	2.617994E-05
3.814439E+03	3.977714E-04	2.633170E-05
3.816436E+03	4.014744E-04	2.653516E-05
3.818433E+03	4.078737E-04	2.691575E-05
3.820430E+03	4.167288E-04	2.745680E-05
3.822427E+03	4.275539E-04	2.812559E-05
3.824424E+03	4.390182E-04	2.883410E-05
3.826421E+03	4.522397E-04	2.965543E-05
3.828418E+03	4.670036E-04	3.057498E-05
3.830415E+03	4.844855E-04	3.166910E-05
3.832412E+03	5.013873E-04	3.272171E-05
3.834409E+03	5.197837E-04	3.386817E-05
3.836407E+03	5.436674E-04	3.536774E-05
3.838404E+03	5.710790E-04	3.709146E-05
3.840401E+03	5.965800E-04	3.868555E-05
3.842398E+03	6.234524E-04	4.036309E-05
3.844395E+03	6.513151E-04	4.209901E-05
3.846392E+03	6.788543E-04	4.380822E-05
3.848389E+03	7.079343E-04	4.561093E-05
3.850386E+03	7.376525E-04	4.744860E-05
3.852383E+03	7.662801E-04	4.921000E-05
3.854380E+03	7.944746E-04	5.093763E-05
3.856377E+03	8.226755E-04	5.265975E-05
3.858374E+03	8.513223E-04	5.440445E-05
3.860372E+03	8.791506E-04	5.609090E-05
3.862369E+03	9.077830E-04	5.782274E-05
3.864366E+03	9.356511E-04	5.949995E-05
3.866363E+03	9.625601E-04	6.111041E-05
3.868360E+03	9.872950E-04	6.257741E-05
3.870357E+03	1.014461E-03	6.419305E-05
3.872354E+03	1.041301E-03	6.578239E-05
3.874351E+03	1.069224E-03	6.743435E-05
3.876348E+03	1.096628E-03	6.904777E-05
3.878345E+03	1.123706E-03	7.063490E-05
3.880342E+03	1.149322E-03	7.212461E-05
3.882340E+03	1.174471E-03	7.357966E-05
3.884337E+03	1.198653E-03	7.496893E-05
3.886334E+03	1.221146E-03	7.624760E-05
3.888331E+03	1.243362E-03	7.750425E-05
3.890328E+03	1.265854E-03	7.877347E-05
3.892325E+03	1.285986E-03	7.989125E-05
3.894322E+03	1.307144E-03	8.106842E-05
3.896319E+03	1.326937E-03	8.215664E-05
3.898316E+03	1.346255E-03	8.321126E-05
3.900313E+03	1.364622E-03	8.420315E-05
3.902310E+03	1.382845E-03	8.518229E-05
3.904308E+03	1.401538E-03	8.618643E-05
3.906305E+03	1.418971E-03	8.710930E-05
3.908302E+03	1.435589E-03	8.797851E-05
3.910299E+03	1.452284E-03	8.884893E-05
3.912296E+03	1.468357E-03	8.967786E-05
3.914293E+03	1.483780E-03	9.046373E-05
3.916290E+03	1.500175E-03	9.130547E-05
3.918287E+03	1.515219E-03	9.206166E-05
3.920284E+03	1.530787E-03	9.284643E-05
3.922281E+03	1.545983E-03	9.360538E-05
3.924278E+03	1.560076E-03	9.429448E-05
3.926275E+03	1.573824E-03	9.495969E-05
3.928273E+03	1.586465E-03	9.555539E-05
3.930270E+03	1.598505E-03	9.611224E-05
3.932267E+03	1.610617E-03	9.667089E-05
3.934264E+03	1.622774E-03	9.722963E-05
3.936261E+03	1.633764E-03	9.771602E-05
3.938258E+03	1.646291E-03	9.829182E-05
3.940255E+03	1.657171E-03	9.876679E-05
3.942252E+03	1.666769E-03	9.916321E-05
3.944249E+03	1.677536E-03	9.962700E-05
3.946246E+03	1.687698E-03	1.000526E-04
3.948243E+03	1.696826E-03	1.004150E-04
3.950241E+03	1.705573E-03	1.007528E-04
3.952238E+03	1.713227E-03	1.010243E-04
3.954235E+03	1.720325E-03	1.012616E-04
3.956232E+03	1.726470E-03	1.014413E-04
3.958229E+03	1.731830E-03	1.015736E-04
3.960226E+03	1.737084E-03	1.016987E-04
3.962223E+03	1.741382E-03	1.017667E-04
3.964220E+03	1.744150E-03	1.017446E-04
3.966217E+03	1.745985E-03	1.016675E-04
3.968214E+03	1.746572E-03	1.015175E-04
3.970211E+03	1.745709E-03	1.012833E-04
3.972209E+03	1.744105E-03	1.010064E-04
3.974206E+03	1.740333E-03	1.006044E-04
3.976203E+03	1.735732E-03	1.001554E-04
3.978200E+03	1.730352E-03	9.966257E-05
3.980197E+03	1.724740E-03	9.915747E-05
3.982194E+03	1.717692E-03	9.857121E-05
3.984191E+03	1.710293E-03	9.796625E-05
3.986188E+03	1.701053E-03	9.725770E-05
3.988185E+03	1.691687E-03	9.654386E-05
3.990182E+03	1.680993E-03	9.575635E-05
3.992179E+03	1.670314E-03	9.497194E-05
3.994176E+03	1.658387E-03	9.411904E-05
3.996174E+03	1.645872E-03	9.323530E-05
3.998171E+03	1.633830E-03	9.238095E-05
4.000168E+03	1.620335E-03	9.144718E-05
4.002165E+03	1.606795E-03	9.051370E-05
4.004162E+03	1.592834E-03	8.955946E-05
4.006159E+03	1.577502E-03	8.853120E-05
4.008156E+03	1.562928E-03	8.754869E-05
4.010153E+03	1.547615E-03	8.652792E-05
4.012150E+03	1.533004E-03	8.554958E-05
4.014147E+03	1.516584E-03	8.447353E-05
4.016144E+03	1.499622E-03	8.337087E-05
4.018142E+03	1.483014E-03	8.229145E-05
4.020139E+03	1.465979E-03	8.119191E-05
4.022136E+03	1.448662E-03	8.008036E-05
4.024133E+03	1.429815E-03	7.888808E-05
4.026130E+03	1.412654E-03	7.779266E-05
4.028127E+03	1.396777E-03	7.677142E-05
4.030124E+03	1.380792E-03	7.574765E-05
4.032121E+03	1.365746E-03	7.477862E-05
4.034118E+03	1.354722E-03	7.403262E-05
4.036115E+03	1.345168E-03	7.336915E-05
4.038112E+03	1.334466E-03	7.264522E-05
4.040110E+03	1.321943E-03	7.182464E-05
4.042107E+03	1.311329E-03	7.111022E-05
4.044104E+03	1.300467E-03	7.038466E-05
4.046101E+03	1.290730E-03	6.972217E-05
4.048098E+03	1.280922E-03	6.905793E-05
4.050095E+03	1.271745E-03	6.842971E-05
4.052092E+03	1.262555E-03	6.780281E-05
4.054089E+03	1.253822E-03	6.720234E-05
4.056086E+03	1.244902E-03	6.659372E-05
4.058083E+03	1.236439E-03	6.601143E-05
4.060080E+03	1.229198E-03	6.549604E-05
4.062077E+03	1.222006E-03	6.498482E-05
4.064075E+03	1.214422E-03	6.445437E-05
4.066072E+03	1.207564E-03	6.396398E-05
4.068069E+03	1.201520E-03	6.351813E-05
4.070066E+03	1.199327E-03	6.327670E-05
4.072063E+03	1.196777E-03	6.301703E-05
4.074060E+03	1.193546E-03	6.272214E-05
4.076057E+03	1.190311E-03	6.242775E-05
4.078054E+03	1.186541E-03	6.210607E-05
4.080051E+03	1.182322E-03	6.176182E-05
4.082048E+03	1.178808E-03	6.145521E-05
4.084045E+03	1.174876E-03	6.112760E-05
4.086043E+03	1.170494E-03	6.077755E-05
4.088040E+03	1.166551E-03	6.045120E-05
4.090037E+03	1.161862E-03	6.008712E-05
4.092034E+03	1.156484E-03	5.968854E-05
4.094031E+03	1.151663E-03	5.931981E-05
4.096028E+03	1.146658E-03	5.894266E-05
4.098025E+03	1.141318E-03	5.854949E-05
4.100022E+03	1.135883E-03	5.815255E-05
4.102019E+03	1.131572E-03	5.781424E-05
4.104016E+03	1.126361E-03	5.743101E-05
4.106013E+03	1.120875E-03	5.703491E-05
4.108011E+03	1.115859E-03	5.666389E-05
4.110008E+03	1.110657E-03	5.628454E-05
4.112005E+03	1.105538E-03	5.591051E-05
4.114002E+03	1.100950E-03	5.556442E-05
4.115999E+03	1.097404E-03	5.527180E-05
4.117996E+03	1.093254E-03	5.494964E-05
4.119993E+03	1.090477E-03	5.469727E-05
4.121990E+03	1.086857E-03	5.440334E-05
4.123987E+03	1.084223E-03	5.415946E-05
4.125984E+03	1.081375E-03	5.390553E-05
4.127981E+03	1.079305E-03	5.369095E-05
4.129978E+03	1.078495E-03	5.353947E-05
4.131976E+03	1.078408E-03	5.342398E-05
4.133973E+03	1.078261E-03	5.330562E-05
4.135970E+03	1.078656E-03	5.321414E-05
4.137967E+03	1.080591E-03	5.319845E-05
4.139964E+03	1.081292E-03	5.312178E-05
4.141961E+03	1.083384E-03	5.311326E-05
4.143958E+03	1.086296E-03	5.314448E-05
4.145955E+03	1.089545E-03	5.319167E-05
4.147952E+03	1.093224E-03	5.325918E-05
4.149949E+03	1.098242E-03	5.339112E-05
4.151946E+03	1.102964E-03	5.350779E-05
4.153944E+03	1.107572E-03	5.361804E-05
4.155941E+03	1.112825E-03	5.375860E-05
4.157938E+03	1.118178E-03	5.390296E-05
4.159935E+03	1.123326E-03	5.403648E-05
4.161932E+03	1.128513E-03	5.417089E-05
4.163929E+03	1.133342E-03	5.428720E-05
4.165926E+03	1.138788E-03	5.443213E-05
4.167923E+03	1.144243E-03	5.457646E-05
4.169920E+03	1.149768E-03	5.472307E-05
4.171917E+03	1.154720E-03	5.484151E-05
4.173914E+03	1.159436E-03	5.494782E-05
4.175912E+03	1.164772E-03	5.508257E-05
4.177909E+03	1.171554E-03	5.528465E-05
4.179906E+03	1.177153E-03	5.542968E-05
4.181903E+03	1.182729E-03	5.557266E-05
4.183900E+03	1.189266E-03	5.575964E-05
4.185897E+03	1.195444E-03	5.592864E-05
4.187894E+03	1.202246E-03	5.612566E-05
4.189891E+03	1.208291E-03	5.628610E-05
4.191888E+03	1.214560E-03	5.645590E-05
4.193885E+03	1.220377E-03	5.660358E-05
4.195882E+03	1.226913E-03	5.678345E-05
4.197879E+03	1.232995E-03	5.694124E-05
4.199877E+03	1.238439E-03	5.706850E-05
4.201874E+03	1.244201E-03	5.720939E-05
4.203871E+03	1.249663E-03	5.733551E-05
4.205868E+03	1.255535E-03	5.747947E-05
4.207865E+03	1.260860E-03	5.759735E-05
4.209862E+03	1.264953E-03	5.765818E-05
4.211859E+03	1.268742E-03	5.770453E-05
4.213856E+03	1.272414E-03	5.774491E-05
4.215853E+03	1.275470E-03	5.775684E-05
4.217850E+03	1.278469E-03	5.776573E-05
4.219847E+03	1.281131E-03	5.775895E-05
4.221845E+03	1.283392E-03	5.773378E-05
4.223842E+03	1.284754E-03	5.766794E-05
4.225839E+03	1.287833E-03	5.767890E-05
4.227836E+03	1.290230E-03	5.765895E-05
4.229833E+03	1.291133E-03	5.757201E-05
4.231830E+03	1.293318E-03	5.754215E-05
4.233827E+03	1.295758E-03	5.752329E-05
4.235824E+03	1.297137E-03	5.745715E-05
4.237821E+03	1.298707E-03	5.739932E-05
4.239818E+03	1.300248E-03	5.734008E-05
4.241815E+03	1.303173E-03	5.734158E-05
4.243813E+03	1.305003E-03	5.729464E-05
4.245810E+03	1.308093E-03	5.730272E-05
4.247807E+03	1.312510E-03	5.736832E-05
4.249804E+03	1.316682E-03	5.742258E-05
4.251801E+03	1.320955E-03	5.748062E-05
4.253798E+03	1.326307E-03	5.758485E-05
4.255795E+03	1.331699E-03	5.768996E-05
4.257792E+03	1.338710E-03	5.786421E-05
4.259789E+03	1.345796E-03	5.804049E-05
4.261786E+03	1.353810E-03	5.825555E-05
4.263783E+03	1.362692E-03	5.850651E-05
4.265780E+03	1.371968E-03	5.877286E-05
4.267778E+03	1.382368E-03	5.908567E-05
4.269775E+03	1.394498E-03	5.947047E-05
4.271772E+03	1.406647E-03	5.985398E-05
4.273769E+03	1.418594E-03	6.022676E-05
4.275766E+03	1.431418E-03	6.063466E-05
4.277763E+03	1.444454E-03	6.104928E-05
4.279760E+03	1.456873E-03	6.143566E-05
4.281757E+03	1.469249E-03	6.181808E-05
4.283754E+03	1.481708E-03	6.220188E-05
4.285751E+03	1.494890E-03	6.261383E-05
4.287748E+03	1.507422E-03	6.299638E-05
4.289746E+03	1.518567E-03	6.331898E-05
4.291743E+03	1.530019E-03	6.365248E-05
4.293740E+03	1.541489E-03	6.398483E-05
4.295737E+03	1.552336E-03	6.428952E-05
4.297734E+03	1.562014E-03	6.454412E-05
4.299731E+03	1.571258E-03	6.477930E-05
4.301728E+03	1.580903E-03	6.502949E-05
4.303725E+03	1.588987E-03	6.521415E-05
4.305722E+03	1.596828E-03	6.538759E-05
4.307719E+03	1.604102E-03	6.553669E-05
4.309716E+03	1.610033E-03	6.563003E-05
4.311714E+03	1.615813E-03	6.571641E-05
4.313711E+03	1.620441E-03	6.575523E-05
