#wls	flux	fluxerr
1.597671E+03	1.701975E-04	5.194656E-05
1.637612E+03	1.566823E-04	4.781905E-05
1.677554E+03	1.439138E-04	4.391978E-05
1.717496E+03	1.319112E-04	4.025464E-05
1.757438E+03	1.207232E-04	3.683838E-05
1.797379E+03	1.102533E-04	3.364159E-05
1.837321E+03	1.003728E-04	3.062498E-05
1.877263E+03	9.099518E-05	2.776210E-05
1.917205E+03	8.203853E-05	2.502796E-05
1.957146E+03	7.348792E-05	2.241798E-05
1.997088E+03	6.546417E-05	1.996902E-05
2.037030E+03	5.823764E-05	1.776351E-05
2.076972E+03	5.226262E-05	1.593997E-05
2.116914E+03	4.801514E-05	1.464350E-05
2.156855E+03	4.576560E-05	1.395648E-05
2.196797E+03	4.547074E-05	1.386559E-05
2.236739E+03	4.678474E-05	1.426525E-05
2.276681E+03	4.923992E-05	1.501276E-05
2.316622E+03	5.239848E-05	1.597458E-05
2.356564E+03	5.595726E-05	1.705824E-05
2.396506E+03	5.973073E-05	1.820714E-05
2.436448E+03	6.367204E-05	1.940699E-05
2.476389E+03	6.775037E-05	2.064838E-05
2.516331E+03	7.200465E-05	2.194316E-05
2.556273E+03	7.647790E-05	2.330441E-05
2.596215E+03	8.120440E-05	2.474256E-05
2.636156E+03	8.623876E-05	2.627422E-05
2.676098E+03	9.159608E-05	2.790395E-05
2.716040E+03	9.733562E-05	2.964977E-05
2.755982E+03	1.034764E-04	3.151745E-05
2.795924E+03	1.100470E-04	3.351561E-05
2.835865E+03	1.170882E-04	3.565667E-05
2.875807E+03	1.246272E-04	3.794883E-05
2.915749E+03	1.327063E-04	4.040496E-05
2.955691E+03	1.413707E-04	4.303869E-05
2.995632E+03	1.506684E-04	4.586460E-05
3.005618E+03	1.530815E-04	4.659797E-05
3.015603E+03	1.555603E-04	4.735130E-05
3.025589E+03	1.580722E-04	4.811465E-05
3.035574E+03	1.606372E-04	4.889415E-05
3.045560E+03	1.632505E-04	4.968827E-05
3.055545E+03	1.659587E-04	5.051124E-05
3.065530E+03	1.687252E-04	5.135191E-05
3.075516E+03	1.715648E-04	5.221476E-05
3.085501E+03	1.744753E-04	5.309915E-05
3.095487E+03	1.774548E-04	5.400449E-05
3.105472E+03	1.805015E-04	5.493022E-05
3.115458E+03	1.836137E-04	5.587583E-05
3.125443E+03	1.867900E-04	5.684088E-05
3.135429E+03	1.900288E-04	5.782490E-05
3.145414E+03	1.933472E-04	5.883309E-05
3.155399E+03	1.967262E-04	5.985965E-05
3.165385E+03	2.001458E-04	6.089851E-05
3.175370E+03	2.036609E-04	6.196635E-05
3.185356E+03	2.072148E-04	6.304594E-05
3.195341E+03	2.108632E-04	6.415423E-05
3.205327E+03	2.145489E-04	6.527378E-05
3.215312E+03	2.183093E-04	6.641597E-05
3.225298E+03	2.221441E-04	6.758075E-05
3.235283E+03	2.260335E-04	6.876206E-05
3.245268E+03	2.300161E-04	6.997166E-05
3.255254E+03	2.340529E-04	7.119765E-05
3.265239E+03	2.381433E-04	7.243991E-05
3.275225E+03	2.423271E-04	7.371046E-05
3.285210E+03	2.465840E-04	7.500319E-05
3.295196E+03	2.508943E-04	7.631207E-05
3.305181E+03	2.552980E-04	7.764926E-05
3.315166E+03	2.597749E-04	7.900865E-05
3.325152E+03	2.643251E-04	8.039025E-05
3.335137E+03	2.689690E-04	8.180027E-05
3.345123E+03	2.736863E-04	8.323248E-05
3.355108E+03	2.784768E-04	8.468689E-05
3.365094E+03	2.833614E-04	8.616982E-05
3.375079E+03	2.883400E-04	8.768126E-05
3.385065E+03	2.933922E-04	8.921494E-05
3.395050E+03	2.985382E-04	9.077706E-05
3.405035E+03	3.037781E-04	9.236765E-05
3.415021E+03	3.090909E-04	9.398030E-05
3.425006E+03	3.145189E-04	9.562785E-05
3.434992E+03	3.200402E-04	9.730368E-05
3.444977E+03	3.256551E-04	9.900783E-05
3.454963E+03	3.313843E-04	1.007467E-04
3.464948E+03	3.371845E-04	1.025069E-04
3.474934E+03	3.430981E-04	1.043016E-04
3.484919E+03	3.491249E-04	1.061305E-04
3.494904E+03	3.552644E-04	1.079935E-04
3.504890E+03	3.614934E-04	1.098837E-04
3.514875E+03	3.678333E-04	1.118074E-04
3.524861E+03	3.742832E-04	1.137645E-04
3.534846E+03	3.808420E-04	1.157545E-04
3.544832E+03	3.875082E-04	1.177770E-04
3.554817E+03	3.942804E-04	1.198316E-04
3.564803E+03	4.011800E-04	1.219248E-04
3.574788E+03	4.081824E-04	1.240491E-04
3.584773E+03	4.153086E-04	1.262109E-04
3.594759E+03	4.225341E-04	1.284027E-04
3.604744E+03	4.299023E-04	1.306377E-04
3.614730E+03	4.373656E-04	1.329015E-04
3.624715E+03	4.449444E-04	1.352002E-04
3.634701E+03	4.526360E-04	1.375330E-04
3.644686E+03	4.604609E-04	1.399062E-04
3.654671E+03	4.683934E-04	1.423118E-04
3.664657E+03	4.764303E-04	1.447491E-04
3.674642E+03	4.845918E-04	1.472240E-04
3.684628E+03	4.928516E-04	1.497287E-04
3.694613E+03	5.012523E-04	1.522760E-04
3.704599E+03	5.097445E-04	1.548508E-04
3.714584E+03	5.183705E-04	1.574662E-04
3.724570E+03	5.270804E-04	1.601069E-04
3.734555E+03	5.359167E-04	1.627858E-04
3.744540E+03	5.448520E-04	1.654945E-04
3.754526E+03	5.539053E-04	1.682389E-04
3.764511E+03	5.630496E-04	1.710108E-04
3.774497E+03	5.723034E-04	1.738158E-04
3.784482E+03	5.816627E-04	1.766525E-04
3.794468E+03	5.911227E-04	1.795197E-04
3.804453E+03	6.006793E-04	1.824160E-04
3.814439E+03	6.103509E-04	1.853470E-04
3.824424E+03	6.200867E-04	1.882973E-04
3.834409E+03	6.299288E-04	1.912797E-04
3.844395E+03	6.398495E-04	1.942858E-04
3.854380E+03	6.498676E-04	1.973212E-04
3.864366E+03	6.599788E-04	2.003846E-04
3.874351E+03	6.701791E-04	2.034749E-04
3.884337E+03	6.804411E-04	2.065838E-04
3.894322E+03	6.907843E-04	2.097170E-04
3.904308E+03	7.012279E-04	2.128805E-04
3.914293E+03	7.117227E-04	2.160594E-04
3.924278E+03	7.223114E-04	2.192665E-04
3.934264E+03	7.329681E-04	2.224940E-04
3.944249E+03	7.436902E-04	2.257412E-04
3.954235E+03	7.544983E-04	2.290142E-04
3.964220E+03	7.653454E-04	2.322989E-04
3.974206E+03	7.762978E-04	2.356152E-04
3.984191E+03	7.873089E-04	2.389492E-04
3.994176E+03	7.983787E-04	2.423007E-04
4.004162E+03	8.095290E-04	2.456764E-04
4.014147E+03	8.207382E-04	2.490698E-04
4.024133E+03	8.320068E-04	2.524810E-04
4.034118E+03	8.433589E-04	2.559172E-04
4.044104E+03	8.547957E-04	2.593789E-04
4.054089E+03	8.662757E-04	2.628535E-04
4.064075E+03	8.778459E-04	2.663552E-04
4.074060E+03	8.894879E-04	2.698784E-04
4.084045E+03	9.012056E-04	2.734243E-04
4.094031E+03	9.129821E-04	2.769879E-04
4.104016E+03	9.248657E-04	2.805837E-04
4.114002E+03	9.368188E-04	2.842003E-04
4.123987E+03	9.488474E-04	2.878396E-04
4.133973E+03	9.609800E-04	2.915101E-04
4.143958E+03	9.731806E-04	2.952011E-04
4.153944E+03	9.854780E-04	2.989211E-04
4.163929E+03	9.978805E-04	3.026728E-04
4.173914E+03	1.010354E-03	3.064456E-04
4.183900E+03	1.022927E-03	3.102487E-04
4.193885E+03	1.035611E-03	3.140847E-04
4.203871E+03	1.048371E-03	3.179439E-04
4.213856E+03	1.061238E-03	3.218351E-04
4.223842E+03	1.074201E-03	3.257552E-04
4.233827E+03	1.087249E-03	3.297007E-04
4.243813E+03	1.100391E-03	3.336745E-04
4.253798E+03	1.113637E-03	3.376795E-04
4.263783E+03	1.126975E-03	3.417123E-04
4.273769E+03	1.140395E-03	3.457695E-04
4.283754E+03	1.153885E-03	3.498477E-04
4.293740E+03	1.167453E-03	3.539494E-04
4.303725E+03	1.181088E-03	3.580709E-04
4.313711E+03	1.194797E-03	3.622148E-04
4.323696E+03	1.208547E-03	3.663706E-04
4.333681E+03	1.222344E-03	3.705407E-04
4.343667E+03	1.236175E-03	3.747204E-04
4.353652E+03	1.250043E-03	3.789115E-04
4.363638E+03	1.263894E-03	3.830968E-04
4.373623E+03	1.277770E-03	3.872896E-04
4.383609E+03	1.291614E-03	3.914724E-04
4.393594E+03	1.305427E-03	3.956455E-04
4.403580E+03	1.319190E-03	3.998032E-04
4.413565E+03	1.332902E-03	4.039450E-04
4.423550E+03	1.346541E-03	4.080647E-04
4.433536E+03	1.360085E-03	4.121552E-04
4.443521E+03	1.373530E-03	4.162154E-04
4.453507E+03	1.386871E-03	4.202439E-04
4.463492E+03	1.400062E-03	4.242268E-04
4.473478E+03	1.413098E-03	4.281622E-04
4.483463E+03	1.425989E-03	4.320537E-04
4.493449E+03	1.438689E-03	4.358869E-04
4.503434E+03	1.451227E-03	4.396710E-04
4.513419E+03	1.463535E-03	4.433851E-04
4.523405E+03	1.475642E-03	4.470380E-04
4.533390E+03	1.487538E-03	4.506267E-04
4.543376E+03	1.499191E-03	4.541417E-04
4.553361E+03	1.510590E-03	4.575797E-04
4.563347E+03	1.521725E-03	4.609372E-04
4.573332E+03	1.532603E-03	4.642169E-04
4.583318E+03	1.543214E-03	4.674156E-04
4.593303E+03	1.553507E-03	4.705177E-04
4.603288E+03	1.563532E-03	4.735383E-04
4.613274E+03	1.573237E-03	4.764622E-04
4.623259E+03	1.582615E-03	4.792867E-04
4.633245E+03	1.591676E-03	4.820149E-04
4.643230E+03	1.600412E-03	4.846446E-04
4.653216E+03	1.608816E-03	4.871736E-04
4.663201E+03	1.616860E-03	4.895938E-04
4.673186E+03	1.624561E-03	4.919097E-04
4.683172E+03	1.631912E-03	4.941198E-04
4.693157E+03	1.638891E-03	4.962170E-04
4.703143E+03	1.645516E-03	4.982068E-04
4.713128E+03	1.651783E-03	5.000884E-04
4.723114E+03	1.657694E-03	5.018618E-04
4.733099E+03	1.663228E-03	5.035213E-04
4.743085E+03	1.668407E-03	5.050732E-04
4.753070E+03	1.673254E-03	5.065243E-04
4.763055E+03	1.677731E-03	5.078636E-04
4.773041E+03	1.681883E-03	5.091046E-04
4.783026E+03	1.685716E-03	5.102486E-04
4.793012E+03	1.689214E-03	5.112916E-04
4.802997E+03	1.692425E-03	5.122475E-04
4.812983E+03	1.695336E-03	5.131126E-04
4.822968E+03	1.697974E-03	5.138953E-04
4.832954E+03	1.700349E-03	5.145981E-04
4.842939E+03	1.702488E-03	5.152298E-04
4.852924E+03	1.704402E-03	5.157932E-04
4.862910E+03	1.706120E-03	5.162972E-04
4.872895E+03	1.707651E-03	5.167448E-04
4.882881E+03	1.709025E-03	5.171451E-04
4.892866E+03	1.710254E-03	5.175013E-04
4.902852E+03	1.711347E-03	5.178165E-04
4.912837E+03	1.712334E-03	5.180999E-04
4.922823E+03	1.713227E-03	5.183546E-04
4.932808E+03	1.714075E-03	5.185956E-04
4.942793E+03	1.714867E-03	5.188201E-04
4.952779E+03	1.715616E-03	5.190312E-04
4.962764E+03	1.716349E-03	5.192378E-04
4.972750E+03	1.717096E-03	5.194487E-04
4.982735E+03	1.717846E-03	5.196606E-04
4.992721E+03	1.718628E-03	5.198823E-04
5.002706E+03	1.719451E-03	5.201162E-04
5.012691E+03	1.720341E-03	5.203704E-04
5.022677E+03	1.721304E-03	5.206472E-04
5.032662E+03	1.722349E-03	5.209486E-04
5.042648E+03	1.723481E-03	5.212763E-04
5.052633E+03	1.724705E-03	5.216320E-04
5.062619E+03	1.726045E-03	5.220227E-04
5.072604E+03	1.727505E-03	5.224498E-04
5.082590E+03	1.729068E-03	5.229080E-04
5.092575E+03	1.730774E-03	5.234098E-04
5.102560E+03	1.732606E-03	5.239497E-04
5.112546E+03	1.734564E-03	5.245277E-04
5.122531E+03	1.736667E-03	5.251494E-04
5.132517E+03	1.738893E-03	5.258087E-04
5.142502E+03	1.741241E-03	5.265048E-04
5.152488E+03	1.743727E-03	5.272424E-04
5.162473E+03	1.746345E-03	5.280203E-04
5.172459E+03	1.749091E-03	5.288369E-04
5.182444E+03	1.751940E-03	5.296847E-04
5.192429E+03	1.754904E-03	5.305674E-04
5.202415E+03	1.757957E-03	5.314770E-04
5.212400E+03	1.761109E-03	5.324167E-04
5.222386E+03	1.764352E-03	5.333838E-04
5.232371E+03	1.767656E-03	5.343695E-04
5.242357E+03	1.771012E-03	5.353708E-04
5.252342E+03	1.774427E-03	5.363902E-04
5.262328E+03	1.777871E-03	5.374184E-04
5.272313E+03	1.781313E-03	5.384461E-04
5.282298E+03	1.784780E-03	5.394812E-04
5.292284E+03	1.788201E-03	5.405026E-04
5.302269E+03	1.791602E-03	5.415181E-04
5.312255E+03	1.794951E-03	5.425180E-04
5.322240E+03	1.798217E-03	5.434928E-04
5.332226E+03	1.801405E-03	5.444441E-04
5.342211E+03	1.804464E-03	5.453567E-04
5.352196E+03	1.807402E-03	5.462326E-04
5.362182E+03	1.810187E-03	5.470623E-04
5.372167E+03	1.812787E-03	5.478363E-04
5.382153E+03	1.815191E-03	5.485513E-04
5.392138E+03	1.817369E-03	5.491980E-04
5.402124E+03	1.819311E-03	5.497734E-04
5.412109E+03	1.820987E-03	5.502686E-04
5.422095E+03	1.822387E-03	5.506808E-04
5.432080E+03	1.823506E-03	5.510077E-04
5.442065E+03	1.824276E-03	5.512297E-04
5.452051E+03	1.824749E-03	5.513619E-04
5.462036E+03	1.824861E-03	5.513853E-04
5.472022E+03	1.824627E-03	5.513043E-04
5.482007E+03	1.824044E-03	5.511177E-04
5.491993E+03	1.823107E-03	5.508244E-04
5.501978E+03	1.821795E-03	5.504182E-04
5.511964E+03	1.820165E-03	5.499159E-04
5.521949E+03	1.818178E-03	5.493059E-04
5.531934E+03	1.815873E-03	5.485999E-04
5.541920E+03	1.813230E-03	5.477923E-04
5.551905E+03	1.810292E-03	5.468953E-04
5.561891E+03	1.807078E-03	5.459154E-04
5.571876E+03	1.803592E-03	5.448533E-04
5.581862E+03	1.799837E-03	5.437103E-04
5.591847E+03	1.795855E-03	5.424988E-04
5.601833E+03	1.791631E-03	5.412144E-04
5.611818E+03	1.787208E-03	5.398700E-04
5.621803E+03	1.782590E-03	5.384669E-04
5.631789E+03	1.777782E-03	5.370065E-04
5.641774E+03	1.772826E-03	5.355017E-04
5.651760E+03	1.767690E-03	5.339425E-04
5.661745E+03	1.762434E-03	5.323474E-04
5.671731E+03	1.757026E-03	5.307066E-04
5.681716E+03	1.751508E-03	5.290327E-04
5.691701E+03	1.745884E-03	5.273268E-04
5.701687E+03	1.740140E-03	5.255849E-04
5.711672E+03	1.734298E-03	5.238137E-04
5.721658E+03	1.728381E-03	5.220199E-04
5.731643E+03	1.722355E-03	5.201934E-04
5.741629E+03	1.716279E-03	5.183520E-04
5.751614E+03	1.710120E-03	5.164856E-04
5.761600E+03	1.703880E-03	5.145950E-04
5.771585E+03	1.697599E-03	5.126922E-04
5.781570E+03	1.691243E-03	5.107671E-04
5.791556E+03	1.684834E-03	5.088257E-04
5.801541E+03	1.678373E-03	5.068691E-04
5.811527E+03	1.671845E-03	5.048924E-04
5.821512E+03	1.665289E-03	5.029074E-04
5.831498E+03	1.658672E-03	5.009038E-04
5.841483E+03	1.652012E-03	4.988879E-04
5.851469E+03	1.645314E-03	4.968605E-04
5.861454E+03	1.638563E-03	4.948170E-04
5.871439E+03	1.631778E-03	4.927636E-04
5.881425E+03	1.624944E-03	4.906957E-04
5.891410E+03	1.618066E-03	4.886143E-04
5.901396E+03	1.611145E-03	4.865205E-04
5.911381E+03	1.604185E-03	4.844149E-04
5.921367E+03	1.597190E-03	4.822989E-04
5.931352E+03	1.590162E-03	4.801730E-04
5.941338E+03	1.583088E-03	4.780334E-04
5.951323E+03	1.575972E-03	4.758811E-04
5.961308E+03	1.568799E-03	4.737120E-04
5.971294E+03	1.561607E-03	4.715373E-04
5.981279E+03	1.554367E-03	4.693480E-04
5.991265E+03	1.547080E-03	4.671450E-04
6.001250E+03	1.539752E-03	4.649294E-04
6.011236E+03	1.532367E-03	4.626971E-04
6.021221E+03	1.524930E-03	4.604491E-04
6.031207E+03	1.517460E-03	4.581911E-04
6.041192E+03	1.509926E-03	4.559142E-04
6.051177E+03	1.502332E-03	4.536191E-04
6.061163E+03	1.494679E-03	4.513065E-04
6.071148E+03	1.486969E-03	4.489768E-04
6.081134E+03	1.479205E-03	4.466307E-04
6.091119E+03	1.471355E-03	4.442589E-04
6.101105E+03	1.463436E-03	4.418665E-04
6.111090E+03	1.455449E-03	4.394535E-04
6.121075E+03	1.447378E-03	4.370157E-04
6.131061E+03	1.439224E-03	4.345527E-04
6.141046E+03	1.430986E-03	4.320644E-04
6.151032E+03	1.422664E-03	4.295508E-04
6.161017E+03	1.414256E-03	4.270114E-04
6.171003E+03	1.405745E-03	4.244410E-04
6.180988E+03	1.397144E-03	4.218440E-04
6.190974E+03	1.388438E-03	4.192148E-04
6.200959E+03	1.379623E-03	4.165531E-04
6.210944E+03	1.370711E-03	4.138623E-04
6.220930E+03	1.361700E-03	4.111416E-04
6.230915E+03	1.352572E-03	4.083856E-04
6.240901E+03	1.343323E-03	4.055934E-04
6.250886E+03	1.333980E-03	4.027728E-04
6.260872E+03	1.324510E-03	3.999139E-04
6.270857E+03	1.314923E-03	3.970200E-04
6.280843E+03	1.305203E-03	3.940858E-04
6.290828E+03	1.295389E-03	3.911233E-04
6.300813E+03	1.285434E-03	3.881186E-04
6.310799E+03	1.275351E-03	3.850750E-04
6.320784E+03	1.265150E-03	3.819961E-04
6.330770E+03	1.254830E-03	3.788811E-04
6.340755E+03	1.244374E-03	3.757253E-04
6.350741E+03	1.233794E-03	3.725322E-04
6.360726E+03	1.223091E-03	3.693018E-04
6.370712E+03	1.212249E-03	3.660296E-04
6.380697E+03	1.201283E-03	3.627200E-04
6.390682E+03	1.190208E-03	3.593775E-04
6.400668E+03	1.178998E-03	3.559943E-04
6.410653E+03	1.167669E-03	3.525753E-04
6.420639E+03	1.156238E-03	3.491257E-04
6.430624E+03	1.144684E-03	3.456387E-04
6.440610E+03	1.133038E-03	3.421241E-04
6.450595E+03	1.121293E-03	3.385794E-04
6.460580E+03	1.109468E-03	3.350108E-04
6.470566E+03	1.097547E-03	3.314131E-04
6.480551E+03	1.085575E-03	3.278001E-04
6.490537E+03	1.073536E-03	3.241671E-04
6.500522E+03	1.061455E-03	3.205211E-04
6.510508E+03	1.049340E-03	3.168652E-04
6.520493E+03	1.037205E-03	3.132028E-04
6.530479E+03	1.025072E-03	3.095413E-04
6.540464E+03	1.012953E-03	3.058841E-04
6.550449E+03	1.000862E-03	3.022354E-04
6.560435E+03	9.888124E-04	2.985989E-04
6.570420E+03	9.768276E-04	2.949821E-04
6.580406E+03	9.649100E-04	2.913856E-04
6.590391E+03	9.530957E-04	2.878203E-04
6.600377E+03	9.413980E-04	2.842902E-04
6.610362E+03	9.298296E-04	2.807992E-04
6.620348E+03	9.184032E-04	2.773510E-04
6.630333E+03	9.071317E-04	2.739495E-04
6.640318E+03	8.960488E-04	2.706050E-04
6.650304E+03	8.851443E-04	2.673144E-04
6.660289E+03	8.744512E-04	2.640876E-04
6.670275E+03	8.639799E-04	2.609277E-04
6.680260E+03	8.537404E-04	2.578378E-04
6.690246E+03	8.437521E-04	2.548238E-04
6.700231E+03	8.340135E-04	2.518852E-04
6.710217E+03	8.245427E-04	2.490274E-04
6.720202E+03	8.153472E-04	2.462528E-04
6.730187E+03	8.064333E-04	2.435631E-04
6.740173E+03	7.978171E-04	2.409634E-04
6.750158E+03	7.894937E-04	2.384521E-04
6.760144E+03	7.814868E-04	2.360363E-04
6.770129E+03	7.737810E-04	2.337115E-04
6.780115E+03	7.663985E-04	2.314843E-04
6.790100E+03	7.593320E-04	2.293526E-04
6.800085E+03	7.525829E-04	2.273166E-04
6.810071E+03	7.461722E-04	2.253829E-04
6.820056E+03	7.400711E-04	2.235427E-04
6.830042E+03	7.343082E-04	2.218046E-04
6.840027E+03	7.288736E-04	2.201657E-04
6.850013E+03	7.237660E-04	2.186256E-04
6.859998E+03	7.189837E-04	2.171837E-04
6.869984E+03	7.145250E-04	2.158395E-04
6.879969E+03	7.103872E-04	2.145923E-04
6.889954E+03	7.065768E-04	2.134440E-04
6.899940E+03	7.030814E-04	2.123908E-04
6.909925E+03	6.999065E-04	2.114344E-04
6.919911E+03	6.970391E-04	2.105710E-04
6.929896E+03	6.944754E-04	2.097993E-04
6.939882E+03	6.922199E-04	2.091207E-04
6.949867E+03	6.902586E-04	2.085310E-04
6.959853E+03	6.885962E-04	2.080315E-04
6.969838E+03	6.872182E-04	2.076181E-04
6.979823E+03	6.861190E-04	2.072889E-04
6.989809E+03	6.853028E-04	2.070452E-04
6.999794E+03	6.847634E-04	2.068851E-04
7.009780E+03	6.844770E-04	2.068015E-04
7.019765E+03	6.844557E-04	2.067980E-04
7.029751E+03	6.846844E-04	2.068700E-04
7.039736E+03	6.851566E-04	2.070157E-04
7.049722E+03	6.858748E-04	2.072357E-04
7.059707E+03	6.868143E-04	2.075227E-04
7.069692E+03	6.879773E-04	2.078771E-04
7.079678E+03	6.893572E-04	2.082972E-04
7.089663E+03	6.909470E-04	2.087807E-04
7.099649E+03	6.927299E-04	2.093226E-04
7.109634E+03	6.947085E-04	2.099237E-04
7.119620E+03	6.968656E-04	2.105787E-04
7.129605E+03	6.991939E-04	2.112856E-04
7.139590E+03	7.016857E-04	2.120419E-04
7.149576E+03	7.043238E-04	2.128424E-04
7.159561E+03	7.071197E-04	2.136907E-04
7.169547E+03	7.100360E-04	2.145754E-04
7.179532E+03	7.130842E-04	2.155000E-04
7.189518E+03	7.162467E-04	2.164592E-04
7.199503E+03	7.195148E-04	2.174504E-04
7.209489E+03	7.228708E-04	2.184682E-04
7.219474E+03	7.263059E-04	2.195100E-04
7.229459E+03	7.298116E-04	2.205732E-04
7.239445E+03	7.333691E-04	2.216521E-04
7.249430E+03	7.369798E-04	2.227472E-04
7.259416E+03	7.406249E-04	2.238526E-04
7.269401E+03	7.442850E-04	2.249627E-04
7.279387E+03	7.479619E-04	2.260779E-04
7.289372E+03	7.516257E-04	2.271893E-04
7.299358E+03	7.552776E-04	2.282971E-04
7.309343E+03	7.588980E-04	2.293955E-04
7.319328E+03	7.624781E-04	2.304817E-04
7.329314E+03	7.659981E-04	2.315498E-04
7.339299E+03	7.694487E-04	2.325970E-04
7.349285E+03	7.728207E-04	2.336206E-04
7.359270E+03	7.760944E-04	2.346144E-04
7.369256E+03	7.792602E-04	2.355757E-04
7.379241E+03	7.823096E-04	2.365019E-04
7.389227E+03	7.852221E-04	2.373868E-04
7.399212E+03	7.879888E-04	2.382276E-04
7.409197E+03	7.906114E-04	2.390250E-04
7.419183E+03	7.930596E-04	2.397697E-04
7.429168E+03	7.953464E-04	2.404656E-04
7.439154E+03	7.974517E-04	2.411067E-04
7.449139E+03	7.993569E-04	2.416874E-04
7.459125E+03	8.010752E-04	2.422116E-04
7.469110E+03	8.025982E-04	2.426768E-04
7.479095E+03	8.039072E-04	2.430773E-04
7.489081E+03	8.049946E-04	2.434110E-04
7.499066E+03	8.058749E-04	2.436820E-04
7.509052E+03	8.065299E-04	2.438849E-04
7.519037E+03	8.069636E-04	2.440210E-04
7.529023E+03	8.071585E-04	2.440848E-04
7.539008E+03	8.071299E-04	2.440812E-04
7.548994E+03	8.068611E-04	2.440049E-04
7.558979E+03	8.063571E-04	2.438575E-04
7.568964E+03	8.056124E-04	2.436374E-04
7.578950E+03	8.046225E-04	2.433431E-04
7.588935E+03	8.033935E-04	2.429766E-04
7.598921E+03	8.019098E-04	2.425330E-04
7.608906E+03	8.001900E-04	2.420180E-04
7.618892E+03	7.982085E-04	2.414239E-04
7.628877E+03	7.959844E-04	2.407565E-04
7.638863E+03	7.935044E-04	2.400116E-04
7.648848E+03	7.907774E-04	2.391920E-04
7.658833E+03	7.877912E-04	2.382941E-04
7.668819E+03	7.845671E-04	2.373241E-04
7.678804E+03	7.810827E-04	2.362755E-04
7.688790E+03	7.773604E-04	2.351548E-04
7.698775E+03	7.733795E-04	2.339559E-04
7.708761E+03	7.691635E-04	2.326859E-04
7.718746E+03	7.647039E-04	2.313421E-04
7.728732E+03	7.600038E-04	2.299256E-04
7.738717E+03	7.550780E-04	2.284407E-04
7.748702E+03	7.499096E-04	2.268825E-04
