#wls	flux	fluxerr
1.597671E+03	1.397491E-04	6.755245E-05
1.637612E+03	1.358485E-04	6.566666E-05
1.677554E+03	1.316856E-04	6.365411E-05
1.717496E+03	1.272941E-04	6.153106E-05
1.757438E+03	1.226628E-04	5.929213E-05
1.797379E+03	1.177230E-04	5.690407E-05
1.837321E+03	1.124047E-04	5.433305E-05
1.877263E+03	1.066128E-04	5.153316E-05
1.917205E+03	1.002630E-04	4.846363E-05
1.957146E+03	9.340992E-05	4.515084E-05
1.997088E+03	8.622187E-05	4.167617E-05
2.037030E+03	7.920507E-05	3.828432E-05
2.076972E+03	7.310438E-05	3.533530E-05
2.116914E+03	6.878057E-05	3.324517E-05
2.156855E+03	6.685477E-05	3.231414E-05
2.196797E+03	6.746167E-05	3.260728E-05
2.236739E+03	7.017735E-05	3.391967E-05
2.276681E+03	7.436990E-05	3.594588E-05
2.316622E+03	7.936192E-05	3.835846E-05
2.356564E+03	8.463625E-05	4.090745E-05
2.396506E+03	8.992811E-05	4.346488E-05
2.436448E+03	9.505643E-05	4.594322E-05
2.476389E+03	1.000119E-04	4.833800E-05
2.516331E+03	1.048161E-04	5.065959E-05
2.556273E+03	1.094995E-04	5.292275E-05
2.596215E+03	1.141478E-04	5.516892E-05
2.636156E+03	1.187981E-04	5.741602E-05
2.676098E+03	1.235151E-04	5.969530E-05
2.716040E+03	1.283229E-04	6.201846E-05
2.755982E+03	1.332743E-04	6.441090E-05
2.795924E+03	1.383986E-04	6.688690E-05
2.835865E+03	1.437204E-04	6.945827E-05
2.875807E+03	1.492791E-04	7.214410E-05
2.915749E+03	1.550920E-04	7.495275E-05
2.955691E+03	1.611732E-04	7.789095E-05
2.995632E+03	1.675125E-04	8.095381E-05
3.005618E+03	1.691431E-04	8.174167E-05
3.015603E+03	1.708050E-04	8.254462E-05
3.025589E+03	1.724771E-04	8.335251E-05
3.035574E+03	1.741629E-04	8.416698E-05
3.045560E+03	1.758963E-04	8.500446E-05
3.055545E+03	1.776903E-04	8.587127E-05
3.065530E+03	1.794983E-04	8.674477E-05
3.075516E+03	1.813600E-04	8.764426E-05
3.085501E+03	1.832726E-04	8.856836E-05
3.095487E+03	1.852115E-04	8.950513E-05
3.105472E+03	1.871738E-04	9.045319E-05
3.115458E+03	1.891793E-04	9.142216E-05
3.125443E+03	1.912036E-04	9.240019E-05
3.135429E+03	1.932671E-04	9.339715E-05
3.145414E+03	1.953453E-04	9.440125E-05
3.155399E+03	1.974594E-04	9.542265E-05
3.165385E+03	1.995849E-04	9.644957E-05
3.175370E+03	2.017201E-04	9.748116E-05
3.185356E+03	2.038870E-04	9.852809E-05
3.195341E+03	2.060847E-04	9.958986E-05
3.205327E+03	2.082649E-04	1.006432E-04
3.215312E+03	2.104975E-04	1.017218E-04
3.225298E+03	2.127343E-04	1.028025E-04
3.235283E+03	2.149745E-04	1.038848E-04
3.245268E+03	2.172412E-04	1.049799E-04
3.255254E+03	2.195099E-04	1.060760E-04
3.265239E+03	2.218043E-04	1.071844E-04
3.275225E+03	2.240993E-04	1.082932E-04
3.285210E+03	2.264193E-04	1.094140E-04
3.295196E+03	2.287392E-04	1.105348E-04
3.305181E+03	2.310835E-04	1.116674E-04
3.315166E+03	2.334270E-04	1.127995E-04
3.325152E+03	2.357946E-04	1.139433E-04
3.335137E+03	2.381609E-04	1.150865E-04
3.345123E+03	2.405511E-04	1.162413E-04
3.355108E+03	2.429397E-04	1.173952E-04
3.365094E+03	2.453523E-04	1.185607E-04
3.375079E+03	2.477631E-04	1.197254E-04
3.385065E+03	2.501978E-04	1.209015E-04
3.395050E+03	2.526306E-04	1.220768E-04
3.405035E+03	2.550875E-04	1.232637E-04
3.415021E+03	2.575425E-04	1.244497E-04
3.425006E+03	2.600218E-04	1.256474E-04
3.434992E+03	2.624992E-04	1.268442E-04
3.444977E+03	2.650012E-04	1.280529E-04
3.454963E+03	2.675279E-04	1.292735E-04
3.464948E+03	2.700529E-04	1.304933E-04
3.474934E+03	2.725762E-04	1.317122E-04
3.484919E+03	2.751245E-04	1.329432E-04
3.494904E+03	2.776983E-04	1.341865E-04
3.504890E+03	2.802705E-04	1.354291E-04
3.514875E+03	2.828410E-04	1.366708E-04
3.524861E+03	2.854373E-04	1.379249E-04
3.534846E+03	2.880594E-04	1.391916E-04
3.544832E+03	2.906801E-04	1.404576E-04
3.554817E+03	2.933269E-04	1.417361E-04
3.564803E+03	2.959723E-04	1.430140E-04
3.574788E+03	2.986441E-04	1.443046E-04
3.584773E+03	3.013145E-04	1.455945E-04
3.594759E+03	3.040113E-04	1.468972E-04
3.604744E+03	3.067067E-04	1.481992E-04
3.614730E+03	3.094287E-04	1.495141E-04
3.624715E+03	3.121492E-04	1.508282E-04
3.634701E+03	3.148963E-04	1.521552E-04
3.644686E+03	3.176418E-04	1.534813E-04
3.654671E+03	3.204140E-04	1.548204E-04
3.664657E+03	3.232130E-04	1.561724E-04
3.674642E+03	3.260101E-04	1.575235E-04
3.684628E+03	3.288051E-04	1.588736E-04
3.694613E+03	3.316268E-04	1.602365E-04
3.704599E+03	3.344462E-04	1.615983E-04
3.714584E+03	3.372920E-04	1.629729E-04
3.724570E+03	3.401641E-04	1.643602E-04
3.734555E+03	3.430045E-04	1.657322E-04
3.744540E+03	3.459001E-04	1.671308E-04
3.754526E+03	3.487926E-04	1.685279E-04
3.764511E+03	3.516818E-04	1.699234E-04
3.774497E+03	3.545966E-04	1.713313E-04
3.784482E+03	3.575077E-04	1.727373E-04
3.794468E+03	3.604440E-04	1.741556E-04
3.804453E+03	3.633761E-04	1.755718E-04
3.814439E+03	3.663331E-04	1.770000E-04
3.824424E+03	3.692853E-04	1.784259E-04
3.834409E+03	3.722323E-04	1.798493E-04
3.844395E+03	3.752036E-04	1.812844E-04
3.854380E+03	3.781690E-04	1.827167E-04
3.864366E+03	3.811582E-04	1.841604E-04
3.874351E+03	3.841410E-04	1.856011E-04
3.884337E+03	3.871471E-04	1.870529E-04
3.894322E+03	3.901461E-04	1.885014E-04
3.904308E+03	3.931376E-04	1.899462E-04
3.914293E+03	3.961514E-04	1.914018E-04
3.924278E+03	3.991571E-04	1.928535E-04
3.934264E+03	4.021542E-04	1.943010E-04
3.944249E+03	4.051726E-04	1.957588E-04
3.954235E+03	4.081818E-04	1.972121E-04
3.964220E+03	4.112116E-04	1.986753E-04
3.974206E+03	4.142009E-04	2.001191E-04
3.984191E+03	4.172102E-04	2.015724E-04
3.994176E+03	4.202391E-04	2.030352E-04
4.004162E+03	4.232260E-04	2.044778E-04
4.014147E+03	4.262319E-04	2.059294E-04
4.024133E+03	4.292256E-04	2.073752E-04
4.034118E+03	4.322374E-04	2.088297E-04
4.044104E+03	4.352363E-04	2.102780E-04
4.054089E+03	4.381910E-04	2.117049E-04
4.064075E+03	4.411626E-04	2.131400E-04
4.074060E+03	4.441507E-04	2.145830E-04
4.084045E+03	4.470933E-04	2.160041E-04
4.094031E+03	4.500517E-04	2.174327E-04
4.104016E+03	4.529944E-04	2.188538E-04
4.114002E+03	4.559212E-04	2.202672E-04
4.123987E+03	4.588314E-04	2.216726E-04
4.133973E+03	4.617249E-04	2.230698E-04
4.143958E+03	4.646009E-04	2.244587E-04
4.153944E+03	4.674902E-04	2.258539E-04
4.163929E+03	4.703303E-04	2.272254E-04
4.173914E+03	4.731828E-04	2.286028E-04
4.183900E+03	4.759851E-04	2.299560E-04
4.193885E+03	4.787990E-04	2.313148E-04
4.203871E+03	4.815929E-04	2.326640E-04
4.213856E+03	4.843354E-04	2.339882E-04
4.223842E+03	4.870882E-04	2.353175E-04
4.233827E+03	4.898197E-04	2.366364E-04
4.243813E+03	4.924984E-04	2.379299E-04
4.253798E+03	4.951862E-04	2.392277E-04
4.263783E+03	4.978204E-04	2.404997E-04
4.273769E+03	5.004627E-04	2.417755E-04
4.283754E+03	5.030507E-04	2.430251E-04
4.293740E+03	5.056148E-04	2.442631E-04
4.303725E+03	5.081547E-04	2.454895E-04
4.313711E+03	5.106701E-04	2.467040E-04
4.323696E+03	5.131606E-04	2.479065E-04
4.333681E+03	5.156256E-04	2.490967E-04
4.343667E+03	5.180339E-04	2.502594E-04
4.353652E+03	5.204160E-04	2.514095E-04
4.363638E+03	5.227717E-04	2.525468E-04
4.373623E+03	5.251005E-04	2.536711E-04
4.383609E+03	5.273710E-04	2.547673E-04
4.393594E+03	5.296450E-04	2.558652E-04
4.403580E+03	5.318600E-04	2.569345E-04
4.413565E+03	5.340157E-04	2.579752E-04
4.423550E+03	5.361740E-04	2.590172E-04
4.433536E+03	5.382722E-04	2.600301E-04
4.443521E+03	5.403104E-04	2.610140E-04
4.453507E+03	5.423499E-04	2.619986E-04
4.463492E+03	5.442979E-04	2.629390E-04
4.473478E+03	5.462468E-04	2.638797E-04
4.483463E+03	5.481344E-04	2.647909E-04
4.493449E+03	5.499915E-04	2.656873E-04
4.503434E+03	5.517869E-04	2.665540E-04
4.513419E+03	5.535514E-04	2.674057E-04
4.523405E+03	5.552846E-04	2.682422E-04
4.533390E+03	5.569556E-04	2.690488E-04
4.543376E+03	5.585644E-04	2.698252E-04
4.553361E+03	5.601415E-04	2.705864E-04
4.563347E+03	5.616866E-04	2.713321E-04
4.573332E+03	5.631690E-04	2.720475E-04
4.583318E+03	5.645887E-04	2.727326E-04
4.593303E+03	5.659763E-04	2.734022E-04
4.603288E+03	5.673011E-04	2.740415E-04
4.613274E+03	5.685934E-04	2.746651E-04
4.623259E+03	5.698532E-04	2.752730E-04
4.633245E+03	5.710199E-04	2.758359E-04
4.643230E+03	5.721541E-04	2.763831E-04
4.653216E+03	5.732557E-04	2.769146E-04
4.663201E+03	5.742947E-04	2.774158E-04
4.673186E+03	5.752711E-04	2.778868E-04
4.683172E+03	5.762151E-04	2.783421E-04
4.693157E+03	5.770967E-04	2.787673E-04
4.703143E+03	5.779161E-04	2.791625E-04
4.713128E+03	5.787034E-04	2.795421E-04
4.723114E+03	5.794288E-04	2.798919E-04
4.733099E+03	5.801222E-04	2.802262E-04
4.743085E+03	5.807543E-04	2.805308E-04
4.753070E+03	5.813250E-04	2.808059E-04
4.763055E+03	5.818349E-04	2.810515E-04
4.773041E+03	5.823135E-04	2.812821E-04
4.783026E+03	5.827318E-04	2.814835E-04
4.793012E+03	5.830901E-04	2.816559E-04
4.802997E+03	5.834178E-04	2.818136E-04
4.812983E+03	5.836860E-04	2.819425E-04
4.822968E+03	5.838953E-04	2.820430E-04
4.832954E+03	5.840747E-04	2.821291E-04
4.842939E+03	5.841958E-04	2.821869E-04
4.852924E+03	5.842591E-04	2.822169E-04
4.862910E+03	5.842647E-04	2.822190E-04
4.872895E+03	5.842420E-04	2.822074E-04
4.882881E+03	5.841340E-04	2.821546E-04
4.892866E+03	5.840269E-04	2.821023E-04
4.902852E+03	5.838355E-04	2.820093E-04
4.912837E+03	5.836172E-04	2.819032E-04
4.922823E+03	5.833440E-04	2.817707E-04
4.932808E+03	5.830164E-04	2.816118E-04
4.942793E+03	5.826349E-04	2.814270E-04
4.952779E+03	5.822281E-04	2.812300E-04
4.962764E+03	5.817685E-04	2.810074E-04
4.972750E+03	5.812564E-04	2.807595E-04
4.982735E+03	5.806925E-04	2.804865E-04
4.992721E+03	5.801050E-04	2.802022E-04
5.002706E+03	5.794665E-04	2.798933E-04
5.012691E+03	5.787778E-04	2.795601E-04
5.022677E+03	5.780667E-04	2.792160E-04
5.032662E+03	5.772790E-04	2.788350E-04
5.042648E+03	5.764698E-04	2.784437E-04
5.052633E+03	5.756396E-04	2.780421E-04
5.062619E+03	5.747344E-04	2.776044E-04
5.072604E+03	5.738092E-04	2.771570E-04
5.082590E+03	5.728372E-04	2.766870E-04
5.092575E+03	5.718192E-04	2.761948E-04
5.102560E+03	5.707557E-04	2.756806E-04
5.112546E+03	5.696737E-04	2.751575E-04
5.122531E+03	5.685471E-04	2.746129E-04
5.132517E+03	5.673766E-04	2.740471E-04
5.142502E+03	5.661888E-04	2.734729E-04
5.152488E+03	5.649580E-04	2.728779E-04
5.162473E+03	5.636846E-04	2.722624E-04
5.172459E+03	5.623693E-04	2.716267E-04
5.182444E+03	5.610384E-04	2.709834E-04
5.192429E+03	5.596664E-04	2.703203E-04
5.202415E+03	5.582540E-04	2.696376E-04
5.212400E+03	5.568015E-04	2.689357E-04
5.222386E+03	5.553351E-04	2.682270E-04
5.232371E+03	5.538296E-04	2.674994E-04
5.242357E+03	5.522855E-04	2.667532E-04
5.252342E+03	5.507284E-04	2.660007E-04
5.262328E+03	5.491337E-04	2.652301E-04
5.272313E+03	5.475018E-04	2.644415E-04
5.282298E+03	5.458579E-04	2.636472E-04
5.292284E+03	5.441778E-04	2.628353E-04
5.302269E+03	5.424616E-04	2.620060E-04
5.312255E+03	5.407347E-04	2.611716E-04
5.322240E+03	5.389726E-04	2.603202E-04
5.332226E+03	5.371760E-04	2.594520E-04
5.342211E+03	5.353452E-04	2.585675E-04
5.352196E+03	5.335050E-04	2.576783E-04
5.362182E+03	5.316554E-04	2.567847E-04
5.372167E+03	5.297489E-04	2.558635E-04
5.382153E+03	5.278339E-04	2.549383E-04
5.392138E+03	5.258867E-04	2.539975E-04
5.402124E+03	5.239315E-04	2.530529E-04
5.412109E+03	5.219450E-04	2.520931E-04
5.422095E+03	5.199510E-04	2.511298E-04
5.432080E+03	5.179265E-04	2.501517E-04
5.442065E+03	5.158719E-04	2.491591E-04
5.452051E+03	5.137876E-04	2.481522E-04
5.462036E+03	5.116972E-04	2.471423E-04
5.472022E+03	5.096008E-04	2.461295E-04
5.482007E+03	5.074757E-04	2.451029E-04
5.491993E+03	5.053226E-04	2.440627E-04
5.501978E+03	5.031419E-04	2.430092E-04
5.511964E+03	5.009788E-04	2.419643E-04
5.521949E+03	4.987663E-04	2.408955E-04
5.531934E+03	4.965497E-04	2.398247E-04
5.541920E+03	4.943069E-04	2.387412E-04
5.551905E+03	4.920604E-04	2.376560E-04
5.561891E+03	4.898103E-04	2.365691E-04
5.571876E+03	4.875134E-04	2.354596E-04
5.581862E+03	4.852354E-04	2.343591E-04
5.591847E+03	4.829115E-04	2.332366E-04
5.601833E+03	4.805853E-04	2.321129E-04
5.611818E+03	4.782569E-04	2.309882E-04
5.621803E+03	4.759054E-04	2.298523E-04
5.631789E+03	4.735524E-04	2.287157E-04
5.641774E+03	4.711770E-04	2.275682E-04
5.651760E+03	4.688004E-04	2.264203E-04
5.661745E+03	4.664021E-04	2.252618E-04
5.671731E+03	4.640034E-04	2.241032E-04
5.681716E+03	4.615838E-04	2.229344E-04
5.691701E+03	4.591641E-04	2.217657E-04
5.701687E+03	4.567243E-04	2.205872E-04
5.711672E+03	4.542850E-04	2.194090E-04
5.721658E+03	4.518263E-04	2.182213E-04
5.731643E+03	4.493686E-04	2.170342E-04
5.741629E+03	4.468923E-04	2.158381E-04
5.751614E+03	4.444373E-04	2.146524E-04
5.761600E+03	4.419446E-04	2.134484E-04
5.771585E+03	4.394540E-04	2.122454E-04
5.781570E+03	4.369658E-04	2.110436E-04
5.791556E+03	4.344799E-04	2.098429E-04
5.801541E+03	4.319776E-04	2.086342E-04
5.811527E+03	4.294590E-04	2.074178E-04
5.821512E+03	4.269439E-04	2.062030E-04
5.831498E+03	4.244323E-04	2.049899E-04
5.841483E+03	4.219245E-04	2.037786E-04
5.851469E+03	4.194019E-04	2.025602E-04
5.861454E+03	4.168835E-04	2.013439E-04
5.871439E+03	4.143512E-04	2.001208E-04
5.881425E+03	4.118237E-04	1.989001E-04
5.891410E+03	4.093012E-04	1.976818E-04
5.901396E+03	4.067658E-04	1.964572E-04
5.911381E+03	4.042359E-04	1.952353E-04
5.921367E+03	4.017119E-04	1.940163E-04
5.931352E+03	3.991759E-04	1.927914E-04
5.941338E+03	3.966463E-04	1.915697E-04
5.951323E+03	3.941231E-04	1.903510E-04
5.961308E+03	3.915892E-04	1.891272E-04
5.971294E+03	3.890623E-04	1.879068E-04
5.981279E+03	3.865427E-04	1.866899E-04
5.991265E+03	3.840133E-04	1.854683E-04
6.001250E+03	3.815089E-04	1.842588E-04
6.011236E+03	3.789953E-04	1.830448E-04
6.021221E+03	3.764731E-04	1.818267E-04
6.031207E+03	3.739763E-04	1.806208E-04
6.041192E+03	3.714714E-04	1.794110E-04
6.051177E+03	3.689755E-04	1.782056E-04
6.061163E+03	3.664722E-04	1.769966E-04
6.071148E+03	3.639950E-04	1.758002E-04
6.081134E+03	3.615111E-04	1.746006E-04
6.091119E+03	3.590371E-04	1.734058E-04
6.101105E+03	3.565734E-04	1.722159E-04
6.111090E+03	3.541039E-04	1.710233E-04
6.121075E+03	3.516453E-04	1.698359E-04
6.131061E+03	3.491976E-04	1.686538E-04
6.141046E+03	3.467612E-04	1.674771E-04
6.151032E+03	3.443361E-04	1.663059E-04
6.161017E+03	3.419070E-04	1.651327E-04
6.171003E+03	3.394899E-04	1.639654E-04
6.180988E+03	3.370850E-04	1.628040E-04
6.190974E+03	3.346925E-04	1.616485E-04
6.200959E+03	3.323125E-04	1.604991E-04
6.210944E+03	3.299303E-04	1.593487E-04
6.220930E+03	3.275761E-04	1.582118E-04
6.230915E+03	3.252204E-04	1.570741E-04
6.240901E+03	3.228782E-04	1.559429E-04
6.250886E+03	3.205498E-04	1.548185E-04
6.260872E+03	3.182208E-04	1.536937E-04
6.270857E+03	3.159206E-04	1.525828E-04
6.280843E+03	3.136205E-04	1.514720E-04
6.290828E+03	3.113493E-04	1.503752E-04
6.300813E+03	3.090788E-04	1.492787E-04
6.310799E+03	3.068235E-04	1.481895E-04
6.320784E+03	3.045834E-04	1.471078E-04
6.330770E+03	3.023590E-04	1.460335E-04
6.340755E+03	3.001366E-04	1.449602E-04
6.350741E+03	2.979439E-04	1.439013E-04
6.360726E+03	2.957537E-04	1.428436E-04
6.370712E+03	2.935936E-04	1.418004E-04
6.380697E+03	2.914366E-04	1.407587E-04
6.390682E+03	2.892964E-04	1.397252E-04
6.400668E+03	2.871732E-04	1.386999E-04
6.410653E+03	2.850673E-04	1.376829E-04
6.420639E+03	2.829788E-04	1.366743E-04
6.430624E+03	2.809079E-04	1.356742E-04
6.440610E+03	2.788547E-04	1.346826E-04
6.450595E+03	2.768067E-04	1.336936E-04
6.460580E+03	2.747895E-04	1.327195E-04
6.470566E+03	2.727907E-04	1.317542E-04
6.480551E+03	2.707976E-04	1.307917E-04
6.490537E+03	2.688357E-04	1.298443E-04
6.500522E+03	2.668801E-04	1.288998E-04
6.510508E+03	2.649558E-04	1.279706E-04
6.520493E+03	2.630381E-04	1.270445E-04
6.530479E+03	2.611397E-04	1.261277E-04
6.540464E+03	2.592727E-04	1.252261E-04
6.550449E+03	2.574128E-04	1.243279E-04
6.560435E+03	2.555725E-04	1.234392E-04
6.570420E+03	2.537519E-04	1.225600E-04
6.580406E+03	2.519626E-04	1.216959E-04
6.590391E+03	2.501812E-04	1.208357E-04
6.600377E+03	2.484196E-04	1.199850E-04
6.610362E+03	2.466779E-04	1.191438E-04
6.620348E+03	2.449560E-04	1.183123E-04
6.630333E+03	2.432655E-04	1.174959E-04
6.640318E+03	2.415834E-04	1.166836E-04
6.650304E+03	2.399212E-04	1.158810E-04
6.660289E+03	2.382790E-04	1.150879E-04
6.670275E+03	2.366568E-04	1.143045E-04
6.680260E+03	2.350655E-04	1.135361E-04
6.690246E+03	2.334831E-04	1.127719E-04
6.700231E+03	2.319204E-04	1.120173E-04
6.710217E+03	2.303776E-04	1.112722E-04
6.720202E+03	2.288544E-04	1.105367E-04
6.730187E+03	2.273617E-04	1.098159E-04
6.740173E+03	2.258778E-04	1.090993E-04
6.750158E+03	2.244133E-04	1.083921E-04
6.760144E+03	2.229788E-04	1.076993E-04
6.770129E+03	2.215530E-04	1.070108E-04
6.780115E+03	2.201462E-04	1.063315E-04
6.790100E+03	2.187689E-04	1.056664E-04
6.800085E+03	2.174000E-04	1.050053E-04
6.810071E+03	2.160600E-04	1.043582E-04
6.820056E+03	2.147283E-04	1.037151E-04
6.830042E+03	2.134251E-04	1.030858E-04
6.840027E+03	2.121298E-04	1.024603E-04
6.850013E+03	2.108625E-04	1.018484E-04
6.859998E+03	2.096029E-04	1.012401E-04
6.869984E+03	2.083708E-04	1.006451E-04
6.879969E+03	2.071460E-04	1.000536E-04
6.889954E+03	2.059480E-04	9.947517E-05
6.899940E+03	2.047669E-04	9.890479E-05
6.909925E+03	2.035924E-04	9.833766E-05
6.919911E+03	2.024439E-04	9.778306E-05
6.929896E+03	2.013114E-04	9.723619E-05
6.939882E+03	2.001849E-04	9.669219E-05
6.949867E+03	1.990835E-04	9.616033E-05
6.959853E+03	1.979971E-04	9.563573E-05
6.969838E+03	1.969254E-04	9.511824E-05
6.979823E+03	1.958683E-04	9.460778E-05
6.989809E+03	1.948158E-04	9.409954E-05
6.999794E+03	1.937866E-04	9.360256E-05
7.009780E+03	1.927710E-04	9.311213E-05
7.019765E+03	1.917685E-04	9.262803E-05
7.029751E+03	1.907787E-04	9.215011E-05
7.039736E+03	1.897922E-04	9.167375E-05
7.049722E+03	1.888271E-04	9.120772E-05
7.059707E+03	1.878738E-04	9.074736E-05
7.069692E+03	1.869318E-04	9.029252E-05
7.079678E+03	1.860009E-04	8.984298E-05
7.089663E+03	1.850716E-04	8.939424E-05
7.099649E+03	1.841617E-04	8.895488E-05
7.109634E+03	1.832617E-04	8.852031E-05
7.119620E+03	1.823713E-04	8.809032E-05
7.129605E+03	1.814811E-04	8.766050E-05
7.139590E+03	1.806087E-04	8.723925E-05
7.149576E+03	1.797447E-04	8.682203E-05
7.159561E+03	1.788800E-04	8.640448E-05
7.169547E+03	1.780318E-04	8.599492E-05
7.179532E+03	1.771822E-04	8.558465E-05
7.189518E+03	1.763481E-04	8.518193E-05
7.199503E+03	1.755121E-04	8.477823E-05
7.209489E+03	1.746822E-04	8.437750E-05
7.219474E+03	1.738583E-04	8.397968E-05
7.229459E+03	1.730484E-04	8.358858E-05
7.239445E+03	1.722351E-04	8.319587E-05
7.249430E+03	1.714266E-04	8.280545E-05
7.259416E+03	1.706225E-04	8.241716E-05
7.269401E+03	1.698225E-04	8.203089E-05
7.279387E+03	1.690178E-04	8.164232E-05
7.289372E+03	1.682250E-04	8.125948E-05
7.299358E+03	1.674268E-04	8.087408E-05
7.309343E+03	1.666398E-04	8.049404E-05
7.319328E+03	1.658470E-04	8.011122E-05
7.329314E+03	1.650563E-04	7.972941E-05
7.339299E+03	1.642757E-04	7.935248E-05
7.349285E+03	1.634885E-04	7.897234E-05
7.359270E+03	1.626943E-04	7.858885E-05
7.369256E+03	1.619094E-04	7.820984E-05
7.379241E+03	1.611252E-04	7.783115E-05
7.389227E+03	1.603333E-04	7.744879E-05
7.399212E+03	1.595419E-04	7.706661E-05
7.409197E+03	1.587585E-04	7.668832E-05
7.419183E+03	1.579668E-04	7.630601E-05
7.429168E+03	1.571668E-04	7.591972E-05
7.439154E+03	1.563742E-04	7.553696E-05
7.449139E+03	1.555808E-04	7.515387E-05
7.459125E+03	1.547786E-04	7.476646E-05
7.469110E+03	1.539752E-04	7.437854E-05
7.479095E+03	1.531707E-04	7.399001E-05
7.489081E+03	1.523648E-04	7.360087E-05
7.499066E+03	1.515496E-04	7.320720E-05
7.509052E+03	1.507405E-04	7.281649E-05
7.519037E+03	1.499220E-04	7.242126E-05
7.529023E+03	1.491018E-04	7.202516E-05
7.539008E+03	1.482797E-04	7.162816E-05
7.548994E+03	1.474482E-04	7.122660E-05
7.558979E+03	1.466222E-04	7.082772E-05
7.568964E+03	1.457866E-04	7.042424E-05
7.578950E+03	1.449492E-04	7.001983E-05
7.588935E+03	1.441023E-04	6.961084E-05
7.598921E+03	1.432609E-04	6.920449E-05
7.608906E+03	1.424101E-04	6.879364E-05
7.618892E+03	1.415574E-04	6.838186E-05
7.628877E+03	1.407029E-04	6.796919E-05
7.638863E+03	1.398392E-04	6.755210E-05
7.648848E+03	1.389739E-04	6.713425E-05
7.658833E+03	1.381069E-04	6.671554E-05
7.668819E+03	1.372385E-04	6.629613E-05
7.678804E+03	1.363615E-04	6.587260E-05
7.688790E+03	1.354903E-04	6.545189E-05
7.698775E+03	1.346108E-04	6.502716E-05
7.708761E+03	1.337233E-04	6.459854E-05
7.718746E+03	1.328420E-04	6.417293E-05
7.728732E+03	1.319531E-04	6.374362E-05
7.738717E+03	1.310636E-04	6.331404E-05
7.748702E+03	1.301669E-04	6.288099E-05
