#wls	flux	fluxerr
1.597671E+03	8.866836E-05	3.819939E-05
1.637612E+03	8.782283E-05	3.783510E-05
1.677554E+03	8.668431E-05	3.734459E-05
1.717496E+03	8.527560E-05	3.673768E-05
1.757438E+03	8.357581E-05	3.600536E-05
1.797379E+03	8.153914E-05	3.512792E-05
1.837321E+03	7.910208E-05	3.407798E-05
1.877263E+03	7.614269E-05	3.280303E-05
1.917205E+03	7.263867E-05	3.129344E-05
1.957146E+03	6.857789E-05	2.954399E-05
1.997088E+03	6.409995E-05	2.761483E-05
2.037030E+03	5.955235E-05	2.565566E-05
2.076972E+03	5.554716E-05	2.393017E-05
2.116914E+03	5.275594E-05	2.272767E-05
2.156855E+03	5.172300E-05	2.228265E-05
2.196797E+03	5.257764E-05	2.265082E-05
2.236739E+03	5.505470E-05	2.371793E-05
2.276681E+03	5.865560E-05	2.526920E-05
2.316622E+03	6.286107E-05	2.708092E-05
2.356564E+03	6.726796E-05	2.897940E-05
2.396506E+03	7.163749E-05	3.086179E-05
2.436448E+03	7.583676E-05	3.267082E-05
2.476389E+03	7.982774E-05	3.439012E-05
2.516331E+03	8.363312E-05	3.602945E-05
2.556273E+03	8.727228E-05	3.759718E-05
2.596215E+03	9.079867E-05	3.911631E-05
2.636156E+03	9.423821E-05	4.059803E-05
2.676098E+03	9.764190E-05	4.206430E-05
2.716040E+03	1.010267E-04	4.352243E-05
2.755982E+03	1.044190E-04	4.498379E-05
2.795924E+03	1.078574E-04	4.646497E-05
2.835865E+03	1.113609E-04	4.797423E-05
2.875807E+03	1.149456E-04	4.951845E-05
2.915749E+03	1.186066E-04	5.109555E-05
2.955691E+03	1.223530E-04	5.270943E-05
2.995632E+03	1.262285E-04	5.437890E-05
3.005618E+03	1.272144E-04	5.480359E-05
3.015603E+03	1.281866E-04	5.522241E-05
3.025589E+03	1.292014E-04	5.565958E-05
3.035574E+03	1.302051E-04	5.609195E-05
3.045560E+03	1.312259E-04	5.653167E-05
3.055545E+03	1.322730E-04	5.698276E-05
3.065530E+03	1.333632E-04	5.745240E-05
3.075516E+03	1.344552E-04	5.792281E-05
3.085501E+03	1.355854E-04	5.840964E-05
3.095487E+03	1.367322E-04	5.890367E-05
3.105472E+03	1.378935E-04	5.940395E-05
3.115458E+03	1.390676E-04	5.990972E-05
3.125443E+03	1.402527E-04	6.042021E-05
3.135429E+03	1.414471E-04	6.093475E-05
3.145414E+03	1.426495E-04	6.145270E-05
3.155399E+03	1.438789E-04	6.198230E-05
3.165385E+03	1.450935E-04	6.250552E-05
3.175370E+03	1.463330E-04	6.303948E-05
3.185356E+03	1.475761E-04	6.357498E-05
3.195341E+03	1.488219E-04	6.411163E-05
3.205327E+03	1.500486E-04	6.464006E-05
3.215312E+03	1.513185E-04	6.518711E-05
3.225298E+03	1.525678E-04	6.572529E-05
3.235283E+03	1.538171E-04	6.626345E-05
3.245268E+03	1.550658E-04	6.680135E-05
3.255254E+03	1.563352E-04	6.734817E-05
3.265239E+03	1.575816E-04	6.788510E-05
3.275225E+03	1.588482E-04	6.843070E-05
3.285210E+03	1.601129E-04	6.897551E-05
3.295196E+03	1.613757E-04	6.951947E-05
3.305181E+03	1.626139E-04	7.005287E-05
3.315166E+03	1.638942E-04	7.060437E-05
3.325152E+03	1.651497E-04	7.114524E-05
3.335137E+03	1.664026E-04	7.168492E-05
3.345123E+03	1.676528E-04	7.222347E-05
3.355108E+03	1.689229E-04	7.277062E-05
3.365094E+03	1.701677E-04	7.330683E-05
3.375079E+03	1.714327E-04	7.385176E-05
3.385065E+03	1.726951E-04	7.439556E-05
3.395050E+03	1.739317E-04	7.492822E-05
3.405035E+03	1.751889E-04	7.546981E-05
3.415021E+03	1.764438E-04	7.601036E-05
3.425006E+03	1.777198E-04	7.656005E-05
3.434992E+03	1.789700E-04	7.709858E-05
3.444977E+03	1.802179E-04	7.763612E-05
3.454963E+03	1.814636E-04	7.817275E-05
3.464948E+03	1.827313E-04	7.871882E-05
3.474934E+03	1.839730E-04	7.925369E-05
3.484919E+03	1.852371E-04	7.979821E-05
3.494904E+03	1.864994E-04	8.034199E-05
3.504890E+03	1.877601E-04	8.088505E-05
3.514875E+03	1.890193E-04	8.142748E-05
3.524861E+03	1.902771E-04	8.196927E-05
3.534846E+03	1.915334E-04	8.251045E-05
3.544832E+03	1.927884E-04	8.305107E-05
3.554817E+03	1.940421E-04	8.359113E-05
3.564803E+03	1.952946E-04	8.413063E-05
3.574788E+03	1.965709E-04	8.468044E-05
3.584773E+03	1.978210E-04	8.521893E-05
3.594759E+03	1.990954E-04	8.576786E-05
3.604744E+03	2.003432E-04	8.630539E-05
3.614730E+03	2.016154E-04	8.685341E-05
3.624715E+03	2.028867E-04	8.740103E-05
3.634701E+03	2.041569E-04	8.794818E-05
3.644686E+03	2.054261E-04	8.849489E-05
3.654671E+03	2.066942E-04	8.904113E-05
3.664657E+03	2.079611E-04	8.958687E-05
3.674642E+03	2.092268E-04	9.013206E-05
3.684628E+03	2.104911E-04	9.067669E-05
3.694613E+03	2.117542E-04	9.122077E-05
3.704599E+03	2.130421E-04	9.177555E-05
3.714584E+03	2.143022E-04	9.231833E-05
3.724570E+03	2.155604E-04	9.286035E-05
3.734555E+03	2.168436E-04	9.341308E-05
3.744540E+03	2.180982E-04	9.395349E-05
3.754526E+03	2.193775E-04	9.450455E-05
3.764511E+03	2.206546E-04	9.505468E-05
3.774497E+03	2.219024E-04	9.559218E-05
3.784482E+03	2.231747E-04	9.614023E-05
3.794468E+03	2.244442E-04	9.668709E-05
3.804453E+03	2.257109E-04	9.723272E-05
3.814439E+03	2.269745E-04	9.777702E-05
3.824424E+03	2.282072E-04	9.830801E-05
3.834409E+03	2.294638E-04	9.884929E-05
3.844395E+03	2.307166E-04	9.938894E-05
3.854380E+03	2.319653E-04	9.992679E-05
3.864366E+03	2.332375E-04	1.004748E-04
3.874351E+03	2.344773E-04	1.010088E-04
3.884337E+03	2.357122E-04	1.015408E-04
3.894322E+03	2.369420E-04	1.020705E-04
3.904308E+03	2.381663E-04	1.025979E-04
3.914293E+03	2.393848E-04	1.031228E-04
3.924278E+03	2.406255E-04	1.036572E-04
3.934264E+03	2.418317E-04	1.041768E-04
3.944249E+03	2.430312E-04	1.046934E-04
3.954235E+03	2.442236E-04	1.052070E-04
3.964220E+03	2.454372E-04	1.057298E-04
3.974206E+03	2.466146E-04	1.062370E-04
3.984191E+03	2.477840E-04	1.067407E-04
3.994176E+03	2.489738E-04	1.072532E-04
4.004162E+03	2.501262E-04	1.077496E-04
4.014147E+03	2.512695E-04	1.082420E-04
4.024133E+03	2.524323E-04	1.087429E-04
4.034118E+03	2.535563E-04	1.092271E-04
4.044104E+03	2.546703E-04	1.097069E-04
4.054089E+03	2.558030E-04	1.101948E-04
4.064075E+03	2.568956E-04	1.106655E-04
4.074060E+03	2.580063E-04	1.111439E-04
4.084045E+03	2.590762E-04	1.116047E-04
4.094031E+03	2.601343E-04	1.120605E-04
4.104016E+03	2.611799E-04	1.125109E-04
4.114002E+03	2.622424E-04	1.129685E-04
4.123987E+03	2.632624E-04	1.134079E-04
4.133973E+03	2.642690E-04	1.138415E-04
4.143958E+03	2.652619E-04	1.142692E-04
4.153944E+03	2.662703E-04	1.147035E-04
4.163929E+03	2.672347E-04	1.151189E-04
4.173914E+03	2.681843E-04	1.155279E-04
4.183900E+03	2.691189E-04	1.159305E-04
4.193885E+03	2.700379E-04	1.163263E-04
4.203871E+03	2.709411E-04	1.167154E-04
4.213856E+03	2.718283E-04	1.170975E-04
4.223842E+03	2.726989E-04	1.174725E-04
4.233827E+03	2.735528E-04	1.178403E-04
4.243813E+03	2.743896E-04	1.182007E-04
4.253798E+03	2.752090E-04	1.185537E-04
4.263783E+03	2.759808E-04	1.188861E-04
4.273769E+03	2.767647E-04	1.192237E-04
4.283754E+03	2.775301E-04	1.195534E-04
4.293740E+03	2.782472E-04	1.198623E-04
4.303725E+03	2.789754E-04	1.201759E-04
4.313711E+03	2.796545E-04	1.204684E-04
4.323696E+03	2.803443E-04	1.207655E-04
4.333681E+03	2.809846E-04	1.210413E-04
4.343667E+03	2.816050E-04	1.213085E-04
4.353652E+03	2.822355E-04	1.215801E-04
4.363638E+03	2.828158E-04	1.218300E-04
4.373623E+03	2.833756E-04	1.220711E-04
4.383609E+03	2.839148E-04	1.223034E-04
4.393594E+03	2.844333E-04	1.225267E-04
4.403580E+03	2.849009E-04	1.227281E-04
4.413565E+03	2.853773E-04	1.229332E-04
4.423550E+03	2.858325E-04	1.231293E-04
4.433536E+03	2.862363E-04	1.233032E-04
4.443521E+03	2.866485E-04	1.234807E-04
4.453507E+03	2.870093E-04	1.236361E-04
4.463492E+03	2.873783E-04	1.237950E-04
4.473478E+03	2.876954E-04	1.239316E-04
4.483463E+03	2.879909E-04	1.240588E-04
4.493449E+03	2.882644E-04	1.241766E-04
4.503434E+03	2.885159E-04	1.242849E-04
4.513419E+03	2.887453E-04	1.243837E-04
4.523405E+03	2.889230E-04	1.244602E-04
4.533390E+03	2.891084E-04	1.245400E-04
4.543376E+03	2.892421E-04	1.245976E-04
4.553361E+03	2.893833E-04	1.246584E-04
4.563347E+03	2.894730E-04	1.246969E-04
4.573332E+03	2.895407E-04	1.247261E-04
4.583318E+03	2.895865E-04	1.247458E-04
4.593303E+03	2.896103E-04	1.247560E-04
4.603288E+03	2.896124E-04	1.247569E-04
4.613274E+03	2.895635E-04	1.247358E-04
4.623259E+03	2.895222E-04	1.247179E-04
4.633245E+03	2.894302E-04	1.246783E-04
4.643230E+03	2.893458E-04	1.246419E-04
4.653216E+03	2.892111E-04	1.245838E-04
4.663201E+03	2.890553E-04	1.245167E-04
4.673186E+03	2.888784E-04	1.244404E-04
4.683172E+03	2.886806E-04	1.243552E-04
4.693157E+03	2.884335E-04	1.242487E-04
4.703143E+03	2.881946E-04	1.241457E-04
4.713128E+03	2.879067E-04	1.240217E-04
4.723114E+03	2.876271E-04	1.239012E-04
4.733099E+03	2.872990E-04	1.237599E-04
4.743085E+03	2.869514E-04	1.236101E-04
4.753070E+03	2.865841E-04	1.234518E-04
4.763055E+03	2.861694E-04	1.232731E-04
4.773041E+03	2.857638E-04	1.230984E-04
4.783026E+03	2.853113E-04	1.229035E-04
4.793012E+03	2.848683E-04	1.227126E-04
4.802997E+03	2.843790E-04	1.225018E-04
4.812983E+03	2.838717E-04	1.222832E-04
4.822968E+03	2.833466E-04	1.220570E-04
4.832954E+03	2.828040E-04	1.218232E-04
4.842939E+03	2.822167E-04	1.215702E-04
4.852924E+03	2.816398E-04	1.213217E-04
4.862910E+03	2.810190E-04	1.210542E-04
4.872895E+03	2.803818E-04	1.207797E-04
4.882881E+03	2.797287E-04	1.204983E-04
4.892866E+03	2.790597E-04	1.202101E-04
4.902852E+03	2.783484E-04	1.199037E-04
4.912837E+03	2.776489E-04	1.196023E-04
4.922823E+03	2.769078E-04	1.192831E-04
4.932808E+03	2.761788E-04	1.189690E-04
4.942793E+03	2.754091E-04	1.186374E-04
4.952779E+03	2.746254E-04	1.182998E-04
4.962764E+03	2.738021E-04	1.179451E-04
4.972750E+03	2.729918E-04	1.175961E-04
4.982735E+03	2.721423E-04	1.172301E-04
4.992721E+03	2.713065E-04	1.168701E-04
5.002706E+03	2.704324E-04	1.164935E-04
5.012691E+03	2.695465E-04	1.161119E-04
5.022677E+03	2.686490E-04	1.157252E-04
5.032662E+03	2.677147E-04	1.153227E-04
5.042648E+03	2.667951E-04	1.149266E-04
5.052633E+03	2.658395E-04	1.145149E-04
5.062619E+03	2.648988E-04	1.141097E-04
5.072604E+03	2.639231E-04	1.136893E-04
5.082590E+03	2.629378E-04	1.132649E-04
5.092575E+03	2.619184E-04	1.128257E-04
5.102560E+03	2.609149E-04	1.123935E-04
5.112546E+03	2.598782E-04	1.119469E-04
5.122531E+03	2.588576E-04	1.115072E-04
5.132517E+03	2.578047E-04	1.110536E-04
5.142502E+03	2.567441E-04	1.105967E-04
5.152488E+03	2.556761E-04	1.101367E-04
5.162473E+03	2.545773E-04	1.096633E-04
5.172459E+03	2.534956E-04	1.091973E-04
5.182444E+03	2.523837E-04	1.087184E-04
5.192429E+03	2.512658E-04	1.082368E-04
5.202415E+03	2.501421E-04	1.077527E-04
5.212400E+03	2.490130E-04	1.072663E-04
5.222386E+03	2.478786E-04	1.067777E-04
5.232371E+03	2.467393E-04	1.062868E-04
5.242357E+03	2.455722E-04	1.057841E-04
5.252342E+03	2.444011E-04	1.052796E-04
5.262328E+03	2.432259E-04	1.047734E-04
5.272313E+03	2.420469E-04	1.042655E-04
5.282298E+03	2.408645E-04	1.037562E-04
5.292284E+03	2.396788E-04	1.032453E-04
5.302269E+03	2.384680E-04	1.027238E-04
5.312255E+03	2.372766E-04	1.022105E-04
5.322240E+03	2.360606E-04	1.016868E-04
5.332226E+03	2.348427E-04	1.011621E-04
5.342211E+03	2.336229E-04	1.006366E-04
5.352196E+03	2.324013E-04	1.001104E-04
5.362182E+03	2.311569E-04	9.957436E-05
5.372167E+03	2.299328E-04	9.904703E-05
5.382153E+03	2.286866E-04	9.851019E-05
5.392138E+03	2.274396E-04	9.797302E-05
5.402124E+03	2.261923E-04	9.743574E-05
5.412109E+03	2.249447E-04	9.689832E-05
5.422095E+03	2.236971E-04	9.636089E-05
5.432080E+03	2.224497E-04	9.582352E-05
5.442065E+03	2.211822E-04	9.527753E-05
5.452051E+03	2.199358E-04	9.474060E-05
5.462036E+03	2.186698E-04	9.419528E-05
5.472022E+03	2.174050E-04	9.365045E-05
5.482007E+03	2.161415E-04	9.310614E-05
5.491993E+03	2.148794E-04	9.256248E-05
5.501978E+03	2.135994E-04	9.201108E-05
5.511964E+03	2.123407E-04	9.146888E-05
5.521949E+03	2.110646E-04	9.091918E-05
5.531934E+03	2.097908E-04	9.037045E-05
5.541920E+03	2.085384E-04	8.983099E-05
5.551905E+03	2.072695E-04	8.928437E-05
5.561891E+03	2.059844E-04	8.873080E-05
5.571876E+03	2.047212E-04	8.818667E-05
5.581862E+03	2.034609E-04	8.764375E-05
5.591847E+03	2.021852E-04	8.709424E-05
5.601833E+03	2.009313E-04	8.655411E-05
5.611818E+03	1.996626E-04	8.600758E-05
5.621803E+03	1.983976E-04	8.546265E-05
5.631789E+03	1.971363E-04	8.491934E-05
5.641774E+03	1.958790E-04	8.437773E-05
5.651760E+03	1.946080E-04	8.383023E-05
5.661745E+03	1.933590E-04	8.329219E-05
5.671731E+03	1.921142E-04	8.275598E-05
5.681716E+03	1.908564E-04	8.221418E-05
5.691701E+03	1.896032E-04	8.167433E-05
5.701687E+03	1.883548E-04	8.113658E-05
5.711672E+03	1.871112E-04	8.060088E-05
5.721658E+03	1.858725E-04	8.006731E-05
5.731643E+03	1.846390E-04	7.953595E-05
5.741629E+03	1.834105E-04	7.900677E-05
5.751614E+03	1.821705E-04	7.847262E-05
5.761600E+03	1.809527E-04	7.794800E-05
5.771585E+03	1.797236E-04	7.741856E-05
5.781570E+03	1.785003E-04	7.689163E-05
5.791556E+03	1.772988E-04	7.637405E-05
5.801541E+03	1.760868E-04	7.585196E-05
5.811527E+03	1.748806E-04	7.533239E-05
5.821512E+03	1.736645E-04	7.480852E-05
5.831498E+03	1.724703E-04	7.429411E-05
5.841483E+03	1.712820E-04	7.378224E-05
5.851469E+03	1.700844E-04	7.326637E-05
5.861454E+03	1.689085E-04	7.275983E-05
5.871439E+03	1.677234E-04	7.224933E-05
5.881425E+03	1.665448E-04	7.174164E-05
5.891410E+03	1.653727E-04	7.123673E-05
5.901396E+03	1.642219E-04	7.074104E-05
5.911381E+03	1.630480E-04	7.023534E-05
5.921367E+03	1.618956E-04	6.973894E-05
5.931352E+03	1.607497E-04	6.924535E-05
5.941338E+03	1.596107E-04	6.875468E-05
5.951323E+03	1.584637E-04	6.826063E-05
5.961308E+03	1.573383E-04	6.777582E-05
5.971294E+03	1.562052E-04	6.728775E-05
5.981279E+03	1.550934E-04	6.680881E-05
5.991265E+03	1.539744E-04	6.632680E-05
6.001250E+03	1.528624E-04	6.584782E-05
6.011236E+03	1.517575E-04	6.537187E-05
6.021221E+03	1.506598E-04	6.489899E-05
6.031207E+03	1.495692E-04	6.442923E-05
6.041192E+03	1.484857E-04	6.396251E-05
6.051177E+03	1.474095E-04	6.349890E-05
6.061163E+03	1.463271E-04	6.303267E-05
6.071148E+03	1.452654E-04	6.257532E-05
6.081134E+03	1.441978E-04	6.211542E-05
6.091119E+03	1.431506E-04	6.166434E-05
6.101105E+03	1.420977E-04	6.121078E-05
6.111090E+03	1.410652E-04	6.076603E-05
6.121075E+03	1.400271E-04	6.031888E-05
6.131061E+03	1.389966E-04	5.987495E-05
6.141046E+03	1.379735E-04	5.943427E-05
6.151032E+03	1.369580E-04	5.899683E-05
6.161017E+03	1.359498E-04	5.856255E-05
6.171003E+03	1.349493E-04	5.813155E-05
6.180988E+03	1.339562E-04	5.770379E-05
6.190974E+03	1.329706E-04	5.727923E-05
6.200959E+03	1.319805E-04	5.685272E-05
6.210944E+03	1.310100E-04	5.643466E-05
6.220930E+03	1.300352E-04	5.601476E-05
6.230915E+03	1.290797E-04	5.560319E-05
6.240901E+03	1.281200E-04	5.518980E-05
6.250886E+03	1.271798E-04	5.478476E-05
6.260872E+03	1.262353E-04	5.437794E-05
6.270857E+03	1.252985E-04	5.397442E-05
6.280843E+03	1.243808E-04	5.357908E-05
6.290828E+03	1.234591E-04	5.318208E-05
6.300813E+03	1.225451E-04	5.278837E-05
6.310799E+03	1.216387E-04	5.239792E-05
6.320784E+03	1.207399E-04	5.201073E-05
6.330770E+03	1.198486E-04	5.162681E-05
6.340755E+03	1.189649E-04	5.124614E-05
6.350741E+03	1.180887E-04	5.086871E-05
6.360726E+03	1.172092E-04	5.048989E-05
6.370712E+03	1.163481E-04	5.011896E-05
6.380697E+03	1.154945E-04	4.975124E-05
6.390682E+03	1.146378E-04	4.938221E-05
6.400668E+03	1.137991E-04	4.902095E-05
6.410653E+03	1.129678E-04	4.866287E-05
6.420639E+03	1.121337E-04	4.830354E-05
6.430624E+03	1.113172E-04	4.795186E-05
6.440610E+03	1.104980E-04	4.759895E-05
6.450595E+03	1.096861E-04	4.724926E-05
6.460580E+03	1.088918E-04	4.690707E-05
6.470566E+03	1.080947E-04	4.656374E-05
6.480551E+03	1.073050E-04	4.622357E-05
6.490537E+03	1.065226E-04	4.588656E-05
6.500522E+03	1.057573E-04	4.555689E-05
6.510508E+03	1.049895E-04	4.522612E-05
6.520493E+03	1.042288E-04	4.489847E-05
6.530479E+03	1.034754E-04	4.457392E-05
6.540464E+03	1.027291E-04	4.425245E-05
6.550449E+03	1.019899E-04	4.393405E-05
6.560435E+03	1.012578E-04	4.361870E-05
6.570420E+03	1.005235E-04	4.330239E-05
6.580406E+03	9.980551E-05	4.299311E-05
6.590391E+03	9.909449E-05	4.268683E-05
6.600377E+03	9.839037E-05	4.238353E-05
6.610362E+03	9.769313E-05	4.208318E-05
6.620348E+03	9.699374E-05	4.178192E-05
6.630333E+03	9.631015E-05	4.148745E-05
6.640318E+03	9.563330E-05	4.119590E-05
6.650304E+03	9.495433E-05	4.090343E-05
6.660289E+03	9.429084E-05	4.061762E-05
6.670275E+03	9.362526E-05	4.033092E-05
6.680260E+03	9.297495E-05	4.005079E-05
6.690246E+03	9.232254E-05	3.976977E-05
6.700231E+03	9.168520E-05	3.949523E-05
6.710217E+03	9.104576E-05	3.921978E-05
6.720202E+03	9.041275E-05	3.894711E-05
6.730187E+03	8.979446E-05	3.868078E-05
6.740173E+03	8.917407E-05	3.841354E-05
6.750158E+03	8.855995E-05	3.814900E-05
6.760144E+03	8.795201E-05	3.788713E-05
6.770129E+03	8.735835E-05	3.763141E-05
6.780115E+03	8.676257E-05	3.737477E-05
6.790100E+03	8.617280E-05	3.712072E-05
6.800085E+03	8.558899E-05	3.686924E-05
6.810071E+03	8.501105E-05	3.662029E-05
6.820056E+03	8.443894E-05	3.637385E-05
6.830042E+03	8.387260E-05	3.612990E-05
6.840027E+03	8.331194E-05	3.588839E-05
6.850013E+03	8.275692E-05	3.564931E-05
6.859998E+03	8.220746E-05	3.541262E-05
6.869984E+03	8.166350E-05	3.517831E-05
6.879969E+03	8.112497E-05	3.494633E-05
6.889954E+03	8.058426E-05	3.471342E-05
6.899940E+03	8.005643E-05	3.448605E-05
6.909925E+03	7.953384E-05	3.426094E-05
6.919911E+03	7.901639E-05	3.403805E-05
6.929896E+03	7.849669E-05	3.381418E-05
6.939882E+03	7.798941E-05	3.359567E-05
6.949867E+03	7.748709E-05	3.337929E-05
6.959853E+03	7.698242E-05	3.316190E-05
6.969838E+03	7.648984E-05	3.294972E-05
6.979823E+03	7.599486E-05	3.273650E-05
6.989809E+03	7.551174E-05	3.252840E-05
6.999794E+03	7.502618E-05	3.231924E-05
7.009780E+03	7.454524E-05	3.211207E-05
7.019765E+03	7.407582E-05	3.190986E-05
7.029751E+03	7.360387E-05	3.170657E-05
7.039736E+03	7.314323E-05	3.150814E-05
7.049722E+03	7.267999E-05	3.130860E-05
7.059707E+03	7.222103E-05	3.111090E-05
7.069692E+03	7.176627E-05	3.091501E-05
7.079678E+03	7.131565E-05	3.072090E-05
7.089663E+03	7.087579E-05	3.053143E-05
7.099649E+03	7.043320E-05	3.034078E-05
7.109634E+03	6.999454E-05	3.015182E-05
7.119620E+03	6.955974E-05	2.996453E-05
7.129605E+03	6.912873E-05	2.977887E-05
7.139590E+03	6.870147E-05	2.959482E-05
7.149576E+03	6.827787E-05	2.941235E-05
7.159561E+03	6.785787E-05	2.923143E-05
7.169547E+03	6.743501E-05	2.904928E-05
7.179532E+03	6.702206E-05	2.887140E-05
7.189518E+03	6.661252E-05	2.869499E-05
7.199503E+03	6.620634E-05	2.852002E-05
7.209489E+03	6.579717E-05	2.834377E-05
7.219474E+03	6.539754E-05	2.817163E-05
7.229459E+03	6.500109E-05	2.800085E-05
7.239445E+03	6.460158E-05	2.782876E-05
7.249430E+03	6.421132E-05	2.766065E-05
7.259416E+03	6.381797E-05	2.749121E-05
7.269401E+03	6.343369E-05	2.732568E-05
7.279387E+03	6.304625E-05	2.715879E-05
7.289372E+03	6.266174E-05	2.699316E-05
7.299358E+03	6.228603E-05	2.683132E-05
7.309343E+03	6.190713E-05	2.666810E-05
7.319328E+03	6.153096E-05	2.650607E-05
7.329314E+03	6.115752E-05	2.634520E-05
7.339299E+03	6.078671E-05	2.618547E-05
7.349285E+03	6.041851E-05	2.602686E-05
7.359270E+03	6.005286E-05	2.586936E-05
7.369256E+03	5.968973E-05	2.571294E-05
7.379241E+03	5.932908E-05	2.555758E-05
7.389227E+03	5.897087E-05	2.540328E-05
7.399212E+03	5.861503E-05	2.525000E-05
7.409197E+03	5.826156E-05	2.509774E-05
7.419183E+03	5.790480E-05	2.494406E-05
7.429168E+03	5.755596E-05	2.479379E-05
7.439154E+03	5.720935E-05	2.464449E-05
7.449139E+03	5.685946E-05	2.449377E-05
7.459125E+03	5.651727E-05	2.434637E-05
7.469110E+03	5.617179E-05	2.419755E-05
7.479095E+03	5.583391E-05	2.405200E-05
7.489081E+03	5.549275E-05	2.390504E-05
7.499066E+03	5.515369E-05	2.375899E-05
7.509052E+03	5.482206E-05	2.361614E-05
7.519037E+03	5.448716E-05	2.347188E-05
7.529023E+03	5.415432E-05	2.332850E-05
7.539008E+03	5.382351E-05	2.318600E-05
7.548994E+03	5.349471E-05	2.304437E-05
7.558979E+03	5.316789E-05	2.290359E-05
7.568964E+03	5.284306E-05	2.276366E-05
7.578950E+03	5.252021E-05	2.262459E-05
7.588935E+03	5.219929E-05	2.248635E-05
7.598921E+03	5.187523E-05	2.234676E-05
7.608906E+03	5.155820E-05	2.221020E-05
7.618892E+03	5.124308E-05	2.207445E-05
7.628877E+03	5.092488E-05	2.193738E-05
7.638863E+03	5.061360E-05	2.180329E-05
7.648848E+03	5.029924E-05	2.166788E-05
7.658833E+03	4.998684E-05	2.153331E-05
7.668819E+03	4.968126E-05	2.140168E-05
7.678804E+03	4.937270E-05	2.126876E-05
7.688790E+03	4.906606E-05	2.113667E-05
7.698775E+03	4.876136E-05	2.100542E-05
7.708761E+03	4.845856E-05	2.087499E-05
7.718746E+03	4.815770E-05	2.074539E-05
7.728732E+03	4.785877E-05	2.061662E-05
7.738717E+03	4.756178E-05	2.048869E-05
7.748702E+03	4.726672E-05	2.036158E-05
