#wls	flux	fluxerr
1.597671E+03	6.970418E-05	2.268549E-05
1.637612E+03	6.942605E-05	2.259496E-05
1.677554E+03	6.890388E-05	2.242502E-05
1.717496E+03	6.813931E-05	2.217618E-05
1.757438E+03	6.713513E-05	2.184936E-05
1.797379E+03	6.583806E-05	2.142722E-05
1.837321E+03	6.416984E-05	2.088429E-05
1.877263E+03	6.207093E-05	2.020119E-05
1.917205E+03	5.947392E-05	1.935597E-05
1.957146E+03	5.638569E-05	1.835089E-05
1.997088E+03	5.291675E-05	1.722191E-05
2.037030E+03	4.936059E-05	1.606455E-05
2.076972E+03	4.620201E-05	1.503657E-05
2.116914E+03	4.402562E-05	1.432825E-05
2.156855E+03	4.329828E-05	1.409154E-05
2.196797E+03	4.413524E-05	1.436392E-05
2.236739E+03	4.633341E-05	1.507932E-05
2.276681E+03	4.948160E-05	1.610390E-05
2.316622E+03	5.314601E-05	1.729648E-05
2.356564E+03	5.697734E-05	1.854339E-05
2.396506E+03	6.077076E-05	1.977796E-05
2.436448E+03	6.442050E-05	2.096577E-05
2.476389E+03	6.789237E-05	2.209569E-05
2.516331E+03	7.119282E-05	2.316981E-05
2.556273E+03	7.434756E-05	2.419652E-05
2.596215E+03	7.737668E-05	2.518234E-05
2.636156E+03	8.033790E-05	2.614606E-05
2.676098E+03	8.323619E-05	2.708931E-05
2.716040E+03	8.612474E-05	2.802938E-05
2.755982E+03	8.899910E-05	2.896483E-05
2.795924E+03	9.190658E-05	2.991106E-05
2.835865E+03	9.483435E-05	3.086389E-05
2.875807E+03	9.780972E-05	3.183221E-05
2.915749E+03	1.008590E-04	3.282458E-05
2.955691E+03	1.039596E-04	3.383364E-05
2.995632E+03	1.071335E-04	3.486658E-05
3.005618E+03	1.079323E-04	3.512654E-05
3.015603E+03	1.087516E-04	3.539319E-05
3.025589E+03	1.095750E-04	3.566116E-05
3.035574E+03	1.103878E-04	3.592568E-05
3.045560E+03	1.112315E-04	3.620028E-05
3.055545E+03	1.120975E-04	3.648211E-05
3.065530E+03	1.129661E-04	3.676479E-05
3.075516E+03	1.138694E-04	3.705875E-05
3.085501E+03	1.147883E-04	3.735781E-05
3.095487E+03	1.157210E-04	3.766133E-05
3.105472E+03	1.166655E-04	3.796872E-05
3.115458E+03	1.176204E-04	3.827950E-05
3.125443E+03	1.186022E-04	3.859902E-05
3.135429E+03	1.195738E-04	3.891521E-05
3.145414E+03	1.205518E-04	3.923350E-05
3.155399E+03	1.215350E-04	3.955349E-05
3.165385E+03	1.225410E-04	3.988088E-05
3.175370E+03	1.235321E-04	4.020342E-05
3.185356E+03	1.245443E-04	4.053285E-05
3.195341E+03	1.255399E-04	4.085686E-05
3.205327E+03	1.265555E-04	4.118739E-05
3.215312E+03	1.275719E-04	4.151816E-05
3.225298E+03	1.285695E-04	4.184281E-05
3.235283E+03	1.295858E-04	4.217357E-05
3.245268E+03	1.306016E-04	4.250415E-05
3.255254E+03	1.316163E-04	4.283440E-05
3.265239E+03	1.326299E-04	4.316425E-05
3.275225E+03	1.336419E-04	4.349359E-05
3.285210E+03	1.346522E-04	4.382240E-05
3.295196E+03	1.356604E-04	4.415052E-05
3.305181E+03	1.366667E-04	4.447800E-05
3.315166E+03	1.376909E-04	4.481132E-05
3.325152E+03	1.386927E-04	4.513734E-05
3.335137E+03	1.396921E-04	4.546261E-05
3.345123E+03	1.407097E-04	4.579377E-05
3.355108E+03	1.417045E-04	4.611751E-05
3.365094E+03	1.426967E-04	4.644043E-05
3.375079E+03	1.437075E-04	4.676937E-05
3.385065E+03	1.447160E-04	4.709760E-05
3.395050E+03	1.457014E-04	4.741827E-05
3.405035E+03	1.467056E-04	4.774511E-05
3.415021E+03	1.477079E-04	4.807128E-05
3.425006E+03	1.486867E-04	4.838981E-05
3.434992E+03	1.496850E-04	4.871470E-05
3.444977E+03	1.506814E-04	4.903898E-05
3.454963E+03	1.516760E-04	4.936267E-05
3.464948E+03	1.526691E-04	4.968586E-05
3.474934E+03	1.536604E-04	5.000848E-05
3.484919E+03	1.546504E-04	5.033065E-05
3.494904E+03	1.556388E-04	5.065234E-05
3.504890E+03	1.566259E-04	5.097359E-05
3.514875E+03	1.576117E-04	5.129440E-05
3.524861E+03	1.586187E-04	5.162211E-05
3.534846E+03	1.596021E-04	5.194217E-05
3.544832E+03	1.605845E-04	5.226186E-05
3.554817E+03	1.615658E-04	5.258121E-05
3.564803E+03	1.625688E-04	5.290764E-05
3.574788E+03	1.635480E-04	5.322631E-05
3.584773E+03	1.645493E-04	5.355219E-05
3.594759E+03	1.655268E-04	5.387029E-05
3.604744E+03	1.665265E-04	5.419564E-05
3.614730E+03	1.675021E-04	5.451313E-05
3.624715E+03	1.685002E-04	5.483794E-05
3.634701E+03	1.694738E-04	5.515480E-05
3.644686E+03	1.704701E-04	5.547904E-05
3.654671E+03	1.714655E-04	5.580299E-05
3.664657E+03	1.724361E-04	5.611887E-05
3.674642E+03	1.734296E-04	5.644217E-05
3.684628E+03	1.744218E-04	5.676507E-05
3.694613E+03	1.754129E-04	5.708764E-05
3.704599E+03	1.764029E-04	5.740980E-05
3.714584E+03	1.773672E-04	5.772362E-05
3.724570E+03	1.783541E-04	5.804481E-05
3.734555E+03	1.793396E-04	5.836553E-05
3.744540E+03	1.803233E-04	5.868566E-05
3.754526E+03	1.813051E-04	5.900518E-05
3.764511E+03	1.822850E-04	5.932407E-05
3.774497E+03	1.832626E-04	5.964221E-05
3.784482E+03	1.842379E-04	5.995961E-05
3.794468E+03	1.852106E-04	6.027619E-05
3.804453E+03	1.861807E-04	6.059189E-05
3.814439E+03	1.871477E-04	6.090660E-05
3.824424E+03	1.881117E-04	6.122030E-05
3.834409E+03	1.890723E-04	6.153293E-05
3.844395E+03	1.900294E-04	6.184440E-05
3.854380E+03	1.909825E-04	6.215459E-05
3.864366E+03	1.919317E-04	6.246347E-05
3.874351E+03	1.929022E-04	6.277932E-05
3.884337E+03	1.938425E-04	6.308532E-05
3.894322E+03	1.947780E-04	6.338977E-05
3.904308E+03	1.957083E-04	6.369254E-05
3.914293E+03	1.966333E-04	6.399357E-05
3.924278E+03	1.975525E-04	6.429272E-05
3.934264E+03	1.984659E-04	6.458995E-05
3.944249E+03	1.993991E-04	6.489366E-05
3.954235E+03	2.002997E-04	6.518673E-05
3.964220E+03	2.011933E-04	6.547755E-05
3.974206E+03	2.020797E-04	6.576604E-05
3.984191E+03	2.029587E-04	6.605207E-05
3.994176E+03	2.038298E-04	6.633556E-05
4.004162E+03	2.047194E-04	6.662508E-05
4.014147E+03	2.055739E-04	6.690316E-05
4.024133E+03	2.064196E-04	6.717840E-05
4.034118E+03	2.072562E-04	6.745065E-05
4.044104E+03	2.080834E-04	6.771983E-05
4.054089E+03	2.089006E-04	6.798580E-05
4.064075E+03	2.097078E-04	6.824849E-05
4.074060E+03	2.105045E-04	6.850776E-05
4.084045E+03	2.112904E-04	6.876351E-05
4.094031E+03	2.120651E-04	6.901563E-05
4.104016E+03	2.128283E-04	6.926401E-05
4.114002E+03	2.135798E-04	6.950858E-05
4.123987E+03	2.143191E-04	6.974918E-05
4.133973E+03	2.150459E-04	6.998570E-05
4.143958E+03	2.157601E-04	7.021810E-05
4.153944E+03	2.164610E-04	7.044619E-05
4.163929E+03	2.171485E-04	7.066996E-05
4.173914E+03	2.178223E-04	7.088921E-05
4.183900E+03	2.184820E-04	7.110390E-05
4.193885E+03	2.191274E-04	7.131394E-05
4.203871E+03	2.197581E-04	7.151920E-05
4.213856E+03	2.203461E-04	7.171055E-05
4.223842E+03	2.209466E-04	7.190597E-05
4.233827E+03	2.215316E-04	7.209635E-05
4.243813E+03	2.221007E-04	7.228155E-05
4.253798E+03	2.226261E-04	7.245252E-05
4.263783E+03	2.231628E-04	7.262718E-05
4.273769E+03	2.236552E-04	7.278743E-05
4.283754E+03	2.241585E-04	7.295121E-05
4.293740E+03	2.246170E-04	7.310042E-05
4.303725E+03	2.250860E-04	7.325305E-05
4.313711E+03	2.255095E-04	7.339087E-05
4.323696E+03	2.259434E-04	7.353207E-05
4.333681E+03	2.263313E-04	7.365831E-05
4.343667E+03	2.267012E-04	7.377867E-05
4.353652E+03	2.270528E-04	7.389310E-05
4.363638E+03	2.274139E-04	7.401061E-05
4.373623E+03	2.277284E-04	7.411296E-05
4.383609E+03	2.280243E-04	7.420926E-05
4.393594E+03	2.283013E-04	7.429938E-05
4.403580E+03	2.285593E-04	7.438333E-05
4.413565E+03	2.287982E-04	7.446109E-05
4.423550E+03	2.290179E-04	7.453260E-05
4.433536E+03	2.292184E-04	7.459782E-05
4.443521E+03	2.293717E-04	7.464771E-05
4.453507E+03	2.295333E-04	7.470030E-05
4.463492E+03	2.296756E-04	7.474659E-05
4.473478E+03	2.297705E-04	7.477749E-05
4.483463E+03	2.298738E-04	7.481109E-05
4.493449E+03	2.299575E-04	7.483832E-05
4.503434E+03	2.299939E-04	7.485017E-05
4.513419E+03	2.300108E-04	7.485566E-05
4.523405E+03	2.300358E-04	7.486380E-05
4.533390E+03	2.300139E-04	7.485664E-05
4.543376E+03	2.299724E-04	7.484315E-05
4.553361E+03	2.299116E-04	7.482334E-05
4.563347E+03	2.298316E-04	7.479729E-05
4.573332E+03	2.297323E-04	7.476497E-05
4.583318E+03	2.296138E-04	7.472642E-05
4.593303E+03	2.294764E-04	7.468170E-05
4.603288E+03	2.293201E-04	7.463081E-05
4.613274E+03	2.291448E-04	7.457376E-05
4.623259E+03	2.289237E-04	7.450181E-05
4.633245E+03	2.287114E-04	7.443269E-05
4.643230E+03	2.284534E-04	7.434875E-05
4.653216E+03	2.282043E-04	7.426767E-05
4.663201E+03	2.279102E-04	7.417194E-05
4.673186E+03	2.275983E-04	7.407044E-05
4.683172E+03	2.272955E-04	7.397188E-05
4.693157E+03	2.269484E-04	7.385890E-05
4.703143E+03	2.265840E-04	7.374031E-05
4.713128E+03	2.262024E-04	7.361613E-05
4.723114E+03	2.258041E-04	7.348649E-05
4.733099E+03	2.253890E-04	7.335140E-05
4.743085E+03	2.249313E-04	7.320242E-05
4.753070E+03	2.244837E-04	7.305675E-05
4.763055E+03	2.240200E-04	7.290585E-05
4.773041E+03	2.235146E-04	7.274137E-05
4.783026E+03	2.230197E-04	7.258030E-05
4.793012E+03	2.224838E-04	7.240588E-05
4.802997E+03	2.219329E-04	7.222661E-05
4.812983E+03	2.213675E-04	7.204259E-05
4.822968E+03	2.207876E-04	7.185386E-05
4.832954E+03	2.201938E-04	7.166062E-05
4.842939E+03	2.195861E-04	7.146283E-05
4.852924E+03	2.189648E-04	7.126064E-05
4.862910E+03	2.183303E-04	7.105412E-05
4.872895E+03	2.176827E-04	7.084337E-05
4.882881E+03	2.169974E-04	7.062035E-05
4.892866E+03	2.163247E-04	7.040143E-05
4.902852E+03	2.156152E-04	7.017051E-05
4.912837E+03	2.149185E-04	6.994377E-05
4.922823E+03	2.141856E-04	6.970526E-05
4.932808E+03	2.134417E-04	6.946315E-05
4.942793E+03	2.126870E-04	6.921753E-05
4.952779E+03	2.119215E-04	6.896840E-05
4.962764E+03	2.111458E-04	6.871596E-05
4.972750E+03	2.103602E-04	6.846028E-05
4.982735E+03	2.095409E-04	6.819366E-05
4.992721E+03	2.087362E-04	6.793176E-05
5.002706E+03	2.079224E-04	6.766690E-05
5.012691E+03	2.070760E-04	6.739145E-05
5.022677E+03	2.062214E-04	6.711333E-05
5.032662E+03	2.053820E-04	6.684014E-05
5.042648E+03	2.045113E-04	6.655678E-05
5.052633E+03	2.036330E-04	6.627096E-05
5.062619E+03	2.027476E-04	6.598279E-05
5.072604E+03	2.018551E-04	6.569233E-05
5.082590E+03	2.009559E-04	6.539971E-05
5.092575E+03	2.000503E-04	6.510495E-05
5.102560E+03	1.991160E-04	6.480089E-05
5.112546E+03	1.981984E-04	6.450227E-05
5.122531E+03	1.972528E-04	6.419453E-05
5.132517E+03	1.963243E-04	6.389234E-05
5.142502E+03	1.953685E-04	6.358128E-05
5.152488E+03	1.944081E-04	6.326873E-05
5.162473E+03	1.934433E-04	6.295474E-05
5.172459E+03	1.924743E-04	6.263941E-05
5.182444E+03	1.915015E-04	6.232281E-05
5.192429E+03	1.905249E-04	6.200497E-05
5.202415E+03	1.895448E-04	6.168602E-05
5.212400E+03	1.885617E-04	6.136605E-05
5.222386E+03	1.875545E-04	6.103826E-05
5.232371E+03	1.865656E-04	6.071644E-05
5.242357E+03	1.855535E-04	6.038706E-05
5.252342E+03	1.845393E-04	6.005698E-05
5.262328E+03	1.835437E-04	5.973298E-05
5.272313E+03	1.825258E-04	5.940172E-05
5.282298E+03	1.815066E-04	5.907001E-05
5.292284E+03	1.804861E-04	5.873790E-05
5.302269E+03	1.794645E-04	5.840545E-05
5.312255E+03	1.784421E-04	5.807272E-05
5.322240E+03	1.773994E-04	5.773336E-05
5.332226E+03	1.763760E-04	5.740030E-05
5.342211E+03	1.753328E-04	5.706080E-05
5.352196E+03	1.743091E-04	5.672764E-05
5.362182E+03	1.732664E-04	5.638831E-05
5.372167E+03	1.722431E-04	5.605529E-05
5.382153E+03	1.712014E-04	5.571627E-05
5.392138E+03	1.701606E-04	5.537753E-05
5.402124E+03	1.691206E-04	5.503909E-05
5.412109E+03	1.680819E-04	5.470105E-05
5.422095E+03	1.670445E-04	5.436342E-05
5.432080E+03	1.660085E-04	5.402626E-05
5.442065E+03	1.649558E-04	5.368369E-05
5.452051E+03	1.639233E-04	5.334765E-05
5.462036E+03	1.628746E-04	5.300637E-05
5.472022E+03	1.618462E-04	5.267167E-05
5.482007E+03	1.608021E-04	5.233189E-05
5.491993E+03	1.597782E-04	5.199867E-05
5.501978E+03	1.587392E-04	5.166053E-05
5.511964E+03	1.577030E-04	5.132331E-05
5.521949E+03	1.566696E-04	5.098699E-05
5.531934E+03	1.556394E-04	5.065171E-05
5.541920E+03	1.546121E-04	5.031740E-05
5.551905E+03	1.535882E-04	4.998417E-05
5.561891E+03	1.525507E-04	4.964653E-05
5.571876E+03	1.515336E-04	4.931553E-05
5.581862E+03	1.505201E-04	4.898569E-05
5.591847E+03	1.494937E-04	4.865164E-05
5.601833E+03	1.484876E-04	4.832422E-05
5.611818E+03	1.474691E-04	4.799277E-05
5.621803E+03	1.464548E-04	4.766267E-05
5.631789E+03	1.454606E-04	4.733913E-05
5.641774E+03	1.444546E-04	4.701172E-05
5.651760E+03	1.434531E-04	4.668578E-05
5.661745E+03	1.424559E-04	4.636125E-05
5.671731E+03	1.414632E-04	4.603819E-05
5.681716E+03	1.404751E-04	4.571664E-05
5.691701E+03	1.394764E-04	4.539161E-05
5.701687E+03	1.384978E-04	4.507314E-05
5.711672E+03	1.375241E-04	4.475624E-05
5.721658E+03	1.365401E-04	4.443601E-05
5.731643E+03	1.355762E-04	4.412231E-05
5.741629E+03	1.346024E-04	4.380540E-05
5.751614E+03	1.336484E-04	4.349492E-05
5.761600E+03	1.326850E-04	4.318138E-05
5.771585E+03	1.317268E-04	4.286956E-05
5.781570E+03	1.307740E-04	4.255948E-05
5.791556E+03	1.298266E-04	4.225116E-05
5.801541E+03	1.288846E-04	4.194460E-05
5.811527E+03	1.279481E-04	4.163981E-05
5.821512E+03	1.270171E-04	4.133682E-05
5.831498E+03	1.260916E-04	4.103563E-05
5.841483E+03	1.251717E-04	4.073625E-05
5.851469E+03	1.242573E-04	4.043869E-05
5.861454E+03	1.233351E-04	4.013855E-05
5.871439E+03	1.224321E-04	3.984469E-05
5.881425E+03	1.215348E-04	3.955268E-05
5.891410E+03	1.206300E-04	3.925821E-05
5.901396E+03	1.197311E-04	3.896567E-05
5.911381E+03	1.188511E-04	3.867929E-05
5.921367E+03	1.179640E-04	3.839058E-05
5.931352E+03	1.170828E-04	3.810381E-05
5.941338E+03	1.162203E-04	3.782312E-05
5.951323E+03	1.153510E-04	3.754021E-05
5.961308E+03	1.144877E-04	3.725924E-05
5.971294E+03	1.136304E-04	3.698023E-05
5.981279E+03	1.127791E-04	3.670318E-05
5.991265E+03	1.119338E-04	3.642808E-05
6.001250E+03	1.110945E-04	3.615495E-05
6.011236E+03	1.102491E-04	3.587984E-05
6.021221E+03	1.094220E-04	3.561065E-05
6.031207E+03	1.086009E-04	3.534343E-05
6.041192E+03	1.077858E-04	3.507817E-05
6.051177E+03	1.069650E-04	3.481105E-05
6.061163E+03	1.061621E-04	3.454974E-05
6.071148E+03	1.053536E-04	3.428663E-05
6.081134E+03	1.045628E-04	3.402926E-05
6.091119E+03	1.037666E-04	3.377014E-05
6.101105E+03	1.029765E-04	3.351304E-05
6.111090E+03	1.022039E-04	3.326159E-05
6.121075E+03	1.014261E-04	3.300847E-05
6.131061E+03	1.006545E-04	3.275734E-05
6.141046E+03	9.988897E-05	3.250822E-05
6.151032E+03	9.912959E-05	3.226108E-05
6.161017E+03	9.838710E-05	3.201944E-05
6.171003E+03	9.763983E-05	3.177625E-05
6.180988E+03	9.689865E-05	3.153504E-05
6.190974E+03	9.616353E-05	3.129580E-05
6.200959E+03	9.542397E-05	3.105512E-05
6.210944E+03	9.470100E-05	3.081984E-05
6.220930E+03	9.398403E-05	3.058651E-05
6.230915E+03	9.327307E-05	3.035513E-05
6.240901E+03	9.256806E-05	3.012569E-05
6.250886E+03	9.185892E-05	2.989491E-05
6.260872E+03	9.116587E-05	2.966936E-05
6.270857E+03	9.047873E-05	2.944574E-05
6.280843E+03	8.978761E-05	2.922082E-05
6.290828E+03	8.911229E-05	2.900104E-05
6.300813E+03	8.843308E-05	2.878000E-05
6.310799E+03	8.776950E-05	2.856404E-05
6.320784E+03	8.710212E-05	2.834685E-05
6.330770E+03	8.644063E-05	2.813158E-05
6.340755E+03	8.579447E-05	2.792129E-05
6.350741E+03	8.514466E-05	2.770981E-05
6.360726E+03	8.450066E-05	2.750023E-05
6.370712E+03	8.387169E-05	2.729554E-05
6.380697E+03	8.323918E-05	2.708969E-05
6.390682E+03	8.261242E-05	2.688572E-05
6.400668E+03	8.199134E-05	2.668360E-05
6.410653E+03	8.137594E-05	2.648332E-05
6.420639E+03	8.076620E-05	2.628488E-05
6.430624E+03	8.016205E-05	2.608827E-05
6.440610E+03	7.956347E-05	2.589347E-05
6.450595E+03	7.897045E-05	2.570047E-05
6.460580E+03	7.838293E-05	2.550927E-05
6.470566E+03	7.780090E-05	2.531985E-05
6.480551E+03	7.722430E-05	2.513220E-05
6.490537E+03	7.665312E-05	2.494632E-05
6.500522E+03	7.608732E-05	2.476218E-05
6.510508E+03	7.551850E-05	2.457707E-05
6.520493E+03	7.496340E-05	2.439641E-05
6.530479E+03	7.441356E-05	2.421747E-05
6.540464E+03	7.386079E-05	2.403758E-05
6.550449E+03	7.332143E-05	2.386205E-05
6.560435E+03	7.278723E-05	2.368820E-05
6.570420E+03	7.225014E-05	2.351341E-05
6.580406E+03	7.172621E-05	2.334290E-05
6.590391E+03	7.119941E-05	2.317146E-05
6.600377E+03	7.068556E-05	2.300423E-05
6.610362E+03	7.016890E-05	2.283609E-05
6.620348E+03	6.966499E-05	2.267209E-05
6.630333E+03	6.915831E-05	2.250720E-05
6.640318E+03	6.866417E-05	2.234639E-05
6.650304E+03	6.816730E-05	2.218468E-05
6.660289E+03	6.767528E-05	2.202456E-05
6.670275E+03	6.719554E-05	2.186843E-05
6.680260E+03	6.671308E-05	2.171142E-05
6.690246E+03	6.623535E-05	2.155595E-05
6.700231E+03	6.576232E-05	2.140200E-05
6.710217E+03	6.530120E-05	2.125194E-05
6.720202E+03	6.483738E-05	2.110099E-05
6.730187E+03	6.437813E-05	2.095153E-05
6.740173E+03	6.392341E-05	2.080355E-05
6.750158E+03	6.347317E-05	2.065702E-05
6.760144E+03	6.302735E-05	2.051193E-05
6.770129E+03	6.258592E-05	2.036827E-05
6.780115E+03	6.214886E-05	2.022604E-05
6.790100E+03	6.171608E-05	2.008519E-05
6.800085E+03	6.128756E-05	1.994573E-05
6.810071E+03	6.086325E-05	1.980765E-05
6.820056E+03	6.044311E-05	1.967091E-05
6.830042E+03	6.002709E-05	1.953552E-05
6.840027E+03	5.961514E-05	1.940146E-05
6.850013E+03	5.920723E-05	1.926871E-05
6.859998E+03	5.879674E-05	1.913512E-05
6.869984E+03	5.839679E-05	1.900496E-05
6.879969E+03	5.800076E-05	1.887607E-05
6.889954E+03	5.760856E-05	1.874843E-05
6.899940E+03	5.721377E-05	1.861995E-05
6.909925E+03	5.682919E-05	1.849480E-05
6.919911E+03	5.644832E-05	1.837084E-05
6.929896E+03	5.606485E-05	1.824605E-05
6.939882E+03	5.569133E-05	1.812449E-05
6.949867E+03	5.532137E-05	1.800409E-05
6.959853E+03	5.494881E-05	1.788284E-05
6.969838E+03	5.458594E-05	1.776475E-05
6.979823E+03	5.422042E-05	1.764579E-05
6.989809E+03	5.386444E-05	1.752994E-05
6.999794E+03	5.350581E-05	1.741323E-05
7.009780E+03	5.315057E-05	1.729762E-05
7.019765E+03	5.280461E-05	1.718503E-05
7.029751E+03	5.245600E-05	1.707158E-05
7.039736E+03	5.211650E-05	1.696109E-05
7.049722E+03	5.177433E-05	1.684973E-05
7.059707E+03	5.143532E-05	1.673941E-05
7.069692E+03	5.109946E-05	1.663010E-05
7.079678E+03	5.077239E-05	1.652366E-05
7.089663E+03	5.044262E-05	1.641634E-05
7.099649E+03	5.011587E-05	1.631000E-05
7.109634E+03	4.979207E-05	1.620463E-05
7.119620E+03	4.947121E-05	1.610020E-05
7.129605E+03	4.915322E-05	1.599672E-05
7.139590E+03	4.883808E-05	1.589416E-05
7.149576E+03	4.852574E-05	1.579251E-05
7.159561E+03	4.821617E-05	1.569176E-05
7.169547E+03	4.790932E-05	1.559190E-05
7.179532E+03	4.760517E-05	1.549291E-05
7.189518E+03	4.730366E-05	1.539479E-05
7.199503E+03	4.700476E-05	1.529752E-05
7.209489E+03	4.670845E-05	1.520108E-05
7.219474E+03	4.641467E-05	1.510548E-05
7.229459E+03	4.612340E-05	1.501069E-05
7.239445E+03	4.582940E-05	1.491501E-05
7.249430E+03	4.554306E-05	1.482182E-05
7.259416E+03	4.525913E-05	1.472942E-05
7.269401E+03	4.497757E-05	1.463779E-05
7.279387E+03	4.469327E-05	1.454526E-05
7.289372E+03	4.441638E-05	1.445515E-05
7.299358E+03	4.414175E-05	1.436577E-05
7.309343E+03	4.386438E-05	1.427551E-05
7.319328E+03	4.359425E-05	1.418759E-05
7.329314E+03	4.332135E-05	1.409878E-05
7.339299E+03	4.305558E-05	1.401229E-05
7.349285E+03	4.278705E-05	1.392490E-05
7.359270E+03	4.252068E-05	1.383821E-05
7.369256E+03	4.226124E-05	1.375378E-05
7.379241E+03	4.199906E-05	1.366845E-05
7.389227E+03	4.173896E-05	1.358380E-05
7.399212E+03	4.148564E-05	1.350136E-05
7.409197E+03	4.122957E-05	1.341803E-05
7.419183E+03	4.097551E-05	1.333534E-05
7.429168E+03	4.072343E-05	1.325331E-05
7.439154E+03	4.047793E-05	1.317341E-05
7.449139E+03	4.022969E-05	1.309262E-05
7.459125E+03	3.998337E-05	1.301246E-05
7.469110E+03	3.973893E-05	1.293291E-05
7.479095E+03	3.949636E-05	1.285397E-05
7.489081E+03	3.925565E-05	1.277563E-05
7.499066E+03	3.901677E-05	1.269789E-05
7.509052E+03	3.877970E-05	1.262074E-05
7.519037E+03	3.853999E-05	1.254272E-05
7.529023E+03	3.830653E-05	1.246675E-05
7.539008E+03	3.807482E-05	1.239134E-05
7.548994E+03	3.784487E-05	1.231650E-05
7.558979E+03	3.761666E-05	1.224223E-05
7.568964E+03	3.738584E-05	1.216711E-05
7.578950E+03	3.716107E-05	1.209396E-05
7.588935E+03	3.693801E-05	1.202137E-05
7.598921E+03	3.671237E-05	1.194794E-05
7.608906E+03	3.649268E-05	1.187644E-05
7.618892E+03	3.627045E-05	1.180412E-05
7.628877E+03	3.605411E-05	1.173371E-05
7.638863E+03	3.583524E-05	1.166248E-05
7.648848E+03	3.561805E-05	1.159180E-05
7.658833E+03	3.540664E-05	1.152300E-05
7.668819E+03	3.519276E-05	1.145339E-05
7.678804E+03	3.498052E-05	1.138432E-05
7.688790E+03	3.477400E-05	1.131711E-05
7.698775E+03	3.456504E-05	1.124910E-05
7.708761E+03	3.435771E-05	1.118163E-05
7.718746E+03	3.415201E-05	1.111469E-05
7.728732E+03	3.394795E-05	1.104828E-05
7.738717E+03	3.374549E-05	1.098239E-05
7.748702E+03	3.354465E-05	1.091703E-05
