#wls	flux	fluxerr
1.581966E+03	1.139738E-15	4.019544E-17
1.621515E+03	1.179108E-15	4.142934E-17
1.661064E+03	1.219135E-15	4.267229E-17
1.700613E+03	1.259643E-15	4.391748E-17
1.740162E+03	1.300529E-15	4.516064E-17
1.779711E+03	1.341605E-15	4.639473E-17
1.819260E+03	1.382047E-15	4.759084E-17
1.858810E+03	1.421436E-15	4.873443E-17
1.898359E+03	1.458875E-15	4.979488E-17
1.937908E+03	1.493424E-15	5.074076E-17
1.977457E+03	1.524263E-15	5.154528E-17
2.017006E+03	1.551438E-15	5.221140E-17
2.056555E+03	1.576293E-15	5.278557E-17
2.096104E+03	1.601950E-15	5.337268E-17
2.135654E+03	1.633057E-15	5.412598E-17
2.175203E+03	1.672866E-15	5.514955E-17
2.214752E+03	1.721576E-15	5.644478E-17
2.254301E+03	1.776324E-15	5.791295E-17
2.293850E+03	1.832986E-15	5.941641E-17
2.333399E+03	1.888096E-15	6.084176E-17
2.372948E+03	1.939452E-15	6.211868E-17
2.412498E+03	1.985960E-15	6.321399E-17
2.452047E+03	2.027528E-15	6.412710E-17
2.491596E+03	2.064198E-15	6.486186E-17
2.531145E+03	2.096355E-15	6.543292E-17
2.570694E+03	2.124192E-15	6.584870E-17
2.610243E+03	2.147984E-15	6.612018E-17
2.649792E+03	2.167840E-15	6.625306E-17
2.689342E+03	2.183864E-15	6.625289E-17
2.728891E+03	2.196154E-15	6.612511E-17
2.768440E+03	2.204753E-15	6.587350E-17
2.807989E+03	2.209722E-15	6.550238E-17
2.847538E+03	2.211259E-15	6.502019E-17
2.887087E+03	2.209448E-15	6.443194E-17
2.926636E+03	2.204652E-15	6.375072E-17
2.966185E+03	2.197032E-15	6.298354E-17
2.976073E+03	2.194776E-15	6.278118E-17
2.985960E+03	2.192332E-15	6.257328E-17
2.995847E+03	2.189697E-15	6.235982E-17
3.005735E+03	2.186971E-15	6.214364E-17
3.015622E+03	2.184099E-15	6.192328E-17
3.025509E+03	2.181083E-15	6.169875E-17
3.035396E+03	2.177981E-15	6.147177E-17
3.045284E+03	2.174731E-15	6.124058E-17
3.055171E+03	2.171411E-15	6.100742E-17
3.065058E+03	2.168101E-15	6.077457E-17
3.074946E+03	2.164702E-15	6.053927E-17
3.084833E+03	2.161258E-15	6.030271E-17
3.094720E+03	2.157721E-15	6.006365E-17
3.104607E+03	2.154225E-15	5.982577E-17
3.114495E+03	2.150648E-15	5.958572E-17
3.124382E+03	2.147044E-15	5.934499E-17
3.134269E+03	2.143468E-15	5.910515E-17
3.144157E+03	2.139940E-15	5.886673E-17
3.154044E+03	2.136402E-15	5.862813E-17
3.163931E+03	2.133001E-15	5.839338E-17
3.173818E+03	2.129686E-15	5.816107E-17
3.183706E+03	2.126525E-15	5.793305E-17
3.193593E+03	2.123509E-15	5.770906E-17
3.203480E+03	2.120707E-15	5.749092E-17
3.213368E+03	2.118141E-15	5.727922E-17
3.223255E+03	2.115835E-15	5.707452E-17
3.233142E+03	2.113764E-15	5.687617E-17
3.243029E+03	2.111971E-15	5.668521E-17
3.252917E+03	2.110449E-15	5.650145E-17
3.262804E+03	2.109148E-15	5.632351E-17
3.272691E+03	2.108083E-15	5.615173E-17
3.282579E+03	2.107194E-15	5.598448E-17
3.292466E+03	2.106490E-15	5.582196E-17
3.302353E+03	2.105911E-15	5.566256E-17
3.312240E+03	2.105431E-15	5.550560E-17
3.322128E+03	2.105032E-15	5.535056E-17
3.332015E+03	2.104691E-15	5.519683E-17
3.341902E+03	2.104390E-15	5.504398E-17
3.351790E+03	2.104081E-15	5.489069E-17
3.361677E+03	2.103780E-15	5.473742E-17
3.371564E+03	2.103412E-15	5.458223E-17
3.381451E+03	2.103023E-15	5.442635E-17
3.391339E+03	2.102539E-15	5.426784E-17
3.401226E+03	2.101941E-15	5.410627E-17
3.411113E+03	2.101204E-15	5.394103E-17
3.421001E+03	2.100267E-15	5.377059E-17
3.430888E+03	2.099119E-15	5.359470E-17
3.440775E+03	2.097681E-15	5.341142E-17
3.450662E+03	2.095866E-15	5.321863E-17
3.460550E+03	2.093614E-15	5.301488E-17
3.470437E+03	2.090829E-15	5.279785E-17
3.480324E+03	2.087471E-15	5.256665E-17
3.490212E+03	2.083401E-15	5.231792E-17
3.500099E+03	2.078591E-15	5.205112E-17
3.509986E+03	2.072971E-15	5.176467E-17
3.519873E+03	2.066521E-15	5.145825E-17
3.529761E+03	2.059194E-15	5.113087E-17
3.539648E+03	2.050995E-15	5.078284E-17
3.549535E+03	2.042009E-15	5.041648E-17
3.559423E+03	2.032254E-15	5.003241E-17
3.569310E+03	2.021879E-15	4.963444E-17
3.579197E+03	2.011016E-15	4.922594E-17
3.589084E+03	1.999803E-15	4.881038E-17
3.598972E+03	1.988418E-15	4.839222E-17
3.608859E+03	1.977073E-15	4.797662E-17
3.618746E+03	1.965943E-15	4.756780E-17
3.628634E+03	1.955261E-15	4.717139E-17
3.638521E+03	1.945168E-15	4.679069E-17
3.648408E+03	1.935858E-15	4.643019E-17
3.658295E+03	1.927488E-15	4.609353E-17
3.668183E+03	1.920222E-15	4.578441E-17
3.678070E+03	1.914168E-15	4.550522E-17
3.687957E+03	1.909462E-15	4.525887E-17
3.697845E+03	1.906206E-15	4.504753E-17
3.707732E+03	1.904502E-15	4.487334E-17
3.717619E+03	1.904412E-15	4.473738E-17
3.727506E+03	1.905984E-15	4.464048E-17
3.737394E+03	1.909216E-15	4.458226E-17
3.747281E+03	1.914074E-15	4.456157E-17
3.757168E+03	1.920547E-15	4.457784E-17
3.767056E+03	1.928496E-15	4.462754E-17
3.776943E+03	1.937831E-15	4.470827E-17
3.786830E+03	1.948436E-15	4.481712E-17
3.796717E+03	1.960116E-15	4.494935E-17
3.806605E+03	1.972691E-15	4.510065E-17
3.816492E+03	1.985984E-15	4.526680E-17
3.826379E+03	1.999788E-15	4.544300E-17
3.836267E+03	2.013901E-15	4.562454E-17
3.846154E+03	2.028113E-15	4.580669E-17
3.856041E+03	2.042266E-15	4.598585E-17
3.865928E+03	2.056194E-15	4.615835E-17
3.875816E+03	2.069748E-15	4.632091E-17
3.885703E+03	2.082790E-15	4.647058E-17
3.895590E+03	2.095193E-15	4.660465E-17
3.905478E+03	2.106858E-15	4.672108E-17
3.915365E+03	2.117675E-15	4.681760E-17
3.925252E+03	2.127517E-15	4.689164E-17
3.935139E+03	2.136319E-15	4.694197E-17
3.945027E+03	2.143960E-15	4.696621E-17
3.954914E+03	2.150363E-15	4.696289E-17
3.964801E+03	2.155437E-15	4.693033E-17
3.974689E+03	2.159082E-15	4.686664E-17
3.984576E+03	2.161267E-15	4.677145E-17
3.994463E+03	2.161917E-15	4.664349E-17
4.004350E+03	2.161014E-15	4.648267E-17
4.014238E+03	2.158542E-15	4.628897E-17
4.024125E+03	2.154511E-15	4.606293E-17
4.034012E+03	2.148952E-15	4.580556E-17
4.043900E+03	2.141938E-15	4.551870E-17
4.053787E+03	2.133522E-15	4.520379E-17
4.063674E+03	2.123800E-15	4.486312E-17
4.073561E+03	2.112915E-15	4.449997E-17
4.083449E+03	2.100959E-15	4.411651E-17
4.093336E+03	2.088089E-15	4.371622E-17
4.103223E+03	2.074461E-15	4.330259E-17
4.113111E+03	2.060248E-15	4.287929E-17
4.122998E+03	2.045632E-15	4.245028E-17
4.132885E+03	2.030806E-15	4.201959E-17
4.142772E+03	2.015968E-15	4.159138E-17
4.152660E+03	2.001321E-15	4.116980E-17
4.162547E+03	1.987059E-15	4.075884E-17
4.172434E+03	1.973371E-15	4.036226E-17
4.182322E+03	1.960413E-15	3.998318E-17
4.192209E+03	1.948351E-15	3.962483E-17
4.202096E+03	1.937347E-15	3.929036E-17
4.211983E+03	1.927533E-15	3.898227E-17
4.221871E+03	1.918986E-15	3.870191E-17
4.231758E+03	1.911809E-15	3.845116E-17
4.241645E+03	1.906061E-15	3.823098E-17
4.251533E+03	1.901758E-15	3.804146E-17
4.261420E+03	1.898863E-15	3.788167E-17
4.271307E+03	1.897263E-15	3.774916E-17
4.281194E+03	1.896818E-15	3.764092E-17
4.291082E+03	1.897231E-15	3.755098E-17
4.300969E+03	1.898195E-15	3.747315E-17
4.310856E+03	1.899308E-15	3.739941E-17
4.320744E+03	1.900142E-15	3.732136E-17
4.330631E+03	1.900264E-15	3.723059E-17
4.340518E+03	1.899413E-15	3.712206E-17
4.350405E+03	1.897523E-15	3.699464E-17
4.360293E+03	1.894660E-15	3.684975E-17
4.370180E+03	1.890898E-15	3.668897E-17
4.380067E+03	1.886342E-15	3.651444E-17
4.389955E+03	1.881147E-15	3.632924E-17
4.399842E+03	1.875441E-15	3.613597E-17
4.409729E+03	1.869371E-15	3.593745E-17
4.419616E+03	1.863096E-15	3.573679E-17
4.429504E+03	1.856707E-15	3.553575E-17
4.439391E+03	1.850328E-15	3.533670E-17
4.449278E+03	1.844047E-15	3.514129E-17
4.459166E+03	1.837917E-15	3.495054E-17
4.469053E+03	1.831993E-15	3.476542E-17
4.478940E+03	1.826314E-15	3.458667E-17
4.488827E+03	1.820906E-15	3.441473E-17
4.498715E+03	1.815781E-15	3.424978E-17
4.508602E+03	1.810918E-15	3.409139E-17
4.518489E+03	1.806275E-15	3.393872E-17
4.528377E+03	1.801839E-15	3.379154E-17
4.538264E+03	1.797508E-15	3.364785E-17
4.548151E+03	1.793175E-15	3.350570E-17
4.558038E+03	1.788752E-15	3.336340E-17
4.567926E+03	1.784120E-15	3.321873E-17
4.577813E+03	1.779107E-15	3.306855E-17
4.587700E+03	1.773649E-15	3.291166E-17
4.597588E+03	1.767576E-15	3.274498E-17
4.607475E+03	1.760845E-15	3.256774E-17
4.617362E+03	1.753389E-15	3.237874E-17
4.627249E+03	1.745173E-15	3.217742E-17
4.637137E+03	1.736194E-15	3.196377E-17
4.647024E+03	1.726483E-15	3.173837E-17
4.656911E+03	1.716129E-15	3.150293E-17
4.666798E+03	1.705191E-15	3.125854E-17
4.676686E+03	1.693760E-15	3.100687E-17
4.686573E+03	1.681955E-15	3.075011E-17
4.696460E+03	1.669857E-15	3.048972E-17
4.706348E+03	1.657646E-15	3.022898E-17
4.716235E+03	1.645429E-15	2.996979E-17
4.726122E+03	1.633400E-15	2.971566E-17
4.736009E+03	1.621716E-15	2.946943E-17
4.745897E+03	1.610490E-15	2.923307E-17
4.755784E+03	1.599867E-15	2.900913E-17
4.765671E+03	1.589969E-15	2.879980E-17
4.775559E+03	1.580852E-15	2.860598E-17
4.785446E+03	1.572592E-15	2.842902E-17
4.795333E+03	1.565227E-15	2.826951E-17
4.805220E+03	1.558757E-15	2.812740E-17
4.815108E+03	1.553175E-15	2.800250E-17
4.824995E+03	1.548473E-15	2.789461E-17
4.834882E+03	1.544592E-15	2.780261E-17
4.844770E+03	1.541497E-15	2.772583E-17
4.854657E+03	1.539101E-15	2.766262E-17
4.864544E+03	1.537357E-15	2.761217E-17
4.874431E+03	1.536207E-15	2.757336E-17
4.884319E+03	1.535586E-15	2.754501E-17
4.894206E+03	1.535471E-15	2.752670E-17
4.904093E+03	1.535824E-15	2.751769E-17
4.913981E+03	1.536658E-15	2.751823E-17
4.923868E+03	1.537970E-15	2.752825E-17
4.933755E+03	1.539776E-15	2.754799E-17
4.943642E+03	1.542074E-15	2.757746E-17
4.953530E+03	1.544907E-15	2.761736E-17
4.963417E+03	1.548240E-15	2.766711E-17
4.973304E+03	1.552063E-15	2.772648E-17
4.983192E+03	1.556366E-15	2.779531E-17
4.993079E+03	1.561083E-15	2.787243E-17
5.002966E+03	1.566141E-15	2.795653E-17
5.012853E+03	1.571442E-15	2.804586E-17
5.022741E+03	1.576866E-15	2.813829E-17
5.032628E+03	1.582258E-15	2.823106E-17
5.042515E+03	1.587470E-15	2.832154E-17
5.052403E+03	1.592379E-15	2.840757E-17
5.062290E+03	1.596831E-15	2.848637E-17
5.072177E+03	1.600747E-15	2.855658E-17
5.082064E+03	1.603980E-15	2.861556E-17
5.091952E+03	1.606476E-15	2.866237E-17
5.101839E+03	1.608148E-15	2.869544E-17
5.111726E+03	1.608960E-15	2.871416E-17
5.121614E+03	1.608922E-15	2.871867E-17
5.131501E+03	1.608062E-15	2.870949E-17
5.141388E+03	1.606443E-15	2.868773E-17
5.151275E+03	1.604120E-15	2.865436E-17
5.161163E+03	1.601199E-15	2.861126E-17
5.171050E+03	1.597697E-15	2.855873E-17
5.180937E+03	1.593695E-15	2.849820E-17
5.190825E+03	1.589247E-15	2.843062E-17
5.200712E+03	1.584399E-15	2.835679E-17
5.210599E+03	1.579153E-15	2.827677E-17
5.220486E+03	1.573553E-15	2.819129E-17
5.230374E+03	1.567599E-15	2.810034E-17
5.240261E+03	1.561297E-15	2.800405E-17
5.250148E+03	1.554632E-15	2.790209E-17
5.260036E+03	1.547615E-15	2.779463E-17
5.269923E+03	1.540204E-15	2.768094E-17
5.279810E+03	1.532390E-15	2.756080E-17
5.289697E+03	1.524151E-15	2.743378E-17
5.299585E+03	1.515497E-15	2.730002E-17
5.309472E+03	1.506381E-15	2.715860E-17
5.319359E+03	1.496808E-15	2.700957E-17
5.329247E+03	1.486750E-15	2.685237E-17
5.339134E+03	1.476175E-15	2.668632E-17
5.349021E+03	1.465019E-15	2.651025E-17
5.358908E+03	1.453258E-15	2.632364E-17
5.368796E+03	1.440870E-15	2.612601E-17
5.378683E+03	1.427779E-15	2.591592E-17
5.388570E+03	1.413971E-15	2.569301E-17
5.398458E+03	1.399395E-15	2.545632E-17
5.408345E+03	1.384040E-15	2.520553E-17
5.418232E+03	1.367983E-15	2.494195E-17
5.428119E+03	1.351265E-15	2.466628E-17
5.438007E+03	1.334004E-15	2.438057E-17
5.447894E+03	1.316319E-15	2.408694E-17
5.457781E+03	1.298399E-15	2.378875E-17
5.467669E+03	1.280381E-15	2.348850E-17
5.477556E+03	1.262474E-15	2.318996E-17
5.487443E+03	1.244873E-15	2.289671E-17
5.497330E+03	1.227830E-15	2.261336E-17
5.507218E+03	1.211559E-15	2.234389E-17
5.517105E+03	1.196305E-15	2.209281E-17
5.526992E+03	1.182302E-15	2.186454E-17
5.536880E+03	1.169803E-15	2.166381E-17
5.546767E+03	1.159009E-15	2.149444E-17
5.556654E+03	1.150118E-15	2.136025E-17
5.566541E+03	1.143299E-15	2.126448E-17
5.576429E+03	1.138662E-15	2.120934E-17
5.586316E+03	1.136284E-15	2.119644E-17
5.596203E+03	1.136165E-15	2.122593E-17
5.606091E+03	1.138274E-15	2.129746E-17
5.615978E+03	1.142530E-15	2.140966E-17
5.625865E+03	1.148788E-15	2.155997E-17
5.635752E+03	1.156851E-15	2.174491E-17
5.645640E+03	1.166478E-15	2.196004E-17
5.655527E+03	1.177408E-15	2.220060E-17
5.665414E+03	1.189288E-15	2.246006E-17
5.675302E+03	1.201783E-15	2.273214E-17
5.685189E+03	1.214514E-15	2.300973E-17
5.695076E+03	1.227078E-15	2.328519E-17
5.704963E+03	1.239104E-15	2.355146E-17
5.714851E+03	1.250251E-15	2.380201E-17
5.724738E+03	1.260193E-15	2.403055E-17
5.734625E+03	1.268666E-15	2.423191E-17
5.744513E+03	1.275500E-15	2.440270E-17
5.754400E+03	1.280535E-15	2.453968E-17
5.764287E+03	1.283718E-15	2.464169E-17
5.774174E+03	1.285046E-15	2.470847E-17
5.784062E+03	1.284567E-15	2.474076E-17
5.793949E+03	1.282376E-15	2.474022E-17
5.803836E+03	1.278548E-15	2.470815E-17
5.813724E+03	1.273231E-15	2.464719E-17
5.823611E+03	1.266522E-15	2.455911E-17
5.833498E+03	1.258535E-15	2.444597E-17
5.843385E+03	1.249371E-15	2.430960E-17
5.853273E+03	1.239125E-15	2.415174E-17
5.863160E+03	1.227897E-15	2.397420E-17
5.873047E+03	1.215744E-15	2.377800E-17
5.882935E+03	1.202753E-15	2.356472E-17
5.892822E+03	1.189034E-15	2.333648E-17
5.902709E+03	1.174694E-15	2.309525E-17
5.912596E+03	1.159820E-15	2.284269E-17
5.922484E+03	1.144565E-15	2.258177E-17
5.932371E+03	1.129023E-15	2.231427E-17
5.942258E+03	1.113368E-15	2.204362E-17
5.952146E+03	1.097695E-15	2.177168E-17
5.962033E+03	1.082137E-15	2.150107E-17
5.971920E+03	1.066829E-15	2.123448E-17
5.981807E+03	1.051876E-15	2.097405E-17
5.991695E+03	1.037384E-15	2.072192E-17
6.001582E+03	1.023424E-15	2.047955E-17
6.011469E+03	1.010107E-15	2.024919E-17
6.021357E+03	9.974713E-16	2.003173E-17
6.031244E+03	9.856112E-16	1.982908E-17
6.041131E+03	9.745806E-16	1.964244E-17
6.051018E+03	9.644217E-16	1.947273E-17
6.060906E+03	9.551805E-16	1.932098E-17
6.070793E+03	9.469024E-16	1.918821E-17
6.080680E+03	9.395922E-16	1.907462E-17
6.090568E+03	9.332477E-16	1.898026E-17
6.100455E+03	9.278689E-16	1.890524E-17
6.110342E+03	9.233850E-16	1.884823E-17
6.120229E+03	9.197325E-16	1.880802E-17
6.130117E+03	9.168200E-16	1.878283E-17
6.140004E+03	9.145286E-16	1.877030E-17
6.149891E+03	9.126926E-16	1.876708E-17
6.159779E+03	9.111434E-16	1.876975E-17
6.169666E+03	9.097327E-16	1.877526E-17
6.179553E+03	9.083527E-16	1.878141E-17
6.189440E+03	9.069916E-16	1.878794E-17
6.199328E+03	9.056474E-16	1.879481E-17
6.209215E+03	9.043357E-16	1.880233E-17
6.219102E+03	9.030628E-16	1.881065E-17
6.228990E+03	9.018369E-16	1.881993E-17
6.238877E+03	9.006803E-16	1.883063E-17
6.248764E+03	8.996211E-16	1.884335E-17
6.258651E+03	8.986684E-16	1.885829E-17
6.268539E+03	8.978623E-16	1.887629E-17
6.278426E+03	8.972519E-16	1.889840E-17
6.288313E+03	8.968670E-16	1.892528E-17
6.298201E+03	8.967775E-16	1.895841E-17
6.308088E+03	8.970299E-16	1.899882E-17
6.317975E+03	8.976678E-16	1.904747E-17
6.327862E+03	8.987301E-16	1.910523E-17
6.337750E+03	9.002756E-16	1.917338E-17
6.347637E+03	9.023138E-16	1.925220E-17
6.357524E+03	9.048817E-16	1.934253E-17
6.367412E+03	9.079759E-16	1.944434E-17
6.377299E+03	9.115775E-16	1.955731E-17
6.387186E+03	9.156659E-16	1.968103E-17
6.397073E+03	9.201936E-16	1.981454E-17
6.406961E+03	9.251145E-16	1.995691E-17
6.416848E+03	9.303300E-16	2.010603E-17
6.426735E+03	9.357918E-16	2.026090E-17
6.436623E+03	9.414176E-16	2.041976E-17
6.446510E+03	9.471064E-16	2.058043E-17
6.456397E+03	9.527853E-16	2.074133E-17
6.466284E+03	9.583661E-16	2.090053E-17
6.476172E+03	9.637615E-16	2.105611E-17
6.486059E+03	9.688882E-16	2.120623E-17
6.495946E+03	9.736790E-16	2.134937E-17
6.505833E+03	9.780316E-16	2.148325E-17
6.515721E+03	9.818538E-16	2.160578E-17
6.525608E+03	9.850756E-16	2.171537E-17
6.535495E+03	9.876145E-16	2.181011E-17
6.545383E+03	9.893927E-16	2.188820E-17
6.555270E+03	9.903791E-16	2.194886E-17
6.565157E+03	9.905284E-16	2.199100E-17
6.575044E+03	9.898595E-16	2.201493E-17
6.584932E+03	9.883431E-16	2.201990E-17
6.594819E+03	9.859952E-16	2.200617E-17
6.604706E+03	9.828642E-16	2.197474E-17
6.614594E+03	9.789948E-16	2.192649E-17
6.624481E+03	9.744212E-16	2.186212E-17
6.634368E+03	9.692035E-16	2.178289E-17
6.644255E+03	9.634217E-16	2.169054E-17
6.654143E+03	9.571155E-16	2.158588E-17
6.664030E+03	9.503547E-16	2.147044E-17
6.673917E+03	9.431544E-16	2.134451E-17
6.683805E+03	9.355968E-16	2.120990E-17
6.693692E+03	9.277013E-16	2.106701E-17
6.703579E+03	9.195585E-16	2.091786E-17
6.713466E+03	9.111980E-16	2.076310E-17
6.723354E+03	9.027050E-16	2.060465E-17
6.733241E+03	8.941523E-16	2.044415E-17
6.743128E+03	8.855991E-16	2.028298E-17
6.753016E+03	8.771403E-16	2.012329E-17
6.762903E+03	8.688359E-16	1.996648E-17
6.772790E+03	8.607729E-16	1.981458E-17
6.782677E+03	8.529823E-16	1.966833E-17
6.792565E+03	8.455471E-16	1.952967E-17
6.802452E+03	8.384871E-16	1.939912E-17
6.812339E+03	8.318239E-16	1.927721E-17
6.822227E+03	8.255502E-16	1.916383E-17
6.832114E+03	8.196968E-16	1.905974E-17
6.842001E+03	8.142127E-16	1.896380E-17
6.851888E+03	8.091375E-16	1.887698E-17
6.861776E+03	8.044312E-16	1.879840E-17
6.871663E+03	8.000851E-16	1.872789E-17
6.881550E+03	7.961053E-16	1.866565E-17
6.891438E+03	7.924666E-16	1.861113E-17
6.901325E+03	7.891593E-16	1.856414E-17
6.911212E+03	7.861721E-16	1.852445E-17
6.921099E+03	7.834902E-16	1.849176E-17
6.930987E+03	7.810947E-16	1.846566E-17
6.940874E+03	7.789462E-16	1.844525E-17
6.950761E+03	7.770463E-16	1.843059E-17
6.960649E+03	7.753143E-16	1.841981E-17
6.970536E+03	7.737567E-16	1.841309E-17
6.980423E+03	7.722837E-16	1.840829E-17
6.990310E+03	7.708805E-16	1.840510E-17
7.000198E+03	7.694852E-16	1.840202E-17
7.010085E+03	7.680523E-16	1.839798E-17
7.019972E+03	7.665561E-16	1.839237E-17
7.029860E+03	7.649299E-16	1.838356E-17
7.039747E+03	7.631589E-16	1.837121E-17
7.049634E+03	7.612060E-16	1.835438E-17
7.059521E+03	7.590717E-16	1.833309E-17
7.069409E+03	7.567470E-16	1.830708E-17
7.079296E+03	7.542135E-16	1.827590E-17
7.089183E+03	7.514890E-16	1.823996E-17
7.099071E+03	7.485498E-16	1.819866E-17
7.108958E+03	7.454378E-16	1.815300E-17
7.118845E+03	7.421529E-16	1.810295E-17
7.128732E+03	7.386985E-16	1.804858E-17
7.138620E+03	7.351108E-16	1.799077E-17
7.148507E+03	7.314124E-16	1.793004E-17
7.158394E+03	7.276120E-16	1.786660E-17
7.168282E+03	7.237333E-16	1.780103E-17
7.178169E+03	7.197985E-16	1.773386E-17
7.188056E+03	7.158267E-16	1.766556E-17
7.197943E+03	7.118332E-16	1.759651E-17
7.207831E+03	7.077991E-16	1.752623E-17
7.217718E+03	7.037600E-16	1.745561E-17
7.227605E+03	6.997032E-16	1.738434E-17
7.237493E+03	6.956144E-16	1.731205E-17
7.247380E+03	6.915090E-16	1.723912E-17
7.257267E+03	6.873624E-16	1.716495E-17
7.267154E+03	6.831832E-16	1.708975E-17
7.277042E+03	6.789849E-16	1.701384E-17
7.286929E+03	6.747722E-16	1.693735E-17
7.296816E+03	6.705823E-16	1.686122E-17
7.306704E+03	6.663988E-16	1.678502E-17
7.316591E+03	6.622772E-16	1.671017E-17
7.326478E+03	6.582146E-16	1.663660E-17
7.336365E+03	6.542445E-16	1.656517E-17
7.346253E+03	6.503651E-16	1.649584E-17
7.356140E+03	6.465794E-16	1.642871E-17
7.366027E+03	6.428944E-16	1.636396E-17
7.375915E+03	6.392803E-16	1.630086E-17
7.385802E+03	6.357530E-16	1.623981E-17
7.395689E+03	6.322509E-16	1.617924E-17
7.405576E+03	6.287592E-16	1.611878E-17
7.415464E+03	6.252165E-16	1.605684E-17
7.425351E+03	6.216124E-16	1.599314E-17
7.435238E+03	6.178820E-16	1.592599E-17
7.445126E+03	6.139816E-16	1.585425E-17
7.455013E+03	6.099005E-16	1.577760E-17
7.464900E+03	6.056510E-16	1.569633E-17
7.474787E+03	6.012992E-16	1.561214E-17
7.484675E+03	5.968666E-16	1.552555E-17
7.494562E+03	5.924147E-16	1.543815E-17
7.504449E+03	5.880020E-16	1.535146E-17
7.514337E+03	5.836556E-16	1.526619E-17
7.524224E+03	5.794226E-16	1.518358E-17
7.534111E+03	5.753170E-16	1.510401E-17
7.543998E+03	5.713842E-16	1.502868E-17
7.553886E+03	5.676107E-16	1.495727E-17
7.563773E+03	5.640288E-16	1.489063E-17
7.573660E+03	5.606155E-16	1.482819E-17
7.583548E+03	5.573975E-16	1.477067E-17
7.593435E+03	5.543482E-16	1.471739E-17
7.603322E+03	5.514896E-16	1.466896E-17
7.613209E+03	5.488030E-16	1.462491E-17
7.623097E+03	5.462798E-16	1.458502E-17
7.632984E+03	5.439093E-16	1.454903E-17
7.642871E+03	5.416783E-16	1.451661E-17
7.652759E+03	5.395722E-16	1.448739E-17
7.662646E+03	5.375627E-16	1.446061E-17
7.672533E+03	5.356588E-16	1.443653E-17
