#wls	flux	fluxerr
1.581966E+03	1.149351E-15	3.616473E-17
1.621515E+03	1.187843E-15	3.727844E-17
1.661064E+03	1.226902E-15	3.840117E-17
1.700613E+03	1.266346E-15	3.952688E-17
1.740162E+03	1.306068E-15	4.065183E-17
1.779711E+03	1.345881E-15	4.176986E-17
1.819260E+03	1.384955E-15	4.285497E-17
1.858810E+03	1.422871E-15	4.389421E-17
1.898359E+03	1.458737E-15	4.486009E-17
1.937908E+03	1.491620E-15	4.572440E-17
1.977457E+03	1.520709E-15	4.646296E-17
2.017006E+03	1.546065E-15	4.707853E-17
2.056555E+03	1.569037E-15	4.761303E-17
2.096104E+03	1.592738E-15	4.816107E-17
2.135654E+03	1.621780E-15	4.886122E-17
2.175203E+03	1.659373E-15	4.980780E-17
2.214752E+03	1.705681E-15	5.100256E-17
2.254301E+03	1.757841E-15	5.235686E-17
2.293850E+03	1.811757E-15	5.374668E-17
2.333399E+03	1.863997E-15	5.506965E-17
2.372948E+03	1.912398E-15	5.626227E-17
2.412498E+03	1.955895E-15	5.729442E-17
2.452047E+03	1.994412E-15	5.816537E-17
2.491596E+03	2.028007E-15	5.887847E-17
2.531145E+03	2.057076E-15	5.944677E-17
2.570694E+03	2.081816E-15	5.987760E-17
2.610243E+03	2.102510E-15	6.018060E-17
2.649792E+03	2.119271E-15	6.036049E-17
2.689342E+03	2.132203E-15	6.042181E-17
2.728891E+03	2.141405E-15	6.036892E-17
2.768440E+03	2.146914E-15	6.020446E-17
2.807989E+03	2.148782E-15	5.993146E-17
2.847538E+03	2.147187E-15	5.955660E-17
2.887087E+03	2.142192E-15	5.908325E-17
2.926636E+03	2.134123E-15	5.852206E-17
2.966185E+03	2.123103E-15	5.787799E-17
2.976073E+03	2.119972E-15	5.770650E-17
2.985960E+03	2.116641E-15	5.752953E-17
2.995847E+03	2.113110E-15	5.734712E-17
3.005735E+03	2.109473E-15	5.716180E-17
3.015622E+03	2.105679E-15	5.697227E-17
3.025509E+03	2.101728E-15	5.677848E-17
3.035396E+03	2.097677E-15	5.658202E-17
3.045284E+03	2.093464E-15	5.638126E-17
3.055171E+03	2.089165E-15	5.617824E-17
3.065058E+03	2.084857E-15	5.597506E-17
3.074946E+03	2.080446E-15	5.576920E-17
3.084833E+03	2.075971E-15	5.556171E-17
3.094720E+03	2.071388E-15	5.535142E-17
3.104607E+03	2.066823E-15	5.514174E-17
3.114495E+03	2.062159E-15	5.492951E-17
3.124382E+03	2.057443E-15	5.471604E-17
3.134269E+03	2.052729E-15	5.450276E-17
3.144157E+03	2.048030E-15	5.429002E-17
3.154044E+03	2.043288E-15	5.407626E-17
3.163931E+03	2.038637E-15	5.386509E-17
3.173818E+03	2.034024E-15	5.365505E-17
3.183706E+03	2.029511E-15	5.344777E-17
3.193593E+03	2.025082E-15	5.324288E-17
3.203480E+03	2.020798E-15	5.304190E-17
3.213368E+03	2.016676E-15	5.284533E-17
3.223255E+03	2.012736E-15	5.265362E-17
3.233142E+03	2.008954E-15	5.246616E-17
3.243029E+03	2.005374E-15	5.228405E-17
3.252917E+03	2.001996E-15	5.210729E-17
3.262804E+03	1.998782E-15	5.193487E-17
3.272691E+03	1.995755E-15	5.176736E-17
3.282579E+03	1.992864E-15	5.160345E-17
3.292466E+03	1.990123E-15	5.144342E-17
3.302353E+03	1.987476E-15	5.128588E-17
3.312240E+03	1.984905E-15	5.113032E-17
3.322128E+03	1.982393E-15	5.097628E-17
3.332015E+03	1.979922E-15	5.082334E-17
3.341902E+03	1.977481E-15	5.067120E-17
3.351790E+03	1.975034E-15	5.051891E-17
3.361677E+03	1.972602E-15	5.036708E-17
3.371564E+03	1.970125E-15	5.021411E-17
3.381451E+03	1.967654E-15	5.006135E-17
3.391339E+03	1.965126E-15	4.990717E-17
3.401226E+03	1.962527E-15	4.975130E-17
3.411113E+03	1.959838E-15	4.959319E-17
3.421001E+03	1.957002E-15	4.943145E-17
3.430888E+03	1.954009E-15	4.926586E-17
3.440775E+03	1.950783E-15	4.909454E-17
3.450662E+03	1.947247E-15	4.891557E-17
3.460550E+03	1.943340E-15	4.872750E-17
3.470437E+03	1.938976E-15	4.852822E-17
3.480324E+03	1.934122E-15	4.831695E-17
3.490212E+03	1.928650E-15	4.809061E-17
3.500099E+03	1.922541E-15	4.784882E-17
3.509986E+03	1.915743E-15	4.759033E-17
3.519873E+03	1.908242E-15	4.731496E-17
3.529761E+03	1.900005E-15	4.702197E-17
3.539648E+03	1.891046E-15	4.671184E-17
3.549535E+03	1.881454E-15	4.638683E-17
3.559423E+03	1.871253E-15	4.604764E-17
3.569310E+03	1.860587E-15	4.569789E-17
3.579197E+03	1.849577E-15	4.534066E-17
3.589084E+03	1.838347E-15	4.497903E-17
3.598972E+03	1.827055E-15	4.461685E-17
3.608859E+03	1.815883E-15	4.425862E-17
3.618746E+03	1.804973E-15	4.390776E-17
3.628634E+03	1.794525E-15	4.356910E-17
3.638521E+03	1.784649E-15	4.324527E-17
3.648408E+03	1.775507E-15	4.294009E-17
3.658295E+03	1.767225E-15	4.265648E-17
3.668183E+03	1.759934E-15	4.239755E-17
3.678070E+03	1.753717E-15	4.216509E-17
3.687957E+03	1.748675E-15	4.196142E-17
3.697845E+03	1.744882E-15	4.178815E-17
3.707732E+03	1.742413E-15	4.164688E-17
3.717619E+03	1.741304E-15	4.153834E-17
3.727506E+03	1.741591E-15	4.146314E-17
3.737394E+03	1.743263E-15	4.142085E-17
3.747281E+03	1.746287E-15	4.141052E-17
3.757168E+03	1.750654E-15	4.143171E-17
3.767056E+03	1.756242E-15	4.148140E-17
3.776943E+03	1.762976E-15	4.155764E-17
3.786830E+03	1.770759E-15	4.165802E-17
3.796717E+03	1.779428E-15	4.177853E-17
3.806605E+03	1.788834E-15	4.191559E-17
3.816492E+03	1.798839E-15	4.206587E-17
3.826379E+03	1.809277E-15	4.222544E-17
3.836267E+03	1.819992E-15	4.239058E-17
3.846154E+03	1.830812E-15	4.255732E-17
3.856041E+03	1.841614E-15	4.272275E-17
3.865928E+03	1.852265E-15	4.288384E-17
3.875816E+03	1.862645E-15	4.303783E-17
3.885703E+03	1.872643E-15	4.318220E-17
3.895590E+03	1.882151E-15	4.331457E-17
3.905478E+03	1.891089E-15	4.343314E-17
3.915365E+03	1.899360E-15	4.353583E-17
3.925252E+03	1.906853E-15	4.362014E-17
3.935139E+03	1.913504E-15	4.368479E-17
3.945027E+03	1.919204E-15	4.372738E-17
3.954914E+03	1.923877E-15	4.374634E-17
3.964801E+03	1.927431E-15	4.373977E-17
3.974689E+03	1.929770E-15	4.370561E-17
3.984576E+03	1.930855E-15	4.364319E-17
3.994463E+03	1.930613E-15	4.355101E-17
4.004350E+03	1.929021E-15	4.342876E-17
4.014238E+03	1.926058E-15	4.327619E-17
4.024125E+03	1.921729E-15	4.309356E-17
4.034012E+03	1.916060E-15	4.288167E-17
4.043900E+03	1.909115E-15	4.264214E-17
4.053787E+03	1.900946E-15	4.237629E-17
4.063674E+03	1.891639E-15	4.208621E-17
4.073561E+03	1.881331E-15	4.177511E-17
4.083449E+03	1.870107E-15	4.144499E-17
4.093336E+03	1.858117E-15	4.109929E-17
4.103223E+03	1.845506E-15	4.074133E-17
4.113111E+03	1.832434E-15	4.037472E-17
4.122998E+03	1.819072E-15	4.000328E-17
4.132885E+03	1.805600E-15	3.963099E-17
4.142772E+03	1.792196E-15	3.926179E-17
4.152660E+03	1.779044E-15	3.889965E-17
4.162547E+03	1.766314E-15	3.854831E-17
4.172434E+03	1.754169E-15	3.821125E-17
4.182322E+03	1.742739E-15	3.789123E-17
4.192209E+03	1.732154E-15	3.759094E-17
4.202096E+03	1.722536E-15	3.731301E-17
4.211983E+03	1.713978E-15	3.705925E-17
4.221871E+03	1.706516E-15	3.683038E-17
4.231758E+03	1.700214E-15	3.662763E-17
4.241645E+03	1.695092E-15	3.645131E-17
4.251533E+03	1.691138E-15	3.630101E-17
4.261420E+03	1.688298E-15	3.617549E-17
4.271307E+03	1.686454E-15	3.607205E-17
4.281194E+03	1.685473E-15	3.598781E-17
4.291082E+03	1.685104E-15	3.591727E-17
4.300969E+03	1.685096E-15	3.585509E-17
4.310856E+03	1.685127E-15	3.579438E-17
4.320744E+03	1.684866E-15	3.572811E-17
4.330631E+03	1.683989E-15	3.564947E-17
4.340518E+03	1.682292E-15	3.555420E-17
4.350405E+03	1.679714E-15	3.544110E-17
4.360293E+03	1.676300E-15	3.531122E-17
4.370180E+03	1.672106E-15	3.516582E-17
4.380067E+03	1.667218E-15	3.500680E-17
4.389955E+03	1.661770E-15	3.483700E-17
4.399842E+03	1.655875E-15	3.465887E-17
4.409729E+03	1.649662E-15	3.447513E-17
4.419616E+03	1.643273E-15	3.428877E-17
4.429504E+03	1.636793E-15	3.410160E-17
4.439391E+03	1.630344E-15	3.391612E-17
4.449278E+03	1.624010E-15	3.373411E-17
4.459166E+03	1.617850E-15	3.355675E-17
4.469053E+03	1.611921E-15	3.338521E-17
4.478940E+03	1.606267E-15	3.322037E-17
4.488827E+03	1.600918E-15	3.306283E-17
4.498715E+03	1.595895E-15	3.291299E-17
4.508602E+03	1.591186E-15	3.277059E-17
4.518489E+03	1.586768E-15	3.263509E-17
4.528377E+03	1.582644E-15	3.250656E-17
4.538264E+03	1.578737E-15	3.238336E-17
4.548151E+03	1.574966E-15	3.226385E-17
4.558038E+03	1.571262E-15	3.214660E-17
4.567926E+03	1.567527E-15	3.202958E-17
4.577813E+03	1.563609E-15	3.190971E-17
4.587700E+03	1.559446E-15	3.178574E-17
4.597588E+03	1.554878E-15	3.165440E-17
4.607475E+03	1.549847E-15	3.151459E-17
4.617362E+03	1.544271E-15	3.136464E-17
4.627249E+03	1.538092E-15	3.120341E-17
4.637137E+03	1.531277E-15	3.103028E-17
4.647024E+03	1.523814E-15	3.084504E-17
4.656911E+03	1.515745E-15	3.064860E-17
4.666798E+03	1.507086E-15	3.044124E-17
4.676686E+03	1.497879E-15	3.022389E-17
4.686573E+03	1.488199E-15	2.999808E-17
4.696460E+03	1.478096E-15	2.976478E-17
4.706348E+03	1.467711E-15	2.952690E-17
4.716235E+03	1.457135E-15	2.928623E-17
4.726122E+03	1.446543E-15	2.904627E-17
4.736009E+03	1.436086E-15	2.881006E-17
4.745897E+03	1.425885E-15	2.857998E-17
4.755784E+03	1.416092E-15	2.835907E-17
4.765671E+03	1.406848E-15	2.815008E-17
4.775559E+03	1.398229E-15	2.795452E-17
4.785446E+03	1.390334E-15	2.777431E-17
4.795333E+03	1.383224E-15	2.761061E-17
4.805220E+03	1.376919E-15	2.746380E-17
4.815108E+03	1.371433E-15	2.733407E-17
4.824995E+03	1.366771E-15	2.722151E-17
4.834882E+03	1.362889E-15	2.712519E-17
4.844770E+03	1.359763E-15	2.704458E-17
4.854657E+03	1.357309E-15	2.697801E-17
4.864544E+03	1.355486E-15	2.692460E-17
4.874431E+03	1.354233E-15	2.688312E-17
4.884319E+03	1.353480E-15	2.685216E-17
4.894206E+03	1.353198E-15	2.683112E-17
4.904093E+03	1.353342E-15	2.681910E-17
4.913981E+03	1.353920E-15	2.681625E-17
4.923868E+03	1.354925E-15	2.682242E-17
4.933755E+03	1.356372E-15	2.683786E-17
4.943642E+03	1.358260E-15	2.686255E-17
4.953530E+03	1.360622E-15	2.689717E-17
4.963417E+03	1.363428E-15	2.694109E-17
4.973304E+03	1.366659E-15	2.699391E-17
4.983192E+03	1.370295E-15	2.705525E-17
4.993079E+03	1.374269E-15	2.712378E-17
5.002966E+03	1.378506E-15	2.719802E-17
5.012853E+03	1.382913E-15	2.727613E-17
5.022741E+03	1.387376E-15	2.735588E-17
5.032628E+03	1.391762E-15	2.743462E-17
5.042515E+03	1.395945E-15	2.750990E-17
5.052403E+03	1.399826E-15	2.757980E-17
5.062290E+03	1.403278E-15	2.764178E-17
5.072177E+03	1.406249E-15	2.769484E-17
5.082064E+03	1.408624E-15	2.773675E-17
5.091952E+03	1.410373E-15	2.776691E-17
5.101839E+03	1.411440E-15	2.778423E-17
5.111726E+03	1.411810E-15	2.778842E-17
5.121614E+03	1.411498E-15	2.777979E-17
5.131501E+03	1.410532E-15	2.775890E-17
5.141388E+03	1.408971E-15	2.772689E-17
5.151275E+03	1.406864E-15	2.768476E-17
5.161163E+03	1.404305E-15	2.763433E-17
5.171050E+03	1.401312E-15	2.757595E-17
5.180937E+03	1.397952E-15	2.751095E-17
5.190825E+03	1.394268E-15	2.744020E-17
5.200712E+03	1.390297E-15	2.736437E-17
5.210599E+03	1.386029E-15	2.728330E-17
5.220486E+03	1.381490E-15	2.719747E-17
5.230374E+03	1.376663E-15	2.710656E-17
5.240261E+03	1.371532E-15	2.701025E-17
5.250148E+03	1.366064E-15	2.690786E-17
5.260036E+03	1.360246E-15	2.679912E-17
5.269923E+03	1.354020E-15	2.668293E-17
5.279810E+03	1.347364E-15	2.655878E-17
5.289697E+03	1.340243E-15	2.642601E-17
5.299585E+03	1.332659E-15	2.628460E-17
5.309472E+03	1.324563E-15	2.613358E-17
5.319359E+03	1.315970E-15	2.597320E-17
5.329247E+03	1.306866E-15	2.580316E-17
5.339134E+03	1.297242E-15	2.562325E-17
5.349021E+03	1.287072E-15	2.543290E-17
5.358908E+03	1.276363E-15	2.523226E-17
5.368796E+03	1.265125E-15	2.502147E-17
5.378683E+03	1.253324E-15	2.479980E-17
5.388570E+03	1.240970E-15	2.456744E-17
5.398458E+03	1.228042E-15	2.432394E-17
5.408345E+03	1.214549E-15	2.406941E-17
5.418232E+03	1.200565E-15	2.380527E-17
5.428119E+03	1.186131E-15	2.353235E-17
5.438007E+03	1.171352E-15	2.325266E-17
5.447894E+03	1.156330E-15	2.296818E-17
5.457781E+03	1.141219E-15	2.268195E-17
5.467669E+03	1.126130E-15	2.239618E-17
5.477556E+03	1.111231E-15	2.211414E-17
5.487443E+03	1.096672E-15	2.183887E-17
5.497330E+03	1.082658E-15	2.157438E-17
5.507218E+03	1.069353E-15	2.132399E-17
5.517105E+03	1.056955E-15	2.109164E-17
5.526992E+03	1.045652E-15	2.088113E-17
5.536880E+03	1.035652E-15	2.069661E-17
5.546767E+03	1.027117E-15	2.054139E-17
5.556654E+03	1.020213E-15	2.041884E-17
5.566541E+03	1.015074E-15	2.033171E-17
5.576429E+03	1.011785E-15	2.028178E-17
5.586316E+03	1.010396E-15	2.027012E-17
5.596203E+03	1.010886E-15	2.029641E-17
5.606091E+03	1.013206E-15	2.035972E-17
5.615978E+03	1.017260E-15	2.045824E-17
5.625865E+03	1.022906E-15	2.058921E-17
5.635752E+03	1.029963E-15	2.074901E-17
5.645640E+03	1.038214E-15	2.093339E-17
5.655527E+03	1.047433E-15	2.113784E-17
5.665414E+03	1.057324E-15	2.135642E-17
5.675302E+03	1.067607E-15	2.158351E-17
5.685189E+03	1.077968E-15	2.181279E-17
5.695076E+03	1.088076E-15	2.203757E-17
5.704963E+03	1.097631E-15	2.225175E-17
5.714851E+03	1.106359E-15	2.244972E-17
5.724738E+03	1.113994E-15	2.262606E-17
5.734625E+03	1.120330E-15	2.277651E-17
5.744513E+03	1.125243E-15	2.289847E-17
5.754400E+03	1.128617E-15	2.298948E-17
5.764287E+03	1.130425E-15	2.304892E-17
5.774174E+03	1.130683E-15	2.307703E-17
5.784062E+03	1.129446E-15	2.307478E-17
5.793949E+03	1.126807E-15	2.304403E-17
5.803836E+03	1.122837E-15	2.298612E-17
5.813724E+03	1.117659E-15	2.290351E-17
5.823611E+03	1.111358E-15	2.279782E-17
5.833498E+03	1.104021E-15	2.267079E-17
5.843385E+03	1.095725E-15	2.252391E-17
5.853273E+03	1.086536E-15	2.235848E-17
5.863160E+03	1.076526E-15	2.217594E-17
5.873047E+03	1.065732E-15	2.197697E-17
5.882935E+03	1.054216E-15	2.176277E-17
5.892822E+03	1.042064E-15	2.153511E-17
5.902709E+03	1.029361E-15	2.129566E-17
5.912596E+03	1.016185E-15	2.104599E-17
5.922484E+03	1.002669E-15	2.078886E-17
5.932371E+03	9.889040E-16	2.052609E-17
5.942258E+03	9.750556E-16	2.026111E-17
5.952146E+03	9.612238E-16	1.999598E-17
5.962033E+03	9.475397E-16	1.973343E-17
5.971920E+03	9.341368E-16	1.947624E-17
5.981807E+03	9.211138E-16	1.922649E-17
5.991695E+03	9.085658E-16	1.898619E-17
6.001582E+03	8.965521E-16	1.875660E-17
6.011469E+03	8.851625E-16	1.853964E-17
6.021357E+03	8.744237E-16	1.833590E-17
6.031244E+03	8.644089E-16	1.814697E-17
6.041131E+03	8.551541E-16	1.797365E-17
6.051018E+03	8.466890E-16	1.781662E-17
6.060906E+03	8.390453E-16	1.767659E-17
6.070793E+03	8.322533E-16	1.755428E-17
6.080680E+03	8.263101E-16	1.744967E-17
6.090568E+03	8.212086E-16	1.736267E-17
6.100455E+03	8.169463E-16	1.729330E-17
6.110342E+03	8.134615E-16	1.724031E-17
6.120229E+03	8.107025E-16	1.720266E-17
6.130117E+03	8.085962E-16	1.717886E-17
6.140004E+03	8.070482E-16	1.716693E-17
6.149891E+03	8.059260E-16	1.716411E-17
6.159779E+03	8.050960E-16	1.716756E-17
6.169666E+03	8.044378E-16	1.717474E-17
6.179553E+03	8.038576E-16	1.718365E-17
6.189440E+03	8.033357E-16	1.719388E-17
6.199328E+03	8.028570E-16	1.720509E-17
6.209215E+03	8.024241E-16	1.721736E-17
6.219102E+03	8.020337E-16	1.723060E-17
6.228990E+03	8.016872E-16	1.724484E-17
6.238877E+03	8.014015E-16	1.726046E-17
6.248764E+03	8.012003E-16	1.727796E-17
6.258651E+03	8.010918E-16	1.729753E-17
6.268539E+03	8.011123E-16	1.731995E-17
6.278426E+03	8.013049E-16	1.734617E-17
6.288313E+03	8.016945E-16	1.737673E-17
6.298201E+03	8.023418E-16	1.741297E-17
6.308088E+03	8.032846E-16	1.745574E-17
6.317975E+03	8.045585E-16	1.750581E-17
6.327862E+03	8.061937E-16	1.756388E-17
6.337750E+03	8.082374E-16	1.763101E-17
6.347637E+03	8.106929E-16	1.770731E-17
6.357524E+03	8.135887E-16	1.779341E-17
6.367412E+03	8.169175E-16	1.788921E-17
6.377299E+03	8.206587E-16	1.799429E-17
6.387186E+03	8.247901E-16	1.810819E-17
6.397073E+03	8.292647E-16	1.822990E-17
6.406961E+03	8.340374E-16	1.835848E-17
6.416848E+03	8.390185E-16	1.849195E-17
6.426735E+03	8.441650E-16	1.862939E-17
6.436623E+03	8.494069E-16	1.876927E-17
6.446510E+03	8.546600E-16	1.890973E-17
6.456397E+03	8.598665E-16	1.904949E-17
6.466284E+03	8.649570E-16	1.918701E-17
6.476172E+03	8.698640E-16	1.932076E-17
6.486059E+03	8.745216E-16	1.944928E-17
6.495946E+03	8.788766E-16	1.957136E-17
6.505833E+03	8.828432E-16	1.968504E-17
6.515721E+03	8.863441E-16	1.978858E-17
6.525608E+03	8.893154E-16	1.988051E-17
6.535495E+03	8.916856E-16	1.995917E-17
6.545383E+03	8.933800E-16	2.002284E-17
6.555270E+03	8.943691E-16	2.007080E-17
6.565157E+03	8.946087E-16	2.010200E-17
6.575044E+03	8.941153E-16	2.011673E-17
6.584932E+03	8.928593E-16	2.011427E-17
6.594819E+03	8.908554E-16	2.009487E-17
6.604706E+03	8.881456E-16	2.005944E-17
6.614594E+03	8.847687E-16	2.000877E-17
6.624481E+03	8.807559E-16	1.994352E-17
6.634368E+03	8.761593E-16	1.986482E-17
6.644255E+03	8.710468E-16	1.977414E-17
6.654143E+03	8.654517E-16	1.967221E-17
6.664030E+03	8.594318E-16	1.956030E-17
6.673917E+03	8.529959E-16	1.943857E-17
6.683805E+03	8.462137E-16	1.930857E-17
6.693692E+03	8.390982E-16	1.917057E-17
6.703579E+03	8.317294E-16	1.902637E-17
6.713466E+03	8.241325E-16	1.887653E-17
6.723354E+03	8.163846E-16	1.872279E-17
6.733241E+03	8.085529E-16	1.856668E-17
6.743128E+03	8.006932E-16	1.840948E-17
6.753016E+03	7.928935E-16	1.825322E-17
6.762903E+03	7.852116E-16	1.809922E-17
6.772790E+03	7.777301E-16	1.794941E-17
6.782677E+03	7.704815E-16	1.780455E-17
6.792565E+03	7.635444E-16	1.766649E-17
6.802452E+03	7.569406E-16	1.753576E-17
6.812339E+03	7.506920E-16	1.741288E-17
6.822227E+03	7.447944E-16	1.729781E-17
6.832114E+03	7.392784E-16	1.719127E-17
6.842001E+03	7.341005E-16	1.709230E-17
6.851888E+03	7.292995E-16	1.700181E-17
6.861776E+03	7.248428E-16	1.691910E-17
6.871663E+03	7.207257E-16	1.684408E-17
6.881550E+03	7.169557E-16	1.677695E-17
6.891438E+03	7.135108E-16	1.671723E-17
6.901325E+03	7.103812E-16	1.666471E-17
6.911212E+03	7.075539E-16	1.661913E-17
6.921099E+03	7.050130E-16	1.658013E-17
6.930987E+03	7.027386E-16	1.654728E-17
6.940874E+03	7.006933E-16	1.651971E-17
6.950761E+03	6.988765E-16	1.649743E-17
6.960649E+03	6.972146E-16	1.647873E-17
6.970536E+03	6.957130E-16	1.646374E-17
6.980423E+03	6.942904E-16	1.645056E-17
6.990310E+03	6.929329E-16	1.643886E-17
7.000198E+03	6.915841E-16	1.642730E-17
7.010085E+03	6.902035E-16	1.641494E-17
7.019972E+03	6.887678E-16	1.640121E-17
7.029860E+03	6.872176E-16	1.638469E-17
7.039747E+03	6.855412E-16	1.636509E-17
7.049634E+03	6.837061E-16	1.634163E-17
7.059521E+03	6.817144E-16	1.631433E-17
7.069409E+03	6.795593E-16	1.628304E-17
7.079296E+03	6.772255E-16	1.624737E-17
7.089183E+03	6.747294E-16	1.620769E-17
7.099071E+03	6.720499E-16	1.616348E-17
7.108958E+03	6.692243E-16	1.611563E-17
7.118845E+03	6.662526E-16	1.606413E-17
7.128732E+03	6.631373E-16	1.600902E-17
7.138620E+03	6.599107E-16	1.595107E-17
7.148507E+03	6.565931E-16	1.589077E-17
7.158394E+03	6.531916E-16	1.582827E-17
7.168282E+03	6.497274E-16	1.576409E-17
7.178169E+03	6.462195E-16	1.569868E-17
7.188056E+03	6.426851E-16	1.563247E-17
7.197943E+03	6.391376E-16	1.556576E-17
7.207831E+03	6.355600E-16	1.549815E-17
7.217718E+03	6.319838E-16	1.543040E-17
7.227605E+03	6.283969E-16	1.536223E-17
7.237493E+03	6.247848E-16	1.529327E-17
7.247380E+03	6.211592E-16	1.522381E-17
7.257267E+03	6.174948E-16	1.515323E-17
7.267154E+03	6.137963E-16	1.508164E-17
7.277042E+03	6.100734E-16	1.500927E-17
7.286929E+03	6.063290E-16	1.493620E-17
7.296816E+03	6.025960E-16	1.486324E-17
7.306704E+03	5.988603E-16	1.479004E-17
7.316591E+03	5.951717E-16	1.471783E-17
7.326478E+03	5.915281E-16	1.464656E-17
7.336365E+03	5.879595E-16	1.457699E-17
7.346253E+03	5.844641E-16	1.450907E-17
7.356140E+03	5.810437E-16	1.444286E-17
7.366027E+03	5.777049E-16	1.437854E-17
7.375915E+03	5.744216E-16	1.431544E-17
7.385802E+03	5.712098E-16	1.425399E-17
7.395689E+03	5.680174E-16	1.419289E-17
7.405576E+03	5.648362E-16	1.413192E-17
7.415464E+03	5.616171E-16	1.406986E-17
7.425351E+03	5.583580E-16	1.400665E-17
7.435238E+03	5.550092E-16	1.394102E-17
7.445126E+03	5.515394E-16	1.387219E-17
7.455013E+03	5.479427E-16	1.380000E-17
7.464900E+03	5.442274E-16	1.372462E-17
7.474787E+03	5.404440E-16	1.364733E-17
7.484675E+03	5.366022E-16	1.356835E-17
7.494562E+03	5.327488E-16	1.348887E-17
7.504449E+03	5.289289E-16	1.341003E-17
7.514337E+03	5.251609E-16	1.333229E-17
7.524224E+03	5.214819E-16	1.325660E-17
7.534111E+03	5.179008E-16	1.318319E-17
7.543998E+03	5.144562E-16	1.311306E-17
7.553886E+03	5.111350E-16	1.304587E-17
7.563773E+03	5.079662E-16	1.298239E-17
7.573660E+03	5.049295E-16	1.292211E-17
7.583548E+03	5.020485E-16	1.286563E-17
7.593435E+03	4.992989E-16	1.281237E-17
7.603322E+03	4.967009E-16	1.276283E-17
7.613209E+03	4.942383E-16	1.271663E-17
7.623097E+03	4.919053E-16	1.267362E-17
7.632984E+03	4.896940E-16	1.263361E-17
7.642871E+03	4.875953E-16	1.259638E-17
7.652759E+03	4.855988E-16	1.256167E-17
7.662646E+03	4.836820E-16	1.252891E-17
7.672533E+03	4.818559E-16	1.249838E-17
