#wls	flux	fluxerr
1.581966E+03	1.309770E-15	6.229035E-17
1.621515E+03	1.363844E-15	6.451489E-17
1.661064E+03	1.419338E-15	6.677053E-17
1.700613E+03	1.476381E-15	6.906109E-17
1.740162E+03	1.534472E-15	7.136098E-17
1.779711E+03	1.593739E-15	7.367401E-17
1.819260E+03	1.653198E-15	7.595288E-17
1.858810E+03	1.712379E-15	7.817466E-17
1.898359E+03	1.770316E-15	8.029455E-17
1.937908E+03	1.825649E-15	8.225123E-17
1.977457E+03	1.877816E-15	8.402064E-17
2.017006E+03	1.926699E-15	8.559939E-17
2.056555E+03	1.974023E-15	8.706563E-17
2.096104E+03	2.024018E-15	8.860485E-17
2.135654E+03	2.082306E-15	9.045763E-17
2.175203E+03	2.152881E-15	9.278644E-17
2.214752E+03	2.235400E-15	9.556241E-17
2.254301E+03	2.325648E-15	9.859256E-17
2.293850E+03	2.418361E-15	1.016455E-16
2.333399E+03	2.509987E-15	1.045684E-16
2.372948E+03	2.597933E-15	1.072536E-16
2.412498E+03	2.680911E-15	1.096505E-16
2.452047E+03	2.757850E-15	1.117198E-16
2.491596E+03	2.828366E-15	1.134514E-16
2.531145E+03	2.891856E-15	1.148275E-16
2.570694E+03	2.947960E-15	1.158413E-16
2.610243E+03	2.995905E-15	1.164706E-16
2.649792E+03	3.034864E-15	1.166929E-16
2.689342E+03	3.063973E-15	1.164862E-16
2.728891E+03	3.082060E-15	1.158187E-16
2.768440E+03	3.088039E-15	1.146644E-16
2.807989E+03	3.080859E-15	1.130012E-16
2.847538E+03	3.059829E-15	1.108221E-16
2.887087E+03	3.024760E-15	1.081404E-16
2.926636E+03	2.975918E-15	1.049861E-16
2.966185E+03	2.914103E-15	1.014079E-16
2.976073E+03	2.896746E-15	1.004537E-16
2.985960E+03	2.878611E-15	9.947578E-17
2.995847E+03	2.859829E-15	9.847887E-17
3.005735E+03	2.840271E-15	9.745882E-17
3.015622E+03	2.820069E-15	9.642045E-17
3.025509E+03	2.799227E-15	9.536415E-17
3.035396E+03	2.777826E-15	9.429295E-17
3.045284E+03	2.755737E-15	9.320274E-17
3.055171E+03	2.733243E-15	9.210335E-17
3.065058E+03	2.710229E-15	9.099106E-17
3.074946E+03	2.686808E-15	8.986992E-17
3.084833E+03	2.662985E-15	8.874026E-17
3.094720E+03	2.638719E-15	8.760094E-17
3.104607E+03	2.614133E-15	8.645618E-17
3.114495E+03	2.589198E-15	8.530517E-17
3.124382E+03	2.563987E-15	8.415055E-17
3.134269E+03	2.538535E-15	8.299351E-17
3.144157E+03	2.512875E-15	8.183535E-17
3.154044E+03	2.487094E-15	8.067894E-17
3.163931E+03	2.461235E-15	7.952575E-17
3.173818E+03	2.435302E-15	7.837601E-17
3.183706E+03	2.409429E-15	7.723407E-17
3.193593E+03	2.383628E-15	7.610029E-17
3.203480E+03	2.357993E-15	7.497771E-17
3.213368E+03	2.332579E-15	7.386800E-17
3.223255E+03	2.307404E-15	7.277174E-17
3.233142E+03	2.282603E-15	7.169304E-17
3.243029E+03	2.258159E-15	7.063129E-17
3.252917E+03	2.234201E-15	6.959039E-17
3.262804E+03	2.210782E-15	6.857187E-17
3.272691E+03	2.187891E-15	6.757515E-17
3.282579E+03	2.165644E-15	6.660364E-17
3.292466E+03	2.144090E-15	6.565862E-17
3.302353E+03	2.123243E-15	6.474028E-17
3.312240E+03	2.103152E-15	6.384983E-17
3.322128E+03	2.083861E-15	6.298836E-17
3.332015E+03	2.065417E-15	6.215699E-17
3.341902E+03	2.047870E-15	6.135688E-17
3.351790E+03	2.031271E-15	6.058923E-17
3.361677E+03	2.015645E-15	5.985445E-17
3.371564E+03	2.001029E-15	5.915323E-17
3.381451E+03	1.987536E-15	5.848854E-17
3.391339E+03	1.975157E-15	5.785970E-17
3.401226E+03	1.963991E-15	5.726913E-17
3.411113E+03	1.954084E-15	5.671772E-17
3.421001E+03	1.945508E-15	5.620708E-17
3.430888E+03	1.938288E-15	5.573737E-17
3.440775E+03	1.932467E-15	5.530930E-17
3.450662E+03	1.928106E-15	5.492408E-17
3.460550E+03	1.925218E-15	5.458149E-17
3.470437E+03	1.923843E-15	5.428208E-17
3.480324E+03	1.923915E-15	5.402339E-17
3.490212E+03	1.925409E-15	5.380417E-17
3.500099E+03	1.928167E-15	5.361940E-17
3.509986E+03	1.931990E-15	5.346313E-17
3.519873E+03	1.936653E-15	5.332867E-17
3.529761E+03	1.941884E-15	5.320825E-17
3.539648E+03	1.947496E-15	5.309654E-17
3.549535E+03	1.953261E-15	5.298722E-17
3.559423E+03	1.958978E-15	5.287480E-17
3.569310E+03	1.964540E-15	5.275640E-17
3.579197E+03	1.969802E-15	5.262825E-17
3.589084E+03	1.974703E-15	5.248885E-17
3.598972E+03	1.979230E-15	5.233801E-17
3.608859E+03	1.983416E-15	5.217673E-17
3.618746E+03	1.987339E-15	5.200721E-17
3.628634E+03	1.991116E-15	5.183265E-17
3.638521E+03	1.994923E-15	5.165761E-17
3.648408E+03	1.998963E-15	5.148737E-17
3.658295E+03	2.003452E-15	5.132736E-17
3.668183E+03	2.008696E-15	5.118516E-17
3.678070E+03	2.014923E-15	5.106632E-17
3.687957E+03	2.022441E-15	5.097814E-17
3.697845E+03	2.031517E-15	5.092681E-17
3.707732E+03	2.042428E-15	5.091864E-17
3.717619E+03	2.055472E-15	5.096020E-17
3.727506E+03	2.070833E-15	5.105522E-17
3.737394E+03	2.088756E-15	5.120870E-17
3.747281E+03	2.109430E-15	5.142426E-17
3.757168E+03	2.132952E-15	5.170305E-17
3.767056E+03	2.159435E-15	5.204670E-17
3.776943E+03	2.188931E-15	5.245519E-17
3.786830E+03	2.221393E-15	5.292621E-17
3.796717E+03	2.256736E-15	5.345649E-17
3.806605E+03	2.294863E-15	5.404262E-17
3.816492E+03	2.335528E-15	5.467765E-17
3.826379E+03	2.378490E-15	5.535501E-17
3.836267E+03	2.423422E-15	5.606615E-17
3.846154E+03	2.469959E-15	5.680194E-17
3.856041E+03	2.517698E-15	5.755250E-17
3.865928E+03	2.566163E-15	5.830655E-17
3.875816E+03	2.614894E-15	5.905344E-17
3.885703E+03	2.663442E-15	5.978305E-17
3.895590E+03	2.711316E-15	6.048453E-17
3.905478E+03	2.758039E-15	6.114764E-17
3.915365E+03	2.803178E-15	6.176333E-17
3.925252E+03	2.846311E-15	6.232308E-17
3.935139E+03	2.887085E-15	6.282010E-17
3.945027E+03	2.925201E-15	6.324895E-17
3.954914E+03	2.960421E-15	6.360566E-17
3.964801E+03	2.992531E-15	6.388691E-17
3.974689E+03	3.021431E-15	6.409191E-17
3.984576E+03	3.047084E-15	6.422126E-17
3.994463E+03	3.069516E-15	6.427690E-17
4.004350E+03	3.088776E-15	6.426122E-17
4.014238E+03	3.104946E-15	6.417726E-17
4.024125E+03	3.118152E-15	6.402892E-17
4.034012E+03	3.128505E-15	6.381976E-17
4.043900E+03	3.136145E-15	6.355381E-17
4.053787E+03	3.141186E-15	6.323451E-17
4.063674E+03	3.143762E-15	6.286569E-17
4.073561E+03	3.143985E-15	6.245057E-17
4.083449E+03	3.141964E-15	6.199236E-17
4.093336E+03	3.137835E-15	6.149463E-17
4.103223E+03	3.131708E-15	6.096044E-17
4.113111E+03	3.123716E-15	6.039322E-17
4.122998E+03	3.113947E-15	5.979543E-17
4.132885E+03	3.102543E-15	5.917053E-17
4.142772E+03	3.089609E-15	5.852120E-17
4.152660E+03	3.075341E-15	5.785180E-17
4.162547E+03	3.059900E-15	5.716586E-17
4.172434E+03	3.043532E-15	5.646850E-17
4.182322E+03	3.026463E-15	5.576422E-17
4.192209E+03	3.009056E-15	5.506002E-17
4.202096E+03	2.991626E-15	5.436179E-17
4.211983E+03	2.974615E-15	5.367751E-17
4.221871E+03	2.958377E-15	5.301346E-17
4.231758E+03	2.943285E-15	5.237599E-17
4.241645E+03	2.929751E-15	5.177202E-17
4.251533E+03	2.918020E-15	5.120531E-17
4.261420E+03	2.908380E-15	5.068026E-17
4.271307E+03	2.900928E-15	5.019784E-17
4.281194E+03	2.895787E-15	4.975942E-17
4.291082E+03	2.892922E-15	4.936363E-17
4.300969E+03	2.892214E-15	4.900773E-17
4.310856E+03	2.893522E-15	4.868864E-17
4.320744E+03	2.896638E-15	4.840227E-17
4.330631E+03	2.901442E-15	4.814607E-17
4.340518E+03	2.907910E-15	4.791920E-17
4.350405E+03	2.916328E-15	4.772580E-17
4.360293E+03	2.927019E-15	4.757051E-17
4.370180E+03	2.940292E-15	4.745755E-17
4.380067E+03	2.956382E-15	4.738986E-17
4.389955E+03	2.975466E-15	4.736936E-17
4.399842E+03	2.997595E-15	4.739589E-17
4.409729E+03	3.022782E-15	4.746873E-17
4.419616E+03	3.050938E-15	4.758559E-17
4.429504E+03	3.081912E-15	4.774321E-17
4.439391E+03	3.115451E-15	4.793693E-17
4.449278E+03	3.151264E-15	4.816156E-17
4.459166E+03	3.188958E-15	4.841056E-17
4.469053E+03	3.228121E-15	4.867721E-17
4.478940E+03	3.268175E-15	4.895255E-17
4.488827E+03	3.308522E-15	4.922750E-17
4.498715E+03	3.348473E-15	4.949193E-17
4.508602E+03	3.387208E-15	4.973403E-17
4.518489E+03	3.423924E-15	4.994255E-17
4.528377E+03	3.457672E-15	5.010447E-17
4.538264E+03	3.487538E-15	5.020756E-17
4.548151E+03	3.512556E-15	5.023920E-17
4.558038E+03	3.531894E-15	5.018904E-17
4.567926E+03	3.544763E-15	5.004755E-17
4.577813E+03	3.550487E-15	4.980712E-17
4.587700E+03	3.548651E-15	4.946390E-17
4.597588E+03	3.539062E-15	4.901728E-17
4.607475E+03	3.521748E-15	4.846968E-17
4.617362E+03	3.496965E-15	4.782660E-17
4.627249E+03	3.465342E-15	4.709848E-17
4.637137E+03	3.427679E-15	4.629780E-17
4.647024E+03	3.384918E-15	4.543863E-17
4.656911E+03	3.338227E-15	4.453773E-17
4.666798E+03	3.288882E-15	4.361285E-17
4.676686E+03	3.238135E-15	4.268104E-17
4.686573E+03	3.187327E-15	4.176004E-17
4.696460E+03	3.137663E-15	4.086544E-17
4.706348E+03	3.090242E-15	4.001106E-17
4.716235E+03	3.045918E-15	3.920716E-17
4.726122E+03	3.005336E-15	3.846106E-17
4.736009E+03	2.969047E-15	3.777874E-17
4.745897E+03	2.937416E-15	3.716369E-17
4.755784E+03	2.910737E-15	3.661843E-17
4.765671E+03	2.889126E-15	3.614318E-17
4.775559E+03	2.872606E-15	3.573705E-17
4.785446E+03	2.861094E-15	3.539786E-17
4.795333E+03	2.854422E-15	3.512239E-17
4.805220E+03	2.852270E-15	3.490569E-17
4.815108E+03	2.854262E-15	3.474221E-17
4.824995E+03	2.859913E-15	3.462521E-17
4.834882E+03	2.868751E-15	3.454827E-17
4.844770E+03	2.880168E-15	3.450346E-17
4.854657E+03	2.893545E-15	3.448292E-17
4.864544E+03	2.908220E-15	3.447842E-17
4.874431E+03	2.923607E-15	3.448281E-17
4.884319E+03	2.939121E-15	3.448910E-17
4.894206E+03	2.954277E-15	3.449162E-17
4.904093E+03	2.968724E-15	3.448636E-17
4.913981E+03	2.982177E-15	3.447017E-17
4.923868E+03	2.994496E-15	3.444164E-17
4.933755E+03	3.005635E-15	3.440044E-17
4.943642E+03	3.015715E-15	3.434820E-17
4.953530E+03	3.024919E-15	3.428716E-17
4.963417E+03	3.033468E-15	3.422000E-17
4.973304E+03	3.041662E-15	3.415022E-17
4.983192E+03	3.049827E-15	3.408157E-17
4.993079E+03	3.058275E-15	3.401755E-17
5.002966E+03	3.067371E-15	3.396220E-17
5.012853E+03	3.077418E-15	3.391883E-17
5.022741E+03	3.088593E-15	3.388929E-17
5.032628E+03	3.101075E-15	3.387544E-17
5.042515E+03	3.114930E-15	3.387787E-17
5.052403E+03	3.130125E-15	3.389615E-17
5.062290E+03	3.146601E-15	3.392952E-17
5.072177E+03	3.164251E-15	3.397676E-17
5.082064E+03	3.182922E-15	3.403622E-17
5.091952E+03	3.202396E-15	3.410554E-17
5.101839E+03	3.222480E-15	3.418272E-17
5.111726E+03	3.242854E-15	3.426444E-17
5.121614E+03	3.263260E-15	3.434810E-17
5.131501E+03	3.283346E-15	3.443016E-17
5.141388E+03	3.302754E-15	3.450708E-17
5.151275E+03	3.321100E-15	3.457510E-17
5.161163E+03	3.337965E-15	3.463019E-17
5.171050E+03	3.352855E-15	3.466755E-17
5.180937E+03	3.365407E-15	3.468381E-17
5.190825E+03	3.375175E-15	3.467482E-17
5.200712E+03	3.381800E-15	3.463731E-17
5.210599E+03	3.384968E-15	3.456852E-17
5.220486E+03	3.384506E-15	3.446715E-17
5.230374E+03	3.380396E-15	3.433345E-17
5.240261E+03	3.372804E-15	3.416950E-17
5.250148E+03	3.362107E-15	3.397950E-17
5.260036E+03	3.348889E-15	3.376963E-17
5.269923E+03	3.334079E-15	3.354948E-17
5.279810E+03	3.318679E-15	3.332927E-17
5.289697E+03	3.303907E-15	3.312130E-17
5.299585E+03	3.291107E-15	3.293899E-17
5.309472E+03	3.281353E-15	3.279276E-17
5.319359E+03	3.275270E-15	3.268843E-17
5.329247E+03	3.272444E-15	3.262150E-17
5.339134E+03	3.271916E-15	3.258206E-17
5.349021E+03	3.272453E-15	3.255756E-17
5.358908E+03	3.272878E-15	3.253603E-17
5.368796E+03	3.271935E-15	3.250479E-17
5.378683E+03	3.268495E-15	3.245244E-17
5.388570E+03	3.261434E-15	3.236762E-17
5.398458E+03	3.249862E-15	3.224135E-17
5.408345E+03	3.233011E-15	3.206577E-17
5.418232E+03	3.210334E-15	3.183528E-17
5.428119E+03	3.181586E-15	3.154721E-17
5.438007E+03	3.146668E-15	3.120034E-17
5.447894E+03	3.105762E-15	3.079622E-17
5.457781E+03	3.059293E-15	3.033878E-17
5.467669E+03	3.007799E-15	2.983310E-17
5.477556E+03	2.952051E-15	2.928654E-17
5.487443E+03	2.892801E-15	2.870631E-17
5.497330E+03	2.831023E-15	2.810181E-17
5.507218E+03	2.767647E-15	2.748206E-17
5.517105E+03	2.703646E-15	2.685648E-17
5.526992E+03	2.640047E-15	2.623513E-17
5.536880E+03	2.577904E-15	2.562833E-17
5.546767E+03	2.518261E-15	2.504630E-17
5.556654E+03	2.462225E-15	2.450000E-17
5.566541E+03	2.410788E-15	2.399923E-17
5.576429E+03	2.364990E-15	2.355432E-17
5.586316E+03	2.325691E-15	2.317382E-17
5.596203E+03	2.293742E-15	2.286625E-17
5.606091E+03	2.269810E-15	2.263828E-17
5.615978E+03	2.254373E-15	2.249477E-17
5.625865E+03	2.247764E-15	2.243909E-17
5.635752E+03	2.250097E-15	2.247248E-17
5.645640E+03	2.261309E-15	2.259437E-17
5.655527E+03	2.281097E-15	2.280181E-17
5.665414E+03	2.308924E-15	2.308952E-17
5.675302E+03	2.344120E-15	2.345086E-17
5.685189E+03	2.385760E-15	2.387662E-17
5.695076E+03	2.432710E-15	2.435549E-17
5.704963E+03	2.483733E-15	2.487512E-17
5.714851E+03	2.537473E-15	2.542194E-17
5.724738E+03	2.592474E-15	2.598137E-17
5.734625E+03	2.647236E-15	2.653835E-17
5.744513E+03	2.700355E-15	2.707883E-17
5.754400E+03	2.750537E-15	2.758978E-17
5.764287E+03	2.796623E-15	2.805960E-17
5.774174E+03	2.837650E-15	2.847858E-17
5.784062E+03	2.872958E-15	2.884010E-17
5.793949E+03	2.902107E-15	2.913974E-17
5.803836E+03	2.924935E-15	2.937590E-17
5.813724E+03	2.941466E-15	2.954883E-17
5.823611E+03	2.951876E-15	2.966031E-17
5.833498E+03	2.956543E-15	2.971419E-17
5.843385E+03	2.955885E-15	2.971473E-17
5.853273E+03	2.950525E-15	2.966823E-17
5.863160E+03	2.940918E-15	2.957933E-17
5.873047E+03	2.927663E-15	2.945413E-17
5.882935E+03	2.911344E-15	2.929858E-17
5.892822E+03	2.892446E-15	2.911763E-17
5.902709E+03	2.871448E-15	2.891619E-17
5.912596E+03	2.848825E-15	2.869912E-17
5.922484E+03	2.824935E-15	2.847013E-17
5.932371E+03	2.800159E-15	2.823312E-17
5.942258E+03	2.774712E-15	2.799037E-17
5.952146E+03	2.748877E-15	2.774482E-17
5.962033E+03	2.722742E-15	2.749744E-17
5.971920E+03	2.696462E-15	2.724990E-17
5.981807E+03	2.669979E-15	2.700167E-17
5.991695E+03	2.643343E-15	2.675339E-17
6.001582E+03	2.616478E-15	2.650433E-17
6.011469E+03	2.589312E-15	2.625384E-17
6.021357E+03	2.561710E-15	2.600063E-17
6.031244E+03	2.533685E-15	2.574487E-17
6.041131E+03	2.505140E-15	2.548563E-17
6.051018E+03	2.476194E-15	2.522416E-17
6.060906E+03	2.446891E-15	2.496092E-17
6.070793E+03	2.417442E-15	2.469811E-17
6.080680E+03	2.388089E-15	2.443820E-17
6.090568E+03	2.359136E-15	2.418436E-17
6.100455E+03	2.330807E-15	2.393892E-17
6.110342E+03	2.303389E-15	2.370489E-17
6.120229E+03	2.277078E-15	2.348433E-17
6.130117E+03	2.252009E-15	2.327861E-17
6.140004E+03	2.228205E-15	2.308785E-17
6.149891E+03	2.205629E-15	2.291149E-17
6.159779E+03	2.184168E-15	2.274824E-17
6.169666E+03	2.163666E-15	2.259634E-17
6.179553E+03	2.144242E-15	2.245689E-17
6.189440E+03	2.126233E-15	2.233334E-17
6.199328E+03	2.109934E-15	2.222871E-17
6.209215E+03	2.095516E-15	2.214481E-17
6.219102E+03	2.082940E-15	2.208120E-17
6.228990E+03	2.071998E-15	2.203570E-17
6.238877E+03	2.062377E-15	2.200498E-17
6.248764E+03	2.053614E-15	2.198404E-17
6.258651E+03	2.045261E-15	2.196804E-17
6.268539E+03	2.036818E-15	2.195148E-17
6.278426E+03	2.027911E-15	2.193015E-17
6.288313E+03	2.018250E-15	2.190073E-17
6.298201E+03	2.007712E-15	2.186166E-17
6.308088E+03	1.996277E-15	2.181248E-17
6.317975E+03	1.984101E-15	2.175468E-17
6.327862E+03	1.971448E-15	2.169096E-17
6.337750E+03	1.958671E-15	2.162504E-17
6.347637E+03	1.946237E-15	2.156198E-17
6.357524E+03	1.934686E-15	2.150770E-17
6.367412E+03	1.924575E-15	2.146843E-17
6.377299E+03	1.916441E-15	2.145023E-17
6.387186E+03	1.910793E-15	2.145896E-17
6.397073E+03	1.908056E-15	2.149961E-17
6.406961E+03	1.908528E-15	2.157576E-17
6.416848E+03	1.912358E-15	2.168939E-17
6.426735E+03	1.919653E-15	2.184198E-17
6.436623E+03	1.930331E-15	2.203291E-17
6.446510E+03	1.944158E-15	2.225976E-17
6.456397E+03	1.960835E-15	2.251932E-17
6.466284E+03	1.979931E-15	2.280684E-17
6.476172E+03	2.000903E-15	2.311618E-17
6.486059E+03	2.023177E-15	2.344078E-17
6.495946E+03	2.046204E-15	2.377429E-17
6.505833E+03	2.069251E-15	2.410813E-17
6.515721E+03	2.091755E-15	2.443560E-17
6.525608E+03	2.113108E-15	2.474943E-17
6.535495E+03	2.132681E-15	2.504204E-17
6.545383E+03	2.150058E-15	2.530825E-17
6.555270E+03	2.164760E-15	2.554213E-17
6.565157E+03	2.176546E-15	2.574054E-17
6.575044E+03	2.185124E-15	2.589968E-17
6.584932E+03	2.190407E-15	2.601822E-17
6.594819E+03	2.192363E-15	2.609546E-17
6.604706E+03	2.191012E-15	2.613136E-17
6.614594E+03	2.186487E-15	2.612724E-17
6.624481E+03	2.179027E-15	2.608574E-17
6.634368E+03	2.168853E-15	2.600930E-17
6.644255E+03	2.156258E-15	2.590129E-17
6.654143E+03	2.141561E-15	2.576543E-17
6.664030E+03	2.125086E-15	2.560552E-17
6.673917E+03	2.107159E-15	2.542542E-17
6.683805E+03	2.088106E-15	2.522907E-17
6.693692E+03	2.068211E-15	2.501990E-17
6.703579E+03	2.047837E-15	2.480232E-17
6.713466E+03	2.027306E-15	2.458027E-17
6.723354E+03	2.006905E-15	2.435732E-17
6.733241E+03	1.986992E-15	2.413786E-17
6.743128E+03	1.967842E-15	2.392535E-17
6.753016E+03	1.949748E-15	2.372344E-17
6.762903E+03	1.932976E-15	2.353546E-17
6.772790E+03	1.917750E-15	2.336425E-17
6.782677E+03	1.904279E-15	2.321247E-17
6.792565E+03	1.892613E-15	2.308082E-17
6.802452E+03	1.882856E-15	2.297066E-17
6.812339E+03	1.875018E-15	2.288221E-17
6.822227E+03	1.869026E-15	2.281466E-17
6.832114E+03	1.864834E-15	2.276751E-17
6.842001E+03	1.862317E-15	2.273931E-17
6.851888E+03	1.861284E-15	2.272779E-17
6.861776E+03	1.861550E-15	2.273075E-17
6.871663E+03	1.862945E-15	2.274616E-17
6.881550E+03	1.865213E-15	2.277097E-17
6.891438E+03	1.868126E-15	2.280243E-17
6.901325E+03	1.871458E-15	2.283784E-17
6.911212E+03	1.874985E-15	2.287454E-17
6.921099E+03	1.878463E-15	2.290962E-17
6.930987E+03	1.881774E-15	2.294172E-17
6.940874E+03	1.884682E-15	2.296803E-17
6.950761E+03	1.887082E-15	2.298736E-17
6.960649E+03	1.888829E-15	2.299805E-17
6.970536E+03	1.889839E-15	2.299919E-17
6.980423E+03	1.890092E-15	2.299064E-17
6.990310E+03	1.889519E-15	2.297166E-17
7.000198E+03	1.888066E-15	2.294175E-17
7.010085E+03	1.885819E-15	2.290206E-17
7.019972E+03	1.882768E-15	2.285260E-17
7.029860E+03	1.878920E-15	2.279360E-17
7.039747E+03	1.874377E-15	2.272644E-17
7.049634E+03	1.869177E-15	2.265170E-17
7.059521E+03	1.863444E-15	2.257103E-17
7.069409E+03	1.857230E-15	2.248521E-17
7.079296E+03	1.850659E-15	2.239587E-17
7.089183E+03	1.843734E-15	2.230317E-17
7.099071E+03	1.836560E-15	2.220854E-17
7.108958E+03	1.829227E-15	2.211320E-17
7.118845E+03	1.821700E-15	2.201686E-17
7.128732E+03	1.814009E-15	2.192001E-17
7.138620E+03	1.806217E-15	2.182358E-17
7.148507E+03	1.798346E-15	2.172794E-17
7.158394E+03	1.790376E-15	2.163300E-17
7.168282E+03	1.782364E-15	2.153957E-17
7.178169E+03	1.774287E-15	2.144753E-17
7.188056E+03	1.766155E-15	2.135713E-17
7.197943E+03	1.758008E-15	2.126898E-17
7.207831E+03	1.749805E-15	2.118270E-17
7.217718E+03	1.741573E-15	2.109878E-17
7.227605E+03	1.733267E-15	2.101678E-17
7.237493E+03	1.724882E-15	2.093676E-17
7.247380E+03	1.716498E-15	2.085983E-17
7.257267E+03	1.708053E-15	2.078536E-17
7.267154E+03	1.699647E-15	2.071464E-17
7.277042E+03	1.691269E-15	2.064770E-17
7.286929E+03	1.682987E-15	2.058545E-17
7.296816E+03	1.674862E-15	2.052877E-17
7.306704E+03	1.666876E-15	2.047755E-17
7.316591E+03	1.659112E-15	2.043291E-17
7.326478E+03	1.651564E-15	2.039492E-17
7.336365E+03	1.644251E-15	2.036390E-17
7.346253E+03	1.637134E-15	2.033949E-17
7.356140E+03	1.630159E-15	2.032112E-17
7.366027E+03	1.623293E-15	2.030848E-17
7.375915E+03	1.616379E-15	2.029970E-17
7.385802E+03	1.609327E-15	2.029370E-17
7.395689E+03	1.601995E-15	2.028871E-17
7.405576E+03	1.594309E-15	2.028380E-17
7.415464E+03	1.586114E-15	2.027689E-17
7.425351E+03	1.577249E-15	2.026568E-17
7.435238E+03	1.567601E-15	2.024843E-17
7.445126E+03	1.557092E-15	2.022374E-17
7.455013E+03	1.545703E-15	2.019102E-17
7.464900E+03	1.533667E-15	2.015292E-17
7.474787E+03	1.521231E-15	2.011235E-17
7.484675E+03	1.508802E-15	2.007443E-17
7.494562E+03	1.496647E-15	2.004250E-17
7.504449E+03	1.485024E-15	2.001995E-17
7.514337E+03	1.474117E-15	2.000917E-17
7.524224E+03	1.464145E-15	2.001319E-17
7.534111E+03	1.455255E-15	2.003412E-17
7.543998E+03	1.447565E-15	2.007372E-17
7.553886E+03	1.441117E-15	2.013280E-17
7.563773E+03	1.435993E-15	2.021274E-17
7.573660E+03	1.432170E-15	2.031350E-17
7.583548E+03	1.429701E-15	2.043615E-17
7.593435E+03	1.428432E-15	2.057876E-17
7.603322E+03	1.428407E-15	2.074230E-17
7.613209E+03	1.429510E-15	2.092539E-17
7.623097E+03	1.431613E-15	2.112646E-17
7.632984E+03	1.434653E-15	2.134481E-17
7.642871E+03	1.438518E-15	2.157908E-17
7.652759E+03	1.443089E-15	2.182767E-17
7.662646E+03	1.448241E-15	2.208887E-17
7.672533E+03	1.453876E-15	2.236134E-17
