#wls	flux	fluxerr
1.581966E+03	6.025017E-16	1.630601E-17
1.621515E+03	6.186919E-16	1.672937E-17
1.661064E+03	6.341938E-16	1.713295E-17
1.700613E+03	6.489667E-16	1.751568E-17
1.740162E+03	6.630634E-16	1.787900E-17
1.779711E+03	6.761490E-16	1.821390E-17
1.819260E+03	6.881149E-16	1.851751E-17
1.858810E+03	6.985913E-16	1.877993E-17
1.898359E+03	7.072669E-16	1.899291E-17
1.937908E+03	7.138344E-16	1.914833E-17
1.977457E+03	7.182179E-16	1.924431E-17
2.017006E+03	7.205954E-16	1.928579E-17
2.056555E+03	7.219142E-16	1.929827E-17
2.096104E+03	7.239374E-16	1.932892E-17
2.135654E+03	7.287560E-16	1.943339E-17
2.175203E+03	7.378899E-16	1.965188E-17
2.214752E+03	7.513957E-16	1.998541E-17
2.254301E+03	7.680102E-16	2.039993E-17
2.293850E+03	7.856957E-16	2.084101E-17
2.333399E+03	8.027229E-16	2.126265E-17
2.372948E+03	8.177958E-16	2.163061E-17
2.412498E+03	8.301044E-16	2.192366E-17
2.452047E+03	8.392608E-16	2.213184E-17
2.491596E+03	8.450629E-16	2.225019E-17
2.531145E+03	8.471486E-16	2.226956E-17
2.570694E+03	8.455766E-16	2.219196E-17
2.610243E+03	8.402771E-16	2.201600E-17
2.649792E+03	8.312382E-16	2.174187E-17
2.689342E+03	8.187204E-16	2.137691E-17
2.728891E+03	8.026722E-16	2.092026E-17
2.768440E+03	7.834623E-16	2.038205E-17
2.807989E+03	7.612549E-16	1.976706E-17
2.847538E+03	7.363079E-16	1.908247E-17
2.887087E+03	7.090179E-16	1.833901E-17
2.926636E+03	6.798889E-16	1.755014E-17
2.966185E+03	6.494982E-16	1.673110E-17
2.976073E+03	6.417667E-16	1.652329E-17
2.985960E+03	6.340054E-16	1.631488E-17
2.995847E+03	6.262611E-16	1.610707E-17
3.005735E+03	6.184998E-16	1.589900E-17
3.015622E+03	6.107292E-16	1.569085E-17
3.025509E+03	6.029565E-16	1.548282E-17
3.035396E+03	5.952288E-16	1.527613E-17
3.045284E+03	5.875463E-16	1.507076E-17
3.055171E+03	5.799005E-16	1.486651E-17
3.065058E+03	5.723283E-16	1.466432E-17
3.074946E+03	5.648309E-16	1.446422E-17
3.084833E+03	5.574102E-16	1.426626E-17
3.094720E+03	5.500683E-16	1.407048E-17
3.104607E+03	5.428376E-16	1.387772E-17
3.114495E+03	5.356892E-16	1.368724E-17
3.124382E+03	5.286257E-16	1.349909E-17
3.134269E+03	5.216782E-16	1.331407E-17
3.144157E+03	5.148474E-16	1.313219E-17
3.154044E+03	5.081614E-16	1.295417E-17
3.163931E+03	5.015669E-16	1.277863E-17
3.173818E+03	4.951180E-16	1.260697E-17
3.183706E+03	4.887893E-16	1.243853E-17
3.193593E+03	4.826061E-16	1.227394E-17
3.203480E+03	4.765679E-16	1.211318E-17
3.213368E+03	4.706741E-16	1.195624E-17
3.223255E+03	4.649465E-16	1.180367E-17
3.233142E+03	4.593610E-16	1.165485E-17
3.243029E+03	4.539380E-16	1.151028E-17
3.252917E+03	4.486754E-16	1.136991E-17
3.262804E+03	4.435913E-16	1.123420E-17
3.272691E+03	4.386614E-16	1.110251E-17
3.282579E+03	4.339028E-16	1.097528E-17
3.292466E+03	4.293113E-16	1.085239E-17
3.302353E+03	4.249014E-16	1.073420E-17
3.312240E+03	4.206488E-16	1.062010E-17
3.322128E+03	4.165849E-16	1.051086E-17
3.332015E+03	4.126850E-16	1.040585E-17
3.341902E+03	4.089599E-16	1.030535E-17
3.351790E+03	4.054021E-16	1.020914E-17
3.361677E+03	4.020201E-16	1.011745E-17
3.371564E+03	3.988048E-16	1.003004E-17
3.381451E+03	3.957468E-16	9.946647E-18
3.391339E+03	3.928515E-16	9.867419E-18
3.401226E+03	3.901225E-16	9.792431E-18
3.411113E+03	3.875323E-16	9.720988E-18
3.421001E+03	3.850968E-16	9.653481E-18
3.430888E+03	3.827867E-16	9.589169E-18
3.440775E+03	3.806139E-16	9.528343E-18
3.450662E+03	3.785738E-16	9.470884E-18
3.460550E+03	3.766211E-16	9.415653E-18
3.470437E+03	3.747761E-16	9.363149E-18
3.480324E+03	3.730048E-16	9.312524E-18
3.490212E+03	3.712989E-16	9.263562E-18
3.500099E+03	3.696242E-16	9.215413E-18
3.509986E+03	3.679825E-16	9.168116E-18
3.519873E+03	3.663166E-16	9.120247E-18
3.529761E+03	3.646060E-16	9.071297E-18
3.539648E+03	3.628430E-16	9.021079E-18
3.549535E+03	3.609790E-16	8.968389E-18
3.559423E+03	3.590135E-16	8.913217E-18
3.569310E+03	3.569187E-16	8.854884E-18
3.579197E+03	3.547043E-16	8.793633E-18
3.589084E+03	3.523562E-16	8.729123E-18
3.598972E+03	3.498783E-16	8.661460E-18
3.608859E+03	3.472930E-16	8.591204E-18
3.618746E+03	3.446311E-16	8.519125E-18
3.628634E+03	3.419159E-16	8.445800E-18
3.638521E+03	3.392005E-16	8.372547E-18
3.648408E+03	3.365391E-16	8.300700E-18
3.658295E+03	3.340019E-16	8.231990E-18
3.668183E+03	3.316577E-16	8.168102E-18
3.678070E+03	3.295877E-16	8.111025E-18
3.687957E+03	3.278748E-16	8.062785E-18
3.697845E+03	3.265872E-16	8.025034E-18
3.707732E+03	3.258081E-16	7.999797E-18
3.717619E+03	3.256185E-16	7.989029E-18
3.727506E+03	3.261034E-16	7.994782E-18
3.737394E+03	3.273169E-16	8.018345E-18
3.747281E+03	3.293374E-16	8.061591E-18
3.757168E+03	3.322247E-16	8.125941E-18
3.767056E+03	3.360478E-16	8.213030E-18
3.776943E+03	3.408509E-16	8.323883E-18
3.786830E+03	3.466924E-16	8.459866E-18
3.796717E+03	3.536101E-16	8.621843E-18
3.806605E+03	3.616314E-16	8.810415E-18
3.816492E+03	3.707830E-16	9.026167E-18
3.826379E+03	3.810626E-16	9.268977E-18
3.836267E+03	3.924514E-16	9.538319E-18
3.846154E+03	4.049259E-16	9.833555E-18
3.856041E+03	4.184286E-16	1.015322E-17
3.865928E+03	4.328822E-16	1.049539E-17
3.875816E+03	4.482042E-16	1.085799E-17
3.885703E+03	4.642752E-16	1.123809E-17
3.895590E+03	4.809520E-16	1.163216E-17
3.905478E+03	4.980841E-16	1.203655E-17
3.915365E+03	5.154813E-16	1.244662E-17
3.925252E+03	5.329407E-16	1.285745E-17
3.935139E+03	5.502338E-16	1.326355E-17
3.945027E+03	5.671274E-16	1.365928E-17
3.954914E+03	5.833799E-16	1.403887E-17
3.964801E+03	5.987494E-16	1.439654E-17
3.974689E+03	6.129828E-16	1.472624E-17
3.984576E+03	6.258837E-16	1.502335E-17
3.994463E+03	6.372492E-16	1.528306E-17
4.004350E+03	6.469351E-16	1.550203E-17
4.014238E+03	6.548495E-16	1.567814E-17
4.024125E+03	6.609611E-16	1.581077E-17
4.034012E+03	6.652809E-16	1.590028E-17
4.043900E+03	6.678677E-16	1.594819E-17
4.053787E+03	6.688093E-16	1.595671E-17
4.063674E+03	6.681959E-16	1.592808E-17
4.073561E+03	6.661720E-16	1.586585E-17
4.083449E+03	6.628651E-16	1.577314E-17
4.093336E+03	6.584111E-16	1.565326E-17
4.103223E+03	6.529593E-16	1.550984E-17
4.113111E+03	6.466525E-16	1.534633E-17
4.122998E+03	6.396495E-16	1.516654E-17
4.132885E+03	6.320951E-16	1.497395E-17
4.142772E+03	6.241099E-16	1.477147E-17
4.152660E+03	6.158303E-16	1.456233E-17
4.162547E+03	6.073633E-16	1.434909E-17
4.172434E+03	5.988181E-16	1.413434E-17
4.182322E+03	5.902665E-16	1.391978E-17
4.192209E+03	5.817980E-16	1.370751E-17
4.202096E+03	5.734598E-16	1.349866E-17
4.211983E+03	5.653201E-16	1.329481E-17
4.221871E+03	5.574111E-16	1.309671E-17
4.231758E+03	5.497852E-16	1.290558E-17
4.241645E+03	5.424957E-16	1.272264E-17
4.251533E+03	5.355904E-16	1.254901E-17
4.261420E+03	5.291501E-16	1.238654E-17
4.271307E+03	5.232395E-16	1.223672E-17
4.281194E+03	5.179691E-16	1.210209E-17
4.291082E+03	5.134160E-16	1.198442E-17
4.300969E+03	5.096837E-16	1.188608E-17
4.310856E+03	5.068693E-16	1.180927E-17
4.320744E+03	5.050544E-16	1.175583E-17
4.330631E+03	5.043102E-16	1.172736E-17
4.340518E+03	5.047039E-16	1.172533E-17
4.350405E+03	5.062965E-16	1.175110E-17
4.360293E+03	5.091205E-16	1.180534E-17
4.370180E+03	5.132101E-16	1.188876E-17
4.380067E+03	5.185785E-16	1.200157E-17
4.389955E+03	5.252314E-16	1.214384E-17
4.399842E+03	5.331711E-16	1.231552E-17
4.409729E+03	5.423989E-16	1.251655E-17
4.419616E+03	5.529141E-16	1.274684E-17
4.429504E+03	5.647068E-16	1.300607E-17
4.439391E+03	5.777686E-16	1.329396E-17
4.449278E+03	5.920746E-16	1.360985E-17
4.459166E+03	6.075942E-16	1.395297E-17
4.469053E+03	6.242573E-16	1.432160E-17
4.478940E+03	6.419549E-16	1.471319E-17
4.488827E+03	6.605637E-16	1.512484E-17
4.498715E+03	6.799052E-16	1.555241E-17
4.508602E+03	6.997572E-16	1.599076E-17
4.518489E+03	7.198513E-16	1.643374E-17
4.528377E+03	7.398797E-16	1.687431E-17
4.538264E+03	7.594740E-16	1.730408E-17
4.548151E+03	7.782526E-16	1.771439E-17
4.558038E+03	7.957695E-16	1.809517E-17
4.567926E+03	8.115943E-16	1.843671E-17
4.577813E+03	8.252657E-16	1.872867E-17
4.587700E+03	8.363454E-16	1.896126E-17
4.597588E+03	8.444317E-16	1.912555E-17
4.607475E+03	8.491980E-16	1.921435E-17
4.617362E+03	8.504019E-16	1.922242E-17
4.627249E+03	8.479062E-16	1.914690E-17
4.637137E+03	8.416792E-16	1.898732E-17
4.647024E+03	8.318474E-16	1.874679E-17
4.656911E+03	8.186144E-16	1.843014E-17
4.666798E+03	8.023120E-16	1.804507E-17
4.676686E+03	7.833464E-16	1.760089E-17
4.686573E+03	7.622214E-16	1.710911E-17
4.696460E+03	7.395235E-16	1.658302E-17
4.706348E+03	7.158890E-16	1.603698E-17
4.716235E+03	6.920049E-16	1.548643E-17
4.726122E+03	6.685545E-16	1.494666E-17
4.736009E+03	6.461741E-16	1.443186E-17
4.745897E+03	6.254539E-16	1.395512E-17
4.755784E+03	6.068969E-16	1.352753E-17
4.765671E+03	5.909453E-16	1.315881E-17
4.775559E+03	5.779437E-16	1.285643E-17
4.785446E+03	5.681929E-16	1.262689E-17
4.795333E+03	5.618995E-16	1.247457E-17
4.805220E+03	5.592214E-16	1.240272E-17
4.815108E+03	5.602720E-16	1.241362E-17
4.824995E+03	5.650975E-16	1.250805E-17
4.834882E+03	5.736995E-16	1.268579E-17
4.844770E+03	5.859994E-16	1.294486E-17
4.854657E+03	6.018141E-16	1.328098E-17
4.864544E+03	6.208387E-16	1.368719E-17
4.874431E+03	6.426511E-16	1.415399E-17
4.884319E+03	6.666693E-16	1.466839E-17
4.894206E+03	6.921513E-16	1.521395E-17
4.904093E+03	7.182058E-16	1.577099E-17
4.913981E+03	7.438075E-16	1.631699E-17
4.923868E+03	7.678814E-16	1.682843E-17
4.933755E+03	7.893559E-16	1.728195E-17
4.943642E+03	8.072950E-16	1.765725E-17
4.953530E+03	8.209983E-16	1.793926E-17
4.963417E+03	8.300326E-16	1.811880E-17
4.973304E+03	8.343219E-16	1.819451E-17
4.983192E+03	8.341477E-16	1.817284E-17
4.993079E+03	8.300466E-16	1.806575E-17
5.002966E+03	8.227956E-16	1.789039E-17
5.012853E+03	8.132604E-16	1.766576E-17
5.022741E+03	8.023180E-16	1.741105E-17
5.032628E+03	7.907501E-16	1.714329E-17
5.042515E+03	7.792061E-16	1.687657E-17
5.052403E+03	7.682235E-16	1.662254E-17
5.062290E+03	7.582250E-16	1.639029E-17
5.072177E+03	7.494977E-16	1.618596E-17
5.082064E+03	7.422573E-16	1.601411E-17
5.091952E+03	7.366025E-16	1.587680E-17
5.101839E+03	7.325706E-16	1.577471E-17
5.111726E+03	7.301596E-16	1.570772E-17
5.121614E+03	7.293463E-16	1.567521E-17
5.131501E+03	7.300944E-16	1.567631E-17
5.141388E+03	7.323691E-16	1.571018E-17
5.151275E+03	7.361118E-16	1.577548E-17
5.161163E+03	7.412805E-16	1.587121E-17
5.171050E+03	7.478141E-16	1.599598E-17
5.180937E+03	7.556361E-16	1.614808E-17
5.190825E+03	7.646460E-16	1.632530E-17
5.200712E+03	7.747431E-16	1.652540E-17
5.210599E+03	7.858058E-16	1.674575E-17
5.220486E+03	7.976938E-16	1.698330E-17
5.230374E+03	8.102712E-16	1.723511E-17
5.240261E+03	8.234146E-16	1.749853E-17
5.250148E+03	8.369826E-16	1.777053E-17
5.260036E+03	8.508794E-16	1.804905E-17
5.269923E+03	8.649950E-16	1.833175E-17
5.279810E+03	8.792646E-16	1.861726E-17
5.289697E+03	8.936352E-16	1.890444E-17
5.299585E+03	9.080675E-16	1.919247E-17
5.309472E+03	9.225584E-16	1.948129E-17
5.319359E+03	9.371350E-16	1.977147E-17
5.329247E+03	9.518688E-16	2.006451E-17
5.339134E+03	9.668318E-16	2.036194E-17
5.349021E+03	9.821390E-16	2.066616E-17
5.358908E+03	9.978916E-16	2.097930E-17
5.368796E+03	1.014183E-15	2.130328E-17
5.378683E+03	1.031017E-15	2.163818E-17
5.388570E+03	1.048310E-15	2.198220E-17
5.398458E+03	1.065838E-15	2.233066E-17
5.408345E+03	1.083213E-15	2.267537E-17
5.418232E+03	1.099846E-15	2.300411E-17
5.428119E+03	1.114972E-15	2.330086E-17
5.438007E+03	1.127731E-15	2.354781E-17
5.447894E+03	1.137151E-15	2.372477E-17
5.457781E+03	1.142289E-15	2.381225E-17
5.467669E+03	1.142328E-15	2.379350E-17
5.477556E+03	1.136613E-15	2.365512E-17
5.487443E+03	1.124734E-15	2.338889E-17
5.497330E+03	1.106613E-15	2.299349E-17
5.507218E+03	1.082464E-15	2.247366E-17
5.517105E+03	1.052764E-15	2.183962E-17
5.526992E+03	1.018290E-15	2.110772E-17
5.536880E+03	9.799665E-16	2.029733E-17
5.546767E+03	9.388808E-16	1.943114E-17
5.556654E+03	8.961881E-16	1.853315E-17
5.566541E+03	8.530763E-16	1.762798E-17
5.576429E+03	8.107010E-16	1.673949E-17
5.586316E+03	7.701535E-16	1.589015E-17
5.596203E+03	7.324195E-16	1.510018E-17
5.606091E+03	6.983489E-16	1.438693E-17
5.615978E+03	6.686614E-16	1.376506E-17
5.625865E+03	6.439422E-16	1.324638E-17
5.635752E+03	6.246403E-16	1.283989E-17
5.645640E+03	6.111234E-16	1.255288E-17
5.655527E+03	6.036793E-16	1.239101E-17
5.665414E+03	6.025345E-16	1.235863E-17
5.675302E+03	6.078827E-16	1.245946E-17
5.685189E+03	6.198471E-16	1.269572E-17
5.695076E+03	6.384547E-16	1.306768E-17
5.704963E+03	6.635550E-16	1.357200E-17
5.714851E+03	6.946717E-16	1.419867E-17
5.724738E+03	7.309881E-16	1.493076E-17
5.734625E+03	7.713732E-16	1.574500E-17
5.744513E+03	8.143951E-16	1.661201E-17
5.754400E+03	8.583943E-16	1.749790E-17
5.764287E+03	9.016947E-16	1.836848E-17
5.774174E+03	9.428529E-16	1.919443E-17
5.784062E+03	9.806817E-16	1.995169E-17
5.793949E+03	1.014243E-15	2.062134E-17
5.803836E+03	1.042858E-15	2.118977E-17
5.813724E+03	1.066080E-15	2.164811E-17
5.823611E+03	1.083727E-15	2.199289E-17
5.833498E+03	1.095817E-15	2.222469E-17
5.843385E+03	1.102590E-15	2.234858E-17
5.853273E+03	1.104467E-15	2.237332E-17
5.863160E+03	1.101990E-15	2.231002E-17
5.873047E+03	1.095806E-15	2.217195E-17
5.882935E+03	1.086630E-15	2.197370E-17
5.892822E+03	1.075164E-15	2.172955E-17
5.902709E+03	1.062095E-15	2.145346E-17
5.912596E+03	1.048049E-15	2.115811E-17
5.922484E+03	1.033512E-15	2.085334E-17
5.932371E+03	1.018903E-15	2.054759E-17
5.942258E+03	1.004541E-15	2.024733E-17
5.952146E+03	9.906548E-16	1.995712E-17
5.962033E+03	9.773934E-16	1.967995E-17
5.971920E+03	9.648692E-16	1.941805E-17
5.981807E+03	9.531661E-16	1.917310E-17
5.991695E+03	9.423041E-16	1.894546E-17
6.001582E+03	9.323261E-16	1.873597E-17
6.011469E+03	9.232119E-16	1.854419E-17
6.021357E+03	9.149540E-16	1.836995E-17
6.031244E+03	9.075605E-16	1.821337E-17
6.041131E+03	9.010291E-16	1.807439E-17
6.051018E+03	8.953839E-16	1.795348E-17
6.060906E+03	8.906293E-16	1.785068E-17
6.070793E+03	8.867735E-16	1.776615E-17
6.080680E+03	8.838172E-16	1.769987E-17
6.090568E+03	8.816856E-16	1.765033E-17
6.100455E+03	8.802383E-16	1.761470E-17
6.110342E+03	8.792460E-16	1.758838E-17
6.120229E+03	8.783939E-16	1.756506E-17
6.130117E+03	8.772935E-16	1.753697E-17
6.140004E+03	8.754950E-16	1.749514E-17
6.149891E+03	8.725871E-16	1.743136E-17
6.159779E+03	8.681976E-16	1.733822E-17
6.169666E+03	8.621075E-16	1.721136E-17
6.179553E+03	8.542279E-16	1.704904E-17
6.189440E+03	8.447295E-16	1.685468E-17
6.199328E+03	8.339394E-16	1.663484E-17
6.209215E+03	8.222493E-16	1.639733E-17
6.219102E+03	8.101238E-16	1.615143E-17
6.228990E+03	7.979467E-16	1.590478E-17
6.238877E+03	7.860836E-16	1.566466E-17
6.248764E+03	7.747483E-16	1.543532E-17
6.258651E+03	7.640880E-16	1.521967E-17
6.268539E+03	7.541613E-16	1.501886E-17
6.278426E+03	7.449453E-16	1.483243E-17
6.288313E+03	7.363804E-16	1.465916E-17
6.298201E+03	7.283420E-16	1.449657E-17
6.308088E+03	7.207059E-16	1.434218E-17
6.317975E+03	7.133260E-16	1.419306E-17
6.327862E+03	7.060752E-16	1.404669E-17
6.337750E+03	6.988735E-16	1.390146E-17
6.347637E+03	6.916742E-16	1.375644E-17
6.357524E+03	6.845000E-16	1.361208E-17
6.367412E+03	6.774498E-16	1.347033E-17
6.377299E+03	6.706622E-16	1.333396E-17
6.387186E+03	6.643768E-16	1.320770E-17
6.397073E+03	6.588505E-16	1.309668E-17
6.406961E+03	6.543949E-16	1.300706E-17
6.416848E+03	6.513290E-16	1.294519E-17
6.426735E+03	6.499594E-16	1.291714E-17
6.436623E+03	6.505546E-16	1.292825E-17
6.446510E+03	6.533109E-16	1.298240E-17
6.456397E+03	6.583288E-16	1.308160E-17
6.466284E+03	6.656102E-16	1.322587E-17
6.476172E+03	6.750876E-16	1.341387E-17
6.486059E+03	6.866110E-16	1.364263E-17
6.495946E+03	6.999736E-16	1.390803E-17
6.505833E+03	7.148645E-16	1.420390E-17
6.515721E+03	7.309128E-16	1.452288E-17
6.525608E+03	7.476881E-16	1.485643E-17
6.535495E+03	7.647089E-16	1.519498E-17
6.545383E+03	7.815061E-16	1.552922E-17
6.555270E+03	7.976123E-16	1.584987E-17
6.565157E+03	8.125961E-16	1.614837E-17
6.575044E+03	8.260460E-16	1.641653E-17
6.584932E+03	8.376133E-16	1.664743E-17
6.594819E+03	8.470357E-16	1.683585E-17
6.604706E+03	8.540776E-16	1.697710E-17
6.614594E+03	8.586114E-16	1.706864E-17
6.624481E+03	8.605843E-16	1.710941E-17
6.634368E+03	8.599891E-16	1.709925E-17
6.644255E+03	8.568858E-16	1.703934E-17
6.654143E+03	8.513738E-16	1.693164E-17
6.664030E+03	8.435911E-16	1.677887E-17
6.673917E+03	8.336896E-16	1.658404E-17
6.683805E+03	8.218415E-16	1.635055E-17
6.693692E+03	8.082673E-16	1.608277E-17
6.703579E+03	7.932489E-16	1.578628E-17
6.713466E+03	7.770655E-16	1.546664E-17
6.723354E+03	7.600646E-16	1.513072E-17
6.733241E+03	7.426564E-16	1.478670E-17
6.743128E+03	7.252522E-16	1.444274E-17
6.753016E+03	7.083398E-16	1.410856E-17
6.762903E+03	6.924201E-16	1.379413E-17
6.772790E+03	6.780596E-16	1.351074E-17
6.782677E+03	6.658156E-16	1.326952E-17
6.792565E+03	6.562638E-16	1.308196E-17
6.802452E+03	6.499077E-16	1.295813E-17
6.812339E+03	6.471548E-16	1.290619E-17
6.822227E+03	6.483374E-16	1.293283E-17
6.832114E+03	6.536665E-16	1.304231E-17
6.842001E+03	6.632072E-16	1.323600E-17
6.851888E+03	6.768909E-16	1.351258E-17
6.861776E+03	6.944348E-16	1.386649E-17
6.871663E+03	7.152774E-16	1.428658E-17
6.881550E+03	7.386116E-16	1.475679E-17
6.891438E+03	7.633745E-16	1.525594E-17
6.901325E+03	7.882702E-16	1.575814E-17
6.911212E+03	8.118911E-16	1.623527E-17
6.921099E+03	8.329185E-16	1.666094E-17
6.930987E+03	8.502920E-16	1.701389E-17
6.940874E+03	8.632562E-16	1.727894E-17
6.950761E+03	8.714729E-16	1.744925E-17
6.960649E+03	8.749798E-16	1.752547E-17
6.970536E+03	8.741341E-16	1.751467E-17
6.980423E+03	8.696103E-16	1.743027E-17
6.990310E+03	8.622319E-16	1.728871E-17
7.000198E+03	8.529395E-16	1.710880E-17
7.010085E+03	8.427034E-16	1.690994E-17
7.019972E+03	8.324048E-16	1.670982E-17
7.029860E+03	8.228718E-16	1.652505E-17
7.039747E+03	8.147075E-16	1.636776E-17
7.049634E+03	8.083575E-16	1.624694E-17
7.059521E+03	8.040349E-16	1.616691E-17
7.069409E+03	8.018469E-16	1.612990E-17
7.079296E+03	8.017711E-16	1.613549E-17
7.089183E+03	8.036487E-16	1.618056E-17
7.099071E+03	8.072966E-16	1.626146E-17
7.108958E+03	8.124739E-16	1.637340E-17
7.118845E+03	8.189090E-16	1.651095E-17
7.128732E+03	8.263127E-16	1.666831E-17
7.138620E+03	8.343747E-16	1.683925E-17
7.148507E+03	8.428218E-16	1.701830E-17
7.158394E+03	8.513257E-16	1.719882E-17
7.168282E+03	8.596033E-16	1.737512E-17
7.178169E+03	8.673653E-16	1.754133E-17
7.188056E+03	8.743346E-16	1.769183E-17
7.197943E+03	8.802545E-16	1.782142E-17
7.207831E+03	8.848982E-16	1.792547E-17
7.217718E+03	8.880704E-16	1.799998E-17
7.227605E+03	8.896845E-16	1.804314E-17
7.237493E+03	8.896817E-16	1.805371E-17
7.247380E+03	8.880957E-16	1.803233E-17
7.257267E+03	8.851078E-16	1.798261E-17
7.267154E+03	8.809200E-16	1.790861E-17
7.277042E+03	8.757687E-16	1.781509E-17
7.286929E+03	8.698783E-16	1.770659E-17
7.296816E+03	8.634460E-16	1.758709E-17
7.306704E+03	8.566457E-16	1.746011E-17
7.316591E+03	8.495768E-16	1.732765E-17
7.326478E+03	8.423408E-16	1.719179E-17
7.336365E+03	8.349420E-16	1.705258E-17
7.346253E+03	8.274104E-16	1.691065E-17
7.356140E+03	8.197216E-16	1.676548E-17
7.366027E+03	8.118372E-16	1.661627E-17
7.375915E+03	8.036838E-16	1.646150E-17
7.385802E+03	7.952150E-16	1.630022E-17
7.395689E+03	7.863992E-16	1.613175E-17
7.405576E+03	7.771697E-16	1.595470E-17
7.415464E+03	7.675307E-16	1.576914E-17
7.425351E+03	7.574572E-16	1.557452E-17
7.435238E+03	7.469889E-16	1.537164E-17
7.445126E+03	7.362011E-16	1.516200E-17
7.455013E+03	7.252130E-16	1.494804E-17
7.464900E+03	7.141334E-16	1.473198E-17
7.474787E+03	7.031067E-16	1.451680E-17
7.484675E+03	6.923079E-16	1.430609E-17
7.494562E+03	6.819415E-16	1.410409E-17
7.504449E+03	6.722280E-16	1.391539E-17
7.514337E+03	6.633775E-16	1.374435E-17
7.524224E+03	6.556153E-16	1.359569E-17
7.534111E+03	6.491362E-16	1.347350E-17
7.543998E+03	6.441092E-16	1.338137E-17
7.553886E+03	6.406714E-16	1.332222E-17
7.563773E+03	6.389115E-16	1.329799E-17
7.573660E+03	6.388889E-16	1.331000E-17
7.583548E+03	6.406388E-16	1.335909E-17
7.593435E+03	6.440985E-16	1.344406E-17
7.603322E+03	6.491738E-16	1.356303E-17
7.613209E+03	6.557204E-16	1.371309E-17
7.623097E+03	6.635200E-16	1.388975E-17
7.632984E+03	6.722759E-16	1.408689E-17
7.642871E+03	6.816377E-16	1.429721E-17
7.652759E+03	6.912220E-16	1.451269E-17
7.662646E+03	7.006179E-16	1.472473E-17
7.672533E+03	7.094164E-16	1.492471E-17
