#wls	flux	fluxerr
1.581966E+03	5.649509E-16	1.564375E-17
1.621515E+03	5.798374E-16	1.602151E-17
1.661064E+03	5.941693E-16	1.638134E-17
1.700613E+03	6.078208E-16	1.671979E-17
1.740162E+03	6.206523E-16	1.703307E-17
1.779711E+03	6.326407E-16	1.732065E-17
1.819260E+03	6.433966E-16	1.757196E-17
1.858810E+03	6.528762E-16	1.778600E-17
1.898359E+03	6.605966E-16	1.794984E-17
1.937908E+03	6.662797E-16	1.805627E-17
1.977457E+03	6.699689E-16	1.810683E-17
2.017006E+03	6.718406E-16	1.810670E-17
2.056555E+03	6.725956E-16	1.807509E-17
2.096104E+03	6.738957E-16	1.805675E-17
2.135654E+03	6.778900E-16	1.810895E-17
2.175203E+03	6.859956E-16	1.826874E-17
2.214752E+03	6.980821E-16	1.853155E-17
2.254301E+03	7.130830E-16	1.886808E-17
2.293850E+03	7.290238E-16	1.922540E-17
2.333399E+03	7.442279E-16	1.955907E-17
2.372948E+03	7.576998E-16	1.984313E-17
2.412498E+03	7.685337E-16	2.005431E-17
2.452047E+03	7.764088E-16	2.018493E-17
2.491596E+03	7.810937E-16	2.022980E-17
2.531145E+03	7.824588E-16	2.018647E-17
2.570694E+03	7.804388E-16	2.005424E-17
2.610243E+03	7.750946E-16	1.983570E-17
2.649792E+03	7.665227E-16	1.953437E-17
2.689342E+03	7.547189E-16	1.915124E-17
2.728891E+03	7.399479E-16	1.869411E-17
2.768440E+03	7.224439E-16	1.816994E-17
2.807989E+03	7.024314E-16	1.758539E-17
2.847538E+03	6.801430E-16	1.694726E-17
2.887087E+03	6.558339E-16	1.626282E-17
2.926636E+03	6.300199E-16	1.554568E-17
2.966185E+03	6.030939E-16	1.480621E-17
2.976073E+03	5.962726E-16	1.461998E-17
2.985960E+03	5.894448E-16	1.443394E-17
2.995847E+03	5.825762E-16	1.424725E-17
3.005735E+03	5.757139E-16	1.406108E-17
3.015622E+03	5.688634E-16	1.387555E-17
3.025509E+03	5.619931E-16	1.368989E-17
3.035396E+03	5.551870E-16	1.350617E-17
3.045284E+03	5.483730E-16	1.332262E-17
3.055171E+03	5.416476E-16	1.314158E-17
3.065058E+03	5.349425E-16	1.296140E-17
3.074946E+03	5.283283E-16	1.278379E-17
3.084833E+03	5.218052E-16	1.260873E-17
3.094720E+03	5.153419E-16	1.243548E-17
3.104607E+03	5.089413E-16	1.226411E-17
3.114495E+03	5.026365E-16	1.209539E-17
3.124382E+03	4.964287E-16	1.192936E-17
3.134269E+03	4.903188E-16	1.176602E-17
3.144157E+03	4.843082E-16	1.160541E-17
3.154044E+03	4.783980E-16	1.144755E-17
3.163931E+03	4.725896E-16	1.129245E-17
3.173818E+03	4.669106E-16	1.114078E-17
3.183706E+03	4.613348E-16	1.099189E-17
3.193593E+03	4.559136E-16	1.084700E-17
3.203480E+03	4.505956E-16	1.070487E-17
3.213368E+03	4.454302E-16	1.056667E-17
3.223255E+03	4.403676E-16	1.043121E-17
3.233142E+03	4.354780E-16	1.030014E-17
3.243029E+03	4.307122E-16	1.017227E-17
3.252917E+03	4.260912E-16	1.004810E-17
3.262804E+03	4.216126E-16	9.927553E-18
3.272691E+03	4.172944E-16	9.811036E-18
3.282579E+03	4.131118E-16	9.697957E-18
3.292466E+03	4.090818E-16	9.588701E-18
3.302353E+03	4.052194E-16	9.483605E-18
3.312240E+03	4.014995E-16	9.382060E-18
3.322128E+03	3.979355E-16	9.284372E-18
3.332015E+03	3.945212E-16	9.190379E-18
3.341902E+03	3.912678E-16	9.100327E-18
3.351790E+03	3.881670E-16	9.014007E-18
3.361677E+03	3.852104E-16	8.931206E-18
3.371564E+03	3.824058E-16	8.852094E-18
3.381451E+03	3.797427E-16	8.776411E-18
3.391339E+03	3.772263E-16	8.704266E-18
3.401226E+03	3.748440E-16	8.635348E-18
3.411113E+03	3.725982E-16	8.569700E-18
3.421001E+03	3.704893E-16	8.507321E-18
3.430888E+03	3.685014E-16	8.447829E-18
3.440775E+03	3.666326E-16	8.391167E-18
3.450662E+03	3.648650E-16	8.336916E-18
3.460550E+03	3.632087E-16	8.285295E-18
3.470437E+03	3.616437E-16	8.235836E-18
3.480324E+03	3.601629E-16	8.188367E-18
3.490212E+03	3.587449E-16	8.142397E-18
3.500099E+03	3.573811E-16	8.097722E-18
3.509986E+03	3.560364E-16	8.053544E-18
3.519873E+03	3.547020E-16	8.009662E-18
3.529761E+03	3.533326E-16	7.965056E-18
3.539648E+03	3.519105E-16	7.919331E-18
3.549535E+03	3.504092E-16	7.871898E-18
3.559423E+03	3.488291E-16	7.822780E-18
3.569310E+03	3.471300E-16	7.771083E-18
3.579197E+03	3.453341E-16	7.717320E-18
3.589084E+03	3.434147E-16	7.660908E-18
3.598972E+03	3.413966E-16	7.602412E-18
3.608859E+03	3.392808E-16	7.541874E-18
3.618746E+03	3.370987E-16	7.479996E-18
3.628634E+03	3.348803E-16	7.417454E-18
3.638521E+03	3.326838E-16	7.355540E-18
3.648408E+03	3.305379E-16	7.294888E-18
3.658295E+03	3.285168E-16	7.237127E-18
3.668183E+03	3.266822E-16	7.183597E-18
3.678070E+03	3.251001E-16	7.135730E-18
3.687957E+03	3.238484E-16	7.095199E-18
3.697845E+03	3.230052E-16	7.063672E-18
3.707732E+03	3.226397E-16	7.042618E-18
3.717619E+03	3.228203E-16	7.033461E-18
3.727506E+03	3.236203E-16	7.037736E-18
3.737394E+03	3.251177E-16	7.057056E-18
3.747281E+03	3.273563E-16	7.092289E-18
3.757168E+03	3.304070E-16	7.144874E-18
3.767056E+03	3.343285E-16	7.215981E-18
3.776943E+03	3.391667E-16	7.306490E-18
3.786830E+03	3.449683E-16	7.417292E-18
3.796717E+03	3.517646E-16	7.548942E-18
3.806605E+03	3.595850E-16	7.701943E-18
3.816492E+03	3.684399E-16	7.876392E-18
3.826379E+03	3.783415E-16	8.072420E-18
3.836267E+03	3.892630E-16	8.289324E-18
3.846154E+03	4.011828E-16	8.526519E-18
3.856041E+03	4.140448E-16	8.782689E-18
3.865928E+03	4.277817E-16	9.056291E-18
3.875816E+03	4.422984E-16	9.345207E-18
3.885703E+03	4.574880E-16	9.647082E-18
3.895590E+03	4.732148E-16	9.958975E-18
3.905478E+03	4.893399E-16	1.027790E-17
3.915365E+03	5.056788E-16	1.059995E-17
3.925252E+03	5.220646E-16	1.092159E-17
3.935139E+03	5.382687E-16	1.123805E-17
3.945027E+03	5.540878E-16	1.154512E-17
3.954914E+03	5.692938E-16	1.183809E-17
3.964801E+03	5.836683E-16	1.211252E-17
3.974689E+03	5.970024E-16	1.236419E-17
3.984576E+03	6.091062E-16	1.258930E-17
3.994463E+03	6.197980E-16	1.278426E-17
4.004350E+03	6.289630E-16	1.294689E-17
4.014238E+03	6.365082E-16	1.307546E-17
4.024125E+03	6.423955E-16	1.316942E-17
4.034012E+03	6.466190E-16	1.322883E-17
4.043900E+03	6.492288E-16	1.325495E-17
4.053787E+03	6.502734E-16	1.324896E-17
4.063674E+03	6.498547E-16	1.321314E-17
4.073561E+03	6.480711E-16	1.314967E-17
4.083449E+03	6.450337E-16	1.306097E-17
4.093336E+03	6.408815E-16	1.295001E-17
4.103223E+03	6.357499E-16	1.281966E-17
4.113111E+03	6.297593E-16	1.267248E-17
4.122998E+03	6.230499E-16	1.251139E-17
4.132885E+03	6.157683E-16	1.233941E-17
4.142772E+03	6.080401E-16	1.215913E-17
4.152660E+03	5.999918E-16	1.197314E-17
4.162547E+03	5.917382E-16	1.178376E-17
4.172434E+03	5.833735E-16	1.159289E-17
4.182322E+03	5.749950E-16	1.140248E-17
4.192209E+03	5.666794E-16	1.121404E-17
4.202096E+03	5.584851E-16	1.102873E-17
4.211983E+03	5.504702E-16	1.084767E-17
4.221871E+03	5.426953E-16	1.067203E-17
4.231758E+03	5.352178E-16	1.050291E-17
4.241645E+03	5.280822E-16	1.034115E-17
4.251533E+03	5.213447E-16	1.018780E-17
4.261420E+03	5.150883E-16	1.004444E-17
4.271307E+03	5.093678E-16	9.912062E-18
4.281194E+03	5.042772E-16	9.792438E-18
4.291082E+03	4.998939E-16	9.686991E-18
4.300969E+03	4.963088E-16	9.597388E-18
4.310856E+03	4.935956E-16	9.524962E-18
4.320744E+03	4.918428E-16	9.471309E-18
4.330631E+03	4.911115E-16	9.437488E-18
4.340518E+03	4.914722E-16	9.424734E-18
4.350405E+03	4.929802E-16	9.433975E-18
4.360293E+03	4.956750E-16	9.465831E-18
4.370180E+03	4.995870E-16	9.520743E-18
4.380067E+03	5.047442E-16	9.599106E-18
4.389955E+03	5.111431E-16	9.700709E-18
4.399842E+03	5.187879E-16	9.825492E-18
4.409729E+03	5.276792E-16	9.973327E-18
4.419616E+03	5.378141E-16	1.014402E-17
4.429504E+03	5.491710E-16	1.033703E-17
4.439391E+03	5.617341E-16	1.055193E-17
4.449278E+03	5.754685E-16	1.078793E-17
4.459166E+03	5.903220E-16	1.104394E-17
4.469053E+03	6.062330E-16	1.131869E-17
4.478940E+03	6.230752E-16	1.160973E-17
4.488827E+03	6.407321E-16	1.191479E-17
4.498715E+03	6.590132E-16	1.223026E-17
4.508602E+03	6.777170E-16	1.255236E-17
4.518489E+03	6.965773E-16	1.287615E-17
4.528377E+03	7.152964E-16	1.319612E-17
4.538264E+03	7.335385E-16	1.350613E-17
4.548151E+03	7.509437E-16	1.379964E-17
4.558038E+03	7.671216E-16	1.406959E-17
4.567926E+03	7.816605E-16	1.430861E-17
4.577813E+03	7.941765E-16	1.450986E-17
4.587700E+03	8.042794E-16	1.466646E-17
4.597588E+03	8.116253E-16	1.477241E-17
4.607475E+03	8.159372E-16	1.482299E-17
4.617362E+03	8.170072E-16	1.481474E-17
4.627249E+03	8.147347E-16	1.474618E-17
4.637137E+03	8.090898E-16	1.461711E-17
4.647024E+03	8.001722E-16	1.442965E-17
4.656911E+03	7.881703E-16	1.418754E-17
4.666798E+03	7.733625E-16	1.389605E-17
4.676686E+03	7.561232E-16	1.356217E-17
4.686573E+03	7.368645E-16	1.319350E-17
4.696460E+03	7.160934E-16	1.279928E-17
4.706348E+03	6.943602E-16	1.238944E-17
4.716235E+03	6.723426E-16	1.197613E-17
4.726122E+03	6.506935E-16	1.157096E-17
4.736009E+03	6.300421E-16	1.118505E-17
4.745897E+03	6.109185E-16	1.082769E-17
4.755784E+03	5.937897E-16	1.050699E-17
4.765671E+03	5.790334E-16	1.022943E-17
4.775559E+03	5.669688E-16	1.000041E-17
4.785446E+03	5.578375E-16	9.823949E-18
4.795333E+03	5.518345E-16	9.703222E-18
4.805220E+03	5.490916E-16	9.640277E-18
4.815108E+03	5.496969E-16	9.636393E-18
4.824995E+03	5.536921E-16	9.692033E-18
4.834882E+03	5.610440E-16	9.806356E-18
4.844770E+03	5.716724E-16	9.977713E-18
4.854657E+03	5.853845E-16	1.020251E-17
4.864544E+03	6.019101E-16	1.047582E-17
4.874431E+03	6.208549E-16	1.079061E-17
4.884319E+03	6.416869E-16	1.113749E-17
4.894206E+03	6.637675E-16	1.150527E-17
4.904093E+03	6.863451E-16	1.188090E-17
4.913981E+03	7.085771E-16	1.224978E-17
4.923868E+03	7.295644E-16	1.259645E-17
4.933755E+03	7.484717E-16	1.290660E-17
4.943642E+03	7.645322E-16	1.316718E-17
4.953530E+03	7.771609E-16	1.336833E-17
4.963417E+03	7.860122E-16	1.350435E-17
4.973304E+03	7.909722E-16	1.357351E-17
4.983192E+03	7.922059E-16	1.357889E-17
4.993079E+03	7.900994E-16	1.352732E-17
5.002966E+03	7.851860E-16	1.342812E-17
5.012853E+03	7.781251E-16	1.329270E-17
5.022741E+03	7.696044E-16	1.313291E-17
5.032628E+03	7.602684E-16	1.295982E-17
5.042515E+03	7.507043E-16	1.278344E-17
5.052403E+03	7.414202E-16	1.261243E-17
5.062290E+03	7.328133E-16	1.245351E-17
5.072177E+03	7.251934E-16	1.231190E-17
5.082064E+03	7.187865E-16	1.219137E-17
5.091952E+03	7.137205E-16	1.209401E-17
5.101839E+03	7.100747E-16	1.202111E-17
5.111726E+03	7.078714E-16	1.197297E-17
5.121614E+03	7.071201E-16	1.194968E-17
5.131501E+03	7.077991E-16	1.195080E-17
5.141388E+03	7.098903E-16	1.197598E-17
5.151275E+03	7.133534E-16	1.202446E-17
5.161163E+03	7.181559E-16	1.209566E-17
5.171050E+03	7.242402E-16	1.218854E-17
5.180937E+03	7.315406E-16	1.230196E-17
5.190825E+03	7.399779E-16	1.243455E-17
5.200712E+03	7.494676E-16	1.258486E-17
5.210599E+03	7.598966E-16	1.275096E-17
5.220486E+03	7.711498E-16	1.293089E-17
5.230374E+03	7.831067E-16	1.312262E-17
5.240261E+03	7.956468E-16	1.332412E-17
5.250148E+03	8.086528E-16	1.353342E-17
5.260036E+03	8.220157E-16	1.374869E-17
5.269923E+03	8.356311E-16	1.396820E-17
5.279810E+03	8.494258E-16	1.419073E-17
5.289697E+03	8.633298E-16	1.441511E-17
5.299585E+03	8.773170E-16	1.464093E-17
5.309472E+03	8.913680E-16	1.486786E-17
5.319359E+03	9.054880E-16	1.509602E-17
5.329247E+03	9.197415E-16	1.532649E-17
5.339134E+03	9.341859E-16	1.556024E-17
5.349021E+03	9.488920E-16	1.579844E-17
5.358908E+03	9.639484E-16	1.604259E-17
5.368796E+03	9.794036E-16	1.629349E-17
5.378683E+03	9.952583E-16	1.655116E-17
5.388570E+03	1.011352E-15	1.681294E-17
5.398458E+03	1.027445E-15	1.707482E-17
5.408345E+03	1.043134E-15	1.733014E-17
5.418232E+03	1.057840E-15	1.756931E-17
5.428119E+03	1.070878E-15	1.778096E-17
5.438007E+03	1.081452E-15	1.795191E-17
5.447894E+03	1.088753E-15	1.806877E-17
5.457781E+03	1.091959E-15	1.811794E-17
5.467669E+03	1.090367E-15	1.808781E-17
5.477556E+03	1.083462E-15	1.796987E-17
5.487443E+03	1.070966E-15	1.775958E-17
5.497330E+03	1.052841E-15	1.745630E-17
5.507218E+03	1.029341E-15	1.706430E-17
5.517105E+03	1.000952E-15	1.659162E-17
5.526992E+03	9.683845E-16	1.605007E-17
5.536880E+03	9.325007E-16	1.545391E-17
5.546767E+03	8.942823E-16	1.481941E-17
5.556654E+03	8.547457E-16	1.416338E-17
5.566541E+03	8.149622E-16	1.350354E-17
5.576429E+03	7.759518E-16	1.285676E-17
5.586316E+03	7.386686E-16	1.223882E-17
5.596203E+03	7.039739E-16	1.166395E-17
5.606091E+03	6.726318E-16	1.114480E-17
5.615978E+03	6.452844E-16	1.069197E-17
5.625865E+03	6.224430E-16	1.031393E-17
5.635752E+03	6.045454E-16	1.001792E-17
5.645640E+03	5.919243E-16	9.809452E-18
5.655527E+03	5.848260E-16	9.692620E-18
5.665414E+03	5.834484E-16	9.670720E-18
5.675302E+03	5.879078E-16	9.745705E-18
5.685189E+03	5.982326E-16	9.918078E-18
5.695076E+03	6.143416E-16	1.018654E-17
5.704963E+03	6.359946E-16	1.054714E-17
5.714851E+03	6.627758E-16	1.099306E-17
5.724738E+03	6.940425E-16	1.151368E-17
5.734625E+03	7.289275E-16	1.209467E-17
5.744513E+03	7.663595E-16	1.271831E-17
5.754400E+03	8.051148E-16	1.336433E-17
5.764287E+03	8.438735E-16	1.401086E-17
5.774174E+03	8.813939E-16	1.463730E-17
5.784062E+03	9.165177E-16	1.522441E-17
5.793949E+03	9.482599E-16	1.575583E-17
5.803836E+03	9.758790E-16	1.621920E-17
5.813724E+03	9.988296E-16	1.660542E-17
5.823611E+03	1.016838E-15	1.690987E-17
5.833498E+03	1.029811E-15	1.713096E-17
5.843385E+03	1.037902E-15	1.727115E-17
5.853273E+03	1.041391E-15	1.733504E-17
5.863160E+03	1.040739E-15	1.733023E-17
5.873047E+03	1.036495E-15	1.726577E-17
5.882935E+03	1.029265E-15	1.715173E-17
5.892822E+03	1.019665E-15	1.699827E-17
5.902709E+03	1.008304E-15	1.681556E-17
5.912596E+03	9.957437E-16	1.661288E-17
5.922484E+03	9.824848E-16	1.639857E-17
5.932371E+03	9.689195E-16	1.617915E-17
5.942258E+03	9.553900E-16	1.596034E-17
5.952146E+03	9.421529E-16	1.574640E-17
5.962033E+03	9.293898E-16	1.554038E-17
5.971920E+03	9.172439E-16	1.534468E-17
5.981807E+03	9.057900E-16	1.516055E-17
5.991695E+03	8.950958E-16	1.498914E-17
6.001582E+03	8.852038E-16	1.483118E-17
6.011469E+03	8.761126E-16	1.468665E-17
6.021357E+03	8.678404E-16	1.455589E-17
6.031244E+03	8.603927E-16	1.443899E-17
6.041131E+03	8.537838E-16	1.433623E-17
6.051018E+03	8.480089E-16	1.424754E-17
6.060906E+03	8.430769E-16	1.417309E-17
6.070793E+03	8.389740E-16	1.411267E-17
6.080680E+03	8.356776E-16	1.406593E-17
6.090568E+03	8.331107E-16	1.403159E-17
6.100455E+03	8.311206E-16	1.400711E-17
6.110342E+03	8.295143E-16	1.398924E-17
6.120229E+03	8.280516E-16	1.397395E-17
6.130117E+03	8.264090E-16	1.395579E-17
6.140004E+03	8.242781E-16	1.392952E-17
6.149891E+03	8.213608E-16	1.389010E-17
6.159779E+03	8.174256E-16	1.383356E-17
6.169666E+03	8.123353E-16	1.375754E-17
6.179553E+03	8.060494E-16	1.366130E-17
6.189440E+03	7.985967E-16	1.354529E-17
6.199328E+03	7.901347E-16	1.341211E-17
6.209215E+03	7.808842E-16	1.326547E-17
6.219102E+03	7.711336E-16	1.311023E-17
6.228990E+03	7.611605E-16	1.295109E-17
6.238877E+03	7.512311E-16	1.279257E-17
6.248764E+03	7.415437E-16	1.263803E-17
6.258651E+03	7.322459E-16	1.248999E-17
6.268539E+03	7.234318E-16	1.235007E-17
6.278426E+03	7.151144E-16	1.221851E-17
6.288313E+03	7.072924E-16	1.209530E-17
6.298201E+03	6.998939E-16	1.197922E-17
6.308088E+03	6.928383E-16	1.186890E-17
6.317975E+03	6.860264E-16	1.176265E-17
6.327862E+03	6.793739E-16	1.165904E-17
6.337750E+03	6.728028E-16	1.155672E-17
6.347637E+03	6.662913E-16	1.145532E-17
6.357524E+03	6.598249E-16	1.135458E-17
6.367412E+03	6.534873E-16	1.125595E-17
6.377299E+03	6.473839E-16	1.116124E-17
6.387186E+03	6.416947E-16	1.107357E-17
6.397073E+03	6.366479E-16	1.099689E-17
6.406961E+03	6.325081E-16	1.093581E-17
6.416848E+03	6.295463E-16	1.089505E-17
6.426735E+03	6.280357E-16	1.087941E-17
6.436623E+03	6.282042E-16	1.089291E-17
6.446510E+03	6.302270E-16	1.093867E-17
6.456397E+03	6.342069E-16	1.101858E-17
6.466284E+03	6.401770E-16	1.113330E-17
6.476172E+03	6.480911E-16	1.128214E-17
6.486059E+03	6.578419E-16	1.146333E-17
6.495946E+03	6.692355E-16	1.167358E-17
6.505833E+03	6.820089E-16	1.190839E-17
6.515721E+03	6.958259E-16	1.216196E-17
6.525608E+03	7.103144E-16	1.242783E-17
6.535495E+03	7.250483E-16	1.269859E-17
6.545383E+03	7.396050E-16	1.296684E-17
6.555270E+03	7.535791E-16	1.322546E-17
6.565157E+03	7.665770E-16	1.346750E-17
6.575044E+03	7.782423E-16	1.368665E-17
6.584932E+03	7.882733E-16	1.387752E-17
6.594819E+03	7.963898E-16	1.403509E-17
6.604706E+03	8.024128E-16	1.415610E-17
6.614594E+03	8.062069E-16	1.423803E-17
6.624481E+03	8.077033E-16	1.427955E-17
6.634368E+03	8.068901E-16	1.428031E-17
6.644255E+03	8.038329E-16	1.424136E-17
6.654143E+03	7.986245E-16	1.416420E-17
6.664030E+03	7.913812E-16	1.405077E-17
6.673917E+03	7.822458E-16	1.390351E-17
6.683805E+03	7.714024E-16	1.372557E-17
6.693692E+03	7.590398E-16	1.352021E-17
6.703579E+03	7.454220E-16	1.329205E-17
6.713466E+03	7.308090E-16	1.304566E-17
6.723354E+03	7.155458E-16	1.278713E-17
6.733241E+03	6.999909E-16	1.252285E-17
6.743128E+03	6.845163E-16	1.225945E-17
6.753016E+03	6.695712E-16	1.200499E-17
6.762903E+03	6.556013E-16	1.176749E-17
6.772790E+03	6.430902E-16	1.155571E-17
6.782677E+03	6.325153E-16	1.137831E-17
6.792565E+03	6.243469E-16	1.124388E-17
6.802452E+03	6.190045E-16	1.116012E-17
6.812339E+03	6.168366E-16	1.113349E-17
6.822227E+03	6.180899E-16	1.116864E-17
6.832114E+03	6.229145E-16	1.126850E-17
6.842001E+03	6.313162E-16	1.143339E-17
6.851888E+03	6.431668E-16	1.166121E-17
6.861776E+03	6.581506E-16	1.194645E-17
6.871663E+03	6.757993E-16	1.228079E-17
6.881550E+03	6.954289E-16	1.265196E-17
6.891438E+03	7.161979E-16	1.304476E-17
6.901325E+03	7.371466E-16	1.344177E-17
6.911212E+03	7.572236E-16	1.382382E-17
6.921099E+03	7.754481E-16	1.417293E-17
6.930987E+03	7.909700E-16	1.447343E-17
6.940874E+03	8.031537E-16	1.471351E-17
6.950761E+03	8.116325E-16	1.488625E-17
6.960649E+03	8.163269E-16	1.498993E-17
6.970536E+03	8.174700E-16	1.502862E-17
6.980423E+03	8.154776E-16	1.500973E-17
6.990310E+03	8.109848E-16	1.494476E-17
7.000198E+03	8.047072E-16	1.484675E-17
7.010085E+03	7.974155E-16	1.472983E-17
7.019972E+03	7.898265E-16	1.460717E-17
7.029860E+03	7.826034E-16	1.449104E-17
7.039747E+03	7.762820E-16	1.439140E-17
7.049634E+03	7.712370E-16	1.431526E-17
7.059521E+03	7.677703E-16	1.426831E-17
7.069409E+03	7.659880E-16	1.425265E-17
7.079296E+03	7.659434E-16	1.426937E-17
7.089183E+03	7.675536E-16	1.431706E-17
7.099071E+03	7.707166E-16	1.439393E-17
7.108958E+03	7.752377E-16	1.449644E-17
7.118845E+03	7.808978E-16	1.462060E-17
7.128732E+03	7.874673E-16	1.476218E-17
7.138620E+03	7.946591E-16	1.491587E-17
7.148507E+03	8.022156E-16	1.507688E-17
7.158394E+03	8.098510E-16	1.523985E-17
7.168282E+03	8.173212E-16	1.540020E-17
7.178169E+03	8.243367E-16	1.555246E-17
7.188056E+03	8.306735E-16	1.569238E-17
7.197943E+03	8.360601E-16	1.581477E-17
7.207831E+03	8.403364E-16	1.591654E-17
7.217718E+03	8.433176E-16	1.599410E-17
7.227605E+03	8.449134E-16	1.604565E-17
7.237493E+03	8.450709E-16	1.607007E-17
7.247380E+03	8.438366E-16	1.606816E-17
7.257267E+03	8.412946E-16	1.604140E-17
7.267154E+03	8.376110E-16	1.599287E-17
7.277042E+03	8.329659E-16	1.592592E-17
7.286929E+03	8.275069E-16	1.584331E-17
7.296816E+03	8.214413E-16	1.574895E-17
7.306704E+03	8.148726E-16	1.564476E-17
7.316591E+03	8.079502E-16	1.553360E-17
7.326478E+03	8.007228E-16	1.541635E-17
7.336365E+03	7.932515E-16	1.529418E-17
7.346253E+03	7.855463E-16	1.516726E-17
7.356140E+03	7.776367E-16	1.503613E-17
7.366027E+03	7.694861E-16	1.490006E-17
7.375915E+03	7.610802E-16	1.475876E-17
7.385802E+03	7.524155E-16	1.461214E-17
7.395689E+03	7.434629E-16	1.445959E-17
7.405576E+03	7.342221E-16	1.430110E-17
7.415464E+03	7.246646E-16	1.413607E-17
7.425351E+03	7.148304E-16	1.396524E-17
7.435238E+03	7.047323E-16	1.378884E-17
7.445126E+03	6.944445E-16	1.360829E-17
7.455013E+03	6.840536E-16	1.342525E-17
7.464900E+03	6.736687E-16	1.324185E-17
7.474787E+03	6.634170E-16	1.306060E-17
7.484675E+03	6.534378E-16	1.288422E-17
7.494562E+03	6.439201E-16	1.271649E-17
7.504449E+03	6.350533E-16	1.256116E-17
7.514337E+03	6.270268E-16	1.242206E-17
7.524224E+03	6.200224E-16	1.230286E-17
7.534111E+03	6.141954E-16	1.220672E-17
7.543998E+03	6.097000E-16	1.213685E-17
7.553886E+03	6.066497E-16	1.209560E-17
7.563773E+03	6.051155E-16	1.208455E-17
7.573660E+03	6.051650E-16	1.210517E-17
7.583548E+03	6.067800E-16	1.215727E-17
7.593435E+03	6.099308E-16	1.224040E-17
7.603322E+03	6.145168E-16	1.235268E-17
7.613209E+03	6.204139E-16	1.249176E-17
7.623097E+03	6.273990E-16	1.265326E-17
7.632984E+03	6.352300E-16	1.283241E-17
7.642871E+03	6.436041E-16	1.302317E-17
7.652759E+03	6.521716E-16	1.321849E-17
7.662646E+03	6.605929E-16	1.341152E-17
7.672533E+03	6.685279E-16	1.359531E-17
