#wls	flux	fluxerr
1.581966E+03	5.983639E-16	1.654138E-17
1.621515E+03	6.144750E-16	1.697064E-17
1.661064E+03	6.299041E-16	1.737982E-17
1.700613E+03	6.446108E-16	1.776781E-17
1.740162E+03	6.586474E-16	1.813606E-17
1.779711E+03	6.716811E-16	1.847544E-17
1.819260E+03	6.836040E-16	1.878304E-17
1.858810E+03	6.940485E-16	1.904883E-17
1.898359E+03	7.027053E-16	1.926442E-17
1.937908E+03	7.092687E-16	1.942159E-17
1.977457E+03	7.136632E-16	1.951845E-17
2.017006E+03	7.160654E-16	1.956000E-17
2.056555E+03	7.174165E-16	1.957212E-17
2.096104E+03	7.194690E-16	1.960265E-17
2.135654E+03	7.243011E-16	1.970803E-17
2.175203E+03	7.334246E-16	1.992903E-17
2.214752E+03	7.468970E-16	2.026669E-17
2.254301E+03	7.634636E-16	2.068647E-17
2.293850E+03	7.811010E-16	2.113320E-17
2.333399E+03	7.980899E-16	2.156025E-17
2.372948E+03	8.131425E-16	2.193291E-17
2.412498E+03	8.254541E-16	2.222967E-17
2.452047E+03	8.346407E-16	2.244054E-17
2.491596E+03	8.404999E-16	2.256043E-17
2.531145E+03	8.426730E-16	2.258016E-17
2.570694E+03	8.412190E-16	2.250179E-17
2.610243E+03	8.360682E-16	2.232396E-17
2.649792E+03	8.272086E-16	2.204689E-17
2.689342E+03	8.148995E-16	2.167804E-17
2.728891E+03	7.990891E-16	2.121658E-17
2.768440E+03	7.801436E-16	2.067278E-17
2.807989E+03	7.582250E-16	2.005149E-17
2.847538E+03	7.335885E-16	1.935997E-17
2.887087E+03	7.066267E-16	1.860909E-17
2.926636E+03	6.778387E-16	1.781243E-17
2.966185E+03	6.477966E-16	1.698539E-17
2.976073E+03	6.401529E-16	1.677557E-17
2.985960E+03	6.324794E-16	1.656515E-17
2.995847E+03	6.248228E-16	1.635535E-17
3.005735E+03	6.171492E-16	1.614528E-17
3.015622E+03	6.094661E-16	1.593515E-17
3.025509E+03	6.017806E-16	1.572514E-17
3.035396E+03	5.941398E-16	1.551649E-17
3.045284E+03	5.865438E-16	1.530919E-17
3.055171E+03	5.789840E-16	1.510303E-17
3.065058E+03	5.714971E-16	1.489895E-17
3.074946E+03	5.640845E-16	1.469700E-17
3.084833E+03	5.567478E-16	1.449721E-17
3.094720E+03	5.494892E-16	1.429964E-17
3.104607E+03	5.423413E-16	1.410513E-17
3.114495E+03	5.352746E-16	1.391291E-17
3.124382E+03	5.282919E-16	1.372306E-17
3.134269E+03	5.214243E-16	1.353639E-17
3.144157E+03	5.146726E-16	1.335289E-17
3.154044E+03	5.080646E-16	1.317330E-17
3.163931E+03	5.015470E-16	1.299622E-17
3.173818E+03	4.951740E-16	1.282307E-17
3.183706E+03	4.889201E-16	1.265316E-17
3.193593E+03	4.828105E-16	1.248715E-17
3.203480E+03	4.768448E-16	1.232502E-17
3.213368E+03	4.710223E-16	1.216676E-17
3.223255E+03	4.653649E-16	1.201291E-17
3.233142E+03	4.598481E-16	1.186284E-17
3.243029E+03	4.544929E-16	1.171708E-17
3.252917E+03	4.492967E-16	1.157557E-17
3.262804E+03	4.442776E-16	1.143875E-17
3.272691E+03	4.394115E-16	1.130601E-17
3.282579E+03	4.347154E-16	1.117777E-17
3.292466E+03	4.301851E-16	1.105392E-17
3.302353E+03	4.258349E-16	1.093482E-17
3.312240E+03	4.216408E-16	1.081983E-17
3.322128E+03	4.176339E-16	1.070977E-17
3.332015E+03	4.137896E-16	1.060397E-17
3.341902E+03	4.101187E-16	1.050272E-17
3.351790E+03	4.066135E-16	1.040581E-17
3.361677E+03	4.032827E-16	1.031344E-17
3.371564E+03	4.001168E-16	1.022538E-17
3.381451E+03	3.971064E-16	1.014137E-17
3.391339E+03	3.942570E-16	1.006155E-17
3.401226E+03	3.915719E-16	9.985988E-18
3.411113E+03	3.890236E-16	9.913977E-18
3.421001E+03	3.866276E-16	9.845911E-18
3.430888E+03	3.843547E-16	9.781032E-18
3.440775E+03	3.822167E-16	9.719637E-18
3.450662E+03	3.802093E-16	9.661609E-18
3.460550E+03	3.782867E-16	9.605780E-18
3.470437E+03	3.764692E-16	9.552659E-18
3.480324E+03	3.747231E-16	9.501388E-18
3.490212E+03	3.730398E-16	9.451742E-18
3.500099E+03	3.713850E-16	9.402856E-18
3.509986E+03	3.697609E-16	9.354776E-18
3.519873E+03	3.681097E-16	9.306045E-18
3.529761E+03	3.664114E-16	9.256159E-18
3.539648E+03	3.646582E-16	9.204924E-18
3.549535E+03	3.628015E-16	9.151119E-18
3.559423E+03	3.608410E-16	9.094738E-18
3.569310E+03	3.587490E-16	9.035094E-18
3.579197E+03	3.565354E-16	8.972444E-18
3.589084E+03	3.541860E-16	8.906440E-18
3.598972E+03	3.517053E-16	8.837199E-18
3.608859E+03	3.491158E-16	8.765299E-18
3.618746E+03	3.464490E-16	8.691532E-18
3.628634E+03	3.437284E-16	8.616497E-18
3.638521E+03	3.410072E-16	8.541530E-18
3.648408E+03	3.383397E-16	8.467988E-18
3.658295E+03	3.357965E-16	8.397635E-18
3.668183E+03	3.334461E-16	8.332179E-18
3.678070E+03	3.313702E-16	8.273644E-18
3.687957E+03	3.296516E-16	8.224083E-18
3.697845E+03	3.283588E-16	8.185182E-18
3.707732E+03	3.275750E-16	8.158986E-18
3.717619E+03	3.273813E-16	8.147485E-18
3.727506E+03	3.278630E-16	8.152761E-18
3.737394E+03	3.290739E-16	8.176112E-18
3.747281E+03	3.310926E-16	8.219443E-18
3.757168E+03	3.339786E-16	8.284180E-18
3.767056E+03	3.378012E-16	8.371987E-18
3.776943E+03	3.426042E-16	8.483886E-18
3.786830E+03	3.484457E-16	8.621258E-18
3.796717E+03	3.553629E-16	8.784953E-18
3.806605E+03	3.633828E-16	8.975568E-18
3.816492E+03	3.725317E-16	9.193681E-18
3.826379E+03	3.828071E-16	9.439161E-18
3.836267E+03	3.941899E-16	9.711458E-18
3.846154E+03	4.066563E-16	1.000992E-17
3.856041E+03	4.201488E-16	1.033305E-17
3.865928E+03	4.345895E-16	1.067888E-17
3.875816E+03	4.498955E-16	1.104531E-17
3.885703E+03	4.659468E-16	1.142932E-17
3.895590E+03	4.826001E-16	1.182737E-17
3.905478E+03	4.997048E-16	1.223571E-17
3.915365E+03	5.170704E-16	1.264966E-17
3.925252E+03	5.344948E-16	1.306425E-17
3.935139E+03	5.517494E-16	1.347390E-17
3.945027E+03	5.686015E-16	1.387294E-17
3.954914E+03	5.848103E-16	1.425552E-17
3.964801E+03	6.001345E-16	1.461580E-17
3.974689E+03	6.143225E-16	1.494772E-17
3.984576E+03	6.271792E-16	1.524661E-17
3.994463E+03	6.385026E-16	1.550765E-17
4.004350E+03	6.481506E-16	1.572749E-17
4.014238E+03	6.560321E-16	1.590403E-17
4.024125E+03	6.621148E-16	1.603662E-17
4.034012E+03	6.664077E-16	1.612558E-17
4.043900E+03	6.689687E-16	1.617244E-17
4.053787E+03	6.698846E-16	1.617942E-17
4.063674E+03	6.692450E-16	1.614878E-17
4.073561E+03	6.671939E-16	1.608410E-17
4.083449E+03	6.638586E-16	1.598856E-17
4.093336E+03	6.593746E-16	1.586549E-17
4.103223E+03	6.538911E-16	1.571856E-17
4.113111E+03	6.475505E-16	1.555127E-17
4.122998E+03	6.405116E-16	1.536748E-17
4.132885E+03	6.329192E-16	1.517072E-17
4.142772E+03	6.248942E-16	1.496391E-17
4.152660E+03	6.165731E-16	1.475036E-17
4.162547E+03	6.080633E-16	1.453266E-17
4.172434E+03	5.994747E-16	1.431344E-17
4.182322E+03	5.908790E-16	1.409443E-17
4.192209E+03	5.823666E-16	1.387777E-17
4.202096E+03	5.739849E-16	1.366460E-17
4.211983E+03	5.658026E-16	1.345654E-17
4.221871E+03	5.578527E-16	1.325436E-17
4.231758E+03	5.501882E-16	1.305930E-17
4.241645E+03	5.428631E-16	1.287263E-17
4.251533E+03	5.359259E-16	1.269547E-17
4.261420E+03	5.294572E-16	1.252971E-17
4.271307E+03	5.235206E-16	1.237681E-17
4.281194E+03	5.182264E-16	1.223934E-17
4.291082E+03	5.136505E-16	1.211906E-17
4.300969E+03	5.098955E-16	1.201832E-17
4.310856E+03	5.070578E-16	1.193935E-17
4.320744E+03	5.052185E-16	1.188397E-17
4.330631E+03	5.044489E-16	1.185381E-17
4.340518E+03	5.048157E-16	1.185035E-17
4.350405E+03	5.063801E-16	1.187493E-17
4.360293E+03	5.091746E-16	1.192825E-17
4.370180E+03	5.132336E-16	1.201100E-17
4.380067E+03	5.185704E-16	1.212343E-17
4.389955E+03	5.251914E-16	1.226557E-17
4.399842E+03	5.330988E-16	1.243740E-17
4.409729E+03	5.422937E-16	1.263884E-17
4.419616E+03	5.527752E-16	1.286977E-17
4.429504E+03	5.645327E-16	1.312987E-17
4.439391E+03	5.775571E-16	1.341883E-17
4.449278E+03	5.918218E-16	1.373593E-17
4.459166E+03	6.072955E-16	1.408036E-17
4.469053E+03	6.239072E-16	1.445039E-17
4.478940E+03	6.415473E-16	1.484341E-17
4.488827E+03	6.600922E-16	1.525647E-17
4.498715E+03	6.793631E-16	1.568539E-17
4.508602E+03	6.991378E-16	1.612498E-17
4.518489E+03	7.191478E-16	1.656904E-17
4.528377E+03	7.390864E-16	1.701047E-17
4.538264E+03	7.585862E-16	1.744084E-17
4.548151E+03	7.772671E-16	1.785146E-17
4.558038E+03	7.946855E-16	1.823221E-17
4.567926E+03	8.104134E-16	1.857336E-17
4.577813E+03	8.239926E-16	1.886456E-17
4.587700E+03	8.349889E-16	1.909603E-17
4.597588E+03	8.430050E-16	1.925889E-17
4.607475E+03	8.477184E-16	1.934600E-17
4.617362E+03	8.488888E-16	1.935211E-17
4.627249E+03	8.463802E-16	1.927440E-17
4.637137E+03	8.401616E-16	1.911242E-17
4.647024E+03	8.303576E-16	1.886928E-17
4.656911E+03	8.171693E-16	1.854980E-17
4.666798E+03	8.009254E-16	1.816169E-17
4.676686E+03	7.820281E-16	1.771427E-17
4.686573E+03	7.609772E-16	1.721905E-17
4.696460E+03	7.383552E-16	1.668936E-17
4.706348E+03	7.147948E-16	1.613959E-17
4.716235E+03	6.909815E-16	1.558526E-17
4.726122E+03	6.675990E-16	1.504181E-17
4.736009E+03	6.452828E-16	1.452351E-17
4.745897E+03	6.246212E-16	1.404349E-17
4.755784E+03	6.061151E-16	1.361290E-17
4.765671E+03	5.902033E-16	1.324142E-17
4.775559E+03	5.772263E-16	1.293650E-17
4.785446E+03	5.674815E-16	1.270458E-17
4.795333E+03	5.611741E-16	1.255002E-17
4.805220E+03	5.584594E-16	1.247604E-17
4.815108E+03	5.594485E-16	1.248487E-17
4.824995E+03	5.641857E-16	1.257723E-17
4.834882E+03	5.726702E-16	1.275284E-17
4.844770E+03	5.848201E-16	1.300961E-17
4.854657E+03	6.004530E-16	1.334324E-17
4.864544E+03	6.192653E-16	1.374673E-17
4.874431E+03	6.408360E-16	1.421054E-17
4.884319E+03	6.645876E-16	1.472168E-17
4.894206E+03	6.897855E-16	1.526374E-17
4.904093E+03	7.155479E-16	1.581714E-17
4.913981E+03	7.408630E-16	1.635950E-17
4.923868E+03	7.646741E-16	1.686755E-17
4.933755E+03	7.859283E-16	1.731818E-17
4.943642E+03	8.037024E-16	1.769128E-17
4.953530E+03	8.173073E-16	1.797192E-17
4.963417E+03	8.263177E-16	1.815106E-17
4.973304E+03	8.306527E-16	1.822723E-17
4.983192E+03	8.305838E-16	1.820673E-17
4.993079E+03	8.266353E-16	1.810132E-17
5.002966E+03	8.195642E-16	1.792784E-17
5.012853E+03	8.102138E-16	1.770492E-17
5.022741E+03	7.994447E-16	1.745151E-17
5.032628E+03	7.880316E-16	1.718459E-17
5.042515E+03	7.766205E-16	1.691829E-17
5.052403E+03	7.657471E-16	1.666425E-17
5.062290E+03	7.558343E-16	1.643164E-17
5.072177E+03	7.471700E-16	1.622663E-17
5.082064E+03	7.399707E-16	1.605386E-17
5.091952E+03	7.343388E-16	1.591542E-17
5.101839E+03	7.303156E-16	1.581212E-17
5.111726E+03	7.279022E-16	1.574388E-17
5.121614E+03	7.270767E-16	1.571011E-17
5.131501E+03	7.278047E-16	1.570997E-17
5.141388E+03	7.300524E-16	1.574262E-17
5.151275E+03	7.337615E-16	1.580673E-17
5.161163E+03	7.388899E-16	1.590128E-17
5.171050E+03	7.453769E-16	1.602488E-17
5.180937E+03	7.531468E-16	1.617583E-17
5.190825E+03	7.621000E-16	1.635191E-17
5.200712E+03	7.721370E-16	1.655091E-17
5.210599E+03	7.831373E-16	1.677019E-17
5.220486E+03	7.949624E-16	1.700673E-17
5.230374E+03	8.074780E-16	1.725761E-17
5.240261E+03	8.205610E-16	1.752017E-17
5.250148E+03	8.340710E-16	1.779138E-17
5.260036E+03	8.479128E-16	1.806919E-17
5.269923E+03	8.619756E-16	1.835123E-17
5.279810E+03	8.761942E-16	1.863611E-17
5.289697E+03	8.905150E-16	1.892269E-17
5.299585E+03	9.048989E-16	1.921012E-17
5.309472E+03	9.193423E-16	1.949835E-17
5.319359E+03	9.338733E-16	1.978797E-17
5.329247E+03	9.485629E-16	2.008049E-17
5.339134E+03	9.634791E-16	2.037734E-17
5.349021E+03	9.787385E-16	2.068097E-17
5.358908E+03	9.944381E-16	2.099343E-17
5.368796E+03	1.010666E-15	2.131655E-17
5.378683E+03	1.027427E-15	2.165041E-17
5.388570E+03	1.044630E-15	2.199305E-17
5.398458E+03	1.062047E-15	2.233968E-17
5.408345E+03	1.079284E-15	2.268203E-17
5.418232E+03	1.095759E-15	2.300784E-17
5.428119E+03	1.110711E-15	2.330124E-17
5.438007E+03	1.123290E-15	2.354448E-17
5.447894E+03	1.132533E-15	2.371755E-17
5.457781E+03	1.137509E-15	2.380112E-17
5.467669E+03	1.137413E-15	2.377864E-17
5.477556E+03	1.131600E-15	2.363689E-17
5.487443E+03	1.119667E-15	2.336777E-17
5.497330E+03	1.101544E-15	2.297013E-17
5.507218E+03	1.077441E-15	2.244867E-17
5.517105E+03	1.047837E-15	2.181366E-17
5.526992E+03	1.013505E-15	2.108148E-17
5.536880E+03	9.753623E-16	2.027141E-17
5.546767E+03	9.344888E-16	1.940606E-17
5.556654E+03	8.920340E-16	1.850940E-17
5.566541E+03	8.491751E-16	1.760590E-17
5.576429E+03	8.070579E-16	1.671930E-17
5.586316E+03	7.667649E-16	1.587197E-17
5.596203E+03	7.292714E-16	1.508396E-17
5.606091E+03	6.954178E-16	1.437250E-17
5.615978E+03	6.659177E-16	1.375212E-17
5.625865E+03	6.413510E-16	1.323458E-17
5.635752E+03	6.221617E-16	1.282879E-17
5.645640E+03	6.087146E-16	1.254200E-17
5.655527E+03	6.012951E-16	1.237981E-17
5.665414E+03	6.001256E-16	1.234652E-17
5.675302E+03	6.053923E-16	1.244566E-17
5.685189E+03	6.172105E-16	1.267932E-17
5.695076E+03	6.355928E-16	1.304746E-17
5.704963E+03	6.603768E-16	1.354647E-17
5.714851E+03	6.910945E-16	1.416647E-17
5.724738E+03	7.269495E-16	1.489091E-17
5.734625E+03	7.668341E-16	1.569692E-17
5.744513E+03	8.093487E-16	1.655570E-17
5.754400E+03	8.528789E-16	1.743416E-17
5.764287E+03	8.957890E-16	1.829887E-17
5.774174E+03	9.366443E-16	1.912058E-17
5.784062E+03	9.742483E-16	1.987499E-17
5.793949E+03	1.007656E-15	2.054299E-17
5.803836E+03	1.036180E-15	2.111077E-17
5.813724E+03	1.059368E-15	2.156931E-17
5.823611E+03	1.077026E-15	2.191490E-17
5.833498E+03	1.089170E-15	2.214809E-17
5.843385E+03	1.096028E-15	2.227373E-17
5.853273E+03	1.098019E-15	2.230052E-17
5.863160E+03	1.095673E-15	2.223941E-17
5.873047E+03	1.089631E-15	2.210360E-17
5.882935E+03	1.080603E-15	2.190755E-17
5.892822E+03	1.069282E-15	2.166546E-17
5.902709E+03	1.056348E-15	2.139117E-17
5.912596E+03	1.042422E-15	2.109728E-17
5.922484E+03	1.027988E-15	2.079362E-17
5.932371E+03	1.013469E-15	2.048874E-17
5.942258E+03	9.991818E-16	2.018906E-17
5.952146E+03	9.853590E-16	1.989925E-17
5.962033E+03	9.721523E-16	1.962236E-17
5.971920E+03	9.596745E-16	1.936062E-17
5.981807E+03	9.480111E-16	1.911575E-17
5.991695E+03	9.371829E-16	1.888814E-17
6.001582E+03	9.272326E-16	1.867860E-17
6.011469E+03	9.181411E-16	1.848673E-17
6.021357E+03	9.099047E-16	1.831243E-17
6.031244E+03	9.025294E-16	1.815579E-17
6.041131E+03	8.960139E-16	1.801676E-17
6.051018E+03	8.903809E-16	1.789577E-17
6.060906E+03	8.856336E-16	1.779286E-17
6.070793E+03	8.817774E-16	1.770812E-17
6.080680E+03	8.788094E-16	1.764145E-17
6.090568E+03	8.766528E-16	1.759131E-17
6.100455E+03	8.751679E-16	1.755488E-17
6.110342E+03	8.741268E-16	1.752756E-17
6.120229E+03	8.732184E-16	1.750312E-17
6.130117E+03	8.720638E-16	1.747395E-17
6.140004E+03	8.702261E-16	1.743132E-17
6.149891E+03	8.673062E-16	1.736725E-17
6.159779E+03	8.629445E-16	1.727455E-17
6.169666E+03	8.569363E-16	1.714915E-17
6.179553E+03	8.491984E-16	1.698941E-17
6.189440E+03	8.398862E-16	1.679845E-17
6.199328E+03	8.293056E-16	1.658242E-17
6.209215E+03	8.178318E-16	1.634882E-17
6.219102E+03	8.059151E-16	1.610666E-17
6.228990E+03	7.939276E-16	1.586337E-17
6.238877E+03	7.822272E-16	1.562610E-17
6.248764E+03	7.710281E-16	1.539910E-17
6.258651E+03	7.604795E-16	1.518534E-17
6.268539E+03	7.506425E-16	1.498603E-17
6.278426E+03	7.414991E-16	1.480078E-17
6.288313E+03	7.329939E-16	1.462849E-17
6.298201E+03	7.250066E-16	1.446673E-17
6.308088E+03	7.174180E-16	1.431312E-17
6.317975E+03	7.100867E-16	1.416482E-17
6.327862E+03	7.028889E-16	1.401937E-17
6.337750E+03	6.957462E-16	1.387518E-17
6.347637E+03	6.886122E-16	1.373133E-17
6.357524E+03	6.815091E-16	1.358826E-17
6.367412E+03	6.745329E-16	1.344787E-17
6.377299E+03	6.678198E-16	1.331288E-17
6.387186E+03	6.616054E-16	1.318796E-17
6.397073E+03	6.561419E-16	1.307816E-17
6.406961E+03	6.517358E-16	1.298955E-17
6.416848E+03	6.487015E-16	1.292842E-17
6.426735E+03	6.473405E-16	1.290074E-17
6.436623E+03	6.479156E-16	1.291177E-17
6.446510E+03	6.506200E-16	1.296534E-17
6.456397E+03	6.555557E-16	1.306348E-17
6.466284E+03	6.627286E-16	1.320631E-17
6.476172E+03	6.720742E-16	1.339254E-17
6.486059E+03	6.834458E-16	1.361926E-17
6.495946E+03	6.966389E-16	1.388240E-17
6.505833E+03	7.113463E-16	1.417585E-17
6.515721E+03	7.272022E-16	1.449231E-17
6.525608E+03	7.437826E-16	1.482335E-17
6.535495E+03	7.606117E-16	1.515951E-17
6.545383E+03	7.772254E-16	1.549152E-17
6.555270E+03	7.931601E-16	1.581017E-17
6.565157E+03	8.079884E-16	1.610693E-17
6.575044E+03	8.213019E-16	1.637366E-17
6.584932E+03	8.327545E-16	1.660347E-17
6.594819E+03	8.420856E-16	1.679114E-17
6.604706E+03	8.490602E-16	1.693199E-17
6.614594E+03	8.535507E-16	1.702346E-17
6.624481E+03	8.555036E-16	1.706447E-17
6.634368E+03	8.549098E-16	1.705481E-17
6.644255E+03	8.518274E-16	1.699563E-17
6.654143E+03	8.463543E-16	1.688885E-17
6.664030E+03	8.386274E-16	1.673719E-17
6.673917E+03	8.287983E-16	1.654366E-17
6.683805E+03	8.170391E-16	1.631164E-17
6.693692E+03	8.035693E-16	1.604552E-17
6.703579E+03	7.886694E-16	1.575086E-17
6.713466E+03	7.726176E-16	1.543321E-17
6.723354E+03	7.557593E-16	1.509943E-17
6.733241E+03	7.385032E-16	1.475768E-17
6.743128E+03	7.212583E-16	1.441613E-17
6.753016E+03	7.045088E-16	1.408444E-17
6.762903E+03	6.887532E-16	1.377258E-17
6.772790E+03	6.745534E-16	1.349181E-17
6.782677E+03	6.624575E-16	1.325309E-17
6.792565E+03	6.530297E-16	1.306774E-17
6.802452E+03	6.467657E-16	1.294572E-17
6.812339E+03	6.440672E-16	1.289513E-17
6.822227E+03	6.452606E-16	1.292255E-17
6.832114E+03	6.505506E-16	1.303215E-17
6.842001E+03	6.599977E-16	1.322521E-17
6.851888E+03	6.735263E-16	1.350030E-17
6.861776E+03	6.908487E-16	1.385172E-17
6.871663E+03	7.114105E-16	1.426843E-17
6.881550E+03	7.344176E-16	1.473458E-17
6.891438E+03	7.588245E-16	1.522924E-17
6.901325E+03	7.833634E-16	1.572700E-17
6.911212E+03	8.066656E-16	1.620038E-17
6.921099E+03	8.274467E-16	1.662357E-17
6.930987E+03	8.446589E-16	1.697546E-17
6.940874E+03	8.575511E-16	1.724089E-17
6.950761E+03	8.657854E-16	1.741298E-17
6.960649E+03	8.693871E-16	1.749213E-17
6.970536E+03	8.686968E-16	1.748509E-17
6.980423E+03	8.643723E-16	1.740501E-17
6.990310E+03	8.572196E-16	1.726804E-17
7.000198E+03	8.481615E-16	1.709270E-17
7.010085E+03	8.381529E-16	1.689819E-17
7.019972E+03	8.280601E-16	1.670195E-17
7.029860E+03	8.186963E-16	1.652039E-17
7.039747E+03	8.106549E-16	1.636551E-17
7.049634E+03	8.043822E-16	1.624635E-17
7.059521E+03	8.000959E-16	1.616736E-17
7.069409E+03	7.979069E-16	1.613083E-17
7.079296E+03	7.977993E-16	1.613651E-17
7.089183E+03	7.996224E-16	1.618140E-17
7.099071E+03	8.031986E-16	1.626198E-17
7.108958E+03	8.082922E-16	1.637352E-17
7.118845E+03	8.146363E-16	1.651067E-17
7.128732E+03	8.219455E-16	1.666769E-17
7.138620E+03	8.299118E-16	1.683836E-17
7.148507E+03	8.382644E-16	1.701721E-17
7.158394E+03	8.466767E-16	1.719763E-17
7.168282E+03	8.548673E-16	1.737391E-17
7.178169E+03	8.625486E-16	1.754021E-17
7.188056E+03	8.694453E-16	1.769090E-17
7.197943E+03	8.753028E-16	1.782078E-17
7.207831E+03	8.798968E-16	1.792525E-17
7.217718E+03	8.830346E-16	1.800034E-17
7.227605E+03	8.846305E-16	1.804425E-17
7.237493E+03	8.846281E-16	1.805578E-17
7.247380E+03	8.830613E-16	1.803554E-17
7.257267E+03	8.801049E-16	1.798707E-17
7.267154E+03	8.759530E-16	1.791426E-17
7.277042E+03	8.708361E-16	1.782178E-17
7.286929E+03	8.649747E-16	1.771412E-17
7.296816E+03	8.585634E-16	1.759522E-17
7.306704E+03	8.517748E-16	1.746860E-17
7.316591E+03	8.447082E-16	1.733627E-17
7.326478E+03	8.374655E-16	1.720032E-17
7.336365E+03	8.300523E-16	1.706084E-17
7.346253E+03	8.225007E-16	1.691849E-17
7.356140E+03	8.147892E-16	1.677282E-17
7.366027E+03	8.068820E-16	1.662307E-17
7.375915E+03	7.987081E-16	1.646776E-17
7.385802E+03	7.902233E-16	1.630598E-17
7.395689E+03	7.813986E-16	1.613709E-17
7.405576E+03	7.721696E-16	1.595975E-17
7.415464E+03	7.625426E-16	1.577406E-17
7.425351E+03	7.524943E-16	1.557951E-17
7.435238E+03	7.420643E-16	1.537689E-17
7.445126E+03	7.313272E-16	1.516771E-17
7.455013E+03	7.204015E-16	1.495440E-17
7.464900E+03	7.093944E-16	1.473917E-17
7.474787E+03	6.984479E-16	1.452496E-17
7.484675E+03	6.877351E-16	1.431536E-17
7.494562E+03	6.774574E-16	1.411457E-17
7.504449E+03	6.678316E-16	1.392713E-17
7.514337E+03	6.590649E-16	1.375739E-17
7.524224E+03	6.513793E-16	1.361004E-17
7.534111E+03	6.449672E-16	1.348915E-17
7.543998E+03	6.399947E-16	1.339828E-17
7.553886E+03	6.365970E-16	1.334033E-17
7.563773E+03	6.348611E-16	1.331724E-17
7.573660E+03	6.348447E-16	1.333030E-17
7.583548E+03	6.365824E-16	1.338035E-17
7.593435E+03	6.400113E-16	1.346619E-17
7.603322E+03	6.450371E-16	1.358593E-17
7.613209E+03	6.515169E-16	1.373666E-17
7.623097E+03	6.592335E-16	1.391390E-17
7.632984E+03	6.678925E-16	1.411150E-17
7.642871E+03	6.771482E-16	1.432224E-17
7.652759E+03	6.866240E-16	1.453815E-17
7.662646E+03	6.959148E-16	1.475070E-17
7.672533E+03	7.046168E-16	1.495128E-17
