#wls	flux	fluxerr
1.581966E+03	4.075651E-16	1.496169E-17
1.621515E+03	4.166680E-16	1.528038E-17
1.661064E+03	4.253490E-16	1.558254E-17
1.700613E+03	4.333748E-16	1.585964E-17
1.740162E+03	4.407357E-16	1.611138E-17
1.779711E+03	4.473729E-16	1.633564E-17
1.819260E+03	4.530177E-16	1.652271E-17
1.858810E+03	4.577003E-16	1.667377E-17
1.898359E+03	4.610165E-16	1.677422E-17
1.937908E+03	4.629047E-16	1.682198E-17
1.977457E+03	4.632287E-16	1.681229E-17
2.017006E+03	4.622576E-16	1.675510E-17
2.056555E+03	4.604407E-16	1.666687E-17
2.096104E+03	4.589092E-16	1.658859E-17
2.135654E+03	4.591253E-16	1.657301E-17
2.175203E+03	4.618448E-16	1.664709E-17
2.214752E+03	4.672946E-16	1.681859E-17
2.254301E+03	4.744367E-16	1.704972E-17
2.293850E+03	4.820672E-16	1.729700E-17
2.333399E+03	4.892339E-16	1.752618E-17
2.372948E+03	4.951054E-16	1.770757E-17
2.412498E+03	4.994885E-16	1.783447E-17
2.452047E+03	5.020095E-16	1.789380E-17
2.491596E+03	5.028079E-16	1.789084E-17
2.531145E+03	5.017786E-16	1.782216E-17
2.570694E+03	4.990790E-16	1.769371E-17
2.610243E+03	4.948778E-16	1.751177E-17
2.649792E+03	4.891440E-16	1.727556E-17
2.689342E+03	4.820733E-16	1.699230E-17
2.728891E+03	4.737372E-16	1.666482E-17
2.768440E+03	4.643496E-16	1.630093E-17
2.807989E+03	4.540086E-16	1.590431E-17
2.847538E+03	4.428310E-16	1.547932E-17
2.887087E+03	4.309495E-16	1.503081E-17
2.926636E+03	4.186071E-16	1.456744E-17
2.966185E+03	4.061258E-16	1.410057E-17
2.976073E+03	4.029900E-16	1.398353E-17
2.985960E+03	3.998347E-16	1.386590E-17
2.995847E+03	3.967080E-16	1.374935E-17
3.005735E+03	3.936111E-16	1.363392E-17
3.015622E+03	3.905450E-16	1.351965E-17
3.025509E+03	3.874678E-16	1.340509E-17
3.035396E+03	3.844271E-16	1.329187E-17
3.045284E+03	3.813793E-16	1.317850E-17
3.055171E+03	3.784231E-16	1.306839E-17
3.065058E+03	3.754738E-16	1.295860E-17
3.074946E+03	3.726122E-16	1.285192E-17
3.084833E+03	3.697563E-16	1.274553E-17
3.094720E+03	3.669847E-16	1.264212E-17
3.104607E+03	3.642181E-16	1.253897E-17
3.114495E+03	3.615331E-16	1.243871E-17
3.124382E+03	3.589272E-16	1.234126E-17
3.134269E+03	3.563246E-16	1.224399E-17
3.144157E+03	3.537987E-16	1.214943E-17
3.154044E+03	3.513475E-16	1.205752E-17
3.163931E+03	3.489334E-16	1.196695E-17
3.173818E+03	3.465905E-16	1.187889E-17
3.183706E+03	3.443167E-16	1.179327E-17
3.193593E+03	3.421099E-16	1.171001E-17
3.203480E+03	3.399677E-16	1.162903E-17
3.213368E+03	3.379209E-16	1.155137E-17
3.223255E+03	3.359009E-16	1.147469E-17
3.233142E+03	3.339707E-16	1.140113E-17
3.243029E+03	3.321266E-16	1.133056E-17
3.252917E+03	3.303648E-16	1.126285E-17
3.262804E+03	3.286813E-16	1.119786E-17
3.272691E+03	3.270421E-16	1.113442E-17
3.282579E+03	3.255041E-16	1.107447E-17
3.292466E+03	3.240621E-16	1.101782E-17
3.302353E+03	3.226817E-16	1.096330E-17
3.312240E+03	3.213873E-16	1.091174E-17
3.322128E+03	3.202018E-16	1.086389E-17
3.332015E+03	3.190629E-16	1.081765E-17
3.341902E+03	3.180210E-16	1.077473E-17
3.351790E+03	3.170697E-16	1.073488E-17
3.361677E+03	3.162021E-16	1.069789E-17
3.371564E+03	3.154117E-16	1.066351E-17
3.381451E+03	3.147177E-16	1.063240E-17
3.391339E+03	3.140871E-16	1.060343E-17
3.401226E+03	3.135636E-16	1.057808E-17
3.411113E+03	3.131139E-16	1.055521E-17
3.421001E+03	3.127307E-16	1.053457E-17
3.430888E+03	3.124312E-16	1.051673E-17
3.440775E+03	3.122071E-16	1.050142E-17
3.450662E+03	3.120743E-16	1.048916E-17
3.460550E+03	3.120013E-16	1.047888E-17
3.470437E+03	3.120038E-16	1.047111E-17
3.480324E+03	3.120743E-16	1.046559E-17
3.490212E+03	3.122276E-16	1.046281E-17
3.500099E+03	3.124344E-16	1.046179E-17
3.509986E+03	3.127103E-16	1.046303E-17
3.519873E+03	3.130279E-16	1.046563E-17
3.529761E+03	3.134246E-16	1.047082E-17
3.539648E+03	3.138746E-16	1.047774E-17
3.549535E+03	3.143949E-16	1.048695E-17
3.559423E+03	3.149632E-16	1.049772E-17
3.569310E+03	3.155794E-16	1.051001E-17
3.579197E+03	3.162831E-16	1.052515E-17
3.589084E+03	3.170382E-16	1.054194E-17
3.598972E+03	3.178686E-16	1.056116E-17
3.608859E+03	3.187626E-16	1.058241E-17
3.618746E+03	3.197650E-16	1.060719E-17
3.628634E+03	3.208674E-16	1.063520E-17
3.638521E+03	3.220813E-16	1.066681E-17
3.648408E+03	3.234023E-16	1.070187E-17
3.658295E+03	3.248784E-16	1.074196E-17
3.668183E+03	3.264906E-16	1.078644E-17
3.678070E+03	3.282874E-16	1.083690E-17
3.687957E+03	3.302517E-16	1.089275E-17
3.697845E+03	3.324163E-16	1.095507E-17
3.707732E+03	3.347975E-16	1.102437E-17
3.717619E+03	3.373960E-16	1.110066E-17
3.727506E+03	3.402430E-16	1.118495E-17
3.737394E+03	3.433381E-16	1.127720E-17
3.747281E+03	3.467101E-16	1.137834E-17
3.757168E+03	3.503558E-16	1.148824E-17
3.767056E+03	3.542852E-16	1.160719E-17
3.776943E+03	3.585202E-16	1.173590E-17
3.786830E+03	3.630359E-16	1.187353E-17
3.796717E+03	3.678335E-16	1.202008E-17
3.806605E+03	3.729246E-16	1.217592E-17
3.816492E+03	3.782881E-16	1.234032E-17
3.826379E+03	3.839268E-16	1.251336E-17
3.836267E+03	3.897972E-16	1.269359E-17
3.846154E+03	3.958935E-16	1.288080E-17
3.856041E+03	4.021913E-16	1.307419E-17
3.865928E+03	4.086351E-16	1.327192E-17
3.875816E+03	4.152204E-16	1.347385E-17
3.885703E+03	4.218984E-16	1.367837E-17
3.895590E+03	4.286172E-16	1.388379E-17
3.905478E+03	4.353366E-16	1.408881E-17
3.915365E+03	4.420143E-16	1.429206E-17
3.925252E+03	4.486065E-16	1.449212E-17
3.935139E+03	4.550550E-16	1.468713E-17
3.945027E+03	4.613279E-16	1.487607E-17
3.954914E+03	4.673537E-16	1.505665E-17
3.964801E+03	4.731016E-16	1.522790E-17
3.974689E+03	4.785165E-16	1.538806E-17
3.984576E+03	4.835593E-16	1.553592E-17
3.994463E+03	4.881943E-16	1.567035E-17
4.004350E+03	4.923774E-16	1.578999E-17
4.014238E+03	4.960831E-16	1.589405E-17
4.024125E+03	4.992912E-16	1.598194E-17
4.034012E+03	5.019760E-16	1.605286E-17
4.043900E+03	5.041431E-16	1.610705E-17
4.053787E+03	5.057801E-16	1.614416E-17
4.063674E+03	5.068818E-16	1.616408E-17
4.073561E+03	5.074744E-16	1.616767E-17
4.083449E+03	5.075664E-16	1.615527E-17
4.093336E+03	5.071849E-16	1.612778E-17
4.103223E+03	5.063510E-16	1.608591E-17
4.113111E+03	5.051142E-16	1.603128E-17
4.122998E+03	5.035054E-16	1.596491E-17
4.132885E+03	5.015703E-16	1.588826E-17
4.142772E+03	4.993570E-16	1.580291E-17
4.152660E+03	4.969148E-16	1.571044E-17
4.162547E+03	4.942835E-16	1.561211E-17
4.172434E+03	4.915234E-16	1.550986E-17
4.182322E+03	4.886732E-16	1.540492E-17
4.192209E+03	4.857807E-16	1.529880E-17
4.202096E+03	4.828923E-16	1.519297E-17
4.211983E+03	4.800614E-16	1.508910E-17
4.221871E+03	4.773117E-16	1.498794E-17
4.231758E+03	4.746931E-16	1.489105E-17
4.241645E+03	4.722441E-16	1.479961E-17
4.251533E+03	4.700010E-16	1.471476E-17
4.261420E+03	4.679899E-16	1.463729E-17
4.271307E+03	4.662600E-16	1.456871E-17
4.281194E+03	4.648245E-16	1.450942E-17
4.291082E+03	4.637192E-16	1.446050E-17
4.300969E+03	4.629690E-16	1.442270E-17
4.310856E+03	4.625883E-16	1.439643E-17
4.320744E+03	4.626045E-16	1.438252E-17
4.330631E+03	4.630341E-16	1.438144E-17
4.340518E+03	4.638836E-16	1.439335E-17
4.350405E+03	4.651642E-16	1.441856E-17
4.360293E+03	4.668837E-16	1.445728E-17
4.370180E+03	4.690384E-16	1.450934E-17
4.380067E+03	4.716355E-16	1.457494E-17
4.389955E+03	4.746618E-16	1.465362E-17
4.399842E+03	4.781068E-16	1.474501E-17
4.409729E+03	4.819466E-16	1.484836E-17
4.419616E+03	4.861663E-16	1.496314E-17
4.429504E+03	4.907296E-16	1.508823E-17
4.439391E+03	4.956010E-16	1.522250E-17
4.449278E+03	5.007535E-16	1.536508E-17
4.459166E+03	5.061234E-16	1.551400E-17
4.469053E+03	5.116553E-16	1.566755E-17
4.478940E+03	5.172951E-16	1.582405E-17
4.488827E+03	5.229679E-16	1.598121E-17
4.498715E+03	5.286012E-16	1.613682E-17
4.508602E+03	5.341183E-16	1.628853E-17
4.518489E+03	5.394393E-16	1.643393E-17
4.528377E+03	5.444751E-16	1.657032E-17
4.538264E+03	5.491435E-16	1.669523E-17
4.548151E+03	5.533641E-16	1.680626E-17
4.558038E+03	5.570601E-16	1.690112E-17
4.567926E+03	5.601455E-16	1.697725E-17
4.577813E+03	5.625724E-16	1.703327E-17
4.587700E+03	5.642805E-16	1.706740E-17
4.597588E+03	5.652222E-16	1.707829E-17
4.607475E+03	5.653788E-16	1.706543E-17
4.617362E+03	5.647250E-16	1.702815E-17
4.627249E+03	5.632817E-16	1.696714E-17
4.637137E+03	5.610576E-16	1.688275E-17
4.647024E+03	5.580932E-16	1.677625E-17
4.656911E+03	5.544523E-16	1.664965E-17
4.666798E+03	5.501997E-16	1.650495E-17
4.676686E+03	5.454270E-16	1.634494E-17
4.686573E+03	5.402160E-16	1.617214E-17
4.696460E+03	5.346842E-16	1.599008E-17
4.706348E+03	5.289403E-16	1.580205E-17
4.716235E+03	5.230895E-16	1.561122E-17
4.726122E+03	5.172565E-16	1.542130E-17
4.736009E+03	5.115437E-16	1.523534E-17
4.745897E+03	5.060498E-16	1.505628E-17
4.755784E+03	5.008854E-16	1.488738E-17
4.765671E+03	4.961230E-16	1.473075E-17
4.775559E+03	4.918559E-16	1.458913E-17
4.785446E+03	4.881495E-16	1.446442E-17
4.795333E+03	4.850628E-16	1.435831E-17
4.805220E+03	4.826367E-16	1.427195E-17
4.815108E+03	4.809153E-16	1.420658E-17
4.824995E+03	4.799050E-16	1.416233E-17
4.834882E+03	4.796131E-16	1.413936E-17
4.844770E+03	4.800302E-16	1.413732E-17
4.854657E+03	4.811192E-16	1.415506E-17
4.864544E+03	4.828380E-16	1.419127E-17
4.874431E+03	4.851186E-16	1.424392E-17
4.884319E+03	4.878910E-16	1.431090E-17
4.894206E+03	4.910748E-16	1.438980E-17
4.904093E+03	4.945714E-16	1.447771E-17
4.913981E+03	4.982834E-16	1.457176E-17
4.923868E+03	5.021182E-16	1.466922E-17
4.933755E+03	5.059857E-16	1.476746E-17
4.943642E+03	5.097851E-16	1.486352E-17
4.953530E+03	5.134417E-16	1.495526E-17
4.963417E+03	5.168984E-16	1.504101E-17
4.973304E+03	5.200844E-16	1.511874E-17
4.983192E+03	5.229805E-16	1.518792E-17
4.993079E+03	5.255622E-16	1.524786E-17
5.002966E+03	5.278290E-16	1.529858E-17
5.012853E+03	5.297975E-16	1.534059E-17
5.022741E+03	5.315044E-16	1.537497E-17
5.032628E+03	5.329867E-16	1.540282E-17
5.042515E+03	5.343015E-16	1.542581E-17
5.052403E+03	5.355055E-16	1.544560E-17
5.062290E+03	5.366587E-16	1.546391E-17
5.072177E+03	5.378207E-16	1.548247E-17
5.082064E+03	5.390554E-16	1.550312E-17
5.091952E+03	5.404116E-16	1.552726E-17
5.101839E+03	5.419389E-16	1.555631E-17
5.111726E+03	5.436868E-16	1.559166E-17
5.121614E+03	5.456866E-16	1.563420E-17
5.131501E+03	5.479750E-16	1.568498E-17
5.141388E+03	5.505768E-16	1.574466E-17
5.151275E+03	5.535049E-16	1.581360E-17
5.161163E+03	5.567849E-16	1.589250E-17
5.171050E+03	5.604141E-16	1.598127E-17
5.180937E+03	5.644087E-16	1.608034E-17
5.190825E+03	5.687572E-16	1.618935E-17
5.200712E+03	5.734611E-16	1.630833E-17
5.210599E+03	5.785180E-16	1.643718E-17
5.220486E+03	5.839024E-16	1.657516E-17
5.230374E+03	5.896081E-16	1.672207E-17
5.240261E+03	5.956062E-16	1.687707E-17
5.250148E+03	6.018684E-16	1.703934E-17
5.260036E+03	6.083617E-16	1.720793E-17
5.269923E+03	6.150541E-16	1.738193E-17
5.279810E+03	6.218902E-16	1.755976E-17
5.289697E+03	6.288343E-16	1.774041E-17
5.299585E+03	6.358268E-16	1.792221E-17
5.309472E+03	6.428144E-16	1.810364E-17
5.319359E+03	6.497168E-16	1.828246E-17
5.329247E+03	6.564698E-16	1.845686E-17
5.339134E+03	6.629885E-16	1.862450E-17
5.349021E+03	6.691686E-16	1.878245E-17
5.358908E+03	6.749283E-16	1.892845E-17
5.368796E+03	6.801691E-16	1.905976E-17
5.378683E+03	6.847764E-16	1.917323E-17
5.388570E+03	6.886693E-16	1.926663E-17
5.398458E+03	6.917331E-16	1.933681E-17
5.408345E+03	6.938700E-16	1.938109E-17
5.418232E+03	6.949949E-16	1.939716E-17
5.428119E+03	6.950253E-16	1.938278E-17
5.438007E+03	6.938849E-16	1.933591E-17
5.447894E+03	6.915291E-16	1.925538E-17
5.457781E+03	6.879215E-16	1.914024E-17
5.467669E+03	6.830717E-16	1.899085E-17
5.477556E+03	6.769973E-16	1.880777E-17
5.487443E+03	6.697460E-16	1.859240E-17
5.497330E+03	6.614163E-16	1.834754E-17
5.507218E+03	6.521153E-16	1.807621E-17
5.517105E+03	6.419824E-16	1.778235E-17
5.526992E+03	6.311782E-16	1.747043E-17
5.536880E+03	6.198850E-16	1.714553E-17
5.546767E+03	6.082827E-16	1.681265E-17
5.556654E+03	5.965678E-16	1.647723E-17
5.566541E+03	5.849242E-16	1.614434E-17
5.576429E+03	5.735435E-16	1.581926E-17
5.586316E+03	5.625976E-16	1.550670E-17
5.596203E+03	5.522592E-16	1.521140E-17
5.606091E+03	5.426775E-16	1.493741E-17
5.615978E+03	5.339985E-16	1.468871E-17
5.625865E+03	5.263420E-16	1.446853E-17
5.635752E+03	5.198230E-16	1.427998E-17
5.645640E+03	5.145295E-16	1.412541E-17
5.655527E+03	5.105429E-16	1.400697E-17
5.665414E+03	5.079217E-16	1.392621E-17
5.675302E+03	5.067002E-16	1.388399E-17
5.685189E+03	5.068955E-16	1.388071E-17
5.695076E+03	5.085038E-16	1.391619E-17
5.704963E+03	5.114828E-16	1.398921E-17
5.714851E+03	5.157689E-16	1.409795E-17
5.724738E+03	5.212584E-16	1.423953E-17
5.734625E+03	5.278306E-16	1.441059E-17
5.744513E+03	5.353302E-16	1.460686E-17
5.754400E+03	5.435869E-16	1.482364E-17
5.764287E+03	5.524139E-16	1.505582E-17
5.774174E+03	5.616120E-16	1.529795E-17
5.784062E+03	5.709801E-16	1.554454E-17
5.793949E+03	5.802996E-16	1.578965E-17
5.803836E+03	5.893727E-16	1.602790E-17
5.813724E+03	5.980131E-16	1.625425E-17
5.823611E+03	6.060339E-16	1.646365E-17
5.833498E+03	6.132825E-16	1.665199E-17
5.843385E+03	6.196463E-16	1.681624E-17
5.853273E+03	6.250157E-16	1.695347E-17
5.863160E+03	6.293452E-16	1.706251E-17
5.873047E+03	6.326118E-16	1.714277E-17
5.882935E+03	6.348117E-16	1.719419E-17
5.892822E+03	6.359868E-16	1.721794E-17
5.902709E+03	6.361959E-16	1.721568E-17
5.912596E+03	6.355104E-16	1.718935E-17
5.922484E+03	6.340275E-16	1.714163E-17
5.932371E+03	6.318420E-16	1.707511E-17
5.942258E+03	6.290606E-16	1.699268E-17
5.952146E+03	6.257913E-16	1.689729E-17
5.962033E+03	6.221352E-16	1.679169E-17
5.971920E+03	6.182017E-16	1.667883E-17
5.981807E+03	6.140766E-16	1.656103E-17
5.991695E+03	6.098500E-16	1.644074E-17
6.001582E+03	6.056101E-16	1.632032E-17
6.011469E+03	6.014175E-16	1.620142E-17
6.021357E+03	5.973353E-16	1.608572E-17
6.031244E+03	5.934105E-16	1.597448E-17
6.041131E+03	5.896914E-16	1.586901E-17
6.051018E+03	5.861936E-16	1.576971E-17
6.060906E+03	5.829402E-16	1.567720E-17
6.070793E+03	5.799343E-16	1.559155E-17
6.080680E+03	5.771811E-16	1.551289E-17
6.090568E+03	5.746613E-16	1.544071E-17
6.100455E+03	5.723588E-16	1.537456E-17
6.110342E+03	5.702334E-16	1.531336E-17
6.120229E+03	5.682608E-16	1.525645E-17
6.130117E+03	5.664101E-16	1.520300E-17
6.140004E+03	5.646625E-16	1.515250E-17
6.149891E+03	5.629842E-16	1.510403E-17
6.159779E+03	5.613503E-16	1.505694E-17
6.169666E+03	5.597197E-16	1.501011E-17
6.179553E+03	5.580703E-16	1.496295E-17
6.189440E+03	5.563631E-16	1.491440E-17
6.199328E+03	5.545823E-16	1.486404E-17
6.209215E+03	5.527091E-16	1.481138E-17
6.219102E+03	5.507447E-16	1.475643E-17
6.228990E+03	5.486868E-16	1.469913E-17
6.238877E+03	5.465394E-16	1.463959E-17
6.248764E+03	5.443115E-16	1.457805E-17
6.258651E+03	5.420310E-16	1.451525E-17
6.268539E+03	5.396937E-16	1.445107E-17
6.278426E+03	5.373281E-16	1.438629E-17
6.288313E+03	5.349449E-16	1.432117E-17
6.298201E+03	5.325470E-16	1.425581E-17
6.308088E+03	5.301515E-16	1.419064E-17
6.317975E+03	5.277566E-16	1.412562E-17
6.327862E+03	5.253690E-16	1.406093E-17
6.337750E+03	5.229887E-16	1.399656E-17
6.347637E+03	5.206258E-16	1.393278E-17
6.357524E+03	5.182702E-16	1.386932E-17
6.367412E+03	5.159423E-16	1.380671E-17
6.377299E+03	5.136515E-16	1.374522E-17
6.387186E+03	5.114145E-16	1.368528E-17
6.397073E+03	5.092665E-16	1.362784E-17
6.406961E+03	5.072499E-16	1.357401E-17
6.416848E+03	5.054017E-16	1.352481E-17
6.426735E+03	5.037612E-16	1.348126E-17
6.436623E+03	5.023562E-16	1.344412E-17
6.446510E+03	5.012256E-16	1.341443E-17
6.456397E+03	5.003891E-16	1.339270E-17
6.466284E+03	4.998542E-16	1.337916E-17
6.476172E+03	4.996245E-16	1.337388E-17
6.486059E+03	4.996767E-16	1.337624E-17
6.495946E+03	4.999765E-16	1.338534E-17
6.505833E+03	5.004805E-16	1.340000E-17
6.515721E+03	5.011219E-16	1.341845E-17
6.525608E+03	5.018357E-16	1.343893E-17
6.535495E+03	5.025461E-16	1.345943E-17
6.545383E+03	5.031756E-16	1.347786E-17
6.555270E+03	5.036494E-16	1.349222E-17
6.565157E+03	5.038986E-16	1.350066E-17
6.575044E+03	5.038751E-16	1.350190E-17
6.584932E+03	5.035189E-16	1.349431E-17
6.594819E+03	5.027992E-16	1.347707E-17
6.604706E+03	5.016981E-16	1.344970E-17
6.614594E+03	5.001995E-16	1.341175E-17
6.624481E+03	4.983064E-16	1.336331E-17
6.634368E+03	4.960408E-16	1.330495E-17
6.644255E+03	4.934296E-16	1.323738E-17
6.654143E+03	4.905160E-16	1.316177E-17
6.664030E+03	4.873329E-16	1.307899E-17
6.673917E+03	4.839430E-16	1.299071E-17
6.683805E+03	4.803970E-16	1.289829E-17
6.693692E+03	4.767616E-16	1.280352E-17
6.703579E+03	4.731010E-16	1.270811E-17
6.713466E+03	4.694824E-16	1.261388E-17
6.723354E+03	4.659745E-16	1.252266E-17
6.733241E+03	4.626472E-16	1.243633E-17
6.743128E+03	4.595702E-16	1.235678E-17
6.753016E+03	4.568180E-16	1.228600E-17
6.762903E+03	4.544473E-16	1.222553E-17
6.772790E+03	4.525393E-16	1.217757E-17
6.782677E+03	4.511438E-16	1.214345E-17
6.792565E+03	4.503207E-16	1.212481E-17
6.802452E+03	4.501103E-16	1.212275E-17
6.812339E+03	4.505525E-16	1.213834E-17
6.822227E+03	4.516687E-16	1.217219E-17
6.832114E+03	4.534645E-16	1.222447E-17
6.842001E+03	4.559286E-16	1.229489E-17
6.851888E+03	4.590251E-16	1.238250E-17
6.861776E+03	4.627157E-16	1.248628E-17
6.871663E+03	4.669202E-16	1.260410E-17
6.881550E+03	4.715581E-16	1.273379E-17
6.891438E+03	4.765356E-16	1.287283E-17
6.901325E+03	4.817325E-16	1.301799E-17
6.911212E+03	4.870369E-16	1.316626E-17
6.921099E+03	4.923537E-16	1.331507E-17
6.930987E+03	4.975730E-16	1.346146E-17
6.940874E+03	5.026187E-16	1.360336E-17
6.950761E+03	5.074277E-16	1.373906E-17
6.960649E+03	5.119513E-16	1.386723E-17
6.970536E+03	5.161751E-16	1.398750E-17
6.980423E+03	5.200926E-16	1.409966E-17
6.990310E+03	5.237287E-16	1.420439E-17
7.000198E+03	5.271036E-16	1.430224E-17
7.010085E+03	5.302757E-16	1.439477E-17
7.019972E+03	5.332914E-16	1.448325E-17
7.029860E+03	5.362000E-16	1.456901E-17
7.039747E+03	5.390630E-16	1.465372E-17
7.049634E+03	5.419303E-16	1.473874E-17
7.059521E+03	5.448358E-16	1.482500E-17
7.069409E+03	5.478027E-16	1.491313E-17
7.079296E+03	5.508607E-16	1.500395E-17
7.089183E+03	5.539982E-16	1.509715E-17
7.099071E+03	5.572093E-16	1.519257E-17
7.108958E+03	5.604608E-16	1.528932E-17
7.118845E+03	5.637068E-16	1.538615E-17
7.128732E+03	5.669065E-16	1.548194E-17
7.138620E+03	5.700047E-16	1.557519E-17
7.148507E+03	5.729266E-16	1.566386E-17
7.158394E+03	5.756163E-16	1.574641E-17
7.168282E+03	5.779952E-16	1.582068E-17
7.178169E+03	5.800150E-16	1.588534E-17
7.188056E+03	5.816011E-16	1.593832E-17
7.197943E+03	5.826991E-16	1.597813E-17
7.207831E+03	5.832549E-16	1.600325E-17
7.217718E+03	5.832315E-16	1.601264E-17
7.227605E+03	5.825963E-16	1.600537E-17
7.237493E+03	5.813443E-16	1.598129E-17
7.247380E+03	5.794543E-16	1.593976E-17
7.257267E+03	5.769557E-16	1.588158E-17
7.267154E+03	5.738525E-16	1.580681E-17
7.277042E+03	5.701884E-16	1.571663E-17
7.286929E+03	5.659931E-16	1.561181E-17
7.296816E+03	5.613231E-16	1.549390E-17
7.306704E+03	5.562163E-16	1.536390E-17
7.316591E+03	5.507332E-16	1.522345E-17
7.326478E+03	5.449048E-16	1.507340E-17
7.336365E+03	5.387891E-16	1.491532E-17
7.346253E+03	5.324269E-16	1.475032E-17
7.356140E+03	5.258710E-16	1.457985E-17
7.366027E+03	5.191510E-16	1.440470E-17
7.375915E+03	5.123218E-16	1.422639E-17
7.385802E+03	5.054300E-16	1.404621E-17
7.395689E+03	4.985071E-16	1.386501E-17
7.405576E+03	4.915969E-16	1.368401E-17
7.415464E+03	4.847477E-16	1.350455E-17
7.425351E+03	4.779814E-16	1.332724E-17
7.435238E+03	4.713499E-16	1.315351E-17
7.445126E+03	4.648851E-16	1.298427E-17
7.455013E+03	4.586193E-16	1.282041E-17
7.464900E+03	4.525963E-16	1.266318E-17
7.474787E+03	4.468554E-16	1.251368E-17
7.484675E+03	4.414348E-16	1.237299E-17
7.494562E+03	4.363817E-16	1.224246E-17
7.504449E+03	4.317233E-16	1.212287E-17
7.514337E+03	4.274900E-16	1.201511E-17
7.524224E+03	4.237207E-16	1.192029E-17
7.534111E+03	4.204335E-16	1.183896E-17
7.543998E+03	4.176543E-16	1.177187E-17
7.553886E+03	4.153983E-16	1.171951E-17
7.563773E+03	4.136751E-16	1.168216E-17
7.573660E+03	4.124865E-16	1.165993E-17
7.583548E+03	4.118258E-16	1.165267E-17
7.593435E+03	4.116865E-16	1.166023E-17
7.603322E+03	4.120230E-16	1.168136E-17
7.613209E+03	4.128113E-16	1.171543E-17
7.623097E+03	4.139878E-16	1.176066E-17
7.632984E+03	4.154954E-16	1.181545E-17
7.642871E+03	4.172633E-16	1.187783E-17
7.652759E+03	4.192092E-16	1.194547E-17
7.662646E+03	4.212656E-16	1.201646E-17
7.672533E+03	4.233426E-16	1.208823E-17
