#wls	flux	fluxerr
1.581966E+03	4.042522E-16	1.448927E-17
1.621515E+03	4.131869E-16	1.480130E-17
1.661064E+03	4.215464E-16	1.509216E-17
1.700613E+03	4.294081E-16	1.536465E-17
1.740162E+03	4.365306E-16	1.561014E-17
1.779711E+03	4.429362E-16	1.582947E-17
1.819260E+03	4.484425E-16	1.601616E-17
1.858810E+03	4.528362E-16	1.616263E-17
1.898359E+03	4.560495E-16	1.626653E-17
1.937908E+03	4.576927E-16	1.631405E-17
1.977457E+03	4.578844E-16	1.630952E-17
2.017006E+03	4.567290E-16	1.625676E-17
2.056555E+03	4.546743E-16	1.617178E-17
2.096104E+03	4.530050E-16	1.610033E-17
2.135654E+03	4.529246E-16	1.608511E-17
2.175203E+03	4.554183E-16	1.616094E-17
2.214752E+03	4.604727E-16	1.632713E-17
2.254301E+03	4.671415E-16	1.654991E-17
2.293850E+03	4.743999E-16	1.679286E-17
2.333399E+03	4.810772E-16	1.701448E-17
2.372948E+03	4.865976E-16	1.719448E-17
2.412498E+03	4.905434E-16	1.731818E-17
2.452047E+03	4.927864E-16	1.738122E-17
2.491596E+03	4.932408E-16	1.738073E-17
2.531145E+03	4.920369E-16	1.732146E-17
2.570694E+03	4.892561E-16	1.720644E-17
2.610243E+03	4.849258E-16	1.703682E-17
2.649792E+03	4.792301E-16	1.681921E-17
2.689342E+03	4.722222E-16	1.655565E-17
2.728891E+03	4.640381E-16	1.625105E-17
2.768440E+03	4.548233E-16	1.591066E-17
2.807989E+03	4.447320E-16	1.554000E-17
2.847538E+03	4.338140E-16	1.514094E-17
2.887087E+03	4.223020E-16	1.472171E-17
2.926636E+03	4.103679E-16	1.428839E-17
2.966185E+03	3.982742E-16	1.385020E-17
2.976073E+03	3.952502E-16	1.374074E-17
2.985960E+03	3.922531E-16	1.363227E-17
2.995847E+03	3.892839E-16	1.352481E-17
3.005735E+03	3.862989E-16	1.341684E-17
3.015622E+03	3.833006E-16	1.330846E-17
3.025509E+03	3.803792E-16	1.320279E-17
3.035396E+03	3.774500E-16	1.309690E-17
3.045284E+03	3.745976E-16	1.299372E-17
3.055171E+03	3.717505E-16	1.289077E-17
3.065058E+03	3.689500E-16	1.278947E-17
3.074946E+03	3.661950E-16	1.268980E-17
3.084833E+03	3.634841E-16	1.259170E-17
3.094720E+03	3.608160E-16	1.249512E-17
3.104607E+03	3.582290E-16	1.240140E-17
3.114495E+03	3.556433E-16	1.230776E-17
3.124382E+03	3.531358E-16	1.221686E-17
3.134269E+03	3.507041E-16	1.212863E-17
3.144157E+03	3.483087E-16	1.204169E-17
3.154044E+03	3.459854E-16	1.195729E-17
3.163931E+03	3.436961E-16	1.187409E-17
3.173818E+03	3.415109E-16	1.179452E-17
3.183706E+03	3.393561E-16	1.171604E-17
3.193593E+03	3.372654E-16	1.163980E-17
3.203480E+03	3.352366E-16	1.156573E-17
3.213368E+03	3.333010E-16	1.149491E-17
3.223255E+03	3.314215E-16	1.142605E-17
3.233142E+03	3.295961E-16	1.135909E-17
3.243029E+03	3.278544E-16	1.129503E-17
3.252917E+03	3.261926E-16	1.123375E-17
3.262804E+03	3.246068E-16	1.117511E-17
3.272691E+03	3.230933E-16	1.111898E-17
3.282579E+03	3.216784E-16	1.106627E-17
3.292466E+03	3.203270E-16	1.101576E-17
3.302353E+03	3.190350E-16	1.096730E-17
3.312240E+03	3.178276E-16	1.092177E-17
3.322128E+03	3.167283E-16	1.087997E-17
3.332015E+03	3.156737E-16	1.083971E-17
3.341902E+03	3.147158E-16	1.080278E-17
3.351790E+03	3.138203E-16	1.076800E-17
3.361677E+03	3.130363E-16	1.073705E-17
3.371564E+03	3.123028E-16	1.070784E-17
3.381451E+03	3.116672E-16	1.068198E-17
3.391339E+03	3.110961E-16	1.065834E-17
3.401226E+03	3.106089E-16	1.063757E-17
3.411113E+03	3.101985E-16	1.061942E-17
3.421001E+03	3.098579E-16	1.060365E-17
3.430888E+03	3.096047E-16	1.059087E-17
3.440775E+03	3.094071E-16	1.057998E-17
3.450662E+03	3.092827E-16	1.057158E-17
3.460550E+03	3.092242E-16	1.056542E-17
3.470437E+03	3.092482E-16	1.056207E-17
3.480324E+03	3.093245E-16	1.056048E-17
3.490212E+03	3.094697E-16	1.056123E-17
3.500099E+03	3.096775E-16	1.056409E-17
3.509986E+03	3.099422E-16	1.056887E-17
3.519873E+03	3.102804E-16	1.057613E-17
3.529761E+03	3.106659E-16	1.058498E-17
3.539648E+03	3.111162E-16	1.059601E-17
3.549535E+03	3.116078E-16	1.060841E-17
3.559423E+03	3.121804E-16	1.062355E-17
3.569310E+03	3.128126E-16	1.064068E-17
3.579197E+03	3.135055E-16	1.065983E-17
3.589084E+03	3.142618E-16	1.068111E-17
3.598972E+03	3.151047E-16	1.070530E-17
3.608859E+03	3.160206E-16	1.073192E-17
3.618746E+03	3.170173E-16	1.076125E-17
3.628634E+03	3.181394E-16	1.079478E-17
3.638521E+03	3.193604E-16	1.083162E-17
3.648408E+03	3.206914E-16	1.087214E-17
3.658295E+03	3.221791E-16	1.091792E-17
3.668183E+03	3.238011E-16	1.096818E-17
3.678070E+03	3.255879E-16	1.102396E-17
3.687957E+03	3.275361E-16	1.108514E-17
3.697845E+03	3.296762E-16	1.115274E-17
3.707732E+03	3.320218E-16	1.122721E-17
3.717619E+03	3.345860E-16	1.130898E-17
3.727506E+03	3.373661E-16	1.139796E-17
3.737394E+03	3.403897E-16	1.149505E-17
3.747281E+03	3.436524E-16	1.160011E-17
3.757168E+03	3.471786E-16	1.171396E-17
3.767056E+03	3.509606E-16	1.183630E-17
3.776943E+03	3.550035E-16	1.196732E-17
3.786830E+03	3.593099E-16	1.210707E-17
3.796717E+03	3.638791E-16	1.225553E-17
3.806605E+03	3.687072E-16	1.241254E-17
3.816492E+03	3.737725E-16	1.257738E-17
3.826379E+03	3.790925E-16	1.275062E-17
3.836267E+03	3.846095E-16	1.293029E-17
3.846154E+03	3.903333E-16	1.311673E-17
3.856041E+03	3.962275E-16	1.330870E-17
3.865928E+03	4.022522E-16	1.350486E-17
3.875816E+03	4.084065E-16	1.370516E-17
3.885703E+03	4.146166E-16	1.390712E-17
3.895590E+03	4.208759E-16	1.411052E-17
3.905478E+03	4.271342E-16	1.431368E-17
3.915365E+03	4.333532E-16	1.451530E-17
3.925252E+03	4.394798E-16	1.471363E-17
3.935139E+03	4.454740E-16	1.490731E-17
3.945027E+03	4.513088E-16	1.509545E-17
3.954914E+03	4.569174E-16	1.527583E-17
3.964801E+03	4.622609E-16	1.544716E-17
3.974689E+03	4.673155E-16	1.560865E-17
3.984576E+03	4.720334E-16	1.575871E-17
3.994463E+03	4.763830E-16	1.589633E-17
4.004350E+03	4.803243E-16	1.602016E-17
4.014238E+03	4.838345E-16	1.612949E-17
4.024125E+03	4.868963E-16	1.622373E-17
4.034012E+03	4.894975E-16	1.630253E-17
4.043900E+03	4.916199E-16	1.636529E-17
4.053787E+03	4.932637E-16	1.641203E-17
4.063674E+03	4.944352E-16	1.644300E-17
4.073561E+03	4.951351E-16	1.645824E-17
4.083449E+03	4.953935E-16	1.645878E-17
4.093336E+03	4.952226E-16	1.644503E-17
4.103223E+03	4.946405E-16	1.641762E-17
4.113111E+03	4.936922E-16	1.637807E-17
4.122998E+03	4.924045E-16	1.632728E-17
4.132885E+03	4.908289E-16	1.626698E-17
4.142772E+03	4.889874E-16	1.619791E-17
4.152660E+03	4.869354E-16	1.612191E-17
4.162547E+03	4.847081E-16	1.604017E-17
4.172434E+03	4.823615E-16	1.595454E-17
4.182322E+03	4.799209E-16	1.586587E-17
4.192209E+03	4.774503E-16	1.577628E-17
4.202096E+03	4.749735E-16	1.568655E-17
4.211983E+03	4.725418E-16	1.559838E-17
4.221871E+03	4.701951E-16	1.551309E-17
4.231758E+03	4.679534E-16	1.543133E-17
4.241645E+03	4.658716E-16	1.535489E-17
4.251533E+03	4.639837E-16	1.528491E-17
4.261420E+03	4.623052E-16	1.522188E-17
4.271307E+03	4.608753E-16	1.516707E-17
4.281194E+03	4.597223E-16	1.512141E-17
4.291082E+03	4.588638E-16	1.508547E-17
4.300969E+03	4.583319E-16	1.506027E-17
4.310856E+03	4.581470E-16	1.504648E-17
4.320744E+03	4.583198E-16	1.504444E-17
4.330631E+03	4.588657E-16	1.505462E-17
4.340518E+03	4.597902E-16	1.507719E-17
4.350405E+03	4.611182E-16	1.511294E-17
4.360293E+03	4.628411E-16	1.516159E-17
4.370180E+03	4.649615E-16	1.522318E-17
4.380067E+03	4.674781E-16	1.529766E-17
4.389955E+03	4.703849E-16	1.538482E-17
4.399842E+03	4.736708E-16	1.548426E-17
4.409729E+03	4.773047E-16	1.559496E-17
4.419616E+03	4.812725E-16	1.571643E-17
4.429504E+03	4.855536E-16	1.584800E-17
4.439391E+03	4.900999E-16	1.598806E-17
4.449278E+03	4.948865E-16	1.613580E-17
4.459166E+03	4.998529E-16	1.628924E-17
4.469053E+03	5.049553E-16	1.644693E-17
4.478940E+03	5.101367E-16	1.660703E-17
4.488827E+03	5.153281E-16	1.676726E-17
4.498715E+03	5.204630E-16	1.692549E-17
4.508602E+03	5.254719E-16	1.707944E-17
4.518489E+03	5.302828E-16	1.722679E-17
4.528377E+03	5.348151E-16	1.736493E-17
4.538264E+03	5.390032E-16	1.749175E-17
4.548151E+03	5.427611E-16	1.760447E-17
4.558038E+03	5.460364E-16	1.770143E-17
4.567926E+03	5.487453E-16	1.777992E-17
4.577813E+03	5.508556E-16	1.783893E-17
4.587700E+03	5.523005E-16	1.787634E-17
4.597588E+03	5.530464E-16	1.789110E-17
4.607475E+03	5.530870E-16	1.788303E-17
4.617362E+03	5.523933E-16	1.785123E-17
4.627249E+03	5.509801E-16	1.779622E-17
4.637137E+03	5.488766E-16	1.771898E-17
4.647024E+03	5.461058E-16	1.762029E-17
4.656911E+03	5.427191E-16	1.750184E-17
4.666798E+03	5.387873E-16	1.736594E-17
4.676686E+03	5.343791E-16	1.721483E-17
4.686573E+03	5.295857E-16	1.705148E-17
4.696460E+03	5.244984E-16	1.687884E-17
4.706348E+03	5.192140E-16	1.670005E-17
4.716235E+03	5.138312E-16	1.651828E-17
4.726122E+03	5.084617E-16	1.633712E-17
4.736009E+03	5.032022E-16	1.615969E-17
4.745897E+03	4.981453E-16	1.598896E-17
4.755784E+03	4.933725E-16	1.582751E-17
4.765671E+03	4.889645E-16	1.567794E-17
4.775559E+03	4.849819E-16	1.554215E-17
4.785446E+03	4.814995E-16	1.542254E-17
4.795333E+03	4.785582E-16	1.532037E-17
4.805220E+03	4.761994E-16	1.523695E-17
4.815108E+03	4.744627E-16	1.517352E-17
4.824995E+03	4.733523E-16	1.513018E-17
4.834882E+03	4.728702E-16	1.510696E-17
4.844770E+03	4.730144E-16	1.510377E-17
4.854657E+03	4.737531E-16	1.511956E-17
4.864544E+03	4.750464E-16	1.515303E-17
4.874431E+03	4.768474E-16	1.520266E-17
4.884319E+03	4.790929E-16	1.526642E-17
4.894206E+03	4.817059E-16	1.534182E-17
4.904093E+03	4.846192E-16	1.542671E-17
4.913981E+03	4.877510E-16	1.551847E-17
4.923868E+03	4.910137E-16	1.561431E-17
4.933755E+03	4.943321E-16	1.571184E-17
4.943642E+03	4.976306E-16	1.580864E-17
4.953530E+03	5.008465E-16	1.590274E-17
4.963417E+03	5.039219E-16	1.599229E-17
4.973304E+03	5.068050E-16	1.607567E-17
4.983192E+03	5.094746E-16	1.615220E-17
4.993079E+03	5.119013E-16	1.622098E-17
5.002966E+03	5.140927E-16	1.628225E-17
5.012853E+03	5.160593E-16	1.633635E-17
5.022741E+03	5.178174E-16	1.638382E-17
5.032628E+03	5.194051E-16	1.642587E-17
5.042515E+03	5.208682E-16	1.646396E-17
5.052403E+03	5.222408E-16	1.649916E-17
5.062290E+03	5.235826E-16	1.653338E-17
5.072177E+03	5.249375E-16	1.656800E-17
5.082064E+03	5.263598E-16	1.660472E-17
5.091952E+03	5.278900E-16	1.664484E-17
5.101839E+03	5.295765E-16	1.668986E-17
5.111726E+03	5.314574E-16	1.674098E-17
5.121614E+03	5.335659E-16	1.679925E-17
5.131501E+03	5.359301E-16	1.686553E-17
5.141388E+03	5.385728E-16	1.694052E-17
5.151275E+03	5.415118E-16	1.702479E-17
5.161163E+03	5.447602E-16	1.711872E-17
5.171050E+03	5.483323E-16	1.722276E-17
5.180937E+03	5.522208E-16	1.733666E-17
5.190825E+03	5.564373E-16	1.746078E-17
5.200712E+03	5.609776E-16	1.759496E-17
5.210599E+03	5.658213E-16	1.773856E-17
5.220486E+03	5.709670E-16	1.789153E-17
5.230374E+03	5.763973E-16	1.805329E-17
5.240261E+03	5.820838E-16	1.822296E-17
5.250148E+03	5.879994E-16	1.839969E-17
5.260036E+03	5.941181E-16	1.858264E-17
5.269923E+03	6.003971E-16	1.877047E-17
5.279810E+03	6.068008E-16	1.896207E-17
5.289697E+03	6.132761E-16	1.915577E-17
5.299585E+03	6.197772E-16	1.935015E-17
5.309472E+03	6.262398E-16	1.954319E-17
5.319359E+03	6.326055E-16	1.973309E-17
5.329247E+03	6.387953E-16	1.991739E-17
5.339134E+03	6.447368E-16	2.009383E-17
5.349021E+03	6.503462E-16	2.025982E-17
5.358908E+03	6.555294E-16	2.041245E-17
5.368796E+03	6.602030E-16	2.054913E-17
5.378683E+03	6.642690E-16	2.066684E-17
5.388570E+03	6.676498E-16	2.076320E-17
5.398458E+03	6.702434E-16	2.083505E-17
5.408345E+03	6.719650E-16	2.087980E-17
5.418232E+03	6.727505E-16	2.089548E-17
5.428119E+03	6.725188E-16	2.087963E-17
5.438007E+03	6.712219E-16	2.083078E-17
5.447894E+03	6.688216E-16	2.074780E-17
5.457781E+03	6.652997E-16	2.063016E-17
5.467669E+03	6.606536E-16	2.047782E-17
5.477556E+03	6.549185E-16	2.029192E-17
5.487443E+03	6.481422E-16	2.007396E-17
5.497330E+03	6.404230E-16	1.982704E-17
5.507218E+03	6.318450E-16	1.955379E-17
5.517105E+03	6.225450E-16	1.925847E-17
5.526992E+03	6.126587E-16	1.894530E-17
5.536880E+03	6.023471E-16	1.861927E-17
5.546767E+03	5.917679E-16	1.828527E-17
5.556654E+03	5.810950E-16	1.794869E-17
5.566541E+03	5.704907E-16	1.761452E-17
5.576429E+03	5.601250E-16	1.728802E-17
5.586316E+03	5.501505E-16	1.697387E-17
5.596203E+03	5.407214E-16	1.667682E-17
5.606091E+03	5.319705E-16	1.640095E-17
5.615978E+03	5.240283E-16	1.615025E-17
5.625865E+03	5.170069E-16	1.592814E-17
5.635752E+03	5.109935E-16	1.573728E-17
5.645640E+03	5.060858E-16	1.558064E-17
5.655527E+03	5.023351E-16	1.545976E-17
5.665414E+03	4.998010E-16	1.537645E-17
5.675302E+03	4.985147E-16	1.533160E-17
5.685189E+03	4.984822E-16	1.532539E-17
5.695076E+03	4.996925E-16	1.535742E-17
5.704963E+03	5.021105E-16	1.542657E-17
5.714851E+03	5.056811E-16	1.553114E-17
5.724738E+03	5.103106E-16	1.566818E-17
5.734625E+03	5.159015E-16	1.583470E-17
5.744513E+03	5.223213E-16	1.602660E-17
5.754400E+03	5.294194E-16	1.623922E-17
5.764287E+03	5.370463E-16	1.646799E-17
5.774174E+03	5.450210E-16	1.670732E-17
5.784062E+03	5.531722E-16	1.695197E-17
5.793949E+03	5.613215E-16	1.719647E-17
5.803836E+03	5.692887E-16	1.743530E-17
5.813724E+03	5.769080E-16	1.766339E-17
5.823611E+03	5.840328E-16	1.787627E-17
5.833498E+03	5.905243E-16	1.806972E-17
5.843385E+03	5.962722E-16	1.824037E-17
5.853273E+03	6.011924E-16	1.838567E-17
5.863160E+03	6.052286E-16	1.850393E-17
5.873047E+03	6.083523E-16	1.859430E-17
5.882935E+03	6.105502E-16	1.865640E-17
5.892822E+03	6.118617E-16	1.869146E-17
5.902709E+03	6.123121E-16	1.870027E-17
5.912596E+03	6.119672E-16	1.868486E-17
5.922484E+03	6.109004E-16	1.864750E-17
5.932371E+03	6.091946E-16	1.859073E-17
5.942258E+03	6.069273E-16	1.851693E-17
5.952146E+03	6.042025E-16	1.842929E-17
5.962033E+03	6.011070E-16	1.833046E-17
5.971920E+03	5.977254E-16	1.822303E-17
5.981807E+03	5.941442E-16	1.810964E-17
5.991695E+03	5.904444E-16	1.799276E-17
6.001582E+03	5.866944E-16	1.787449E-17
6.011469E+03	5.829660E-16	1.775700E-17
6.021357E+03	5.793064E-16	1.764173E-17
6.031244E+03	5.757647E-16	1.753018E-17
6.041131E+03	5.723818E-16	1.742359E-17
6.051018E+03	5.691838E-16	1.732275E-17
6.060906E+03	5.661887E-16	1.722820E-17
6.070793E+03	5.634113E-16	1.714039E-17
6.080680E+03	5.608533E-16	1.705937E-17
6.090568E+03	5.585086E-16	1.698494E-17
6.100455E+03	5.563589E-16	1.691655E-17
6.110342E+03	5.543841E-16	1.685359E-17
6.120229E+03	5.525587E-16	1.679526E-17
6.130117E+03	5.508622E-16	1.674096E-17
6.140004E+03	5.492644E-16	1.668976E-17
6.149891E+03	5.477429E-16	1.664097E-17
6.159779E+03	5.462681E-16	1.659370E-17
6.169666E+03	5.448054E-16	1.654690E-17
6.179553E+03	5.433281E-16	1.649974E-17
6.189440E+03	5.418139E-16	1.645155E-17
6.199328E+03	5.402455E-16	1.640181E-17
6.209215E+03	5.386008E-16	1.634985E-17
6.219102E+03	5.368854E-16	1.629582E-17
6.228990E+03	5.350891E-16	1.623944E-17
6.238877E+03	5.332123E-16	1.618069E-17
6.248764E+03	5.312697E-16	1.612004E-17
6.258651E+03	5.292626E-16	1.605751E-17
6.268539E+03	5.272094E-16	1.599367E-17
6.278426E+03	5.251128E-16	1.592860E-17
6.288313E+03	5.229855E-16	1.586268E-17
6.298201E+03	5.208390E-16	1.579626E-17
6.308088E+03	5.186726E-16	1.572931E-17
6.317975E+03	5.164945E-16	1.566209E-17
6.327862E+03	5.143121E-16	1.559482E-17
6.337750E+03	5.121264E-16	1.552752E-17
6.347637E+03	5.099392E-16	1.546025E-17
6.357524E+03	5.077589E-16	1.539326E-17
6.367412E+03	5.055916E-16	1.532674E-17
6.377299E+03	5.034584E-16	1.526132E-17
6.387186E+03	5.013746E-16	1.519747E-17
6.397073E+03	4.993666E-16	1.513599E-17
6.406961E+03	4.974654E-16	1.507780E-17
6.416848E+03	4.957104E-16	1.502412E-17
6.426735E+03	4.941321E-16	1.497585E-17
6.436623E+03	4.927488E-16	1.493356E-17
6.446510E+03	4.915798E-16	1.489782E-17
6.456397E+03	4.906480E-16	1.486933E-17
6.466284E+03	4.899562E-16	1.484817E-17
6.476172E+03	4.894955E-16	1.483408E-17
6.486059E+03	4.892607E-16	1.482689E-17
6.495946E+03	4.892180E-16	1.482558E-17
6.505833E+03	4.893275E-16	1.482893E-17
6.515721E+03	4.895397E-16	1.483546E-17
6.525608E+03	4.898030E-16	1.484359E-17
6.535495E+03	4.900563E-16	1.485148E-17
6.545383E+03	4.902371E-16	1.485722E-17
6.555270E+03	4.902903E-16	1.485916E-17
6.565157E+03	4.901489E-16	1.485525E-17
6.575044E+03	4.897806E-16	1.484452E-17
6.584932E+03	4.891345E-16	1.482543E-17
6.594819E+03	4.881859E-16	1.479722E-17
6.604706E+03	4.869215E-16	1.475949E-17
6.614594E+03	4.853280E-16	1.471184E-17
6.624481E+03	4.834141E-16	1.465453E-17
6.634368E+03	4.811884E-16	1.458781E-17
6.644255E+03	4.786855E-16	1.451273E-17
6.654143E+03	4.759320E-16	1.443010E-17
6.664030E+03	4.729673E-16	1.434111E-17
6.673917E+03	4.698366E-16	1.424713E-17
6.683805E+03	4.665954E-16	1.414983E-17
6.693692E+03	4.632978E-16	1.405087E-17
6.703579E+03	4.599956E-16	1.395180E-17
6.713466E+03	4.567591E-16	1.385476E-17
6.723354E+03	4.536436E-16	1.376142E-17
6.733241E+03	4.507053E-16	1.367350E-17
6.743128E+03	4.480217E-16	1.359334E-17
6.753016E+03	4.456368E-16	1.352227E-17
6.762903E+03	4.436200E-16	1.346242E-17
6.772790E+03	4.420211E-16	1.341528E-17
6.782677E+03	4.409018E-16	1.338274E-17
6.792565E+03	4.402908E-16	1.336568E-17
6.802452E+03	4.402413E-16	1.336570E-17
6.812339E+03	4.407697E-16	1.338333E-17
6.822227E+03	4.418970E-16	1.341919E-17
6.832114E+03	4.436259E-16	1.347339E-17
6.842001E+03	4.459392E-16	1.354540E-17
6.851888E+03	4.488203E-16	1.363473E-17
6.861776E+03	4.522157E-16	1.373976E-17
6.871663E+03	4.560732E-16	1.385892E-17
6.881550E+03	4.603218E-16	1.399005E-17
6.891438E+03	4.648799E-16	1.413068E-17
6.901325E+03	4.696595E-16	1.427813E-17
6.911212E+03	4.745643E-16	1.442950E-17
6.921099E+03	4.795122E-16	1.458228E-17
6.930987E+03	4.844226E-16	1.473403E-17
6.940874E+03	4.892262E-16	1.488264E-17
6.950761E+03	4.938619E-16	1.502625E-17
6.960649E+03	4.982908E-16	1.516367E-17
6.970536E+03	5.024971E-16	1.529443E-17
6.980423E+03	5.064688E-16	1.541816E-17
6.990310E+03	5.102153E-16	1.553513E-17
7.000198E+03	5.137585E-16	1.564603E-17
7.010085E+03	5.171301E-16	1.575180E-17
7.019972E+03	5.203682E-16	1.585361E-17
7.029860E+03	5.235140E-16	1.595272E-17
7.039747E+03	5.266018E-16	1.605017E-17
7.049634E+03	5.296682E-16	1.614708E-17
7.059521E+03	5.327438E-16	1.624437E-17
7.069409E+03	5.358565E-16	1.634291E-17
7.079296E+03	5.389972E-16	1.644241E-17
7.089183E+03	5.421854E-16	1.654348E-17
7.099071E+03	5.453884E-16	1.664512E-17
7.108958E+03	5.485895E-16	1.674683E-17
7.118845E+03	5.517551E-16	1.684757E-17
7.128732E+03	5.548366E-16	1.694587E-17
7.138620E+03	5.577851E-16	1.704024E-17
7.148507E+03	5.605480E-16	1.712905E-17
7.158394E+03	5.630624E-16	1.721039E-17
7.168282E+03	5.652718E-16	1.728253E-17
7.178169E+03	5.671139E-16	1.734356E-17
7.188056E+03	5.685436E-16	1.739208E-17
7.197943E+03	5.694993E-16	1.742621E-17
7.207831E+03	5.699413E-16	1.744472E-17
7.217718E+03	5.698379E-16	1.744662E-17
7.227605E+03	5.691679E-16	1.743126E-17
7.237493E+03	5.679067E-16	1.739786E-17
7.247380E+03	5.660557E-16	1.734644E-17
7.257267E+03	5.636273E-16	1.727739E-17
7.267154E+03	5.606371E-16	1.719114E-17
7.277042E+03	5.571169E-16	1.708867E-17
7.286929E+03	5.530980E-16	1.697092E-17
7.296816E+03	5.486178E-16	1.683902E-17
7.306704E+03	5.437231E-16	1.669439E-17
7.316591E+03	5.384630E-16	1.653853E-17
7.326478E+03	5.328726E-16	1.637249E-17
7.336365E+03	5.270070E-16	1.619797E-17
7.346253E+03	5.208994E-16	1.601597E-17
7.356140E+03	5.146014E-16	1.582806E-17
7.366027E+03	5.081560E-16	1.563557E-17
7.375915E+03	5.016107E-16	1.543994E-17
7.385802E+03	4.949983E-16	1.524218E-17
7.395689E+03	4.883633E-16	1.504366E-17
7.405576E+03	4.817478E-16	1.484567E-17
7.415464E+03	4.751867E-16	1.464928E-17
7.425351E+03	4.687188E-16	1.445569E-17
7.435238E+03	4.623763E-16	1.426588E-17
7.445126E+03	4.561902E-16	1.408082E-17
7.455013E+03	4.502042E-16	1.390185E-17
7.464900E+03	4.444534E-16	1.373007E-17
7.474787E+03	4.389688E-16	1.356644E-17
7.484675E+03	4.337973E-16	1.341241E-17
7.494562E+03	4.289665E-16	1.326885E-17
7.504449E+03	4.245185E-16	1.313707E-17
7.514337E+03	4.204751E-16	1.301775E-17
7.524224E+03	4.168662E-16	1.291184E-17
7.534111E+03	4.137068E-16	1.281982E-17
7.543998E+03	4.110243E-16	1.274256E-17
7.553886E+03	4.088299E-16	1.268041E-17
7.563773E+03	4.071239E-16	1.263341E-17
7.573660E+03	4.059045E-16	1.260153E-17
7.583548E+03	4.051733E-16	1.258482E-17
7.593435E+03	4.049065E-16	1.258258E-17
7.603322E+03	4.050761E-16	1.259395E-17
7.613209E+03	4.056446E-16	1.261778E-17
7.623097E+03	4.065706E-16	1.265280E-17
7.632984E+03	4.077933E-16	1.269715E-17
7.642871E+03	4.092510E-16	1.274889E-17
7.652759E+03	4.108827E-16	1.280615E-17
7.662646E+03	4.126142E-16	1.286662E-17
7.672533E+03	4.143768E-16	1.292816E-17
