#wls	flux	fluxerr
1.581966E+03	3.942342E-16	1.528930E-17
1.621515E+03	4.029358E-16	1.562312E-17
1.661064E+03	4.110814E-16	1.593513E-17
1.700613E+03	4.186710E-16	1.622535E-17
1.740162E+03	4.256243E-16	1.649066E-17
1.779711E+03	4.318895E-16	1.672908E-17
1.819260E+03	4.372092E-16	1.693066E-17
1.858810E+03	4.415396E-16	1.709370E-17
1.898359E+03	4.445728E-16	1.720635E-17
1.937908E+03	4.462586E-16	1.726667E-17
1.977457E+03	4.464708E-16	1.726983E-17
2.017006E+03	4.453144E-16	1.721995E-17
2.056555E+03	4.433917E-16	1.714034E-17
2.096104E+03	4.417192E-16	1.707033E-17
2.135654E+03	4.416358E-16	1.706162E-17
2.175203E+03	4.441070E-16	1.715144E-17
2.214752E+03	4.489683E-16	1.733335E-17
2.254301E+03	4.556172E-16	1.758397E-17
2.293850E+03	4.626697E-16	1.784986E-17
2.333399E+03	4.693051E-16	1.809931E-17
2.372948E+03	4.748124E-16	1.830494E-17
2.412498E+03	4.787902E-16	1.845132E-17
2.452047E+03	4.812753E-16	1.853992E-17
2.491596E+03	4.820300E-16	1.856166E-17
2.531145E+03	4.812622E-16	1.852461E-17
2.570694E+03	4.790502E-16	1.843185E-17
2.610243E+03	4.753441E-16	1.828154E-17
2.649792E+03	4.703939E-16	1.808336E-17
2.689342E+03	4.642408E-16	1.783896E-17
2.728891E+03	4.570061E-16	1.755306E-17
2.768440E+03	4.487567E-16	1.722829E-17
2.807989E+03	4.396342E-16	1.687016E-17
2.847538E+03	4.298415E-16	1.648649E-17
2.887087E+03	4.194118E-16	1.607861E-17
2.926636E+03	4.086028E-16	1.565643E-17
2.966185E+03	3.976469E-16	1.522890E-17
2.976073E+03	3.948984E-16	1.512169E-17
2.985960E+03	3.921256E-16	1.501357E-17
2.995847E+03	3.894251E-16	1.490824E-17
3.005735E+03	3.867029E-16	1.480209E-17
3.015622E+03	3.840071E-16	1.469698E-17
3.025509E+03	3.813385E-16	1.459292E-17
3.035396E+03	3.786552E-16	1.448832E-17
3.045284E+03	3.760446E-16	1.438652E-17
3.055171E+03	3.734321E-16	1.428466E-17
3.065058E+03	3.709031E-16	1.418602E-17
3.074946E+03	3.683696E-16	1.408722E-17
3.084833E+03	3.659153E-16	1.399146E-17
3.094720E+03	3.634959E-16	1.389706E-17
3.104607E+03	3.611103E-16	1.380397E-17
3.114495E+03	3.587571E-16	1.371213E-17
3.124382E+03	3.564749E-16	1.362302E-17
3.134269E+03	3.542612E-16	1.353654E-17
3.144157E+03	3.520746E-16	1.345112E-17
3.154044E+03	3.499146E-16	1.336672E-17
3.163931E+03	3.478550E-16	1.328618E-17
3.173818E+03	3.458181E-16	1.320651E-17
3.183706E+03	3.438394E-16	1.312908E-17
3.193593E+03	3.419164E-16	1.305379E-17
3.203480E+03	3.400825E-16	1.298192E-17
3.213368E+03	3.382989E-16	1.291197E-17
3.223255E+03	3.365629E-16	1.284386E-17
3.233142E+03	3.348724E-16	1.277750E-17
3.243029E+03	3.332924E-16	1.271535E-17
3.252917E+03	3.317510E-16	1.265469E-17
3.262804E+03	3.302787E-16	1.259668E-17
3.272691E+03	3.288718E-16	1.254117E-17
3.282579E+03	3.275582E-16	1.248923E-17
3.292466E+03	3.263015E-16	1.243946E-17
3.302353E+03	3.250978E-16	1.239171E-17
3.312240E+03	3.239740E-16	1.234702E-17
3.322128E+03	3.229249E-16	1.230518E-17
3.332015E+03	3.219752E-16	1.226713E-17
3.341902E+03	3.210601E-16	1.223041E-17
3.351790E+03	3.202338E-16	1.219707E-17
3.361677E+03	3.194900E-16	1.216687E-17
3.371564E+03	3.187949E-16	1.213853E-17
3.381451E+03	3.181990E-16	1.211396E-17
3.391339E+03	3.176680E-16	1.209187E-17
3.401226E+03	3.171964E-16	1.207203E-17
3.411113E+03	3.168319E-16	1.205627E-17
3.421001E+03	3.165143E-16	1.204229E-17
3.430888E+03	3.162648E-16	1.203090E-17
3.440775E+03	3.160770E-16	1.202185E-17
3.450662E+03	3.159707E-16	1.201589E-17
3.460550E+03	3.159393E-16	1.201278E-17
3.470437E+03	3.159769E-16	1.201228E-17
3.480324E+03	3.160779E-16	1.201418E-17
3.490212E+03	3.162371E-16	1.201829E-17
3.500099E+03	3.164734E-16	1.202532E-17
3.509986E+03	3.167588E-16	1.203420E-17
3.519873E+03	3.171351E-16	1.204653E-17
3.529761E+03	3.175534E-16	1.206043E-17
3.539648E+03	3.180557E-16	1.207752E-17
3.549535E+03	3.186176E-16	1.209685E-17
3.559423E+03	3.192596E-16	1.211921E-17
3.569310E+03	3.199599E-16	1.214377E-17
3.579197E+03	3.207405E-16	1.217136E-17
3.589084E+03	3.216028E-16	1.220204E-17
3.598972E+03	3.225493E-16	1.223588E-17
3.608859E+03	3.236033E-16	1.227379E-17
3.618746E+03	3.247302E-16	1.231444E-17
3.628634E+03	3.259746E-16	1.235952E-17
3.638521E+03	3.273235E-16	1.240854E-17
3.648408E+03	3.288027E-16	1.246248E-17
3.658295E+03	3.304017E-16	1.252093E-17
3.668183E+03	3.321288E-16	1.258421E-17
3.678070E+03	3.340107E-16	1.265331E-17
3.687957E+03	3.360556E-16	1.272857E-17
3.697845E+03	3.382721E-16	1.281028E-17
3.707732E+03	3.406517E-16	1.289814E-17
3.717619E+03	3.432026E-16	1.299244E-17
3.727506E+03	3.459495E-16	1.309411E-17
3.737394E+03	3.488985E-16	1.320340E-17
3.747281E+03	3.520550E-16	1.332048E-17
3.757168E+03	3.553913E-16	1.344432E-17
3.767056E+03	3.589580E-16	1.357682E-17
3.776943E+03	3.627083E-16	1.371621E-17
3.786830E+03	3.666725E-16	1.386363E-17
3.796717E+03	3.708468E-16	1.401892E-17
3.806605E+03	3.751946E-16	1.418072E-17
3.816492E+03	3.797228E-16	1.434926E-17
3.826379E+03	3.844353E-16	1.452469E-17
3.836267E+03	3.892882E-16	1.470536E-17
3.846154E+03	3.942653E-16	1.489064E-17
3.856041E+03	3.993768E-16	1.508092E-17
3.865928E+03	4.045573E-16	1.527373E-17
3.875816E+03	4.098121E-16	1.546926E-17
3.885703E+03	4.151008E-16	1.566599E-17
3.895590E+03	4.203956E-16	1.586287E-17
3.905478E+03	4.256536E-16	1.605828E-17
3.915365E+03	4.308585E-16	1.625160E-17
3.925252E+03	4.359656E-16	1.644116E-17
3.935139E+03	4.409576E-16	1.662629E-17
3.945027E+03	4.457759E-16	1.680480E-17
3.954914E+03	4.503906E-16	1.697555E-17
3.964801E+03	4.547862E-16	1.713798E-17
3.974689E+03	4.589219E-16	1.729054E-17
3.984576E+03	4.627726E-16	1.743231E-17
3.994463E+03	4.663160E-16	1.756243E-17
4.004350E+03	4.695199E-16	1.767971E-17
4.014238E+03	4.723817E-16	1.778407E-17
4.024125E+03	4.748644E-16	1.787410E-17
4.034012E+03	4.769614E-16	1.794957E-17
4.043900E+03	4.786825E-16	1.801086E-17
4.053787E+03	4.800297E-16	1.805805E-17
4.063674E+03	4.809852E-16	1.809049E-17
4.073561E+03	4.815611E-16	1.810863E-17
4.083449E+03	4.817851E-16	1.811352E-17
4.093336E+03	4.816655E-16	1.810549E-17
4.103223E+03	4.812154E-16	1.808503E-17
4.113111E+03	4.804736E-16	1.805361E-17
4.122998E+03	4.794704E-16	1.801237E-17
4.132885E+03	4.782174E-16	1.796177E-17
4.142772E+03	4.767605E-16	1.790351E-17
4.152660E+03	4.751360E-16	1.783898E-17
4.162547E+03	4.733613E-16	1.776883E-17
4.172434E+03	4.714944E-16	1.769524E-17
4.182322E+03	4.695632E-16	1.761926E-17
4.192209E+03	4.675955E-16	1.754193E-17
4.202096E+03	4.656378E-16	1.746501E-17
4.211983E+03	4.637073E-16	1.738912E-17
4.221871E+03	4.618570E-16	1.731627E-17
4.231758E+03	4.601020E-16	1.724701E-17
4.241645E+03	4.584742E-16	1.718254E-17
4.251533E+03	4.570122E-16	1.712431E-17
4.261420E+03	4.557352E-16	1.707302E-17
4.271307E+03	4.546696E-16	1.702967E-17
4.281194E+03	4.538390E-16	1.699513E-17
4.291082E+03	4.532574E-16	1.696991E-17
4.300969E+03	4.529442E-16	1.695475E-17
4.310856E+03	4.529167E-16	1.695029E-17
4.320744E+03	4.531973E-16	1.695735E-17
4.330631E+03	4.537748E-16	1.697551E-17
4.340518E+03	4.546812E-16	1.700596E-17
4.350405E+03	4.559077E-16	1.704836E-17
4.360293E+03	4.574500E-16	1.710255E-17
4.370180E+03	4.593225E-16	1.716905E-17
4.380067E+03	4.615067E-16	1.724717E-17
4.389955E+03	4.640018E-16	1.733688E-17
4.399842E+03	4.667962E-16	1.743772E-17
4.409729E+03	4.698660E-16	1.754880E-17
4.419616E+03	4.731838E-16	1.766910E-17
4.429504E+03	4.767387E-16	1.779819E-17
4.439391E+03	4.804866E-16	1.793443E-17
4.449278E+03	4.843934E-16	1.807655E-17
4.459166E+03	4.884279E-16	1.822336E-17
4.469053E+03	4.925329E-16	1.837274E-17
4.478940E+03	4.966766E-16	1.852351E-17
4.488827E+03	5.007877E-16	1.867299E-17
4.498715E+03	5.048353E-16	1.882004E-17
4.508602E+03	5.087440E-16	1.896185E-17
4.518489E+03	5.124655E-16	1.909662E-17
4.528377E+03	5.159377E-16	1.922205E-17
4.538264E+03	5.191134E-16	1.933638E-17
4.548151E+03	5.219410E-16	1.943770E-17
4.558038E+03	5.243584E-16	1.952370E-17
4.567926E+03	5.263293E-16	1.959304E-17
4.577813E+03	5.278100E-16	1.964411E-17
4.587700E+03	5.287778E-16	1.967608E-17
4.597588E+03	5.291978E-16	1.968765E-17
4.607475E+03	5.290724E-16	1.967893E-17
4.617362E+03	5.283859E-16	1.964934E-17
4.627249E+03	5.271471E-16	1.959924E-17
4.637137E+03	5.253821E-16	1.952959E-17
4.647024E+03	5.231133E-16	1.944125E-17
4.656911E+03	5.203799E-16	1.933569E-17
4.666798E+03	5.172297E-16	1.921468E-17
4.676686E+03	5.137183E-16	1.908031E-17
4.686573E+03	5.099015E-16	1.893466E-17
4.696460E+03	5.058588E-16	1.878068E-17
4.706348E+03	5.016608E-16	1.862100E-17
4.716235E+03	4.973735E-16	1.845808E-17
4.726122E+03	4.930760E-16	1.829485E-17
4.736009E+03	4.888397E-16	1.813395E-17
4.745897E+03	4.847333E-16	1.797794E-17
4.755784E+03	4.808215E-16	1.782922E-17
4.765671E+03	4.771640E-16	1.768998E-17
4.775559E+03	4.738196E-16	1.756242E-17
4.785446E+03	4.708235E-16	1.744781E-17
4.795333E+03	4.682142E-16	1.734758E-17
4.805220E+03	4.660330E-16	1.726326E-17
4.815108E+03	4.642901E-16	1.719521E-17
4.824995E+03	4.629978E-16	1.714387E-17
4.834882E+03	4.621694E-16	1.710973E-17
4.844770E+03	4.617930E-16	1.709234E-17
4.854657E+03	4.618531E-16	1.709111E-17
4.864544E+03	4.623313E-16	1.710535E-17
4.874431E+03	4.631904E-16	1.713369E-17
4.884319E+03	4.643976E-16	1.717489E-17
4.894206E+03	4.659144E-16	1.722752E-17
4.904093E+03	4.676879E-16	1.728964E-17
4.913981E+03	4.696733E-16	1.735955E-17
4.923868E+03	4.718142E-16	1.743520E-17
4.933755E+03	4.740713E-16	1.751511E-17
4.943642E+03	4.763967E-16	1.759753E-17
4.953530E+03	4.787421E-16	1.768065E-17
4.963417E+03	4.810747E-16	1.776327E-17
4.973304E+03	4.833684E-16	1.784443E-17
4.983192E+03	4.855886E-16	1.792285E-17
4.993079E+03	4.877355E-16	1.799854E-17
5.002966E+03	4.897909E-16	1.807083E-17
5.012853E+03	4.917598E-16	1.813992E-17
5.022741E+03	4.936500E-16	1.820608E-17
5.032628E+03	4.954753E-16	1.826982E-17
5.042515E+03	4.972604E-16	1.833207E-17
5.052403E+03	4.990235E-16	1.839349E-17
5.062290E+03	5.007967E-16	1.845527E-17
5.072177E+03	5.026084E-16	1.851845E-17
5.082064E+03	5.044825E-16	1.858392E-17
5.091952E+03	5.064585E-16	1.865312E-17
5.101839E+03	5.085585E-16	1.872687E-17
5.111726E+03	5.108085E-16	1.880613E-17
5.121614E+03	5.132317E-16	1.889174E-17
5.131501E+03	5.158536E-16	1.898464E-17
5.141388E+03	5.186804E-16	1.908506E-17
5.151275E+03	5.217421E-16	1.919409E-17
5.161163E+03	5.250378E-16	1.931170E-17
5.171050E+03	5.285738E-16	1.943811E-17
5.180937E+03	5.323582E-16	1.957362E-17
5.190825E+03	5.363898E-16	1.971818E-17
5.200712E+03	5.406579E-16	1.987139E-17
5.210599E+03	5.451591E-16	2.003313E-17
5.220486E+03	5.498743E-16	2.020268E-17
5.230374E+03	5.547976E-16	2.037983E-17
5.240261E+03	5.598960E-16	2.056336E-17
5.250148E+03	5.651433E-16	2.075230E-17
5.260036E+03	5.705207E-16	2.094597E-17
5.269923E+03	5.759815E-16	2.114265E-17
5.279810E+03	5.814920E-16	2.134110E-17
5.289697E+03	5.870019E-16	2.153947E-17
5.299585E+03	5.924685E-16	2.173620E-17
5.309472E+03	5.978442E-16	2.192954E-17
5.319359E+03	6.030529E-16	2.211671E-17
5.329247E+03	6.080506E-16	2.229610E-17
5.339134E+03	6.127597E-16	2.246487E-17
5.349021E+03	6.171241E-16	2.262096E-17
5.358908E+03	6.210551E-16	2.276113E-17
5.368796E+03	6.245011E-16	2.288351E-17
5.378683E+03	6.273868E-16	2.298534E-17
5.388570E+03	6.296388E-16	2.306393E-17
5.398458E+03	6.312009E-16	2.311726E-17
5.408345E+03	6.320164E-16	2.314326E-17
5.418232E+03	6.320305E-16	2.313992E-17
5.428119E+03	6.312109E-16	2.310609E-17
5.438007E+03	6.295306E-16	2.304079E-17
5.447894E+03	6.269762E-16	2.294354E-17
5.457781E+03	6.235560E-16	2.281467E-17
5.467669E+03	6.192752E-16	2.265438E-17
5.477556E+03	6.141809E-16	2.246441E-17
5.487443E+03	6.083243E-16	2.224665E-17
5.497330E+03	6.017610E-16	2.200313E-17
5.507218E+03	5.945855E-16	2.173733E-17
5.517105E+03	5.868876E-16	2.145254E-17
5.526992E+03	5.787740E-16	2.115267E-17
5.536880E+03	5.703598E-16	2.084193E-17
5.546767E+03	5.617712E-16	2.052493E-17
5.556654E+03	5.531260E-16	2.020599E-17
5.566541E+03	5.445530E-16	1.988980E-17
5.576429E+03	5.361679E-16	1.958058E-17
5.586316E+03	5.280925E-16	1.928279E-17
5.596203E+03	5.204314E-16	1.900023E-17
5.606091E+03	5.132864E-16	1.873661E-17
5.615978E+03	5.067548E-16	1.849548E-17
5.625865E+03	5.009184E-16	1.827981E-17
5.635752E+03	4.958374E-16	1.809178E-17
5.645640E+03	4.915797E-16	1.793386E-17
5.655527E+03	4.881857E-16	1.780752E-17
5.665414E+03	4.856921E-16	1.771406E-17
5.675302E+03	4.841069E-16	1.765378E-17
5.685189E+03	4.834426E-16	1.762711E-17
5.695076E+03	4.836828E-16	1.763345E-17
5.704963E+03	4.848003E-16	1.767178E-17
5.714851E+03	4.867483E-16	1.774040E-17
5.724738E+03	4.894792E-16	1.783754E-17
5.734625E+03	4.929123E-16	1.796027E-17
5.744513E+03	4.969686E-16	1.810569E-17
5.754400E+03	5.015483E-16	1.827016E-17
5.764287E+03	5.065517E-16	1.845003E-17
5.774174E+03	5.118623E-16	1.864108E-17
5.784062E+03	5.173693E-16	1.883925E-17
5.793949E+03	5.229453E-16	1.903991E-17
5.803836E+03	5.284843E-16	1.923920E-17
5.813724E+03	5.338646E-16	1.943268E-17
5.823611E+03	5.389875E-16	1.961678E-17
5.833498E+03	5.437594E-16	1.978808E-17
5.843385E+03	5.480943E-16	1.994346E-17
5.853273E+03	5.519312E-16	2.008072E-17
5.863160E+03	5.552091E-16	2.019764E-17
5.873047E+03	5.579049E-16	2.029338E-17
5.882935E+03	5.599906E-16	2.036694E-17
5.892822E+03	5.614697E-16	2.041846E-17
5.902709E+03	5.623495E-16	2.044820E-17
5.912596E+03	5.626559E-16	2.045712E-17
5.922484E+03	5.624256E-16	2.044655E-17
5.932371E+03	5.617039E-16	2.041815E-17
5.942258E+03	5.605377E-16	2.037363E-17
5.952146E+03	5.589841E-16	2.031508E-17
5.962033E+03	5.571029E-16	2.024466E-17
5.971920E+03	5.549548E-16	2.016459E-17
5.981807E+03	5.525945E-16	2.007685E-17
5.991695E+03	5.500801E-16	1.998357E-17
6.001582E+03	5.474665E-16	1.988674E-17
6.011469E+03	5.447989E-16	1.978799E-17
6.021357E+03	5.421236E-16	1.968901E-17
6.031244E+03	5.394754E-16	1.959107E-17
6.041131E+03	5.368941E-16	1.949561E-17
6.051018E+03	5.343981E-16	1.940330E-17
6.060906E+03	5.320198E-16	1.931531E-17
6.070793E+03	5.297652E-16	1.923185E-17
6.080680E+03	5.276497E-16	1.915350E-17
6.090568E+03	5.256775E-16	1.908039E-17
6.100455E+03	5.238477E-16	1.901249E-17
6.110342E+03	5.221641E-16	1.894995E-17
6.120229E+03	5.206160E-16	1.889237E-17
6.130117E+03	5.191787E-16	1.883885E-17
6.140004E+03	5.178292E-16	1.878856E-17
6.149891E+03	5.165473E-16	1.874077E-17
6.159779E+03	5.153064E-16	1.869450E-17
6.169666E+03	5.140849E-16	1.864898E-17
6.179553E+03	5.128679E-16	1.860367E-17
6.189440E+03	5.116330E-16	1.855774E-17
6.199328E+03	5.103753E-16	1.851102E-17
6.209215E+03	5.090771E-16	1.846288E-17
6.219102E+03	5.077331E-16	1.841311E-17
6.228990E+03	5.063405E-16	1.836161E-17
6.238877E+03	5.048940E-16	1.830821E-17
6.248764E+03	5.033952E-16	1.825294E-17
6.258651E+03	5.018374E-16	1.819557E-17
6.268539E+03	5.002354E-16	1.813663E-17
6.278426E+03	4.985796E-16	1.807578E-17
6.288313E+03	4.968861E-16	1.801360E-17
6.298201E+03	4.951463E-16	1.794977E-17
6.308088E+03	4.933667E-16	1.788454E-17
6.317975E+03	4.915596E-16	1.781835E-17
6.327862E+03	4.897219E-16	1.775108E-17
6.337750E+03	4.878619E-16	1.768304E-17
6.347637E+03	4.859835E-16	1.761436E-17
6.357524E+03	4.840972E-16	1.754543E-17
6.367412E+03	4.822102E-16	1.747651E-17
6.377299E+03	4.803364E-16	1.740809E-17
6.387186E+03	4.784822E-16	1.734042E-17
6.397073E+03	4.766651E-16	1.727413E-17
6.406961E+03	4.748993E-16	1.720972E-17
6.416848E+03	4.731943E-16	1.714755E-17
6.426735E+03	4.715741E-16	1.708848E-17
6.436623E+03	4.700462E-16	1.703279E-17
6.446510E+03	4.686299E-16	1.698116E-17
6.456397E+03	4.673258E-16	1.693363E-17
6.466284E+03	4.661393E-16	1.689039E-17
6.476172E+03	4.650654E-16	1.685126E-17
6.486059E+03	4.640929E-16	1.681582E-17
6.495946E+03	4.632100E-16	1.678366E-17
6.505833E+03	4.623944E-16	1.675396E-17
6.515721E+03	4.616139E-16	1.672557E-17
6.525608E+03	4.608434E-16	1.669755E-17
6.535495E+03	4.600552E-16	1.666892E-17
6.545383E+03	4.592064E-16	1.663813E-17
6.555270E+03	4.582752E-16	1.660437E-17
6.565157E+03	4.572319E-16	1.656657E-17
6.575044E+03	4.560508E-16	1.652381E-17
6.584932E+03	4.547109E-16	1.647531E-17
6.594819E+03	4.531974E-16	1.642055E-17
6.604706E+03	4.515012E-16	1.635920E-17
6.614594E+03	4.496254E-16	1.629135E-17
6.624481E+03	4.475746E-16	1.621720E-17
6.634368E+03	4.453548E-16	1.613694E-17
6.644255E+03	4.429935E-16	1.605157E-17
6.654143E+03	4.405086E-16	1.596175E-17
6.664030E+03	4.379278E-16	1.586847E-17
6.673917E+03	4.352885E-16	1.577309E-17
6.683805E+03	4.326261E-16	1.567690E-17
6.693692E+03	4.299745E-16	1.558112E-17
6.703579E+03	4.273792E-16	1.548739E-17
6.713466E+03	4.248821E-16	1.539724E-17
6.723354E+03	4.225260E-16	1.531222E-17
6.733241E+03	4.203585E-16	1.523406E-17
6.743128E+03	4.184163E-16	1.516408E-17
6.753016E+03	4.167400E-16	1.510375E-17
6.762903E+03	4.153677E-16	1.505446E-17
6.772790E+03	4.143391E-16	1.501765E-17
6.782677E+03	4.136853E-16	1.499444E-17
6.792565E+03	4.134277E-16	1.498561E-17
6.802452E+03	4.135912E-16	1.499208E-17
6.812339E+03	4.141897E-16	1.501433E-17
6.822227E+03	4.152248E-16	1.505243E-17
6.832114E+03	4.166996E-16	1.510650E-17
6.842001E+03	4.186042E-16	1.517618E-17
6.851888E+03	4.209151E-16	1.526061E-17
6.861776E+03	4.236105E-16	1.535902E-17
6.871663E+03	4.266560E-16	1.547016E-17
6.881550E+03	4.300107E-16	1.559254E-17
6.891438E+03	4.336282E-16	1.572448E-17
6.901325E+03	4.374535E-16	1.586400E-17
6.911212E+03	4.414354E-16	1.600924E-17
6.921099E+03	4.455342E-16	1.615876E-17
6.930987E+03	4.496913E-16	1.631044E-17
6.940874E+03	4.538637E-16	1.646271E-17
6.950761E+03	4.580142E-16	1.661423E-17
6.960649E+03	4.621187E-16	1.676412E-17
6.970536E+03	4.661500E-16	1.691141E-17
6.980423E+03	4.700941E-16	1.705558E-17
6.990310E+03	4.739448E-16	1.719640E-17
7.000198E+03	4.777023E-16	1.733389E-17
7.010085E+03	4.813723E-16	1.746825E-17
7.019972E+03	4.849584E-16	1.759962E-17
7.029860E+03	4.884720E-16	1.772840E-17
7.039747E+03	4.919312E-16	1.785525E-17
7.049634E+03	4.953344E-16	1.798012E-17
7.059521E+03	4.987018E-16	1.810374E-17
7.069409E+03	5.020243E-16	1.822578E-17
7.079296E+03	5.053004E-16	1.834618E-17
7.089183E+03	5.085224E-16	1.846468E-17
7.099071E+03	5.116833E-16	1.858100E-17
7.108958E+03	5.147505E-16	1.869398E-17
7.118845E+03	5.176988E-16	1.880268E-17
7.128732E+03	5.204977E-16	1.890602E-17
7.138620E+03	5.231130E-16	1.900273E-17
7.148507E+03	5.255011E-16	1.909125E-17
7.158394E+03	5.276230E-16	1.917014E-17
7.168282E+03	5.294400E-16	1.923800E-17
7.178169E+03	5.309140E-16	1.929345E-17
7.188056E+03	5.319966E-16	1.933472E-17
7.197943E+03	5.326560E-16	1.936066E-17
7.207831E+03	5.328725E-16	1.937053E-17
7.217718E+03	5.326124E-16	1.936311E-17
7.227605E+03	5.318620E-16	1.933791E-17
7.237493E+03	5.306152E-16	1.929469E-17
7.247380E+03	5.288736E-16	1.923350E-17
7.257267E+03	5.266330E-16	1.915418E-17
7.267154E+03	5.239097E-16	1.905732E-17
7.277042E+03	5.207263E-16	1.894375E-17
7.286929E+03	5.171115E-16	1.881449E-17
7.296816E+03	5.130917E-16	1.867049E-17
7.306704E+03	5.086971E-16	1.851286E-17
7.316591E+03	5.039672E-16	1.834303E-17
7.326478E+03	4.989430E-16	1.816247E-17
7.336365E+03	4.936661E-16	1.797271E-17
7.346253E+03	4.881721E-16	1.777504E-17
7.356140E+03	4.824966E-16	1.757073E-17
7.366027E+03	4.766925E-16	1.736173E-17
7.375915E+03	4.707930E-16	1.714923E-17
7.385802E+03	4.648419E-16	1.693483E-17
7.395689E+03	4.588756E-16	1.671985E-17
7.405576E+03	4.529290E-16	1.650557E-17
7.415464E+03	4.470407E-16	1.629338E-17
7.425351E+03	4.412423E-16	1.608444E-17
7.435238E+03	4.355639E-16	1.587985E-17
7.445126E+03	4.300401E-16	1.568087E-17
7.455013E+03	4.246997E-16	1.548854E-17
7.464900E+03	4.195778E-16	1.530415E-17
7.474787E+03	4.146983E-16	1.512858E-17
7.484675E+03	4.100997E-16	1.496324E-17
7.494562E+03	4.058024E-16	1.480886E-17
7.504449E+03	4.018340E-16	1.466646E-17
7.514337E+03	3.982141E-16	1.453677E-17
7.524224E+03	3.949640E-16	1.442056E-17
7.534111E+03	3.920902E-16	1.431807E-17
7.543998E+03	3.896009E-16	1.422962E-17
7.553886E+03	3.875093E-16	1.415569E-17
7.563773E+03	3.858087E-16	1.409605E-17
7.573660E+03	3.844970E-16	1.405062E-17
7.583548E+03	3.835516E-16	1.401858E-17
7.593435E+03	3.829694E-16	1.399983E-17
7.603322E+03	3.827161E-16	1.399312E-17
7.613209E+03	3.827669E-16	1.399755E-17
7.623097E+03	3.830867E-16	1.401184E-17
7.632984E+03	3.836307E-16	1.403436E-17
7.642871E+03	3.843657E-16	1.406390E-17
7.652759E+03	3.852351E-16	1.409838E-17
7.662646E+03	3.862010E-16	1.413643E-17
7.672533E+03	3.872046E-16	1.417590E-17
