#wls	flux	fluxerr
1.581966E+03	4.670221E-16	2.139268E-17
1.621515E+03	4.780782E-16	2.187894E-17
1.661064E+03	4.884822E-16	2.233393E-17
1.700613E+03	4.983054E-16	2.276094E-17
1.740162E+03	5.073574E-16	2.315132E-17
1.779711E+03	5.156459E-16	2.350549E-17
1.819260E+03	5.227691E-16	2.380522E-17
1.858810E+03	5.287339E-16	2.405094E-17
1.898359E+03	5.332528E-16	2.422974E-17
1.937908E+03	5.360478E-16	2.432918E-17
1.977457E+03	5.371251E-16	2.434979E-17
2.017006E+03	5.365851E-16	2.429637E-17
2.056555E+03	5.352049E-16	2.420431E-17
2.096104E+03	5.341827E-16	2.412786E-17
2.135654E+03	5.351902E-16	2.414237E-17
2.175203E+03	5.394528E-16	2.430268E-17
2.214752E+03	5.467727E-16	2.459926E-17
2.254301E+03	5.562775E-16	2.499234E-17
2.293850E+03	5.663612E-16	2.540938E-17
2.333399E+03	5.758609E-16	2.579814E-17
2.372948E+03	5.837709E-16	2.611368E-17
2.412498E+03	5.896296E-16	2.633565E-17
2.452047E+03	5.932268E-16	2.645505E-17
2.491596E+03	5.944977E-16	2.646945E-17
2.531145E+03	5.934566E-16	2.637994E-17
2.570694E+03	5.900869E-16	2.618631E-17
2.610243E+03	5.844853E-16	2.589334E-17
2.649792E+03	5.767741E-16	2.550698E-17
2.689342E+03	5.672351E-16	2.504017E-17
2.728891E+03	5.559588E-16	2.449738E-17
2.768440E+03	5.432543E-16	2.389268E-17
2.807989E+03	5.292562E-16	2.323237E-17
2.847538E+03	5.141325E-16	2.252421E-17
2.887087E+03	4.980293E-16	2.177495E-17
2.926636E+03	4.811758E-16	2.099493E-17
2.966185E+03	4.638605E-16	2.019699E-17
2.976073E+03	4.595216E-16	1.999743E-17
2.985960E+03	4.551559E-16	1.979685E-17
2.995847E+03	4.508111E-16	1.959734E-17
3.005735E+03	4.464483E-16	1.939719E-17
3.015622E+03	4.421135E-16	1.919842E-17
3.025509E+03	4.378097E-16	1.900115E-17
3.035396E+03	4.335025E-16	1.880388E-17
3.045284E+03	4.292323E-16	1.860837E-17
3.055171E+03	4.250170E-16	1.841540E-17
3.065058E+03	4.208183E-16	1.822330E-17
3.074946E+03	4.167127E-16	1.803539E-17
3.084833E+03	4.126252E-16	1.784841E-17
3.094720E+03	4.086298E-16	1.766556E-17
3.104607E+03	4.046544E-16	1.748373E-17
3.114495E+03	4.007705E-16	1.730600E-17
3.124382E+03	3.969429E-16	1.713084E-17
3.134269E+03	3.931719E-16	1.695828E-17
3.144157E+03	3.894910E-16	1.678973E-17
3.154044E+03	3.858666E-16	1.662377E-17
3.163931E+03	3.823311E-16	1.646177E-17
3.173818E+03	3.788518E-16	1.630232E-17
3.183706E+03	3.754906E-16	1.614808E-17
3.193593E+03	3.721839E-16	1.599632E-17
3.203480E+03	3.689618E-16	1.584831E-17
3.213368E+03	3.658518E-16	1.570524E-17
3.223255E+03	3.628221E-16	1.556574E-17
3.233142E+03	3.598708E-16	1.542971E-17
3.243029E+03	3.570519E-16	1.529947E-17
3.252917E+03	3.543055E-16	1.517244E-17
3.262804E+03	3.516563E-16	1.504967E-17
3.272691E+03	3.491006E-16	1.493101E-17
3.282579E+03	3.466606E-16	1.481738E-17
3.292466E+03	3.443306E-16	1.470854E-17
3.302353E+03	3.420799E-16	1.460317E-17
3.312240E+03	3.399536E-16	1.450319E-17
3.322128E+03	3.379444E-16	1.440828E-17
3.332015E+03	3.360208E-16	1.431709E-17
3.341902E+03	3.342001E-16	1.423034E-17
3.351790E+03	3.324977E-16	1.414869E-17
3.361677E+03	3.309043E-16	1.407173E-17
3.371564E+03	3.293881E-16	1.399810E-17
3.381451E+03	3.280072E-16	1.393026E-17
3.391339E+03	3.267061E-16	1.386585E-17
3.401226E+03	3.255180E-16	1.380626E-17
3.411113E+03	3.244307E-16	1.375098E-17
3.421001E+03	3.234531E-16	1.370036E-17
3.430888E+03	3.225517E-16	1.365299E-17
3.440775E+03	3.217547E-16	1.361006E-17
3.450662E+03	3.210485E-16	1.357096E-17
3.460550E+03	3.204194E-16	1.353513E-17
3.470437E+03	3.198733E-16	1.350280E-17
3.480324E+03	3.194154E-16	1.347418E-17
3.490212E+03	3.190315E-16	1.344868E-17
3.500099E+03	3.187082E-16	1.342571E-17
3.509986E+03	3.184510E-16	1.340551E-17
3.519873E+03	3.182301E-16	1.338681E-17
3.529761E+03	3.180702E-16	1.337065E-17
3.539648E+03	3.179278E-16	1.335521E-17
3.549535E+03	3.177971E-16	1.334022E-17
3.559423E+03	3.176912E-16	1.332625E-17
3.569310E+03	3.176088E-16	1.331323E-17
3.579197E+03	3.175207E-16	1.329994E-17
3.589084E+03	3.174650E-16	1.328798E-17
3.598972E+03	3.174211E-16	1.327648E-17
3.608859E+03	3.174187E-16	1.326668E-17
3.618746E+03	3.174615E-16	1.325874E-17
3.628634E+03	3.175861E-16	1.325416E-17
3.638521E+03	3.177898E-16	1.325285E-17
3.648408E+03	3.181158E-16	1.325658E-17
3.658295E+03	3.185956E-16	1.326667E-17
3.668183E+03	3.192630E-16	1.328449E-17
3.678070E+03	3.201276E-16	1.331044E-17
3.687957E+03	3.212531E-16	1.334713E-17
3.697845E+03	3.226523E-16	1.339509E-17
3.707732E+03	3.243644E-16	1.345589E-17
3.717619E+03	3.264404E-16	1.353165E-17
3.727506E+03	3.288940E-16	1.362287E-17
3.737394E+03	3.317740E-16	1.373155E-17
3.747281E+03	3.351030E-16	1.385858E-17
3.757168E+03	3.389130E-16	1.400523E-17
3.767056E+03	3.432210E-16	1.417217E-17
3.776943E+03	3.480629E-16	1.436082E-17
3.786830E+03	3.534354E-16	1.457100E-17
3.796717E+03	3.593638E-16	1.480369E-17
3.806605E+03	3.658551E-16	1.505912E-17
3.816492E+03	3.728870E-16	1.533633E-17
3.826379E+03	3.804631E-16	1.563540E-17
3.836267E+03	3.885555E-16	1.595513E-17
3.846154E+03	3.971277E-16	1.629397E-17
3.856041E+03	4.061565E-16	1.665093E-17
3.865928E+03	4.155863E-16	1.702367E-17
3.875816E+03	4.253643E-16	1.740999E-17
3.885703E+03	4.354163E-16	1.780682E-17
3.895590E+03	4.456718E-16	1.821125E-17
3.905478E+03	4.560410E-16	1.861959E-17
3.915365E+03	4.664505E-16	1.902883E-17
3.925252E+03	4.767861E-16	1.943431E-17
3.935139E+03	4.869532E-16	1.983218E-17
3.945027E+03	4.968667E-16	2.021899E-17
3.954914E+03	5.063929E-16	2.058934E-17
3.964801E+03	5.154605E-16	2.094035E-17
3.974689E+03	5.239662E-16	2.126789E-17
3.984576E+03	5.318135E-16	2.156810E-17
3.994463E+03	5.389147E-16	2.183749E-17
4.004350E+03	5.452300E-16	2.207451E-17
4.014238E+03	5.506717E-16	2.227572E-17
4.024125E+03	5.552147E-16	2.244018E-17
4.034012E+03	5.588362E-16	2.256706E-17
4.043900E+03	5.615053E-16	2.265522E-17
4.053787E+03	5.632526E-16	2.270598E-17
4.063674E+03	5.640642E-16	2.271889E-17
4.073561E+03	5.639981E-16	2.269638E-17
4.083449E+03	5.630887E-16	2.263992E-17
4.093336E+03	5.613816E-16	2.255144E-17
4.103223E+03	5.589538E-16	2.243411E-17
4.113111E+03	5.558668E-16	2.229048E-17
4.122998E+03	5.521881E-16	2.212332E-17
4.132885E+03	5.480204E-16	2.193681E-17
4.142772E+03	5.434257E-16	2.173348E-17
4.152660E+03	5.384873E-16	2.151671E-17
4.162547E+03	5.332966E-16	2.129018E-17
4.172434E+03	5.279319E-16	2.105705E-17
4.182322E+03	5.224588E-16	2.081995E-17
4.192209E+03	5.169581E-16	2.058212E-17
4.202096E+03	5.114879E-16	2.034585E-17
4.211983E+03	5.061203E-16	2.011404E-17
4.221871E+03	5.009237E-16	1.988938E-17
4.231758E+03	4.959372E-16	1.967339E-17
4.241645E+03	4.912393E-16	1.946918E-17
4.251533E+03	4.868643E-16	1.927807E-17
4.261420E+03	4.828771E-16	1.910259E-17
4.271307E+03	4.793158E-16	1.894421E-17
4.281194E+03	4.762403E-16	1.880525E-17
4.291082E+03	4.736844E-16	1.868700E-17
4.300969E+03	4.717025E-16	1.859153E-17
4.310856E+03	4.703306E-16	1.852020E-17
4.320744E+03	4.696019E-16	1.847427E-17
4.330631E+03	4.695608E-16	1.845539E-17
4.340518E+03	4.702261E-16	1.846423E-17
4.350405E+03	4.716274E-16	1.850189E-17
4.360293E+03	4.737897E-16	1.856924E-17
4.370180E+03	4.767256E-16	1.866672E-17
4.380067E+03	4.804427E-16	1.879452E-17
4.389955E+03	4.849495E-16	1.895290E-17
4.399842E+03	4.902334E-16	1.914127E-17
4.409729E+03	4.962887E-16	1.935933E-17
4.419616E+03	5.030871E-16	1.960589E-17
4.429504E+03	5.105981E-16	1.987969E-17
4.439391E+03	5.187809E-16	2.017904E-17
4.449278E+03	5.275679E-16	2.050126E-17
4.459166E+03	5.369016E-16	2.084404E-17
4.469053E+03	5.466952E-16	2.120396E-17
4.478940E+03	5.568480E-16	2.157707E-17
4.488827E+03	5.672512E-16	2.195911E-17
4.498715E+03	5.777739E-16	2.234499E-17
4.508602E+03	5.882705E-16	2.272908E-17
4.518489E+03	5.985981E-16	2.310587E-17
4.528377E+03	6.085792E-16	2.346853E-17
4.538264E+03	6.180436E-16	2.381054E-17
4.548151E+03	6.268174E-16	2.412527E-17
4.558038E+03	6.347106E-16	2.440550E-17
4.567926E+03	6.415715E-16	2.464549E-17
4.577813E+03	6.472278E-16	2.483874E-17
4.587700E+03	6.515412E-16	2.498011E-17
4.597588E+03	6.543977E-16	2.506535E-17
4.607475E+03	6.557129E-16	2.509142E-17
4.617362E+03	6.554289E-16	2.505627E-17
4.627249E+03	6.535510E-16	2.496029E-17
4.637137E+03	6.500849E-16	2.480386E-17
4.647024E+03	6.451268E-16	2.459084E-17
4.656911E+03	6.387732E-16	2.432506E-17
4.666798E+03	6.311753E-16	2.401244E-17
4.676686E+03	6.225254E-16	2.366042E-17
4.686573E+03	6.130278E-16	2.327687E-17
4.696460E+03	6.029225E-16	2.287100E-17
4.706348E+03	5.924472E-16	2.245188E-17
4.716235E+03	5.818440E-16	2.202871E-17
4.726122E+03	5.713666E-16	2.161111E-17
4.736009E+03	5.612387E-16	2.120752E-17
4.745897E+03	5.516895E-16	2.082654E-17
4.755784E+03	5.429152E-16	2.047552E-17
4.765671E+03	5.351081E-16	2.016162E-17
4.775559E+03	5.284214E-16	1.989048E-17
4.785446E+03	5.229751E-16	1.966652E-17
4.795333E+03	5.188732E-16	1.949349E-17
4.805220E+03	5.161900E-16	1.937405E-17
4.815108E+03	5.149582E-16	1.930926E-17
4.824995E+03	5.151911E-16	1.929947E-17
4.834882E+03	5.168644E-16	1.934360E-17
4.844770E+03	5.199147E-16	1.943914E-17
4.854657E+03	5.242569E-16	1.958277E-17
4.864544E+03	5.297664E-16	1.976969E-17
4.874431E+03	5.362863E-16	1.999393E-17
4.884319E+03	5.436239E-16	2.024822E-17
4.894206E+03	5.515797E-16	2.052503E-17
4.904093E+03	5.599168E-16	2.081552E-17
4.913981E+03	5.683935E-16	2.111066E-17
4.923868E+03	5.767665E-16	2.140141E-17
4.933755E+03	5.848013E-16	2.167910E-17
4.943642E+03	5.922898E-16	2.193605E-17
4.953530E+03	5.990409E-16	2.216526E-17
4.963417E+03	6.049157E-16	2.236168E-17
4.973304E+03	6.098085E-16	2.252148E-17
4.983192E+03	6.136762E-16	2.264320E-17
4.993079E+03	6.165202E-16	2.272699E-17
5.002966E+03	6.183828E-16	2.277452E-17
5.012853E+03	6.193683E-16	2.278972E-17
5.022741E+03	6.195942E-16	2.277701E-17
5.032628E+03	6.192017E-16	2.274166E-17
5.042515E+03	6.183723E-16	2.269039E-17
5.052403E+03	6.172531E-16	2.262863E-17
5.062290E+03	6.160209E-16	2.256289E-17
5.072177E+03	6.148298E-16	2.249882E-17
5.082064E+03	6.138207E-16	2.244159E-17
5.091952E+03	6.131111E-16	2.239545E-17
5.101839E+03	6.128135E-16	2.236448E-17
5.111726E+03	6.130152E-16	2.235184E-17
5.121614E+03	6.137855E-16	2.236000E-17
5.131501E+03	6.151777E-16	2.239084E-17
5.141388E+03	6.172294E-16	2.244568E-17
5.151275E+03	6.199722E-16	2.252561E-17
5.161163E+03	6.234061E-16	2.263055E-17
5.171050E+03	6.275475E-16	2.276105E-17
5.180937E+03	6.323907E-16	2.291684E-17
5.190825E+03	6.379157E-16	2.309712E-17
5.200712E+03	6.441019E-16	2.330110E-17
5.210599E+03	6.509219E-16	2.352773E-17
5.220486E+03	6.583496E-16	2.377602E-17
5.230374E+03	6.663469E-16	2.404454E-17
5.240261E+03	6.748648E-16	2.433147E-17
5.250148E+03	6.838573E-16	2.463513E-17
5.260036E+03	6.932824E-16	2.495397E-17
5.269923E+03	7.030898E-16	2.528615E-17
5.279810E+03	7.132202E-16	2.562952E-17
5.289697E+03	7.236194E-16	2.598210E-17
5.299585E+03	7.342385E-16	2.634213E-17
5.309472E+03	7.450092E-16	2.670715E-17
5.319359E+03	7.558706E-16	2.707499E-17
5.329247E+03	7.667321E-16	2.744239E-17
5.339134E+03	7.774973E-16	2.780593E-17
5.349021E+03	7.880641E-16	2.816197E-17
5.358908E+03	7.982978E-16	2.850572E-17
5.368796E+03	8.080534E-16	2.883203E-17
5.378683E+03	8.171727E-16	2.913533E-17
5.388570E+03	8.254602E-16	2.940870E-17
5.398458E+03	8.327160E-16	2.964510E-17
5.408345E+03	8.387061E-16	2.983628E-17
5.418232E+03	8.431940E-16	2.997394E-17
5.428119E+03	8.459503E-16	3.005007E-17
5.438007E+03	8.467399E-16	3.005643E-17
5.447894E+03	8.453618E-16	2.998607E-17
5.457781E+03	8.416561E-16	2.983346E-17
5.467669E+03	8.355268E-16	2.959539E-17
5.477556E+03	8.269377E-16	2.927075E-17
5.487443E+03	8.159291E-16	2.886114E-17
5.497330E+03	8.026305E-16	2.837131E-17
5.507218E+03	7.872340E-16	2.780820E-17
5.517105E+03	7.700204E-16	2.718186E-17
5.526992E+03	7.513232E-16	2.650418E-17
5.536880E+03	7.315222E-16	2.578863E-17
5.546767E+03	7.110205E-16	2.504948E-17
5.556654E+03	6.902497E-16	2.430195E-17
5.566541E+03	6.696325E-16	2.356094E-17
5.576429E+03	6.495772E-16	2.284077E-17
5.586316E+03	6.304736E-16	2.215508E-17
5.596203E+03	6.126589E-16	2.151563E-17
5.606091E+03	5.964517E-16	2.093353E-17
5.615978E+03	5.821283E-16	2.041833E-17
5.625865E+03	5.699115E-16	1.997773E-17
5.635752E+03	5.599885E-16	1.961813E-17
5.645640E+03	5.525065E-16	1.934454E-17
5.655527E+03	5.475802E-16	1.916081E-17
5.665414E+03	5.452754E-16	1.906909E-17
5.675302E+03	5.456314E-16	1.907059E-17
5.685189E+03	5.486363E-16	1.916473E-17
5.695076E+03	5.542459E-16	1.934981E-17
5.704963E+03	5.623570E-16	1.962209E-17
5.714851E+03	5.728250E-16	1.997637E-17
5.724738E+03	5.854398E-16	2.040522E-17
5.734625E+03	5.999484E-16	2.089971E-17
5.744513E+03	6.160341E-16	2.144871E-17
5.754400E+03	6.333451E-16	2.203991E-17
5.764287E+03	6.514772E-16	2.265919E-17
5.774174E+03	6.700025E-16	2.329165E-17
5.784062E+03	6.884847E-16	2.392211E-17
5.793949E+03	7.064741E-16	2.453499E-17
5.803836E+03	7.235459E-16	2.511557E-17
5.813724E+03	7.393107E-16	2.565040E-17
5.823611E+03	7.534310E-16	2.612786E-17
5.833498E+03	7.656347E-16	2.653861E-17
5.843385E+03	7.757257E-16	2.687596E-17
5.853273E+03	7.835819E-16	2.713579E-17
5.863160E+03	7.891705E-16	2.731707E-17
5.873047E+03	7.925431E-16	2.742171E-17
5.882935E+03	7.938020E-16	2.745335E-17
5.892822E+03	7.931037E-16	2.741749E-17
5.902709E+03	7.906678E-16	2.732181E-17
5.912596E+03	7.867011E-16	2.717353E-17
5.922484E+03	7.814633E-16	2.698168E-17
5.932371E+03	7.751930E-16	2.675455E-17
5.942258E+03	7.681224E-16	2.650018E-17
5.952146E+03	7.604852E-16	2.622666E-17
5.962033E+03	7.524817E-16	2.594092E-17
5.971920E+03	7.442982E-16	2.564939E-17
5.981807E+03	7.360906E-16	2.535743E-17
5.991695E+03	7.280065E-16	2.507013E-17
6.001582E+03	7.201483E-16	2.479100E-17
6.011469E+03	7.126190E-16	2.452357E-17
6.021357E+03	7.054791E-16	2.426992E-17
6.031244E+03	6.987985E-16	2.403242E-17
6.041131E+03	6.926008E-16	2.381186E-17
6.051018E+03	6.869068E-16	2.360895E-17
6.060906E+03	6.817217E-16	2.342384E-17
6.070793E+03	6.770287E-16	2.325595E-17
6.080680E+03	6.728046E-16	2.310444E-17
6.090568E+03	6.690130E-16	2.296806E-17
6.100455E+03	6.656063E-16	2.284517E-17
6.110342E+03	6.625137E-16	2.273332E-17
6.120229E+03	6.596839E-16	2.263074E-17
6.130117E+03	6.570407E-16	2.253481E-17
6.140004E+03	6.545199E-16	2.244332E-17
6.149891E+03	6.520452E-16	2.235366E-17
6.159779E+03	6.495654E-16	2.226405E-17
6.169666E+03	6.470161E-16	2.217230E-17
6.179553E+03	6.443425E-16	2.207652E-17
6.189440E+03	6.415081E-16	2.197546E-17
6.199328E+03	6.384655E-16	2.186748E-17
6.209215E+03	6.352108E-16	2.175247E-17
6.219102E+03	6.317369E-16	2.163017E-17
6.228990E+03	6.280650E-16	2.150131E-17
6.238877E+03	6.242266E-16	2.136696E-17
6.248764E+03	6.202410E-16	2.122778E-17
6.258651E+03	6.161566E-16	2.108543E-17
6.268539E+03	6.120076E-16	2.094107E-17
6.278426E+03	6.078259E-16	2.079578E-17
6.288313E+03	6.036451E-16	2.065073E-17
6.298201E+03	5.994810E-16	2.050643E-17
6.308088E+03	5.953577E-16	2.036370E-17
6.317975E+03	5.912958E-16	2.022326E-17
6.327862E+03	5.873078E-16	2.008551E-17
6.337750E+03	5.834073E-16	1.995092E-17
6.347637E+03	5.796175E-16	1.982029E-17
6.357524E+03	5.759617E-16	1.969439E-17
6.367412E+03	5.724852E-16	1.957477E-17
6.377299E+03	5.692249E-16	1.946270E-17
6.387186E+03	5.662425E-16	1.936028E-17
6.397073E+03	5.636046E-16	1.926977E-17
6.406961E+03	5.613922E-16	1.919395E-17
6.416848E+03	5.596845E-16	1.913552E-17
6.426735E+03	5.585592E-16	1.909714E-17
6.436623E+03	5.580870E-16	1.908121E-17
6.446510E+03	5.583249E-16	1.908969E-17
6.456397E+03	5.593104E-16	1.912386E-17
6.466284E+03	5.610563E-16	1.918417E-17
6.476172E+03	5.635474E-16	1.927009E-17
6.486059E+03	5.667440E-16	1.938027E-17
6.495946E+03	5.705626E-16	1.951185E-17
6.505833E+03	5.749102E-16	1.966168E-17
6.515721E+03	5.796414E-16	1.982476E-17
6.525608E+03	5.846163E-16	1.999633E-17
6.535495E+03	5.896602E-16	2.017042E-17
6.545383E+03	5.946037E-16	2.034123E-17
6.555270E+03	5.992703E-16	2.050272E-17
6.565157E+03	6.034901E-16	2.064909E-17
6.575044E+03	6.071067E-16	2.077497E-17
6.584932E+03	6.099900E-16	2.087592E-17
6.594819E+03	6.120263E-16	2.094803E-17
6.604706E+03	6.131288E-16	2.098832E-17
6.614594E+03	6.132322E-16	2.099455E-17
6.624481E+03	6.123241E-16	2.096627E-17
6.634368E+03	6.104073E-16	2.090358E-17
6.644255E+03	6.075058E-16	2.080726E-17
6.654143E+03	6.036845E-16	2.067954E-17
6.664030E+03	5.990162E-16	2.052289E-17
6.673917E+03	5.936166E-16	2.034125E-17
6.683805E+03	5.875964E-16	2.013840E-17
6.693692E+03	5.810967E-16	1.991918E-17
6.703579E+03	5.742490E-16	1.968806E-17
6.713466E+03	5.672319E-16	1.945117E-17
6.723354E+03	5.601950E-16	1.921363E-17
6.733241E+03	5.533141E-16	1.898146E-17
6.743128E+03	5.467532E-16	1.876030E-17
6.753016E+03	5.406955E-16	1.855643E-17
6.762903E+03	5.352923E-16	1.837505E-17
6.772790E+03	5.307139E-16	1.822201E-17
6.782677E+03	5.270973E-16	1.810206E-17
6.792565E+03	5.245623E-16	1.801931E-17
6.802452E+03	5.232265E-16	1.797784E-17
6.812339E+03	5.231666E-16	1.798031E-17
6.822227E+03	5.244138E-16	1.802783E-17
6.832114E+03	5.269903E-16	1.812120E-17
6.842001E+03	5.308584E-16	1.825916E-17
6.851888E+03	5.359454E-16	1.843924E-17
6.861776E+03	5.421422E-16	1.865774E-17
6.871663E+03	5.492840E-16	1.890901E-17
6.881550E+03	5.571749E-16	1.918635E-17
6.891438E+03	5.655953E-16	1.948222E-17
6.901325E+03	5.742907E-16	1.978787E-17
6.911212E+03	5.830057E-16	2.009451E-17
6.921099E+03	5.915003E-16	2.039389E-17
6.930987E+03	5.995336E-16	2.067769E-17
6.940874E+03	6.069320E-16	2.093991E-17
6.950761E+03	6.135454E-16	2.117535E-17
6.960649E+03	6.192859E-16	2.138097E-17
6.970536E+03	6.241224E-16	2.155565E-17
6.980423E+03	6.280793E-16	2.170022E-17
6.990310E+03	6.312220E-16	2.181690E-17
7.000198E+03	6.336820E-16	2.191022E-17
7.010085E+03	6.355869E-16	2.198456E-17
7.019972E+03	6.370989E-16	2.204552E-17
7.029860E+03	6.383947E-16	2.209920E-17
7.039747E+03	6.396374E-16	2.215124E-17
7.049634E+03	6.409569E-16	2.220615E-17
7.059521E+03	6.424960E-16	2.226887E-17
7.069409E+03	6.443429E-16	2.234249E-17
7.079296E+03	6.465547E-16	2.242899E-17
7.089183E+03	6.491736E-16	2.252986E-17
7.099071E+03	6.521918E-16	2.264486E-17
7.108958E+03	6.555809E-16	2.277303E-17
7.118845E+03	6.592856E-16	2.291245E-17
7.128732E+03	6.632287E-16	2.306048E-17
7.138620E+03	6.673155E-16	2.321382E-17
7.148507E+03	6.714191E-16	2.336808E-17
7.158394E+03	6.754411E-16	2.351984E-17
7.168282E+03	6.792418E-16	2.366423E-17
7.178169E+03	6.826995E-16	2.379700E-17
7.188056E+03	6.856975E-16	2.391408E-17
7.197943E+03	6.881279E-16	2.401167E-17
7.207831E+03	6.898869E-16	2.408612E-17
7.217718E+03	6.908974E-16	2.413471E-17
7.227605E+03	6.910934E-16	2.415509E-17
7.237493E+03	6.904314E-16	2.414570E-17
7.247380E+03	6.889206E-16	2.410679E-17
7.257267E+03	6.865441E-16	2.403775E-17
7.267154E+03	6.833349E-16	2.393966E-17
7.277042E+03	6.793515E-16	2.381452E-17
7.286929E+03	6.746364E-16	2.366377E-17
7.296816E+03	6.692592E-16	2.348982E-17
7.306704E+03	6.632836E-16	2.329484E-17
7.316591E+03	6.567921E-16	2.308169E-17
7.326478E+03	6.498364E-16	2.285216E-17
7.336365E+03	6.424822E-16	2.260851E-17
7.346253E+03	6.347992E-16	2.235317E-17
7.356140E+03	6.268333E-16	2.208773E-17
7.366027E+03	6.186267E-16	2.181365E-17
7.375915E+03	6.102452E-16	2.153322E-17
7.385802E+03	6.017264E-16	2.124775E-17
7.395689E+03	5.931334E-16	2.095946E-17
7.405576E+03	5.844962E-16	2.066939E-17
7.415464E+03	5.758887E-16	2.038014E-17
7.425351E+03	5.673538E-16	2.009323E-17
7.435238E+03	5.589540E-16	1.981086E-17
7.445126E+03	5.507467E-16	1.953506E-17
7.455013E+03	5.427988E-16	1.926822E-17
7.464900E+03	5.351671E-16	1.901236E-17
7.474787E+03	5.279081E-16	1.876951E-17
7.484675E+03	5.210881E-16	1.854204E-17
7.494562E+03	5.147744E-16	1.833238E-17
7.504449E+03	5.090194E-16	1.814244E-17
7.514337E+03	5.038967E-16	1.797488E-17
7.524224E+03	4.994467E-16	1.783119E-17
7.534111E+03	4.957346E-16	1.771375E-17
7.543998E+03	4.927960E-16	1.762390E-17
7.553886E+03	4.906787E-16	1.756341E-17
7.563773E+03	4.893898E-16	1.753262E-17
7.573660E+03	4.889502E-16	1.753234E-17
7.583548E+03	4.893353E-16	1.756177E-17
7.593435E+03	4.905375E-16	1.762071E-17
7.603322E+03	4.924849E-16	1.770665E-17
7.613209E+03	4.951208E-16	1.781764E-17
7.623097E+03	4.983540E-16	1.795043E-17
7.632984E+03	5.020669E-16	1.810087E-17
7.642871E+03	5.061350E-16	1.826450E-17
7.652759E+03	5.104312E-16	1.843676E-17
7.662646E+03	5.148166E-16	1.861266E-17
7.672533E+03	5.191382E-16	1.878668E-17
