#wls	flux	fluxerr
1.581966E+03	3.838859E-16	1.511524E-17
1.621515E+03	3.922708E-16	1.544315E-17
1.661064E+03	4.001161E-16	1.574968E-17
1.700613E+03	4.074247E-16	1.603494E-17
1.740162E+03	4.141204E-16	1.629592E-17
1.779711E+03	4.201557E-16	1.653078E-17
1.819260E+03	4.252816E-16	1.672971E-17
1.858810E+03	4.293789E-16	1.688806E-17
1.898359E+03	4.323114E-16	1.700048E-17
1.937908E+03	4.338732E-16	1.705889E-17
1.977457E+03	4.339449E-16	1.705864E-17
2.017006E+03	4.327140E-16	1.700711E-17
2.056555E+03	4.306907E-16	1.692439E-17
2.096104E+03	4.290260E-16	1.685570E-17
2.135654E+03	4.287870E-16	1.684298E-17
2.175203E+03	4.309180E-16	1.692325E-17
2.214752E+03	4.354925E-16	1.709935E-17
2.254301E+03	4.416213E-16	1.733630E-17
2.293850E+03	4.482743E-16	1.759365E-17
2.333399E+03	4.544313E-16	1.783133E-17
2.372948E+03	4.595672E-16	1.802875E-17
2.412498E+03	4.632989E-16	1.817091E-17
2.452047E+03	4.655188E-16	1.825363E-17
2.491596E+03	4.662289E-16	1.827703E-17
2.531145E+03	4.654854E-16	1.824335E-17
2.570694E+03	4.633690E-16	1.815579E-17
2.610243E+03	4.599721E-16	1.801801E-17
2.649792E+03	4.553934E-16	1.783393E-17
2.689342E+03	4.496692E-16	1.760499E-17
2.728891E+03	4.429787E-16	1.733826E-17
2.768440E+03	4.354339E-16	1.703814E-17
2.807989E+03	4.270907E-16	1.670687E-17
2.847538E+03	4.181318E-16	1.635161E-17
2.887087E+03	4.086754E-16	1.597702E-17
2.926636E+03	3.988907E-16	1.558972E-17
2.966185E+03	3.889820E-16	1.519772E-17
2.976073E+03	3.865123E-16	1.510004E-17
2.985960E+03	3.840622E-16	1.500313E-17
2.995847E+03	3.815839E-16	1.490513E-17
3.005735E+03	3.791747E-16	1.480984E-17
3.015622E+03	3.767391E-16	1.471353E-17
3.025509E+03	3.743256E-16	1.461808E-17
3.035396E+03	3.719368E-16	1.452362E-17
3.045284E+03	3.695700E-16	1.443002E-17
3.055171E+03	3.672387E-16	1.433782E-17
3.065058E+03	3.649847E-16	1.424865E-17
3.074946E+03	3.627173E-16	1.415896E-17
3.084833E+03	3.605228E-16	1.407213E-17
3.094720E+03	3.583553E-16	1.398635E-17
3.104607E+03	3.562133E-16	1.390159E-17
3.114495E+03	3.541369E-16	1.381939E-17
3.124382E+03	3.520825E-16	1.373806E-17
3.134269E+03	3.500891E-16	1.365912E-17
3.144157E+03	3.481540E-16	1.358246E-17
3.154044E+03	3.462355E-16	1.350646E-17
3.163931E+03	3.443713E-16	1.343258E-17
3.173818E+03	3.425972E-16	1.336222E-17
3.183706E+03	3.408335E-16	1.329228E-17
3.193593E+03	3.391167E-16	1.322417E-17
3.203480E+03	3.374812E-16	1.315924E-17
3.213368E+03	3.358869E-16	1.309592E-17
3.223255E+03	3.343313E-16	1.303411E-17
3.233142E+03	3.328475E-16	1.297511E-17
3.243029E+03	3.313968E-16	1.291741E-17
3.252917E+03	3.300457E-16	1.286359E-17
3.262804E+03	3.287213E-16	1.281082E-17
3.272691E+03	3.274881E-16	1.276161E-17
3.282579E+03	3.262752E-16	1.271319E-17
3.292466E+03	3.251453E-16	1.266801E-17
3.302353E+03	3.240615E-16	1.262463E-17
3.312240E+03	3.230519E-16	1.258414E-17
3.322128E+03	3.221116E-16	1.254635E-17
3.332015E+03	3.212358E-16	1.251108E-17
3.341902E+03	3.204199E-16	1.247814E-17
3.351790E+03	3.196593E-16	1.244736E-17
3.361677E+03	3.189496E-16	1.241856E-17
3.371564E+03	3.183154E-16	1.239270E-17
3.381451E+03	3.177512E-16	1.236956E-17
3.391339E+03	3.172518E-16	1.234895E-17
3.401226E+03	3.168120E-16	1.233065E-17
3.411113E+03	3.164267E-16	1.231448E-17
3.421001E+03	3.161184E-16	1.230130E-17
3.430888E+03	3.158547E-16	1.228985E-17
3.440775E+03	3.156577E-16	1.228099E-17
3.450662E+03	3.155222E-16	1.227453E-17
3.460550E+03	3.154437E-16	1.227028E-17
3.470437E+03	3.154427E-16	1.226904E-17
3.480324E+03	3.154897E-16	1.226966E-17
3.490212E+03	3.156054E-16	1.227294E-17
3.500099E+03	3.157858E-16	1.227874E-17
3.509986E+03	3.160273E-16	1.228691E-17
3.519873E+03	3.163272E-16	1.229734E-17
3.529761E+03	3.166832E-16	1.230995E-17
3.539648E+03	3.171161E-16	1.232553E-17
3.549535E+03	3.176241E-16	1.234403E-17
3.559423E+03	3.182061E-16	1.236540E-17
3.569310E+03	3.188617E-16	1.238961E-17
3.579197E+03	3.195915E-16	1.241670E-17
3.589084E+03	3.203967E-16	1.244671E-17
3.598972E+03	3.212999E-16	1.248051E-17
3.608859E+03	3.222829E-16	1.251741E-17
3.618746E+03	3.233692E-16	1.255830E-17
3.628634E+03	3.245424E-16	1.260255E-17
3.638521E+03	3.258460E-16	1.265185E-17
3.648408E+03	3.272647E-16	1.270560E-17
3.658295E+03	3.288032E-16	1.276400E-17
3.668183E+03	3.304669E-16	1.282723E-17
3.678070E+03	3.322611E-16	1.289551E-17
3.687957E+03	3.342091E-16	1.296974E-17
3.697845E+03	3.362979E-16	1.304941E-17
3.707732E+03	3.385499E-16	1.313539E-17
3.717619E+03	3.409518E-16	1.322717E-17
3.727506E+03	3.435247E-16	1.332555E-17
3.737394E+03	3.462543E-16	1.342999E-17
3.747281E+03	3.491595E-16	1.354120E-17
3.757168E+03	3.522408E-16	1.365922E-17
3.767056E+03	3.554814E-16	1.378339E-17
3.776943E+03	3.588956E-16	1.391425E-17
3.786830E+03	3.624796E-16	1.405166E-17
3.796717E+03	3.662278E-16	1.419541E-17
3.806605E+03	3.701176E-16	1.434460E-17
3.816492E+03	3.741400E-16	1.449889E-17
3.826379E+03	3.783146E-16	1.465904E-17
3.836267E+03	3.825826E-16	1.482277E-17
3.846154E+03	3.869593E-16	1.499068E-17
3.856041E+03	3.914279E-16	1.516209E-17
3.865928E+03	3.959545E-16	1.533572E-17
3.875816E+03	4.005191E-16	1.551076E-17
3.885703E+03	4.050999E-16	1.568640E-17
3.895590E+03	4.096738E-16	1.586172E-17
3.905478E+03	4.142171E-16	1.603580E-17
3.915365E+03	4.187047E-16	1.620770E-17
3.925252E+03	4.230979E-16	1.637589E-17
3.935139E+03	4.273718E-16	1.653942E-17
3.945027E+03	4.315154E-16	1.669786E-17
3.954914E+03	4.354911E-16	1.684978E-17
3.964801E+03	4.392762E-16	1.699427E-17
3.974689E+03	4.428493E-16	1.713053E-17
3.984576E+03	4.461781E-16	1.725730E-17
3.994463E+03	4.492456E-16	1.737393E-17
4.004350E+03	4.520508E-16	1.748038E-17
4.014238E+03	4.545564E-16	1.757523E-17
4.024125E+03	4.567674E-16	1.765866E-17
4.034012E+03	4.586668E-16	1.773001E-17
4.043900E+03	4.602657E-16	1.778973E-17
4.053787E+03	4.615428E-16	1.783700E-17
4.063674E+03	4.625168E-16	1.787254E-17
4.073561E+03	4.631975E-16	1.789673E-17
4.083449E+03	4.635757E-16	1.790922E-17
4.093336E+03	4.636912E-16	1.791157E-17
4.103223E+03	4.635308E-16	1.790324E-17
4.113111E+03	4.631398E-16	1.788601E-17
4.122998E+03	4.625327E-16	1.786044E-17
4.132885E+03	4.617268E-16	1.782719E-17
4.142772E+03	4.607619E-16	1.778781E-17
4.152660E+03	4.596585E-16	1.774309E-17
4.162547E+03	4.584382E-16	1.769386E-17
4.172434E+03	4.571434E-16	1.764176E-17
4.182322E+03	4.557875E-16	1.758732E-17
4.192209E+03	4.544124E-16	1.753215E-17
4.202096E+03	4.530503E-16	1.747748E-17
4.211983E+03	4.517142E-16	1.742383E-17
4.221871E+03	4.504438E-16	1.737272E-17
4.231758E+03	4.492597E-16	1.732495E-17
4.241645E+03	4.481902E-16	1.728160E-17
4.251533E+03	4.472534E-16	1.724338E-17
4.261420E+03	4.464829E-16	1.721158E-17
4.271307E+03	4.458855E-16	1.718645E-17
4.281194E+03	4.454909E-16	1.716914E-17
4.291082E+03	4.453027E-16	1.715979E-17
4.300969E+03	4.453540E-16	1.715966E-17
4.310856E+03	4.456442E-16	1.716874E-17
4.320744E+03	4.461862E-16	1.718751E-17
4.330631E+03	4.469827E-16	1.721608E-17
4.340518E+03	4.480563E-16	1.725531E-17
4.350405E+03	4.493892E-16	1.730451E-17
4.360293E+03	4.509984E-16	1.736433E-17
4.370180E+03	4.528750E-16	1.743443E-17
4.380067E+03	4.550071E-16	1.751435E-17
4.389955E+03	4.574011E-16	1.760433E-17
4.399842E+03	4.600311E-16	1.770336E-17
4.409729E+03	4.628888E-16	1.781113E-17
4.419616E+03	4.659551E-16	1.792690E-17
4.429504E+03	4.691931E-16	1.804924E-17
4.439391E+03	4.725764E-16	1.817714E-17
4.449278E+03	4.760818E-16	1.830970E-17
4.459166E+03	4.796618E-16	1.844509E-17
4.469053E+03	4.832867E-16	1.858218E-17
4.478940E+03	4.869099E-16	1.871917E-17
4.488827E+03	4.904896E-16	1.885444E-17
4.498715E+03	4.939751E-16	1.898607E-17
4.508602E+03	4.973287E-16	1.911259E-17
4.518489E+03	5.004984E-16	1.923201E-17
4.528377E+03	5.034395E-16	1.934262E-17
4.538264E+03	5.061157E-16	1.944302E-17
4.548151E+03	5.084725E-16	1.953113E-17
4.558038E+03	5.104727E-16	1.960552E-17
4.567926E+03	5.120898E-16	1.966518E-17
4.577813E+03	5.132963E-16	1.970906E-17
4.587700E+03	5.140569E-16	1.973581E-17
4.597588E+03	5.143638E-16	1.974514E-17
4.607475E+03	5.142164E-16	1.973703E-17
4.617362E+03	5.135953E-16	1.971074E-17
4.627249E+03	5.125290E-16	1.966737E-17
4.637137E+03	5.110147E-16	1.960683E-17
4.647024E+03	5.090833E-16	1.953030E-17
4.656911E+03	5.067669E-16	1.943902E-17
4.666798E+03	5.041041E-16	1.933448E-17
4.676686E+03	5.011330E-16	1.921814E-17
4.686573E+03	4.979090E-16	1.909214E-17
4.696460E+03	4.944793E-16	1.895828E-17
4.706348E+03	4.908997E-16	1.881872E-17
4.716235E+03	4.872218E-16	1.867541E-17
4.726122E+03	4.835152E-16	1.853105E-17
4.736009E+03	4.798361E-16	1.838778E-17
4.745897E+03	4.762278E-16	1.824726E-17
4.755784E+03	4.727528E-16	1.811188E-17
4.765671E+03	4.694586E-16	1.798346E-17
4.775559E+03	4.663872E-16	1.786361E-17
4.785446E+03	4.635757E-16	1.775374E-17
4.795333E+03	4.610601E-16	1.765524E-17
4.805220E+03	4.588646E-16	1.756902E-17
4.815108E+03	4.570123E-16	1.749596E-17
4.824995E+03	4.555137E-16	1.743646E-17
4.834882E+03	4.543730E-16	1.739067E-17
4.844770E+03	4.535926E-16	1.735869E-17
4.854657E+03	4.531636E-16	1.734016E-17
4.864544E+03	4.530660E-16	1.733432E-17
4.874431E+03	4.532951E-16	1.734098E-17
4.884319E+03	4.538159E-16	1.735880E-17
4.894206E+03	4.546050E-16	1.738688E-17
4.904093E+03	4.556366E-16	1.742423E-17
4.913981E+03	4.568773E-16	1.746958E-17
4.923868E+03	4.582934E-16	1.752162E-17
4.933755E+03	4.598515E-16	1.757907E-17
4.943642E+03	4.615194E-16	1.764071E-17
4.953530E+03	4.632722E-16	1.770559E-17
4.963417E+03	4.650885E-16	1.777289E-17
4.973304E+03	4.669351E-16	1.784133E-17
4.983192E+03	4.688043E-16	1.791062E-17
4.993079E+03	4.706824E-16	1.798023E-17
5.002966E+03	4.725560E-16	1.804967E-17
5.012853E+03	4.744265E-16	1.811897E-17
5.022741E+03	4.763006E-16	1.818840E-17
5.032628E+03	4.781737E-16	1.825778E-17
5.042515E+03	4.800655E-16	1.832786E-17
5.052403E+03	4.819836E-16	1.839894E-17
5.062290E+03	4.839487E-16	1.847179E-17
5.072177E+03	4.859774E-16	1.854707E-17
5.082064E+03	4.880829E-16	1.862526E-17
5.091952E+03	4.902887E-16	1.870727E-17
5.101839E+03	4.926184E-16	1.879399E-17
5.111726E+03	4.950789E-16	1.888568E-17
5.121614E+03	4.976912E-16	1.898315E-17
5.131501E+03	5.004695E-16	1.908693E-17
5.141388E+03	5.034256E-16	1.919749E-17
5.151275E+03	5.065746E-16	1.931537E-17
5.161163E+03	5.099122E-16	1.944043E-17
5.171050E+03	5.134529E-16	1.957320E-17
5.180937E+03	5.171917E-16	1.971351E-17
5.190825E+03	5.211259E-16	1.986124E-17
5.200712E+03	5.252546E-16	2.001635E-17
5.210599E+03	5.295567E-16	2.017805E-17
5.220486E+03	5.340296E-16	2.034622E-17
5.230374E+03	5.386503E-16	2.052000E-17
5.240261E+03	5.434025E-16	2.069876E-17
5.250148E+03	5.482498E-16	2.088111E-17
5.260036E+03	5.531736E-16	2.106634E-17
5.269923E+03	5.581346E-16	2.125296E-17
5.279810E+03	5.630952E-16	2.143953E-17
5.289697E+03	5.680134E-16	2.162446E-17
5.299585E+03	5.728439E-16	2.180602E-17
5.309472E+03	5.775377E-16	2.198236E-17
5.319359E+03	5.820487E-16	2.215170E-17
5.329247E+03	5.863102E-16	2.231153E-17
5.339134E+03	5.902776E-16	2.246015E-17
5.349021E+03	5.938809E-16	2.259489E-17
5.358908E+03	5.970743E-16	2.271402E-17
5.368796E+03	5.997948E-16	2.281516E-17
5.378683E+03	6.019813E-16	2.289597E-17
5.388570E+03	6.035947E-16	2.295499E-17
5.398458E+03	6.045825E-16	2.299022E-17
5.408345E+03	6.048985E-16	2.299991E-17
5.418232E+03	6.045225E-16	2.298330E-17
5.428119E+03	6.034251E-16	2.293928E-17
5.438007E+03	6.015874E-16	2.286714E-17
5.447894E+03	5.990139E-16	2.276706E-17
5.457781E+03	5.957209E-16	2.263968E-17
5.467669E+03	5.917257E-16	2.248564E-17
5.477556E+03	5.870696E-16	2.230654E-17
5.487443E+03	5.817889E-16	2.210376E-17
5.497330E+03	5.759549E-16	2.188000E-17
5.507218E+03	5.696320E-16	2.163773E-17
5.517105E+03	5.628996E-16	2.137997E-17
5.526992E+03	5.558498E-16	2.111022E-17
5.536880E+03	5.485697E-16	2.083178E-17
5.546767E+03	5.411607E-16	2.054851E-17
5.556654E+03	5.337148E-16	2.026390E-17
5.566541E+03	5.263295E-16	1.998166E-17
5.576429E+03	5.191051E-16	1.970559E-17
5.586316E+03	5.121276E-16	1.943896E-17
5.596203E+03	5.054832E-16	1.918503E-17
5.606091E+03	4.992512E-16	1.894681E-17
5.615978E+03	4.935033E-16	1.872701E-17
5.625865E+03	4.883075E-16	1.852821E-17
5.635752E+03	4.837079E-16	1.835208E-17
5.645640E+03	4.797585E-16	1.820065E-17
5.655527E+03	4.764835E-16	1.807485E-17
5.665414E+03	4.739112E-16	1.797574E-17
5.675302E+03	4.720540E-16	1.790377E-17
5.685189E+03	4.709091E-16	1.785885E-17
5.695076E+03	4.704720E-16	1.784078E-17
5.704963E+03	4.707181E-16	1.784863E-17
5.714851E+03	4.716211E-16	1.788141E-17
5.724738E+03	4.731316E-16	1.793722E-17
5.734625E+03	4.752082E-16	1.801449E-17
5.744513E+03	4.777875E-16	1.811082E-17
5.754400E+03	4.807980E-16	1.822349E-17
5.764287E+03	4.841713E-16	1.834991E-17
5.774174E+03	4.878294E-16	1.848711E-17
5.784062E+03	4.916858E-16	1.863182E-17
5.793949E+03	4.956575E-16	1.878089E-17
5.803836E+03	4.996616E-16	1.893118E-17
5.813724E+03	5.036129E-16	1.907946E-17
5.823611E+03	5.074445E-16	1.922320E-17
5.833498E+03	5.110762E-16	1.935936E-17
5.843385E+03	5.144451E-16	1.948556E-17
5.853273E+03	5.174972E-16	1.959976E-17
5.863160E+03	5.201880E-16	1.970028E-17
5.873047E+03	5.224842E-16	1.978586E-17
5.882935E+03	5.243578E-16	1.985544E-17
5.892822E+03	5.257969E-16	1.990857E-17
5.902709E+03	5.268050E-16	1.994540E-17
5.912596E+03	5.273799E-16	1.996584E-17
5.922484E+03	5.275433E-16	1.997072E-17
5.932371E+03	5.273198E-16	1.996096E-17
5.942258E+03	5.267295E-16	1.993735E-17
5.952146E+03	5.258181E-16	1.990160E-17
5.962033E+03	5.246195E-16	1.985500E-17
5.971920E+03	5.231748E-16	1.979912E-17
5.981807E+03	5.215267E-16	1.973556E-17
5.991695E+03	5.197122E-16	1.966573E-17
6.001582E+03	5.177825E-16	1.959157E-17
6.011469E+03	5.157717E-16	1.951437E-17
6.021357E+03	5.137112E-16	1.943532E-17
6.031244E+03	5.116440E-16	1.935604E-17
6.041131E+03	5.095992E-16	1.927764E-17
6.051018E+03	5.075971E-16	1.920088E-17
6.060906E+03	5.056681E-16	1.912691E-17
6.070793E+03	5.038284E-16	1.905635E-17
6.080680E+03	5.020847E-16	1.898945E-17
6.090568E+03	5.004540E-16	1.892685E-17
6.100455E+03	4.989346E-16	1.886848E-17
6.110342E+03	4.975205E-16	1.881412E-17
6.120229E+03	4.962024E-16	1.876342E-17
6.130117E+03	4.949822E-16	1.871644E-17
6.140004E+03	4.938398E-16	1.867243E-17
6.149891E+03	4.927723E-16	1.863128E-17
6.159779E+03	4.917610E-16	1.859228E-17
6.169666E+03	4.907915E-16	1.855488E-17
6.179553E+03	4.898404E-16	1.851820E-17
6.189440E+03	4.889045E-16	1.848212E-17
6.199328E+03	4.879626E-16	1.844583E-17
6.209215E+03	4.870088E-16	1.840911E-17
6.219102E+03	4.860334E-16	1.837161E-17
6.228990E+03	4.850229E-16	1.833279E-17
6.238877E+03	4.839700E-16	1.829240E-17
6.248764E+03	4.828780E-16	1.825055E-17
6.258651E+03	4.817371E-16	1.820687E-17
6.268539E+03	4.805432E-16	1.816121E-17
6.278426E+03	4.792979E-16	1.811363E-17
6.288313E+03	4.779991E-16	1.806406E-17
6.298201E+03	4.766455E-16	1.801242E-17
6.308088E+03	4.752413E-16	1.795890E-17
6.317975E+03	4.737821E-16	1.790332E-17
6.327862E+03	4.722787E-16	1.784609E-17
6.337750E+03	4.707335E-16	1.778730E-17
6.347637E+03	4.691448E-16	1.772689E-17
6.357524E+03	4.675220E-16	1.766521E-17
6.367412E+03	4.658751E-16	1.760264E-17
6.377299E+03	4.642061E-16	1.753925E-17
6.387186E+03	4.625223E-16	1.747532E-17
6.397073E+03	4.608318E-16	1.741116E-17
6.406961E+03	4.591477E-16	1.734726E-17
6.416848E+03	4.574735E-16	1.728375E-17
6.426735E+03	4.558164E-16	1.722090E-17
6.436623E+03	4.541922E-16	1.715932E-17
6.446510E+03	4.526052E-16	1.709916E-17
6.456397E+03	4.510573E-16	1.704048E-17
6.466284E+03	4.495571E-16	1.698364E-17
6.476172E+03	4.481008E-16	1.692846E-17
6.486059E+03	4.466812E-16	1.687469E-17
6.495946E+03	4.452884E-16	1.682195E-17
6.505833E+03	4.439143E-16	1.676993E-17
6.515721E+03	4.425487E-16	1.671825E-17
6.525608E+03	4.411702E-16	1.666610E-17
6.535495E+03	4.397610E-16	1.661280E-17
6.545383E+03	4.383131E-16	1.655805E-17
6.555270E+03	4.368048E-16	1.650104E-17
6.565157E+03	4.352254E-16	1.644136E-17
6.575044E+03	4.335619E-16	1.637851E-17
6.584932E+03	4.317996E-16	1.631195E-17
6.594819E+03	4.299417E-16	1.624179E-17
6.604706E+03	4.279807E-16	1.616775E-17
6.614594E+03	4.259231E-16	1.609008E-17
6.624481E+03	4.237752E-16	1.600900E-17
6.634368E+03	4.215469E-16	1.592490E-17
6.644255E+03	4.192526E-16	1.583832E-17
6.654143E+03	4.169105E-16	1.574996E-17
6.664030E+03	4.145421E-16	1.566060E-17
6.673917E+03	4.121765E-16	1.557137E-17
6.683805E+03	4.098407E-16	1.548327E-17
6.693692E+03	4.075636E-16	1.539741E-17
6.703579E+03	4.053707E-16	1.531473E-17
6.713466E+03	4.033023E-16	1.523678E-17
6.723354E+03	4.013805E-16	1.516437E-17
6.733241E+03	3.996455E-16	1.509903E-17
6.743128E+03	3.981181E-16	1.504155E-17
6.753016E+03	3.968361E-16	1.499335E-17
6.762903E+03	3.958261E-16	1.495544E-17
6.772790E+03	3.951028E-16	1.492837E-17
6.782677E+03	3.946961E-16	1.491327E-17
6.792565E+03	3.946185E-16	1.491063E-17
6.802452E+03	3.948873E-16	1.492109E-17
6.812339E+03	3.955063E-16	1.494479E-17
6.822227E+03	3.964787E-16	1.498187E-17
6.832114E+03	3.978074E-16	1.503242E-17
6.842001E+03	3.994802E-16	1.509599E-17
6.851888E+03	4.014898E-16	1.517231E-17
6.861776E+03	4.038137E-16	1.526052E-17
6.871663E+03	4.064298E-16	1.535979E-17
6.881550E+03	4.093173E-16	1.546934E-17
6.891438E+03	4.124417E-16	1.558787E-17
6.901325E+03	4.157718E-16	1.571419E-17
6.911212E+03	4.192748E-16	1.584706E-17
6.921099E+03	4.229179E-16	1.598526E-17
6.930987E+03	4.266691E-16	1.612756E-17
6.940874E+03	4.304985E-16	1.627285E-17
6.950761E+03	4.343786E-16	1.642008E-17
6.960649E+03	4.382857E-16	1.656835E-17
6.970536E+03	4.421942E-16	1.671671E-17
6.980423E+03	4.460933E-16	1.686473E-17
6.990310E+03	4.499650E-16	1.701175E-17
7.000198E+03	4.538002E-16	1.715741E-17
7.010085E+03	4.575985E-16	1.730171E-17
7.019972E+03	4.613444E-16	1.744406E-17
7.029860E+03	4.650409E-16	1.758457E-17
7.039747E+03	4.686856E-16	1.772314E-17
7.049634E+03	4.722696E-16	1.785946E-17
7.059521E+03	4.757886E-16	1.799334E-17
7.069409E+03	4.792358E-16	1.812454E-17
7.079296E+03	4.826018E-16	1.825270E-17
7.089183E+03	4.858681E-16	1.837712E-17
7.099071E+03	4.890245E-16	1.849742E-17
7.108958E+03	4.920393E-16	1.861239E-17
7.118845E+03	4.949020E-16	1.872164E-17
7.128732E+03	4.975684E-16	1.882349E-17
7.138620E+03	5.000229E-16	1.891736E-17
7.148507E+03	5.022298E-16	1.900189E-17
7.158394E+03	5.041588E-16	1.907593E-17
7.168282E+03	5.057738E-16	1.913813E-17
7.178169E+03	5.070396E-16	1.918713E-17
7.188056E+03	5.079419E-16	1.922241E-17
7.197943E+03	5.084448E-16	1.924260E-17
7.207831E+03	5.085222E-16	1.924671E-17
7.217718E+03	5.081718E-16	1.923465E-17
7.227605E+03	5.073652E-16	1.920534E-17
7.237493E+03	5.061110E-16	1.915910E-17
7.247380E+03	5.043985E-16	1.909554E-17
7.257267E+03	5.022421E-16	1.901517E-17
7.267154E+03	4.996489E-16	1.891829E-17
7.277042E+03	4.966320E-16	1.880537E-17
7.286929E+03	4.932277E-16	1.867778E-17
7.296816E+03	4.894457E-16	1.853590E-17
7.306704E+03	4.853297E-16	1.838137E-17
7.316591E+03	4.809027E-16	1.821506E-17
7.326478E+03	4.762129E-16	1.803879E-17
7.336365E+03	4.712926E-16	1.785378E-17
7.346253E+03	4.661807E-16	1.766151E-17
7.356140E+03	4.609159E-16	1.746344E-17
7.366027E+03	4.555369E-16	1.726104E-17
7.375915E+03	4.500874E-16	1.705595E-17
7.385802E+03	4.445930E-16	1.684915E-17
7.395689E+03	4.391001E-16	1.664239E-17
7.405576E+03	4.336322E-16	1.643657E-17
7.415464E+03	4.282322E-16	1.623330E-17
7.425351E+03	4.229204E-16	1.603337E-17
7.435238E+03	4.177365E-16	1.583827E-17
7.445126E+03	4.127031E-16	1.564886E-17
7.455013E+03	4.078519E-16	1.546634E-17
7.464900E+03	4.032035E-16	1.529151E-17
7.474787E+03	3.987928E-16	1.512567E-17
7.484675E+03	3.946323E-16	1.496930E-17
7.494562E+03	3.907520E-16	1.482356E-17
7.504449E+03	3.871692E-16	1.468909E-17
7.514337E+03	3.838928E-16	1.456624E-17
7.524224E+03	3.809384E-16	1.445559E-17
7.534111E+03	3.783179E-16	1.435761E-17
7.543998E+03	3.760296E-16	1.427224E-17
7.553886E+03	3.740728E-16	1.419945E-17
7.563773E+03	3.724427E-16	1.413905E-17
7.573660E+03	3.711400E-16	1.409109E-17
7.583548E+03	3.701418E-16	1.405470E-17
7.593435E+03	3.694356E-16	1.402940E-17
7.603322E+03	3.690000E-16	1.401439E-17
7.613209E+03	3.688144E-16	1.400888E-17
7.623097E+03	3.688403E-16	1.401141E-17
7.632984E+03	3.690554E-16	1.402115E-17
7.642871E+03	3.694200E-16	1.403659E-17
7.652759E+03	3.698975E-16	1.405633E-17
7.662646E+03	3.704547E-16	1.407911E-17
7.672533E+03	3.710480E-16	1.410328E-17
