#wls	flux	fluxerr
1.581966E+03	3.724775E-16	1.506364E-17
1.621515E+03	3.805816E-16	1.538980E-17
1.661064E+03	3.883198E-16	1.570105E-17
1.700613E+03	3.954786E-16	1.598878E-17
1.740162E+03	4.020593E-16	1.625302E-17
1.779711E+03	4.079410E-16	1.648891E-17
1.819260E+03	4.130388E-16	1.669302E-17
1.858810E+03	4.171630E-16	1.685769E-17
1.898359E+03	4.201046E-16	1.697448E-17
1.937908E+03	4.217454E-16	1.703864E-17
1.977457E+03	4.219716E-16	1.704559E-17
2.017006E+03	4.208895E-16	1.699964E-17
2.056555E+03	4.190782E-16	1.692420E-17
2.096104E+03	4.175070E-16	1.685842E-17
2.135654E+03	4.174536E-16	1.685388E-17
2.175203E+03	4.196890E-16	1.694169E-17
2.214752E+03	4.242956E-16	1.712511E-17
2.254301E+03	4.304924E-16	1.737259E-17
2.293850E+03	4.372088E-16	1.764090E-17
2.333399E+03	4.435347E-16	1.789331E-17
2.372948E+03	4.488096E-16	1.810318E-17
2.412498E+03	4.528201E-16	1.826192E-17
2.452047E+03	4.555415E-16	1.836857E-17
2.491596E+03	4.568202E-16	1.841694E-17
2.531145E+03	4.567106E-16	1.840927E-17
2.570694E+03	4.554373E-16	1.835462E-17
2.610243E+03	4.529328E-16	1.825032E-17
2.649792E+03	4.493565E-16	1.810281E-17
2.689342E+03	4.447937E-16	1.791554E-17
2.728891E+03	4.393310E-16	1.769204E-17
2.768440E+03	4.330560E-16	1.743585E-17
2.807989E+03	4.260570E-16	1.715054E-17
2.847538E+03	4.184818E-16	1.684209E-17
2.887087E+03	4.104107E-16	1.651375E-17
2.926636E+03	4.020846E-16	1.617522E-17
2.966185E+03	3.935551E-16	1.582859E-17
2.976073E+03	3.914320E-16	1.574232E-17
2.985960E+03	3.892669E-16	1.565437E-17
2.995847E+03	3.871625E-16	1.556886E-17
3.005735E+03	3.850173E-16	1.548172E-17
3.015622E+03	3.828821E-16	1.539498E-17
3.025509E+03	3.808056E-16	1.531061E-17
3.035396E+03	3.786919E-16	1.522475E-17
3.045284E+03	3.766348E-16	1.514117E-17
3.055171E+03	3.745520E-16	1.505657E-17
3.065058E+03	3.725353E-16	1.497462E-17
3.074946E+03	3.705810E-16	1.489519E-17
3.084833E+03	3.685947E-16	1.481448E-17
3.094720E+03	3.666656E-16	1.473608E-17
3.104607E+03	3.647904E-16	1.465984E-17
3.114495E+03	3.629221E-16	1.458389E-17
3.124382E+03	3.610592E-16	1.450816E-17
3.134269E+03	3.592854E-16	1.443602E-17
3.144157E+03	3.575122E-16	1.436390E-17
3.154044E+03	3.557798E-16	1.429343E-17
3.163931E+03	3.540445E-16	1.422284E-17
3.173818E+03	3.523861E-16	1.415535E-17
3.183706E+03	3.507604E-16	1.408918E-17
3.193593E+03	3.491651E-16	1.402424E-17
3.203480E+03	3.476364E-16	1.396197E-17
3.213368E+03	3.461322E-16	1.390069E-17
3.223255E+03	3.446501E-16	1.384030E-17
3.233142E+03	3.432250E-16	1.378221E-17
3.243029E+03	3.418166E-16	1.372478E-17
3.252917E+03	3.404952E-16	1.367086E-17
3.262804E+03	3.391843E-16	1.361736E-17
3.272691E+03	3.379170E-16	1.356561E-17
3.282579E+03	3.367249E-16	1.351689E-17
3.292466E+03	3.355344E-16	1.346823E-17
3.302353E+03	3.344454E-16	1.342365E-17
3.312240E+03	3.333517E-16	1.337888E-17
3.322128E+03	3.323503E-16	1.333782E-17
3.332015E+03	3.313708E-16	1.329764E-17
3.341902E+03	3.304424E-16	1.325950E-17
3.351790E+03	3.295610E-16	1.322327E-17
3.361677E+03	3.287538E-16	1.319000E-17
3.371564E+03	3.279852E-16	1.315828E-17
3.381451E+03	3.272516E-16	1.312798E-17
3.391339E+03	3.265796E-16	1.310014E-17
3.401226E+03	3.259647E-16	1.307459E-17
3.411113E+03	3.254028E-16	1.305117E-17
3.421001E+03	3.248902E-16	1.302972E-17
3.430888E+03	3.244509E-16	1.301122E-17
3.440775E+03	3.240531E-16	1.299438E-17
3.450662E+03	3.237209E-16	1.298016E-17
3.460550E+03	3.234239E-16	1.296736E-17
3.470437E+03	3.232122E-16	1.295797E-17
3.480324E+03	3.230302E-16	1.294977E-17
3.490212E+03	3.229269E-16	1.294473E-17
3.500099E+03	3.228992E-16	1.294271E-17
3.509986E+03	3.229197E-16	1.294262E-17
3.519873E+03	3.230111E-16	1.294537E-17
3.529761E+03	3.231479E-16	1.294994E-17
3.539648E+03	3.233767E-16	1.295819E-17
3.549535E+03	3.236952E-16	1.297003E-17
3.559423E+03	3.240571E-16	1.298359E-17
3.569310E+03	3.245301E-16	1.300161E-17
3.579197E+03	3.250690E-16	1.302226E-17
3.589084E+03	3.256966E-16	1.304646E-17
3.598972E+03	3.264133E-16	1.307422E-17
3.608859E+03	3.272201E-16	1.310558E-17
3.618746E+03	3.281388E-16	1.314142E-17
3.628634E+03	3.291502E-16	1.318095E-17
3.638521E+03	3.302758E-16	1.322506E-17
3.648408E+03	3.315171E-16	1.327378E-17
3.658295E+03	3.328561E-16	1.332640E-17
3.668183E+03	3.343330E-16	1.338454E-17
3.678070E+03	3.359113E-16	1.344672E-17
3.687957E+03	3.376298E-16	1.351450E-17
3.697845E+03	3.394706E-16	1.358717E-17
3.707732E+03	3.414346E-16	1.366474E-17
3.717619E+03	3.435397E-16	1.374796E-17
3.727506E+03	3.457852E-16	1.383677E-17
3.737394E+03	3.481522E-16	1.393043E-17
3.747281E+03	3.506561E-16	1.402955E-17
3.757168E+03	3.532940E-16	1.413400E-17
3.767056E+03	3.560618E-16	1.424364E-17
3.776943E+03	3.589545E-16	1.435825E-17
3.786830E+03	3.619660E-16	1.447760E-17
3.796717E+03	3.650731E-16	1.460074E-17
3.806605E+03	3.682992E-16	1.472863E-17
3.816492E+03	3.716188E-16	1.486022E-17
3.826379E+03	3.750206E-16	1.499508E-17
3.836267E+03	3.784925E-16	1.513272E-17
3.846154E+03	3.820209E-16	1.527259E-17
3.856041E+03	3.855913E-16	1.541412E-17
3.865928E+03	3.891878E-16	1.555666E-17
3.875816E+03	3.927939E-16	1.569956E-17
3.885703E+03	3.964062E-16	1.584268E-17
3.895590E+03	3.999779E-16	1.598416E-17
3.905478E+03	4.034906E-16	1.612325E-17
3.915365E+03	4.069538E-16	1.626034E-17
3.925252E+03	4.103207E-16	1.639355E-17
3.935139E+03	4.135866E-16	1.652271E-17
3.945027E+03	4.167201E-16	1.664655E-17
3.954914E+03	4.197175E-16	1.676493E-17
3.964801E+03	4.225498E-16	1.687670E-17
3.974689E+03	4.252024E-16	1.698126E-17
3.984576E+03	4.276501E-16	1.707763E-17
3.994463E+03	4.299076E-16	1.716638E-17
4.004350E+03	4.319288E-16	1.724568E-17
4.014238E+03	4.337447E-16	1.731676E-17
4.024125E+03	4.353151E-16	1.737803E-17
4.034012E+03	4.366515E-16	1.742995E-17
4.043900E+03	4.377558E-16	1.747259E-17
4.053787E+03	4.386325E-16	1.750614E-17
4.063674E+03	4.392664E-16	1.752999E-17
4.073561E+03	4.396794E-16	1.754501E-17
4.083449E+03	4.398842E-16	1.755173E-17
4.093336E+03	4.398959E-16	1.755073E-17
4.103223E+03	4.397106E-16	1.754188E-17
4.113111E+03	4.393590E-16	1.752639E-17
4.122998E+03	4.388522E-16	1.750471E-17
4.132885E+03	4.382134E-16	1.747776E-17
4.142772E+03	4.374569E-16	1.744613E-17
4.152660E+03	4.366182E-16	1.741121E-17
4.162547E+03	4.357135E-16	1.737367E-17
4.172434E+03	4.347601E-16	1.733419E-17
4.182322E+03	4.337849E-16	1.729385E-17
4.192209E+03	4.328147E-16	1.725371E-17
4.202096E+03	4.318672E-16	1.721448E-17
4.211983E+03	4.309598E-16	1.717685E-17
4.221871E+03	4.301269E-16	1.714220E-17
4.231758E+03	4.293758E-16	1.711081E-17
4.241645E+03	4.287388E-16	1.708397E-17
4.251533E+03	4.282219E-16	1.706191E-17
4.261420E+03	4.278542E-16	1.704581E-17
4.271307E+03	4.276397E-16	1.703580E-17
4.281194E+03	4.276043E-16	1.703293E-17
4.291082E+03	4.277490E-16	1.703723E-17
4.300969E+03	4.280960E-16	1.704959E-17
4.310856E+03	4.286429E-16	1.706991E-17
4.320744E+03	4.294078E-16	1.709890E-17
4.330631E+03	4.303916E-16	1.713660E-17
4.340518E+03	4.315932E-16	1.718296E-17
4.350405E+03	4.330162E-16	1.723813E-17
4.360293E+03	4.346617E-16	1.730214E-17
4.370180E+03	4.365208E-16	1.737465E-17
4.380067E+03	4.385825E-16	1.745520E-17
4.389955E+03	4.408459E-16	1.754376E-17
4.399842E+03	4.432939E-16	1.763966E-17
4.409729E+03	4.459061E-16	1.774207E-17
4.419616E+03	4.486661E-16	1.785034E-17
4.429504E+03	4.515607E-16	1.796394E-17
4.439391E+03	4.545539E-16	1.808146E-17
4.449278E+03	4.576270E-16	1.820212E-17
4.459166E+03	4.607515E-16	1.832481E-17
4.469053E+03	4.638901E-16	1.844803E-17
4.478940E+03	4.670165E-16	1.857075E-17
4.488827E+03	4.700833E-16	1.869108E-17
4.498715E+03	4.730678E-16	1.880811E-17
4.508602E+03	4.759272E-16	1.892015E-17
4.518489E+03	4.786188E-16	1.902550E-17
4.528377E+03	4.811201E-16	1.912327E-17
4.538264E+03	4.833839E-16	1.921158E-17
4.548151E+03	4.853848E-16	1.928943E-17
4.558038E+03	4.870940E-16	1.935568E-17
4.567926E+03	4.884795E-16	1.940904E-17
4.577813E+03	4.895204E-16	1.944872E-17
4.587700E+03	4.902134E-16	1.947456E-17
4.597588E+03	4.905287E-16	1.948539E-17
4.607475E+03	4.904676E-16	1.948128E-17
4.617362E+03	4.900377E-16	1.946251E-17
4.627249E+03	4.892335E-16	1.942889E-17
4.637137E+03	4.880747E-16	1.938119E-17
4.647024E+03	4.865741E-16	1.931993E-17
4.656911E+03	4.847561E-16	1.924608E-17
4.666798E+03	4.826503E-16	1.916082E-17
4.676686E+03	4.802845E-16	1.906525E-17
4.686573E+03	4.777019E-16	1.896109E-17
4.696460E+03	4.749252E-16	1.884925E-17
4.706348E+03	4.720083E-16	1.873187E-17
4.716235E+03	4.689888E-16	1.861043E-17
4.726122E+03	4.659047E-16	1.848646E-17
4.736009E+03	4.628046E-16	1.836188E-17
4.745897E+03	4.597299E-16	1.823832E-17
4.755784E+03	4.567251E-16	1.811756E-17
4.765671E+03	4.538314E-16	1.800123E-17
4.775559E+03	4.510814E-16	1.789062E-17
4.785446E+03	4.485036E-16	1.778686E-17
4.795333E+03	4.461329E-16	1.769134E-17
4.805220E+03	4.439939E-16	1.760501E-17
4.815108E+03	4.420966E-16	1.752829E-17
4.824995E+03	4.404567E-16	1.746179E-17
4.834882E+03	4.390850E-16	1.740593E-17
4.844770E+03	4.379882E-16	1.736098E-17
4.854657E+03	4.371634E-16	1.732682E-17
4.864544E+03	4.366041E-16	1.730319E-17
4.874431E+03	4.363004E-16	1.728970E-17
4.884319E+03	4.362489E-16	1.728620E-17
4.894206E+03	4.364344E-16	1.729210E-17
4.904093E+03	4.368342E-16	1.730649E-17
4.913981E+03	4.374347E-16	1.732882E-17
4.923868E+03	4.382161E-16	1.735832E-17
4.933755E+03	4.391636E-16	1.739440E-17
4.943642E+03	4.402577E-16	1.743629E-17
4.953530E+03	4.414805E-16	1.748326E-17
4.963417E+03	4.428147E-16	1.753464E-17
4.973304E+03	4.442456E-16	1.758984E-17
4.983192E+03	4.457655E-16	1.764857E-17
4.993079E+03	4.473643E-16	1.771040E-17
5.002966E+03	4.490346E-16	1.777507E-17
5.012853E+03	4.507669E-16	1.784217E-17
5.022741E+03	4.525692E-16	1.791204E-17
5.032628E+03	4.544372E-16	1.798450E-17
5.042515E+03	4.563739E-16	1.805968E-17
5.052403E+03	4.583896E-16	1.813797E-17
5.062290E+03	4.604812E-16	1.821925E-17
5.072177E+03	4.626716E-16	1.830443E-17
5.082064E+03	4.649602E-16	1.839349E-17
5.091952E+03	4.673615E-16	1.848700E-17
5.101839E+03	4.698803E-16	1.858514E-17
5.111726E+03	4.725310E-16	1.868849E-17
5.121614E+03	4.753170E-16	1.879718E-17
5.131501E+03	4.782563E-16	1.891191E-17
5.141388E+03	4.813445E-16	1.903252E-17
5.151275E+03	4.845910E-16	1.915938E-17
5.161163E+03	4.879931E-16	1.929237E-17
5.171050E+03	4.915608E-16	1.943188E-17
5.180937E+03	4.952811E-16	1.957742E-17
5.190825E+03	4.991537E-16	1.972896E-17
5.200712E+03	5.031649E-16	1.988596E-17
5.210599E+03	5.073136E-16	2.004837E-17
5.220486E+03	5.115745E-16	2.021520E-17
5.230374E+03	5.159290E-16	2.038571E-17
5.240261E+03	5.203611E-16	2.055926E-17
5.250148E+03	5.248453E-16	2.073485E-17
5.260036E+03	5.293478E-16	2.091114E-17
5.269923E+03	5.338416E-16	2.108707E-17
5.279810E+03	5.382860E-16	2.126103E-17
5.289697E+03	5.426482E-16	2.143172E-17
5.299585E+03	5.468811E-16	2.159730E-17
5.309472E+03	5.509412E-16	2.175603E-17
5.319359E+03	5.547829E-16	2.190611E-17
5.329247E+03	5.583649E-16	2.204594E-17
5.339134E+03	5.616342E-16	2.217340E-17
5.349021E+03	5.645377E-16	2.228641E-17
5.358908E+03	5.670405E-16	2.238360E-17
5.368796E+03	5.690925E-16	2.246299E-17
5.378683E+03	5.706465E-16	2.252272E-17
5.388570E+03	5.716768E-16	2.256178E-17
5.398458E+03	5.721395E-16	2.257844E-17
5.408345E+03	5.720142E-16	2.257191E-17
5.418232E+03	5.712760E-16	2.254121E-17
5.428119E+03	5.699252E-16	2.248634E-17
5.438007E+03	5.679476E-16	2.240677E-17
5.447894E+03	5.653609E-16	2.230319E-17
5.457781E+03	5.621808E-16	2.217622E-17
5.467669E+03	5.584323E-16	2.202685E-17
5.477556E+03	5.541437E-16	2.185621E-17
5.487443E+03	5.493689E-16	2.166644E-17
5.497330E+03	5.441477E-16	2.145908E-17
5.507218E+03	5.385378E-16	2.123644E-17
5.517105E+03	5.326033E-16	2.100104E-17
5.526992E+03	5.264180E-16	2.075579E-17
5.536880E+03	5.200485E-16	2.050331E-17
5.546767E+03	5.135687E-16	2.024653E-17
5.556654E+03	5.070531E-16	1.998837E-17
5.566541E+03	5.005754E-16	1.973176E-17
5.576429E+03	4.942074E-16	1.947951E-17
5.586316E+03	4.880175E-16	1.923432E-17
5.596203E+03	4.820700E-16	1.899872E-17
5.606091E+03	4.764192E-16	1.877485E-17
5.615978E+03	4.711281E-16	1.856519E-17
5.625865E+03	4.662340E-16	1.837121E-17
5.635752E+03	4.617820E-16	1.819468E-17
5.645640E+03	4.578047E-16	1.803688E-17
5.655527E+03	4.543236E-16	1.789866E-17
5.665414E+03	4.513568E-16	1.778072E-17
5.675302E+03	4.489197E-16	1.768367E-17
5.685189E+03	4.470115E-16	1.760747E-17
5.695076E+03	4.456283E-16	1.755197E-17
5.704963E+03	4.447641E-16	1.751692E-17
5.714851E+03	4.443929E-16	1.750130E-17
5.724738E+03	4.444908E-16	1.750417E-17
5.734625E+03	4.450371E-16	1.752470E-17
5.744513E+03	4.459838E-16	1.756100E-17
5.754400E+03	4.473038E-16	1.761201E-17
5.764287E+03	4.489402E-16	1.767548E-17
5.774174E+03	4.508498E-16	1.774970E-17
5.784062E+03	4.529823E-16	1.783270E-17
5.793949E+03	4.552815E-16	1.792226E-17
5.803836E+03	4.576989E-16	1.801648E-17
5.813724E+03	4.601822E-16	1.811329E-17
5.823611E+03	4.626710E-16	1.821031E-17
5.833498E+03	4.651206E-16	1.830580E-17
5.843385E+03	4.674849E-16	1.839793E-17
5.853273E+03	4.697220E-16	1.848505E-17
5.863160E+03	4.717854E-16	1.856534E-17
5.873047E+03	4.736520E-16	1.863789E-17
5.882935E+03	4.752914E-16	1.870150E-17
5.892822E+03	4.766786E-16	1.875519E-17
5.902709E+03	4.778047E-16	1.879862E-17
5.912596E+03	4.786621E-16	1.883148E-17
5.922484E+03	4.792447E-16	1.885354E-17
5.932371E+03	4.795522E-16	1.886479E-17
5.942258E+03	4.796034E-16	1.886597E-17
5.952146E+03	4.794075E-16	1.885744E-17
5.962033E+03	4.789829E-16	1.883993E-17
5.971920E+03	4.783462E-16	1.881408E-17
5.981807E+03	4.775304E-16	1.878121E-17
5.991695E+03	4.765519E-16	1.874196E-17
6.001582E+03	4.754417E-16	1.869754E-17
6.011469E+03	4.742313E-16	1.864920E-17
6.021357E+03	4.729376E-16	1.859760E-17
6.031244E+03	4.715953E-16	1.854410E-17
6.041131E+03	4.702283E-16	1.848965E-17
6.051018E+03	4.688579E-16	1.843509E-17
6.060906E+03	4.675084E-16	1.838136E-17
6.070793E+03	4.661963E-16	1.832912E-17
6.080680E+03	4.649354E-16	1.827891E-17
6.090568E+03	4.637498E-16	1.823168E-17
6.100455E+03	4.626430E-16	1.818756E-17
6.110342E+03	4.616284E-16	1.814709E-17
6.120229E+03	4.607031E-16	1.811014E-17
6.130117E+03	4.598659E-16	1.807667E-17
6.140004E+03	4.591088E-16	1.804636E-17
6.149891E+03	4.584124E-16	1.801846E-17
6.159779E+03	4.577775E-16	1.799299E-17
6.169666E+03	4.571862E-16	1.796925E-17
6.179553E+03	4.566286E-16	1.794685E-17
6.189440E+03	4.560902E-16	1.792521E-17
6.199328E+03	4.555649E-16	1.790411E-17
6.209215E+03	4.550420E-16	1.788311E-17
6.219102E+03	4.545059E-16	1.786161E-17
6.228990E+03	4.539458E-16	1.783919E-17
6.238877E+03	4.533557E-16	1.781560E-17
6.248764E+03	4.527209E-16	1.779026E-17
6.258651E+03	4.520364E-16	1.776298E-17
6.268539E+03	4.512937E-16	1.773344E-17
6.278426E+03	4.504806E-16	1.770114E-17
6.288313E+03	4.495995E-16	1.766618E-17
6.298201E+03	4.486360E-16	1.762800E-17
6.308088E+03	4.475948E-16	1.758677E-17
6.317975E+03	4.464684E-16	1.754222E-17
6.327862E+03	4.452552E-16	1.749426E-17
6.337750E+03	4.439545E-16	1.744289E-17
6.347637E+03	4.425716E-16	1.738829E-17
6.357524E+03	4.411083E-16	1.733056E-17
6.367412E+03	4.395673E-16	1.726978E-17
6.377299E+03	4.379525E-16	1.720611E-17
6.387186E+03	4.362723E-16	1.713990E-17
6.397073E+03	4.345365E-16	1.707150E-17
6.406961E+03	4.327499E-16	1.700113E-17
6.416848E+03	4.309266E-16	1.692932E-17
6.426735E+03	4.290671E-16	1.685611E-17
6.436623E+03	4.271801E-16	1.678183E-17
6.446510E+03	4.252607E-16	1.670628E-17
6.456397E+03	4.233160E-16	1.662976E-17
6.466284E+03	4.213437E-16	1.655216E-17
6.476172E+03	4.193490E-16	1.647370E-17
6.486059E+03	4.173362E-16	1.639453E-17
6.495946E+03	4.152995E-16	1.631444E-17
6.505833E+03	4.132457E-16	1.623369E-17
6.515721E+03	4.111716E-16	1.615215E-17
6.525608E+03	4.090737E-16	1.606968E-17
6.535495E+03	4.069526E-16	1.598632E-17
6.545383E+03	4.048089E-16	1.590208E-17
6.555270E+03	4.026394E-16	1.581683E-17
6.565157E+03	4.004411E-16	1.573046E-17
6.575044E+03	3.982128E-16	1.564293E-17
6.584932E+03	3.959628E-16	1.555455E-17
6.594819E+03	3.936838E-16	1.546504E-17
6.604706E+03	3.913880E-16	1.537488E-17
6.614594E+03	3.890759E-16	1.528409E-17
6.624481E+03	3.867594E-16	1.519314E-17
6.634368E+03	3.844479E-16	1.510239E-17
6.644255E+03	3.821529E-16	1.501230E-17
6.654143E+03	3.798919E-16	1.492355E-17
6.664030E+03	3.776717E-16	1.483641E-17
6.673917E+03	3.755174E-16	1.475187E-17
6.683805E+03	3.734428E-16	1.467047E-17
6.693692E+03	3.714711E-16	1.459312E-17
6.703579E+03	3.696175E-16	1.452042E-17
6.713466E+03	3.679065E-16	1.445332E-17
6.723354E+03	3.663576E-16	1.439261E-17
6.733241E+03	3.649862E-16	1.433887E-17
6.743128E+03	3.638151E-16	1.429301E-17
6.753016E+03	3.628663E-16	1.425589E-17
6.762903E+03	3.621432E-16	1.422765E-17
6.772790E+03	3.616727E-16	1.420934E-17
6.782677E+03	3.614630E-16	1.420129E-17
6.792565E+03	3.615200E-16	1.420372E-17
6.802452E+03	3.618597E-16	1.421726E-17
6.812339E+03	3.624785E-16	1.424178E-17
6.822227E+03	3.633825E-16	1.427752E-17
6.832114E+03	3.645710E-16	1.432445E-17
6.842001E+03	3.660404E-16	1.438242E-17
6.851888E+03	3.677840E-16	1.445118E-17
6.861776E+03	3.697882E-16	1.453019E-17
6.871663E+03	3.720458E-16	1.461917E-17
6.881550E+03	3.745426E-16	1.471757E-17
6.891438E+03	3.772583E-16	1.482457E-17
6.901325E+03	3.801802E-16	1.493970E-17
6.911212E+03	3.832894E-16	1.506220E-17
6.921099E+03	3.865578E-16	1.519096E-17
6.930987E+03	3.899793E-16	1.532577E-17
6.940874E+03	3.935208E-16	1.546531E-17
6.950761E+03	3.971726E-16	1.560919E-17
6.960649E+03	4.009070E-16	1.575634E-17
6.970536E+03	4.047164E-16	1.590646E-17
6.980423E+03	4.085749E-16	1.605852E-17
6.990310E+03	4.124725E-16	1.621214E-17
7.000198E+03	4.163949E-16	1.636676E-17
7.010085E+03	4.203241E-16	1.652166E-17
7.019972E+03	4.242477E-16	1.667636E-17
7.029860E+03	4.281583E-16	1.683057E-17
7.039747E+03	4.320331E-16	1.698340E-17
7.049634E+03	4.358700E-16	1.713475E-17
7.059521E+03	4.396391E-16	1.728347E-17
7.069409E+03	4.433418E-16	1.742959E-17
7.079296E+03	4.469452E-16	1.757183E-17
7.089183E+03	4.504423E-16	1.770992E-17
7.099071E+03	4.538022E-16	1.784263E-17
7.108958E+03	4.570084E-16	1.796933E-17
7.118845E+03	4.600322E-16	1.808887E-17
7.128732E+03	4.628541E-16	1.820049E-17
7.138620E+03	4.654369E-16	1.830274E-17
7.148507E+03	4.677652E-16	1.839499E-17
7.158394E+03	4.697951E-16	1.847554E-17
7.168282E+03	4.715175E-16	1.854401E-17
7.178169E+03	4.728904E-16	1.859876E-17
7.188056E+03	4.738964E-16	1.863909E-17
7.197943E+03	4.745094E-16	1.866399E-17
7.207831E+03	4.747241E-16	1.867323E-17
7.217718E+03	4.745099E-16	1.866562E-17
7.227605E+03	4.738640E-16	1.864103E-17
7.237493E+03	4.727828E-16	1.859934E-17
7.247380E+03	4.712676E-16	1.854059E-17
7.257267E+03	4.693251E-16	1.846504E-17
7.267154E+03	4.669613E-16	1.837291E-17
7.277042E+03	4.641931E-16	1.826488E-17
7.286929E+03	4.610422E-16	1.814180E-17
7.296816E+03	4.575345E-16	1.800467E-17
7.306704E+03	4.537000E-16	1.785469E-17
7.316591E+03	4.495770E-16	1.769336E-17
7.326478E+03	4.451902E-16	1.752164E-17
7.336365E+03	4.405829E-16	1.734124E-17
7.346253E+03	4.357938E-16	1.715368E-17
7.356140E+03	4.308572E-16	1.696031E-17
7.366027E+03	4.258238E-16	1.676312E-17
7.375915E+03	4.207222E-16	1.656324E-17
7.385802E+03	4.155961E-16	1.636239E-17
7.395689E+03	4.104775E-16	1.616182E-17
7.405576E+03	4.054120E-16	1.596334E-17
7.415464E+03	4.004179E-16	1.576766E-17
7.425351E+03	3.955415E-16	1.557660E-17
7.435238E+03	3.908016E-16	1.539091E-17
7.445126E+03	3.862297E-16	1.521182E-17
7.455013E+03	3.818496E-16	1.504028E-17
7.464900E+03	3.776785E-16	1.487697E-17
7.474787E+03	3.737409E-16	1.472284E-17
7.484675E+03	3.700579E-16	1.457874E-17
7.494562E+03	3.666338E-16	1.444483E-17
7.504449E+03	3.634838E-16	1.432171E-17
7.514337E+03	3.606154E-16	1.420968E-17
7.524224E+03	3.580372E-16	1.410908E-17
7.534111E+03	3.557456E-16	1.401977E-17
7.543998E+03	3.537384E-16	1.394167E-17
7.553886E+03	3.520148E-16	1.387475E-17
7.563773E+03	3.505616E-16	1.381848E-17
7.573660E+03	3.493721E-16	1.377262E-17
7.583548E+03	3.484316E-16	1.373657E-17
7.593435E+03	3.477228E-16	1.370966E-17
7.603322E+03	3.472213E-16	1.369093E-17
7.613209E+03	3.469135E-16	1.367985E-17
7.623097E+03	3.467703E-16	1.367526E-17
7.632984E+03	3.467648E-16	1.367611E-17
7.642871E+03	3.468686E-16	1.368128E-17
7.652759E+03	3.470521E-16	1.368960E-17
7.662646E+03	3.472845E-16	1.369987E-17
7.672533E+03	3.475393E-16	1.371102E-17
