#wls	flux	fluxerr
1.581966E+03	3.520206E-16	1.257563E-17
1.621515E+03	3.600450E-16	1.285070E-17
1.661064E+03	3.677005E-16	1.311183E-17
1.700613E+03	3.749292E-16	1.335697E-17
1.740162E+03	3.815934E-16	1.358124E-17
1.779711E+03	3.876549E-16	1.378332E-17
1.819260E+03	3.930392E-16	1.396060E-17
1.858810E+03	3.975705E-16	1.410690E-17
1.898359E+03	4.009746E-16	1.421259E-17
1.937908E+03	4.031417E-16	1.427389E-17
1.977457E+03	4.039647E-16	1.428714E-17
2.017006E+03	4.036246E-16	1.425889E-17
2.056555E+03	4.026028E-16	1.420626E-17
2.096104E+03	4.018371E-16	1.416238E-17
2.135654E+03	4.024183E-16	1.416563E-17
2.175203E+03	4.053367E-16	1.425062E-17
2.214752E+03	4.106197E-16	1.441802E-17
2.254301E+03	4.174586E-16	1.463911E-17
2.293850E+03	4.249891E-16	1.488340E-17
2.333399E+03	4.321851E-16	1.511487E-17
2.372948E+03	4.386428E-16	1.531945E-17
2.412498E+03	4.439989E-16	1.548455E-17
2.452047E+03	4.482258E-16	1.560935E-17
2.491596E+03	4.513122E-16	1.569361E-17
2.531145E+03	4.532889E-16	1.573857E-17
2.570694E+03	4.542773E-16	1.574859E-17
2.610243E+03	4.543201E-16	1.572531E-17
2.649792E+03	4.535289E-16	1.567273E-17
2.689342E+03	4.518583E-16	1.558942E-17
2.728891E+03	4.495444E-16	1.548367E-17
2.768440E+03	4.465220E-16	1.535335E-17
2.807989E+03	4.429269E-16	1.520326E-17
2.847538E+03	4.388084E-16	1.503519E-17
2.887087E+03	4.341402E-16	1.484835E-17
2.926636E+03	4.291301E-16	1.464995E-17
2.966185E+03	4.237723E-16	1.443987E-17
2.976073E+03	4.223894E-16	1.438591E-17
2.985960E+03	4.209750E-16	1.433089E-17
2.995847E+03	4.195836E-16	1.427667E-17
3.005735E+03	4.181024E-16	1.421941E-17
3.015622E+03	4.166953E-16	1.416470E-17
3.025509E+03	4.151960E-16	1.410686E-17
3.035396E+03	4.137145E-16	1.404966E-17
3.045284E+03	4.121919E-16	1.399108E-17
3.055171E+03	4.106941E-16	1.393336E-17
3.065058E+03	4.092157E-16	1.387633E-17
3.074946E+03	4.077011E-16	1.381808E-17
3.084833E+03	4.061975E-16	1.376024E-17
3.094720E+03	4.047004E-16	1.370264E-17
3.104607E+03	4.032053E-16	1.364513E-17
3.114495E+03	4.016601E-16	1.358595E-17
3.124382E+03	4.001580E-16	1.352825E-17
3.134269E+03	3.985993E-16	1.346866E-17
3.144157E+03	3.970751E-16	1.341027E-17
3.154044E+03	3.955344E-16	1.335134E-17
3.163931E+03	3.939742E-16	1.329178E-17
3.173818E+03	3.923912E-16	1.323149E-17
3.183706E+03	3.907828E-16	1.317036E-17
3.193593E+03	3.891896E-16	1.310978E-17
3.203480E+03	3.876072E-16	1.304959E-17
3.213368E+03	3.859895E-16	1.298825E-17
3.223255E+03	3.843759E-16	1.292707E-17
3.233142E+03	3.827625E-16	1.286593E-17
3.243029E+03	3.811057E-16	1.280337E-17
3.252917E+03	3.794830E-16	1.274199E-17
3.262804E+03	3.778118E-16	1.267901E-17
3.272691E+03	3.761674E-16	1.261696E-17
3.282579E+03	3.745080E-16	1.255445E-17
3.292466E+03	3.728311E-16	1.249139E-17
3.302353E+03	3.711708E-16	1.242892E-17
3.312240E+03	3.694879E-16	1.236573E-17
3.322128E+03	3.678158E-16	1.230294E-17
3.332015E+03	3.661515E-16	1.224045E-17
3.341902E+03	3.644582E-16	1.217702E-17
3.351790E+03	3.628020E-16	1.211488E-17
3.361677E+03	3.611132E-16	1.205168E-17
3.371564E+03	3.594561E-16	1.198958E-17
3.381451E+03	3.577959E-16	1.192742E-17
3.391339E+03	3.561621E-16	1.186618E-17
3.401226E+03	3.545218E-16	1.180476E-17
3.411113E+03	3.529042E-16	1.174414E-17
3.421001E+03	3.513073E-16	1.168424E-17
3.430888E+03	3.497295E-16	1.162502E-17
3.440775E+03	3.481695E-16	1.156642E-17
3.450662E+03	3.466540E-16	1.150935E-17
3.460550E+03	3.451269E-16	1.145192E-17
3.470437E+03	3.436692E-16	1.139683E-17
3.480324E+03	3.422259E-16	1.134226E-17
3.490212E+03	3.408233E-16	1.128907E-17
3.500099E+03	3.394360E-16	1.123642E-17
3.509986E+03	3.381147E-16	1.118598E-17
3.519873E+03	3.368582E-16	1.113772E-17
3.529761E+03	3.356426E-16	1.109084E-17
3.539648E+03	3.344695E-16	1.104539E-17
3.549535E+03	3.333858E-16	1.100292E-17
3.559423E+03	3.323470E-16	1.096195E-17
3.569310E+03	3.313777E-16	1.092330E-17
3.579197E+03	3.305010E-16	1.088771E-17
3.589084E+03	3.296973E-16	1.085454E-17
3.598972E+03	3.289898E-16	1.082456E-17
3.608859E+03	3.283805E-16	1.079781E-17
3.618746E+03	3.278718E-16	1.077437E-17
3.628634E+03	3.274664E-16	1.075432E-17
3.638521E+03	3.271675E-16	1.073777E-17
3.648408E+03	3.269967E-16	1.072541E-17
3.658295E+03	3.269381E-16	1.071672E-17
3.668183E+03	3.270131E-16	1.071239E-17
3.678070E+03	3.272241E-16	1.071249E-17
3.687957E+03	3.275906E-16	1.071765E-17
3.697845E+03	3.280971E-16	1.072735E-17
3.707732E+03	3.287456E-16	1.074165E-17
3.717619E+03	3.295536E-16	1.076112E-17
3.727506E+03	3.305215E-16	1.078575E-17
3.737394E+03	3.316484E-16	1.081550E-17
3.747281E+03	3.329487E-16	1.085085E-17
3.757168E+03	3.343887E-16	1.089066E-17
3.767056E+03	3.360108E-16	1.093633E-17
3.776943E+03	3.377794E-16	1.098668E-17
3.786830E+03	3.396889E-16	1.104151E-17
3.796717E+03	3.417606E-16	1.110151E-17
3.806605E+03	3.439706E-16	1.116590E-17
3.816492E+03	3.463083E-16	1.123431E-17
3.826379E+03	3.487751E-16	1.130679E-17
3.836267E+03	3.513438E-16	1.138245E-17
3.846154E+03	3.540126E-16	1.146122E-17
3.850109E+03	2.426023E-16	7.852180E-18
3.852086E+03	2.490998E-16	8.061395E-18
3.854064E+03	2.562494E-16	8.291657E-18
3.856041E+03	2.602756E-16	8.420800E-18
3.858019E+03	2.647524E-16	8.564487E-18
3.859996E+03	2.682234E-16	8.675599E-18
3.861974E+03	2.734007E-16	8.841866E-18
3.863951E+03	2.783963E-16	9.002209E-18
3.865928E+03	2.828077E-16	9.143621E-18
3.867906E+03	2.893667E-16	9.354418E-18
3.869883E+03	2.929162E-16	9.467882E-18
3.871861E+03	3.004253E-16	9.709284E-18
3.873838E+03	3.064011E-16	9.901073E-18
3.875816E+03	3.102491E-16	1.002406E-17
3.877793E+03	3.134741E-16	1.012689E-17
3.879771E+03	3.177350E-16	1.026314E-17
3.881748E+03	3.226579E-16	1.042074E-17
3.883726E+03	3.249826E-16	1.049440E-17
3.885703E+03	3.275856E-16	1.057702E-17
3.887680E+03	3.306875E-16	1.067572E-17
3.889658E+03	3.341255E-16	1.078524E-17
3.891635E+03	3.365566E-16	1.086224E-17
3.893613E+03	3.399567E-16	1.097048E-17
3.895590E+03	3.432133E-16	1.107406E-17
3.897568E+03	3.457795E-16	1.115535E-17
3.899545E+03	3.483364E-16	1.123630E-17
3.901523E+03	3.522845E-16	1.136210E-17
3.903500E+03	3.555614E-16	1.146623E-17
3.905478E+03	3.572078E-16	1.151775E-17
3.907455E+03	3.590365E-16	1.157513E-17
3.909432E+03	3.603186E-16	1.161488E-17
3.911410E+03	3.617927E-16	1.166080E-17
3.913387E+03	3.631422E-16	1.170269E-17
3.915365E+03	3.631581E-16	1.170160E-17
3.917342E+03	3.632892E-16	1.170422E-17
3.919320E+03	3.667886E-16	1.181534E-17
3.921297E+03	3.672653E-16	1.182908E-17
3.923275E+03	3.683085E-16	1.186105E-17
3.925252E+03	3.689005E-16	1.187848E-17
3.927230E+03	3.691856E-16	1.188603E-17
3.929207E+03	3.694418E-16	1.189264E-17
3.931184E+03	3.719059E-16	1.197032E-17
3.933162E+03	3.738231E-16	1.203037E-17
3.935139E+03	3.752700E-16	1.207527E-17
3.937117E+03	3.771972E-16	1.213561E-17
3.939094E+03	3.791438E-16	1.219656E-17
3.941072E+03	3.817146E-16	1.227756E-17
3.943049E+03	3.844681E-16	1.236442E-17
3.945027E+03	3.863673E-16	1.242378E-17
3.947004E+03	3.890540E-16	1.250845E-17
3.948982E+03	3.928262E-16	1.262798E-17
3.950959E+03	3.951390E-16	1.270057E-17
3.952937E+03	3.981051E-16	1.279414E-17
3.954914E+03	4.012828E-16	1.289448E-17
3.956891E+03	4.050659E-16	1.301424E-17
3.958869E+03	4.092240E-16	1.314601E-17
3.960846E+03	4.155725E-16	1.334810E-17
3.962824E+03	4.210859E-16	1.352332E-17
3.964801E+03	4.206823E-16	1.350848E-17
3.966779E+03	4.215180E-16	1.353343E-17
3.968756E+03	4.202594E-16	1.349115E-17
3.970734E+03	4.220655E-16	1.354725E-17
3.972711E+03	4.253515E-16	1.365082E-17
3.974689E+03	4.286858E-16	1.375592E-17
3.976666E+03	4.308866E-16	1.382461E-17
3.978643E+03	4.332799E-16	1.389946E-17
3.980621E+03	4.358367E-16	1.397954E-17
3.982598E+03	4.390761E-16	1.408148E-17
3.984576E+03	4.412491E-16	1.414919E-17
3.986553E+03	4.388281E-16	1.406960E-17
3.988531E+03	4.397614E-16	1.409755E-17
3.990508E+03	4.412810E-16	1.414430E-17
3.992486E+03	4.405901E-16	1.412018E-17
3.994463E+03	4.407835E-16	1.412440E-17
3.996441E+03	4.414959E-16	1.414525E-17
3.998418E+03	4.428239E-16	1.418581E-17
4.000395E+03	4.436712E-16	1.421096E-17
4.002373E+03	4.433360E-16	1.419824E-17
4.004350E+03	4.430008E-16	1.418552E-17
4.006328E+03	4.425117E-16	1.416787E-17
4.008305E+03	4.423496E-16	1.416069E-17
4.010283E+03	4.425529E-16	1.416521E-17
4.012260E+03	4.425542E-16	1.416327E-17
4.014238E+03	4.427287E-16	1.416686E-17
4.016215E+03	4.403834E-16	1.408983E-17
4.018193E+03	4.388074E-16	1.403743E-17
4.020170E+03	4.373754E-16	1.398966E-17
4.022148E+03	4.356067E-16	1.393112E-17
4.024125E+03	4.344728E-16	1.389290E-17
4.026102E+03	4.332714E-16	1.385254E-17
4.028080E+03	4.306557E-16	1.376697E-17
4.030057E+03	4.284919E-16	1.369586E-17
4.032035E+03	4.261548E-16	1.361924E-17
4.034012E+03	4.237982E-16	1.354202E-17
4.035990E+03	4.219130E-16	1.347987E-17
4.037967E+03	4.197484E-16	1.340882E-17
4.039945E+03	4.168813E-16	1.331535E-17
4.041922E+03	4.154766E-16	1.326861E-17
4.043900E+03	4.136484E-16	1.320836E-17
4.045877E+03	4.115409E-16	1.313920E-17
4.047854E+03	4.082204E-16	1.303134E-17
4.049832E+03	4.051210E-16	1.293057E-17
4.051809E+03	4.034653E-16	1.287590E-17
4.053787E+03	4.016747E-16	1.281694E-17
4.055764E+03	4.011257E-16	1.279761E-17
4.057742E+03	4.018861E-16	1.282005E-17
4.059719E+03	4.009328E-16	1.278782E-17
4.061697E+03	4.007978E-16	1.278170E-17
4.063674E+03	3.985925E-16	1.270957E-17
4.065652E+03	3.986500E-16	1.270960E-17
4.067629E+03	3.957031E-16	1.261385E-17
4.069606E+03	3.926210E-16	1.251382E-17
4.071584E+03	3.926397E-16	1.251264E-17
4.073561E+03	3.920517E-16	1.249212E-17
4.075539E+03	3.912806E-16	1.246577E-17
4.077516E+03	3.896908E-16	1.241335E-17
4.079494E+03	3.892374E-16	1.239714E-17
4.081471E+03	3.891885E-16	1.239382E-17
4.083449E+03	3.893902E-16	1.239848E-17
4.085426E+03	3.889753E-16	1.238350E-17
4.087404E+03	3.890324E-16	1.238355E-17
4.089381E+03	3.896292E-16	1.240077E-17
4.091359E+03	3.896864E-16	1.240082E-17
4.093336E+03	3.899942E-16	1.240884E-17
4.095313E+03	3.898394E-16	1.240214E-17
4.097291E+03	3.901664E-16	1.241077E-17
4.099268E+03	3.906381E-16	1.242399E-17
4.101246E+03	3.920928E-16	1.246847E-17
4.103223E+03	3.913984E-16	1.244461E-17
4.105201E+03	3.913980E-16	1.244281E-17
4.107178E+03	3.912432E-16	1.243611E-17
4.109156E+03	3.911945E-16	1.243278E-17
4.111133E+03	3.923027E-16	1.246621E-17
4.113111E+03	3.923794E-16	1.246686E-17
4.115088E+03	3.914341E-16	1.243504E-17
4.117065E+03	3.898139E-16	1.238179E-17
4.119043E+03	3.879236E-16	1.231997E-17
4.121020E+03	3.879327E-16	1.231849E-17
4.122998E+03	3.875077E-16	1.230323E-17
4.124975E+03	3.876904E-16	1.230725E-17
4.126953E+03	3.876414E-16	1.230393E-17
4.128930E+03	3.868693E-16	1.227765E-17
4.130908E+03	3.871387E-16	1.228443E-17
4.132885E+03	3.882954E-16	1.231936E-17
4.134863E+03	3.873592E-16	1.228789E-17
4.136840E+03	3.871849E-16	1.228059E-17
4.138817E+03	3.862003E-16	1.224759E-17
4.140795E+03	3.863829E-16	1.225162E-17
4.142772E+03	3.845781E-16	1.219263E-17
4.144750E+03	3.834968E-16	1.215659E-17
4.146727E+03	3.828110E-16	1.213310E-17
4.148705E+03	3.826654E-16	1.212673E-17
4.150682E+03	3.813425E-16	1.208306E-17
4.152660E+03	3.794793E-16	1.202228E-17
4.154637E+03	3.794878E-16	1.202082E-17
4.156615E+03	3.790911E-16	1.200651E-17
4.158592E+03	3.792155E-16	1.200871E-17
4.160570E+03	3.800348E-16	1.203291E-17
4.162547E+03	3.785377E-16	1.198378E-17
4.164524E+03	3.780540E-16	1.196673E-17
4.166502E+03	3.780818E-16	1.196587E-17
4.168479E+03	3.764299E-16	1.191186E-17
4.170457E+03	3.741794E-16	1.183893E-17
4.172434E+03	3.732802E-16	1.180876E-17
4.174412E+03	3.725547E-16	1.178410E-17
4.176389E+03	3.715395E-16	1.175028E-17
4.178367E+03	3.690468E-16	1.166975E-17
4.180344E+03	3.665443E-16	1.158894E-17
4.182322E+03	3.649396E-16	1.153652E-17
4.184299E+03	3.637789E-16	1.149816E-17
4.186276E+03	3.617103E-16	1.143111E-17
4.188254E+03	3.616408E-16	1.142725E-17
4.190231E+03	3.617353E-16	1.142857E-17
4.192209E+03	3.612407E-16	1.141129E-17
4.194186E+03	3.607460E-16	1.139400E-17
4.196164E+03	3.605314E-16	1.138556E-17
4.198141E+03	3.610123E-16	1.139909E-17
4.200119E+03	3.609426E-16	1.139522E-17
4.202096E+03	3.611724E-16	1.140081E-17
4.204074E+03	3.624262E-16	1.143872E-17
4.206051E+03	3.646175E-16	1.150620E-17
4.208028E+03	3.655528E-16	1.153404E-17
4.210006E+03	3.651257E-16	1.151888E-17
4.211983E+03	3.659838E-16	1.154426E-17
4.213961E+03	3.671416E-16	1.157909E-17
4.215938E+03	3.673136E-16	1.158282E-17
4.217916E+03	3.685681E-16	1.162068E-17
4.219893E+03	3.685953E-16	1.161984E-17
4.221871E+03	3.697340E-16	1.165403E-17
4.223848E+03	3.705344E-16	1.167755E-17
4.225826E+03	3.701267E-16	1.166299E-17
4.227803E+03	3.708305E-16	1.168346E-17
4.229781E+03	3.718244E-16	1.171306E-17
4.231758E+03	3.722094E-16	1.172347E-17
4.233735E+03	3.725943E-16	1.173387E-17
4.235713E+03	3.731534E-16	1.174975E-17
4.237690E+03	3.729389E-16	1.174128E-17
4.239668E+03	3.722602E-16	1.171819E-17
4.241645E+03	3.722584E-16	1.171641E-17
4.243623E+03	3.730012E-16	1.173806E-17
4.245600E+03	3.736956E-16	1.175819E-17
4.247578E+03	3.744772E-16	1.178105E-17
4.249555E+03	3.743497E-16	1.177531E-17
4.251533E+03	3.745799E-16	1.178082E-17
4.253510E+03	3.729531E-16	1.172793E-17
4.255487E+03	3.715968E-16	1.168357E-17
4.257465E+03	3.717883E-16	1.168787E-17
4.259442E+03	3.729182E-16	1.172166E-17
4.261420E+03	3.715714E-16	1.167761E-17
4.263397E+03	3.708533E-16	1.165333E-17
4.265375E+03	3.711124E-16	1.165975E-17
4.267352E+03	3.688945E-16	1.158836E-17
4.269330E+03	3.681084E-16	1.156196E-17
4.271307E+03	3.671480E-16	1.153010E-17
4.273285E+03	3.656843E-16	1.148244E-17
4.275262E+03	3.634172E-16	1.140957E-17
4.277239E+03	3.622725E-16	1.137196E-17
4.279217E+03	3.618923E-16	1.135835E-17
4.281194E+03	3.613089E-16	1.133836E-17
4.283172E+03	3.607350E-16	1.131868E-17
4.285149E+03	3.602095E-16	1.130052E-17
4.287127E+03	3.583673E-16	1.124107E-17
4.289104E+03	3.567573E-16	1.118891E-17
4.291082E+03	3.554181E-16	1.114527E-17
4.293059E+03	3.531977E-16	1.107401E-17
4.295037E+03	3.519938E-16	1.103463E-17
4.297014E+03	3.489598E-16	1.093790E-17
4.298991E+03	3.477846E-16	1.089945E-17
4.300969E+03	3.472581E-16	1.088134E-17
4.302946E+03	3.457049E-16	1.083107E-17
4.304924E+03	3.448198E-16	1.080174E-17
4.306901E+03	3.432761E-16	1.075179E-17
4.308879E+03	3.414126E-16	1.069184E-17
4.310856E+03	3.385610E-16	1.060097E-17
4.312834E+03	3.386923E-16	1.060351E-17
4.314811E+03	3.385720E-16	1.059817E-17
4.316789E+03	3.368047E-16	1.054129E-17
4.318766E+03	3.354343E-16	1.049684E-17
4.320744E+03	3.350036E-16	1.048181E-17
4.322721E+03	3.339722E-16	1.044799E-17
4.324698E+03	3.329503E-16	1.041448E-17
4.326676E+03	3.320737E-16	1.038552E-17
4.328653E+03	3.299275E-16	1.031687E-17
4.330631E+03	3.289053E-16	1.028337E-17
4.332608E+03	3.282705E-16	1.026200E-17
4.334586E+03	3.268798E-16	1.021701E-17
4.336563E+03	3.245875E-16	1.014386E-17
4.338541E+03	3.232546E-16	1.010070E-17
4.340518E+03	3.224062E-16	1.007270E-17
4.342496E+03	3.225462E-16	1.007558E-17
4.344473E+03	3.225409E-16	1.007391E-17
4.346450E+03	3.229330E-16	1.008466E-17
4.348428E+03	3.244205E-16	1.012961E-17
4.350405E+03	3.253749E-16	1.015790E-17
4.352383E+03	3.263972E-16	1.018830E-17
4.354360E+03	3.262950E-16	1.018359E-17
4.356338E+03	3.261830E-16	1.017858E-17
4.358315E+03	3.268176E-16	1.019687E-17
4.360293E+03	3.270449E-16	1.020244E-17
4.362270E+03	3.257304E-16	1.015992E-17
4.364248E+03	3.255310E-16	1.015219E-17
4.366225E+03	3.260104E-16	1.016563E-17
4.368202E+03	3.266545E-16	1.018420E-17
4.370180E+03	3.256695E-16	1.015198E-17
4.372157E+03	3.251692E-16	1.013487E-17
4.374135E+03	3.255806E-16	1.014618E-17
4.376112E+03	3.257107E-16	1.014872E-17
4.378090E+03	3.260348E-16	1.015731E-17
4.380067E+03	3.256410E-16	1.014353E-17
4.382045E+03	3.262269E-16	1.016027E-17
4.384022E+03	3.265316E-16	1.016824E-17
4.386000E+03	3.254489E-16	1.013301E-17
4.387977E+03	3.262580E-16	1.015669E-17
4.389955E+03	3.274261E-16	1.019153E-17
4.391932E+03	3.288369E-16	1.023392E-17
4.393909E+03	3.288795E-16	1.023372E-17
4.395887E+03	3.297954E-16	1.026069E-17
4.397864E+03	3.306144E-16	1.028463E-17
4.399842E+03	3.316275E-16	1.031461E-17
4.401819E+03	3.304375E-16	1.027606E-17
4.403797E+03	3.294998E-16	1.024537E-17
4.405774E+03	3.309594E-16	1.028922E-17
4.407752E+03	3.317977E-16	1.031374E-17
4.409729E+03	3.323935E-16	1.033072E-17
4.411707E+03	3.341153E-16	1.038268E-17
4.413684E+03	3.348470E-16	1.040386E-17
4.415661E+03	3.365981E-16	1.045671E-17
4.417639E+03	3.365339E-16	1.045315E-17
4.419616E+03	3.364501E-16	1.044899E-17
4.421594E+03	3.374052E-16	1.047708E-17
4.423571E+03	3.380399E-16	1.049522E-17
4.425549E+03	3.389174E-16	1.052089E-17
4.427526E+03	3.403872E-16	1.056494E-17
4.429504E+03	3.413424E-16	1.059300E-17
4.431481E+03	3.427055E-16	1.063371E-17
4.433459E+03	3.443406E-16	1.068285E-17
4.435436E+03	3.457330E-16	1.072444E-17
4.437413E+03	3.471741E-16	1.076753E-17
4.439391E+03	3.481295E-16	1.079555E-17
4.441368E+03	3.497649E-16	1.084464E-17
4.443346E+03	3.505359E-16	1.086692E-17
4.445323E+03	3.522976E-16	1.091990E-17
4.447301E+03	3.536807E-16	1.096113E-17
4.449278E+03	3.545684E-16	1.098700E-17
4.451256E+03	3.572144E-16	1.106733E-17
4.453233E+03	3.586170E-16	1.110912E-17
4.455211E+03	3.599712E-16	1.114940E-17
4.457188E+03	3.615198E-16	1.119569E-17
4.459166E+03	3.636999E-16	1.126152E-17
4.461143E+03	3.646850E-16	1.129033E-17
4.463120E+03	3.668751E-16	1.135643E-17
4.465098E+03	3.675881E-16	1.137680E-17
4.467075E+03	3.701184E-16	1.145339E-17
4.469053E+03	3.729502E-16	1.153929E-17
4.471030E+03	3.764720E-16	1.164652E-17
4.473008E+03	3.802176E-16	1.176063E-17
4.474985E+03	3.822431E-16	1.182150E-17
4.476963E+03	3.840744E-16	1.187636E-17
4.478940E+03	3.862265E-16	1.194112E-17
4.480918E+03	3.867554E-16	1.195568E-17
4.482895E+03	3.888397E-16	1.201830E-17
4.484872E+03	3.904087E-16	1.206499E-17
4.486850E+03	3.919487E-16	1.211077E-17
4.488827E+03	3.949761E-16	1.220248E-17
4.490805E+03	3.966718E-16	1.225303E-17
4.492782E+03	3.997966E-16	1.234770E-17
4.494760E+03	4.032424E-16	1.245226E-17
4.496737E+03	4.054051E-16	1.251716E-17
4.498715E+03	4.085110E-16	1.261117E-17
4.500692E+03	4.103724E-16	1.266673E-17
4.502670E+03	4.126618E-16	1.273548E-17
4.504647E+03	4.158265E-16	1.283123E-17
4.506624E+03	4.194190E-16	1.294014E-17
4.508602E+03	4.215726E-16	1.300463E-17
4.510579E+03	4.236776E-16	1.306761E-17
4.512557E+03	4.261329E-16	1.314136E-17
4.514534E+03	4.289966E-16	1.322769E-17
4.516512E+03	4.313645E-16	1.329871E-17
4.518489E+03	4.339270E-16	1.337570E-17
4.520467E+03	4.363535E-16	1.344848E-17
4.522444E+03	4.387702E-16	1.352093E-17
4.524422E+03	4.410023E-16	1.358767E-17
4.526399E+03	4.437986E-16	1.367178E-17
4.528377E+03	4.458752E-16	1.373369E-17
4.530354E+03	4.488761E-16	1.382405E-17
4.532331E+03	4.518576E-16	1.391378E-17
4.534309E+03	4.558218E-16	1.403374E-17
4.536286E+03	4.597570E-16	1.415277E-17
4.538264E+03	4.623692E-16	1.423105E-17
4.540241E+03	4.648452E-16	1.430511E-17
4.542219E+03	4.683041E-16	1.440939E-17
4.544196E+03	4.722594E-16	1.452891E-17
4.546174E+03	4.743660E-16	1.459152E-17
4.548151E+03	4.777279E-16	1.469273E-17
4.550129E+03	4.804672E-16	1.477476E-17
4.552106E+03	4.837904E-16	1.487472E-17
4.554083E+03	4.861018E-16	1.494354E-17
4.556061E+03	4.894252E-16	1.504345E-17
4.558038E+03	4.929532E-16	1.514961E-17
4.560016E+03	4.966565E-16	1.526113E-17
4.561993E+03	4.994255E-16	1.534391E-17
4.563971E+03	5.013770E-16	1.540156E-17
4.565948E+03	5.037958E-16	1.547354E-17
4.567926E+03	5.056988E-16	1.552965E-17
4.569903E+03	5.068522E-16	1.556274E-17
4.571881E+03	5.080349E-16	1.559671E-17
4.573858E+03	5.099476E-16	1.565308E-17
4.575835E+03	5.114806E-16	1.569778E-17
4.577813E+03	5.138023E-16	1.576667E-17
4.579790E+03	5.147123E-16	1.579222E-17
4.581768E+03	5.169658E-16	1.585898E-17
4.583745E+03	5.178175E-16	1.588272E-17
4.585723E+03	5.178414E-16	1.588107E-17
4.587700E+03	5.174174E-16	1.586568E-17
4.589678E+03	5.191840E-16	1.591747E-17
4.591655E+03	5.200451E-16	1.594147E-17
4.593633E+03	5.201369E-16	1.594189E-17
4.595610E+03	5.201604E-16	1.594022E-17
4.597588E+03	5.207487E-16	1.595585E-17
4.599565E+03	5.216777E-16	1.598192E-17
4.601542E+03	5.219152E-16	1.598680E-17
4.603520E+03	5.225034E-16	1.600241E-17
4.605497E+03	5.227894E-16	1.600877E-17
4.607475E+03	5.231631E-16	1.601781E-17
4.609452E+03	5.224946E-16	1.599494E-17
4.611430E+03	5.221181E-16	1.598102E-17
4.613407E+03	5.216052E-16	1.596292E-17
