#wls	flux	fluxerr
1.581966E+03	2.834583E-16	6.965529E-18
1.621515E+03	2.903629E-16	7.134094E-18
1.661064E+03	2.969504E-16	7.294787E-18
1.700613E+03	3.032304E-16	7.447844E-18
1.740162E+03	3.090932E-16	7.590573E-18
1.779711E+03	3.145689E-16	7.723717E-18
1.819260E+03	3.194766E-16	7.842835E-18
1.858810E+03	3.237327E-16	7.945883E-18
1.898359E+03	3.271139E-16	8.027386E-18
1.937908E+03	3.295898E-16	8.086607E-18
1.977457E+03	3.309436E-16	8.118241E-18
2.017006E+03	3.313806E-16	8.127335E-18
2.056555E+03	3.312298E-16	8.121974E-18
2.096104E+03	3.313249E-16	8.122603E-18
2.135654E+03	3.326946E-16	8.154427E-18
2.175203E+03	3.359190E-16	8.231645E-18
2.214752E+03	3.411599E-16	8.358187E-18
2.254301E+03	3.478245E-16	8.519496E-18
2.293850E+03	3.550744E-16	8.695014E-18
2.333399E+03	3.621850E-16	8.866988E-18
2.372948E+03	3.688123E-16	9.026999E-18
2.412498E+03	3.745799E-16	9.165838E-18
2.452047E+03	3.795145E-16	9.284175E-18
2.491596E+03	3.836552E-16	9.382977E-18
2.531145E+03	3.869441E-16	9.460841E-18
2.570694E+03	3.894611E-16	9.519736E-18
2.610243E+03	3.912821E-16	9.561530E-18
2.649792E+03	3.924730E-16	9.587845E-18
2.689342E+03	3.930277E-16	9.598544E-18
2.728891E+03	3.930503E-16	9.596185E-18
2.768440E+03	3.925131E-16	9.580098E-18
2.807989E+03	3.915502E-16	9.553572E-18
2.847538E+03	3.901091E-16	9.515332E-18
2.887087E+03	3.882384E-16	9.466578E-18
2.926636E+03	3.860208E-16	9.409334E-18
2.966185E+03	3.833680E-16	9.341459E-18
2.976073E+03	3.826445E-16	9.323018E-18
2.985960E+03	3.819226E-16	9.304616E-18
2.995847E+03	3.811523E-16	9.285034E-18
3.005735E+03	3.803796E-16	9.265390E-18
3.015622E+03	3.796019E-16	9.245628E-18
3.025509E+03	3.787709E-16	9.224565E-18
3.035396E+03	3.779336E-16	9.203348E-18
3.045284E+03	3.770396E-16	9.180751E-18
3.055171E+03	3.761906E-16	9.159248E-18
3.065058E+03	3.752927E-16	9.136555E-18
3.074946E+03	3.744301E-16	9.114722E-18
3.084833E+03	3.735113E-16	9.091521E-18
3.094720E+03	3.726190E-16	9.068964E-18
3.104607E+03	3.716642E-16	9.044887E-18
3.114495E+03	3.707278E-16	9.021258E-18
3.124382E+03	3.697643E-16	8.996968E-18
3.134269E+03	3.687704E-16	8.971942E-18
3.144157E+03	3.677434E-16	8.946111E-18
3.154044E+03	3.667198E-16	8.920363E-18
3.163931E+03	3.656954E-16	8.894595E-18
3.173818E+03	3.646280E-16	8.867785E-18
3.183706E+03	3.635532E-16	8.840793E-18
3.193593E+03	3.624301E-16	8.812628E-18
3.203480E+03	3.612932E-16	8.784132E-18
3.213368E+03	3.601394E-16	8.755224E-18
3.223255E+03	3.589653E-16	8.725826E-18
3.233142E+03	3.577681E-16	8.695865E-18
3.243029E+03	3.565446E-16	8.665270E-18
3.252917E+03	3.552923E-16	8.633976E-18
3.262804E+03	3.540418E-16	8.602730E-18
3.272691E+03	3.527239E-16	8.569845E-18
3.282579E+03	3.514344E-16	8.537656E-18
3.292466E+03	3.500734E-16	8.503730E-18
3.302353E+03	3.487339E-16	8.470331E-18
3.312240E+03	3.473501E-16	8.435859E-18
3.322128E+03	3.459509E-16	8.401014E-18
3.332015E+03	3.445334E-16	8.365731E-18
3.341902E+03	3.430954E-16	8.329953E-18
3.351790E+03	3.416350E-16	8.293634E-18
3.361677E+03	3.401782E-16	8.257407E-18
3.371564E+03	3.386948E-16	8.220537E-18
3.381451E+03	3.371837E-16	8.183000E-18
3.391339E+03	3.356708E-16	8.145421E-18
3.401226E+03	3.341283E-16	8.107130E-18
3.411113E+03	3.326073E-16	8.069366E-18
3.421001E+03	3.310549E-16	8.030843E-18
3.430888E+03	3.295201E-16	7.992752E-18
3.440775E+03	3.279758E-16	7.954436E-18
3.450662E+03	3.264210E-16	7.915870E-18
3.460550E+03	3.248777E-16	7.877586E-18
3.470437E+03	3.233211E-16	7.838985E-18
3.480324E+03	3.217732E-16	7.800599E-18
3.490212E+03	3.202329E-16	7.762404E-18
3.500099E+03	3.186998E-16	7.724386E-18
3.509986E+03	3.171738E-16	7.686548E-18
3.519873E+03	3.156762E-16	7.649402E-18
3.529761E+03	3.141870E-16	7.612464E-18
3.539648E+03	3.127082E-16	7.575781E-18
3.549535E+03	3.112804E-16	7.540340E-18
3.559423E+03	3.098669E-16	7.505250E-18
3.569310E+03	3.085082E-16	7.471491E-18
3.579197E+03	3.071888E-16	7.438688E-18
3.589084E+03	3.059130E-16	7.406947E-18
3.598972E+03	3.047033E-16	7.376808E-18
3.608859E+03	3.035478E-16	7.347987E-18
3.618746E+03	3.024862E-16	7.321439E-18
3.628634E+03	3.014914E-16	7.296512E-18
3.638521E+03	3.006029E-16	7.274160E-18
3.648408E+03	2.998115E-16	7.254159E-18
3.658295E+03	2.991251E-16	7.236701E-18
3.668183E+03	2.985821E-16	7.222713E-18
3.678070E+03	2.981613E-16	7.211678E-18
3.687957E+03	2.978867E-16	7.204180E-18
3.697845E+03	2.977684E-16	7.200460E-18
3.707732E+03	2.978302E-16	7.201093E-18
3.717619E+03	2.980686E-16	7.205992E-18
3.727506E+03	2.985076E-16	7.215735E-18
3.737394E+03	2.991565E-16	7.230546E-18
3.747281E+03	3.000111E-16	7.250322E-18
3.757168E+03	3.011033E-16	7.275830E-18
3.767056E+03	3.024242E-16	7.306857E-18
3.776943E+03	3.039762E-16	7.343454E-18
3.786830E+03	3.057704E-16	7.385890E-18
3.796717E+03	3.078027E-16	7.434064E-18
3.806605E+03	3.100539E-16	7.487506E-18
3.816492E+03	3.125233E-16	7.546203E-18
3.826379E+03	3.151947E-16	7.609758E-18
3.836267E+03	3.180489E-16	7.677710E-18
3.846154E+03	3.210643E-16	7.749529E-18
3.856041E+03	3.242280E-16	7.824907E-18
3.865928E+03	3.274922E-16	7.902688E-18
3.875816E+03	3.308525E-16	7.982766E-18
3.885703E+03	3.342811E-16	8.064466E-18
3.895590E+03	3.377385E-16	8.146839E-18
3.905478E+03	3.411960E-16	8.229189E-18
3.915365E+03	3.446351E-16	8.311070E-18
3.925252E+03	3.480262E-16	8.391772E-18
3.935139E+03	3.513195E-16	8.470091E-18
3.945027E+03	3.545171E-16	8.546080E-18
3.954914E+03	3.575590E-16	8.618292E-18
3.964801E+03	3.604366E-16	8.686523E-18
3.974689E+03	3.631213E-16	8.750085E-18
3.984576E+03	3.655668E-16	8.807863E-18
3.994463E+03	3.677591E-16	8.859523E-18
4.004350E+03	3.696874E-16	8.904808E-18
4.014238E+03	3.713163E-16	8.942866E-18
4.024125E+03	3.726355E-16	8.973454E-18
4.034012E+03	3.736486E-16	8.996661E-18
4.043900E+03	3.743455E-16	9.012246E-18
4.053787E+03	3.747300E-16	9.020302E-18
4.063674E+03	3.748016E-16	9.020824E-18
4.073561E+03	3.745814E-16	9.014319E-18
4.083449E+03	3.740690E-16	9.000783E-18
4.093336E+03	3.733015E-16	8.981112E-18
4.103223E+03	3.722791E-16	8.955308E-18
4.113111E+03	3.710386E-16	8.924265E-18
4.122998E+03	3.696118E-16	8.888746E-18
4.132885E+03	3.680182E-16	8.849221E-18
4.142772E+03	3.663017E-16	8.806752E-18
4.152660E+03	3.644924E-16	8.762061E-18
4.162547E+03	3.626204E-16	8.715871E-18
4.172434E+03	3.607214E-16	8.669043E-18
4.182322E+03	3.588292E-16	8.622388E-18
4.192209E+03	3.569618E-16	8.576340E-18
4.202096E+03	3.551480E-16	8.531589E-18
4.211983E+03	3.534072E-16	8.488603E-18
4.221871E+03	3.517632E-16	8.447951E-18
4.231758E+03	3.502253E-16	8.409855E-18
4.241645E+03	3.488194E-16	8.374937E-18
4.251533E+03	3.475468E-16	8.343225E-18
4.261420E+03	3.464376E-16	8.315442E-18
4.271307E+03	3.454870E-16	8.291471E-18
4.281194E+03	3.447191E-16	8.271889E-18
4.291082E+03	3.441409E-16	8.256863E-18
4.300969E+03	3.437713E-16	8.246843E-18
4.310856E+03	3.436132E-16	8.241897E-18
4.320744E+03	3.436868E-16	8.242508E-18
4.330631E+03	3.440020E-16	8.248907E-18
4.340518E+03	3.445735E-16	8.261452E-18
4.350405E+03	3.454052E-16	8.280226E-18
4.360293E+03	3.465096E-16	8.305531E-18
4.370180E+03	3.478879E-16	8.337393E-18
4.380067E+03	3.495393E-16	8.375786E-18
4.389955E+03	3.514649E-16	8.420738E-18
4.399842E+03	3.536581E-16	8.472085E-18
4.409729E+03	3.561171E-16	8.529783E-18
4.419616E+03	3.588498E-16	8.594016E-18
4.429504E+03	3.618525E-16	8.664697E-18
4.439391E+03	3.651083E-16	8.741417E-18
4.449278E+03	3.686125E-16	8.824059E-18
4.459166E+03	3.723247E-16	8.911654E-18
4.469053E+03	3.762169E-16	9.003531E-18
4.478940E+03	3.802501E-16	9.098755E-18
4.488827E+03	3.843787E-16	9.196233E-18
4.498715E+03	3.885451E-16	9.294586E-18
4.508602E+03	3.926898E-16	9.392393E-18
4.518489E+03	3.967422E-16	9.487961E-18
4.528377E+03	4.006299E-16	9.579562E-18
4.538264E+03	4.042708E-16	9.665237E-18
4.548151E+03	4.075865E-16	9.743114E-18
4.558038E+03	4.104999E-16	9.811349E-18
4.567926E+03	4.129269E-16	9.867943E-18
4.577813E+03	4.148121E-16	9.911574E-18
4.587700E+03	4.160866E-16	9.940601E-18
4.597588E+03	4.167155E-16	9.954199E-18
4.607475E+03	4.166759E-16	9.951825E-18
4.617362E+03	4.159601E-16	9.933302E-18
4.627249E+03	4.145790E-16	9.898902E-18
4.637137E+03	4.125760E-16	9.849663E-18
4.647024E+03	4.099914E-16	9.786554E-18
4.656911E+03	4.068894E-16	9.711116E-18
4.666798E+03	4.033501E-16	9.625263E-18
4.676686E+03	3.994575E-16	9.531005E-18
4.686573E+03	3.952966E-16	9.430374E-18
4.696460E+03	3.909633E-16	9.325661E-18
4.706348E+03	3.865483E-16	9.219028E-18
4.716235E+03	3.821393E-16	9.112571E-18
4.726122E+03	3.778284E-16	9.008482E-18
4.736009E+03	3.736847E-16	8.908408E-18
4.745897E+03	3.697765E-16	8.813979E-18
4.755784E+03	3.661670E-16	8.726697E-18
4.765671E+03	3.629094E-16	8.647823E-18
4.775559E+03	3.600550E-16	8.578580E-18
4.785446E+03	3.576450E-16	8.519944E-18
4.795333E+03	3.557174E-16	8.472817E-18
4.805220E+03	3.542993E-16	8.437835E-18
4.815108E+03	3.534139E-16	8.415551E-18
4.824995E+03	3.530755E-16	8.406296E-18
4.834882E+03	3.532855E-16	8.410098E-18
4.844770E+03	3.540384E-16	8.426824E-18
4.854657E+03	3.553198E-16	8.456121E-18
4.864544E+03	3.570906E-16	8.497057E-18
4.874431E+03	3.593134E-16	8.548737E-18
4.884319E+03	3.619173E-16	8.609469E-18
4.894206E+03	3.648273E-16	8.677464E-18
4.904093E+03	3.679471E-16	8.750429E-18
4.913981E+03	3.711580E-16	8.825544E-18
4.923868E+03	3.743361E-16	8.899855E-18
4.933755E+03	3.773481E-16	8.970201E-18
4.943642E+03	3.800637E-16	9.033481E-18
4.953530E+03	3.823614E-16	9.086814E-18
4.963417E+03	3.841636E-16	9.128357E-18
4.973304E+03	3.854412E-16	9.157427E-18
4.983192E+03	3.862084E-16	9.174368E-18
4.993079E+03	3.865090E-16	9.180221E-18
5.002966E+03	3.864118E-16	9.176626E-18
5.012853E+03	3.859998E-16	9.165560E-18
5.022741E+03	3.853590E-16	9.149064E-18
5.032628E+03	3.845741E-16	9.129156E-18
5.042515E+03	3.837162E-16	9.107520E-18
5.052403E+03	3.828532E-16	9.085771E-18
5.062290E+03	3.820437E-16	9.065301E-18
5.072177E+03	3.813431E-16	9.047421E-18
5.082064E+03	3.807953E-16	9.033172E-18
5.091952E+03	3.804323E-16	9.023314E-18
5.101839E+03	3.802842E-16	9.018555E-18
5.111726E+03	3.803840E-16	9.019675E-18
5.121614E+03	3.807433E-16	9.026953E-18
5.131501E+03	3.813817E-16	9.040846E-18
5.141388E+03	3.823112E-16	9.061637E-18
5.151275E+03	3.835392E-16	9.089497E-18
5.161163E+03	3.850695E-16	9.124518E-18
5.171050E+03	3.869025E-16	9.166701E-18
5.180937E+03	3.890338E-16	9.215942E-18
5.190825E+03	3.914557E-16	9.272057E-18
5.200712E+03	3.941571E-16	9.334776E-18
5.210599E+03	3.971273E-16	9.403846E-18
5.220486E+03	4.003444E-16	9.478747E-18
5.230374E+03	4.037889E-16	9.559015E-18
5.240261E+03	4.074431E-16	9.644226E-18
5.250148E+03	4.112751E-16	9.733625E-18
5.260036E+03	4.152718E-16	9.826904E-18
5.269923E+03	4.193927E-16	9.923097E-18
5.279810E+03	4.236152E-16	1.002167E-17
5.289697E+03	4.279054E-16	1.012183E-17
5.299585E+03	4.322160E-16	1.022244E-17
5.309472E+03	4.365127E-16	1.032270E-17
5.319359E+03	4.407474E-16	1.042148E-17
5.329247E+03	4.448579E-16	1.051729E-17
5.339134E+03	4.487955E-16	1.060900E-17
5.349021E+03	4.524940E-16	1.069503E-17
5.358908E+03	4.558939E-16	1.077400E-17
5.368796E+03	4.589200E-16	1.084411E-17
5.378683E+03	4.615131E-16	1.090398E-17
5.388570E+03	4.635941E-16	1.095174E-17
5.398458E+03	4.651018E-16	1.098595E-17
5.408345E+03	4.659571E-16	1.100475E-17
5.418232E+03	4.661006E-16	1.100674E-17
5.428119E+03	4.654583E-16	1.099018E-17
5.438007E+03	4.639814E-16	1.095392E-17
5.447894E+03	4.616207E-16	1.089682E-17
5.457781E+03	4.583310E-16	1.081781E-17
5.467669E+03	4.541088E-16	1.071681E-17
5.477556E+03	4.489476E-16	1.059369E-17
5.487443E+03	4.428873E-16	1.044939E-17
5.497330E+03	4.359800E-16	1.028516E-17
5.507218E+03	4.283099E-16	1.010297E-17
5.517105E+03	4.199811E-16	9.905298E-18
5.526992E+03	4.111088E-16	9.694864E-18
5.536880E+03	4.018160E-16	9.474568E-18
5.546767E+03	3.922289E-16	9.247394E-18
5.556654E+03	3.824804E-16	9.016473E-18
5.566541E+03	3.726966E-16	8.784783E-18
5.576429E+03	3.630054E-16	8.555332E-18
5.586316E+03	3.535284E-16	8.330990E-18
5.596203E+03	3.443835E-16	8.114531E-18
5.606091E+03	3.356694E-16	7.908276E-18
5.615978E+03	3.274876E-16	7.714615E-18
5.625865E+03	3.199193E-16	7.535451E-18
5.635752E+03	3.130404E-16	7.372571E-18
5.645640E+03	3.069043E-16	7.227225E-18
5.655527E+03	3.015596E-16	7.100552E-18
5.665414E+03	2.970425E-16	6.993397E-18
5.675302E+03	2.933684E-16	6.906115E-18
5.685189E+03	2.905485E-16	6.838964E-18
5.695076E+03	2.885804E-16	6.791879E-18
5.704963E+03	2.874510E-16	6.764547E-18
5.714851E+03	2.871336E-16	6.756331E-18
5.724738E+03	2.875868E-16	6.766253E-18
5.734625E+03	2.887586E-16	6.793083E-18
5.744513E+03	2.905831E-16	6.835265E-18
5.754400E+03	2.929746E-16	6.890778E-18
5.764287E+03	2.958429E-16	6.957497E-18
5.774174E+03	2.990796E-16	7.032873E-18
5.784062E+03	3.025839E-16	7.114527E-18
5.793949E+03	3.062484E-16	7.199937E-18
5.803836E+03	3.099910E-16	7.287170E-18
5.813724E+03	3.137282E-16	7.374264E-18
5.823611E+03	3.173931E-16	7.459648E-18
5.833498E+03	3.209203E-16	7.541786E-18
5.843385E+03	3.242572E-16	7.619439E-18
5.853273E+03	3.273508E-16	7.691369E-18
5.863160E+03	3.301589E-16	7.756582E-18
5.873047E+03	3.326457E-16	7.814243E-18
5.882935E+03	3.347847E-16	7.863730E-18
5.892822E+03	3.365460E-16	7.904344E-18
5.902709E+03	3.379164E-16	7.935777E-18
5.912596E+03	3.388870E-16	7.957824E-18
5.922484E+03	3.394553E-16	7.970427E-18
5.932371E+03	3.396306E-16	7.973810E-18
5.942258E+03	3.394316E-16	7.968413E-18
5.952146E+03	3.388899E-16	7.954980E-18
5.962033E+03	3.380353E-16	7.934213E-18
5.971920E+03	3.369108E-16	7.907123E-18
5.981807E+03	3.355679E-16	7.874922E-18
5.991695E+03	3.340529E-16	7.838698E-18
6.001582E+03	3.324274E-16	7.799893E-18
6.011469E+03	3.307387E-16	7.759622E-18
6.021357E+03	3.290514E-16	7.719399E-18
6.031244E+03	3.274187E-16	7.680472E-18
6.041131E+03	3.259048E-16	7.644345E-18
6.051018E+03	3.245680E-16	7.612390E-18
6.060906E+03	3.234661E-16	7.585955E-18
6.070793E+03	3.226648E-16	7.566583E-18
6.080680E+03	3.222179E-16	7.555533E-18
6.090568E+03	3.221771E-16	7.554016E-18
6.100455E+03	3.225900E-16	7.563146E-18
6.110342E+03	3.234923E-16	7.583757E-18
6.120229E+03	3.249102E-16	7.616462E-18
6.130117E+03	3.268435E-16	7.661254E-18
6.140004E+03	3.292826E-16	7.717903E-18
6.149891E+03	3.322058E-16	7.785903E-18
6.159779E+03	3.355672E-16	7.864174E-18
6.169666E+03	3.393106E-16	7.951395E-18
6.179553E+03	3.433632E-16	8.045860E-18
6.189440E+03	3.476296E-16	8.145336E-18
6.199328E+03	3.520128E-16	8.247543E-18
6.209215E+03	3.563975E-16	8.349786E-18
6.219102E+03	3.606766E-16	8.449555E-18
6.228990E+03	3.647384E-16	8.544231E-18
6.238877E+03	3.684847E-16	8.631517E-18
6.248764E+03	3.718445E-16	8.709750E-18
6.258651E+03	3.747646E-16	8.777689E-18
6.268539E+03	3.772160E-16	8.834653E-18
6.278426E+03	3.791834E-16	8.880288E-18
6.288313E+03	3.806707E-16	8.914684E-18
6.298201E+03	3.816956E-16	8.938261E-18
6.308088E+03	3.822693E-16	8.951282E-18
6.317975E+03	3.823951E-16	8.953823E-18
6.327862E+03	3.820854E-16	8.946178E-18
6.337750E+03	3.813480E-16	8.928530E-18
6.347637E+03	3.801732E-16	8.900654E-18
6.357524E+03	3.785541E-16	8.862390E-18
6.367412E+03	3.764642E-16	8.813118E-18
6.377299E+03	3.738718E-16	8.752096E-18
6.387186E+03	3.707566E-16	8.678850E-18
6.397073E+03	3.670932E-16	8.592789E-18
6.406961E+03	3.628818E-16	8.493917E-18
6.416848E+03	3.581620E-16	8.383160E-18
6.426735E+03	3.530026E-16	8.262131E-18
6.436623E+03	3.475068E-16	8.133246E-18
6.446510E+03	3.417946E-16	7.999315E-18
6.456397E+03	3.359880E-16	7.863190E-18
6.466284E+03	3.301978E-16	7.727466E-18
6.476172E+03	3.245301E-16	7.594626E-18
6.486059E+03	3.190859E-16	7.467030E-18
6.495946E+03	3.139301E-16	7.346197E-18
6.505833E+03	3.091086E-16	7.233204E-18
6.515721E+03	3.046226E-16	7.128072E-18
6.525608E+03	3.004398E-16	7.030049E-18
6.535495E+03	2.965256E-16	6.938320E-18
6.545383E+03	2.928438E-16	6.852042E-18
6.555270E+03	2.893506E-16	6.770185E-18
6.565157E+03	2.860201E-16	6.692148E-18
6.575044E+03	2.828149E-16	6.617051E-18
6.584932E+03	2.797103E-16	6.544319E-18
6.594819E+03	2.766829E-16	6.473402E-18
6.604706E+03	2.737105E-16	6.403779E-18
6.614594E+03	2.707850E-16	6.335265E-18
6.624481E+03	2.678953E-16	6.267594E-18
6.634368E+03	2.650370E-16	6.200668E-18
6.644255E+03	2.622210E-16	6.134738E-18
6.654143E+03	2.594508E-16	6.069888E-18
6.664030E+03	2.567440E-16	6.006528E-18
6.673917E+03	2.541189E-16	5.945088E-18
6.683805E+03	2.515997E-16	5.886132E-18
6.693692E+03	2.492048E-16	5.830092E-18
6.703579E+03	2.469636E-16	5.777654E-18
6.713466E+03	2.449007E-16	5.729391E-18
6.723354E+03	2.430502E-16	5.686108E-18
6.733241E+03	2.414390E-16	5.648427E-18
6.743128E+03	2.400949E-16	5.617001E-18
6.753016E+03	2.390551E-16	5.592701E-18
6.762903E+03	2.383474E-16	5.576175E-18
6.772790E+03	2.380100E-16	5.568320E-18
6.782677E+03	2.380809E-16	5.570024E-18
6.792565E+03	2.385968E-16	5.582143E-18
6.802452E+03	2.396015E-16	5.605708E-18
6.812339E+03	2.411253E-16	5.641422E-18
6.822227E+03	2.432062E-16	5.690179E-18
6.832114E+03	2.458662E-16	5.752494E-18
6.842001E+03	2.491277E-16	5.828891E-18
6.851888E+03	2.530014E-16	5.919619E-18
6.861776E+03	2.574806E-16	6.024525E-18
6.871663E+03	2.625460E-16	6.143161E-18
6.881550E+03	2.681424E-16	6.274232E-18
6.891438E+03	2.741736E-16	6.415488E-18
6.901325E+03	2.804945E-16	6.563538E-18
6.911212E+03	2.869119E-16	6.713861E-18
6.921099E+03	2.931884E-16	6.860904E-18
6.930987E+03	2.990753E-16	6.998843E-18
6.940874E+03	3.043247E-16	7.121880E-18
6.950761E+03	3.087503E-16	7.225655E-18
6.960649E+03	3.122572E-16	7.307942E-18
6.970536E+03	3.148514E-16	7.368883E-18
6.980423E+03	3.166055E-16	7.410175E-18
6.990310E+03	3.176555E-16	7.434998E-18
7.000198E+03	3.181813E-16	7.447563E-18
7.010085E+03	3.183883E-16	7.452677E-18
7.019972E+03	3.184798E-16	7.455097E-18
7.029860E+03	3.186705E-16	7.459849E-18
7.039747E+03	3.191387E-16	7.471108E-18
7.049634E+03	3.200284E-16	7.492244E-18
7.059521E+03	3.214512E-16	7.525875E-18
7.069409E+03	3.234904E-16	7.573950E-18
7.079296E+03	3.262018E-16	7.637779E-18
7.089183E+03	3.296041E-16	7.717801E-18
7.099071E+03	3.336868E-16	7.813777E-18
7.108958E+03	3.383971E-16	7.924467E-18
7.118845E+03	3.436535E-16	8.047969E-18
7.128732E+03	3.493456E-16	8.181700E-18
7.138620E+03	3.553562E-16	8.322917E-18
7.148507E+03	3.615447E-16	8.468327E-18
7.158394E+03	3.677662E-16	8.614540E-18
7.168282E+03	3.738533E-16	8.757633E-18
7.178169E+03	3.796383E-16	8.893678E-18
7.188056E+03	3.849381E-16	9.018387E-18
7.197943E+03	3.895811E-16	9.127735E-18
7.207831E+03	3.934000E-16	9.217802E-18
7.217718E+03	3.962516E-16	9.285228E-18
7.227605E+03	3.980266E-16	9.327448E-18
7.237493E+03	3.986653E-16	9.343058E-18
7.247380E+03	3.981445E-16	9.331510E-18
7.257267E+03	3.964883E-16	9.293361E-18
7.267154E+03	3.937585E-16	9.230054E-18
7.277042E+03	3.900513E-16	9.143842E-18
7.286929E+03	3.854767E-16	9.037296E-18
7.296816E+03	3.801635E-16	8.913427E-18
7.306704E+03	3.742469E-16	8.775409E-18
7.316591E+03	3.678512E-16	8.626145E-18
7.326478E+03	3.610951E-16	8.468420E-18
7.336365E+03	3.540686E-16	8.304341E-18
7.346253E+03	3.468627E-16	8.136038E-18
7.356140E+03	3.395455E-16	7.965112E-18
7.366027E+03	3.321750E-16	7.792915E-18
7.375915E+03	3.248101E-16	7.620835E-18
7.385802E+03	3.175073E-16	7.450190E-18
7.395689E+03	3.103165E-16	7.282157E-18
7.405576E+03	3.032910E-16	7.117982E-18
7.415464E+03	2.964813E-16	6.958853E-18
7.425351E+03	2.899323E-16	6.805825E-18
7.435238E+03	2.836949E-16	6.660091E-18
7.445126E+03	2.778118E-16	6.522656E-18
7.455013E+03	2.723131E-16	6.394232E-18
7.464900E+03	2.672378E-16	6.275731E-18
7.474787E+03	2.626035E-16	6.167572E-18
7.484675E+03	2.584335E-16	6.070307E-18
7.494562E+03	2.547429E-16	5.984290E-18
7.504449E+03	2.515388E-16	5.909691E-18
7.514337E+03	2.488311E-16	5.846749E-18
7.524224E+03	2.466215E-16	5.795506E-18
7.534111E+03	2.449045E-16	5.755836E-18
7.543998E+03	2.436747E-16	5.727617E-18
7.553886E+03	2.429265E-16	5.710723E-18
7.563773E+03	2.426442E-16	5.704782E-18
7.573660E+03	2.428112E-16	5.709414E-18
7.583548E+03	2.434087E-16	5.724180E-18
7.593435E+03	2.444024E-16	5.748273E-18
7.603322E+03	2.457634E-16	5.781020E-18
7.613209E+03	2.474431E-16	5.821282E-18
7.623097E+03	2.493914E-16	5.867881E-18
7.632984E+03	2.515405E-16	5.919222E-18
7.642871E+03	2.538292E-16	5.973871E-18
7.652759E+03	2.561809E-16	6.030024E-18
7.662646E+03	2.585237E-16	6.085988E-18
7.672533E+03	2.607748E-16	6.139817E-18
