#wls	flux	fluxerr
1.581966E+03	3.069897E-16	7.949844E-18
1.621515E+03	3.143976E-16	8.128225E-18
1.661064E+03	3.214531E-16	8.296529E-18
1.700613E+03	3.281659E-16	8.455026E-18
1.740162E+03	3.344814E-16	8.602328E-18
1.779711E+03	3.403038E-16	8.735998E-18
1.819260E+03	3.454998E-16	8.852668E-18
1.858810E+03	3.499795E-16	8.950101E-18
1.898359E+03	3.535689E-16	9.023941E-18
1.937908E+03	3.560322E-16	9.068297E-18
1.977457E+03	3.574074E-16	9.084290E-18
2.017006E+03	3.577132E-16	9.072559E-18
2.056555E+03	3.574413E-16	9.045712E-18
2.096104E+03	3.573561E-16	9.023143E-18
2.135654E+03	3.585676E-16	9.032771E-18
2.175203E+03	3.618987E-16	9.095038E-18
2.214752E+03	3.673198E-16	9.208802E-18
2.254301E+03	3.742563E-16	9.359277E-18
2.293850E+03	3.817348E-16	9.521864E-18
2.333399E+03	3.891830E-16	9.682177E-18
2.372948E+03	3.958867E-16	9.822470E-18
2.412498E+03	4.017920E-16	9.941512E-18
2.452047E+03	4.067231E-16	1.003510E-17
2.491596E+03	4.107276E-16	1.010458E-17
2.531145E+03	4.138188E-16	1.015046E-17
2.570694E+03	4.160889E-16	1.017515E-17
2.610243E+03	4.176257E-16	1.018098E-17
2.649792E+03	4.183732E-16	1.016673E-17
2.689342E+03	4.184682E-16	1.013589E-17
2.728891E+03	4.180294E-16	1.009148E-17
2.768440E+03	4.169695E-16	1.003151E-17
2.807989E+03	4.153824E-16	9.958404E-18
2.847538E+03	4.133428E-16	9.874075E-18
2.887087E+03	4.108490E-16	9.778604E-18
2.926636E+03	4.078868E-16	9.671783E-18
2.966185E+03	4.045893E-16	9.556895E-18
2.976073E+03	4.037117E-16	9.526904E-18
2.985960E+03	4.028402E-16	9.497057E-18
2.995847E+03	4.019209E-16	9.466082E-18
3.005735E+03	4.009528E-16	9.433958E-18
3.015622E+03	3.999846E-16	9.401837E-18
3.025509E+03	3.989642E-16	9.368492E-18
3.035396E+03	3.979908E-16	9.336257E-18
3.045284E+03	3.969604E-16	9.302688E-18
3.055171E+03	3.958859E-16	9.268097E-18
3.065058E+03	3.948588E-16	9.234622E-18
3.074946E+03	3.937792E-16	9.199928E-18
3.084833E+03	3.927368E-16	9.166115E-18
3.094720E+03	3.916343E-16	9.130909E-18
3.104607E+03	3.905145E-16	9.095315E-18
3.114495E+03	3.894182E-16	9.060277E-18
3.124382E+03	3.882520E-16	9.023630E-18
3.134269E+03	3.871010E-16	8.987352E-18
3.144157E+03	3.859172E-16	8.950332E-18
3.154044E+03	3.846978E-16	8.912503E-18
3.163931E+03	3.834813E-16	8.874762E-18
3.173818E+03	3.822633E-16	8.837008E-18
3.183706E+03	3.809586E-16	8.797272E-18
3.193593E+03	3.796859E-16	8.758302E-18
3.203480E+03	3.783613E-16	8.718161E-18
3.213368E+03	3.770212E-16	8.677690E-18
3.223255E+03	3.756621E-16	8.636813E-18
3.233142E+03	3.742806E-16	8.595452E-18
3.243029E+03	3.728734E-16	8.553534E-18
3.252917E+03	3.714376E-16	8.510995E-18
3.262804E+03	3.699704E-16	8.467773E-18
3.272691E+03	3.684692E-16	8.423812E-18
3.282579E+03	3.669664E-16	8.379856E-18
3.292466E+03	3.654580E-16	8.335814E-18
3.302353E+03	3.639073E-16	8.290849E-18
3.312240E+03	3.623125E-16	8.244928E-18
3.322128E+03	3.607373E-16	8.199497E-18
3.332015E+03	3.591136E-16	8.153015E-18
3.341902E+03	3.574722E-16	8.106181E-18
3.351790E+03	3.558417E-16	8.059648E-18
3.361677E+03	3.541588E-16	8.011980E-18
3.371564E+03	3.524829E-16	7.964527E-18
3.381451E+03	3.508118E-16	7.917236E-18
3.391339E+03	3.491147E-16	7.869418E-18
3.401226E+03	3.473917E-16	7.821075E-18
3.411113E+03	3.456976E-16	7.773441E-18
3.421001E+03	3.439758E-16	7.725245E-18
3.430888E+03	3.422791E-16	7.677674E-18
3.440775E+03	3.405538E-16	7.629521E-18
3.450662E+03	3.388507E-16	7.581930E-18
3.460550E+03	3.371677E-16	7.534850E-18
3.470437E+03	3.354790E-16	7.487705E-18
3.480324E+03	3.338083E-16	7.441025E-18
3.490212E+03	3.321548E-16	7.394790E-18
3.500099E+03	3.305182E-16	7.348994E-18
3.509986E+03	3.288986E-16	7.303636E-18
3.519873E+03	3.272969E-16	7.258737E-18
3.529761E+03	3.257357E-16	7.214795E-18
3.539648E+03	3.241946E-16	7.171360E-18
3.549535E+03	3.227172E-16	7.129389E-18
3.559423E+03	3.212639E-16	7.088008E-18
3.569310E+03	3.198583E-16	7.047732E-18
3.579197E+03	3.185227E-16	7.009050E-18
3.589084E+03	3.172413E-16	6.971607E-18
3.598972E+03	3.160370E-16	6.935905E-18
3.608859E+03	3.148962E-16	6.901638E-18
3.618746E+03	3.138600E-16	6.869698E-18
3.628634E+03	3.128983E-16	6.839422E-18
3.638521E+03	3.120518E-16	6.811691E-18
3.648408E+03	3.113258E-16	6.786612E-18
3.658295E+03	3.106942E-16	6.763604E-18
3.668183E+03	3.102130E-16	6.743878E-18
3.678070E+03	3.098728E-16	6.727216E-18
3.687957E+03	3.096814E-16	6.713774E-18
3.697845E+03	3.096468E-16	6.703717E-18
3.707732E+03	3.097774E-16	6.697207E-18
3.717619E+03	3.101105E-16	6.695037E-18
3.727506E+03	3.106243E-16	6.696718E-18
3.737394E+03	3.113403E-16	6.702699E-18
3.747281E+03	3.122642E-16	6.713082E-18
3.757168E+03	3.134001E-16	6.727937E-18
3.767056E+03	3.147635E-16	6.747576E-18
3.776943E+03	3.163408E-16	6.771687E-18
3.786830E+03	3.181552E-16	6.800750E-18
3.796717E+03	3.201750E-16	6.834060E-18
3.806605E+03	3.224041E-16	6.871686E-18
3.816492E+03	3.248301E-16	6.913344E-18
3.826379E+03	3.274376E-16	6.958685E-18
3.836267E+03	3.302201E-16	7.007559E-18
3.846154E+03	3.331445E-16	7.059244E-18
3.856041E+03	3.361997E-16	7.113496E-18
3.865928E+03	3.393608E-16	7.169772E-18
3.875816E+03	3.425900E-16	7.227266E-18
3.885703E+03	3.458716E-16	7.285644E-18
3.895590E+03	3.491890E-16	7.344547E-18
3.905478E+03	3.524907E-16	7.402892E-18
3.915365E+03	3.557591E-16	7.460312E-18
3.925252E+03	3.589649E-16	7.516195E-18
3.935139E+03	3.620790E-16	7.569942E-18
3.945027E+03	3.650831E-16	7.621176E-18
3.954914E+03	3.679270E-16	7.668862E-18
3.964801E+03	3.706041E-16	7.712880E-18
3.974689E+03	3.730669E-16	7.752256E-18
3.984576E+03	3.753016E-16	7.786728E-18
3.994463E+03	3.772968E-16	7.816079E-18
4.004350E+03	3.790139E-16	7.839536E-18
4.014238E+03	3.804399E-16	7.856857E-18
4.024125E+03	3.815757E-16	7.868088E-18
4.034012E+03	3.824169E-16	7.873167E-18
4.043900E+03	3.829454E-16	7.871753E-18
4.053787E+03	3.831856E-16	7.864375E-18
4.063674E+03	3.831289E-16	7.850886E-18
4.073561E+03	3.827987E-16	7.831793E-18
4.083449E+03	3.822043E-16	7.807315E-18
4.093336E+03	3.813592E-16	7.777755E-18
4.103223E+03	3.803060E-16	7.744002E-18
4.113111E+03	3.790483E-16	7.706153E-18
4.122998E+03	3.776262E-16	7.665041E-18
4.132885E+03	3.760729E-16	7.621355E-18
4.142772E+03	3.744154E-16	7.575657E-18
4.152660E+03	3.726817E-16	7.528522E-18
4.162547E+03	3.709074E-16	7.480677E-18
4.172434E+03	3.691196E-16	7.432670E-18
4.182322E+03	3.673512E-16	7.385169E-18
4.192209E+03	3.656266E-16	7.338660E-18
4.202096E+03	3.639744E-16	7.293713E-18
4.211983E+03	3.624085E-16	7.250600E-18
4.221871E+03	3.609541E-16	7.209817E-18
4.231758E+03	3.596283E-16	7.171695E-18
4.241645E+03	3.584533E-16	7.136663E-18
4.251533E+03	3.574378E-16	7.104883E-18
4.261420E+03	3.565969E-16	7.076638E-18
4.271307E+03	3.559451E-16	7.052199E-18
4.281194E+03	3.554969E-16	7.031837E-18
4.291082E+03	3.552614E-16	7.015710E-18
4.300969E+03	3.552530E-16	7.004085E-18
4.310856E+03	3.554812E-16	6.997128E-18
4.320744E+03	3.559552E-16	6.994995E-18
4.330631E+03	3.566891E-16	6.997943E-18
4.340518E+03	3.576770E-16	7.005830E-18
4.350405E+03	3.589407E-16	7.019060E-18
4.360293E+03	3.604798E-16	7.037600E-18
4.370180E+03	3.622916E-16	7.061372E-18
4.380067E+03	3.643811E-16	7.090447E-18
4.389955E+03	3.667442E-16	7.124717E-18
4.399842E+03	3.693674E-16	7.163901E-18
4.409729E+03	3.722578E-16	7.208107E-18
4.419616E+03	3.754057E-16	7.257127E-18
4.429504E+03	3.788150E-16	7.311012E-18
4.439391E+03	3.824672E-16	7.369381E-18
4.449278E+03	3.863509E-16	7.431994E-18
4.459166E+03	3.904374E-16	7.498276E-18
4.469053E+03	3.946952E-16	7.567612E-18
4.478940E+03	3.990753E-16	7.639044E-18
4.488827E+03	4.035417E-16	7.711876E-18
4.498715E+03	4.080253E-16	7.784783E-18
4.508602E+03	4.124601E-16	7.856508E-18
4.518489E+03	4.167844E-16	7.925885E-18
4.528377E+03	4.209155E-16	7.991355E-18
4.538264E+03	4.247721E-16	8.051399E-18
4.548151E+03	4.282723E-16	8.104492E-18
4.558038E+03	4.313354E-16	8.149145E-18
4.567926E+03	4.338805E-16	8.183876E-18
4.577813E+03	4.358459E-16	8.207570E-18
4.587700E+03	4.371762E-16	8.219243E-18
4.597588E+03	4.378306E-16	8.218188E-18
4.607475E+03	4.377801E-16	8.203923E-18
4.617362E+03	4.370198E-16	8.176425E-18
4.627249E+03	4.355690E-16	8.136120E-18
4.637137E+03	4.334499E-16	8.083482E-18
4.647024E+03	4.307223E-16	8.019689E-18
4.656911E+03	4.274458E-16	7.945901E-18
4.666798E+03	4.236976E-16	7.863600E-18
4.676686E+03	4.195644E-16	7.774439E-18
4.686573E+03	4.151350E-16	7.680091E-18
4.696460E+03	4.105068E-16	7.582381E-18
4.706348E+03	4.057716E-16	7.483022E-18
4.716235E+03	4.010269E-16	7.383815E-18
4.726122E+03	3.963514E-16	7.286210E-18
4.736009E+03	3.918347E-16	7.191840E-18
4.745897E+03	3.875465E-16	7.101970E-18
4.755784E+03	3.835561E-16	7.017848E-18
4.765671E+03	3.799354E-16	6.940756E-18
4.775559E+03	3.767355E-16	6.871597E-18
4.785446E+03	3.740096E-16	6.811300E-18
4.795333E+03	3.717896E-16	6.760408E-18
4.805220E+03	3.701125E-16	6.719546E-18
4.815108E+03	3.690017E-16	6.689094E-18
4.824995E+03	3.684669E-16	6.669179E-18
4.834882E+03	3.685156E-16	6.659890E-18
4.844770E+03	3.691311E-16	6.660877E-18
4.854657E+03	3.702965E-16	6.671788E-18
4.864544E+03	3.719722E-16	6.691869E-18
4.874431E+03	3.741124E-16	6.720255E-18
4.884319E+03	3.766427E-16	6.755576E-18
4.894206E+03	3.794851E-16	6.796405E-18
4.904093E+03	3.825428E-16	6.840986E-18
4.913981E+03	3.857013E-16	6.887263E-18
4.923868E+03	3.888464E-16	6.933190E-18
4.933755E+03	3.918492E-16	6.976476E-18
4.943642E+03	3.946046E-16	7.015267E-18
4.953530E+03	3.970074E-16	7.047713E-18
4.963417E+03	3.989916E-16	7.072678E-18
4.973304E+03	4.005203E-16	7.089539E-18
4.983192E+03	4.015899E-16	7.098270E-18
4.993079E+03	4.022270E-16	7.099376E-18
5.002966E+03	4.024771E-16	7.093693E-18
5.012853E+03	4.024103E-16	7.082486E-18
5.022741E+03	4.020970E-16	7.067015E-18
5.032628E+03	4.016227E-16	7.048801E-18
5.042515E+03	4.010539E-16	7.029019E-18
5.052403E+03	4.004610E-16	7.008913E-18
5.062290E+03	3.999167E-16	6.989753E-18
5.072177E+03	3.994693E-16	6.972378E-18
5.082064E+03	3.991685E-16	6.957650E-18
5.091952E+03	3.990650E-16	6.946441E-18
5.101839E+03	3.991900E-16	6.939280E-18
5.111726E+03	3.995688E-16	6.936592E-18
5.121614E+03	4.002291E-16	6.938841E-18
5.131501E+03	4.011936E-16	6.946400E-18
5.141388E+03	4.024674E-16	6.959341E-18
5.151275E+03	4.040642E-16	6.977877E-18
5.161163E+03	4.059927E-16	7.002143E-18
5.171050E+03	4.082456E-16	7.031988E-18
5.180937E+03	4.108279E-16	7.067483E-18
5.190825E+03	4.137286E-16	7.108417E-18
5.200712E+03	4.169369E-16	7.154591E-18
5.210599E+03	4.204393E-16	7.205753E-18
5.220486E+03	4.242189E-16	7.261600E-18
5.230374E+03	4.282610E-16	7.321866E-18
5.240261E+03	4.325394E-16	7.386091E-18
5.250148E+03	4.370307E-16	7.453867E-18
5.260036E+03	4.417091E-16	7.524742E-18
5.269923E+03	4.465513E-16	7.598317E-18
5.279810E+03	4.515233E-16	7.674008E-18
5.289697E+03	4.565934E-16	7.751271E-18
5.299585E+03	4.617279E-16	7.829535E-18
5.309472E+03	4.668952E-16	7.908268E-18
5.319359E+03	4.720411E-16	7.986551E-18
5.329247E+03	4.771069E-16	8.063400E-18
5.339134E+03	4.820103E-16	8.137430E-18
5.349021E+03	4.866705E-16	8.207290E-18
5.358908E+03	4.910045E-16	8.271600E-18
5.368796E+03	4.949281E-16	8.328960E-18
5.378683E+03	4.983506E-16	8.377868E-18
5.388570E+03	5.011957E-16	8.417074E-18
5.398458E+03	5.033677E-16	8.445000E-18
5.408345E+03	5.047825E-16	8.460273E-18
5.418232E+03	5.053701E-16	8.461761E-18
5.428119E+03	5.050420E-16	8.448020E-18
5.438007E+03	5.037441E-16	8.418194E-18
5.447894E+03	5.014257E-16	8.371481E-18
5.457781E+03	4.980488E-16	8.307292E-18
5.467669E+03	4.936017E-16	8.225481E-18
5.477556E+03	4.881026E-16	8.126397E-18
5.487443E+03	4.815862E-16	8.010660E-18
5.497330E+03	4.741285E-16	7.879575E-18
5.507218E+03	4.658108E-16	7.734531E-18
5.517105E+03	4.567501E-16	7.577497E-18
5.526992E+03	4.470737E-16	7.410614E-18
5.536880E+03	4.369200E-16	7.236190E-18
5.546767E+03	4.264337E-16	7.056635E-18
5.556654E+03	4.157619E-16	6.874389E-18
5.566541E+03	4.050554E-16	6.691942E-18
5.576429E+03	3.944527E-16	6.511576E-18
5.586316E+03	3.840935E-16	6.335584E-18
5.596203E+03	3.741005E-16	6.165973E-18
5.606091E+03	3.645896E-16	6.004633E-18
5.615978E+03	3.556679E-16	5.853299E-18
5.625865E+03	3.474221E-16	5.713374E-18
5.635752E+03	3.399289E-16	5.586084E-18
5.645640E+03	3.332538E-16	5.472476E-18
5.655527E+03	3.274415E-16	5.373249E-18
5.665414E+03	3.225259E-16	5.288927E-18
5.675302E+03	3.185277E-16	5.219816E-18
5.685189E+03	3.154573E-16	5.166051E-18
5.695076E+03	3.133061E-16	5.127462E-18
5.704963E+03	3.120528E-16	5.103667E-18
5.714851E+03	3.116722E-16	5.094228E-18
5.724738E+03	3.121165E-16	5.098336E-18
5.734625E+03	3.133243E-16	5.114962E-18
5.744513E+03	3.152266E-16	5.142961E-18
5.754400E+03	3.177389E-16	5.180936E-18
5.764287E+03	3.207667E-16	5.227332E-18
5.774174E+03	3.242049E-16	5.280423E-18
5.784062E+03	3.279484E-16	5.338493E-18
5.793949E+03	3.318970E-16	5.399903E-18
5.803836E+03	3.359492E-16	5.463001E-18
5.813724E+03	3.400138E-16	5.526305E-18
5.823611E+03	3.440105E-16	5.588515E-18
5.833498E+03	3.478572E-16	5.648300E-18
5.843385E+03	3.514891E-16	5.704618E-18
5.853273E+03	3.548430E-16	5.756448E-18
5.863160E+03	3.578736E-16	5.803067E-18
5.873047E+03	3.605271E-16	5.843610E-18
5.882935E+03	3.627747E-16	5.877623E-18
5.892822E+03	3.645864E-16	5.904630E-18
5.902709E+03	3.659443E-16	5.924350E-18
5.912596E+03	3.668406E-16	5.936668E-18
5.922484E+03	3.672771E-16	5.941623E-18
5.932371E+03	3.672626E-16	5.939367E-18
5.942258E+03	3.668195E-16	5.930268E-18
5.952146E+03	3.659830E-16	5.914902E-18
5.962033E+03	3.647863E-16	5.893815E-18
5.971920E+03	3.632807E-16	5.867836E-18
5.981807E+03	3.615198E-16	5.837839E-18
5.991695E+03	3.595545E-16	5.804647E-18
6.001582E+03	3.574534E-16	5.769367E-18
6.011469E+03	3.552731E-16	5.732915E-18
6.021357E+03	3.530784E-16	5.696337E-18
6.031244E+03	3.509318E-16	5.660640E-18
6.041131E+03	3.489022E-16	5.626933E-18
6.051018E+03	3.470477E-16	5.596153E-18
6.060906E+03	3.454315E-16	5.569316E-18
6.070793E+03	3.441101E-16	5.547330E-18
6.080680E+03	3.431324E-16	5.530983E-18
6.090568E+03	3.425477E-16	5.521068E-18
6.100455E+03	3.423874E-16	5.518089E-18
6.110342E+03	3.426797E-16	5.522498E-18
6.120229E+03	3.434478E-16	5.534674E-18
6.130117E+03	3.446991E-16	5.554732E-18
6.140004E+03	3.464411E-16	5.582795E-18
6.149891E+03	3.486555E-16	5.618566E-18
6.159779E+03	3.513215E-16	5.661712E-18
6.169666E+03	3.543907E-16	5.711455E-18
6.179553E+03	3.578016E-16	5.766804E-18
6.189440E+03	3.614555E-16	5.826171E-18
6.199328E+03	3.652441E-16	5.887814E-18
6.209215E+03	3.690672E-16	5.950119E-18
6.219102E+03	3.728085E-16	6.011211E-18
6.228990E+03	3.763692E-16	6.069498E-18
6.238877E+03	3.796671E-16	6.123656E-18
6.248764E+03	3.826252E-16	6.172440E-18
6.258651E+03	3.851885E-16	6.214961E-18
6.268539E+03	3.873243E-16	6.250686E-18
6.278426E+03	3.890162E-16	6.279350E-18
6.288313E+03	3.902492E-16	6.300705E-18
6.298201E+03	3.910326E-16	6.314892E-18
6.308088E+03	3.913718E-16	6.321997E-18
6.317975E+03	3.912700E-16	6.322062E-18
6.327862E+03	3.907325E-16	6.315165E-18
6.337750E+03	3.897652E-16	6.301396E-18
6.347637E+03	3.883616E-16	6.280642E-18
6.357524E+03	3.865100E-16	6.252702E-18
6.367412E+03	3.842029E-16	6.217448E-18
6.377299E+03	3.814247E-16	6.174619E-18
6.387186E+03	3.781686E-16	6.124091E-18
6.397073E+03	3.744310E-16	6.065796E-18
6.406961E+03	3.702372E-16	6.000131E-18
6.416848E+03	3.656296E-16	5.927774E-18
6.426735E+03	3.606650E-16	5.849634E-18
6.436623E+03	3.554339E-16	5.767169E-18
6.446510E+03	3.500301E-16	5.681891E-18
6.456397E+03	3.445549E-16	5.595440E-18
6.466284E+03	3.391033E-16	5.509353E-18
6.476172E+03	3.337656E-16	5.425095E-18
6.486059E+03	3.286184E-16	5.343911E-18
6.495946E+03	3.237191E-16	5.266736E-18
6.505833E+03	3.190952E-16	5.194019E-18
6.515721E+03	3.147610E-16	5.125999E-18
6.525608E+03	3.107046E-16	5.062486E-18
6.535495E+03	3.069010E-16	5.003075E-18
6.545383E+03	3.033179E-16	4.947243E-18
6.555270E+03	2.999236E-16	4.894479E-18
6.565157E+03	2.966832E-16	4.844214E-18
6.575044E+03	2.935636E-16	4.795910E-18
6.584932E+03	2.905386E-16	4.749138E-18
6.594819E+03	2.875760E-16	4.703377E-18
6.604706E+03	2.846616E-16	4.658391E-18
6.614594E+03	2.817769E-16	4.613878E-18
6.624481E+03	2.789131E-16	4.569693E-18
6.634368E+03	2.760705E-16	4.525838E-18
6.644255E+03	2.732493E-16	4.482319E-18
6.654143E+03	2.704619E-16	4.439337E-18
6.664030E+03	2.677164E-16	4.397026E-18
6.673917E+03	2.650381E-16	4.355799E-18
6.683805E+03	2.624493E-16	4.316027E-18
6.693692E+03	2.599732E-16	4.278090E-18
6.703579E+03	2.576352E-16	4.242411E-18
6.713466E+03	2.554746E-16	4.209641E-18
6.723354E+03	2.535149E-16	4.180170E-18
6.733241E+03	2.517921E-16	4.154602E-18
6.743128E+03	2.503441E-16	4.133567E-18
6.753016E+03	2.492038E-16	4.117617E-18
6.762903E+03	2.484080E-16	4.107373E-18
6.772790E+03	2.479950E-16	4.103480E-18
6.782677E+03	2.480035E-16	4.106591E-18
6.792565E+03	2.484745E-16	4.117402E-18
6.802452E+03	2.494390E-16	4.136442E-18
6.812339E+03	2.509333E-16	4.164336E-18
6.822227E+03	2.529891E-16	4.201628E-18
6.832114E+03	2.556219E-16	4.248600E-18
6.842001E+03	2.588501E-16	4.305578E-18
6.851888E+03	2.626696E-16	4.372522E-18
6.861776E+03	2.670591E-16	4.449100E-18
6.871663E+03	2.719844E-16	4.534767E-18
6.881550E+03	2.773728E-16	4.628335E-18
6.891438E+03	2.831181E-16	4.728050E-18
6.901325E+03	2.890879E-16	4.831717E-18
6.911212E+03	2.951070E-16	4.936418E-18
6.921099E+03	3.009776E-16	5.038848E-18
6.930987E+03	3.065064E-16	5.135764E-18
6.940874E+03	3.115060E-16	5.224011E-18
6.950761E+03	3.158329E-16	5.301163E-18
6.960649E+03	3.193995E-16	5.365718E-18
6.970536E+03	3.221969E-16	5.417499E-18
6.980423E+03	3.242685E-16	5.457203E-18
6.990310E+03	3.257161E-16	5.486512E-18
7.000198E+03	3.266829E-16	5.507815E-18
7.010085E+03	3.273382E-16	5.523946E-18
7.019972E+03	3.278622E-16	5.537939E-18
7.029860E+03	3.284366E-16	5.552857E-18
7.039747E+03	3.292160E-16	5.571323E-18
7.049634E+03	3.303440E-16	5.595778E-18
7.059521E+03	3.319371E-16	5.628216E-18
7.069409E+03	3.340741E-16	5.670000E-18
7.079296E+03	3.368081E-16	5.722060E-18
7.089183E+03	3.401613E-16	5.784809E-18
7.099071E+03	3.441242E-16	5.858117E-18
7.108958E+03	3.486603E-16	5.941396E-18
7.118845E+03	3.536911E-16	6.033344E-18
7.128732E+03	3.591358E-16	6.132608E-18
7.138620E+03	3.648659E-16	6.237019E-18
7.148507E+03	3.707579E-16	6.344485E-18
7.158394E+03	3.766596E-16	6.452411E-18
7.168282E+03	3.824166E-16	6.558153E-18
7.178169E+03	3.878564E-16	6.658750E-18
7.188056E+03	3.928143E-16	6.751355E-18
7.197943E+03	3.971251E-16	6.833104E-18
7.207831E+03	4.006314E-16	6.901252E-18
7.217718E+03	4.032089E-16	6.953612E-18
7.227605E+03	4.047585E-16	6.988420E-18
7.237493E+03	4.052121E-16	7.004440E-18
7.247380E+03	4.045563E-16	7.001378E-18
7.257267E+03	4.028009E-16	6.979334E-18
7.267154E+03	3.999960E-16	6.939109E-18
7.277042E+03	3.962265E-16	6.882110E-18
7.286929E+03	3.915885E-16	6.809947E-18
7.296816E+03	3.862022E-16	6.724657E-18
7.306704E+03	3.801832E-16	6.628200E-18
7.316591E+03	3.736509E-16	6.522617E-18
7.326478E+03	3.667226E-16	6.409920E-18
7.336365E+03	3.595011E-16	6.291876E-18
7.346253E+03	3.520679E-16	6.169893E-18
7.356140E+03	3.445097E-16	6.045467E-18
7.366027E+03	3.368999E-16	5.919876E-18
7.375915E+03	3.293061E-16	5.794302E-18
7.385802E+03	3.217959E-16	5.669933E-18
7.395689E+03	3.144249E-16	5.547746E-18
7.405576E+03	3.072500E-16	5.428754E-18
7.415464E+03	3.003261E-16	5.313935E-18
7.425351E+03	2.937055E-16	5.204225E-18
7.435238E+03	2.874337E-16	5.100449E-18
7.445126E+03	2.815643E-16	5.003580E-18
7.455013E+03	2.761250E-16	4.914136E-18
7.464900E+03	2.711484E-16	4.832725E-18
7.474787E+03	2.666465E-16	4.759592E-18
7.484675E+03	2.626344E-16	4.695042E-18
7.494562E+03	2.591138E-16	4.639140E-18
7.504449E+03	2.560940E-16	4.592090E-18
7.514337E+03	2.535745E-16	4.553916E-18
7.524224E+03	2.515618E-16	4.524779E-18
7.534111E+03	2.500455E-16	4.504529E-18
7.543998E+03	2.490188E-16	4.493083E-18
7.553886E+03	2.484750E-16	4.490359E-18
7.563773E+03	2.483964E-16	4.496077E-18
7.573660E+03	2.487676E-16	4.509996E-18
7.583548E+03	2.495607E-16	4.531649E-18
7.593435E+03	2.507489E-16	4.560584E-18
7.603322E+03	2.522909E-16	4.596083E-18
7.613209E+03	2.541412E-16	4.637345E-18
7.623097E+03	2.562464E-16	4.683424E-18
7.632984E+03	2.585498E-16	4.733303E-18
7.642871E+03	2.609811E-16	4.785712E-18
7.652759E+03	2.634730E-16	4.839426E-18
7.662646E+03	2.659486E-16	4.893036E-18
7.672533E+03	2.683354E-16	4.945203E-18
