#wls	flux	fluxerr
1.581966E+03	2.331315E-16	3.083462E-17
1.621515E+03	2.391171E-16	3.159732E-17
1.661064E+03	2.448710E-16	3.232719E-17
1.700613E+03	2.504004E-16	3.302522E-17
1.740162E+03	2.557123E-16	3.369230E-17
1.779711E+03	2.606400E-16	3.430654E-17
1.819260E+03	2.652258E-16	3.487358E-17
1.858810E+03	2.692036E-16	3.535854E-17
1.898359E+03	2.725835E-16	3.576293E-17
1.937908E+03	2.751838E-16	3.606317E-17
1.977457E+03	2.769731E-16	3.625544E-17
2.017006E+03	2.779129E-16	3.633504E-17
2.056555E+03	2.784757E-16	3.636402E-17
2.096104E+03	2.792565E-16	3.642016E-17
2.135654E+03	2.810726E-16	3.660977E-17
2.175203E+03	2.846242E-16	3.702337E-17
2.214752E+03	2.898568E-16	3.765292E-17
2.254301E+03	2.963251E-16	3.843968E-17
2.293850E+03	3.034206E-16	3.930407E-17
2.333399E+03	3.104740E-16	4.015904E-17
2.372948E+03	3.171245E-16	4.095793E-17
2.412498E+03	3.231479E-16	4.167193E-17
2.452047E+03	3.284938E-16	4.229484E-17
2.491596E+03	3.331761E-16	4.282876E-17
2.531145E+03	3.371836E-16	4.327258E-17
2.570694E+03	3.405635E-16	4.363273E-17
2.610243E+03	3.434099E-16	4.392154E-17
2.649792E+03	3.456568E-16	4.413093E-17
2.689342E+03	3.473818E-16	4.427111E-17
2.728891E+03	3.486501E-16	4.435072E-17
2.768440E+03	3.494212E-16	4.436490E-17
2.807989E+03	3.497431E-16	4.432007E-17
2.847538E+03	3.496527E-16	4.422122E-17
2.887087E+03	3.491351E-16	4.406676E-17
2.926636E+03	3.482128E-16	4.385985E-17
2.966185E+03	3.469410E-16	4.360776E-17
2.976073E+03	3.466028E-16	4.354203E-17
2.985960E+03	3.461756E-16	4.346506E-17
2.995847E+03	3.457756E-16	4.339146E-17
3.005735E+03	3.453622E-16	4.331612E-17
3.015622E+03	3.448961E-16	4.323413E-17
3.025509E+03	3.444145E-16	4.315013E-17
3.035396E+03	3.439179E-16	4.306423E-17
3.045284E+03	3.434026E-16	4.297595E-17
3.055171E+03	3.429154E-16	4.289115E-17
3.065058E+03	3.423810E-16	4.280041E-17
3.074946E+03	3.418329E-16	4.270791E-17
3.084833E+03	3.413028E-16	4.261766E-17
3.094720E+03	3.407531E-16	4.252491E-17
3.104607E+03	3.401812E-16	4.242936E-17
3.114495E+03	3.396187E-16	4.233496E-17
3.124382E+03	3.390291E-16	4.223716E-17
3.134269E+03	3.384107E-16	4.213576E-17
3.144157E+03	3.377943E-16	4.203459E-17
3.154044E+03	3.371769E-16	4.193328E-17
3.163931E+03	3.365247E-16	4.182763E-17
3.173818E+03	3.358675E-16	4.172135E-17
3.183706E+03	3.352028E-16	4.161413E-17
3.193593E+03	3.344985E-16	4.150200E-17
3.203480E+03	3.338131E-16	4.139220E-17
3.213368E+03	3.330849E-16	4.127710E-17
3.223255E+03	3.323710E-16	4.116379E-17
3.233142E+03	3.316401E-16	4.104837E-17
3.243029E+03	3.308904E-16	4.093063E-17
3.252917E+03	3.301205E-16	4.081041E-17
3.262804E+03	3.293563E-16	4.069091E-17
3.272691E+03	3.285682E-16	4.056848E-17
3.282579E+03	3.277818E-16	4.044627E-17
3.292466E+03	3.269685E-16	4.032077E-17
3.302353E+03	3.261529E-16	4.019503E-17
3.312240E+03	3.253332E-16	4.006880E-17
3.322128E+03	3.244825E-16	3.993877E-17
3.332015E+03	3.236490E-16	3.981091E-17
3.341902E+03	3.228057E-16	3.968188E-17
3.351790E+03	3.219512E-16	3.955150E-17
3.361677E+03	3.210841E-16	3.941962E-17
3.371564E+03	3.202262E-16	3.928891E-17
3.381451E+03	3.193526E-16	3.915632E-17
3.391339E+03	3.184849E-16	3.902450E-17
3.401226E+03	3.175994E-16	3.889054E-17
3.411113E+03	3.167174E-16	3.875706E-17
3.421001E+03	3.158377E-16	3.862392E-17
3.430888E+03	3.149593E-16	3.849099E-17
3.440775E+03	3.141021E-16	3.836070E-17
3.450662E+03	3.132250E-16	3.822802E-17
3.460550E+03	3.123682E-16	3.809789E-17
3.470437E+03	3.115120E-16	3.796788E-17
3.480324E+03	3.106763E-16	3.784041E-17
3.490212E+03	3.098612E-16	3.771551E-17
3.500099E+03	3.090489E-16	3.759101E-17
3.509986E+03	3.082775E-16	3.747152E-17
3.519873E+03	3.075120E-16	3.735279E-17
3.529761E+03	3.067898E-16	3.723936E-17
3.539648E+03	3.060949E-16	3.712929E-17
3.549535E+03	3.054467E-16	3.702491E-17
3.559423E+03	3.048307E-16	3.692446E-17
3.569310E+03	3.042661E-16	3.683026E-17
3.579197E+03	3.037556E-16	3.674262E-17
3.589084E+03	3.033022E-16	3.666189E-17
3.598972E+03	3.029092E-16	3.658846E-17
3.608859E+03	3.025801E-16	3.652273E-17
3.618746E+03	3.023335E-16	3.646693E-17
3.628634E+03	3.021581E-16	3.641968E-17
3.638521E+03	3.020724E-16	3.638319E-17
3.648408E+03	3.020798E-16	3.635786E-17
3.658295E+03	3.021840E-16	3.634408E-17
3.668183E+03	3.023886E-16	3.634229E-17
3.678070E+03	3.026972E-16	3.635287E-17
3.687957E+03	3.031260E-16	3.637776E-17
3.697845E+03	3.036647E-16	3.641569E-17
3.707732E+03	3.043288E-16	3.646848E-17
3.717619E+03	3.051076E-16	3.653481E-17
3.727506E+03	3.060276E-16	3.661784E-17
3.737394E+03	3.070644E-16	3.671460E-17
3.747281E+03	3.082428E-16	3.682803E-17
3.757168E+03	3.095495E-16	3.695650E-17
3.767056E+03	3.109829E-16	3.709980E-17
3.776943E+03	3.125521E-16	3.725895E-17
3.786830E+03	3.142415E-16	3.743209E-17
3.796717E+03	3.160692E-16	3.762132E-17
3.806605E+03	3.180063E-16	3.782316E-17
3.816492E+03	3.200459E-16	3.803678E-17
3.826379E+03	3.222017E-16	3.826377E-17
3.836267E+03	3.244530E-16	3.850166E-17
3.846154E+03	3.267891E-16	3.874912E-17
3.856041E+03	3.292088E-16	3.900600E-17
3.865928E+03	3.316778E-16	3.926823E-17
3.875816E+03	3.342034E-16	3.953664E-17
3.885703E+03	3.367604E-16	3.980825E-17
3.895590E+03	3.393435E-16	4.008242E-17
3.905478E+03	3.419263E-16	4.035602E-17
3.915365E+03	3.444924E-16	4.062714E-17
3.925252E+03	3.470350E-16	4.089496E-17
3.935139E+03	3.495275E-16	4.115635E-17
3.945027E+03	3.519630E-16	4.141054E-17
3.954914E+03	3.543156E-16	4.165449E-17
3.964801E+03	3.565700E-16	4.188641E-17
3.974689E+03	3.587116E-16	4.210464E-17
3.984576E+03	3.607268E-16	4.230761E-17
3.994463E+03	3.626128E-16	4.249501E-17
4.004350E+03	3.643405E-16	4.266349E-17
4.014238E+03	3.659103E-16	4.281314E-17
4.024125E+03	3.673062E-16	4.294212E-17
4.034012E+03	3.685320E-16	4.305095E-17
4.043900E+03	3.695763E-16	4.313832E-17
4.053787E+03	3.704384E-16	4.320422E-17
4.063674E+03	3.711199E-16	4.324889E-17
4.073561E+03	3.716246E-16	4.327282E-17
4.083449E+03	3.719425E-16	4.327489E-17
4.093336E+03	3.720977E-16	4.325798E-17
4.103223E+03	3.720849E-16	4.322150E-17
4.113111E+03	3.719160E-16	4.316689E-17
4.122998E+03	3.716051E-16	4.309583E-17
4.132885E+03	3.711672E-16	4.301011E-17
4.142772E+03	3.706116E-16	4.291082E-17
4.152660E+03	3.699557E-16	4.280004E-17
4.162547E+03	3.692110E-16	4.267910E-17
4.172434E+03	3.683962E-16	4.255022E-17
4.182322E+03	3.675241E-16	4.241487E-17
4.192209E+03	3.666076E-16	4.227457E-17
4.202096E+03	3.656727E-16	4.213234E-17
4.211983E+03	3.647258E-16	4.198891E-17
4.221871E+03	3.637859E-16	4.184646E-17
4.231758E+03	3.628711E-16	4.170710E-17
4.241645E+03	3.619870E-16	4.157146E-17
4.251533E+03	3.611506E-16	4.144147E-17
4.261420E+03	3.603723E-16	4.131832E-17
4.271307E+03	3.596614E-16	4.120307E-17
4.281194E+03	3.590323E-16	4.109734E-17
4.291082E+03	3.584869E-16	4.100134E-17
4.300969E+03	3.580374E-16	4.091642E-17
4.310856E+03	3.576892E-16	4.084320E-17
4.320744E+03	3.574464E-16	4.078212E-17
4.330631E+03	3.573122E-16	4.073348E-17
4.340518E+03	3.572880E-16	4.069746E-17
4.350405E+03	3.573792E-16	4.067463E-17
4.360293E+03	3.575741E-16	4.066362E-17
4.370180E+03	3.578801E-16	4.066525E-17
4.380067E+03	3.582924E-16	4.067896E-17
4.389955E+03	3.588049E-16	4.070402E-17
4.399842E+03	3.594097E-16	4.073950E-17
4.409729E+03	3.601017E-16	4.078482E-17
4.419616E+03	3.608744E-16	4.083921E-17
4.429504E+03	3.617145E-16	4.090115E-17
4.439391E+03	3.626069E-16	4.096893E-17
4.449278E+03	3.635399E-16	4.104121E-17
4.459166E+03	3.645047E-16	4.111700E-17
4.469053E+03	3.654819E-16	4.119409E-17
4.478940E+03	3.664555E-16	4.127068E-17
4.488827E+03	3.674038E-16	4.134435E-17
4.498715E+03	3.683184E-16	4.141416E-17
4.508602E+03	3.691722E-16	4.147708E-17
4.518489E+03	3.699514E-16	4.153159E-17
4.528377E+03	3.706386E-16	4.157573E-17
4.538264E+03	3.712166E-16	4.160763E-17
4.548151E+03	3.716648E-16	4.162501E-17
4.558038E+03	3.719734E-16	4.162681E-17
4.567926E+03	3.721296E-16	4.161164E-17
4.577813E+03	3.721185E-16	4.157788E-17
4.587700E+03	3.719363E-16	4.152516E-17
4.597588E+03	3.715821E-16	4.145342E-17
4.607475E+03	3.710444E-16	4.136142E-17
4.617362E+03	3.703323E-16	4.125023E-17
4.627249E+03	3.694444E-16	4.111976E-17
4.637137E+03	3.683954E-16	4.097167E-17
4.647024E+03	3.671979E-16	4.080742E-17
4.656911E+03	3.658590E-16	4.062781E-17
4.666798E+03	3.644043E-16	4.043575E-17
4.676686E+03	3.628528E-16	4.023339E-17
4.686573E+03	3.612333E-16	4.002390E-17
4.696460E+03	3.595673E-16	3.980971E-17
4.706348E+03	3.578966E-16	3.959545E-17
4.716235E+03	3.562430E-16	3.938354E-17
4.726122E+03	3.546441E-16	3.917812E-17
4.736009E+03	3.531053E-16	3.897977E-17
4.745897E+03	3.516355E-16	3.878947E-17
4.755784E+03	3.502395E-16	3.860774E-17
4.765671E+03	3.489137E-16	3.843415E-17
4.775559E+03	3.476761E-16	3.827066E-17
4.785446E+03	3.465243E-16	3.811702E-17
4.795333E+03	3.454659E-16	3.797402E-17
4.805220E+03	3.445099E-16	3.784263E-17
4.815108E+03	3.436633E-16	3.772361E-17
4.824995E+03	3.429236E-16	3.761666E-17
4.834882E+03	3.423009E-16	3.752286E-17
4.844770E+03	3.417881E-16	3.744141E-17
4.854657E+03	3.413873E-16	3.737251E-17
4.864544E+03	3.410947E-16	3.731574E-17
4.874431E+03	3.409081E-16	3.727083E-17
4.884319E+03	3.408167E-16	3.723659E-17
4.894206E+03	3.408189E-16	3.721280E-17
4.904093E+03	3.409013E-16	3.719802E-17
4.913981E+03	3.410603E-16	3.719182E-17
4.923868E+03	3.412775E-16	3.719219E-17
4.933755E+03	3.415523E-16	3.719906E-17
4.943642E+03	3.418664E-16	3.721043E-17
4.953530E+03	3.422160E-16	3.722588E-17
4.963417E+03	3.425912E-16	3.724434E-17
4.973304E+03	3.429828E-16	3.726480E-17
4.983192E+03	3.433864E-16	3.728679E-17
4.993079E+03	3.437917E-16	3.730920E-17
5.002966E+03	3.442001E-16	3.733218E-17
5.012853E+03	3.446041E-16	3.735492E-17
5.022741E+03	3.450006E-16	3.737709E-17
5.032628E+03	3.453949E-16	3.739928E-17
5.042515E+03	3.457788E-16	3.742061E-17
5.052403E+03	3.461596E-16	3.744186E-17
5.062290E+03	3.465378E-16	3.746310E-17
5.072177E+03	3.469109E-16	3.748407E-17
5.082064E+03	3.472835E-16	3.750527E-17
5.091952E+03	3.476571E-16	3.752686E-17
5.101839E+03	3.480328E-16	3.754898E-17
5.111726E+03	3.484117E-16	3.757174E-17
5.121614E+03	3.487975E-16	3.759555E-17
5.131501E+03	3.491869E-16	3.762007E-17
5.141388E+03	3.495792E-16	3.764520E-17
5.151275E+03	3.499766E-16	3.767121E-17
5.161163E+03	3.503770E-16	3.769787E-17
5.171050E+03	3.507743E-16	3.772453E-17
5.180937E+03	3.511683E-16	3.775117E-17
5.190825E+03	3.515513E-16	3.777698E-17
5.200712E+03	3.519219E-16	3.780182E-17
5.210599E+03	3.522746E-16	3.782508E-17
5.220486E+03	3.526032E-16	3.784613E-17
5.230374E+03	3.529011E-16	3.786426E-17
5.240261E+03	3.531575E-16	3.787834E-17
5.250148E+03	3.533724E-16	3.788834E-17
5.260036E+03	3.535307E-16	3.789268E-17
5.269923E+03	3.536315E-16	3.789128E-17
5.279810E+03	3.536631E-16	3.788289E-17
5.289697E+03	3.536170E-16	3.786659E-17
5.299585E+03	3.534874E-16	3.784180E-17
5.309472E+03	3.532643E-16	3.780744E-17
5.319359E+03	3.529365E-16	3.776230E-17
5.329247E+03	3.524902E-16	3.770494E-17
5.339134E+03	3.519146E-16	3.763416E-17
5.349021E+03	3.511983E-16	3.754880E-17
5.358908E+03	3.503236E-16	3.744693E-17
5.368796E+03	3.492843E-16	3.732791E-17
5.378683E+03	3.480685E-16	3.719047E-17
5.388570E+03	3.466696E-16	3.703391E-17
5.398458E+03	3.450764E-16	3.685703E-17
5.408345E+03	3.432931E-16	3.666029E-17
5.418232E+03	3.413096E-16	3.644260E-17
5.428119E+03	3.391316E-16	3.620458E-17
5.438007E+03	3.367609E-16	3.594641E-17
5.447894E+03	3.341948E-16	3.566781E-17
5.457781E+03	3.314470E-16	3.537024E-17
5.467669E+03	3.285239E-16	3.505437E-17
5.477556E+03	3.254375E-16	3.472147E-17
5.487443E+03	3.221993E-16	3.437277E-17
5.497330E+03	3.188229E-16	3.400971E-17
5.507218E+03	3.153304E-16	3.363463E-17
5.517105E+03	3.117362E-16	3.324905E-17
5.526992E+03	3.080655E-16	3.285567E-17
5.536880E+03	3.043386E-16	3.245662E-17
5.546767E+03	3.005765E-16	3.205415E-17
5.556654E+03	2.968069E-16	3.165117E-17
5.566541E+03	2.930513E-16	3.124997E-17
5.576429E+03	2.893339E-16	3.085314E-17
5.586316E+03	2.856757E-16	3.046288E-17
5.596203E+03	2.821023E-16	3.008192E-17
5.606091E+03	2.786324E-16	2.971223E-17
5.615978E+03	2.752888E-16	2.935624E-17
5.625865E+03	2.720871E-16	2.901560E-17
5.635752E+03	2.690436E-16	2.869204E-17
5.645640E+03	2.661728E-16	2.838710E-17
5.655527E+03	2.634895E-16	2.810235E-17
5.665414E+03	2.610009E-16	2.783854E-17
5.675302E+03	2.587146E-16	2.759649E-17
5.685189E+03	2.566361E-16	2.737678E-17
5.695076E+03	2.547683E-16	2.717972E-17
5.704963E+03	2.531126E-16	2.700544E-17
5.714851E+03	2.516675E-16	2.685381E-17
5.724738E+03	2.504302E-16	2.672452E-17
5.734625E+03	2.493983E-16	2.661729E-17
5.744513E+03	2.485604E-16	2.653095E-17
5.754400E+03	2.479111E-16	2.646490E-17
5.764287E+03	2.474439E-16	2.641845E-17
5.774174E+03	2.471438E-16	2.639000E-17
5.784062E+03	2.470046E-16	2.637891E-17
5.793949E+03	2.470101E-16	2.638344E-17
5.803836E+03	2.471507E-16	2.640258E-17
5.813724E+03	2.474146E-16	2.643506E-17
5.823611E+03	2.477897E-16	2.647961E-17
5.833498E+03	2.482645E-16	2.653499E-17
5.843385E+03	2.488278E-16	2.660002E-17
5.853273E+03	2.494665E-16	2.667330E-17
5.863160E+03	2.501738E-16	2.675409E-17
5.873047E+03	2.509383E-16	2.684121E-17
5.882935E+03	2.517551E-16	2.693411E-17
5.892822E+03	2.526153E-16	2.703186E-17
5.902709E+03	2.535168E-16	2.713421E-17
5.912596E+03	2.544532E-16	2.724050E-17
5.922484E+03	2.554225E-16	2.735052E-17
5.932371E+03	2.564238E-16	2.746417E-17
5.942258E+03	2.574579E-16	2.758154E-17
5.952146E+03	2.585264E-16	2.770281E-17
5.962033E+03	2.596302E-16	2.782806E-17
5.971920E+03	2.607757E-16	2.795800E-17
5.981807E+03	2.619657E-16	2.809293E-17
5.991695E+03	2.632085E-16	2.823374E-17
6.001582E+03	2.645054E-16	2.838057E-17
6.011469E+03	2.658630E-16	2.853416E-17
6.021357E+03	2.672910E-16	2.869552E-17
6.031244E+03	2.687933E-16	2.886511E-17
6.041131E+03	2.703760E-16	2.904358E-17
6.051018E+03	2.720449E-16	2.923155E-17
6.060906E+03	2.738016E-16	2.942922E-17
6.070793E+03	2.756522E-16	2.963725E-17
6.080680E+03	2.775987E-16	2.985586E-17
6.090568E+03	2.796381E-16	3.008475E-17
6.100455E+03	2.817688E-16	3.032376E-17
6.110342E+03	2.839810E-16	3.057183E-17
6.120229E+03	2.862710E-16	3.082860E-17
6.130117E+03	2.886331E-16	3.109344E-17
6.140004E+03	2.910592E-16	3.136550E-17
6.149891E+03	2.935330E-16	3.164304E-17
6.159779E+03	2.960423E-16	3.192474E-17
6.169666E+03	2.985699E-16	3.220874E-17
6.179553E+03	3.011004E-16	3.249341E-17
6.189440E+03	3.036086E-16	3.277602E-17
6.199328E+03	3.060771E-16	3.305468E-17
6.209215E+03	3.084878E-16	3.332743E-17
6.219102E+03	3.108150E-16	3.359149E-17
6.228990E+03	3.130420E-16	3.384506E-17
6.238877E+03	3.151394E-16	3.408492E-17
6.248764E+03	3.170870E-16	3.430888E-17
6.258651E+03	3.188620E-16	3.451446E-17
6.268539E+03	3.204427E-16	3.469928E-17
6.278426E+03	3.218080E-16	3.486104E-17
6.288313E+03	3.229427E-16	3.499805E-17
6.298201E+03	3.238231E-16	3.510771E-17
6.308088E+03	3.244411E-16	3.518911E-17
6.317975E+03	3.247814E-16	3.524056E-17
6.327862E+03	3.248384E-16	3.526140E-17
6.337750E+03	3.245993E-16	3.525021E-17
6.347637E+03	3.240645E-16	3.520699E-17
6.357524E+03	3.232375E-16	3.513206E-17
6.367412E+03	3.221117E-16	3.502468E-17
6.377299E+03	3.207033E-16	3.488656E-17
6.387186E+03	3.190149E-16	3.471794E-17
6.397073E+03	3.170585E-16	3.452007E-17
6.406961E+03	3.148480E-16	3.429444E-17
6.416848E+03	3.123999E-16	3.404280E-17
6.426735E+03	3.097319E-16	3.376705E-17
6.436623E+03	3.068634E-16	3.346926E-17
6.446510E+03	3.038114E-16	3.315125E-17
6.456397E+03	3.006032E-16	3.281597E-17
6.466284E+03	2.972598E-16	3.246570E-17
6.476172E+03	2.937990E-16	3.210233E-17
6.486059E+03	2.902508E-16	3.172915E-17
6.495946E+03	2.866289E-16	3.134763E-17
6.505833E+03	2.829587E-16	3.096053E-17
6.515721E+03	2.792583E-16	3.056982E-17
6.525608E+03	2.755451E-16	3.017740E-17
6.535495E+03	2.718381E-16	2.978534E-17
6.545383E+03	2.681496E-16	2.939499E-17
6.555270E+03	2.645027E-16	2.900889E-17
6.565157E+03	2.609016E-16	2.862749E-17
6.575044E+03	2.573674E-16	2.825312E-17
6.584932E+03	2.539087E-16	2.788673E-17
6.594819E+03	2.505392E-16	2.752982E-17
6.604706E+03	2.472662E-16	2.718322E-17
6.614594E+03	2.441045E-16	2.684858E-17
6.624481E+03	2.410578E-16	2.652629E-17
6.634368E+03	2.381424E-16	2.621819E-17
6.644255E+03	2.353584E-16	2.592429E-17
6.654143E+03	2.327212E-16	2.564631E-17
6.664030E+03	2.302349E-16	2.538474E-17
6.673917E+03	2.279038E-16	2.514005E-17
6.683805E+03	2.257418E-16	2.491382E-17
6.693692E+03	2.237470E-16	2.470585E-17
6.703579E+03	2.219324E-16	2.451762E-17
6.713466E+03	2.202980E-16	2.434914E-17
6.723354E+03	2.188513E-16	2.420127E-17
6.733241E+03	2.175962E-16	2.407448E-17
6.743128E+03	2.165394E-16	2.396954E-17
6.753016E+03	2.156793E-16	2.388631E-17
6.762903E+03	2.150239E-16	2.382569E-17
6.772790E+03	2.145759E-16	2.378802E-17
6.782677E+03	2.143349E-16	2.377330E-17
6.792565E+03	2.143023E-16	2.378171E-17
6.802452E+03	2.144840E-16	2.381395E-17
6.812339E+03	2.148755E-16	2.386955E-17
6.822227E+03	2.154761E-16	2.394846E-17
6.832114E+03	2.162898E-16	2.405118E-17
6.842001E+03	2.173122E-16	2.417723E-17
6.851888E+03	2.185379E-16	2.432608E-17
6.861776E+03	2.199688E-16	2.449794E-17
6.871663E+03	2.215952E-16	2.469179E-17
6.881550E+03	2.234148E-16	2.490739E-17
6.891438E+03	2.254247E-16	2.514446E-17
6.901325E+03	2.276130E-16	2.540171E-17
6.911212E+03	2.299784E-16	2.567902E-17
6.921099E+03	2.325079E-16	2.597498E-17
6.930987E+03	2.351967E-16	2.628907E-17
6.940874E+03	2.380398E-16	2.662075E-17
6.950761E+03	2.410230E-16	2.696849E-17
6.960649E+03	2.441408E-16	2.733169E-17
6.970536E+03	2.473852E-16	2.770947E-17
6.980423E+03	2.507442E-16	2.810052E-17
6.990310E+03	2.542125E-16	2.850425E-17
7.000198E+03	2.577812E-16	2.891969E-17
7.010085E+03	2.614408E-16	2.934581E-17
7.019972E+03	2.651789E-16	2.978121E-17
7.029860E+03	2.689882E-16	3.022512E-17
7.039747E+03	2.728510E-16	3.067552E-17
7.049634E+03	2.767649E-16	3.113220E-17
7.059521E+03	2.807065E-16	3.159250E-17
7.069409E+03	2.846641E-16	3.205512E-17
7.079296E+03	2.886249E-16	3.251863E-17
7.089183E+03	2.925634E-16	3.298017E-17
7.099071E+03	2.964634E-16	3.343788E-17
7.108958E+03	3.003033E-16	3.388933E-17
7.118845E+03	3.040556E-16	3.433143E-17
7.128732E+03	3.076955E-16	3.476134E-17
7.138620E+03	3.112009E-16	3.517655E-17
7.148507E+03	3.145409E-16	3.557353E-17
7.158394E+03	3.176877E-16	3.594913E-17
7.168282E+03	3.206137E-16	3.630018E-17
7.178169E+03	3.232920E-16	3.662360E-17
7.188056E+03	3.256964E-16	3.691636E-17
7.197943E+03	3.277985E-16	3.717520E-17
7.207831E+03	3.295802E-16	3.739802E-17
7.217718E+03	3.310223E-16	3.758257E-17
7.227605E+03	3.321004E-16	3.772602E-17
7.237493E+03	3.328151E-16	3.782837E-17
7.247380E+03	3.331456E-16	3.788719E-17
7.257267E+03	3.331014E-16	3.790348E-17
7.267154E+03	3.326744E-16	3.787626E-17
7.277042E+03	3.318705E-16	3.780612E-17
7.286929E+03	3.307079E-16	3.769505E-17
7.296816E+03	3.291918E-16	3.754360E-17
7.306704E+03	3.273444E-16	3.735422E-17
7.316591E+03	3.251952E-16	3.713022E-17
7.326478E+03	3.227553E-16	3.687279E-17
7.336365E+03	3.200636E-16	3.658635E-17
7.346253E+03	3.171440E-16	3.627356E-17
7.356140E+03	3.140216E-16	3.593725E-17
7.366027E+03	3.107305E-16	3.558129E-17
7.375915E+03	3.072931E-16	3.520820E-17
7.385802E+03	3.037397E-16	3.482143E-17
7.395689E+03	3.001000E-16	3.442437E-17
7.405576E+03	2.963992E-16	3.401988E-17
7.415464E+03	2.926647E-16	3.361110E-17
7.425351E+03	2.889232E-16	3.320107E-17
7.435238E+03	2.851992E-16	3.279262E-17
7.445126E+03	2.815120E-16	3.238796E-17
7.455013E+03	2.778866E-16	3.198998E-17
7.464900E+03	2.743431E-16	3.160099E-17
7.474787E+03	2.708961E-16	3.122269E-17
7.484675E+03	2.675652E-16	3.085737E-17
7.494562E+03	2.643607E-16	3.050622E-17
7.504449E+03	2.612970E-16	3.017093E-17
7.514337E+03	2.583830E-16	2.985257E-17
7.524224E+03	2.556248E-16	2.955185E-17
7.534111E+03	2.530225E-16	2.926883E-17
7.543998E+03	2.505842E-16	2.900445E-17
7.553886E+03	2.483022E-16	2.875789E-17
7.563773E+03	2.461800E-16	2.852956E-17
7.573660E+03	2.442091E-16	2.831851E-17
7.583548E+03	2.423821E-16	2.812392E-17
7.593435E+03	2.406937E-16	2.794519E-17
7.603322E+03	2.391297E-16	2.778071E-17
7.613209E+03	2.376817E-16	2.762952E-17
7.623097E+03	2.363333E-16	2.748973E-17
7.632984E+03	2.350733E-16	2.736007E-17
7.642871E+03	2.338867E-16	2.723881E-17
7.652759E+03	2.327548E-16	2.712377E-17
7.662646E+03	2.316646E-16	2.701347E-17
7.672533E+03	2.306000E-16	2.690600E-17
