#wls	flux	fluxerr
1.581966E+03	2.453483E-16	2.877933E-17
1.621515E+03	2.514374E-16	2.944196E-17
1.661064E+03	2.572694E-16	3.007058E-17
1.700613E+03	2.628526E-16	3.066617E-17
1.740162E+03	2.681945E-16	3.122966E-17
1.779711E+03	2.731207E-16	3.174080E-17
1.819260E+03	2.776771E-16	3.220507E-17
1.858810E+03	2.816369E-16	3.259636E-17
1.898359E+03	2.848580E-16	3.289858E-17
1.937908E+03	2.873075E-16	3.310837E-17
1.977457E+03	2.889033E-16	3.321682E-17
2.017006E+03	2.896072E-16	3.322013E-17
2.056555E+03	2.899145E-16	3.317564E-17
2.096104E+03	2.904455E-16	3.315442E-17
2.135654E+03	2.920486E-16	3.325286E-17
2.175203E+03	2.953969E-16	3.354639E-17
2.214752E+03	3.005308E-16	3.403788E-17
2.254301E+03	3.069333E-16	3.466717E-17
2.293850E+03	3.139190E-16	3.535567E-17
2.333399E+03	3.208993E-16	3.603654E-17
2.372948E+03	3.273968E-16	3.665609E-17
2.412498E+03	3.332893E-16	3.720097E-17
2.452047E+03	3.384206E-16	3.765423E-17
2.491596E+03	3.428622E-16	3.802444E-17
2.531145E+03	3.466058E-16	3.831126E-17
2.570694E+03	3.497564E-16	3.852689E-17
2.610243E+03	3.522557E-16	3.866547E-17
2.649792E+03	3.541966E-16	3.873781E-17
2.689342E+03	3.556089E-16	3.874773E-17
2.728891E+03	3.565131E-16	3.869801E-17
2.768440E+03	3.569690E-16	3.859567E-17
2.807989E+03	3.569310E-16	3.843633E-17
2.847538E+03	3.564882E-16	3.823015E-17
2.887087E+03	3.556264E-16	3.797614E-17
2.926636E+03	3.544127E-16	3.768197E-17
2.966185E+03	3.528183E-16	3.734512E-17
2.976073E+03	3.523522E-16	3.725344E-17
2.985960E+03	3.518769E-16	3.716069E-17
2.995847E+03	3.513909E-16	3.706670E-17
3.005735E+03	3.508926E-16	3.697132E-17
3.015622E+03	3.503421E-16	3.687034E-17
3.025509E+03	3.497772E-16	3.676775E-17
3.035396E+03	3.492364E-16	3.666762E-17
3.045284E+03	3.486399E-16	3.656156E-17
3.055171E+03	3.480738E-16	3.645860E-17
3.065058E+03	3.474609E-16	3.635066E-17
3.074946E+03	3.468713E-16	3.624510E-17
3.084833E+03	3.462301E-16	3.613407E-17
3.094720E+03	3.456061E-16	3.602479E-17
3.104607E+03	3.449958E-16	3.591686E-17
3.114495E+03	3.443615E-16	3.580638E-17
3.124382E+03	3.437013E-16	3.569314E-17
3.134269E+03	3.430133E-16	3.557697E-17
3.144157E+03	3.423287E-16	3.546112E-17
3.154044E+03	3.416451E-16	3.534532E-17
3.163931E+03	3.409595E-16	3.522928E-17
3.173818E+03	3.402379E-16	3.510948E-17
3.183706E+03	3.395105E-16	3.498906E-17
3.193593E+03	3.387751E-16	3.486779E-17
3.203480E+03	3.379990E-16	3.474231E-17
3.213368E+03	3.372416E-16	3.461874E-17
3.223255E+03	3.364702E-16	3.449373E-17
3.233142E+03	3.356830E-16	3.436709E-17
3.243029E+03	3.348783E-16	3.423866E-17
3.252917E+03	3.340829E-16	3.411118E-17
3.262804E+03	3.332661E-16	3.398153E-17
3.272691E+03	3.324267E-16	3.384958E-17
3.282579E+03	3.315904E-16	3.371797E-17
3.292466E+03	3.307547E-16	3.358644E-17
3.302353E+03	3.298912E-16	3.345210E-17
3.312240E+03	3.290245E-16	3.331748E-17
3.322128E+03	3.281526E-16	3.318237E-17
3.332015E+03	3.272985E-16	3.304909E-17
3.341902E+03	3.264100E-16	3.291237E-17
3.351790E+03	3.255105E-16	3.277459E-17
3.361677E+03	3.246222E-16	3.263799E-17
3.371564E+03	3.237192E-16	3.249996E-17
3.381451E+03	3.228231E-16	3.236268E-17
3.391339E+03	3.219090E-16	3.222366E-17
3.401226E+03	3.209984E-16	3.208503E-17
3.411113E+03	3.200893E-16	3.194663E-17
3.421001E+03	3.191803E-16	3.180831E-17
3.430888E+03	3.182491E-16	3.166785E-17
3.440775E+03	3.173376E-16	3.152941E-17
3.450662E+03	3.164237E-16	3.139081E-17
3.460550E+03	3.155273E-16	3.125403E-17
3.470437E+03	3.146280E-16	3.111703E-17
3.480324E+03	3.137459E-16	3.098180E-17
3.490212E+03	3.128808E-16	3.084832E-17
3.500099E+03	3.120148E-16	3.071482E-17
3.509986E+03	3.111861E-16	3.058506E-17
3.519873E+03	3.103592E-16	3.045554E-17
3.529761E+03	3.095720E-16	3.032998E-17
3.539648E+03	3.088083E-16	3.020677E-17
3.549535E+03	3.080874E-16	3.008779E-17
3.559423E+03	3.074115E-16	2.997322E-17
3.569310E+03	3.067663E-16	2.986168E-17
3.579197E+03	3.061716E-16	2.975507E-17
3.589084E+03	3.056463E-16	2.965519E-17
3.598972E+03	3.051621E-16	2.955927E-17
3.608859E+03	3.047540E-16	2.947069E-17
3.618746E+03	3.044254E-16	2.938973E-17
3.628634E+03	3.041654E-16	2.931530E-17
3.638521E+03	3.039786E-16	2.924783E-17
3.648408E+03	3.038984E-16	2.919048E-17
3.658295E+03	3.039142E-16	2.914218E-17
3.668183E+03	3.040306E-16	2.910333E-17
3.678070E+03	3.042519E-16	2.907429E-17
3.687957E+03	3.045954E-16	2.905667E-17
3.697845E+03	3.050517E-16	2.904949E-17
3.707732E+03	3.056372E-16	2.905428E-17
3.717619E+03	3.063547E-16	2.907122E-17
3.727506E+03	3.072063E-16	2.910046E-17
3.737394E+03	3.081813E-16	2.914092E-17
3.747281E+03	3.093174E-16	2.919608E-17
3.757168E+03	3.105778E-16	2.926240E-17
3.767056E+03	3.119856E-16	2.934198E-17
3.776943E+03	3.135266E-16	2.943343E-17
3.786830E+03	3.152091E-16	2.953745E-17
3.796717E+03	3.170284E-16	2.965353E-17
3.806605E+03	3.189674E-16	2.977999E-17
3.816492E+03	3.210411E-16	2.991818E-17
3.826379E+03	3.232187E-16	3.006515E-17
3.836267E+03	3.255122E-16	3.022197E-17
3.846154E+03	3.278884E-16	3.038550E-17
3.856041E+03	3.303564E-16	3.055652E-17
3.865928E+03	3.328913E-16	3.073272E-17
3.875816E+03	3.354784E-16	3.091267E-17
3.885703E+03	3.381120E-16	3.109584E-17
3.895590E+03	3.407648E-16	3.127969E-17
3.905478E+03	3.434192E-16	3.146260E-17
3.915365E+03	3.460575E-16	3.164295E-17
3.925252E+03	3.486712E-16	3.181997E-17
3.935139E+03	3.512321E-16	3.199110E-17
3.945027E+03	3.537221E-16	3.215473E-17
3.954914E+03	3.561235E-16	3.230930E-17
3.964801E+03	3.584196E-16	3.245332E-17
3.974689E+03	3.605944E-16	3.258542E-17
3.984576E+03	3.626330E-16	3.270432E-17
3.994463E+03	3.645223E-16	3.280892E-17
4.004350E+03	3.662415E-16	3.289743E-17
4.014238E+03	3.677813E-16	3.296911E-17
4.024125E+03	3.691430E-16	3.302417E-17
4.034012E+03	3.703038E-16	3.306068E-17
4.043900E+03	3.712697E-16	3.307928E-17
4.053787E+03	3.720402E-16	3.308005E-17
4.063674E+03	3.726090E-16	3.306254E-17
4.073561E+03	3.729810E-16	3.302728E-17
4.083449E+03	3.731551E-16	3.297431E-17
4.093336E+03	3.731489E-16	3.290528E-17
4.103223E+03	3.729664E-16	3.282063E-17
4.113111E+03	3.726134E-16	3.272101E-17
4.122998E+03	3.721133E-16	3.260854E-17
4.132885E+03	3.714682E-16	3.248350E-17
4.142772E+03	3.707040E-16	3.234823E-17
4.152660E+03	3.698256E-16	3.220325E-17
4.162547E+03	3.688605E-16	3.205099E-17
4.172434E+03	3.678223E-16	3.189269E-17
4.182322E+03	3.667250E-16	3.172962E-17
4.192209E+03	3.655893E-16	3.156359E-17
4.202096E+03	3.644293E-16	3.139586E-17
4.211983E+03	3.632650E-16	3.122815E-17
4.221871E+03	3.621092E-16	3.106158E-17
4.231758E+03	3.609808E-16	3.089777E-17
4.241645E+03	3.598851E-16	3.073715E-17
4.251533E+03	3.588450E-16	3.058168E-17
4.261420E+03	3.578645E-16	3.043166E-17
4.271307E+03	3.569586E-16	3.028833E-17
4.281194E+03	3.561407E-16	3.015280E-17
4.291082E+03	3.554068E-16	3.002469E-17
4.300969E+03	3.547796E-16	2.990588E-17
4.310856E+03	3.542534E-16	2.979583E-17
4.320744E+03	3.538431E-16	2.969573E-17
4.330631E+03	3.535515E-16	2.960577E-17
4.340518E+03	3.533805E-16	2.952605E-17
4.350405E+03	3.533306E-16	2.945654E-17
4.360293E+03	3.534111E-16	2.939798E-17
4.370180E+03	3.536097E-16	2.934926E-17
4.380067E+03	3.539377E-16	2.931125E-17
4.389955E+03	3.543843E-16	2.928302E-17
4.399842E+03	3.549471E-16	2.926431E-17
4.409729E+03	3.556170E-16	2.925430E-17
4.419616E+03	3.563923E-16	2.925281E-17
4.429504E+03	3.572549E-16	2.925832E-17
4.439391E+03	3.581944E-16	2.926991E-17
4.449278E+03	3.591933E-16	2.928616E-17
4.459166E+03	3.602422E-16	2.930626E-17
4.469053E+03	3.613200E-16	2.932847E-17
4.478940E+03	3.624041E-16	2.935098E-17
4.488827E+03	3.634800E-16	2.937262E-17
4.498715E+03	3.645228E-16	2.939139E-17
4.508602E+03	3.655163E-16	2.940602E-17
4.518489E+03	3.664301E-16	2.941410E-17
4.528377E+03	3.672478E-16	2.941438E-17
4.538264E+03	3.679445E-16	2.940494E-17
4.548151E+03	3.685058E-16	2.938468E-17
4.558038E+03	3.689142E-16	2.935232E-17
4.567926E+03	3.691497E-16	2.930636E-17
4.577813E+03	3.692042E-16	2.924625E-17
4.587700E+03	3.690680E-16	2.917133E-17
4.597588E+03	3.687299E-16	2.908084E-17
4.607475E+03	3.681915E-16	2.897501E-17
4.617362E+03	3.674577E-16	2.885434E-17
4.627249E+03	3.665280E-16	2.871890E-17
4.637137E+03	3.654144E-16	2.856974E-17
4.647024E+03	3.641362E-16	2.840847E-17
4.656911E+03	3.627027E-16	2.823592E-17
4.666798E+03	3.611390E-16	2.805409E-17
4.676686E+03	3.594714E-16	2.786512E-17
4.686573E+03	3.577202E-16	2.767062E-17
4.696460E+03	3.559187E-16	2.747323E-17
4.706348E+03	3.540926E-16	2.727494E-17
4.716235E+03	3.522679E-16	2.707778E-17
4.726122E+03	3.504625E-16	2.688312E-17
4.736009E+03	3.487055E-16	2.669319E-17
4.745897E+03	3.470098E-16	2.650895E-17
4.755784E+03	3.453947E-16	2.633186E-17
4.765671E+03	3.438707E-16	2.616267E-17
4.775559E+03	3.424465E-16	2.600203E-17
4.785446E+03	3.411403E-16	2.585126E-17
4.795333E+03	3.399531E-16	2.571039E-17
4.805220E+03	3.388947E-16	2.558013E-17
4.815108E+03	3.379723E-16	2.546096E-17
4.824995E+03	3.371865E-16	2.535288E-17
4.834882E+03	3.365393E-16	2.525598E-17
4.844770E+03	3.360329E-16	2.517039E-17
4.854657E+03	3.356602E-16	2.509552E-17
4.864544E+03	3.354146E-16	2.503085E-17
4.874431E+03	3.352948E-16	2.497621E-17
4.884319E+03	3.352827E-16	2.493025E-17
4.894206E+03	3.353729E-16	2.489253E-17
4.904093E+03	3.355515E-16	2.486198E-17
4.913981E+03	3.358037E-16	2.483750E-17
4.923868E+03	3.361177E-16	2.481820E-17
4.933755E+03	3.364782E-16	2.480296E-17
4.943642E+03	3.368705E-16	2.479067E-17
4.953530E+03	3.372842E-16	2.478060E-17
4.963417E+03	3.377068E-16	2.477183E-17
4.973304E+03	3.381308E-16	2.476382E-17
4.983192E+03	3.385437E-16	2.475569E-17
4.993079E+03	3.389422E-16	2.474720E-17
5.002966E+03	3.393208E-16	2.473799E-17
5.012853E+03	3.396803E-16	2.472814E-17
5.022741E+03	3.400158E-16	2.471730E-17
5.032628E+03	3.403312E-16	2.470580E-17
5.042515E+03	3.406316E-16	2.469403E-17
5.052403E+03	3.409161E-16	2.468195E-17
5.062290E+03	3.411885E-16	2.466984E-17
5.072177E+03	3.414560E-16	2.465825E-17
5.082064E+03	3.417227E-16	2.464751E-17
5.091952E+03	3.419925E-16	2.463790E-17
5.101839E+03	3.422656E-16	2.462945E-17
5.111726E+03	3.425521E-16	2.462292E-17
5.121614E+03	3.428543E-16	2.461849E-17
5.131501E+03	3.431668E-16	2.461577E-17
5.141388E+03	3.435006E-16	2.461558E-17
5.151275E+03	3.438453E-16	2.461717E-17
5.161163E+03	3.442096E-16	2.462120E-17
5.171050E+03	3.445844E-16	2.462703E-17
5.180937E+03	3.449665E-16	2.463445E-17
5.190825E+03	3.453585E-16	2.464365E-17
5.200712E+03	3.457483E-16	2.465380E-17
5.210599E+03	3.461370E-16	2.466500E-17
5.220486E+03	3.465112E-16	2.467630E-17
5.230374E+03	3.468702E-16	2.468768E-17
5.240261E+03	3.472032E-16	2.469839E-17
5.250148E+03	3.475018E-16	2.470785E-17
5.260036E+03	3.477610E-16	2.471573E-17
5.269923E+03	3.479684E-16	2.472118E-17
5.279810E+03	3.481190E-16	2.472385E-17
5.289697E+03	3.482070E-16	2.472336E-17
5.299585E+03	3.482162E-16	2.471855E-17
5.309472E+03	3.481444E-16	2.470924E-17
5.319359E+03	3.479794E-16	2.469458E-17
5.329247E+03	3.477084E-16	2.467363E-17
5.339134E+03	3.473089E-16	2.464478E-17
5.349021E+03	3.467663E-16	2.460698E-17
5.358908E+03	3.460632E-16	2.455897E-17
5.368796E+03	3.451872E-16	2.449984E-17
5.378683E+03	3.441271E-16	2.442878E-17
5.388570E+03	3.428671E-16	2.434463E-17
5.398458E+03	3.414003E-16	2.424686E-17
5.408345E+03	3.397221E-16	2.413511E-17
5.418232E+03	3.378238E-16	2.400871E-17
5.428119E+03	3.357061E-16	2.386765E-17
5.438007E+03	3.333694E-16	2.371193E-17
5.447894E+03	3.308136E-16	2.354147E-17
5.457781E+03	3.280519E-16	2.335714E-17
5.467669E+03	3.250872E-16	2.315911E-17
5.477556E+03	3.219320E-16	2.294819E-17
5.487443E+03	3.186020E-16	2.272543E-17
5.497330E+03	3.151152E-16	2.249206E-17
5.507218E+03	3.114926E-16	2.224950E-17
5.517105E+03	3.077506E-16	2.199887E-17
5.526992E+03	3.039174E-16	2.174212E-17
5.536880E+03	3.000191E-16	2.148106E-17
5.546767E+03	2.960771E-16	2.121716E-17
5.556654E+03	2.921224E-16	2.095260E-17
5.566541E+03	2.881832E-16	2.068936E-17
5.576429E+03	2.842847E-16	2.042921E-17
5.586316E+03	2.804543E-16	2.017408E-17
5.596203E+03	2.767156E-16	1.992566E-17
5.606091E+03	2.730966E-16	1.968594E-17
5.615978E+03	2.696206E-16	1.945659E-17
5.625865E+03	2.663035E-16	1.923877E-17
5.635752E+03	2.631700E-16	1.903425E-17
5.645640E+03	2.602339E-16	1.884407E-17
5.655527E+03	2.575095E-16	1.866927E-17
5.665414E+03	2.550079E-16	1.851069E-17
5.675302E+03	2.527355E-16	1.836882E-17
5.685189E+03	2.507004E-16	1.824430E-17
5.695076E+03	2.489057E-16	1.813739E-17
5.704963E+03	2.473518E-16	1.804818E-17
5.714851E+03	2.460339E-16	1.797636E-17
5.724738E+03	2.449478E-16	1.792167E-17
5.734625E+03	2.440890E-16	1.788386E-17
5.744513E+03	2.434464E-16	1.786214E-17
5.754400E+03	2.430120E-16	1.785600E-17
5.764287E+03	2.427715E-16	1.786443E-17
5.774174E+03	2.427117E-16	1.788652E-17
5.784062E+03	2.428210E-16	1.792145E-17
5.793949E+03	2.430798E-16	1.796783E-17
5.803836E+03	2.434777E-16	1.802493E-17
5.813724E+03	2.439971E-16	1.809148E-17
5.823611E+03	2.446228E-16	1.816639E-17
5.833498E+03	2.453376E-16	1.824841E-17
5.843385E+03	2.461323E-16	1.833689E-17
5.853273E+03	2.469914E-16	1.843069E-17
5.863160E+03	2.479002E-16	1.852872E-17
5.873047E+03	2.488504E-16	1.863039E-17
5.882935E+03	2.498327E-16	1.873500E-17
5.892822E+03	2.508368E-16	1.884179E-17
5.902709E+03	2.518589E-16	1.895048E-17
5.912596E+03	2.528946E-16	1.906073E-17
5.922484E+03	2.539388E-16	1.917217E-17
5.932371E+03	2.549930E-16	1.928490E-17
5.942258E+03	2.560553E-16	1.939878E-17
5.952146E+03	2.571309E-16	1.951421E-17
5.962033E+03	2.582235E-16	1.963146E-17
5.971920E+03	2.593361E-16	1.975077E-17
5.981807E+03	2.604750E-16	1.987262E-17
5.991695E+03	2.616532E-16	1.999801E-17
6.001582E+03	2.628712E-16	2.012700E-17
6.011469E+03	2.641459E-16	2.026089E-17
6.021357E+03	2.654814E-16	2.040001E-17
6.031244E+03	2.668866E-16	2.054508E-17
6.041131E+03	2.683732E-16	2.069701E-17
6.051018E+03	2.699467E-16	2.085629E-17
6.060906E+03	2.716117E-16	2.102326E-17
6.070793E+03	2.733764E-16	2.119863E-17
6.080680E+03	2.752400E-16	2.138236E-17
6.090568E+03	2.772044E-16	2.157465E-17
6.100455E+03	2.792669E-16	2.177532E-17
6.110342E+03	2.814251E-16	2.198423E-17
6.120229E+03	2.836710E-16	2.220078E-17
6.130117E+03	2.859998E-16	2.242464E-17
6.140004E+03	2.884067E-16	2.265547E-17
6.149891E+03	2.908787E-16	2.289227E-17
6.159779E+03	2.934002E-16	2.313385E-17
6.169666E+03	2.959563E-16	2.337904E-17
6.179553E+03	2.985279E-16	2.362634E-17
6.189440E+03	3.010944E-16	2.387413E-17
6.199328E+03	3.036369E-16	2.412088E-17
6.209215E+03	3.061290E-16	2.436451E-17
6.219102E+03	3.085492E-16	2.460325E-17
6.228990E+03	3.108695E-16	2.483483E-17
6.238877E+03	3.130643E-16	2.505716E-17
6.248764E+03	3.151111E-16	2.526837E-17
6.258651E+03	3.169789E-16	2.546591E-17
6.268539E+03	3.186502E-16	2.564827E-17
6.278426E+03	3.200997E-16	2.581333E-17
6.288313E+03	3.213101E-16	2.595958E-17
6.298201E+03	3.222570E-16	2.608493E-17
6.308088E+03	3.229316E-16	2.618853E-17
6.317975E+03	3.233149E-16	2.626873E-17
6.327862E+03	3.234044E-16	2.632518E-17
6.337750E+03	3.231943E-16	2.635725E-17
6.347637E+03	3.226754E-16	2.636407E-17
6.357524E+03	3.218553E-16	2.634611E-17
6.367412E+03	3.207318E-16	2.630304E-17
6.377299E+03	3.193190E-16	2.623588E-17
6.387186E+03	3.176243E-16	2.614510E-17
6.397073E+03	3.156610E-16	2.603165E-17
6.406961E+03	3.134449E-16	2.589673E-17
6.416848E+03	3.109907E-16	2.574143E-17
6.426735E+03	3.083214E-16	2.556753E-17
6.436623E+03	3.054545E-16	2.537640E-17
6.446510E+03	3.024153E-16	2.517005E-17
6.456397E+03	2.992227E-16	2.494995E-17
6.466284E+03	2.959051E-16	2.471842E-17
6.476172E+03	2.924843E-16	2.447723E-17
6.486059E+03	2.889814E-16	2.422808E-17
6.495946E+03	2.854192E-16	2.397287E-17
6.505833E+03	2.818136E-16	2.371288E-17
6.515721E+03	2.781882E-16	2.345009E-17
6.525608E+03	2.745561E-16	2.318560E-17
6.535495E+03	2.709323E-16	2.292068E-17
6.545383E+03	2.673365E-16	2.265699E-17
6.555270E+03	2.637786E-16	2.239538E-17
6.565157E+03	2.602703E-16	2.213687E-17
6.575044E+03	2.568255E-16	2.188266E-17
6.584932E+03	2.534545E-16	2.163368E-17
6.594819E+03	2.501673E-16	2.139078E-17
6.604706E+03	2.469733E-16	2.115484E-17
6.614594E+03	2.438816E-16	2.092665E-17
6.624481E+03	2.409061E-16	2.070748E-17
6.634368E+03	2.380502E-16	2.049765E-17
6.644255E+03	2.353244E-16	2.029813E-17
6.654143E+03	2.327366E-16	2.010967E-17
6.664030E+03	2.302971E-16	1.993323E-17
6.673917E+03	2.280104E-16	1.976923E-17
6.683805E+03	2.258888E-16	1.961884E-17
6.693692E+03	2.239336E-16	1.948224E-17
6.703579E+03	2.221511E-16	1.936005E-17
6.713466E+03	2.205553E-16	1.925357E-17
6.723354E+03	2.191441E-16	1.916270E-17
6.733241E+03	2.179280E-16	1.908844E-17
6.743128E+03	2.169095E-16	1.903110E-17
6.753016E+03	2.160957E-16	1.899138E-17
6.762903E+03	2.154908E-16	1.896975E-17
6.772790E+03	2.150960E-16	1.896641E-17
6.782677E+03	2.149193E-16	1.898214E-17
6.792565E+03	2.149581E-16	1.901683E-17
6.802452E+03	2.152189E-16	1.907113E-17
6.812339E+03	2.157002E-16	1.914501E-17
6.822227E+03	2.164016E-16	1.923853E-17
6.832114E+03	2.173218E-16	1.935166E-17
6.842001E+03	2.184611E-16	1.948453E-17
6.851888E+03	2.198134E-16	1.963669E-17
6.861776E+03	2.213740E-16	1.980779E-17
6.871663E+03	2.231397E-16	1.999766E-17
6.881550E+03	2.251011E-16	2.020552E-17
6.891438E+03	2.272530E-16	2.043099E-17
6.901325E+03	2.295838E-16	2.067310E-17
6.911212E+03	2.320872E-16	2.093137E-17
6.921099E+03	2.347503E-16	2.120469E-17
6.930987E+03	2.375659E-16	2.149247E-17
6.940874E+03	2.405210E-16	2.179362E-17
6.950761E+03	2.436086E-16	2.210752E-17
6.960649E+03	2.468159E-16	2.243310E-17
6.970536E+03	2.501340E-16	2.276957E-17
6.980423E+03	2.535572E-16	2.311646E-17
6.990310E+03	2.570741E-16	2.347278E-17
7.000198E+03	2.606773E-16	2.383787E-17
7.010085E+03	2.643591E-16	2.421107E-17
7.019972E+03	2.681155E-16	2.459205E-17
7.029860E+03	2.719323E-16	2.497951E-17
7.039747E+03	2.758042E-16	2.537299E-17
7.049634E+03	2.797221E-16	2.577169E-17
7.059521E+03	2.836755E-16	2.617464E-17
7.069409E+03	2.876520E-16	2.658071E-17
7.079296E+03	2.916338E-16	2.698824E-17
7.089183E+03	2.956041E-16	2.739571E-17
7.099071E+03	2.995481E-16	2.780170E-17
7.108958E+03	3.034444E-16	2.820422E-17
7.118845E+03	3.072616E-16	2.860035E-17
7.128732E+03	3.109816E-16	2.898833E-17
7.138620E+03	3.145685E-16	2.936478E-17
7.148507E+03	3.179966E-16	2.972725E-17
7.158394E+03	3.212353E-16	3.007281E-17
7.168282E+03	3.242533E-16	3.039843E-17
7.178169E+03	3.270150E-16	3.070069E-17
7.188056E+03	3.294946E-16	3.097707E-17
7.197943E+03	3.316589E-16	3.122430E-17
7.207831E+03	3.334817E-16	3.143982E-17
7.217718E+03	3.349441E-16	3.162169E-17
7.227605E+03	3.360225E-16	3.176754E-17
7.237493E+03	3.367066E-16	3.187625E-17
7.247380E+03	3.369825E-16	3.194634E-17
7.257267E+03	3.368498E-16	3.197762E-17
7.267154E+03	3.363051E-16	3.196961E-17
7.277042E+03	3.353638E-16	3.192360E-17
7.286929E+03	3.340371E-16	3.184051E-17
7.296816E+03	3.323413E-16	3.172178E-17
7.306704E+03	3.303014E-16	3.156962E-17
7.316591E+03	3.279417E-16	3.138624E-17
7.326478E+03	3.252980E-16	3.117495E-17
7.336365E+03	3.224000E-16	3.093850E-17
7.346253E+03	3.192791E-16	3.067982E-17
7.356140E+03	3.159637E-16	3.040153E-17
7.366027E+03	3.124913E-16	3.010720E-17
7.375915E+03	3.088827E-16	2.979877E-17
7.385802E+03	3.051711E-16	2.947941E-17
7.395689E+03	3.013810E-16	2.915143E-17
7.405576E+03	2.975477E-16	2.881825E-17
7.415464E+03	2.936932E-16	2.848198E-17
7.425351E+03	2.898499E-16	2.814576E-17
7.435238E+03	2.860367E-16	2.781142E-17
7.445126E+03	2.822856E-16	2.748211E-17
7.455013E+03	2.786084E-16	2.715899E-17
7.464900E+03	2.750372E-16	2.684522E-17
7.474787E+03	2.715803E-16	2.654167E-17
7.484675E+03	2.682618E-16	2.625072E-17
7.494562E+03	2.650959E-16	2.597384E-17
7.504449E+03	2.620904E-16	2.571184E-17
7.514337E+03	2.592540E-16	2.546564E-17
7.524224E+03	2.565930E-16	2.523591E-17
7.534111E+03	2.541172E-16	2.502370E-17
7.543998E+03	2.518208E-16	2.482849E-17
7.553886E+03	2.497018E-16	2.465016E-17
7.563773E+03	2.477595E-16	2.448871E-17
7.573660E+03	2.459908E-16	2.434389E-17
7.583548E+03	2.443803E-16	2.421426E-17
7.593435E+03	2.429208E-16	2.409913E-17
7.603322E+03	2.415998E-16	2.399733E-17
7.613209E+03	2.404033E-16	2.390753E-17
7.623097E+03	2.393191E-16	2.382854E-17
7.632984E+03	2.383268E-16	2.375839E-17
7.642871E+03	2.374090E-16	2.369535E-17
7.652759E+03	2.365504E-16	2.363794E-17
7.662646E+03	2.357290E-16	2.358397E-17
7.672533E+03	2.349288E-16	2.353186E-17
