#wls	flux	fluxerr
1.581966E+03	2.345050E-16	2.802885E-17
1.621515E+03	2.405840E-16	2.872958E-17
1.661064E+03	2.464811E-16	2.940662E-17
1.700613E+03	2.521598E-16	3.005562E-17
1.740162E+03	2.575789E-16	3.067168E-17
1.779711E+03	2.626653E-16	3.124614E-17
1.819260E+03	2.673642E-16	3.177255E-17
1.858810E+03	2.715541E-16	3.223656E-17
1.898359E+03	2.750473E-16	3.261607E-17
1.937908E+03	2.778071E-16	3.290694E-17
1.977457E+03	2.797010E-16	3.309374E-17
2.017006E+03	2.808383E-16	3.318973E-17
2.056555E+03	2.815442E-16	3.323355E-17
2.096104E+03	2.824699E-16	3.330216E-17
2.135654E+03	2.844906E-16	3.349848E-17
2.175203E+03	2.882168E-16	3.389380E-17
2.214752E+03	2.936948E-16	3.449271E-17
2.254301E+03	3.004254E-16	3.523582E-17
2.293850E+03	3.077894E-16	3.604991E-17
2.333399E+03	3.151079E-16	3.685516E-17
2.372948E+03	3.220111E-16	3.760836E-17
2.412498E+03	3.282686E-16	3.828272E-17
2.452047E+03	3.338761E-16	3.887801E-17
2.491596E+03	3.387915E-16	3.938960E-17
2.531145E+03	3.430002E-16	3.981611E-17
2.570694E+03	3.465959E-16	4.016873E-17
2.610243E+03	3.495671E-16	4.044642E-17
2.649792E+03	3.519458E-16	4.065320E-17
2.689342E+03	3.537551E-16	4.079204E-17
2.728891E+03	3.550565E-16	4.087035E-17
2.768440E+03	3.558535E-16	4.088880E-17
2.807989E+03	3.560978E-16	4.084215E-17
2.847538E+03	3.559148E-16	4.074511E-17
2.887087E+03	3.552412E-16	4.059073E-17
2.926636E+03	3.540977E-16	4.038169E-17
2.966185E+03	3.525372E-16	4.012435E-17
2.976073E+03	3.520770E-16	4.005194E-17
2.985960E+03	3.516017E-16	3.997779E-17
2.995847E+03	3.510721E-16	3.989744E-17
3.005735E+03	3.505628E-16	3.981936E-17
3.015622E+03	3.499968E-16	3.973484E-17
3.025509E+03	3.494109E-16	3.964803E-17
3.035396E+03	3.488056E-16	3.955901E-17
3.045284E+03	3.481771E-16	3.946735E-17
3.055171E+03	3.475364E-16	3.937431E-17
3.065058E+03	3.468806E-16	3.927954E-17
3.074946E+03	3.462065E-16	3.918270E-17
3.084833E+03	3.455116E-16	3.908351E-17
3.094720E+03	3.448272E-16	3.898550E-17
3.104607E+03	3.440829E-16	3.888073E-17
3.114495E+03	3.433437E-16	3.877656E-17
3.124382E+03	3.426066E-16	3.867262E-17
3.134269E+03	3.418363E-16	3.856496E-17
3.144157E+03	3.410315E-16	3.845341E-17
3.154044E+03	3.402217E-16	3.834132E-17
3.163931E+03	3.393737E-16	3.822496E-17
3.173818E+03	3.385167E-16	3.810761E-17
3.183706E+03	3.376486E-16	3.798904E-17
3.193593E+03	3.367672E-16	3.786901E-17
3.203480E+03	3.358415E-16	3.774403E-17
3.213368E+03	3.348995E-16	3.761726E-17
3.223255E+03	3.339680E-16	3.749172E-17
3.233142E+03	3.329883E-16	3.736081E-17
3.243029E+03	3.320151E-16	3.723068E-17
3.252917E+03	3.309918E-16	3.709500E-17
3.262804E+03	3.299719E-16	3.695973E-17
3.272691E+03	3.289267E-16	3.682171E-17
3.282579E+03	3.278813E-16	3.668372E-17
3.292466E+03	3.268080E-16	3.654269E-17
3.302353E+03	3.257316E-16	3.640137E-17
3.312240E+03	3.246254E-16	3.625680E-17
3.322128E+03	3.235378E-16	3.611438E-17
3.332015E+03	3.223946E-16	3.596583E-17
3.341902E+03	3.212673E-16	3.581913E-17
3.351790E+03	3.201306E-16	3.567148E-17
3.361677E+03	3.189837E-16	3.552277E-17
3.371564E+03	3.178259E-16	3.537293E-17
3.381451E+03	3.166788E-16	3.522437E-17
3.391339E+03	3.155193E-16	3.507452E-17
3.401226E+03	3.143473E-16	3.492338E-17
3.411113E+03	3.131842E-16	3.477332E-17
3.421001E+03	3.120086E-16	3.462197E-17
3.430888E+03	3.108614E-16	3.447387E-17
3.440775E+03	3.097022E-16	3.432453E-17
3.450662E+03	3.085513E-16	3.417621E-17
3.460550E+03	3.074094E-16	3.402899E-17
3.470437E+03	3.062959E-16	3.388500E-17
3.480324E+03	3.051926E-16	3.374224E-17
3.490212E+03	3.041009E-16	3.360086E-17
3.500099E+03	3.030402E-16	3.346299E-17
3.509986E+03	3.019942E-16	3.332684E-17
3.519873E+03	3.009992E-16	3.319642E-17
3.529761E+03	3.000229E-16	3.306813E-17
3.539648E+03	2.990845E-16	3.294410E-17
3.549535E+03	2.981864E-16	3.282459E-17
3.559423E+03	2.973471E-16	3.271163E-17
3.569310E+03	2.965531E-16	3.260371E-17
3.579197E+03	2.958078E-16	3.250122E-17
3.589084E+03	2.951444E-16	3.240777E-17
3.598972E+03	2.945357E-16	3.232038E-17
3.608859E+03	2.939855E-16	3.223944E-17
3.618746E+03	2.935263E-16	3.216850E-17
3.628634E+03	2.931604E-16	3.210781E-17
3.638521E+03	2.928634E-16	3.205467E-17
3.648408E+03	2.926661E-16	3.201244E-17
3.658295E+03	2.925581E-16	3.197996E-17
3.668183E+03	2.925688E-16	3.196042E-17
3.678070E+03	2.926743E-16	3.195119E-17
3.687957E+03	2.928901E-16	3.195394E-17
3.697845E+03	2.932183E-16	3.196889E-17
3.707732E+03	2.936605E-16	3.199618E-17
3.717619E+03	2.942301E-16	3.203724E-17
3.727506E+03	2.949154E-16	3.209077E-17
3.737394E+03	2.957282E-16	3.215804E-17
3.747281E+03	2.966678E-16	3.223894E-17
3.757168E+03	2.977209E-16	3.233201E-17
3.767056E+03	2.989083E-16	3.243946E-17
3.776943E+03	3.002041E-16	3.255848E-17
3.786830E+03	3.016267E-16	3.269103E-17
3.796717E+03	3.031708E-16	3.283649E-17
3.806605E+03	3.048192E-16	3.299301E-17
3.816492E+03	3.065653E-16	3.315983E-17
3.826379E+03	3.084116E-16	3.333721E-17
3.836267E+03	3.103592E-16	3.352524E-17
3.846154E+03	3.123772E-16	3.372057E-17
3.856041E+03	3.144650E-16	3.392312E-17
3.865928E+03	3.166108E-16	3.413159E-17
3.875816E+03	3.188015E-16	3.434458E-17
3.885703E+03	3.210336E-16	3.456168E-17
3.895590E+03	3.232830E-16	3.478031E-17
3.905478E+03	3.255349E-16	3.499886E-17
3.915365E+03	3.277840E-16	3.521678E-17
3.925252E+03	3.300148E-16	3.543239E-17
3.935139E+03	3.322026E-16	3.564306E-17
3.945027E+03	3.343324E-16	3.584718E-17
3.954914E+03	3.363989E-16	3.604420E-17
3.964801E+03	3.383874E-16	3.623257E-17
3.974689E+03	3.402849E-16	3.641090E-17
3.984576E+03	3.420698E-16	3.657692E-17
3.994463E+03	3.437312E-16	3.672948E-17
4.004350E+03	3.452681E-16	3.686850E-17
4.014238E+03	3.466719E-16	3.699311E-17
4.024125E+03	3.479276E-16	3.710172E-17
4.034012E+03	3.490303E-16	3.719386E-17
4.043900E+03	3.499856E-16	3.727013E-17
4.053787E+03	3.507758E-16	3.732873E-17
4.063674E+03	3.514181E-16	3.737149E-17
4.073561E+03	3.518996E-16	3.739708E-17
4.083449E+03	3.522328E-16	3.740688E-17
4.093336E+03	3.524168E-16	3.740081E-17
4.103223E+03	3.524674E-16	3.738059E-17
4.113111E+03	3.523798E-16	3.734573E-17
4.122998E+03	3.521730E-16	3.729830E-17
4.132885E+03	3.518528E-16	3.723891E-17
4.142772E+03	3.514333E-16	3.716911E-17
4.152660E+03	3.509296E-16	3.709049E-17
4.162547E+03	3.503510E-16	3.700408E-17
4.172434E+03	3.497077E-16	3.691096E-17
4.182322E+03	3.490238E-16	3.681369E-17
4.192209E+03	3.483040E-16	3.671277E-17
4.202096E+03	3.475726E-16	3.661077E-17
4.211983E+03	3.468353E-16	3.650832E-17
4.221871E+03	3.461105E-16	3.640731E-17
4.231758E+03	3.454100E-16	3.630903E-17
4.241645E+03	3.447459E-16	3.621471E-17
4.251533E+03	3.441300E-16	3.612561E-17
4.261420E+03	3.435850E-16	3.604410E-17
4.271307E+03	3.431104E-16	3.597010E-17
4.281194E+03	3.427167E-16	3.590470E-17
4.291082E+03	3.424243E-16	3.585002E-17
4.300969E+03	3.422254E-16	3.580524E-17
4.310856E+03	3.421383E-16	3.577223E-17
4.320744E+03	3.421631E-16	3.575101E-17
4.330631E+03	3.422990E-16	3.574146E-17
4.340518E+03	3.425476E-16	3.574373E-17
4.350405E+03	3.429085E-16	3.575776E-17
4.360293E+03	3.433739E-16	3.578270E-17
4.370180E+03	3.439392E-16	3.581806E-17
4.380067E+03	3.445884E-16	3.586217E-17
4.389955E+03	3.453230E-16	3.591514E-17
4.399842E+03	3.461238E-16	3.597500E-17
4.409729E+03	3.469895E-16	3.604157E-17
4.419616E+03	3.479074E-16	3.611355E-17
4.429504E+03	3.488732E-16	3.619046E-17
4.439391E+03	3.498718E-16	3.627074E-17
4.449278E+03	3.508963E-16	3.635367E-17
4.459166E+03	3.519385E-16	3.643841E-17
4.469053E+03	3.529805E-16	3.652309E-17
4.478940E+03	3.540169E-16	3.660716E-17
4.488827E+03	3.550328E-16	3.668909E-17
4.498715E+03	3.560084E-16	3.676684E-17
4.508602E+03	3.569376E-16	3.683978E-17
4.518489E+03	3.578050E-16	3.690636E-17
4.528377E+03	3.585956E-16	3.696502E-17
4.538264E+03	3.593042E-16	3.701526E-17
4.548151E+03	3.599084E-16	3.705479E-17
4.558038E+03	3.604047E-16	3.708327E-17
4.567926E+03	3.607823E-16	3.709961E-17
4.577813E+03	3.610360E-16	3.710331E-17
4.587700E+03	3.611541E-16	3.709318E-17
4.597588E+03	3.611391E-16	3.706952E-17
4.607475E+03	3.609833E-16	3.703155E-17
4.617362E+03	3.606849E-16	3.697913E-17
4.627249E+03	3.602529E-16	3.691320E-17
4.637137E+03	3.596815E-16	3.683321E-17
4.647024E+03	3.589796E-16	3.674007E-17
4.656911E+03	3.581538E-16	3.663449E-17
4.666798E+03	3.572047E-16	3.651657E-17
4.676686E+03	3.561467E-16	3.638778E-17
4.686573E+03	3.549841E-16	3.624860E-17
4.696460E+03	3.537302E-16	3.610040E-17
4.706348E+03	3.523923E-16	3.594393E-17
4.716235E+03	3.509860E-16	3.578081E-17
4.726122E+03	3.495318E-16	3.561312E-17
4.736009E+03	3.480384E-16	3.544178E-17
4.745897E+03	3.465300E-16	3.526923E-17
4.755784E+03	3.450261E-16	3.509747E-17
4.765671E+03	3.435455E-16	3.492840E-17
4.775559E+03	3.421053E-16	3.476377E-17
4.785446E+03	3.407253E-16	3.460556E-17
4.795333E+03	3.394160E-16	3.445485E-17
4.805220E+03	3.381938E-16	3.431326E-17
4.815108E+03	3.370656E-16	3.418152E-17
4.824995E+03	3.360408E-16	3.406053E-17
4.834882E+03	3.351195E-16	3.395029E-17
4.844770E+03	3.343108E-16	3.385172E-17
4.854657E+03	3.336116E-16	3.376448E-17
4.864544E+03	3.330245E-16	3.368882E-17
4.874431E+03	3.325471E-16	3.362447E-17
4.884319E+03	3.321755E-16	3.357105E-17
4.894206E+03	3.319089E-16	3.352842E-17
4.904093E+03	3.317379E-16	3.349566E-17
4.913981E+03	3.316597E-16	3.347246E-17
4.923868E+03	3.316640E-16	3.345775E-17
4.933755E+03	3.317507E-16	3.345154E-17
4.943642E+03	3.319089E-16	3.345269E-17
4.953530E+03	3.321313E-16	3.346049E-17
4.963417E+03	3.324141E-16	3.347453E-17
4.973304E+03	3.327473E-16	3.349380E-17
4.983192E+03	3.331279E-16	3.351799E-17
4.993079E+03	3.335533E-16	3.354685E-17
5.002966E+03	3.340113E-16	3.357914E-17
5.012853E+03	3.345042E-16	3.361509E-17
5.022741E+03	3.350244E-16	3.365394E-17
5.032628E+03	3.355718E-16	3.369566E-17
5.042515E+03	3.361400E-16	3.373963E-17
5.052403E+03	3.367301E-16	3.378594E-17
5.062290E+03	3.373433E-16	3.383473E-17
5.072177E+03	3.379709E-16	3.388512E-17
5.082064E+03	3.386184E-16	3.393767E-17
5.091952E+03	3.392809E-16	3.399187E-17
5.101839E+03	3.399568E-16	3.404757E-17
5.111726E+03	3.406480E-16	3.410498E-17
5.121614E+03	3.413494E-16	3.416356E-17
5.131501E+03	3.420623E-16	3.422347E-17
5.141388E+03	3.427809E-16	3.428411E-17
5.151275E+03	3.435056E-16	3.434553E-17
5.161163E+03	3.442332E-16	3.440743E-17
5.171050E+03	3.449562E-16	3.446905E-17
5.180937E+03	3.456737E-16	3.453029E-17
5.190825E+03	3.463806E-16	3.459066E-17
5.200712E+03	3.470677E-16	3.464924E-17
5.210599E+03	3.477287E-16	3.470542E-17
5.220486E+03	3.483606E-16	3.475888E-17
5.230374E+03	3.489557E-16	3.480889E-17
5.240261E+03	3.495028E-16	3.485432E-17
5.250148E+03	3.499933E-16	3.489432E-17
5.260036E+03	3.504188E-16	3.492806E-17
5.269923E+03	3.507698E-16	3.495461E-17
5.279810E+03	3.510368E-16	3.497302E-17
5.289697E+03	3.512100E-16	3.498233E-17
5.299585E+03	3.512760E-16	3.498121E-17
5.309472E+03	3.512279E-16	3.496897E-17
5.319359E+03	3.510520E-16	3.494427E-17
5.329247E+03	3.507379E-16	3.490606E-17
5.339134E+03	3.502754E-16	3.485334E-17
5.349021E+03	3.496515E-16	3.478482E-17
5.358908E+03	3.488606E-16	3.469996E-17
5.368796E+03	3.478915E-16	3.459762E-17
5.378683E+03	3.467375E-16	3.447717E-17
5.388570E+03	3.453897E-16	3.433772E-17
5.398458E+03	3.438448E-16	3.417894E-17
5.408345E+03	3.420938E-16	3.399995E-17
5.418232E+03	3.401338E-16	3.380044E-17
5.428119E+03	3.379567E-16	3.357965E-17
5.438007E+03	3.355639E-16	3.333768E-17
5.447894E+03	3.329788E-16	3.307689E-17
5.457781E+03	3.302166E-16	3.279876E-17
5.467669E+03	3.272909E-16	3.250466E-17
5.477556E+03	3.242202E-16	3.219642E-17
5.487443E+03	3.210184E-16	3.187541E-17
5.497330E+03	3.177005E-16	3.154312E-17
5.507218E+03	3.142863E-16	3.120152E-17
5.517105E+03	3.107932E-16	3.085233E-17
5.526992E+03	3.072368E-16	3.049707E-17
5.536880E+03	3.036422E-16	3.013825E-17
5.546767E+03	3.000255E-16	2.977746E-17
5.556654E+03	2.964064E-16	2.941663E-17
5.566541E+03	2.928099E-16	2.905825E-17
5.576429E+03	2.892490E-16	2.870359E-17
5.586316E+03	2.857416E-16	2.835444E-17
5.596203E+03	2.823138E-16	2.801335E-17
5.606091E+03	2.789731E-16	2.768108E-17
5.615978E+03	2.757373E-16	2.735938E-17
5.625865E+03	2.726228E-16	2.704987E-17
5.635752E+03	2.696415E-16	2.675374E-17
5.645640E+03	2.668013E-16	2.647175E-17
5.655527E+03	2.641141E-16	2.620507E-17
5.665414E+03	2.615870E-16	2.595440E-17
5.675302E+03	2.592256E-16	2.572032E-17
5.685189E+03	2.570315E-16	2.550296E-17
5.695076E+03	2.550127E-16	2.530310E-17
5.704963E+03	2.531673E-16	2.512057E-17
5.714851E+03	2.514924E-16	2.495507E-17
5.724738E+03	2.499914E-16	2.480694E-17
5.734625E+03	2.486590E-16	2.467565E-17
5.744513E+03	2.474909E-16	2.456077E-17
5.754400E+03	2.464822E-16	2.446182E-17
5.764287E+03	2.456294E-16	2.437843E-17
5.774174E+03	2.449208E-16	2.430948E-17
5.784062E+03	2.443545E-16	2.425475E-17
5.793949E+03	2.439177E-16	2.421298E-17
5.803836E+03	2.436077E-16	2.418390E-17
5.813724E+03	2.434114E-16	2.416623E-17
5.823611E+03	2.433238E-16	2.415944E-17
5.833498E+03	2.433368E-16	2.416275E-17
5.843385E+03	2.434433E-16	2.417546E-17
5.853273E+03	2.436341E-16	2.419665E-17
5.863160E+03	2.439030E-16	2.422571E-17
5.873047E+03	2.442470E-16	2.426234E-17
5.882935E+03	2.446593E-16	2.430587E-17
5.892822E+03	2.451360E-16	2.435591E-17
5.902709E+03	2.456724E-16	2.441200E-17
5.912596E+03	2.462692E-16	2.447422E-17
5.922484E+03	2.469235E-16	2.454227E-17
5.932371E+03	2.476362E-16	2.461624E-17
5.942258E+03	2.484090E-16	2.469631E-17
5.952146E+03	2.492420E-16	2.478250E-17
5.962033E+03	2.501417E-16	2.487545E-17
5.971920E+03	2.511077E-16	2.497512E-17
5.981807E+03	2.521476E-16	2.508228E-17
5.991695E+03	2.532626E-16	2.519705E-17
6.001582E+03	2.544614E-16	2.532030E-17
6.011469E+03	2.557508E-16	2.545271E-17
6.021357E+03	2.571297E-16	2.559418E-17
6.031244E+03	2.586097E-16	2.574586E-17
6.041131E+03	2.601915E-16	2.590785E-17
6.051018E+03	2.618779E-16	2.608041E-17
6.060906E+03	2.636733E-16	2.626400E-17
6.070793E+03	2.655780E-16	2.645866E-17
6.080680E+03	2.675910E-16	2.666429E-17
6.090568E+03	2.697096E-16	2.688063E-17
6.100455E+03	2.719313E-16	2.710745E-17
6.110342E+03	2.742548E-16	2.734462E-17
6.120229E+03	2.766678E-16	2.759092E-17
6.130117E+03	2.791638E-16	2.784572E-17
6.140004E+03	2.817339E-16	2.810815E-17
6.149891E+03	2.843668E-16	2.837706E-17
6.159779E+03	2.870460E-16	2.865084E-17
6.169666E+03	2.897563E-16	2.892795E-17
6.179553E+03	2.924809E-16	2.920673E-17
6.189440E+03	2.952000E-16	2.948522E-17
6.199328E+03	2.978923E-16	2.976127E-17
6.209215E+03	3.005411E-16	3.003321E-17
6.219102E+03	3.031225E-16	3.029865E-17
6.228990E+03	3.056086E-16	3.055482E-17
6.238877E+03	3.079767E-16	3.079941E-17
6.248764E+03	3.102010E-16	3.102987E-17
6.258651E+03	3.122561E-16	3.124361E-17
6.268539E+03	3.141169E-16	3.143811E-17
6.278426E+03	3.157597E-16	3.161101E-17
6.288313E+03	3.171657E-16	3.176039E-17
6.298201E+03	3.183119E-16	3.188392E-17
6.308088E+03	3.191840E-16	3.198017E-17
6.317975E+03	3.197610E-16	3.204698E-17
6.327862E+03	3.200383E-16	3.208387E-17
6.337750E+03	3.200009E-16	3.208934E-17
6.347637E+03	3.196514E-16	3.206358E-17
6.357524E+03	3.189818E-16	3.200579E-17
6.367412E+03	3.179948E-16	3.191620E-17
6.377299E+03	3.166962E-16	3.179535E-17
6.387186E+03	3.150983E-16	3.164445E-17
6.397073E+03	3.132064E-16	3.146401E-17
6.406961E+03	3.110351E-16	3.125547E-17
6.416848E+03	3.086046E-16	3.102082E-17
6.426735E+03	3.059271E-16	3.076126E-17
6.436623E+03	3.030293E-16	3.047947E-17
6.446510E+03	2.999266E-16	3.017694E-17
6.456397E+03	2.966507E-16	2.985686E-17
6.466284E+03	2.932179E-16	2.952086E-17
6.476172E+03	2.896574E-16	2.917184E-17
6.486059E+03	2.859950E-16	2.881238E-17
6.495946E+03	2.822494E-16	2.844438E-17
6.505833E+03	2.784484E-16	2.807061E-17
6.515721E+03	2.746124E-16	2.769311E-17
6.525608E+03	2.707641E-16	2.731418E-17
6.535495E+03	2.669218E-16	2.693566E-17
6.545383E+03	2.631028E-16	2.655928E-17
6.555270E+03	2.593292E-16	2.618729E-17
6.565157E+03	2.556131E-16	2.582090E-17
6.575044E+03	2.519709E-16	2.546178E-17
6.584932E+03	2.484157E-16	2.511123E-17
6.594819E+03	2.449615E-16	2.477072E-17
6.604706E+03	2.416165E-16	2.444106E-17
6.614594E+03	2.383956E-16	2.412376E-17
6.624481E+03	2.353076E-16	2.381972E-17
6.634368E+03	2.323603E-16	2.352977E-17
6.644255E+03	2.295581E-16	2.325435E-17
6.654143E+03	2.269131E-16	2.299470E-17
6.664030E+03	2.244310E-16	2.275140E-17
6.673917E+03	2.221141E-16	2.252474E-17
6.683805E+03	2.199726E-16	2.231572E-17
6.693692E+03	2.180054E-16	2.212429E-17
6.703579E+03	2.162216E-16	2.195136E-17
6.713466E+03	2.146218E-16	2.179703E-17
6.723354E+03	2.132115E-16	2.166187E-17
6.733241E+03	2.119936E-16	2.154620E-17
6.743128E+03	2.109700E-16	2.145023E-17
6.753016E+03	2.101404E-16	2.137395E-17
6.762903E+03	2.095114E-16	2.131805E-17
6.772790E+03	2.090820E-16	2.128247E-17
6.782677E+03	2.088531E-16	2.126729E-17
6.792565E+03	2.088254E-16	2.127265E-17
6.802452E+03	2.090021E-16	2.129886E-17
6.812339E+03	2.093807E-16	2.134571E-17
6.822227E+03	2.099635E-16	2.141345E-17
6.832114E+03	2.107478E-16	2.150183E-17
6.842001E+03	2.117349E-16	2.161101E-17
6.851888E+03	2.129214E-16	2.174068E-17
6.861776E+03	2.143083E-16	2.189094E-17
6.871663E+03	2.158913E-16	2.206139E-17
6.881550E+03	2.176707E-16	2.225209E-17
6.891438E+03	2.196439E-16	2.246279E-17
6.901325E+03	2.218053E-16	2.269295E-17
6.911212E+03	2.241544E-16	2.294253E-17
6.921099E+03	2.266875E-16	2.321119E-17
6.930987E+03	2.293973E-16	2.349821E-17
6.940874E+03	2.322793E-16	2.380313E-17
6.950761E+03	2.353312E-16	2.412575E-17
6.960649E+03	2.385473E-16	2.446553E-17
6.970536E+03	2.419151E-16	2.482118E-17
6.980423E+03	2.454368E-16	2.519295E-17
6.990310E+03	2.490952E-16	2.557911E-17
7.000198E+03	2.528878E-16	2.597942E-17
7.010085E+03	2.568017E-16	2.639257E-17
7.019972E+03	2.608260E-16	2.681746E-17
7.029860E+03	2.649489E-16	2.725287E-17
7.039747E+03	2.691567E-16	2.769745E-17
7.049634E+03	2.734314E-16	2.814933E-17
7.059521E+03	2.777634E-16	2.860755E-17
7.069409E+03	2.821281E-16	2.906957E-17
7.079296E+03	2.865095E-16	2.953375E-17
7.089183E+03	2.908791E-16	2.999717E-17
7.099071E+03	2.952255E-16	3.045865E-17
7.108958E+03	2.995134E-16	3.091454E-17
7.118845E+03	3.037211E-16	3.136259E-17
7.128732E+03	3.078221E-16	3.180007E-17
7.138620E+03	3.117852E-16	3.222374E-17
7.148507E+03	3.155864E-16	3.263110E-17
7.158394E+03	3.191939E-16	3.301883E-17
7.168282E+03	3.225801E-16	3.338407E-17
7.178169E+03	3.257180E-16	3.372399E-17
7.188056E+03	3.285779E-16	3.403548E-17
7.197943E+03	3.311360E-16	3.431604E-17
7.207831E+03	3.333707E-16	3.456338E-17
7.217718E+03	3.352588E-16	3.477506E-17
7.227605E+03	3.367847E-16	3.494942E-17
7.237493E+03	3.379361E-16	3.508512E-17
7.247380E+03	3.386962E-16	3.518037E-17
7.257267E+03	3.390695E-16	3.523558E-17
7.267154E+03	3.390428E-16	3.524932E-17
7.277042E+03	3.386204E-16	3.522199E-17
7.286929E+03	3.378108E-16	3.515440E-17
7.296816E+03	3.366176E-16	3.504689E-17
7.306704E+03	3.350618E-16	3.490158E-17
7.316591E+03	3.331543E-16	3.471954E-17
7.326478E+03	3.309182E-16	3.450315E-17
7.336365E+03	3.283704E-16	3.425410E-17
7.346253E+03	3.255390E-16	3.397528E-17
7.356140E+03	3.224531E-16	3.366970E-17
7.366027E+03	3.191477E-16	3.334096E-17
7.375915E+03	3.156536E-16	3.299224E-17
7.385802E+03	3.120101E-16	3.262763E-17
7.395689E+03	3.082435E-16	3.224985E-17
7.405576E+03	3.043874E-16	3.186241E-17
7.415464E+03	3.004781E-16	3.146906E-17
7.425351E+03	2.965384E-16	3.107221E-17
7.435238E+03	2.925973E-16	3.067487E-17
7.445126E+03	2.886781E-16	3.027949E-17
7.455013E+03	2.848099E-16	2.988913E-17
7.464900E+03	2.810094E-16	2.950552E-17
7.474787E+03	2.772990E-16	2.913103E-17
7.484675E+03	2.736949E-16	2.876739E-17
7.494562E+03	2.702149E-16	2.841646E-17
7.504449E+03	2.668665E-16	2.807906E-17
7.514337E+03	2.636622E-16	2.775653E-17
7.524224E+03	2.606085E-16	2.744957E-17
7.534111E+03	2.577092E-16	2.715859E-17
7.543998E+03	2.549660E-16	2.688380E-17
7.553886E+03	2.523851E-16	2.662588E-17
7.563773E+03	2.499538E-16	2.638350E-17
7.573660E+03	2.476777E-16	2.615729E-17
7.583548E+03	2.455471E-16	2.594626E-17
7.593435E+03	2.435511E-16	2.574925E-17
7.603322E+03	2.416868E-16	2.556598E-17
7.613209E+03	2.399373E-16	2.539470E-17
7.623097E+03	2.382973E-16	2.523485E-17
7.632984E+03	2.367513E-16	2.508481E-17
7.642871E+03	2.352857E-16	2.494316E-17
7.652759E+03	2.338901E-16	2.480880E-17
7.662646E+03	2.325439E-16	2.467955E-17
7.672533E+03	2.312391E-16	2.455458E-17
