#wls	flux	fluxerr
1.581966E+03	1.768338E-16	4.220580E-18
1.621515E+03	1.815496E-16	4.330482E-18
1.661064E+03	1.861437E-16	4.437275E-18
1.700613E+03	1.905555E-16	4.539519E-18
1.740162E+03	1.948209E-16	4.638070E-18
1.779711E+03	1.988523E-16	4.730840E-18
1.819260E+03	2.026068E-16	4.816822E-18
1.858810E+03	2.059922E-16	4.893826E-18
1.898359E+03	2.088674E-16	4.958522E-18
1.937908E+03	2.111640E-16	5.009305E-18
1.977457E+03	2.128529E-16	5.045513E-18
2.017006E+03	2.139426E-16	5.067376E-18
2.056555E+03	2.147149E-16	5.081597E-18
2.096104E+03	2.156661E-16	5.099927E-18
2.135654E+03	2.174290E-16	5.137301E-18
2.175203E+03	2.205086E-16	5.205593E-18
2.214752E+03	2.249450E-16	5.305662E-18
2.254301E+03	2.303604E-16	5.428514E-18
2.293850E+03	2.362062E-16	5.561162E-18
2.333399E+03	2.420733E-16	5.693944E-18
2.372948E+03	2.476027E-16	5.818417E-18
2.412498E+03	2.526164E-16	5.930414E-18
2.452047E+03	2.571062E-16	6.029771E-18
2.491596E+03	2.610401E-16	6.115767E-18
2.531145E+03	2.644077E-16	6.188194E-18
2.570694E+03	2.672793E-16	6.248731E-18
2.610243E+03	2.696124E-16	6.296416E-18
2.649792E+03	2.714348E-16	6.331936E-18
2.689342E+03	2.728044E-16	6.356678E-18
2.728891E+03	2.736668E-16	6.369406E-18
2.768440E+03	2.741043E-16	6.372078E-18
2.807989E+03	2.740564E-16	6.363318E-18
2.847538E+03	2.735631E-16	6.344100E-18
2.887087E+03	2.726274E-16	6.314527E-18
2.926636E+03	2.712815E-16	6.275388E-18
2.966185E+03	2.694946E-16	6.226009E-18
2.976073E+03	2.690029E-16	6.212624E-18
2.985960E+03	2.684490E-16	6.197799E-18
2.995847E+03	2.678901E-16	6.182860E-18
3.005735E+03	2.673253E-16	6.167786E-18
3.015622E+03	2.666979E-16	6.151269E-18
3.025509E+03	2.660637E-16	6.134597E-18
3.035396E+03	2.654236E-16	6.117789E-18
3.045284E+03	2.647204E-16	6.099532E-18
3.055171E+03	2.640448E-16	6.081912E-18
3.065058E+03	2.633143E-16	6.063030E-18
3.074946E+03	2.626067E-16	6.044680E-18
3.084833E+03	2.618418E-16	6.025016E-18
3.094720E+03	2.610962E-16	6.005799E-18
3.104607E+03	2.603168E-16	5.985809E-18
3.114495E+03	2.595030E-16	5.965032E-18
3.124382E+03	2.586787E-16	5.944023E-18
3.134269E+03	2.578430E-16	5.922755E-18
3.144157E+03	2.569945E-16	5.901200E-18
3.154044E+03	2.561087E-16	5.878794E-18
3.163931E+03	2.552087E-16	5.856069E-18
3.173818E+03	2.542938E-16	5.833012E-18
3.183706E+03	2.533635E-16	5.809609E-18
3.193593E+03	2.524170E-16	5.785842E-18
3.203480E+03	2.514317E-16	5.761195E-18
3.213368E+03	2.504519E-16	5.736682E-18
3.223255E+03	2.494332E-16	5.711288E-18
3.233142E+03	2.484188E-16	5.686004E-18
3.243029E+03	2.473658E-16	5.659846E-18
3.252917E+03	2.463164E-16	5.633781E-18
3.262804E+03	2.452291E-16	5.606859E-18
3.272691E+03	2.441453E-16	5.580031E-18
3.282579E+03	2.430449E-16	5.552836E-18
3.292466E+03	2.419487E-16	5.525747E-18
3.302353E+03	2.408183E-16	5.497890E-18
3.312240E+03	2.396940E-16	5.470185E-18
3.322128E+03	2.385577E-16	5.442221E-18
3.332015E+03	2.374295E-16	5.414453E-18
3.341902E+03	2.362920E-16	5.386487E-18
3.351790E+03	2.351647E-16	5.358768E-18
3.361677E+03	2.340306E-16	5.330906E-18
3.371564E+03	2.329083E-16	5.303329E-18
3.381451E+03	2.317811E-16	5.275653E-18
3.391339E+03	2.306664E-16	5.248275E-18
3.401226E+03	2.295641E-16	5.221193E-18
3.411113E+03	2.284572E-16	5.194020E-18
3.421001E+03	2.273619E-16	5.167124E-18
3.430888E+03	2.262769E-16	5.140477E-18
3.440775E+03	2.252011E-16	5.114054E-18
3.450662E+03	2.241333E-16	5.087825E-18
3.460550E+03	2.230725E-16	5.061768E-18
3.470437E+03	2.220024E-16	5.035515E-18
3.480324E+03	2.209518E-16	5.009717E-18
3.490212E+03	2.199046E-16	4.984014E-18
3.500099E+03	2.188601E-16	4.958381E-18
3.509986E+03	2.178310E-16	4.933114E-18
3.519873E+03	2.167887E-16	4.907563E-18
3.529761E+03	2.157601E-16	4.882335E-18
3.539648E+03	2.147307E-16	4.857102E-18
3.549535E+03	2.137129E-16	4.832148E-18
3.559423E+03	2.126930E-16	4.807159E-18
3.569310E+03	2.116836E-16	4.782422E-18
3.579197E+03	2.106721E-16	4.757653E-18
3.589084E+03	2.096718E-16	4.733150E-18
3.598972E+03	2.086720E-16	4.708675E-18
3.608859E+03	2.076879E-16	4.684565E-18
3.618746E+03	2.067227E-16	4.660901E-18
3.628634E+03	2.057705E-16	4.637539E-18
3.638521E+03	2.048605E-16	4.615145E-18
3.648408E+03	2.039783E-16	4.593389E-18
3.658295E+03	2.031444E-16	4.572733E-18
3.668183E+03	2.023688E-16	4.553402E-18
3.678070E+03	2.016628E-16	4.535649E-18
3.687957E+03	2.010384E-16	4.519738E-18
3.697845E+03	2.005081E-16	4.505954E-18
3.707732E+03	2.000852E-16	4.494588E-18
3.717619E+03	1.997931E-16	4.486164E-18
3.727506E+03	1.996257E-16	4.480541E-18
3.737394E+03	1.996162E-16	4.478461E-18
3.747281E+03	1.997679E-16	4.479996E-18
3.757168E+03	2.000938E-16	4.485430E-18
3.767056E+03	2.006150E-16	4.495230E-18
3.776943E+03	2.013234E-16	4.509214E-18
3.786830E+03	2.022546E-16	4.528169E-18
3.796717E+03	2.033877E-16	4.551623E-18
3.806605E+03	2.047450E-16	4.580069E-18
3.816492E+03	2.063271E-16	4.613516E-18
3.826379E+03	2.081152E-16	4.651534E-18
3.836267E+03	2.101314E-16	4.694614E-18
3.846154E+03	2.123420E-16	4.741994E-18
3.856041E+03	2.147536E-16	4.793820E-18
3.865928E+03	2.173521E-16	4.849769E-18
3.875816E+03	2.201108E-16	4.909238E-18
3.885703E+03	2.230076E-16	4.971736E-18
3.895590E+03	2.260262E-16	5.036890E-18
3.905478E+03	2.291292E-16	5.103869E-18
3.915365E+03	2.322940E-16	5.172161E-18
3.925252E+03	2.354691E-16	5.240625E-18
3.935139E+03	2.386452E-16	5.309049E-18
3.945027E+03	2.417592E-16	5.376031E-18
3.954914E+03	2.447915E-16	5.441138E-18
3.964801E+03	2.476972E-16	5.503376E-18
3.974689E+03	2.504418E-16	5.561981E-18
3.984576E+03	2.529931E-16	5.616242E-18
3.994463E+03	2.553228E-16	5.665540E-18
4.004350E+03	2.574153E-16	5.709531E-18
4.014238E+03	2.592336E-16	5.747405E-18
4.024125E+03	2.607730E-16	5.779066E-18
4.034012E+03	2.620174E-16	5.804163E-18
4.043900E+03	2.629735E-16	5.822854E-18
4.053787E+03	2.636469E-16	5.835274E-18
4.063674E+03	2.640411E-16	5.841505E-18
4.073561E+03	2.641811E-16	5.842107E-18
4.083449E+03	2.640804E-16	5.837390E-18
4.093336E+03	2.637649E-16	5.827932E-18
4.103223E+03	2.632546E-16	5.814180E-18
4.113111E+03	2.625943E-16	5.797129E-18
4.122998E+03	2.617982E-16	5.777097E-18
4.132885E+03	2.609032E-16	5.754901E-18
4.142772E+03	2.599302E-16	5.731005E-18
4.152660E+03	2.589063E-16	5.706008E-18
4.162547E+03	2.578634E-16	5.680617E-18
4.172434E+03	2.568106E-16	5.655032E-18
4.182322E+03	2.557761E-16	5.629874E-18
4.192209E+03	2.547717E-16	5.605400E-18
4.202096E+03	2.538208E-16	5.582126E-18
4.211983E+03	2.529308E-16	5.560215E-18
4.221871E+03	2.521075E-16	5.539789E-18
4.231758E+03	2.513731E-16	5.521338E-18
4.241645E+03	2.507227E-16	5.504750E-18
4.251533E+03	2.501625E-16	5.490157E-18
4.261420E+03	2.496967E-16	5.477653E-18
4.271307E+03	2.493290E-16	5.467315E-18
4.281194E+03	2.490626E-16	5.459209E-18
4.291082E+03	2.488953E-16	5.453286E-18
4.300969E+03	2.488371E-16	5.449762E-18
4.310856E+03	2.488816E-16	5.448494E-18
4.320744E+03	2.490413E-16	5.449754E-18
4.330631E+03	2.493244E-16	5.453718E-18
4.340518E+03	2.497351E-16	5.460476E-18
4.350405E+03	2.502870E-16	5.470319E-18
4.360293E+03	2.509951E-16	5.483574E-18
4.370180E+03	2.518751E-16	5.500577E-18
4.380067E+03	2.529387E-16	5.521581E-18
4.389955E+03	2.542080E-16	5.547066E-18
4.399842E+03	2.556935E-16	5.577251E-18
4.409729E+03	2.574029E-16	5.612302E-18
4.419616E+03	2.593575E-16	5.652677E-18
4.429504E+03	2.615467E-16	5.698140E-18
4.439391E+03	2.639801E-16	5.748892E-18
4.449278E+03	2.666497E-16	5.804755E-18
4.459166E+03	2.695298E-16	5.865162E-18
4.469053E+03	2.726016E-16	5.929704E-18
4.478940E+03	2.758332E-16	5.997677E-18
4.488827E+03	2.791782E-16	6.068072E-18
4.498715E+03	2.825926E-16	6.139932E-18
4.508602E+03	2.860131E-16	6.211880E-18
4.518489E+03	2.893808E-16	6.282638E-18
4.528377E+03	2.926153E-16	6.350460E-18
4.538264E+03	2.956483E-16	6.413875E-18
4.548151E+03	2.984056E-16	6.471273E-18
4.558038E+03	3.008156E-16	6.521112E-18
4.567926E+03	3.028105E-16	6.561931E-18
4.577813E+03	3.043244E-16	6.592311E-18
4.587700E+03	3.053108E-16	6.611263E-18
4.597588E+03	3.057465E-16	6.618293E-18
4.607475E+03	3.055934E-16	6.612590E-18
4.617362E+03	3.048595E-16	6.594343E-18
4.627249E+03	3.035558E-16	6.563803E-18
4.637137E+03	3.016961E-16	6.521279E-18
4.647024E+03	2.993322E-16	6.467907E-18
4.656911E+03	2.965157E-16	6.404811E-18
4.666798E+03	2.932955E-16	6.333056E-18
4.676686E+03	2.897546E-16	6.254445E-18
4.686573E+03	2.859488E-16	6.170185E-18
4.696460E+03	2.819598E-16	6.082048E-18
4.706348E+03	2.778553E-16	5.991493E-18
4.716235E+03	2.737087E-16	5.900109E-18
4.726122E+03	2.695800E-16	5.809187E-18
4.736009E+03	2.655351E-16	5.720143E-18
4.745897E+03	2.616256E-16	5.634088E-18
4.755784E+03	2.579062E-16	5.552197E-18
4.765671E+03	2.544221E-16	5.475436E-18
4.775559E+03	2.512122E-16	5.404640E-18
4.785446E+03	2.483047E-16	5.340404E-18
4.795333E+03	2.457334E-16	5.283453E-18
4.805220E+03	2.435093E-16	5.234013E-18
4.815108E+03	2.416533E-16	5.192527E-18
4.824995E+03	2.401683E-16	5.159052E-18
4.834882E+03	2.390559E-16	5.133610E-18
4.844770E+03	2.383121E-16	5.116110E-18
4.854657E+03	2.379360E-16	5.106527E-18
4.864544E+03	2.379022E-16	5.104309E-18
4.874431E+03	2.382022E-16	5.109264E-18
4.884319E+03	2.388013E-16	5.120646E-18
4.894206E+03	2.396702E-16	5.137820E-18
4.904093E+03	2.407677E-16	5.159896E-18
4.913981E+03	2.420429E-16	5.185783E-18
4.923868E+03	2.434394E-16	5.214266E-18
4.933755E+03	2.449023E-16	5.244173E-18
4.943642E+03	2.463701E-16	5.274185E-18
4.953530E+03	2.477884E-16	5.303135E-18
4.963417E+03	2.491152E-16	5.330127E-18
4.973304E+03	2.503155E-16	5.354416E-18
4.983192E+03	2.513746E-16	5.375688E-18
4.993079E+03	2.522863E-16	5.393815E-18
5.002966E+03	2.530598E-16	5.408996E-18
5.012853E+03	2.537116E-16	5.421585E-18
5.022741E+03	2.542771E-16	5.432339E-18
5.032628E+03	2.547819E-16	5.441809E-18
5.042515E+03	2.552703E-16	5.450943E-18
5.052403E+03	2.557707E-16	5.460345E-18
5.062290E+03	2.563245E-16	5.470899E-18
5.072177E+03	2.569571E-16	5.483149E-18
5.082064E+03	2.576920E-16	5.497594E-18
5.091952E+03	2.585477E-16	5.514626E-18
5.101839E+03	2.595279E-16	5.534323E-18
5.111726E+03	2.606344E-16	5.556724E-18
5.121614E+03	2.618642E-16	5.581761E-18
5.131501E+03	2.632094E-16	5.609268E-18
5.141388E+03	2.646630E-16	5.639091E-18
5.151275E+03	2.662078E-16	5.670865E-18
5.161163E+03	2.678319E-16	5.704334E-18
5.171050E+03	2.695099E-16	5.738960E-18
5.180937E+03	2.712325E-16	5.774540E-18
5.190825E+03	2.729769E-16	5.810594E-18
5.200712E+03	2.747281E-16	5.846800E-18
5.210599E+03	2.764597E-16	5.882595E-18
5.220486E+03	2.781612E-16	5.917761E-18
5.230374E+03	2.798100E-16	5.951814E-18
5.240261E+03	2.813886E-16	5.984388E-18
5.250148E+03	2.828803E-16	6.015126E-18
5.260036E+03	2.842726E-16	6.043762E-18
5.269923E+03	2.855425E-16	6.069810E-18
5.279810E+03	2.866800E-16	6.093063E-18
5.289697E+03	2.876718E-16	6.113235E-18
5.299585E+03	2.885057E-16	6.130070E-18
5.309472E+03	2.891696E-16	6.143313E-18
5.319359E+03	2.896495E-16	6.152670E-18
5.329247E+03	2.899271E-16	6.157751E-18
5.339134E+03	2.899779E-16	6.158039E-18
5.349021E+03	2.897868E-16	6.153213E-18
5.358908E+03	2.893359E-16	6.142900E-18
5.368796E+03	2.886094E-16	6.126761E-18
5.378683E+03	2.875929E-16	6.104495E-18
5.388570E+03	2.862710E-16	6.075776E-18
5.398458E+03	2.846433E-16	6.040597E-18
5.408345E+03	2.826941E-16	5.998630E-18
5.418232E+03	2.804234E-16	5.949870E-18
5.428119E+03	2.778245E-16	5.894182E-18
5.438007E+03	2.749057E-16	5.831742E-18
5.447894E+03	2.716619E-16	5.762441E-18
5.457781E+03	2.681071E-16	5.686577E-18
5.467669E+03	2.642427E-16	5.604184E-18
5.477556E+03	2.600905E-16	5.515722E-18
5.487443E+03	2.556609E-16	5.421409E-18
5.497330E+03	2.509843E-16	5.321896E-18
5.507218E+03	2.460853E-16	5.217701E-18
5.517105E+03	2.409971E-16	5.109528E-18
5.526992E+03	2.357573E-16	4.998172E-18
5.536880E+03	2.304116E-16	4.884603E-18
5.546767E+03	2.250051E-16	4.769777E-18
5.556654E+03	2.195780E-16	4.654542E-18
5.566541E+03	2.141880E-16	4.540121E-18
5.576429E+03	2.088757E-16	4.427374E-18
5.586316E+03	2.036924E-16	4.317387E-18
5.596203E+03	1.986745E-16	4.210926E-18
5.606091E+03	1.938639E-16	4.108884E-18
5.615978E+03	1.892961E-16	4.012008E-18
5.625865E+03	1.850025E-16	3.920962E-18
5.635752E+03	1.810131E-16	3.836382E-18
5.645640E+03	1.773455E-16	3.758638E-18
5.655527E+03	1.740257E-16	3.688282E-18
5.665414E+03	1.710602E-16	3.625449E-18
5.675302E+03	1.684635E-16	3.570447E-18
5.685189E+03	1.662399E-16	3.523368E-18
5.695076E+03	1.643897E-16	3.484216E-18
5.704963E+03	1.629067E-16	3.452860E-18
5.714851E+03	1.617832E-16	3.429138E-18
5.724738E+03	1.610055E-16	3.412759E-18
5.734625E+03	1.605552E-16	3.403333E-18
5.744513E+03	1.604069E-16	3.400324E-18
5.754400E+03	1.605285E-16	3.403050E-18
5.764287E+03	1.608908E-16	3.410895E-18
5.774174E+03	1.614515E-16	3.422961E-18
5.784062E+03	1.621668E-16	3.438324E-18
5.793949E+03	1.629915E-16	3.456022E-18
5.803836E+03	1.638796E-16	3.475081E-18
5.813724E+03	1.647879E-16	3.494588E-18
5.823611E+03	1.656723E-16	3.513608E-18
5.833498E+03	1.664973E-16	3.531385E-18
5.843385E+03	1.672407E-16	3.547452E-18
5.853273E+03	1.678807E-16	3.561343E-18
5.863160E+03	1.683982E-16	3.572655E-18
5.873047E+03	1.687899E-16	3.581317E-18
5.882935E+03	1.690484E-16	3.587169E-18
5.892822E+03	1.691733E-16	3.590206E-18
5.902709E+03	1.691675E-16	3.590486E-18
5.912596E+03	1.690359E-16	3.588113E-18
5.922484E+03	1.687856E-16	3.583236E-18
5.932371E+03	1.684280E-16	3.576097E-18
5.942258E+03	1.679713E-16	3.566869E-18
5.952146E+03	1.674261E-16	3.555778E-18
5.962033E+03	1.668130E-16	3.543258E-18
5.971920E+03	1.661479E-16	3.529648E-18
5.981807E+03	1.654508E-16	3.515369E-18
5.991695E+03	1.647525E-16	3.501079E-18
6.001582E+03	1.640798E-16	3.487348E-18
6.011469E+03	1.634644E-16	3.474845E-18
6.021357E+03	1.629458E-16	3.464416E-18
6.031244E+03	1.625662E-16	3.456956E-18
6.041131E+03	1.623625E-16	3.453252E-18
6.051018E+03	1.623782E-16	3.454233E-18
6.060906E+03	1.626630E-16	3.460956E-18
6.070793E+03	1.632572E-16	3.474286E-18
6.080680E+03	1.642089E-16	3.495248E-18
6.090568E+03	1.655618E-16	3.524778E-18
6.100455E+03	1.673526E-16	3.563667E-18
6.110342E+03	1.696202E-16	3.612744E-18
6.120229E+03	1.723956E-16	3.672681E-18
6.130117E+03	1.756990E-16	3.743917E-18
6.140004E+03	1.795481E-16	3.826838E-18
6.149891E+03	1.839480E-16	3.921561E-18
6.159779E+03	1.888864E-16	4.027834E-18
6.169666E+03	1.943422E-16	4.145215E-18
6.179553E+03	2.002684E-16	4.272715E-18
6.189440E+03	2.066030E-16	4.409017E-18
6.199328E+03	2.132471E-16	4.552022E-18
6.209215E+03	2.201035E-16	4.699657E-18
6.219102E+03	2.270411E-16	4.849129E-18
6.228990E+03	2.339215E-16	4.997489E-18
6.238877E+03	2.406069E-16	5.141786E-18
6.248764E+03	2.469438E-16	5.278742E-18
6.258651E+03	2.527905E-16	5.405320E-18
6.268539E+03	2.580252E-16	5.518906E-18
6.278426E+03	2.625316E-16	5.617004E-18
6.288313E+03	2.662322E-16	5.697937E-18
6.298201E+03	2.690534E-16	5.760120E-18
6.308088E+03	2.709581E-16	5.802739E-18
6.317975E+03	2.719230E-16	5.825273E-18
6.327862E+03	2.719603E-16	5.827967E-18
6.337750E+03	2.710922E-16	5.811276E-18
6.347637E+03	2.693635E-16	5.776144E-18
6.357524E+03	2.668371E-16	5.723895E-18
6.367412E+03	2.635966E-16	5.656311E-18
6.377299E+03	2.597231E-16	5.575111E-18
6.387186E+03	2.553183E-16	5.482467E-18
6.397073E+03	2.504734E-16	5.380322E-18
6.406961E+03	2.452848E-16	5.270737E-18
6.416848E+03	2.398358E-16	5.155495E-18
6.426735E+03	2.342111E-16	5.036405E-18
6.436623E+03	2.284795E-16	4.914947E-18
6.446510E+03	2.227089E-16	4.792575E-18
6.456397E+03	2.169539E-16	4.670464E-18
6.466284E+03	2.112612E-16	4.549614E-18
6.476172E+03	2.056693E-16	4.430861E-18
6.486059E+03	2.002074E-16	4.314830E-18
6.495946E+03	1.949080E-16	4.202225E-18
6.505833E+03	1.897852E-16	4.093354E-18
6.515721E+03	1.848489E-16	3.988435E-18
6.525608E+03	1.801063E-16	3.887623E-18
6.535495E+03	1.755552E-16	3.790876E-18
6.545383E+03	1.711942E-16	3.698170E-18
6.555270E+03	1.670240E-16	3.609520E-18
6.565157E+03	1.630407E-16	3.524848E-18
6.575044E+03	1.592380E-16	3.444024E-18
6.584932E+03	1.556148E-16	3.367024E-18
6.594819E+03	1.521676E-16	3.293778E-18
6.604706E+03	1.488932E-16	3.224220E-18
6.614594E+03	1.457866E-16	3.158246E-18
6.624481E+03	1.428509E-16	3.095927E-18
6.634368E+03	1.400824E-16	3.037188E-18
6.644255E+03	1.374827E-16	2.982067E-18
6.654143E+03	1.350459E-16	2.930438E-18
6.664030E+03	1.327746E-16	2.882364E-18
6.673917E+03	1.306665E-16	2.837799E-18
6.683805E+03	1.287150E-16	2.796602E-18
6.693692E+03	1.269253E-16	2.758891E-18
6.703579E+03	1.252919E-16	2.724550E-18
6.713466E+03	1.238145E-16	2.693578E-18
6.723354E+03	1.224962E-16	2.666044E-18
6.733241E+03	1.213387E-16	2.641991E-18
6.743128E+03	1.203442E-16	2.621471E-18
6.753016E+03	1.195136E-16	2.604508E-18
6.762903E+03	1.188528E-16	2.591235E-18
6.772790E+03	1.183682E-16	2.581796E-18
6.782677E+03	1.180609E-16	2.576222E-18
6.792565E+03	1.179390E-16	2.574690E-18
6.802452E+03	1.180061E-16	2.577288E-18
6.812339E+03	1.182716E-16	2.584225E-18
6.822227E+03	1.187381E-16	2.595563E-18
6.832114E+03	1.194097E-16	2.611398E-18
6.842001E+03	1.202887E-16	2.631789E-18
6.851888E+03	1.213747E-16	2.656729E-18
6.861776E+03	1.226717E-16	2.686312E-18
6.871663E+03	1.241743E-16	2.720427E-18
6.881550E+03	1.258769E-16	2.758960E-18
6.891438E+03	1.277700E-16	2.801704E-18
6.901325E+03	1.298481E-16	2.848546E-18
6.911212E+03	1.320952E-16	2.899140E-18
6.921099E+03	1.345041E-16	2.953333E-18
6.930987E+03	1.370585E-16	3.010770E-18
6.940874E+03	1.397501E-16	3.071277E-18
6.950761E+03	1.425713E-16	3.134689E-18
6.960649E+03	1.455184E-16	3.200924E-18
6.970536E+03	1.485890E-16	3.269939E-18
6.980423E+03	1.517934E-16	3.341963E-18
6.990310E+03	1.551339E-16	3.417048E-18
7.000198E+03	1.586339E-16	3.495718E-18
7.010085E+03	1.623065E-16	3.578261E-18
7.019972E+03	1.661726E-16	3.665148E-18
7.029860E+03	1.702584E-16	3.756961E-18
7.039747E+03	1.745829E-16	3.854125E-18
7.049634E+03	1.791661E-16	3.957090E-18
7.059521E+03	1.840273E-16	4.066290E-18
7.069409E+03	1.891740E-16	4.181896E-18
7.079296E+03	1.946080E-16	4.303962E-18
7.089183E+03	2.003222E-16	4.432337E-18
7.099071E+03	2.062949E-16	4.566547E-18
7.108958E+03	2.125020E-16	4.706067E-18
7.118845E+03	2.188949E-16	4.849829E-18
7.128732E+03	2.254115E-16	4.996459E-18
7.138620E+03	2.319839E-16	5.144455E-18
7.148507E+03	2.385232E-16	5.291850E-18
7.158394E+03	2.449375E-16	5.436598E-18
7.168282E+03	2.511153E-16	5.576223E-18
7.178169E+03	2.569423E-16	5.708177E-18
7.188056E+03	2.623059E-16	5.829945E-18
7.197943E+03	2.670856E-16	5.938834E-18
7.207831E+03	2.711720E-16	6.032397E-18
7.217718E+03	2.744690E-16	6.108468E-18
7.227605E+03	2.768943E-16	6.165195E-18
7.237493E+03	2.784035E-16	6.201561E-18
7.247380E+03	2.789563E-16	6.216640E-18
7.257267E+03	2.785610E-16	6.210591E-18
7.267154E+03	2.772252E-16	6.183555E-18
7.277042E+03	2.750101E-16	6.136865E-18
7.286929E+03	2.719651E-16	6.071603E-18
7.296816E+03	2.681855E-16	5.989870E-18
7.306704E+03	2.637452E-16	5.893295E-18
7.316591E+03	2.587487E-16	5.784198E-18
7.326478E+03	2.532865E-16	5.664584E-18
7.336365E+03	2.474569E-16	5.536640E-18
7.346253E+03	2.413396E-16	5.402136E-18
7.356140E+03	2.350262E-16	5.263120E-18
7.366027E+03	2.285880E-16	5.121179E-18
7.375915E+03	2.220930E-16	4.977837E-18
7.385802E+03	2.156024E-16	4.834463E-18
7.395689E+03	2.091705E-16	4.692278E-18
7.405576E+03	2.028462E-16	4.552377E-18
7.415464E+03	1.966729E-16	4.415741E-18
7.425351E+03	1.906895E-16	4.283246E-18
7.435238E+03	1.849311E-16	4.155691E-18
7.445126E+03	1.794289E-16	4.033779E-18
7.455013E+03	1.742062E-16	3.918045E-18
7.464900E+03	1.692921E-16	3.809150E-18
7.474787E+03	1.646983E-16	3.707367E-18
7.484675E+03	1.604445E-16	3.613152E-18
7.494562E+03	1.565340E-16	3.526583E-18
7.504449E+03	1.529747E-16	3.447855E-18
7.514337E+03	1.497683E-16	3.377014E-18
7.524224E+03	1.469132E-16	3.314030E-18
7.534111E+03	1.444019E-16	3.258750E-18
7.543998E+03	1.422333E-16	3.211155E-18
7.553886E+03	1.403929E-16	3.170929E-18
7.563773E+03	1.388721E-16	3.137888E-18
7.573660E+03	1.376583E-16	3.111754E-18
7.583548E+03	1.367360E-16	3.092185E-18
7.593435E+03	1.360849E-16	3.078731E-18
7.603322E+03	1.356905E-16	3.071074E-18
7.613209E+03	1.355247E-16	3.068581E-18
7.623097E+03	1.355649E-16	3.070748E-18
7.632984E+03	1.357836E-16	3.076958E-18
7.642871E+03	1.361483E-16	3.086478E-18
7.652759E+03	1.366328E-16	3.098718E-18
7.662646E+03	1.371993E-16	3.112825E-18
7.672533E+03	1.378178E-16	3.128119E-18
