#wls	flux	fluxerr
1.581966E+03	2.691351E-16	4.155839E-17
1.621515E+03	2.760003E-16	4.253487E-17
1.661064E+03	2.826039E-16	4.346466E-17
1.700613E+03	2.890041E-16	4.435672E-17
1.740162E+03	2.951054E-16	4.519641E-17
1.779711E+03	3.008245E-16	4.597109E-17
1.819260E+03	3.060977E-16	4.667124E-17
1.858810E+03	3.107863E-16	4.727603E-17
1.898359E+03	3.147326E-16	4.776196E-17
1.937908E+03	3.177824E-16	4.810636E-17
1.977457E+03	3.198954E-16	4.830399E-17
2.017006E+03	3.210861E-16	4.835801E-17
2.056555E+03	3.217806E-16	4.833341E-17
2.096104E+03	3.227230E-16	4.834217E-17
2.135654E+03	3.249093E-16	4.853270E-17
2.175203E+03	3.289809E-16	4.899882E-17
2.214752E+03	3.350933E-16	4.976101E-17
2.254301E+03	3.426198E-16	5.072355E-17
2.293850E+03	3.507913E-16	5.177070E-17
2.333399E+03	3.589425E-16	5.280340E-17
2.372948E+03	3.665378E-16	5.374281E-17
2.412498E+03	3.734244E-16	5.456712E-17
2.452047E+03	3.794240E-16	5.525114E-17
2.491596E+03	3.846004E-16	5.580522E-17
2.531145E+03	3.889924E-16	5.623605E-17
2.570694E+03	3.925363E-16	5.653547E-17
2.610243E+03	3.952772E-16	5.671120E-17
2.649792E+03	3.973591E-16	5.678501E-17
2.689342E+03	3.986480E-16	5.673882E-17
2.728891E+03	3.992684E-16	5.659159E-17
2.768440E+03	3.991779E-16	5.633846E-17
2.807989E+03	3.984780E-16	5.599497E-17
2.847538E+03	3.970188E-16	5.554125E-17
2.887087E+03	3.949814E-16	5.500404E-17
2.926636E+03	3.922580E-16	5.436951E-17
2.966185E+03	3.888781E-16	5.364322E-17
2.976073E+03	3.879640E-16	5.345208E-17
2.985960E+03	3.869908E-16	5.325282E-17
2.995847E+03	3.859583E-16	5.304545E-17
3.005735E+03	3.849063E-16	5.283544E-17
3.015622E+03	3.838332E-16	5.262262E-17
3.025509E+03	3.826982E-16	5.240140E-17
3.035396E+03	3.815425E-16	5.217743E-17
3.045284E+03	3.803615E-16	5.195014E-17
3.055171E+03	3.791299E-16	5.171604E-17
3.065058E+03	3.778828E-16	5.148000E-17
3.074946E+03	3.766172E-16	5.124157E-17
3.084833E+03	3.752935E-16	5.099542E-17
3.094720E+03	3.739826E-16	5.075117E-17
3.104607E+03	3.726095E-16	5.049869E-17
3.114495E+03	3.712084E-16	5.024263E-17
3.124382E+03	3.698118E-16	4.998740E-17
3.134269E+03	3.683484E-16	4.972338E-17
3.144157E+03	3.668518E-16	4.945512E-17
3.154044E+03	3.653534E-16	4.918690E-17
3.163931E+03	3.637855E-16	4.890960E-17
3.173818E+03	3.622128E-16	4.863196E-17
3.183706E+03	3.606013E-16	4.834943E-17
3.193593E+03	3.589504E-16	4.806195E-17
3.203480E+03	3.572905E-16	4.777362E-17
3.213368E+03	3.555896E-16	4.748015E-17
3.223255E+03	3.538475E-16	4.718158E-17
3.233142E+03	3.520940E-16	4.688187E-17
3.243029E+03	3.503278E-16	4.658089E-17
3.252917E+03	3.485197E-16	4.627474E-17
3.262804E+03	3.466702E-16	4.596355E-17
3.272691E+03	3.448081E-16	4.565114E-17
3.282579E+03	3.429329E-16	4.533746E-17
3.292466E+03	3.410445E-16	4.502252E-17
3.302353E+03	3.391432E-16	4.470635E-17
3.312240E+03	3.372032E-16	4.438558E-17
3.322128E+03	3.352769E-16	4.406712E-17
3.332015E+03	3.333137E-16	4.374434E-17
3.341902E+03	3.313643E-16	4.342390E-17
3.351790E+03	3.293799E-16	4.309941E-17
3.361677E+03	3.274096E-16	4.277733E-17
3.371564E+03	3.254295E-16	4.245451E-17
3.381451E+03	3.234629E-16	4.213402E-17
3.391339E+03	3.214869E-16	4.181285E-17
3.401226E+03	3.195016E-16	4.149106E-17
3.411113E+03	3.175291E-16	4.117151E-17
3.421001E+03	3.155471E-16	4.085130E-17
3.430888E+03	3.135764E-16	4.053315E-17
3.440775E+03	3.116158E-16	4.021690E-17
3.450662E+03	3.096640E-16	3.990237E-17
3.460550E+03	3.077003E-16	3.958690E-17
3.470437E+03	3.057441E-16	3.927299E-17
3.480324E+03	3.038133E-16	3.896295E-17
3.490212E+03	3.018689E-16	3.865178E-17
3.500099E+03	2.999476E-16	3.834417E-17
3.509986E+03	2.980303E-16	3.803767E-17
3.519873E+03	2.961165E-16	3.773223E-17
3.529761E+03	2.942231E-16	3.743001E-17
3.539648E+03	2.923326E-16	3.712877E-17
3.549535E+03	2.904452E-16	3.682854E-17
3.559423E+03	2.885781E-16	3.653149E-17
3.569310E+03	2.867314E-16	3.623765E-17
3.579197E+03	2.849064E-16	3.594716E-17
3.589084E+03	2.830898E-16	3.565834E-17
3.598972E+03	2.813155E-16	3.537544E-17
3.608859E+03	2.795577E-16	3.509522E-17
3.618746E+03	2.778515E-16	3.482206E-17
3.628634E+03	2.761752E-16	3.455323E-17
3.638521E+03	2.745660E-16	3.429334E-17
3.648408E+03	2.730337E-16	3.404360E-17
3.658295E+03	2.715765E-16	3.380372E-17
3.668183E+03	2.702081E-16	3.357537E-17
3.678070E+03	2.689561E-16	3.336192E-17
3.687957E+03	2.678231E-16	3.316363E-17
3.697845E+03	2.668381E-16	3.298398E-17
3.707732E+03	2.660166E-16	3.282483E-17
3.717619E+03	2.653746E-16	3.268802E-17
3.727506E+03	2.649272E-16	3.257530E-17
3.737394E+03	2.646882E-16	3.248825E-17
3.747281E+03	2.646701E-16	3.242827E-17
3.757168E+03	2.648836E-16	3.239650E-17
3.767056E+03	2.653372E-16	3.239385E-17
3.776943E+03	2.660483E-16	3.242230E-17
3.786830E+03	2.670103E-16	3.248085E-17
3.796717E+03	2.682363E-16	3.257095E-17
3.806605E+03	2.697057E-16	3.268991E-17
3.816492E+03	2.714482E-16	3.284117E-17
3.826379E+03	2.734389E-16	3.302156E-17
3.836267E+03	2.756821E-16	3.323141E-17
3.846154E+03	2.781582E-16	3.346821E-17
3.856041E+03	2.808653E-16	3.373159E-17
3.865928E+03	2.837875E-16	3.401946E-17
3.875816E+03	2.869042E-16	3.432925E-17
3.885703E+03	2.901804E-16	3.465663E-17
3.895590E+03	2.935955E-16	3.499903E-17
3.905478E+03	2.971140E-16	3.535216E-17
3.915365E+03	3.006954E-16	3.571112E-17
3.925252E+03	3.042959E-16	3.607070E-17
3.935139E+03	3.078595E-16	3.642425E-17
3.945027E+03	3.113489E-16	3.676739E-17
3.954914E+03	3.147173E-16	3.709467E-17
3.964801E+03	3.179198E-16	3.740087E-17
3.974689E+03	3.209138E-16	3.768113E-17
3.984576E+03	3.236514E-16	3.792998E-17
3.994463E+03	3.261086E-16	3.814476E-17
4.004350E+03	3.282472E-16	3.832123E-17
4.014238E+03	3.300449E-16	3.845701E-17
4.024125E+03	3.314950E-16	3.855155E-17
4.034012E+03	3.325888E-16	3.860407E-17
4.043900E+03	3.333066E-16	3.861255E-17
4.053787E+03	3.336646E-16	3.857911E-17
4.063674E+03	3.336775E-16	3.850571E-17
4.073561E+03	3.333673E-16	3.839510E-17
4.083449E+03	3.327535E-16	3.824977E-17
4.093336E+03	3.318780E-16	3.807472E-17
4.103223E+03	3.307688E-16	3.787335E-17
4.113111E+03	3.294562E-16	3.764927E-17
4.122998E+03	3.279954E-16	3.740892E-17
4.132885E+03	3.264083E-16	3.715491E-17
4.142772E+03	3.247312E-16	3.689145E-17
4.152660E+03	3.229908E-16	3.662163E-17
4.162547E+03	3.212331E-16	3.635071E-17
4.172434E+03	3.194713E-16	3.608018E-17
4.182322E+03	3.177304E-16	3.581289E-17
4.192209E+03	3.160323E-16	3.555128E-17
4.202096E+03	3.143889E-16	3.529666E-17
4.211983E+03	3.128164E-16	3.505083E-17
4.221871E+03	3.113216E-16	3.481449E-17
4.231758E+03	3.099222E-16	3.458958E-17
4.241645E+03	3.086210E-16	3.437635E-17
4.251533E+03	3.074257E-16	3.417560E-17
4.261420E+03	3.063312E-16	3.398668E-17
4.271307E+03	3.053566E-16	3.381168E-17
4.281194E+03	3.044907E-16	3.364927E-17
4.291082E+03	3.037536E-16	3.350159E-17
4.300969E+03	3.031418E-16	3.336820E-17
4.310856E+03	3.026660E-16	3.325017E-17
4.320744E+03	3.023376E-16	3.314870E-17
4.330631E+03	3.021638E-16	3.306447E-17
4.340518E+03	3.021573E-16	3.299877E-17
4.350405E+03	3.023253E-16	3.295228E-17
4.360293E+03	3.026805E-16	3.292630E-17
4.370180E+03	3.032368E-16	3.292217E-17
4.380067E+03	3.040029E-16	3.294075E-17
4.389955E+03	3.049983E-16	3.298399E-17
4.399842E+03	3.062197E-16	3.305141E-17
4.409729E+03	3.076887E-16	3.314519E-17
4.419616E+03	3.094078E-16	3.326544E-17
4.429504E+03	3.113804E-16	3.341238E-17
4.439391E+03	3.135944E-16	3.358455E-17
4.449278E+03	3.160519E-16	3.378206E-17
4.459166E+03	3.187322E-16	3.400252E-17
4.469053E+03	3.216060E-16	3.424270E-17
4.478940E+03	3.246405E-16	3.449900E-17
4.488827E+03	3.277996E-16	3.476750E-17
4.498715E+03	3.310231E-16	3.504174E-17
4.508602E+03	3.342588E-16	3.531621E-17
4.518489E+03	3.374432E-16	3.558419E-17
4.528377E+03	3.405029E-16	3.583800E-17
4.538264E+03	3.433670E-16	3.607027E-17
4.548151E+03	3.459642E-16	3.627368E-17
4.558038E+03	3.482316E-16	3.644179E-17
4.567926E+03	3.501007E-16	3.656766E-17
4.577813E+03	3.515113E-16	3.664525E-17
4.587700E+03	3.524289E-16	3.667127E-17
4.597588E+03	3.528109E-16	3.664157E-17
4.607475E+03	3.526430E-16	3.655501E-17
4.617362E+03	3.519203E-16	3.641140E-17
4.627249E+03	3.506512E-16	3.621192E-17
4.637137E+03	3.488523E-16	3.595863E-17
4.647024E+03	3.465674E-16	3.565631E-17
4.656911E+03	3.438301E-16	3.530871E-17
4.666798E+03	3.407025E-16	3.492245E-17
4.676686E+03	3.372339E-16	3.450280E-17
4.686573E+03	3.334970E-16	3.405735E-17
4.696460E+03	3.295537E-16	3.359258E-17
4.706348E+03	3.254723E-16	3.311553E-17
4.716235E+03	3.213220E-16	3.263330E-17
4.726122E+03	3.171797E-16	3.215371E-17
4.736009E+03	3.131018E-16	3.168245E-17
4.745897E+03	3.091542E-16	3.122613E-17
4.755784E+03	3.053935E-16	3.079037E-17
4.765671E+03	3.018702E-16	3.038015E-17
4.775559E+03	2.986329E-16	3.000020E-17
4.785446E+03	2.957142E-16	2.965363E-17
4.795333E+03	2.931475E-16	2.934361E-17
4.805220E+03	2.909587E-16	2.907251E-17
4.815108E+03	2.891548E-16	2.884084E-17
4.824995E+03	2.877519E-16	2.865000E-17
4.834882E+03	2.867520E-16	2.849994E-17
4.844770E+03	2.861505E-16	2.839003E-17
4.854657E+03	2.859359E-16	2.831889E-17
4.864544E+03	2.860927E-16	2.828480E-17
4.874431E+03	2.865892E-16	2.828443E-17
4.884319E+03	2.873920E-16	2.831432E-17
4.894206E+03	2.884585E-16	2.837012E-17
4.904093E+03	2.897269E-16	2.844565E-17
4.913981E+03	2.911476E-16	2.853594E-17
4.923868E+03	2.926476E-16	2.863377E-17
4.933755E+03	2.941640E-16	2.873296E-17
4.943642E+03	2.956318E-16	2.882720E-17
4.953530E+03	2.969959E-16	2.891112E-17
4.963417E+03	2.982039E-16	2.897969E-17
4.973304E+03	2.992277E-16	2.903028E-17
4.983192E+03	3.000400E-16	2.906034E-17
4.993079E+03	3.006408E-16	2.906998E-17
5.002966E+03	3.010417E-16	2.906042E-17
5.012853E+03	3.012708E-16	2.903447E-17
5.022741E+03	3.013625E-16	2.899554E-17
5.032628E+03	3.013542E-16	2.894727E-17
5.042515E+03	3.012898E-16	2.889392E-17
5.052403E+03	3.012208E-16	2.884047E-17
5.062290E+03	3.011805E-16	2.879011E-17
5.072177E+03	3.012122E-16	2.874695E-17
5.082064E+03	3.013373E-16	2.871301E-17
5.091952E+03	3.015804E-16	2.869058E-17
5.101839E+03	3.019587E-16	2.868125E-17
5.111726E+03	3.024706E-16	2.868483E-17
5.121614E+03	3.031240E-16	2.870200E-17
5.131501E+03	3.039109E-16	2.873195E-17
5.141388E+03	3.048194E-16	2.877351E-17
5.151275E+03	3.058465E-16	2.882635E-17
5.161163E+03	3.069723E-16	2.888856E-17
5.171050E+03	3.081902E-16	2.895948E-17
5.180937E+03	3.094776E-16	2.903698E-17
5.190825E+03	3.108181E-16	2.911948E-17
5.200712E+03	3.122023E-16	2.920611E-17
5.210599E+03	3.136008E-16	2.929411E-17
5.220486E+03	3.150030E-16	2.938250E-17
5.230374E+03	3.163861E-16	2.946917E-17
5.240261E+03	3.177352E-16	2.955276E-17
5.250148E+03	3.190239E-16	2.963083E-17
5.260036E+03	3.202331E-16	2.970166E-17
5.269923E+03	3.213523E-16	2.976432E-17
5.279810E+03	3.223514E-16	2.981607E-17
5.289697E+03	3.232204E-16	2.985604E-17
5.299585E+03	3.239375E-16	2.988228E-17
5.309472E+03	3.244855E-16	2.989325E-17
5.319359E+03	3.248430E-16	2.988705E-17
5.329247E+03	3.250001E-16	2.986286E-17
5.339134E+03	3.249280E-16	2.981809E-17
5.349021E+03	3.246180E-16	2.975203E-17
5.358908E+03	3.240508E-16	2.966299E-17
5.368796E+03	3.232126E-16	2.954981E-17
5.378683E+03	3.220909E-16	2.941144E-17
5.388570E+03	3.206756E-16	2.924702E-17
5.398458E+03	3.189575E-16	2.905583E-17
5.408345E+03	3.169256E-16	2.883696E-17
5.418232E+03	3.145818E-16	2.859067E-17
5.428119E+03	3.119143E-16	2.831598E-17
5.438007E+03	3.089245E-16	2.801311E-17
5.447894E+03	3.056121E-16	2.768211E-17
5.457781E+03	3.019792E-16	2.732328E-17
5.467669E+03	2.980316E-16	2.693719E-17
5.477556E+03	2.937822E-16	2.652510E-17
5.487443E+03	2.892415E-16	2.608803E-17
5.497330E+03	2.844290E-16	2.562779E-17
5.507218E+03	2.793729E-16	2.514698E-17
5.517105E+03	2.741033E-16	2.464836E-17
5.526992E+03	2.686596E-16	2.413548E-17
5.536880E+03	2.630760E-16	2.361145E-17
5.546767E+03	2.574075E-16	2.308121E-17
5.556654E+03	2.516964E-16	2.254854E-17
5.566541E+03	2.459961E-16	2.201822E-17
5.576429E+03	2.403575E-16	2.149475E-17
5.586316E+03	2.348322E-16	2.098272E-17
5.596203E+03	2.294633E-16	2.048591E-17
5.606091E+03	2.242953E-16	2.000825E-17
5.615978E+03	2.193680E-16	1.955321E-17
5.625865E+03	2.147109E-16	1.912333E-17
5.635752E+03	2.103510E-16	1.872095E-17
5.645640E+03	2.063130E-16	1.834820E-17
5.655527E+03	2.026140E-16	1.800649E-17
5.665414E+03	1.992656E-16	1.769679E-17
5.675302E+03	1.962742E-16	1.741958E-17
5.685189E+03	1.936433E-16	1.717510E-17
5.695076E+03	1.913668E-16	1.696272E-17
5.704963E+03	1.894359E-16	1.678162E-17
5.714851E+03	1.878403E-16	1.663082E-17
5.724738E+03	1.865653E-16	1.650895E-17
5.734625E+03	1.855835E-16	1.641354E-17
5.744513E+03	1.848774E-16	1.634302E-17
5.754400E+03	1.844175E-16	1.629474E-17
5.764287E+03	1.841737E-16	1.626600E-17
5.774174E+03	1.841138E-16	1.625395E-17
5.784062E+03	1.842037E-16	1.625557E-17
5.793949E+03	1.844090E-16	1.626780E-17
5.803836E+03	1.846950E-16	1.628759E-17
5.813724E+03	1.850280E-16	1.631198E-17
5.823611E+03	1.853785E-16	1.633836E-17
5.833498E+03	1.857125E-16	1.636373E-17
5.843385E+03	1.860057E-16	1.638600E-17
5.853273E+03	1.862353E-16	1.640313E-17
5.863160E+03	1.863817E-16	1.641344E-17
5.873047E+03	1.864269E-16	1.641534E-17
5.882935E+03	1.863613E-16	1.640800E-17
5.892822E+03	1.861766E-16	1.639069E-17
5.902709E+03	1.858654E-16	1.636278E-17
5.912596E+03	1.854266E-16	1.632417E-17
5.922484E+03	1.848640E-16	1.627521E-17
5.932371E+03	1.841803E-16	1.621612E-17
5.942258E+03	1.833835E-16	1.614762E-17
5.952146E+03	1.824847E-16	1.607069E-17
5.962033E+03	1.814963E-16	1.598639E-17
5.971920E+03	1.804405E-16	1.589670E-17
5.981807E+03	1.793318E-16	1.580288E-17
5.991695E+03	1.782020E-16	1.570771E-17
6.001582E+03	1.770725E-16	1.561310E-17
6.011469E+03	1.759794E-16	1.552221E-17
6.021357E+03	1.749549E-16	1.543790E-17
6.031244E+03	1.740362E-16	1.536344E-17
6.041131E+03	1.732624E-16	1.530230E-17
6.051018E+03	1.726743E-16	1.525810E-17
6.060906E+03	1.723113E-16	1.523436E-17
6.070793E+03	1.722179E-16	1.523504E-17
6.080680E+03	1.724345E-16	1.526376E-17
6.090568E+03	1.730050E-16	1.532449E-17
6.100455E+03	1.739683E-16	1.542074E-17
6.110342E+03	1.753654E-16	1.555624E-17
6.120229E+03	1.772292E-16	1.573402E-17
6.130117E+03	1.795896E-16	1.595687E-17
6.140004E+03	1.824692E-16	1.622690E-17
6.149891E+03	1.858798E-16	1.654534E-17
6.159779E+03	1.898223E-16	1.691239E-17
6.169666E+03	1.942733E-16	1.732615E-17
6.179553E+03	1.991954E-16	1.778346E-17
6.189440E+03	2.045196E-16	1.827831E-17
6.199328E+03	2.101562E-16	1.880284E-17
6.209215E+03	2.160079E-16	1.934847E-17
6.219102E+03	2.219559E-16	1.990466E-17
6.228990E+03	2.278755E-16	2.046029E-17
6.238877E+03	2.336369E-16	2.100372E-17
6.248764E+03	2.391142E-16	2.152361E-17
6.258651E+03	2.441789E-16	2.200832E-17
6.268539E+03	2.487268E-16	2.244833E-17
6.278426E+03	2.526616E-16	2.283478E-17
6.288313E+03	2.559133E-16	2.316112E-17
6.298201E+03	2.584261E-16	2.342205E-17
6.308088E+03	2.601687E-16	2.361445E-17
6.317975E+03	2.611338E-16	2.373736E-17
6.327862E+03	2.613265E-16	2.379090E-17
6.337750E+03	2.607797E-16	2.377775E-17
6.347637E+03	2.595275E-16	2.370070E-17
6.357524E+03	2.576266E-16	2.356460E-17
6.367412E+03	2.551390E-16	2.337483E-17
6.377299E+03	2.521293E-16	2.313702E-17
6.387186E+03	2.486783E-16	2.285832E-17
6.397073E+03	2.448468E-16	2.254410E-17
6.406961E+03	2.407107E-16	2.220114E-17
6.416848E+03	2.363322E-16	2.183500E-17
6.426735E+03	2.317760E-16	2.145152E-17
6.436623E+03	2.270982E-16	2.105577E-17
6.446510E+03	2.223467E-16	2.065209E-17
6.456397E+03	2.175730E-16	2.024521E-17
6.466284E+03	2.128113E-16	1.983825E-17
6.476172E+03	2.081049E-16	1.943524E-17
6.486059E+03	2.034740E-16	1.903807E-17
6.495946E+03	1.989472E-16	1.864940E-17
6.505833E+03	1.945412E-16	1.827083E-17
6.515721E+03	1.902671E-16	1.790344E-17
6.525608E+03	1.861311E-16	1.754785E-17
6.535495E+03	1.821388E-16	1.720464E-17
6.545383E+03	1.782859E-16	1.687344E-17
6.555270E+03	1.745793E-16	1.655498E-17
6.565157E+03	1.710134E-16	1.624877E-17
6.575044E+03	1.675895E-16	1.595498E-17
6.584932E+03	1.643068E-16	1.567362E-17
6.594819E+03	1.611649E-16	1.540469E-17
6.604706E+03	1.581659E-16	1.514846E-17
6.614594E+03	1.553079E-16	1.490481E-17
6.624481E+03	1.525941E-16	1.467410E-17
6.634368E+03	1.500252E-16	1.445649E-17
6.644255E+03	1.476024E-16	1.425215E-17
6.654143E+03	1.453268E-16	1.406127E-17
6.664030E+03	1.431992E-16	1.388399E-17
6.673917E+03	1.412223E-16	1.372066E-17
6.683805E+03	1.393947E-16	1.357120E-17
6.693692E+03	1.377193E-16	1.343600E-17
6.703579E+03	1.361949E-16	1.331503E-17
6.713466E+03	1.348250E-16	1.320870E-17
6.723354E+03	1.336131E-16	1.311743E-17
6.733241E+03	1.325576E-16	1.304118E-17
6.743128E+03	1.316630E-16	1.298046E-17
6.753016E+03	1.309345E-16	1.293589E-17
6.762903E+03	1.303737E-16	1.290774E-17
6.772790E+03	1.299853E-16	1.289654E-17
6.782677E+03	1.297757E-16	1.290305E-17
6.792565E+03	1.297480E-16	1.292770E-17
6.802452E+03	1.299091E-16	1.297128E-17
6.812339E+03	1.302617E-16	1.303417E-17
6.822227E+03	1.308115E-16	1.311708E-17
6.832114E+03	1.315617E-16	1.322043E-17
6.842001E+03	1.325118E-16	1.334432E-17
6.851888E+03	1.336619E-16	1.348888E-17
6.861776E+03	1.350138E-16	1.365441E-17
6.871663E+03	1.365588E-16	1.384017E-17
6.881550E+03	1.382922E-16	1.404580E-17
6.891438E+03	1.402024E-16	1.427024E-17
6.901325E+03	1.422798E-16	1.451265E-17
6.911212E+03	1.445112E-16	1.477176E-17
6.921099E+03	1.468803E-16	1.504600E-17
6.930987E+03	1.493749E-16	1.533424E-17
6.940874E+03	1.519796E-16	1.563495E-17
6.950761E+03	1.546858E-16	1.594732E-17
6.960649E+03	1.574818E-16	1.627023E-17
6.970536E+03	1.603722E-16	1.660419E-17
6.980423E+03	1.633529E-16	1.694886E-17
6.990310E+03	1.664377E-16	1.730571E-17
7.000198E+03	1.696384E-16	1.767607E-17
7.010085E+03	1.729713E-16	1.806169E-17
7.019972E+03	1.764636E-16	1.846553E-17
7.029860E+03	1.801335E-16	1.888959E-17
7.039747E+03	1.840065E-16	1.933667E-17
7.049634E+03	1.880999E-16	1.980873E-17
7.059521E+03	1.924325E-16	2.030790E-17
7.069409E+03	1.970112E-16	2.083508E-17
7.079296E+03	2.018421E-16	2.139108E-17
7.089183E+03	2.069134E-16	2.197482E-17
7.099071E+03	2.122128E-16	2.258514E-17
7.108958E+03	2.177141E-16	2.321941E-17
7.118845E+03	2.233769E-16	2.387346E-17
7.128732E+03	2.291560E-16	2.454254E-17
7.138620E+03	2.349852E-16	2.521964E-17
7.148507E+03	2.408016E-16	2.589802E-17
7.158394E+03	2.465224E-16	2.656875E-17
7.168282E+03	2.520559E-16	2.722187E-17
7.178169E+03	2.573118E-16	2.784748E-17
7.188056E+03	2.621922E-16	2.843478E-17
7.197943E+03	2.665911E-16	2.897200E-17
7.207831E+03	2.704234E-16	2.944954E-17
7.217718E+03	2.735973E-16	2.985699E-17
7.227605E+03	2.760480E-16	3.018684E-17
7.237493E+03	2.777258E-16	3.043314E-17
7.247380E+03	2.785974E-16	3.059171E-17
7.257267E+03	2.786568E-16	3.066135E-17
7.267154E+03	2.779195E-16	3.064320E-17
7.277042E+03	2.764204E-16	3.054061E-17
7.286929E+03	2.742111E-16	3.035873E-17
7.296816E+03	2.713549E-16	3.010412E-17
7.306704E+03	2.679193E-16	2.978384E-17
7.316591E+03	2.639839E-16	2.940636E-17
7.326478E+03	2.596210E-16	2.897940E-17
7.336365E+03	2.549090E-16	2.851146E-17
7.346253E+03	2.499144E-16	2.800973E-17
7.356140E+03	2.447034E-16	2.748146E-17
7.366027E+03	2.393395E-16	2.693363E-17
7.375915E+03	2.338697E-16	2.637146E-17
7.385802E+03	2.283503E-16	2.580123E-17
7.395689E+03	2.228228E-16	2.522758E-17
7.405576E+03	2.173324E-16	2.465566E-17
7.415464E+03	2.119122E-16	2.408923E-17
7.425351E+03	2.066081E-16	2.353358E-17
7.435238E+03	2.014549E-16	2.299275E-17
7.445126E+03	1.964893E-16	2.247102E-17
7.455013E+03	1.917480E-16	2.197273E-17
7.464900E+03	1.872570E-16	2.150103E-17
7.474787E+03	1.830434E-16	2.105920E-17
7.484675E+03	1.791236E-16	2.064930E-17
7.494562E+03	1.755145E-16	2.027349E-17
7.504449E+03	1.722256E-16	1.993308E-17
7.514337E+03	1.692596E-16	1.962861E-17
7.524224E+03	1.666211E-16	1.936083E-17
7.534111E+03	1.643093E-16	1.912986E-17
7.543998E+03	1.623209E-16	1.893554E-17
7.553886E+03	1.606507E-16	1.877749E-17
7.563773E+03	1.592915E-16	1.865508E-17
7.573660E+03	1.582341E-16	1.856745E-17
7.583548E+03	1.574666E-16	1.851339E-17
7.593435E+03	1.569742E-16	1.849136E-17
7.603322E+03	1.567401E-16	1.849957E-17
7.613209E+03	1.567364E-16	1.853488E-17
7.623097E+03	1.569406E-16	1.859479E-17
7.632984E+03	1.573189E-16	1.867544E-17
7.642871E+03	1.578397E-16	1.877317E-17
7.652759E+03	1.584614E-16	1.888311E-17
7.662646E+03	1.591515E-16	1.900147E-17
7.672533E+03	1.598698E-16	1.912346E-17
