#wls	flux	fluxerr
1.581966E+03	1.677401E-16	7.248963E-18
1.621515E+03	1.722127E-16	7.440793E-18
1.661064E+03	1.765716E-16	7.627605E-18
1.700613E+03	1.807919E-16	7.808314E-18
1.740162E+03	1.848770E-16	7.983071E-18
1.779711E+03	1.887114E-16	8.146892E-18
1.819260E+03	1.922864E-16	8.299401E-18
1.858810E+03	1.955145E-16	8.436826E-18
1.898359E+03	1.982959E-16	8.554876E-18
1.937908E+03	2.004985E-16	8.647860E-18
1.977457E+03	2.021284E-16	8.716050E-18
2.017006E+03	2.031935E-16	8.759813E-18
2.056555E+03	2.039616E-16	8.790705E-18
2.096104E+03	2.049045E-16	8.829062E-18
2.135654E+03	2.066239E-16	8.900793E-18
2.175203E+03	2.095673E-16	9.025146E-18
2.214752E+03	2.138070E-16	9.205189E-18
2.254301E+03	2.189851E-16	9.425468E-18
2.293850E+03	2.246163E-16	9.665053E-18
2.333399E+03	2.302085E-16	9.902766E-18
2.372948E+03	2.354904E-16	1.012693E-17
2.412498E+03	2.403296E-16	1.033186E-17
2.452047E+03	2.446482E-16	1.051423E-17
2.491596E+03	2.484528E-16	1.067433E-17
2.531145E+03	2.516993E-16	1.081029E-17
2.570694E+03	2.544917E-16	1.092659E-17
2.610243E+03	2.567566E-16	1.102010E-17
2.649792E+03	2.585576E-16	1.109358E-17
2.689342E+03	2.599183E-16	1.114804E-17
2.728891E+03	2.608236E-16	1.118287E-17
2.768440E+03	2.613218E-16	1.120015E-17
2.807989E+03	2.613598E-16	1.119762E-17
2.847538E+03	2.610115E-16	1.117848E-17
2.887087E+03	2.602522E-16	1.114169E-17
2.926636E+03	2.590600E-16	1.108632E-17
2.966185E+03	2.575013E-16	1.101525E-17
2.976073E+03	2.570707E-16	1.099573E-17
2.985960E+03	2.565842E-16	1.097382E-17
2.995847E+03	2.560969E-16	1.095187E-17
3.005735E+03	2.555809E-16	1.092870E-17
3.015622E+03	2.550360E-16	1.090429E-17
3.025509E+03	2.544887E-16	1.087978E-17
3.035396E+03	2.539135E-16	1.085408E-17
3.045284E+03	2.533085E-16	1.082710E-17
3.055171E+03	2.526826E-16	1.079923E-17
3.065058E+03	2.520601E-16	1.077151E-17
3.074946E+03	2.514136E-16	1.074277E-17
3.084833E+03	2.507673E-16	1.071403E-17
3.094720E+03	2.500945E-16	1.068417E-17
3.104607E+03	2.493947E-16	1.065315E-17
3.114495E+03	2.486913E-16	1.062198E-17
3.124382E+03	2.479831E-16	1.059061E-17
3.134269E+03	2.472452E-16	1.055798E-17
3.144157E+03	2.464775E-16	1.052408E-17
3.154044E+03	2.457259E-16	1.049086E-17
3.163931E+03	2.449205E-16	1.045535E-17
3.173818E+03	2.441295E-16	1.042046E-17
3.183706E+03	2.433073E-16	1.038424E-17
3.193593E+03	2.424759E-16	1.034764E-17
3.203480E+03	2.416133E-16	1.030971E-17
3.213368E+03	2.407627E-16	1.027229E-17
3.223255E+03	2.398808E-16	1.023354E-17
3.233142E+03	2.389892E-16	1.019438E-17
3.243029E+03	2.380674E-16	1.015394E-17
3.252917E+03	2.371567E-16	1.011398E-17
3.262804E+03	2.362366E-16	1.007362E-17
3.272691E+03	2.352878E-16	1.003205E-17
3.282579E+03	2.343507E-16	9.990975E-18
3.292466E+03	2.333868E-16	9.948766E-18
3.302353E+03	2.324356E-16	9.907107E-18
3.312240E+03	2.314788E-16	9.865212E-18
3.322128E+03	2.305173E-16	9.823126E-18
3.332015E+03	2.295343E-16	9.780126E-18
3.341902E+03	2.285853E-16	9.738586E-18
3.351790E+03	2.276169E-16	9.696220E-18
3.361677E+03	2.266657E-16	9.654597E-18
3.371564E+03	2.257148E-16	9.612992E-18
3.381451E+03	2.247647E-16	9.571427E-18
3.391339E+03	2.238162E-16	9.529936E-18
3.401226E+03	2.228859E-16	9.489230E-18
3.411113E+03	2.219735E-16	9.449289E-18
3.421001E+03	2.210622E-16	9.409402E-18
3.430888E+03	2.201520E-16	9.369566E-18
3.440775E+03	2.192581E-16	9.330431E-18
3.450662E+03	2.183795E-16	9.291955E-18
3.460550E+03	2.175002E-16	9.253453E-18
3.470437E+03	2.166344E-16	9.215535E-18
3.480324E+03	2.157666E-16	9.177535E-18
3.490212E+03	2.149252E-16	9.140665E-18
3.500099E+03	2.140801E-16	9.103645E-18
3.509986E+03	2.132311E-16	9.066464E-18
3.519873E+03	2.124055E-16	9.030282E-18
3.529761E+03	2.115882E-16	8.994462E-18
3.539648E+03	2.107653E-16	8.958409E-18
3.549535E+03	2.099633E-16	8.923252E-18
3.559423E+03	2.091556E-16	8.887854E-18
3.569310E+03	2.083683E-16	8.853333E-18
3.579197E+03	2.075764E-16	8.818624E-18
3.589084E+03	2.068065E-16	8.784854E-18
3.598972E+03	2.060480E-16	8.751574E-18
3.608859E+03	2.053035E-16	8.718893E-18
3.618746E+03	2.045768E-16	8.686975E-18
3.628634E+03	2.038844E-16	8.656517E-18
3.638521E+03	2.032198E-16	8.627248E-18
3.648408E+03	2.025899E-16	8.599457E-18
3.658295E+03	2.020023E-16	8.573465E-18
3.668183E+03	2.014764E-16	8.550096E-18
3.678070E+03	2.010102E-16	8.529264E-18
3.687957E+03	2.006244E-16	8.511844E-18
3.697845E+03	2.003183E-16	8.497810E-18
3.707732E+03	2.001134E-16	8.488070E-18
3.717619E+03	2.000105E-16	8.482656E-18
3.727506E+03	2.000209E-16	8.482050E-18
3.737394E+03	2.001762E-16	8.487582E-18
3.747281E+03	2.004573E-16	8.498444E-18
3.757168E+03	2.009044E-16	8.516341E-18
3.767056E+03	2.015075E-16	8.540845E-18
3.776943E+03	2.022849E-16	8.572727E-18
3.786830E+03	2.032338E-16	8.611870E-18
3.796717E+03	2.043693E-16	8.658904E-18
3.806605E+03	2.056849E-16	8.713556E-18
3.816492E+03	2.072002E-16	8.776652E-18
3.826379E+03	2.088949E-16	8.847327E-18
3.836267E+03	2.107645E-16	8.925394E-18
3.846154E+03	2.128204E-16	9.011329E-18
3.856041E+03	2.150340E-16	9.103914E-18
3.865928E+03	2.173918E-16	9.202583E-18
3.875816E+03	2.198869E-16	9.307034E-18
3.885703E+03	2.225000E-16	9.416456E-18
3.895590E+03	2.252091E-16	9.529909E-18
3.905478E+03	2.279804E-16	9.645969E-18
3.915365E+03	2.307968E-16	9.763901E-18
3.925252E+03	2.336206E-16	9.882119E-18
3.935139E+03	2.364317E-16	9.999771E-18
3.945027E+03	2.391911E-16	1.011520E-17
3.954914E+03	2.418781E-16	1.022755E-17
3.964801E+03	2.444549E-16	1.033520E-17
3.974689E+03	2.468937E-16	1.043700E-17
3.984576E+03	2.491782E-16	1.053225E-17
3.994463E+03	2.512769E-16	1.061962E-17
4.004350E+03	2.531704E-16	1.069830E-17
4.014238E+03	2.548521E-16	1.076800E-17
4.024125E+03	2.562931E-16	1.082753E-17
4.034012E+03	2.574956E-16	1.087696E-17
4.043900E+03	2.584580E-16	1.091624E-17
4.053787E+03	2.591832E-16	1.094550E-17
4.063674E+03	2.596787E-16	1.096505E-17
4.073561E+03	2.599477E-16	1.097503E-17
4.083449E+03	2.600143E-16	1.097646E-17
4.093336E+03	2.598966E-16	1.097012E-17
4.103223E+03	2.595989E-16	1.095619E-17
4.113111E+03	2.591601E-16	1.093630E-17
4.122998E+03	2.585955E-16	1.091111E-17
4.132885E+03	2.579289E-16	1.088163E-17
4.142772E+03	2.571761E-16	1.084852E-17
4.152660E+03	2.563758E-16	1.081342E-17
4.162547E+03	2.555269E-16	1.077627E-17
4.172434E+03	2.546733E-16	1.073894E-17
4.182322E+03	2.538118E-16	1.070129E-17
4.192209E+03	2.529752E-16	1.066470E-17
4.202096E+03	2.521723E-16	1.062954E-17
4.211983E+03	2.514177E-16	1.059643E-17
4.221871E+03	2.507171E-16	1.056560E-17
4.231758E+03	2.500889E-16	1.053784E-17
4.241645E+03	2.495361E-16	1.051325E-17
4.251533E+03	2.490673E-16	1.049222E-17
4.261420E+03	2.486965E-16	1.047533E-17
4.271307E+03	2.484174E-16	1.046230E-17
4.281194E+03	2.482429E-16	1.045368E-17
4.291082E+03	2.481791E-16	1.044973E-17
4.300969E+03	2.482256E-16	1.045043E-17
4.310856E+03	2.483891E-16	1.045606E-17
4.320744E+03	2.486766E-16	1.046690E-17
4.330631E+03	2.490956E-16	1.048328E-17
4.340518E+03	2.496545E-16	1.050556E-17
4.350405E+03	2.503561E-16	1.053383E-17
4.360293E+03	2.512102E-16	1.056851E-17
4.370180E+03	2.522323E-16	1.061026E-17
4.380067E+03	2.534257E-16	1.065921E-17
4.389955E+03	2.547987E-16	1.071570E-17
4.399842E+03	2.563523E-16	1.077978E-17
4.409729E+03	2.580971E-16	1.085189E-17
4.419616E+03	2.600286E-16	1.093184E-17
4.429504E+03	2.621505E-16	1.101977E-17
4.439391E+03	2.644500E-16	1.111516E-17
4.449278E+03	2.669151E-16	1.121749E-17
4.459166E+03	2.695221E-16	1.132576E-17
4.469053E+03	2.722590E-16	1.143947E-17
4.478940E+03	2.750837E-16	1.155685E-17
4.488827E+03	2.779598E-16	1.167637E-17
4.498715E+03	2.808510E-16	1.179650E-17
4.508602E+03	2.837037E-16	1.191499E-17
4.518489E+03	2.864658E-16	1.202966E-17
4.528377E+03	2.890826E-16	1.213821E-17
4.538264E+03	2.915035E-16	1.223852E-17
4.548151E+03	2.936604E-16	1.232773E-17
4.558038E+03	2.955056E-16	1.240384E-17
4.567926E+03	2.969901E-16	1.246481E-17
4.577813E+03	2.980650E-16	1.250858E-17
4.587700E+03	2.987022E-16	1.253398E-17
4.597588E+03	2.988772E-16	1.253999E-17
4.607475E+03	2.985705E-16	1.252580E-17
4.617362E+03	2.977862E-16	1.249158E-17
4.627249E+03	2.965280E-16	1.243751E-17
4.637137E+03	2.948228E-16	1.236470E-17
4.647024E+03	2.926957E-16	1.227423E-17
4.656911E+03	2.901871E-16	1.216779E-17
4.666798E+03	2.873502E-16	1.204761E-17
4.676686E+03	2.842324E-16	1.191569E-17
4.686573E+03	2.808957E-16	1.177463E-17
4.696460E+03	2.773933E-16	1.162666E-17
4.706348E+03	2.737836E-16	1.147423E-17
4.716235E+03	2.701287E-16	1.131994E-17
4.726122E+03	2.664779E-16	1.116587E-17
4.736009E+03	2.628874E-16	1.101436E-17
4.745897E+03	2.593993E-16	1.086718E-17
4.755784E+03	2.560568E-16	1.072613E-17
4.765671E+03	2.529074E-16	1.059320E-17
4.775559E+03	2.499704E-16	1.046921E-17
4.785446E+03	2.472881E-16	1.035591E-17
4.795333E+03	2.448744E-16	1.025388E-17
4.805220E+03	2.427519E-16	1.016408E-17
4.815108E+03	2.409337E-16	1.008704E-17
4.824995E+03	2.394278E-16	1.002309E-17
4.834882E+03	2.382330E-16	9.972190E-18
4.844770E+03	2.373564E-16	9.934619E-18
4.854657E+03	2.367825E-16	9.909735E-18
4.864544E+03	2.365081E-16	9.897393E-18
4.874431E+03	2.365120E-16	9.896709E-18
4.884319E+03	2.367724E-16	9.906763E-18
4.894206E+03	2.372621E-16	9.926419E-18
4.904093E+03	2.379541E-16	9.954540E-18
4.913981E+03	2.388087E-16	9.989467E-18
4.923868E+03	2.397924E-16	1.002979E-17
4.933755E+03	2.408622E-16	1.007373E-17
4.943642E+03	2.419846E-16	1.011986E-17
4.953530E+03	2.431248E-16	1.016674E-17
4.963417E+03	2.442482E-16	1.021291E-17
4.973304E+03	2.453356E-16	1.025758E-17
4.983192E+03	2.463705E-16	1.030007E-17
4.993079E+03	2.473448E-16	1.034001E-17
5.002966E+03	2.482574E-16	1.037738E-17
5.012853E+03	2.491108E-16	1.041228E-17
5.022741E+03	2.499253E-16	1.044556E-17
5.032628E+03	2.507132E-16	1.047773E-17
5.042515E+03	2.514937E-16	1.050960E-17
5.052403E+03	2.522869E-16	1.054200E-17
5.062290E+03	2.531124E-16	1.057575E-17
5.072177E+03	2.539922E-16	1.061178E-17
5.082064E+03	2.549369E-16	1.065053E-17
5.091952E+03	2.559580E-16	1.069247E-17
5.101839E+03	2.570629E-16	1.073791E-17
5.111726E+03	2.582593E-16	1.078719E-17
5.121614E+03	2.595429E-16	1.084010E-17
5.131501E+03	2.609098E-16	1.089650E-17
5.141388E+03	2.623579E-16	1.095629E-17
5.151275E+03	2.638738E-16	1.101892E-17
5.161163E+03	2.654459E-16	1.108390E-17
5.171050E+03	2.670657E-16	1.115087E-17
5.180937E+03	2.687145E-16	1.121905E-17
5.190825E+03	2.703815E-16	1.128800E-17
5.200712E+03	2.720417E-16	1.135666E-17
5.210599E+03	2.736922E-16	1.142493E-17
5.220486E+03	2.753030E-16	1.149154E-17
5.230374E+03	2.768665E-16	1.155618E-17
5.240261E+03	2.783618E-16	1.161799E-17
5.250148E+03	2.797728E-16	1.167627E-17
5.260036E+03	2.810886E-16	1.173060E-17
5.269923E+03	2.822895E-16	1.178013E-17
5.279810E+03	2.833652E-16	1.182445E-17
5.289697E+03	2.842921E-16	1.186256E-17
5.299585E+03	2.850650E-16	1.189426E-17
5.309472E+03	2.856645E-16	1.191874E-17
5.319359E+03	2.860797E-16	1.193554E-17
5.329247E+03	2.862846E-16	1.194357E-17
5.339134E+03	2.862714E-16	1.194251E-17
5.349021E+03	2.860182E-16	1.193146E-17
5.358908E+03	2.855085E-16	1.190972E-17
5.368796E+03	2.847322E-16	1.187688E-17
5.378683E+03	2.836712E-16	1.183217E-17
5.388570E+03	2.823140E-16	1.177513E-17
5.398458E+03	2.806520E-16	1.170539E-17
5.408345E+03	2.786831E-16	1.162287E-17
5.418232E+03	2.763987E-16	1.152721E-17
5.428119E+03	2.737979E-16	1.141837E-17
5.438007E+03	2.708875E-16	1.129664E-17
5.447894E+03	2.676682E-16	1.116205E-17
5.457781E+03	2.641536E-16	1.101516E-17
5.467669E+03	2.603476E-16	1.085614E-17
5.477556E+03	2.562800E-16	1.068624E-17
5.487443E+03	2.519630E-16	1.050595E-17
5.497330E+03	2.474216E-16	1.031633E-17
5.507218E+03	2.426888E-16	1.011875E-17
5.517105E+03	2.377971E-16	9.914563E-18
5.526992E+03	2.327825E-16	9.705271E-18
5.536880E+03	2.276796E-16	9.492318E-18
5.546767E+03	2.225330E-16	9.277564E-18
5.556654E+03	2.173846E-16	9.062750E-18
5.566541E+03	2.122730E-16	8.849490E-18
5.576429E+03	2.072469E-16	8.639809E-18
5.586316E+03	2.023427E-16	8.435227E-18
5.596203E+03	1.975982E-16	8.237317E-18
5.606091E+03	1.930479E-16	8.047518E-18
5.615978E+03	1.887232E-16	7.867137E-18
5.625865E+03	1.846542E-16	7.697425E-18
5.635752E+03	1.808607E-16	7.539211E-18
5.645640E+03	1.773617E-16	7.393284E-18
5.655527E+03	1.741743E-16	7.260357E-18
5.665414E+03	1.713059E-16	7.140739E-18
5.675302E+03	1.687654E-16	7.034795E-18
5.685189E+03	1.665520E-16	6.942495E-18
5.695076E+03	1.646663E-16	6.863863E-18
5.704963E+03	1.631022E-16	6.798647E-18
5.714851E+03	1.618500E-16	6.746437E-18
5.724738E+03	1.608929E-16	6.706539E-18
5.734625E+03	1.602160E-16	6.678325E-18
5.744513E+03	1.597978E-16	6.660900E-18
5.754400E+03	1.596133E-16	6.653227E-18
5.764287E+03	1.596341E-16	6.654118E-18
5.774174E+03	1.598295E-16	6.662296E-18
5.784062E+03	1.601639E-16	6.676273E-18
5.793949E+03	1.606089E-16	6.694867E-18
5.803836E+03	1.611278E-16	6.716551E-18
5.813724E+03	1.616880E-16	6.739968E-18
5.823611E+03	1.622594E-16	6.763856E-18
5.833498E+03	1.628148E-16	6.787086E-18
5.843385E+03	1.633313E-16	6.808703E-18
5.853273E+03	1.637928E-16	6.828035E-18
5.863160E+03	1.641795E-16	6.844258E-18
5.873047E+03	1.644871E-16	6.857191E-18
5.882935E+03	1.647068E-16	6.866470E-18
5.892822E+03	1.648366E-16	6.872010E-18
5.902709E+03	1.648775E-16	6.873848E-18
5.912596E+03	1.648334E-16	6.872154E-18
5.922484E+03	1.647112E-16	6.867210E-18
5.932371E+03	1.645226E-16	6.859508E-18
5.942258E+03	1.642739E-16	6.849304E-18
5.952146E+03	1.639843E-16	6.837407E-18
5.962033E+03	1.636677E-16	6.824389E-18
5.971920E+03	1.633400E-16	6.810921E-18
5.981807E+03	1.630287E-16	6.798139E-18
5.991695E+03	1.627579E-16	6.787054E-18
6.001582E+03	1.625490E-16	6.778560E-18
6.011469E+03	1.624341E-16	6.773993E-18
6.021357E+03	1.624447E-16	6.774672E-18
6.031244E+03	1.626143E-16	6.781984E-18
6.041131E+03	1.629801E-16	6.797493E-18
6.051018E+03	1.635723E-16	6.822455E-18
6.060906E+03	1.644294E-16	6.858474E-18
6.070793E+03	1.655895E-16	6.907147E-18
6.080680E+03	1.670809E-16	6.969654E-18
6.090568E+03	1.689383E-16	7.047443E-18
6.100455E+03	1.711904E-16	7.141711E-18
6.110342E+03	1.738644E-16	7.253603E-18
6.120229E+03	1.769734E-16	7.383661E-18
6.130117E+03	1.805325E-16	7.532525E-18
6.140004E+03	1.845458E-16	7.700362E-18
6.149891E+03	1.890076E-16	7.886945E-18
6.159779E+03	1.939007E-16	8.091557E-18
6.169666E+03	1.991949E-16	8.312941E-18
6.179553E+03	2.048454E-16	8.549226E-18
6.189440E+03	2.107914E-16	8.797887E-18
6.199328E+03	2.169573E-16	9.055764E-18
6.209215E+03	2.232525E-16	9.319081E-18
6.219102E+03	2.295736E-16	9.583522E-18
6.228990E+03	2.358076E-16	9.844374E-18
6.238877E+03	2.418355E-16	1.009666E-17
6.248764E+03	2.475370E-16	1.033537E-17
6.258651E+03	2.527991E-16	1.055577E-17
6.268539E+03	2.575043E-16	1.075296E-17
6.278426E+03	2.615651E-16	1.092327E-17
6.288313E+03	2.648924E-16	1.106299E-17
6.298201E+03	2.674340E-16	1.116992E-17
6.308088E+03	2.691441E-16	1.124215E-17
6.317975E+03	2.700072E-16	1.127902E-17
6.327862E+03	2.700188E-16	1.128034E-17
6.337750E+03	2.691987E-16	1.124692E-17
6.347637E+03	2.675845E-16	1.118032E-17
6.357524E+03	2.652337E-16	1.108295E-17
6.367412E+03	2.622115E-16	1.095751E-17
6.377299E+03	2.585829E-16	1.080673E-17
6.387186E+03	2.544420E-16	1.063452E-17
6.397073E+03	2.498622E-16	1.044394E-17
6.406961E+03	2.449305E-16	1.023863E-17
6.416848E+03	2.397222E-16	1.002174E-17
6.426735E+03	2.343170E-16	9.796588E-18
6.436623E+03	2.287840E-16	9.566062E-18
6.446510E+03	2.231856E-16	9.332768E-18
6.456397E+03	2.175764E-16	9.098996E-18
6.466284E+03	2.120038E-16	8.866720E-18
6.476172E+03	2.065036E-16	8.637438E-18
6.486059E+03	2.011158E-16	8.412825E-18
6.495946E+03	1.958620E-16	8.193782E-18
6.505833E+03	1.907610E-16	7.981104E-18
6.515721E+03	1.858297E-16	7.775489E-18
6.525608E+03	1.810731E-16	7.577155E-18
6.535495E+03	1.764960E-16	7.386303E-18
6.545383E+03	1.721006E-16	7.203027E-18
6.555270E+03	1.678903E-16	7.027468E-18
6.565157E+03	1.638640E-16	6.859582E-18
6.575044E+03	1.600166E-16	6.699160E-18
6.584932E+03	1.563492E-16	6.546251E-18
6.594819E+03	1.528568E-16	6.400639E-18
6.604706E+03	1.495429E-16	6.262481E-18
6.614594E+03	1.463999E-16	6.131457E-18
6.624481E+03	1.434290E-16	6.007624E-18
6.634368E+03	1.406287E-16	5.890911E-18
6.644255E+03	1.379972E-16	5.781251E-18
6.654143E+03	1.355333E-16	5.678596E-18
6.664030E+03	1.332327E-16	5.582768E-18
6.673917E+03	1.311018E-16	5.494032E-18
6.683805E+03	1.291316E-16	5.412016E-18
6.693692E+03	1.273237E-16	5.336793E-18
6.703579E+03	1.256800E-16	5.268438E-18
6.713466E+03	1.241980E-16	5.206850E-18
6.723354E+03	1.228785E-16	5.152065E-18
6.733241E+03	1.217226E-16	5.104133E-18
6.743128E+03	1.207344E-16	5.063226E-18
6.753016E+03	1.199143E-16	5.029361E-18
6.762903E+03	1.192674E-16	5.002758E-18
6.772790E+03	1.187950E-16	4.983470E-18
6.782677E+03	1.185008E-16	4.971658E-18
6.792565E+03	1.183913E-16	4.967595E-18
6.802452E+03	1.184704E-16	4.971445E-18
6.812339E+03	1.187395E-16	4.983278E-18
6.822227E+03	1.192022E-16	5.003234E-18
6.832114E+03	1.198631E-16	5.031521E-18
6.842001E+03	1.207220E-16	5.068127E-18
6.851888E+03	1.217816E-16	5.113172E-18
6.861776E+03	1.230416E-16	5.166638E-18
6.871663E+03	1.244972E-16	5.228335E-18
6.881550E+03	1.261450E-16	5.298121E-18
6.891438E+03	1.279826E-16	5.375898E-18
6.901325E+03	1.300014E-16	5.461301E-18
6.911212E+03	1.321971E-16	5.554159E-18
6.921099E+03	1.345599E-16	5.654064E-18
6.930987E+03	1.370860E-16	5.760850E-18
6.940874E+03	1.397668E-16	5.874169E-18
6.950761E+03	1.425987E-16	5.993861E-18
6.960649E+03	1.455831E-16	6.119995E-18
6.970536E+03	1.487191E-16	6.252532E-18
6.980423E+03	1.520117E-16	6.391689E-18
6.990310E+03	1.554727E-16	6.537957E-18
7.000198E+03	1.591076E-16	6.691573E-18
7.010085E+03	1.629369E-16	6.853402E-18
7.019972E+03	1.669732E-16	7.023981E-18
7.029860E+03	1.712329E-16	7.203995E-18
7.039747E+03	1.757311E-16	7.394093E-18
7.049634E+03	1.804809E-16	7.594817E-18
7.059521E+03	1.854910E-16	7.806547E-18
7.069409E+03	1.907649E-16	8.029429E-18
7.079296E+03	1.962944E-16	8.263130E-18
7.089183E+03	2.020708E-16	8.507276E-18
7.099071E+03	2.080715E-16	8.760922E-18
7.108958E+03	2.142621E-16	9.022631E-18
7.118845E+03	2.205925E-16	9.290285E-18
7.128732E+03	2.270079E-16	9.561585E-18
7.138620E+03	2.334324E-16	9.833336E-18
7.148507E+03	2.397871E-16	1.010221E-17
7.158394E+03	2.459678E-16	1.036381E-17
7.168282E+03	2.518862E-16	1.061443E-17
7.178169E+03	2.574187E-16	1.084884E-17
7.188056E+03	2.624649E-16	1.106281E-17
7.197943E+03	2.669070E-16	1.125137E-17
7.207831E+03	2.706566E-16	1.141078E-17
7.217718E+03	2.736226E-16	1.153718E-17
7.227605E+03	2.757315E-16	1.162747E-17
7.237493E+03	2.769477E-16	1.168014E-17
7.247380E+03	2.772373E-16	1.169374E-17
7.257267E+03	2.766070E-16	1.166853E-17
7.267154E+03	2.750809E-16	1.160553E-17
7.277042E+03	2.727042E-16	1.150663E-17
7.286929E+03	2.695340E-16	1.137421E-17
7.296816E+03	2.656464E-16	1.121149E-17
7.306704E+03	2.611330E-16	1.102231E-17
7.316591E+03	2.560844E-16	1.081050E-17
7.326478E+03	2.505883E-16	1.057975E-17
7.336365E+03	2.447411E-16	1.033411E-17
7.346253E+03	2.386256E-16	1.007709E-17
7.356140E+03	2.323236E-16	9.812130E-18
7.366027E+03	2.259111E-16	9.542438E-18
7.375915E+03	2.194611E-16	9.271098E-18
7.385802E+03	2.130302E-16	9.000503E-18
7.395689E+03	2.066730E-16	8.732956E-18
7.405576E+03	2.004375E-16	8.470493E-18
7.415464E+03	1.943699E-16	8.215059E-18
7.425351E+03	1.884984E-16	7.967854E-18
7.435238E+03	1.828623E-16	7.730541E-18
7.445126E+03	1.774840E-16	7.504074E-18
7.455013E+03	1.723820E-16	7.289236E-18
7.464900E+03	1.675812E-16	7.087080E-18
7.474787E+03	1.630914E-16	6.898033E-18
7.484675E+03	1.589220E-16	6.722494E-18
7.494562E+03	1.550794E-16	6.560736E-18
7.504449E+03	1.515661E-16	6.412873E-18
7.514337E+03	1.483787E-16	6.278764E-18
7.524224E+03	1.455205E-16	6.158558E-18
7.534111E+03	1.429832E-16	6.051904E-18
7.543998E+03	1.407594E-16	5.958493E-18
7.553886E+03	1.388369E-16	5.877815E-18
7.563773E+03	1.372103E-16	5.809645E-18
7.573660E+03	1.358610E-16	5.753204E-18
7.583548E+03	1.347773E-16	5.707996E-18
7.593435E+03	1.339454E-16	5.673445E-18
7.603322E+03	1.333416E-16	5.648542E-18
7.613209E+03	1.329455E-16	5.632438E-18
7.623097E+03	1.327413E-16	5.624457E-18
7.632984E+03	1.327026E-16	5.623488E-18
7.642871E+03	1.328019E-16	5.628365E-18
7.652759E+03	1.330190E-16	5.638239E-18
7.662646E+03	1.333221E-16	5.651755E-18
7.672533E+03	1.336841E-16	5.667775E-18
