#wls	flux	fluxerr
1.581966E+03	9.956149E-17	4.886009E-18
1.621515E+03	1.021683E-16	5.004948E-18
1.661064E+03	1.047017E-16	5.119615E-18
1.700613E+03	1.071859E-16	5.231184E-18
1.740162E+03	1.095900E-16	5.338151E-18
1.779711E+03	1.118684E-16	5.438290E-18
1.819260E+03	1.140389E-16	5.532491E-18
1.858810E+03	1.159960E-16	5.615655E-18
1.898359E+03	1.177236E-16	5.687046E-18
1.937908E+03	1.191477E-16	5.743161E-18
1.977457E+03	1.202359E-16	5.782514E-18
2.017006E+03	1.210370E-16	5.807548E-18
2.056555E+03	1.216947E-16	5.825228E-18
2.096104E+03	1.224957E-16	5.849278E-18
2.135654E+03	1.237871E-16	5.896177E-18
2.175203E+03	1.258680E-16	5.979940E-18
2.214752E+03	1.287553E-16	6.101054E-18
2.254301E+03	1.322901E-16	6.251688E-18
2.293850E+03	1.361539E-16	6.416543E-18
2.333399E+03	1.400619E-16	6.582070E-18
2.372948E+03	1.438848E-16	6.742156E-18
2.412498E+03	1.475336E-16	6.892643E-18
2.452047E+03	1.509270E-16	7.029777E-18
2.491596E+03	1.541056E-16	7.155514E-18
2.531145E+03	1.570776E-16	7.270299E-18
2.570694E+03	1.598320E-16	7.373683E-18
2.610243E+03	1.624058E-16	7.467436E-18
2.649792E+03	1.648106E-16	7.552147E-18
2.689342E+03	1.670319E-16	7.627212E-18
2.728891E+03	1.691264E-16	7.695266E-18
2.768440E+03	1.710519E-16	7.754438E-18
2.807989E+03	1.728623E-16	7.807234E-18
2.847538E+03	1.745381E-16	7.852806E-18
2.887087E+03	1.760829E-16	7.891376E-18
2.926636E+03	1.775247E-16	7.924242E-18
2.966185E+03	1.788427E-16	7.950519E-18
2.976073E+03	1.791539E-16	7.956115E-18
2.985960E+03	1.794532E-16	7.961116E-18
2.995847E+03	1.797646E-16	7.966592E-18
3.005735E+03	1.800640E-16	7.971472E-18
3.015622E+03	1.803516E-16	7.975768E-18
3.025509E+03	1.806274E-16	7.979477E-18
3.035396E+03	1.808927E-16	7.982662E-18
3.045284E+03	1.811700E-16	7.986317E-18
3.055171E+03	1.814418E-16	7.989669E-18
3.065058E+03	1.817076E-16	7.992693E-18
3.074946E+03	1.819665E-16	7.995351E-18
3.084833E+03	1.822412E-16	7.998649E-18
3.094720E+03	1.825078E-16	8.001524E-18
3.104607E+03	1.827654E-16	8.003943E-18
3.114495E+03	1.830136E-16	8.005895E-18
3.124382E+03	1.832755E-16	8.008380E-18
3.134269E+03	1.835037E-16	8.009339E-18
3.144157E+03	1.837448E-16	8.010797E-18
3.154044E+03	1.839983E-16	8.012741E-18
3.163931E+03	1.842173E-16	8.013119E-18
3.173818E+03	1.844483E-16	8.013965E-18
3.183706E+03	1.846676E-16	8.014243E-18
3.193593E+03	1.848753E-16	8.013960E-18
3.203480E+03	1.850712E-16	8.013110E-18
3.213368E+03	1.852782E-16	8.012689E-18
3.223255E+03	1.854732E-16	8.011691E-18
3.233142E+03	1.856561E-16	8.010114E-18
3.243029E+03	1.858270E-16	8.007970E-18
3.252917E+03	1.860087E-16	8.006234E-18
3.262804E+03	1.861782E-16	8.003925E-18
3.272691E+03	1.863359E-16	8.001051E-18
3.282579E+03	1.864813E-16	7.997607E-18
3.292466E+03	1.866376E-16	7.994574E-18
3.302353E+03	1.867819E-16	7.990978E-18
3.312240E+03	1.869144E-16	7.986829E-18
3.322128E+03	1.870352E-16	7.982135E-18
3.332015E+03	1.871667E-16	7.977848E-18
3.341902E+03	1.872866E-16	7.973023E-18
3.351790E+03	1.873952E-16	7.967667E-18
3.361677E+03	1.874926E-16	7.961789E-18
3.371564E+03	1.875787E-16	7.955395E-18
3.381451E+03	1.876760E-16	7.949428E-18
3.391339E+03	1.877623E-16	7.942951E-18
3.401226E+03	1.878596E-16	7.936900E-18
3.411113E+03	1.879247E-16	7.929446E-18
3.421001E+03	1.880009E-16	7.922420E-18
3.430888E+03	1.880668E-16	7.914921E-18
3.440775E+03	1.881226E-16	7.906958E-18
3.450662E+03	1.881685E-16	7.898546E-18
3.460550E+03	1.882260E-16	7.890576E-18
3.470437E+03	1.882738E-16	7.882170E-18
3.480324E+03	1.883122E-16	7.873330E-18
3.490212E+03	1.883414E-16	7.864072E-18
3.500099E+03	1.883825E-16	7.855276E-18
3.509986E+03	1.884146E-16	7.846072E-18
3.519873E+03	1.884381E-16	7.836475E-18
3.529761E+03	1.884531E-16	7.826494E-18
3.539648E+03	1.884804E-16	7.816994E-18
3.549535E+03	1.884791E-16	7.806273E-18
3.559423E+03	1.884905E-16	7.796054E-18
3.569310E+03	1.884942E-16	7.785482E-18
3.579197E+03	1.885109E-16	7.775421E-18
3.589084E+03	1.884999E-16	7.764190E-18
3.598972E+03	1.885023E-16	7.753484E-18
3.608859E+03	1.884980E-16	7.742472E-18
3.618746E+03	1.884872E-16	7.731173E-18
3.628634E+03	1.884903E-16	7.720411E-18
3.638521E+03	1.884674E-16	7.708564E-18
3.648408E+03	1.884586E-16	7.697272E-18
3.658295E+03	1.884446E-16	7.685741E-18
3.668183E+03	1.884451E-16	7.674778E-18
3.678070E+03	1.884212E-16	7.662795E-18
3.687957E+03	1.884123E-16	7.651405E-18
3.697845E+03	1.883800E-16	7.639039E-18
3.707732E+03	1.883632E-16	7.627286E-18
3.717619E+03	1.883430E-16	7.615373E-18
3.727506E+03	1.883388E-16	7.604088E-18
3.737394E+03	1.883130E-16	7.591906E-18
3.747281E+03	1.883037E-16	7.580374E-18
3.757168E+03	1.882924E-16	7.568742E-18
3.767056E+03	1.882796E-16	7.557031E-18
3.776943E+03	1.882657E-16	7.545254E-18
3.786830E+03	1.882511E-16	7.533435E-18
3.796717E+03	1.882547E-16	7.522328E-18
3.806605E+03	1.882399E-16	7.510465E-18
3.816492E+03	1.882441E-16	7.499343E-18
3.826379E+03	1.882491E-16	7.488237E-18
3.836267E+03	1.882555E-16	7.477167E-18
3.846154E+03	1.882637E-16	7.466151E-18
3.856041E+03	1.882920E-16	7.455917E-18
3.865928E+03	1.883045E-16	7.445040E-18
3.875816E+03	1.883379E-16	7.434971E-18
3.885703E+03	1.883564E-16	7.424296E-18
3.895590E+03	1.883961E-16	7.414442E-18
3.905478E+03	1.884392E-16	7.404706E-18
3.915365E+03	1.884861E-16	7.395099E-18
3.925252E+03	1.885369E-16	7.385628E-18
3.935139E+03	1.885917E-16	7.376298E-18
3.945027E+03	1.886681E-16	7.367794E-18
3.954914E+03	1.887312E-16	7.358751E-18
3.964801E+03	1.887985E-16	7.349859E-18
3.974689E+03	1.888875E-16	7.341793E-18
3.984576E+03	1.889636E-16	7.333205E-18
3.994463E+03	1.890614E-16	7.325448E-18
4.004350E+03	1.891637E-16	7.317842E-18
4.014238E+03	1.892536E-16	7.309744E-18
4.024125E+03	1.893657E-16	7.302484E-18
4.034012E+03	1.894828E-16	7.295401E-18
4.043900E+03	1.896054E-16	7.288511E-18
4.053787E+03	1.897339E-16	7.281832E-18
4.063674E+03	1.898686E-16	7.275375E-18
4.073561E+03	1.899935E-16	7.268521E-18
4.083449E+03	1.901424E-16	7.262574E-18
4.093336E+03	1.902993E-16	7.256912E-18
4.103223E+03	1.904647E-16	7.251559E-18
4.113111E+03	1.906393E-16	7.246540E-18
4.122998E+03	1.908238E-16	7.241878E-18
4.132885E+03	1.910189E-16	7.237597E-18
4.142772E+03	1.912252E-16	7.233725E-18
4.152660E+03	1.914432E-16	7.230274E-18
4.162547E+03	1.916572E-16	7.226656E-18
4.172434E+03	1.919004E-16	7.224117E-18
4.182322E+03	1.921568E-16	7.222055E-18
4.192209E+03	1.924104E-16	7.219870E-18
4.202096E+03	1.926941E-16	7.218790E-18
4.211983E+03	1.929755E-16	7.217603E-18
4.221871E+03	1.932868E-16	7.217514E-18
4.231758E+03	1.935958E-16	7.217312E-18
4.241645E+03	1.939181E-16	7.217585E-18
4.251533E+03	1.942694E-16	7.218916E-18
4.261420E+03	1.946171E-16	7.220086E-18
4.271307E+03	1.949764E-16	7.221667E-18
4.281194E+03	1.953306E-16	7.223032E-18
4.291082E+03	1.957106E-16	7.225329E-18
4.300969E+03	1.960992E-16	7.227919E-18
4.310856E+03	1.964793E-16	7.230175E-18
4.320744E+03	1.968813E-16	7.233213E-18
4.330631E+03	1.972719E-16	7.235814E-18
4.340518E+03	1.976666E-16	7.238545E-18
4.350405E+03	1.980663E-16	7.241438E-18
4.360293E+03	1.984717E-16	7.244522E-18
4.370180E+03	1.988682E-16	7.247263E-18
4.380067E+03	1.992879E-16	7.250830E-18
4.389955E+03	1.997000E-16	7.254105E-18
4.399842E+03	2.001206E-16	7.257670E-18
4.409729E+03	2.005497E-16	7.261526E-18
4.419616E+03	2.009874E-16	7.265677E-18
4.429504E+03	2.014177E-16	7.269540E-18
4.439391E+03	2.018554E-16	7.273659E-18
4.449278E+03	2.023000E-16	7.278006E-18
4.459166E+03	2.027503E-16	7.282545E-18
4.469053E+03	2.032047E-16	7.287217E-18
4.478940E+03	2.036464E-16	7.291419E-18
4.488827E+03	2.041045E-16	7.296198E-18
4.498715E+03	2.045306E-16	7.299819E-18
4.508602E+03	2.049691E-16	7.303874E-18
4.518489E+03	2.054020E-16	7.307724E-18
4.528377E+03	2.058118E-16	7.310744E-18
4.538264E+03	2.062113E-16	7.313399E-18
4.548151E+03	2.065984E-16	7.315614E-18
4.558038E+03	2.069551E-16	7.316754E-18
4.567926E+03	2.072945E-16	7.317291E-18
4.577813E+03	2.076145E-16	7.317154E-18
4.587700E+03	2.079128E-16	7.316265E-18
4.597588E+03	2.081719E-16	7.314015E-18
4.607475E+03	2.084052E-16	7.310883E-18
4.617362E+03	2.086108E-16	7.306807E-18
4.627249E+03	2.087869E-16	7.301729E-18
4.637137E+03	2.089163E-16	7.295053E-18
4.647024E+03	2.090124E-16	7.287258E-18
4.656911E+03	2.090582E-16	7.277759E-18
4.666798E+03	2.090822E-16	7.267548E-18
4.676686E+03	2.090521E-16	7.255517E-18
4.686573E+03	2.089810E-16	7.242127E-18
4.696460E+03	2.088521E-16	7.226805E-18
4.706348E+03	2.086810E-16	7.210095E-18
4.716235E+03	2.084712E-16	7.192123E-18
4.726122E+03	2.082128E-16	7.172558E-18
4.736009E+03	2.079259E-16	7.152094E-18
4.745897E+03	2.076152E-16	7.130901E-18
4.755784E+03	2.072854E-16	7.109140E-18
4.765671E+03	2.069261E-16	7.086458E-18
4.775559E+03	2.065414E-16	7.062998E-18
4.785446E+03	2.061639E-16	7.039877E-18
4.795333E+03	2.057678E-16	7.016214E-18
4.805220E+03	2.053703E-16	6.992600E-18
4.815108E+03	2.049596E-16	6.968628E-18
4.824995E+03	2.045523E-16	6.944865E-18
4.834882E+03	2.041501E-16	6.921370E-18
4.844770E+03	2.037401E-16	6.897704E-18
4.854657E+03	2.033522E-16	6.874876E-18
4.864544E+03	2.029447E-16	6.851480E-18
4.874431E+03	2.025605E-16	6.828960E-18
4.884319E+03	2.021721E-16	6.806386E-18
4.894206E+03	2.017796E-16	6.783765E-18
4.904093E+03	2.013971E-16	6.761571E-18
4.913981E+03	2.010242E-16	6.739784E-18
4.923868E+03	2.006605E-16	6.718393E-18
4.933755E+03	2.002916E-16	6.696916E-18
4.943642E+03	1.999307E-16	6.675790E-18
4.953530E+03	1.995767E-16	6.654981E-18
4.963417E+03	1.992152E-16	6.634005E-18
4.973304E+03	1.988452E-16	6.612833E-18
4.983192E+03	1.984924E-16	6.592320E-18
4.993079E+03	1.981289E-16	6.571534E-18
5.002966E+03	1.977668E-16	6.550881E-18
5.012853E+03	1.973913E-16	6.529867E-18
5.022741E+03	1.970145E-16	6.508898E-18
5.032628E+03	1.966351E-16	6.487927E-18
5.042515E+03	1.962381E-16	6.466464E-18
5.052403E+03	1.958354E-16	6.444902E-18
5.062290E+03	1.954120E-16	6.422747E-18
5.072177E+03	1.949927E-16	6.400813E-18
5.082064E+03	1.945360E-16	6.377745E-18
5.091952E+03	1.940792E-16	6.354767E-18
5.101839E+03	1.935941E-16	6.330958E-18
5.111726E+03	1.930916E-16	6.306673E-18
5.121614E+03	1.925564E-16	6.281417E-18
5.131501E+03	1.919988E-16	6.255532E-18
5.141388E+03	1.914163E-16	6.228937E-18
5.151275E+03	1.907937E-16	6.201139E-18
5.161163E+03	1.901410E-16	6.172472E-18
5.171050E+03	1.894556E-16	6.142853E-18
5.180937E+03	1.887226E-16	6.111802E-18
5.190825E+03	1.879518E-16	6.079646E-18
5.200712E+03	1.871412E-16	6.046317E-18
5.210599E+03	1.862762E-16	6.011354E-18
5.220486E+03	1.853670E-16	5.975089E-18
5.230374E+03	1.844120E-16	5.937477E-18
5.240261E+03	1.833974E-16	5.898080E-18
5.250148E+03	1.823342E-16	5.857253E-18
5.260036E+03	1.812214E-16	5.814973E-18
5.269923E+03	1.800464E-16	5.770836E-18
5.279810E+03	1.788209E-16	5.725226E-18
5.289697E+03	1.775331E-16	5.677765E-18
5.299585E+03	1.762069E-16	5.629224E-18
5.309472E+03	1.748198E-16	5.578887E-18
5.319359E+03	1.733727E-16	5.526785E-18
5.329247E+03	1.718886E-16	5.473659E-18
5.339134E+03	1.703457E-16	5.418812E-18
5.349021E+03	1.687448E-16	5.362277E-18
5.358908E+03	1.671093E-16	5.304803E-18
5.368796E+03	1.654187E-16	5.245738E-18
5.378683E+03	1.636755E-16	5.185164E-18
5.388570E+03	1.619033E-16	5.123831E-18
5.398458E+03	1.600835E-16	5.061157E-18
5.408345E+03	1.582298E-16	4.997572E-18
5.418232E+03	1.563353E-16	4.932861E-18
5.428119E+03	1.544136E-16	4.867458E-18
5.438007E+03	1.524689E-16	4.801489E-18
5.447894E+03	1.505049E-16	4.735078E-18
5.457781E+03	1.485162E-16	4.668049E-18
5.467669E+03	1.465171E-16	4.600856E-18
5.477556E+03	1.445120E-16	4.533633E-18
5.487443E+03	1.424964E-16	4.466241E-18
5.497330E+03	1.404843E-16	4.399115E-18
5.507218E+03	1.384806E-16	4.332406E-18
5.517105E+03	1.364899E-16	4.266257E-18
5.526992E+03	1.345081E-16	4.200538E-18
5.536880E+03	1.325490E-16	4.135675E-18
5.546767E+03	1.306170E-16	4.071800E-18
5.556654E+03	1.287164E-16	4.009047E-18
5.566541E+03	1.268434E-16	3.947293E-18
5.576429E+03	1.250103E-16	3.886913E-18
5.586316E+03	1.232130E-16	3.827780E-18
5.596203E+03	1.214711E-16	3.770497E-18
5.606091E+03	1.197720E-16	3.714665E-18
5.615978E+03	1.181269E-16	3.660625E-18
5.625865E+03	1.165382E-16	3.608452E-18
5.635752E+03	1.150010E-16	3.557985E-18
5.645640E+03	1.135323E-16	3.509746E-18
5.655527E+03	1.121192E-16	3.463328E-18
5.665414E+03	1.107632E-16	3.418774E-18
5.675302E+03	1.094799E-16	3.376560E-18
5.685189E+03	1.082557E-16	3.336264E-18
5.695076E+03	1.070985E-16	3.298118E-18
5.704963E+03	1.060083E-16	3.262120E-18
5.714851E+03	1.049850E-16	3.228261E-18
5.724738E+03	1.040218E-16	3.196327E-18
5.734625E+03	1.031250E-16	3.166506E-18
5.744513E+03	1.022939E-16	3.138774E-18
5.754400E+03	1.015277E-16	3.113102E-18
5.764287E+03	1.008194E-16	3.089268E-18
5.774174E+03	1.001809E-16	3.067634E-18
5.784062E+03	9.959858E-17	3.047776E-18
5.793949E+03	9.907803E-17	3.029865E-18
5.803836E+03	9.861219E-17	3.013681E-18
5.813724E+03	9.821315E-17	2.999589E-18
5.823611E+03	9.786773E-17	2.987183E-18
5.833498E+03	9.758189E-17	2.976642E-18
5.843385E+03	9.735544E-17	2.967957E-18
5.853273E+03	9.718838E-17	2.961124E-18
5.863160E+03	9.707462E-17	2.955957E-18
5.873047E+03	9.702708E-17	2.952844E-18
5.882935E+03	9.703386E-17	2.951423E-18
5.892822E+03	9.710204E-17	2.951904E-18
5.902709E+03	9.723267E-17	2.954319E-18
5.912596E+03	9.742704E-17	2.958703E-18
5.922484E+03	9.768037E-17	2.964911E-18
5.932371E+03	9.800066E-17	2.973182E-18
5.942258E+03	9.839622E-17	2.983766E-18
5.952146E+03	9.885657E-17	2.996344E-18
5.962033E+03	9.939042E-17	3.011179E-18
5.971920E+03	9.999396E-17	3.028152E-18
5.981807E+03	1.006828E-16	3.047735E-18
5.991695E+03	1.014467E-16	3.069620E-18
6.001582E+03	1.023022E-16	3.094299E-18
6.011469E+03	1.032389E-16	3.121463E-18
6.021357E+03	1.042666E-16	3.151405E-18
6.031244E+03	1.053884E-16	3.184215E-18
6.041131E+03	1.066004E-16	3.219779E-18
6.051018E+03	1.079189E-16	3.258588E-18
6.060906E+03	1.093327E-16	3.300304E-18
6.070793E+03	1.108578E-16	3.345407E-18
6.080680E+03	1.124815E-16	3.393517E-18
6.090568E+03	1.142115E-16	3.444868E-18
6.100455E+03	1.160481E-16	3.499467E-18
6.110342E+03	1.179901E-16	3.557284E-18
6.120229E+03	1.200355E-16	3.618259E-18
6.130117E+03	1.221732E-16	3.682056E-18
6.140004E+03	1.244140E-16	3.749009E-18
6.149891E+03	1.267356E-16	3.818449E-18
6.159779E+03	1.291464E-16	3.890629E-18
6.169666E+03	1.316198E-16	3.964755E-18
6.179553E+03	1.341509E-16	4.040683E-18
6.189440E+03	1.367236E-16	4.117931E-18
6.199328E+03	1.393196E-16	4.195955E-18
6.209215E+03	1.419188E-16	4.274147E-18
6.219102E+03	1.444902E-16	4.351578E-18
6.228990E+03	1.470297E-16	4.428131E-18
6.238877E+03	1.494947E-16	4.502522E-18
6.248764E+03	1.518809E-16	4.574628E-18
6.258651E+03	1.541450E-16	4.643145E-18
6.268539E+03	1.562839E-16	4.707978E-18
6.278426E+03	1.582556E-16	4.767869E-18
6.288313E+03	1.600500E-16	4.822513E-18
6.298201E+03	1.616491E-16	4.871362E-18
6.308088E+03	1.630372E-16	4.913946E-18
6.317975E+03	1.642014E-16	4.949875E-18
6.327862E+03	1.651317E-16	4.978841E-18
6.337750E+03	1.658101E-16	5.000299E-18
6.347637E+03	1.662543E-16	5.014780E-18
6.357524E+03	1.664524E-16	5.021917E-18
6.367412E+03	1.663953E-16	5.021432E-18
6.377299E+03	1.661092E-16	5.014107E-18
6.387186E+03	1.655791E-16	4.999484E-18
6.397073E+03	1.648249E-16	4.978155E-18
6.406961E+03	1.638680E-16	4.950760E-18
6.416848E+03	1.626988E-16	4.917000E-18
6.426735E+03	1.613418E-16	4.877609E-18
6.436623E+03	1.598113E-16	4.833006E-18
6.446510E+03	1.581323E-16	4.783947E-18
6.456397E+03	1.562993E-16	4.730251E-18
6.466284E+03	1.543384E-16	4.672704E-18
6.476172E+03	1.522651E-16	4.611764E-18
6.486059E+03	1.500846E-16	4.547587E-18
6.495946E+03	1.478321E-16	4.481228E-18
6.505833E+03	1.455122E-16	4.412824E-18
6.515721E+03	1.431390E-16	4.342794E-18
6.525608E+03	1.407261E-16	4.271547E-18
6.535495E+03	1.382775E-16	4.199200E-18
6.545383E+03	1.358239E-16	4.126681E-18
6.555270E+03	1.333678E-16	4.054060E-18
6.565157E+03	1.309115E-16	3.981404E-18
6.575044E+03	1.284826E-16	3.909555E-18
6.584932E+03	1.260735E-16	3.838275E-18
6.594819E+03	1.237100E-16	3.768349E-18
6.604706E+03	1.213834E-16	3.699514E-18
6.614594E+03	1.191176E-16	3.632490E-18
6.624481E+03	1.169030E-16	3.566997E-18
6.634368E+03	1.147541E-16	3.503465E-18
6.644255E+03	1.126834E-16	3.442288E-18
6.654143E+03	1.106809E-16	3.383154E-18
6.664030E+03	1.087583E-16	3.326429E-18
6.673917E+03	1.069194E-16	3.272226E-18
6.683805E+03	1.051746E-16	3.220868E-18
6.693692E+03	1.035124E-16	3.172009E-18
6.703579E+03	1.019425E-16	3.125945E-18
6.713466E+03	1.004670E-16	3.082750E-18
6.723354E+03	9.908782E-17	3.042483E-18
6.733241E+03	9.780639E-17	3.005194E-18
6.743128E+03	9.662410E-17	2.970931E-18
6.753016E+03	9.554211E-17	2.939733E-18
6.762903E+03	9.456143E-17	2.911639E-18
6.772790E+03	9.368292E-17	2.886679E-18
6.782677E+03	9.290737E-17	2.864885E-18
6.792565E+03	9.223546E-17	2.846284E-18
6.802452E+03	9.166784E-17	2.830902E-18
6.812339E+03	9.120509E-17	2.818764E-18
6.822227E+03	9.084162E-17	2.809705E-18
6.832114E+03	9.059026E-17	2.804128E-18
6.842001E+03	9.044536E-17	2.801866E-18
6.851888E+03	9.040738E-17	2.802941E-18
6.861776E+03	9.047066E-17	2.807187E-18
6.871663E+03	9.064785E-17	2.815003E-18
6.881550E+03	9.093320E-17	2.826220E-18
6.891438E+03	9.132080E-17	2.840663E-18
6.901325E+03	9.182321E-17	2.858731E-18
6.911212E+03	9.242802E-17	2.880049E-18
6.921099E+03	9.314768E-17	2.905012E-18
6.930987E+03	9.396921E-17	2.933227E-18
6.940874E+03	9.490481E-17	2.965085E-18
6.950761E+03	9.594067E-17	3.000163E-18
6.960649E+03	9.708196E-17	3.038635E-18
6.970536E+03	9.833367E-17	3.080666E-18
6.980423E+03	9.968022E-17	3.125780E-18
6.990310E+03	1.011255E-16	3.174108E-18
7.000198E+03	1.026658E-16	3.225548E-18
7.010085E+03	1.042972E-16	3.279982E-18
7.019972E+03	1.060217E-16	3.337486E-18
7.029860E+03	1.078190E-16	3.397431E-18
7.039747E+03	1.096893E-16	3.459832E-18
7.049634E+03	1.116244E-16	3.524444E-18
7.059521E+03	1.136151E-16	3.590981E-18
7.069409E+03	1.156433E-16	3.658877E-18
7.079296E+03	1.177128E-16	3.728265E-18
7.089183E+03	1.198032E-16	3.798498E-18
7.099071E+03	1.219001E-16	3.869132E-18
7.108958E+03	1.239798E-16	3.939412E-18
7.118845E+03	1.260427E-16	4.009354E-18
7.128732E+03	1.280629E-16	4.078136E-18
7.138620E+03	1.300133E-16	4.144891E-18
7.148507E+03	1.318930E-16	4.209587E-18
7.158394E+03	1.336646E-16	4.271024E-18
7.168282E+03	1.353181E-16	4.328872E-18
7.178169E+03	1.368348E-16	4.382528E-18
7.188056E+03	1.382066E-16	4.431710E-18
7.197943E+03	1.393975E-16	4.475256E-18
7.207831E+03	1.404021E-16	4.512974E-18
7.217718E+03	1.412073E-16	4.544419E-18
7.227605E+03	1.418023E-16	4.569223E-18
7.237493E+03	1.421691E-16	4.586784E-18
7.247380E+03	1.423222E-16	4.597540E-18
7.257267E+03	1.422492E-16	4.601068E-18
7.267154E+03	1.419509E-16	4.597369E-18
7.277042E+03	1.414210E-16	4.586203E-18
7.286929E+03	1.406757E-16	4.568074E-18
7.296816E+03	1.397340E-16	4.543572E-18
7.306704E+03	1.385877E-16	4.512397E-18
7.316591E+03	1.372602E-16	4.475287E-18
7.326478E+03	1.357667E-16	4.432717E-18
7.336365E+03	1.341239E-16	4.385206E-18
7.346253E+03	1.323496E-16	4.333311E-18
7.356140E+03	1.304621E-16	4.277619E-18
7.366027E+03	1.284805E-16	4.218732E-18
7.375915E+03	1.264144E-16	4.156954E-18
7.385802E+03	1.243007E-16	4.093484E-18
7.395689E+03	1.221397E-16	4.028321E-18
7.405576E+03	1.199664E-16	3.962608E-18
7.415464E+03	1.177802E-16	3.896321E-18
7.425351E+03	1.156054E-16	3.830258E-18
7.435238E+03	1.134562E-16	3.764885E-18
7.445126E+03	1.113457E-16	3.700638E-18
7.455013E+03	1.092770E-16	3.637622E-18
7.464900E+03	1.072733E-16	3.576614E-18
7.474787E+03	1.053318E-16	3.517523E-18
7.484675E+03	1.034488E-16	3.460231E-18
7.494562E+03	1.016349E-16	3.405102E-18
7.504449E+03	9.989942E-17	3.352455E-18
7.514337E+03	9.822936E-17	3.301862E-18
7.524224E+03	9.663282E-17	3.253604E-18
7.534111E+03	9.510312E-17	3.207464E-18
7.543998E+03	9.365369E-17	3.163905E-18
7.553886E+03	9.227674E-17	3.122673E-18
7.563773E+03	9.096444E-17	3.083513E-18
7.573660E+03	8.972831E-17	3.046826E-18
7.583548E+03	8.855329E-17	3.012108E-18
7.593435E+03	8.744363E-17	2.979514E-18
7.603322E+03	8.639672E-17	2.948965E-18
7.613209E+03	8.540979E-17	2.920374E-18
7.623097E+03	8.447377E-17	2.893439E-18
7.632984E+03	8.359786E-17	2.868484E-18
7.642871E+03	8.276670E-17	2.844989E-18
7.652759E+03	8.198320E-17	2.823063E-18
7.662646E+03	8.125005E-17	2.802804E-18
7.672533E+03	8.054628E-17	2.783495E-18
