#wls	flux	fluxerr
1.581966E+03	6.980886E-17	2.580738E-18
1.621515E+03	7.162980E-17	2.647895E-18
1.661064E+03	7.340954E-17	2.713517E-18
1.700613E+03	7.516648E-17	2.778283E-18
1.740162E+03	7.686706E-17	2.840954E-18
1.779711E+03	7.849314E-17	2.900859E-18
1.819260E+03	8.004529E-17	2.958018E-18
1.858810E+03	8.146380E-17	3.010227E-18
1.898359E+03	8.273869E-17	3.057116E-18
1.937908E+03	8.380474E-17	3.096278E-18
1.977457E+03	8.465376E-17	3.127410E-18
2.017006E+03	8.532112E-17	3.151821E-18
2.056555E+03	8.587974E-17	3.172206E-18
2.096104E+03	8.654734E-17	3.196607E-18
2.135654E+03	8.759970E-17	3.235208E-18
2.175203E+03	8.922320E-17	3.294888E-18
2.214752E+03	9.143359E-17	3.376222E-18
2.254301E+03	9.412356E-17	3.475243E-18
2.293850E+03	9.708599E-17	3.584297E-18
2.333399E+03	1.001053E-16	3.695425E-18
2.372948E+03	1.030923E-16	3.805332E-18
2.412498E+03	1.059849E-16	3.911724E-18
2.452047E+03	1.087247E-16	4.012450E-18
2.491596E+03	1.113602E-16	4.109299E-18
2.531145E+03	1.138454E-16	4.200573E-18
2.570694E+03	1.162252E-16	4.287928E-18
2.610243E+03	1.185095E-16	4.371734E-18
2.649792E+03	1.207074E-16	4.452326E-18
2.689342E+03	1.227882E-16	4.528574E-18
2.728891E+03	1.248140E-16	4.602764E-18
2.768440E+03	1.267511E-16	4.673654E-18
2.807989E+03	1.286216E-16	4.742065E-18
2.847538E+03	1.304280E-16	4.808081E-18
2.887087E+03	1.321520E-16	4.871039E-18
2.926636E+03	1.338143E-16	4.931692E-18
2.966185E+03	1.354153E-16	4.990062E-18
2.976073E+03	1.358147E-16	5.004617E-18
2.985960E+03	1.362078E-16	5.018939E-18
2.995847E+03	1.365747E-16	5.032298E-18
3.005735E+03	1.369553E-16	5.046154E-18
3.015622E+03	1.373295E-16	5.059776E-18
3.025509E+03	1.376973E-16	5.073162E-18
3.035396E+03	1.380599E-16	5.086351E-18
3.045284E+03	1.384357E-16	5.100027E-18
3.055171E+03	1.387902E-16	5.112916E-18
3.065058E+03	1.391623E-16	5.126455E-18
3.074946E+03	1.395119E-16	5.139158E-18
3.084833E+03	1.398778E-16	5.152465E-18
3.094720E+03	1.402397E-16	5.165621E-18
3.104607E+03	1.405974E-16	5.178618E-18
3.114495E+03	1.409501E-16	5.191431E-18
3.124382E+03	1.412975E-16	5.204049E-18
3.134269E+03	1.416592E-16	5.217192E-18
3.144157E+03	1.419951E-16	5.229382E-18
3.154044E+03	1.423447E-16	5.242073E-18
3.163931E+03	1.426680E-16	5.253796E-18
3.173818E+03	1.430044E-16	5.266001E-18
3.183706E+03	1.433341E-16	5.277954E-18
3.193593E+03	1.436567E-16	5.289646E-18
3.203480E+03	1.439720E-16	5.301069E-18
3.213368E+03	1.442801E-16	5.312225E-18
3.223255E+03	1.445808E-16	5.323104E-18
3.233142E+03	1.448938E-16	5.334437E-18
3.243029E+03	1.451794E-16	5.344761E-18
3.252917E+03	1.454774E-16	5.355536E-18
3.262804E+03	1.457676E-16	5.366026E-18
3.272691E+03	1.460502E-16	5.376231E-18
3.282579E+03	1.463251E-16	5.386154E-18
3.292466E+03	1.465923E-16	5.395790E-18
3.302353E+03	1.468518E-16	5.405145E-18
3.312240E+03	1.471037E-16	5.414218E-18
3.322128E+03	1.473678E-16	5.423737E-18
3.332015E+03	1.476046E-16	5.432249E-18
3.341902E+03	1.478537E-16	5.441211E-18
3.351790E+03	1.480755E-16	5.449168E-18
3.361677E+03	1.483097E-16	5.457582E-18
3.371564E+03	1.485365E-16	5.465722E-18
3.381451E+03	1.487562E-16	5.473598E-18
3.391339E+03	1.489687E-16	5.481208E-18
3.401226E+03	1.491937E-16	5.489277E-18
3.411113E+03	1.493921E-16	5.496369E-18
3.421001E+03	1.495838E-16	5.503207E-18
3.430888E+03	1.497882E-16	5.510515E-18
3.440775E+03	1.499664E-16	5.516858E-18
3.450662E+03	1.501577E-16	5.523679E-18
3.460550E+03	1.503425E-16	5.530263E-18
3.470437E+03	1.505210E-16	5.536612E-18
3.480324E+03	1.506934E-16	5.542736E-18
3.490212E+03	1.508597E-16	5.548633E-18
3.500099E+03	1.510201E-16	5.554315E-18
3.509986E+03	1.511749E-16	5.559789E-18
3.519873E+03	1.513434E-16	5.565763E-18
3.529761E+03	1.514871E-16	5.570825E-18
3.539648E+03	1.516448E-16	5.576402E-18
3.549535E+03	1.517781E-16	5.581080E-18
3.559423E+03	1.519257E-16	5.586282E-18
3.569310E+03	1.520686E-16	5.591310E-18
3.579197E+03	1.522067E-16	5.596163E-18
3.589084E+03	1.523405E-16	5.600853E-18
3.598972E+03	1.524699E-16	5.605385E-18
3.608859E+03	1.525955E-16	5.609770E-18
3.618746E+03	1.527171E-16	5.614010E-18
3.628634E+03	1.528350E-16	5.618117E-18
3.638521E+03	1.529496E-16	5.622095E-18
3.648408E+03	1.530798E-16	5.626649E-18
3.658295E+03	1.531881E-16	5.630397E-18
3.668183E+03	1.533126E-16	5.634738E-18
3.678070E+03	1.534155E-16	5.638288E-18
3.687957E+03	1.535351E-16	5.642446E-18
3.697845E+03	1.536525E-16	5.646522E-18
3.707732E+03	1.537680E-16	5.650532E-18
3.717619E+03	1.538634E-16	5.653799E-18
3.727506E+03	1.539760E-16	5.657698E-18
3.737394E+03	1.540877E-16	5.661562E-18
3.747281E+03	1.541985E-16	5.665394E-18
3.757168E+03	1.543088E-16	5.669205E-18
3.767056E+03	1.544190E-16	5.673012E-18
3.776943E+03	1.545476E-16	5.677495E-18
3.786830E+03	1.546582E-16	5.681313E-18
3.796717E+03	1.547694E-16	5.685154E-18
3.806605E+03	1.548817E-16	5.689035E-18
3.816492E+03	1.550135E-16	5.693629E-18
3.826379E+03	1.551286E-16	5.697612E-18
3.836267E+03	1.552638E-16	5.702333E-18
3.846154E+03	1.553831E-16	5.706466E-18
3.856041E+03	1.555232E-16	5.711361E-18
3.865928E+03	1.556480E-16	5.715696E-18
3.875816E+03	1.557941E-16	5.720810E-18
3.885703E+03	1.559257E-16	5.725394E-18
3.895590E+03	1.560793E-16	5.730782E-18
3.905478E+03	1.562371E-16	5.736323E-18
3.915365E+03	1.563814E-16	5.741371E-18
3.925252E+03	1.565487E-16	5.747261E-18
3.935139E+03	1.567212E-16	5.753338E-18
3.945027E+03	1.568813E-16	5.758962E-18
3.954914E+03	1.570653E-16	5.765461E-18
3.964801E+03	1.572554E-16	5.772182E-18
3.974689E+03	1.574342E-16	5.778490E-18
3.984576E+03	1.576377E-16	5.785700E-18
3.994463E+03	1.578481E-16	5.793166E-18
4.004350E+03	1.580659E-16	5.800900E-18
4.014238E+03	1.582735E-16	5.808260E-18
4.024125E+03	1.585066E-16	5.816555E-18
4.034012E+03	1.587477E-16	5.825141E-18
4.043900E+03	1.589970E-16	5.834026E-18
4.053787E+03	1.592369E-16	5.842567E-18
4.063674E+03	1.595028E-16	5.852059E-18
4.073561E+03	1.597772E-16	5.861863E-18
4.083449E+03	1.600426E-16	5.871336E-18
4.093336E+03	1.603341E-16	5.881764E-18
4.103223E+03	1.606341E-16	5.892501E-18
4.113111E+03	1.609250E-16	5.902905E-18
4.122998E+03	1.612418E-16	5.914258E-18
4.132885E+03	1.615492E-16	5.925269E-18
4.142772E+03	1.618823E-16	5.937214E-18
4.152660E+03	1.622056E-16	5.948803E-18
4.162547E+03	1.625539E-16	5.961307E-18
4.172434E+03	1.628920E-16	5.973433E-18
4.182322E+03	1.632368E-16	5.985806E-18
4.192209E+03	1.636057E-16	5.999060E-18
4.202096E+03	1.639631E-16	6.011891E-18
4.211983E+03	1.643262E-16	6.024931E-18
4.221871E+03	1.646943E-16	6.038153E-18
4.231758E+03	1.650671E-16	6.051545E-18
4.241645E+03	1.654440E-16	6.065088E-18
4.251533E+03	1.658246E-16	6.078764E-18
4.261420E+03	1.662083E-16	6.092549E-18
4.271307E+03	1.665945E-16	6.106430E-18
4.281194E+03	1.669828E-16	6.120385E-18
4.291082E+03	1.673554E-16	6.133760E-18
4.300969E+03	1.677465E-16	6.147815E-18
4.310856E+03	1.681384E-16	6.161897E-18
4.320744E+03	1.685131E-16	6.175349E-18
4.330631E+03	1.688878E-16	6.188799E-18
4.340518E+03	1.692797E-16	6.202874E-18
4.350405E+03	1.696535E-16	6.216291E-18
4.360293E+03	1.700264E-16	6.229670E-18
4.370180E+03	1.703982E-16	6.243010E-18
4.380067E+03	1.707688E-16	6.256302E-18
4.389955E+03	1.711379E-16	6.269542E-18
4.399842E+03	1.715054E-16	6.282718E-18
4.409729E+03	1.718711E-16	6.295830E-18
4.419616E+03	1.722173E-16	6.308227E-18
4.429504E+03	1.725788E-16	6.321183E-18
4.439391E+03	1.729206E-16	6.333415E-18
4.449278E+03	1.732598E-16	6.345551E-18
4.459166E+03	1.735961E-16	6.357582E-18
4.469053E+03	1.739469E-16	6.370144E-18
4.478940E+03	1.742593E-16	6.381297E-18
4.488827E+03	1.745855E-16	6.392955E-18
4.498715E+03	1.749076E-16	6.404460E-18
4.508602E+03	1.752252E-16	6.415803E-18
4.518489E+03	1.755203E-16	6.426322E-18
4.528377E+03	1.758102E-16	6.436647E-18
4.538264E+03	1.761116E-16	6.447397E-18
4.548151E+03	1.763893E-16	6.457276E-18
4.558038E+03	1.766602E-16	6.466905E-18
4.567926E+03	1.769239E-16	6.476270E-18
4.577813E+03	1.771624E-16	6.484713E-18
4.587700E+03	1.774101E-16	6.493493E-18
4.597588E+03	1.776492E-16	6.501960E-18
4.607475E+03	1.778618E-16	6.509454E-18
4.617362E+03	1.780649E-16	6.516603E-18
4.627249E+03	1.782581E-16	6.523387E-18
4.637137E+03	1.784411E-16	6.529801E-18
4.647024E+03	1.786136E-16	6.535828E-18
4.656911E+03	1.787579E-16	6.540825E-18
4.666798E+03	1.789084E-16	6.546048E-18
4.676686E+03	1.790302E-16	6.550225E-18
4.686573E+03	1.791580E-16	6.554618E-18
4.696460E+03	1.792567E-16	6.557949E-18
4.706348E+03	1.793437E-16	6.560853E-18
4.716235E+03	1.794017E-16	6.562693E-18
4.726122E+03	1.794649E-16	6.564726E-18
4.736009E+03	1.794989E-16	6.565694E-18
4.745897E+03	1.795379E-16	6.566844E-18
4.755784E+03	1.795476E-16	6.566924E-18
4.765671E+03	1.795453E-16	6.566562E-18
4.775559E+03	1.795305E-16	6.565749E-18
4.785446E+03	1.794865E-16	6.563865E-18
4.795333E+03	1.794471E-16	6.562152E-18
4.805220E+03	1.793781E-16	6.559361E-18
4.815108E+03	1.792966E-16	6.556108E-18
4.824995E+03	1.792191E-16	6.553008E-18
4.834882E+03	1.790947E-16	6.548193E-18
4.844770E+03	1.789739E-16	6.543508E-18
4.854657E+03	1.788394E-16	6.538325E-18
4.864544E+03	1.786741E-16	6.532019E-18
4.874431E+03	1.784943E-16	6.525182E-18
4.884319E+03	1.782995E-16	6.517801E-18
4.894206E+03	1.780894E-16	6.509857E-18
4.904093E+03	1.778631E-16	6.501327E-18
4.913981E+03	1.776199E-16	6.492181E-18
4.923868E+03	1.773429E-16	6.481800E-18
4.933755E+03	1.770476E-16	6.470754E-18
4.943642E+03	1.767500E-16	6.459621E-18
4.953530E+03	1.763997E-16	6.446569E-18
4.963417E+03	1.760455E-16	6.433373E-18
4.973304E+03	1.756701E-16	6.419406E-18
4.983192E+03	1.752564E-16	6.404041E-18
4.993079E+03	1.748202E-16	6.387858E-18
5.002966E+03	1.743770E-16	6.371419E-18
5.012853E+03	1.738779E-16	6.352941E-18
5.022741E+03	1.733706E-16	6.334168E-18
5.032628E+03	1.728388E-16	6.314498E-18
5.042515E+03	1.722662E-16	6.293343E-18
5.052403E+03	1.716684E-16	6.271269E-18
5.062290E+03	1.710609E-16	6.248846E-18
5.072177E+03	1.703964E-16	6.224341E-18
5.082064E+03	1.697216E-16	6.199461E-18
5.091952E+03	1.690204E-16	6.173623E-18
5.101839E+03	1.682773E-16	6.146256E-18
5.111726E+03	1.675073E-16	6.117909E-18
5.121614E+03	1.667253E-16	6.089130E-18
5.131501E+03	1.658854E-16	6.058235E-18
5.141388E+03	1.650327E-16	6.026881E-18
5.151275E+03	1.641519E-16	5.994502E-18
5.161163E+03	1.632278E-16	5.960545E-18
5.171050E+03	1.622751E-16	5.925548E-18
5.180937E+03	1.613086E-16	5.890048E-18
5.190825E+03	1.602841E-16	5.852435E-18
5.200712E+03	1.592456E-16	5.814317E-18
5.210599E+03	1.581788E-16	5.775169E-18
5.220486E+03	1.570698E-16	5.734484E-18
5.230374E+03	1.559480E-16	5.693333E-18
5.240261E+03	1.547857E-16	5.650709E-18
5.250148E+03	1.535980E-16	5.607165E-18
5.260036E+03	1.523726E-16	5.562246E-18
5.269923E+03	1.511383E-16	5.517006E-18
5.279810E+03	1.498691E-16	5.470495E-18
5.289697E+03	1.485933E-16	5.423750E-18
5.299585E+03	1.472855E-16	5.375841E-18
5.309472E+03	1.459604E-16	5.327303E-18
5.319359E+03	1.446192E-16	5.278185E-18
5.329247E+03	1.432502E-16	5.228053E-18
5.339134E+03	1.418799E-16	5.177882E-18
5.349021E+03	1.404839E-16	5.126774E-18
5.358908E+03	1.390883E-16	5.075687E-18
5.368796E+03	1.376691E-16	5.023739E-18
5.378683E+03	1.362397E-16	4.971428E-18
5.388570E+03	1.347892E-16	4.918351E-18
5.398458E+03	1.333431E-16	4.865434E-18
5.408345E+03	1.318786E-16	4.811854E-18
5.418232E+03	1.304208E-16	4.758522E-18
5.428119E+03	1.289480E-16	4.704649E-18
5.438007E+03	1.274736E-16	4.650720E-18
5.447894E+03	1.259994E-16	4.596800E-18
5.457781E+03	1.245162E-16	4.542559E-18
5.467669E+03	1.230483E-16	4.488881E-18
5.477556E+03	1.215865E-16	4.435426E-18
5.487443E+03	1.201221E-16	4.381882E-18
5.497330E+03	1.186678E-16	4.328713E-18
5.507218E+03	1.172257E-16	4.275989E-18
5.517105E+03	1.157974E-16	4.223774E-18
5.526992E+03	1.143847E-16	4.172132E-18
5.536880E+03	1.129792E-16	4.120757E-18
5.546767E+03	1.116027E-16	4.070443E-18
5.556654E+03	1.102370E-16	4.020525E-18
5.566541E+03	1.088937E-16	3.971428E-18
5.576429E+03	1.075747E-16	3.923221E-18
5.586316E+03	1.062818E-16	3.875971E-18
5.596203E+03	1.050170E-16	3.829750E-18
5.606091E+03	1.037825E-16	3.784633E-18
5.615978E+03	1.025711E-16	3.740365E-18
5.625865E+03	1.014033E-16	3.697688E-18
5.635752E+03	1.002628E-16	3.656012E-18
5.645640E+03	9.916050E-17	3.615729E-18
5.655527E+03	9.809783E-17	3.576895E-18
5.665414E+03	9.707612E-17	3.539557E-18
5.675302E+03	9.609645E-17	3.503755E-18
5.685189E+03	9.515968E-17	3.469520E-18
5.695076E+03	9.425811E-17	3.436570E-18
5.704963E+03	9.340902E-17	3.405536E-18
5.714851E+03	9.259610E-17	3.375823E-18
5.724738E+03	9.183602E-17	3.348039E-18
5.734625E+03	9.111258E-17	3.321593E-18
5.744513E+03	9.043398E-17	3.296784E-18
5.754400E+03	8.980019E-17	3.273610E-18
5.764287E+03	8.920321E-17	3.251779E-18
5.774174E+03	8.865877E-17	3.231866E-18
5.784062E+03	8.815884E-17	3.213577E-18
5.793949E+03	8.769555E-17	3.196626E-18
5.803836E+03	8.727676E-17	3.181298E-18
5.813724E+03	8.691023E-17	3.167876E-18
5.823611E+03	8.658076E-17	3.155807E-18
5.833498E+03	8.629638E-17	3.145383E-18
5.843385E+03	8.605763E-17	3.136623E-18
5.853273E+03	8.586515E-17	3.129551E-18
5.863160E+03	8.571979E-17	3.124197E-18
5.873047E+03	8.561494E-17	3.120321E-18
5.882935E+03	8.556690E-17	3.118517E-18
5.892822E+03	8.556178E-17	3.118278E-18
5.902709E+03	8.561611E-17	3.120207E-18
5.912596E+03	8.571623E-17	3.123805E-18
5.922484E+03	8.587131E-17	3.129408E-18
5.932371E+03	8.608306E-17	3.137076E-18
5.942258E+03	8.635325E-17	3.146875E-18
5.952146E+03	8.668373E-17	3.158872E-18
5.962033E+03	8.707645E-17	3.173138E-18
5.971920E+03	8.753336E-17	3.189743E-18
5.981807E+03	8.804862E-17	3.208476E-18
5.991695E+03	8.863977E-17	3.229974E-18
6.001582E+03	8.930097E-17	3.254026E-18
6.011469E+03	9.002605E-17	3.280406E-18
6.021357E+03	9.082455E-17	3.309462E-18
6.031244E+03	9.170612E-17	3.341545E-18
6.041131E+03	9.265586E-17	3.376113E-18
6.051018E+03	9.368284E-17	3.413496E-18
6.060906E+03	9.478772E-17	3.453718E-18
6.070793E+03	9.597073E-17	3.496787E-18
6.080680E+03	9.723169E-17	3.542697E-18
6.090568E+03	9.856963E-17	3.591412E-18
6.100455E+03	9.997424E-17	3.642557E-18
6.110342E+03	1.014609E-16	3.696693E-18
6.120229E+03	1.030177E-16	3.753382E-18
6.130117E+03	1.046312E-16	3.812139E-18
6.140004E+03	1.063149E-16	3.873456E-18
6.149891E+03	1.080438E-16	3.936422E-18
6.159779E+03	1.098200E-16	4.001108E-18
6.169666E+03	1.116448E-16	4.067566E-18
6.179553E+03	1.134888E-16	4.134729E-18
6.189440E+03	1.153509E-16	4.202547E-18
6.199328E+03	1.172187E-16	4.270578E-18
6.209215E+03	1.190791E-16	4.338339E-18
6.219102E+03	1.209175E-16	4.405301E-18
6.228990E+03	1.227186E-16	4.470903E-18
6.238877E+03	1.244663E-16	4.534563E-18
6.248764E+03	1.261441E-16	4.595677E-18
6.258651E+03	1.277240E-16	4.653227E-18
6.268539E+03	1.292121E-16	4.707435E-18
6.278426E+03	1.305815E-16	4.757318E-18
6.288313E+03	1.318054E-16	4.801902E-18
6.298201E+03	1.328936E-16	4.841548E-18
6.308088E+03	1.338108E-16	4.874961E-18
6.317975E+03	1.345703E-16	4.902634E-18
6.327862E+03	1.351405E-16	4.923411E-18
6.337750E+03	1.355272E-16	4.937504E-18
6.347637E+03	1.357390E-16	4.945228E-18
6.357524E+03	1.357504E-16	4.945651E-18
6.367412E+03	1.355741E-16	4.939240E-18
6.377299E+03	1.352131E-16	4.926101E-18
6.387186E+03	1.346720E-16	4.906406E-18
6.397073E+03	1.339575E-16	4.880389E-18
6.406961E+03	1.330772E-16	4.848338E-18
6.416848E+03	1.320406E-16	4.810589E-18
6.426735E+03	1.308576E-16	4.767511E-18
6.436623E+03	1.295394E-16	4.719508E-18
6.446510E+03	1.280975E-16	4.667000E-18
6.456397E+03	1.265440E-16	4.610427E-18
6.466284E+03	1.248799E-16	4.549826E-18
6.476172E+03	1.231402E-16	4.486468E-18
6.486059E+03	1.213255E-16	4.420383E-18
6.495946E+03	1.194374E-16	4.351620E-18
6.505833E+03	1.175092E-16	4.281399E-18
6.515721E+03	1.155312E-16	4.209365E-18
6.525608E+03	1.135354E-16	4.136681E-18
6.535495E+03	1.115118E-16	4.062983E-18
6.545383E+03	1.094908E-16	3.989381E-18
6.555270E+03	1.074621E-16	3.915499E-18
6.565157E+03	1.054545E-16	3.842387E-18
6.575044E+03	1.034572E-16	3.769649E-18
6.584932E+03	1.014878E-16	3.697927E-18
6.594819E+03	9.955368E-17	3.627489E-18
6.604706E+03	9.767025E-17	3.558899E-18
6.614594E+03	9.582580E-17	3.491729E-18
6.624481E+03	9.403476E-17	3.426505E-18
6.634368E+03	9.230197E-17	3.363403E-18
6.644255E+03	9.063170E-17	3.302578E-18
6.654143E+03	8.902767E-17	3.244168E-18
6.664030E+03	8.749310E-17	3.188288E-18
6.673917E+03	8.603073E-17	3.135038E-18
6.683805E+03	8.464287E-17	3.084504E-18
6.693692E+03	8.333151E-17	3.036756E-18
6.703579E+03	8.209828E-17	2.991856E-18
6.713466E+03	8.094458E-17	2.949853E-18
6.723354E+03	7.987161E-17	2.910793E-18
6.733241E+03	7.887322E-17	2.874450E-18
6.743128E+03	7.796475E-17	2.841384E-18
6.753016E+03	7.713978E-17	2.811361E-18
6.762903E+03	7.639208E-17	2.784154E-18
6.772790E+03	7.573633E-17	2.760298E-18
6.782677E+03	7.516615E-17	2.739562E-18
6.792565E+03	7.467536E-17	2.721719E-18
6.802452E+03	7.427818E-17	2.707288E-18
6.812339E+03	7.396160E-17	2.695794E-18
6.822227E+03	7.373965E-17	2.687751E-18
6.832114E+03	7.359942E-17	2.682687E-18
6.842001E+03	7.355486E-17	2.681111E-18
6.851888E+03	7.359308E-17	2.682553E-18
6.861776E+03	7.372806E-17	2.687522E-18
6.871663E+03	7.394686E-17	2.695548E-18
6.881550E+03	7.425668E-17	2.706894E-18
6.891438E+03	7.465797E-17	2.721575E-18
6.901325E+03	7.515801E-17	2.739857E-18
6.911212E+03	7.574333E-17	2.761250E-18
6.921099E+03	7.642093E-17	2.786008E-18
6.930987E+03	7.719078E-17	2.814132E-18
6.940874E+03	7.805262E-17	2.845611E-18
6.950761E+03	7.900598E-17	2.880429E-18
6.960649E+03	8.005003E-17	2.918556E-18
6.970536E+03	8.118361E-17	2.959950E-18
6.980423E+03	8.240512E-17	3.004552E-18
6.990310E+03	8.371245E-17	3.052287E-18
7.000198E+03	8.510294E-17	3.103056E-18
7.010085E+03	8.657329E-17	3.156741E-18
7.019972E+03	8.811949E-17	3.213196E-18
7.029860E+03	8.972848E-17	3.271943E-18
7.039747E+03	9.141099E-17	3.333375E-18
7.049634E+03	9.315234E-17	3.396957E-18
7.059521E+03	9.494493E-17	3.462412E-18
7.069409E+03	9.677115E-17	3.529097E-18
7.079296E+03	9.863895E-17	3.597303E-18
7.089183E+03	1.005193E-16	3.665971E-18
7.099071E+03	1.024184E-16	3.735327E-18
7.108958E+03	1.043042E-16	3.804206E-18
7.118845E+03	1.061814E-16	3.872772E-18
7.128732E+03	1.080147E-16	3.939746E-18
7.138620E+03	1.097976E-16	4.004884E-18
7.148507E+03	1.115229E-16	4.067923E-18
7.158394E+03	1.131522E-16	4.127470E-18
7.168282E+03	1.146777E-16	4.183233E-18
7.178169E+03	1.160813E-16	4.234554E-18
7.188056E+03	1.173458E-16	4.280803E-18
7.197943E+03	1.184544E-16	4.321372E-18
7.207831E+03	1.193927E-16	4.355727E-18
7.217718E+03	1.201476E-16	4.383400E-18
7.227605E+03	1.207088E-16	4.404008E-18
7.237493E+03	1.210689E-16	4.417280E-18
7.247380E+03	1.212236E-16	4.423059E-18
7.257267E+03	1.211719E-16	4.421307E-18
7.267154E+03	1.209160E-16	4.412109E-18
7.277042E+03	1.204497E-16	4.395234E-18
7.286929E+03	1.198035E-16	4.371796E-18
7.296816E+03	1.189653E-16	4.341349E-18
7.306704E+03	1.179693E-16	4.305141E-18
7.316591E+03	1.168069E-16	4.262863E-18
7.326478E+03	1.155148E-16	4.215849E-18
7.336365E+03	1.140865E-16	4.163861E-18
7.346253E+03	1.125595E-16	4.108271E-18
7.356140E+03	1.109285E-16	4.048881E-18
7.366027E+03	1.092200E-16	3.986662E-18
7.375915E+03	1.074500E-16	3.922191E-18
7.385802E+03	1.056333E-16	3.856015E-18
7.395689E+03	1.037846E-16	3.788667E-18
7.405576E+03	1.019175E-16	3.720646E-18
7.415464E+03	1.000453E-16	3.652431E-18
7.425351E+03	9.817931E-17	3.584442E-18
7.435238E+03	9.633050E-17	3.517076E-18
7.445126E+03	9.450828E-17	3.450676E-18
7.455013E+03	9.272074E-17	3.385539E-18
7.464900E+03	9.096586E-17	3.321590E-18
7.474787E+03	8.926646E-17	3.259664E-18
7.484675E+03	8.760954E-17	3.199285E-18
7.494562E+03	8.601518E-17	3.141187E-18
7.504449E+03	8.446922E-17	3.084853E-18
7.514337E+03	8.298958E-17	3.030937E-18
7.524224E+03	8.156126E-17	2.978893E-18
7.534111E+03	8.019280E-17	2.929031E-18
7.543998E+03	7.888414E-17	2.881350E-18
7.553886E+03	7.763484E-17	2.835835E-18
7.563773E+03	7.644412E-17	2.792456E-18
7.573660E+03	7.531087E-17	2.751175E-18
7.583548E+03	7.423379E-17	2.711942E-18
7.593435E+03	7.321133E-17	2.674702E-18
7.603322E+03	7.224185E-17	2.639396E-18
7.613209E+03	7.131664E-17	2.605704E-18
7.623097E+03	7.044764E-17	2.574064E-18
7.632984E+03	6.962598E-17	2.544152E-18
7.642871E+03	6.884302E-17	2.515652E-18
7.652759E+03	6.810356E-17	2.488740E-18
7.662646E+03	6.741217E-17	2.463583E-18
7.672533E+03	6.675381E-17	2.439630E-18
