#wls	flux	fluxerr
1.581966E+03	7.551945E-17	2.005375E-18
1.621515E+03	7.748152E-17	2.057424E-18
1.661064E+03	7.940849E-17	2.108536E-18
1.700613E+03	8.129257E-17	2.158505E-18
1.740162E+03	8.312478E-17	2.207093E-18
1.779711E+03	8.488598E-17	2.253791E-18
1.819260E+03	8.654714E-17	2.297829E-18
1.858810E+03	8.805781E-17	2.337867E-18
1.898359E+03	8.940652E-17	2.373601E-18
1.937908E+03	9.053811E-17	2.403568E-18
1.977457E+03	9.142830E-17	2.427122E-18
2.017006E+03	9.211477E-17	2.445265E-18
2.056555E+03	9.267650E-17	2.460093E-18
2.096104E+03	9.336338E-17	2.478241E-18
2.135654E+03	9.444116E-17	2.506760E-18
2.175203E+03	9.614067E-17	2.551778E-18
2.214752E+03	9.846200E-17	2.613294E-18
2.254301E+03	1.013038E-16	2.688617E-18
2.293850E+03	1.044087E-16	2.770913E-18
2.333399E+03	1.075772E-16	2.854890E-18
2.372948E+03	1.107130E-16	2.937990E-18
2.412498E+03	1.136955E-16	3.017012E-18
2.452047E+03	1.165517E-16	3.092671E-18
2.491596E+03	1.192418E-16	3.163917E-18
2.531145E+03	1.218097E-16	3.231909E-18
2.570694E+03	1.242280E-16	3.295923E-18
2.610243E+03	1.265258E-16	3.356732E-18
2.649792E+03	1.287122E-16	3.414578E-18
2.689342E+03	1.307949E-16	3.469662E-18
2.728891E+03	1.327797E-16	3.522143E-18
2.768440E+03	1.346713E-16	3.572141E-18
2.807989E+03	1.364931E-16	3.620281E-18
2.847538E+03	1.382278E-16	3.666103E-18
2.887087E+03	1.398773E-16	3.709655E-18
2.926636E+03	1.414431E-16	3.750977E-18
2.966185E+03	1.429260E-16	3.790096E-18
2.976073E+03	1.432977E-16	3.799901E-18
2.985960E+03	1.436618E-16	3.809504E-18
2.995847E+03	1.439982E-16	3.818369E-18
3.005735E+03	1.443470E-16	3.827564E-18
3.015622E+03	1.447084E-16	3.837095E-18
3.025509E+03	1.450420E-16	3.845887E-18
3.035396E+03	1.453689E-16	3.854498E-18
3.045284E+03	1.457083E-16	3.863442E-18
3.055171E+03	1.460249E-16	3.871782E-18
3.065058E+03	1.463584E-16	3.880568E-18
3.074946E+03	1.466880E-16	3.889252E-18
3.084833E+03	1.470333E-16	3.898351E-18
3.094720E+03	1.473533E-16	3.906778E-18
3.104607E+03	1.476678E-16	3.915058E-18
3.114495E+03	1.479964E-16	3.923712E-18
3.124382E+03	1.483184E-16	3.932193E-18
3.134269E+03	1.486339E-16	3.940497E-18
3.144157E+03	1.489421E-16	3.948610E-18
3.154044E+03	1.492429E-16	3.956525E-18
3.163931E+03	1.495362E-16	3.964241E-18
3.173818E+03	1.498416E-16	3.972277E-18
3.183706E+03	1.501189E-16	3.979569E-18
3.193593E+03	1.504080E-16	3.987173E-18
3.203480E+03	1.506889E-16	3.994556E-18
3.213368E+03	1.509612E-16	4.001713E-18
3.223255E+03	1.512450E-16	4.009174E-18
3.233142E+03	1.515000E-16	4.015874E-18
3.243029E+03	1.517664E-16	4.022872E-18
3.252917E+03	1.520041E-16	4.029110E-18
3.262804E+03	1.522530E-16	4.035644E-18
3.272691E+03	1.524930E-16	4.041944E-18
3.282579E+03	1.527243E-16	4.048010E-18
3.292466E+03	1.529667E-16	4.054370E-18
3.302353E+03	1.531804E-16	4.059971E-18
3.312240E+03	1.534053E-16	4.065867E-18
3.322128E+03	1.536215E-16	4.071532E-18
3.332015E+03	1.538094E-16	4.076447E-18
3.341902E+03	1.540085E-16	4.081657E-18
3.351790E+03	1.542187E-16	4.087164E-18
3.361677E+03	1.544010E-16	4.091928E-18
3.371564E+03	1.545945E-16	4.096990E-18
3.381451E+03	1.547603E-16	4.101316E-18
3.391339E+03	1.549374E-16	4.105943E-18
3.401226E+03	1.551066E-16	4.110359E-18
3.411113E+03	1.552679E-16	4.114566E-18
3.421001E+03	1.554216E-16	4.118569E-18
3.430888E+03	1.555674E-16	4.122366E-18
3.440775E+03	1.557252E-16	4.126478E-18
3.450662E+03	1.558755E-16	4.130393E-18
3.460550E+03	1.559994E-16	4.133605E-18
3.470437E+03	1.561353E-16	4.137138E-18
3.480324E+03	1.562644E-16	4.140488E-18
3.490212E+03	1.563867E-16	4.143659E-18
3.500099E+03	1.565214E-16	4.147157E-18
3.509986E+03	1.566306E-16	4.149979E-18
3.519873E+03	1.567525E-16	4.153137E-18
3.529761E+03	1.568493E-16	4.155631E-18
3.539648E+03	1.569591E-16	4.158469E-18
3.549535E+03	1.570632E-16	4.161155E-18
3.559423E+03	1.571617E-16	4.163691E-18
3.569310E+03	1.572548E-16	4.166087E-18
3.579197E+03	1.573430E-16	4.168349E-18
3.589084E+03	1.574447E-16	4.170972E-18
3.598972E+03	1.575233E-16	4.172980E-18
3.608859E+03	1.576158E-16	4.175358E-18
3.618746E+03	1.577042E-16	4.177624E-18
3.628634E+03	1.577885E-16	4.179784E-18
3.638521E+03	1.578689E-16	4.181842E-18
3.648408E+03	1.579460E-16	4.183809E-18
3.658295E+03	1.580199E-16	4.185691E-18
3.668183E+03	1.580907E-16	4.187492E-18
3.678070E+03	1.581590E-16	4.189225E-18
3.687957E+03	1.582430E-16	4.191374E-18
3.697845E+03	1.583248E-16	4.193467E-18
3.707732E+03	1.583867E-16	4.195031E-18
3.717619E+03	1.584652E-16	4.197033E-18
3.727506E+03	1.585424E-16	4.199002E-18
3.737394E+03	1.586189E-16	4.200950E-18
3.747281E+03	1.586947E-16	4.202881E-18
3.757168E+03	1.587701E-16	4.204802E-18
3.767056E+03	1.588458E-16	4.206730E-18
3.776943E+03	1.589396E-16	4.209136E-18
3.786830E+03	1.590164E-16	4.211091E-18
3.796717E+03	1.590944E-16	4.213079E-18
3.806605E+03	1.591914E-16	4.215569E-18
3.816492E+03	1.592726E-16	4.217642E-18
3.826379E+03	1.593735E-16	4.220234E-18
3.836267E+03	1.594767E-16	4.222891E-18
3.846154E+03	1.595829E-16	4.225624E-18
3.856041E+03	1.596748E-16	4.227978E-18
3.865928E+03	1.597877E-16	4.230887E-18
3.875816E+03	1.599045E-16	4.233900E-18
3.885703E+03	1.600254E-16	4.237022E-18
3.895590E+03	1.601509E-16	4.240265E-18
3.905478E+03	1.602813E-16	4.243636E-18
3.915365E+03	1.604341E-16	4.247600E-18
3.925252E+03	1.605752E-16	4.251256E-18
3.935139E+03	1.607222E-16	4.255068E-18
3.945027E+03	1.608754E-16	4.259043E-18
3.954914E+03	1.610352E-16	4.263193E-18
3.964801E+03	1.612188E-16	4.267970E-18
3.974689E+03	1.613924E-16	4.272485E-18
3.984576E+03	1.615735E-16	4.277197E-18
3.994463E+03	1.617791E-16	4.282557E-18
4.004350E+03	1.619759E-16	4.287683E-18
4.014238E+03	1.621808E-16	4.293026E-18
4.024125E+03	1.624109E-16	4.299034E-18
4.034012E+03	1.626330E-16	4.304830E-18
4.043900E+03	1.628806E-16	4.311301E-18
4.053787E+03	1.631207E-16	4.317572E-18
4.063674E+03	1.633700E-16	4.324087E-18
4.073561E+03	1.636455E-16	4.331294E-18
4.083449E+03	1.639138E-16	4.338310E-18
4.093336E+03	1.641918E-16	4.345585E-18
4.103223E+03	1.644961E-16	4.353554E-18
4.113111E+03	1.647937E-16	4.361345E-18
4.122998E+03	1.651012E-16	4.369397E-18
4.132885E+03	1.654185E-16	4.377709E-18
4.142772E+03	1.657620E-16	4.386714E-18
4.152660E+03	1.660988E-16	4.395542E-18
4.162547E+03	1.664452E-16	4.404621E-18
4.172434E+03	1.668010E-16	4.413951E-18
4.182322E+03	1.671660E-16	4.423523E-18
4.192209E+03	1.675401E-16	4.433337E-18
4.202096E+03	1.679229E-16	4.443378E-18
4.211983E+03	1.683142E-16	4.453646E-18
4.221871E+03	1.687136E-16	4.464125E-18
4.231758E+03	1.691044E-16	4.474378E-18
4.241645E+03	1.695190E-16	4.485259E-18
4.251533E+03	1.699405E-16	4.496324E-18
4.261420E+03	1.703523E-16	4.507130E-18
4.271307E+03	1.707865E-16	4.518530E-18
4.281194E+03	1.712101E-16	4.529649E-18
4.291082E+03	1.716390E-16	4.540906E-18
4.300969E+03	1.720728E-16	4.552292E-18
4.310856E+03	1.725109E-16	4.563795E-18
4.320744E+03	1.729533E-16	4.575408E-18
4.330631E+03	1.733994E-16	4.587118E-18
4.340518E+03	1.738488E-16	4.598916E-18
4.350405E+03	1.743013E-16	4.610798E-18
4.360293E+03	1.747402E-16	4.622316E-18
4.370180E+03	1.751980E-16	4.634334E-18
4.380067E+03	1.756414E-16	4.645974E-18
4.389955E+03	1.760869E-16	4.657665E-18
4.399842E+03	1.765339E-16	4.669397E-18
4.409729E+03	1.769822E-16	4.681164E-18
4.419616E+03	1.774314E-16	4.692955E-18
4.429504E+03	1.778811E-16	4.704758E-18
4.439391E+03	1.783310E-16	4.716565E-18
4.449278E+03	1.787643E-16	4.727931E-18
4.459166E+03	1.791966E-16	4.739273E-18
4.469053E+03	1.796276E-16	4.750579E-18
4.478940E+03	1.800564E-16	4.761828E-18
4.488827E+03	1.804826E-16	4.773005E-18
4.498715E+03	1.809052E-16	4.784090E-18
4.508602E+03	1.813236E-16	4.795060E-18
4.518489E+03	1.817204E-16	4.805462E-18
4.528377E+03	1.821111E-16	4.815700E-18
4.538264E+03	1.824949E-16	4.825756E-18
4.548151E+03	1.828706E-16	4.835598E-18
4.558038E+03	1.832372E-16	4.845199E-18
4.567926E+03	1.835938E-16	4.854535E-18
4.577813E+03	1.839228E-16	4.863143E-18
4.587700E+03	1.842397E-16	4.871428E-18
4.597588E+03	1.845434E-16	4.879365E-18
4.607475E+03	1.848328E-16	4.886924E-18
4.617362E+03	1.851070E-16	4.894082E-18
4.627249E+03	1.853489E-16	4.900384E-18
4.637137E+03	1.855900E-16	4.906667E-18
4.647024E+03	1.857973E-16	4.912054E-18
4.656911E+03	1.859862E-16	4.916957E-18
4.666798E+03	1.861563E-16	4.921362E-18
4.676686E+03	1.862910E-16	4.924832E-18
4.686573E+03	1.864225E-16	4.928216E-18
4.696460E+03	1.865182E-16	4.930653E-18
4.706348E+03	1.865943E-16	4.932575E-18
4.716235E+03	1.866349E-16	4.933557E-18
4.726122E+03	1.866726E-16	4.934464E-18
4.736009E+03	1.866756E-16	4.934452E-18
4.745897E+03	1.866764E-16	4.934384E-18
4.755784E+03	1.866438E-16	4.933432E-18
4.765671E+03	1.865782E-16	4.931610E-18
4.775559E+03	1.865126E-16	4.929786E-18
4.785446E+03	1.864155E-16	4.927132E-18
4.795333E+03	1.863039E-16	4.924092E-18
4.805220E+03	1.861782E-16	4.920683E-18
4.815108E+03	1.860394E-16	4.916926E-18
4.824995E+03	1.858720E-16	4.912416E-18
4.834882E+03	1.857083E-16	4.908001E-18
4.844770E+03	1.855174E-16	4.902869E-18
4.854657E+03	1.852995E-16	4.897025E-18
4.864544E+03	1.850864E-16	4.891308E-18
4.874431E+03	1.848470E-16	4.884897E-18
4.884319E+03	1.846126E-16	4.878618E-18
4.894206E+03	1.843521E-16	4.871648E-18
4.904093E+03	1.840656E-16	4.863992E-18
4.913981E+03	1.837837E-16	4.856461E-18
4.923868E+03	1.834754E-16	4.848230E-18
4.933755E+03	1.831556E-16	4.839698E-18
4.943642E+03	1.828242E-16	4.830858E-18
4.953530E+03	1.824803E-16	4.821690E-18
4.963417E+03	1.821085E-16	4.811785E-18
4.973304E+03	1.817233E-16	4.801528E-18
4.983192E+03	1.813241E-16	4.790898E-18
4.993079E+03	1.809100E-16	4.779878E-18
5.002966E+03	1.804655E-16	4.768055E-18
5.012853E+03	1.800048E-16	4.755806E-18
5.022741E+03	1.795272E-16	4.743109E-18
5.032628E+03	1.790317E-16	4.729941E-18
5.042515E+03	1.785176E-16	4.716280E-18
5.052403E+03	1.779692E-16	4.701717E-18
5.062290E+03	1.774007E-16	4.686621E-18
5.072177E+03	1.768109E-16	4.670965E-18
5.082064E+03	1.761990E-16	4.654727E-18
5.091952E+03	1.755498E-16	4.637502E-18
5.101839E+03	1.748911E-16	4.620030E-18
5.111726E+03	1.741935E-16	4.601529E-18
5.121614E+03	1.734562E-16	4.581980E-18
5.131501E+03	1.727068E-16	4.562114E-18
5.141388E+03	1.719164E-16	4.541163E-18
5.151275E+03	1.710981E-16	4.519479E-18
5.161163E+03	1.702514E-16	4.497046E-18
5.171050E+03	1.693757E-16	4.473845E-18
5.180937E+03	1.684567E-16	4.449505E-18
5.190825E+03	1.675215E-16	4.424736E-18
5.200712E+03	1.665424E-16	4.398810E-18
5.210599E+03	1.655196E-16	4.371729E-18
5.220486E+03	1.644797E-16	4.344200E-18
5.230374E+03	1.633962E-16	4.315519E-18
5.240261E+03	1.622825E-16	4.286042E-18
5.250148E+03	1.611390E-16	4.255781E-18
5.260036E+03	1.599662E-16	4.224745E-18
5.269923E+03	1.587645E-16	4.192947E-18
5.279810E+03	1.575219E-16	4.160072E-18
5.289697E+03	1.562520E-16	4.126477E-18
5.299585E+03	1.549557E-16	4.092185E-18
5.309472E+03	1.536216E-16	4.056896E-18
5.319359E+03	1.522753E-16	4.021287E-18
5.329247E+03	1.508934E-16	3.984739E-18
5.339134E+03	1.494893E-16	3.947607E-18
5.349021E+03	1.480640E-16	3.909916E-18
5.358908E+03	1.466189E-16	3.871704E-18
5.368796E+03	1.451437E-16	3.832696E-18
5.378683E+03	1.436516E-16	3.793246E-18
5.388570E+03	1.421443E-16	3.753395E-18
5.398458E+03	1.406233E-16	3.713184E-18
5.408345E+03	1.390906E-16	3.672666E-18
5.418232E+03	1.375371E-16	3.631598E-18
5.428119E+03	1.359759E-16	3.590330E-18
5.438007E+03	1.344092E-16	3.548919E-18
5.447894E+03	1.328393E-16	3.507422E-18
5.457781E+03	1.312682E-16	3.465898E-18
5.467669E+03	1.296883E-16	3.424140E-18
5.477556E+03	1.281224E-16	3.382755E-18
5.487443E+03	1.265526E-16	3.341267E-18
5.497330E+03	1.249917E-16	3.300016E-18
5.507218E+03	1.234322E-16	3.258804E-18
5.517105E+03	1.218964E-16	3.218219E-18
5.526992E+03	1.203672E-16	3.177807E-18
5.536880E+03	1.188568E-16	3.137895E-18
5.546767E+03	1.173676E-16	3.098543E-18
5.556654E+03	1.159019E-16	3.059812E-18
5.566541E+03	1.144620E-16	3.021764E-18
5.576429E+03	1.130411E-16	2.984221E-18
5.586316E+03	1.116596E-16	2.947717E-18
5.596203E+03	1.103017E-16	2.911836E-18
5.606091E+03	1.089782E-16	2.876866E-18
5.615978E+03	1.076911E-16	2.842857E-18
5.625865E+03	1.064336E-16	2.809632E-18
5.635752E+03	1.052245E-16	2.777685E-18
5.645640E+03	1.040485E-16	2.746612E-18
5.655527E+03	1.029153E-16	2.716670E-18
5.665414E+03	1.018263E-16	2.687896E-18
5.675302E+03	1.007825E-16	2.660315E-18
5.685189E+03	9.978485E-17	2.633955E-18
5.695076E+03	9.882649E-17	2.608631E-18
5.704963E+03	9.792378E-17	2.584778E-18
5.714851E+03	9.706183E-17	2.562001E-18
5.724738E+03	9.624895E-17	2.540520E-18
5.734625E+03	9.548555E-17	2.520346E-18
5.744513E+03	9.477203E-17	2.501489E-18
5.754400E+03	9.410871E-17	2.483957E-18
5.764287E+03	9.348851E-17	2.467564E-18
5.774174E+03	9.291918E-17	2.452515E-18
5.784062E+03	9.240829E-17	2.439009E-18
5.793949E+03	9.194153E-17	2.426668E-18
5.803836E+03	9.152654E-17	2.415693E-18
5.813724E+03	9.116373E-17	2.406097E-18
5.823611E+03	9.084637E-17	2.397700E-18
5.833498E+03	9.058933E-17	2.390896E-18
5.843385E+03	9.037892E-17	2.385323E-18
5.853273E+03	9.023011E-17	2.381376E-18
5.863160E+03	9.012944E-17	2.378701E-18
5.873047E+03	9.008493E-17	2.377507E-18
5.882935E+03	9.009759E-17	2.377823E-18
5.892822E+03	9.016848E-17	2.379676E-18
5.902709E+03	9.029169E-17	2.382909E-18
5.912596E+03	9.048273E-17	2.387934E-18
5.922484E+03	9.072865E-17	2.394406E-18
5.932371E+03	9.104521E-17	2.402744E-18
5.942258E+03	9.141950E-17	2.412605E-18
5.952146E+03	9.186022E-17	2.424219E-18
5.962033E+03	9.236887E-17	2.437626E-18
5.971920E+03	9.294697E-17	2.452866E-18
5.981807E+03	9.359599E-17	2.469978E-18
5.991695E+03	9.430989E-17	2.488802E-18
6.001582E+03	9.510485E-17	2.509766E-18
6.011469E+03	9.597463E-17	2.532704E-18
6.021357E+03	9.691258E-17	2.557441E-18
6.031244E+03	9.792693E-17	2.584194E-18
6.041131E+03	9.902602E-17	2.613183E-18
6.051018E+03	1.001944E-16	2.644002E-18
6.060906E+03	1.014396E-16	2.676846E-18
6.070793E+03	1.027608E-16	2.711697E-18
6.080680E+03	1.041484E-16	2.748302E-18
6.090568E+03	1.056172E-16	2.787046E-18
6.100455E+03	1.071563E-16	2.827647E-18
6.110342E+03	1.087538E-16	2.869790E-18
6.120229E+03	1.104229E-16	2.913822E-18
6.130117E+03	1.121412E-16	2.959151E-18
6.140004E+03	1.139204E-16	3.006089E-18
6.149891E+03	1.157358E-16	3.053982E-18
6.159779E+03	1.175886E-16	3.102863E-18
6.169666E+03	1.194699E-16	3.152495E-18
6.179553E+03	1.213699E-16	3.202620E-18
6.189440E+03	1.232777E-16	3.252952E-18
6.199328E+03	1.251818E-16	3.303186E-18
6.209215E+03	1.270695E-16	3.352990E-18
6.219102E+03	1.289175E-16	3.401743E-18
6.228990E+03	1.307322E-16	3.449621E-18
6.238877E+03	1.324894E-16	3.495980E-18
6.248764E+03	1.341640E-16	3.540158E-18
6.258651E+03	1.357625E-16	3.582333E-18
6.268539E+03	1.372498E-16	3.621570E-18
6.278426E+03	1.386224E-16	3.657783E-18
6.288313E+03	1.398787E-16	3.690927E-18
6.298201E+03	1.409842E-16	3.720095E-18
6.308088E+03	1.419395E-16	3.745296E-18
6.317975E+03	1.427345E-16	3.766271E-18
6.327862E+03	1.433616E-16	3.782816E-18
6.337750E+03	1.438143E-16	3.794758E-18
6.347637E+03	1.440878E-16	3.801974E-18
6.357524E+03	1.441795E-16	3.804390E-18
6.367412E+03	1.440768E-16	3.801680E-18
6.377299E+03	1.438034E-16	3.794468E-18
6.387186E+03	1.433507E-16	3.782523E-18
6.397073E+03	1.427227E-16	3.765953E-18
6.406961E+03	1.419140E-16	3.744615E-18
6.416848E+03	1.409542E-16	3.719293E-18
6.426735E+03	1.398297E-16	3.689622E-18
6.436623E+03	1.385720E-16	3.656441E-18
6.446510E+03	1.371696E-16	3.619440E-18
6.456397E+03	1.356447E-16	3.579207E-18
6.466284E+03	1.340199E-16	3.536339E-18
6.476172E+03	1.322855E-16	3.490578E-18
6.486059E+03	1.304647E-16	3.442540E-18
6.495946E+03	1.285701E-16	3.392553E-18
6.505833E+03	1.266139E-16	3.340939E-18
6.515721E+03	1.246080E-16	3.288017E-18
6.525608E+03	1.225645E-16	3.234102E-18
6.535495E+03	1.204948E-16	3.179498E-18
6.545383E+03	1.184098E-16	3.124489E-18
6.555270E+03	1.163201E-16	3.069353E-18
6.565157E+03	1.142354E-16	3.014353E-18
6.575044E+03	1.121652E-16	2.959735E-18
6.584932E+03	1.101181E-16	2.905725E-18
6.594819E+03	1.081020E-16	2.852534E-18
6.604706E+03	1.061159E-16	2.800137E-18
6.614594E+03	1.041838E-16	2.749162E-18
6.624481E+03	1.023031E-16	2.699544E-18
6.634368E+03	1.004712E-16	2.651214E-18
6.644255E+03	9.870956E-17	2.604738E-18
6.654143E+03	9.700638E-17	2.559804E-18
6.664030E+03	9.538144E-17	2.516935E-18
6.673917E+03	9.382260E-17	2.475810E-18
6.683805E+03	9.234821E-17	2.436914E-18
6.693692E+03	9.094580E-17	2.399918E-18
6.703579E+03	8.963253E-17	2.365273E-18
6.713466E+03	8.839567E-17	2.332645E-18
6.723354E+03	8.724430E-17	2.302273E-18
6.733241E+03	8.618686E-17	2.274379E-18
6.743128E+03	8.521051E-17	2.248626E-18
6.753016E+03	8.432338E-17	2.225227E-18
6.762903E+03	8.352639E-17	2.204206E-18
6.772790E+03	8.282712E-17	2.185765E-18
6.782677E+03	8.221270E-17	2.169563E-18
6.792565E+03	8.169056E-17	2.155796E-18
6.802452E+03	8.126125E-17	2.144479E-18
6.812339E+03	8.092528E-17	2.135625E-18
6.822227E+03	8.068312E-17	2.129247E-18
6.832114E+03	8.053516E-17	2.125356E-18
6.842001E+03	8.048180E-17	2.123961E-18
6.851888E+03	8.052336E-17	2.125071E-18
6.861776E+03	8.065354E-17	2.128521E-18
6.871663E+03	8.088573E-17	2.134663E-18
6.881550E+03	8.121352E-17	2.143328E-18
6.891438E+03	8.163694E-17	2.154518E-18
6.901325E+03	8.214918E-17	2.168052E-18
6.911212E+03	8.276348E-17	2.184280E-18
6.921099E+03	8.347272E-17	2.203014E-18
6.930987E+03	8.426934E-17	2.224055E-18
6.940874E+03	8.516625E-17	2.247744E-18
6.950761E+03	8.614827E-17	2.273679E-18
6.960649E+03	8.722794E-17	2.302193E-18
6.970536E+03	8.838892E-17	2.332853E-18
6.980423E+03	8.964324E-17	2.365978E-18
6.990310E+03	9.097311E-17	2.401097E-18
7.000198E+03	9.238218E-17	2.438308E-18
7.010085E+03	9.387387E-17	2.477700E-18
7.019972E+03	9.542769E-17	2.518734E-18
7.029860E+03	9.704539E-17	2.561454E-18
7.039747E+03	9.872026E-17	2.605685E-18
7.049634E+03	1.004530E-16	2.651444E-18
7.059521E+03	1.022185E-16	2.698069E-18
7.069409E+03	1.040155E-16	2.745527E-18
7.079296E+03	1.058335E-16	2.793539E-18
7.089183E+03	1.076610E-16	2.841807E-18
7.099071E+03	1.094858E-16	2.890002E-18
7.108958E+03	1.112856E-16	2.937538E-18
7.118845E+03	1.130648E-16	2.984533E-18
7.128732E+03	1.147999E-16	3.030365E-18
7.138620E+03	1.164761E-16	3.074643E-18
7.148507E+03	1.180682E-16	3.116704E-18
7.158394E+03	1.195808E-16	3.156667E-18
7.168282E+03	1.209893E-16	3.193881E-18
7.178169E+03	1.222690E-16	3.227698E-18
7.188056E+03	1.234163E-16	3.258021E-18
7.197943E+03	1.244290E-16	3.284793E-18
7.207831E+03	1.252751E-16	3.307167E-18
7.217718E+03	1.259660E-16	3.325445E-18
7.227605E+03	1.264726E-16	3.338859E-18
7.237493E+03	1.267997E-16	3.347534E-18
7.247380E+03	1.269435E-16	3.351370E-18
7.257267E+03	1.269023E-16	3.350324E-18
7.267154E+03	1.266771E-16	3.344418E-18
7.277042E+03	1.262705E-16	3.333728E-18
7.286929E+03	1.256877E-16	3.318383E-18
7.296816E+03	1.249354E-16	3.298563E-18
7.306704E+03	1.240225E-16	3.274502E-18
7.316591E+03	1.229487E-16	3.246196E-18
7.326478E+03	1.217466E-16	3.214499E-18
7.336365E+03	1.204080E-16	3.179200E-18
7.346253E+03	1.189671E-16	3.141197E-18
7.356140E+03	1.174173E-16	3.100319E-18
7.366027E+03	1.157932E-16	3.057479E-18
7.375915E+03	1.140892E-16	3.012528E-18
7.385802E+03	1.123293E-16	2.966102E-18
7.395689E+03	1.105275E-16	2.918567E-18
7.405576E+03	1.087063E-16	2.870518E-18
7.415464E+03	1.068594E-16	2.821793E-18
7.425351E+03	1.050080E-16	2.772945E-18
7.435238E+03	1.031541E-16	2.724031E-18
7.445126E+03	1.013248E-16	2.675765E-18
7.455013E+03	9.951985E-17	2.628141E-18
7.464900E+03	9.774635E-17	2.581347E-18
7.474787E+03	9.600211E-17	2.535324E-18
7.484675E+03	9.430874E-17	2.490644E-18
7.494562E+03	9.265396E-17	2.446982E-18
7.504449E+03	9.104926E-17	2.404642E-18
7.514337E+03	8.950483E-17	2.363892E-18
7.524224E+03	8.800698E-17	2.324371E-18
7.534111E+03	8.656482E-17	2.286321E-18
7.543998E+03	8.517910E-17	2.249759E-18
7.553886E+03	8.385009E-17	2.214695E-18
7.563773E+03	8.257769E-17	2.181126E-18
7.573660E+03	8.135438E-17	2.148852E-18
7.583548E+03	8.019359E-17	2.118228E-18
7.593435E+03	7.908714E-17	2.089039E-18
7.603322E+03	7.802703E-17	2.061074E-18
7.613209E+03	7.701878E-17	2.034477E-18
7.623097E+03	7.606742E-17	2.009383E-18
7.632984E+03	7.515799E-17	1.985395E-18
7.642871E+03	7.429539E-17	1.962644E-18
7.652759E+03	7.347783E-17	1.941083E-18
7.662646E+03	7.270343E-17	1.920661E-18
7.672533E+03	7.197033E-17	1.901329E-18
