#wls	flux	fluxerr
1.581966E+03	4.822539E-17	3.527052E-18
1.621515E+03	4.950783E-17	3.619007E-18
1.661064E+03	5.078009E-17	3.710076E-18
1.700613E+03	5.203844E-17	3.799983E-18
1.740162E+03	5.326908E-17	3.887719E-18
1.779711E+03	5.446035E-17	3.972431E-18
1.819260E+03	5.560406E-17	4.053522E-18
1.858810E+03	5.667843E-17	4.129407E-18
1.898359E+03	5.764795E-17	4.197506E-18
1.937908E+03	5.848679E-17	4.255947E-18
1.977457E+03	5.918958E-17	4.304355E-18
2.017006E+03	5.977102E-17	4.343813E-18
2.056555E+03	6.029218E-17	4.378771E-18
2.096104E+03	6.090672E-17	4.420385E-18
2.135654E+03	6.180037E-17	4.482110E-18
2.175203E+03	6.310747E-17	4.573633E-18
2.214752E+03	6.486487E-17	4.697554E-18
2.254301E+03	6.696906E-17	4.846303E-18
2.293850E+03	6.928728E-17	5.010213E-18
2.333399E+03	7.169159E-17	5.179994E-18
2.372948E+03	7.409776E-17	5.349541E-18
2.412498E+03	7.644948E-17	5.514780E-18
2.452047E+03	7.874251E-17	5.675404E-18
2.491596E+03	8.097543E-17	5.831311E-18
2.531145E+03	8.315358E-17	5.982884E-18
2.570694E+03	8.527087E-17	6.129688E-18
2.610243E+03	8.734835E-17	6.273234E-18
2.649792E+03	8.939311E-17	6.414028E-18
2.689342E+03	9.139615E-17	6.551421E-18
2.728891E+03	9.339140E-17	6.687841E-18
2.768440E+03	9.535286E-17	6.821421E-18
2.807989E+03	9.729795E-17	6.953400E-18
2.847538E+03	9.922890E-17	7.083932E-18
2.887087E+03	1.011471E-16	7.213108E-18
2.926636E+03	1.030374E-16	7.339841E-18
2.966185E+03	1.049161E-16	7.465290E-18
2.976073E+03	1.053979E-16	7.497442E-18
2.985960E+03	1.058616E-16	7.528276E-18
2.995847E+03	1.063235E-16	7.558948E-18
3.005735E+03	1.067836E-16	7.589469E-18
3.015622E+03	1.072587E-16	7.621024E-18
3.025509E+03	1.077153E-16	7.651236E-18
3.035396E+03	1.081876E-16	7.682533E-18
3.045284E+03	1.086413E-16	7.712474E-18
3.055171E+03	1.091138E-16	7.743723E-18
3.065058E+03	1.095709E-16	7.773846E-18
3.074946E+03	1.100459E-16	7.805213E-18
3.084833E+03	1.105215E-16	7.836592E-18
3.094720E+03	1.109972E-16	7.867943E-18
3.104607E+03	1.114557E-16	7.898041E-18
3.114495E+03	1.119306E-16	7.929274E-18
3.124382E+03	1.124047E-16	7.960415E-18
3.134269E+03	1.128776E-16	7.991440E-18
3.144157E+03	1.133491E-16	8.022332E-18
3.154044E+03	1.138188E-16	8.053072E-18
3.163931E+03	1.142868E-16	8.083651E-18
3.173818E+03	1.147527E-16	8.114051E-18
3.183706E+03	1.152164E-16	8.144263E-18
3.193593E+03	1.156952E-16	8.175509E-18
3.203480E+03	1.161540E-16	8.205312E-18
3.213368E+03	1.166102E-16	8.234897E-18
3.223255E+03	1.170814E-16	8.265503E-18
3.233142E+03	1.175320E-16	8.294631E-18
3.243029E+03	1.179798E-16	8.323521E-18
3.252917E+03	1.184425E-16	8.353433E-18
3.262804E+03	1.188844E-16	8.381840E-18
3.272691E+03	1.193412E-16	8.411265E-18
3.282579E+03	1.197949E-16	8.440441E-18
3.292466E+03	1.202276E-16	8.468106E-18
3.302353E+03	1.206752E-16	8.496785E-18
3.312240E+03	1.211198E-16	8.525219E-18
3.322128E+03	1.215432E-16	8.552126E-18
3.332015E+03	1.219816E-16	8.580057E-18
3.341902E+03	1.224170E-16	8.607742E-18
3.351790E+03	1.228493E-16	8.635176E-18
3.361677E+03	1.232786E-16	8.662363E-18
3.371564E+03	1.237049E-16	8.689310E-18
3.381451E+03	1.241282E-16	8.716009E-18
3.391339E+03	1.245485E-16	8.742468E-18
3.401226E+03	1.249659E-16	8.768684E-18
3.411113E+03	1.253804E-16	8.794667E-18
3.421001E+03	1.257919E-16	8.820408E-18
3.430888E+03	1.262007E-16	8.845922E-18
3.440775E+03	1.266252E-16	8.872504E-18
3.450662E+03	1.270284E-16	8.897557E-18
3.460550E+03	1.274289E-16	8.922387E-18
3.470437E+03	1.278453E-16	8.948302E-18
3.480324E+03	1.282404E-16	8.972686E-18
3.490212E+03	1.286329E-16	8.996858E-18
3.500099E+03	1.290416E-16	9.022125E-18
3.509986E+03	1.294290E-16	9.045872E-18
3.519873E+03	1.298326E-16	9.070720E-18
3.529761E+03	1.302150E-16	9.094049E-18
3.539648E+03	1.306138E-16	9.118492E-18
3.549535E+03	1.309915E-16	9.141421E-18
3.559423E+03	1.313856E-16	9.165465E-18
3.569310E+03	1.317584E-16	9.187997E-18
3.579197E+03	1.321480E-16	9.211655E-18
3.589084E+03	1.325353E-16	9.235126E-18
3.598972E+03	1.329014E-16	9.257082E-18
3.608859E+03	1.332843E-16	9.280179E-18
3.618746E+03	1.336651E-16	9.303091E-18
3.628634E+03	1.340246E-16	9.324490E-18
3.638521E+03	1.344012E-16	9.347042E-18
3.648408E+03	1.347757E-16	9.369413E-18
3.658295E+03	1.351481E-16	9.391609E-18
3.668183E+03	1.355186E-16	9.413632E-18
3.678070E+03	1.358678E-16	9.434147E-18
3.687957E+03	1.362342E-16	9.455821E-18
3.697845E+03	1.365987E-16	9.477328E-18
3.707732E+03	1.369612E-16	9.498664E-18
3.717619E+03	1.373219E-16	9.519838E-18
3.727506E+03	1.376805E-16	9.540838E-18
3.737394E+03	1.380373E-16	9.561678E-18
3.747281E+03	1.383924E-16	9.582358E-18
3.757168E+03	1.387454E-16	9.602870E-18
3.767056E+03	1.390967E-16	9.623225E-18
3.776943E+03	1.394461E-16	9.643419E-18
3.786830E+03	1.397938E-16	9.663458E-18
3.796717E+03	1.401397E-16	9.683338E-18
3.806605E+03	1.404839E-16	9.703065E-18
3.816492E+03	1.408264E-16	9.722645E-18
3.826379E+03	1.411672E-16	9.742074E-18
3.836267E+03	1.415063E-16	9.761352E-18
3.846154E+03	1.418438E-16	9.780490E-18
3.856041E+03	1.421798E-16	9.799484E-18
3.865928E+03	1.425143E-16	9.818346E-18
3.875816E+03	1.428474E-16	9.837074E-18
3.885703E+03	1.431791E-16	9.855677E-18
3.895590E+03	1.435094E-16	9.874152E-18
3.905478E+03	1.438387E-16	9.892519E-18
3.915365E+03	1.441667E-16	9.910770E-18
3.925252E+03	1.444938E-16	9.928924E-18
3.935139E+03	1.448200E-16	9.946979E-18
3.945027E+03	1.451454E-16	9.964953E-18
3.954914E+03	1.454703E-16	9.982851E-18
3.964801E+03	1.457945E-16	1.000068E-17
3.974689E+03	1.461186E-16	1.001846E-17
3.984576E+03	1.464425E-16	1.003620E-17
3.994463E+03	1.467664E-16	1.005390E-17
4.004350E+03	1.470905E-16	1.007158E-17
4.014238E+03	1.474150E-16	1.008927E-17
4.024125E+03	1.477401E-16	1.010695E-17
4.034012E+03	1.480660E-16	1.012466E-17
4.043900E+03	1.483928E-16	1.014240E-17
4.053787E+03	1.487207E-16	1.016018E-17
4.063674E+03	1.490500E-16	1.017803E-17
4.073561E+03	1.493807E-16	1.019593E-17
4.083449E+03	1.497130E-16	1.021391E-17
4.093336E+03	1.500469E-16	1.023197E-17
4.103223E+03	1.503826E-16	1.025012E-17
4.113111E+03	1.507001E-16	1.026699E-17
4.122998E+03	1.510394E-16	1.028532E-17
4.132885E+03	1.513803E-16	1.030372E-17
4.142772E+03	1.517230E-16	1.032222E-17
4.152660E+03	1.520471E-16	1.033941E-17
4.162547E+03	1.523924E-16	1.035801E-17
4.172434E+03	1.527388E-16	1.037665E-17
4.182322E+03	1.530658E-16	1.039395E-17
4.192209E+03	1.534131E-16	1.041258E-17
4.202096E+03	1.537602E-16	1.043118E-17
4.211983E+03	1.540865E-16	1.044832E-17
4.221871E+03	1.544316E-16	1.046672E-17
4.231758E+03	1.547547E-16	1.048358E-17
4.241645E+03	1.550954E-16	1.050161E-17
4.251533E+03	1.554126E-16	1.051802E-17
4.261420E+03	1.557459E-16	1.053548E-17
4.271307E+03	1.560544E-16	1.055123E-17
4.281194E+03	1.563574E-16	1.056658E-17
4.291082E+03	1.566742E-16	1.058284E-17
4.300969E+03	1.569640E-16	1.059724E-17
4.310856E+03	1.572461E-16	1.061110E-17
4.320744E+03	1.575201E-16	1.062438E-17
4.330631E+03	1.577854E-16	1.063704E-17
4.340518E+03	1.580414E-16	1.064905E-17
4.350405E+03	1.582877E-16	1.066039E-17
4.360293E+03	1.585444E-16	1.067240E-17
4.370180E+03	1.587504E-16	1.068097E-17
4.380067E+03	1.589661E-16	1.069017E-17
4.389955E+03	1.591713E-16	1.069865E-17
4.399842E+03	1.593659E-16	1.070639E-17
4.409729E+03	1.595496E-16	1.071338E-17
4.419616E+03	1.597227E-16	1.071963E-17
4.429504E+03	1.598647E-16	1.072379E-17
4.439391E+03	1.600162E-16	1.072856E-17
4.449278E+03	1.601569E-16	1.073259E-17
4.459166E+03	1.602668E-16	1.073454E-17
4.469053E+03	1.603862E-16	1.073712E-17
4.478940E+03	1.604748E-16	1.073762E-17
4.488827E+03	1.605730E-16	1.073875E-17
4.498715E+03	1.606406E-16	1.073782E-17
4.508602E+03	1.606977E-16	1.073618E-17
4.518489E+03	1.607444E-16	1.073383E-17
4.528377E+03	1.608011E-16	1.073215E-17
4.538264E+03	1.608275E-16	1.072844E-17
4.548151E+03	1.608438E-16	1.072405E-17
4.558038E+03	1.608504E-16	1.071900E-17
4.567926E+03	1.608474E-16	1.071331E-17
4.577813E+03	1.608350E-16	1.070699E-17
4.587700E+03	1.607933E-16	1.069872E-17
4.597588E+03	1.607627E-16	1.069118E-17
4.607475E+03	1.607234E-16	1.068307E-17
4.617362E+03	1.606757E-16	1.067440E-17
4.627249E+03	1.606001E-16	1.066387E-17
4.637137E+03	1.605366E-16	1.065415E-17
4.647024E+03	1.604458E-16	1.064263E-17
4.656911E+03	1.603678E-16	1.063195E-17
4.666798E+03	1.602632E-16	1.061952E-17
4.676686E+03	1.601522E-16	1.060668E-17
4.686573E+03	1.600550E-16	1.059474E-17
4.696460E+03	1.599323E-16	1.058114E-17
4.706348E+03	1.598043E-16	1.056718E-17
4.716235E+03	1.596711E-16	1.055290E-17
4.726122E+03	1.595332E-16	1.053831E-17
4.736009E+03	1.593907E-16	1.052342E-17
4.745897E+03	1.592242E-16	1.050697E-17
4.755784E+03	1.590731E-16	1.049154E-17
4.765671E+03	1.589178E-16	1.047585E-17
4.775559E+03	1.587583E-16	1.045989E-17
4.785446E+03	1.585754E-16	1.044241E-17
4.795333E+03	1.584075E-16	1.042593E-17
4.805220E+03	1.582161E-16	1.040791E-17
4.815108E+03	1.580201E-16	1.038961E-17
4.824995E+03	1.578383E-16	1.037226E-17
4.834882E+03	1.576320E-16	1.035332E-17
4.844770E+03	1.574201E-16	1.033402E-17
4.854657E+03	1.572017E-16	1.031432E-17
4.864544E+03	1.569764E-16	1.029419E-17
4.874431E+03	1.567435E-16	1.027357E-17
4.884319E+03	1.565021E-16	1.025242E-17
4.894206E+03	1.562515E-16	1.023069E-17
4.904093E+03	1.559719E-16	1.020709E-17
4.913981E+03	1.556999E-16	1.018401E-17
4.923868E+03	1.554159E-16	1.016017E-17
4.933755E+03	1.550999E-16	1.013427E-17
4.943642E+03	1.547882E-16	1.010867E-17
4.953530E+03	1.544425E-16	1.008088E-17
4.963417E+03	1.540801E-16	1.005203E-17
4.973304E+03	1.536998E-16	1.002206E-17
4.983192E+03	1.533189E-16	9.992078E-18
4.993079E+03	1.528993E-16	9.959606E-18
5.002966E+03	1.524580E-16	9.925762E-18
5.012853E+03	1.519940E-16	9.890478E-18
5.022741E+03	1.514880E-16	9.852503E-18
5.032628E+03	1.509748E-16	9.814108E-18
5.042515E+03	1.504354E-16	9.774054E-18
5.052403E+03	1.498507E-16	9.731110E-18
5.062290E+03	1.492556E-16	9.687533E-18
5.072177E+03	1.486132E-16	9.640948E-18
5.082064E+03	1.479585E-16	9.593610E-18
5.091952E+03	1.472551E-16	9.543182E-18
5.101839E+03	1.465203E-16	9.490772E-18
5.111726E+03	1.457707E-16	9.437471E-18
5.121614E+03	1.449712E-16	9.381000E-18
5.131501E+03	1.441391E-16	9.322488E-18
5.141388E+03	1.432742E-16	9.261925E-18
5.151275E+03	1.423768E-16	9.199328E-18
5.161163E+03	1.414471E-16	9.134721E-18
5.171050E+03	1.404689E-16	9.067063E-18
5.180937E+03	1.394765E-16	8.998564E-18
5.190825E+03	1.384541E-16	8.928211E-18
5.200712E+03	1.373865E-16	8.855026E-18
5.210599E+03	1.363079E-16	8.781212E-18
5.220486E+03	1.351873E-16	8.704784E-18
5.230374E+03	1.340428E-16	8.626904E-18
5.240261E+03	1.328920E-16	8.548712E-18
5.250148E+03	1.317054E-16	8.468305E-18
5.260036E+03	1.305012E-16	8.386853E-18
5.269923E+03	1.292812E-16	8.304487E-18
5.279810E+03	1.280478E-16	8.221354E-18
5.289697E+03	1.268033E-16	8.137597E-18
5.299585E+03	1.255497E-16	8.053348E-18
5.309472E+03	1.242743E-16	7.967799E-18
5.319359E+03	1.230080E-16	7.882931E-18
5.329247E+03	1.217374E-16	7.797878E-18
5.339134E+03	1.204494E-16	7.711800E-18
5.349021E+03	1.191731E-16	7.626573E-18
5.358908E+03	1.178812E-16	7.540436E-18
5.368796E+03	1.165886E-16	7.454348E-18
5.378683E+03	1.153094E-16	7.369210E-18
5.388570E+03	1.140171E-16	7.283333E-18
5.398458E+03	1.127262E-16	7.197631E-18
5.408345E+03	1.114376E-16	7.112169E-18
5.418232E+03	1.101521E-16	7.026998E-18
5.428119E+03	1.088707E-16	6.942179E-18
5.438007E+03	1.075945E-16	6.857777E-18
5.447894E+03	1.063244E-16	6.773860E-18
5.457781E+03	1.050494E-16	6.689716E-18
5.467669E+03	1.037956E-16	6.607007E-18
5.477556E+03	1.025517E-16	6.525016E-18
5.487443E+03	1.013071E-16	6.443066E-18
5.497330E+03	1.000872E-16	6.362773E-18
5.507218E+03	9.886965E-17	6.282716E-18
5.517105E+03	9.766779E-17	6.203735E-18
5.526992E+03	9.649413E-17	6.126626E-18
5.536880E+03	9.532759E-17	6.050048E-18
5.546767E+03	9.418062E-17	5.974792E-18
5.556654E+03	9.305471E-17	5.900948E-18
5.566541E+03	9.195095E-17	5.828584E-18
5.576429E+03	9.087072E-17	5.757785E-18
5.586316E+03	8.981505E-17	5.688614E-18
5.596203E+03	8.878497E-17	5.621135E-18
5.606091E+03	8.778156E-17	5.555412E-18
5.615978E+03	8.679563E-17	5.490863E-18
5.625865E+03	8.584833E-17	5.428823E-18
5.635752E+03	8.493023E-17	5.368694E-18
5.645640E+03	8.403226E-17	5.309898E-18
5.655527E+03	8.317469E-17	5.253716E-18
5.665414E+03	8.233863E-17	5.198950E-18
5.675302E+03	8.154380E-17	5.146844E-18
5.685189E+03	8.077157E-17	5.096219E-18
5.695076E+03	8.003187E-17	5.047699E-18
5.704963E+03	7.932502E-17	5.001302E-18
5.714851E+03	7.866043E-17	4.957619E-18
5.724738E+03	7.801999E-17	4.915506E-18
5.734625E+03	7.741315E-17	4.875556E-18
5.744513E+03	7.684014E-17	4.837781E-18
5.754400E+03	7.630119E-17	4.802193E-18
5.764287E+03	7.578776E-17	4.768252E-18
5.774174E+03	7.531779E-17	4.737084E-18
5.784062E+03	7.488273E-17	4.708151E-18
5.793949E+03	7.448295E-17	4.681472E-18
5.803836E+03	7.411032E-17	4.656534E-18
5.813724E+03	7.378257E-17	4.634450E-18
5.823611E+03	7.349167E-17	4.614712E-18
5.833498E+03	7.322976E-17	4.596825E-18
5.843385E+03	7.301468E-17	4.581906E-18
5.853273E+03	7.283029E-17	4.568941E-18
5.863160E+03	7.268604E-17	4.558521E-18
5.873047E+03	7.259142E-17	4.551238E-18
5.882935E+03	7.253071E-17	4.546104E-18
5.892822E+03	7.251361E-17	4.543726E-18
5.902709E+03	7.254145E-17	4.544184E-18
5.912596E+03	7.262409E-17	4.548096E-18
5.922484E+03	7.274623E-17	4.554498E-18
5.932371E+03	7.291786E-17	4.564016E-18
5.942258E+03	7.314065E-17	4.576752E-18
5.952146E+03	7.341635E-17	4.592813E-18
5.962033E+03	7.374672E-17	4.612308E-18
5.971920E+03	7.412499E-17	4.634810E-18
5.981807E+03	7.457013E-17	4.661505E-18
5.991695E+03	7.507547E-17	4.691972E-18
6.001582E+03	7.564280E-17	4.726324E-18
6.011469E+03	7.626512E-17	4.764118E-18
6.021357E+03	7.696178E-17	4.806564E-18
6.031244E+03	7.772569E-17	4.853216E-18
6.041131E+03	7.854927E-17	4.903599E-18
6.051018E+03	7.945207E-17	4.958933E-18
6.060906E+03	8.041695E-17	5.018145E-18
6.070793E+03	8.146342E-17	5.082454E-18
6.080680E+03	8.257335E-17	5.150725E-18
6.090568E+03	8.375638E-17	5.223559E-18
6.100455E+03	8.502220E-17	5.301560E-18
6.110342E+03	8.635053E-17	5.383463E-18
6.120229E+03	8.774979E-17	5.469791E-18
6.130117E+03	8.922826E-17	5.561063E-18
6.140004E+03	9.076248E-17	5.655813E-18
6.149891E+03	9.235870E-17	5.754434E-18
6.159779E+03	9.401182E-17	5.856607E-18
6.169666E+03	9.571537E-17	5.961932E-18
6.179553E+03	9.746145E-17	6.069915E-18
6.189440E+03	9.924074E-17	6.179979E-18
6.199328E+03	1.010422E-16	6.291438E-18
6.209215E+03	1.028537E-16	6.403532E-18
6.219102E+03	1.046619E-16	6.515440E-18
6.228990E+03	1.064522E-16	6.626251E-18
6.238877E+03	1.081971E-16	6.734259E-18
6.248764E+03	1.099058E-16	6.840031E-18
6.258651E+03	1.115498E-16	6.941805E-18
6.268539E+03	1.131134E-16	7.038600E-18
6.278426E+03	1.145674E-16	7.128608E-18
6.288313E+03	1.159235E-16	7.212549E-18
6.298201E+03	1.171543E-16	7.288729E-18
6.308088E+03	1.182331E-16	7.355487E-18
6.317975E+03	1.191758E-16	7.413815E-18
6.327862E+03	1.199449E-16	7.461381E-18
6.337750E+03	1.205603E-16	7.499426E-18
6.347637E+03	1.209879E-16	7.525828E-18
6.357524E+03	1.212520E-16	7.542095E-18
6.367412E+03	1.213223E-16	7.546353E-18
6.377299E+03	1.212131E-16	7.539485E-18
6.387186E+03	1.209406E-16	7.522505E-18
6.397073E+03	1.204808E-16	7.493908E-18
6.406961E+03	1.198534E-16	7.454930E-18
6.416848E+03	1.190799E-16	7.406898E-18
6.426735E+03	1.181409E-16	7.348613E-18
6.436623E+03	1.170604E-16	7.281556E-18
6.446510E+03	1.158491E-16	7.206400E-18
6.456397E+03	1.145186E-16	7.123860E-18
6.466284E+03	1.130941E-16	7.035502E-18
6.476172E+03	1.115613E-16	6.940435E-18
6.486059E+03	1.099462E-16	6.840274E-18
6.495946E+03	1.082611E-16	6.735783E-18
6.505833E+03	1.065185E-16	6.627730E-18
6.515721E+03	1.047300E-16	6.516847E-18
6.525608E+03	1.029074E-16	6.403855E-18
6.535495E+03	1.010616E-16	6.289432E-18
6.545383E+03	9.920318E-17	6.174236E-18
6.555270E+03	9.733058E-17	6.058169E-18
6.565157E+03	9.547599E-17	5.943233E-18
6.575044E+03	9.363631E-17	5.829231E-18
6.584932E+03	9.181944E-17	5.716656E-18
6.594819E+03	9.003251E-17	5.605948E-18
6.604706E+03	8.827178E-17	5.496875E-18
6.614594E+03	8.656396E-17	5.391099E-18
6.624481E+03	8.490375E-17	5.288287E-18
6.634368E+03	8.329576E-17	5.188730E-18
6.644255E+03	8.173449E-17	5.092081E-18
6.654143E+03	8.024285E-17	4.999769E-18
6.664030E+03	7.880485E-17	4.910798E-18
6.673917E+03	7.744178E-17	4.826494E-18
6.683805E+03	7.614641E-17	4.746407E-18
6.693692E+03	7.491181E-17	4.670107E-18
6.703579E+03	7.375725E-17	4.598794E-18
6.713466E+03	7.266648E-17	4.531457E-18
6.723354E+03	7.165772E-17	4.469234E-18
6.733241E+03	7.071482E-17	4.411117E-18
6.743128E+03	6.985514E-17	4.358191E-18
6.753016E+03	6.906263E-17	4.309458E-18
6.762903E+03	6.834598E-17	4.265459E-18
6.772790E+03	6.771344E-17	4.226712E-18
6.782677E+03	6.714919E-17	4.192232E-18
6.792565E+03	6.666141E-17	4.162530E-18
6.802452E+03	6.625801E-17	4.138104E-18
6.812339E+03	6.592339E-17	4.117981E-18
6.822227E+03	6.566546E-17	4.102658E-18
6.832114E+03	6.548420E-17	4.092136E-18
6.842001E+03	6.537962E-17	4.086418E-18
6.851888E+03	6.535939E-17	4.085986E-18
6.861776E+03	6.540801E-17	4.089874E-18
6.871663E+03	6.553309E-17	4.098562E-18
6.881550E+03	6.573446E-17	4.112040E-18
6.891438E+03	6.601189E-17	4.130300E-18
6.901325E+03	6.636506E-17	4.153322E-18
6.911212E+03	6.679354E-17	4.181085E-18
6.921099E+03	6.729677E-17	4.213555E-18
6.930987E+03	6.787402E-17	4.250692E-18
6.940874E+03	6.852434E-17	4.292440E-18
6.950761E+03	6.924658E-17	4.338729E-18
6.960649E+03	7.003928E-17	4.389472E-18
6.970536E+03	7.090067E-17	4.444563E-18
6.980423E+03	7.182860E-17	4.503870E-18
6.990310E+03	7.281186E-17	4.566693E-18
7.000198E+03	7.386458E-17	4.633924E-18
7.010085E+03	7.497466E-17	4.704806E-18
7.019972E+03	7.613800E-17	4.779085E-18
7.029860E+03	7.734982E-17	4.856466E-18
7.039747E+03	7.859539E-17	4.936027E-18
7.049634E+03	7.988714E-17	5.018550E-18
7.059521E+03	8.120904E-17	5.103032E-18
7.069409E+03	8.254370E-17	5.188383E-18
7.079296E+03	8.390229E-17	5.275306E-18
7.089183E+03	8.525598E-17	5.361991E-18
7.099071E+03	8.661520E-17	5.449095E-18
7.108958E+03	8.795958E-17	5.535336E-18
7.118845E+03	8.926757E-17	5.619359E-18
7.128732E+03	9.054895E-17	5.701779E-18
7.138620E+03	9.177061E-17	5.780508E-18
7.148507E+03	9.293135E-17	5.855470E-18
7.158394E+03	9.403064E-17	5.926627E-18
7.168282E+03	9.503445E-17	5.991833E-18
7.178169E+03	9.595427E-17	6.051805E-18
7.188056E+03	9.675677E-17	6.104437E-18
7.197943E+03	9.744351E-17	6.149820E-18
7.207831E+03	9.801779E-17	6.188158E-18
7.217718E+03	9.844887E-17	6.217500E-18
7.227605E+03	9.874253E-17	6.238203E-18
7.237493E+03	9.889464E-17	6.249998E-18
7.247380E+03	9.890263E-17	6.252714E-18
7.257267E+03	9.877762E-17	6.247044E-18
7.267154E+03	9.849703E-17	6.231549E-18
7.277042E+03	9.807555E-17	6.207151E-18
7.286929E+03	9.751788E-17	6.174134E-18
7.296816E+03	9.683006E-17	6.132874E-18
7.306704E+03	9.601993E-17	6.083856E-18
7.316591E+03	9.509647E-17	6.027641E-18
7.326478E+03	9.406961E-17	5.964849E-18
7.336365E+03	9.295047E-17	5.896178E-18
7.346253E+03	9.175059E-17	5.822352E-18
7.356140E+03	9.048206E-17	5.744132E-18
7.366027E+03	8.914638E-17	5.661606E-18
7.375915E+03	8.777751E-17	5.576928E-18
7.385802E+03	8.637658E-17	5.490165E-18
7.395689E+03	8.495527E-17	5.402057E-18
7.405576E+03	8.351459E-17	5.312664E-18
7.415464E+03	8.208528E-17	5.223939E-18
7.425351E+03	8.066660E-17	5.135836E-18
7.435238E+03	7.925747E-17	5.048284E-18
7.445126E+03	7.788464E-17	4.962989E-18
7.455013E+03	7.654444E-17	4.879717E-18
7.464900E+03	7.523253E-17	4.798193E-18
7.474787E+03	7.397088E-17	4.719820E-18
7.484675E+03	7.274390E-17	4.643605E-18
7.494562E+03	7.157116E-17	4.570801E-18
7.504449E+03	7.043620E-17	4.500359E-18
7.514337E+03	6.934843E-17	4.432883E-18
7.524224E+03	6.831628E-17	4.368915E-18
7.534111E+03	6.732275E-17	4.307372E-18
7.543998E+03	6.637579E-17	4.248764E-18
7.553886E+03	6.548263E-17	4.193559E-18
7.563773E+03	6.462626E-17	4.140670E-18
7.573660E+03	6.381370E-17	4.090550E-18
7.583548E+03	6.304377E-17	4.043126E-18
7.593435E+03	6.231519E-17	3.998321E-18
7.603322E+03	6.162663E-17	3.956050E-18
7.613209E+03	6.098419E-17	3.916709E-18
7.623097E+03	6.037145E-17	3.879247E-18
7.632984E+03	5.979454E-17	3.844061E-18
7.642871E+03	5.925204E-17	3.811061E-18
7.652759E+03	5.873535E-17	3.779698E-18
7.662646E+03	5.825752E-17	3.750812E-18
7.672533E+03	5.780993E-17	3.723853E-18
