#wls	flux	fluxerr
1.581966E+03	6.462327E-17	4.051636E-18
1.621515E+03	6.631797E-17	4.157196E-18
1.661064E+03	6.797790E-17	4.260523E-18
1.700613E+03	6.960843E-17	4.361956E-18
1.740162E+03	7.119035E-17	4.460289E-18
1.779711E+03	7.273228E-17	4.556062E-18
1.819260E+03	7.418545E-17	4.646221E-18
1.858810E+03	7.553234E-17	4.729669E-18
1.898359E+03	7.672521E-17	4.803422E-18
1.937908E+03	7.775584E-17	4.866968E-18
1.977457E+03	7.857747E-17	4.917385E-18
2.017006E+03	7.922265E-17	4.956720E-18
2.056555E+03	7.978597E-17	4.990892E-18
2.096104E+03	8.045651E-17	5.031730E-18
2.135654E+03	8.147788E-17	5.094461E-18
2.175203E+03	8.303771E-17	5.190798E-18
2.214752E+03	8.516634E-17	5.322611E-18
2.254301E+03	8.773755E-17	5.481987E-18
2.293850E+03	9.055891E-17	5.656882E-18
2.333399E+03	9.347511E-17	5.837584E-18
2.372948E+03	9.634348E-17	6.015175E-18
2.412498E+03	9.913643E-17	6.187935E-18
2.452047E+03	1.018162E-16	6.353505E-18
2.491596E+03	1.043795E-16	6.511688E-18
2.531145E+03	1.068326E-16	6.662868E-18
2.570694E+03	1.091841E-16	6.807593E-18
2.610243E+03	1.114607E-16	6.947531E-18
2.649792E+03	1.136533E-16	7.082107E-18
2.689342E+03	1.157863E-16	7.212848E-18
2.728891E+03	1.178471E-16	7.338976E-18
2.768440E+03	1.198394E-16	7.460711E-18
2.807989E+03	1.217843E-16	7.579381E-18
2.847538E+03	1.236654E-16	7.693957E-18
2.887087E+03	1.255028E-16	7.805689E-18
2.926636E+03	1.272781E-16	7.913443E-18
2.966185E+03	1.289915E-16	8.017225E-18
2.976073E+03	1.294215E-16	8.043258E-18
2.985960E+03	1.298273E-16	8.067774E-18
2.995847E+03	1.302472E-16	8.093160E-18
3.005735E+03	1.306620E-16	8.118222E-18
3.015622E+03	1.310717E-16	8.142961E-18
3.025509E+03	1.314763E-16	8.167373E-18
3.035396E+03	1.318765E-16	8.191510E-18
3.045284E+03	1.322715E-16	8.215313E-18
3.055171E+03	1.326854E-16	8.240279E-18
3.065058E+03	1.330787E-16	8.263960E-18
3.074946E+03	1.334895E-16	8.288724E-18
3.084833E+03	1.338784E-16	8.312122E-18
3.094720E+03	1.342840E-16	8.336545E-18
3.104607E+03	1.346863E-16	8.360753E-18
3.114495E+03	1.350847E-16	8.384715E-18
3.124382E+03	1.354595E-16	8.407205E-18
3.134269E+03	1.358688E-16	8.431829E-18
3.144157E+03	1.362538E-16	8.454931E-18
3.154044E+03	1.366337E-16	8.477717E-18
3.163931E+03	1.370082E-16	8.500157E-18
3.173818E+03	1.373968E-16	8.523463E-18
3.183706E+03	1.377600E-16	8.545191E-18
3.193593E+03	1.381369E-16	8.567756E-18
3.203480E+03	1.384881E-16	8.588725E-18
3.213368E+03	1.388528E-16	8.610516E-18
3.223255E+03	1.392111E-16	8.631908E-18
3.233142E+03	1.395631E-16	8.652903E-18
3.243029E+03	1.399086E-16	8.673485E-18
3.252917E+03	1.402475E-16	8.693652E-18
3.262804E+03	1.405800E-16	8.713412E-18
3.272691E+03	1.409057E-16	8.732748E-18
3.282579E+03	1.412445E-16	8.752891E-18
3.292466E+03	1.415571E-16	8.771399E-18
3.302353E+03	1.418827E-16	8.790703E-18
3.312240E+03	1.421820E-16	8.808374E-18
3.322128E+03	1.424944E-16	8.826850E-18
3.332015E+03	1.428001E-16	8.844906E-18
3.341902E+03	1.430994E-16	8.862555E-18
3.351790E+03	1.433923E-16	8.879800E-18
3.361677E+03	1.436786E-16	8.896631E-18
3.371564E+03	1.439586E-16	8.913069E-18
3.381451E+03	1.442322E-16	8.929099E-18
3.391339E+03	1.444996E-16	8.944743E-18
3.401226E+03	1.447804E-16	8.961210E-18
3.411113E+03	1.450356E-16	8.976083E-18
3.421001E+03	1.452846E-16	8.990568E-18
3.430888E+03	1.455474E-16	9.005900E-18
3.440775E+03	1.458044E-16	9.020863E-18
3.450662E+03	1.460359E-16	9.034245E-18
3.460550E+03	1.462814E-16	9.048492E-18
3.470437E+03	1.465213E-16	9.062380E-18
3.480324E+03	1.467558E-16	9.075930E-18
3.490212E+03	1.469848E-16	9.089135E-18
3.500099E+03	1.472086E-16	9.102015E-18
3.509986E+03	1.474274E-16	9.114573E-18
3.519873E+03	1.476411E-16	9.126813E-18
3.529761E+03	1.478499E-16	9.138750E-18
3.539648E+03	1.480734E-16	9.151582E-18
3.549535E+03	1.482728E-16	9.162922E-18
3.559423E+03	1.484871E-16	9.175181E-18
3.569310E+03	1.486776E-16	9.185959E-18
3.579197E+03	1.488833E-16	9.197673E-18
3.589084E+03	1.490655E-16	9.207929E-18
3.598972E+03	1.492631E-16	9.219127E-18
3.608859E+03	1.494569E-16	9.230091E-18
3.618746E+03	1.496470E-16	9.240817E-18
3.628634E+03	1.498336E-16	9.251325E-18
3.638521E+03	1.499975E-16	9.260426E-18
3.648408E+03	1.501776E-16	9.270521E-18
3.658295E+03	1.503546E-16	9.280421E-18
3.668183E+03	1.505480E-16	9.291326E-18
3.678070E+03	1.507195E-16	9.300876E-18
3.687957E+03	1.508886E-16	9.310271E-18
3.697845E+03	1.510554E-16	9.319517E-18
3.707732E+03	1.512200E-16	9.328628E-18
3.717619E+03	1.514019E-16	9.338797E-18
3.727506E+03	1.515629E-16	9.347674E-18
3.737394E+03	1.517224E-16	9.356454E-18
3.747281E+03	1.518996E-16	9.366325E-18
3.757168E+03	1.520569E-16	9.374957E-18
3.767056E+03	1.522322E-16	9.384699E-18
3.776943E+03	1.523880E-16	9.393227E-18
3.786830E+03	1.525622E-16	9.402895E-18
3.796717E+03	1.527175E-16	9.411384E-18
3.806605E+03	1.528917E-16	9.421042E-18
3.816492E+03	1.530663E-16	9.430717E-18
3.826379E+03	1.532227E-16	9.439263E-18
3.836267E+03	1.533988E-16	9.449020E-18
3.846154E+03	1.535761E-16	9.458845E-18
3.856041E+03	1.537549E-16	9.468760E-18
3.865928E+03	1.539166E-16	9.477615E-18
3.875816E+03	1.540991E-16	9.487751E-18
3.885703E+03	1.542840E-16	9.498027E-18
3.895590E+03	1.544717E-16	9.508467E-18
3.905478E+03	1.546622E-16	9.519083E-18
3.915365E+03	1.548374E-16	9.528749E-18
3.925252E+03	1.550350E-16	9.539787E-18
3.935139E+03	1.552366E-16	9.551067E-18
3.945027E+03	1.554425E-16	9.562606E-18
3.954914E+03	1.556530E-16	9.574426E-18
3.964801E+03	1.558686E-16	9.586555E-18
3.974689E+03	1.560895E-16	9.599005E-18
3.984576E+03	1.562974E-16	9.610654E-18
3.994463E+03	1.565300E-16	9.623810E-18
4.004350E+03	1.567686E-16	9.637336E-18
4.014238E+03	1.570138E-16	9.651260E-18
4.024125E+03	1.572656E-16	9.665588E-18
4.034012E+03	1.575243E-16	9.680329E-18
4.043900E+03	1.577716E-16	9.694369E-18
4.053787E+03	1.580445E-16	9.709978E-18
4.063674E+03	1.583248E-16	9.726034E-18
4.073561E+03	1.586125E-16	9.742537E-18
4.083449E+03	1.589077E-16	9.759498E-18
4.093336E+03	1.591919E-16	9.775777E-18
4.103223E+03	1.595019E-16	9.793637E-18
4.113111E+03	1.598192E-16	9.811942E-18
4.122998E+03	1.601254E-16	9.829553E-18
4.132885E+03	1.604569E-16	9.848716E-18
4.142772E+03	1.607952E-16	9.868292E-18
4.152660E+03	1.611214E-16	9.887120E-18
4.162547E+03	1.614721E-16	9.907444E-18
4.172434E+03	1.618101E-16	9.926981E-18
4.182322E+03	1.621717E-16	9.947964E-18
4.192209E+03	1.625194E-16	9.968091E-18
4.202096E+03	1.628712E-16	9.988459E-18
4.211983E+03	1.632448E-16	1.001016E-17
4.221871E+03	1.636027E-16	1.003089E-17
4.231758E+03	1.639626E-16	1.005174E-17
4.241645E+03	1.643237E-16	1.007266E-17
4.251533E+03	1.646853E-16	1.009360E-17
4.261420E+03	1.650649E-16	1.011564E-17
4.271307E+03	1.654249E-16	1.013648E-17
4.281194E+03	1.657831E-16	1.015720E-17
4.291082E+03	1.661201E-16	1.017661E-17
4.300969E+03	1.664724E-16	1.019696E-17
4.310856E+03	1.668209E-16	1.021707E-17
4.320744E+03	1.671650E-16	1.023691E-17
4.330631E+03	1.674858E-16	1.025532E-17
4.340518E+03	1.678203E-16	1.027456E-17
4.350405E+03	1.681311E-16	1.029234E-17
4.360293E+03	1.684552E-16	1.031094E-17
4.370180E+03	1.687557E-16	1.032809E-17
4.380067E+03	1.690696E-16	1.034605E-17
4.389955E+03	1.693601E-16	1.036258E-17
4.399842E+03	1.696461E-16	1.037883E-17
4.409729E+03	1.699274E-16	1.039480E-17
4.419616E+03	1.702045E-16	1.041050E-17
4.429504E+03	1.704775E-16	1.042594E-17
4.439391E+03	1.707466E-16	1.044115E-17
4.449278E+03	1.709934E-16	1.045499E-17
4.459166E+03	1.712549E-16	1.046973E-17
4.469053E+03	1.714942E-16	1.048311E-17
4.478940E+03	1.717482E-16	1.049738E-17
4.488827E+03	1.719799E-16	1.051029E-17
4.498715E+03	1.722075E-16	1.052295E-17
4.508602E+03	1.724493E-16	1.053648E-17
4.518489E+03	1.726682E-16	1.054861E-17
4.528377E+03	1.728823E-16	1.056044E-17
4.538264E+03	1.730916E-16	1.057198E-17
4.548151E+03	1.732772E-16	1.058207E-17
4.558038E+03	1.734758E-16	1.059296E-17
4.567926E+03	1.736505E-16	1.060238E-17
4.577813E+03	1.738378E-16	1.061257E-17
4.587700E+03	1.740009E-16	1.062129E-17
4.597588E+03	1.741765E-16	1.063077E-17
4.607475E+03	1.743278E-16	1.063878E-17
4.617362E+03	1.744730E-16	1.064641E-17
4.627249E+03	1.746122E-16	1.065367E-17
4.637137E+03	1.747270E-16	1.065945E-17
4.647024E+03	1.748538E-16	1.066596E-17
4.656911E+03	1.749741E-16	1.067207E-17
4.666798E+03	1.750697E-16	1.067669E-17
4.676686E+03	1.751585E-16	1.068089E-17
4.686573E+03	1.752587E-16	1.068579E-17
4.696460E+03	1.753334E-16	1.068914E-17
4.706348E+03	1.754009E-16	1.069205E-17
4.716235E+03	1.754610E-16	1.069451E-17
4.726122E+03	1.754956E-16	1.069542E-17
4.736009E+03	1.755406E-16	1.069697E-17
4.745897E+03	1.755598E-16	1.069696E-17
4.755784E+03	1.755893E-16	1.069757E-17
4.765671E+03	1.755926E-16	1.069659E-17
4.775559E+03	1.755876E-16	1.069511E-17
4.785446E+03	1.755738E-16	1.069310E-17
4.795333E+03	1.755508E-16	1.069053E-17
4.805220E+03	1.755180E-16	1.068737E-17
4.815108E+03	1.754571E-16	1.068250E-17
4.824995E+03	1.754029E-16	1.067805E-17
4.834882E+03	1.753194E-16	1.067181E-17
4.844770E+03	1.752234E-16	1.066483E-17
4.854657E+03	1.751144E-16	1.065706E-17
4.864544E+03	1.749916E-16	1.064845E-17
4.874431E+03	1.748541E-16	1.063895E-17
4.884319E+03	1.747013E-16	1.062853E-17
4.894206E+03	1.745147E-16	1.061605E-17
4.904093E+03	1.743285E-16	1.060362E-17
4.913981E+03	1.741067E-16	1.058901E-17
4.923868E+03	1.738656E-16	1.057325E-17
4.933755E+03	1.736042E-16	1.055626E-17
4.943642E+03	1.733211E-16	1.053795E-17
4.953530E+03	1.730149E-16	1.051825E-17
4.963417E+03	1.726844E-16	1.049708E-17
4.973304E+03	1.723112E-16	1.047333E-17
4.983192E+03	1.719284E-16	1.044899E-17
4.993079E+03	1.715008E-16	1.042195E-17
5.002966E+03	1.710447E-16	1.039318E-17
5.012853E+03	1.705595E-16	1.036266E-17
5.022741E+03	1.700450E-16	1.033036E-17
5.032628E+03	1.694838E-16	1.029524E-17
5.042515E+03	1.689098E-16	1.025935E-17
5.052403E+03	1.682895E-16	1.022066E-17
5.062290E+03	1.676563E-16	1.018121E-17
5.072177E+03	1.669774E-16	1.013898E-17
5.082064E+03	1.662694E-16	1.009501E-17
5.091952E+03	1.655322E-16	1.004927E-17
5.101839E+03	1.647490E-16	1.000076E-17
5.111726E+03	1.639522E-16	9.951427E-18
5.121614E+03	1.631091E-16	9.899303E-18
5.131501E+03	1.622521E-16	9.846349E-18
5.141388E+03	1.613490E-16	9.790611E-18
5.151275E+03	1.604158E-16	9.733068E-18
5.161163E+03	1.594527E-16	9.673719E-18
5.171050E+03	1.584593E-16	9.612553E-18
5.180937E+03	1.574204E-16	9.548640E-18
5.190825E+03	1.563668E-16	9.483854E-18
5.200712E+03	1.552681E-16	9.416349E-18
5.210599E+03	1.541553E-16	9.348005E-18
5.220486E+03	1.529989E-16	9.277033E-18
5.230374E+03	1.518150E-16	9.204413E-18
5.240261E+03	1.506053E-16	9.130248E-18
5.250148E+03	1.493570E-16	9.053757E-18
5.260036E+03	1.481016E-16	8.976857E-18
5.269923E+03	1.468125E-16	8.897935E-18
5.279810E+03	1.455210E-16	8.818886E-18
5.289697E+03	1.442011E-16	8.738131E-18
5.299585E+03	1.428689E-16	8.656650E-18
5.309472E+03	1.415262E-16	8.574550E-18
5.319359E+03	1.401741E-16	8.491903E-18
5.329247E+03	1.388137E-16	8.408768E-18
5.339134E+03	1.374320E-16	8.324369E-18
5.349021E+03	1.360566E-16	8.240362E-18
5.358908E+03	1.346608E-16	8.155143E-18
5.368796E+03	1.332583E-16	8.069534E-18
5.378683E+03	1.318490E-16	7.983537E-18
5.388570E+03	1.304335E-16	7.897179E-18
5.398458E+03	1.290120E-16	7.810479E-18
5.408345E+03	1.275854E-16	7.723483E-18
5.418232E+03	1.261423E-16	7.635512E-18
5.428119E+03	1.247085E-16	7.548126E-18
5.438007E+03	1.232615E-16	7.459950E-18
5.447894E+03	1.218268E-16	7.372544E-18
5.457781E+03	1.203829E-16	7.284596E-18
5.467669E+03	1.189440E-16	7.196971E-18
5.477556E+03	1.175122E-16	7.109794E-18
5.487443E+03	1.160787E-16	7.022532E-18
5.497330E+03	1.146681E-16	6.936670E-18
5.507218E+03	1.132708E-16	6.851633E-18
5.517105E+03	1.118778E-16	6.766870E-18
5.526992E+03	1.105015E-16	6.683141E-18
5.536880E+03	1.091537E-16	6.601143E-18
5.546767E+03	1.078145E-16	6.519686E-18
5.556654E+03	1.064955E-16	6.439466E-18
5.566541E+03	1.051980E-16	6.360560E-18
5.576429E+03	1.039131E-16	6.282438E-18
5.586316E+03	1.026626E-16	6.206404E-18
5.596203E+03	1.014384E-16	6.131980E-18
5.606091E+03	1.002336E-16	6.058740E-18
5.615978E+03	9.906040E-17	5.987422E-18
5.625865E+03	9.793060E-17	5.918744E-18
5.635752E+03	9.682756E-17	5.851696E-18
5.645640E+03	9.576276E-17	5.786973E-18
5.655527E+03	9.473773E-17	5.724665E-18
5.665414E+03	9.375356E-17	5.664839E-18
5.675302E+03	9.280221E-17	5.607008E-18
5.685189E+03	9.190203E-17	5.552280E-18
5.695076E+03	9.104428E-17	5.500126E-18
5.704963E+03	9.022034E-17	5.450026E-18
5.714851E+03	8.943892E-17	5.402504E-18
5.724738E+03	8.870829E-17	5.358061E-18
5.734625E+03	8.801106E-17	5.315644E-18
5.744513E+03	8.735543E-17	5.275750E-18
5.754400E+03	8.674094E-17	5.238349E-18
5.764287E+03	8.616707E-17	5.203410E-18
5.774174E+03	8.563320E-17	5.170894E-18
5.784062E+03	8.513055E-17	5.140273E-18
5.793949E+03	8.467490E-17	5.112496E-18
5.803836E+03	8.424955E-17	5.086557E-18
5.813724E+03	8.387037E-17	5.063413E-18
5.823611E+03	8.352116E-17	5.042085E-18
5.833498E+03	8.321810E-17	5.023551E-18
5.843385E+03	8.294560E-17	5.006867E-18
5.853273E+03	8.271228E-17	4.992555E-18
5.863160E+03	8.251904E-17	4.980669E-18
5.873047E+03	8.236703E-17	4.971278E-18
5.882935E+03	8.225756E-17	4.964460E-18
5.892822E+03	8.218424E-17	4.959829E-18
5.902709E+03	8.216440E-17	4.958432E-18
5.912596E+03	8.219190E-17	4.959897E-18
5.922484E+03	8.226065E-17	4.963856E-18
5.932371E+03	8.238831E-17	4.971376E-18
5.942258E+03	8.256114E-17	4.981626E-18
5.952146E+03	8.279713E-17	4.995692E-18
5.962033E+03	8.308275E-17	5.012757E-18
5.971920E+03	8.342828E-17	5.033442E-18
5.981807E+03	8.383621E-17	5.057896E-18
5.991695E+03	8.430905E-17	5.086270E-18
6.001582E+03	8.484932E-17	5.118718E-18
6.011469E+03	8.545951E-17	5.155387E-18
6.021357E+03	8.614206E-17	5.196426E-18
6.031244E+03	8.689933E-17	5.241977E-18
6.041131E+03	8.772517E-17	5.291669E-18
6.051018E+03	8.863844E-17	5.346639E-18
6.060906E+03	8.963277E-17	5.406503E-18
6.070793E+03	9.070110E-17	5.470836E-18
6.080680E+03	9.186207E-17	5.540761E-18
6.090568E+03	9.309900E-17	5.615273E-18
6.100455E+03	9.442071E-17	5.694904E-18
6.110342E+03	9.582668E-17	5.779622E-18
6.120229E+03	9.732491E-17	5.869911E-18
6.130117E+03	9.889455E-17	5.964513E-18
6.140004E+03	1.005415E-16	6.063783E-18
6.149891E+03	1.022610E-16	6.167439E-18
6.159779E+03	1.040468E-16	6.275100E-18
6.169666E+03	1.058911E-16	6.386292E-18
6.179553E+03	1.077842E-16	6.500443E-18
6.189440E+03	1.097150E-16	6.616874E-18
6.199328E+03	1.116593E-16	6.734126E-18
6.209215E+03	1.136235E-16	6.852588E-18
6.219102E+03	1.155796E-16	6.970576E-18
6.228990E+03	1.174980E-16	7.086294E-18
6.238877E+03	1.193807E-16	7.199873E-18
6.248764E+03	1.211841E-16	7.308683E-18
6.258651E+03	1.229099E-16	7.412823E-18
6.268539E+03	1.245138E-16	7.509619E-18
6.278426E+03	1.259874E-16	7.598570E-18
6.288313E+03	1.273244E-16	7.679295E-18
6.298201E+03	1.284838E-16	7.749325E-18
6.308088E+03	1.294639E-16	7.808544E-18
6.317975E+03	1.302531E-16	7.856264E-18
6.327862E+03	1.308555E-16	7.892729E-18
6.337750E+03	1.312407E-16	7.916106E-18
6.347637E+03	1.314190E-16	7.927011E-18
6.357524E+03	1.313911E-16	7.925487E-18
6.367412E+03	1.311604E-16	7.911744E-18
6.377299E+03	1.307326E-16	7.886119E-18
6.387186E+03	1.301033E-16	7.848342E-18
6.397073E+03	1.293071E-16	7.800507E-18
6.406961E+03	1.283424E-16	7.742516E-18
6.416848E+03	1.272212E-16	7.675087E-18
6.426735E+03	1.259442E-16	7.598262E-18
6.436623E+03	1.245488E-16	7.514302E-18
6.446510E+03	1.230363E-16	7.423278E-18
6.456397E+03	1.214081E-16	7.325275E-18
6.466284E+03	1.197010E-16	7.222513E-18
6.476172E+03	1.179045E-16	7.114362E-18
6.486059E+03	1.160542E-16	7.002956E-18
6.495946E+03	1.141392E-16	6.887653E-18
6.505833E+03	1.121932E-16	6.770477E-18
6.515721E+03	1.102053E-16	6.650764E-18
6.525608E+03	1.081963E-16	6.529782E-18
6.535495E+03	1.061865E-16	6.408748E-18
6.545383E+03	1.041644E-16	6.286968E-18
6.555270E+03	1.021496E-16	6.165620E-18
6.565157E+03	1.001503E-16	6.045209E-18
6.575044E+03	9.818443E-17	5.926809E-18
6.584932E+03	9.624015E-17	5.809708E-18
6.594819E+03	9.433429E-17	5.694921E-18
6.604706E+03	9.247341E-17	5.582844E-18
6.614594E+03	9.066354E-17	5.473842E-18
6.624481E+03	8.891006E-17	5.368239E-18
6.634368E+03	8.721765E-17	5.266318E-18
6.644255E+03	8.559035E-17	5.168323E-18
6.654143E+03	8.403143E-17	5.074452E-18
6.664030E+03	8.254350E-17	4.984863E-18
6.673917E+03	8.112064E-17	4.899198E-18
6.683805E+03	7.978028E-17	4.818512E-18
6.693692E+03	7.851546E-17	4.742383E-18
6.703579E+03	7.732692E-17	4.670858E-18
6.713466E+03	7.620788E-17	4.603527E-18
6.723354E+03	7.517391E-17	4.541332E-18
6.733241E+03	7.421802E-17	4.483850E-18
6.743128E+03	7.333362E-17	4.430684E-18
6.753016E+03	7.253579E-17	4.382747E-18
6.762903E+03	7.181793E-17	4.339639E-18
6.772790E+03	7.117374E-17	4.300982E-18
6.782677E+03	7.061789E-17	4.267661E-18
6.792565E+03	7.013706E-17	4.238875E-18
6.802452E+03	6.974567E-17	4.215493E-18
6.812339E+03	6.943046E-17	4.196717E-18
6.822227E+03	6.919878E-17	4.182991E-18
6.832114E+03	6.905791E-17	4.174756E-18
6.842001E+03	6.899476E-17	4.171222E-18
6.851888E+03	6.901671E-17	4.172836E-18
6.861776E+03	6.913115E-17	4.180047E-18
6.871663E+03	6.932513E-17	4.192071E-18
6.881550E+03	6.960610E-17	4.209360E-18
6.891438E+03	6.997471E-17	4.231956E-18
6.901325E+03	7.043156E-17	4.259895E-18
6.911212E+03	7.097719E-17	4.293212E-18
6.921099E+03	7.161914E-17	4.332363E-18
6.930987E+03	7.234358E-17	4.376513E-18
6.940874E+03	7.315764E-17	4.426096E-18
6.950761E+03	7.406125E-17	4.481108E-18
6.960649E+03	7.504670E-17	4.541084E-18
6.970536E+03	7.612814E-17	4.606881E-18
6.980423E+03	7.729728E-17	4.677999E-18
6.990310E+03	7.855265E-17	4.754352E-18
7.000198E+03	7.989223E-17	4.835817E-18
7.010085E+03	8.131346E-17	4.922241E-18
7.019972E+03	8.280486E-17	5.012931E-18
7.029860E+03	8.437879E-17	5.108636E-18
7.039747E+03	8.602247E-17	5.208584E-18
7.049634E+03	8.773033E-17	5.312439E-18
7.059521E+03	8.948696E-17	5.419269E-18
7.069409E+03	9.130242E-17	5.529683E-18
7.079296E+03	9.314990E-17	5.642060E-18
7.089183E+03	9.503774E-17	5.756906E-18
7.099071E+03	9.693586E-17	5.872398E-18
7.108958E+03	9.885069E-17	5.988928E-18
7.118845E+03	1.007484E-16	6.104447E-18
7.128732E+03	1.026232E-16	6.218599E-18
7.138620E+03	1.044682E-16	6.330971E-18
7.148507E+03	1.062443E-16	6.439190E-18
7.158394E+03	1.079418E-16	6.542671E-18
7.168282E+03	1.095398E-16	6.640145E-18
7.178169E+03	1.110283E-16	6.731008E-18
7.188056E+03	1.123640E-16	6.812622E-18
7.197943E+03	1.135372E-16	6.884405E-18
7.207831E+03	1.145291E-16	6.945212E-18
7.217718E+03	1.153226E-16	6.994006E-18
7.227605E+03	1.159043E-16	7.029966E-18
7.237493E+03	1.162639E-16	7.052465E-18
7.247380E+03	1.163962E-16	7.061186E-18
7.257267E+03	1.163014E-16	7.056135E-18
7.267154E+03	1.159730E-16	7.036912E-18
7.277042E+03	1.154428E-16	7.005445E-18
7.286929E+03	1.147109E-16	6.961732E-18
7.296816E+03	1.137906E-16	6.906585E-18
7.306704E+03	1.126862E-16	6.840258E-18
7.316591E+03	1.114369E-16	6.765124E-18
7.326478E+03	1.100375E-16	6.680864E-18
7.336365E+03	1.085277E-16	6.589890E-18
7.346253E+03	1.069029E-16	6.491917E-18
7.356140E+03	1.052024E-16	6.389332E-18
7.366027E+03	1.034217E-16	6.281853E-18
7.375915E+03	1.015881E-16	6.171149E-18
7.385802E+03	9.972799E-17	6.058812E-18
7.395689E+03	9.783640E-17	5.944542E-18
7.405576E+03	9.593814E-17	5.829847E-18
7.415464E+03	9.404686E-17	5.715554E-18
7.425351E+03	9.217497E-17	5.602419E-18
7.435238E+03	9.033350E-17	5.491111E-18
7.445126E+03	8.853194E-17	5.382208E-18
7.455013E+03	8.677799E-17	5.276179E-18
7.464900E+03	8.507760E-17	5.173386E-18
7.474787E+03	8.343507E-17	5.074091E-18
7.484675E+03	8.185333E-17	4.978474E-18
7.494562E+03	8.032603E-17	4.886149E-18
7.504449E+03	7.887077E-17	4.798188E-18
7.514337E+03	7.747956E-17	4.714106E-18
7.524224E+03	7.614436E-17	4.633416E-18
7.534111E+03	7.488030E-17	4.557037E-18
7.543998E+03	7.367086E-17	4.483968E-18
7.553886E+03	7.253001E-17	4.415059E-18
7.563773E+03	7.144118E-17	4.349303E-18
7.573660E+03	7.041022E-17	4.287056E-18
7.583548E+03	6.943522E-17	4.228205E-18
7.593435E+03	6.852122E-17	4.173055E-18
7.603322E+03	6.765188E-17	4.120615E-18
7.613209E+03	6.683214E-17	4.071184E-18
7.623097E+03	6.605972E-17	4.024627E-18
7.632984E+03	6.533235E-17	3.980804E-18
7.642871E+03	6.464776E-17	3.939579E-18
7.652759E+03	6.400375E-17	3.900818E-18
7.662646E+03	6.339159E-17	3.863991E-18
7.672533E+03	6.282248E-17	3.829781E-18
