#wls	flux	fluxerr
1.570383E+03	2.224301E-02	3.247350E-04
1.609642E+03	2.270685E-02	3.309656E-04
1.648902E+03	2.319324E-02	3.374892E-04
1.688161E+03	2.370153E-02	3.442936E-04
1.727421E+03	2.423933E-02	3.514867E-04
1.766680E+03	2.480026E-02	3.589725E-04
1.805940E+03	2.539177E-02	3.668557E-04
1.845200E+03	2.601281E-02	3.751174E-04
1.884459E+03	2.666781E-02	3.838175E-04
1.923719E+03	2.735545E-02	3.929330E-04
1.962978E+03	2.807983E-02	4.025183E-04
2.002238E+03	2.884486E-02	4.126246E-04
2.041497E+03	2.965146E-02	4.232595E-04
2.080757E+03	3.050859E-02	4.345452E-04
2.120016E+03	3.142761E-02	4.466368E-04
2.159276E+03	3.241669E-02	4.596419E-04
2.198536E+03	3.348899E-02	4.737377E-04
2.237795E+03	3.466513E-02	4.892049E-04
2.277055E+03	3.594866E-02	5.060801E-04
2.316314E+03	3.734511E-02	5.244275E-04
2.355574E+03	3.885129E-02	5.441870E-04
2.394833E+03	4.046600E-02	5.653273E-04
2.434093E+03	4.218736E-02	5.878067E-04
2.473353E+03	4.401277E-02	6.115735E-04
2.512612E+03	4.594398E-02	6.366366E-04
2.551872E+03	4.798183E-02	6.629909E-04
2.591131E+03	5.011855E-02	6.905130E-04
2.630391E+03	5.235814E-02	7.192415E-04
2.669650E+03	5.469348E-02	7.490619E-04
2.708910E+03	5.711907E-02	7.798827E-04
2.748170E+03	5.962369E-02	8.115352E-04
2.787429E+03	6.220498E-02	8.439724E-04
2.826689E+03	6.485945E-02	8.771325E-04
2.865948E+03	6.759619E-02	9.111238E-04
2.905208E+03	7.043356E-02	9.461771E-04
2.944467E+03	7.339369E-02	9.825705E-04
2.954282E+03	7.415547E-02	9.919101E-04
2.964097E+03	7.492588E-02	1.001344E-03
2.973912E+03	7.570673E-02	1.010897E-03
2.983727E+03	7.649746E-02	1.020561E-03
2.993542E+03	7.729996E-02	1.030360E-03
3.003357E+03	7.811359E-02	1.040286E-03
3.013172E+03	7.893810E-02	1.050334E-03
3.022986E+03	7.977501E-02	1.060525E-03
3.032801E+03	8.062383E-02	1.070851E-03
3.042616E+03	8.148833E-02	1.081362E-03
3.052431E+03	8.236371E-02	1.091994E-03
3.062246E+03	8.325575E-02	1.102822E-03
3.072061E+03	8.415973E-02	1.113784E-03
3.081876E+03	8.508127E-02	1.124954E-03
3.091691E+03	8.601567E-02	1.136268E-03
3.101506E+03	8.696646E-02	1.147773E-03
3.111320E+03	8.793497E-02	1.159486E-03
3.121135E+03	8.891865E-02	1.171372E-03
3.130950E+03	8.992075E-02	1.183473E-03
3.140765E+03	9.093872E-02	1.195755E-03
3.150580E+03	9.197380E-02	1.208235E-03
3.160395E+03	9.302727E-02	1.220927E-03
3.170210E+03	9.409848E-02	1.233823E-03
3.180025E+03	9.518865E-02	1.246937E-03
3.189840E+03	9.629707E-02	1.260261E-03
3.199655E+03	9.742299E-02	1.273782E-03
3.209469E+03	9.856759E-02	1.287517E-03
3.219284E+03	9.973018E-02	1.301455E-03
3.229099E+03	1.009099E-01	1.315584E-03
3.238914E+03	1.021080E-01	1.329920E-03
3.248729E+03	1.033238E-01	1.344453E-03
3.258544E+03	1.045584E-01	1.359196E-03
3.268359E+03	1.058072E-01	1.374091E-03
3.278174E+03	1.070732E-01	1.389175E-03
3.287989E+03	1.083523E-01	1.404392E-03
3.297803E+03	1.096491E-01	1.419804E-03
3.307618E+03	1.109576E-01	1.435331E-03
3.317433E+03	1.122771E-01	1.450964E-03
3.327248E+03	1.136107E-01	1.466742E-03
3.337063E+03	1.149525E-01	1.482589E-03
3.346878E+03	1.163021E-01	1.498500E-03
3.356693E+03	1.176590E-01	1.514467E-03
3.366508E+03	1.190211E-01	1.530465E-03
3.376323E+03	1.203866E-01	1.546466E-03
3.386137E+03	1.217516E-01	1.562425E-03
3.395952E+03	1.231162E-01	1.578340E-03
3.405767E+03	1.244754E-01	1.594148E-03
3.415582E+03	1.258308E-01	1.609870E-03
3.425397E+03	1.271745E-01	1.625404E-03
3.435212E+03	1.285083E-01	1.640776E-03
3.445027E+03	1.298265E-01	1.655911E-03
3.454842E+03	1.311262E-01	1.670774E-03
3.464657E+03	1.324038E-01	1.685318E-03
3.474471E+03	1.336583E-01	1.699535E-03
3.484286E+03	1.348833E-01	1.713341E-03
3.494101E+03	1.360770E-01	1.726717E-03
3.503916E+03	1.372363E-01	1.739623E-03
3.513731E+03	1.383600E-01	1.752046E-03
3.523546E+03	1.394440E-01	1.763936E-03
3.533361E+03	1.404876E-01	1.775285E-03
3.543176E+03	1.414886E-01	1.786067E-03
3.552991E+03	1.424468E-01	1.796284E-03
3.562805E+03	1.433623E-01	1.805934E-03
3.572620E+03	1.442337E-01	1.815005E-03
3.582435E+03	1.450615E-01	1.823503E-03
3.592250E+03	1.458477E-01	1.831458E-03
3.602065E+03	1.465934E-01	1.838882E-03
3.611880E+03	1.473039E-01	1.845844E-03
3.621695E+03	1.479775E-01	1.852325E-03
3.631510E+03	1.486212E-01	1.858415E-03
3.641325E+03	1.492365E-01	1.864133E-03
3.651140E+03	1.498288E-01	1.869548E-03
3.660954E+03	1.504025E-01	1.874714E-03
3.670769E+03	1.509601E-01	1.879666E-03
3.680584E+03	1.515070E-01	1.884470E-03
3.690399E+03	1.520466E-01	1.889169E-03
3.700214E+03	1.525838E-01	1.893826E-03
3.710029E+03	1.531217E-01	1.898477E-03
3.719844E+03	1.536642E-01	1.903172E-03
3.729659E+03	1.542134E-01	1.907938E-03
3.739474E+03	1.547739E-01	1.912829E-03
3.749288E+03	1.553469E-01	1.917862E-03
3.759103E+03	1.559342E-01	1.923058E-03
3.768918E+03	1.565377E-01	1.928440E-03
3.778733E+03	1.571554E-01	1.933982E-03
3.788548E+03	1.577919E-01	1.939742E-03
3.798363E+03	1.584431E-01	1.945668E-03
3.808178E+03	1.591084E-01	1.951753E-03
3.817993E+03	1.597897E-01	1.958019E-03
3.827808E+03	1.604816E-01	1.964400E-03
3.837622E+03	1.611852E-01	1.970909E-03
3.847437E+03	1.618957E-01	1.977489E-03
3.857252E+03	1.626112E-01	1.984114E-03
3.867067E+03	1.633303E-01	1.990768E-03
3.876882E+03	1.640477E-01	1.997388E-03
3.886697E+03	1.647607E-01	2.003939E-03
3.896512E+03	1.654660E-01	2.010384E-03
3.906327E+03	1.661578E-01	2.016650E-03
3.916142E+03	1.668353E-01	2.022731E-03
3.925956E+03	1.674907E-01	2.028532E-03
3.935771E+03	1.681218E-01	2.034028E-03
3.945586E+03	1.687235E-01	2.039159E-03
3.955401E+03	1.692907E-01	2.043863E-03
3.965216E+03	1.698198E-01	2.048101E-03
3.975031E+03	1.703050E-01	2.051802E-03
3.984846E+03	1.707432E-01	2.054933E-03
3.994661E+03	1.711311E-01	2.057455E-03
4.004476E+03	1.714669E-01	2.059349E-03
4.014290E+03	1.717472E-01	2.060577E-03
4.024105E+03	1.719723E-01	2.061143E-03
4.033920E+03	1.721422E-01	2.061053E-03
4.043735E+03	1.722581E-01	2.060319E-03
4.053550E+03	1.723221E-01	2.058972E-03
4.063365E+03	1.723377E-01	2.057055E-03
4.073180E+03	1.723097E-01	2.054627E-03
4.082995E+03	1.722455E-01	2.051777E-03
4.092810E+03	1.721505E-01	2.048572E-03
4.102625E+03	1.720343E-01	2.045129E-03
4.112439E+03	1.719049E-01	2.041541E-03
4.122254E+03	1.717751E-01	2.037962E-03
4.132069E+03	1.716528E-01	2.034487E-03
4.141884E+03	1.715540E-01	2.031303E-03
4.151699E+03	1.714874E-01	2.028514E-03
4.161514E+03	1.714663E-01	2.026277E-03
4.171329E+03	1.715051E-01	2.024759E-03
4.181144E+03	1.716133E-01	2.024071E-03
4.190959E+03	1.718026E-01	2.024349E-03
4.200773E+03	1.720844E-01	2.025724E-03
4.210588E+03	1.724675E-01	2.028298E-03
4.220403E+03	1.729587E-01	2.032146E-03
4.230218E+03	1.735643E-01	2.037341E-03
4.240033E+03	1.742894E-01	2.043939E-03
4.249848E+03	1.751345E-01	2.051940E-03
4.259663E+03	1.761027E-01	2.061380E-03
4.269478E+03	1.771896E-01	2.072202E-03
4.279293E+03	1.783947E-01	2.084399E-03
4.289107E+03	1.797042E-01	2.097804E-03
4.298922E+03	1.811075E-01	2.112293E-03
4.308737E+03	1.825936E-01	2.127735E-03
4.318552E+03	1.841468E-01	2.143944E-03
4.328367E+03	1.857573E-01	2.160806E-03
4.338182E+03	1.874060E-01	2.178096E-03
4.347997E+03	1.890786E-01	2.195649E-03
4.357812E+03	1.907580E-01	2.213265E-03
4.367627E+03	1.924281E-01	2.230757E-03
4.377441E+03	1.940702E-01	2.247911E-03
4.387256E+03	1.956674E-01	2.264530E-03
4.397071E+03	1.972038E-01	2.280435E-03
4.406886E+03	1.986608E-01	2.295411E-03
4.416701E+03	2.000220E-01	2.309271E-03
4.426516E+03	2.012713E-01	2.321834E-03
4.436331E+03	2.023974E-01	2.332972E-03
4.446146E+03	2.033852E-01	2.342514E-03
4.455961E+03	2.042243E-01	2.350346E-03
4.465775E+03	2.049046E-01	2.356355E-03
4.475590E+03	2.054199E-01	2.360474E-03
4.485405E+03	2.057641E-01	2.362638E-03
4.495220E+03	2.059354E-01	2.362831E-03
4.505035E+03	2.059327E-01	2.361043E-03
4.514850E+03	2.057587E-01	2.357312E-03
4.524665E+03	2.054169E-01	2.351680E-03
4.534480E+03	2.049162E-01	2.344255E-03
4.544295E+03	2.042608E-01	2.335087E-03
4.554109E+03	2.034651E-01	2.324345E-03
4.563924E+03	2.025382E-01	2.312137E-03
4.573739E+03	2.014956E-01	2.298640E-03
4.583554E+03	2.003485E-01	2.283988E-03
4.593369E+03	1.991157E-01	2.268393E-03
4.603184E+03	1.978077E-01	2.251979E-03
4.612999E+03	1.964402E-01	2.234925E-03
4.622814E+03	1.950253E-01	2.217371E-03
4.632629E+03	1.935767E-01	2.199471E-03
4.642444E+03	1.921075E-01	2.181376E-03
4.652258E+03	1.906283E-01	2.163206E-03
4.662073E+03	1.891512E-01	2.145097E-03
4.671888E+03	1.876888E-01	2.127191E-03
4.681703E+03	1.862496E-01	2.109587E-03
4.691518E+03	1.848449E-01	2.092409E-03
4.701333E+03	1.834819E-01	2.075738E-03
4.711148E+03	1.821687E-01	2.059664E-03
4.720963E+03	1.809129E-01	2.044273E-03
4.730778E+03	1.797217E-01	2.029644E-03
4.740592E+03	1.786035E-01	2.015871E-03
4.750407E+03	1.775632E-01	2.003006E-03
4.760222E+03	1.766072E-01	1.991121E-03
4.770037E+03	1.757417E-01	1.980282E-03
4.779852E+03	1.749743E-01	1.970575E-03
4.789667E+03	1.743092E-01	1.962046E-03
4.799482E+03	1.737541E-01	1.954776E-03
4.809297E+03	1.733126E-01	1.948807E-03
4.819112E+03	1.729898E-01	1.944193E-03
4.828926E+03	1.727920E-01	1.941001E-03
4.838741E+03	1.727228E-01	1.939273E-03
4.848556E+03	1.727854E-01	1.939040E-03
4.858371E+03	1.729816E-01	1.940321E-03
4.868186E+03	1.733120E-01	1.943121E-03
4.878001E+03	1.737743E-01	1.947411E-03
4.887816E+03	1.743693E-01	1.953200E-03
4.897631E+03	1.750929E-01	1.960439E-03
4.907446E+03	1.759358E-01	1.969023E-03
4.917260E+03	1.768917E-01	1.978881E-03
4.927075E+03	1.779526E-01	1.989920E-03
4.936890E+03	1.791068E-01	2.002010E-03
4.946705E+03	1.803377E-01	2.014963E-03
4.956520E+03	1.816335E-01	2.028649E-03
4.966335E+03	1.829763E-01	2.042866E-03
4.976150E+03	1.843505E-01	2.057440E-03
4.985965E+03	1.857362E-01	2.072150E-03
4.995780E+03	1.871147E-01	2.086788E-03
5.005594E+03	1.884691E-01	2.101165E-03
5.015409E+03	1.897775E-01	2.115037E-03
5.025224E+03	1.910255E-01	2.128248E-03
5.035039E+03	1.921945E-01	2.140589E-03
5.044854E+03	1.932685E-01	2.151884E-03
5.054669E+03	1.942331E-01	2.161975E-03
5.064484E+03	1.950735E-01	2.170698E-03
5.074299E+03	1.957823E-01	2.177972E-03
5.084114E+03	1.963464E-01	2.183655E-03
5.093929E+03	1.967603E-01	2.187684E-03
5.103743E+03	1.970167E-01	2.189983E-03
5.113558E+03	1.971122E-01	2.190514E-03
5.123373E+03	1.970476E-01	2.189287E-03
5.133188E+03	1.968213E-01	2.186287E-03
5.143003E+03	1.964359E-01	2.181544E-03
5.152818E+03	1.958959E-01	2.175108E-03
5.162633E+03	1.952073E-01	2.167047E-03
5.172448E+03	1.943755E-01	2.157422E-03
5.182263E+03	1.934114E-01	2.146355E-03
5.192077E+03	1.923231E-01	2.133937E-03
5.201892E+03	1.911218E-01	2.120291E-03
5.211707E+03	1.898209E-01	2.105567E-03
5.221522E+03	1.884293E-01	2.089865E-03
5.231337E+03	1.869617E-01	2.073345E-03
5.241152E+03	1.854290E-01	2.056132E-03
5.250967E+03	1.838463E-01	2.038390E-03
5.260782E+03	1.822264E-01	2.020261E-03
5.270597E+03	1.805782E-01	2.001845E-03
5.280411E+03	1.789159E-01	1.983297E-03
5.290226E+03	1.772517E-01	1.964751E-03
5.300041E+03	1.755954E-01	1.946315E-03
5.309856E+03	1.739562E-01	1.928093E-03
5.319671E+03	1.723468E-01	1.910220E-03
5.329486E+03	1.707657E-01	1.892682E-03
5.339301E+03	1.692125E-01	1.875471E-03
5.349116E+03	1.676786E-01	1.858493E-03
5.358931E+03	1.661590E-01	1.841690E-03
5.368745E+03	1.646493E-01	1.825015E-03
5.378560E+03	1.631464E-01	1.808430E-03
5.388375E+03	1.616479E-01	1.791911E-03
5.398190E+03	1.601546E-01	1.775462E-03
5.408005E+03	1.586643E-01	1.759060E-03
5.417820E+03	1.571778E-01	1.742713E-03
5.427635E+03	1.556944E-01	1.726414E-03
5.437450E+03	1.542191E-01	1.710215E-03
5.447265E+03	1.527523E-01	1.694122E-03
5.457079E+03	1.512948E-01	1.678141E-03
5.466894E+03	1.498491E-01	1.662301E-03
5.476709E+03	1.484192E-01	1.646646E-03
5.486524E+03	1.470061E-01	1.631186E-03
5.496339E+03	1.456124E-01	1.615948E-03
5.506154E+03	1.442401E-01	1.600956E-03
5.515969E+03	1.428914E-01	1.586231E-03
5.525784E+03	1.415680E-01	1.571794E-03
5.535599E+03	1.402714E-01	1.557661E-03
5.545414E+03	1.390026E-01	1.543842E-03
5.555228E+03	1.377609E-01	1.530329E-03
5.565043E+03	1.365479E-01	1.517140E-03
5.574858E+03	1.353621E-01	1.504256E-03
5.584673E+03	1.342040E-01	1.491685E-03
5.594488E+03	1.330723E-01	1.479412E-03
5.604303E+03	1.319641E-01	1.467401E-03
5.614118E+03	1.308783E-01	1.455644E-03
5.623933E+03	1.298124E-01	1.444111E-03
5.633748E+03	1.287620E-01	1.432753E-03
5.643562E+03	1.277252E-01	1.421549E-03
5.653377E+03	1.266988E-01	1.410461E-03
5.663192E+03	1.256778E-01	1.399436E-03
5.673007E+03	1.246604E-01	1.388451E-03
5.682822E+03	1.236445E-01	1.377486E-03
5.692637E+03	1.226246E-01	1.366475E-03
5.702452E+03	1.215994E-01	1.355406E-03
5.712267E+03	1.205681E-01	1.344268E-03
5.722082E+03	1.195275E-01	1.333027E-03
5.731896E+03	1.184763E-01	1.321667E-03
5.741711E+03	1.174154E-01	1.310197E-03
5.751526E+03	1.163441E-01	1.298610E-03
5.761341E+03	1.152627E-01	1.286909E-03
5.771156E+03	1.141717E-01	1.275098E-03
5.780971E+03	1.130719E-01	1.263185E-03
5.790786E+03	1.119657E-01	1.251199E-03
5.800601E+03	1.108540E-01	1.239149E-03
5.810416E+03	1.097371E-01	1.227036E-03
5.820230E+03	1.086189E-01	1.214906E-03
5.830045E+03	1.074994E-01	1.202757E-03
5.839860E+03	1.063826E-01	1.190634E-03
5.849675E+03	1.052673E-01	1.178524E-03
5.859490E+03	1.041574E-01	1.166469E-03
5.869305E+03	1.030542E-01	1.154486E-03
5.879120E+03	1.019592E-01	1.142589E-03
5.888935E+03	1.008749E-01	1.130807E-03
5.898750E+03	9.980280E-02	1.119157E-03
5.908564E+03	9.874565E-02	1.107670E-03
5.918379E+03	9.770498E-02	1.096362E-03
5.928194E+03	9.668252E-02	1.085253E-03
5.938009E+03	9.568258E-02	1.074392E-03
5.947824E+03	9.470707E-02	1.063801E-03
5.957639E+03	9.375803E-02	1.053501E-03
5.967454E+03	9.283881E-02	1.043532E-03
5.977269E+03	9.195266E-02	1.033929E-03
5.987084E+03	9.110313E-02	1.024734E-03
5.996898E+03	9.029347E-02	1.015982E-03
6.006713E+03	8.952575E-02	1.007698E-03
6.016528E+03	8.880417E-02	9.999294E-04
6.026343E+03	8.813293E-02	9.927236E-04
6.036158E+03	8.751332E-02	9.860959E-04
6.045973E+03	8.695007E-02	9.801002E-04
6.055788E+03	8.644385E-02	9.747446E-04
6.065603E+03	8.599287E-02	9.700096E-04
6.075418E+03	8.559474E-02	9.658687E-04
6.085233E+03	8.525025E-02	9.623317E-04
6.095047E+03	8.495525E-02	9.593519E-04
6.104862E+03	8.470966E-02	9.569292E-04
6.114677E+03	8.451100E-02	9.550363E-04
6.124492E+03	8.435643E-02	9.536414E-04
6.134307E+03	8.424513E-02	9.527358E-04
6.144122E+03	8.417273E-02	9.522706E-04
6.153937E+03	8.413816E-02	9.522342E-04
6.163752E+03	8.413796E-02	9.525878E-04
6.173567E+03	8.417078E-02	9.533166E-04
6.183381E+03	8.423290E-02	9.543787E-04
6.193196E+03	8.432054E-02	9.557318E-04
6.203011E+03	8.443087E-02	9.573442E-04
6.212826E+03	8.456244E-02	9.591994E-04
6.222641E+03	8.470992E-02	9.612374E-04
6.232456E+03	8.487030E-02	9.634242E-04
6.242271E+03	8.503929E-02	9.657113E-04
6.252086E+03	8.521275E-02	9.680518E-04
6.261901E+03	8.538743E-02	9.704087E-04
6.271715E+03	8.555649E-02	9.727043E-04
6.281530E+03	8.571806E-02	9.749172E-04
6.291345E+03	8.586795E-02	9.769997E-04
6.301160E+03	8.600692E-02	9.789605E-04
6.310975E+03	8.613117E-02	9.807558E-04
6.320790E+03	8.624191E-02	9.823993E-04
6.330605E+03	8.633433E-02	9.838360E-04
6.340420E+03	8.641042E-02	9.850880E-04
6.350235E+03	8.646440E-02	9.860895E-04
6.360049E+03	8.649896E-02	9.868705E-04
6.369864E+03	8.651023E-02	9.873866E-04
6.379679E+03	8.649872E-02	9.876432E-04
6.389494E+03	8.646252E-02	9.876183E-04
6.399309E+03	8.640135E-02	9.873080E-04
6.409124E+03	8.631532E-02	9.867134E-04
6.418939E+03	8.620462E-02	9.858362E-04
6.428754E+03	8.606989E-02	9.846833E-04
6.438569E+03	8.591045E-02	9.832464E-04
6.448383E+03	8.572741E-02	9.815381E-04
6.458198E+03	8.552149E-02	9.795661E-04
6.468013E+03	8.529179E-02	9.773199E-04
6.477828E+03	8.504125E-02	9.748325E-04
6.487643E+03	8.476622E-02	9.720620E-04
6.497458E+03	8.447003E-02	9.690461E-04
6.507273E+03	8.415212E-02	9.657780E-04
6.517088E+03	8.381340E-02	9.622679E-04
6.526903E+03	8.345364E-02	9.585129E-04
6.536718E+03	8.307695E-02	9.545597E-04
6.546532E+03	8.268191E-02	9.503919E-04
6.556347E+03	8.227014E-02	9.460277E-04
6.566162E+03	8.184460E-02	9.415011E-04
6.575977E+03	8.140692E-02	9.368305E-04
6.585792E+03	8.095759E-02	9.320214E-04
6.595607E+03	8.049956E-02	9.271074E-04
6.605422E+03	8.003344E-02	9.220957E-04
6.615237E+03	7.956097E-02	9.170061E-04
6.625052E+03	7.908521E-02	9.118739E-04
6.634866E+03	7.860658E-02	9.067036E-04
6.644681E+03	7.812674E-02	9.015145E-04
6.654496E+03	7.764873E-02	8.963416E-04
6.664311E+03	7.717400E-02	8.912018E-04
6.674126E+03	7.670138E-02	8.860814E-04
6.683941E+03	7.623494E-02	8.810277E-04
6.693756E+03	7.577586E-02	8.760544E-04
6.703571E+03	7.532401E-02	8.711599E-04
6.713386E+03	7.488182E-02	8.663724E-04
6.723200E+03	7.444893E-02	8.616882E-04
6.733015E+03	7.402744E-02	8.571314E-04
6.742830E+03	7.361688E-02	8.526968E-04
6.752645E+03	7.321912E-02	8.484064E-04
6.762460E+03	7.283481E-02	8.442677E-04
6.772275E+03	7.246308E-02	8.402707E-04
6.782090E+03	7.210553E-02	8.364345E-04
6.791905E+03	7.176235E-02	8.327612E-04
6.801720E+03	7.143378E-02	8.292539E-04
6.811534E+03	7.111841E-02	8.258964E-04
6.821349E+03	7.081871E-02	8.227176E-04
6.831164E+03	7.053191E-02	8.196855E-04
6.840979E+03	7.026021E-02	8.168258E-04
6.850794E+03	7.000038E-02	8.141014E-04
6.860609E+03	6.975450E-02	8.115363E-04
6.870424E+03	6.952039E-02	8.091055E-04
6.880239E+03	6.929595E-02	8.067848E-04
6.890054E+03	6.908265E-02	8.045914E-04
6.899868E+03	6.887952E-02	8.025140E-04
6.909683E+03	6.868262E-02	8.005072E-04
6.919498E+03	6.849338E-02	7.985874E-04
6.929313E+03	6.831042E-02	7.967389E-04
6.939128E+03	6.813115E-02	7.949314E-04
6.948943E+03	6.795400E-02	7.931466E-04
6.958758E+03	6.778039E-02	7.914014E-04
6.968573E+03	6.760618E-02	7.896473E-04
6.978388E+03	6.743007E-02	7.878693E-04
6.988203E+03	6.725343E-02	7.860832E-04
6.998017E+03	6.707368E-02	7.842590E-04
7.007832E+03	6.688824E-02	7.823665E-04
7.017647E+03	6.669881E-02	7.804255E-04
7.027462E+03	6.650306E-02	7.784089E-04
7.037277E+03	6.630141E-02	7.763213E-04
7.047092E+03	6.609179E-02	7.741387E-04
7.056907E+03	6.587353E-02	7.718530E-04
7.066722E+03	6.564754E-02	7.694748E-04
7.076537E+03	6.541339E-02	7.669990E-04
7.086351E+03	6.517083E-02	7.644227E-04
7.096166E+03	6.491975E-02	7.617446E-04
7.105981E+03	6.465884E-02	7.589490E-04
7.115796E+03	6.439086E-02	7.560685E-04
7.125611E+03	6.411478E-02	7.530909E-04
7.135426E+03	6.383227E-02	7.500355E-04
7.145241E+03	6.354106E-02	7.468760E-04
7.155056E+03	6.324444E-02	7.436507E-04
7.164871E+03	6.294303E-02	7.403670E-04
7.174685E+03	6.263480E-02	7.370010E-04
7.184500E+03	6.232325E-02	7.335938E-04
7.194315E+03	6.200780E-02	7.301387E-04
7.204130E+03	6.168796E-02	7.266297E-04
7.213945E+03	6.136593E-02	7.230929E-04
7.223760E+03	6.104121E-02	7.195225E-04
7.233575E+03	6.071333E-02	7.159127E-04
7.243390E+03	6.038313E-02	7.122735E-04
7.253205E+03	6.005007E-02	7.085986E-04
7.263019E+03	5.971494E-02	7.048974E-04
7.272834E+03	5.937580E-02	7.011469E-04
7.282649E+03	5.903199E-02	6.973393E-04
7.292464E+03	5.868552E-02	6.934983E-04
7.302279E+03	5.833562E-02	6.896150E-04
7.312094E+03	5.798418E-02	6.857114E-04
7.321909E+03	5.763565E-02	6.818406E-04
7.331724E+03	5.728909E-02	6.779912E-04
7.341539E+03	5.694618E-02	6.741832E-04
7.351353E+03	5.660981E-02	6.704511E-04
7.361168E+03	5.628022E-02	6.667977E-04
7.370983E+03	5.595620E-02	6.632088E-04
7.380798E+03	5.564185E-02	6.597333E-04
7.390613E+03	5.533456E-02	6.563402E-04
7.400428E+03	5.503569E-02	6.530458E-04
7.410243E+03	5.474522E-02	6.498501E-04
7.420058E+03	5.446313E-02	6.467531E-04
7.429873E+03	5.418937E-02	6.437541E-04
7.439687E+03	5.392522E-02	6.408686E-04
7.449502E+03	5.366797E-02	6.380646E-04
7.459317E+03	5.342022E-02	6.353732E-04
7.469132E+03	5.317926E-02	6.327622E-04
7.478947E+03	5.294771E-02	6.302628E-04
7.488762E+03	5.272284E-02	6.278431E-04
7.498577E+03	5.250595E-02	6.255184E-04
7.508392E+03	5.229701E-02	6.232885E-04
7.518207E+03	5.209463E-02	6.211371E-04
7.528022E+03	5.190010E-02	6.190798E-04
7.537836E+03	5.171341E-02	6.171163E-04
7.547651E+03	5.153448E-02	6.152463E-04
7.557466E+03	5.136197E-02	6.134536E-04
7.567281E+03	5.119582E-02	6.117376E-04
7.577096E+03	5.103733E-02	6.101142E-04
7.586911E+03	5.088644E-02	6.085828E-04
7.596726E+03	5.074311E-02	6.071430E-04
7.606541E+03	5.060729E-02	6.057945E-04
7.616356E+03	5.047759E-02	6.045208E-04
