#wls	flux	fluxerr
1.570383E+03	1.011026E-02	4.591338E-04
1.609642E+03	1.019915E-02	4.627438E-04
1.648902E+03	1.028943E-02	4.663982E-04
1.688161E+03	1.038266E-02	4.701667E-04
1.727421E+03	1.047866E-02	4.740411E-04
1.766680E+03	1.057898E-02	4.780901E-04
1.805940E+03	1.068347E-02	4.823053E-04
1.845200E+03	1.079190E-02	4.866762E-04
1.884459E+03	1.090934E-02	4.914286E-04
1.923719E+03	1.103556E-02	4.965512E-04
1.962978E+03	1.117035E-02	5.020321E-04
2.002238E+03	1.131697E-02	5.080159E-04
2.041497E+03	1.147691E-02	5.145661E-04
2.080757E+03	1.165513E-02	5.219021E-04
2.120016E+03	1.184953E-02	5.299258E-04
2.159276E+03	1.206673E-02	5.389295E-04
2.198536E+03	1.230449E-02	5.488078E-04
2.237795E+03	1.256227E-02	5.595312E-04
2.277055E+03	1.284118E-02	5.711445E-04
2.316314E+03	1.313699E-02	5.834545E-04
2.355574E+03	1.345070E-02	5.965008E-04
2.394833E+03	1.378147E-02	6.102405E-04
2.434093E+03	1.412667E-02	6.245523E-04
2.473353E+03	1.448534E-02	6.393894E-04
2.512612E+03	1.485652E-02	6.547046E-04
2.551872E+03	1.524091E-02	6.705235E-04
2.591131E+03	1.563403E-02	6.866449E-04
2.630391E+03	1.603823E-02	7.031678E-04
2.669650E+03	1.645244E-02	7.200398E-04
2.708910E+03	1.687720E-02	7.372811E-04
2.748170E+03	1.731472E-02	7.549826E-04
2.787429E+03	1.776381E-02	7.730867E-04
2.826689E+03	1.822167E-02	7.914668E-04
2.865948E+03	1.868077E-02	8.097920E-04
2.905208E+03	1.914345E-02	8.281604E-04
2.944467E+03	1.960565E-02	8.463938E-04
2.954282E+03	1.971982E-02	8.508743E-04
2.964097E+03	1.983577E-02	8.554239E-04
2.973912E+03	1.995191E-02	8.599749E-04
2.983727E+03	2.006823E-02	8.645259E-04
2.993542E+03	2.018471E-02	8.690764E-04
3.003357E+03	2.030135E-02	8.736261E-04
3.013172E+03	2.041814E-02	8.781746E-04
3.022986E+03	2.053505E-02	8.827207E-04
3.032801E+03	2.065361E-02	8.873302E-04
3.042616E+03	2.077227E-02	8.919360E-04
3.052431E+03	2.089101E-02	8.965375E-04
3.062246E+03	2.101134E-02	9.011992E-04
3.072061E+03	2.113173E-02	9.058554E-04
3.081876E+03	2.125366E-02	9.105697E-04
3.091691E+03	2.137712E-02	9.153410E-04
3.101506E+03	2.150056E-02	9.201036E-04
3.111320E+03	2.162549E-02	9.249212E-04
3.121135E+03	2.175336E-02	9.298562E-04
3.130950E+03	2.188115E-02	9.347794E-04
3.140765E+03	2.201182E-02	9.398169E-04
3.150580E+03	2.214237E-02	9.448402E-04
3.160395E+03	2.227721E-02	9.500378E-04
3.170210E+03	2.241334E-02	9.552813E-04
3.180025E+03	2.255073E-02	9.605691E-04
3.189840E+03	2.269228E-02	9.660245E-04
3.199655E+03	2.283501E-02	9.715206E-04
3.209469E+03	2.298178E-02	9.771788E-04
3.219284E+03	2.313109E-02	9.829355E-04
3.229099E+03	2.328435E-02	9.888494E-04
3.238914E+03	2.344005E-02	9.948563E-04
3.248729E+03	2.359956E-02	1.001015E-03
3.258544E+03	2.376426E-02	1.007382E-03
3.268359E+03	2.393264E-02	1.013894E-03
3.278174E+03	2.410604E-02	1.020608E-03
3.287989E+03	2.428439E-02	1.027519E-03
3.297803E+03	2.446759E-02	1.034623E-03
3.307618E+03	2.465697E-02	1.041977E-03
3.317433E+03	2.485242E-02	1.049573E-03
3.327248E+03	2.505384E-02	1.057409E-03
3.337063E+03	2.526250E-02	1.065537E-03
3.346878E+03	2.547827E-02	1.073951E-03
3.356693E+03	2.570379E-02	1.082760E-03
3.366508E+03	2.593615E-02	1.091844E-03
3.376323E+03	2.617795E-02	1.101309E-03
3.386137E+03	2.643039E-02	1.111205E-03
3.395952E+03	2.669326E-02	1.121523E-03
3.405767E+03	2.696776E-02	1.132312E-03
3.415582E+03	2.725500E-02	1.143618E-03
3.425397E+03	2.755341E-02	1.155373E-03
3.435212E+03	2.786812E-02	1.167792E-03
3.445027E+03	2.819619E-02	1.180751E-03
3.454842E+03	2.854000E-02	1.194346E-03
3.464657E+03	2.889926E-02	1.208565E-03
3.474471E+03	2.927628E-02	1.223504E-03
3.484286E+03	2.966942E-02	1.239091E-03
3.494101E+03	3.007836E-02	1.255313E-03
3.503916E+03	3.050144E-02	1.272098E-03
3.513731E+03	3.093964E-02	1.289486E-03
3.523546E+03	3.139004E-02	1.307353E-03
3.533361E+03	3.185357E-02	1.325739E-03
3.543176E+03	3.232859E-02	1.344572E-03
3.552991E+03	3.281478E-02	1.363839E-03
3.562805E+03	3.330924E-02	1.383417E-03
3.572620E+03	3.381413E-02	1.403397E-03
3.582435E+03	3.432533E-02	1.423605E-03
3.592250E+03	3.484372E-02	1.444078E-03
3.602065E+03	3.536770E-02	1.464749E-03
3.611880E+03	3.589689E-02	1.485601E-03
3.621695E+03	3.642847E-02	1.506517E-03
3.631510E+03	3.696449E-02	1.527582E-03
3.641325E+03	3.750213E-02	1.548678E-03
3.651140E+03	3.804098E-02	1.569788E-03
3.660954E+03	3.857946E-02	1.590847E-03
3.670769E+03	3.911716E-02	1.611839E-03
3.680584E+03	3.965249E-02	1.632696E-03
3.690399E+03	4.018621E-02	1.653452E-03
3.700214E+03	4.071556E-02	1.673991E-03
3.710029E+03	4.124012E-02	1.694299E-03
3.719844E+03	4.175950E-02	1.714357E-03
3.729659E+03	4.227326E-02	1.734150E-03
3.739474E+03	4.277872E-02	1.753568E-03
3.749288E+03	4.327776E-02	1.772688E-03
3.759103E+03	4.376659E-02	1.791355E-03
3.768918E+03	4.424599E-02	1.809603E-03
3.778733E+03	4.471450E-02	1.827372E-03
3.788548E+03	4.517183E-02	1.844652E-03
3.798363E+03	4.561769E-02	1.861432E-03
3.808178E+03	4.605075E-02	1.877658E-03
3.817993E+03	4.646975E-02	1.893281E-03
3.827808E+03	4.687566E-02	1.908341E-03
3.837622E+03	4.726734E-02	1.922792E-03
3.847437E+03	4.764372E-02	1.936594E-03
3.857252E+03	4.800494E-02	1.949753E-03
3.867067E+03	4.835116E-02	1.962276E-03
3.876882E+03	4.868161E-02	1.974134E-03
3.886697E+03	4.899564E-02	1.985302E-03
3.896512E+03	4.929476E-02	1.995844E-03
3.906327E+03	4.957851E-02	2.005741E-03
3.916142E+03	4.984758E-02	2.015022E-03
3.925956E+03	5.010174E-02	2.023681E-03
3.935771E+03	5.034087E-02	2.031714E-03
3.945586E+03	5.056599E-02	2.039163E-03
3.955401E+03	5.077912E-02	2.046111E-03
3.965216E+03	5.097948E-02	2.052528E-03
3.975031E+03	5.116735E-02	2.058426E-03
3.984846E+03	5.134592E-02	2.063935E-03
3.994661E+03	5.151466E-02	2.069035E-03
4.004476E+03	5.167404E-02	2.073745E-03
4.014290E+03	5.182644E-02	2.078162E-03
4.024105E+03	5.197239E-02	2.082308E-03
4.033920E+03	5.211338E-02	2.086243E-03
4.043735E+03	5.225089E-02	2.090027E-03
4.053550E+03	5.238461E-02	2.093647E-03
4.063365E+03	5.251690E-02	2.097199E-03
4.073180E+03	5.264922E-02	2.100741E-03
4.082995E+03	5.278208E-02	2.104294E-03
4.092810E+03	5.291599E-02	2.107877E-03
4.102625E+03	5.305400E-02	2.111612E-03
4.112439E+03	5.319562E-02	2.115479E-03
4.122254E+03	5.334290E-02	2.119560E-03
4.132069E+03	5.349609E-02	2.123863E-03
4.141884E+03	5.365706E-02	2.128463E-03
4.151699E+03	5.382506E-02	2.133329E-03
4.161514E+03	5.400341E-02	2.138591E-03
4.171329E+03	5.419118E-02	2.144213E-03
4.181144E+03	5.438980E-02	2.150249E-03
4.190959E+03	5.459893E-02	2.156686E-03
4.200773E+03	5.482141E-02	2.163634E-03
4.210588E+03	5.505581E-02	2.171036E-03
4.220403E+03	5.530387E-02	2.178959E-03
4.230218E+03	5.556554E-02	2.187400E-03
4.240033E+03	5.584226E-02	2.196414E-03
4.249848E+03	5.613206E-02	2.205923E-03
4.259663E+03	5.643774E-02	2.216035E-03
4.269478E+03	5.675873E-02	2.226726E-03
4.279293E+03	5.709435E-02	2.237968E-03
4.289107E+03	5.744628E-02	2.249825E-03
4.298922E+03	5.781461E-02	2.262300E-03
4.308737E+03	5.819849E-02	2.275358E-03
4.318552E+03	5.859940E-02	2.289055E-03
4.328367E+03	5.901627E-02	2.303348E-03
4.338182E+03	5.944861E-02	2.318215E-03
4.347997E+03	5.989743E-02	2.333696E-03
4.357812E+03	6.036025E-02	2.349691E-03
4.367627E+03	6.083607E-02	2.366160E-03
4.377441E+03	6.132203E-02	2.382991E-03
4.387256E+03	6.181507E-02	2.400065E-03
4.397071E+03	6.231195E-02	2.417254E-03
4.406886E+03	6.280930E-02	2.434427E-03
4.416701E+03	6.330356E-02	2.451447E-03
4.426516E+03	6.379112E-02	2.468174E-03
4.436331E+03	6.426825E-02	2.484465E-03
4.446146E+03	6.473040E-02	2.500145E-03
4.455961E+03	6.517388E-02	2.515073E-03
4.465775E+03	6.559587E-02	2.529143E-03
4.475590E+03	6.599206E-02	2.542190E-03
4.485405E+03	6.635995E-02	2.554121E-03
4.495220E+03	6.669650E-02	2.564822E-03
4.505035E+03	6.699811E-02	2.574158E-03
4.514850E+03	6.726397E-02	2.582101E-03
4.524665E+03	6.749039E-02	2.588513E-03
4.534480E+03	6.767820E-02	2.593430E-03
4.544295E+03	6.782451E-02	2.596746E-03
4.554109E+03	6.792938E-02	2.598466E-03
4.563924E+03	6.799407E-02	2.598645E-03
4.573739E+03	6.801787E-02	2.597257E-03
4.583554E+03	6.800285E-02	2.594387E-03
4.593369E+03	6.795067E-02	2.590101E-03
4.603184E+03	6.786248E-02	2.584448E-03
4.612999E+03	6.774134E-02	2.577547E-03
4.622814E+03	6.759050E-02	2.569526E-03
4.632629E+03	6.741258E-02	2.560487E-03
4.642444E+03	6.721033E-02	2.550536E-03
4.652258E+03	6.698888E-02	2.539872E-03
4.662073E+03	6.675101E-02	2.528601E-03
4.671888E+03	6.650100E-02	2.516887E-03
4.681703E+03	6.624228E-02	2.504861E-03
4.691518E+03	6.597815E-02	2.492649E-03
4.701333E+03	6.571254E-02	2.480400E-03
4.711148E+03	6.544695E-02	2.468169E-03
4.720963E+03	6.518206E-02	2.455985E-03
4.730778E+03	6.491990E-02	2.443921E-03
4.740592E+03	6.466231E-02	2.432048E-03
4.750407E+03	6.440957E-02	2.420375E-03
4.760222E+03	6.416328E-02	2.408963E-03
4.770037E+03	6.392491E-02	2.397865E-03
4.779852E+03	6.369512E-02	2.387106E-03
4.789667E+03	6.347517E-02	2.376732E-03
4.799482E+03	6.326627E-02	2.366788E-03
4.809297E+03	6.306956E-02	2.357315E-03
4.819112E+03	6.288544E-02	2.348327E-03
4.828926E+03	6.271638E-02	2.339914E-03
4.838741E+03	6.256208E-02	2.332065E-03
4.848556E+03	6.242497E-02	2.324868E-03
4.858371E+03	6.230480E-02	2.318313E-03
4.868186E+03	6.220404E-02	2.312489E-03
4.878001E+03	6.212314E-02	2.307411E-03
4.887816E+03	6.206325E-02	2.303121E-03
4.897631E+03	6.202622E-02	2.299685E-03
4.907446E+03	6.201320E-02	2.297143E-03
4.917260E+03	6.202538E-02	2.295537E-03
4.927075E+03	6.206323E-02	2.294882E-03
4.936890E+03	6.212918E-02	2.295266E-03
4.946705E+03	6.222299E-02	2.296677E-03
4.956520E+03	6.234697E-02	2.299197E-03
4.966335E+03	6.250204E-02	2.302857E-03
4.976150E+03	6.268837E-02	2.307662E-03
4.985965E+03	6.290732E-02	2.313657E-03
4.995780E+03	6.315948E-02	2.320862E-03
5.005594E+03	6.344530E-02	2.329291E-03
5.015409E+03	6.376505E-02	2.338949E-03
5.025224E+03	6.411820E-02	2.349814E-03
5.035039E+03	6.450668E-02	2.361955E-03
5.044854E+03	6.492824E-02	2.375285E-03
5.054669E+03	6.538379E-02	2.389835E-03
5.064484E+03	6.587201E-02	2.405553E-03
5.074299E+03	6.639271E-02	2.422431E-03
5.084114E+03	6.694417E-02	2.440401E-03
5.093929E+03	6.752580E-02	2.459441E-03
5.103743E+03	6.813541E-02	2.479468E-03
5.113558E+03	6.877204E-02	2.500444E-03
5.123373E+03	6.943379E-02	2.522299E-03
5.133188E+03	7.011789E-02	2.544930E-03
5.143003E+03	7.082280E-02	2.568279E-03
5.152818E+03	7.154611E-02	2.592257E-03
5.162633E+03	7.228452E-02	2.616744E-03
5.172448E+03	7.303604E-02	2.641668E-03
5.182263E+03	7.379785E-02	2.666924E-03
5.192077E+03	7.456702E-02	2.692407E-03
5.201892E+03	7.533972E-02	2.717979E-03
5.211707E+03	7.611291E-02	2.743531E-03
5.221522E+03	7.688406E-02	2.768970E-03
5.231337E+03	7.764924E-02	2.794158E-03
5.241152E+03	7.840586E-02	2.819002E-03
5.250967E+03	7.914984E-02	2.843357E-03
5.260782E+03	7.987863E-02	2.867132E-03
5.270597E+03	8.058795E-02	2.890178E-03
5.280411E+03	8.127362E-02	2.912345E-03
5.290226E+03	8.193375E-02	2.933569E-03
5.300041E+03	8.256388E-02	2.953695E-03
5.309856E+03	8.315978E-02	2.972572E-03
5.319671E+03	8.371930E-02	2.990130E-03
5.329486E+03	8.423698E-02	3.006175E-03
5.339301E+03	8.470965E-02	3.020600E-03
5.349116E+03	8.513233E-02	3.033230E-03
5.358931E+03	8.550187E-02	3.043960E-03
5.368745E+03	8.581376E-02	3.052631E-03
5.378560E+03	8.606524E-02	3.059153E-03
5.388375E+03	8.625254E-02	3.063396E-03
5.398190E+03	8.637285E-02	3.065266E-03
5.408005E+03	8.642507E-02	3.064730E-03
5.417820E+03	8.640765E-02	3.061738E-03
5.427635E+03	8.631802E-02	3.056206E-03
5.437450E+03	8.615844E-02	3.048219E-03
5.447265E+03	8.592870E-02	3.037776E-03
5.457079E+03	8.562894E-02	3.024887E-03
5.466894E+03	8.526280E-02	3.009687E-03
5.476709E+03	8.483094E-02	2.992203E-03
5.486524E+03	8.433911E-02	2.972644E-03
5.496339E+03	8.378897E-02	2.951072E-03
5.506154E+03	8.318551E-02	2.927669E-03
5.515969E+03	8.253308E-02	2.902589E-03
5.525784E+03	8.183628E-02	2.875999E-03
5.535599E+03	8.110015E-02	2.848080E-03
5.545414E+03	8.032965E-02	2.819007E-03
5.555228E+03	7.953052E-02	2.788984E-03
5.565043E+03	7.870717E-02	2.758168E-03
5.574858E+03	7.786589E-02	2.726780E-03
5.584673E+03	7.700905E-02	2.694904E-03
5.594488E+03	7.614349E-02	2.662780E-03
5.604303E+03	7.527263E-02	2.630528E-03
5.614118E+03	7.439945E-02	2.598253E-03
5.623933E+03	7.352903E-02	2.566131E-03
5.633748E+03	7.266296E-02	2.534216E-03
5.643562E+03	7.180540E-02	2.502654E-03
5.653377E+03	7.095798E-02	2.471501E-03
5.663192E+03	7.012264E-02	2.440821E-03
5.673007E+03	6.930096E-02	2.410671E-03
5.682822E+03	6.849417E-02	2.381090E-03
5.692637E+03	6.770390E-02	2.352134E-03
5.702452E+03	6.693004E-02	2.323798E-03
5.712267E+03	6.617297E-02	2.296095E-03
5.722082E+03	6.543283E-02	2.269026E-03
5.731896E+03	6.470958E-02	2.242589E-03
5.741711E+03	6.400302E-02	2.216777E-03
5.751526E+03	6.331284E-02	2.191576E-03
5.761341E+03	6.263863E-02	2.166973E-03
5.771156E+03	6.197995E-02	2.142949E-03
5.780971E+03	6.133569E-02	2.119465E-03
5.790786E+03	6.070602E-02	2.096527E-03
5.800601E+03	6.009048E-02	2.074117E-03
5.810416E+03	5.948742E-02	2.052177E-03
5.820230E+03	5.889768E-02	2.030735E-03
5.830045E+03	5.832035E-02	2.009759E-03
5.839860E+03	5.775456E-02	1.989218E-03
5.849675E+03	5.720072E-02	1.969125E-03
5.859490E+03	5.665809E-02	1.949454E-03
5.869305E+03	5.612715E-02	1.930220E-03
5.879120E+03	5.560671E-02	1.911382E-03
5.888935E+03	5.509734E-02	1.892959E-03
5.898750E+03	5.459905E-02	1.874949E-03
5.908564E+03	5.411188E-02	1.857355E-03
5.918379E+03	5.363479E-02	1.840139E-03
5.928194E+03	5.316899E-02	1.823342E-03
5.938009E+03	5.271344E-02	1.806927E-03
5.947824E+03	5.226937E-02	1.790937E-03
5.957639E+03	5.183577E-02	1.775336E-03
5.967454E+03	5.141388E-02	1.760165E-03
5.977269E+03	5.100273E-02	1.745392E-03
5.987084E+03	5.060303E-02	1.731039E-03
5.996898E+03	5.021548E-02	1.717130E-03
6.006713E+03	4.984032E-02	1.703672E-03
6.016528E+03	4.947776E-02	1.690672E-03
6.026343E+03	4.912812E-02	1.678141E-03
6.036158E+03	4.879226E-02	1.666106E-03
6.045973E+03	4.847109E-02	1.654599E-03
6.055788E+03	4.816555E-02	1.643651E-03
6.065603E+03	4.787614E-02	1.633279E-03
6.075418E+03	4.760389E-02	1.623517E-03
6.085233E+03	4.734889E-02	1.614367E-03
6.095047E+03	4.711222E-02	1.605866E-03
6.104862E+03	4.689349E-02	1.598000E-03
6.114677E+03	4.669333E-02	1.590790E-03
6.124492E+03	4.651179E-02	1.584237E-03
6.134307E+03	4.634943E-02	1.578360E-03
6.144122E+03	4.620618E-02	1.573156E-03
6.153937E+03	4.608290E-02	1.568654E-03
6.163752E+03	4.597933E-02	1.564845E-03
6.173567E+03	4.589507E-02	1.561714E-03
6.183381E+03	4.583053E-02	1.559277E-03
6.193196E+03	4.578498E-02	1.557508E-03
6.203011E+03	4.575846E-02	1.556408E-03
6.212826E+03	4.574983E-02	1.555938E-03
6.222641E+03	4.575776E-02	1.556053E-03
6.232456E+03	4.578218E-02	1.556751E-03
6.242271E+03	4.582084E-02	1.557956E-03
6.252086E+03	4.587231E-02	1.559619E-03
6.261901E+03	4.593497E-02	1.561686E-03
6.271715E+03	4.600706E-02	1.564096E-03
6.281530E+03	4.608669E-02	1.566786E-03
6.291345E+03	4.617136E-02	1.569672E-03
6.301160E+03	4.625903E-02	1.572684E-03
6.310975E+03	4.634760E-02	1.575751E-03
6.320790E+03	4.643502E-02	1.578805E-03
6.330605E+03	4.651926E-02	1.581776E-03
6.340420E+03	4.659838E-02	1.584599E-03
6.350235E+03	4.667056E-02	1.587213E-03
6.360049E+03	4.673519E-02	1.589596E-03
6.369864E+03	4.679077E-02	1.591697E-03
6.379679E+03	4.683656E-02	1.593491E-03
6.389494E+03	4.687196E-02	1.594958E-03
6.399309E+03	4.689667E-02	1.596084E-03
6.409124E+03	4.690942E-02	1.596829E-03
6.418939E+03	4.691082E-02	1.597212E-03
6.428754E+03	4.690055E-02	1.597220E-03
6.438569E+03	4.687839E-02	1.596847E-03
6.448383E+03	4.684426E-02	1.596089E-03
6.458198E+03	4.679914E-02	1.594978E-03
6.468013E+03	4.674167E-02	1.593467E-03
6.477828E+03	4.667328E-02	1.591605E-03
6.487643E+03	4.659314E-02	1.589363E-03
6.497458E+03	4.650110E-02	1.586734E-03
6.507273E+03	4.639710E-02	1.583715E-03
6.517088E+03	4.628173E-02	1.580327E-03
6.526903E+03	4.615571E-02	1.576592E-03
6.536718E+03	4.601871E-02	1.572498E-03
6.546532E+03	4.587106E-02	1.568057E-03
6.556347E+03	4.571434E-02	1.563320E-03
6.566162E+03	4.554793E-02	1.558266E-03
6.575977E+03	4.537298E-02	1.552933E-03
6.585792E+03	4.519072E-02	1.547363E-03
6.595607E+03	4.500071E-02	1.541540E-03
6.605422E+03	4.480543E-02	1.535548E-03
6.615237E+03	4.460450E-02	1.529372E-03
6.625052E+03	4.439872E-02	1.523041E-03
6.634866E+03	4.419005E-02	1.516619E-03
6.644681E+03	4.397816E-02	1.510095E-03
6.654496E+03	4.376441E-02	1.503516E-03
6.664311E+03	4.354959E-02	1.496908E-03
6.674126E+03	4.333447E-02	1.490297E-03
6.683941E+03	4.311980E-02	1.483707E-03
6.693756E+03	4.290685E-02	1.477183E-03
6.703571E+03	4.269514E-02	1.470708E-03
6.713386E+03	4.248647E-02	1.464342E-03
6.723200E+03	4.228083E-02	1.458086E-03
6.733015E+03	4.207879E-02	1.451959E-03
6.742830E+03	4.188083E-02	1.445977E-03
6.752645E+03	4.168742E-02	1.440156E-03
6.762460E+03	4.149953E-02	1.434530E-03
6.772275E+03	4.131695E-02	1.429092E-03
6.782090E+03	4.113999E-02	1.423852E-03
6.791905E+03	4.096952E-02	1.418840E-03
6.801720E+03	4.080461E-02	1.414024E-03
6.811534E+03	4.064660E-02	1.409451E-03
6.821349E+03	4.049509E-02	1.405106E-03
6.831164E+03	4.035021E-02	1.400995E-03
6.840979E+03	4.021207E-02	1.397121E-03
6.850794E+03	4.008074E-02	1.393487E-03
6.860609E+03	3.995687E-02	1.390116E-03
6.870424E+03	3.983935E-02	1.386970E-03
6.880239E+03	3.972880E-02	1.384069E-03
6.890054E+03	3.962580E-02	1.381436E-03
6.899868E+03	3.952923E-02	1.379030E-03
6.909683E+03	3.943908E-02	1.376851E-03
6.919498E+03	3.935647E-02	1.374940E-03
6.929313E+03	3.928026E-02	1.373257E-03
6.939128E+03	3.921098E-02	1.371820E-03
6.948943E+03	3.914857E-02	1.370627E-03
6.958758E+03	3.909243E-02	1.369658E-03
6.968573E+03	3.904247E-02	1.368910E-03
6.978388E+03	3.899916E-02	1.368400E-03
6.988203E+03	3.896183E-02	1.368105E-03
6.998017E+03	3.893036E-02	1.368020E-03
7.007832E+03	3.890458E-02	1.368141E-03
7.017647E+03	3.888491E-02	1.368481E-03
7.027462E+03	3.887001E-02	1.368995E-03
7.037277E+03	3.886025E-02	1.369695E-03
7.047092E+03	3.885482E-02	1.370553E-03
7.056907E+03	3.885464E-02	1.371602E-03
7.066722E+03	3.885772E-02	1.372772E-03
7.076537E+03	3.886494E-02	1.374094E-03
7.086351E+03	3.887547E-02	1.375539E-03
7.096166E+03	3.888962E-02	1.377118E-03
7.105981E+03	3.890592E-02	1.378779E-03
7.115796E+03	3.892469E-02	1.380534E-03
7.125611E+03	3.894509E-02	1.382353E-03
7.135426E+03	3.896743E-02	1.384247E-03
7.145241E+03	3.899087E-02	1.386186E-03
7.155056E+03	3.901580E-02	1.388183E-03
7.164871E+03	3.904079E-02	1.390189E-03
7.174685E+03	3.906625E-02	1.392218E-03
7.184500E+03	3.909202E-02	1.394263E-03
7.194315E+03	3.911734E-02	1.396298E-03
7.204130E+03	3.914208E-02	1.398318E-03
7.213945E+03	3.916675E-02	1.400341E-03
7.223760E+03	3.919007E-02	1.402321E-03
7.233575E+03	3.921260E-02	1.404278E-03
7.243390E+03	3.923369E-02	1.406188E-03
7.253205E+03	3.925396E-02	1.408074E-03
7.263019E+03	3.927222E-02	1.409893E-03
7.272834E+03	3.928911E-02	1.411667E-03
7.282649E+03	3.930409E-02	1.413378E-03
7.292464E+03	3.931725E-02	1.415026E-03
7.302279E+03	3.932866E-02	1.416617E-03
7.312094E+03	3.933907E-02	1.418174E-03
7.321909E+03	3.934735E-02	1.419660E-03
7.331724E+03	3.935549E-02	1.421143E-03
7.341539E+03	3.936239E-02	1.422586E-03
7.351353E+03	3.936881E-02	1.424015E-03
7.361168E+03	3.937487E-02	1.425434E-03
7.370983E+03	3.938134E-02	1.426871E-03
7.380798E+03	3.938772E-02	1.428308E-03
7.390613E+03	3.939474E-02	1.429772E-03
7.400428E+03	3.940251E-02	1.431267E-03
7.410243E+03	3.941114E-02	1.432796E-03
7.420058E+03	3.942068E-02	1.434361E-03
7.429873E+03	3.943122E-02	1.435966E-03
7.439687E+03	3.944341E-02	1.437635E-03
7.449502E+03	3.945666E-02	1.439346E-03
7.459317E+03	3.947162E-02	1.441122E-03
7.469132E+03	3.948763E-02	1.442941E-03
7.478947E+03	3.950531E-02	1.444824E-03
7.488762E+03	3.952462E-02	1.446771E-03
7.498577E+03	3.954551E-02	1.448779E-03
7.508392E+03	3.956789E-02	1.450846E-03
7.518207E+03	3.959167E-02	1.452968E-03
7.528022E+03	3.961675E-02	1.455142E-03
7.537836E+03	3.964301E-02	1.457364E-03
7.547651E+03	3.967098E-02	1.459652E-03
7.557466E+03	3.969919E-02	1.461954E-03
7.567281E+03	3.972882E-02	1.464313E-03
7.577096E+03	3.975907E-02	1.466698E-03
7.586911E+03	3.978974E-02	1.469104E-03
7.596726E+03	3.982069E-02	1.471524E-03
7.606541E+03	3.985174E-02	1.473953E-03
7.616356E+03	3.988271E-02	1.476383E-03
