#wls	flux	fluxerr
1.570383E+03	6.793359E-03	1.972238E-04
1.609642E+03	6.849528E-03	1.987305E-04
1.648902E+03	6.905844E-03	2.002359E-04
1.688161E+03	6.964619E-03	2.018068E-04
1.727421E+03	7.024565E-03	2.034058E-04
1.766680E+03	7.088031E-03	2.051005E-04
1.805940E+03	7.152488E-03	2.068173E-04
1.845200E+03	7.221522E-03	2.086597E-04
1.884459E+03	7.295076E-03	2.106255E-04
1.923719E+03	7.373045E-03	2.127111E-04
1.962978E+03	7.457848E-03	2.149859E-04
2.002238E+03	7.549389E-03	2.174462E-04
2.041497E+03	7.650083E-03	2.201610E-04
2.080757E+03	7.759818E-03	2.231259E-04
2.120016E+03	7.881007E-03	2.264094E-04
2.159276E+03	8.016035E-03	2.300787E-04
2.198536E+03	8.162190E-03	2.340546E-04
2.237795E+03	8.321805E-03	2.384027E-04
2.277055E+03	8.492078E-03	2.430412E-04
2.316314E+03	8.673987E-03	2.479967E-04
2.355574E+03	8.864660E-03	2.531857E-04
2.394833E+03	9.063738E-03	2.585968E-04
2.434093E+03	9.270834E-03	2.642175E-04
2.473353E+03	9.485539E-03	2.700349E-04
2.512612E+03	9.707437E-03	2.760360E-04
2.551872E+03	9.934813E-03	2.821706E-04
2.591131E+03	1.016724E-02	2.884254E-04
2.630391E+03	1.040425E-02	2.947863E-04
2.669650E+03	1.064795E-02	3.013113E-04
2.708910E+03	1.089661E-02	3.079505E-04
2.748170E+03	1.115228E-02	3.147604E-04
2.787429E+03	1.141327E-02	3.216920E-04
2.826689E+03	1.167795E-02	3.286980E-04
2.865948E+03	1.194351E-02	3.356980E-04
2.905208E+03	1.220844E-02	3.426492E-04
2.944467E+03	1.247253E-02	3.495449E-04
2.954282E+03	1.253919E-02	3.512814E-04
2.964097E+03	1.260524E-02	3.529991E-04
2.973912E+03	1.267191E-02	3.547317E-04
2.983727E+03	1.273796E-02	3.564453E-04
2.993542E+03	1.280461E-02	3.581734E-04
3.003357E+03	1.287185E-02	3.599157E-04
3.013172E+03	1.293848E-02	3.616389E-04
3.022986E+03	1.300568E-02	3.633761E-04
3.032801E+03	1.307345E-02	3.651269E-04
3.042616E+03	1.314060E-02	3.668582E-04
3.052431E+03	1.320948E-02	3.686358E-04
3.062246E+03	1.327774E-02	3.703936E-04
3.072061E+03	1.334770E-02	3.721969E-04
3.081876E+03	1.341704E-02	3.739801E-04
3.091691E+03	1.348805E-02	3.758081E-04
3.101506E+03	1.355958E-02	3.776480E-04
3.111320E+03	1.363160E-02	3.794994E-04
3.121135E+03	1.370527E-02	3.813940E-04
3.130950E+03	1.377942E-02	3.832997E-04
3.140765E+03	1.385517E-02	3.852476E-04
3.150580E+03	1.393137E-02	3.872054E-04
3.160395E+03	1.401029E-02	3.892362E-04
3.170210E+03	1.408962E-02	3.912759E-04
3.180025E+03	1.417048E-02	3.933553E-04
3.189840E+03	1.425398E-02	3.955055E-04
3.199655E+03	1.433897E-02	3.976939E-04
3.209469E+03	1.442541E-02	3.999201E-04
3.219284E+03	1.451552E-02	4.022453E-04
3.229099E+03	1.460703E-02	4.046060E-04
3.238914E+03	1.470102E-02	4.070325E-04
3.248729E+03	1.479745E-02	4.095234E-04
3.258544E+03	1.489741E-02	4.121088E-04
3.268359E+03	1.500083E-02	4.147868E-04
3.278174E+03	1.510656E-02	4.175253E-04
3.287989E+03	1.521678E-02	4.203843E-04
3.297803E+03	1.533142E-02	4.233619E-04
3.307618E+03	1.544931E-02	4.264256E-04
3.317433E+03	1.557149E-02	4.296038E-04
3.327248E+03	1.569900E-02	4.329254E-04
3.337063E+03	1.583176E-02	4.363875E-04
3.346878E+03	1.596860E-02	4.399578E-04
3.356693E+03	1.611271E-02	4.437239E-04
3.366508E+03	1.626182E-02	4.476232E-04
3.376323E+03	1.641800E-02	4.517124E-04
3.386137E+03	1.658116E-02	4.559887E-04
3.395952E+03	1.675226E-02	4.604779E-04
3.405767E+03	1.693009E-02	4.651472E-04
3.415582E+03	1.711671E-02	4.700522E-04
3.425397E+03	1.731196E-02	4.751883E-04
3.435212E+03	1.751571E-02	4.805514E-04
3.445027E+03	1.772887E-02	4.861665E-04
3.454842E+03	1.795235E-02	4.920580E-04
3.464657E+03	1.818598E-02	4.982206E-04
3.474471E+03	1.842958E-02	5.046491E-04
3.484286E+03	1.868402E-02	5.113670E-04
3.494101E+03	1.894806E-02	5.183397E-04
3.503916E+03	1.922360E-02	5.256185E-04
3.513731E+03	1.950834E-02	5.331406E-04
3.523546E+03	1.980207E-02	5.408998E-04
3.533361E+03	2.010563E-02	5.489181E-04
3.543176E+03	2.041878E-02	5.571889E-04
3.552991E+03	2.073924E-02	5.656495E-04
3.562805E+03	2.106882E-02	5.743488E-04
3.572620E+03	2.140524E-02	5.832245E-04
3.582435E+03	2.174926E-02	5.922966E-04
3.592250E+03	2.209959E-02	6.015302E-04
3.602065E+03	2.245697E-02	6.109446E-04
3.611880E+03	2.281911E-02	6.204772E-04
3.621695E+03	2.318670E-02	6.301468E-04
3.631510E+03	2.355941E-02	6.399442E-04
3.641325E+03	2.393691E-02	6.498599E-04
3.651140E+03	2.431687E-02	6.598304E-04
3.660954E+03	2.470088E-02	6.698988E-04
3.670769E+03	2.508658E-02	6.800011E-04
3.680584E+03	2.547357E-02	6.901262E-04
3.690399E+03	2.586237E-02	7.002879E-04
3.700214E+03	2.625059E-02	7.104217E-04
3.702668E+03	2.001383E-02	5.415634E-04
3.704140E+03	2.003006E-02	5.419595E-04
3.705612E+03	1.990913E-02	5.386442E-04
3.707084E+03	1.987604E-02	5.377056E-04
3.708557E+03	1.986144E-02	5.372678E-04
3.710029E+03	1.987767E-02	5.376635E-04
3.711501E+03	1.991702E-02	5.386847E-04
3.712973E+03	1.991321E-02	5.385383E-04
3.714446E+03	1.995718E-02	5.396842E-04
3.715918E+03	1.993487E-02	5.390373E-04
3.717390E+03	1.991718E-02	5.385156E-04
3.718862E+03	2.023561E-02	5.470812E-04
3.720334E+03	2.062499E-02	5.575634E-04
3.721807E+03	2.083861E-02	5.632929E-04
3.723279E+03	2.091963E-02	5.654374E-04
3.724751E+03	2.108393E-02	5.698323E-04
3.726223E+03	2.129297E-02	5.754355E-04
3.727696E+03	2.138635E-02	5.779124E-04
3.729168E+03	2.145043E-02	5.795972E-04
3.730640E+03	2.149909E-02	5.808651E-04
3.732112E+03	2.167886E-02	5.856746E-04
3.733585E+03	2.178306E-02	5.884421E-04
3.735057E+03	2.199987E-02	5.942508E-04
3.736529E+03	2.235399E-02	6.037672E-04
3.738001E+03	2.251838E-02	6.081580E-04
3.739474E+03	2.265811E-02	6.118819E-04
3.740946E+03	2.298605E-02	6.206877E-04
3.742418E+03	2.327237E-02	6.283680E-04
3.743890E+03	2.338590E-02	6.313822E-04
3.745362E+03	2.353184E-02	6.352705E-04
3.746835E+03	2.371636E-02	6.401999E-04
3.748307E+03	2.381911E-02	6.429212E-04
3.749779E+03	2.396199E-02	6.467252E-04
3.751251E+03	2.422216E-02	6.536937E-04
3.752724E+03	2.401783E-02	6.481264E-04
3.754196E+03	2.417615E-02	6.523457E-04
3.755668E+03	2.432677E-02	6.563563E-04
3.757140E+03	2.469193E-02	6.661543E-04
3.758613E+03	2.461414E-02	6.640013E-04
3.760085E+03	2.479720E-02	6.688848E-04
3.761557E+03	2.518403E-02	6.792637E-04
3.763029E+03	2.566504E-02	6.921811E-04
3.764502E+03	2.592225E-02	6.990606E-04
3.765974E+03	2.582286E-02	6.963233E-04
3.767446E+03	2.567714E-02	6.923373E-04
3.768918E+03	2.560398E-02	6.903080E-04
3.770390E+03	2.565432E-02	6.916084E-04
3.771863E+03	2.612309E-02	7.041882E-04
3.773335E+03	2.641587E-02	7.120220E-04
3.774807E+03	2.602924E-02	7.015431E-04
3.776279E+03	2.595607E-02	6.995133E-04
3.777752E+03	2.585817E-02	6.968177E-04
3.779224E+03	2.564753E-02	6.910846E-04
3.780696E+03	2.565308E-02	6.911772E-04
3.782168E+03	2.569260E-02	6.921850E-04
3.783641E+03	2.582788E-02	6.957722E-04
3.785113E+03	2.598015E-02	6.998166E-04
3.786585E+03	2.614325E-02	7.041518E-04
3.788057E+03	2.619514E-02	7.054912E-04
3.789529E+03	2.630573E-02	7.084112E-04
3.791002E+03	2.645184E-02	7.122873E-04
3.792474E+03	2.647131E-02	7.127524E-04
3.793946E+03	2.637181E-02	7.100146E-04
3.795418E+03	2.632174E-02	7.086079E-04
3.796891E+03	2.650030E-02	7.133561E-04
3.798363E+03	2.666498E-02	7.177296E-04
3.799835E+03	2.651757E-02	7.137026E-04
3.801307E+03	2.651383E-02	7.135429E-04
3.802780E+03	2.657190E-02	7.150465E-04
3.804252E+03	2.636265E-02	7.093566E-04
3.805724E+03	2.647171E-02	7.122320E-04
3.807196E+03	2.692073E-02	7.242529E-04
3.808669E+03	2.714107E-02	7.301201E-04
3.810141E+03	2.726561E-02	7.334093E-04
3.811613E+03	2.731751E-02	7.347442E-04
3.813085E+03	2.739723E-02	7.368272E-04
3.814557E+03	2.759596E-02	7.421101E-04
3.816030E+03	2.785652E-02	7.490547E-04
3.817502E+03	2.808928E-02	7.552507E-04
3.818974E+03	2.836842E-02	7.626924E-04
3.820446E+03	2.862130E-02	7.694270E-04
3.821919E+03	2.887264E-02	7.761190E-04
3.823391E+03	2.908999E-02	7.818961E-04
3.824863E+03	2.925015E-02	7.861353E-04
3.826335E+03	2.949379E-02	7.926172E-04
3.827808E+03	2.971735E-02	7.985585E-04
3.829280E+03	2.983115E-02	8.015495E-04
3.830752E+03	2.990784E-02	8.035429E-04
3.832224E+03	3.014689E-02	8.098976E-04
3.833696E+03	3.042460E-02	8.172897E-04
3.835169E+03	3.044873E-02	8.178696E-04
3.836641E+03	3.078831E-02	8.269214E-04
3.838113E+03	3.117430E-02	8.372181E-04
3.839585E+03	3.125566E-02	8.393329E-04
3.841058E+03	3.138806E-02	8.428175E-04
3.842530E+03	3.157150E-02	8.476719E-04
3.844002E+03	3.178123E-02	8.532314E-04
3.845474E+03	3.214409E-02	8.629003E-04
3.846947E+03	3.221310E-02	8.646802E-04
3.848419E+03	3.242904E-02	8.704033E-04
3.849891E+03	3.289866E-02	8.829336E-04
3.851363E+03	3.326466E-02	8.926812E-04
3.852836E+03	3.342651E-02	8.969489E-04
3.854308E+03	3.345533E-02	8.976465E-04
3.855780E+03	3.338050E-02	8.955632E-04
3.857252E+03	3.366301E-02	9.030665E-04
3.858724E+03	3.394553E-02	9.105686E-04
3.860197E+03	3.424817E-02	9.186092E-04
3.861669E+03	3.440231E-02	9.226655E-04
3.863141E+03	3.446053E-02	9.241488E-04
3.864613E+03	3.466727E-02	9.296145E-04
3.866086E+03	3.484307E-02	9.342496E-04
3.867558E+03	3.499258E-02	9.381789E-04
3.869030E+03	3.520089E-02	9.436839E-04
3.870502E+03	3.538445E-02	9.485245E-04
3.871975E+03	3.567324E-02	9.561846E-04
3.873447E+03	3.588930E-02	9.618944E-04
3.874919E+03	3.608061E-02	9.669397E-04
3.876391E+03	3.596553E-02	9.637738E-04
3.877863E+03	3.577614E-02	9.586173E-04
3.879336E+03	3.582816E-02	9.599297E-04
3.880808E+03	3.597769E-02	9.638539E-04
3.882280E+03	3.602817E-02	9.651241E-04
3.883752E+03	3.606781E-02	9.661038E-04
3.885225E+03	3.608887E-02	9.665856E-04
3.886697E+03	3.617648E-02	9.688496E-04
3.888169E+03	3.626254E-02	9.710718E-04
3.889641E+03	3.609476E-02	9.664962E-04
3.891114E+03	3.607246E-02	9.658168E-04
3.892586E+03	3.607646E-02	9.658416E-04
3.894058E+03	3.606034E-02	9.653277E-04
3.895530E+03	3.600242E-02	9.636948E-04
3.897003E+03	3.595533E-02	9.623519E-04
3.898475E+03	3.582308E-02	9.587304E-04
3.899947E+03	3.560722E-02	9.528719E-04
3.901419E+03	3.566847E-02	9.544293E-04
3.902891E+03	3.557334E-02	9.518024E-04
3.904364E+03	3.546737E-02	9.488857E-04
3.905836E+03	3.556886E-02	9.515194E-04
3.907308E+03	3.552790E-02	9.503423E-04
3.908780E+03	3.543738E-02	9.478398E-04
3.910253E+03	3.541344E-02	9.471181E-04
3.911725E+03	3.552111E-02	9.499161E-04
3.913197E+03	3.576349E-02	9.563158E-04
3.914669E+03	3.571166E-02	9.548479E-04
3.916142E+03	3.550032E-02	9.491157E-04
3.917614E+03	3.538498E-02	9.459507E-04
3.919086E+03	3.538113E-02	9.457665E-04
3.920558E+03	3.528900E-02	9.432225E-04
3.922031E+03	3.512098E-02	9.386508E-04
3.923503E+03	3.505360E-02	9.367695E-04
3.924975E+03	3.503578E-02	9.362125E-04
3.926447E+03	3.507216E-02	9.371040E-04
3.927919E+03	3.500477E-02	9.352226E-04
3.929392E+03	3.503649E-02	9.359893E-04
3.930864E+03	3.497682E-02	9.343148E-04
3.932336E+03	3.475297E-02	9.282549E-04
3.933808E+03	3.469638E-02	9.266634E-04
3.935281E+03	3.468935E-02	9.263957E-04
3.936753E+03	3.448249E-02	9.207917E-04
3.938225E+03	3.426787E-02	9.149816E-04
3.939697E+03	3.421899E-02	9.135976E-04
3.941170E+03	3.415771E-02	9.118825E-04
3.942642E+03	3.406853E-02	9.094230E-04
3.944114E+03	3.407695E-02	9.095689E-04
3.945586E+03	3.407916E-02	9.095492E-04
3.947058E+03	3.399925E-02	9.073379E-04
3.948531E+03	3.398131E-02	9.067804E-04
3.950003E+03	3.401914E-02	9.077110E-04
3.951475E+03	3.399963E-02	9.071118E-04
3.952947E+03	3.395378E-02	9.058100E-04
3.954420E+03	3.402413E-02	9.076078E-04
3.955892E+03	3.412236E-02	9.101491E-04
3.957364E+03	3.400212E-02	9.068631E-04
3.958836E+03	3.385243E-02	9.027922E-04
3.960309E+03	3.361595E-02	8.964077E-04
3.961781E+03	3.369557E-02	8.984526E-04
3.963253E+03	3.384025E-02	9.022320E-04
3.964725E+03	3.377110E-02	9.003098E-04
3.966198E+03	3.387860E-02	9.030969E-04
3.967670E+03	3.371955E-02	8.987790E-04
3.969142E+03	3.358064E-02	8.949983E-04
3.970614E+03	3.370981E-02	8.983626E-04
3.972086E+03	3.383279E-02	9.015611E-04
3.973559E+03	3.383487E-02	9.015381E-04
3.975031E+03	3.374553E-02	8.990789E-04
3.976503E+03	3.374916E-02	8.990970E-04
3.977975E+03	3.387211E-02	9.022937E-04
3.979448E+03	3.390517E-02	9.030955E-04
3.980920E+03	3.379254E-02	9.000168E-04
3.982392E+03	3.377755E-02	8.995387E-04
3.983864E+03	3.384469E-02	9.012479E-04
3.985337E+03	3.383123E-02	9.008106E-04
3.986809E+03	3.360233E-02	8.946373E-04
3.988281E+03	3.334551E-02	8.877220E-04
3.989753E+03	3.342658E-02	8.898021E-04
3.991225E+03	3.351073E-02	8.919641E-04
3.992698E+03	3.334224E-02	8.874013E-04
3.994170E+03	3.326363E-02	8.852314E-04
3.995642E+03	3.324857E-02	8.847530E-04
3.997114E+03	3.323040E-02	8.841917E-04
3.998587E+03	3.317967E-02	8.827645E-04
4.000059E+03	3.328394E-02	8.854608E-04
4.001531E+03	3.338976E-02	8.881979E-04
4.003003E+03	3.332971E-02	8.865226E-04
4.004476E+03	3.336111E-02	8.872797E-04
4.005948E+03	3.337701E-02	8.876244E-04
4.007420E+03	3.326733E-02	8.846297E-04
4.008892E+03	3.314215E-02	8.812232E-04
4.010365E+03	3.293013E-02	8.755087E-04
4.011837E+03	3.270261E-02	8.693829E-04
4.013309E+03	3.262855E-02	8.673376E-04
4.014781E+03	3.254673E-02	8.650863E-04
4.016253E+03	3.237808E-02	8.605279E-04
4.017726E+03	3.216292E-02	8.547339E-04
4.019198E+03	3.194464E-02	8.488582E-04
4.020670E+03	3.183177E-02	8.457842E-04
4.022142E+03	3.169875E-02	8.421754E-04
4.023615E+03	3.154866E-02	8.381136E-04
4.025087E+03	3.153345E-02	8.376353E-04
4.026559E+03	3.152752E-02	8.374039E-04
4.028031E+03	3.136966E-02	8.331370E-04
4.029504E+03	3.121799E-02	8.290355E-04
4.030976E+03	3.130972E-02	8.313980E-04
4.032448E+03	3.122160E-02	8.289845E-04
4.033920E+03	3.085903E-02	8.192852E-04
4.035392E+03	3.077865E-02	8.170785E-04
4.036865E+03	3.079903E-02	8.175472E-04
4.038337E+03	3.071708E-02	8.152995E-04
4.039809E+03	3.077312E-02	8.167144E-04
4.041281E+03	3.083535E-02	8.182933E-04
4.042754E+03	3.117822E-02	8.273188E-04
4.044226E+03	3.126370E-02	8.295133E-04
4.045698E+03	3.121273E-02	8.280873E-04
4.047170E+03	3.125013E-02	8.290058E-04
4.048643E+03	3.142862E-02	8.336669E-04
4.050115E+03	3.154199E-02	8.365996E-04
4.051587E+03	3.166000E-02	8.396549E-04
4.053059E+03	3.162295E-02	8.385975E-04
4.054532E+03	3.157194E-02	8.371702E-04
4.056004E+03	3.160309E-02	8.379218E-04
4.057476E+03	3.170092E-02	8.404407E-04
4.058948E+03	3.182201E-02	8.435758E-04
4.060420E+03	3.185160E-02	8.442848E-04
4.061893E+03	3.194011E-02	8.465554E-04
4.063365E+03	3.209994E-02	8.507156E-04
4.064837E+03	3.209384E-02	8.504782E-04
4.066309E+03	3.214356E-02	8.517197E-04
4.067782E+03	3.212970E-02	8.512764E-04
4.069254E+03	3.212048E-02	8.509560E-04
4.070726E+03	3.217328E-02	8.522787E-04
4.072198E+03	3.217955E-02	8.523687E-04
4.073671E+03	3.219512E-02	8.527049E-04
4.075143E+03	3.230528E-02	8.555458E-04
4.076615E+03	3.238597E-02	8.576060E-04
4.078087E+03	3.234879E-02	8.565448E-04
4.079560E+03	3.238604E-02	8.574544E-04
4.081032E+03	3.248531E-02	8.600056E-04
4.082504E+03	3.243106E-02	8.584925E-04
4.083976E+03	3.236749E-02	8.567330E-04
4.085448E+03	3.224809E-02	8.534960E-04
4.086921E+03	3.228066E-02	8.542813E-04
4.088393E+03	3.231631E-02	8.551481E-04
4.089865E+03	3.233335E-02	8.555222E-04
4.091337E+03	3.234418E-02	8.557319E-04
4.092810E+03	3.223249E-02	8.527006E-04
4.094282E+03	3.224641E-02	8.529920E-04
4.095754E+03	3.229133E-02	8.541035E-04
4.097226E+03	3.217497E-02	8.509494E-04
4.098699E+03	3.216250E-02	8.505431E-04
4.100171E+03	3.216708E-02	8.505878E-04
4.101643E+03	3.199333E-02	8.459172E-04
4.103115E+03	3.194207E-02	8.444859E-04
4.104587E+03	3.201020E-02	8.462111E-04
4.106060E+03	3.201320E-02	8.462141E-04
4.107532E+03	3.200844E-02	8.460121E-04
4.109004E+03	3.193699E-02	8.440476E-04
4.110476E+03	3.181592E-02	8.407720E-04
4.111949E+03	3.168553E-02	8.372508E-04
4.113421E+03	3.154893E-02	8.335664E-04
4.114893E+03	3.140768E-02	8.297594E-04
4.116365E+03	3.126642E-02	8.259528E-04
4.117838E+03	3.112826E-02	8.222289E-04
4.119310E+03	3.099163E-02	8.185461E-04
4.120782E+03	3.090617E-02	8.162153E-04
4.122254E+03	3.082846E-02	8.140896E-04
4.123727E+03	3.075074E-02	8.119637E-04
4.125199E+03	3.068387E-02	8.101249E-04
4.126671E+03	3.051931E-02	8.057072E-04
4.128143E+03	3.045707E-02	8.039915E-04
4.129615E+03	3.041344E-02	8.027671E-04
4.131088E+03	3.043337E-02	8.032205E-04
4.132560E+03	3.047499E-02	8.042463E-04
4.134032E+03	3.053522E-02	8.057627E-04
4.135504E+03	3.067141E-02	8.092832E-04
4.136977E+03	3.073627E-02	8.109212E-04
4.138449E+03	3.071275E-02	8.102271E-04
4.139921E+03	3.080239E-02	8.125184E-04
4.141393E+03	3.091684E-02	8.154634E-04
4.142866E+03	3.095530E-02	8.164039E-04
4.144338E+03	3.097980E-02	8.169760E-04
4.145810E+03	3.099810E-02	8.173843E-04
4.147282E+03	3.110940E-02	8.202448E-04
4.148754E+03	3.130906E-02	8.254342E-04
4.150227E+03	3.146220E-02	8.293964E-04
4.151699E+03	3.159828E-02	8.329079E-04
4.153171E+03	3.158087E-02	8.323734E-04
4.154643E+03	3.151539E-02	8.305721E-04
4.156116E+03	3.170259E-02	8.354298E-04
4.157588E+03	3.173786E-02	8.362831E-04
4.159060E+03	3.162585E-02	8.332559E-04
4.160532E+03	3.168900E-02	8.348439E-04
4.162005E+03	3.168859E-02	8.347572E-04
4.163477E+03	3.170367E-02	8.350784E-04
4.164949E+03	3.177609E-02	8.369098E-04
4.166421E+03	3.191826E-02	8.405778E-04
4.167894E+03	3.196587E-02	8.417548E-04
4.169366E+03	3.197160E-02	8.418292E-04
4.170838E+03	3.216644E-02	8.468821E-04
4.172310E+03	3.231476E-02	8.507096E-04
4.173782E+03	3.243517E-02	8.538016E-04
4.175255E+03	3.256486E-02	8.571374E-04
4.176727E+03	3.280614E-02	8.634094E-04
4.178199E+03	3.290015E-02	8.658047E-04
4.179671E+03	3.283142E-02	8.639170E-04
4.181144E+03	3.266194E-02	8.593790E-04
4.182616E+03	3.272183E-02	8.608762E-04
4.184088E+03	3.282666E-02	8.635552E-04
4.185560E+03	3.283383E-02	8.636650E-04
4.187033E+03	3.290143E-02	8.653642E-04
4.188505E+03	3.300777E-02	8.680818E-04
4.189977E+03	3.308775E-02	8.701057E-04
4.191449E+03	3.316151E-02	8.719658E-04
4.192922E+03	3.323992E-02	8.739474E-04
4.194394E+03	3.335550E-02	8.769061E-04
4.195866E+03	3.331611E-02	8.757904E-04
4.197338E+03	3.316669E-02	8.717829E-04
4.198810E+03	3.292584E-02	8.653731E-04
4.200283E+03	3.274389E-02	8.605120E-04
4.201755E+03	3.252628E-02	8.547152E-04
4.203227E+03	3.233657E-02	8.496520E-04
4.204699E+03	3.233278E-02	8.494747E-04
4.206172E+03	3.230419E-02	8.486460E-04
4.207644E+03	3.228334E-02	8.480206E-04
4.209116E+03	3.208122E-02	8.426339E-04
4.210588E+03	3.183107E-02	8.359869E-04
4.212061E+03	3.167542E-02	8.318229E-04
4.213533E+03	3.154456E-02	8.283103E-04
4.215005E+03	3.146326E-02	8.260998E-04
4.216477E+03	3.136028E-02	8.233203E-04
4.217949E+03	3.119222E-02	8.188331E-04
4.219422E+03	3.103191E-02	8.145500E-04
4.220894E+03	3.083597E-02	8.093327E-04
4.222366E+03	3.069734E-02	8.056202E-04
4.223838E+03	3.056182E-02	8.019897E-04
4.225311E+03	3.032096E-02	7.955962E-04
4.226783E+03	3.004293E-02	7.882286E-04
4.228255E+03	2.986868E-02	7.835847E-04
4.229727E+03	2.987408E-02	7.836545E-04
4.231200E+03	2.983921E-02	7.826678E-04
4.232672E+03	2.968973E-02	7.786754E-04
4.234144E+03	2.954334E-02	7.747648E-04
4.235616E+03	2.945116E-02	7.722762E-04
4.237089E+03	2.932644E-02	7.689353E-04
4.238561E+03	2.905772E-02	7.618193E-04
4.240033E+03	2.886953E-02	7.568157E-04
4.241505E+03	2.878972E-02	7.546540E-04
4.242977E+03	2.857984E-02	7.490836E-04
4.244450E+03	2.840248E-02	7.443666E-04
4.245922E+03	2.831648E-02	7.420443E-04
4.247394E+03	2.828465E-02	7.411420E-04
4.248866E+03	2.823735E-02	7.398343E-04
4.250339E+03	2.817765E-02	7.382020E-04
4.251811E+03	2.813961E-02	7.371375E-04
4.253283E+03	2.810621E-02	7.361948E-04
4.254755E+03	2.799076E-02	7.331033E-04
4.256228E+03	2.788305E-02	7.302149E-04
4.257700E+03	2.784809E-02	7.292320E-04
4.259172E+03	2.777597E-02	7.272766E-04
4.260644E+03	2.779826E-02	7.277931E-04
4.262116E+03	2.767506E-02	7.245006E-04
4.263589E+03	2.760603E-02	7.226267E-04
4.265061E+03	2.761127E-02	7.226973E-04
4.266533E+03	2.750508E-02	7.198513E-04
4.268005E+03	2.738496E-02	7.166414E-04
4.269478E+03	2.733138E-02	7.151733E-04
4.270950E+03	2.731494E-02	7.146771E-04
4.272422E+03	2.738823E-02	7.165285E-04
4.273894E+03	2.737485E-02	7.161124E-04
4.275367E+03	2.739706E-02	7.166272E-04
4.276839E+03	2.736820E-02	7.158061E-04
4.278311E+03	2.739657E-02	7.164820E-04
4.279783E+03	2.737079E-02	7.157416E-04
4.281256E+03	2.743936E-02	7.174685E-04
4.282728E+03	2.742439E-02	7.170106E-04
4.284200E+03	2.737228E-02	7.155820E-04
4.285672E+03	2.736038E-02	7.152049E-04
4.287144E+03	2.737942E-02	7.156362E-04
4.288617E+03	2.750207E-02	7.187756E-04
