#wls	flux	fluxerr
1.570383E+03	4.139015E-03	1.936309E-04
1.609642E+03	4.173057E-03	1.950319E-04
1.648902E+03	4.209149E-03	1.965201E-04
1.688161E+03	4.244887E-03	1.979829E-04
1.727421E+03	4.282617E-03	1.995294E-04
1.766680E+03	4.322326E-03	2.011582E-04
1.805940E+03	4.363172E-03	2.028299E-04
1.845200E+03	4.405936E-03	2.045801E-04
1.884459E+03	4.451418E-03	2.064452E-04
1.923719E+03	4.499595E-03	2.084234E-04
1.962978E+03	4.551283E-03	2.105517E-04
2.002238E+03	4.606460E-03	2.128280E-04
2.041497E+03	4.665092E-03	2.152498E-04
2.080757E+03	4.728859E-03	2.178933E-04
2.120016E+03	4.796865E-03	2.207159E-04
2.159276E+03	4.869922E-03	2.237536E-04
2.198536E+03	4.947087E-03	2.269615E-04
2.237795E+03	5.030028E-03	2.304147E-04
2.277055E+03	5.116879E-03	2.340259E-04
2.316314E+03	5.208388E-03	2.378279E-04
2.355574E+03	5.304402E-03	2.418120E-04
2.394833E+03	5.403844E-03	2.459274E-04
2.434093E+03	5.507401E-03	2.502037E-04
2.473353E+03	5.613939E-03	2.545878E-04
2.512612E+03	5.723188E-03	2.590658E-04
2.551872E+03	5.834856E-03	2.636231E-04
2.591131E+03	5.948622E-03	2.682436E-04
2.630391E+03	6.064135E-03	2.729102E-04
2.669650E+03	6.181018E-03	2.776043E-04
2.708910E+03	6.298863E-03	2.823064E-04
2.748170E+03	6.416341E-03	2.869559E-04
2.787429E+03	6.533894E-03	2.915714E-04
2.826689E+03	6.649253E-03	2.960510E-04
2.865948E+03	6.763712E-03	3.004518E-04
2.905208E+03	6.877630E-03	3.047889E-04
2.944467E+03	6.991331E-03	3.090758E-04
2.954282E+03	7.019219E-03	3.101173E-04
2.964097E+03	7.048358E-03	3.112115E-04
2.973912E+03	7.076993E-03	3.122807E-04
2.983727E+03	7.105977E-03	3.133627E-04
2.993542E+03	7.135317E-03	3.144577E-04
3.003357E+03	7.164118E-03	3.155262E-04
3.013172E+03	7.194107E-03	3.166443E-04
3.022986E+03	7.223550E-03	3.177356E-04
3.032801E+03	7.254159E-03	3.188753E-04
3.042616E+03	7.285061E-03	3.200250E-04
3.052431E+03	7.315382E-03	3.211463E-04
3.062246E+03	7.346840E-03	3.223146E-04
3.072061E+03	7.378555E-03	3.234912E-04
3.081876E+03	7.411386E-03	3.247136E-04
3.091691E+03	7.444460E-03	3.259436E-04
3.101506E+03	7.477770E-03	3.271808E-04
3.111320E+03	7.512159E-03	3.284620E-04
3.121135E+03	7.546785E-03	3.297503E-04
3.130950E+03	7.583326E-03	3.311190E-04
3.140765E+03	7.620089E-03	3.324940E-04
3.150580E+03	7.657917E-03	3.339119E-04
3.160395E+03	7.696809E-03	3.353726E-04
3.170210E+03	7.736758E-03	3.368758E-04
3.180025E+03	7.777771E-03	3.384215E-04
3.189840E+03	7.819840E-03	3.400094E-04
3.199655E+03	7.863809E-03	3.416759E-04
3.209469E+03	7.909656E-03	3.434200E-04
3.219284E+03	7.956551E-03	3.452053E-04
3.229099E+03	8.005308E-03	3.470671E-04
3.238914E+03	8.055915E-03	3.490046E-04
3.248729E+03	8.108348E-03	3.510167E-04
3.258544E+03	8.162587E-03	3.531021E-04
3.268359E+03	8.219397E-03	3.552939E-04
3.278174E+03	8.277928E-03	3.575549E-04
3.287989E+03	8.338930E-03	3.599174E-04
3.297803E+03	8.402334E-03	3.623781E-04
3.307618E+03	8.467269E-03	3.648992E-04
3.317433E+03	8.535224E-03	3.675447E-04
3.327248E+03	8.605306E-03	3.702757E-04
3.337063E+03	8.678177E-03	3.731205E-04
3.346878E+03	8.753696E-03	3.760728E-04
3.356693E+03	8.830916E-03	3.790915E-04
3.366508E+03	8.911235E-03	3.822364E-04
3.376323E+03	8.992899E-03	3.854319E-04
3.386137E+03	9.077256E-03	3.887357E-04
3.395952E+03	9.164091E-03	3.921381E-04
3.405767E+03	9.253158E-03	3.956285E-04
3.415582E+03	9.344208E-03	3.991958E-04
3.425397E+03	9.436981E-03	4.028287E-04
3.435212E+03	9.531985E-03	4.065486E-04
3.445027E+03	9.628170E-03	4.103105E-04
3.454842E+03	9.726034E-03	4.141355E-04
3.464657E+03	9.825294E-03	4.180112E-04
3.474471E+03	9.925684E-03	4.219261E-04
3.484286E+03	1.002695E-02	4.258692E-04
3.494101E+03	1.012957E-02	4.298609E-04
3.503916E+03	1.023330E-02	4.338904E-04
3.513731E+03	1.033792E-02	4.379484E-04
3.523546E+03	1.044250E-02	4.419953E-04
3.533361E+03	1.054832E-02	4.460848E-04
3.543176E+03	1.065449E-02	4.501797E-04
3.552991E+03	1.076161E-02	4.543052E-04
3.562805E+03	1.086891E-02	4.584279E-04
3.572620E+03	1.097705E-02	4.625764E-04
3.582435E+03	1.108605E-02	4.667513E-04
3.592250E+03	1.119535E-02	4.709283E-04
3.602065E+03	1.130645E-02	4.751706E-04
3.611880E+03	1.141893E-02	4.794605E-04
3.621695E+03	1.153312E-02	4.838118E-04
3.631510E+03	1.164946E-02	4.882420E-04
3.641325E+03	1.176911E-02	4.927998E-04
3.651140E+03	1.189202E-02	4.974829E-04
3.660954E+03	1.201887E-02	5.023189E-04
3.670769E+03	1.215164E-02	5.073900E-04
3.680584E+03	1.228918E-02	5.126479E-04
3.690399E+03	1.243412E-02	5.182009E-04
3.700214E+03	1.258533E-02	5.240011E-04
3.710029E+03	1.274528E-02	5.301505E-04
3.719844E+03	1.291328E-02	5.366198E-04
3.729659E+03	1.308974E-02	5.434243E-04
3.739474E+03	1.327609E-02	5.506223E-04
3.749288E+03	1.347054E-02	5.581387E-04
3.759103E+03	1.367469E-02	5.660384E-04
3.768918E+03	1.388632E-02	5.742284E-04
3.778733E+03	1.410651E-02	5.827524E-04
3.788548E+03	1.433259E-02	5.914985E-04
3.798363E+03	1.456454E-02	6.004653E-04
3.808178E+03	1.480037E-02	6.095705E-04
3.817993E+03	1.503848E-02	6.187471E-04
3.827808E+03	1.527653E-02	6.278983E-04
3.837622E+03	1.551370E-02	6.369911E-04
3.847437E+03	1.574741E-02	6.459190E-04
3.857252E+03	1.597499E-02	6.545733E-04
3.867067E+03	1.619436E-02	6.628694E-04
3.876882E+03	1.640402E-02	6.707468E-04
3.886697E+03	1.660145E-02	6.781038E-04
3.896512E+03	1.678484E-02	6.848684E-04
3.906327E+03	1.695203E-02	6.909536E-04
3.916142E+03	1.710270E-02	6.963489E-04
3.925956E+03	1.723413E-02	7.009456E-04
3.935771E+03	1.734654E-02	7.047554E-04
3.945586E+03	1.743890E-02	7.077384E-04
3.955401E+03	1.751051E-02	7.098689E-04
3.965216E+03	1.756197E-02	7.111747E-04
3.975031E+03	1.759323E-02	7.116556E-04
3.984846E+03	1.760549E-02	7.113630E-04
3.994661E+03	1.759876E-02	7.103000E-04
4.004476E+03	1.757429E-02	7.085195E-04
4.014290E+03	1.753396E-02	7.061000E-04
4.024105E+03	1.747892E-02	7.030892E-04
4.033920E+03	1.741090E-02	6.995589E-04
4.043735E+03	1.733128E-02	6.955667E-04
4.053550E+03	1.724238E-02	6.912073E-04
4.063365E+03	1.714530E-02	6.865253E-04
4.073180E+03	1.704235E-02	6.816150E-04
4.082995E+03	1.693503E-02	6.765367E-04
4.092810E+03	1.682555E-02	6.713797E-04
4.102625E+03	1.671491E-02	6.661839E-04
4.112439E+03	1.660517E-02	6.610319E-04
4.122254E+03	1.649758E-02	6.559728E-04
4.132069E+03	1.639365E-02	6.510669E-04
4.141884E+03	1.629486E-02	6.463719E-04
4.151699E+03	1.620223E-02	6.419283E-04
4.161514E+03	1.611714E-02	6.377890E-04
4.171329E+03	1.604088E-02	6.340046E-04
4.181144E+03	1.597475E-02	6.306249E-04
4.190959E+03	1.591972E-02	6.276867E-04
4.200773E+03	1.587679E-02	6.252278E-04
4.210588E+03	1.584791E-02	6.233235E-04
4.220403E+03	1.583382E-02	6.220007E-04
4.230218E+03	1.583563E-02	6.213009E-04
4.240033E+03	1.585536E-02	6.213008E-04
4.249848E+03	1.589389E-02	6.220321E-04
4.259663E+03	1.595300E-02	6.235619E-04
4.269478E+03	1.603361E-02	6.259227E-04
4.279293E+03	1.613748E-02	6.291806E-04
4.289107E+03	1.626607E-02	6.333885E-04
4.298922E+03	1.642048E-02	6.385852E-04
4.308737E+03	1.660198E-02	6.448169E-04
4.318552E+03	1.681169E-02	6.521220E-04
4.328367E+03	1.705024E-02	6.605215E-04
4.338182E+03	1.731856E-02	6.700464E-04
4.347997E+03	1.761697E-02	6.807049E-04
4.357812E+03	1.794514E-02	6.924796E-04
4.367627E+03	1.830261E-02	7.053475E-04
4.377441E+03	1.868866E-02	7.192772E-04
4.387256E+03	1.910120E-02	7.341834E-04
4.397071E+03	1.953808E-02	7.499794E-04
4.406886E+03	1.999684E-02	7.665666E-04
4.416701E+03	2.047372E-02	7.837985E-04
4.426516E+03	2.096431E-02	8.015027E-04
4.436331E+03	2.146381E-02	8.194943E-04
4.446146E+03	2.196683E-02	8.375655E-04
4.455961E+03	2.246742E-02	8.554897E-04
4.465775E+03	2.295889E-02	8.730123E-04
4.475590E+03	2.343493E-02	8.898950E-04
4.485405E+03	2.388846E-02	9.058715E-04
4.495220E+03	2.431252E-02	9.206817E-04
4.505035E+03	2.470114E-02	9.341048E-04
4.514850E+03	2.504865E-02	9.459310E-04
4.524665E+03	2.534977E-02	9.559686E-04
4.534480E+03	2.560064E-02	9.640786E-04
4.544295E+03	2.579816E-02	9.701531E-04
4.554109E+03	2.594126E-02	9.741599E-04
4.563924E+03	2.602983E-02	9.761035E-04
4.573739E+03	2.606476E-02	9.760261E-04
4.583554E+03	2.604854E-02	9.740293E-04
4.593369E+03	2.598478E-02	9.702559E-04
4.603184E+03	2.587804E-02	9.648840E-04
4.612999E+03	2.573363E-02	9.581178E-04
4.622814E+03	2.555702E-02	9.501673E-04
4.632629E+03	2.535465E-02	9.412764E-04
4.642444E+03	2.513234E-02	9.316655E-04
4.652258E+03	2.489642E-02	9.215724E-04
4.662073E+03	2.465229E-02	9.111983E-04
4.671888E+03	2.440518E-02	9.007382E-04
4.681703E+03	2.415979E-02	8.903656E-04
4.691518E+03	2.391984E-02	8.802179E-04
4.701333E+03	2.368902E-02	8.704290E-04
4.711148E+03	2.347024E-02	8.611048E-04
4.720963E+03	2.326518E-02	8.523052E-04
4.730778E+03	2.307568E-02	8.440946E-04
4.740592E+03	2.290184E-02	8.364748E-04
4.750407E+03	2.274427E-02	8.294653E-04
4.760222E+03	2.260253E-02	8.230475E-04
4.770037E+03	2.247545E-02	8.171765E-04
4.779852E+03	2.236204E-02	8.118138E-04
4.789667E+03	2.226076E-02	8.069015E-04
4.799482E+03	2.216988E-02	8.023749E-04
4.809297E+03	2.208759E-02	7.981669E-04
4.819112E+03	2.201234E-02	7.942206E-04
4.828926E+03	2.194246E-02	7.904740E-04
4.838741E+03	2.187646E-02	7.868736E-04
4.848556E+03	2.181320E-02	7.833772E-04
4.858371E+03	2.175213E-02	7.799649E-04
4.868186E+03	2.169288E-02	7.766232E-04
4.878001E+03	2.163556E-02	7.733556E-04
4.887816E+03	2.158096E-02	7.701902E-04
4.897631E+03	2.152983E-02	7.671534E-04
4.907446E+03	2.148382E-02	7.643035E-04
4.917260E+03	2.144491E-02	7.617096E-04
4.927075E+03	2.141465E-02	7.594256E-04
4.936890E+03	2.139596E-02	7.575539E-04
4.946705E+03	2.139072E-02	7.561588E-04
4.956520E+03	2.140157E-02	7.553312E-04
4.966335E+03	2.143113E-02	7.551609E-04
4.976150E+03	2.148151E-02	7.557189E-04
4.985965E+03	2.155491E-02	7.570789E-04
4.995780E+03	2.165363E-02	7.593181E-04
5.005594E+03	2.177955E-02	7.624981E-04
5.015409E+03	2.193436E-02	7.666729E-04
5.025224E+03	2.211950E-02	7.718878E-04
5.035039E+03	2.233639E-02	7.781881E-04
5.044854E+03	2.258552E-02	7.855848E-04
5.054669E+03	2.286828E-02	7.941207E-04
5.064484E+03	2.318434E-02	8.037791E-04
5.074299E+03	2.353428E-02	8.145744E-04
5.084114E+03	2.391793E-02	8.264952E-04
5.093929E+03	2.433481E-02	8.395189E-04
5.103743E+03	2.478388E-02	8.536043E-04
5.113558E+03	2.526431E-02	8.687176E-04
5.123373E+03	2.577475E-02	8.848072E-04
5.133188E+03	2.631328E-02	9.018022E-04
5.143003E+03	2.687854E-02	9.196519E-04
5.152818E+03	2.746813E-02	9.382699E-04
5.162633E+03	2.807944E-02	9.575628E-04
5.172448E+03	2.871056E-02	9.774623E-04
5.182263E+03	2.935826E-02	9.978561E-04
5.192077E+03	3.002017E-02	1.018660E-03
5.201892E+03	3.069385E-02	1.039791E-03
5.211707E+03	3.137595E-02	1.061132E-03
5.221522E+03	3.206408E-02	1.082603E-03
5.231337E+03	3.275559E-02	1.104113E-03
5.241152E+03	3.344823E-02	1.125587E-03
5.250967E+03	3.413879E-02	1.146916E-03
5.260782E+03	3.482509E-02	1.168029E-03
5.270597E+03	3.550461E-02	1.188841E-03
5.280411E+03	3.617474E-02	1.209268E-03
5.290226E+03	3.683270E-02	1.229219E-03
5.300041E+03	3.747543E-02	1.248594E-03
5.309856E+03	3.809912E-02	1.267269E-03
5.319671E+03	3.870063E-02	1.285144E-03
5.329486E+03	3.927471E-02	1.302050E-03
5.339301E+03	3.981714E-02	1.317850E-03
5.349116E+03	4.032156E-02	1.332342E-03
5.358931E+03	4.078287E-02	1.345362E-03
5.368745E+03	4.119410E-02	1.356691E-03
5.378560E+03	4.154952E-02	1.366146E-03
5.388375E+03	4.184325E-02	1.373546E-03
5.398190E+03	4.207028E-02	1.378735E-03
5.408005E+03	4.222513E-02	1.381546E-03
5.417820E+03	4.230452E-02	1.381884E-03
5.427635E+03	4.230637E-02	1.379692E-03
5.437450E+03	4.222869E-02	1.374919E-03
5.447265E+03	4.207220E-02	1.367600E-03
5.457079E+03	4.183912E-02	1.357821E-03
5.466894E+03	4.153270E-02	1.345698E-03
5.476709E+03	4.115676E-02	1.331367E-03
5.486524E+03	4.071800E-02	1.315056E-03
5.496339E+03	4.022330E-02	1.296995E-03
5.506154E+03	3.967999E-02	1.277429E-03
5.515969E+03	3.909634E-02	1.256631E-03
5.525784E+03	3.848136E-02	1.234897E-03
5.535599E+03	3.784336E-02	1.212497E-03
5.545414E+03	3.719094E-02	1.189709E-03
5.555228E+03	3.653272E-02	1.166811E-03
5.565043E+03	3.587620E-02	1.144043E-03
5.574858E+03	3.522860E-02	1.121634E-03
5.584673E+03	3.459685E-02	1.099802E-03
5.594488E+03	3.398641E-02	1.078718E-03
5.604303E+03	3.340201E-02	1.058529E-03
5.614118E+03	3.284852E-02	1.039385E-03
5.623933E+03	3.232906E-02	1.021379E-03
5.633748E+03	3.184622E-02	1.004587E-03
5.643562E+03	3.140186E-02	9.890638E-04
5.653377E+03	3.099678E-02	9.748275E-04
5.663192E+03	3.063197E-02	9.619042E-04
5.673007E+03	3.030633E-02	9.502529E-04
5.682822E+03	3.001990E-02	9.398694E-04
5.692637E+03	2.977044E-02	9.306784E-04
5.702452E+03	2.955673E-02	9.226365E-04
5.712267E+03	2.937625E-02	9.156600E-04
5.722082E+03	2.922648E-02	9.096662E-04
5.731896E+03	2.910464E-02	9.045642E-04
5.741711E+03	2.900775E-02	9.002585E-04
5.751526E+03	2.893247E-02	8.966416E-04
5.761341E+03	2.887597E-02	8.936239E-04
5.771156E+03	2.883491E-02	8.910994E-04
5.780971E+03	2.880632E-02	8.889746E-04
5.790786E+03	2.878764E-02	8.871697E-04
5.800601E+03	2.877572E-02	8.855861E-04
5.810416E+03	2.876821E-02	8.841514E-04
5.820230E+03	2.876333E-02	8.828103E-04
5.830045E+03	2.875934E-02	8.815097E-04
5.839860E+03	2.875429E-02	8.801901E-04
5.849675E+03	2.874740E-02	8.788276E-04
5.859490E+03	2.873793E-02	8.774008E-04
5.869305E+03	2.872520E-02	8.758888E-04
5.879120E+03	2.870904E-02	8.742873E-04
5.888935E+03	2.868954E-02	8.725998E-04
5.898750E+03	2.866697E-02	8.708351E-04
5.908564E+03	2.864144E-02	8.689972E-04
5.918379E+03	2.861371E-02	8.671096E-04
5.928194E+03	2.858401E-02	8.651798E-04
5.938009E+03	2.855254E-02	8.632143E-04
5.947824E+03	2.851999E-02	8.612343E-04
5.957639E+03	2.848668E-02	8.592498E-04
5.967454E+03	2.845252E-02	8.572588E-04
5.977269E+03	2.841729E-02	8.552546E-04
5.987084E+03	2.838146E-02	8.532520E-04
5.996898E+03	2.834455E-02	8.512364E-04
6.006713E+03	2.830596E-02	8.491906E-04
6.016528E+03	2.826557E-02	8.471114E-04
6.026343E+03	2.822327E-02	8.449956E-04
6.036158E+03	2.817840E-02	8.428241E-04
6.045973E+03	2.813094E-02	8.405967E-04
6.055788E+03	2.808158E-02	8.383345E-04
6.065603E+03	2.803038E-02	8.360398E-04
6.075418E+03	2.797821E-02	8.337389E-04
6.085233E+03	2.792489E-02	8.314263E-04
6.095047E+03	2.787106E-02	8.291221E-04
6.104862E+03	2.781721E-02	8.268403E-04
6.114677E+03	2.776489E-02	8.246277E-04
6.124492E+03	2.771597E-02	8.225400E-04
6.134307E+03	2.767256E-02	8.206392E-04
6.144122E+03	2.763690E-02	8.189921E-04
6.153937E+03	2.761106E-02	8.176598E-04
6.163752E+03	2.759766E-02	8.167189E-04
6.173567E+03	2.759919E-02	8.162433E-04
6.183381E+03	2.761770E-02	8.162926E-04
6.193196E+03	2.765494E-02	8.169181E-04
6.203011E+03	2.771228E-02	8.181600E-04
6.212826E+03	2.779095E-02	8.200540E-04
6.222641E+03	2.789165E-02	8.226203E-04
6.232456E+03	2.801401E-02	8.258472E-04
6.242271E+03	2.815785E-02	8.297300E-04
6.252086E+03	2.832159E-02	8.342216E-04
6.261901E+03	2.850388E-02	8.392825E-04
6.271715E+03	2.870221E-02	8.448393E-04
6.281530E+03	2.891324E-02	8.507938E-04
6.291345E+03	2.913401E-02	8.570597E-04
6.301160E+03	2.936055E-02	8.635210E-04
6.310975E+03	2.958889E-02	8.700622E-04
6.320790E+03	2.981394E-02	8.765344E-04
6.330605E+03	3.003177E-02	8.828232E-04
6.340420E+03	3.023787E-02	8.887974E-04
6.350235E+03	3.042705E-02	8.943052E-04
6.360049E+03	3.059600E-02	8.992507E-04
6.369864E+03	3.074064E-02	9.035146E-04
6.379679E+03	3.085844E-02	9.070240E-04
6.389494E+03	3.094793E-02	9.097356E-04
6.399309E+03	3.100771E-02	9.116088E-04
6.409124E+03	3.103776E-02	9.126430E-04
6.418939E+03	3.103813E-02	9.128389E-04
6.428754E+03	3.101010E-02	9.122329E-04
6.438569E+03	3.095400E-02	9.108337E-04
6.448383E+03	3.087170E-02	9.086952E-04
6.458198E+03	3.076407E-02	9.058416E-04
6.468013E+03	3.063286E-02	9.023229E-04
6.477828E+03	3.047838E-02	8.981465E-04
6.487643E+03	3.030219E-02	8.933568E-04
6.497458E+03	3.010493E-02	8.879705E-04
6.507273E+03	2.988799E-02	8.820273E-04
6.517088E+03	2.965232E-02	8.755528E-04
6.526903E+03	2.939967E-02	8.685969E-04
6.536718E+03	2.913200E-02	8.612158E-04
6.546532E+03	2.885077E-02	8.534502E-04
6.556347E+03	2.855790E-02	8.453551E-04
6.566162E+03	2.825571E-02	8.369976E-04
6.575977E+03	2.794629E-02	8.284378E-04
6.585792E+03	2.763174E-02	8.197364E-04
6.595607E+03	2.731418E-02	8.109544E-04
6.605422E+03	2.699567E-02	8.021519E-04
6.615237E+03	2.667855E-02	7.933973E-04
6.625052E+03	2.636443E-02	7.847372E-04
6.634866E+03	2.605544E-02	7.762347E-04
6.644681E+03	2.575330E-02	7.679397E-04
6.654496E+03	2.545956E-02	7.598987E-04
6.664311E+03	2.517538E-02	7.521454E-04
6.674126E+03	2.490261E-02	7.447353E-04
6.683941E+03	2.464207E-02	7.376931E-04
6.693756E+03	2.439473E-02	7.310480E-04
6.703571E+03	2.416167E-02	7.248326E-04
6.713386E+03	2.394322E-02	7.190577E-04
6.723200E+03	2.373985E-02	7.137377E-04
6.733015E+03	2.355210E-02	7.088899E-04
6.742830E+03	2.337978E-02	7.045094E-04
6.752645E+03	2.322308E-02	7.006030E-04
6.762460E+03	2.308145E-02	6.971547E-04
6.772275E+03	2.295469E-02	6.941602E-04
6.782090E+03	2.284219E-02	6.916019E-04
6.791905E+03	2.274290E-02	6.894486E-04
6.801720E+03	2.265618E-02	6.876826E-04
6.811534E+03	2.258078E-02	6.862664E-04
6.821349E+03	2.251592E-02	6.851772E-04
6.831164E+03	2.246053E-02	6.843835E-04
6.840979E+03	2.241332E-02	6.838466E-04
6.850794E+03	2.237336E-02	6.835391E-04
6.860609E+03	2.234014E-02	6.834454E-04
6.870424E+03	2.231277E-02	6.835387E-04
6.880239E+03	2.229111E-02	6.838157E-04
6.890054E+03	2.227472E-02	6.842631E-04
6.899868E+03	2.226342E-02	6.848756E-04
6.909683E+03	2.225806E-02	6.856799E-04
6.919498E+03	2.225892E-02	6.866851E-04
6.929313E+03	2.226644E-02	6.879056E-04
6.939128E+03	2.228206E-02	6.893862E-04
6.948943E+03	2.230592E-02	6.911326E-04
6.958758E+03	2.233958E-02	6.931936E-04
6.968573E+03	2.238402E-02	6.956013E-04
6.978388E+03	2.243961E-02	6.983682E-04
6.988203E+03	2.250738E-02	7.015279E-04
6.998017E+03	2.258792E-02	7.051004E-04
7.007832E+03	2.268160E-02	7.090990E-04
7.017647E+03	2.278826E-02	7.135202E-04
7.027462E+03	2.290744E-02	7.183513E-04
7.037277E+03	2.303925E-02	7.235980E-04
7.047092E+03	2.318241E-02	7.292210E-04
7.056907E+03	2.333619E-02	7.351997E-04
7.066722E+03	2.349876E-02	7.414770E-04
7.076537E+03	2.366892E-02	7.480170E-04
7.086351E+03	2.384498E-02	7.547668E-04
7.096166E+03	2.402451E-02	7.616501E-04
7.105981E+03	2.420610E-02	7.686229E-04
7.115796E+03	2.438708E-02	7.756004E-04
7.125611E+03	2.456528E-02	7.825135E-04
7.135426E+03	2.473823E-02	7.892825E-04
7.145241E+03	2.490405E-02	7.958467E-04
7.155056E+03	2.506029E-02	8.021268E-04
7.164871E+03	2.520487E-02	8.080538E-04
7.174685E+03	2.533516E-02	8.135420E-04
7.184500E+03	2.544993E-02	8.185494E-04
7.194315E+03	2.554686E-02	8.229984E-04
7.204130E+03	2.562408E-02	8.268263E-04
7.213945E+03	2.568097E-02	8.300092E-04
7.223760E+03	2.571583E-02	8.324895E-04
7.233575E+03	2.572764E-02	8.342297E-04
7.243390E+03	2.571630E-02	8.352233E-04
7.253205E+03	2.568146E-02	8.354549E-04
7.263019E+03	2.562379E-02	8.349424E-04
7.272834E+03	2.554341E-02	8.336858E-04
7.282649E+03	2.544185E-02	8.317314E-04
7.292464E+03	2.532073E-02	8.291288E-04
7.302279E+03	2.518210E-02	8.259421E-04
7.312094E+03	2.502814E-02	8.222394E-04
7.321909E+03	2.486233E-02	8.181327E-04
7.331724E+03	2.468724E-02	8.137048E-04
7.341539E+03	2.450667E-02	8.090793E-04
7.351353E+03	2.432430E-02	8.043770E-04
7.361168E+03	2.414427E-02	7.997348E-04
7.370983E+03	2.397015E-02	7.952707E-04
7.380798E+03	2.380609E-02	7.911238E-04
7.390613E+03	2.365549E-02	7.874091E-04
7.400428E+03	2.352247E-02	7.842656E-04
7.410243E+03	2.341027E-02	7.818044E-04
7.420058E+03	2.332147E-02	7.801148E-04
7.429873E+03	2.325884E-02	7.792939E-04
7.439687E+03	2.322473E-02	7.794245E-04
7.449502E+03	2.322039E-02	7.805531E-04
7.459317E+03	2.324745E-02	7.827398E-04
7.469132E+03	2.330584E-02	7.859870E-04
7.478947E+03	2.339584E-02	7.903091E-04
7.488762E+03	2.351717E-02	7.957024E-04
7.498577E+03	2.366876E-02	8.021352E-04
7.508392E+03	2.384868E-02	8.095468E-04
7.518207E+03	2.405544E-02	8.178918E-04
7.528022E+03	2.428582E-02	8.270645E-04
7.537836E+03	2.453745E-02	8.369880E-04
7.547651E+03	2.480660E-02	8.475385E-04
7.557466E+03	2.508954E-02	8.585912E-04
7.567281E+03	2.538260E-02	8.700223E-04
7.577096E+03	2.568127E-02	8.816787E-04
7.586911E+03	2.598157E-02	8.934242E-04
7.596726E+03	2.627881E-02	9.050981E-04
7.606541E+03	2.656908E-02	9.165643E-04
7.616356E+03	2.684788E-02	9.276666E-04
