#wls	flux	fluxerr
1.570383E+03	3.060196E-03	9.224427E-05
1.609642E+03	3.097894E-03	9.329078E-05
1.648902E+03	3.137147E-03	9.437968E-05
1.688161E+03	3.177966E-03	9.551105E-05
1.727421E+03	3.219733E-03	9.666603E-05
1.766680E+03	3.263698E-03	9.788192E-05
1.805940E+03	3.309243E-03	9.913983E-05
1.845200E+03	3.357014E-03	1.004589E-04
1.884459E+03	3.406368E-03	1.018194E-04
1.923719E+03	3.457958E-03	1.032405E-04
1.962978E+03	3.512461E-03	1.047421E-04
2.002238E+03	3.569215E-03	1.063040E-04
2.041497E+03	3.628209E-03	1.079254E-04
2.080757E+03	3.690120E-03	1.096260E-04
2.120016E+03	3.755651E-03	1.114262E-04
2.159276E+03	3.823373E-03	1.132828E-04
2.198536E+03	3.895404E-03	1.152583E-04
2.237795E+03	3.969547E-03	1.172868E-04
2.277055E+03	4.047933E-03	1.194309E-04
2.316314E+03	4.129781E-03	1.216666E-04
2.355574E+03	4.215009E-03	1.239910E-04
2.394833E+03	4.304275E-03	1.264225E-04
2.434093E+03	4.397471E-03	1.289573E-04
2.473353E+03	4.494460E-03	1.315905E-04
2.512612E+03	4.595853E-03	1.343392E-04
2.551872E+03	4.701462E-03	1.371969E-04
2.591131E+03	4.811854E-03	1.401792E-04
2.630391E+03	4.925978E-03	1.432546E-04
2.669650E+03	5.045917E-03	1.464827E-04
2.708910E+03	5.170539E-03	1.498292E-04
2.748170E+03	5.301051E-03	1.533283E-04
2.787429E+03	5.437004E-03	1.569655E-04
2.826689E+03	5.580302E-03	1.607946E-04
2.865948E+03	5.730352E-03	1.647968E-04
2.905208E+03	5.888085E-03	1.689973E-04
2.944467E+03	6.055132E-03	1.734413E-04
2.954282E+03	6.098269E-03	1.745878E-04
2.964097E+03	6.141763E-03	1.757429E-04
2.973912E+03	6.186406E-03	1.769293E-04
2.983727E+03	6.231373E-03	1.781232E-04
2.993542E+03	6.276646E-03	1.793243E-04
3.003357E+03	6.323015E-03	1.805549E-04
3.013172E+03	6.370459E-03	1.818145E-04
3.022986E+03	6.418151E-03	1.830794E-04
3.032801E+03	6.466876E-03	1.843720E-04
3.042616E+03	6.515807E-03	1.856686E-04
3.052431E+03	6.566532E-03	1.870145E-04
3.062246E+03	6.617416E-03	1.883630E-04
3.072061E+03	6.669239E-03	1.897363E-04
3.081876E+03	6.721976E-03	1.911337E-04
3.091691E+03	6.774799E-03	1.925316E-04
3.101506E+03	6.829281E-03	1.939746E-04
3.111320E+03	6.884592E-03	1.954391E-04
3.121135E+03	6.940703E-03	1.969242E-04
3.130950E+03	6.998376E-03	1.984515E-04
3.140765E+03	7.056783E-03	1.999974E-04
3.150580E+03	7.115892E-03	2.015611E-04
3.160395E+03	7.175670E-03	2.031414E-04
3.170210E+03	7.236869E-03	2.047597E-04
3.180025E+03	7.299449E-03	2.064148E-04
3.189840E+03	7.362583E-03	2.080832E-04
3.199655E+03	7.427019E-03	2.097859E-04
3.209469E+03	7.492710E-03	2.115217E-04
3.219284E+03	7.559613E-03	2.132892E-04
3.229099E+03	7.627680E-03	2.150871E-04
3.238914E+03	7.696863E-03	2.169137E-04
3.248729E+03	7.767120E-03	2.187681E-04
3.258544E+03	7.838395E-03	2.206484E-04
3.268359E+03	7.911404E-03	2.225749E-04
3.278174E+03	7.985329E-03	2.245244E-04
3.287989E+03	8.060879E-03	2.265167E-04
3.297803E+03	8.137983E-03	2.285498E-04
3.307618E+03	8.216594E-03	2.306223E-04
3.317433E+03	8.295881E-03	2.327108E-04
3.327248E+03	8.376551E-03	2.348351E-04
3.337063E+03	8.459280E-03	2.370141E-04
3.346878E+03	8.543251E-03	2.392247E-04
3.356693E+03	8.628388E-03	2.414647E-04
3.366508E+03	8.715380E-03	2.437534E-04
3.376323E+03	8.803391E-03	2.460673E-04
3.386137E+03	8.893102E-03	2.484254E-04
3.395952E+03	8.984428E-03	2.508251E-04
3.405767E+03	9.077283E-03	2.532641E-04
3.415582E+03	9.171591E-03	2.557401E-04
3.425397E+03	9.267988E-03	2.582707E-04
3.435212E+03	9.365665E-03	2.608334E-04
3.445027E+03	9.464538E-03	2.634256E-04
3.454842E+03	9.565228E-03	2.660646E-04
3.464657E+03	9.668348E-03	2.687673E-04
3.474471E+03	9.772383E-03	2.714916E-04
3.484286E+03	9.877956E-03	2.742546E-04
3.494101E+03	9.985648E-03	2.770725E-04
3.503916E+03	1.009466E-02	2.799228E-04
3.513731E+03	1.020559E-02	2.828222E-04
3.523546E+03	1.031763E-02	2.857481E-04
3.533361E+03	1.043204E-02	2.887355E-04
3.543176E+03	1.054735E-02	2.917432E-04
3.552991E+03	1.066478E-02	2.948054E-04
3.562805E+03	1.078421E-02	2.979183E-04
3.572620E+03	1.090486E-02	3.010601E-04
3.582435E+03	1.102724E-02	3.042454E-04
3.592250E+03	1.115123E-02	3.074705E-04
3.602065E+03	1.127671E-02	3.107316E-04
3.611880E+03	1.140352E-02	3.140248E-04
3.621695E+03	1.153215E-02	3.173635E-04
3.631510E+03	1.166247E-02	3.207436E-04
3.641325E+03	1.179370E-02	3.241437E-04
3.651140E+03	1.192692E-02	3.275935E-04
3.660954E+03	1.206073E-02	3.310545E-04
3.670769E+03	1.219620E-02	3.345562E-04
3.680584E+03	1.233317E-02	3.380936E-04
3.690399E+03	1.247084E-02	3.416453E-04
3.700214E+03	1.260965E-02	3.452228E-04
3.710029E+03	1.275001E-02	3.488374E-04
3.719844E+03	1.289054E-02	3.524517E-04
3.729659E+03	1.303225E-02	3.560925E-04
3.739474E+03	1.317491E-02	3.597544E-04
3.749288E+03	1.331778E-02	3.634164E-04
3.759103E+03	1.346123E-02	3.670889E-04
3.768918E+03	1.360506E-02	3.707662E-04
3.778733E+03	1.374961E-02	3.744580E-04
3.788548E+03	1.389415E-02	3.781439E-04
3.798363E+03	1.403846E-02	3.818183E-04
3.808178E+03	1.418290E-02	3.854906E-04
3.817993E+03	1.432674E-02	3.891414E-04
3.827808E+03	1.447031E-02	3.927796E-04
3.837622E+03	1.461396E-02	3.964145E-04
3.847437E+03	1.475645E-02	4.000125E-04
3.857252E+03	1.489864E-02	4.035971E-04
3.867067E+03	1.503934E-02	4.071363E-04
3.876882E+03	1.517940E-02	4.106530E-04
3.886697E+03	1.531867E-02	4.141432E-04
3.896512E+03	1.545602E-02	4.175763E-04
3.906327E+03	1.559232E-02	4.209758E-04
3.916142E+03	1.572742E-02	4.243383E-04
3.925956E+03	1.586076E-02	4.276483E-04
3.935771E+03	1.599226E-02	4.309039E-04
3.945586E+03	1.612231E-02	4.341157E-04
3.955401E+03	1.625040E-02	4.372699E-04
3.965216E+03	1.637695E-02	4.403782E-04
3.975031E+03	1.650103E-02	4.434158E-04
3.984846E+03	1.662356E-02	4.464072E-04
3.994661E+03	1.674367E-02	4.493294E-04
4.004476E+03	1.686184E-02	4.521951E-04
4.014290E+03	1.697813E-02	4.550064E-04
4.024105E+03	1.709219E-02	4.577541E-04
4.033920E+03	1.720413E-02	4.604408E-04
4.043735E+03	1.731407E-02	4.630703E-04
4.053550E+03	1.742173E-02	4.656353E-04
4.063365E+03	1.752729E-02	4.681404E-04
4.073180E+03	1.763092E-02	4.705903E-04
4.082995E+03	1.773242E-02	4.729801E-04
4.092810E+03	1.783199E-02	4.753151E-04
4.102625E+03	1.792948E-02	4.775914E-04
4.112439E+03	1.802475E-02	4.798056E-04
4.122254E+03	1.811844E-02	4.819745E-04
4.132069E+03	1.821007E-02	4.840859E-04
4.141884E+03	1.829956E-02	4.861373E-04
4.151699E+03	1.838719E-02	4.881368E-04
4.161514E+03	1.847290E-02	4.900828E-04
4.171329E+03	1.855666E-02	4.919743E-04
4.181144E+03	1.863807E-02	4.938013E-04
4.190959E+03	1.871781E-02	4.955814E-04
4.200773E+03	1.879515E-02	4.972961E-04
4.210588E+03	1.887043E-02	4.989540E-04
4.220403E+03	1.894328E-02	5.005457E-04
4.230218E+03	1.901369E-02	5.020712E-04
4.240033E+03	1.908164E-02	5.035298E-04
4.249848E+03	1.914644E-02	5.049038E-04
4.259663E+03	1.920870E-02	5.062092E-04
4.269478E+03	1.926771E-02	5.074277E-04
4.279293E+03	1.932343E-02	5.085582E-04
4.289107E+03	1.937547E-02	5.095907E-04
4.298922E+03	1.942371E-02	5.105226E-04
4.308737E+03	1.946807E-02	5.113516E-04
4.318552E+03	1.950840E-02	5.120744E-04
4.328367E+03	1.954457E-02	5.126872E-04
4.338182E+03	1.957666E-02	5.131930E-04
4.347997E+03	1.960421E-02	5.135793E-04
4.357812E+03	1.962786E-02	5.138632E-04
4.367627E+03	1.964706E-02	5.140308E-04
4.377441E+03	1.966187E-02	5.140835E-04
4.387256E+03	1.967173E-02	5.140070E-04
4.397071E+03	1.967640E-02	5.137952E-04
4.406886E+03	1.967534E-02	5.134344E-04
4.416701E+03	1.966908E-02	5.129385E-04
4.426516E+03	1.965682E-02	5.122872E-04
4.436331E+03	1.963884E-02	5.114874E-04
4.446146E+03	1.961537E-02	5.105459E-04
4.455961E+03	1.958614E-02	5.094559E-04
4.465775E+03	1.955140E-02	5.082241E-04
4.475590E+03	1.951139E-02	5.068566E-04
4.485405E+03	1.946636E-02	5.053605E-04
4.495220E+03	1.941653E-02	5.037418E-04
4.505035E+03	1.936192E-02	5.020010E-04
4.514850E+03	1.930277E-02	5.001447E-04
4.524665E+03	1.923983E-02	4.981924E-04
4.534480E+03	1.917287E-02	4.961380E-04
4.544295E+03	1.910240E-02	4.939956E-04
4.554109E+03	1.902870E-02	4.917718E-04
4.563924E+03	1.895228E-02	4.894804E-04
4.573739E+03	1.887321E-02	4.871232E-04
4.583554E+03	1.879177E-02	4.847076E-04
4.593369E+03	1.870876E-02	4.822540E-04
4.603184E+03	1.862402E-02	4.797586E-04
4.612999E+03	1.853833E-02	4.772416E-04
4.622814E+03	1.845179E-02	4.747054E-04
4.632629E+03	1.836475E-02	4.721593E-04
4.642444E+03	1.827777E-02	4.696172E-04
4.652258E+03	1.819099E-02	4.670830E-04
4.662073E+03	1.810475E-02	4.645652E-04
4.671888E+03	1.801941E-02	4.620733E-04
4.681703E+03	1.793512E-02	4.596109E-04
4.691518E+03	1.785204E-02	4.571820E-04
4.701333E+03	1.777075E-02	4.548013E-04
4.711148E+03	1.769142E-02	4.524730E-04
4.720963E+03	1.761398E-02	4.501955E-04
4.730778E+03	1.753881E-02	4.479783E-04
4.740592E+03	1.746588E-02	4.458201E-04
4.750407E+03	1.739577E-02	4.437360E-04
4.760222E+03	1.732823E-02	4.417193E-04
4.770037E+03	1.726343E-02	4.397744E-04
4.779852E+03	1.720195E-02	4.379155E-04
4.789667E+03	1.714332E-02	4.361309E-04
4.799482E+03	1.708812E-02	4.344348E-04
4.809297E+03	1.703632E-02	4.328262E-04
4.819112E+03	1.698803E-02	4.313084E-04
4.828926E+03	1.694322E-02	4.298796E-04
4.838741E+03	1.690222E-02	4.285485E-04
4.848556E+03	1.686497E-02	4.273132E-04
4.858371E+03	1.683179E-02	4.261813E-04
4.868186E+03	1.680238E-02	4.251457E-04
4.878001E+03	1.677727E-02	4.242189E-04
4.887816E+03	1.675615E-02	4.233931E-04
4.897631E+03	1.673930E-02	4.226752E-04
4.907446E+03	1.672680E-02	4.220671E-04
4.917260E+03	1.671873E-02	4.215701E-04
4.927075E+03	1.671475E-02	4.211759E-04
4.936890E+03	1.671549E-02	4.208998E-04
4.946705E+03	1.672041E-02	4.207282E-04
4.956520E+03	1.672991E-02	4.206707E-04
4.966335E+03	1.674401E-02	4.207276E-04
4.976150E+03	1.676234E-02	4.208892E-04
4.985965E+03	1.678524E-02	4.211641E-04
4.995780E+03	1.681251E-02	4.215471E-04
5.005594E+03	1.684431E-02	4.220414E-04
5.015409E+03	1.688020E-02	4.226362E-04
5.025224E+03	1.692049E-02	4.233390E-04
5.035039E+03	1.696494E-02	4.241432E-04
5.044854E+03	1.701360E-02	4.250503E-04
5.054669E+03	1.706603E-02	4.260487E-04
5.064484E+03	1.712248E-02	4.271442E-04
5.074299E+03	1.718261E-02	4.283287E-04
5.084114E+03	1.724629E-02	4.295983E-04
5.093929E+03	1.731353E-02	4.309532E-04
5.103743E+03	1.738397E-02	4.323843E-04
5.113558E+03	1.745744E-02	4.338867E-04
5.123373E+03	1.753389E-02	4.354598E-04
5.133188E+03	1.761295E-02	4.370933E-04
5.143003E+03	1.769436E-02	4.387813E-04
5.152818E+03	1.777789E-02	4.405176E-04
5.162633E+03	1.786347E-02	4.423005E-04
5.172448E+03	1.795064E-02	4.441182E-04
5.182263E+03	1.803931E-02	4.459687E-04
5.192077E+03	1.812901E-02	4.478401E-04
5.201892E+03	1.821943E-02	4.497247E-04
5.211707E+03	1.831027E-02	4.516150E-04
5.221522E+03	1.840122E-02	4.535033E-04
5.231337E+03	1.849214E-02	4.553863E-04
5.241152E+03	1.858253E-02	4.572515E-04
5.250967E+03	1.867206E-02	4.590908E-04
5.260782E+03	1.876021E-02	4.608915E-04
5.270597E+03	1.884705E-02	4.626555E-04
5.280411E+03	1.893206E-02	4.643698E-04
5.290226E+03	1.901494E-02	4.660273E-04
5.300041E+03	1.909537E-02	4.676206E-04
5.309856E+03	1.917288E-02	4.691379E-04
5.319671E+03	1.924739E-02	4.705775E-04
5.329486E+03	1.931864E-02	4.719331E-04
5.339301E+03	1.938620E-02	4.731946E-04
5.349116E+03	1.945004E-02	4.743616E-04
5.358931E+03	1.950998E-02	4.754295E-04
5.368745E+03	1.956564E-02	4.763897E-04
5.378560E+03	1.961689E-02	4.772388E-04
5.388375E+03	1.966358E-02	4.779741E-04
5.398190E+03	1.970582E-02	4.785979E-04
5.408005E+03	1.974334E-02	4.791043E-04
5.417820E+03	1.977608E-02	4.794918E-04
5.427635E+03	1.980420E-02	4.797650E-04
5.437450E+03	1.982772E-02	4.799241E-04
5.447265E+03	1.984643E-02	4.799649E-04
5.457079E+03	1.986078E-02	4.798983E-04
5.466894E+03	1.987064E-02	4.797216E-04
5.476709E+03	1.987610E-02	4.794368E-04
5.486524E+03	1.987724E-02	4.790467E-04
5.496339E+03	1.987442E-02	4.785598E-04
5.506154E+03	1.986737E-02	4.779699E-04
5.515969E+03	1.985663E-02	4.772908E-04
5.525784E+03	1.984221E-02	4.765224E-04
5.535599E+03	1.982430E-02	4.756695E-04
5.545414E+03	1.980308E-02	4.747371E-04
5.555228E+03	1.977877E-02	4.737304E-04
5.565043E+03	1.975180E-02	4.726598E-04
5.574858E+03	1.972219E-02	4.715263E-04
5.584673E+03	1.969019E-02	4.703356E-04
5.594488E+03	1.965601E-02	4.690934E-04
5.604303E+03	1.961991E-02	4.678057E-04
5.614118E+03	1.958231E-02	4.664829E-04
5.623933E+03	1.954326E-02	4.651259E-04
5.633748E+03	1.950279E-02	4.637360E-04
5.643562E+03	1.946151E-02	4.623277E-04
5.653377E+03	1.941926E-02	4.608972E-04
5.663192E+03	1.937664E-02	4.594587E-04
5.673007E+03	1.933347E-02	4.580082E-04
5.682822E+03	1.929014E-02	4.565550E-04
5.692637E+03	1.924683E-02	4.551030E-04
5.702452E+03	1.920353E-02	4.536526E-04
5.712267E+03	1.916059E-02	4.522115E-04
5.722082E+03	1.911816E-02	4.507836E-04
5.731896E+03	1.907602E-02	4.493636E-04
5.741711E+03	1.903466E-02	4.479632E-04
5.751526E+03	1.899401E-02	4.465805E-04
5.761341E+03	1.895400E-02	4.452140E-04
5.771156E+03	1.891510E-02	4.438745E-04
5.780971E+03	1.887701E-02	4.425551E-04
5.790786E+03	1.883982E-02	4.412579E-04
5.800601E+03	1.880375E-02	4.399882E-04
5.810416E+03	1.876853E-02	4.387391E-04
5.820230E+03	1.873453E-02	4.375198E-04
5.830045E+03	1.870145E-02	4.363228E-04
5.839860E+03	1.866930E-02	4.351486E-04
5.849675E+03	1.863829E-02	4.340017E-04
5.859490E+03	1.860806E-02	4.328743E-04
5.869305E+03	1.857881E-02	4.317705E-04
5.879120E+03	1.855036E-02	4.306861E-04
5.888935E+03	1.852268E-02	4.296207E-04
5.898750E+03	1.849560E-02	4.285703E-04
5.908564E+03	1.846928E-02	4.275382E-04
5.918379E+03	1.844351E-02	4.265200E-04
5.928194E+03	1.841809E-02	4.255110E-04
5.938009E+03	1.839300E-02	4.245105E-04
5.947824E+03	1.836803E-02	4.235136E-04
5.957639E+03	1.834330E-02	4.225236E-04
5.967454E+03	1.831844E-02	4.215316E-04
5.977269E+03	1.829357E-02	4.205405E-04
5.987084E+03	1.826829E-02	4.195413E-04
5.996898E+03	1.824274E-02	4.185369E-04
6.006713E+03	1.821668E-02	4.175224E-04
6.016528E+03	1.819007E-02	4.164965E-04
6.026343E+03	1.816285E-02	4.154581E-04
6.036158E+03	1.813495E-02	4.144058E-04
6.045973E+03	1.810649E-02	4.133423E-04
6.055788E+03	1.807759E-02	4.122703E-04
6.065603E+03	1.804835E-02	4.111924E-04
6.075418E+03	1.801889E-02	4.101111E-04
6.085233E+03	1.798912E-02	4.090247E-04
6.095047E+03	1.795864E-02	4.079240E-04
6.104862E+03	1.792720E-02	4.068034E-04
6.114677E+03	1.789489E-02	4.056653E-04
6.124492E+03	1.786164E-02	4.045080E-04
6.134307E+03	1.782719E-02	4.033257E-04
6.144122E+03	1.779164E-02	4.021210E-04
6.153937E+03	1.775509E-02	4.008960E-04
6.163752E+03	1.771727E-02	3.996449E-04
6.173567E+03	1.767845E-02	3.983739E-04
6.183381E+03	1.763854E-02	3.970813E-04
6.193196E+03	1.759747E-02	3.957650E-04
6.203011E+03	1.755530E-02	3.944273E-04
6.212826E+03	1.751196E-02	3.930661E-04
6.222641E+03	1.746771E-02	3.916875E-04
6.232456E+03	1.742228E-02	3.902857E-04
6.242271E+03	1.737557E-02	3.888587E-04
6.252086E+03	1.732803E-02	3.874164E-04
6.261901E+03	1.727921E-02	3.859491E-04
6.271715E+03	1.722920E-02	3.844585E-04
6.281530E+03	1.717807E-02	3.829469E-04
6.291345E+03	1.712575E-02	3.814123E-04
6.301160E+03	1.707231E-02	3.798568E-04
6.310975E+03	1.701767E-02	3.782784E-04
6.320790E+03	1.696191E-02	3.766794E-04
6.330605E+03	1.690496E-02	3.750578E-04
6.340420E+03	1.684707E-02	3.734199E-04
6.350235E+03	1.678783E-02	3.717562E-04
6.360049E+03	1.672767E-02	3.700766E-04
6.369864E+03	1.666655E-02	3.683800E-04
6.379679E+03	1.660455E-02	3.666687E-04
6.389494E+03	1.654144E-02	3.649376E-04
6.399309E+03	1.647702E-02	3.631820E-04
6.409124E+03	1.641123E-02	3.614010E-04
6.418939E+03	1.634422E-02	3.595979E-04
6.428754E+03	1.627547E-02	3.577612E-04
6.438569E+03	1.620535E-02	3.558989E-04
6.448383E+03	1.613390E-02	3.540119E-04
6.458198E+03	1.606083E-02	3.520944E-04
6.468013E+03	1.598662E-02	3.501565E-04
6.477828E+03	1.591106E-02	3.481935E-04
6.487643E+03	1.583447E-02	3.462128E-04
6.497458E+03	1.575721E-02	3.442222E-04
6.507273E+03	1.567912E-02	3.422183E-04
6.517088E+03	1.560059E-02	3.402091E-04
6.526903E+03	1.552180E-02	3.381990E-04
6.536718E+03	1.544313E-02	3.361962E-04
6.546532E+03	1.536445E-02	3.341974E-04
6.556347E+03	1.528627E-02	3.322143E-04
6.566162E+03	1.520864E-02	3.302474E-04
6.575977E+03	1.513191E-02	3.283043E-04
6.585792E+03	1.505591E-02	3.263814E-04
6.595607E+03	1.498115E-02	3.244897E-04
6.605422E+03	1.490781E-02	3.226328E-04
6.615237E+03	1.483588E-02	3.208104E-04
6.625052E+03	1.476567E-02	3.190291E-04
6.634866E+03	1.469714E-02	3.172882E-04
6.644681E+03	1.463078E-02	3.155978E-04
6.654496E+03	1.456620E-02	3.139494E-04
6.664311E+03	1.450401E-02	3.123562E-04
6.674126E+03	1.444417E-02	3.108169E-04
6.683941E+03	1.438658E-02	3.093295E-04
6.693756E+03	1.433153E-02	3.078998E-04
6.703571E+03	1.427907E-02	3.065290E-04
6.713386E+03	1.422928E-02	3.052186E-04
6.723200E+03	1.418239E-02	3.039733E-04
6.733015E+03	1.413811E-02	3.027869E-04
6.742830E+03	1.409667E-02	3.016639E-04
6.752645E+03	1.405810E-02	3.006048E-04
6.762460E+03	1.402242E-02	2.996102E-04
6.772275E+03	1.398966E-02	2.986802E-04
6.782090E+03	1.396000E-02	2.978186E-04
6.791905E+03	1.393310E-02	2.970183E-04
6.801720E+03	1.390930E-02	2.962860E-04
6.811534E+03	1.388842E-02	2.956180E-04
6.821349E+03	1.387028E-02	2.950101E-04
6.831164E+03	1.385517E-02	2.944687E-04
6.840979E+03	1.384290E-02	2.939892E-04
6.850794E+03	1.383345E-02	2.935711E-04
6.860609E+03	1.382690E-02	2.932164E-04
6.870424E+03	1.382290E-02	2.929169E-04
6.880239E+03	1.382170E-02	2.926783E-04
6.890054E+03	1.382290E-02	2.924918E-04
6.899868E+03	1.382677E-02	2.923631E-04
6.909683E+03	1.383306E-02	2.922866E-04
6.919498E+03	1.384167E-02	2.922604E-04
6.929313E+03	1.385252E-02	2.922826E-04
6.939128E+03	1.386551E-02	2.923510E-04
6.948943E+03	1.388053E-02	2.924632E-04
6.958758E+03	1.389748E-02	2.926171E-04
6.968573E+03	1.391642E-02	2.928137E-04
6.978388E+03	1.393689E-02	2.930435E-04
6.988203E+03	1.395910E-02	2.933108E-04
6.998017E+03	1.398277E-02	2.936095E-04
7.007832E+03	1.400776E-02	2.939370E-04
7.017647E+03	1.403377E-02	2.942867E-04
7.027462E+03	1.406120E-02	2.946670E-04
7.037277E+03	1.408938E-02	2.950639E-04
7.047092E+03	1.411836E-02	2.954785E-04
7.056907E+03	1.414800E-02	2.959077E-04
7.066722E+03	1.417834E-02	2.963528E-04
7.076537E+03	1.420909E-02	2.968071E-04
7.086351E+03	1.424009E-02	2.972678E-04
7.096166E+03	1.427123E-02	2.977325E-04
7.105981E+03	1.430239E-02	2.981986E-04
7.115796E+03	1.433361E-02	2.986673E-04
7.125611E+03	1.436461E-02	2.991325E-04
7.135426E+03	1.439528E-02	2.995919E-04
7.145241E+03	1.442550E-02	3.000434E-04
7.155056E+03	1.445536E-02	3.004889E-04
7.164871E+03	1.448458E-02	3.009225E-04
7.174685E+03	1.451327E-02	3.013465E-04
7.184500E+03	1.454115E-02	3.017555E-04
7.194315E+03	1.456816E-02	3.021480E-04
7.204130E+03	1.459443E-02	3.025268E-04
7.213945E+03	1.461970E-02	3.028868E-04
7.223760E+03	1.464412E-02	3.032312E-04
7.233575E+03	1.466746E-02	3.035553E-04
7.243390E+03	1.468989E-02	3.038625E-04
7.253205E+03	1.471117E-02	3.041483E-04
7.263019E+03	1.473150E-02	3.044164E-04
7.272834E+03	1.475085E-02	3.046669E-04
7.282649E+03	1.476903E-02	3.048956E-04
7.292464E+03	1.478623E-02	3.051066E-04
7.302279E+03	1.480225E-02	3.052961E-04
7.312094E+03	1.481732E-02	3.054685E-04
7.321909E+03	1.483122E-02	3.056198E-04
7.331724E+03	1.484399E-02	3.057505E-04
7.341539E+03	1.485582E-02	3.058649E-04
7.351353E+03	1.486673E-02	3.059636E-04
7.361168E+03	1.487633E-02	3.060384E-04
7.370983E+03	1.488503E-02	3.060980E-04
7.380798E+03	1.489263E-02	3.061385E-04
7.390613E+03	1.489913E-02	3.061598E-04
7.400428E+03	1.490434E-02	3.061581E-04
7.410243E+03	1.490865E-02	3.061415E-04
7.420058E+03	1.491182E-02	3.061055E-04
7.429873E+03	1.491366E-02	3.060457E-04
7.439687E+03	1.491431E-02	3.059657E-04
7.449502E+03	1.491374E-02	3.058647E-04
7.459317E+03	1.491172E-02	3.057380E-04
7.469132E+03	1.490838E-02	3.055885E-04
7.478947E+03	1.490366E-02	3.054150E-04
7.488762E+03	1.489729E-02	3.052121E-04
7.498577E+03	1.488919E-02	3.049783E-04
7.508392E+03	1.487948E-02	3.047160E-04
7.518207E+03	1.486785E-02	3.044192E-04
7.528022E+03	1.485442E-02	3.040902E-04
7.537836E+03	1.483887E-02	3.037228E-04
7.547651E+03	1.482131E-02	3.033191E-04
7.557466E+03	1.480121E-02	3.028684E-04
7.567281E+03	1.477887E-02	3.023771E-04
7.577096E+03	1.475417E-02	3.018427E-04
7.586911E+03	1.472680E-02	3.012588E-04
7.596726E+03	1.469665E-02	3.006234E-04
7.606541E+03	1.466382E-02	2.999385E-04
7.616356E+03	1.462800E-02	2.991981E-04
