#wls	flux	fluxerr
1.570383E+03	2.427712E-03	7.845699E-05
1.609642E+03	2.459144E-03	7.942757E-05
1.648902E+03	2.491161E-03	8.041462E-05
1.688161E+03	2.524204E-03	8.143233E-05
1.727421E+03	2.558733E-03	8.249534E-05
1.766680E+03	2.594259E-03	8.358774E-05
1.805940E+03	2.630752E-03	8.470844E-05
1.845200E+03	2.668673E-03	8.587211E-05
1.884459E+03	2.707996E-03	8.707773E-05
1.923719E+03	2.748189E-03	8.830800E-05
1.962978E+03	2.790718E-03	8.960984E-05
2.002238E+03	2.834029E-03	9.093317E-05
2.041497E+03	2.879601E-03	9.232517E-05
2.080757E+03	2.926352E-03	9.375094E-05
2.120016E+03	2.975254E-03	9.524138E-05
2.159276E+03	3.026243E-03	9.679416E-05
2.198536E+03	3.078705E-03	9.838936E-05
2.237795E+03	3.133609E-03	1.000576E-04
2.277055E+03	3.190853E-03	1.017954E-04
2.316314E+03	3.250316E-03	1.035985E-04
2.355574E+03	3.312402E-03	1.054794E-04
2.394833E+03	3.376953E-03	1.074327E-04
2.434093E+03	3.444337E-03	1.094696E-04
2.473353E+03	3.514348E-03	1.115833E-04
2.512612E+03	3.587303E-03	1.137832E-04
2.551872E+03	3.663489E-03	1.160781E-04
2.591131E+03	3.743160E-03	1.184755E-04
2.630391E+03	3.826528E-03	1.209813E-04
2.669650E+03	3.913756E-03	1.236003E-04
2.708910E+03	4.004395E-03	1.263175E-04
2.748170E+03	4.099606E-03	1.291690E-04
2.787429E+03	4.198809E-03	1.321357E-04
2.826689E+03	4.303007E-03	1.352484E-04
2.865948E+03	4.412001E-03	1.384999E-04
2.905208E+03	4.526041E-03	1.418974E-04
2.944467E+03	4.645258E-03	1.454438E-04
2.954282E+03	4.676286E-03	1.463666E-04
2.964097E+03	4.707284E-03	1.472875E-04
2.973912E+03	4.738769E-03	1.482228E-04
2.983727E+03	4.770724E-03	1.491718E-04
2.993542E+03	4.802591E-03	1.501172E-04
3.003357E+03	4.835420E-03	1.510917E-04
3.013172E+03	4.868123E-03	1.520613E-04
3.022986E+03	4.901212E-03	1.530420E-04
3.032801E+03	4.935190E-03	1.540495E-04
3.042616E+03	4.968980E-03	1.550501E-04
3.052431E+03	5.003610E-03	1.560759E-04
3.062246E+03	5.038531E-03	1.571097E-04
3.072061E+03	5.073717E-03	1.581508E-04
3.081876E+03	5.109145E-03	1.591983E-04
3.091691E+03	5.145307E-03	1.602677E-04
3.101506E+03	5.181655E-03	1.613417E-04
3.111320E+03	5.218680E-03	1.624358E-04
3.121135E+03	5.255837E-03	1.635328E-04
3.130950E+03	5.293101E-03	1.646320E-04
3.140765E+03	5.331460E-03	1.657641E-04
3.150580E+03	5.369864E-03	1.668965E-04
3.160395E+03	5.408790E-03	1.680439E-04
3.170210E+03	5.448205E-03	1.692053E-04
3.180025E+03	5.488074E-03	1.703795E-04
3.189840E+03	5.527868E-03	1.715503E-04
3.199655E+03	5.568548E-03	1.727472E-04
3.209469E+03	5.609580E-03	1.739539E-04
3.219284E+03	5.650931E-03	1.751691E-04
3.229099E+03	5.693053E-03	1.764069E-04
3.238914E+03	5.735420E-03	1.776510E-04
3.248729E+03	5.777998E-03	1.789003E-04
3.258544E+03	5.821712E-03	1.801834E-04
3.268359E+03	5.865082E-03	1.814545E-04
3.278174E+03	5.909505E-03	1.827568E-04
3.287989E+03	5.953991E-03	1.840597E-04
3.297803E+03	5.998975E-03	1.853765E-04
3.307618E+03	6.044418E-03	1.867060E-04
3.317433E+03	6.090745E-03	1.880614E-04
3.327248E+03	6.136988E-03	1.894127E-04
3.337063E+03	6.184033E-03	1.907872E-04
3.346878E+03	6.231384E-03	1.921697E-04
3.356693E+03	6.279456E-03	1.935729E-04
3.366508E+03	6.328208E-03	1.949954E-04
3.376323E+03	6.377157E-03	1.964224E-04
3.386137E+03	6.426714E-03	1.978666E-04
3.395952E+03	6.476846E-03	1.993268E-04
3.405767E+03	6.527520E-03	2.008021E-04
3.415582E+03	6.579139E-03	2.023047E-04
3.425397E+03	6.630808E-03	2.038072E-04
3.435212E+03	6.683366E-03	2.053353E-04
3.445027E+03	6.736786E-03	2.068882E-04
3.454842E+03	6.790622E-03	2.084520E-04
3.464657E+03	6.845280E-03	2.100393E-04
3.474471E+03	6.900747E-03	2.116495E-04
3.484286E+03	6.957012E-03	2.132824E-04
3.494101E+03	7.014478E-03	2.149501E-04
3.503916E+03	7.072332E-03	2.166279E-04
3.513731E+03	7.131390E-03	2.183406E-04
3.523546E+03	7.191663E-03	2.200885E-04
3.533361E+03	7.252759E-03	2.218595E-04
3.543176E+03	7.315098E-03	2.236665E-04
3.552991E+03	7.379107E-03	2.255224E-04
3.562805E+03	7.444020E-03	2.274037E-04
3.572620E+03	7.510283E-03	2.293242E-04
3.582435E+03	7.578312E-03	2.312962E-04
3.592250E+03	7.648159E-03	2.333215E-04
3.602065E+03	7.719486E-03	2.353895E-04
3.611880E+03	7.792734E-03	2.375137E-04
3.621695E+03	7.867956E-03	2.396955E-04
3.631510E+03	7.945208E-03	2.419366E-04
3.641325E+03	8.024915E-03	2.442499E-04
3.651140E+03	8.106414E-03	2.466149E-04
3.660954E+03	8.190470E-03	2.490550E-04
3.670769E+03	8.277130E-03	2.515714E-04
3.680584E+03	8.366426E-03	2.541649E-04
3.690399E+03	8.458027E-03	2.568254E-04
3.700214E+03	8.552654E-03	2.595747E-04
3.710029E+03	8.649591E-03	2.623909E-04
3.719844E+03	8.749511E-03	2.652942E-04
3.729659E+03	8.852012E-03	2.682724E-04
3.739474E+03	8.957349E-03	2.713330E-04
3.749288E+03	9.065072E-03	2.744624E-04
3.759103E+03	9.175387E-03	2.776665E-04
3.768918E+03	9.288107E-03	2.809396E-04
3.778733E+03	9.402694E-03	2.842654E-04
3.788548E+03	9.519242E-03	2.876466E-04
3.798363E+03	9.637786E-03	2.910840E-04
3.808178E+03	9.757362E-03	2.945486E-04
3.817993E+03	9.878271E-03	2.980494E-04
3.827808E+03	9.999495E-03	3.015555E-04
3.837622E+03	1.012127E-02	3.050739E-04
3.847437E+03	1.024285E-02	3.085826E-04
3.857252E+03	1.036381E-02	3.120681E-04
3.867067E+03	1.048401E-02	3.155267E-04
3.876882E+03	1.060238E-02	3.189259E-04
3.886697E+03	1.071909E-02	3.222710E-04
3.896512E+03	1.083339E-02	3.255399E-04
3.906327E+03	1.094488E-02	3.287201E-04
3.916142E+03	1.105316E-02	3.318001E-04
3.925956E+03	1.115759E-02	3.347607E-04
3.935771E+03	1.125845E-02	3.376104E-04
3.945586E+03	1.135488E-02	3.403238E-04
3.955401E+03	1.144697E-02	3.429035E-04
3.965216E+03	1.153425E-02	3.453360E-04
3.975031E+03	1.161665E-02	3.476188E-04
3.984846E+03	1.169439E-02	3.497595E-04
3.994661E+03	1.176695E-02	3.517423E-04
4.004476E+03	1.183441E-02	3.535698E-04
4.014290E+03	1.189721E-02	3.552556E-04
4.024105E+03	1.195528E-02	3.567977E-04
4.033920E+03	1.200889E-02	3.582045E-04
4.043735E+03	1.205810E-02	3.594777E-04
4.053550E+03	1.210303E-02	3.606214E-04
4.063365E+03	1.214460E-02	3.616633E-04
4.073180E+03	1.218279E-02	3.626025E-04
4.082995E+03	1.221782E-02	3.634462E-04
4.092810E+03	1.225074E-02	3.642254E-04
4.102625E+03	1.228135E-02	3.649345E-04
4.112439E+03	1.231024E-02	3.655910E-04
4.122254E+03	1.233824E-02	3.662197E-04
4.132069E+03	1.236549E-02	3.668246E-04
4.141884E+03	1.239281E-02	3.674306E-04
4.151699E+03	1.242038E-02	3.680424E-04
4.161514E+03	1.244880E-02	3.686781E-04
4.171329E+03	1.247846E-02	3.693492E-04
4.181144E+03	1.250997E-02	3.700736E-04
4.190959E+03	1.254391E-02	3.708682E-04
4.200773E+03	1.258043E-02	3.717378E-04
4.210588E+03	1.262030E-02	3.727045E-04
4.220403E+03	1.266384E-02	3.737778E-04
4.230218E+03	1.271114E-02	3.749602E-04
4.240033E+03	1.276291E-02	3.762725E-04
4.249848E+03	1.281939E-02	3.777214E-04
4.259663E+03	1.288099E-02	3.793188E-04
4.269478E+03	1.294770E-02	3.810640E-04
4.279293E+03	1.302003E-02	3.829721E-04
4.289107E+03	1.309809E-02	3.850457E-04
4.298922E+03	1.318189E-02	3.872851E-04
4.308737E+03	1.327181E-02	3.897008E-04
4.318552E+03	1.336754E-02	3.922836E-04
4.328367E+03	1.346912E-02	3.950346E-04
4.338182E+03	1.357669E-02	3.979573E-04
4.347997E+03	1.368993E-02	4.010421E-04
4.357812E+03	1.380843E-02	4.042767E-04
4.367627E+03	1.393207E-02	4.076573E-04
4.377441E+03	1.406026E-02	4.111665E-04
4.387256E+03	1.419231E-02	4.147837E-04
4.397071E+03	1.432765E-02	4.184920E-04
4.406886E+03	1.446560E-02	4.222715E-04
4.416701E+03	1.460500E-02	4.260885E-04
4.426516E+03	1.474521E-02	4.299237E-04
4.436331E+03	1.488515E-02	4.337457E-04
4.446146E+03	1.502381E-02	4.375255E-04
4.455961E+03	1.516001E-02	4.412285E-04
4.465775E+03	1.529270E-02	4.448243E-04
4.475590E+03	1.542102E-02	4.482880E-04
4.485405E+03	1.554354E-02	4.515784E-04
4.495220E+03	1.565922E-02	4.546657E-04
4.505035E+03	1.576731E-02	4.575283E-04
4.514850E+03	1.586671E-02	4.601347E-04
4.524665E+03	1.595661E-02	4.624618E-04
4.534480E+03	1.603650E-02	4.644956E-04
4.544295E+03	1.610542E-02	4.662086E-04
4.554109E+03	1.616331E-02	4.676001E-04
4.563924E+03	1.620989E-02	4.686619E-04
4.573739E+03	1.624484E-02	4.693855E-04
4.583554E+03	1.626815E-02	4.697716E-04
4.593369E+03	1.628038E-02	4.698369E-04
4.603184E+03	1.628166E-02	4.695854E-04
4.612999E+03	1.627244E-02	4.690310E-04
4.622814E+03	1.625348E-02	4.681961E-04
4.632629E+03	1.622566E-02	4.671061E-04
4.642444E+03	1.618954E-02	4.657783E-04
4.652258E+03	1.614615E-02	4.642425E-04
4.662073E+03	1.609621E-02	4.625196E-04
4.671888E+03	1.604082E-02	4.606416E-04
4.681703E+03	1.598090E-02	4.586355E-04
4.691518E+03	1.591739E-02	4.565281E-04
4.701333E+03	1.585119E-02	4.543455E-04
4.711148E+03	1.578316E-02	4.521129E-04
4.720963E+03	1.571413E-02	4.498537E-04
4.730778E+03	1.564470E-02	4.475853E-04
4.740592E+03	1.557557E-02	4.453276E-04
4.750407E+03	1.550756E-02	4.431041E-04
4.760222E+03	1.544123E-02	4.409309E-04
4.770037E+03	1.537691E-02	4.388174E-04
4.779852E+03	1.531539E-02	4.367857E-04
4.789667E+03	1.525671E-02	4.348371E-04
4.799482E+03	1.520137E-02	4.329852E-04
4.809297E+03	1.514981E-02	4.312429E-04
4.819112E+03	1.510225E-02	4.296163E-04
4.828926E+03	1.505878E-02	4.281073E-04
4.838741E+03	1.501988E-02	4.267297E-04
4.848556E+03	1.498559E-02	4.254841E-04
4.858371E+03	1.495622E-02	4.243793E-04
4.868186E+03	1.493194E-02	4.234200E-04
4.878001E+03	1.491295E-02	4.226110E-04
4.887816E+03	1.489957E-02	4.219617E-04
4.897631E+03	1.489200E-02	4.214772E-04
4.907446E+03	1.489047E-02	4.211635E-04
4.917260E+03	1.489533E-02	4.210307E-04
4.927075E+03	1.490667E-02	4.210808E-04
4.936890E+03	1.492506E-02	4.213291E-04
4.946705E+03	1.495057E-02	4.217778E-04
4.956520E+03	1.498343E-02	4.224329E-04
4.966335E+03	1.502405E-02	4.233053E-04
4.976150E+03	1.507264E-02	4.244007E-04
4.985965E+03	1.512939E-02	4.257238E-04
4.995780E+03	1.519461E-02	4.272834E-04
5.005594E+03	1.526827E-02	4.290777E-04
5.015409E+03	1.535046E-02	4.311089E-04
5.025224E+03	1.544135E-02	4.333816E-04
5.035039E+03	1.554107E-02	4.358986E-04
5.044854E+03	1.564922E-02	4.386483E-04
5.054669E+03	1.576577E-02	4.416298E-04
5.064484E+03	1.589066E-02	4.448405E-04
5.074299E+03	1.602341E-02	4.482668E-04
5.084114E+03	1.616377E-02	4.519015E-04
5.093929E+03	1.631111E-02	4.557261E-04
5.103743E+03	1.646503E-02	4.597294E-04
5.113558E+03	1.662470E-02	4.638880E-04
5.123373E+03	1.678973E-02	4.681904E-04
5.133188E+03	1.695897E-02	4.726046E-04
5.143003E+03	1.713168E-02	4.771098E-04
5.152818E+03	1.730708E-02	4.816839E-04
5.162633E+03	1.748377E-02	4.862881E-04
5.172448E+03	1.766100E-02	4.909015E-04
5.182263E+03	1.783745E-02	4.954872E-04
5.192077E+03	1.801209E-02	5.000169E-04
5.201892E+03	1.818368E-02	5.044561E-04
5.211707E+03	1.835078E-02	5.087654E-04
5.221522E+03	1.851229E-02	5.129144E-04
5.231337E+03	1.866692E-02	5.168680E-04
5.241152E+03	1.881361E-02	5.205967E-04
5.250967E+03	1.895107E-02	5.240661E-04
5.260782E+03	1.907793E-02	5.272380E-04
5.270597E+03	1.919317E-02	5.300856E-04
5.280411E+03	1.929587E-02	5.325838E-04
5.290226E+03	1.938478E-02	5.346985E-04
5.300041E+03	1.945909E-02	5.364089E-04
5.309856E+03	1.951812E-02	5.376964E-04
5.319671E+03	1.956084E-02	5.385341E-04
5.329486E+03	1.958678E-02	5.389093E-04
5.339301E+03	1.959534E-02	5.388069E-04
5.349116E+03	1.958607E-02	5.382150E-04
5.358931E+03	1.955903E-02	5.371365E-04
5.368745E+03	1.951366E-02	5.355568E-04
5.378560E+03	1.945012E-02	5.334814E-04
5.388375E+03	1.936873E-02	5.309198E-04
5.398190E+03	1.926939E-02	5.278704E-04
5.408005E+03	1.915294E-02	5.243572E-04
5.417820E+03	1.901981E-02	5.203925E-04
5.427635E+03	1.887077E-02	5.159983E-04
5.437450E+03	1.870677E-02	5.112014E-04
5.447265E+03	1.852889E-02	5.060320E-04
5.457079E+03	1.833817E-02	5.005192E-04
5.466894E+03	1.813595E-02	4.947001E-04
5.476709E+03	1.792368E-02	4.886150E-04
5.486524E+03	1.770290E-02	4.823061E-04
5.496339E+03	1.747504E-02	4.758126E-04
5.506154E+03	1.724189E-02	4.691840E-04
5.515969E+03	1.700477E-02	4.624562E-04
5.525784E+03	1.676550E-02	4.556788E-04
5.535599E+03	1.652555E-02	4.488917E-04
5.545414E+03	1.628646E-02	4.421370E-04
5.555228E+03	1.604976E-02	4.354557E-04
5.565043E+03	1.581685E-02	4.288861E-04
5.574858E+03	1.558889E-02	4.224592E-04
5.584673E+03	1.536709E-02	4.162075E-04
5.594488E+03	1.515268E-02	4.101640E-04
5.604303E+03	1.494632E-02	4.043461E-04
5.614118E+03	1.474912E-02	3.987836E-04
5.623933E+03	1.456147E-02	3.934866E-04
5.633748E+03	1.438394E-02	3.884697E-04
5.643562E+03	1.421710E-02	3.837481E-04
5.653377E+03	1.406111E-02	3.793254E-04
5.663192E+03	1.391628E-02	3.752097E-04
5.673007E+03	1.378241E-02	3.713949E-04
5.682822E+03	1.365974E-02	3.678871E-04
5.692637E+03	1.354800E-02	3.646785E-04
5.702452E+03	1.344684E-02	3.617590E-04
5.712267E+03	1.335610E-02	3.591241E-04
5.722082E+03	1.327542E-02	3.567635E-04
5.731896E+03	1.320439E-02	3.546657E-04
5.741711E+03	1.314241E-02	3.528143E-04
5.751526E+03	1.308912E-02	3.511993E-04
5.761341E+03	1.304374E-02	3.497995E-04
5.771156E+03	1.300613E-02	3.486103E-04
5.780971E+03	1.297534E-02	3.476067E-04
5.790786E+03	1.295111E-02	3.467810E-04
5.800601E+03	1.293265E-02	3.461118E-04
5.810416E+03	1.291970E-02	3.455922E-04
5.820230E+03	1.291165E-02	3.452057E-04
5.830045E+03	1.290792E-02	3.449362E-04
5.839860E+03	1.290835E-02	3.447796E-04
5.849675E+03	1.291229E-02	3.447185E-04
5.859490E+03	1.291954E-02	3.447471E-04
5.869305E+03	1.292978E-02	3.448572E-04
5.879120E+03	1.294276E-02	3.450419E-04
5.888935E+03	1.295826E-02	3.452952E-04
5.898750E+03	1.297610E-02	3.456122E-04
5.908564E+03	1.299612E-02	3.459888E-04
5.918379E+03	1.301823E-02	3.464222E-04
5.928194E+03	1.304232E-02	3.469099E-04
5.938009E+03	1.306846E-02	3.474536E-04
5.947824E+03	1.309648E-02	3.480487E-04
5.957639E+03	1.312649E-02	3.486980E-04
5.967454E+03	1.315847E-02	3.494009E-04
5.977269E+03	1.319240E-02	3.501571E-04
5.987084E+03	1.322839E-02	3.509697E-04
5.996898E+03	1.326620E-02	3.518316E-04
6.006713E+03	1.330605E-02	3.527492E-04
6.016528E+03	1.334778E-02	3.537184E-04
6.026343E+03	1.339111E-02	3.547311E-04
6.036158E+03	1.343626E-02	3.557936E-04
6.045973E+03	1.348275E-02	3.568934E-04
6.055788E+03	1.353066E-02	3.580323E-04
6.065603E+03	1.357979E-02	3.592049E-04
6.075418E+03	1.362988E-02	3.604048E-04
6.085233E+03	1.368126E-02	3.616405E-04
6.095047E+03	1.373368E-02	3.629054E-04
6.104862E+03	1.378717E-02	3.642004E-04
6.114677E+03	1.384173E-02	3.655256E-04
6.124492E+03	1.389710E-02	3.668743E-04
6.134307E+03	1.395329E-02	3.682464E-04
6.144122E+03	1.401013E-02	3.696380E-04
6.153937E+03	1.406748E-02	3.710450E-04
6.163752E+03	1.412513E-02	3.724624E-04
6.173567E+03	1.418261E-02	3.738773E-04
6.183381E+03	1.424011E-02	3.752953E-04
6.193196E+03	1.429691E-02	3.766975E-04
6.203011E+03	1.435288E-02	3.780801E-04
6.212826E+03	1.440765E-02	3.794340E-04
6.222641E+03	1.446082E-02	3.807487E-04
6.232456E+03	1.451182E-02	3.820089E-04
6.242271E+03	1.456044E-02	3.832094E-04
6.252086E+03	1.460583E-02	3.843283E-04
6.261901E+03	1.464755E-02	3.853536E-04
6.271715E+03	1.468496E-02	3.862690E-04
6.281530E+03	1.471738E-02	3.870567E-04
6.291345E+03	1.474427E-02	3.877023E-04
6.301160E+03	1.476460E-02	3.881793E-04
6.310975E+03	1.477795E-02	3.884766E-04
6.320790E+03	1.478345E-02	3.885717E-04
6.330605E+03	1.478060E-02	3.884511E-04
6.340420E+03	1.476858E-02	3.880938E-04
6.350235E+03	1.474714E-02	3.874931E-04
6.360049E+03	1.471546E-02	3.866277E-04
6.369864E+03	1.467313E-02	3.854870E-04
6.379679E+03	1.462016E-02	3.840712E-04
6.389494E+03	1.455619E-02	3.823708E-04
6.399309E+03	1.448115E-02	3.803840E-04
6.409124E+03	1.439508E-02	3.781113E-04
6.418939E+03	1.429813E-02	3.755574E-04
6.428754E+03	1.419074E-02	3.727333E-04
6.438569E+03	1.407315E-02	3.696450E-04
6.448383E+03	1.394615E-02	3.663133E-04
6.458198E+03	1.381017E-02	3.627493E-04
6.468013E+03	1.366586E-02	3.589701E-04
6.477828E+03	1.351397E-02	3.549948E-04
6.487643E+03	1.335555E-02	3.508513E-04
6.497458E+03	1.319100E-02	3.465495E-04
6.507273E+03	1.302160E-02	3.421231E-04
6.517088E+03	1.284808E-02	3.375910E-04
6.526903E+03	1.267132E-02	3.329760E-04
6.536718E+03	1.249219E-02	3.283010E-04
6.546532E+03	1.231184E-02	3.235958E-04
6.556347E+03	1.213067E-02	3.188712E-04
6.566162E+03	1.194994E-02	3.141595E-04
6.575977E+03	1.177028E-02	3.094774E-04
6.585792E+03	1.159242E-02	3.048441E-04
6.595607E+03	1.141707E-02	3.002780E-04
6.605422E+03	1.124501E-02	2.957995E-04
6.615237E+03	1.107684E-02	2.914245E-04
6.625052E+03	1.091300E-02	2.871639E-04
6.634866E+03	1.075423E-02	2.830378E-04
6.644681E+03	1.060087E-02	2.790546E-04
6.654496E+03	1.045331E-02	2.752247E-04
6.664311E+03	1.031192E-02	2.715578E-04
6.674126E+03	1.017722E-02	2.680678E-04
6.683941E+03	1.004925E-02	2.647554E-04
6.693756E+03	9.928343E-03	2.616294E-04
6.703571E+03	9.814654E-03	2.586942E-04
6.713386E+03	9.708324E-03	2.559534E-04
6.723200E+03	9.609444E-03	2.534095E-04
6.733015E+03	9.518180E-03	2.510668E-04
6.742830E+03	9.434445E-03	2.489233E-04
6.752645E+03	9.358342E-03	2.469816E-04
6.762460E+03	9.289718E-03	2.452379E-04
6.772275E+03	9.228632E-03	2.436939E-04
6.782090E+03	9.174886E-03	2.423443E-04
6.791905E+03	9.128584E-03	2.411921E-04
6.801720E+03	9.089385E-03	2.402283E-04
6.811534E+03	9.057270E-03	2.394527E-04
6.821349E+03	9.032173E-03	2.388635E-04
6.831164E+03	9.013729E-03	2.384513E-04
6.840979E+03	9.001865E-03	2.382144E-04
6.850794E+03	8.996406E-03	2.381480E-04
6.860609E+03	8.997162E-03	2.382475E-04
6.870424E+03	9.003952E-03	2.385082E-04
6.880239E+03	9.016586E-03	2.389251E-04
6.890054E+03	9.034993E-03	2.394965E-04
6.899868E+03	9.058764E-03	2.402117E-04
6.909683E+03	9.087820E-03	2.410688E-04
6.919498E+03	9.121973E-03	2.420629E-04
6.929313E+03	9.161035E-03	2.431892E-04
6.939128E+03	9.204824E-03	2.444429E-04
6.948943E+03	9.253131E-03	2.458188E-04
6.958758E+03	9.305640E-03	2.473084E-04
6.968573E+03	9.362246E-03	2.489092E-04
6.978388E+03	9.422723E-03	2.506152E-04
6.988203E+03	9.486824E-03	2.524200E-04
6.998017E+03	9.554148E-03	2.543131E-04
7.007832E+03	9.624401E-03	2.562867E-04
7.017647E+03	9.697385E-03	2.583357E-04
7.027462E+03	9.772742E-03	2.604505E-04
7.037277E+03	9.849851E-03	2.626148E-04
7.047092E+03	9.928536E-03	2.648240E-04
7.056907E+03	1.000822E-02	2.670626E-04
7.066722E+03	1.008844E-02	2.693183E-04
7.076537E+03	1.016854E-02	2.715738E-04
7.086351E+03	1.024826E-02	2.738220E-04
7.096166E+03	1.032679E-02	2.760411E-04
7.105981E+03	1.040369E-02	2.782196E-04
7.115796E+03	1.047839E-02	2.803420E-04
7.125611E+03	1.055018E-02	2.823892E-04
7.135426E+03	1.061862E-02	2.843497E-04
7.145241E+03	1.068317E-02	2.862084E-04
7.155056E+03	1.074317E-02	2.879477E-04
7.164871E+03	1.079813E-02	2.895542E-04
7.174685E+03	1.084773E-02	2.910193E-04
7.184500E+03	1.089159E-02	2.923325E-04
7.194315E+03	1.092936E-02	2.934843E-04
7.204130E+03	1.096065E-02	2.944638E-04
7.213945E+03	1.098567E-02	2.952763E-04
7.223760E+03	1.100402E-02	2.959113E-04
7.233575E+03	1.101581E-02	2.963709E-04
7.243390E+03	1.102121E-02	2.966599E-04
7.253205E+03	1.102049E-02	2.967849E-04
7.263019E+03	1.101400E-02	2.967551E-04
7.272834E+03	1.100198E-02	2.965773E-04
7.282649E+03	1.098494E-02	2.962644E-04
7.292464E+03	1.096327E-02	2.958270E-04
7.302279E+03	1.093745E-02	2.952776E-04
7.312094E+03	1.090782E-02	2.946257E-04
7.321909E+03	1.087466E-02	2.938780E-04
7.331724E+03	1.083854E-02	2.930505E-04
7.341539E+03	1.079981E-02	2.921519E-04
7.351353E+03	1.075923E-02	2.912030E-04
7.361168E+03	1.071701E-02	2.902092E-04
7.370983E+03	1.067392E-02	2.891916E-04
7.380798E+03	1.063060E-02	2.881672E-04
7.390613E+03	1.058736E-02	2.871444E-04
7.400428E+03	1.054506E-02	2.861464E-04
7.410243E+03	1.050394E-02	2.851803E-04
7.420058E+03	1.046465E-02	2.842632E-04
7.429873E+03	1.042746E-02	2.834029E-04
7.439687E+03	1.039292E-02	2.826142E-04
7.449502E+03	1.036134E-02	2.819056E-04
7.459317E+03	1.033283E-02	2.812801E-04
7.469132E+03	1.030755E-02	2.807428E-04
7.478947E+03	1.028577E-02	2.803007E-04
7.488762E+03	1.026738E-02	2.799510E-04
7.498577E+03	1.025248E-02	2.796965E-04
7.508392E+03	1.024095E-02	2.795341E-04
7.518207E+03	1.023245E-02	2.794550E-04
7.528022E+03	1.022689E-02	2.794564E-04
7.537836E+03	1.022405E-02	2.795327E-04
7.547651E+03	1.022327E-02	2.796660E-04
7.557466E+03	1.022424E-02	2.798477E-04
7.567281E+03	1.022646E-02	2.800644E-04
7.577096E+03	1.022938E-02	2.803008E-04
7.586911E+03	1.023240E-02	2.805408E-04
7.596726E+03	1.023505E-02	2.807714E-04
7.606541E+03	1.023655E-02	2.809711E-04
7.616356E+03	1.023639E-02	2.811256E-04
