#wls	flux	fluxerr
1.593625E+03	8.058008E-15	2.350680E-16
1.633466E+03	6.923454E-15	1.967260E-16
1.673307E+03	5.865719E-15	1.622214E-16
1.713147E+03	4.905072E-15	1.319343E-16
1.752988E+03	4.053071E-15	1.059512E-16
1.792829E+03	3.314693E-15	8.415297E-17
1.832669E+03	2.688928E-15	6.625539E-17
1.872510E+03	2.169118E-15	5.184124E-17
1.912351E+03	1.745702E-15	4.044621E-17
1.952191E+03	1.406646E-15	3.158012E-17
1.992032E+03	1.139431E-15	2.477967E-17
2.031873E+03	9.311580E-16	1.961247E-17
2.071713E+03	7.712557E-16	1.573299E-17
2.111554E+03	6.529252E-16	1.290270E-17
2.151394E+03	5.724484E-16	1.096410E-17
2.191235E+03	5.271563E-16	9.793680E-18
2.231076E+03	5.156316E-16	9.302935E-18
2.270916E+03	5.392268E-16	9.462395E-18
2.310757E+03	6.027565E-16	1.030813E-17
2.350598E+03	7.161757E-16	1.196511E-17
2.390438E+03	8.968100E-16	1.467893E-17
2.430279E+03	1.170928E-15	1.883448E-17
2.470120E+03	1.574608E-15	2.496344E-17
2.509960E+03	2.151842E-15	3.371584E-17
2.549801E+03	2.945627E-15	4.572519E-17
2.589641E+03	3.978080E-15	6.130992E-17
2.629482E+03	5.231274E-15	8.019050E-17
2.669323E+03	6.653279E-15	1.015873E-16
2.709163E+03	8.176156E-15	1.244874E-16
2.749004E+03	9.713600E-15	1.475968E-16
2.788845E+03	1.116488E-14	1.693923E-16
2.828685E+03	1.243162E-14	1.883737E-16
2.868526E+03	1.343552E-14	2.033354E-16
2.908367E+03	1.413727E-14	2.136585E-16
2.948207E+03	1.454130E-14	2.193888E-16
2.988048E+03	1.469147E-14	2.211762E-16
2.998008E+03	1.469702E-14	2.211220E-16
3.007968E+03	1.469227E-14	2.209050E-16
3.017928E+03	1.467879E-14	2.205490E-16
3.027888E+03	1.465780E-14	2.200722E-16
3.037849E+03	1.463058E-14	2.194939E-16
3.047809E+03	1.459918E-14	2.188449E-16
3.057769E+03	1.456430E-14	2.181359E-16
3.067729E+03	1.452791E-14	2.173962E-16
3.077689E+03	1.449125E-14	2.166446E-16
3.087649E+03	1.445592E-14	2.159046E-16
3.097610E+03	1.442314E-14	2.151946E-16
3.107570E+03	1.439447E-14	2.145377E-16
3.117530E+03	1.437115E-14	2.139520E-16
3.127490E+03	1.435441E-14	2.134559E-16
3.137450E+03	1.434579E-14	2.130714E-16
3.147410E+03	1.434684E-14	2.128214E-16
3.157371E+03	1.435879E-14	2.127228E-16
3.167331E+03	1.438289E-14	2.127932E-16
3.177291E+03	1.442070E-14	2.130545E-16
3.187251E+03	1.447381E-14	2.135287E-16
3.197211E+03	1.454355E-14	2.142338E-16
3.207171E+03	1.463130E-14	2.151884E-16
3.217131E+03	1.473846E-14	2.164115E-16
3.227092E+03	1.486709E-14	2.179310E-16
3.237052E+03	1.501873E-14	2.197671E-16
3.247012E+03	1.519501E-14	2.219412E-16
3.256972E+03	1.539765E-14	2.244756E-16
3.266932E+03	1.562873E-14	2.273974E-16
3.276892E+03	1.588992E-14	2.307273E-16
3.286853E+03	1.618403E-14	2.345026E-16
3.296813E+03	1.651268E-14	2.387421E-16
3.306773E+03	1.687813E-14	2.434742E-16
3.316733E+03	1.728328E-14	2.487355E-16
3.326693E+03	1.773037E-14	2.545523E-16
3.336653E+03	1.822196E-14	2.609556E-16
3.346614E+03	1.876073E-14	2.679769E-16
3.356574E+03	1.934944E-14	2.756482E-16
3.366534E+03	1.999086E-14	2.840009E-16
3.376494E+03	2.068750E-14	2.930623E-16
3.386454E+03	2.144240E-14	3.028657E-16
3.396414E+03	2.225549E-14	3.134004E-16
3.406375E+03	2.312688E-14	3.246574E-16
3.416335E+03	2.405603E-14	3.366184E-16
3.426295E+03	2.503892E-14	3.492162E-16
3.436255E+03	2.607013E-14	3.623644E-16
3.446215E+03	2.714351E-14	3.759672E-16
3.456175E+03	2.824738E-14	3.898538E-16
3.466135E+03	2.936810E-14	4.038279E-16
3.476096E+03	3.049144E-14	4.176881E-16
3.486056E+03	3.159996E-14	4.311922E-16
3.496016E+03	3.267418E-14	4.440739E-16
3.505976E+03	3.369524E-14	4.560798E-16
3.515936E+03	3.464313E-14	4.669459E-16
3.525896E+03	3.549874E-14	4.764246E-16
3.535857E+03	3.624332E-14	4.842790E-16
3.545817E+03	3.686287E-14	4.903402E-16
3.555777E+03	3.734575E-14	4.944746E-16
3.565737E+03	3.768495E-14	4.966131E-16
3.575697E+03	3.788551E-14	4.968471E-16
3.585657E+03	3.795731E-14	4.953304E-16
3.595618E+03	3.791418E-14	4.922671E-16
3.605578E+03	3.777644E-14	4.879417E-16
3.615538E+03	3.756687E-14	4.826661E-16
3.625498E+03	3.731014E-14	4.767708E-16
3.635458E+03	3.703091E-14	4.705793E-16
3.645418E+03	3.675458E-14	4.644180E-16
3.655378E+03	3.650532E-14	4.585907E-16
3.665339E+03	3.630747E-14	4.533961E-16
3.675299E+03	3.618231E-14	4.490874E-16
3.685259E+03	3.615145E-14	4.459148E-16
3.695219E+03	3.623332E-14	4.440823E-16
3.705179E+03	3.644607E-14	4.437841E-16
3.715139E+03	3.680641E-14	4.451903E-16
3.725100E+03	3.732844E-14	4.484328E-16
3.735060E+03	3.802527E-14	4.536264E-16
3.745020E+03	3.890986E-14	4.608781E-16
3.754980E+03	3.999229E-14	4.702555E-16
3.764940E+03	4.128293E-14	4.818249E-16
3.774900E+03	4.278879E-14	4.956082E-16
3.784861E+03	4.451407E-14	5.115916E-16
3.794821E+03	4.645828E-14	5.297043E-16
3.804781E+03	4.861592E-14	5.498179E-16
3.814741E+03	5.096584E-14	5.716294E-16
3.824701E+03	5.347544E-14	5.947146E-16
3.834661E+03	5.610398E-14	6.185715E-16
3.844622E+03	5.879736E-14	6.425669E-16
3.854582E+03	6.149054E-14	6.659703E-16
3.864542E+03	6.411180E-14	6.880049E-16
3.874502E+03	6.658737E-14	7.079016E-16
3.884462E+03	6.884392E-14	7.249265E-16
3.894422E+03	7.081076E-14	7.384049E-16
3.904382E+03	7.244039E-14	7.479325E-16
3.914343E+03	7.369780E-14	7.532542E-16
3.924303E+03	7.456374E-14	7.542917E-16
3.934263E+03	7.505009E-14	7.512885E-16
3.944223E+03	7.518356E-14	7.446323E-16
3.954183E+03	7.500565E-14	7.348463E-16
3.964143E+03	7.457555E-14	7.226090E-16
3.974104E+03	7.395919E-14	7.086391E-16
3.984064E+03	7.322272E-14	6.936299E-16
3.994024E+03	7.242706E-14	6.781974E-16
4.003984E+03	7.162759E-14	6.628802E-16
4.013944E+03	7.087042E-14	6.481080E-16
4.023904E+03	7.017535E-14	6.340527E-16
4.033865E+03	6.955215E-14	6.207879E-16
4.043825E+03	6.900581E-14	6.083412E-16
4.053785E+03	6.853653E-14	5.966962E-16
4.063745E+03	6.813993E-14	5.857975E-16
4.073705E+03	6.780911E-14	5.755703E-16
4.083665E+03	6.753414E-14	5.659185E-16
4.093625E+03	6.730334E-14	5.567354E-16
4.103586E+03	6.710272E-14	5.479019E-16
4.113546E+03	6.691440E-14	5.392734E-16
4.123506E+03	6.671751E-14	5.306899E-16
4.133466E+03	6.649088E-14	5.219981E-16
4.143426E+03	6.620990E-14	5.130270E-16
4.153386E+03	6.585150E-14	5.036274E-16
4.163347E+03	6.539691E-14	4.936914E-16
4.173307E+03	6.484399E-14	4.832415E-16
4.183267E+03	6.419656E-14	4.723441E-16
4.193227E+03	6.346333E-14	4.610983E-16
4.203187E+03	6.265983E-14	4.496472E-16
4.213147E+03	6.180612E-14	4.381594E-16
4.223108E+03	6.092352E-14	4.268039E-16
4.233068E+03	6.003710E-14	4.157669E-16
4.243028E+03	5.917139E-14	4.052227E-16
4.252988E+03	5.835113E-14	3.953387E-16
4.262948E+03	5.759977E-14	3.862662E-16
4.272908E+03	5.693825E-14	3.781346E-16
4.282869E+03	5.638519E-14	3.710536E-16
4.292829E+03	5.595574E-14	3.651075E-16
4.302789E+03	5.566216E-14	3.603612E-16
4.312749E+03	5.550914E-14	3.568315E-16
4.322709E+03	5.547391E-14	3.543617E-16
4.332669E+03	5.552919E-14	3.527708E-16
4.342629E+03	5.564960E-14	3.518866E-16
4.352590E+03	5.579275E-14	3.514279E-16
4.362550E+03	5.592902E-14	3.511979E-16
4.372510E+03	5.606013E-14	3.511978E-16
4.382470E+03	5.620801E-14	3.515542E-16
4.392430E+03	5.640625E-14	3.524654E-16
4.402390E+03	5.669626E-14	3.541779E-16
4.412351E+03	5.710609E-14	3.568561E-16
4.422311E+03	5.766224E-14	3.606568E-16
4.432271E+03	5.838907E-14	3.657263E-16
4.442231E+03	5.929924E-14	3.721411E-16
4.452191E+03	6.039987E-14	3.799459E-16
4.462151E+03	6.168840E-14	3.891273E-16
4.472112E+03	6.313266E-14	3.994863E-16
4.482072E+03	6.468669E-14	4.107354E-16
4.492032E+03	6.629710E-14	4.225360E-16
4.501992E+03	6.789614E-14	4.344528E-16
4.511952E+03	6.940827E-14	4.459928E-16
4.521912E+03	7.075330E-14	4.566235E-16
4.531873E+03	7.185037E-14	4.657975E-16
4.541833E+03	7.262123E-14	4.729739E-16
4.551793E+03	7.299750E-14	4.776646E-16
4.561753E+03	7.293786E-14	4.795506E-16
4.571713E+03	7.241876E-14	4.784240E-16
4.581673E+03	7.144017E-14	4.742300E-16
4.591633E+03	7.004578E-14	4.672061E-16
4.601594E+03	6.829699E-14	4.577148E-16
4.611554E+03	6.626421E-14	4.461889E-16
4.621514E+03	6.402558E-14	4.331240E-16
4.631474E+03	6.165870E-14	4.190237E-16
4.641434E+03	5.923385E-14	4.043529E-16
4.651394E+03	5.681152E-14	3.895196E-16
4.661355E+03	5.444237E-14	3.748727E-16
4.671315E+03	5.216991E-14	3.607186E-16
4.681275E+03	5.002639E-14	3.472908E-16
4.691235E+03	4.803565E-14	3.347679E-16
4.701195E+03	4.621650E-14	3.232935E-16
4.711155E+03	4.458093E-14	3.129653E-16
4.721116E+03	4.313684E-14	3.038534E-16
4.731076E+03	4.188904E-14	2.960062E-16
4.741036E+03	4.083715E-14	2.894352E-16
4.750996E+03	3.997140E-14	2.840842E-16
4.760956E+03	3.928070E-14	2.798854E-16
4.770916E+03	3.875271E-14	2.767606E-16
4.780876E+03	3.837431E-14	2.746238E-16
4.790837E+03	3.813118E-14	2.733783E-16
4.800797E+03	3.800559E-14	2.729010E-16
4.810757E+03	3.797767E-14	2.730517E-16
4.820717E+03	3.802737E-14	2.736871E-16
4.830677E+03	3.813273E-14	2.746488E-16
4.840637E+03	3.827053E-14	2.757685E-16
4.850598E+03	3.841703E-14	2.768732E-16
4.860558E+03	3.854518E-14	2.777664E-16
4.870518E+03	3.862783E-14	2.782509E-16
4.880478E+03	3.863889E-14	2.781382E-16
4.890438E+03	3.855242E-14	2.772426E-16
4.900398E+03	3.834679E-14	2.754112E-16
4.910359E+03	3.800929E-14	2.725577E-16
4.920319E+03	3.755393E-14	2.687893E-16
4.930279E+03	3.700383E-14	2.642793E-16
4.940239E+03	3.638753E-14	2.592397E-16
4.950199E+03	3.574685E-14	2.539758E-16
4.960159E+03	3.512527E-14	2.488021E-16
4.970120E+03	3.456371E-14	2.440115E-16
4.980080E+03	3.409835E-14	2.398589E-16
4.990040E+03	3.376401E-14	2.365856E-16
5.000000E+03	3.359026E-14	2.343909E-16
5.009960E+03	3.360240E-14	2.334398E-16
5.019920E+03	3.382356E-14	2.338773E-16
5.029880E+03	3.427408E-14	2.358246E-16
5.039841E+03	3.496628E-14	2.393436E-16
5.049801E+03	3.591086E-14	2.444815E-16
5.059761E+03	3.711646E-14	2.512685E-16
5.069721E+03	3.858492E-14	2.596867E-16
5.079681E+03	4.031414E-14	2.696901E-16
5.089641E+03	4.229702E-14	2.811997E-16
5.099602E+03	4.451323E-14	2.940496E-16
5.109562E+03	4.693252E-14	3.080131E-16
5.119522E+03	4.951349E-14	3.227965E-16
5.129482E+03	5.219652E-14	3.379966E-16
5.139442E+03	5.490711E-14	3.531274E-16
5.149402E+03	5.755594E-14	3.676229E-16
5.159363E+03	6.003702E-14	3.808300E-16
5.169323E+03	6.223335E-14	3.920471E-16
5.179283E+03	6.403661E-14	4.006488E-16
5.189243E+03	6.538559E-14	4.063225E-16
5.199203E+03	6.624337E-14	4.089155E-16
5.209163E+03	6.659999E-14	4.084453E-16
5.219124E+03	6.650120E-14	4.052677E-16
5.229084E+03	6.601570E-14	3.998672E-16
5.239044E+03	6.522010E-14	3.927616E-16
5.249004E+03	6.419231E-14	3.844616E-16
5.258964E+03	6.300883E-14	3.754552E-16
5.268924E+03	6.173643E-14	3.661599E-16
5.278884E+03	6.041161E-14	3.568037E-16
5.288845E+03	5.906140E-14	3.475530E-16
5.298805E+03	5.770771E-14	3.385397E-16
5.308765E+03	5.636270E-14	3.298348E-16
5.318725E+03	5.503254E-14	3.214725E-16
5.328685E+03	5.372741E-14	3.135081E-16
5.338645E+03	5.248722E-14	3.061681E-16
5.348606E+03	5.134898E-14	2.996521E-16
5.358566E+03	5.033610E-14	2.940773E-16
5.368526E+03	4.944709E-14	2.894187E-16
5.378486E+03	4.867040E-14	2.855954E-16
5.388446E+03	4.799208E-14	2.825135E-16
5.398406E+03	4.741300E-14	2.801658E-16
5.408367E+03	4.693669E-14	2.785631E-16
5.418327E+03	4.656394E-14	2.777022E-16
5.428287E+03	4.628529E-14	2.775211E-16
5.438247E+03	4.609079E-14	2.779557E-16
5.448207E+03	4.596602E-14	2.789149E-16
5.458167E+03	4.588329E-14	2.802259E-16
5.468127E+03	4.581043E-14	2.816848E-16
5.478088E+03	4.571718E-14	2.830951E-16
5.488048E+03	4.557587E-14	2.842713E-16
5.498008E+03	4.536030E-14	2.850319E-16
5.507968E+03	4.505020E-14	2.852284E-16
5.517928E+03	4.463568E-14	2.847746E-16
5.527888E+03	4.411228E-14	2.836169E-16
5.537849E+03	4.348145E-14	2.817399E-16
5.547809E+03	4.275695E-14	2.792087E-16
5.557769E+03	4.195579E-14	2.761136E-16
5.567729E+03	4.109791E-14	2.725682E-16
5.577689E+03	4.020900E-14	2.687293E-16
5.587649E+03	3.931515E-14	2.647628E-16
5.597610E+03	3.844064E-14	2.608283E-16
5.607570E+03	3.760718E-14	2.570733E-16
5.617530E+03	3.683393E-14	2.536331E-16
5.627490E+03	3.613725E-14	2.506279E-16
5.637450E+03	3.552502E-14	2.481220E-16
5.647410E+03	3.500336E-14	2.461693E-16
5.657371E+03	3.457621E-14	2.448096E-16
5.667331E+03	3.424455E-14	2.440623E-16
5.677291E+03	3.400869E-14	2.439419E-16
5.687251E+03	3.386875E-14	2.444615E-16
5.697211E+03	3.382770E-14	2.456548E-16
5.707171E+03	3.388819E-14	2.475535E-16
5.717131E+03	3.405290E-14	2.501893E-16
5.727092E+03	3.432370E-14	2.535883E-16
5.737052E+03	3.470282E-14	2.577789E-16
5.747012E+03	3.518836E-14	2.627588E-16
5.756972E+03	3.577281E-14	2.684829E-16
5.766932E+03	3.644338E-14	2.748648E-16
5.776892E+03	3.718624E-14	2.818077E-16
5.786853E+03	3.797657E-14	2.891297E-16
5.796813E+03	3.878523E-14	2.966116E-16
5.806773E+03	3.958298E-14	3.040304E-16
5.816733E+03	4.034085E-14	3.111611E-16
5.826693E+03	4.103081E-14	3.177830E-16
5.836653E+03	4.162519E-14	3.236754E-16
5.846614E+03	4.210635E-14	3.286932E-16
5.856574E+03	4.245810E-14	3.327013E-16
5.866534E+03	4.266892E-14	3.356002E-16
5.876494E+03	4.272882E-14	3.373019E-16
5.886454E+03	4.263321E-14	3.377608E-16
5.896414E+03	4.237975E-14	3.369490E-16
5.906375E+03	4.196881E-14	3.348605E-16
5.916335E+03	4.140347E-14	3.315113E-16
5.926295E+03	4.069213E-14	3.269603E-16
5.936255E+03	3.984728E-14	3.213004E-16
5.946215E+03	3.888395E-14	3.146459E-16
5.956175E+03	3.782015E-14	3.071368E-16
5.966135E+03	3.667299E-14	2.989070E-16
5.976096E+03	3.546130E-14	2.901061E-16
5.986056E+03	3.420431E-14	2.808879E-16
5.996016E+03	3.291952E-14	2.713941E-16
6.005976E+03	3.162502E-14	2.617723E-16
6.015936E+03	3.033963E-14	2.521781E-16
6.025896E+03	2.908564E-14	2.427978E-16
6.035857E+03	2.788338E-14	2.338041E-16
6.045817E+03	2.675340E-14	2.253743E-16
6.055777E+03	2.572155E-14	2.177336E-16
6.065737E+03	2.481043E-14	2.110842E-16
6.075697E+03	2.403679E-14	2.055832E-16
6.085657E+03	2.340351E-14	2.012719E-16
6.095618E+03	2.291110E-14	1.981722E-16
6.105578E+03	2.255722E-14	1.962822E-16
6.115538E+03	2.233575E-14	1.955680E-16
6.125498E+03	2.224041E-14	1.959952E-16
6.135458E+03	2.226374E-14	1.975190E-16
6.145418E+03	2.239621E-14	2.000762E-16
6.155378E+03	2.262841E-14	2.036039E-16
6.165339E+03	2.294894E-14	2.080204E-16
6.175299E+03	2.334208E-14	2.132028E-16
6.185259E+03	2.379048E-14	2.190099E-16
6.195219E+03	2.427540E-14	2.252831E-16
6.205179E+03	2.478226E-14	2.318954E-16
6.215139E+03	2.529583E-14	2.387093E-16
6.225100E+03	2.579359E-14	2.455125E-16
6.235060E+03	2.625153E-14	2.520711E-16
6.245020E+03	2.664658E-14	2.581514E-16
6.254980E+03	2.695940E-14	2.635473E-16
6.264940E+03	2.718050E-14	2.681423E-16
6.274900E+03	2.730555E-14	2.718667E-16
6.284861E+03	2.733405E-14	2.746865E-16
6.294821E+03	2.727575E-14	2.766710E-16
6.304781E+03	2.714265E-14	2.779152E-16
6.314741E+03	2.694986E-14	2.785501E-16
6.324701E+03	2.671057E-14	2.786927E-16
6.334661E+03	2.643876E-14	2.784727E-16
6.344622E+03	2.614825E-14	2.780240E-16
6.354582E+03	2.584912E-14	2.774457E-16
6.364542E+03	2.554956E-14	2.768207E-16
6.374502E+03	2.525737E-14	2.762311E-16
6.384462E+03	2.497630E-14	2.757175E-16
6.394422E+03	2.470834E-14	2.753030E-16
6.404382E+03	2.445464E-14	2.750019E-16
6.414343E+03	2.421553E-14	2.748201E-16
6.424303E+03	2.398932E-14	2.747404E-16
6.434263E+03	2.377425E-14	2.747447E-16
6.444223E+03	2.356778E-14	2.748046E-16
6.454183E+03	2.336583E-14	2.748733E-16
6.464143E+03	2.316445E-14	2.749034E-16
6.474104E+03	2.296045E-14	2.748554E-16
6.484064E+03	2.274976E-14	2.746780E-16
6.494024E+03	2.252941E-14	2.743316E-16
6.503984E+03	2.229730E-14	2.737861E-16
6.513944E+03	2.205162E-14	2.730145E-16
6.523904E+03	2.179010E-14	2.719834E-16
6.533865E+03	2.151270E-14	2.706865E-16
6.543825E+03	2.121942E-14	2.691186E-16
6.553785E+03	2.091032E-14	2.672748E-16
6.563745E+03	2.058643E-14	2.651635E-16
6.573705E+03	2.024949E-14	2.628026E-16
6.583665E+03	1.990086E-14	2.602059E-16
6.593625E+03	1.954250E-14	2.573956E-16
6.603586E+03	1.917655E-14	2.543977E-16
6.613546E+03	1.880536E-14	2.512416E-16
6.623506E+03	1.843151E-14	2.479609E-16
6.633466E+03	1.805735E-14	2.445870E-16
6.643426E+03	1.768585E-14	2.411610E-16
6.653386E+03	1.731971E-14	2.377212E-16
6.663347E+03	1.696152E-14	2.343055E-16
6.673307E+03	1.661344E-14	2.309469E-16
6.683267E+03	1.627848E-14	2.276909E-16
6.693227E+03	1.595830E-14	2.245647E-16
6.703187E+03	1.565478E-14	2.215998E-16
6.713147E+03	1.537003E-14	2.188310E-16
6.723108E+03	1.510474E-14	2.162735E-16
6.733068E+03	1.485998E-14	2.139482E-16
6.743028E+03	1.463553E-14	2.118577E-16
6.752988E+03	1.443161E-14	2.100102E-16
6.762948E+03	1.424701E-14	2.083935E-16
6.772908E+03	1.408037E-14	2.069924E-16
6.782869E+03	1.392980E-14	2.057836E-16
6.792829E+03	1.379319E-14	2.047394E-16
6.802789E+03	1.366780E-14	2.038223E-16
6.812749E+03	1.355073E-14	2.029919E-16
6.822709E+03	1.343898E-14	2.022047E-16
6.832669E+03	1.333070E-14	2.014343E-16
6.842629E+03	1.322319E-14	2.006407E-16
6.852590E+03	1.311485E-14	1.998002E-16
6.862550E+03	1.300388E-14	1.988852E-16
6.872510E+03	1.288861E-14	1.978703E-16
6.882470E+03	1.276833E-14	1.967440E-16
6.892430E+03	1.264243E-14	1.954966E-16
6.902390E+03	1.251076E-14	1.941255E-16
6.912351E+03	1.237343E-14	1.926320E-16
6.922311E+03	1.223185E-14	1.910376E-16
6.932271E+03	1.208689E-14	1.893562E-16
6.942231E+03	1.194032E-14	1.876158E-16
6.952191E+03	1.179332E-14	1.858354E-16
6.962151E+03	1.164726E-14	1.840373E-16
6.972112E+03	1.150326E-14	1.822400E-16
6.982072E+03	1.136241E-14	1.804618E-16
6.992032E+03	1.122515E-14	1.787111E-16
7.001992E+03	1.109198E-14	1.769965E-16
7.011952E+03	1.096323E-14	1.753246E-16
7.021912E+03	1.083865E-14	1.736927E-16
7.031873E+03	1.071838E-14	1.721038E-16
7.041833E+03	1.060210E-14	1.705541E-16
7.051793E+03	1.048969E-14	1.690424E-16
7.061753E+03	1.038127E-14	1.675718E-16
7.071713E+03	1.027724E-14	1.661494E-16
7.081673E+03	1.017777E-14	1.647791E-16
7.091633E+03	1.008371E-14	1.634756E-16
7.101594E+03	9.995368E-15	1.622446E-16
7.111554E+03	9.914239E-15	1.611112E-16
7.121514E+03	9.840655E-15	1.600818E-16
7.131474E+03	9.775494E-15	1.591716E-16
7.141434E+03	9.719421E-15	1.583921E-16
7.151394E+03	9.672175E-15	1.577398E-16
7.161355E+03	9.633412E-15	1.572097E-16
7.171315E+03	9.602453E-15	1.567914E-16
7.181275E+03	9.577672E-15	1.564588E-16
7.191235E+03	9.557629E-15	1.561886E-16
7.201195E+03	9.540155E-15	1.559458E-16
7.211155E+03	9.522682E-15	1.556886E-16
7.221116E+03	9.502662E-15	1.553755E-16
7.231076E+03	9.477362E-15	1.549621E-16
7.241036E+03	9.444533E-15	1.544119E-16
7.250996E+03	9.401423E-15	1.536801E-16
7.260956E+03	9.346602E-15	1.527439E-16
7.270916E+03	9.277761E-15	1.515660E-16
7.280876E+03	9.194885E-15	1.501469E-16
7.290837E+03	9.097089E-15	1.484730E-16
7.300797E+03	8.984908E-15	1.465539E-16
7.310757E+03	8.859562E-15	1.444106E-16
7.320717E+03	8.722790E-15	1.420724E-16
7.330677E+03	8.576510E-15	1.395717E-16
7.340637E+03	8.422969E-15	1.369461E-16
7.350598E+03	8.265223E-15	1.342465E-16
7.360558E+03	8.105309E-15	1.315066E-16
7.370518E+03	7.946468E-15	1.287801E-16
7.380478E+03	7.791028E-15	1.261051E-16
7.390438E+03	7.641206E-15	1.235182E-16
7.400398E+03	7.499205E-15	1.210550E-16
7.410359E+03	7.367266E-15	1.187518E-16
7.420319E+03	7.246620E-15	1.166278E-16
7.430279E+03	7.138326E-15	1.146997E-16
7.440239E+03	7.042240E-15	1.129641E-16
7.450199E+03	6.958475E-15	1.114223E-16
7.460159E+03	6.885888E-15	1.100549E-16
7.470120E+03	6.822939E-15	1.088366E-16
7.480080E+03	6.767984E-15	1.077404E-16
7.490040E+03	6.718732E-15	1.067291E-16
7.500000E+03	6.673237E-15	1.057713E-16
7.509960E+03	6.629520E-15	1.048355E-16
7.519920E+03	6.586235E-15	1.039002E-16
7.529880E+03	6.542638E-15	1.029537E-16
7.539841E+03	6.498223E-15	1.019881E-16
7.549801E+03	6.452600E-15	1.009975E-16
7.559761E+03	6.405724E-15	9.998143E-17
7.569721E+03	6.357624E-15	9.894058E-17
7.579681E+03	6.308238E-15	9.787425E-17
7.589641E+03	6.258288E-15	9.679391E-17
7.599602E+03	6.208144E-15	9.570546E-17
7.609562E+03	6.158519E-15	9.462002E-17
7.619522E+03	6.110059E-15	9.354754E-17
7.629482E+03	6.063985E-15	9.250659E-17
7.639442E+03	6.021253E-15	9.151146E-17
7.649402E+03	5.982907E-15	9.057750E-17
7.659363E+03	5.950379E-15	8.972563E-17
7.669323E+03	5.924063E-15	8.896082E-17
7.679283E+03	5.904767E-15	8.829407E-17
7.689243E+03	5.893057E-15	8.773248E-17
7.699203E+03	5.889012E-15	8.727574E-17
7.709163E+03	5.892639E-15	8.692237E-17
7.719124E+03	5.904078E-15	8.667277E-17
7.729084E+03	5.922702E-15	8.651604E-17
