#wls	flux	fluxerr
1.593625E+03	8.078460E-15	2.342795E-16
1.633466E+03	6.885995E-15	1.949664E-16
1.673307E+03	5.794785E-15	1.600882E-16
1.713147E+03	4.817437E-15	1.297825E-16
1.752988E+03	3.961837E-15	1.040241E-16
1.792829E+03	3.228353E-15	8.257147E-17
1.832669E+03	2.611952E-15	6.504581E-17
1.872510E+03	2.103554E-15	5.098370E-17
1.912351E+03	1.691255E-15	3.988052E-17
1.952191E+03	1.362268E-15	3.124484E-17
1.992032E+03	1.103323E-15	2.461049E-17
2.031873E+03	9.015169E-16	1.955644E-17
2.071713E+03	7.464072E-16	1.574910E-17
2.111554E+03	6.314602E-16	1.296391E-17
2.151394E+03	5.529800E-16	1.105222E-17
2.191235E+03	5.083849E-16	9.899832E-18
2.231076E+03	4.963803E-16	9.427727E-18
2.270916E+03	5.183485E-16	9.615250E-18
2.310757E+03	5.787927E-16	1.050342E-17
2.350598E+03	6.869368E-16	1.221948E-17
2.390438E+03	8.588303E-16	1.500920E-17
2.430279E+03	1.119091E-15	1.925951E-17
2.470120E+03	1.500812E-15	2.549144E-17
2.509960E+03	2.043780E-15	3.432990E-17
2.549801E+03	2.785215E-15	4.635097E-17
2.589641E+03	3.743487E-15	6.181993E-17
2.629482E+03	4.901273E-15	8.042611E-17
2.669323E+03	6.209306E-15	1.013544E-16
2.709163E+03	7.599936E-15	1.235067E-16
2.749004E+03	8.992033E-15	1.455752E-16
2.788845E+03	1.029444E-14	1.660940E-16
2.828685E+03	1.142254E-14	1.837053E-16
2.868526E+03	1.231135E-14	1.973698E-16
2.908367E+03	1.293111E-14	2.066173E-16
2.948207E+03	1.328918E-14	2.115753E-16
2.988048E+03	1.342650E-14	2.129097E-16
2.998008E+03	1.343370E-14	2.127958E-16
3.007968E+03	1.343184E-14	2.125317E-16
3.017928E+03	1.342236E-14	2.121406E-16
3.027888E+03	1.340671E-14	2.116453E-16
3.037849E+03	1.338602E-14	2.110640E-16
3.047809E+03	1.336146E-14	2.104149E-16
3.057769E+03	1.333499E-14	2.097295E-16
3.067729E+03	1.330738E-14	2.090194E-16
3.077689E+03	1.327971E-14	2.083017E-16
3.087649E+03	1.325376E-14	2.076043E-16
3.097610E+03	1.323061E-14	2.069437E-16
3.107570E+03	1.321168E-14	2.063418E-16
3.117530E+03	1.319741E-14	2.058053E-16
3.127490E+03	1.319014E-14	2.053702E-16
3.137450E+03	1.319034E-14	2.050433E-16
3.147410E+03	1.319941E-14	2.048453E-16
3.157371E+03	1.321875E-14	2.047973E-16
3.167331E+03	1.324946E-14	2.049150E-16
3.177291E+03	1.329296E-14	2.052192E-16
3.187251E+03	1.335041E-14	2.057261E-16
3.197211E+03	1.342328E-14	2.064568E-16
3.207171E+03	1.351278E-14	2.074284E-16
3.217131E+03	1.362046E-14	2.086625E-16
3.227092E+03	1.374766E-14	2.101774E-16
3.237052E+03	1.389576E-14	2.119918E-16
3.247012E+03	1.406651E-14	2.141297E-16
3.256972E+03	1.426142E-14	2.166115E-16
3.266932E+03	1.448243E-14	2.194631E-16
3.276892E+03	1.473123E-14	2.227067E-16
3.286853E+03	1.500969E-14	2.263665E-16
3.296813E+03	1.531971E-14	2.304674E-16
3.306773E+03	1.566362E-14	2.350395E-16
3.316733E+03	1.604357E-14	2.401102E-16
3.326693E+03	1.646182E-14	2.457077E-16
3.336653E+03	1.692074E-14	2.518614E-16
3.346614E+03	1.742249E-14	2.585972E-16
3.356574E+03	1.796985E-14	2.659491E-16
3.366534E+03	1.856501E-14	2.739421E-16
3.376494E+03	1.921060E-14	2.826068E-16
3.386454E+03	1.990815E-14	2.919573E-16
3.396414E+03	2.065810E-14	3.019904E-16
3.406375E+03	2.146099E-14	3.127051E-16
3.416335E+03	2.231470E-14	3.240604E-16
3.426295E+03	2.321634E-14	3.360047E-16
3.436255E+03	2.416092E-14	3.484568E-16
3.446215E+03	2.514134E-14	3.613053E-16
3.456175E+03	2.614771E-14	3.744006E-16
3.466135E+03	2.716841E-14	3.875702E-16
3.476096E+03	2.818966E-14	4.006132E-16
3.486056E+03	2.919721E-14	4.133254E-16
3.496016E+03	3.017469E-14	4.254756E-16
3.505976E+03	3.110514E-14	4.368283E-16
3.515936E+03	3.197197E-14	4.471572E-16
3.525896E+03	3.275811E-14	4.562337E-16
3.535857E+03	3.344874E-14	4.638647E-16
3.545817E+03	3.403163E-14	4.698969E-16
3.555777E+03	3.449770E-14	4.742239E-16
3.565737E+03	3.484288E-14	4.768104E-16
3.575697E+03	3.506892E-14	4.777012E-16
3.585657E+03	3.518450E-14	4.770353E-16
3.595618E+03	3.520118E-14	4.749893E-16
3.605578E+03	3.513528E-14	4.718009E-16
3.615538E+03	3.500564E-14	4.677379E-16
3.625498E+03	3.483265E-14	4.630840E-16
3.635458E+03	3.463746E-14	4.581278E-16
3.645418E+03	3.444165E-14	4.531582E-16
3.655378E+03	3.426675E-14	4.484571E-16
3.665339E+03	3.413317E-14	4.442864E-16
3.675299E+03	3.406008E-14	4.408855E-16
3.685259E+03	3.406674E-14	4.384891E-16
3.695219E+03	3.416987E-14	4.372941E-16
3.705179E+03	3.438601E-14	4.374887E-16
3.715139E+03	3.473000E-14	4.392350E-16
3.725100E+03	3.521562E-14	4.426760E-16
3.735060E+03	3.585485E-14	4.479276E-16
3.745020E+03	3.665918E-14	4.550948E-16
3.754980E+03	3.763912E-14	4.642664E-16
3.764940E+03	3.880272E-14	4.754965E-16
3.774900E+03	4.015647E-14	4.888167E-16
3.784861E+03	4.170365E-14	5.042172E-16
3.794821E+03	4.344311E-14	5.216322E-16
3.804781E+03	4.536651E-14	5.409104E-16
3.814741E+03	4.745650E-14	5.617952E-16
3.824701E+03	4.968611E-14	5.839228E-16
3.834661E+03	5.201741E-14	6.068096E-16
3.844622E+03	5.440387E-14	6.298857E-16
3.854582E+03	5.678981E-14	6.524921E-16
3.864542E+03	5.911289E-14	6.739140E-16
3.874502E+03	6.130846E-14	6.934330E-16
3.884462E+03	6.331270E-14	7.103644E-16
3.894422E+03	6.506742E-14	7.241101E-16
3.904382E+03	6.652740E-14	7.342378E-16
3.914343E+03	6.766032E-14	7.404748E-16
3.924303E+03	6.845240E-14	7.427627E-16
3.934263E+03	6.890838E-14	7.412494E-16
3.944223E+03	6.904915E-14	7.362540E-16
3.954183E+03	6.891123E-14	7.282549E-16
3.964143E+03	6.854330E-14	7.178444E-16
3.974104E+03	6.800113E-14	7.056709E-16
3.984064E+03	6.734090E-14	6.923662E-16
3.994024E+03	6.661718E-14	6.785244E-16
4.003984E+03	6.587856E-14	6.646587E-16
4.013944E+03	6.516282E-14	6.511554E-16
4.023904E+03	6.449485E-14	6.382589E-16
4.033865E+03	6.388991E-14	6.261096E-16
4.043825E+03	6.335608E-14	6.147722E-16
4.053785E+03	6.289600E-14	6.042566E-16
4.063745E+03	6.250991E-14	5.945484E-16
4.073705E+03	6.219346E-14	5.855904E-16
4.083665E+03	6.194055E-14	5.773112E-16
4.093625E+03	6.174197E-14	5.696131E-16
4.103586E+03	6.158516E-14	5.623715E-16
4.113546E+03	6.145593E-14	5.554526E-16
4.123506E+03	6.133614E-14	5.486925E-16
4.133466E+03	6.120618E-14	5.419214E-16
4.143426E+03	6.104560E-14	5.349696E-16
4.153386E+03	6.083450E-14	5.276794E-16
4.163347E+03	6.055759E-14	5.199398E-16
4.173307E+03	6.020732E-14	5.117105E-16
4.183267E+03	5.978159E-14	5.029994E-16
4.193227E+03	5.928487E-14	4.938688E-16
4.203187E+03	5.872486E-14	4.844056E-16
4.213147E+03	5.811428E-14	4.747343E-16
4.223108E+03	5.746716E-14	4.649851E-16
4.233068E+03	5.680137E-14	4.553141E-16
4.243028E+03	5.613447E-14	4.458685E-16
4.252988E+03	5.548471E-14	4.367957E-16
4.262948E+03	5.486990E-14	4.282343E-16
4.272908E+03	5.430770E-14	4.203170E-16
4.282869E+03	5.381366E-14	4.131561E-16
4.292829E+03	5.340052E-14	4.068393E-16
4.302789E+03	5.307789E-14	4.014286E-16
4.312749E+03	5.284698E-14	3.969223E-16
4.322709E+03	5.269906E-14	3.932456E-16
4.332669E+03	5.261883E-14	3.902766E-16
4.342629E+03	5.258662E-14	3.878620E-16
4.352590E+03	5.258161E-14	3.858377E-16
4.362550E+03	5.258968E-14	3.840905E-16
4.372510E+03	5.261556E-14	3.826467E-16
4.382470E+03	5.267882E-14	3.816392E-16
4.392430E+03	5.281081E-14	3.812845E-16
4.402390E+03	5.304443E-14	3.818077E-16
4.412351E+03	5.341053E-14	3.834178E-16
4.422311E+03	5.393553E-14	3.862911E-16
4.432271E+03	5.464058E-14	3.905668E-16
4.442231E+03	5.553959E-14	3.963333E-16
4.452191E+03	5.663800E-14	4.036200E-16
4.462151E+03	5.792914E-14	4.123719E-16
4.472112E+03	5.938791E-14	4.224048E-16
4.482072E+03	6.097620E-14	4.334441E-16
4.492032E+03	6.264196E-14	4.451173E-16
4.501992E+03	6.432075E-14	4.569646E-16
4.511952E+03	6.593922E-14	4.684630E-16
4.521912E+03	6.741673E-14	4.790366E-16
4.531873E+03	6.867056E-14	4.880933E-16
4.541833E+03	6.961944E-14	4.950489E-16
4.551793E+03	7.019441E-14	4.994041E-16
4.561753E+03	7.034290E-14	5.007739E-16
4.571713E+03	7.003668E-14	4.989441E-16
4.581673E+03	6.927249E-14	4.938768E-16
4.591633E+03	6.807998E-14	4.857687E-16
4.601594E+03	6.650946E-14	4.749641E-16
4.611554E+03	6.462798E-14	4.619287E-16
4.621514E+03	6.251112E-14	4.471913E-16
4.631474E+03	6.023586E-14	4.312934E-16
4.641434E+03	5.787474E-14	4.147479E-16
4.651394E+03	5.549411E-14	3.980256E-16
4.661355E+03	5.314921E-14	3.815206E-16
4.671315E+03	5.088802E-14	3.655767E-16
4.681275E+03	4.874606E-14	3.504496E-16
4.691235E+03	4.675238E-14	3.363500E-16
4.701195E+03	4.492742E-14	3.234265E-16
4.711155E+03	4.328508E-14	3.117792E-16
4.721116E+03	4.183396E-14	3.014707E-16
4.731076E+03	4.057817E-14	2.925313E-16
4.741036E+03	3.951584E-14	2.849484E-16
4.750996E+03	3.863964E-14	2.786693E-16
4.760956E+03	3.793907E-14	2.736179E-16
4.770916E+03	3.740157E-14	2.697030E-16
4.780876E+03	3.701340E-14	2.668241E-16
4.790837E+03	3.675945E-14	2.648700E-16
4.800797E+03	3.662272E-14	2.637157E-16
4.810757E+03	3.658494E-14	2.632264E-16
4.820717E+03	3.662588E-14	2.632532E-16
4.830677E+03	3.672465E-14	2.636425E-16
4.840637E+03	3.685843E-14	2.642273E-16
4.850598E+03	3.700353E-14	2.648348E-16
4.860558E+03	3.713446E-14	2.652809E-16
4.870518E+03	3.722490E-14	2.653770E-16
4.880478E+03	3.724978E-14	2.649452E-16
4.890438E+03	3.718556E-14	2.638209E-16
4.900398E+03	3.701508E-14	2.618877E-16
4.910359E+03	3.673041E-14	2.590964E-16
4.920319E+03	3.633859E-14	2.555052E-16
4.930279E+03	3.585811E-14	2.512528E-16
4.940239E+03	3.531638E-14	2.465402E-16
4.950199E+03	3.474798E-14	2.416154E-16
4.960159E+03	3.419054E-14	2.367448E-16
4.970120E+03	3.368224E-14	2.321943E-16
4.980080E+03	3.325771E-14	2.282003E-16
4.990040E+03	3.294953E-14	2.249804E-16
5.000000E+03	3.278658E-14	2.227221E-16
5.009960E+03	3.279425E-14	2.215840E-16
5.019920E+03	3.299491E-14	2.216998E-16
5.029880E+03	3.340724E-14	2.231740E-16
5.039841E+03	3.404659E-14	2.260846E-16
5.049801E+03	3.492485E-14	2.304835E-16
5.059761E+03	3.605061E-14	2.363980E-16
5.069721E+03	3.742904E-14	2.438305E-16
5.079681E+03	3.905992E-14	2.527473E-16
5.089641E+03	4.093746E-14	2.630784E-16
5.099602E+03	4.304629E-14	2.746940E-16
5.109562E+03	4.536116E-14	2.874048E-16
5.119522E+03	4.784299E-14	3.009398E-16
5.129482E+03	5.043957E-14	3.149544E-16
5.139442E+03	5.308093E-14	3.290055E-16
5.149402E+03	5.568316E-14	3.425785E-16
5.159363E+03	5.814643E-14	3.550795E-16
5.169323E+03	6.036606E-14	3.659048E-16
5.179283E+03	6.224445E-14	3.745142E-16
5.189243E+03	6.370824E-14	3.805299E-16
5.199203E+03	6.471184E-14	3.837518E-16
5.209163E+03	6.524053E-14	3.841679E-16
5.219124E+03	6.531709E-14	3.819857E-16
5.229084E+03	6.498951E-14	3.775526E-16
5.239044E+03	6.432080E-14	3.712909E-16
5.249004E+03	6.338132E-14	3.636522E-16
5.258964E+03	6.224018E-14	3.550670E-16
5.268924E+03	6.095828E-14	3.459063E-16
5.278884E+03	5.958245E-14	3.364507E-16
5.288845E+03	5.815125E-14	3.269268E-16
5.298805E+03	5.669454E-14	3.175054E-16
5.308765E+03	5.523760E-14	3.083274E-16
5.318725E+03	5.380376E-14	2.995190E-16
5.328685E+03	5.242225E-14	2.912368E-16
5.338645E+03	5.112822E-14	2.836663E-16
5.348606E+03	4.995618E-14	2.769794E-16
5.358566E+03	4.892476E-14	2.712585E-16
5.368526E+03	4.803436E-14	2.664878E-16
5.378486E+03	4.727258E-14	2.625837E-16
5.388446E+03	4.662490E-14	2.594520E-16
5.398406E+03	4.608145E-14	2.570250E-16
5.408367E+03	4.563593E-14	2.552563E-16
5.418327E+03	4.527942E-14	2.540866E-16
5.428287E+03	4.500175E-14	2.534505E-16
5.438247E+03	4.478869E-14	2.532600E-16
5.448207E+03	4.462162E-14	2.534026E-16
5.458167E+03	4.447685E-14	2.537355E-16
5.468127E+03	4.432834E-14	2.541008E-16
5.478088E+03	4.414845E-14	2.543290E-16
5.488048E+03	4.391271E-14	2.542660E-16
5.498008E+03	4.360078E-14	2.537789E-16
5.507968E+03	4.319665E-14	2.527582E-16
5.517928E+03	4.269291E-14	2.511430E-16
5.527888E+03	4.208862E-14	2.489105E-16
5.537849E+03	4.138963E-14	2.460786E-16
5.547809E+03	4.060815E-14	2.427048E-16
5.557769E+03	3.976185E-14	2.388816E-16
5.567729E+03	3.887185E-14	2.347259E-16
5.577689E+03	3.796207E-14	2.303747E-16
5.587649E+03	3.705582E-14	2.259652E-16
5.597610E+03	3.617664E-14	2.216396E-16
5.607570E+03	3.534422E-14	2.175198E-16
5.617530E+03	3.457610E-14	2.137168E-16
5.627490E+03	3.388668E-14	2.103243E-16
5.637450E+03	3.328458E-14	2.074017E-16
5.647410E+03	3.277628E-14	2.049956E-16
5.657371E+03	3.236516E-14	2.031335E-16
5.667331E+03	3.205306E-14	2.018332E-16
5.677291E+03	3.184113E-14	2.011078E-16
5.687251E+03	3.173028E-14	2.009683E-16
5.697211E+03	3.172166E-14	2.014269E-16
5.707171E+03	3.181714E-14	2.024996E-16
5.717131E+03	3.201871E-14	2.042027E-16
5.727092E+03	3.232704E-14	2.065435E-16
5.737052E+03	3.274218E-14	2.095245E-16
5.747012E+03	3.326107E-14	2.131277E-16
5.756972E+03	3.387621E-14	2.173055E-16
5.766932E+03	3.457660E-14	2.219875E-16
5.776892E+03	3.534619E-14	2.270699E-16
5.786853E+03	3.616355E-14	2.324137E-16
5.796813E+03	3.700290E-14	2.378519E-16
5.806773E+03	3.783629E-14	2.432035E-16
5.816733E+03	3.863523E-14	2.482846E-16
5.826693E+03	3.937226E-14	2.529188E-16
5.836653E+03	4.002126E-14	2.569396E-16
5.846614E+03	4.056086E-14	2.602123E-16
5.856574E+03	4.097319E-14	2.626264E-16
5.866534E+03	4.124395E-14	2.640959E-16
5.876494E+03	4.136288E-14	2.645620E-16
5.886454E+03	4.132199E-14	2.639820E-16
5.896414E+03	4.111931E-14	2.623527E-16
5.906375E+03	4.075469E-14	2.596834E-16
5.916335E+03	4.023183E-14	2.560082E-16
5.926295E+03	3.956057E-14	2.514004E-16
5.936255E+03	3.875257E-14	2.459445E-16
5.946215E+03	3.782411E-14	2.397535E-16
5.956175E+03	3.679356E-14	2.329523E-16
5.966135E+03	3.567992E-14	2.256688E-16
5.976096E+03	3.450277E-14	2.180329E-16
5.986056E+03	3.328178E-14	2.101735E-16
5.996016E+03	3.203705E-14	2.022207E-16
6.005976E+03	3.078725E-14	1.942942E-16
6.015936E+03	2.955227E-14	1.865201E-16
6.025896E+03	2.835264E-14	1.790279E-16
6.035857E+03	2.720853E-14	1.719441E-16
6.045817E+03	2.614060E-14	1.653987E-16
6.055777E+03	2.516949E-14	1.595216E-16
6.065737E+03	2.431273E-14	1.544251E-16
6.075697E+03	2.358360E-14	1.501960E-16
6.085657E+03	2.298750E-14	1.468735E-16
6.095618E+03	2.252636E-14	1.444765E-16
6.105578E+03	2.219791E-14	1.429976E-16
6.115538E+03	2.199783E-14	1.424176E-16
6.125498E+03	2.192041E-14	1.427104E-16
6.135458E+03	2.195956E-14	1.438496E-16
6.145418E+03	2.210682E-14	1.457947E-16
6.155378E+03	2.235276E-14	1.484999E-16
6.165339E+03	2.268516E-14	1.519014E-16
6.175299E+03	2.309036E-14	1.559249E-16
6.185259E+03	2.355278E-14	1.604817E-16
6.195219E+03	2.405575E-14	1.654737E-16
6.205179E+03	2.458241E-14	1.707960E-16
6.215139E+03	2.511617E-14	1.763390E-16
6.225100E+03	2.563603E-14	1.819571E-16
6.235060E+03	2.611966E-14	1.874878E-16
6.245020E+03	2.654595E-14	1.927693E-16
6.254980E+03	2.689624E-14	1.976494E-16
6.264940E+03	2.715920E-14	2.020222E-16
6.274900E+03	2.732795E-14	2.058098E-16
6.284861E+03	2.740265E-14	2.089836E-16
6.294821E+03	2.738849E-14	2.115526E-16
6.304781E+03	2.729551E-14	2.135644E-16
6.314741E+03	2.713621E-14	2.150890E-16
6.324701E+03	2.692404E-14	2.162087E-16
6.334661E+03	2.667263E-14	2.170124E-16
6.344622E+03	2.639455E-14	2.175856E-16
6.354582E+03	2.610115E-14	2.180094E-16
6.364542E+03	2.580187E-14	2.183534E-16
6.374502E+03	2.550511E-14	2.186830E-16
6.384462E+03	2.521684E-14	2.190463E-16
6.394422E+03	2.494121E-14	2.194786E-16
6.404382E+03	2.468049E-14	2.200005E-16
6.414343E+03	2.443624E-14	2.206277E-16
6.424303E+03	2.420866E-14	2.213644E-16
6.434263E+03	2.399563E-14	2.221935E-16
6.444223E+03	2.379535E-14	2.231006E-16
6.454183E+03	2.360390E-14	2.240501E-16
6.464143E+03	2.341684E-14	2.250001E-16
6.474104E+03	2.323023E-14	2.259116E-16
6.484064E+03	2.303978E-14	2.267405E-16
6.494024E+03	2.284065E-14	2.274351E-16
6.503984E+03	2.262960E-14	2.279582E-16
6.513944E+03	2.240366E-14	2.282737E-16
6.523904E+03	2.216050E-14	2.283510E-16
6.533865E+03	2.189796E-14	2.281604E-16
6.543825E+03	2.161609E-14	2.276945E-16
6.553785E+03	2.131422E-14	2.269387E-16
6.563745E+03	2.099345E-14	2.258972E-16
6.573705E+03	2.065479E-14	2.245740E-16
6.583665E+03	2.030007E-14	2.229827E-16
6.593625E+03	1.993187E-14	2.211463E-16
6.603586E+03	1.955242E-14	2.190852E-16
6.613546E+03	1.916427E-14	2.168247E-16
6.623506E+03	1.877111E-14	2.144041E-16
6.633466E+03	1.837548E-14	2.118516E-16
6.643426E+03	1.798061E-14	2.092043E-16
6.653386E+03	1.759026E-14	2.065071E-16
6.663347E+03	1.720690E-14	2.037914E-16
6.673307E+03	1.683374E-14	2.010982E-16
6.683267E+03	1.647321E-14	1.984608E-16
6.693227E+03	1.612804E-14	1.959171E-16
6.703187E+03	1.580009E-14	1.934951E-16
6.713147E+03	1.549137E-14	1.912256E-16
6.723108E+03	1.520295E-14	1.891280E-16
6.733068E+03	1.493588E-14	1.872226E-16
6.743028E+03	1.469021E-14	1.855164E-16
6.752988E+03	1.446594E-14	1.840162E-16
6.762948E+03	1.426230E-14	1.827189E-16
6.772908E+03	1.407773E-14	1.816101E-16
6.782869E+03	1.391069E-14	1.806758E-16
6.792829E+03	1.375879E-14	1.798896E-16
6.802789E+03	1.361980E-14	1.792267E-16
6.812749E+03	1.349103E-14	1.786551E-16
6.822709E+03	1.336963E-14	1.781397E-16
6.832669E+03	1.325337E-14	1.776529E-16
6.842629E+03	1.314001E-14	1.771658E-16
6.852590E+03	1.302746E-14	1.766516E-16
6.862550E+03	1.291372E-14	1.760832E-16
6.872510E+03	1.279776E-14	1.754469E-16
6.882470E+03	1.267797E-14	1.747202E-16
6.892430E+03	1.255388E-14	1.738963E-16
6.902390E+03	1.242518E-14	1.729707E-16
6.912351E+03	1.229207E-14	1.719454E-16
6.922311E+03	1.215519E-14	1.708295E-16
6.932271E+03	1.201555E-14	1.696369E-16
6.942231E+03	1.187427E-14	1.683836E-16
6.952191E+03	1.173276E-14	1.670899E-16
6.962151E+03	1.159169E-14	1.657664E-16
6.972112E+03	1.145252E-14	1.644344E-16
6.982072E+03	1.131583E-14	1.631035E-16
6.992032E+03	1.118223E-14	1.617837E-16
7.001992E+03	1.105212E-14	1.604817E-16
7.011952E+03	1.092591E-14	1.592049E-16
7.021912E+03	1.080342E-14	1.579517E-16
7.031873E+03	1.068480E-14	1.567257E-16
7.041833E+03	1.056976E-14	1.555237E-16
7.051793E+03	1.045845E-14	1.543491E-16
7.061753E+03	1.035071E-14	1.532005E-16
7.071713E+03	1.024697E-14	1.520854E-16
7.081673E+03	1.014758E-14	1.510101E-16
7.091633E+03	1.005306E-14	1.499833E-16
7.101594E+03	9.964071E-15	1.490161E-16
7.111554E+03	9.881153E-15	1.481176E-16
7.121514E+03	9.805355E-15	1.473047E-16
7.131474E+03	9.737024E-15	1.465838E-16
7.141434E+03	9.676480E-15	1.459609E-16
7.151394E+03	9.623721E-15	1.454370E-16
7.161355E+03	9.578507E-15	1.450094E-16
7.171315E+03	9.539998E-15	1.446663E-16
7.181275E+03	9.506765E-15	1.443870E-16
7.191235E+03	9.477372E-15	1.441500E-16
7.201195E+03	9.449659E-15	1.439231E-16
7.211155E+03	9.421837E-15	1.436794E-16
7.221116E+03	9.391164E-15	1.433772E-16
7.231076E+03	9.355635E-15	1.429859E-16
7.241036E+03	9.312552E-15	1.424644E-16
7.250996E+03	9.260263E-15	1.417875E-16
7.260956E+03	9.196829E-15	1.409252E-16
7.270916E+03	9.120950E-15	1.398579E-16
7.280876E+03	9.031916E-15	1.385746E-16
7.290837E+03	8.929572E-15	1.370731E-16
7.300797E+03	8.814358E-15	1.353604E-16
7.310757E+03	8.687177E-15	1.334508E-16
7.320717E+03	8.549628E-15	1.313694E-16
7.330677E+03	8.403675E-15	1.291469E-16
7.340637E+03	8.251599E-15	1.268190E-16
7.350598E+03	8.095303E-15	1.244157E-16
7.360558E+03	7.937674E-15	1.219820E-16
7.370518E+03	7.780702E-15	1.195494E-16
7.380478E+03	7.626825E-15	1.171560E-16
7.390438E+03	7.478095E-15	1.148340E-16
7.400398E+03	7.336472E-15	1.126139E-16
7.410359E+03	7.203405E-15	1.105183E-16
7.420319E+03	7.080711E-15	1.085751E-16
7.430279E+03	6.968826E-15	1.067911E-16
7.440239E+03	6.868028E-15	1.051705E-16
7.450199E+03	6.778235E-15	1.037120E-16
7.460159E+03	6.698490E-15	1.024007E-16
7.470120E+03	6.627610E-15	1.012183E-16
7.480080E+03	6.563980E-15	1.001399E-16
7.490040E+03	6.505772E-15	9.913754E-17
7.500000E+03	6.451481E-15	9.818809E-17
7.509960E+03	6.399198E-15	9.726244E-17
7.519920E+03	6.348039E-15	9.634717E-17
7.529880E+03	6.297108E-15	9.542873E-17
7.539841E+03	6.245816E-15	9.449833E-17
7.549801E+03	6.194210E-15	9.355682E-17
7.559761E+03	6.142018E-15	9.260029E-17
7.569721E+03	6.089302E-15	9.162985E-17
7.579681E+03	6.036146E-15	9.064696E-17
7.589641E+03	5.983242E-15	8.966221E-17
7.599602E+03	5.930805E-15	8.867896E-17
7.609562E+03	5.879482E-15	8.770700E-17
7.619522E+03	5.830181E-15	8.675989E-17
7.629482E+03	5.783763E-15	8.585037E-17
7.639442E+03	5.741036E-15	8.499026E-17
7.649402E+03	5.703138E-15	8.419607E-17
7.659363E+03	5.670815E-15	8.347835E-17
7.669323E+03	5.644796E-15	8.284720E-17
7.679283E+03	5.625796E-15	8.231236E-17
7.689243E+03	5.614063E-15	8.187656E-17
7.699203E+03	5.609926E-15	8.154363E-17
7.709163E+03	5.613263E-15	8.131069E-17
7.719124E+03	5.624126E-15	8.117738E-17
7.729084E+03	5.642291E-15	8.113925E-17
