#wls	flux	fluxerr
1.593625E+03	4.220782E-16	2.688008E-17
1.633466E+03	3.826051E-16	2.426294E-17
1.673307E+03	3.472571E-16	2.192708E-17
1.713147E+03	3.156353E-16	1.984425E-17
1.752988E+03	2.875414E-16	1.799919E-17
1.792829E+03	2.625854E-16	1.636484E-17
1.832669E+03	2.404635E-16	1.491991E-17
1.872510E+03	2.209397E-16	1.364755E-17
1.912351E+03	2.037158E-16	1.252736E-17
1.952191E+03	1.886174E-16	1.154681E-17
1.992032E+03	1.755136E-16	1.069622E-17
2.031873E+03	1.642528E-16	9.964766E-18
2.071713E+03	1.549502E-16	9.357910E-18
2.111554E+03	1.476649E-16	8.877610E-18
2.151394E+03	1.425862E-16	8.533563E-18
2.191235E+03	1.398383E-16	8.331390E-18
2.231076E+03	1.393943E-16	8.267644E-18
2.270916E+03	1.412210E-16	8.338549E-18
2.310757E+03	1.452482E-16	8.538221E-18
2.350598E+03	1.514641E-16	8.864245E-18
2.390438E+03	1.598954E-16	9.316480E-18
2.430279E+03	1.706286E-16	9.898232E-18
2.470120E+03	1.838240E-16	1.061697E-17
2.509960E+03	1.996415E-16	1.148000E-17
2.549801E+03	2.182887E-16	1.249718E-17
2.589641E+03	2.399464E-16	1.367661E-17
2.629482E+03	2.648857E-16	1.503133E-17
2.669323E+03	2.932933E-16	1.656928E-17
2.709163E+03	3.255705E-16	1.831025E-17
2.749004E+03	3.619667E-16	2.026507E-17
2.788845E+03	4.029480E-16	2.245631E-17
2.828685E+03	4.487700E-16	2.489433E-17
2.868526E+03	4.999881E-16	2.760567E-17
2.908367E+03	5.569075E-16	3.060242E-17
2.948207E+03	6.200234E-16	3.390667E-17
2.988048E+03	6.897461E-16	3.753518E-17
2.998008E+03	7.082607E-16	3.849508E-17
3.007968E+03	7.271692E-16	3.947374E-17
3.017928E+03	7.465633E-16	4.047603E-17
3.027888E+03	7.664473E-16	4.150208E-17
3.037849E+03	7.867297E-16	4.254682E-17
3.047809E+03	8.075098E-16	4.361553E-17
3.057769E+03	8.287005E-16	4.470339E-17
3.067729E+03	8.504982E-16	4.582088E-17
3.077689E+03	8.727041E-16	4.695717E-17
3.087649E+03	8.955205E-16	4.812302E-17
3.097610E+03	9.187397E-16	4.930716E-17
3.107570E+03	9.424628E-16	5.051488E-17
3.117530E+03	9.667959E-16	5.175177E-17
3.127490E+03	9.915192E-16	5.300591E-17
3.137450E+03	1.016849E-15	5.428875E-17
3.147410E+03	1.042671E-15	5.559410E-17
3.157371E+03	1.069095E-15	5.692762E-17
3.167331E+03	1.095887E-15	5.827673E-17
3.177291E+03	1.123270E-15	5.965323E-17
3.187251E+03	1.151243E-15	6.105686E-17
3.197211E+03	1.179679E-15	6.248077E-17
3.207171E+03	1.208692E-15	6.393087E-17
3.217131E+03	1.238275E-15	6.540666E-17
3.227092E+03	1.268296E-15	6.690103E-17
3.237052E+03	1.298997E-15	6.842659E-17
3.247012E+03	1.330115E-15	6.996940E-17
3.256972E+03	1.361767E-15	7.153541E-17
3.266932E+03	1.394074E-15	7.313086E-17
3.276892E+03	1.426894E-15	7.474818E-17
3.286853E+03	1.460214E-15	7.638650E-17
3.296813E+03	1.494019E-15	7.804498E-17
3.306773E+03	1.528433E-15	7.972990E-17
3.316733E+03	1.563303E-15	8.143310E-17
3.326693E+03	1.598754E-15	8.316100E-17
3.336653E+03	1.634769E-15	8.491259E-17
3.346614E+03	1.671334E-15	8.668696E-17
3.356574E+03	1.708430E-15	8.848303E-17
3.366534E+03	1.745896E-15	9.029222E-17
3.376494E+03	1.784001E-15	9.212841E-17
3.386454E+03	1.822730E-15	9.399064E-17
3.396414E+03	1.861766E-15	9.586241E-17
3.406375E+03	1.901384E-15	9.775776E-17
3.416335E+03	1.941564E-15	9.967554E-17
3.426295E+03	1.982133E-15	1.016067E-16
3.436255E+03	2.023373E-15	1.035656E-16
3.446215E+03	2.064956E-15	1.055352E-16
3.456175E+03	2.107163E-15	1.075297E-16
3.466135E+03	2.149661E-15	1.095322E-16
3.476096E+03	2.192733E-15	1.115569E-16
3.486056E+03	2.236356E-15	1.136024E-16
3.496016E+03	2.280342E-15	1.156591E-16
3.505976E+03	2.324824E-15	1.177336E-16
3.515936E+03	2.369771E-15	1.198242E-16
3.525896E+03	2.415155E-15	1.219293E-16
3.535857E+03	2.460945E-15	1.240473E-16
3.545817E+03	2.507111E-15	1.261765E-16
3.555777E+03	2.553783E-15	1.283234E-16
3.565737E+03	2.600927E-15	1.304861E-16
3.575697E+03	2.648355E-15	1.326551E-16
3.585657E+03	2.696353E-15	1.348446E-16
3.595618E+03	2.744569E-15	1.370368E-16
3.605578E+03	2.793291E-15	1.392461E-16
3.615538E+03	2.842325E-15	1.414626E-16
3.625498E+03	2.891639E-15	1.436846E-16
3.635458E+03	2.941357E-15	1.459183E-16
3.645418E+03	2.991606E-15	1.481698E-16
3.655378E+03	3.042033E-15	1.504214E-16
3.665339E+03	3.092761E-15	1.526794E-16
3.675299E+03	3.143917E-15	1.549496E-16
3.685259E+03	3.195305E-15	1.572225E-16
3.695219E+03	3.247049E-15	1.595041E-16
3.705179E+03	3.298955E-15	1.617847E-16
3.715139E+03	3.351304E-15	1.640780E-16
3.725100E+03	3.403746E-15	1.663668E-16
3.735060E+03	3.456558E-15	1.686647E-16
3.745020E+03	3.509705E-15	1.709698E-16
3.754980E+03	3.562994E-15	1.732726E-16
3.764940E+03	3.616389E-15	1.755713E-16
3.774900E+03	3.670168E-15	1.778794E-16
3.784861E+03	3.723983E-15	1.801800E-16
3.794821E+03	3.778109E-15	1.824863E-16
3.804781E+03	3.832356E-15	1.847891E-16
3.814741E+03	3.886689E-15	1.870868E-16
3.824701E+03	3.941075E-15	1.893776E-16
3.834661E+03	3.995784E-15	1.916745E-16
3.844622E+03	4.050477E-15	1.939613E-16
3.854582E+03	4.105126E-15	1.962366E-16
3.864542E+03	4.159994E-15	1.985130E-16
3.874502E+03	4.214755E-15	2.007749E-16
3.884462E+03	4.269672E-15	2.030349E-16
3.894422E+03	4.324567E-15	2.052845E-16
3.904382E+03	4.379268E-15	2.075157E-16
3.914343E+03	4.434037E-15	2.097408E-16
3.924303E+03	4.488703E-15	2.119518E-16
3.934263E+03	4.543240E-15	2.141475E-16
3.944223E+03	4.597766E-15	2.163336E-16
3.954183E+03	4.651977E-15	2.184959E-16
3.964143E+03	4.706131E-15	2.206465E-16
3.974104E+03	4.760070E-15	2.227780E-16
3.984064E+03	4.813640E-15	2.248835E-16
3.994024E+03	4.867097E-15	2.269750E-16
4.003984E+03	4.920158E-15	2.290394E-16
4.013944E+03	4.972945E-15	2.310825E-16
4.023904E+03	5.025445E-15	2.331038E-16
4.033865E+03	5.077390E-15	2.350912E-16
4.043825E+03	5.129038E-15	2.370567E-16
4.053785E+03	5.180256E-15	2.389942E-16
4.063745E+03	5.231040E-15	2.409038E-16
4.073705E+03	5.281268E-15	2.427802E-16
4.083665E+03	5.330946E-15	2.446237E-16
4.093625E+03	5.380083E-15	2.464350E-16
4.103586E+03	5.428566E-15	2.482092E-16
4.113546E+03	5.476532E-15	2.499527E-16
4.123506E+03	5.523757E-15	2.516556E-16
4.133466E+03	5.570261E-15	2.533190E-16
4.143426E+03	5.616188E-15	2.549498E-16
4.153386E+03	5.661212E-15	2.565335E-16
4.163347E+03	5.705598E-15	2.580823E-16
4.173307E+03	5.749034E-15	2.595824E-16
4.183267E+03	5.791791E-15	2.610464E-16
4.193227E+03	5.833679E-15	2.624659E-16
4.203187E+03	5.874634E-15	2.638386E-16
4.213147E+03	5.914707E-15	2.651669E-16
4.223108E+03	5.953840E-15	2.664487E-16
4.233068E+03	5.992090E-15	2.676868E-16
4.243028E+03	6.029300E-15	2.688745E-16
4.252988E+03	6.065642E-15	2.700199E-16
4.262948E+03	6.100965E-15	2.711166E-16
4.272908E+03	6.135235E-15	2.721635E-16
4.282869E+03	6.168522E-15	2.731640E-16
4.292829E+03	6.200688E-15	2.741125E-16
4.302789E+03	6.231807E-15	2.750125E-16
4.312749E+03	6.261849E-15	2.758632E-16
4.322709E+03	6.290784E-15	2.766636E-16
4.332669E+03	6.318581E-15	2.774127E-16
4.342629E+03	6.345211E-15	2.781097E-16
4.352590E+03	6.370736E-15	2.787578E-16
4.362550E+03	6.394930E-15	2.793474E-16
4.372510E+03	6.417951E-15	2.798858E-16
4.382470E+03	6.439759E-15	2.803718E-16
4.392430E+03	6.460223E-15	2.807999E-16
4.402390E+03	6.479492E-15	2.811770E-16
4.412351E+03	6.497524E-15	2.815015E-16
4.422311E+03	6.514184E-15	2.817679E-16
4.432271E+03	6.529615E-15	2.819827E-16
4.442231E+03	6.543862E-15	2.821482E-16
4.452191E+03	6.556793E-15	2.822589E-16
4.462151E+03	6.568455E-15	2.823172E-16
4.472112E+03	6.578804E-15	2.823214E-16
4.482072E+03	6.587889E-15	2.822740E-16
4.492032E+03	6.595756E-15	2.821773E-16
4.501992E+03	6.602450E-15	2.820334E-16
4.511952E+03	6.607929E-15	2.818407E-16
4.521912E+03	6.612240E-15	2.816017E-16
4.531873E+03	6.615597E-15	2.813256E-16
4.541833E+03	6.617872E-15	2.810072E-16
4.551793E+03	6.619276E-15	2.806557E-16
4.561753E+03	6.619766E-15	2.802695E-16
4.571713E+03	6.619546E-15	2.798574E-16
4.581673E+03	6.618487E-15	2.794142E-16
4.591633E+03	6.616792E-15	2.789485E-16
4.601594E+03	6.614495E-15	2.784620E-16
4.611554E+03	6.611709E-15	2.779595E-16
4.621514E+03	6.608465E-15	2.774425E-16
4.631474E+03	6.604793E-15	2.769124E-16
4.641434E+03	6.600800E-15	2.763738E-16
4.651394E+03	6.596593E-15	2.758311E-16
4.661355E+03	6.592193E-15	2.752855E-16
4.671315E+03	6.587703E-15	2.747412E-16
4.681275E+03	6.583221E-15	2.742024E-16
4.691235E+03	6.578843E-15	2.736732E-16
4.701195E+03	6.574662E-15	2.731574E-16
4.711155E+03	6.570693E-15	2.726557E-16
4.721116E+03	6.567023E-15	2.721717E-16
4.731076E+03	6.563894E-15	2.717155E-16
4.741036E+03	6.561390E-15	2.712905E-16
4.750996E+03	6.559516E-15	2.708969E-16
4.760956E+03	6.558428E-15	2.705411E-16
4.770916E+03	6.558202E-15	2.702262E-16
4.780876E+03	6.558841E-15	2.699523E-16
4.790837E+03	6.560268E-15	2.697162E-16
4.800797E+03	6.562406E-15	2.695147E-16
4.810757E+03	6.565257E-15	2.693479E-16
4.820717E+03	6.568743E-15	2.692125E-16
4.830677E+03	6.572862E-15	2.691086E-16
4.840637E+03	6.577611E-15	2.690360E-16
4.850598E+03	6.582911E-15	2.689915E-16
4.860558E+03	6.588756E-15	2.689750E-16
4.870518E+03	6.595140E-15	2.689863E-16
4.880478E+03	6.602055E-15	2.690250E-16
4.890438E+03	6.609492E-15	2.690909E-16
4.900398E+03	6.617365E-15	2.691805E-16
4.910359E+03	6.625738E-15	2.692966E-16
4.920319E+03	6.634595E-15	2.694386E-16
4.930279E+03	6.643923E-15	2.696060E-16
4.940239E+03	6.653630E-15	2.697952E-16
4.950199E+03	6.663847E-15	2.700117E-16
4.960159E+03	6.674406E-15	2.702487E-16
4.970120E+03	6.685435E-15	2.705116E-16
4.980080E+03	6.696835E-15	2.707965E-16
4.990040E+03	6.708587E-15	2.711026E-16
5.000000E+03	6.720735E-15	2.714321E-16
5.009960E+03	6.733254E-15	2.717840E-16
5.019920E+03	6.745970E-15	2.721514E-16
5.029880E+03	6.759074E-15	2.725421E-16
5.039841E+03	6.772461E-15	2.729523E-16
5.049801E+03	6.786029E-15	2.733778E-16
5.059761E+03	6.799817E-15	2.738205E-16
5.069721E+03	6.813865E-15	2.742821E-16
5.079681E+03	6.827994E-15	2.747557E-16
5.089641E+03	6.842313E-15	2.752458E-16
5.099602E+03	6.856714E-15	2.757483E-16
5.109562E+03	6.871235E-15	2.762649E-16
5.119522E+03	6.885764E-15	2.767914E-16
5.129482E+03	6.900266E-15	2.773264E-16
5.139442E+03	6.914777E-15	2.778718E-16
5.149402E+03	6.929257E-15	2.784260E-16
5.159363E+03	6.943673E-15	2.789881E-16
5.169323E+03	6.957913E-15	2.795537E-16
5.179283E+03	6.972015E-15	2.801246E-16
5.189243E+03	6.986018E-15	2.807026E-16
5.199203E+03	6.999741E-15	2.812806E-16
5.209163E+03	7.013225E-15	2.818605E-16
5.219124E+03	7.026511E-15	2.824442E-16
5.229084E+03	7.039499E-15	2.830279E-16
5.239044E+03	7.052160E-15	2.836107E-16
5.249004E+03	7.064471E-15	2.841917E-16
5.258964E+03	7.076481E-15	2.847733E-16
5.268924E+03	7.088098E-15	2.853520E-16
5.278884E+03	7.099306E-15	2.859272E-16
5.288845E+03	7.110164E-15	2.865016E-16
5.298805E+03	7.120586E-15	2.870720E-16
5.308765E+03	7.130641E-15	2.876412E-16
5.318725E+03	7.140247E-15	2.882062E-16
5.328685E+03	7.149477E-15	2.887702E-16
5.338645E+03	7.158257E-15	2.893303E-16
5.348606E+03	7.166661E-15	2.898896E-16
5.358566E+03	7.174693E-15	2.904485E-16
5.368526E+03	7.182281E-15	2.910043E-16
5.378486E+03	7.189429E-15	2.915574E-16
5.388446E+03	7.196212E-15	2.921108E-16
5.398406E+03	7.202628E-15	2.926646E-16
5.408367E+03	7.208531E-15	2.932131E-16
5.418327E+03	7.214131E-15	2.937650E-16
5.428287E+03	7.219203E-15	2.943108E-16
5.438247E+03	7.223878E-15	2.948559E-16
5.448207E+03	7.228070E-15	2.953963E-16
5.458167E+03	7.231835E-15	2.959341E-16
5.468127E+03	7.235081E-15	2.964654E-16
5.478088E+03	7.237789E-15	2.969890E-16
5.488048E+03	7.240012E-15	2.975068E-16
5.498008E+03	7.241661E-15	2.980149E-16
5.507968E+03	7.242717E-15	2.985123E-16
5.517928E+03	7.243238E-15	2.990009E-16
5.527888E+03	7.243211E-15	2.994799E-16
5.537849E+03	7.242483E-15	2.999426E-16
5.547809E+03	7.241187E-15	3.003943E-16
5.557769E+03	7.239322E-15	3.008345E-16
5.567729E+03	7.236740E-15	3.012567E-16
5.577689E+03	7.233588E-15	3.016667E-16
5.587649E+03	7.229867E-15	3.020641E-16
5.597610E+03	7.225443E-15	3.024430E-16
5.607570E+03	7.220539E-15	3.028123E-16
5.617530E+03	7.214952E-15	3.031631E-16
5.627490E+03	7.208769E-15	3.034987E-16
5.637450E+03	7.202076E-15	3.038224E-16
5.647410E+03	7.194820E-15	3.041314E-16
5.657371E+03	7.187092E-15	3.044294E-16
5.667331E+03	7.178773E-15	3.047108E-16
5.677291E+03	7.170027E-15	3.049823E-16
5.687251E+03	7.160737E-15	3.052384E-16
5.697211E+03	7.150999E-15	3.054830E-16
5.707171E+03	7.140911E-15	3.057197E-16
5.717131E+03	7.130358E-15	3.059435E-16
5.727092E+03	7.119370E-15	3.061551E-16
5.737052E+03	7.108116E-15	3.063616E-16
5.747012E+03	7.096483E-15	3.065576E-16
5.756972E+03	7.084503E-15	3.067443E-16
5.766932E+03	7.072205E-15	3.069225E-16
5.776892E+03	7.059689E-15	3.070963E-16
5.786853E+03	7.046916E-15	3.072637E-16
5.796813E+03	7.033914E-15	3.074256E-16
5.806773E+03	7.020715E-15	3.075831E-16
5.816733E+03	7.007277E-15	3.077341E-16
5.826693E+03	6.993770E-15	3.078857E-16
5.836653E+03	6.980082E-15	3.080329E-16
5.846614E+03	6.966245E-15	3.081766E-16
5.856574E+03	6.952353E-15	3.083209E-16
5.866534E+03	6.938364E-15	3.084636E-16
5.876494E+03	6.924307E-15	3.086058E-16
5.886454E+03	6.910205E-15	3.087484E-16
5.896414E+03	6.896085E-15	3.088922E-16
5.906375E+03	6.881969E-15	3.090381E-16
5.916335E+03	6.867881E-15	3.091870E-16
5.926295E+03	6.853844E-15	3.093397E-16
5.936255E+03	6.839743E-15	3.094909E-16
5.946215E+03	6.825799E-15	3.096504E-16
5.956175E+03	6.811898E-15	3.098129E-16
5.966135E+03	6.798056E-15	3.099789E-16
5.976096E+03	6.784290E-15	3.101490E-16
5.986056E+03	6.770615E-15	3.103239E-16
5.996016E+03	6.757044E-15	3.105040E-16
6.005976E+03	6.743524E-15	3.106867E-16
6.015936E+03	6.730130E-15	3.108753E-16
6.025896E+03	6.716872E-15	3.110702E-16
6.035857E+03	6.703626E-15	3.112656E-16
6.045817E+03	6.690528E-15	3.114676E-16
6.055777E+03	6.677453E-15	3.116703E-16
6.065737E+03	6.664468E-15	3.118767E-16
6.075697E+03	6.651508E-15	3.120836E-16
6.085657E+03	6.638637E-15	3.122940E-16
6.095618E+03	6.625722E-15	3.125014E-16
6.105578E+03	6.612888E-15	3.127116E-16
6.115538E+03	6.600062E-15	3.129211E-16
6.125498E+03	6.587302E-15	3.131325E-16
6.135458E+03	6.574594E-15	3.133450E-16
6.145418E+03	6.561992E-15	3.135612E-16
6.155378E+03	6.549543E-15	3.137831E-16
6.165339E+03	6.537232E-15	3.140101E-16
6.175299E+03	6.524911E-15	3.142348E-16
6.185259E+03	6.512557E-15	3.144562E-16
6.195219E+03	6.500149E-15	3.146730E-16
6.205179E+03	6.487661E-15	3.148839E-16
6.215139E+03	6.475069E-15	3.150876E-16
6.225100E+03	6.462344E-15	3.152826E-16
6.235060E+03	6.449458E-15	3.154672E-16
6.245020E+03	6.436378E-15	3.156398E-16
6.254980E+03	6.423203E-15	3.158050E-16
6.264940E+03	6.409771E-15	3.159548E-16
6.274900E+03	6.396240E-15	3.160967E-16
6.284861E+03	6.382447E-15	3.162226E-16
6.294821E+03	6.368423E-15	3.163337E-16
6.304781E+03	6.354129E-15	3.164282E-16
6.314741E+03	6.339660E-15	3.165103E-16
6.324701E+03	6.324852E-15	3.165719E-16
6.334661E+03	6.309733E-15	3.166141E-16
6.344622E+03	6.294268E-15	3.166350E-16
6.354582E+03	6.278423E-15	3.166326E-16
6.364542E+03	6.262228E-15	3.166083E-16
6.374502E+03	6.245586E-15	3.165570E-16
6.384462E+03	6.228531E-15	3.164800E-16
6.394422E+03	6.210967E-15	3.163724E-16
6.404382E+03	6.192868E-15	3.162326E-16
6.414343E+03	6.174205E-15	3.160587E-16
6.424303E+03	6.154955E-15	3.158495E-16
6.434263E+03	6.135030E-15	3.156000E-16
6.444223E+03	6.114411E-15	3.153089E-16
6.454183E+03	6.093077E-15	3.149749E-16
6.464143E+03	6.070950E-15	3.145937E-16
6.474104E+03	6.048016E-15	3.141640E-16
6.484064E+03	6.024199E-15	3.136818E-16
6.494024E+03	5.999681E-15	3.131560E-16
6.503984E+03	5.974392E-15	3.125828E-16
6.513944E+03	5.948453E-15	3.119680E-16
6.523904E+03	5.921861E-15	3.113114E-16
6.533865E+03	5.894616E-15	3.106126E-16
6.543825E+03	5.866780E-15	3.098747E-16
6.553785E+03	5.838358E-15	3.090975E-16
6.563745E+03	5.809416E-15	3.082845E-16
6.573705E+03	5.779959E-15	3.074357E-16
6.583665E+03	5.749996E-15	3.065512E-16
6.593625E+03	5.719596E-15	3.056347E-16
6.603586E+03	5.688707E-15	3.046832E-16
6.613546E+03	5.657404E-15	3.037004E-16
6.623506E+03	5.625697E-15	3.026868E-16
6.633466E+03	5.593601E-15	3.016429E-16
6.643426E+03	5.561128E-15	3.005694E-16
6.653386E+03	5.528294E-15	2.994670E-16
6.663347E+03	5.495114E-15	2.983362E-16
6.673307E+03	5.461606E-15	2.971780E-16
6.683267E+03	5.427784E-15	2.959930E-16
6.693227E+03	5.393727E-15	2.947854E-16
6.703187E+03	5.359392E-15	2.935528E-16
6.713147E+03	5.324858E-15	2.922994E-16
6.723108E+03	5.290081E-15	2.910227E-16
6.733068E+03	5.255080E-15	2.897237E-16
6.743028E+03	5.219873E-15	2.884033E-16
6.752988E+03	5.184599E-15	2.870692E-16
6.762948E+03	5.149095E-15	2.857123E-16
6.772908E+03	5.113500E-15	2.843402E-16
6.782869E+03	5.077831E-15	2.829539E-16
6.792829E+03	5.042048E-15	2.815512E-16
6.802789E+03	5.006168E-15	2.801329E-16
6.812749E+03	4.970325E-15	2.787066E-16
6.822709E+03	4.934362E-15	2.772634E-16
6.832669E+03	4.898469E-15	2.758141E-16
6.842629E+03	4.862548E-15	2.743532E-16
6.852590E+03	4.826671E-15	2.728848E-16
6.862550E+03	4.790798E-15	2.714066E-16
6.872510E+03	4.755002E-15	2.699227E-16
6.882470E+03	4.719295E-15	2.684340E-16
6.892430E+03	4.683637E-15	2.669383E-16
6.902390E+03	4.648154E-15	2.654426E-16
6.912351E+03	4.612747E-15	2.639415E-16
6.922311E+03	4.577486E-15	2.624390E-16
6.932271E+03	4.542326E-15	2.609327E-16
6.942231E+03	4.507391E-15	2.594297E-16
6.952191E+03	4.472583E-15	2.579244E-16
6.962151E+03	4.437966E-15	2.564208E-16
6.972112E+03	4.403605E-15	2.549225E-16
6.982072E+03	4.369403E-15	2.534242E-16
6.992032E+03	4.335423E-15	2.519294E-16
7.001992E+03	4.301674E-15	2.504390E-16
7.011952E+03	4.268113E-15	2.489504E-16
7.021912E+03	4.234851E-15	2.474703E-16
7.031873E+03	4.201847E-15	2.459963E-16
7.041833E+03	4.169105E-15	2.445289E-16
7.051793E+03	4.136684E-15	2.430716E-16
7.061753E+03	4.104489E-15	2.416189E-16
7.071713E+03	4.072576E-15	2.401743E-16
7.081673E+03	4.041003E-15	2.387414E-16
7.091633E+03	4.009673E-15	2.373144E-16
7.101594E+03	3.978692E-15	2.358999E-16
7.111554E+03	3.948064E-15	2.344982E-16
7.121514E+03	3.917694E-15	2.331038E-16
7.131474E+03	3.887685E-15	2.317229E-16
7.141434E+03	3.857993E-15	2.303531E-16
7.151394E+03	3.828667E-15	2.289974E-16
7.161355E+03	3.799664E-15	2.276533E-16
7.171315E+03	3.770986E-15	2.263213E-16
7.181275E+03	3.742683E-15	2.250044E-16
7.191235E+03	3.714760E-15	2.237029E-16
7.201195E+03	3.687166E-15	2.224141E-16
7.211155E+03	3.659956E-15	2.211414E-16
7.221116E+03	3.633081E-15	2.198818E-16
7.231076E+03	3.606590E-15	2.186387E-16
7.241036E+03	3.580485E-15	2.174121E-16
7.250996E+03	3.554719E-15	2.161995E-16
7.260956E+03	3.529341E-15	2.150039E-16
7.270916E+03	3.504351E-15	2.138254E-16
7.280876E+03	3.479749E-15	2.126643E-16
7.290837E+03	3.455536E-15	2.115207E-16
7.300797E+03	3.431664E-15	2.103919E-16
7.310757E+03	3.408183E-15	2.092809E-16
7.320717E+03	3.385135E-15	2.081906E-16
7.330677E+03	3.362474E-15	2.071183E-16
7.340637E+03	3.340157E-15	2.060614E-16
7.350598E+03	3.318314E-15	2.050281E-16
7.360558E+03	3.296858E-15	2.040133E-16
7.370518E+03	3.275786E-15	2.030167E-16
7.380478E+03	3.255186E-15	2.020442E-16
7.390438E+03	3.235053E-15	2.010953E-16
7.400398E+03	3.215343E-15	2.001678E-16
7.410359E+03	3.196141E-15	1.992668E-16
7.420319E+03	3.177312E-15	1.983843E-16
7.430279E+03	3.158943E-15	1.975257E-16
7.440239E+03	3.140942E-15	1.966855E-16
7.450199E+03	3.123352E-15	1.958664E-16
7.460159E+03	3.106086E-15	1.950631E-16
7.470120E+03	3.089183E-15	1.942783E-16
7.480080E+03	3.072598E-15	1.935091E-16
7.490040E+03	3.056372E-15	1.927583E-16
7.500000E+03	3.040459E-15	1.920232E-16
7.509960E+03	3.024857E-15	1.913036E-16
7.519920E+03	3.009523E-15	1.905968E-16
7.529880E+03	2.994535E-15	1.899082E-16
7.539841E+03	2.979808E-15	1.892323E-16
7.549801E+03	2.965381E-15	1.885715E-16
7.559761E+03	2.951210E-15	1.879234E-16
7.569721E+03	2.937332E-15	1.872903E-16
7.579681E+03	2.923744E-15	1.866721E-16
7.589641E+03	2.910402E-15	1.860660E-16
7.599602E+03	2.897304E-15	1.854722E-16
7.609562E+03	2.884486E-15	1.848928E-16
7.619522E+03	2.871865E-15	1.843228E-16
7.629482E+03	2.859518E-15	1.837671E-16
7.639442E+03	2.847441E-15	1.832256E-16
7.649402E+03	2.835555E-15	1.826931E-16
7.659363E+03	2.823933E-15	1.821745E-16
7.669323E+03	2.812494E-15	1.816648E-16
7.679283E+03	2.801315E-15	1.811688E-16
7.689243E+03	2.790354E-15	1.806840E-16
7.699203E+03	2.779648E-15	1.802128E-16
7.709163E+03	2.769118E-15	1.797501E-16
7.719124E+03	2.758836E-15	1.793009E-16
7.729084E+03	2.748767E-15	1.788626E-16
