#wls	flux	fluxerr
1.593625E+03	1.682782E-16	9.936286E-18
1.633466E+03	1.598498E-16	9.357543E-18
1.673307E+03	1.521673E-16	8.829468E-18
1.713147E+03	1.452000E-16	8.349321E-18
1.752988E+03	1.389416E-16	7.915805E-18
1.792829E+03	1.333277E-16	7.524303E-18
1.832669E+03	1.283199E-16	7.171772E-18
1.872510E+03	1.239241E-16	6.857671E-18
1.912351E+03	1.200593E-16	6.576668E-18
1.952191E+03	1.167204E-16	6.327688E-18
1.992032E+03	1.139193E-16	6.110567E-18
2.031873E+03	1.116872E-16	5.926117E-18
2.071713E+03	1.101173E-16	5.778305E-18
2.111554E+03	1.093661E-16	5.674142E-18
2.151394E+03	1.096077E-16	5.621144E-18
2.191235E+03	1.109743E-16	5.624253E-18
2.231076E+03	1.134807E-16	5.682188E-18
2.270916E+03	1.170951E-16	5.791289E-18
2.310757E+03	1.217653E-16	5.946949E-18
2.350598E+03	1.274964E-16	6.147427E-18
2.390438E+03	1.343026E-16	6.391361E-18
2.430279E+03	1.422969E-16	6.681986E-18
2.470120E+03	1.515593E-16	7.020703E-18
2.509960E+03	1.622782E-16	7.413632E-18
2.549801E+03	1.745459E-16	7.862035E-18
2.589641E+03	1.885884E-16	8.372829E-18
2.629482E+03	2.045486E-16	8.948706E-18
2.669323E+03	2.226648E-16	9.596060E-18
2.709163E+03	2.431378E-16	1.031905E-17
2.749004E+03	2.662458E-16	1.112454E-17
2.788845E+03	2.922559E-16	1.201816E-17
2.828685E+03	3.214487E-16	1.300542E-17
2.868526E+03	3.541160E-16	1.409151E-17
2.908367E+03	3.905556E-16	1.528114E-17
2.948207E+03	4.311619E-16	1.658197E-17
2.988048E+03	4.762467E-16	1.799761E-17
2.998008E+03	4.882894E-16	1.837114E-17
3.007968E+03	5.006125E-16	1.875116E-17
3.017928E+03	5.132183E-16	1.913762E-17
3.027888E+03	5.261639E-16	1.953252E-17
3.037849E+03	5.394550E-16	1.993589E-17
3.047809E+03	5.530414E-16	2.034573E-17
3.057769E+03	5.669890E-16	2.076432E-17
3.067729E+03	5.813012E-16	2.119162E-17
3.077689E+03	5.959219E-16	2.162540E-17
3.087649E+03	6.109717E-16	2.206990E-17
3.097610E+03	6.263336E-16	2.252070E-17
3.107570E+03	6.420697E-16	2.297989E-17
3.117530E+03	6.581822E-16	2.344738E-17
3.127490E+03	6.746730E-16	2.392306E-17
3.137450E+03	6.914789E-16	2.440455E-17
3.147410E+03	7.087307E-16	2.489629E-17
3.157371E+03	7.263652E-16	2.539589E-17
3.167331E+03	7.443834E-16	2.590322E-17
3.177291E+03	7.628549E-16	2.642051E-17
3.187251E+03	7.816428E-16	2.694287E-17
3.197211E+03	8.008858E-16	2.747492E-17
3.207171E+03	8.205146E-16	2.801410E-17
3.217131E+03	8.405282E-16	2.856024E-17
3.227092E+03	8.609989E-16	2.911561E-17
3.237052E+03	8.818527E-16	2.967756E-17
3.247012E+03	9.031634E-16	3.024841E-17
3.256972E+03	9.248542E-16	3.082542E-17
3.266932E+03	9.469997E-16	3.141092E-17
3.276892E+03	9.695991E-16	3.200472E-17
3.286853E+03	9.925707E-16	3.260396E-17
3.296813E+03	1.015991E-15	3.321101E-17
3.306773E+03	1.039857E-15	3.382561E-17
3.316733E+03	1.064083E-15	3.444485E-17
3.326693E+03	1.088830E-15	3.507379E-17
3.336653E+03	1.114012E-15	3.570948E-17
3.346614E+03	1.139625E-15	3.635166E-17
3.356574E+03	1.165575E-15	3.699724E-17
3.366534E+03	1.192117E-15	3.765417E-17
3.376494E+03	1.218985E-15	3.831386E-17
3.386454E+03	1.246348E-15	3.898157E-17
3.396414E+03	1.274110E-15	3.965412E-17
3.406375E+03	1.302263E-15	4.033122E-17
3.416335E+03	1.330888E-15	4.101526E-17
3.426295E+03	1.359981E-15	4.170597E-17
3.436255E+03	1.389438E-15	4.240011E-17
3.446215E+03	1.419344E-15	4.310018E-17
3.456175E+03	1.449690E-15	4.380579E-17
3.466135E+03	1.480466E-15	4.451660E-17
3.476096E+03	1.511565E-15	4.522933E-17
3.486056E+03	1.543170E-15	4.594937E-17
3.496016E+03	1.575173E-15	4.667346E-17
3.505976E+03	1.607561E-15	4.740117E-17
3.515936E+03	1.640323E-15	4.813216E-17
3.525896E+03	1.673546E-15	4.886892E-17
3.535857E+03	1.707116E-15	4.960815E-17
3.545817E+03	1.741021E-15	5.034945E-17
3.555777E+03	1.775449E-15	5.109829E-17
3.565737E+03	1.810184E-15	5.184839E-17
3.575697E+03	1.845210E-15	5.259930E-17
3.585657E+03	1.880720E-15	5.335649E-17
3.595618E+03	1.916492E-15	5.411358E-17
3.605578E+03	1.952721E-15	5.487601E-17
3.615538E+03	1.989183E-15	5.563744E-17
3.625498E+03	2.026071E-15	5.640326E-17
3.635458E+03	2.063266E-15	5.717007E-17
3.645418E+03	2.100751E-15	5.793739E-17
3.655378E+03	2.138617E-15	5.870771E-17
3.665339E+03	2.176740E-15	5.947757E-17
3.675299E+03	2.215213E-15	6.024947E-17
3.685259E+03	2.254016E-15	6.102290E-17
3.695219E+03	2.293135E-15	6.179741E-17
3.705179E+03	2.332442E-15	6.256955E-17
3.715139E+03	2.372138E-15	6.334473E-17
3.725100E+03	2.411987E-15	6.411662E-17
3.735060E+03	2.452190E-15	6.489060E-17
3.745020E+03	2.492619E-15	6.566326E-17
3.754980E+03	2.533258E-15	6.643419E-17
3.764940E+03	2.574085E-15	6.720289E-17
3.774900E+03	2.615303E-15	6.797467E-17
3.784861E+03	2.656566E-15	6.874052E-17
3.794821E+03	2.698072E-15	6.950569E-17
3.804781E+03	2.739805E-15	7.026977E-17
3.814741E+03	2.781746E-15	7.103232E-17
3.824701E+03	2.823877E-15	7.179295E-17
3.834661E+03	2.866069E-15	7.254846E-17
3.844622E+03	2.908525E-15	7.330406E-17
3.854582E+03	2.951005E-15	7.405383E-17
3.864542E+03	2.993713E-15	7.480294E-17
3.874502E+03	3.036521E-15	7.554830E-17
3.884462E+03	3.079411E-15	7.628959E-17
3.894422E+03	3.122366E-15	7.702655E-17
3.904382E+03	3.165370E-15	7.775887E-17
3.914343E+03	3.208515E-15	7.848900E-17
3.924303E+03	3.251675E-15	7.921398E-17
3.934263E+03	3.294944E-15	7.993628E-17
3.944223E+03	3.338198E-15	8.065306E-17
3.954183E+03	3.381423E-15	8.136417E-17
3.964143E+03	3.424603E-15	8.206946E-17
3.974104E+03	3.467834E-15	8.277143E-17
3.984064E+03	3.510995E-15	8.346739E-17
3.994024E+03	3.554177E-15	8.415979E-17
4.003984E+03	3.597267E-15	8.484614E-17
4.013944E+03	3.640249E-15	8.552639E-17
4.023904E+03	3.683116E-15	8.620061E-17
4.033865E+03	3.725858E-15	8.686886E-17
4.043825E+03	3.768570E-15	8.753369E-17
4.053785E+03	3.811036E-15	8.819036E-17
4.063745E+03	3.853353E-15	8.884147E-17
4.073705E+03	3.895515E-15	8.948720E-17
4.083665E+03	3.937413E-15	9.012544E-17
4.093625E+03	3.979148E-15	9.075884E-17
4.103586E+03	4.020614E-15	9.138537E-17
4.113546E+03	4.061809E-15	9.200539E-17
4.123506E+03	4.102632E-15	9.261703E-17
4.133466E+03	4.143286E-15	9.322531E-17
4.143426E+03	4.183570E-15	9.382611E-17
4.153386E+03	4.223488E-15	9.442000E-17
4.163347E+03	4.263045E-15	9.500753E-17
4.173307E+03	4.302246E-15	9.558930E-17
4.183267E+03	4.341002E-15	9.616380E-17
4.193227E+03	4.379318E-15	9.673167E-17
4.203187E+03	4.417206E-15	9.729364E-17
4.213147E+03	4.454579E-15	9.784835E-17
4.223108E+03	4.491450E-15	9.839661E-17
4.233068E+03	4.527834E-15	9.893925E-17
4.243028E+03	4.563743E-15	9.947709E-17
4.252988E+03	4.599004E-15	1.000069E-16
4.262948E+03	4.633636E-15	1.005297E-16
4.272908E+03	4.667751E-15	1.010484E-16
4.282869E+03	4.701180E-15	1.015599E-16
4.292829E+03	4.733946E-15	1.020653E-16
4.302789E+03	4.766070E-15	1.025656E-16
4.312749E+03	4.797480E-15	1.030599E-16
4.322709E+03	4.828199E-15	1.035491E-16
4.332669E+03	4.858158E-15	1.040324E-16
4.342629E+03	4.887288E-15	1.045088E-16
4.352590E+03	4.915788E-15	1.049832E-16
4.362550E+03	4.943411E-15	1.054508E-16
4.372510E+03	4.970176E-15	1.059125E-16
4.382470E+03	4.996102E-15	1.063692E-16
4.392430E+03	5.021204E-15	1.068219E-16
4.402390E+03	5.045411E-15	1.072689E-16
4.412351E+03	5.068656E-15	1.077090E-16
4.422311E+03	5.091038E-15	1.081441E-16
4.432271E+03	5.112488E-15	1.085728E-16
4.442231E+03	5.132937E-15	1.089933E-16
4.452191E+03	5.152403E-15	1.094061E-16
4.462151E+03	5.170900E-15	1.098112E-16
4.472112E+03	5.188363E-15	1.102071E-16
4.482072E+03	5.204809E-15	1.105940E-16
4.492032E+03	5.220334E-15	1.109737E-16
4.501992E+03	5.234793E-15	1.113429E-16
4.511952E+03	5.248202E-15	1.117018E-16
4.521912E+03	5.260660E-15	1.120521E-16
4.531873E+03	5.272101E-15	1.123922E-16
4.541833E+03	5.282464E-15	1.127206E-16
4.551793E+03	5.291846E-15	1.130389E-16
4.561753E+03	5.300261E-15	1.133473E-16
4.571713E+03	5.307650E-15	1.136441E-16
4.581673E+03	5.314106E-15	1.139311E-16
4.591633E+03	5.319493E-15	1.142049E-16
4.601594E+03	5.323980E-15	1.144689E-16
4.611554E+03	5.327509E-15	1.147215E-16
4.621514E+03	5.330094E-15	1.149627E-16
4.631474E+03	5.331753E-15	1.151924E-16
4.641434E+03	5.332577E-15	1.154125E-16
4.651394E+03	5.332434E-15	1.156195E-16
4.661355E+03	5.331413E-15	1.158153E-16
4.671315E+03	5.329532E-15	1.159997E-16
4.681275E+03	5.326878E-15	1.161744E-16
4.691235E+03	5.323321E-15	1.163361E-16
4.701195E+03	5.319023E-15	1.164882E-16
4.711155E+03	5.313926E-15	1.166290E-16
4.721116E+03	5.308117E-15	1.167602E-16
4.731076E+03	5.301540E-15	1.168800E-16
4.741036E+03	5.294279E-15	1.169903E-16
4.750996E+03	5.286348E-15	1.170909E-16
4.760956E+03	5.277694E-15	1.171804E-16
4.770916E+03	5.268467E-15	1.172618E-16
4.780876E+03	5.258613E-15	1.173338E-16
4.790837E+03	5.248145E-15	1.173962E-16
4.800797E+03	5.237212E-15	1.174523E-16
4.810757E+03	5.225690E-15	1.174990E-16
4.820717E+03	5.213661E-15	1.175379E-16
4.830677E+03	5.201202E-15	1.175705E-16
4.840637E+03	5.188325E-15	1.175970E-16
4.850598E+03	5.174975E-15	1.176159E-16
4.860558E+03	5.161296E-15	1.176303E-16
4.870518E+03	5.147232E-15	1.176387E-16
4.880478E+03	5.132858E-15	1.176428E-16
4.890438E+03	5.118120E-15	1.176411E-16
4.900398E+03	5.103222E-15	1.176382E-16
4.910359E+03	5.087979E-15	1.176297E-16
4.920319E+03	5.072593E-15	1.176203E-16
4.930279E+03	5.056944E-15	1.176070E-16
4.940239E+03	5.041170E-15	1.175930E-16
4.950199E+03	5.025276E-15	1.175783E-16
4.960159E+03	5.009209E-15	1.175616E-16
4.970120E+03	4.993102E-15	1.175461E-16
4.980080E+03	4.976836E-15	1.175288E-16
4.990040E+03	4.960606E-15	1.175145E-16
5.000000E+03	4.944295E-15	1.175002E-16
5.009960E+03	4.927972E-15	1.174876E-16
5.019920E+03	4.911644E-15	1.174770E-16
5.029880E+03	4.895317E-15	1.174684E-16
5.039841E+03	4.879058E-15	1.174635E-16
5.049801E+03	4.862874E-15	1.174626E-16
5.059761E+03	4.846712E-15	1.174644E-16
5.069721E+03	4.830696E-15	1.174719E-16
5.079681E+03	4.814715E-15	1.174826E-16
5.089641E+03	4.798836E-15	1.174980E-16
5.099602E+03	4.783121E-15	1.175200E-16
5.109562E+03	4.767520E-15	1.175472E-16
5.119522E+03	4.752040E-15	1.175800E-16
5.129482E+03	4.736687E-15	1.176186E-16
5.139442E+03	4.721525E-15	1.176647E-16
5.149402E+03	4.706561E-15	1.177186E-16
5.159363E+03	4.691688E-15	1.177777E-16
5.169323E+03	4.677027E-15	1.178453E-16
5.179283E+03	4.662584E-15	1.179215E-16
5.189243E+03	4.648255E-15	1.180039E-16
5.199203E+03	4.634159E-15	1.180957E-16
5.209163E+03	4.620248E-15	1.181958E-16
5.219124E+03	4.606530E-15	1.183044E-16
5.229084E+03	4.593013E-15	1.184220E-16
5.239044E+03	4.579704E-15	1.185489E-16
5.249004E+03	4.566558E-15	1.186842E-16
5.258964E+03	4.553637E-15	1.188294E-16
5.268924E+03	4.540896E-15	1.189837E-16
5.278884E+03	4.528343E-15	1.191474E-16
5.288845E+03	4.516042E-15	1.193224E-16
5.298805E+03	4.503892E-15	1.195061E-16
5.308765E+03	4.491904E-15	1.196990E-16
5.318725E+03	4.480139E-15	1.199029E-16
5.328685E+03	4.468553E-15	1.201167E-16
5.338645E+03	4.457155E-15	1.203409E-16
5.348606E+03	4.445951E-15	1.205758E-16
5.358566E+03	4.434899E-15	1.208204E-16
5.368526E+03	4.424004E-15	1.210749E-16
5.378486E+03	4.413325E-15	1.213413E-16
5.388446E+03	4.402763E-15	1.216169E-16
5.398406E+03	4.392375E-15	1.219033E-16
5.408367E+03	4.382161E-15	1.222008E-16
5.418327E+03	4.372071E-15	1.225077E-16
5.428287E+03	4.362155E-15	1.228252E-16
5.438247E+03	4.352307E-15	1.231502E-16
5.448207E+03	4.342626E-15	1.234853E-16
5.458167E+03	4.333104E-15	1.238302E-16
5.468127E+03	4.323633E-15	1.241814E-16
5.478088E+03	4.314304E-15	1.245416E-16
5.488048E+03	4.305060E-15	1.249089E-16
5.498008E+03	4.295942E-15	1.252841E-16
5.507968E+03	4.286889E-15	1.256656E-16
5.517928E+03	4.277942E-15	1.260541E-16
5.527888E+03	4.269091E-15	1.264494E-16
5.537849E+03	4.260325E-15	1.268508E-16
5.547809E+03	4.251635E-15	1.272580E-16
5.557769E+03	4.243061E-15	1.276720E-16
5.567729E+03	4.234591E-15	1.280922E-16
5.577689E+03	4.226216E-15	1.285183E-16
5.587649E+03	4.217975E-15	1.289513E-16
5.597610E+03	4.209811E-15	1.293893E-16
5.607570E+03	4.201760E-15	1.298333E-16
5.617530E+03	4.193816E-15	1.302829E-16
5.627490E+03	4.186017E-15	1.307392E-16
5.637450E+03	4.178353E-15	1.312019E-16
5.647410E+03	4.170767E-15	1.316689E-16
5.657371E+03	4.163348E-15	1.321430E-16
5.667331E+03	4.156088E-15	1.326238E-16
5.677291E+03	4.148929E-15	1.331094E-16
5.687251E+03	4.141960E-15	1.336025E-16
5.697211E+03	4.135074E-15	1.340997E-16
5.707171E+03	4.128364E-15	1.346038E-16
5.717131E+03	4.121771E-15	1.351129E-16
5.727092E+03	4.115337E-15	1.356281E-16
5.737052E+03	4.109054E-15	1.361493E-16
5.747012E+03	4.102916E-15	1.366762E-16
5.756972E+03	4.096915E-15	1.372083E-16
5.766932E+03	4.091044E-15	1.377455E-16
5.776892E+03	4.085346E-15	1.382891E-16
5.786853E+03	4.079717E-15	1.388355E-16
5.796813E+03	4.074247E-15	1.393877E-16
5.806773E+03	4.068882E-15	1.399438E-16
5.816733E+03	4.063665E-15	1.405053E-16
5.826693E+03	4.058540E-15	1.410701E-16
5.836653E+03	4.053553E-15	1.416398E-16
5.846614E+03	4.048597E-15	1.422107E-16
5.856574E+03	4.043816E-15	1.427876E-16
5.866534E+03	4.039056E-15	1.433651E-16
5.876494E+03	4.034412E-15	1.439465E-16
5.886454E+03	4.029827E-15	1.445298E-16
5.896414E+03	4.025252E-15	1.451130E-16
5.906375E+03	4.020775E-15	1.456993E-16
5.916335E+03	4.016344E-15	1.462868E-16
5.926295E+03	4.011954E-15	1.468752E-16
5.936255E+03	4.007554E-15	1.474625E-16
5.946215E+03	4.003186E-15	1.480502E-16
5.956175E+03	3.998798E-15	1.486363E-16
5.966135E+03	3.994434E-15	1.492223E-16
5.976096E+03	3.989993E-15	1.498045E-16
5.986056E+03	3.985568E-15	1.503861E-16
5.996016E+03	3.981058E-15	1.509632E-16
6.005976E+03	3.976555E-15	1.515393E-16
6.015936E+03	3.971959E-15	1.521105E-16
6.025896E+03	3.967266E-15	1.526764E-16
6.035857E+03	3.962473E-15	1.532369E-16
6.045817E+03	3.957623E-15	1.537934E-16
6.055777E+03	3.952665E-15	1.543439E-16
6.065737E+03	3.947548E-15	1.548862E-16
6.075697E+03	3.942316E-15	1.554219E-16
6.085657E+03	3.936964E-15	1.559508E-16
6.095618E+03	3.931490E-15	1.564725E-16
6.105578E+03	3.925794E-15	1.569830E-16
6.115538E+03	3.919969E-15	1.574858E-16
6.125498E+03	3.913964E-15	1.579788E-16
6.135458E+03	3.907775E-15	1.584615E-16
6.145418E+03	3.901400E-15	1.589339E-16
6.155378E+03	3.894835E-15	1.593954E-16
6.165339E+03	3.888078E-15	1.598460E-16
6.175299E+03	3.881123E-15	1.602852E-16
6.185259E+03	3.873924E-15	1.607109E-16
6.195219E+03	3.866522E-15	1.611248E-16
6.205179E+03	3.858916E-15	1.615265E-16
6.215139E+03	3.851056E-15	1.619138E-16
6.225100E+03	3.842987E-15	1.622884E-16
6.235060E+03	3.834705E-15	1.626501E-16
6.245020E+03	3.826162E-15	1.629965E-16
6.254980E+03	3.817401E-15	1.633295E-16
6.264940E+03	3.808375E-15	1.636467E-16
6.274900E+03	3.799174E-15	1.639520E-16
6.284861E+03	3.789703E-15	1.642410E-16
6.294821E+03	3.779960E-15	1.645135E-16
6.304781E+03	3.770038E-15	1.647733E-16
6.314741E+03	3.759839E-15	1.650161E-16
6.324701E+03	3.749457E-15	1.652459E-16
6.334661E+03	3.738796E-15	1.654582E-16
6.344622E+03	3.727950E-15	1.656570E-16
6.354582E+03	3.716821E-15	1.658379E-16
6.364542E+03	3.705504E-15	1.660050E-16
6.374502E+03	3.693950E-15	1.661559E-16
6.384462E+03	3.682158E-15	1.662904E-16
6.394422E+03	3.670175E-15	1.664105E-16
6.404382E+03	3.657953E-15	1.665139E-16
6.414343E+03	3.645538E-15	1.666027E-16
6.424303E+03	3.632929E-15	1.666765E-16
6.434263E+03	3.620080E-15	1.667332E-16
6.444223E+03	3.607036E-15	1.667748E-16
6.454183E+03	3.593845E-15	1.668033E-16
6.464143E+03	3.580414E-15	1.668143E-16
6.474104E+03	3.566834E-15	1.668120E-16
6.484064E+03	3.553107E-15	1.667964E-16
6.494024E+03	3.539186E-15	1.667651E-16
6.503984E+03	3.525118E-15	1.667203E-16
6.513944E+03	3.510904E-15	1.666620E-16
6.523904E+03	3.496544E-15	1.665901E-16
6.533865E+03	3.482038E-15	1.665045E-16
6.543825E+03	3.467434E-15	1.664075E-16
6.553785E+03	3.452687E-15	1.662968E-16
6.563745E+03	3.437843E-15	1.661745E-16
6.573705E+03	3.422903E-15	1.660408E-16
6.583665E+03	3.407915E-15	1.658979E-16
6.593625E+03	3.392832E-15	1.657434E-16
6.603586E+03	3.377658E-15	1.655775E-16
6.613546E+03	3.362438E-15	1.654025E-16
6.623506E+03	3.347174E-15	1.652184E-16
6.633466E+03	3.331867E-15	1.650252E-16
6.643426E+03	3.316519E-15	1.648231E-16
6.653386E+03	3.301176E-15	1.646142E-16
6.663347E+03	3.285840E-15	1.643988E-16
6.673307E+03	3.270467E-15	1.641745E-16
6.683267E+03	3.255148E-15	1.639462E-16
6.693227E+03	3.239796E-15	1.637093E-16
6.703187E+03	3.224500E-15	1.634683E-16
6.713147E+03	3.209265E-15	1.632236E-16
6.723108E+03	3.194044E-15	1.629729E-16
6.733068E+03	3.178842E-15	1.627163E-16
6.743028E+03	3.163748E-15	1.624585E-16
6.752988E+03	3.148718E-15	1.621974E-16
6.762948E+03	3.133711E-15	1.619308E-16
6.772908E+03	3.118816E-15	1.616633E-16
6.782869E+03	3.104035E-15	1.613952E-16
6.792829E+03	3.089327E-15	1.611243E-16
6.802789E+03	3.074690E-15	1.608508E-16
6.812749E+03	3.060172E-15	1.605770E-16
6.822709E+03	3.045774E-15	1.603031E-16
6.832669E+03	3.031454E-15	1.600271E-16
6.842629E+03	3.017257E-15	1.597513E-16
6.852590E+03	3.003185E-15	1.594758E-16
6.862550E+03	2.989281E-15	1.592032E-16
6.872510E+03	2.975461E-15	1.589291E-16
6.882470E+03	2.961770E-15	1.586557E-16
6.892430E+03	2.948209E-15	1.583834E-16
6.902390E+03	2.934780E-15	1.581122E-16
6.912351E+03	2.921484E-15	1.578425E-16
6.922311E+03	2.908322E-15	1.575741E-16
6.932271E+03	2.895339E-15	1.573098E-16
6.942231E+03	2.882450E-15	1.570449E-16
6.952191E+03	2.869700E-15	1.567820E-16
6.962151E+03	2.857132E-15	1.565235E-16
6.972112E+03	2.844664E-15	1.562651E-16
6.982072E+03	2.832338E-15	1.560090E-16
6.992032E+03	2.820157E-15	1.557556E-16
7.001992E+03	2.808121E-15	1.555049E-16
7.011952E+03	2.796232E-15	1.552572E-16
7.021912E+03	2.784450E-15	1.550102E-16
7.031873E+03	2.772817E-15	1.547665E-16
7.041833E+03	2.761334E-15	1.545261E-16
7.051793E+03	2.749963E-15	1.542869E-16
7.061753E+03	2.738704E-15	1.540492E-16
7.071713E+03	2.727560E-15	1.538130E-16
7.081673E+03	2.716572E-15	1.535809E-16
7.091633E+03	2.705660E-15	1.533483E-16
7.101594E+03	2.694907E-15	1.531200E-16
7.111554E+03	2.684234E-15	1.528915E-16
7.121514E+03	2.673682E-15	1.526654E-16
7.131474E+03	2.663213E-15	1.524395E-16
7.141434E+03	2.652829E-15	1.522139E-16
7.151394E+03	2.642531E-15	1.519888E-16
7.161355E+03	2.632361E-15	1.517666E-16
7.171315E+03	2.622241E-15	1.515430E-16
7.181275E+03	2.612174E-15	1.513180E-16
7.191235E+03	2.602199E-15	1.510941E-16
7.201195E+03	2.592319E-15	1.508714E-16
7.211155E+03	2.582458E-15	1.506457E-16
7.221116E+03	2.572656E-15	1.504191E-16
7.231076E+03	2.562877E-15	1.501898E-16
7.241036E+03	2.553161E-15	1.499600E-16
7.250996E+03	2.543473E-15	1.497277E-16
7.260956E+03	2.533813E-15	1.494931E-16
7.270916E+03	2.524184E-15	1.492562E-16
7.280876E+03	2.514587E-15	1.490172E-16
7.290837E+03	2.504989E-15	1.487741E-16
7.300797E+03	2.495390E-15	1.485269E-16
7.310757E+03	2.485791E-15	1.482759E-16
7.320717E+03	2.476197E-15	1.480212E-16
7.330677E+03	2.466609E-15	1.477629E-16
7.340637E+03	2.457028E-15	1.475011E-16
7.350598E+03	2.447420E-15	1.472339E-16
7.360558E+03	2.437789E-15	1.469613E-16
7.370518E+03	2.428170E-15	1.466857E-16
7.380478E+03	2.418495E-15	1.464028E-16
7.390438E+03	2.408838E-15	1.461173E-16
7.400398E+03	2.399165E-15	1.458269E-16
7.410359E+03	2.389442E-15	1.455296E-16
7.420319E+03	2.379741E-15	1.452300E-16
7.430279E+03	2.369995E-15	1.449239E-16
7.440239E+03	2.360276E-15	1.446157E-16
7.450199E+03	2.350515E-15	1.443011E-16
7.460159E+03	2.340748E-15	1.439826E-16
7.470120E+03	2.331014E-15	1.436623E-16
7.480080E+03	2.321242E-15	1.433360E-16
7.490040E+03	2.311470E-15	1.430061E-16
7.500000E+03	2.301735E-15	1.426749E-16
7.509960E+03	2.292002E-15	1.423401E-16
7.519920E+03	2.282272E-15	1.420020E-16
7.529880E+03	2.272582E-15	1.416628E-16
7.539841E+03	2.262899E-15	1.413205E-16
7.549801E+03	2.253257E-15	1.409773E-16
7.559761E+03	2.243622E-15	1.406310E-16
7.569721E+03	2.234066E-15	1.402862E-16
7.579681E+03	2.224519E-15	1.399386E-16
7.589641E+03	2.215017E-15	1.395904E-16
7.599602E+03	2.205562E-15	1.392417E-16
7.609562E+03	2.196151E-15	1.388926E-16
7.619522E+03	2.186821E-15	1.385452E-16
7.629482E+03	2.177537E-15	1.381975E-16
7.639442E+03	2.168300E-15	1.378495E-16
7.649402E+03	2.159112E-15	1.375014E-16
7.659363E+03	2.150004E-15	1.371553E-16
7.669323E+03	2.140977E-15	1.368112E-16
7.679283E+03	2.131966E-15	1.364649E-16
7.689243E+03	2.123069E-15	1.361229E-16
7.699203E+03	2.114221E-15	1.357809E-16
7.709163E+03	2.105420E-15	1.354390E-16
7.719124E+03	2.096701E-15	1.350994E-16
7.729084E+03	2.088031E-15	1.347599E-16
