#wls	flux	fluxerr
1.593625E+03	1.264726E-16	1.685679E-17
1.633466E+03	1.213734E-16	1.613548E-17
1.673307E+03	1.167560E-16	1.548120E-17
1.713147E+03	1.125628E-16	1.488587E-17
1.752988E+03	1.088175E-16	1.435224E-17
1.792829E+03	1.054778E-16	1.387432E-17
1.832669E+03	1.025202E-16	1.344865E-17
1.872510E+03	9.993822E-17	1.307402E-17
1.912351E+03	9.769145E-17	1.274479E-17
1.952191E+03	9.579581E-17	1.246272E-17
1.992032E+03	9.421699E-17	1.222300E-17
2.031873E+03	9.301785E-17	1.203345E-17
2.071713E+03	9.227983E-17	1.190419E-17
2.111554E+03	9.212355E-17	1.185027E-17
2.151394E+03	9.272029E-17	1.189304E-17
2.191235E+03	9.419029E-17	1.204709E-17
2.231076E+03	9.653804E-17	1.231206E-17
2.270916E+03	9.974081E-17	1.268413E-17
2.310757E+03	1.037504E-16	1.315631E-17
2.350598E+03	1.085608E-16	1.372696E-17
2.390438E+03	1.141736E-16	1.439541E-17
2.430279E+03	1.206732E-16	1.517138E-17
2.470120E+03	1.281344E-16	1.606330E-17
2.509960E+03	1.366281E-16	1.707896E-17
2.549801E+03	1.463147E-16	1.823719E-17
2.589641E+03	1.572684E-16	1.954589E-17
2.629482E+03	1.696785E-16	2.102706E-17
2.669323E+03	1.836396E-16	2.269073E-17
2.709163E+03	1.993769E-16	2.456284E-17
2.749004E+03	2.170338E-16	2.665896E-17
2.788845E+03	2.368449E-16	2.900555E-17
2.828685E+03	2.590056E-16	3.162391E-17
2.868526E+03	2.837517E-16	3.453994E-17
2.908367E+03	3.113330E-16	3.778081E-17
2.948207E+03	3.420106E-16	4.137465E-17
2.988048E+03	3.760548E-16	4.535020E-17
2.998008E+03	3.851191E-16	4.640653E-17
3.007968E+03	3.944546E-16	4.749370E-17
3.017928E+03	4.039800E-16	4.860185E-17
3.027888E+03	4.137408E-16	4.973638E-17
3.037849E+03	4.237860E-16	5.090312E-17
3.047809E+03	4.340771E-16	5.209734E-17
3.057769E+03	4.446225E-16	5.331998E-17
3.067729E+03	4.554249E-16	5.457128E-17
3.077689E+03	4.664867E-16	5.585145E-17
3.087649E+03	4.778590E-16	5.716651E-17
3.097610E+03	4.894970E-16	5.851101E-17
3.107570E+03	5.014027E-16	5.988511E-17
3.117530E+03	5.135783E-16	6.128898E-17
3.127490E+03	5.260779E-16	6.272899E-17
3.137450E+03	5.388530E-16	6.419925E-17
3.147410E+03	5.519590E-16	6.570628E-17
3.157371E+03	5.653455E-16	6.724397E-17
3.167331E+03	5.790140E-16	6.881239E-17
3.177291E+03	5.930222E-16	7.041832E-17
3.187251E+03	6.073166E-16	7.205530E-17
3.197211E+03	6.219563E-16	7.373024E-17
3.207171E+03	6.368858E-16	7.543646E-17
3.217131E+03	6.521656E-16	7.718101E-17
3.227092E+03	6.677380E-16	7.895696E-17
3.237052E+03	6.836648E-16	8.077152E-17
3.247012E+03	6.999490E-16	8.262492E-17
3.256972E+03	7.165292E-16	8.450980E-17
3.266932E+03	7.334696E-16	8.643364E-17
3.276892E+03	7.507722E-16	8.839654E-17
3.286853E+03	7.683724E-16	9.039080E-17
3.296813E+03	7.863362E-16	9.242405E-17
3.306773E+03	8.046650E-16	9.449636E-17
3.316733E+03	8.232904E-16	9.659956E-17
3.326693E+03	8.423510E-16	9.874982E-17
3.336653E+03	8.617067E-16	1.009306E-16
3.346614E+03	8.814284E-16	1.031500E-16
3.356574E+03	9.015881E-16	1.054165E-16
3.366534E+03	9.220394E-16	1.077127E-16
3.376494E+03	9.428558E-16	1.100471E-16
3.386454E+03	9.640333E-16	1.124191E-16
3.396414E+03	9.855730E-16	1.148288E-16
3.406375E+03	1.007472E-15	1.172757E-16
3.416335E+03	1.029727E-15	1.197593E-16
3.426295E+03	1.052337E-15	1.222793E-16
3.436255E+03	1.075379E-15	1.248446E-16
3.446215E+03	1.098690E-15	1.274360E-16
3.456175E+03	1.122429E-15	1.300720E-16
3.466135E+03	1.146510E-15	1.327425E-16
3.476096E+03	1.170931E-15	1.354471E-16
3.486056E+03	1.195772E-15	1.381950E-16
3.496016E+03	1.220947E-15	1.409759E-16
3.505976E+03	1.246450E-15	1.437893E-16
3.515936E+03	1.272364E-15	1.466446E-16
3.525896E+03	1.298600E-15	1.495312E-16
3.535857E+03	1.325240E-15	1.524587E-16
3.545817E+03	1.352193E-15	1.554162E-16
3.555777E+03	1.379450E-15	1.584029E-16
3.565737E+03	1.407099E-15	1.614286E-16
3.575697E+03	1.435136E-15	1.644929E-16
3.585657E+03	1.463463E-15	1.675841E-16
3.595618E+03	1.492167E-15	1.707124E-16
3.605578E+03	1.521147E-15	1.738661E-16
3.615538E+03	1.550494E-15	1.770552E-16
3.625498E+03	1.580201E-15	1.802791E-16
3.635458E+03	1.610262E-15	1.835369E-16
3.645418E+03	1.640572E-15	1.868166E-16
3.655378E+03	1.671224E-15	1.901285E-16
3.665339E+03	1.702209E-15	1.934717E-16
3.675299E+03	1.733421E-15	1.968340E-16
3.685259E+03	1.765053E-15	2.002371E-16
3.695219E+03	1.796894E-15	2.036572E-16
3.705179E+03	1.829140E-15	2.071162E-16
3.715139E+03	1.861581E-15	2.105903E-16
3.725100E+03	1.894308E-15	2.140897E-16
3.735060E+03	1.927313E-15	2.176136E-16
3.745020E+03	1.960587E-15	2.211607E-16
3.754980E+03	1.994123E-15	2.247302E-16
3.764940E+03	2.027909E-15	2.283208E-16
3.774900E+03	2.061832E-15	2.319195E-16
3.784861E+03	2.096092E-15	2.355490E-16
3.794821E+03	2.130575E-15	2.391962E-16
3.804781E+03	2.165272E-15	2.428601E-16
3.814741E+03	2.200170E-15	2.465393E-16
3.824701E+03	2.235262E-15	2.502328E-16
3.834661E+03	2.270535E-15	2.539393E-16
3.844622E+03	2.305981E-15	2.576578E-16
3.854582E+03	2.341587E-15	2.613868E-16
3.864542E+03	2.377344E-15	2.651253E-16
3.874502E+03	2.413240E-15	2.688719E-16
3.884462E+03	2.449265E-15	2.726256E-16
3.894422E+03	2.485408E-15	2.763851E-16
3.904382E+03	2.521658E-15	2.801492E-16
3.914343E+03	2.558004E-15	2.839166E-16
3.924303E+03	2.594436E-15	2.876862E-16
3.934263E+03	2.630941E-15	2.914568E-16
3.944223E+03	2.667510E-15	2.952272E-16
3.954183E+03	2.704131E-15	2.989962E-16
3.964143E+03	2.740679E-15	3.027501E-16
3.974104E+03	2.777258E-15	3.065003E-16
3.984064E+03	2.813970E-15	3.102582E-16
3.994024E+03	2.850463E-15	3.139850E-16
4.003984E+03	2.887067E-15	3.177172E-16
4.013944E+03	2.923545E-15	3.214287E-16
4.023904E+03	2.959886E-15	3.251184E-16
4.033865E+03	2.996307E-15	3.288104E-16
4.043825E+03	3.032456E-15	3.324659E-16
4.053785E+03	3.068551E-15	3.361090E-16
4.063745E+03	3.104582E-15	3.397389E-16
4.073705E+03	3.140311E-15	3.433295E-16
4.083665E+03	3.175956E-15	3.469049E-16
4.093625E+03	3.211396E-15	3.504519E-16
4.103586E+03	3.246619E-15	3.539693E-16
4.113546E+03	3.281618E-15	3.574566E-16
4.123506E+03	3.316384E-15	3.609130E-16
4.133466E+03	3.350908E-15	3.643377E-16
4.143426E+03	3.385069E-15	3.677176E-16
4.153386E+03	3.418973E-15	3.710644E-16
4.163347E+03	3.452612E-15	3.743776E-16
4.173307E+03	3.485866E-15	3.776442E-16
4.183267E+03	3.518727E-15	3.808638E-16
4.193227E+03	3.551191E-15	3.840359E-16
4.203187E+03	3.583363E-15	3.871723E-16
4.213147E+03	3.615012E-15	3.902481E-16
4.223108E+03	3.646359E-15	3.932875E-16
4.233068E+03	3.677174E-15	3.962658E-16
4.243028E+03	3.707451E-15	3.991828E-16
4.252988E+03	3.737412E-15	4.020625E-16
4.262948E+03	3.766716E-15	4.048686E-16
4.272908E+03	3.795584E-15	4.076251E-16
4.282869E+03	3.823902E-15	4.103200E-16
4.292829E+03	3.851668E-15	4.129532E-16
4.302789E+03	3.878878E-15	4.155249E-16
4.312749E+03	3.905421E-15	4.180233E-16
4.322709E+03	3.931518E-15	4.204723E-16
4.332669E+03	3.956837E-15	4.228367E-16
4.342629E+03	3.981596E-15	4.251403E-16
4.352590E+03	4.005688E-15	4.273717E-16
4.362550E+03	4.029223E-15	4.295433E-16
4.372510E+03	4.051989E-15	4.316323E-16
4.382470E+03	4.074097E-15	4.336513E-16
4.392430E+03	4.095553E-15	4.356009E-16
4.402390E+03	4.116251E-15	4.374705E-16
4.412351E+03	4.136308E-15	4.392723E-16
4.422311E+03	4.155621E-15	4.409960E-16
4.432271E+03	4.174197E-15	4.426423E-16
4.442231E+03	4.192150E-15	4.442237E-16
4.452191E+03	4.209275E-15	4.457186E-16
4.462151E+03	4.225686E-15	4.471392E-16
4.472112E+03	4.241392E-15	4.484868E-16
4.482072E+03	4.256400E-15	4.497625E-16
4.492032E+03	4.270616E-15	4.509563E-16
4.501992E+03	4.284049E-15	4.520696E-16
4.511952E+03	4.296814E-15	4.531146E-16
4.521912E+03	4.308816E-15	4.540815E-16
4.531873E+03	4.320067E-15	4.549719E-16
4.541833E+03	4.330579E-15	4.557870E-16
4.551793E+03	4.340462E-15	4.565389E-16
4.561753E+03	4.349525E-15	4.572075E-16
4.571713E+03	4.357783E-15	4.577946E-16
4.581673E+03	4.365448E-15	4.583226E-16
4.591633E+03	4.372330E-15	4.587719E-16
4.601594E+03	4.378542E-15	4.591546E-16
4.611554E+03	4.384097E-15	4.594719E-16
4.621514E+03	4.388909E-15	4.597152E-16
4.631474E+03	4.392992E-15	4.598860E-16
4.641434E+03	4.396455E-15	4.599959E-16
4.651394E+03	4.399216E-15	4.600366E-16
4.661355E+03	4.401385E-15	4.600197E-16
4.671315E+03	4.402878E-15	4.599364E-16
4.681275E+03	4.403708E-15	4.597886E-16
4.691235E+03	4.403892E-15	4.595777E-16
4.701195E+03	4.403535E-15	4.593151E-16
4.711155E+03	4.402558E-15	4.589927E-16
4.721116E+03	4.400976E-15	4.586121E-16
4.731076E+03	4.398801E-15	4.581746E-16
4.741036E+03	4.396141E-15	4.576917E-16
4.750996E+03	4.392824E-15	4.571456E-16
4.760956E+03	4.389048E-15	4.565570E-16
4.770916E+03	4.384827E-15	4.559272E-16
4.780876E+03	4.379991E-15	4.552390E-16
4.790837E+03	4.374737E-15	4.545127E-16
4.800797E+03	4.368987E-15	4.537405E-16
4.810757E+03	4.362843E-15	4.529330E-16
4.820717E+03	4.356142E-15	4.520732E-16
4.830677E+03	4.349075E-15	4.511812E-16
4.840637E+03	4.341653E-15	4.502580E-16
4.850598E+03	4.333802E-15	4.492961E-16
4.860558E+03	4.325535E-15	4.482971E-16
4.870518E+03	4.316950E-15	4.472709E-16
4.880478E+03	4.308061E-15	4.462192E-16
4.890438E+03	4.298793E-15	4.451343E-16
4.900398E+03	4.289160E-15	4.440175E-16
4.910359E+03	4.279259E-15	4.428791E-16
4.920319E+03	4.269101E-15	4.417201E-16
4.930279E+03	4.258696E-15	4.405418E-16
4.940239E+03	4.248057E-15	4.393453E-16
4.950199E+03	4.237111E-15	4.381234E-16
4.960159E+03	4.225953E-15	4.368857E-16
4.970120E+03	4.214593E-15	4.356333E-16
4.980080E+03	4.203041E-15	4.343674E-16
4.990040E+03	4.191309E-15	4.330892E-16
5.000000E+03	4.179407E-15	4.317996E-16
5.009960E+03	4.167343E-15	4.304996E-16
5.019920E+03	4.155128E-15	4.291905E-16
5.029880E+03	4.142851E-15	4.278812E-16
5.039841E+03	4.130363E-15	4.265565E-16
5.049801E+03	4.117831E-15	4.252337E-16
5.059761E+03	4.105184E-15	4.239053E-16
5.069721E+03	4.092433E-15	4.225726E-16
5.079681E+03	4.079585E-15	4.212363E-16
5.089641E+03	4.066725E-15	4.199052E-16
5.099602E+03	4.053785E-15	4.185722E-16
5.109562E+03	4.040849E-15	4.172461E-16
5.119522E+03	4.027848E-15	4.159198E-16
5.129482E+03	4.014790E-15	4.145939E-16
5.139442E+03	4.001756E-15	4.132771E-16
5.149402E+03	3.988680E-15	4.119624E-16
5.159363E+03	3.975641E-15	4.106579E-16
5.169323E+03	3.962572E-15	4.093568E-16
5.179283E+03	3.949553E-15	4.080674E-16
5.189243E+03	3.936516E-15	4.067826E-16
5.199203E+03	3.923540E-15	4.055106E-16
5.209163E+03	3.910556E-15	4.042443E-16
5.219124E+03	3.897644E-15	4.029918E-16
5.229084E+03	3.884805E-15	4.017535E-16
5.239044E+03	3.871974E-15	4.005225E-16
5.249004E+03	3.859156E-15	3.992993E-16
5.258964E+03	3.846425E-15	3.980916E-16
5.268924E+03	3.833781E-15	3.968996E-16
5.278884E+03	3.821160E-15	3.957164E-16
5.288845E+03	3.808635E-15	3.945496E-16
5.298805E+03	3.796136E-15	3.933921E-16
5.308765E+03	3.783736E-15	3.922513E-16
5.318725E+03	3.771367E-15	3.911204E-16
5.328685E+03	3.759098E-15	3.900063E-16
5.338645E+03	3.746929E-15	3.889092E-16
5.348606E+03	3.734793E-15	3.878220E-16
5.358566E+03	3.722756E-15	3.867517E-16
5.368526E+03	3.710816E-15	3.856980E-16
5.378486E+03	3.698839E-15	3.846470E-16
5.388446E+03	3.687022E-15	3.836193E-16
5.398406E+03	3.675229E-15	3.826005E-16
5.408367E+03	3.663523E-15	3.815973E-16
5.418327E+03	3.651901E-15	3.806091E-16
5.428287E+03	3.640302E-15	3.796294E-16
5.438247E+03	3.628795E-15	3.786653E-16
5.448207E+03	3.617319E-15	3.777102E-16
5.458167E+03	3.605945E-15	3.767713E-16
5.468127E+03	3.594675E-15	3.758487E-16
5.478088E+03	3.583508E-15	3.749423E-16
5.488048E+03	3.572386E-15	3.740456E-16
5.498008E+03	3.561370E-15	3.731651E-16
5.507968E+03	3.550464E-15	3.723010E-16
5.517928E+03	3.539667E-15	3.714529E-16
5.527888E+03	3.528977E-15	3.706208E-16
5.537849E+03	3.518397E-15	3.698045E-16
5.547809E+03	3.507860E-15	3.689970E-16
5.557769E+03	3.497492E-15	3.682115E-16
5.567729E+03	3.487164E-15	3.674343E-16
5.577689E+03	3.477002E-15	3.666784E-16
5.587649E+03	3.466939E-15	3.659366E-16
5.597610E+03	3.456973E-15	3.652089E-16
5.607570E+03	3.447104E-15	3.644947E-16
5.617530E+03	3.437325E-15	3.637936E-16
5.627490E+03	3.427637E-15	3.631053E-16
5.637450E+03	3.418097E-15	3.624358E-16
5.647410E+03	3.408639E-15	3.617780E-16
5.657371E+03	3.399323E-15	3.611383E-16
5.667331E+03	3.390082E-15	3.605094E-16
5.677291E+03	3.380915E-15	3.598910E-16
5.687251E+03	3.371878E-15	3.592891E-16
5.697211E+03	3.362967E-15	3.587030E-16
5.707171E+03	3.354117E-15	3.581260E-16
5.717131E+03	3.345387E-15	3.575639E-16
5.727092E+03	3.336710E-15	3.570098E-16
5.737052E+03	3.328145E-15	3.564696E-16
5.747012E+03	3.319686E-15	3.559429E-16
5.756972E+03	3.311269E-15	3.554226E-16
5.766932E+03	3.303012E-15	3.549212E-16
5.776892E+03	3.294789E-15	3.544253E-16
5.786853E+03	3.286656E-15	3.539407E-16
5.796813E+03	3.278610E-15	3.534670E-16
5.806773E+03	3.270647E-15	3.530036E-16
5.816733E+03	3.262762E-15	3.525501E-16
5.826693E+03	3.254952E-15	3.521060E-16
5.836653E+03	3.247212E-15	3.516706E-16
5.846614E+03	3.239540E-15	3.512437E-16
5.856574E+03	3.231930E-15	3.508246E-16
5.866534E+03	3.224379E-15	3.504128E-16
5.876494E+03	3.216882E-15	3.500079E-16
5.886454E+03	3.209437E-15	3.496094E-16
5.896414E+03	3.202099E-15	3.492232E-16
5.906375E+03	3.194745E-15	3.488360E-16
5.916335E+03	3.187490E-15	3.484602E-16
5.926295E+03	3.180272E-15	3.480889E-16
5.936255E+03	3.173086E-15	3.477216E-16
5.946215E+03	3.165928E-15	3.473577E-16
5.956175E+03	3.158797E-15	3.469970E-16
5.966135E+03	3.151747E-15	3.466454E-16
5.976096E+03	3.144656E-15	3.462896E-16
5.986056E+03	3.137639E-15	3.459419E-16
5.996016E+03	3.130635E-15	3.455956E-16
6.005976E+03	3.123639E-15	3.452501E-16
6.015936E+03	3.116705E-15	3.449114E-16
6.025896E+03	3.109718E-15	3.445666E-16
6.035857E+03	3.102786E-15	3.442276E-16
6.045817E+03	3.095851E-15	3.438880E-16
6.055777E+03	3.088908E-15	3.435471E-16
6.065737E+03	3.081955E-15	3.432046E-16
6.075697E+03	3.075047E-15	3.428665E-16
6.085657E+03	3.068066E-15	3.425197E-16
6.095618E+03	3.061124E-15	3.421766E-16
6.105578E+03	3.054160E-15	3.418303E-16
6.115538E+03	3.047173E-15	3.414805E-16
6.125498E+03	3.040215E-15	3.411333E-16
6.135458E+03	3.033171E-15	3.407753E-16
6.145418E+03	3.026153E-15	3.404193E-16
6.155378E+03	3.019100E-15	3.400583E-16
6.165339E+03	3.012010E-15	3.396921E-16
6.175299E+03	3.004881E-15	3.393202E-16
6.185259E+03	2.997768E-15	3.389490E-16
6.195219E+03	2.990611E-15	3.385713E-16
6.205179E+03	2.983407E-15	3.381872E-16
6.215139E+03	2.976155E-15	3.377961E-16
6.225100E+03	2.968853E-15	3.373977E-16
6.235060E+03	2.961556E-15	3.369984E-16
6.245020E+03	2.954204E-15	3.365913E-16
6.254980E+03	2.946797E-15	3.361762E-16
6.264940E+03	2.939387E-15	3.357591E-16
6.274900E+03	2.931861E-15	3.353269E-16
6.284861E+03	2.924331E-15	3.348924E-16
6.294821E+03	2.916793E-15	3.344552E-16
6.304781E+03	2.909190E-15	3.340086E-16
6.314741E+03	2.901521E-15	3.335523E-16
6.324701E+03	2.893784E-15	3.330862E-16
6.334661E+03	2.886033E-15	3.326164E-16
6.344622E+03	2.878268E-15	3.321428E-16
6.354582E+03	2.870431E-15	3.316587E-16
6.364542E+03	2.862520E-15	3.311638E-16
6.374502E+03	2.854591E-15	3.306645E-16
6.384462E+03	2.846586E-15	3.301541E-16
6.394422E+03	2.838559E-15	3.296387E-16
6.404382E+03	2.830511E-15	3.291185E-16
6.414343E+03	2.822383E-15	3.285865E-16
6.424303E+03	2.814287E-15	3.280557E-16
6.434263E+03	2.806054E-15	3.275064E-16
6.444223E+03	2.797852E-15	3.269580E-16
6.454183E+03	2.789567E-15	3.263974E-16
6.464143E+03	2.781254E-15	3.258308E-16
6.474104E+03	2.772912E-15	3.252581E-16
6.484064E+03	2.764542E-15	3.246793E-16
6.494024E+03	2.756142E-15	3.240942E-16
6.503984E+03	2.747712E-15	3.235029E-16
6.513944E+03	2.739252E-15	3.229051E-16
6.523904E+03	2.730760E-15	3.223006E-16
6.533865E+03	2.722237E-15	3.216897E-16
6.543825E+03	2.713682E-15	3.210720E-16
6.553785E+03	2.705149E-15	3.204540E-16
6.563745E+03	2.696528E-15	3.198226E-16
6.573705E+03	2.687932E-15	3.191910E-16
6.583665E+03	2.679355E-15	3.185588E-16
6.593625E+03	2.670692E-15	3.179132E-16
6.603586E+03	2.662050E-15	3.172672E-16
6.613546E+03	2.653428E-15	3.166205E-16
6.623506E+03	2.644774E-15	3.159667E-16
6.633466E+03	2.636141E-15	3.153125E-16
6.643426E+03	2.627474E-15	3.146511E-16
6.653386E+03	2.618776E-15	3.139827E-16
6.663347E+03	2.610152E-15	3.133201E-16
6.673307E+03	2.601495E-15	3.126504E-16
6.683267E+03	2.592861E-15	3.119802E-16
6.693227E+03	2.584194E-15	3.113030E-16
6.703187E+03	2.575602E-15	3.106316E-16
6.713147E+03	2.566979E-15	3.099533E-16
6.723108E+03	2.558379E-15	3.092745E-16
6.733068E+03	2.549801E-15	3.085952E-16
6.743028E+03	2.541194E-15	3.079091E-16
6.752988E+03	2.532662E-15	3.072291E-16
6.762948E+03	2.524154E-15	3.065487E-16
6.772908E+03	2.515618E-15	3.058617E-16
6.782869E+03	2.507159E-15	3.051808E-16
6.792829E+03	2.498724E-15	3.044997E-16
6.802789E+03	2.490316E-15	3.038187E-16
6.812749E+03	2.481881E-15	3.031312E-16
6.822709E+03	2.473525E-15	3.024501E-16
6.832669E+03	2.465196E-15	3.017693E-16
6.842629E+03	2.456894E-15	3.010885E-16
6.852590E+03	2.448673E-15	3.004145E-16
6.862550E+03	2.440429E-15	2.997345E-16
6.872510E+03	2.432214E-15	2.990549E-16
6.882470E+03	2.424082E-15	2.983824E-16
6.892430E+03	2.415979E-15	2.977103E-16
6.902390E+03	2.407857E-15	2.970328E-16
6.912351E+03	2.399817E-15	2.963623E-16
6.922311E+03	2.391812E-15	2.956929E-16
6.932271E+03	2.383839E-15	2.950245E-16
6.942231E+03	2.375951E-15	2.943636E-16
6.952191E+03	2.368048E-15	2.936976E-16
6.962151E+03	2.360180E-15	2.930330E-16
6.972112E+03	2.352400E-15	2.923762E-16
6.982072E+03	2.344606E-15	2.917147E-16
6.992032E+03	2.336900E-15	2.910612E-16
7.001992E+03	2.329233E-15	2.904094E-16
7.011952E+03	2.321556E-15	2.897534E-16
7.021912E+03	2.313968E-15	2.891056E-16
7.031873E+03	2.306372E-15	2.884538E-16
7.041833E+03	2.298819E-15	2.878044E-16
7.051793E+03	2.291308E-15	2.871573E-16
7.061753E+03	2.283840E-15	2.865127E-16
7.071713E+03	2.276416E-15	2.858708E-16
7.081673E+03	2.269039E-15	2.852317E-16
7.091633E+03	2.261658E-15	2.845894E-16
7.101594E+03	2.254324E-15	2.839501E-16
7.111554E+03	2.247038E-15	2.833140E-16
7.121514E+03	2.239752E-15	2.826749E-16
7.131474E+03	2.232515E-15	2.820393E-16
7.141434E+03	2.225329E-15	2.814073E-16
7.151394E+03	2.218146E-15	2.807728E-16
7.161355E+03	2.210965E-15	2.801359E-16
7.171315E+03	2.203839E-15	2.795031E-16
7.181275E+03	2.196718E-15	2.788681E-16
7.191235E+03	2.189652E-15	2.782374E-16
7.201195E+03	2.182594E-15	2.776050E-16
7.211155E+03	2.175544E-15	2.769708E-16
7.221116E+03	2.168504E-15	2.763353E-16
7.231076E+03	2.161475E-15	2.756983E-16
7.241036E+03	2.154506E-15	2.750664E-16
7.250996E+03	2.147549E-15	2.744332E-16
7.260956E+03	2.140558E-15	2.737930E-16
7.270916E+03	2.133630E-15	2.731583E-16
7.280876E+03	2.126669E-15	2.725167E-16
7.290837E+03	2.119773E-15	2.718807E-16
7.300797E+03	2.112848E-15	2.712384E-16
7.310757E+03	2.105940E-15	2.705957E-16
7.320717E+03	2.099053E-15	2.699530E-16
7.330677E+03	2.092140E-15	2.693044E-16
7.340637E+03	2.085248E-15	2.686559E-16
7.350598E+03	2.078379E-15	2.680078E-16
7.360558E+03	2.071533E-15	2.673601E-16
7.370518E+03	2.064665E-15	2.667069E-16
7.380478E+03	2.057823E-15	2.660545E-16
7.390438E+03	2.050960E-15	2.653970E-16
7.400398E+03	2.044079E-15	2.647345E-16
7.410359E+03	2.037226E-15	2.640732E-16
7.420319E+03	2.030401E-15	2.634130E-16
7.430279E+03	2.023515E-15	2.627423E-16
7.440239E+03	2.016705E-15	2.620791E-16
7.450199E+03	2.009836E-15	2.614056E-16
7.460159E+03	2.002999E-15	2.607338E-16
7.470120E+03	1.996149E-15	2.600579E-16
7.480080E+03	1.989287E-15	2.593781E-16
7.490040E+03	1.982461E-15	2.587004E-16
7.500000E+03	1.975624E-15	2.580189E-16
7.509960E+03	1.968779E-15	2.573339E-16
7.519920E+03	1.961926E-15	2.566454E-16
7.529880E+03	1.955065E-15	2.559535E-16
7.539841E+03	1.948243E-15	2.552642E-16
7.549801E+03	1.941370E-15	2.545660E-16
7.559761E+03	1.934536E-15	2.538705E-16
7.569721E+03	1.927698E-15	2.531721E-16
7.579681E+03	1.920856E-15	2.524708E-16
7.589641E+03	1.914012E-15	2.517669E-16
7.599602E+03	1.907164E-15	2.510602E-16
7.609562E+03	1.900315E-15	2.503510E-16
7.619522E+03	1.893466E-15	2.496394E-16
7.629482E+03	1.886614E-15	2.489253E-16
7.639442E+03	1.879764E-15	2.482091E-16
7.649402E+03	1.872915E-15	2.474907E-16
7.659363E+03	1.866065E-15	2.467700E-16
7.669323E+03	1.859218E-15	2.460473E-16
7.679283E+03	1.852373E-15	2.453228E-16
7.689243E+03	1.845530E-15	2.445961E-16
7.699203E+03	1.838689E-15	2.438677E-16
7.709163E+03	1.831810E-15	2.431319E-16
7.719124E+03	1.824978E-15	2.424001E-16
7.729084E+03	1.818106E-15	2.416610E-16
