#wls	flux	fluxerr
1.541421E+03	1.588211E-03	2.046437E-04
1.579957E+03	1.645988E-03	2.110037E-04
1.618492E+03	1.700769E-03	2.168804E-04
1.657028E+03	1.751822E-03	2.221839E-04
1.695564E+03	1.798215E-03	2.268015E-04
1.734099E+03	1.837534E-03	2.304378E-04
1.772635E+03	1.866953E-03	2.327534E-04
1.811170E+03	1.882919E-03	2.333277E-04
1.849706E+03	1.881665E-03	2.317263E-04
1.888241E+03	1.860674E-03	2.276800E-04
1.926777E+03	1.821073E-03	2.213730E-04
1.965312E+03	1.770959E-03	2.138293E-04
2.003848E+03	1.726678E-03	2.070369E-04
2.042383E+03	1.711329E-03	2.037329E-04
2.080919E+03	1.746163E-03	2.063546E-04
2.119454E+03	1.841568E-03	2.159867E-04
2.157990E+03	1.994667E-03	2.321262E-04
2.196525E+03	2.192221E-03	2.530781E-04
2.235061E+03	2.418140E-03	2.768640E-04
2.273597E+03	2.658611E-03	3.018212E-04
2.312132E+03	2.904400E-03	3.268535E-04
2.350668E+03	3.150918E-03	3.514175E-04
2.389203E+03	3.396164E-03	3.752742E-04
2.427739E+03	3.640495E-03	3.984505E-04
2.466274E+03	3.885206E-03	4.210735E-04
2.504810E+03	4.131660E-03	4.432716E-04
2.543345E+03	4.381549E-03	4.652019E-04
2.581881E+03	4.636285E-03	4.869842E-04
2.620416E+03	4.897393E-03	5.087422E-04
2.658952E+03	5.166023E-03	5.305536E-04
2.697487E+03	5.443267E-03	5.524835E-04
2.736023E+03	5.730028E-03	5.745713E-04
2.774558E+03	6.027844E-03	5.969136E-04
2.813094E+03	6.338126E-03	6.195851E-04
2.851630E+03	6.662349E-03	6.426577E-04
2.890165E+03	7.002891E-03	6.662799E-04
2.899799E+03	7.090905E-03	6.722919E-04
2.909433E+03	7.180072E-03	6.783437E-04
2.919067E+03	7.270414E-03	6.844356E-04
2.928701E+03	7.362251E-03	6.905960E-04
2.938334E+03	7.456111E-03	6.968726E-04
2.947968E+03	7.552559E-03	7.033151E-04
2.957602E+03	7.651470E-03	7.099092E-04
2.967236E+03	7.752741E-03	7.166421E-04
2.976870E+03	7.856274E-03	7.235021E-04
2.986504E+03	7.962147E-03	7.304933E-04
2.996138E+03	8.070281E-03	7.376057E-04
3.005772E+03	8.180447E-03	7.448156E-04
3.015406E+03	8.292911E-03	7.521446E-04
3.025039E+03	8.407296E-03	7.595553E-04
3.034673E+03	8.523722E-03	7.670564E-04
3.044307E+03	8.642318E-03	7.746565E-04
3.053941E+03	8.762894E-03	7.823358E-04
3.063575E+03	8.885591E-03	7.901042E-04
3.073209E+03	9.010230E-03	7.979430E-04
3.082843E+03	9.136969E-03	8.058635E-04
3.092477E+03	9.265811E-03	8.138630E-04
3.102110E+03	9.396591E-03	8.219243E-04
3.111744E+03	9.529490E-03	8.300603E-04
3.121378E+03	9.664523E-03	8.382695E-04
3.131012E+03	9.801716E-03	8.465511E-04
3.140646E+03	9.941098E-03	8.549046E-04
3.150280E+03	1.008270E-02	8.633297E-04
3.159914E+03	1.022657E-02	8.718269E-04
3.169548E+03	1.037258E-02	8.803828E-04
3.179182E+03	1.052112E-02	8.890267E-04
3.188815E+03	1.067190E-02	8.977318E-04
3.198449E+03	1.082517E-02	9.065142E-04
3.208083E+03	1.098082E-02	9.153619E-04
3.217717E+03	1.113908E-02	9.242912E-04
3.227351E+03	1.130005E-02	9.333051E-04
3.236985E+03	1.146345E-02	9.423785E-04
3.246619E+03	1.162972E-02	9.515429E-04
3.256253E+03	1.179861E-02	9.607741E-04
3.265887E+03	1.197039E-02	9.700900E-04
3.275520E+03	1.214516E-02	9.794946E-04
3.285154E+03	1.232269E-02	9.889650E-04
3.294788E+03	1.250343E-02	9.985333E-04
3.304422E+03	1.268716E-02	1.008177E-03
3.314056E+03	1.287399E-02	1.017902E-03
3.323690E+03	1.306406E-02	1.027713E-03
3.333324E+03	1.325732E-02	1.037602E-03
3.342958E+03	1.345409E-02	1.047589E-03
3.352591E+03	1.365415E-02	1.057653E-03
3.362225E+03	1.385766E-02	1.067800E-03
3.371859E+03	1.406459E-02	1.078023E-03
3.381493E+03	1.427526E-02	1.088343E-03
3.391127E+03	1.448950E-02	1.098739E-03
3.400761E+03	1.470727E-02	1.109205E-03
3.410395E+03	1.492894E-02	1.119761E-03
3.420029E+03	1.515413E-02	1.130376E-03
3.429663E+03	1.538303E-02	1.141056E-03
3.439296E+03	1.561580E-02	1.151809E-03
3.448930E+03	1.585227E-02	1.162616E-03
3.458564E+03	1.609263E-02	1.173485E-03
3.468198E+03	1.633669E-02	1.184398E-03
3.477832E+03	1.658447E-02	1.195348E-03
3.487466E+03	1.683615E-02	1.206345E-03
3.497100E+03	1.709137E-02	1.217356E-03
3.506734E+03	1.735051E-02	1.228403E-03
3.516367E+03	1.761339E-02	1.239467E-03
3.526001E+03	1.788002E-02	1.250543E-03
3.535635E+03	1.815022E-02	1.261613E-03
3.545269E+03	1.842419E-02	1.272684E-03
3.554903E+03	1.870191E-02	1.283750E-03
3.564537E+03	1.898321E-02	1.294793E-03
3.574171E+03	1.926827E-02	1.305819E-03
3.583805E+03	1.955710E-02	1.316824E-03
3.593439E+03	1.984949E-02	1.327788E-03
3.603072E+03	2.014603E-02	1.338743E-03
3.612706E+03	2.044631E-02	1.349657E-03
3.622340E+03	2.075052E-02	1.360536E-03
3.631974E+03	2.105904E-02	1.371398E-03
3.641608E+03	2.137147E-02	1.382212E-03
3.651242E+03	2.168840E-02	1.393008E-03
3.660876E+03	2.200960E-02	1.403765E-03
3.670510E+03	2.233547E-02	1.414502E-03
3.680144E+03	2.266622E-02	1.425225E-03
3.689777E+03	2.300182E-02	1.435924E-03
3.699411E+03	2.334244E-02	1.446603E-03
3.709045E+03	2.368854E-02	1.457281E-03
3.718679E+03	2.404009E-02	1.467950E-03
3.728313E+03	2.439753E-02	1.478627E-03
3.737947E+03	2.476083E-02	1.489301E-03
3.747581E+03	2.513043E-02	1.499991E-03
3.757215E+03	2.550660E-02	1.510702E-03
3.766848E+03	2.588951E-02	1.521435E-03
3.776482E+03	2.627970E-02	1.532211E-03
3.786116E+03	2.667714E-02	1.543018E-03
3.795750E+03	2.708235E-02	1.553874E-03
3.805384E+03	2.749583E-02	1.564798E-03
3.815018E+03	2.791741E-02	1.575766E-03
3.824652E+03	2.834808E-02	1.586823E-03
3.834286E+03	2.878796E-02	1.597962E-03
3.843920E+03	2.923733E-02	1.609185E-03
3.853553E+03	2.969681E-02	1.620512E-03
3.863187E+03	3.016653E-02	1.631935E-03
3.872821E+03	3.064733E-02	1.643486E-03
3.882455E+03	3.113966E-02	1.655170E-03
3.892089E+03	3.164394E-02	1.666996E-03
3.901723E+03	3.216035E-02	1.678953E-03
3.911357E+03	3.268986E-02	1.691077E-03
3.920991E+03	3.323299E-02	1.703374E-03
3.930624E+03	3.379026E-02	1.715853E-03
3.940258E+03	3.436223E-02	1.728520E-03
3.949892E+03	3.494943E-02	1.741382E-03
3.959526E+03	3.555277E-02	1.754462E-03
3.969160E+03	3.617255E-02	1.767753E-03
3.978794E+03	3.680974E-02	1.781279E-03
3.988428E+03	3.746501E-02	1.795047E-03
3.998062E+03	3.813907E-02	1.809068E-03
4.007696E+03	3.883265E-02	1.823348E-03
4.017329E+03	3.954654E-02	1.837898E-03
4.026963E+03	4.028181E-02	1.852740E-03
4.036597E+03	4.103863E-02	1.867854E-03
4.046231E+03	4.181820E-02	1.883263E-03
4.055865E+03	4.262172E-02	1.898991E-03
4.065499E+03	4.344936E-02	1.915015E-03
4.075133E+03	4.430246E-02	1.931359E-03
4.084767E+03	4.518152E-02	1.948015E-03
4.094400E+03	4.608789E-02	1.965004E-03
4.104034E+03	4.702218E-02	1.982317E-03
4.113668E+03	4.798498E-02	1.999945E-03
4.123302E+03	4.897808E-02	2.017925E-03
4.132936E+03	5.000123E-02	2.036209E-03
4.142570E+03	5.105631E-02	2.054836E-03
4.152204E+03	5.214392E-02	2.073792E-03
4.161838E+03	5.326504E-02	2.093074E-03
4.171472E+03	5.442027E-02	2.112669E-03
4.181105E+03	5.561101E-02	2.132590E-03
4.190739E+03	5.683829E-02	2.152835E-03
4.200373E+03	5.810259E-02	2.173382E-03
4.210007E+03	5.940638E-02	2.194283E-03
4.219641E+03	6.075016E-02	2.215511E-03
4.229275E+03	6.213594E-02	2.237099E-03
4.238909E+03	6.356474E-02	2.259039E-03
4.248543E+03	6.503861E-02	2.281360E-03
4.258177E+03	6.655797E-02	2.304034E-03
4.267810E+03	6.812553E-02	2.327109E-03
4.277444E+03	6.974222E-02	2.350573E-03
4.287078E+03	7.140893E-02	2.374412E-03
4.296712E+03	7.312844E-02	2.398675E-03
4.306346E+03	7.490157E-02	2.423346E-03
4.315980E+03	7.672980E-02	2.448431E-03
4.325614E+03	7.861448E-02	2.473932E-03
4.335248E+03	8.055695E-02	2.499852E-03
4.344881E+03	8.255767E-02	2.526168E-03
4.354515E+03	8.461848E-02	2.552904E-03
4.364149E+03	8.674033E-02	2.580055E-03
4.373783E+03	8.892324E-02	2.607594E-03
4.383417E+03	9.116687E-02	2.635488E-03
4.393051E+03	9.347228E-02	2.663749E-03
4.402685E+03	9.583941E-02	2.692363E-03
4.412319E+03	9.826603E-02	2.721260E-03
4.421953E+03	1.007530E-01	2.750464E-03
4.431586E+03	1.032960E-01	2.779867E-03
4.441220E+03	1.058936E-01	2.809451E-03
4.450854E+03	1.085431E-01	2.839166E-03
4.460488E+03	1.112392E-01	2.868923E-03
4.470122E+03	1.139771E-01	2.898642E-03
4.479756E+03	1.167482E-01	2.928177E-03
4.489390E+03	1.195469E-01	2.957464E-03
4.499024E+03	1.223602E-01	2.986282E-03
4.508657E+03	1.251775E-01	3.014493E-03
4.518291E+03	1.279840E-01	3.041867E-03
4.527925E+03	1.307632E-01	3.068172E-03
4.537559E+03	1.334934E-01	3.093073E-03
4.547193E+03	1.361522E-01	3.116248E-03
4.556827E+03	1.387114E-01	3.137270E-03
4.566461E+03	1.411433E-01	3.155756E-03
4.576095E+03	1.434117E-01	3.171154E-03
4.585729E+03	1.454813E-01	3.182962E-03
4.595362E+03	1.473134E-01	3.190626E-03
4.604996E+03	1.488663E-01	3.193547E-03
4.614630E+03	1.501021E-01	3.191215E-03
4.624264E+03	1.509827E-01	3.183123E-03
4.633898E+03	1.514814E-01	3.168997E-03
4.643532E+03	1.515964E-01	3.149060E-03
4.653166E+03	1.513508E-01	3.124014E-03
4.662800E+03	1.507763E-01	3.094681E-03
4.672434E+03	1.499129E-01	3.062005E-03
4.682067E+03	1.487943E-01	3.026727E-03
4.691701E+03	1.474613E-01	2.989634E-03
4.701335E+03	1.459486E-01	2.951346E-03
4.710969E+03	1.442913E-01	2.912461E-03
4.720603E+03	1.425172E-01	2.873412E-03
4.730237E+03	1.406556E-01	2.834645E-03
4.739871E+03	1.387309E-01	2.796501E-03
4.749505E+03	1.367634E-01	2.759231E-03
4.759138E+03	1.347731E-01	2.723083E-03
4.768772E+03	1.327749E-01	2.688201E-03
4.778406E+03	1.307838E-01	2.654740E-03
4.788040E+03	1.288088E-01	2.622739E-03
4.797674E+03	1.268625E-01	2.592315E-03
4.807308E+03	1.249503E-01	2.563454E-03
4.816942E+03	1.230804E-01	2.536200E-03
4.826576E+03	1.212569E-01	2.510529E-03
4.836210E+03	1.194855E-01	2.486459E-03
4.845843E+03	1.177696E-01	2.463968E-03
4.855477E+03	1.161097E-01	2.442979E-03
4.865111E+03	1.145088E-01	2.423484E-03
4.874745E+03	1.129683E-01	2.405447E-03
4.884379E+03	1.114893E-01	2.388826E-03
4.894013E+03	1.100699E-01	2.373531E-03
4.903647E+03	1.087125E-01	2.359568E-03
4.913281E+03	1.074169E-01	2.346892E-03
4.922914E+03	1.061795E-01	2.335387E-03
4.932548E+03	1.050027E-01	2.325080E-03
4.942182E+03	1.038837E-01	2.315881E-03
4.951816E+03	1.028216E-01	2.307746E-03
4.961450E+03	1.018150E-01	2.300631E-03
4.971084E+03	1.008620E-01	2.294471E-03
4.980718E+03	9.996209E-02	2.289248E-03
4.990352E+03	9.911302E-02	2.284897E-03
4.999986E+03	9.831333E-02	2.281376E-03
5.009619E+03	9.756154E-02	2.278646E-03
5.019253E+03	9.685417E-02	2.276618E-03
5.028887E+03	9.619165E-02	2.275299E-03
5.038521E+03	9.557141E-02	2.274625E-03
5.048155E+03	9.499089E-02	2.274533E-03
5.057789E+03	9.444848E-02	2.274983E-03
5.067423E+03	9.394257E-02	2.275933E-03
5.077057E+03	9.347053E-02	2.277318E-03
5.086691E+03	9.303165E-02	2.279120E-03
5.096324E+03	9.262238E-02	2.281252E-03
5.105958E+03	9.224196E-02	2.283692E-03
5.115592E+03	9.188689E-02	2.286352E-03
5.125226E+03	9.155636E-02	2.289211E-03
5.134860E+03	9.124774E-02	2.292201E-03
5.144494E+03	9.095932E-02	2.295277E-03
5.154128E+03	9.068942E-02	2.298394E-03
5.163762E+03	9.043448E-02	2.301459E-03
5.173395E+03	9.019371E-02	2.304449E-03
5.183029E+03	8.996450E-02	2.307294E-03
5.192663E+03	8.974514E-02	2.309947E-03
5.202297E+03	8.953217E-02	2.312315E-03
5.211931E+03	8.932573E-02	2.314398E-03
5.221565E+03	8.912146E-02	2.316080E-03
5.231199E+03	8.891779E-02	2.317315E-03
5.240833E+03	8.871315E-02	2.318060E-03
5.250467E+03	8.850155E-02	2.318153E-03
5.260100E+03	8.827713E-02	2.317437E-03
5.269734E+03	8.803414E-02	2.315756E-03
5.279368E+03	8.777478E-02	2.313164E-03
5.289002E+03	8.750044E-02	2.309696E-03
5.298636E+03	8.721085E-02	2.305341E-03
5.308270E+03	8.690576E-02	2.300094E-03
5.317904E+03	8.658503E-02	2.293950E-03
5.327538E+03	8.624690E-02	2.286863E-03
5.337171E+03	8.589314E-02	2.278882E-03
5.346805E+03	8.552220E-02	2.269969E-03
5.356439E+03	8.513348E-02	2.260112E-03
5.366073E+03	8.472825E-02	2.249348E-03
5.375707E+03	8.430525E-02	2.237651E-03
5.385341E+03	8.386515E-02	2.225043E-03
5.394975E+03	8.340866E-02	2.211552E-03
5.404609E+03	8.293577E-02	2.197184E-03
5.414243E+03	8.244749E-02	2.181976E-03
5.423876E+03	8.194403E-02	2.165943E-03
5.433510E+03	8.142572E-02	2.149104E-03
5.443144E+03	8.089385E-02	2.131504E-03
5.452778E+03	8.034820E-02	2.113149E-03
5.462412E+03	7.979182E-02	2.094133E-03
5.472046E+03	7.922387E-02	2.074444E-03
5.481680E+03	7.864676E-02	2.054160E-03
5.491314E+03	7.806139E-02	2.033318E-03
5.500947E+03	7.746787E-02	2.011935E-03
5.510581E+03	7.686887E-02	1.990093E-03
5.520215E+03	7.626461E-02	1.967813E-03
5.529849E+03	7.565697E-02	1.945157E-03
5.539483E+03	7.504707E-02	1.922167E-03
5.549117E+03	7.443682E-02	1.898908E-03
5.558751E+03	7.382656E-02	1.875402E-03
5.568385E+03	7.321905E-02	1.851731E-03
5.578019E+03	7.261381E-02	1.827898E-03
5.587652E+03	7.201277E-02	1.803963E-03
5.597286E+03	7.141780E-02	1.779987E-03
5.606920E+03	7.083000E-02	1.756008E-03
5.616554E+03	7.024961E-02	1.732045E-03
5.626188E+03	6.967845E-02	1.708152E-03
5.635822E+03	6.911823E-02	1.684384E-03
5.645456E+03	6.856836E-02	1.660734E-03
5.655090E+03	6.803052E-02	1.637255E-03
5.664724E+03	6.750629E-02	1.613993E-03
5.674357E+03	6.699496E-02	1.590939E-03
5.683991E+03	6.649879E-02	1.568155E-03
5.693625E+03	6.601847E-02	1.545666E-03
5.703259E+03	6.555318E-02	1.523459E-03
5.712893E+03	6.510426E-02	1.501572E-03
5.722527E+03	6.467302E-02	1.480042E-03
5.732161E+03	6.425851E-02	1.458854E-03
5.741795E+03	6.386194E-02	1.438041E-03
5.751428E+03	6.348372E-02	1.417619E-03
5.761062E+03	6.312353E-02	1.397585E-03
5.770696E+03	6.278175E-02	1.377955E-03
5.780330E+03	6.245868E-02	1.358740E-03
5.789964E+03	6.215390E-02	1.339939E-03
5.799598E+03	6.186837E-02	1.321578E-03
5.809232E+03	6.160159E-02	1.303653E-03
5.818866E+03	6.135376E-02	1.286176E-03
5.828500E+03	6.112363E-02	1.269127E-03
5.838133E+03	6.091275E-02	1.252549E-03
5.847767E+03	6.071904E-02	1.236408E-03
5.857401E+03	6.054409E-02	1.220746E-03
5.867035E+03	6.038574E-02	1.205530E-03
5.876669E+03	6.024546E-02	1.190804E-03
5.886303E+03	6.012112E-02	1.176537E-03
5.895937E+03	6.001333E-02	1.162757E-03
5.905571E+03	5.992209E-02	1.149479E-03
5.915204E+03	5.984651E-02	1.136706E-03
5.924838E+03	5.978577E-02	1.124439E-03
5.934472E+03	5.974040E-02	1.112710E-03
5.944106E+03	5.971019E-02	1.101536E-03
5.953740E+03	5.969485E-02	1.090937E-03
5.963374E+03	5.969415E-02	1.080931E-03
5.973008E+03	5.970918E-02	1.071567E-03
5.982642E+03	5.974034E-02	1.062878E-03
5.992276E+03	5.978574E-02	1.054859E-03
6.001909E+03	5.984632E-02	1.047559E-03
6.011543E+03	5.992081E-02	1.040987E-03
6.021177E+03	6.000851E-02	1.035165E-03
6.030811E+03	6.011027E-02	1.030142E-03
6.040445E+03	6.022521E-02	1.025940E-03
6.050079E+03	6.035319E-02	1.022592E-03
6.059713E+03	6.049309E-02	1.020118E-03
6.069347E+03	6.064358E-02	1.018532E-03
6.078981E+03	6.080562E-02	1.017890E-03
6.088614E+03	6.097579E-02	1.018171E-03
6.098248E+03	6.115370E-02	1.019406E-03
6.107882E+03	6.133605E-02	1.021578E-03
6.117516E+03	6.152159E-02	1.024699E-03
6.127150E+03	6.170603E-02	1.028728E-03
6.136784E+03	6.188612E-02	1.033609E-03
6.146418E+03	6.205785E-02	1.039259E-03
6.156052E+03	6.221375E-02	1.045533E-03
6.165685E+03	6.234889E-02	1.052325E-03
6.175319E+03	6.245571E-02	1.059476E-03
6.184953E+03	6.252569E-02	1.066807E-03
6.194587E+03	6.255062E-02	1.074135E-03
6.204221E+03	6.252295E-02	1.081282E-03
6.213855E+03	6.244103E-02	1.088162E-03
6.223489E+03	6.231003E-02	1.094808E-03
6.233123E+03	6.213734E-02	1.101289E-03
6.242757E+03	6.193085E-02	1.107687E-03
6.252390E+03	6.169481E-02	1.114021E-03
6.262024E+03	6.143633E-02	1.120365E-03
6.271658E+03	6.115976E-02	1.126746E-03
6.281292E+03	6.086860E-02	1.133180E-03
6.290926E+03	6.056570E-02	1.139673E-03
6.300560E+03	6.025325E-02	1.146224E-03
6.310194E+03	5.993392E-02	1.152841E-03
6.319828E+03	5.960807E-02	1.159495E-03
6.329461E+03	5.927761E-02	1.166184E-03
6.339095E+03	5.894331E-02	1.172890E-03
6.348729E+03	5.860470E-02	1.179573E-03
6.358363E+03	5.826313E-02	1.186228E-03
6.367997E+03	5.791891E-02	1.192833E-03
6.377631E+03	5.757220E-02	1.199366E-03
6.387265E+03	5.722321E-02	1.205806E-03
6.396899E+03	5.687206E-02	1.212132E-03
6.406533E+03	5.651890E-02	1.218326E-03
6.416166E+03	5.616294E-02	1.224350E-03
6.425800E+03	5.580527E-02	1.230207E-03
6.435434E+03	5.544519E-02	1.235866E-03
6.445068E+03	5.508381E-02	1.241335E-03
6.454702E+03	5.472143E-02	1.246604E-03
6.464336E+03	5.435741E-02	1.251646E-03
6.473970E+03	5.399206E-02	1.256455E-03
6.483604E+03	5.362674E-02	1.261051E-03
6.493237E+03	5.325993E-02	1.265389E-03
6.502871E+03	5.289402E-02	1.269515E-03
6.512505E+03	5.252851E-02	1.273410E-03
6.522139E+03	5.216298E-02	1.277056E-03
6.531773E+03	5.179895E-02	1.280485E-03
6.541407E+03	5.143690E-02	1.283704E-03
6.551041E+03	5.107654E-02	1.286702E-03
6.560675E+03	5.071940E-02	1.289513E-03
6.570309E+03	5.036511E-02	1.292128E-03
6.579942E+03	5.001523E-02	1.294585E-03
6.589576E+03	4.966856E-02	1.296852E-03
6.599210E+03	4.932752E-02	1.298994E-03
6.608844E+03	4.899091E-02	1.300979E-03
6.618478E+03	4.866114E-02	1.302875E-03
6.628112E+03	4.833700E-02	1.304652E-03
6.637746E+03	4.801999E-02	1.306353E-03
6.647380E+03	4.770975E-02	1.307972E-03
6.657014E+03	4.740772E-02	1.309554E-03
6.666647E+03	4.711356E-02	1.311094E-03
6.676281E+03	4.682864E-02	1.312635E-03
6.685915E+03	4.655167E-02	1.314148E-03
6.695549E+03	4.628484E-02	1.315700E-03
6.705183E+03	4.602775E-02	1.317286E-03
6.714817E+03	4.577988E-02	1.318899E-03
6.724451E+03	4.554337E-02	1.320606E-03
6.734085E+03	4.531680E-02	1.322374E-03
6.743718E+03	4.510135E-02	1.324245E-03
6.753352E+03	4.489642E-02	1.326208E-03
6.762986E+03	4.470317E-02	1.328305E-03
6.772620E+03	4.452090E-02	1.330524E-03
6.782254E+03	4.435072E-02	1.332904E-03
6.791888E+03	4.419103E-02	1.335406E-03
6.801522E+03	4.404368E-02	1.338093E-03
6.811156E+03	4.390708E-02	1.340924E-03
6.820790E+03	4.378304E-02	1.343963E-03
6.830423E+03	4.366984E-02	1.347163E-03
6.840057E+03	4.356840E-02	1.350560E-03
6.849691E+03	4.347783E-02	1.354135E-03
6.859325E+03	4.339899E-02	1.357922E-03
6.868959E+03	4.333182E-02	1.361924E-03
6.878593E+03	4.327450E-02	1.366093E-03
6.888227E+03	4.322866E-02	1.370487E-03
6.897861E+03	4.319418E-02	1.375108E-03
6.907494E+03	4.316914E-02	1.379902E-03
6.917128E+03	4.315427E-02	1.384899E-03
6.926762E+03	4.314936E-02	1.390099E-03
6.936396E+03	4.315330E-02	1.395471E-03
6.946030E+03	4.316763E-02	1.401072E-03
6.955664E+03	4.319032E-02	1.406842E-03
6.965298E+03	4.322108E-02	1.412777E-03
6.974932E+03	4.326052E-02	1.418904E-03
6.984566E+03	4.330652E-02	1.425157E-03
6.994199E+03	4.336053E-02	1.431592E-03
7.003833E+03	4.342133E-02	1.438171E-03
7.013467E+03	4.348856E-02	1.444891E-03
7.023101E+03	4.356089E-02	1.451711E-03
7.032735E+03	4.363798E-02	1.458625E-03
7.042369E+03	4.372032E-02	1.465655E-03
7.052003E+03	4.380654E-02	1.472761E-03
7.061637E+03	4.389538E-02	1.479905E-03
7.071271E+03	4.398633E-02	1.487075E-03
7.080904E+03	4.407899E-02	1.494262E-03
7.090538E+03	4.417289E-02	1.501456E-03
7.100172E+03	4.426665E-02	1.508614E-03
7.109806E+03	4.435888E-02	1.515695E-03
7.119440E+03	4.444909E-02	1.522686E-03
7.129074E+03	4.453496E-02	1.529511E-03
7.138708E+03	4.461786E-02	1.536224E-03
7.148342E+03	4.469452E-02	1.542715E-03
7.157975E+03	4.476444E-02	1.548973E-03
7.167609E+03	4.482810E-02	1.555017E-03
7.177243E+03	4.488608E-02	1.560873E-03
7.186877E+03	4.493693E-02	1.566495E-03
7.196511E+03	4.498222E-02	1.571943E-03
7.206145E+03	4.502154E-02	1.577208E-03
7.215779E+03	4.505655E-02	1.582353E-03
7.225413E+03	4.508586E-02	1.587336E-03
7.235047E+03	4.511116E-02	1.592221E-03
7.244680E+03	4.513216E-02	1.597004E-03
7.254314E+03	4.514855E-02	1.601682E-03
7.263948E+03	4.516105E-02	1.606285E-03
7.273582E+03	4.516838E-02	1.610774E-03
7.283216E+03	4.517228E-02	1.615218E-03
7.292850E+03	4.517152E-02	1.619579E-03
7.302484E+03	4.516581E-02	1.623854E-03
7.312118E+03	4.515591E-02	1.628075E-03
7.321751E+03	4.514156E-02	1.632240E-03
7.331385E+03	4.512249E-02	1.636346E-03
7.341019E+03	4.509741E-02	1.640352E-03
7.350653E+03	4.506806E-02	1.644327E-03
7.360287E+03	4.503209E-02	1.648192E-03
7.369921E+03	4.499125E-02	1.652015E-03
7.379555E+03	4.494312E-02	1.655715E-03
7.389189E+03	4.488943E-02	1.659359E-03
7.398823E+03	4.482774E-02	1.662862E-03
7.408456E+03	4.475975E-02	1.666292E-03
7.418090E+03	4.468398E-02	1.669598E-03
7.427724E+03	4.460002E-02	1.672769E-03
7.437358E+03	4.450635E-02	1.675749E-03
7.446992E+03	4.440461E-02	1.678604E-03
7.456626E+03	4.429327E-02	1.681278E-03
7.466260E+03	4.417179E-02	1.683751E-03
7.475894E+03	4.403862E-02	1.685965E-03
