#wls	flux	fluxerr
1.541421E+03	2.186682E-04	5.286570E-06
1.579957E+03	2.236951E-04	5.408095E-06
1.618492E+03	2.280024E-04	5.512224E-06
1.657028E+03	2.315665E-04	5.598382E-06
1.695564E+03	2.342828E-04	5.664045E-06
1.734099E+03	2.358889E-04	5.702866E-06
1.772635E+03	2.360980E-04	5.707913E-06
1.811170E+03	2.344414E-04	5.667855E-06
1.849706E+03	2.307021E-04	5.577445E-06
1.888241E+03	2.246531E-04	5.431198E-06
1.926777E+03	2.165596E-04	5.235523E-06
1.965312E+03	2.074713E-04	5.015795E-06
2.003848E+03	1.994308E-04	4.821403E-06
2.042383E+03	1.950439E-04	4.715338E-06
2.080919E+03	1.966010E-04	4.752975E-06
2.119454E+03	2.051424E-04	4.959460E-06
2.157990E+03	2.202327E-04	5.324269E-06
2.196525E+03	2.403274E-04	5.810062E-06
2.235061E+03	2.637409E-04	6.376086E-06
2.273597E+03	2.888984E-04	6.984269E-06
2.312132E+03	3.149161E-04	7.613247E-06
2.350668E+03	3.412192E-04	8.249121E-06
2.389203E+03	3.677366E-04	8.890173E-06
2.427739E+03	3.943536E-04	9.533629E-06
2.466274E+03	4.213181E-04	1.018548E-05
2.504810E+03	4.488053E-04	1.084997E-05
2.543345E+03	4.770067E-04	1.153172E-05
2.581881E+03	5.061963E-04	1.223736E-05
2.620416E+03	5.365690E-04	1.297159E-05
2.658952E+03	5.684878E-04	1.374320E-05
2.697487E+03	6.021486E-04	1.455691E-05
2.736023E+03	6.378335E-04	1.541955E-05
2.774558E+03	6.759282E-04	1.634045E-05
2.813094E+03	7.166345E-04	1.732447E-05
2.851630E+03	7.604633E-04	1.838397E-05
2.890165E+03	8.077422E-04	1.952687E-05
2.899799E+03	8.202472E-04	1.982916E-05
2.909433E+03	8.329799E-04	2.013696E-05
2.919067E+03	8.459439E-04	2.045035E-05
2.928701E+03	8.591584E-04	2.076978E-05
2.938334E+03	8.727996E-04	2.109954E-05
2.947968E+03	8.868230E-04	2.143854E-05
2.957602E+03	9.013312E-04	2.178925E-05
2.967236E+03	9.162000E-04	2.214868E-05
2.976870E+03	9.315357E-04	2.251939E-05
2.986504E+03	9.473317E-04	2.290124E-05
2.996138E+03	9.634633E-04	2.329120E-05
3.005772E+03	9.800422E-04	2.369196E-05
3.015406E+03	9.970639E-04	2.410344E-05
3.025039E+03	1.014403E-03	2.452257E-05
3.034673E+03	1.032298E-03	2.495516E-05
3.044307E+03	1.050626E-03	2.539822E-05
3.053941E+03	1.069260E-03	2.584865E-05
3.063575E+03	1.088446E-03	2.631244E-05
3.073209E+03	1.108059E-03	2.678656E-05
3.082843E+03	1.128226E-03	2.727406E-05
3.092477E+03	1.148691E-03	2.776876E-05
3.102110E+03	1.169710E-03	2.827686E-05
3.111744E+03	1.191286E-03	2.879843E-05
3.121378E+03	1.213290E-03	2.933033E-05
3.131012E+03	1.235854E-03	2.987579E-05
3.140646E+03	1.258848E-03	3.043163E-05
3.150280E+03	1.282408E-03	3.100114E-05
3.159914E+03	1.306672E-03	3.158766E-05
3.169548E+03	1.331371E-03	3.218473E-05
3.179182E+03	1.356645E-03	3.279568E-05
3.188815E+03	1.382497E-03	3.342060E-05
3.198449E+03	1.409070E-03	3.406296E-05
3.208083E+03	1.436229E-03	3.471947E-05
3.217717E+03	1.464118E-03	3.539362E-05
3.227351E+03	1.492598E-03	3.608208E-05
3.236985E+03	1.521674E-03	3.678494E-05
3.246619E+03	1.551636E-03	3.750920E-05
3.256253E+03	1.582200E-03	3.824802E-05
3.265887E+03	1.613662E-03	3.900854E-05
3.275520E+03	1.645730E-03	3.978372E-05
3.285154E+03	1.678704E-03	4.058079E-05
3.294788E+03	1.712437E-03	4.139622E-05
3.304422E+03	1.747085E-03	4.223375E-05
3.314056E+03	1.782498E-03	4.308979E-05
3.323690E+03	1.818828E-03	4.396799E-05
3.333324E+03	1.856079E-03	4.486846E-05
3.342958E+03	1.894253E-03	4.579123E-05
3.352591E+03	1.933349E-03	4.673629E-05
3.362225E+03	1.973523E-03	4.770740E-05
3.371859E+03	2.014464E-03	4.869704E-05
3.381493E+03	2.056636E-03	4.971646E-05
3.391127E+03	2.099726E-03	5.075806E-05
3.400761E+03	2.143887E-03	5.182553E-05
3.410395E+03	2.189115E-03	5.291883E-05
3.420029E+03	2.235405E-03	5.403776E-05
3.429663E+03	2.282748E-03	5.518217E-05
3.439296E+03	2.331298E-03	5.635576E-05
3.448930E+03	2.381047E-03	5.755832E-05
3.458564E+03	2.431821E-03	5.878563E-05
3.468198E+03	2.483933E-03	6.004531E-05
3.477832E+03	2.537042E-03	6.132908E-05
3.487466E+03	2.591459E-03	6.264447E-05
3.497100E+03	2.647001E-03	6.398706E-05
3.506734E+03	2.703813E-03	6.536034E-05
3.516367E+03	2.761871E-03	6.676374E-05
3.526001E+03	2.821151E-03	6.819668E-05
3.535635E+03	2.881460E-03	6.965449E-05
3.545269E+03	2.943266E-03	7.114846E-05
3.554903E+03	3.006033E-03	7.266568E-05
3.564537E+03	3.070228E-03	7.421741E-05
3.574171E+03	3.135477E-03	7.579461E-05
3.583805E+03	3.201903E-03	7.740027E-05
3.593439E+03	3.269628E-03	7.903734E-05
3.603072E+03	3.338436E-03	8.070055E-05
3.612706E+03	3.408268E-03	8.238854E-05
3.622340E+03	3.479411E-03	8.410821E-05
3.631974E+03	3.551472E-03	8.585007E-05
3.641608E+03	3.624571E-03	8.761701E-05
3.651242E+03	3.698653E-03	8.940771E-05
3.660876E+03	3.773825E-03	9.122476E-05
3.670510E+03	3.850024E-03	9.306662E-05
3.680144E+03	3.927008E-03	9.492747E-05
3.689777E+03	4.004875E-03	9.680965E-05
3.699411E+03	4.083545E-03	9.871122E-05
3.709045E+03	4.162936E-03	1.006302E-04
3.718679E+03	4.242967E-03	1.025647E-04
3.728313E+03	4.323721E-03	1.045167E-04
3.737947E+03	4.405108E-03	1.064839E-04
3.747581E+03	4.486860E-03	1.084600E-04
3.757215E+03	4.569041E-03	1.104464E-04
3.766848E+03	4.651705E-03	1.124445E-04
3.776482E+03	4.734386E-03	1.144430E-04
3.786116E+03	4.817114E-03	1.164426E-04
3.795750E+03	4.899739E-03	1.184398E-04
3.805384E+03	4.982261E-03	1.204344E-04
3.815018E+03	5.064331E-03	1.224182E-04
3.824652E+03	5.145766E-03	1.243865E-04
3.834286E+03	5.226534E-03	1.263388E-04
3.843920E+03	5.306266E-03	1.282659E-04
3.853553E+03	5.384756E-03	1.301631E-04
3.863187E+03	5.461961E-03	1.320292E-04
3.872821E+03	5.537507E-03	1.338552E-04
3.882455E+03	5.611189E-03	1.356361E-04
3.892089E+03	5.682987E-03	1.373715E-04
3.901723E+03	5.752415E-03	1.390496E-04
3.911357E+03	5.819629E-03	1.406742E-04
3.920991E+03	5.884219E-03	1.422353E-04
3.930624E+03	5.946257E-03	1.437348E-04
3.940258E+03	6.005528E-03	1.451673E-04
3.949892E+03	6.062162E-03	1.465361E-04
3.959526E+03	6.115855E-03	1.478338E-04
3.969160E+03	6.166775E-03	1.490645E-04
3.978794E+03	6.214854E-03	1.502265E-04
3.988428E+03	6.260187E-03	1.513221E-04
3.998062E+03	6.302904E-03	1.523545E-04
4.007696E+03	6.342928E-03	1.533218E-04
4.017329E+03	6.380639E-03	1.542332E-04
4.026963E+03	6.416021E-03	1.550883E-04
4.036597E+03	6.449516E-03	1.558977E-04
4.046231E+03	6.481309E-03	1.566660E-04
4.055865E+03	6.511607E-03	1.573982E-04
4.065499E+03	6.540524E-03	1.580970E-04
4.075133E+03	6.568575E-03	1.587749E-04
4.084767E+03	6.596013E-03	1.594379E-04
4.094400E+03	6.622926E-03	1.600883E-04
4.104034E+03	6.649532E-03	1.607312E-04
4.113668E+03	6.676164E-03	1.613747E-04
4.123302E+03	6.702879E-03	1.620203E-04
4.132936E+03	6.729850E-03	1.626720E-04
4.142570E+03	6.757247E-03	1.633341E-04
4.152204E+03	6.785205E-03	1.640097E-04
4.161838E+03	6.813849E-03	1.647018E-04
4.171472E+03	6.843080E-03	1.654082E-04
4.181105E+03	6.873110E-03	1.661339E-04
4.190739E+03	6.903923E-03	1.668784E-04
4.200373E+03	6.935614E-03	1.676443E-04
4.210007E+03	6.968369E-03	1.684358E-04
4.219641E+03	7.002047E-03	1.692496E-04
4.229275E+03	7.036820E-03	1.700899E-04
4.238909E+03	7.072726E-03	1.709576E-04
4.248543E+03	7.109888E-03	1.718557E-04
4.258177E+03	7.148209E-03	1.727817E-04
4.267810E+03	7.187929E-03	1.737416E-04
4.277444E+03	7.228952E-03	1.747329E-04
4.287078E+03	7.271263E-03	1.757554E-04
4.296712E+03	7.314553E-03	1.768016E-04
4.306346E+03	7.358693E-03	1.778683E-04
4.315980E+03	7.403328E-03	1.789469E-04
4.325614E+03	7.448060E-03	1.800279E-04
4.335248E+03	7.492772E-03	1.811084E-04
4.344881E+03	7.537132E-03	1.821804E-04
4.354515E+03	7.580771E-03	1.832350E-04
4.364149E+03	7.623502E-03	1.842676E-04
4.373783E+03	7.664925E-03	1.852686E-04
4.383417E+03	7.704799E-03	1.862321E-04
4.393051E+03	7.742864E-03	1.871519E-04
4.402685E+03	7.778647E-03	1.880166E-04
4.412319E+03	7.811948E-03	1.888213E-04
4.421953E+03	7.842451E-03	1.895583E-04
4.431586E+03	7.869739E-03	1.902176E-04
4.441220E+03	7.893489E-03	1.907914E-04
4.450854E+03	7.913378E-03	1.912719E-04
4.460488E+03	7.929092E-03	1.916515E-04
4.470122E+03	7.940456E-03	1.919259E-04
4.479756E+03	7.947107E-03	1.920864E-04
4.489390E+03	7.948922E-03	1.921300E-04
4.499024E+03	7.945726E-03	1.920525E-04
4.508657E+03	7.937580E-03	1.918553E-04
4.518291E+03	7.924478E-03	1.915384E-04
4.527925E+03	7.906503E-03	1.911037E-04
4.537559E+03	7.883862E-03	1.905562E-04
4.547193E+03	7.856701E-03	1.898994E-04
4.556827E+03	7.825173E-03	1.891371E-04
4.566461E+03	7.789754E-03	1.882808E-04
4.576095E+03	7.750662E-03	1.873356E-04
4.585729E+03	7.708395E-03	1.863137E-04
4.595362E+03	7.663289E-03	1.852233E-04
4.604996E+03	7.615817E-03	1.840756E-04
4.614630E+03	7.566404E-03	1.828810E-04
4.624264E+03	7.515780E-03	1.816572E-04
4.633898E+03	7.464230E-03	1.804110E-04
4.643532E+03	7.412595E-03	1.791627E-04
4.653166E+03	7.361189E-03	1.779200E-04
4.662800E+03	7.310667E-03	1.766986E-04
4.672434E+03	7.261575E-03	1.755118E-04
4.682067E+03	7.214446E-03	1.743724E-04
4.691701E+03	7.169712E-03	1.732910E-04
4.701335E+03	7.127879E-03	1.722796E-04
4.710969E+03	7.089271E-03	1.713462E-04
4.720603E+03	7.054281E-03	1.705003E-04
4.730237E+03	7.023311E-03	1.697515E-04
4.739871E+03	6.996514E-03	1.691036E-04
4.749505E+03	6.974260E-03	1.685655E-04
4.759138E+03	6.956730E-03	1.681415E-04
4.768772E+03	6.944089E-03	1.678357E-04
4.778406E+03	6.936378E-03	1.676491E-04
4.788040E+03	6.933615E-03	1.675821E-04
4.797674E+03	6.935695E-03	1.676321E-04
4.807308E+03	6.942440E-03	1.677949E-04
4.816942E+03	6.953814E-03	1.680695E-04
4.826576E+03	6.969625E-03	1.684514E-04
4.836210E+03	6.989767E-03	1.689380E-04
4.845843E+03	7.014211E-03	1.695285E-04
4.855477E+03	7.042855E-03	1.702206E-04
4.865111E+03	7.075449E-03	1.710081E-04
4.874745E+03	7.112055E-03	1.718926E-04
4.884379E+03	7.152583E-03	1.728718E-04
4.894013E+03	7.196787E-03	1.739399E-04
4.903647E+03	7.244742E-03	1.750987E-04
4.913281E+03	7.296364E-03	1.763461E-04
4.922914E+03	7.351418E-03	1.776764E-04
4.932548E+03	7.410095E-03	1.790943E-04
4.942182E+03	7.472112E-03	1.805929E-04
4.951816E+03	7.537591E-03	1.821752E-04
4.961450E+03	7.606422E-03	1.838384E-04
4.971084E+03	7.678660E-03	1.855840E-04
4.980718E+03	7.754196E-03	1.874094E-04
4.990352E+03	7.833098E-03	1.893160E-04
4.999986E+03	7.915271E-03	1.913017E-04
5.009619E+03	8.000697E-03	1.933661E-04
5.019253E+03	8.089447E-03	1.955107E-04
5.028887E+03	8.181420E-03	1.977332E-04
5.038521E+03	8.276671E-03	2.000350E-04
5.048155E+03	8.375035E-03	2.024120E-04
5.057789E+03	8.476414E-03	2.048618E-04
5.067423E+03	8.580763E-03	2.073834E-04
5.077057E+03	8.687814E-03	2.099703E-04
5.086691E+03	8.797063E-03	2.126103E-04
5.096324E+03	8.908342E-03	2.152994E-04
5.105958E+03	9.021159E-03	2.180256E-04
5.115592E+03	9.135174E-03	2.207808E-04
5.125226E+03	9.249825E-03	2.235513E-04
5.134860E+03	9.364602E-03	2.263249E-04
5.144494E+03	9.478960E-03	2.290883E-04
5.154128E+03	9.592314E-03	2.318274E-04
5.163762E+03	9.704006E-03	2.345264E-04
5.173395E+03	9.813336E-03	2.371683E-04
5.183029E+03	9.919582E-03	2.397356E-04
5.192663E+03	1.002191E-02	2.422082E-04
5.202297E+03	1.011978E-02	2.445730E-04
5.211931E+03	1.021225E-02	2.468073E-04
5.221565E+03	1.029866E-02	2.488954E-04
5.231199E+03	1.037851E-02	2.508248E-04
5.240833E+03	1.045108E-02	2.525781E-04
5.250467E+03	1.051582E-02	2.541422E-04
5.260100E+03	1.057231E-02	2.555070E-04
5.269734E+03	1.061997E-02	2.566582E-04
5.279368E+03	1.065834E-02	2.575852E-04
5.289002E+03	1.068716E-02	2.582810E-04
5.298636E+03	1.070594E-02	2.587345E-04
5.308270E+03	1.071465E-02	2.589445E-04
5.317904E+03	1.071297E-02	2.589035E-04
5.327538E+03	1.070098E-02	2.586132E-04
5.337171E+03	1.067863E-02	2.580724E-04
5.346805E+03	1.064593E-02	2.572817E-04
5.356439E+03	1.060309E-02	2.562459E-04
5.366073E+03	1.055049E-02	2.549743E-04
5.375707E+03	1.048858E-02	2.534777E-04
5.385341E+03	1.041785E-02	2.517678E-04
5.394975E+03	1.033874E-02	2.498554E-04
5.404609E+03	1.025203E-02	2.477595E-04
5.414243E+03	1.015813E-02	2.454896E-04
5.423876E+03	1.005779E-02	2.430642E-04
5.433510E+03	9.951785E-03	2.405020E-04
5.443144E+03	9.840592E-03	2.378143E-04
5.452778E+03	9.724992E-03	2.350202E-04
5.462412E+03	9.605663E-03	2.321359E-04
5.472046E+03	9.483269E-03	2.291776E-04
5.481680E+03	9.358467E-03	2.261611E-04
5.491314E+03	9.231991E-03	2.231042E-04
5.500947E+03	9.104285E-03	2.200175E-04
5.510581E+03	8.976074E-03	2.169186E-04
5.520215E+03	8.847969E-03	2.138223E-04
5.529849E+03	8.720568E-03	2.107431E-04
5.539483E+03	8.594476E-03	2.076955E-04
5.549117E+03	8.470280E-03	2.046937E-04
5.558751E+03	8.348466E-03	2.017495E-04
5.568385E+03	8.229679E-03	1.988784E-04
5.578019E+03	8.114464E-03	1.960937E-04
5.587652E+03	8.003239E-03	1.934054E-04
5.597286E+03	7.896484E-03	1.908252E-04
5.606920E+03	7.794491E-03	1.883600E-04
5.616554E+03	7.697575E-03	1.860175E-04
5.626188E+03	7.605888E-03	1.838014E-04
5.635822E+03	7.519541E-03	1.817144E-04
5.645456E+03	7.438630E-03	1.797587E-04
5.655090E+03	7.363185E-03	1.779351E-04
5.664724E+03	7.293161E-03	1.762425E-04
5.674357E+03	7.228645E-03	1.746831E-04
5.683991E+03	7.169512E-03	1.732537E-04
5.693625E+03	7.115906E-03	1.719579E-04
5.703259E+03	7.067701E-03	1.707926E-04
5.712893E+03	7.024949E-03	1.697591E-04
5.722527E+03	6.987567E-03	1.688553E-04
5.732161E+03	6.955490E-03	1.680798E-04
5.741795E+03	6.928447E-03	1.674259E-04
5.751428E+03	6.906053E-03	1.668843E-04
5.761062E+03	6.887977E-03	1.664471E-04
5.770696E+03	6.873845E-03	1.661052E-04
5.780330E+03	6.863008E-03	1.658429E-04
5.789964E+03	6.855139E-03	1.656524E-04
5.799598E+03	6.849695E-03	1.655204E-04
5.809232E+03	6.846193E-03	1.654353E-04
5.818866E+03	6.844041E-03	1.653829E-04
5.828500E+03	6.842927E-03	1.653556E-04
5.838133E+03	6.842497E-03	1.653448E-04
5.847767E+03	6.842361E-03	1.653411E-04
5.857401E+03	6.842279E-03	1.653386E-04
5.867035E+03	6.842169E-03	1.653356E-04
5.876669E+03	6.841853E-03	1.653275E-04
5.886303E+03	6.841343E-03	1.653147E-04
5.895937E+03	6.840672E-03	1.652981E-04
5.905571E+03	6.839907E-03	1.652792E-04
5.915204E+03	6.839127E-03	1.652599E-04
5.924838E+03	6.838639E-03	1.652476E-04
5.934472E+03	6.838644E-03	1.652473E-04
5.944106E+03	6.839393E-03	1.652650E-04
5.953740E+03	6.841296E-03	1.653105E-04
5.963374E+03	6.844756E-03	1.653937E-04
5.973008E+03	6.849947E-03	1.655186E-04
5.982642E+03	6.857295E-03	1.656957E-04
5.992276E+03	6.867066E-03	1.659313E-04
6.001909E+03	6.879257E-03	1.662255E-04
6.011543E+03	6.894035E-03	1.665821E-04
6.021177E+03	6.911483E-03	1.670032E-04
6.030811E+03	6.931595E-03	1.674887E-04
6.040445E+03	6.954414E-03	1.680396E-04
6.050079E+03	6.979908E-03	1.686551E-04
6.059713E+03	7.007938E-03	1.693319E-04
6.069347E+03	7.038634E-03	1.700731E-04
6.078981E+03	7.071771E-03	1.708733E-04
6.088614E+03	7.107399E-03	1.717337E-04
6.098248E+03	7.145346E-03	1.726501E-04
6.107882E+03	7.185718E-03	1.736251E-04
6.117516E+03	7.228244E-03	1.746521E-04
6.127150E+03	7.272930E-03	1.757313E-04
6.136784E+03	7.319623E-03	1.768590E-04
6.146418E+03	7.368212E-03	1.780325E-04
6.156052E+03	7.418414E-03	1.792449E-04
6.165685E+03	7.470235E-03	1.804965E-04
6.175319E+03	7.523402E-03	1.817805E-04
6.184953E+03	7.577550E-03	1.830883E-04
6.194587E+03	7.632534E-03	1.844162E-04
6.204221E+03	7.688130E-03	1.857590E-04
6.213855E+03	7.744031E-03	1.871091E-04
6.223489E+03	7.799981E-03	1.884603E-04
6.233123E+03	7.855589E-03	1.898033E-04
6.242757E+03	7.910603E-03	1.911319E-04
6.252390E+03	7.964584E-03	1.924356E-04
6.262024E+03	8.017030E-03	1.937021E-04
6.271658E+03	8.067412E-03	1.949188E-04
6.281292E+03	8.115183E-03	1.960724E-04
6.290926E+03	8.159682E-03	1.971469E-04
6.300560E+03	8.200322E-03	1.981281E-04
6.310194E+03	8.236459E-03	1.990006E-04
6.319828E+03	8.267798E-03	1.997571E-04
6.329461E+03	8.293822E-03	2.003852E-04
6.339095E+03	8.314319E-03	2.008798E-04
6.348729E+03	8.329127E-03	2.012369E-04
6.358363E+03	8.338035E-03	2.014515E-04
6.367997E+03	8.340922E-03	2.015205E-04
6.377631E+03	8.337627E-03	2.014402E-04
6.387265E+03	8.327906E-03	2.012047E-04
6.396899E+03	8.311753E-03	2.008138E-04
6.406533E+03	8.288748E-03	2.002573E-04
6.416166E+03	8.258538E-03	1.995267E-04
6.425800E+03	8.220692E-03	1.986117E-04
6.435434E+03	8.175035E-03	1.975079E-04
6.445068E+03	8.121046E-03	1.962029E-04
6.454702E+03	8.058628E-03	1.946942E-04
6.464336E+03	7.987429E-03	1.929734E-04
6.473970E+03	7.907529E-03	1.910423E-04
6.483604E+03	7.818895E-03	1.889003E-04
6.493237E+03	7.722202E-03	1.865636E-04
6.502871E+03	7.618085E-03	1.840475E-04
6.512505E+03	7.507310E-03	1.813707E-04
6.522139E+03	7.390887E-03	1.785573E-04
6.531773E+03	7.269670E-03	1.756282E-04
6.541407E+03	7.144697E-03	1.726084E-04
6.551041E+03	7.017052E-03	1.695240E-04
6.560675E+03	6.887806E-03	1.664009E-04
6.570309E+03	6.757907E-03	1.632621E-04
6.579942E+03	6.628475E-03	1.601346E-04
6.589576E+03	6.500486E-03	1.570420E-04
6.599210E+03	6.374902E-03	1.540075E-04
6.608844E+03	6.252282E-03	1.510447E-04
6.618478E+03	6.133326E-03	1.481704E-04
6.628112E+03	6.018583E-03	1.453978E-04
6.637746E+03	5.908438E-03	1.427364E-04
6.647380E+03	5.803224E-03	1.401941E-04
6.657014E+03	5.703277E-03	1.377791E-04
6.666647E+03	5.608670E-03	1.354930E-04
6.676281E+03	5.519440E-03	1.333369E-04
6.685915E+03	5.435783E-03	1.313155E-04
6.695549E+03	5.357572E-03	1.294256E-04
6.705183E+03	5.284785E-03	1.276667E-04
6.714817E+03	5.217207E-03	1.260338E-04
6.724451E+03	5.154856E-03	1.245271E-04
6.734085E+03	5.097504E-03	1.231411E-04
6.743718E+03	5.045169E-03	1.218764E-04
6.753352E+03	4.997717E-03	1.207296E-04
6.762986E+03	4.954902E-03	1.196949E-04
6.772620E+03	4.916720E-03	1.187720E-04
6.782254E+03	4.882911E-03	1.179549E-04
6.791888E+03	4.853465E-03	1.172431E-04
6.801522E+03	4.828198E-03	1.166322E-04
6.811156E+03	4.807022E-03	1.161202E-04
6.820790E+03	4.789865E-03	1.157053E-04
6.830423E+03	4.776721E-03	1.153874E-04
6.840057E+03	4.767443E-03	1.151628E-04
6.849691E+03	4.762129E-03	1.150340E-04
6.859325E+03	4.760649E-03	1.149977E-04
6.868959E+03	4.763086E-03	1.150562E-04
6.878593E+03	4.769359E-03	1.152072E-04
6.888227E+03	4.779436E-03	1.154502E-04
6.897861E+03	4.793258E-03	1.157836E-04
6.907494E+03	4.810765E-03	1.162060E-04
6.917128E+03	4.831891E-03	1.167158E-04
6.926762E+03	4.856525E-03	1.173104E-04
6.936396E+03	4.884611E-03	1.179883E-04
6.946030E+03	4.915890E-03	1.187434E-04
6.955664E+03	4.950259E-03	1.195731E-04
6.965298E+03	4.987341E-03	1.204683E-04
6.974932E+03	5.027002E-03	1.214258E-04
6.984566E+03	5.068927E-03	1.224380E-04
6.994199E+03	5.112856E-03	1.234985E-04
7.003833E+03	5.158524E-03	1.246011E-04
7.013467E+03	5.205735E-03	1.257409E-04
7.023101E+03	5.254092E-03	1.269085E-04
7.032735E+03	5.303460E-03	1.281004E-04
7.042369E+03	5.353528E-03	1.293092E-04
7.052003E+03	5.404045E-03	1.305288E-04
7.061637E+03	5.454831E-03	1.317549E-04
7.071271E+03	5.505583E-03	1.329802E-04
7.080904E+03	5.556059E-03	1.341988E-04
7.090538E+03	5.606021E-03	1.354050E-04
7.100172E+03	5.655324E-03	1.365953E-04
7.109806E+03	5.703605E-03	1.377609E-04
7.119440E+03	5.750791E-03	1.389000E-04
7.129074E+03	5.796655E-03	1.400071E-04
7.138708E+03	5.840806E-03	1.410729E-04
7.148342E+03	5.883086E-03	1.420935E-04
7.157975E+03	5.923275E-03	1.430636E-04
7.167609E+03	5.961234E-03	1.439798E-04
7.177243E+03	5.996607E-03	1.448335E-04
7.186877E+03	6.029315E-03	1.456229E-04
7.196511E+03	6.059219E-03	1.463445E-04
7.206145E+03	6.086190E-03	1.469953E-04
7.215779E+03	6.110145E-03	1.475732E-04
7.225413E+03	6.131010E-03	1.480765E-04
7.235047E+03	6.148730E-03	1.485038E-04
7.244680E+03	6.163297E-03	1.488550E-04
7.254314E+03	6.174634E-03	1.491282E-04
7.263948E+03	6.182933E-03	1.493280E-04
7.273582E+03	6.188140E-03	1.494531E-04
7.283216E+03	6.190473E-03	1.495088E-04
7.292850E+03	6.190085E-03	1.494987E-04
7.302484E+03	6.187116E-03	1.494264E-04
7.312118E+03	6.181813E-03	1.492977E-04
7.321751E+03	6.174577E-03	1.491223E-04
7.331385E+03	6.165442E-03	1.489010E-04
7.341019E+03	6.154597E-03	1.486385E-04
7.350653E+03	6.142200E-03	1.483384E-04
7.360287E+03	6.128395E-03	1.480044E-04
7.369921E+03	6.113216E-03	1.476371E-04
7.379555E+03	6.096521E-03	1.472333E-04
7.389189E+03	6.078475E-03	1.467969E-04
7.398823E+03	6.058986E-03	1.463256E-04
7.408456E+03	6.038080E-03	1.458201E-04
7.418090E+03	6.015961E-03	1.452853E-04
7.427724E+03	5.992702E-03	1.447229E-04
7.437358E+03	5.968458E-03	1.441368E-04
7.446992E+03	5.943391E-03	1.435308E-04
7.456626E+03	5.917749E-03	1.429110E-04
7.466260E+03	5.891601E-03	1.422789E-04
7.475894E+03	5.865039E-03	1.416368E-04
