#wls	flux	fluxerr
1.541421E+03	2.128450E-04	1.317976E-05
1.579957E+03	2.180086E-04	1.349929E-05
1.618492E+03	2.224428E-04	1.377364E-05
1.657028E+03	2.262080E-04	1.400654E-05
1.695564E+03	2.291123E-04	1.418612E-05
1.734099E+03	2.309841E-04	1.430177E-05
1.772635E+03	2.314041E-04	1.432751E-05
1.811170E+03	2.301318E-04	1.424848E-05
1.849706E+03	2.267225E-04	1.403712E-05
1.888241E+03	2.210355E-04	1.368476E-05
1.926777E+03	2.133238E-04	1.320705E-05
1.965312E+03	2.046149E-04	1.266761E-05
2.003848E+03	1.969219E-04	1.219108E-05
2.042383E+03	1.928241E-04	1.193713E-05
2.080919E+03	1.946014E-04	1.204689E-05
2.119454E+03	2.033064E-04	1.258549E-05
2.157990E+03	2.185326E-04	1.352773E-05
2.196525E+03	2.387700E-04	1.478013E-05
2.235061E+03	2.623126E-04	1.623704E-05
2.273597E+03	2.877483E-04	1.781105E-05
2.312132E+03	3.140587E-04	1.943911E-05
2.350668E+03	3.407213E-04	2.108886E-05
2.389203E+03	3.676650E-04	2.275592E-05
2.427739E+03	3.948443E-04	2.443744E-05
2.466274E+03	4.224464E-04	2.614502E-05
2.504810E+03	4.507224E-04	2.789418E-05
2.543345E+03	4.797976E-04	2.969268E-05
2.581881E+03	5.100302E-04	3.156268E-05
2.620416E+03	5.416292E-04	3.351708E-05
2.658952E+03	5.748834E-04	3.557375E-05
2.697487E+03	6.100861E-04	3.775083E-05
2.736023E+03	6.475360E-04	4.006677E-05
2.774558E+03	6.876369E-04	4.254655E-05
2.813094E+03	7.306083E-04	4.520371E-05
2.851630E+03	7.770876E-04	4.807767E-05
2.890165E+03	8.274336E-04	5.119058E-05
2.899799E+03	8.406020E-04	5.200477E-05
2.909433E+03	8.541215E-04	5.284065E-05
2.919067E+03	8.679981E-04	5.369861E-05
2.928701E+03	8.821412E-04	5.457304E-05
2.938334E+03	8.966155E-04	5.546793E-05
2.947968E+03	9.116051E-04	5.639468E-05
2.957602E+03	9.269843E-04	5.734551E-05
2.967236E+03	9.428587E-04	5.832696E-05
2.976870E+03	9.592210E-04	5.933856E-05
2.986504E+03	9.760645E-04	6.037990E-05
2.996138E+03	9.932628E-04	6.144317E-05
3.005772E+03	1.010929E-03	6.253535E-05
3.015406E+03	1.029058E-03	6.365616E-05
3.025039E+03	1.047647E-03	6.480536E-05
3.034673E+03	1.066692E-03	6.598273E-05
3.044307E+03	1.086189E-03	6.718808E-05
3.053941E+03	1.106264E-03	6.842909E-05
3.063575E+03	1.126661E-03	6.969003E-05
3.073209E+03	1.147633E-03	7.098652E-05
3.082843E+03	1.169052E-03	7.231062E-05
3.092477E+03	1.190919E-03	7.366232E-05
3.102110E+03	1.213360E-03	7.504960E-05
3.111744E+03	1.236383E-03	7.647275E-05
3.121378E+03	1.259854E-03	7.792361E-05
3.131012E+03	1.283907E-03	7.941042E-05
3.140646E+03	1.308545E-03	8.093342E-05
3.150280E+03	1.333635E-03	8.248428E-05
3.159914E+03	1.359452E-03	8.408010E-05
3.169548E+03	1.385725E-03	8.570408E-05
3.179182E+03	1.412733E-03	8.737344E-05
3.188815E+03	1.440341E-03	8.907989E-05
3.198449E+03	1.468551E-03	9.082348E-05
3.208083E+03	1.497509E-03	9.261337E-05
3.217717E+03	1.527076E-03	9.444078E-05
3.227351E+03	1.557399E-03	9.631494E-05
3.236985E+03	1.588336E-03	9.822703E-05
3.246619E+03	1.620184E-03	1.001954E-04
3.256253E+03	1.652653E-03	1.022021E-04
3.265887E+03	1.686040E-03	1.042655E-04
3.275520E+03	1.720052E-03	1.063675E-04
3.285154E+03	1.754989E-03	1.085267E-04
3.294788E+03	1.790707E-03	1.107341E-04
3.304422E+03	1.827355E-03	1.129989E-04
3.314056E+03	1.864940E-03	1.153216E-04
3.323690E+03	1.903306E-03	1.176926E-04
3.333324E+03	1.942611E-03	1.201215E-04
3.342958E+03	1.982853E-03	1.226083E-04
3.352591E+03	2.024188E-03	1.251626E-04
3.362225E+03	2.066302E-03	1.277650E-04
3.371859E+03	2.109507E-03	1.304348E-04
3.381493E+03	2.153801E-03	1.331718E-04
3.391127E+03	2.199181E-03	1.359759E-04
3.400761E+03	2.245482E-03	1.388369E-04
3.410395E+03	2.292858E-03	1.417642E-04
3.420029E+03	2.341464E-03	1.447675E-04
3.429663E+03	2.391129E-03	1.478362E-04
3.439296E+03	2.441841E-03	1.509695E-04
3.448930E+03	2.493754E-03	1.541770E-04
3.458564E+03	2.546855E-03	1.574578E-04
3.468198E+03	2.601127E-03	1.608109E-04
3.477832E+03	2.656556E-03	1.642354E-04
3.487466E+03	2.713121E-03	1.677301E-04
3.497100E+03	2.770966E-03	1.713038E-04
3.506734E+03	2.829903E-03	1.749448E-04
3.516367E+03	2.890072E-03	1.786619E-04
3.526001E+03	2.951445E-03	1.824533E-04
3.535635E+03	3.013990E-03	1.863170E-04
3.545269E+03	3.077842E-03	1.902614E-04
3.554903E+03	3.142795E-03	1.942738E-04
3.564537E+03	3.208979E-03	1.983621E-04
3.574171E+03	3.276178E-03	2.025130E-04
3.583805E+03	3.344690E-03	2.067449E-04
3.593439E+03	3.414291E-03	2.110440E-04
3.603072E+03	3.484931E-03	2.154071E-04
3.612706E+03	3.556724E-03	2.198414E-04
3.622340E+03	3.629444E-03	2.243328E-04
3.631974E+03	3.703373E-03	2.288988E-04
3.641608E+03	3.778107E-03	2.335143E-04
3.651242E+03	3.853930E-03	2.381970E-04
3.660876E+03	3.930599E-03	2.429318E-04
3.670510E+03	4.008044E-03	2.477145E-04
3.680144E+03	4.086364E-03	2.525510E-04
3.689777E+03	4.165480E-03	2.574365E-04
3.699411E+03	4.245480E-03	2.623766E-04
3.709045E+03	4.325934E-03	2.673444E-04
3.718679E+03	4.406923E-03	2.723452E-04
3.728313E+03	4.488523E-03	2.773835E-04
3.737947E+03	4.570633E-03	2.824532E-04
3.747581E+03	4.652972E-03	2.875368E-04
3.757215E+03	4.735598E-03	2.926379E-04
3.766848E+03	4.818553E-03	2.977591E-04
3.776482E+03	4.901361E-03	3.028711E-04
3.786116E+03	4.984047E-03	3.079754E-04
3.795750E+03	5.066453E-03	3.130622E-04
3.805384E+03	5.148578E-03	3.181313E-04
3.815018E+03	5.229908E-03	3.231511E-04
3.824652E+03	5.310756E-03	3.281410E-04
3.834286E+03	5.390428E-03	3.330580E-04
3.843920E+03	5.469058E-03	3.379104E-04
3.853553E+03	5.546441E-03	3.426856E-04
3.863187E+03	5.622210E-03	3.473608E-04
3.872821E+03	5.696171E-03	3.519241E-04
3.882455E+03	5.768137E-03	3.563640E-04
3.892089E+03	5.838092E-03	3.606795E-04
3.901723E+03	5.905720E-03	3.648509E-04
3.911357E+03	5.970885E-03	3.688700E-04
3.920991E+03	6.033323E-03	3.727206E-04
3.930624E+03	6.093265E-03	3.764167E-04
3.940258E+03	6.150346E-03	3.799359E-04
3.949892E+03	6.204543E-03	3.832767E-04
3.959526E+03	6.256015E-03	3.864491E-04
3.969160E+03	6.304501E-03	3.894369E-04
3.978794E+03	6.350225E-03	3.922539E-04
3.988428E+03	6.393152E-03	3.948980E-04
3.998062E+03	6.433290E-03	3.973696E-04
4.007696E+03	6.471109E-03	3.996979E-04
4.017329E+03	6.506409E-03	4.018704E-04
4.026963E+03	6.539452E-03	4.039035E-04
4.036597E+03	6.570658E-03	4.058229E-04
4.046231E+03	6.599931E-03	4.076229E-04
4.055865E+03	6.627868E-03	4.093402E-04
4.065499E+03	6.654416E-03	4.109716E-04
4.075133E+03	6.680056E-03	4.125468E-04
4.084767E+03	6.704880E-03	4.140716E-04
4.094400E+03	6.729230E-03	4.155669E-04
4.104034E+03	6.753190E-03	4.170381E-04
4.113668E+03	6.777079E-03	4.185048E-04
4.123302E+03	6.801080E-03	4.199782E-04
4.132936E+03	6.825248E-03	4.214618E-04
4.142570E+03	6.849738E-03	4.229653E-04
4.152204E+03	6.874700E-03	4.244977E-04
4.161838E+03	6.900265E-03	4.260673E-04
4.171472E+03	6.926330E-03	4.276677E-04
4.181105E+03	6.953229E-03	4.293194E-04
4.190739E+03	6.980728E-03	4.310080E-04
4.200373E+03	7.009139E-03	4.327528E-04
4.210007E+03	7.038108E-03	4.345320E-04
4.219641E+03	7.067920E-03	4.363630E-04
4.229275E+03	7.098519E-03	4.382426E-04
4.238909E+03	7.129834E-03	4.401661E-04
4.248543E+03	7.161769E-03	4.421278E-04
4.258177E+03	7.194307E-03	4.441266E-04
4.267810E+03	7.227396E-03	4.461593E-04
4.277444E+03	7.260948E-03	4.482204E-04
4.287078E+03	7.294834E-03	4.503019E-04
4.296712E+03	7.328790E-03	4.523876E-04
4.306346E+03	7.362816E-03	4.544775E-04
4.315980E+03	7.396574E-03	4.565507E-04
4.325614E+03	7.429898E-03	4.585969E-04
4.335248E+03	7.462692E-03	4.606103E-04
4.344881E+03	7.494633E-03	4.625709E-04
4.354515E+03	7.525675E-03	4.644758E-04
4.364149E+03	7.555544E-03	4.663082E-04
4.373783E+03	7.583948E-03	4.680501E-04
4.383417E+03	7.610675E-03	4.696883E-04
4.393051E+03	7.635588E-03	4.712144E-04
4.402685E+03	7.658340E-03	4.726070E-04
4.412319E+03	7.678765E-03	4.738558E-04
4.421953E+03	7.696494E-03	4.749382E-04
4.431586E+03	7.711252E-03	4.758372E-04
4.441220E+03	7.722962E-03	4.765479E-04
4.450854E+03	7.731166E-03	4.770422E-04
4.460488E+03	7.735712E-03	4.773107E-04
4.470122E+03	7.736477E-03	4.773459E-04
4.479756E+03	7.733185E-03	4.771306E-04
4.489390E+03	7.725698E-03	4.766565E-04
4.499024E+03	7.714121E-03	4.759300E-04
4.508657E+03	7.698237E-03	4.749378E-04
4.518291E+03	7.678163E-03	4.736870E-04
4.527925E+03	7.653977E-03	4.721825E-04
4.537559E+03	7.625808E-03	4.704324E-04
4.547193E+03	7.593744E-03	4.684420E-04
4.556827E+03	7.558200E-03	4.662370E-04
4.566461E+03	7.519276E-03	4.638235E-04
4.576095E+03	7.477214E-03	4.612166E-04
4.585729E+03	7.432489E-03	4.584455E-04
4.595362E+03	7.385357E-03	4.555259E-04
4.604996E+03	7.336297E-03	4.524876E-04
4.614630E+03	7.285830E-03	4.493625E-04
4.624264E+03	7.234426E-03	4.461798E-04
4.633898E+03	7.182577E-03	4.429698E-04
4.643532E+03	7.130953E-03	4.397738E-04
4.653166E+03	7.079889E-03	4.366124E-04
4.662800E+03	7.030048E-03	4.335265E-04
4.672434E+03	6.981824E-03	4.305404E-04
4.682067E+03	6.935677E-03	4.276825E-04
4.691701E+03	6.892118E-03	4.249843E-04
4.701335E+03	6.851384E-03	4.224604E-04
4.710969E+03	6.813919E-03	4.201381E-04
4.720603E+03	6.780053E-03	4.180378E-04
4.730237E+03	6.749925E-03	4.161680E-04
4.739871E+03	6.723944E-03	4.145540E-04
4.749505E+03	6.702248E-03	4.132041E-04
4.759138E+03	6.685001E-03	4.121285E-04
4.768772E+03	6.672242E-03	4.113296E-04
4.778406E+03	6.664032E-03	4.108111E-04
4.788040E+03	6.660456E-03	4.105782E-04
4.797674E+03	6.661331E-03	4.106197E-04
4.807308E+03	6.666743E-03	4.109407E-04
4.816942E+03	6.676458E-03	4.115269E-04
4.826576E+03	6.690384E-03	4.123725E-04
4.836210E+03	6.708498E-03	4.134762E-04
4.845843E+03	6.730624E-03	4.148269E-04
4.855477E+03	6.756742E-03	4.164235E-04
4.865111E+03	6.786676E-03	4.182552E-04
4.874745E+03	6.820336E-03	4.203162E-04
4.884379E+03	6.857629E-03	4.226010E-04
4.894013E+03	6.898470E-03	4.251041E-04
4.903647E+03	6.942852E-03	4.278253E-04
4.913281E+03	6.990545E-03	4.307502E-04
4.922914E+03	7.041634E-03	4.338840E-04
4.932548E+03	7.095904E-03	4.372136E-04
4.942182E+03	7.153456E-03	4.407451E-04
4.951816E+03	7.214165E-03	4.444708E-04
4.961450E+03	7.277993E-03	4.483883E-04
4.971084E+03	7.344901E-03	4.524953E-04
4.980718E+03	7.414858E-03	4.567896E-04
4.990352E+03	7.487913E-03	4.612745E-04
4.999986E+03	7.563875E-03	4.659381E-04
5.009619E+03	7.642873E-03	4.707882E-04
5.019253E+03	7.724785E-03	4.758174E-04
5.028887E+03	7.809563E-03	4.810227E-04
5.038521E+03	7.897214E-03	4.864045E-04
5.048155E+03	7.987476E-03	4.919467E-04
5.057789E+03	8.080384E-03	4.976512E-04
5.067423E+03	8.175675E-03	5.035021E-04
5.077057E+03	8.273209E-03	5.094906E-04
5.086691E+03	8.372544E-03	5.155894E-04
5.096324E+03	8.473530E-03	5.217895E-04
5.105958E+03	8.575721E-03	5.280631E-04
5.115592E+03	8.678806E-03	5.343912E-04
5.125226E+03	8.782169E-03	5.407358E-04
5.134860E+03	8.885515E-03	5.470789E-04
5.144494E+03	8.988241E-03	5.533832E-04
5.154128E+03	9.089801E-03	5.596151E-04
5.163762E+03	9.189702E-03	5.657443E-04
5.173395E+03	9.287151E-03	5.717220E-04
5.183029E+03	9.381702E-03	5.775207E-04
5.192663E+03	9.472521E-03	5.830891E-04
5.202297E+03	9.559164E-03	5.884000E-04
5.211931E+03	9.640907E-03	5.934087E-04
5.221565E+03	9.717050E-03	5.980722E-04
5.231199E+03	9.787214E-03	6.023672E-04
5.240833E+03	9.850660E-03	6.062484E-04
5.250467E+03	9.906978E-03	6.096904E-04
5.260100E+03	9.955698E-03	6.126644E-04
5.269734E+03	9.996294E-03	6.151381E-04
5.279368E+03	1.002848E-02	6.170939E-04
5.289002E+03	1.005181E-02	6.185050E-04
5.298636E+03	1.006603E-02	6.193546E-04
5.308270E+03	1.007081E-02	6.196233E-04
5.317904E+03	1.006601E-02	6.193031E-04
5.327538E+03	1.005170E-02	6.183970E-04
5.337171E+03	1.002790E-02	6.169075E-04
5.346805E+03	9.994850E-03	6.148486E-04
5.356439E+03	9.952665E-03	6.122279E-04
5.366073E+03	9.901848E-03	6.090764E-04
5.375707E+03	9.842577E-03	6.054049E-04
5.385341E+03	9.775483E-03	6.012525E-04
5.394975E+03	9.701052E-03	5.966491E-04
5.404609E+03	9.619618E-03	5.916152E-04
5.414243E+03	9.531930E-03	5.861970E-04
5.423876E+03	9.438574E-03	5.804306E-04
5.433510E+03	9.340059E-03	5.743473E-04
5.443144E+03	9.236997E-03	5.679848E-04
5.452778E+03	9.130101E-03	5.613870E-04
5.462412E+03	9.019895E-03	5.545861E-04
5.472046E+03	8.907080E-03	5.476253E-04
5.481680E+03	8.792089E-03	5.405312E-04
5.491314E+03	8.675692E-03	5.333512E-04
5.500947E+03	8.558472E-03	5.261211E-04
5.510581E+03	8.440921E-03	5.188712E-04
5.520215E+03	8.323604E-03	5.116362E-04
5.529849E+03	8.207078E-03	5.044504E-04
5.539483E+03	8.091884E-03	4.973470E-04
5.549117E+03	7.978544E-03	4.903580E-04
5.558751E+03	7.867647E-03	4.835197E-04
5.568385E+03	7.759515E-03	4.768519E-04
5.578019E+03	7.654676E-03	4.703870E-04
5.587652E+03	7.553538E-03	4.641500E-04
5.597286E+03	7.456461E-03	4.581629E-04
5.606920E+03	7.363677E-03	4.524401E-04
5.616554E+03	7.275508E-03	4.470013E-04
5.626188E+03	7.192144E-03	4.418581E-04
5.635822E+03	7.113586E-03	4.370105E-04
5.645456E+03	7.040073E-03	4.324732E-04
5.655090E+03	6.971605E-03	4.282461E-04
5.664724E+03	6.908224E-03	4.243318E-04
5.674357E+03	6.849954E-03	4.207317E-04
5.683991E+03	6.796803E-03	4.174463E-04
5.693625E+03	6.748694E-03	4.144708E-04
5.703259E+03	6.705606E-03	4.118037E-04
5.712893E+03	6.667546E-03	4.094456E-04
5.722527E+03	6.634358E-03	4.073868E-04
5.732161E+03	6.605837E-03	4.056148E-04
5.741795E+03	6.581851E-03	4.041212E-04
5.751428E+03	6.562084E-03	4.028866E-04
5.761062E+03	6.546228E-03	4.018923E-04
5.770696E+03	6.533946E-03	4.011173E-04
5.780330E+03	6.524861E-03	4.005386E-04
5.789964E+03	6.518525E-03	4.001285E-04
5.799598E+03	6.514475E-03	3.998587E-04
5.809232E+03	6.512383E-03	3.997090E-04
5.818866E+03	6.511881E-03	3.996568E-04
5.828500E+03	6.512500E-03	3.996733E-04
5.838133E+03	6.514001E-03	3.997438E-04
5.847767E+03	6.516010E-03	3.998454E-04
5.857401E+03	6.518386E-03	3.999694E-04
5.867035E+03	6.520926E-03	4.001032E-04
5.876669E+03	6.523538E-03	4.002415E-04
5.886303E+03	6.526123E-03	4.003779E-04
5.895937E+03	6.528637E-03	4.005099E-04
5.905571E+03	6.531139E-03	4.006410E-04
5.915204E+03	6.533740E-03	4.007780E-04
5.924838E+03	6.536589E-03	4.009302E-04
5.934472E+03	6.539816E-03	4.011053E-04
5.944106E+03	6.543705E-03	4.013210E-04
5.953740E+03	6.548501E-03	4.015922E-04
5.963374E+03	6.554518E-03	4.019380E-04
5.973008E+03	6.561995E-03	4.023733E-04
5.982642E+03	6.571092E-03	4.029078E-04
5.992276E+03	6.582122E-03	4.035606E-04
6.001909E+03	6.595169E-03	4.043368E-04
6.011543E+03	6.610342E-03	4.052432E-04
6.021177E+03	6.627897E-03	4.062954E-04
6.030811E+03	6.647739E-03	4.074875E-04
6.040445E+03	6.669933E-03	4.088236E-04
6.050079E+03	6.694519E-03	4.103059E-04
6.059713E+03	6.721584E-03	4.119400E-04
6.069347E+03	6.750934E-03	4.137137E-04
6.078981E+03	6.782559E-03	4.156265E-04
6.088614E+03	6.816509E-03	4.176815E-04
6.098248E+03	6.852615E-03	4.198681E-04
6.107882E+03	6.890903E-03	4.221881E-04
6.117516E+03	6.931111E-03	4.246253E-04
6.127150E+03	6.973235E-03	4.271794E-04
6.136784E+03	7.017116E-03	4.298408E-04
6.146418E+03	7.062648E-03	4.326028E-04
6.156052E+03	7.109562E-03	4.354490E-04
6.165685E+03	7.157704E-03	4.383699E-04
6.175319E+03	7.206910E-03	4.413555E-04
6.184953E+03	7.256842E-03	4.443851E-04
6.194587E+03	7.307217E-03	4.474412E-04
6.204221E+03	7.357885E-03	4.505149E-04
6.213855E+03	7.408451E-03	4.535817E-04
6.223489E+03	7.458651E-03	4.566256E-04
6.233123E+03	7.508114E-03	4.596239E-04
6.242757E+03	7.556444E-03	4.625522E-04
6.252390E+03	7.603295E-03	4.653896E-04
6.262024E+03	7.648057E-03	4.680986E-04
6.271658E+03	7.690501E-03	4.706653E-04
6.281292E+03	7.729989E-03	4.730505E-04
6.290926E+03	7.766119E-03	4.752299E-04
6.300560E+03	7.798436E-03	4.771755E-04
6.310194E+03	7.826427E-03	4.788561E-04
6.319828E+03	7.849803E-03	4.802539E-04
6.329461E+03	7.868156E-03	4.813441E-04
6.339095E+03	7.881302E-03	4.821155E-04
6.348729E+03	7.889021E-03	4.825548E-04
6.358363E+03	7.891125E-03	4.826503E-04
6.367997E+03	7.887362E-03	4.823870E-04
6.377631E+03	7.877729E-03	4.817645E-04
6.387265E+03	7.861962E-03	4.807670E-04
6.396899E+03	7.839859E-03	4.793820E-04
6.406533E+03	7.811190E-03	4.775956E-04
6.416166E+03	7.775804E-03	4.753987E-04
6.425800E+03	7.733369E-03	4.727710E-04
6.435434E+03	7.683745E-03	4.697040E-04
6.445068E+03	7.626744E-03	4.661865E-04
6.454702E+03	7.562159E-03	4.622058E-04
6.464336E+03	7.490048E-03	4.577657E-04
6.473970E+03	7.410507E-03	4.528719E-04
6.483604E+03	7.323698E-03	4.475346E-04
6.493237E+03	7.230192E-03	4.417888E-04
6.502871E+03	7.130379E-03	4.356583E-04
6.512505E+03	7.025011E-03	4.291892E-04
6.522139E+03	6.914935E-03	4.224333E-04
6.531773E+03	6.800818E-03	4.154315E-04
6.541407E+03	6.683627E-03	4.082428E-04
6.551041E+03	6.564264E-03	4.009224E-04
6.560675E+03	6.443646E-03	3.935263E-04
6.570309E+03	6.322674E-03	3.861097E-04
6.579942E+03	6.202213E-03	3.787252E-04
6.589576E+03	6.083071E-03	3.714223E-04
6.599210E+03	5.966060E-03	3.642505E-04
6.608844E+03	5.851689E-03	3.572408E-04
6.618478E+03	5.740591E-03	3.504319E-04
6.628112E+03	5.633306E-03	3.438567E-04
6.637746E+03	5.530088E-03	3.375306E-04
6.647380E+03	5.431374E-03	3.314803E-04
6.657014E+03	5.337266E-03	3.257119E-04
6.666647E+03	5.248053E-03	3.202431E-04
6.676281E+03	5.163769E-03	3.150758E-04
6.685915E+03	5.084462E-03	3.102127E-04
6.695549E+03	5.010068E-03	3.056502E-04
6.705183E+03	4.940672E-03	3.013931E-04
6.714817E+03	4.876204E-03	2.974372E-04
6.724451E+03	4.816465E-03	2.937704E-04
6.734085E+03	4.761419E-03	2.903902E-04
6.743718E+03	4.710963E-03	2.872904E-04
6.753352E+03	4.665043E-03	2.844677E-04
6.762986E+03	4.623433E-03	2.819082E-04
6.772620E+03	4.586133E-03	2.796117E-04
6.782254E+03	4.552970E-03	2.775677E-04
6.791888E+03	4.523781E-03	2.757663E-04
6.801522E+03	4.498577E-03	2.742080E-04
6.811156E+03	4.477221E-03	2.728844E-04
6.820790E+03	4.459634E-03	2.717907E-04
6.830423E+03	4.445758E-03	2.709232E-04
6.840057E+03	4.435537E-03	2.702786E-04
6.849691E+03	4.428933E-03	2.698544E-04
6.859325E+03	4.425959E-03	2.696513E-04
6.868959E+03	4.426470E-03	2.696605E-04
6.878593E+03	4.430473E-03	2.698824E-04
6.888227E+03	4.437980E-03	2.703176E-04
6.897861E+03	4.448872E-03	2.709589E-04
6.907494E+03	4.463081E-03	2.718021E-04
6.917128E+03	4.480522E-03	2.728418E-04
6.926762E+03	4.501088E-03	2.740716E-04
6.936396E+03	4.524713E-03	2.754874E-04
6.946030E+03	4.551131E-03	2.770729E-04
6.955664E+03	4.580282E-03	2.788246E-04
6.965298E+03	4.611915E-03	2.807269E-04
6.974932E+03	4.645875E-03	2.827706E-04
6.984566E+03	4.681886E-03	2.849386E-04
6.994199E+03	4.719716E-03	2.872169E-04
7.003833E+03	4.759193E-03	2.895951E-04
7.013467E+03	4.800024E-03	2.920551E-04
7.023101E+03	4.841972E-03	2.945828E-04
7.032735E+03	4.884870E-03	2.971677E-04
7.042369E+03	4.928488E-03	2.997959E-04
7.052003E+03	4.972536E-03	3.024497E-04
7.061637E+03	5.016853E-03	3.051195E-04
7.071271E+03	5.061156E-03	3.077879E-04
7.080904E+03	5.105294E-03	3.104458E-04
7.090538E+03	5.149057E-03	3.130804E-04
7.100172E+03	5.192169E-03	3.156749E-04
7.109806E+03	5.234493E-03	3.182210E-04
7.119440E+03	5.275822E-03	3.207062E-04
7.129074E+03	5.315887E-03	3.231141E-04
7.138708E+03	5.354553E-03	3.254365E-04
7.148342E+03	5.391695E-03	3.276659E-04
7.157975E+03	5.427057E-03	3.297867E-04
7.167609E+03	5.460459E-03	3.317880E-04
7.177243E+03	5.491813E-03	3.336645E-04
7.186877E+03	5.520905E-03	3.354032E-04
7.196511E+03	5.547533E-03	3.369919E-04
7.206145E+03	5.571740E-03	3.384333E-04
7.215779E+03	5.593224E-03	3.397091E-04
7.225413E+03	5.612074E-03	3.408245E-04
7.235047E+03	5.628177E-03	3.417730E-04
7.244680E+03	5.641600E-03	3.425585E-04
7.254314E+03	5.652209E-03	3.431731E-04
7.263948E+03	5.660205E-03	3.436289E-04
7.273582E+03	5.665591E-03	3.439262E-04
7.283216E+03	5.668398E-03	3.440668E-04
7.292850E+03	5.668916E-03	3.440685E-04
7.302484E+03	5.667147E-03	3.439314E-04
7.312118E+03	5.663334E-03	3.436702E-04
7.321751E+03	5.657643E-03	3.432952E-04
7.331385E+03	5.650238E-03	3.428162E-04
7.341019E+03	5.641174E-03	3.422367E-04
7.350653E+03	5.630574E-03	3.415640E-04
7.360287E+03	5.618676E-03	3.408128E-04
7.369921E+03	5.605319E-03	3.399731E-04
7.379555E+03	5.590705E-03	3.390575E-04
7.389189E+03	5.574883E-03	3.380687E-04
7.398823E+03	5.557822E-03	3.370050E-04
7.408456E+03	5.539590E-03	3.358704E-04
7.418090E+03	5.520342E-03	3.346745E-04
7.427724E+03	5.500105E-03	3.334188E-04
7.437358E+03	5.478992E-03	3.321104E-04
7.446992E+03	5.457191E-03	3.307604E-04
7.456626E+03	5.434743E-03	3.293714E-04
7.466260E+03	5.411822E-03	3.279541E-04
7.475894E+03	5.388434E-03	3.265088E-04
