#wls	flux	fluxerr
1.541421E+03	2.638923E-05	0.000000E+00
1.579957E+03	2.734589E-05	0.000000E+00
1.618492E+03	2.822598E-05	0.000000E+00
1.657028E+03	2.902662E-05	0.000000E+00
1.695564E+03	2.973038E-05	0.000000E+00
1.734099E+03	3.028857E-05	0.000000E+00
1.772635E+03	3.066723E-05	0.000000E+00
1.811170E+03	3.079925E-05	0.000000E+00
1.849706E+03	3.063401E-05	0.000000E+00
1.888241E+03	3.013763E-05	0.000000E+00
1.926777E+03	2.933638E-05	0.000000E+00
1.965312E+03	2.836128E-05	0.000000E+00
2.003848E+03	2.749512E-05	0.000000E+00
2.042383E+03	2.710424E-05	0.000000E+00
2.080919E+03	2.751236E-05	0.000000E+00
2.119454E+03	2.889094E-05	0.000000E+00
2.157990E+03	3.118800E-05	0.000000E+00
2.196525E+03	3.419379E-05	0.000000E+00
2.235061E+03	3.766153E-05	0.000000E+00
2.273597E+03	4.137441E-05	0.000000E+00
2.312132E+03	4.518948E-05	0.000000E+00
2.350668E+03	4.900710E-05	0.000000E+00
2.389203E+03	5.280133E-05	0.000000E+00
2.427739E+03	5.656154E-05	0.000000E+00
2.466274E+03	6.028318E-05	0.000000E+00
2.504810E+03	6.398524E-05	0.000000E+00
2.543345E+03	6.768053E-05	0.000000E+00
2.581881E+03	7.139128E-05	0.000000E+00
2.620416E+03	7.511846E-05	0.000000E+00
2.658952E+03	7.886987E-05	0.000000E+00
2.697487E+03	8.267327E-05	0.000000E+00
2.736023E+03	8.651030E-05	0.000000E+00
2.774558E+03	9.040503E-05	0.000000E+00
2.813094E+03	9.434488E-05	0.000000E+00
2.851630E+03	9.832632E-05	0.000000E+00
2.890165E+03	1.023693E-04	0.000000E+00
2.899799E+03	1.033879E-04	0.000000E+00
2.909433E+03	1.044040E-04	0.000000E+00
2.919067E+03	1.054175E-04	0.000000E+00
2.928701E+03	1.064435E-04	0.000000E+00
2.938334E+03	1.074891E-04	0.000000E+00
2.947968E+03	1.085354E-04	0.000000E+00
2.957602E+03	1.096066E-04	0.000000E+00
2.967236E+03	1.107004E-04	0.000000E+00
2.976870E+03	1.118016E-04	0.000000E+00
2.986504E+03	1.129080E-04	0.000000E+00
2.996138E+03	1.140316E-04	0.000000E+00
3.005772E+03	1.151569E-04	0.000000E+00
3.015406E+03	1.162824E-04	0.000000E+00
3.025039E+03	1.174204E-04	0.000000E+00
3.034673E+03	1.185698E-04	0.000000E+00
3.044307E+03	1.197012E-04	0.000000E+00
3.053941E+03	1.208556E-04	0.000000E+00
3.063575E+03	1.219896E-04	0.000000E+00
3.073209E+03	1.231305E-04	0.000000E+00
3.082843E+03	1.242774E-04	0.000000E+00
3.092477E+03	1.254152E-04	0.000000E+00
3.102110E+03	1.265429E-04	0.000000E+00
3.111744E+03	1.276744E-04	0.000000E+00
3.121378E+03	1.287944E-04	0.000000E+00
3.131012E+03	1.299169E-04	0.000000E+00
3.140646E+03	1.310266E-04	0.000000E+00
3.150280E+03	1.321229E-04	0.000000E+00
3.159914E+03	1.332202E-04	0.000000E+00
3.169548E+03	1.343181E-04	0.000000E+00
3.179182E+03	1.354012E-04	0.000000E+00
3.188815E+03	1.364692E-04	0.000000E+00
3.198449E+03	1.375366E-04	0.000000E+00
3.208083E+03	1.385883E-04	0.000000E+00
3.217717E+03	1.396388E-04	0.000000E+00
3.227351E+03	1.406729E-04	0.000000E+00
3.236985E+03	1.417055E-04	0.000000E+00
3.246619E+03	1.427212E-04	0.000000E+00
3.256253E+03	1.437349E-04	0.000000E+00
3.265887E+03	1.447313E-04	0.000000E+00
3.275520E+03	1.457256E-04	0.000000E+00
3.285154E+03	1.467022E-04	0.000000E+00
3.294788E+03	1.476610E-04	0.000000E+00
3.304422E+03	1.486173E-04	0.000000E+00
3.314056E+03	1.495707E-04	0.000000E+00
3.323690E+03	1.505061E-04	0.000000E+00
3.333324E+03	1.514231E-04	0.000000E+00
3.342958E+03	1.523372E-04	0.000000E+00
3.352591E+03	1.532483E-04	0.000000E+00
3.362225E+03	1.541408E-04	0.000000E+00
3.371859E+03	1.550148E-04	0.000000E+00
3.381493E+03	1.558855E-04	0.000000E+00
3.391127E+03	1.567374E-04	0.000000E+00
3.400761E+03	1.575859E-04	0.000000E+00
3.410395E+03	1.584156E-04	0.000000E+00
3.420029E+03	1.592418E-04	0.000000E+00
3.429663E+03	1.600490E-04	0.000000E+00
3.439296E+03	1.608525E-04	0.000000E+00
3.448930E+03	1.616370E-04	0.000000E+00
3.458564E+03	1.624177E-04	0.000000E+00
3.468198E+03	1.631793E-04	0.000000E+00
3.477832E+03	1.639369E-04	0.000000E+00
3.487466E+03	1.646754E-04	0.000000E+00
3.497100E+03	1.654098E-04	0.000000E+00
3.506734E+03	1.661248E-04	0.000000E+00
3.516367E+03	1.668204E-04	0.000000E+00
3.526001E+03	1.675119E-04	0.000000E+00
3.535635E+03	1.681991E-04	0.000000E+00
3.545269E+03	1.688668E-04	0.000000E+00
3.554903E+03	1.695149E-04	0.000000E+00
3.564537E+03	1.701586E-04	0.000000E+00
3.574171E+03	1.707827E-04	0.000000E+00
3.583805E+03	1.714023E-04	0.000000E+00
3.593439E+03	1.720021E-04	0.000000E+00
3.603072E+03	1.725973E-04	0.000000E+00
3.612706E+03	1.731727E-04	0.000000E+00
3.622340E+03	1.737285E-04	0.000000E+00
3.631974E+03	1.742794E-04	0.000000E+00
3.641608E+03	1.748106E-04	0.000000E+00
3.651242E+03	1.753368E-04	0.000000E+00
3.660876E+03	1.758432E-04	0.000000E+00
3.670510E+03	1.763448E-04	0.000000E+00
3.680144E+03	1.768264E-04	0.000000E+00
3.689777E+03	1.772884E-04	0.000000E+00
3.699411E+03	1.777452E-04	0.000000E+00
3.709045E+03	1.781824E-04	0.000000E+00
3.718679E+03	1.786144E-04	0.000000E+00
3.728313E+03	1.790123E-04	0.000000E+00
3.737947E+03	1.794195E-04	0.000000E+00
3.747581E+03	1.797928E-04	0.000000E+00
3.757215E+03	1.801610E-04	0.000000E+00
3.766848E+03	1.805098E-04	0.000000E+00
3.776482E+03	1.808535E-04	0.000000E+00
3.786116E+03	1.811779E-04	0.000000E+00
3.795750E+03	1.814831E-04	0.000000E+00
3.805384E+03	1.817834E-04	0.000000E+00
3.815018E+03	1.820506E-04	0.000000E+00
3.824652E+03	1.823270E-04	0.000000E+00
3.834286E+03	1.825707E-04	0.000000E+00
3.843920E+03	1.828097E-04	0.000000E+00
3.853553E+03	1.830301E-04	0.000000E+00
3.863187E+03	1.832323E-04	0.000000E+00
3.872821E+03	1.834165E-04	0.000000E+00
3.882455E+03	1.835962E-04	0.000000E+00
3.892089E+03	1.837581E-04	0.000000E+00
3.901723E+03	1.839023E-04	0.000000E+00
3.911357E+03	1.840292E-04	0.000000E+00
3.920991E+03	1.841389E-04	0.000000E+00
3.930624E+03	1.842449E-04	0.000000E+00
3.940258E+03	1.843339E-04	0.000000E+00
3.949892E+03	1.843934E-04	0.000000E+00
3.959526E+03	1.844627E-04	0.000000E+00
3.969160E+03	1.845028E-04	0.000000E+00
3.978794E+03	1.845271E-04	0.000000E+00
3.988428E+03	1.845359E-04	0.000000E+00
3.998062E+03	1.845422E-04	0.000000E+00
4.007696E+03	1.845207E-04	0.000000E+00
4.017329E+03	1.844971E-04	0.000000E+00
4.026963E+03	1.844590E-04	0.000000E+00
4.036597E+03	1.843943E-04	0.000000E+00
4.046231E+03	1.843281E-04	0.000000E+00
4.055865E+03	1.842484E-04	0.000000E+00
4.065499E+03	1.841430E-04	0.000000E+00
4.075133E+03	1.840372E-04	0.000000E+00
4.084767E+03	1.839185E-04	0.000000E+00
4.094400E+03	1.837755E-04	0.000000E+00
4.104034E+03	1.836327E-04	0.000000E+00
4.113668E+03	1.834663E-04	0.000000E+00
4.123302E+03	1.833004E-04	0.000000E+00
4.132936E+03	1.831119E-04	0.000000E+00
4.142570E+03	1.829127E-04	0.000000E+00
4.152204E+03	1.827034E-04	0.000000E+00
4.161838E+03	1.824843E-04	0.000000E+00
4.171472E+03	1.822555E-04	0.000000E+00
4.181105E+03	1.820175E-04	0.000000E+00
4.190739E+03	1.817595E-04	0.000000E+00
4.200373E+03	1.814929E-04	0.000000E+00
4.210007E+03	1.812184E-04	0.000000E+00
4.219641E+03	1.809362E-04	0.000000E+00
4.229275E+03	1.806355E-04	0.000000E+00
4.238909E+03	1.803388E-04	0.000000E+00
4.248543E+03	1.800244E-04	0.000000E+00
4.258177E+03	1.797039E-04	0.000000E+00
4.267810E+03	1.793666E-04	0.000000E+00
4.277444E+03	1.790238E-04	0.000000E+00
4.287078E+03	1.786758E-04	0.000000E+00
4.296712E+03	1.783230E-04	0.000000E+00
4.306346E+03	1.779551E-04	0.000000E+00
4.315980E+03	1.775830E-04	0.000000E+00
4.325614E+03	1.771967E-04	0.000000E+00
4.335248E+03	1.768071E-04	0.000000E+00
4.344881E+03	1.764143E-04	0.000000E+00
4.354515E+03	1.760086E-04	0.000000E+00
4.364149E+03	1.756004E-04	0.000000E+00
4.373783E+03	1.751800E-04	0.000000E+00
4.383417E+03	1.747579E-04	0.000000E+00
4.393051E+03	1.743344E-04	0.000000E+00
4.402685E+03	1.738996E-04	0.000000E+00
4.412319E+03	1.734641E-04	0.000000E+00
4.421953E+03	1.730182E-04	0.000000E+00
4.431586E+03	1.725721E-04	0.000000E+00
4.441220E+03	1.721163E-04	0.000000E+00
4.450854E+03	1.716513E-04	0.000000E+00
4.460488E+03	1.711870E-04	0.000000E+00
4.470122E+03	1.707235E-04	0.000000E+00
4.479756E+03	1.702517E-04	0.000000E+00
4.489390E+03	1.697814E-04	0.000000E+00
4.499024E+03	1.693033E-04	0.000000E+00
4.508657E+03	1.688180E-04	0.000000E+00
4.518291E+03	1.683348E-04	0.000000E+00
4.527925E+03	1.678448E-04	0.000000E+00
4.537559E+03	1.673575E-04	0.000000E+00
4.547193E+03	1.668639E-04	0.000000E+00
4.556827E+03	1.663734E-04	0.000000E+00
4.566461E+03	1.658683E-04	0.000000E+00
4.576095E+03	1.653754E-04	0.000000E+00
4.585729E+03	1.648686E-04	0.000000E+00
4.595362E+03	1.643656E-04	0.000000E+00
4.604996E+03	1.638667E-04	0.000000E+00
4.614630E+03	1.633630E-04	0.000000E+00
4.624264E+03	1.628551E-04	0.000000E+00
4.633898E+03	1.623432E-04	0.000000E+00
4.643532E+03	1.618358E-04	0.000000E+00
4.653166E+03	1.613248E-04	0.000000E+00
4.662800E+03	1.608186E-04	0.000000E+00
4.672434E+03	1.603090E-04	0.000000E+00
4.682067E+03	1.597962E-04	0.000000E+00
4.691701E+03	1.592805E-04	0.000000E+00
4.701335E+03	1.587699E-04	0.000000E+00
4.710969E+03	1.582568E-04	0.000000E+00
4.720603E+03	1.577490E-04	0.000000E+00
4.730237E+03	1.572386E-04	0.000000E+00
4.739871E+03	1.567260E-04	0.000000E+00
4.749505E+03	1.562112E-04	0.000000E+00
4.759138E+03	1.557020E-04	0.000000E+00
4.768772E+03	1.551909E-04	0.000000E+00
4.778406E+03	1.546855E-04	0.000000E+00
4.788040E+03	1.541705E-04	0.000000E+00
4.797674E+03	1.536691E-04	0.000000E+00
4.807308E+03	1.531584E-04	0.000000E+00
4.816942E+03	1.526535E-04	0.000000E+00
4.826576E+03	1.521472E-04	0.000000E+00
4.836210E+03	1.516392E-04	0.000000E+00
4.845843E+03	1.511298E-04	0.000000E+00
4.855477E+03	1.506265E-04	0.000000E+00
4.865111E+03	1.501291E-04	0.000000E+00
4.874745E+03	1.496230E-04	0.000000E+00
4.884379E+03	1.491229E-04	0.000000E+00
4.894013E+03	1.486215E-04	0.000000E+00
4.903647E+03	1.481259E-04	0.000000E+00
4.913281E+03	1.476220E-04	0.000000E+00
4.922914E+03	1.471239E-04	0.000000E+00
4.932548E+03	1.466317E-04	0.000000E+00
4.942182E+03	1.461383E-04	0.000000E+00
4.951816E+03	1.456435E-04	0.000000E+00
4.961450E+03	1.451476E-04	0.000000E+00
4.971084E+03	1.446574E-04	0.000000E+00
4.980718E+03	1.441659E-04	0.000000E+00
4.990352E+03	1.436731E-04	0.000000E+00
4.999986E+03	1.431860E-04	0.000000E+00
5.009619E+03	1.426974E-04	0.000000E+00
5.019253E+03	1.422076E-04	0.000000E+00
5.028887E+03	1.417233E-04	0.000000E+00
5.038521E+03	1.412375E-04	0.000000E+00
5.048155E+03	1.407572E-04	0.000000E+00
5.057789E+03	1.402686E-04	0.000000E+00
5.067423E+03	1.397920E-04	0.000000E+00
5.077057E+03	1.393073E-04	0.000000E+00
5.086691E+03	1.388276E-04	0.000000E+00
5.096324E+03	1.383465E-04	0.000000E+00
5.105958E+03	1.378703E-04	0.000000E+00
5.115592E+03	1.373925E-04	0.000000E+00
5.125226E+03	1.369132E-04	0.000000E+00
5.134860E+03	1.364387E-04	0.000000E+00
5.144494E+03	1.359625E-04	0.000000E+00
5.154128E+03	1.354846E-04	0.000000E+00
5.163762E+03	1.350113E-04	0.000000E+00
5.173395E+03	1.345364E-04	0.000000E+00
5.183029E+03	1.340659E-04	0.000000E+00
5.192663E+03	1.335937E-04	0.000000E+00
5.202297E+03	1.331259E-04	0.000000E+00
5.211931E+03	1.326563E-04	0.000000E+00
5.221565E+03	1.321847E-04	0.000000E+00
5.231199E+03	1.317174E-04	0.000000E+00
5.240833E+03	1.312482E-04	0.000000E+00
5.250467E+03	1.307832E-04	0.000000E+00
5.260100E+03	1.303162E-04	0.000000E+00
5.269734E+03	1.298473E-04	0.000000E+00
5.279368E+03	1.293824E-04	0.000000E+00
5.289002E+03	1.289156E-04	0.000000E+00
5.298636E+03	1.284527E-04	0.000000E+00
5.308270E+03	1.279937E-04	0.000000E+00
5.317904E+03	1.275269E-04	0.000000E+00
5.327538E+03	1.270697E-04	0.000000E+00
5.337171E+03	1.266046E-04	0.000000E+00
5.346805E+03	1.261492E-04	0.000000E+00
5.356439E+03	1.256858E-04	0.000000E+00
5.366073E+03	1.252320E-04	0.000000E+00
5.375707E+03	1.247702E-04	0.000000E+00
5.385341E+03	1.243123E-04	0.000000E+00
5.394975E+03	1.238579E-04	0.000000E+00
5.404609E+03	1.234015E-04	0.000000E+00
5.414243E+03	1.229488E-04	0.000000E+00
5.423876E+03	1.224939E-04	0.000000E+00
5.433510E+03	1.220425E-04	0.000000E+00
5.443144E+03	1.215948E-04	0.000000E+00
5.452778E+03	1.211449E-04	0.000000E+00
5.462412E+03	1.206930E-04	0.000000E+00
5.472046E+03	1.202446E-04	0.000000E+00
5.481680E+03	1.197941E-04	0.000000E+00
5.491314E+03	1.193526E-04	0.000000E+00
5.500947E+03	1.189036E-04	0.000000E+00
5.510581E+03	1.184634E-04	0.000000E+00
5.520215E+03	1.180157E-04	0.000000E+00
5.529849E+03	1.175769E-04	0.000000E+00
5.539483E+03	1.171360E-04	0.000000E+00
5.549117E+03	1.166931E-04	0.000000E+00
5.558751E+03	1.162590E-04	0.000000E+00
5.568385E+03	1.158228E-04	0.000000E+00
5.578019E+03	1.153845E-04	0.000000E+00
5.587652E+03	1.149497E-04	0.000000E+00
5.597286E+03	1.145181E-04	0.000000E+00
5.606920E+03	1.140844E-04	0.000000E+00
5.616554E+03	1.136541E-04	0.000000E+00
5.626188E+03	1.132269E-04	0.000000E+00
5.635822E+03	1.127978E-04	0.000000E+00
5.645456E+03	1.123718E-04	0.000000E+00
5.655090E+03	1.119439E-04	0.000000E+00
5.664724E+03	1.115241E-04	0.000000E+00
5.674357E+03	1.111025E-04	0.000000E+00
5.683991E+03	1.106787E-04	0.000000E+00
5.693625E+03	1.102581E-04	0.000000E+00
5.703259E+03	1.098405E-04	0.000000E+00
5.712893E+03	1.094259E-04	0.000000E+00
5.722527E+03	1.090093E-04	0.000000E+00
5.732161E+03	1.085956E-04	0.000000E+00
5.741795E+03	1.081849E-04	0.000000E+00
5.751428E+03	1.077720E-04	0.000000E+00
5.761062E+03	1.073670E-04	0.000000E+00
5.770696E+03	1.069599E-04	0.000000E+00
5.780330E+03	1.065505E-04	0.000000E+00
5.789964E+03	1.061489E-04	0.000000E+00
5.799598E+03	1.057451E-04	0.000000E+00
5.809232E+03	1.053390E-04	0.000000E+00
5.818866E+03	1.049405E-04	0.000000E+00
5.828500E+03	1.045398E-04	0.000000E+00
5.838133E+03	1.041464E-04	0.000000E+00
5.847767E+03	1.037458E-04	0.000000E+00
5.857401E+03	1.033526E-04	0.000000E+00
5.867035E+03	1.029570E-04	0.000000E+00
5.876669E+03	1.025685E-04	0.000000E+00
5.886303E+03	1.021776E-04	0.000000E+00
5.895937E+03	1.017842E-04	0.000000E+00
5.905571E+03	1.013978E-04	0.000000E+00
5.915204E+03	1.010088E-04	0.000000E+00
5.924838E+03	1.006220E-04	0.000000E+00
5.934472E+03	1.002373E-04	0.000000E+00
5.944106E+03	9.985458E-05	0.000000E+00
5.953740E+03	9.947387E-05	0.000000E+00
5.963374E+03	9.909041E-05	0.000000E+00
5.973008E+03	9.870884E-05	0.000000E+00
5.982642E+03	9.832912E-05	0.000000E+00
5.992276E+03	9.795119E-05	0.000000E+00
6.001909E+03	9.757499E-05	0.000000E+00
6.011543E+03	9.720046E-05	0.000000E+00
6.021177E+03	9.682295E-05	0.000000E+00
6.030811E+03	9.644704E-05	0.000000E+00
6.040445E+03	9.607725E-05	0.000000E+00
6.050079E+03	9.570436E-05	0.000000E+00
6.059713E+03	9.532836E-05	0.000000E+00
6.069347E+03	9.495831E-05	0.000000E+00
6.078981E+03	9.458959E-05	0.000000E+00
6.088614E+03	9.421767E-05	0.000000E+00
6.098248E+03	9.385149E-05	0.000000E+00
6.107882E+03	9.348203E-05	0.000000E+00
6.117516E+03	9.311373E-05	0.000000E+00
6.127150E+03	9.274658E-05	0.000000E+00
6.136784E+03	9.238051E-05	0.000000E+00
6.146418E+03	9.201548E-05	0.000000E+00
6.156052E+03	9.165147E-05	0.000000E+00
6.165685E+03	9.128841E-05	0.000000E+00
6.175319E+03	9.092191E-05	0.000000E+00
6.184953E+03	9.056070E-05	0.000000E+00
6.194587E+03	9.019600E-05	0.000000E+00
6.204221E+03	8.983216E-05	0.000000E+00
6.213855E+03	8.947346E-05	0.000000E+00
6.223489E+03	8.911123E-05	0.000000E+00
6.233123E+03	8.874979E-05	0.000000E+00
6.242757E+03	8.838909E-05	0.000000E+00
6.252390E+03	8.802912E-05	0.000000E+00
6.262024E+03	8.766986E-05	0.000000E+00
6.271658E+03	8.731129E-05	0.000000E+00
6.281292E+03	8.695339E-05	0.000000E+00
6.290926E+03	8.659616E-05	0.000000E+00
6.300560E+03	8.623958E-05	0.000000E+00
6.310194E+03	8.588364E-05	0.000000E+00
6.319828E+03	8.552832E-05	0.000000E+00
6.329461E+03	8.516949E-05	0.000000E+00
6.339095E+03	8.481543E-05	0.000000E+00
6.348729E+03	8.446198E-05	0.000000E+00
6.358363E+03	8.410505E-05	0.000000E+00
6.367997E+03	8.375287E-05	0.000000E+00
6.377631E+03	8.340129E-05	0.000000E+00
6.387265E+03	8.304626E-05	0.000000E+00
6.396899E+03	8.269596E-05	0.000000E+00
6.406533E+03	8.234628E-05	0.000000E+00
6.416166E+03	8.199323E-05	0.000000E+00
6.425800E+03	8.164486E-05	0.000000E+00
6.435434E+03	8.129317E-05	0.000000E+00
6.445068E+03	8.094616E-05	0.000000E+00
6.454702E+03	8.059986E-05	0.000000E+00
6.464336E+03	8.025029E-05	0.000000E+00
6.473970E+03	7.990542E-05	0.000000E+00
6.483604E+03	7.955736E-05	0.000000E+00
6.493237E+03	7.921400E-05	0.000000E+00
6.502871E+03	7.887141E-05	0.000000E+00
6.512505E+03	7.852573E-05	0.000000E+00
6.522139E+03	7.818477E-05	0.000000E+00
6.531773E+03	7.784464E-05	0.000000E+00
6.541407E+03	7.750150E-05	0.000000E+00
6.551041E+03	7.716310E-05	0.000000E+00
6.560675E+03	7.682561E-05	0.000000E+00
6.570309E+03	7.648522E-05	0.000000E+00
6.579942E+03	7.614958E-05	0.000000E+00
6.589576E+03	7.581489E-05	0.000000E+00
6.599210E+03	7.548120E-05	0.000000E+00
6.608844E+03	7.514473E-05	0.000000E+00
6.618478E+03	7.481305E-05	0.000000E+00
6.628112E+03	7.448241E-05	0.000000E+00
6.637746E+03	7.415281E-05	0.000000E+00
6.647380E+03	7.382431E-05	0.000000E+00
6.657014E+03	7.349319E-05	0.000000E+00
6.666647E+03	7.316688E-05	0.000000E+00
6.676281E+03	7.284170E-05	0.000000E+00
6.685915E+03	7.251767E-05	0.000000E+00
6.695549E+03	7.219478E-05	0.000000E+00
6.705183E+03	7.187305E-05	0.000000E+00
6.714817E+03	7.155251E-05	0.000000E+00
6.724451E+03	7.122957E-05	0.000000E+00
6.734085E+03	7.091143E-05	0.000000E+00
6.743718E+03	7.059451E-05	0.000000E+00
6.753352E+03	7.027880E-05	0.000000E+00
6.762986E+03	6.996431E-05	0.000000E+00
6.772620E+03	6.965106E-05	0.000000E+00
6.782254E+03	6.933904E-05	0.000000E+00
6.791888E+03	6.902825E-05	0.000000E+00
6.801522E+03	6.871871E-05	0.000000E+00
6.811156E+03	6.840693E-05	0.000000E+00
6.820790E+03	6.809988E-05	0.000000E+00
6.830423E+03	6.779407E-05	0.000000E+00
6.840057E+03	6.748949E-05	0.000000E+00
6.849691E+03	6.718615E-05	0.000000E+00
6.859325E+03	6.688061E-05	0.000000E+00
6.868959E+03	6.657972E-05	0.000000E+00
6.878593E+03	6.628004E-05	0.000000E+00
6.888227E+03	6.597818E-05	0.000000E+00
6.897861E+03	6.568090E-05	0.000000E+00
6.907494E+03	6.538143E-05	0.000000E+00
6.917128E+03	6.508652E-05	0.000000E+00
6.926762E+03	6.478942E-05	0.000000E+00
6.936396E+03	6.449680E-05	0.000000E+00
6.946030E+03	6.420200E-05	0.000000E+00
6.955664E+03	6.390834E-05	0.000000E+00
6.965298E+03	6.361579E-05	0.000000E+00
6.974932E+03	6.332762E-05	0.000000E+00
6.984566E+03	6.303722E-05	0.000000E+00
6.994199E+03	6.274791E-05	0.000000E+00
7.003833E+03	6.245638E-05	0.000000E+00
7.013467E+03	6.216915E-05	0.000000E+00
7.023101E+03	6.188290E-05	0.000000E+00
7.032735E+03	6.159765E-05	0.000000E+00
7.042369E+03	6.131016E-05	0.000000E+00
7.052003E+03	6.102681E-05	0.000000E+00
7.061637E+03	6.074123E-05	0.000000E+00
7.071271E+03	6.045657E-05	0.000000E+00
7.080904E+03	6.017281E-05	0.000000E+00
7.090538E+03	5.988993E-05	0.000000E+00
7.100172E+03	5.960791E-05	0.000000E+00
7.109806E+03	5.932674E-05	0.000000E+00
7.119440E+03	5.904330E-05	0.000000E+00
7.129074E+03	5.876376E-05	0.000000E+00
7.138708E+03	5.848194E-05	0.000000E+00
7.148342E+03	5.820090E-05	0.000000E+00
7.157975E+03	5.792064E-05	0.000000E+00
7.167609E+03	5.764113E-05	0.000000E+00
7.177243E+03	5.736236E-05	0.000000E+00
7.186877E+03	5.708130E-05	0.000000E+00
7.196511E+03	5.680398E-05	0.000000E+00
7.206145E+03	5.652435E-05	0.000000E+00
7.215779E+03	5.624543E-05	0.000000E+00
7.225413E+03	5.596722E-05	0.000000E+00
7.235047E+03	5.568968E-05	0.000000E+00
7.244680E+03	5.540987E-05	0.000000E+00
7.254314E+03	5.513368E-05	0.000000E+00
7.263948E+03	5.485525E-05	0.000000E+00
7.273582E+03	5.457748E-05	0.000000E+00
7.283216E+03	5.429748E-05	0.000000E+00
7.292850E+03	5.402107E-05	0.000000E+00
7.302484E+03	5.374247E-05	0.000000E+00
7.312118E+03	5.346454E-05	0.000000E+00
7.321751E+03	5.318732E-05	0.000000E+00
7.331385E+03	5.291078E-05	0.000000E+00
7.341019E+03	5.263494E-05	0.000000E+00
7.350653E+03	5.235701E-05	0.000000E+00
7.360287E+03	5.207979E-05	0.000000E+00
7.369921E+03	5.180334E-05	0.000000E+00
7.379555E+03	5.152485E-05	0.000000E+00
7.389189E+03	5.124992E-05	0.000000E+00
7.398823E+03	5.097302E-05	0.000000E+00
7.408456E+03	5.069692E-05	0.000000E+00
7.418090E+03	5.041892E-05	0.000000E+00
7.427724E+03	5.014453E-05	0.000000E+00
7.437358E+03	4.986828E-05	0.000000E+00
7.446992E+03	4.959294E-05	0.000000E+00
7.456626E+03	4.931585E-05	0.000000E+00
7.466260E+03	4.904241E-05	0.000000E+00
7.475894E+03	4.876729E-05	0.000000E+00
