#wls	flux	fluxerr
1.541421E+03	9.066820E-06	0.000000E+00
1.579957E+03	9.355719E-06	0.000000E+00
1.618492E+03	9.616394E-06	0.000000E+00
1.657028E+03	9.844831E-06	0.000000E+00
1.695564E+03	1.003359E-05	0.000000E+00
1.734099E+03	1.017179E-05	0.000000E+00
1.772635E+03	1.024183E-05	0.000000E+00
1.811170E+03	1.022933E-05	0.000000E+00
1.849706E+03	1.011374E-05	0.000000E+00
1.888241E+03	9.887599E-06	0.000000E+00
1.926777E+03	9.560090E-06	0.000000E+00
1.965312E+03	9.180700E-06	0.000000E+00
2.003848E+03	8.835514E-06	0.000000E+00
2.042383E+03	8.642692E-06	0.000000E+00
2.080919E+03	8.705643E-06	0.000000E+00
2.119454E+03	9.066464E-06	0.000000E+00
2.157990E+03	9.702576E-06	0.000000E+00
2.196525E+03	1.054298E-05	0.000000E+00
2.235061E+03	1.150429E-05	0.000000E+00
2.273597E+03	1.251628E-05	0.000000E+00
2.312132E+03	1.353347E-05	0.000000E+00
2.350668E+03	1.452460E-05	0.000000E+00
2.389203E+03	1.548195E-05	0.000000E+00
2.427739E+03	1.639718E-05	0.000000E+00
2.466274E+03	1.727660E-05	0.000000E+00
2.504810E+03	1.812085E-05	0.000000E+00
2.543345E+03	1.893666E-05	0.000000E+00
2.581881E+03	1.972167E-05	0.000000E+00
2.620416E+03	2.048499E-05	0.000000E+00
2.658952E+03	2.122602E-05	0.000000E+00
2.697487E+03	2.194990E-05	0.000000E+00
2.736023E+03	2.265460E-05	0.000000E+00
2.774558E+03	2.334075E-05	0.000000E+00
2.813094E+03	2.400857E-05	0.000000E+00
2.851630E+03	2.466158E-05	0.000000E+00
2.890165E+03	2.529569E-05	0.000000E+00
2.899799E+03	2.545155E-05	0.000000E+00
2.909433E+03	2.560592E-05	0.000000E+00
2.919067E+03	2.575881E-05	0.000000E+00
2.928701E+03	2.591450E-05	0.000000E+00
2.938334E+03	2.606711E-05	0.000000E+00
2.947968E+03	2.622224E-05	0.000000E+00
2.957602E+03	2.638319E-05	0.000000E+00
2.967236E+03	2.654557E-05	0.000000E+00
2.976870E+03	2.670496E-05	0.000000E+00
2.986504E+03	2.686870E-05	0.000000E+00
2.996138E+03	2.703248E-05	0.000000E+00
3.005772E+03	2.719588E-05	0.000000E+00
3.015406E+03	2.735861E-05	0.000000E+00
3.025039E+03	2.752028E-05	0.000000E+00
3.034673E+03	2.768060E-05	0.000000E+00
3.044307E+03	2.783934E-05	0.000000E+00
3.053941E+03	2.800026E-05	0.000000E+00
3.063575E+03	2.815509E-05	0.000000E+00
3.073209E+03	2.831174E-05	0.000000E+00
3.082843E+03	2.846184E-05	0.000000E+00
3.092477E+03	2.861348E-05	0.000000E+00
3.102110E+03	2.876240E-05	0.000000E+00
3.111744E+03	2.890848E-05	0.000000E+00
3.121378E+03	2.905159E-05	0.000000E+00
3.131012E+03	2.919168E-05	0.000000E+00
3.140646E+03	2.932865E-05	0.000000E+00
3.150280E+03	2.946242E-05	0.000000E+00
3.159914E+03	2.959295E-05	0.000000E+00
3.169548E+03	2.972442E-05	0.000000E+00
3.179182E+03	2.984837E-05	0.000000E+00
3.188815E+03	2.996897E-05	0.000000E+00
3.198449E+03	3.009044E-05	0.000000E+00
3.208083E+03	3.020858E-05	0.000000E+00
3.217717E+03	3.031910E-05	0.000000E+00
3.227351E+03	3.043051E-05	0.000000E+00
3.236985E+03	3.053860E-05	0.000000E+00
3.246619E+03	3.064335E-05	0.000000E+00
3.256253E+03	3.074481E-05	0.000000E+00
3.265887E+03	3.084298E-05	0.000000E+00
3.275520E+03	3.093791E-05	0.000000E+00
3.285154E+03	3.103392E-05	0.000000E+00
3.294788E+03	3.112243E-05	0.000000E+00
3.304422E+03	3.120783E-05	0.000000E+00
3.314056E+03	3.129440E-05	0.000000E+00
3.323690E+03	3.137361E-05	0.000000E+00
3.333324E+03	3.145407E-05	0.000000E+00
3.342958E+03	3.153160E-05	0.000000E+00
3.352591E+03	3.160185E-05	0.000000E+00
3.362225E+03	3.167355E-05	0.000000E+00
3.371859E+03	3.174238E-05	0.000000E+00
3.381493E+03	3.180841E-05	0.000000E+00
3.391127E+03	3.187168E-05	0.000000E+00
3.400761E+03	3.193223E-05	0.000000E+00
3.410395E+03	3.199015E-05	0.000000E+00
3.420029E+03	3.204541E-05	0.000000E+00
3.429663E+03	3.210241E-05	0.000000E+00
3.439296E+03	3.215256E-05	0.000000E+00
3.448930E+03	3.220026E-05	0.000000E+00
3.458564E+03	3.224977E-05	0.000000E+00
3.468198E+03	3.229259E-05	0.000000E+00
3.477832E+03	3.233730E-05	0.000000E+00
3.487466E+03	3.237971E-05	0.000000E+00
3.497100E+03	3.241553E-05	0.000000E+00
3.506734E+03	3.245339E-05	0.000000E+00
3.516367E+03	3.248901E-05	0.000000E+00
3.526001E+03	3.252244E-05	0.000000E+00
3.535635E+03	3.254950E-05	0.000000E+00
3.545269E+03	3.257868E-05	0.000000E+00
3.554903E+03	3.260578E-05	0.000000E+00
3.564537E+03	3.263083E-05	0.000000E+00
3.574171E+03	3.265384E-05	0.000000E+00
3.583805E+03	3.267488E-05	0.000000E+00
3.593439E+03	3.269814E-05	0.000000E+00
3.603072E+03	3.271529E-05	0.000000E+00
3.612706E+03	3.273051E-05	0.000000E+00
3.622340E+03	3.274382E-05	0.000000E+00
3.631974E+03	3.275950E-05	0.000000E+00
3.641608E+03	3.276914E-05	0.000000E+00
3.651242E+03	3.277699E-05	0.000000E+00
3.660876E+03	3.278718E-05	0.000000E+00
3.670510E+03	3.279147E-05	0.000000E+00
3.680144E+03	3.279815E-05	0.000000E+00
3.689777E+03	3.279896E-05	0.000000E+00
3.699411E+03	3.280222E-05	0.000000E+00
3.709045E+03	3.279965E-05	0.000000E+00
3.718679E+03	3.279953E-05	0.000000E+00
3.728313E+03	3.279366E-05	0.000000E+00
3.737947E+03	3.279026E-05	0.000000E+00
3.747581E+03	3.278523E-05	0.000000E+00
3.757215E+03	3.277457E-05	0.000000E+00
3.766848E+03	3.276635E-05	0.000000E+00
3.776482E+03	3.275661E-05	0.000000E+00
3.786116E+03	3.274125E-05	0.000000E+00
3.795750E+03	3.272841E-05	0.000000E+00
3.805384E+03	3.271407E-05	0.000000E+00
3.815018E+03	3.269423E-05	0.000000E+00
3.824652E+03	3.267691E-05	0.000000E+00
3.834286E+03	3.265814E-05	0.000000E+00
3.843920E+03	3.263791E-05	0.000000E+00
3.853553E+03	3.261228E-05	0.000000E+00
3.863187E+03	3.258920E-05	0.000000E+00
3.872821E+03	3.256473E-05	0.000000E+00
3.882455E+03	3.253887E-05	0.000000E+00
3.892089E+03	3.250774E-05	0.000000E+00
3.901723E+03	3.247920E-05	0.000000E+00
3.911357E+03	3.244929E-05	0.000000E+00
3.920991E+03	3.241809E-05	0.000000E+00
3.930624E+03	3.238170E-05	0.000000E+00
3.940258E+03	3.234791E-05	0.000000E+00
3.949892E+03	3.231285E-05	0.000000E+00
3.959526E+03	3.227271E-05	0.000000E+00
3.969160E+03	3.223521E-05	0.000000E+00
3.978794E+03	3.219644E-05	0.000000E+00
3.988428E+03	3.215272E-05	0.000000E+00
3.998062E+03	3.211160E-05	0.000000E+00
4.007696E+03	3.206557E-05	0.000000E+00
4.017329E+03	3.202217E-05	0.000000E+00
4.026963E+03	3.197390E-05	0.000000E+00
4.036597E+03	3.192829E-05	0.000000E+00
4.046231E+03	3.187784E-05	0.000000E+00
4.055865E+03	3.183007E-05	0.000000E+00
4.065499E+03	3.177759E-05	0.000000E+00
4.075133E+03	3.172406E-05	0.000000E+00
4.084767E+03	3.167323E-05	0.000000E+00
4.094400E+03	3.161774E-05	0.000000E+00
4.104034E+03	3.156133E-05	0.000000E+00
4.113668E+03	3.150398E-05	0.000000E+00
4.123302E+03	3.144571E-05	0.000000E+00
4.132936E+03	3.138659E-05	0.000000E+00
4.142570E+03	3.132657E-05	0.000000E+00
4.152204E+03	3.126574E-05	0.000000E+00
4.161838E+03	3.120405E-05	0.000000E+00
4.171472E+03	3.114157E-05	0.000000E+00
4.181105E+03	3.107831E-05	0.000000E+00
4.190739E+03	3.101429E-05	0.000000E+00
4.200373E+03	3.094603E-05	0.000000E+00
4.210007E+03	3.088056E-05	0.000000E+00
4.219641E+03	3.081439E-05	0.000000E+00
4.229275E+03	3.074409E-05	0.000000E+00
4.238909E+03	3.067317E-05	0.000000E+00
4.248543E+03	3.060505E-05	0.000000E+00
4.258177E+03	3.053292E-05	0.000000E+00
4.267810E+03	3.046021E-05	0.000000E+00
4.277444E+03	3.038697E-05	0.000000E+00
4.287078E+03	3.031656E-05	0.000000E+00
4.296712E+03	3.024228E-05	0.000000E+00
4.306346E+03	3.016417E-05	0.000000E+00
4.315980E+03	3.008896E-05	0.000000E+00
4.325614E+03	3.001331E-05	0.000000E+00
4.335248E+03	2.993723E-05	0.000000E+00
4.344881E+03	2.985748E-05	0.000000E+00
4.354515E+03	2.978064E-05	0.000000E+00
4.364149E+03	2.970020E-05	0.000000E+00
4.373783E+03	2.962267E-05	0.000000E+00
4.383417E+03	2.954161E-05	0.000000E+00
4.393051E+03	2.946028E-05	0.000000E+00
4.402685E+03	2.937869E-05	0.000000E+00
4.412319E+03	2.929688E-05	0.000000E+00
4.421953E+03	2.921484E-05	0.000000E+00
4.431586E+03	2.913262E-05	0.000000E+00
4.441220E+03	2.904708E-05	0.000000E+00
4.450854E+03	2.896454E-05	0.000000E+00
4.460488E+03	2.888185E-05	0.000000E+00
4.470122E+03	2.879595E-05	0.000000E+00
4.479756E+03	2.870997E-05	0.000000E+00
4.489390E+03	2.862700E-05	0.000000E+00
4.499024E+03	2.854091E-05	0.000000E+00
4.508657E+03	2.845479E-05	0.000000E+00
4.518291E+03	2.836563E-05	0.000000E+00
4.527925E+03	2.827952E-05	0.000000E+00
4.537559E+03	2.819343E-05	0.000000E+00
4.547193E+03	2.810738E-05	0.000000E+00
4.556827E+03	2.801841E-05	0.000000E+00
4.566461E+03	2.792953E-05	0.000000E+00
4.576095E+03	2.784371E-05	0.000000E+00
4.585729E+03	2.775505E-05	0.000000E+00
4.595362E+03	2.766653E-05	0.000000E+00
4.604996E+03	2.757816E-05	0.000000E+00
4.614630E+03	2.748706E-05	0.000000E+00
4.624264E+03	2.739903E-05	0.000000E+00
4.633898E+03	2.731119E-05	0.000000E+00
4.643532E+03	2.722070E-05	0.000000E+00
4.653166E+03	2.713045E-05	0.000000E+00
4.662800E+03	2.704327E-05	0.000000E+00
4.672434E+03	2.695350E-05	0.000000E+00
4.682067E+03	2.686401E-05	0.000000E+00
4.691701E+03	2.677479E-05	0.000000E+00
4.701335E+03	2.668309E-05	0.000000E+00
4.710969E+03	2.659448E-05	0.000000E+00
4.720603E+03	2.650342E-05	0.000000E+00
4.730237E+03	2.641543E-05	0.000000E+00
4.739871E+03	2.632504E-05	0.000000E+00
4.749505E+03	2.623501E-05	0.000000E+00
4.759138E+03	2.614535E-05	0.000000E+00
4.768772E+03	2.605605E-05	0.000000E+00
4.778406E+03	2.596713E-05	0.000000E+00
4.788040E+03	2.587593E-05	0.000000E+00
4.797674E+03	2.578780E-05	0.000000E+00
4.807308E+03	2.569742E-05	0.000000E+00
4.816942E+03	2.561009E-05	0.000000E+00
4.826576E+03	2.552055E-05	0.000000E+00
4.836210E+03	2.543145E-05	0.000000E+00
4.845843E+03	2.534279E-05	0.000000E+00
4.855477E+03	2.525199E-05	0.000000E+00
4.865111E+03	2.516423E-05	0.000000E+00
4.874745E+03	2.507437E-05	0.000000E+00
4.884379E+03	2.498752E-05	0.000000E+00
4.894013E+03	2.489860E-05	0.000000E+00
4.903647E+03	2.481016E-05	0.000000E+00
4.913281E+03	2.472221E-05	0.000000E+00
4.922914E+03	2.463474E-05	0.000000E+00
4.932548E+03	2.454776E-05	0.000000E+00
4.942182E+03	2.445879E-05	0.000000E+00
4.951816E+03	2.437280E-05	0.000000E+00
4.961450E+03	2.428486E-05	0.000000E+00
4.971084E+03	2.419987E-05	0.000000E+00
4.980718E+03	2.411294E-05	0.000000E+00
4.990352E+03	2.402652E-05	0.000000E+00
4.999986E+03	2.394063E-05	0.000000E+00
5.009619E+03	2.385284E-05	0.000000E+00
5.019253E+03	2.376799E-05	0.000000E+00
5.028887E+03	2.368127E-05	0.000000E+00
5.038521E+03	2.359746E-05	0.000000E+00
5.048155E+03	2.351180E-05	0.000000E+00
5.057789E+03	2.342667E-05	0.000000E+00
5.067423E+03	2.334208E-05	0.000000E+00
5.077057E+03	2.325802E-05	0.000000E+00
5.086691E+03	2.317449E-05	0.000000E+00
5.096324E+03	2.308917E-05	0.000000E+00
5.105958E+03	2.300670E-05	0.000000E+00
5.115592E+03	2.292247E-05	0.000000E+00
5.125226E+03	2.284105E-05	0.000000E+00
5.134860E+03	2.275789E-05	0.000000E+00
5.144494E+03	2.267526E-05	0.000000E+00
5.154128E+03	2.259317E-05	0.000000E+00
5.163762E+03	2.250936E-05	0.000000E+00
5.173395E+03	2.242834E-05	0.000000E+00
5.183029E+03	2.234784E-05	0.000000E+00
5.192663E+03	2.226565E-05	0.000000E+00
5.202297E+03	2.218401E-05	0.000000E+00
5.211931E+03	2.210509E-05	0.000000E+00
5.221565E+03	2.202450E-05	0.000000E+00
5.231199E+03	2.194444E-05	0.000000E+00
5.240833E+03	2.186490E-05	0.000000E+00
5.250467E+03	2.178372E-05	0.000000E+00
5.260100E+03	2.170523E-05	0.000000E+00
5.269734E+03	2.162512E-05	0.000000E+00
5.279368E+03	2.154766E-05	0.000000E+00
5.289002E+03	2.146859E-05	0.000000E+00
5.298636E+03	2.139004E-05	0.000000E+00
5.308270E+03	2.131201E-05	0.000000E+00
5.317904E+03	2.123449E-05	0.000000E+00
5.327538E+03	2.115748E-05	0.000000E+00
5.337171E+03	2.108097E-05	0.000000E+00
5.346805E+03	2.100289E-05	0.000000E+00
5.356439E+03	2.092739E-05	0.000000E+00
5.366073E+03	2.085033E-05	0.000000E+00
5.375707E+03	2.077581E-05	0.000000E+00
5.385341E+03	2.069975E-05	0.000000E+00
5.394975E+03	2.062418E-05	0.000000E+00
5.404609E+03	2.054910E-05	0.000000E+00
5.414243E+03	2.047451E-05	0.000000E+00
5.423876E+03	2.040040E-05	0.000000E+00
5.433510E+03	2.032477E-05	0.000000E+00
5.443144E+03	2.025163E-05	0.000000E+00
5.452778E+03	2.017697E-05	0.000000E+00
5.462412E+03	2.010477E-05	0.000000E+00
5.472046E+03	2.003106E-05	0.000000E+00
5.481680E+03	1.995782E-05	0.000000E+00
5.491314E+03	1.988505E-05	0.000000E+00
5.500947E+03	1.981275E-05	0.000000E+00
5.510581E+03	1.974090E-05	0.000000E+00
5.520215E+03	1.966951E-05	0.000000E+00
5.529849E+03	1.959857E-05	0.000000E+00
5.539483E+03	1.952615E-05	0.000000E+00
5.549117E+03	1.945611E-05	0.000000E+00
5.558751E+03	1.938459E-05	0.000000E+00
5.568385E+03	1.931542E-05	0.000000E+00
5.578019E+03	1.924478E-05	0.000000E+00
5.587652E+03	1.917459E-05	0.000000E+00
5.597286E+03	1.910482E-05	0.000000E+00
5.606920E+03	1.903549E-05	0.000000E+00
5.616554E+03	1.896657E-05	0.000000E+00
5.626188E+03	1.889808E-05	0.000000E+00
5.635822E+03	1.883000E-05	0.000000E+00
5.645456E+03	1.876049E-05	0.000000E+00
5.655090E+03	1.869323E-05	0.000000E+00
5.664724E+03	1.862455E-05	0.000000E+00
5.674357E+03	1.855810E-05	0.000000E+00
5.683991E+03	1.849022E-05	0.000000E+00
5.693625E+03	1.842274E-05	0.000000E+00
5.703259E+03	1.835566E-05	0.000000E+00
5.712893E+03	1.828897E-05	0.000000E+00
5.722527E+03	1.822446E-05	0.000000E+00
5.732161E+03	1.815675E-05	0.000000E+00
5.741795E+03	1.809121E-05	0.000000E+00
5.751428E+03	1.802604E-05	0.000000E+00
5.761062E+03	1.796123E-05	0.000000E+00
5.770696E+03	1.789504E-05	0.000000E+00
5.780330E+03	1.783096E-05	0.000000E+00
5.789964E+03	1.776725E-05	0.000000E+00
5.799598E+03	1.770214E-05	0.000000E+00
5.809232E+03	1.763740E-05	0.000000E+00
5.818866E+03	1.757473E-05	0.000000E+00
5.828500E+03	1.751068E-05	0.000000E+00
5.838133E+03	1.744697E-05	0.000000E+00
5.847767E+03	1.738361E-05	0.000000E+00
5.857401E+03	1.732058E-05	0.000000E+00
5.867035E+03	1.725789E-05	0.000000E+00
5.876669E+03	1.719552E-05	0.000000E+00
5.886303E+03	1.713348E-05	0.000000E+00
5.895937E+03	1.707175E-05	0.000000E+00
5.905571E+03	1.700867E-05	0.000000E+00
5.915204E+03	1.694757E-05	0.000000E+00
5.924838E+03	1.688679E-05	0.000000E+00
5.934472E+03	1.682465E-05	0.000000E+00
5.944106E+03	1.676447E-05	0.000000E+00
5.953740E+03	1.670294E-05	0.000000E+00
5.963374E+03	1.664171E-05	0.000000E+00
5.973008E+03	1.658242E-05	0.000000E+00
5.982642E+03	1.652178E-05	0.000000E+00
5.992276E+03	1.646143E-05	0.000000E+00
6.001909E+03	1.640136E-05	0.000000E+00
6.011543E+03	1.634158E-05	0.000000E+00
6.021177E+03	1.628368E-05	0.000000E+00
6.030811E+03	1.622445E-05	0.000000E+00
6.040445E+03	1.616389E-05	0.000000E+00
6.050079E+03	1.610520E-05	0.000000E+00
6.059713E+03	1.604678E-05	0.000000E+00
6.069347E+03	1.598861E-05	0.000000E+00
6.078981E+03	1.593071E-05	0.000000E+00
6.088614E+03	1.587149E-05	0.000000E+00
6.098248E+03	1.581409E-05	0.000000E+00
6.107882E+03	1.575694E-05	0.000000E+00
6.117516E+03	1.569848E-05	0.000000E+00
6.127150E+03	1.564182E-05	0.000000E+00
6.136784E+03	1.558386E-05	0.000000E+00
6.146418E+03	1.552768E-05	0.000000E+00
6.156052E+03	1.547020E-05	0.000000E+00
6.165685E+03	1.541296E-05	0.000000E+00
6.175319E+03	1.535748E-05	0.000000E+00
6.184953E+03	1.530070E-05	0.000000E+00
6.194587E+03	1.524416E-05	0.000000E+00
6.204221E+03	1.518785E-05	0.000000E+00
6.213855E+03	1.513176E-05	0.000000E+00
6.223489E+03	1.507590E-05	0.000000E+00
6.233123E+03	1.502174E-05	0.000000E+00
6.242757E+03	1.496631E-05	0.000000E+00
6.252390E+03	1.491110E-05	0.000000E+00
6.262024E+03	1.485463E-05	0.000000E+00
6.271658E+03	1.479985E-05	0.000000E+00
6.281292E+03	1.474528E-05	0.000000E+00
6.290926E+03	1.469092E-05	0.000000E+00
6.300560E+03	1.463676E-05	0.000000E+00
6.310194E+03	1.458281E-05	0.000000E+00
6.319828E+03	1.452762E-05	0.000000E+00
6.329461E+03	1.447407E-05	0.000000E+00
6.339095E+03	1.442073E-05	0.000000E+00
6.348729E+03	1.436615E-05	0.000000E+00
6.358363E+03	1.431321E-05	0.000000E+00
6.367997E+03	1.425904E-05	0.000000E+00
6.377631E+03	1.420648E-05	0.000000E+00
6.387265E+03	1.415271E-05	0.000000E+00
6.396899E+03	1.410054E-05	0.000000E+00
6.406533E+03	1.404717E-05	0.000000E+00
6.416166E+03	1.399398E-05	0.000000E+00
6.425800E+03	1.394239E-05	0.000000E+00
6.435434E+03	1.388959E-05	0.000000E+00
6.445068E+03	1.383699E-05	0.000000E+00
6.454702E+03	1.378596E-05	0.000000E+00
6.464336E+03	1.373374E-05	0.000000E+00
6.473970E+03	1.368171E-05	0.000000E+00
6.483604E+03	1.362987E-05	0.000000E+00
6.493237E+03	1.357822E-05	0.000000E+00
6.502871E+03	1.352675E-05	0.000000E+00
6.512505E+03	1.347683E-05	0.000000E+00
6.522139E+03	1.342573E-05	0.000000E+00
6.531773E+03	1.337483E-05	0.000000E+00
6.541407E+03	1.332411E-05	0.000000E+00
6.551041E+03	1.327224E-05	0.000000E+00
6.560675E+03	1.322189E-05	0.000000E+00
6.570309E+03	1.317173E-05	0.000000E+00
6.579942E+03	1.312174E-05	0.000000E+00
6.589576E+03	1.307195E-05	0.000000E+00
6.599210E+03	1.302233E-05	0.000000E+00
6.608844E+03	1.297160E-05	0.000000E+00
6.618478E+03	1.292235E-05	0.000000E+00
6.628112E+03	1.287328E-05	0.000000E+00
6.637746E+03	1.282440E-05	0.000000E+00
6.647380E+03	1.277441E-05	0.000000E+00
6.657014E+03	1.272589E-05	0.000000E+00
6.666647E+03	1.267626E-05	0.000000E+00
6.676281E+03	1.262811E-05	0.000000E+00
6.685915E+03	1.258013E-05	0.000000E+00
6.695549E+03	1.253107E-05	0.000000E+00
6.705183E+03	1.248219E-05	0.000000E+00
6.714817E+03	1.243476E-05	0.000000E+00
6.724451E+03	1.238625E-05	0.000000E+00
6.734085E+03	1.233918E-05	0.000000E+00
6.743718E+03	1.229104E-05	0.000000E+00
6.753352E+03	1.224309E-05	0.000000E+00
6.762986E+03	1.219656E-05	0.000000E+00
6.772620E+03	1.214897E-05	0.000000E+00
6.782254E+03	1.210157E-05	0.000000E+00
6.791888E+03	1.205436E-05	0.000000E+00
6.801522E+03	1.200733E-05	0.000000E+00
6.811156E+03	1.196170E-05	0.000000E+00
6.820790E+03	1.191503E-05	0.000000E+00
6.830423E+03	1.186855E-05	0.000000E+00
6.840057E+03	1.182226E-05	0.000000E+00
6.849691E+03	1.177615E-05	0.000000E+00
6.859325E+03	1.173023E-05	0.000000E+00
6.868959E+03	1.168448E-05	0.000000E+00
6.878593E+03	1.163893E-05	0.000000E+00
6.888227E+03	1.159237E-05	0.000000E+00
6.897861E+03	1.154719E-05	0.000000E+00
6.907494E+03	1.150219E-05	0.000000E+00
6.917128E+03	1.145737E-05	0.000000E+00
6.926762E+03	1.141157E-05	0.000000E+00
6.936396E+03	1.136712E-05	0.000000E+00
6.946030E+03	1.132286E-05	0.000000E+00
6.955664E+03	1.127763E-05	0.000000E+00
6.965298E+03	1.123373E-05	0.000000E+00
6.974932E+03	1.119002E-05	0.000000E+00
6.984566E+03	1.114535E-05	0.000000E+00
6.994199E+03	1.110202E-05	0.000000E+00
7.003833E+03	1.105773E-05	0.000000E+00
7.013467E+03	1.101363E-05	0.000000E+00
7.023101E+03	1.097085E-05	0.000000E+00
7.032735E+03	1.092713E-05	0.000000E+00
7.042369E+03	1.088361E-05	0.000000E+00
7.052003E+03	1.084139E-05	0.000000E+00
7.061637E+03	1.079824E-05	0.000000E+00
7.071271E+03	1.075529E-05	0.000000E+00
7.080904E+03	1.071253E-05	0.000000E+00
7.090538E+03	1.066996E-05	0.000000E+00
7.100172E+03	1.062759E-05	0.000000E+00
7.109806E+03	1.058540E-05	0.000000E+00
7.119440E+03	1.054342E-05	0.000000E+00
7.129074E+03	1.050162E-05	0.000000E+00
7.138708E+03	1.046002E-05	0.000000E+00
7.148342E+03	1.041861E-05	0.000000E+00
7.157975E+03	1.037740E-05	0.000000E+00
7.167609E+03	1.033532E-05	0.000000E+00
7.177243E+03	1.029450E-05	0.000000E+00
7.186877E+03	1.025389E-05	0.000000E+00
7.196511E+03	1.021241E-05	0.000000E+00
7.206145E+03	1.017219E-05	0.000000E+00
7.215779E+03	1.013112E-05	0.000000E+00
7.225413E+03	1.009130E-05	0.000000E+00
7.235047E+03	1.005064E-05	0.000000E+00
7.244680E+03	1.001123E-05	0.000000E+00
7.254314E+03	9.970983E-06	0.000000E+00
7.263948E+03	9.930947E-06	0.000000E+00
7.273582E+03	9.892155E-06	0.000000E+00
7.283216E+03	9.852538E-06	0.000000E+00
7.292850E+03	9.813135E-06	0.000000E+00
7.302484E+03	9.773947E-06	0.000000E+00
7.312118E+03	9.734969E-06	0.000000E+00
7.321751E+03	9.696212E-06	0.000000E+00
7.331385E+03	9.657676E-06	0.000000E+00
7.341019E+03	9.619356E-06	0.000000E+00
7.350653E+03	9.581252E-06	0.000000E+00
7.360287E+03	9.543376E-06	0.000000E+00
7.369921E+03	9.504722E-06	0.000000E+00
7.379555E+03	9.467295E-06	0.000000E+00
7.389189E+03	9.430090E-06	0.000000E+00
7.398823E+03	9.392131E-06	0.000000E+00
7.408456E+03	9.355387E-06	0.000000E+00
7.418090E+03	9.317892E-06	0.000000E+00
7.427724E+03	9.281620E-06	0.000000E+00
7.437358E+03	9.244601E-06	0.000000E+00
7.446992E+03	9.207825E-06	0.000000E+00
7.456626E+03	9.172266E-06	0.000000E+00
7.466260E+03	9.135977E-06	0.000000E+00
7.475894E+03	9.099937E-06	0.000000E+00
