#wls	flux	fluxerr
1.541421E+03	5.184375E-07	0.000000E+00
1.579957E+03	5.307625E-07	0.000000E+00
1.618492E+03	5.413034E-07	0.000000E+00
1.657028E+03	5.495844E-07	0.000000E+00
1.695564E+03	5.554271E-07	0.000000E+00
1.734099E+03	5.581954E-07	0.000000E+00
1.772635E+03	5.572024E-07	0.000000E+00
1.811170E+03	5.513852E-07	0.000000E+00
1.849706E+03	5.401638E-07	0.000000E+00
1.888241E+03	5.231118E-07	0.000000E+00
1.926777E+03	5.009766E-07	0.000000E+00
1.965312E+03	4.763220E-07	0.000000E+00
2.003848E+03	4.538324E-07	0.000000E+00
2.042383E+03	4.393914E-07	0.000000E+00
2.080919E+03	4.379771E-07	0.000000E+00
2.119454E+03	4.512767E-07	0.000000E+00
2.157990E+03	4.777925E-07	0.000000E+00
2.196525E+03	5.134615E-07	0.000000E+00
2.235061E+03	5.541182E-07	0.000000E+00
2.273597E+03	5.961434E-07	0.000000E+00
2.312132E+03	6.372197E-07	0.000000E+00
2.350668E+03	6.762183E-07	0.000000E+00
2.389203E+03	7.123974E-07	0.000000E+00
2.427739E+03	7.459226E-07	0.000000E+00
2.466274E+03	7.766763E-07	0.000000E+00
2.504810E+03	8.051549E-07	0.000000E+00
2.543345E+03	8.314752E-07	0.000000E+00
2.581881E+03	8.558714E-07	0.000000E+00
2.620416E+03	8.785500E-07	0.000000E+00
2.658952E+03	8.996867E-07	0.000000E+00
2.697487E+03	9.194267E-07	0.000000E+00
2.736023E+03	9.380522E-07	0.000000E+00
2.774558E+03	9.553350E-07	0.000000E+00
2.813094E+03	9.716813E-07	0.000000E+00
2.851630E+03	9.868163E-07	0.000000E+00
2.890165E+03	1.001129E-06	0.000000E+00
2.899799E+03	1.004601E-06	0.000000E+00
2.909433E+03	1.008013E-06	0.000000E+00
2.919067E+03	1.011192E-06	0.000000E+00
2.928701E+03	1.014507E-06	0.000000E+00
2.938334E+03	1.017853E-06	0.000000E+00
2.947968E+03	1.021301E-06	0.000000E+00
2.957602E+03	1.024649E-06	0.000000E+00
2.967236E+03	1.028232E-06	0.000000E+00
2.976870E+03	1.031853E-06	0.000000E+00
2.986504E+03	1.035495E-06	0.000000E+00
2.996138E+03	1.039142E-06	0.000000E+00
3.005772E+03	1.042600E-06	0.000000E+00
3.015406E+03	1.046216E-06	0.000000E+00
3.025039E+03	1.049799E-06	0.000000E+00
3.034673E+03	1.053338E-06	0.000000E+00
3.044307E+03	1.056642E-06	0.000000E+00
3.053941E+03	1.060068E-06	0.000000E+00
3.063575E+03	1.063426E-06	0.000000E+00
3.073209E+03	1.066710E-06	0.000000E+00
3.082843E+03	1.069915E-06	0.000000E+00
3.092477E+03	1.073036E-06	0.000000E+00
3.102110E+03	1.075884E-06	0.000000E+00
3.111744E+03	1.078826E-06	0.000000E+00
3.121378E+03	1.081675E-06	0.000000E+00
3.131012E+03	1.084428E-06	0.000000E+00
3.140646E+03	1.087084E-06	0.000000E+00
3.150280E+03	1.089642E-06	0.000000E+00
3.159914E+03	1.092102E-06	0.000000E+00
3.169548E+03	1.094274E-06	0.000000E+00
3.179182E+03	1.096536E-06	0.000000E+00
3.188815E+03	1.098699E-06	0.000000E+00
3.198449E+03	1.100765E-06	0.000000E+00
3.208083E+03	1.102734E-06	0.000000E+00
3.217717E+03	1.104608E-06	0.000000E+00
3.227351E+03	1.106388E-06	0.000000E+00
3.236985E+03	1.108076E-06	0.000000E+00
3.246619E+03	1.109482E-06	0.000000E+00
3.256253E+03	1.110990E-06	0.000000E+00
3.265887E+03	1.112411E-06	0.000000E+00
3.275520E+03	1.113748E-06	0.000000E+00
3.285154E+03	1.115002E-06	0.000000E+00
3.294788E+03	1.116176E-06	0.000000E+00
3.304422E+03	1.117272E-06	0.000000E+00
3.314056E+03	1.118292E-06	0.000000E+00
3.323690E+03	1.119239E-06	0.000000E+00
3.333324E+03	1.120115E-06	0.000000E+00
3.342958E+03	1.120923E-06	0.000000E+00
3.352591E+03	1.121472E-06	0.000000E+00
3.362225E+03	1.122149E-06	0.000000E+00
3.371859E+03	1.122765E-06	0.000000E+00
3.381493E+03	1.123321E-06	0.000000E+00
3.391127E+03	1.123819E-06	0.000000E+00
3.400761E+03	1.124263E-06	0.000000E+00
3.410395E+03	1.124654E-06	0.000000E+00
3.420029E+03	1.124995E-06	0.000000E+00
3.429663E+03	1.125286E-06	0.000000E+00
3.439296E+03	1.125531E-06	0.000000E+00
3.448930E+03	1.125731E-06	0.000000E+00
3.458564E+03	1.125888E-06	0.000000E+00
3.468198E+03	1.126004E-06	0.000000E+00
3.477832E+03	1.126080E-06	0.000000E+00
3.487466E+03	1.126119E-06	0.000000E+00
3.497100E+03	1.126121E-06	0.000000E+00
3.506734E+03	1.126089E-06	0.000000E+00
3.516367E+03	1.126024E-06	0.000000E+00
3.526001E+03	1.125736E-06	0.000000E+00
3.535635E+03	1.125608E-06	0.000000E+00
3.545269E+03	1.125452E-06	0.000000E+00
3.554903E+03	1.125268E-06	0.000000E+00
3.564537E+03	1.125057E-06	0.000000E+00
3.574171E+03	1.124821E-06	0.000000E+00
3.583805E+03	1.124560E-06	0.000000E+00
3.593439E+03	1.124275E-06	0.000000E+00
3.603072E+03	1.123968E-06	0.000000E+00
3.612706E+03	1.123639E-06	0.000000E+00
3.622340E+03	1.123289E-06	0.000000E+00
3.631974E+03	1.122918E-06	0.000000E+00
3.641608E+03	1.122528E-06	0.000000E+00
3.651242E+03	1.122120E-06	0.000000E+00
3.660876E+03	1.121693E-06	0.000000E+00
3.670510E+03	1.121248E-06	0.000000E+00
3.680144E+03	1.120786E-06	0.000000E+00
3.689777E+03	1.120307E-06	0.000000E+00
3.699411E+03	1.119813E-06	0.000000E+00
3.709045E+03	1.119302E-06	0.000000E+00
3.718679E+03	1.118776E-06	0.000000E+00
3.728313E+03	1.118234E-06	0.000000E+00
3.737947E+03	1.117489E-06	0.000000E+00
3.747581E+03	1.116918E-06	0.000000E+00
3.757215E+03	1.116333E-06	0.000000E+00
3.766848E+03	1.115734E-06	0.000000E+00
3.776482E+03	1.115120E-06	0.000000E+00
3.786116E+03	1.114493E-06	0.000000E+00
3.795750E+03	1.113852E-06	0.000000E+00
3.805384E+03	1.113197E-06	0.000000E+00
3.815018E+03	1.112528E-06	0.000000E+00
3.824652E+03	1.111846E-06	0.000000E+00
3.834286E+03	1.111151E-06	0.000000E+00
3.843920E+03	1.110442E-06	0.000000E+00
3.853553E+03	1.109719E-06	0.000000E+00
3.863187E+03	1.108983E-06	0.000000E+00
3.872821E+03	1.108047E-06	0.000000E+00
3.882455E+03	1.107284E-06	0.000000E+00
3.892089E+03	1.106507E-06	0.000000E+00
3.901723E+03	1.105717E-06	0.000000E+00
3.911357E+03	1.104913E-06	0.000000E+00
3.920991E+03	1.104095E-06	0.000000E+00
3.930624E+03	1.103263E-06	0.000000E+00
3.940258E+03	1.102417E-06	0.000000E+00
3.949892E+03	1.101557E-06	0.000000E+00
3.959526E+03	1.100683E-06	0.000000E+00
3.969160E+03	1.099610E-06	0.000000E+00
3.978794E+03	1.098707E-06	0.000000E+00
3.988428E+03	1.097789E-06	0.000000E+00
3.998062E+03	1.096857E-06	0.000000E+00
4.007696E+03	1.095910E-06	0.000000E+00
4.017329E+03	1.094949E-06	0.000000E+00
4.026963E+03	1.093972E-06	0.000000E+00
4.036597E+03	1.092797E-06	0.000000E+00
4.046231E+03	1.091790E-06	0.000000E+00
4.055865E+03	1.090768E-06	0.000000E+00
4.065499E+03	1.089730E-06	0.000000E+00
4.075133E+03	1.088677E-06	0.000000E+00
4.084767E+03	1.087608E-06	0.000000E+00
4.094400E+03	1.086342E-06	0.000000E+00
4.104034E+03	1.085241E-06	0.000000E+00
4.113668E+03	1.084125E-06	0.000000E+00
4.123302E+03	1.082993E-06	0.000000E+00
4.132936E+03	1.081844E-06	0.000000E+00
4.142570E+03	1.080500E-06	0.000000E+00
4.152204E+03	1.079319E-06	0.000000E+00
4.161838E+03	1.078122E-06	0.000000E+00
4.171472E+03	1.076909E-06	0.000000E+00
4.181105E+03	1.075500E-06	0.000000E+00
4.190739E+03	1.074254E-06	0.000000E+00
4.200373E+03	1.072992E-06	0.000000E+00
4.210007E+03	1.071713E-06	0.000000E+00
4.219641E+03	1.070240E-06	0.000000E+00
4.229275E+03	1.068928E-06	0.000000E+00
4.238909E+03	1.067600E-06	0.000000E+00
4.248543E+03	1.066255E-06	0.000000E+00
4.258177E+03	1.064717E-06	0.000000E+00
4.267810E+03	1.063339E-06	0.000000E+00
4.277444E+03	1.061945E-06	0.000000E+00
4.287078E+03	1.060359E-06	0.000000E+00
4.296712E+03	1.058932E-06	0.000000E+00
4.306346E+03	1.057489E-06	0.000000E+00
4.315980E+03	1.055855E-06	0.000000E+00
4.325614E+03	1.054379E-06	0.000000E+00
4.335248E+03	1.052888E-06	0.000000E+00
4.344881E+03	1.051206E-06	0.000000E+00
4.354515E+03	1.049682E-06	0.000000E+00
4.364149E+03	1.047969E-06	0.000000E+00
4.373783E+03	1.046414E-06	0.000000E+00
4.383417E+03	1.044844E-06	0.000000E+00
4.393051E+03	1.043085E-06	0.000000E+00
4.402685E+03	1.041483E-06	0.000000E+00
4.412319E+03	1.039694E-06	0.000000E+00
4.421953E+03	1.038062E-06	0.000000E+00
4.431586E+03	1.036414E-06	0.000000E+00
4.441220E+03	1.034581E-06	0.000000E+00
4.450854E+03	1.032904E-06	0.000000E+00
4.460488E+03	1.031042E-06	0.000000E+00
4.470122E+03	1.029336E-06	0.000000E+00
4.479756E+03	1.027446E-06	0.000000E+00
4.489390E+03	1.025712E-06	0.000000E+00
4.499024E+03	1.023794E-06	0.000000E+00
4.508657E+03	1.022032E-06	0.000000E+00
4.518291E+03	1.020088E-06	0.000000E+00
4.527925E+03	1.018299E-06	0.000000E+00
4.537559E+03	1.016330E-06	0.000000E+00
4.547193E+03	1.014514E-06	0.000000E+00
4.556827E+03	1.012520E-06	0.000000E+00
4.566461E+03	1.010679E-06	0.000000E+00
4.576095E+03	1.008660E-06	0.000000E+00
4.585729E+03	1.006629E-06	0.000000E+00
4.595362E+03	1.004752E-06	0.000000E+00
4.604996E+03	1.002698E-06	0.000000E+00
4.614630E+03	1.000798E-06	0.000000E+00
4.624264E+03	9.987226E-07	0.000000E+00
4.633898E+03	9.966361E-07	0.000000E+00
4.643532E+03	9.947030E-07	0.000000E+00
4.653166E+03	9.925957E-07	0.000000E+00
4.662800E+03	9.904789E-07	0.000000E+00
4.672434E+03	9.885146E-07	0.000000E+00
4.682067E+03	9.863783E-07	0.000000E+00
4.691701E+03	9.842329E-07	0.000000E+00
4.701335E+03	9.822396E-07	0.000000E+00
4.710969E+03	9.800762E-07	0.000000E+00
4.720603E+03	9.779046E-07	0.000000E+00
4.730237E+03	9.758848E-07	0.000000E+00
4.739871E+03	9.736963E-07	0.000000E+00
4.749505E+03	9.715005E-07	0.000000E+00
4.759138E+03	9.692971E-07	0.000000E+00
4.768772E+03	9.672450E-07	0.000000E+00
4.778406E+03	9.650272E-07	0.000000E+00
4.788040E+03	9.628027E-07	0.000000E+00
4.797674E+03	9.605716E-07	0.000000E+00
4.807308E+03	9.583344E-07	0.000000E+00
4.816942E+03	9.562476E-07	0.000000E+00
4.826576E+03	9.539983E-07	0.000000E+00
4.836210E+03	9.517434E-07	0.000000E+00
4.845843E+03	9.494835E-07	0.000000E+00
4.855477E+03	9.472184E-07	0.000000E+00
4.865111E+03	9.449484E-07	0.000000E+00
4.874745E+03	9.426740E-07	0.000000E+00
4.884379E+03	9.405492E-07	0.000000E+00
4.894013E+03	9.382661E-07	0.000000E+00
4.903647E+03	9.359792E-07	0.000000E+00
4.913281E+03	9.336886E-07	0.000000E+00
4.922914E+03	9.313949E-07	0.000000E+00
4.932548E+03	9.290978E-07	0.000000E+00
4.942182E+03	9.267980E-07	0.000000E+00
4.951816E+03	9.244953E-07	0.000000E+00
4.961450E+03	9.221902E-07	0.000000E+00
4.971084E+03	9.198830E-07	0.000000E+00
4.980718E+03	9.175738E-07	0.000000E+00
4.990352E+03	9.152626E-07	0.000000E+00
4.999986E+03	9.129500E-07	0.000000E+00
5.009619E+03	9.106359E-07	0.000000E+00
5.019253E+03	9.083209E-07	0.000000E+00
5.028887E+03	9.060047E-07	0.000000E+00
5.038521E+03	9.036880E-07	0.000000E+00
5.048155E+03	9.013705E-07	0.000000E+00
5.057789E+03	8.990528E-07	0.000000E+00
5.067423E+03	8.967348E-07	0.000000E+00
5.077057E+03	8.942714E-07	0.000000E+00
5.086691E+03	8.919542E-07	0.000000E+00
5.096324E+03	8.896375E-07	0.000000E+00
5.105958E+03	8.873213E-07	0.000000E+00
5.115592E+03	8.850060E-07	0.000000E+00
5.125226E+03	8.826918E-07	0.000000E+00
5.134860E+03	8.803785E-07	0.000000E+00
5.144494E+03	8.779239E-07	0.000000E+00
5.154128E+03	8.756139E-07	0.000000E+00
5.163762E+03	8.733058E-07	0.000000E+00
5.173395E+03	8.709993E-07	0.000000E+00
5.183029E+03	8.686950E-07	0.000000E+00
5.192663E+03	8.662519E-07	0.000000E+00
5.202297E+03	8.639525E-07	0.000000E+00
5.211931E+03	8.616555E-07	0.000000E+00
5.221565E+03	8.593614E-07	0.000000E+00
5.231199E+03	8.569305E-07	0.000000E+00
5.240833E+03	8.546422E-07	0.000000E+00
5.250467E+03	8.523572E-07	0.000000E+00
5.260100E+03	8.499373E-07	0.000000E+00
5.269734E+03	8.476590E-07	0.000000E+00
5.279368E+03	8.453843E-07	0.000000E+00
5.289002E+03	8.429765E-07	0.000000E+00
5.298636E+03	8.407095E-07	0.000000E+00
5.308270E+03	8.384467E-07	0.000000E+00
5.317904E+03	8.360518E-07	0.000000E+00
5.327538E+03	8.337973E-07	0.000000E+00
5.337171E+03	8.315471E-07	0.000000E+00
5.346805E+03	8.291668E-07	0.000000E+00
5.356439E+03	8.269257E-07	0.000000E+00
5.366073E+03	8.245554E-07	0.000000E+00
5.375707E+03	8.223241E-07	0.000000E+00
5.385341E+03	8.199643E-07	0.000000E+00
5.394975E+03	8.177431E-07	0.000000E+00
5.404609E+03	8.153943E-07	0.000000E+00
5.414243E+03	8.131835E-07	0.000000E+00
5.423876E+03	8.109779E-07	0.000000E+00
5.433510E+03	8.086463E-07	0.000000E+00
5.443144E+03	8.064516E-07	0.000000E+00
5.452778E+03	8.041318E-07	0.000000E+00
5.462412E+03	8.018185E-07	0.000000E+00
5.472046E+03	7.996409E-07	0.000000E+00
5.481680E+03	7.973399E-07	0.000000E+00
5.491314E+03	7.951744E-07	0.000000E+00
5.500947E+03	7.928860E-07	0.000000E+00
5.510581E+03	7.907326E-07	0.000000E+00
5.520215E+03	7.884571E-07	0.000000E+00
5.529849E+03	7.861885E-07	0.000000E+00
5.539483E+03	7.840537E-07	0.000000E+00
5.549117E+03	7.817985E-07	0.000000E+00
5.558751E+03	7.796765E-07	0.000000E+00
5.568385E+03	7.774349E-07	0.000000E+00
5.578019E+03	7.752003E-07	0.000000E+00
5.587652E+03	7.730980E-07	0.000000E+00
5.597286E+03	7.708772E-07	0.000000E+00
5.606920E+03	7.686635E-07	0.000000E+00
5.616554E+03	7.665812E-07	0.000000E+00
5.626188E+03	7.643819E-07	0.000000E+00
5.635822E+03	7.621896E-07	0.000000E+00
5.645456E+03	7.601281E-07	0.000000E+00
5.655090E+03	7.579504E-07	0.000000E+00
5.664724E+03	7.557799E-07	0.000000E+00
5.674357E+03	7.536171E-07	0.000000E+00
5.683991E+03	7.515835E-07	0.000000E+00
5.693625E+03	7.494354E-07	0.000000E+00
5.703259E+03	7.472946E-07	0.000000E+00
5.712893E+03	7.451614E-07	0.000000E+00
5.722527E+03	7.431563E-07	0.000000E+00
5.732161E+03	7.410383E-07	0.000000E+00
5.741795E+03	7.389275E-07	0.000000E+00
5.751428E+03	7.368247E-07	0.000000E+00
5.761062E+03	7.347296E-07	0.000000E+00
5.770696E+03	7.326420E-07	0.000000E+00
5.780330E+03	7.306803E-07	0.000000E+00
5.789964E+03	7.286080E-07	0.000000E+00
5.799598E+03	7.265432E-07	0.000000E+00
5.809232E+03	7.244864E-07	0.000000E+00
5.818866E+03	7.224370E-07	0.000000E+00
5.828500E+03	7.203957E-07	0.000000E+00
5.838133E+03	7.183620E-07	0.000000E+00
5.847767E+03	7.163361E-07	0.000000E+00
5.857401E+03	7.144337E-07	0.000000E+00
5.867035E+03	7.124232E-07	0.000000E+00
5.876669E+03	7.104202E-07	0.000000E+00
5.886303E+03	7.084252E-07	0.000000E+00
5.895937E+03	7.064381E-07	0.000000E+00
5.905571E+03	7.044588E-07	0.000000E+00
5.915204E+03	7.024870E-07	0.000000E+00
5.924838E+03	7.005233E-07	0.000000E+00
5.934472E+03	6.985674E-07	0.000000E+00
5.944106E+03	6.966192E-07	0.000000E+00
5.953740E+03	6.946787E-07	0.000000E+00
5.963374E+03	6.927462E-07	0.000000E+00
5.973008E+03	6.908214E-07	0.000000E+00
5.982642E+03	6.889044E-07	0.000000E+00
5.992276E+03	6.869950E-07	0.000000E+00
6.001909E+03	6.850935E-07	0.000000E+00
6.011543E+03	6.831999E-07	0.000000E+00
6.021177E+03	6.813139E-07	0.000000E+00
6.030811E+03	6.794356E-07	0.000000E+00
6.040445E+03	6.775651E-07	0.000000E+00
6.050079E+03	6.757024E-07	0.000000E+00
6.059713E+03	6.737383E-07	0.000000E+00
6.069347E+03	6.718913E-07	0.000000E+00
6.078981E+03	6.700519E-07	0.000000E+00
6.088614E+03	6.682203E-07	0.000000E+00
6.098248E+03	6.663963E-07	0.000000E+00
6.107882E+03	6.645800E-07	0.000000E+00
6.117516E+03	6.627714E-07	0.000000E+00
6.127150E+03	6.609702E-07	0.000000E+00
6.136784E+03	6.590700E-07	0.000000E+00
6.146418E+03	6.572845E-07	0.000000E+00
6.156052E+03	6.555068E-07	0.000000E+00
6.165685E+03	6.537365E-07	0.000000E+00
6.175319E+03	6.519738E-07	0.000000E+00
6.184953E+03	6.502185E-07	0.000000E+00
6.194587E+03	6.483659E-07	0.000000E+00
6.204221E+03	6.466260E-07	0.000000E+00
6.213855E+03	6.448936E-07	0.000000E+00
6.223489E+03	6.431689E-07	0.000000E+00
6.233123E+03	6.414514E-07	0.000000E+00
6.242757E+03	6.396379E-07	0.000000E+00
6.252390E+03	6.379358E-07	0.000000E+00
6.262024E+03	6.362411E-07	0.000000E+00
6.271658E+03	6.345539E-07	0.000000E+00
6.281292E+03	6.327715E-07	0.000000E+00
6.290926E+03	6.310993E-07	0.000000E+00
6.300560E+03	6.294348E-07	0.000000E+00
6.310194E+03	6.277773E-07	0.000000E+00
6.319828E+03	6.260258E-07	0.000000E+00
6.329461E+03	6.243834E-07	0.000000E+00
6.339095E+03	6.227484E-07	0.000000E+00
6.348729E+03	6.210199E-07	0.000000E+00
6.358363E+03	6.193995E-07	0.000000E+00
6.367997E+03	6.177867E-07	0.000000E+00
6.377631E+03	6.160811E-07	0.000000E+00
6.387265E+03	6.144829E-07	0.000000E+00
6.396899E+03	6.128921E-07	0.000000E+00
6.406533E+03	6.112094E-07	0.000000E+00
6.416166E+03	6.096333E-07	0.000000E+00
6.425800E+03	6.080643E-07	0.000000E+00
6.435434E+03	6.064043E-07	0.000000E+00
6.445068E+03	6.048499E-07	0.000000E+00
6.454702E+03	6.032053E-07	0.000000E+00
6.464336E+03	6.016654E-07	0.000000E+00
6.473970E+03	6.001331E-07	0.000000E+00
6.483604E+03	5.985105E-07	0.000000E+00
6.493237E+03	5.969926E-07	0.000000E+00
6.502871E+03	5.953851E-07	0.000000E+00
6.512505E+03	5.938815E-07	0.000000E+00
6.522139E+03	5.923851E-07	0.000000E+00
6.531773E+03	5.908001E-07	0.000000E+00
6.541407E+03	5.893179E-07	0.000000E+00
6.551041E+03	5.877478E-07	0.000000E+00
6.560675E+03	5.862802E-07	0.000000E+00
6.570309E+03	5.847248E-07	0.000000E+00
6.579942E+03	5.832717E-07	0.000000E+00
6.589576E+03	5.817312E-07	0.000000E+00
6.599210E+03	5.802923E-07	0.000000E+00
6.608844E+03	5.787665E-07	0.000000E+00
6.618478E+03	5.773419E-07	0.000000E+00
6.628112E+03	5.758309E-07	0.000000E+00
6.637746E+03	5.744207E-07	0.000000E+00
6.647380E+03	5.729243E-07	0.000000E+00
6.657014E+03	5.715285E-07	0.000000E+00
6.666647E+03	5.700467E-07	0.000000E+00
6.676281E+03	5.686652E-07	0.000000E+00
6.685915E+03	5.671981E-07	0.000000E+00
6.695549E+03	5.658306E-07	0.000000E+00
6.705183E+03	5.643786E-07	0.000000E+00
6.714817E+03	5.630251E-07	0.000000E+00
6.724451E+03	5.615877E-07	0.000000E+00
6.734085E+03	5.601576E-07	0.000000E+00
6.743718E+03	5.588258E-07	0.000000E+00
6.753352E+03	5.574101E-07	0.000000E+00
6.762986E+03	5.560926E-07	0.000000E+00
6.772620E+03	5.546919E-07	0.000000E+00
6.782254E+03	5.532985E-07	0.000000E+00
6.791888E+03	5.520022E-07	0.000000E+00
6.801522E+03	5.506236E-07	0.000000E+00
6.811156E+03	5.493417E-07	0.000000E+00
6.820790E+03	5.479776E-07	0.000000E+00
6.830423E+03	5.466211E-07	0.000000E+00
6.840057E+03	5.453605E-07	0.000000E+00
6.849691E+03	5.440186E-07	0.000000E+00
6.859325E+03	5.426841E-07	0.000000E+00
6.868959E+03	5.414451E-07	0.000000E+00
6.878593E+03	5.401253E-07	0.000000E+00
6.888227E+03	5.388131E-07	0.000000E+00
6.897861E+03	5.375957E-07	0.000000E+00
6.907494E+03	5.362980E-07	0.000000E+00
6.917128E+03	5.350081E-07	0.000000E+00
6.926762E+03	5.338122E-07	0.000000E+00
6.936396E+03	5.325369E-07	0.000000E+00
6.946030E+03	5.312690E-07	0.000000E+00
6.955664E+03	5.300951E-07	0.000000E+00
6.965298E+03	5.288422E-07	0.000000E+00
6.974932E+03	5.275965E-07	0.000000E+00
6.984566E+03	5.263586E-07	0.000000E+00
6.994199E+03	5.252138E-07	0.000000E+00
7.003833E+03	5.239907E-07	0.000000E+00
7.013467E+03	5.227753E-07	0.000000E+00
7.023101E+03	5.215673E-07	0.000000E+00
7.032735E+03	5.204518E-07	0.000000E+00
7.042369E+03	5.192589E-07	0.000000E+00
7.052003E+03	5.180736E-07	0.000000E+00
7.061637E+03	5.168959E-07	0.000000E+00
7.071271E+03	5.157261E-07	0.000000E+00
7.080904E+03	5.146477E-07	0.000000E+00
7.090538E+03	5.134926E-07	0.000000E+00
7.100172E+03	5.123455E-07	0.000000E+00
7.109806E+03	5.112060E-07	0.000000E+00
7.119440E+03	5.100742E-07	0.000000E+00
7.129074E+03	5.090332E-07	0.000000E+00
7.138708E+03	5.079169E-07	0.000000E+00
7.148342E+03	5.068082E-07	0.000000E+00
7.157975E+03	5.057072E-07	0.000000E+00
7.167609E+03	5.046142E-07	0.000000E+00
7.177243E+03	5.035290E-07	0.000000E+00
7.186877E+03	5.025337E-07	0.000000E+00
7.196511E+03	5.014640E-07	0.000000E+00
7.206145E+03	5.004022E-07	0.000000E+00
7.215779E+03	4.993481E-07	0.000000E+00
7.225413E+03	4.983021E-07	0.000000E+00
7.235047E+03	4.972643E-07	0.000000E+00
7.244680E+03	4.962342E-07	0.000000E+00
7.254314E+03	4.952120E-07	0.000000E+00
7.263948E+03	4.941980E-07	0.000000E+00
7.273582E+03	4.931918E-07	0.000000E+00
7.283216E+03	4.922745E-07	0.000000E+00
7.292850E+03	4.912844E-07	0.000000E+00
7.302484E+03	4.903025E-07	0.000000E+00
7.312118E+03	4.893289E-07	0.000000E+00
7.321751E+03	4.883632E-07	0.000000E+00
7.331385E+03	4.874057E-07	0.000000E+00
7.341019E+03	4.864565E-07	0.000000E+00
7.350653E+03	4.855156E-07	0.000000E+00
7.360287E+03	4.845826E-07	0.000000E+00
7.369921E+03	4.836582E-07	0.000000E+00
7.379555E+03	4.827421E-07	0.000000E+00
7.389189E+03	4.818344E-07	0.000000E+00
7.398823E+03	4.809350E-07	0.000000E+00
7.408456E+03	4.800439E-07	0.000000E+00
7.418090E+03	4.791615E-07	0.000000E+00
7.427724E+03	4.782871E-07	0.000000E+00
7.437358E+03	4.774218E-07	0.000000E+00
7.446992E+03	4.765645E-07	0.000000E+00
7.456626E+03	4.757160E-07	0.000000E+00
7.466260E+03	4.748759E-07	0.000000E+00
7.475894E+03	4.740445E-07	0.000000E+00
