#wls	flux	fluxerr
1.541421E+03	2.166711E-07	0.000000E+00
1.579957E+03	2.212156E-07	0.000000E+00
1.618492E+03	2.249069E-07	0.000000E+00
1.657028E+03	2.277149E-07	0.000000E+00
1.695564E+03	2.294532E-07	0.000000E+00
1.734099E+03	2.299513E-07	0.000000E+00
1.772635E+03	2.288155E-07	0.000000E+00
1.811170E+03	2.257890E-07	0.000000E+00
1.849706E+03	2.204911E-07	0.000000E+00
1.888241E+03	2.128902E-07	0.000000E+00
1.926777E+03	2.032346E-07	0.000000E+00
1.965312E+03	1.926550E-07	0.000000E+00
2.003848E+03	1.830118E-07	0.000000E+00
2.042383E+03	1.766311E-07	0.000000E+00
2.080919E+03	1.755122E-07	0.000000E+00
2.119454E+03	1.803126E-07	0.000000E+00
2.157990E+03	1.903197E-07	0.000000E+00
2.196525E+03	2.039408E-07	0.000000E+00
2.235061E+03	2.194262E-07	0.000000E+00
2.273597E+03	2.353663E-07	0.000000E+00
2.312132E+03	2.508473E-07	0.000000E+00
2.350668E+03	2.653865E-07	0.000000E+00
2.389203E+03	2.787958E-07	0.000000E+00
2.427739E+03	2.910574E-07	0.000000E+00
2.466274E+03	3.022391E-07	0.000000E+00
2.504810E+03	3.124421E-07	0.000000E+00
2.543345E+03	3.218319E-07	0.000000E+00
2.581881E+03	3.303962E-07	0.000000E+00
2.620416E+03	3.382804E-07	0.000000E+00
2.658952E+03	3.456226E-07	0.000000E+00
2.697487E+03	3.523646E-07	0.000000E+00
2.736023E+03	3.586198E-07	0.000000E+00
2.774558E+03	3.644969E-07	0.000000E+00
2.813094E+03	3.699028E-07	0.000000E+00
2.851630E+03	3.749976E-07	0.000000E+00
2.890165E+03	3.796728E-07	0.000000E+00
2.899799E+03	3.808226E-07	0.000000E+00
2.909433E+03	3.819520E-07	0.000000E+00
2.919067E+03	3.829932E-07	0.000000E+00
2.928701E+03	3.840898E-07	0.000000E+00
2.938334E+03	3.852001E-07	0.000000E+00
2.947968E+03	3.862823E-07	0.000000E+00
2.957602E+03	3.874647E-07	0.000000E+00
2.967236E+03	3.886711E-07	0.000000E+00
2.976870E+03	3.898248E-07	0.000000E+00
2.986504E+03	3.910578E-07	0.000000E+00
2.996138E+03	3.922950E-07	0.000000E+00
3.005772E+03	3.934614E-07	0.000000E+00
3.015406E+03	3.946917E-07	0.000000E+00
3.025039E+03	3.958417E-07	0.000000E+00
3.034673E+03	3.970479E-07	0.000000E+00
3.044307E+03	3.982370E-07	0.000000E+00
3.053941E+03	3.993349E-07	0.000000E+00
3.063575E+03	4.004808E-07	0.000000E+00
3.073209E+03	4.016018E-07	0.000000E+00
3.082843E+03	4.026243E-07	0.000000E+00
3.092477E+03	4.036894E-07	0.000000E+00
3.102110E+03	4.047246E-07	0.000000E+00
3.111744E+03	4.056567E-07	0.000000E+00
3.121378E+03	4.066287E-07	0.000000E+00
3.131012E+03	4.075678E-07	0.000000E+00
3.140646E+03	4.084738E-07	0.000000E+00
3.150280E+03	4.092737E-07	0.000000E+00
3.159914E+03	4.101123E-07	0.000000E+00
3.169548E+03	4.109172E-07	0.000000E+00
3.179182E+03	4.116154E-07	0.000000E+00
3.188815E+03	4.123532E-07	0.000000E+00
3.198449E+03	4.130578E-07	0.000000E+00
3.208083E+03	4.136565E-07	0.000000E+00
3.217717E+03	4.142963E-07	0.000000E+00
3.227351E+03	4.149044E-07	0.000000E+00
3.236985E+03	4.154081E-07	0.000000E+00
3.246619E+03	4.159551E-07	0.000000E+00
3.256253E+03	4.164725E-07	0.000000E+00
3.265887E+03	4.168873E-07	0.000000E+00
3.275520E+03	4.173482E-07	0.000000E+00
3.285154E+03	4.177820E-07	0.000000E+00
3.294788E+03	4.181154E-07	0.000000E+00
3.304422E+03	4.184976E-07	0.000000E+00
3.314056E+03	4.188554E-07	0.000000E+00
3.323690E+03	4.191897E-07	0.000000E+00
3.333324E+03	4.194271E-07	0.000000E+00
3.342958E+03	4.197170E-07	0.000000E+00
3.352591E+03	4.199859E-07	0.000000E+00
3.362225E+03	4.201606E-07	0.000000E+00
3.371859E+03	4.203905E-07	0.000000E+00
3.381493E+03	4.206022E-07	0.000000E+00
3.391127E+03	4.207220E-07	0.000000E+00
3.400761E+03	4.208996E-07	0.000000E+00
3.410395E+03	4.210616E-07	0.000000E+00
3.420029E+03	4.212085E-07	0.000000E+00
3.429663E+03	4.212666E-07	0.000000E+00
3.439296E+03	4.213858E-07	0.000000E+00
3.448930E+03	4.214921E-07	0.000000E+00
3.458564E+03	4.215119E-07	0.000000E+00
3.468198E+03	4.215947E-07	0.000000E+00
3.477832E+03	4.216668E-07	0.000000E+00
3.487466E+03	4.216542E-07	0.000000E+00
3.497100E+03	4.217065E-07	0.000000E+00
3.506734E+03	4.217498E-07	0.000000E+00
3.516367E+03	4.217846E-07	0.000000E+00
3.526001E+03	4.217371E-07	0.000000E+00
3.535635E+03	4.217565E-07	0.000000E+00
3.545269E+03	4.217688E-07	0.000000E+00
3.554903E+03	4.217003E-07	0.000000E+00
3.564537E+03	4.217000E-07	0.000000E+00
3.574171E+03	4.216939E-07	0.000000E+00
3.583805E+03	4.216080E-07	0.000000E+00
3.593439E+03	4.215915E-07	0.000000E+00
3.603072E+03	4.215702E-07	0.000000E+00
3.612706E+03	4.214702E-07	0.000000E+00
3.622340E+03	4.214404E-07	0.000000E+00
3.631974E+03	4.214067E-07	0.000000E+00
3.641608E+03	4.213693E-07	0.000000E+00
3.651242E+03	4.212544E-07	0.000000E+00
3.660876E+03	4.212103E-07	0.000000E+00
3.670510E+03	4.211632E-07	0.000000E+00
3.680144E+03	4.210392E-07	0.000000E+00
3.689777E+03	4.209865E-07	0.000000E+00
3.699411E+03	4.209312E-07	0.000000E+00
3.709045E+03	4.207993E-07	0.000000E+00
3.718679E+03	4.207393E-07	0.000000E+00
3.728313E+03	4.206768E-07	0.000000E+00
3.737947E+03	4.206123E-07	0.000000E+00
3.747581E+03	4.204714E-07	0.000000E+00
3.757215E+03	4.204026E-07	0.000000E+00
3.766848E+03	4.203317E-07	0.000000E+00
3.776482E+03	4.201848E-07	0.000000E+00
3.786116E+03	4.201098E-07	0.000000E+00
3.795750E+03	4.200328E-07	0.000000E+00
3.805384E+03	4.198800E-07	0.000000E+00
3.815018E+03	4.197989E-07	0.000000E+00
3.824652E+03	4.197158E-07	0.000000E+00
3.834286E+03	4.195569E-07	0.000000E+00
3.843920E+03	4.194697E-07	0.000000E+00
3.853553E+03	4.193803E-07	0.000000E+00
3.863187E+03	4.192150E-07	0.000000E+00
3.872821E+03	4.191211E-07	0.000000E+00
3.882455E+03	4.190250E-07	0.000000E+00
3.892089E+03	4.188529E-07	0.000000E+00
3.901723E+03	4.187519E-07	0.000000E+00
3.911357E+03	4.186485E-07	0.000000E+00
3.920991E+03	4.184688E-07	0.000000E+00
3.930624E+03	4.183601E-07	0.000000E+00
3.940258E+03	4.182486E-07	0.000000E+00
3.949892E+03	4.180609E-07	0.000000E+00
3.959526E+03	4.179436E-07	0.000000E+00
3.969160E+03	4.178233E-07	0.000000E+00
3.978794E+03	4.176266E-07	0.000000E+00
3.988428E+03	4.175000E-07	0.000000E+00
3.998062E+03	4.173701E-07	0.000000E+00
4.007696E+03	4.171635E-07	0.000000E+00
4.017329E+03	4.170268E-07	0.000000E+00
4.026963E+03	4.168864E-07	0.000000E+00
4.036597E+03	4.166692E-07	0.000000E+00
4.046231E+03	4.165213E-07	0.000000E+00
4.055865E+03	4.163696E-07	0.000000E+00
4.065499E+03	4.161410E-07	0.000000E+00
4.075133E+03	4.159813E-07	0.000000E+00
4.084767E+03	4.158173E-07	0.000000E+00
4.094400E+03	4.155762E-07	0.000000E+00
4.104034E+03	4.154037E-07	0.000000E+00
4.113668E+03	4.152267E-07	0.000000E+00
4.123302E+03	4.149725E-07	0.000000E+00
4.132936E+03	4.147864E-07	0.000000E+00
4.142570E+03	4.145230E-07	0.000000E+00
4.152204E+03	4.143274E-07	0.000000E+00
4.161838E+03	4.141270E-07	0.000000E+00
4.171472E+03	4.138492E-07	0.000000E+00
4.181105E+03	4.136387E-07	0.000000E+00
4.190739E+03	4.134232E-07	0.000000E+00
4.200373E+03	4.131303E-07	0.000000E+00
4.210007E+03	4.129045E-07	0.000000E+00
4.219641E+03	4.126010E-07	0.000000E+00
4.229275E+03	4.123645E-07	0.000000E+00
4.238909E+03	4.121225E-07	0.000000E+00
4.248543E+03	4.118031E-07	0.000000E+00
4.258177E+03	4.115500E-07	0.000000E+00
4.267810E+03	4.112195E-07	0.000000E+00
4.277444E+03	4.109553E-07	0.000000E+00
4.287078E+03	4.106855E-07	0.000000E+00
4.296712E+03	4.103380E-07	0.000000E+00
4.306346E+03	4.100566E-07	0.000000E+00
4.315980E+03	4.096978E-07	0.000000E+00
4.325614E+03	4.094047E-07	0.000000E+00
4.335248E+03	4.091059E-07	0.000000E+00
4.344881E+03	4.087295E-07	0.000000E+00
4.354515E+03	4.084187E-07	0.000000E+00
4.364149E+03	4.080307E-07	0.000000E+00
4.373783E+03	4.077080E-07	0.000000E+00
4.383417E+03	4.073082E-07	0.000000E+00
4.393051E+03	4.069735E-07	0.000000E+00
4.402685E+03	4.066328E-07	0.000000E+00
4.412319E+03	4.062151E-07	0.000000E+00
4.421953E+03	4.058623E-07	0.000000E+00
4.431586E+03	4.054327E-07	0.000000E+00
4.441220E+03	4.050678E-07	0.000000E+00
4.450854E+03	4.046264E-07	0.000000E+00
4.460488E+03	4.042495E-07	0.000000E+00
4.470122E+03	4.038666E-07	0.000000E+00
4.479756E+03	4.034072E-07	0.000000E+00
4.489390E+03	4.030123E-07	0.000000E+00
4.499024E+03	4.025411E-07	0.000000E+00
4.508657E+03	4.021343E-07	0.000000E+00
4.518291E+03	4.016515E-07	0.000000E+00
4.527925E+03	4.012329E-07	0.000000E+00
4.537559E+03	4.007384E-07	0.000000E+00
4.547193E+03	4.003080E-07	0.000000E+00
4.556827E+03	3.998020E-07	0.000000E+00
4.566461E+03	3.993601E-07	0.000000E+00
4.576095E+03	3.988428E-07	0.000000E+00
4.585729E+03	3.983893E-07	0.000000E+00
4.595362E+03	3.978607E-07	0.000000E+00
4.604996E+03	3.973961E-07	0.000000E+00
4.614630E+03	3.968565E-07	0.000000E+00
4.624264E+03	3.963806E-07	0.000000E+00
4.633898E+03	3.958302E-07	0.000000E+00
4.643532E+03	3.953435E-07	0.000000E+00
4.653166E+03	3.947825E-07	0.000000E+00
4.662800E+03	3.942850E-07	0.000000E+00
4.672434E+03	3.937136E-07	0.000000E+00
4.682067E+03	3.932056E-07	0.000000E+00
4.691701E+03	3.926239E-07	0.000000E+00
4.701335E+03	3.921057E-07	0.000000E+00
4.710969E+03	3.915142E-07	0.000000E+00
4.720603E+03	3.909858E-07	0.000000E+00
4.730237E+03	3.903846E-07	0.000000E+00
4.739871E+03	3.898465E-07	0.000000E+00
4.749505E+03	3.892357E-07	0.000000E+00
4.759138E+03	3.886881E-07	0.000000E+00
4.768772E+03	3.880683E-07	0.000000E+00
4.778406E+03	3.874440E-07	0.000000E+00
4.788040E+03	3.868827E-07	0.000000E+00
4.797674E+03	3.862497E-07	0.000000E+00
4.807308E+03	3.856796E-07	0.000000E+00
4.816942E+03	3.850381E-07	0.000000E+00
4.826576E+03	3.844594E-07	0.000000E+00
4.836210E+03	3.838098E-07	0.000000E+00
4.845843E+03	3.831563E-07	0.000000E+00
4.855477E+03	3.825654E-07	0.000000E+00
4.865111E+03	3.819042E-07	0.000000E+00
4.874745E+03	3.813057E-07	0.000000E+00
4.884379E+03	3.806370E-07	0.000000E+00
4.894013E+03	3.800309E-07	0.000000E+00
4.903647E+03	3.793553E-07	0.000000E+00
4.913281E+03	3.786762E-07	0.000000E+00
4.922914E+03	3.780596E-07	0.000000E+00
4.932548E+03	3.773740E-07	0.000000E+00
4.942182E+03	3.766852E-07	0.000000E+00
4.951816E+03	3.760587E-07	0.000000E+00
4.961450E+03	3.753637E-07	0.000000E+00
4.971084E+03	3.747311E-07	0.000000E+00
4.980718E+03	3.740304E-07	0.000000E+00
4.990352E+03	3.733269E-07	0.000000E+00
4.999986E+03	3.726855E-07	0.000000E+00
5.009619E+03	3.719767E-07	0.000000E+00
5.019253E+03	3.712654E-07	0.000000E+00
5.028887E+03	3.706162E-07	0.000000E+00
5.038521E+03	3.699000E-07	0.000000E+00
5.048155E+03	3.692457E-07	0.000000E+00
5.057789E+03	3.685251E-07	0.000000E+00
5.067423E+03	3.678022E-07	0.000000E+00
5.077057E+03	3.671412E-07	0.000000E+00
5.086691E+03	3.664144E-07	0.000000E+00
5.096324E+03	3.656856E-07	0.000000E+00
5.105958E+03	3.650185E-07	0.000000E+00
5.115592E+03	3.642862E-07	0.000000E+00
5.125226E+03	3.635521E-07	0.000000E+00
5.134860E+03	3.628167E-07	0.000000E+00
5.144494E+03	3.621425E-07	0.000000E+00
5.154128E+03	3.614039E-07	0.000000E+00
5.163762E+03	3.606640E-07	0.000000E+00
5.173395E+03	3.599854E-07	0.000000E+00
5.183029E+03	3.592429E-07	0.000000E+00
5.192663E+03	3.584993E-07	0.000000E+00
5.202297E+03	3.578169E-07	0.000000E+00
5.211931E+03	3.570710E-07	0.000000E+00
5.221565E+03	3.563244E-07	0.000000E+00
5.231199E+03	3.555770E-07	0.000000E+00
5.240833E+03	3.548903E-07	0.000000E+00
5.250467E+03	3.541412E-07	0.000000E+00
5.260100E+03	3.533915E-07	0.000000E+00
5.269734E+03	3.527024E-07	0.000000E+00
5.279368E+03	3.519515E-07	0.000000E+00
5.289002E+03	3.512002E-07	0.000000E+00
5.298636E+03	3.504484E-07	0.000000E+00
5.308270E+03	3.497571E-07	0.000000E+00
5.317904E+03	3.490047E-07	0.000000E+00
5.327538E+03	3.482522E-07	0.000000E+00
5.337171E+03	3.474995E-07	0.000000E+00
5.346805E+03	3.467467E-07	0.000000E+00
5.356439E+03	3.460539E-07	0.000000E+00
5.366073E+03	3.453011E-07	0.000000E+00
5.375707E+03	3.445484E-07	0.000000E+00
5.385341E+03	3.437958E-07	0.000000E+00
5.394975E+03	3.431030E-07	0.000000E+00
5.404609E+03	3.423508E-07	0.000000E+00
5.414243E+03	3.415990E-07	0.000000E+00
5.423876E+03	3.408476E-07	0.000000E+00
5.433510E+03	3.400966E-07	0.000000E+00
5.443144E+03	3.394049E-07	0.000000E+00
5.452778E+03	3.386549E-07	0.000000E+00
5.462412E+03	3.379054E-07	0.000000E+00
5.472046E+03	3.371566E-07	0.000000E+00
5.481680E+03	3.364084E-07	0.000000E+00
5.491314E+03	3.357193E-07	0.000000E+00
5.500947E+03	3.349726E-07	0.000000E+00
5.510581E+03	3.342267E-07	0.000000E+00
5.520215E+03	3.334817E-07	0.000000E+00
5.529849E+03	3.327376E-07	0.000000E+00
5.539483E+03	3.319945E-07	0.000000E+00
5.549117E+03	3.313099E-07	0.000000E+00
5.558751E+03	3.305687E-07	0.000000E+00
5.568385E+03	3.298287E-07	0.000000E+00
5.578019E+03	3.290898E-07	0.000000E+00
5.587652E+03	3.283520E-07	0.000000E+00
5.597286E+03	3.276156E-07	0.000000E+00
5.606920E+03	3.269371E-07	0.000000E+00
5.616554E+03	3.262030E-07	0.000000E+00
5.626188E+03	3.254702E-07	0.000000E+00
5.635822E+03	3.247389E-07	0.000000E+00
5.645456E+03	3.240089E-07	0.000000E+00
5.655090E+03	3.232804E-07	0.000000E+00
5.664724E+03	3.225533E-07	0.000000E+00
5.674357E+03	3.218278E-07	0.000000E+00
5.683991E+03	3.211038E-07	0.000000E+00
5.693625E+03	3.204369E-07	0.000000E+00
5.703259E+03	3.197160E-07	0.000000E+00
5.712893E+03	3.189967E-07	0.000000E+00
5.722527E+03	3.182791E-07	0.000000E+00
5.732161E+03	3.175631E-07	0.000000E+00
5.741795E+03	3.168489E-07	0.000000E+00
5.751428E+03	3.161364E-07	0.000000E+00
5.761062E+03	3.154257E-07	0.000000E+00
5.770696E+03	3.147168E-07	0.000000E+00
5.780330E+03	3.140098E-07	0.000000E+00
5.789964E+03	3.133588E-07	0.000000E+00
5.799598E+03	3.126554E-07	0.000000E+00
5.809232E+03	3.119538E-07	0.000000E+00
5.818866E+03	3.112542E-07	0.000000E+00
5.828500E+03	3.105565E-07	0.000000E+00
5.838133E+03	3.098608E-07	0.000000E+00
5.847767E+03	3.091671E-07	0.000000E+00
5.857401E+03	3.084754E-07	0.000000E+00
5.867035E+03	3.077858E-07	0.000000E+00
5.876669E+03	3.070981E-07	0.000000E+00
5.886303E+03	3.064125E-07	0.000000E+00
5.895937E+03	3.057291E-07	0.000000E+00
5.905571E+03	3.050478E-07	0.000000E+00
5.915204E+03	3.043686E-07	0.000000E+00
5.924838E+03	3.036915E-07	0.000000E+00
5.934472E+03	3.030167E-07	0.000000E+00
5.944106E+03	3.023439E-07	0.000000E+00
5.953740E+03	3.016734E-07	0.000000E+00
5.963374E+03	3.010052E-07	0.000000E+00
5.973008E+03	3.003391E-07	0.000000E+00
5.982642E+03	2.996752E-07	0.000000E+00
5.992276E+03	2.990137E-07	0.000000E+00
6.001909E+03	2.983543E-07	0.000000E+00
6.011543E+03	2.976973E-07	0.000000E+00
6.021177E+03	2.970426E-07	0.000000E+00
6.030811E+03	2.963902E-07	0.000000E+00
6.040445E+03	2.957401E-07	0.000000E+00
6.050079E+03	2.950924E-07	0.000000E+00
6.059713E+03	2.944470E-07	0.000000E+00
6.069347E+03	2.938039E-07	0.000000E+00
6.078981E+03	2.931631E-07	0.000000E+00
6.088614E+03	2.925248E-07	0.000000E+00
6.098248E+03	2.918890E-07	0.000000E+00
6.107882E+03	2.912555E-07	0.000000E+00
6.117516E+03	2.906243E-07	0.000000E+00
6.127150E+03	2.899956E-07	0.000000E+00
6.136784E+03	2.893693E-07	0.000000E+00
6.146418E+03	2.887455E-07	0.000000E+00
6.156052E+03	2.881241E-07	0.000000E+00
6.165685E+03	2.875051E-07	0.000000E+00
6.175319E+03	2.868887E-07	0.000000E+00
6.184953E+03	2.862746E-07	0.000000E+00
6.194587E+03	2.856631E-07	0.000000E+00
6.204221E+03	2.850541E-07	0.000000E+00
6.213855E+03	2.844474E-07	0.000000E+00
6.223489E+03	2.838433E-07	0.000000E+00
6.233123E+03	2.831927E-07	0.000000E+00
6.242757E+03	2.825938E-07	0.000000E+00
6.252390E+03	2.819973E-07	0.000000E+00
6.262024E+03	2.814033E-07	0.000000E+00
6.271658E+03	2.808119E-07	0.000000E+00
6.281292E+03	2.802231E-07	0.000000E+00
6.290926E+03	2.796367E-07	0.000000E+00
6.300560E+03	2.790528E-07	0.000000E+00
6.310194E+03	2.784716E-07	0.000000E+00
6.319828E+03	2.778929E-07	0.000000E+00
6.329461E+03	2.773166E-07	0.000000E+00
6.339095E+03	2.767431E-07	0.000000E+00
6.348729E+03	2.761242E-07	0.000000E+00
6.358363E+03	2.755557E-07	0.000000E+00
6.367997E+03	2.749900E-07	0.000000E+00
6.377631E+03	2.744267E-07	0.000000E+00
6.387265E+03	2.738661E-07	0.000000E+00
6.396899E+03	2.733081E-07	0.000000E+00
6.406533E+03	2.727526E-07	0.000000E+00
6.416166E+03	2.721997E-07	0.000000E+00
6.425800E+03	2.716493E-07	0.000000E+00
6.435434E+03	2.710547E-07	0.000000E+00
6.445068E+03	2.705096E-07	0.000000E+00
6.454702E+03	2.699672E-07	0.000000E+00
6.464336E+03	2.694275E-07	0.000000E+00
6.473970E+03	2.688903E-07	0.000000E+00
6.483604E+03	2.683557E-07	0.000000E+00
6.493237E+03	2.678238E-07	0.000000E+00
6.502871E+03	2.672481E-07	0.000000E+00
6.512505E+03	2.667214E-07	0.000000E+00
6.522139E+03	2.661974E-07	0.000000E+00
6.531773E+03	2.656760E-07	0.000000E+00
6.541407E+03	2.651573E-07	0.000000E+00
6.551041E+03	2.646411E-07	0.000000E+00
6.560675E+03	2.640819E-07	0.000000E+00
6.570309E+03	2.635712E-07	0.000000E+00
6.579942E+03	2.630630E-07	0.000000E+00
6.589576E+03	2.625575E-07	0.000000E+00
6.599210E+03	2.620548E-07	0.000000E+00
6.608844E+03	2.615545E-07	0.000000E+00
6.618478E+03	2.610118E-07	0.000000E+00
6.628112E+03	2.605170E-07	0.000000E+00
6.637746E+03	2.600248E-07	0.000000E+00
6.647380E+03	2.595355E-07	0.000000E+00
6.657014E+03	2.590486E-07	0.000000E+00
6.666647E+03	2.585197E-07	0.000000E+00
6.676281E+03	2.580383E-07	0.000000E+00
6.685915E+03	2.575596E-07	0.000000E+00
6.695549E+03	2.570836E-07	0.000000E+00
6.705183E+03	2.566101E-07	0.000000E+00
6.714817E+03	2.560951E-07	0.000000E+00
6.724451E+03	2.556272E-07	0.000000E+00
6.734085E+03	2.551619E-07	0.000000E+00
6.743718E+03	2.546995E-07	0.000000E+00
6.753352E+03	2.542396E-07	0.000000E+00
6.762986E+03	2.537385E-07	0.000000E+00
6.772620E+03	2.532840E-07	0.000000E+00
6.782254E+03	2.528324E-07	0.000000E+00
6.791888E+03	2.523834E-07	0.000000E+00
6.801522E+03	2.518935E-07	0.000000E+00
6.811156E+03	2.514500E-07	0.000000E+00
6.820790E+03	2.510092E-07	0.000000E+00
6.830423E+03	2.505712E-07	0.000000E+00
6.840057E+03	2.501359E-07	0.000000E+00
6.849691E+03	2.496600E-07	0.000000E+00
6.859325E+03	2.492302E-07	0.000000E+00
6.868959E+03	2.488032E-07	0.000000E+00
6.878593E+03	2.483788E-07	0.000000E+00
6.888227E+03	2.479142E-07	0.000000E+00
6.897861E+03	2.474956E-07	0.000000E+00
6.907494E+03	2.470796E-07	0.000000E+00
6.917128E+03	2.466663E-07	0.000000E+00
6.926762E+03	2.462131E-07	0.000000E+00
6.936396E+03	2.458055E-07	0.000000E+00
6.946030E+03	2.454005E-07	0.000000E+00
6.955664E+03	2.449558E-07	0.000000E+00
6.965298E+03	2.445567E-07	0.000000E+00
6.974932E+03	2.441601E-07	0.000000E+00
6.984566E+03	2.437664E-07	0.000000E+00
6.994199E+03	2.433333E-07	0.000000E+00
7.003833E+03	2.429451E-07	0.000000E+00
7.013467E+03	2.425600E-07	0.000000E+00
7.023101E+03	2.421775E-07	0.000000E+00
7.032735E+03	2.417559E-07	0.000000E+00
7.042369E+03	2.413792E-07	0.000000E+00
7.052003E+03	2.410052E-07	0.000000E+00
7.061637E+03	2.405923E-07	0.000000E+00
7.071271E+03	2.402241E-07	0.000000E+00
7.080904E+03	2.398587E-07	0.000000E+00
7.090538E+03	2.394545E-07	0.000000E+00
7.100172E+03	2.390949E-07	0.000000E+00
7.109806E+03	2.387381E-07	0.000000E+00
7.119440E+03	2.383842E-07	0.000000E+00
7.129074E+03	2.379918E-07	0.000000E+00
7.138708E+03	2.376438E-07	0.000000E+00
7.148342E+03	2.372985E-07	0.000000E+00
7.157975E+03	2.369149E-07	0.000000E+00
7.167609E+03	2.365755E-07	0.000000E+00
7.177243E+03	2.362390E-07	0.000000E+00
7.186877E+03	2.358643E-07	0.000000E+00
7.196511E+03	2.355337E-07	0.000000E+00
7.206145E+03	2.352061E-07	0.000000E+00
7.215779E+03	2.348404E-07	0.000000E+00
7.225413E+03	2.345185E-07	0.000000E+00
7.235047E+03	2.341997E-07	0.000000E+00
7.244680E+03	2.338431E-07	0.000000E+00
7.254314E+03	2.335302E-07	0.000000E+00
7.263948E+03	2.332202E-07	0.000000E+00
7.273582E+03	2.328727E-07	0.000000E+00
7.283216E+03	2.325687E-07	0.000000E+00
7.292850E+03	2.322676E-07	0.000000E+00
7.302484E+03	2.319293E-07	0.000000E+00
7.312118E+03	2.316343E-07	0.000000E+00
7.321751E+03	2.313423E-07	0.000000E+00
7.331385E+03	2.310132E-07	0.000000E+00
7.341019E+03	2.307273E-07	0.000000E+00
7.350653E+03	2.304042E-07	0.000000E+00
7.360287E+03	2.301244E-07	0.000000E+00
7.369921E+03	2.298477E-07	0.000000E+00
7.379555E+03	2.295341E-07	0.000000E+00
7.389189E+03	2.292634E-07	0.000000E+00
7.398823E+03	2.289959E-07	0.000000E+00
7.408456E+03	2.286916E-07	0.000000E+00
7.418090E+03	2.284303E-07	0.000000E+00
7.427724E+03	2.281323E-07	0.000000E+00
7.437358E+03	2.278772E-07	0.000000E+00
7.446992E+03	2.276251E-07	0.000000E+00
7.456626E+03	2.273367E-07	0.000000E+00
7.466260E+03	2.270908E-07	0.000000E+00
7.475894E+03	2.268088E-07	0.000000E+00
