#wls	flux	fluxerr
1.591072E+03	1.156250E-18	3.240392E-20
1.630849E+03	1.225097E-18	3.421850E-20
1.670626E+03	1.278954E-18	3.560030E-20
1.710403E+03	1.314962E-18	3.647397E-20
1.750180E+03	1.330096E-18	3.676086E-20
1.789957E+03	1.318726E-18	3.631212E-20
1.829733E+03	1.274681E-18	3.496658E-20
1.869510E+03	1.193991E-18	3.262624E-20
1.909287E+03	1.076559E-18	2.930065E-20
1.949064E+03	9.296546E-19	2.519956E-20
1.988841E+03	7.697734E-19	2.077897E-20
2.028617E+03	6.204707E-19	1.667743E-20
2.068394E+03	5.047128E-19	1.350689E-20
2.108171E+03	4.373528E-19	1.165204E-20
2.147948E+03	4.247742E-19	1.126529E-20
2.187725E+03	4.706669E-19	1.242415E-20
2.227501E+03	5.808153E-19	1.525857E-20
2.267278E+03	7.620401E-19	1.992186E-20
2.307055E+03	1.017960E-18	2.647964E-20
2.346832E+03	1.346406E-18	3.484490E-20
2.386609E+03	1.740267E-18	4.480361E-20
2.426386E+03	2.190409E-18	5.609295E-20
2.466162E+03	2.688855E-18	6.848376E-20
2.505939E+03	3.229935E-18	8.180925E-20
2.545716E+03	3.811311E-18	9.598924E-20
2.585493E+03	4.433232E-18	1.110092E-19
2.625270E+03	5.098640E-18	1.269212E-19
2.665046E+03	5.812321E-18	1.438208E-19
2.704823E+03	6.580909E-18	1.618458E-19
2.744600E+03	7.412768E-18	1.811720E-19
2.784377E+03	8.317737E-18	2.020052E-19
2.824154E+03	9.307412E-18	2.245875E-19
2.863930E+03	1.039588E-17	2.492127E-19
2.903707E+03	1.159900E-17	2.762076E-19
2.943484E+03	1.293675E-17	3.059860E-19
2.983261E+03	1.443149E-17	3.390040E-19
2.993205E+03	1.483317E-17	3.478364E-19
3.003149E+03	1.524657E-17	3.569096E-19
3.013094E+03	1.567214E-17	3.662324E-19
3.023038E+03	1.611216E-17	3.758566E-19
3.032982E+03	1.657120E-17	3.858865E-19
3.042926E+03	1.705400E-17	3.964298E-19
3.052870E+03	1.756173E-17	4.075112E-19
3.062815E+03	1.809386E-17	4.191151E-19
3.072759E+03	1.865028E-17	4.312357E-19
3.082703E+03	1.923170E-17	4.438865E-19
3.092647E+03	1.983735E-17	4.570465E-19
3.102591E+03	2.046766E-17	4.707226E-19
3.112536E+03	2.112231E-17	4.849044E-19
3.122480E+03	2.180270E-17	4.996208E-19
3.132424E+03	2.250774E-17	5.148439E-19
3.142368E+03	2.323809E-17	5.305852E-19
3.152312E+03	2.399446E-17	5.468581E-19
3.162257E+03	2.477719E-17	5.636670E-19
3.172201E+03	2.558571E-17	5.809955E-19
3.182145E+03	2.642185E-17	5.988817E-19
3.192089E+03	2.728510E-17	6.173112E-19
3.202033E+03	2.817647E-17	6.363027E-19
3.211978E+03	2.909599E-17	6.558540E-19
3.221922E+03	3.004477E-17	6.759862E-19
3.231866E+03	3.102346E-17	6.967106E-19
3.241810E+03	3.203278E-17	7.180390E-19
3.251754E+03	3.307291E-17	7.399722E-19
3.261699E+03	3.414519E-17	7.625362E-19
3.271643E+03	3.525049E-17	7.857463E-19
3.281587E+03	3.638911E-17	8.096054E-19
3.291531E+03	3.756259E-17	8.341435E-19
3.301475E+03	3.877133E-17	8.593650E-19
3.311420E+03	4.001695E-17	8.853017E-19
3.321364E+03	4.130000E-17	9.119613E-19
3.331308E+03	4.262160E-17	9.393638E-19
3.341252E+03	4.398297E-17	9.675316E-19
3.351196E+03	4.538535E-17	9.964871E-19
3.361141E+03	4.683005E-17	1.026254E-18
3.371085E+03	4.831782E-17	1.056844E-18
3.381029E+03	4.985077E-17	1.088297E-18
3.390973E+03	5.142897E-17	1.120611E-18
3.400917E+03	5.305545E-17	1.153846E-18
3.410862E+03	5.473038E-17	1.187999E-18
3.420806E+03	5.645551E-17	1.223103E-18
3.430750E+03	5.823256E-17	1.259189E-18
3.440694E+03	6.006273E-17	1.296278E-18
3.450638E+03	6.194876E-17	1.334422E-18
3.460583E+03	6.389199E-17	1.373644E-18
3.470527E+03	6.589381E-17	1.413967E-18
3.480471E+03	6.795668E-17	1.455437E-18
3.490415E+03	7.008220E-17	1.498082E-18
3.500359E+03	7.227405E-17	1.541973E-18
3.510304E+03	7.453240E-17	1.587106E-18
3.520248E+03	7.686139E-17	1.633562E-18
3.530192E+03	7.926341E-17	1.681385E-18
3.540136E+03	8.174214E-17	1.730644E-18
3.550080E+03	8.429961E-17	1.781373E-18
3.560025E+03	8.693895E-17	1.833630E-18
3.569969E+03	8.966566E-17	1.887523E-18
3.579913E+03	9.248132E-17	1.943074E-18
3.589857E+03	9.539176E-17	2.000398E-18
3.599802E+03	9.840087E-17	2.059566E-18
3.609746E+03	1.015112E-16	2.120619E-18
3.619690E+03	1.047252E-16	2.183601E-18
3.629634E+03	1.080452E-16	2.248546E-18
3.639578E+03	1.114699E-16	2.315420E-18
3.649523E+03	1.150011E-16	2.384246E-18
3.659467E+03	1.186348E-16	2.454933E-18
3.669411E+03	1.223703E-16	2.527458E-18
3.679355E+03	1.262050E-16	2.601757E-18
3.689299E+03	1.301373E-16	2.677785E-18
3.699244E+03	1.341622E-16	2.755431E-18
3.709188E+03	1.382768E-16	2.834629E-18
3.719132E+03	1.424764E-16	2.915271E-18
3.729076E+03	1.467572E-16	2.997273E-18
3.739020E+03	1.511132E-16	3.080505E-18
3.748965E+03	1.555392E-16	3.164857E-18
3.758909E+03	1.600279E-16	3.250173E-18
3.768853E+03	1.645710E-16	3.336279E-18
3.778797E+03	1.691643E-16	3.423088E-18
3.788741E+03	1.737946E-16	3.510329E-18
3.798686E+03	1.784542E-16	3.597846E-18
3.808630E+03	1.831348E-16	3.685469E-18
3.818574E+03	1.878213E-16	3.772896E-18
3.828518E+03	1.925009E-16	3.859871E-18
3.838462E+03	1.971605E-16	3.946137E-18
3.848407E+03	2.017838E-16	4.031370E-18
3.858351E+03	2.063528E-16	4.115219E-18
3.868295E+03	2.108459E-16	4.197264E-18
3.878239E+03	2.152443E-16	4.277139E-18
3.888183E+03	2.195264E-16	4.354427E-18
3.898128E+03	2.236700E-16	4.428708E-18
3.908072E+03	2.276533E-16	4.499565E-18
3.918016E+03	2.314553E-16	4.566601E-18
3.927960E+03	2.350588E-16	4.629503E-18
3.937904E+03	2.384470E-16	4.687959E-18
3.947849E+03	2.416030E-16	4.741667E-18
3.957793E+03	2.445201E-16	4.790516E-18
3.967737E+03	2.471879E-16	4.834330E-18
3.977681E+03	2.496036E-16	4.873085E-18
3.987625E+03	2.517660E-16	4.906784E-18
3.997570E+03	2.536751E-16	4.935453E-18
4.007514E+03	2.553408E-16	4.959310E-18
4.017458E+03	2.567695E-16	4.978509E-18
4.027402E+03	2.579754E-16	4.993345E-18
4.037346E+03	2.589730E-16	5.004125E-18
4.047291E+03	2.597796E-16	5.011202E-18
4.057235E+03	2.604143E-16	5.014966E-18
4.067179E+03	2.609001E-16	5.015874E-18
4.077123E+03	2.612555E-16	5.014299E-18
4.087067E+03	2.615021E-16	5.010664E-18
4.097012E+03	2.616658E-16	5.005482E-18
4.106956E+03	2.617636E-16	4.999081E-18
4.116900E+03	2.618187E-16	4.991913E-18
4.126844E+03	2.618518E-16	4.984374E-18
4.136788E+03	2.618831E-16	4.976855E-18
4.146733E+03	2.619324E-16	4.969727E-18
4.156677E+03	2.620191E-16	4.963361E-18
4.166621E+03	2.621626E-16	4.958120E-18
4.176565E+03	2.623823E-16	4.954365E-18
4.186509E+03	2.626973E-16	4.952451E-18
4.196454E+03	2.631266E-16	4.952729E-18
4.206398E+03	2.636873E-16	4.955508E-18
4.216342E+03	2.643986E-16	4.961141E-18
4.226286E+03	2.652830E-16	4.970034E-18
4.236231E+03	2.663608E-16	4.982558E-18
4.246175E+03	2.676483E-16	4.999001E-18
4.256119E+03	2.691700E-16	5.019801E-18
4.266063E+03	2.709484E-16	5.045361E-18
4.276007E+03	2.730063E-16	5.076084E-18
4.285952E+03	2.753668E-16	5.112380E-18
4.295896E+03	2.780502E-16	5.154603E-18
4.305840E+03	2.810828E-16	5.203217E-18
4.315784E+03	2.844787E-16	5.258454E-18
4.325728E+03	2.882596E-16	5.320693E-18
4.335673E+03	2.924397E-16	5.390168E-18
4.345617E+03	2.970323E-16	5.467097E-18
4.355561E+03	3.020447E-16	5.551586E-18
4.365505E+03	3.074836E-16	5.643731E-18
4.375449E+03	3.133482E-16	5.743494E-18
4.385394E+03	3.196392E-16	5.850857E-18
4.395338E+03	3.263461E-16	5.965606E-18
4.405282E+03	3.334507E-16	6.087386E-18
4.415226E+03	3.409333E-16	6.215814E-18
4.425170E+03	3.487595E-16	6.350244E-18
4.435115E+03	3.568860E-16	6.489874E-18
4.445059E+03	3.652626E-16	6.633773E-18
4.455003E+03	3.738184E-16	6.780648E-18
4.464947E+03	3.824809E-16	6.929183E-18
4.474891E+03	3.911647E-16	7.077828E-18
4.484836E+03	3.997730E-16	7.224844E-18
4.494780E+03	4.082076E-16	7.368468E-18
4.504724E+03	4.163665E-16	7.506883E-18
4.514668E+03	4.241477E-16	7.638273E-18
4.524612E+03	4.314534E-16	7.760913E-18
4.534557E+03	4.381876E-16	7.873110E-18
4.544501E+03	4.442618E-16	7.973321E-18
4.554445E+03	4.496134E-16	8.060466E-18
4.564389E+03	4.541769E-16	8.133419E-18
4.574333E+03	4.579097E-16	8.191471E-18
4.584278E+03	4.608027E-16	8.234510E-18
4.594222E+03	4.628644E-16	8.262737E-18
4.604166E+03	4.641101E-16	8.276473E-18
4.614110E+03	4.646040E-16	8.276909E-18
4.624054E+03	4.643958E-16	8.264970E-18
4.633999E+03	4.635741E-16	8.242269E-18
4.643943E+03	4.622232E-16	8.210335E-18
4.653887E+03	4.604335E-16	8.170799E-18
4.663831E+03	4.582979E-16	8.125327E-18
4.673775E+03	4.559083E-16	8.075566E-18
4.683720E+03	4.533641E-16	8.023282E-18
4.693664E+03	4.507470E-16	7.969928E-18
4.703608E+03	4.481365E-16	7.916907E-18
4.713552E+03	4.456100E-16	7.865585E-18
4.723496E+03	4.432240E-16	7.816953E-18
4.733441E+03	4.410475E-16	7.772219E-18
4.743385E+03	4.391151E-16	7.731980E-18
4.753329E+03	4.374761E-16	7.697094E-18
4.763273E+03	4.361635E-16	7.668128E-18
4.773217E+03	4.351954E-16	7.645384E-18
4.783162E+03	4.345973E-16	7.629299E-18
4.793106E+03	4.343870E-16	7.620167E-18
4.803050E+03	4.345637E-16	7.617964E-18
4.812994E+03	4.351339E-16	7.622788E-18
4.822938E+03	4.360923E-16	7.634531E-18
4.832883E+03	4.374242E-16	7.652920E-18
4.842827E+03	4.391155E-16	7.677698E-18
4.852771E+03	4.411515E-16	7.708597E-18
4.862715E+03	4.435065E-16	7.745156E-18
4.872660E+03	4.461618E-16	7.787041E-18
4.882604E+03	4.490827E-16	7.833637E-18
4.892548E+03	4.522478E-16	7.884567E-18
4.902492E+03	4.556354E-16	7.939445E-18
4.912436E+03	4.592243E-16	7.997898E-18
4.922381E+03	4.630086E-16	8.059819E-18
4.932325E+03	4.669798E-16	8.125061E-18
4.942269E+03	4.711498E-16	8.193822E-18
4.952213E+03	4.755281E-16	8.266271E-18
4.962157E+03	4.801355E-16	8.342764E-18
4.972102E+03	4.849958E-16	8.423714E-18
4.982046E+03	4.901527E-16	8.509874E-18
4.991990E+03	4.956310E-16	8.601673E-18
5.001934E+03	5.014641E-16	8.699689E-18
5.011878E+03	5.076889E-16	8.804556E-18
5.021823E+03	5.143269E-16	8.916648E-18
5.031767E+03	5.213939E-16	9.036229E-18
5.041711E+03	5.288973E-16	9.163432E-18
5.051655E+03	5.368374E-16	9.298256E-18
5.061599E+03	5.451992E-16	9.440440E-18
5.071544E+03	5.539639E-16	9.589659E-18
5.081488E+03	5.631104E-16	9.745548E-18
5.091432E+03	5.725920E-16	9.907302E-18
5.101376E+03	5.823774E-16	1.007438E-17
5.111320E+03	5.923989E-16	1.024561E-17
5.121265E+03	6.026154E-16	1.042030E-17
5.131209E+03	6.129623E-16	1.059733E-17
5.141153E+03	6.233741E-16	1.077557E-17
5.151097E+03	6.337779E-16	1.095377E-17
5.161041E+03	6.440882E-16	1.113046E-17
5.170986E+03	6.542211E-16	1.130420E-17
5.180930E+03	6.640818E-16	1.147335E-17
5.190874E+03	6.735941E-16	1.163662E-17
5.200818E+03	6.826492E-16	1.179213E-17
5.210762E+03	6.911703E-16	1.193857E-17
5.220707E+03	6.990794E-16	1.207458E-17
5.230651E+03	7.063069E-16	1.219899E-17
5.240595E+03	7.127797E-16	1.231053E-17
5.250539E+03	7.184583E-16	1.240852E-17
5.260483E+03	7.233004E-16	1.249225E-17
5.270428E+03	7.272843E-16	1.256134E-17
5.280372E+03	7.303940E-16	1.261551E-17
5.290316E+03	7.326426E-16	1.265500E-17
5.300260E+03	7.340350E-16	1.267989E-17
5.310204E+03	7.346037E-16	1.269073E-17
5.320149E+03	7.343858E-16	1.268817E-17
5.330093E+03	7.334442E-16	1.267329E-17
5.340037E+03	7.318197E-16	1.264679E-17
5.349981E+03	7.295854E-16	1.260993E-17
5.359925E+03	7.267978E-16	1.256369E-17
5.369870E+03	7.235090E-16	1.250894E-17
5.379814E+03	7.197471E-16	1.244617E-17
5.389758E+03	7.155395E-16	1.237585E-17
5.399702E+03	7.109062E-16	1.229830E-17
5.409646E+03	7.058346E-16	1.221330E-17
5.419591E+03	7.003342E-16	1.212100E-17
5.429535E+03	6.943945E-16	1.202121E-17
5.439479E+03	6.880253E-16	1.191408E-17
5.449423E+03	6.812770E-16	1.180047E-17
5.459367E+03	6.741800E-16	1.168091E-17
5.469312E+03	6.668052E-16	1.155659E-17
5.479256E+03	6.592247E-16	1.142877E-17
5.489200E+03	6.515440E-16	1.129927E-17
5.499144E+03	6.438511E-16	1.116959E-17
5.509089E+03	6.362742E-16	1.104196E-17
5.519033E+03	6.289409E-16	1.091860E-17
5.528977E+03	6.220027E-16	1.080211E-17
5.538921E+03	6.155895E-16	1.069478E-17
5.548865E+03	6.098428E-16	1.059905E-17
5.558810E+03	6.048902E-16	1.051717E-17
5.568754E+03	6.008568E-16	1.045131E-17
5.578698E+03	5.978372E-16	1.040314E-17
5.588642E+03	5.959250E-16	1.037430E-17
5.598586E+03	5.951922E-16	1.036607E-17
5.608531E+03	5.956895E-16	1.037937E-17
5.618475E+03	5.974575E-16	1.041492E-17
5.628419E+03	6.005010E-16	1.047284E-17
5.638363E+03	6.048200E-16	1.055316E-17
5.648307E+03	6.103971E-16	1.065561E-17
5.658252E+03	6.171861E-16	1.077942E-17
5.668196E+03	6.251212E-16	1.092346E-17
5.678140E+03	6.341178E-16	1.108630E-17
5.688084E+03	6.440841E-16	1.126636E-17
5.698028E+03	6.548807E-16	1.146122E-17
5.707973E+03	6.663754E-16	1.166860E-17
5.717917E+03	6.784054E-16	1.188567E-17
5.727861E+03	6.907822E-16	1.210914E-17
5.737805E+03	7.033179E-16	1.233574E-17
5.747749E+03	7.158184E-16	1.256207E-17
5.757694E+03	7.280682E-16	1.278435E-17
5.767638E+03	7.398633E-16	1.299898E-17
5.777582E+03	7.510385E-16	1.320306E-17
5.787526E+03	7.614117E-16	1.339336E-17
5.797470E+03	7.708467E-16	1.356748E-17
5.807415E+03	7.792356E-16	1.372348E-17
5.817359E+03	7.864990E-16	1.385992E-17
5.827303E+03	7.925898E-16	1.397596E-17
5.837247E+03	7.974639E-16	1.407077E-17
5.847191E+03	8.011348E-16	1.414456E-17
5.857136E+03	8.036050E-16	1.419732E-17
5.867080E+03	8.048976E-16	1.422943E-17
5.877024E+03	8.050462E-16	1.424144E-17
5.886968E+03	8.040942E-16	1.423408E-17
5.896912E+03	8.021000E-16	1.420834E-17
5.906857E+03	7.991008E-16	1.416485E-17
5.916801E+03	7.951582E-16	1.410466E-17
5.926745E+03	7.903462E-16	1.402905E-17
5.936689E+03	7.847338E-16	1.393922E-17
5.946633E+03	7.783757E-16	1.383609E-17
5.956578E+03	7.713653E-16	1.372131E-17
5.966522E+03	7.637554E-16	1.359579E-17
5.976466E+03	7.556599E-16	1.346153E-17
5.986410E+03	7.471496E-16	1.331977E-17
5.996354E+03	7.383288E-16	1.317235E-17
6.006299E+03	7.293165E-16	1.302138E-17
6.016243E+03	7.202202E-16	1.286878E-17
6.026187E+03	7.111578E-16	1.271664E-17
6.036131E+03	7.022270E-16	1.256670E-17
6.046075E+03	6.935497E-16	1.242117E-17
6.056020E+03	6.851988E-16	1.228135E-17
6.065964E+03	6.772800E-16	1.214914E-17
6.075908E+03	6.698586E-16	1.202574E-17
6.085852E+03	6.629897E-16	1.191216E-17
6.095796E+03	6.567273E-16	1.180939E-17
6.105741E+03	6.511208E-16	1.171834E-17
6.115685E+03	6.461934E-16	1.163947E-17
6.125629E+03	6.419668E-16	1.157318E-17
6.135573E+03	6.384658E-16	1.151996E-17
6.145518E+03	6.356716E-16	1.147951E-17
6.155462E+03	6.335791E-16	1.145176E-17
6.165406E+03	6.321675E-16	1.143638E-17
6.175350E+03	6.314052E-16	1.143282E-17
6.185294E+03	6.312339E-16	1.144005E-17
6.195239E+03	6.315923E-16	1.145699E-17
6.205183E+03	6.324208E-16	1.148259E-17
6.215127E+03	6.336411E-16	1.151543E-17
6.225071E+03	6.351933E-16	1.155445E-17
6.235015E+03	6.370112E-16	1.159846E-17
6.244960E+03	6.390426E-16	1.164651E-17
6.254904E+03	6.412375E-16	1.169771E-17
6.264848E+03	6.435523E-16	1.175127E-17
6.274792E+03	6.459607E-16	1.180671E-17
6.284736E+03	6.484477E-16	1.186375E-17
6.294681E+03	6.509890E-16	1.192197E-17
6.304625E+03	6.535835E-16	1.198133E-17
6.314569E+03	6.562374E-16	1.204196E-17
6.324513E+03	6.589432E-16	1.210371E-17
6.334457E+03	6.617225E-16	1.216699E-17
6.344402E+03	6.645786E-16	1.223187E-17
6.354346E+03	6.675149E-16	1.229840E-17
6.364290E+03	6.705336E-16	1.236663E-17
6.374234E+03	6.736515E-16	1.243687E-17
6.384178E+03	6.768551E-16	1.250888E-17
6.394123E+03	6.801563E-16	1.258289E-17
6.404067E+03	6.835425E-16	1.265866E-17
6.414011E+03	6.869968E-16	1.273589E-17
6.423955E+03	6.905107E-16	1.281441E-17
6.433899E+03	6.940602E-16	1.289380E-17
6.443844E+03	6.976303E-16	1.297376E-17
6.453788E+03	7.011712E-16	1.305337E-17
6.463732E+03	7.046732E-16	1.313246E-17
6.473676E+03	7.081040E-16	1.321041E-17
6.483620E+03	7.114178E-16	1.328636E-17
6.493565E+03	7.145897E-16	1.335984E-17
6.503509E+03	7.175822E-16	1.343015E-17
6.513453E+03	7.203590E-16	1.349658E-17
6.523397E+03	7.228864E-16	1.355849E-17
6.533341E+03	7.251445E-16	1.361549E-17
6.543286E+03	7.270942E-16	1.366683E-17
6.553230E+03	7.287141E-16	1.371210E-17
6.563174E+03	7.300006E-16	1.375119E-17
6.573118E+03	7.309427E-16	1.378388E-17
6.583062E+03	7.315260E-16	1.380988E-17
6.593007E+03	7.317652E-16	1.382944E-17
6.602951E+03	7.316577E-16	1.384249E-17
6.612895E+03	7.312447E-16	1.384979E-17
6.622839E+03	7.305243E-16	1.385128E-17
6.632783E+03	7.295262E-16	1.384751E-17
6.642728E+03	7.282997E-16	1.383939E-17
6.652672E+03	7.268864E-16	1.382771E-17
6.662616E+03	7.253199E-16	1.381308E-17
6.672560E+03	7.236465E-16	1.379639E-17
6.682504E+03	7.219270E-16	1.377879E-17
6.692449E+03	7.201954E-16	1.376091E-17
6.702393E+03	7.185063E-16	1.374381E-17
6.712337E+03	7.168740E-16	1.372776E-17
6.722281E+03	7.153605E-16	1.371395E-17
6.732225E+03	7.139733E-16	1.370254E-17
6.742170E+03	7.127678E-16	1.369459E-17
6.752114E+03	7.117456E-16	1.369015E-17
6.762058E+03	7.109428E-16	1.368992E-17
6.772002E+03	7.103793E-16	1.369431E-17
6.781946E+03	7.100592E-16	1.370340E-17
6.791891E+03	7.100060E-16	1.371768E-17
6.801835E+03	7.102134E-16	1.373702E-17
6.811779E+03	7.106974E-16	1.376177E-17
6.821723E+03	7.114279E-16	1.379135E-17
6.831668E+03	7.124234E-16	1.382615E-17
6.841612E+03	7.136601E-16	1.386571E-17
6.851556E+03	7.151234E-16	1.390977E-17
6.861500E+03	7.167824E-16	1.395774E-17
6.871444E+03	7.186452E-16	1.400980E-17
6.881389E+03	7.206490E-16	1.406474E-17
6.891333E+03	7.228119E-16	1.412291E-17
6.901277E+03	7.250821E-16	1.418332E-17
6.911221E+03	7.274346E-16	1.424549E-17
6.921165E+03	7.298571E-16	1.430918E-17
6.931110E+03	7.323094E-16	1.437361E-17
6.941054E+03	7.347651E-16	1.443826E-17
6.950998E+03	7.371981E-16	1.450262E-17
6.960942E+03	7.395825E-16	1.456619E-17
6.970886E+03	7.418943E-16	1.462849E-17
6.980831E+03	7.440945E-16	1.468874E-17
6.990775E+03	7.461904E-16	1.474709E-17
7.000719E+03	7.481158E-16	1.480221E-17
7.010663E+03	7.498950E-16	1.485459E-17
7.020607E+03	7.514649E-16	1.490296E-17
7.030552E+03	7.528397E-16	1.494758E-17
7.040496E+03	7.539915E-16	1.498791E-17
7.050440E+03	7.549084E-16	1.502368E-17
7.060384E+03	7.555977E-16	1.505502E-17
7.070328E+03	7.560225E-16	1.508119E-17
7.080273E+03	7.561925E-16	1.510237E-17
7.090217E+03	7.560883E-16	1.511814E-17
7.100161E+03	7.557206E-16	1.512871E-17
7.110105E+03	7.550860E-16	1.513399E-17
7.120049E+03	7.541635E-16	1.513354E-17
7.129994E+03	7.529629E-16	1.512755E-17
7.139938E+03	7.514480E-16	1.511525E-17
7.149882E+03	7.496443E-16	1.509716E-17
7.159826E+03	7.475311E-16	1.507282E-17
7.169770E+03	7.450897E-16	1.504185E-17
7.179715E+03	7.423328E-16	1.500448E-17
7.189659E+03	7.392597E-16	1.496066E-17
7.199603E+03	7.358560E-16	1.491008E-17
7.209547E+03	7.321238E-16	1.485277E-17
7.219491E+03	7.280665E-16	1.478878E-17
7.229436E+03	7.236906E-16	1.471820E-17
7.239380E+03	7.190040E-16	1.464117E-17
7.249324E+03	7.139879E-16	1.455729E-17
7.259268E+03	7.086859E-16	1.446743E-17
7.269212E+03	7.031011E-16	1.437163E-17
7.279157E+03	6.972402E-16	1.426999E-17
7.289101E+03	6.911423E-16	1.416330E-17
7.299045E+03	6.848071E-16	1.405154E-17
7.308989E+03	6.782660E-16	1.393533E-17
7.318933E+03	6.715536E-16	1.381536E-17
7.328878E+03	6.646933E-16	1.369210E-17
7.338822E+03	6.577385E-16	1.356665E-17
7.348766E+03	6.506881E-16	1.343896E-17
7.358710E+03	6.436121E-16	1.331048E-17
7.368654E+03	6.365261E-16	1.318153E-17
7.378599E+03	6.294851E-16	1.305324E-17
7.388543E+03	6.225157E-16	1.292617E-17
7.398487E+03	6.156568E-16	1.280113E-17
7.408431E+03	6.089555E-16	1.267911E-17
7.418375E+03	6.024296E-16	1.256050E-17
7.428320E+03	5.961443E-16	1.244666E-17
7.438264E+03	5.900957E-16	1.233754E-17
7.448208E+03	5.843279E-16	1.223407E-17
7.458152E+03	5.788427E-16	1.213633E-17
7.468097E+03	5.736896E-16	1.204536E-17
7.478041E+03	5.688632E-16	1.196109E-17
7.487985E+03	5.643692E-16	1.188366E-17
7.497929E+03	5.602226E-16	1.181342E-17
7.507873E+03	5.564241E-16	1.175041E-17
7.517818E+03	5.529969E-16	1.169514E-17
7.527762E+03	5.499135E-16	1.164706E-17
7.537706E+03	5.471823E-16	1.160638E-17
7.547650E+03	5.448096E-16	1.157325E-17
7.557594E+03	5.427772E-16	1.154734E-17
7.567539E+03	5.410891E-16	1.152873E-17
7.577483E+03	5.397246E-16	1.151703E-17
7.587427E+03	5.386975E-16	1.151256E-17
7.597371E+03	5.379688E-16	1.151452E-17
7.607315E+03	5.375393E-16	1.152293E-17
7.617260E+03	5.373560E-16	1.153671E-17
7.627204E+03	5.374135E-16	1.155574E-17
7.637148E+03	5.376571E-16	1.157888E-17
7.647092E+03	5.380814E-16	1.160602E-17
7.657036E+03	5.386443E-16	1.163628E-17
7.666981E+03	5.393175E-16	1.166904E-17
7.676925E+03	5.400727E-16	1.170371E-17
7.686869E+03	5.408836E-16	1.173973E-17
7.696813E+03	5.417251E-16	1.177654E-17
7.706757E+03	5.425611E-16	1.181337E-17
7.716702E+03	5.433949E-16	1.185029E-17
