#wls	flux	fluxerr
1.591072E+03	8.451404E-19	5.910375E-21
1.630849E+03	8.966767E-19	6.255866E-21
1.670626E+03	9.371140E-19	6.521998E-21
1.710403E+03	9.642498E-19	6.693989E-21
1.750180E+03	9.758967E-19	6.757348E-21
1.789957E+03	9.677913E-19	6.683442E-21
1.829733E+03	9.356220E-19	6.443668E-21
1.869510E+03	8.763944E-19	6.018858E-21
1.909287E+03	7.900396E-19	5.410180E-21
1.949064E+03	6.820601E-19	4.656930E-21
1.988841E+03	5.646991E-19	3.843910E-21
2.028617E+03	4.551144E-19	3.088303E-21
2.068394E+03	3.702979E-19	2.504708E-21
2.108171E+03	3.211171E-19	2.164901E-21
2.147948E+03	3.123402E-19	2.098615E-21
2.187725E+03	3.469553E-19	2.323106E-21
2.227501E+03	4.299104E-19	2.868295E-21
2.267278E+03	5.675322E-19	3.772639E-21
2.307055E+03	7.642738E-19	5.061394E-21
2.346832E+03	1.020514E-18	6.732293E-21
2.386609E+03	1.332776E-18	8.757496E-21
2.426386E+03	1.695959E-18	1.109868E-20
2.466162E+03	2.105257E-18	1.371980E-20
2.505939E+03	2.557316E-18	1.659459E-20
2.545716E+03	3.050677E-18	1.970919E-20
2.585493E+03	3.585709E-18	2.306156E-20
2.625270E+03	4.164367E-18	2.665955E-20
2.665046E+03	4.789895E-18	3.051884E-20
2.704823E+03	5.465932E-18	3.465705E-20
2.744600E+03	6.197480E-18	3.909972E-20
2.784377E+03	6.989530E-18	4.387149E-20
2.824154E+03	7.846767E-18	4.899421E-20
2.863930E+03	8.774928E-18	5.449537E-20
2.903707E+03	9.780978E-18	6.040901E-20
2.943484E+03	1.087661E-17	6.679693E-20
2.983261E+03	1.207569E-17	7.373232E-20
2.993205E+03	1.239369E-17	7.556271E-20
3.003149E+03	1.271939E-17	7.743373E-20
3.013094E+03	1.305326E-17	7.934802E-20
3.023038E+03	1.339639E-17	8.131195E-20
3.032982E+03	1.375261E-17	8.334837E-20
3.042926E+03	1.412589E-17	8.548088E-20
3.052870E+03	1.451692E-17	8.771320E-20
3.062815E+03	1.492488E-17	9.003985E-20
3.072759E+03	1.535002E-17	9.246183E-20
3.082703E+03	1.579159E-17	9.497400E-20
3.092647E+03	1.624991E-17	9.757781E-20
3.102591E+03	1.672426E-17	1.002685E-19
3.112536E+03	1.721505E-17	1.030478E-19
3.122480E+03	1.772158E-17	1.059113E-19
3.132424E+03	1.824395E-17	1.088588E-19
3.142368E+03	1.878226E-17	1.118905E-19
3.152312E+03	1.933588E-17	1.150022E-19
3.162257E+03	1.990534E-17	1.181964E-19
3.172201E+03	2.049045E-17	1.214715E-19
3.182145E+03	2.109100E-17	1.248258E-19
3.192089E+03	2.170722E-17	1.282600E-19
3.202033E+03	2.233896E-17	1.317728E-19
3.211978E+03	2.298649E-17	1.353652E-19
3.221922E+03	2.364970E-17	1.390361E-19
3.231866E+03	2.432850E-17	1.427841E-19
3.241810E+03	2.502322E-17	1.466110E-19
3.251754E+03	2.573425E-17	1.505183E-19
3.261699E+03	2.646112E-17	1.545027E-19
3.271643E+03	2.720381E-17	1.585636E-19
3.281587E+03	2.796322E-17	1.627056E-19
3.291531E+03	2.873895E-17	1.669256E-19
3.301475E+03	2.953150E-17	1.712263E-19
3.311420E+03	3.034096E-17	1.756073E-19
3.321364E+03	3.116699E-17	1.800662E-19
3.331308E+03	3.201021E-17	1.846058E-19
3.341252E+03	3.287126E-17	1.892292E-19
3.351196E+03	3.374941E-17	1.939317E-19
3.361141E+03	3.464541E-17	1.987167E-19
3.371085E+03	3.555955E-17	2.035855E-19
3.381029E+03	3.649219E-17	2.085393E-19
3.390973E+03	3.744277E-17	2.135742E-19
3.400917E+03	3.841272E-17	2.186978E-19
3.410862E+03	3.940161E-17	2.239067E-19
3.420806E+03	4.040952E-17	2.292008E-19
3.430750E+03	4.143767E-17	2.345863E-19
3.440694E+03	4.248531E-17	2.400582E-19
3.450638E+03	4.355332E-17	2.456206E-19
3.460583E+03	4.464217E-17	2.512755E-19
3.470527E+03	4.575203E-17	2.570229E-19
3.480471E+03	4.688297E-17	2.628626E-19
3.490415E+03	4.803548E-17	2.687964E-19
3.500359E+03	4.920832E-17	2.748166E-19
3.510304E+03	5.040281E-17	2.809297E-19
3.520248E+03	5.161859E-17	2.871328E-19
3.530192E+03	5.285453E-17	2.934190E-19
3.540136E+03	5.411014E-17	2.997847E-19
3.550080E+03	5.538563E-17	3.062302E-19
3.560025E+03	5.667976E-17	3.127479E-19
3.569969E+03	5.799197E-17	3.193340E-19
3.579913E+03	5.932236E-17	3.259884E-19
3.589857E+03	6.067050E-17	3.327078E-19
3.599802E+03	6.203891E-17	3.395054E-19
3.609746E+03	6.342867E-17	3.463863E-19
3.619690E+03	6.484315E-17	3.533679E-19
3.629634E+03	6.628336E-17	3.604548E-19
3.639578E+03	6.775131E-17	3.676569E-19
3.649523E+03	6.924935E-17	3.749858E-19
3.659467E+03	7.077859E-17	3.824463E-19
3.669411E+03	7.234193E-17	3.900529E-19
3.679355E+03	7.394045E-17	3.978102E-19
3.689299E+03	7.557580E-17	4.057255E-19
3.699244E+03	7.725100E-17	4.138137E-19
3.709188E+03	7.896769E-17	4.220819E-19
3.719132E+03	8.072823E-17	4.305413E-19
3.729076E+03	8.253401E-17	4.391974E-19
3.739020E+03	8.438701E-17	4.480592E-19
3.748965E+03	8.628895E-17	4.571338E-19
3.758909E+03	8.823961E-17	4.664184E-19
3.768853E+03	9.024133E-17	4.759232E-19
3.778797E+03	9.229359E-17	4.856438E-19
3.788741E+03	9.439528E-17	4.955722E-19
3.798686E+03	9.654618E-17	5.057055E-19
3.808630E+03	9.874417E-17	5.160307E-19
3.818574E+03	1.009872E-16	5.265355E-19
3.828518E+03	1.032721E-16	5.372008E-19
3.838462E+03	1.055965E-16	5.480140E-19
3.848407E+03	1.079562E-16	5.589507E-19
3.858351E+03	1.103472E-16	5.699894E-19
3.868295E+03	1.127649E-16	5.811049E-19
3.878239E+03	1.152032E-16	5.922650E-19
3.888183E+03	1.176563E-16	6.034388E-19
3.898128E+03	1.201175E-16	6.145920E-19
3.908072E+03	1.225797E-16	6.256873E-19
3.918016E+03	1.250332E-16	6.366752E-19
3.927960E+03	1.274715E-16	6.475236E-19
3.937904E+03	1.298833E-16	6.581751E-19
3.947849E+03	1.322617E-16	6.685961E-19
3.957793E+03	1.345960E-16	6.787342E-19
3.967737E+03	1.368778E-16	6.885477E-19
3.977681E+03	1.390979E-16	6.979934E-19
3.987625E+03	1.412503E-16	7.070427E-19
3.997570E+03	1.433255E-16	7.156515E-19
4.007514E+03	1.453210E-16	7.238096E-19
4.017458E+03	1.472302E-16	7.314877E-19
4.027402E+03	1.490530E-16	7.386886E-19
4.037346E+03	1.507892E-16	7.454143E-19
4.047291E+03	1.524418E-16	7.516827E-19
4.057235E+03	1.540125E-16	7.575060E-19
4.067179E+03	1.555112E-16	7.629353E-19
4.077123E+03	1.569454E-16	7.680102E-19
4.087067E+03	1.583255E-16	7.727845E-19
4.097012E+03	1.596647E-16	7.773244E-19
4.106956E+03	1.609762E-16	7.816952E-19
4.116900E+03	1.622738E-16	7.859654E-19
4.126844E+03	1.635743E-16	7.902166E-19
4.136788E+03	1.648897E-16	7.945070E-19
4.146733E+03	1.662371E-16	7.989179E-19
4.156677E+03	1.676309E-16	8.035176E-19
4.166621E+03	1.690854E-16	8.083730E-19
4.176565E+03	1.706172E-16	8.135606E-19
4.186509E+03	1.722385E-16	8.191362E-19
4.196454E+03	1.739650E-16	8.251715E-19
4.206398E+03	1.758082E-16	8.317160E-19
4.216342E+03	1.777839E-16	8.388411E-19
4.226286E+03	1.799034E-16	8.465949E-19
4.236231E+03	1.821786E-16	8.550283E-19
4.246175E+03	1.846211E-16	8.641894E-19
4.256119E+03	1.872429E-16	8.741293E-19
4.266063E+03	1.900544E-16	8.848893E-19
4.276007E+03	1.930668E-16	8.965147E-19
4.285952E+03	1.962875E-16	9.090331E-19
4.295896E+03	1.997290E-16	9.224947E-19
4.305840E+03	2.033950E-16	9.369086E-19
4.315784E+03	2.072919E-16	9.522961E-19
4.325728E+03	2.114241E-16	9.686698E-19
4.335673E+03	2.157889E-16	9.860088E-19
4.345617E+03	2.203855E-16	1.004302E-18
4.355561E+03	2.252047E-16	1.023499E-18
4.365505E+03	2.302327E-16	1.043530E-18
4.375449E+03	2.354512E-16	1.064305E-18
4.385394E+03	2.408327E-16	1.085695E-18
4.395338E+03	2.463729E-16	1.107674E-18
4.405282E+03	2.520971E-16	1.130351E-18
4.415226E+03	2.580283E-16	1.153824E-18
4.425170E+03	2.641795E-16	1.178143E-18
4.435115E+03	2.705585E-16	1.203338E-18
4.445059E+03	2.771737E-16	1.229436E-18
4.455003E+03	2.840142E-16	1.256384E-18
4.464947E+03	2.910698E-16	1.284129E-18
4.474891E+03	2.983166E-16	1.312560E-18
4.484836E+03	3.057255E-16	1.341543E-18
4.494780E+03	3.132528E-16	1.370883E-18
4.504724E+03	3.208502E-16	1.400366E-18
4.514668E+03	3.284566E-16	1.429725E-18
4.524612E+03	3.360071E-16	1.458679E-18
4.534557E+03	3.434346E-16	1.486941E-18
4.544501E+03	3.506645E-16	1.514194E-18
4.554445E+03	3.576299E-16	1.540159E-18
4.564389E+03	3.642544E-16	1.564518E-18
4.574333E+03	3.704742E-16	1.587011E-18
4.584278E+03	3.762283E-16	1.607392E-18
4.594222E+03	3.814632E-16	1.625451E-18
4.604166E+03	3.861337E-16	1.641014E-18
4.614110E+03	3.902040E-16	1.653950E-18
4.624054E+03	3.936425E-16	1.664146E-18
4.633999E+03	3.964396E-16	1.671585E-18
4.643943E+03	3.985956E-16	1.676289E-18
4.653887E+03	4.001140E-16	1.678295E-18
4.663831E+03	4.010267E-16	1.677759E-18
4.673775E+03	4.013724E-16	1.674863E-18
4.683720E+03	4.012133E-16	1.669884E-18
4.693664E+03	4.006224E-16	1.663142E-18
4.703608E+03	3.996785E-16	1.654977E-18
4.713552E+03	3.984700E-16	1.645766E-18
4.723496E+03	3.970781E-16	1.635854E-18
4.733441E+03	3.955951E-16	1.625624E-18
4.743385E+03	3.941028E-16	1.615415E-18
4.753329E+03	3.926801E-16	1.605551E-18
4.763273E+03	3.913905E-16	1.596288E-18
4.773217E+03	3.902891E-16	1.587846E-18
4.783162E+03	3.894612E-16	1.580568E-18
4.793106E+03	3.889988E-16	1.574815E-18
4.803050E+03	3.889868E-16	1.570923E-18
4.812994E+03	3.894789E-16	1.569094E-18
4.822938E+03	3.905180E-16	1.569486E-18
4.832883E+03	3.921098E-16	1.572107E-18
4.842827E+03	3.942626E-16	1.576975E-18
4.852771E+03	3.969535E-16	1.583985E-18
4.862715E+03	4.001447E-16	1.592971E-18
4.872660E+03	4.037939E-16	1.603752E-18
4.882604E+03	4.078455E-16	1.616097E-18
4.892548E+03	4.122357E-16	1.629742E-18
4.902492E+03	4.168897E-16	1.644385E-18
4.912436E+03	4.217342E-16	1.659731E-18
4.922381E+03	4.266880E-16	1.675457E-18
4.932325E+03	4.316608E-16	1.691209E-18
4.942269E+03	4.365833E-16	1.706716E-18
4.952213E+03	4.413672E-16	1.721636E-18
4.962157E+03	4.459534E-16	1.735744E-18
4.972102E+03	4.502836E-16	1.748820E-18
4.982046E+03	4.543194E-16	1.760722E-18
4.991990E+03	4.580379E-16	1.771371E-18
5.001934E+03	4.614501E-16	1.780818E-18
5.011878E+03	4.645689E-16	1.789120E-18
5.021823E+03	4.674309E-16	1.796427E-18
5.031767E+03	4.700883E-16	1.802946E-18
5.041711E+03	4.725977E-16	1.808899E-18
5.051655E+03	4.750103E-16	1.814484E-18
5.061599E+03	4.773969E-16	1.819977E-18
5.071544E+03	4.798105E-16	1.825579E-18
5.081488E+03	4.823141E-16	1.831531E-18
5.091432E+03	4.849626E-16	1.838037E-18
5.101376E+03	4.878052E-16	1.845284E-18
5.111320E+03	4.908809E-16	1.853414E-18
5.121265E+03	4.942265E-16	1.862562E-18
5.131209E+03	4.978721E-16	1.872837E-18
5.141153E+03	5.018427E-16	1.884328E-18
5.151097E+03	5.061576E-16	1.897101E-18
5.161041E+03	5.108308E-16	1.911204E-18
5.170986E+03	5.158722E-16	1.926668E-18
5.180930E+03	5.212814E-16	1.943485E-18
5.190874E+03	5.270593E-16	1.961654E-18
5.200818E+03	5.332081E-16	1.981178E-18
5.210762E+03	5.397168E-16	2.002010E-18
5.220707E+03	5.465774E-16	2.024118E-18
5.230651E+03	5.537763E-16	2.047445E-18
5.240595E+03	5.613168E-16	2.072002E-18
5.250539E+03	5.691835E-16	2.097727E-18
5.260483E+03	5.773844E-16	2.124647E-18
5.270428E+03	5.859319E-16	2.152805E-18
5.280372E+03	5.948405E-16	2.182251E-18
5.290316E+03	6.041654E-16	2.213184E-18
5.300260E+03	6.139659E-16	2.245818E-18
5.310204E+03	6.243283E-16	2.280465E-18
5.320149E+03	6.353584E-16	2.317503E-18
5.330093E+03	6.471794E-16	2.357378E-18
5.340037E+03	6.599215E-16	2.400553E-18
5.349981E+03	6.737321E-16	2.447556E-18
5.359925E+03	6.887346E-16	2.498824E-18
5.369870E+03	7.049544E-16	2.554438E-18
5.379814E+03	7.220919E-16	2.613303E-18
5.389758E+03	7.397448E-16	2.673958E-18
5.399702E+03	7.574720E-16	2.734810E-18
5.409646E+03	7.748569E-16	2.794364E-18
5.419591E+03	7.914667E-16	2.851068E-18
5.429535E+03	8.069416E-16	2.903642E-18
5.439479E+03	8.209818E-16	2.951026E-18
5.449423E+03	8.333455E-16	2.992371E-18
5.459367E+03	8.438216E-16	3.026942E-18
5.469312E+03	8.522666E-16	3.054247E-18
5.479256E+03	8.585880E-16	3.073979E-18
5.489200E+03	8.627453E-16	3.086014E-18
5.499144E+03	8.647547E-16	3.090433E-18
5.509089E+03	8.646844E-16	3.087500E-18
5.519033E+03	8.626626E-16	3.077689E-18
5.528977E+03	8.589011E-16	3.061773E-18
5.538921E+03	8.536292E-16	3.040581E-18
5.548865E+03	8.471353E-16	3.015150E-18
5.558810E+03	8.397346E-16	2.986608E-18
5.568754E+03	8.317663E-16	2.956165E-18
5.578698E+03	8.235458E-16	2.924943E-18
5.588642E+03	8.154040E-16	2.894115E-18
5.598586E+03	8.076437E-16	2.864752E-18
5.608531E+03	8.005322E-16	2.837795E-18
5.618475E+03	7.943212E-16	2.814130E-18
5.628419E+03	7.892082E-16	2.794449E-18
5.638363E+03	7.853716E-16	2.779374E-18
5.648307E+03	7.829290E-16	2.769311E-18
5.658252E+03	7.819964E-16	2.764663E-18
5.668196E+03	7.826412E-16	2.765660E-18
5.678140E+03	7.848859E-16	2.772372E-18
5.688084E+03	7.887581E-16	2.784890E-18
5.698028E+03	7.942356E-16	2.803129E-18
5.707973E+03	8.012895E-16	2.826981E-18
5.717917E+03	8.098503E-16	2.856197E-18
5.727861E+03	8.198347E-16	2.890479E-18
5.737805E+03	8.311463E-16	2.929483E-18
5.747749E+03	8.436579E-16	2.972762E-18
5.757694E+03	8.572116E-16	3.019757E-18
5.767638E+03	8.716482E-16	3.069909E-18
5.777582E+03	8.867904E-16	3.122594E-18
5.787526E+03	9.024159E-16	3.177031E-18
5.797470E+03	9.183194E-16	3.232501E-18
5.807415E+03	9.342893E-16	3.288262E-18
5.817359E+03	9.500900E-16	3.343489E-18
5.827303E+03	9.655093E-16	3.397439E-18
5.837247E+03	9.803318E-16	3.449358E-18
5.847191E+03	9.943540E-16	3.498535E-18
5.857136E+03	1.007377E-15	3.544272E-18
5.867080E+03	1.019256E-15	3.586066E-18
5.877024E+03	1.029848E-15	3.623413E-18
5.886968E+03	1.039021E-15	3.655855E-18
5.896912E+03	1.046696E-15	3.683115E-18
5.906857E+03	1.052810E-15	3.704971E-18
5.916801E+03	1.057342E-15	3.721349E-18
5.926745E+03	1.060262E-15	3.732147E-18
5.936689E+03	1.061634E-15	3.737581E-18
5.946633E+03	1.061497E-15	3.737792E-18
5.956578E+03	1.059928E-15	3.733052E-18
5.966522E+03	1.057043E-15	3.723757E-18
5.976466E+03	1.052959E-15	3.710326E-18
5.986410E+03	1.047813E-15	3.693230E-18
5.996354E+03	1.041749E-15	3.672978E-18
6.006299E+03	1.034944E-15	3.650187E-18
6.016243E+03	1.027548E-15	3.625384E-18
6.026187E+03	1.019696E-15	3.599042E-18
6.036131E+03	1.011552E-15	3.571736E-18
6.046075E+03	1.003242E-15	3.543913E-18
6.056020E+03	9.948807E-16	3.515969E-18
6.065964E+03	9.865895E-16	3.488335E-18
6.075908E+03	9.784241E-16	3.461207E-18
6.085852E+03	9.704743E-16	3.434902E-18
6.095796E+03	9.627889E-16	3.409592E-18
6.105741E+03	9.554007E-16	3.385393E-18
6.115685E+03	9.483265E-16	3.362367E-18
6.125629E+03	9.415517E-16	3.340461E-18
6.135573E+03	9.350642E-16	3.319633E-18
6.145518E+03	9.288001E-16	3.299659E-18
6.155462E+03	9.227094E-16	3.280360E-18
6.165406E+03	9.166365E-16	3.261183E-18
6.175350E+03	9.104369E-16	3.241612E-18
6.185294E+03	9.038428E-16	3.220688E-18
6.195239E+03	8.965420E-16	3.197290E-18
6.205183E+03	8.881599E-16	3.170071E-18
6.215127E+03	8.784174E-16	3.138020E-18
6.225071E+03	8.677250E-16	3.102588E-18
6.235015E+03	8.565855E-16	3.065560E-18
6.244960E+03	8.453695E-16	3.028256E-18
6.254904E+03	8.344123E-16	2.991871E-18
6.264848E+03	8.239428E-16	2.957227E-18
6.274792E+03	8.141536E-16	2.925016E-18
6.284736E+03	8.051609E-16	2.895659E-18
6.294681E+03	7.970732E-16	2.869552E-18
6.304625E+03	7.899408E-16	2.846883E-18
6.314569E+03	7.837978E-16	2.827784E-18
6.324513E+03	7.786469E-16	2.812273E-18
6.334457E+03	7.744995E-16	2.800400E-18
6.344402E+03	7.713238E-16	2.792060E-18
6.354346E+03	7.691160E-16	2.787249E-18
6.364290E+03	7.678571E-16	2.785909E-18
6.374234E+03	7.674902E-16	2.787843E-18
6.384178E+03	7.679923E-16	2.792977E-18
6.394123E+03	7.692929E-16	2.801066E-18
6.404067E+03	7.713693E-16	2.812035E-18
6.414011E+03	7.741523E-16	2.825642E-18
6.423955E+03	7.776216E-16	2.841821E-18
6.433899E+03	7.817232E-16	2.860383E-18
6.443844E+03	7.864157E-16	2.881185E-18
6.453788E+03	7.916825E-16	2.904172E-18
6.463732E+03	7.974835E-16	2.929207E-18
6.473676E+03	8.037639E-16	2.956094E-18
6.483620E+03	8.105043E-16	2.984768E-18
6.493565E+03	8.176698E-16	3.015107E-18
6.503509E+03	8.251945E-16	3.046875E-18
6.513453E+03	8.330592E-16	3.080004E-18
6.523397E+03	8.411862E-16	3.114212E-18
6.533341E+03	8.495179E-16	3.149290E-18
6.543286E+03	8.580064E-16	3.185063E-18
6.553230E+03	8.665729E-16	3.221240E-18
6.563174E+03	8.751498E-16	3.257571E-18
6.573118E+03	8.836836E-16	3.293855E-18
6.583062E+03	8.920788E-16	3.329737E-18
6.593007E+03	9.003002E-16	3.365083E-18
6.602951E+03	9.082736E-16	3.399611E-18
6.612895E+03	9.159283E-16	3.433054E-18
6.622839E+03	9.232459E-16	3.465336E-18
6.632783E+03	9.301534E-16	3.496179E-18
6.642728E+03	9.366473E-16	3.525561E-18
6.652672E+03	9.426690E-16	3.553257E-18
6.662616E+03	9.482310E-16	3.579304E-18
6.672560E+03	9.533061E-16	3.603593E-18
6.682504E+03	9.578747E-16	3.626042E-18
6.692449E+03	9.619734E-16	3.646781E-18
6.702393E+03	9.655968E-16	3.665781E-18
6.712337E+03	9.687629E-16	3.683104E-18
6.722281E+03	9.714953E-16	3.698831E-18
6.732225E+03	9.738222E-16	3.713062E-18
6.742170E+03	9.757932E-16	3.725980E-18
6.752114E+03	9.774101E-16	3.737586E-18
6.762058E+03	9.787451E-16	3.748150E-18
6.772002E+03	9.798203E-16	3.757752E-18
6.781946E+03	9.806756E-16	3.766541E-18
6.791891E+03	9.813675E-16	3.774731E-18
6.801835E+03	9.819167E-16	3.782398E-18
6.811779E+03	9.823595E-16	3.789680E-18
6.821723E+03	9.827299E-16	3.796707E-18
6.831668E+03	9.830764E-16	3.803665E-18
6.841612E+03	9.834088E-16	3.810591E-18
6.851556E+03	9.837512E-16	3.817580E-18
6.861500E+03	9.841231E-16	3.824707E-18
6.871444E+03	9.845585E-16	3.832105E-18
6.881389E+03	9.850685E-16	3.839819E-18
6.891333E+03	9.856237E-16	3.847736E-18
6.901277E+03	9.862626E-16	3.856006E-18
6.911221E+03	9.869651E-16	3.864555E-18
6.921165E+03	9.877438E-16	3.873431E-18
6.931110E+03	9.885706E-16	3.882527E-18
6.941054E+03	9.894330E-16	3.891795E-18
6.950998E+03	9.903344E-16	3.901250E-18
6.960942E+03	9.912385E-16	3.910749E-18
6.970886E+03	9.921459E-16	3.920295E-18
6.980831E+03	9.930167E-16	3.929732E-18
6.990775E+03	9.938301E-16	3.938976E-18
7.000719E+03	9.945836E-16	3.948017E-18
7.010663E+03	9.952360E-16	3.956692E-18
7.020607E+03	9.957652E-16	3.964911E-18
7.030552E+03	9.961697E-16	3.972666E-18
7.040496E+03	9.964082E-16	3.979792E-18
7.050440E+03	9.964805E-16	3.986285E-18
7.060384E+03	9.963471E-16	3.991984E-18
7.070328E+03	9.960092E-16	3.996891E-18
7.080273E+03	9.954289E-16	4.000851E-18
7.090217E+03	9.945892E-16	4.003792E-18
7.100161E+03	9.934948E-16	4.005728E-18
7.110105E+03	9.921307E-16	4.006594E-18
7.120049E+03	9.904632E-16	4.006252E-18
7.129994E+03	9.884799E-16	4.004643E-18
7.139938E+03	9.862112E-16	4.001888E-18
7.149882E+03	9.835864E-16	3.997693E-18
7.159826E+03	9.806602E-16	3.992275E-18
7.169770E+03	9.773666E-16	3.985359E-18
7.179715E+03	9.737648E-16	3.977182E-18
7.189659E+03	9.698140E-16	3.967569E-18
7.199603E+03	9.655380E-16	3.956614E-18
7.209547E+03	9.609428E-16	3.944333E-18
7.219491E+03	9.560160E-16	3.930670E-18
7.229436E+03	9.507897E-16	3.915751E-18
7.239380E+03	9.452780E-16	3.899628E-18
7.249324E+03	9.394766E-16	3.882278E-18
7.259268E+03	9.334259E-16	3.863863E-18
7.269212E+03	9.271478E-16	3.844468E-18
7.279157E+03	9.206670E-16	3.824190E-18
7.289101E+03	9.139900E-16	3.803054E-18
7.299045E+03	9.071671E-16	3.781264E-18
7.308989E+03	9.002296E-16	3.758948E-18
7.318933E+03	8.931900E-16	3.736156E-18
7.328878E+03	8.860837E-16	3.713034E-18
7.338822E+03	8.789663E-16	3.689813E-18
7.348766E+03	8.718540E-16	3.666562E-18
7.358710E+03	8.648035E-16	3.643520E-18
7.368654E+03	8.578318E-16	3.620758E-18
7.378599E+03	8.509958E-16	3.598521E-18
7.388543E+03	8.443326E-16	3.576967E-18
7.398487E+03	8.378794E-16	3.556259E-18
7.408431E+03	8.316933E-16	3.536644E-18
7.418375E+03	8.257928E-16	3.518207E-18
7.428320E+03	8.202362E-16	3.501205E-18
7.438264E+03	8.150635E-16	3.485815E-18
7.448208E+03	8.103156E-16	3.472224E-18
7.458152E+03	8.060355E-16	3.460627E-18
7.468097E+03	8.022483E-16	3.451142E-18
7.478041E+03	7.990405E-16	3.444156E-18
7.487985E+03	7.964203E-16	3.439720E-18
7.497929E+03	7.944751E-16	3.438227E-18
7.507873E+03	7.932094E-16	3.439715E-18
7.517818E+03	7.926753E-16	3.444429E-18
7.527762E+03	7.928820E-16	3.452428E-18
7.537706E+03	7.937900E-16	3.463558E-18
7.547650E+03	7.953664E-16	3.477692E-18
7.557594E+03	7.975076E-16	3.494394E-18
7.567539E+03	8.000935E-16	3.513153E-18
7.577483E+03	8.029818E-16	3.533353E-18
7.587427E+03	8.059321E-16	3.553942E-18
7.597371E+03	8.087096E-16	3.573884E-18
7.607315E+03	8.113530E-16	3.593344E-18
7.617260E+03	8.139753E-16	3.612819E-18
7.627204E+03	8.165748E-16	3.632302E-18
7.637148E+03	8.192027E-16	3.652017E-18
7.647092E+03	8.218275E-16	3.671825E-18
7.657036E+03	8.244285E-16	3.691633E-18
7.666981E+03	8.269784E-16	3.711315E-18
7.676925E+03	8.294474E-16	3.730736E-18
7.686869E+03	8.318048E-16	3.749755E-18
7.696813E+03	8.340426E-16	3.768330E-18
7.706757E+03	8.361324E-16	3.786328E-18
7.716702E+03	8.380018E-16	3.803417E-18
