#wls	flux	fluxerr
1.591072E+03	7.156629E-19	3.754096E-20
1.630849E+03	7.597438E-19	3.964745E-20
1.670626E+03	7.946017E-19	4.124625E-20
1.710403E+03	8.183541E-19	4.224712E-20
1.750180E+03	8.291092E-19	4.256186E-20
1.789957E+03	8.231090E-19	4.200969E-20
1.829733E+03	7.967769E-19	4.042410E-20
1.869510E+03	7.472347E-19	3.767890E-20
1.909287E+03	6.746046E-19	3.380277E-20
1.949064E+03	5.833077E-19	2.903918E-20
1.988841E+03	4.836771E-19	2.391914E-20
2.028617E+03	3.905007E-19	1.917929E-20
2.068394E+03	3.182955E-19	1.552306E-20
2.108171E+03	2.765467E-19	1.338948E-20
2.147948E+03	2.694443E-19	1.294860E-20
2.187725E+03	2.997991E-19	1.429718E-20
2.227501E+03	3.719434E-19	1.759820E-20
2.267278E+03	4.915354E-19	2.306850E-20
2.307055E+03	6.624160E-19	3.082962E-20
2.346832E+03	8.849033E-19	4.083216E-20
2.386609E+03	1.156201E-18	5.288137E-20
2.426386E+03	1.471903E-18	6.671168E-20
2.466162E+03	1.828200E-18	8.208938E-20
2.505939E+03	2.222315E-18	9.883111E-20
2.545716E+03	2.653469E-18	1.168444E-19
2.585493E+03	3.122234E-18	1.360950E-19
2.625270E+03	3.630868E-18	1.566189E-19
2.665046E+03	4.182558E-18	1.784855E-19
2.704823E+03	4.781632E-18	2.018046E-19
2.744600E+03	5.432899E-18	2.266958E-19
2.784377E+03	6.141232E-18	2.532698E-19
2.824154E+03	6.912427E-18	2.816629E-19
2.863930E+03	7.751690E-18	3.119735E-19
2.903707E+03	8.666254E-18	3.443675E-19
2.943484E+03	9.668427E-18	3.791917E-19
2.983261E+03	1.077237E-17	4.168358E-19
2.993205E+03	1.106626E-17	4.267436E-19
3.003149E+03	1.136780E-17	4.368616E-19
3.013094E+03	1.167714E-17	4.471932E-19
3.023038E+03	1.199589E-17	4.577956E-19
3.032982E+03	1.232723E-17	4.687860E-19
3.042926E+03	1.267478E-17	4.802958E-19
3.052870E+03	1.303894E-17	4.923333E-19
3.062815E+03	1.341966E-17	5.048892E-19
3.072759E+03	1.381662E-17	5.179445E-19
3.082703E+03	1.422984E-17	5.314927E-19
3.092647E+03	1.465907E-17	5.455172E-19
3.102591E+03	1.510406E-17	5.600019E-19
3.112536E+03	1.556492E-17	5.749436E-19
3.122480E+03	1.604146E-17	5.903281E-19
3.132424E+03	1.653415E-17	6.061660E-19
3.142368E+03	1.704220E-17	6.224206E-19
3.152312E+03	1.756613E-17	6.391041E-19
3.162257E+03	1.810584E-17	6.562051E-19
3.172201E+03	1.866156E-17	6.737258E-19
3.182145E+03	1.923289E-17	6.916431E-19
3.192089E+03	1.982046E-17	7.099734E-19
3.202033E+03	2.042425E-17	7.287079E-19
3.211978E+03	2.104387E-17	7.478251E-19
3.221922E+03	2.168005E-17	7.673437E-19
3.231866E+03	2.233320E-17	7.872701E-19
3.241810E+03	2.300260E-17	8.075711E-19
3.251754E+03	2.368906E-17	8.282678E-19
3.261699E+03	2.439267E-17	8.493549E-19
3.271643E+03	2.511354E-17	8.708279E-19
3.281587E+03	2.585177E-17	8.926825E-19
3.291531E+03	2.660793E-17	9.149294E-19
3.301475E+03	2.738216E-17	9.375658E-19
3.311420E+03	2.817468E-17	9.605899E-19
3.321364E+03	2.898569E-17	9.839999E-19
3.331308E+03	2.981544E-17	1.007795E-18
3.341252E+03	3.066463E-17	1.031991E-18
3.351196E+03	3.153314E-17	1.056574E-18
3.361141E+03	3.242131E-17	1.081545E-18
3.371085E+03	3.332952E-17	1.106908E-18
3.381029E+03	3.425818E-17	1.132668E-18
3.390973E+03	3.520777E-17	1.158829E-18
3.400917E+03	3.617836E-17	1.185385E-18
3.410862E+03	3.717004E-17	1.212328E-18
3.420806E+03	3.818397E-17	1.239685E-18
3.430750E+03	3.922035E-17	1.267453E-18
3.440694E+03	4.027907E-17	1.295617E-18
3.450638E+03	4.136097E-17	1.324194E-18
3.460583E+03	4.246664E-17	1.353190E-18
3.470527E+03	4.359618E-17	1.382599E-18
3.480471E+03	4.474983E-17	1.412415E-18
3.490415E+03	4.592899E-17	1.442672E-18
3.500359E+03	4.713272E-17	1.473328E-18
3.510304E+03	4.836222E-17	1.504408E-18
3.520248E+03	4.961629E-17	1.535864E-18
3.530192E+03	5.089440E-17	1.567666E-18
3.540136E+03	5.219624E-17	1.599795E-18
3.550080E+03	5.352111E-17	1.632218E-18
3.560025E+03	5.486897E-17	1.664921E-18
3.569969E+03	5.623901E-17	1.697871E-18
3.579913E+03	5.763041E-17	1.731032E-18
3.589857E+03	5.904434E-17	1.764428E-18
3.599802E+03	6.048242E-17	1.798099E-18
3.609746E+03	6.194712E-17	1.832104E-18
3.619690E+03	6.344099E-17	1.866507E-18
3.629634E+03	6.496649E-17	1.901366E-18
3.639578E+03	6.652453E-17	1.936693E-18
3.649523E+03	6.811729E-17	1.972536E-18
3.659467E+03	6.974634E-17	2.008926E-18
3.669411E+03	7.141390E-17	2.045907E-18
3.679355E+03	7.312177E-17	2.083514E-18
3.689299E+03	7.487222E-17	2.121792E-18
3.699244E+03	7.666785E-17	2.160794E-18
3.709188E+03	7.851055E-17	2.200552E-18
3.719132E+03	8.040273E-17	2.241111E-18
3.729076E+03	8.234690E-17	2.282518E-18
3.739020E+03	8.434422E-17	2.324781E-18
3.748965E+03	8.639785E-17	2.367960E-18
3.758909E+03	8.850745E-17	2.412021E-18
3.768853E+03	9.067653E-17	2.457033E-18
3.778797E+03	9.290301E-17	2.502912E-18
3.788741E+03	9.518732E-17	2.549643E-18
3.798686E+03	9.752795E-17	2.597159E-18
3.808630E+03	9.992324E-17	2.645390E-18
3.818574E+03	1.023712E-16	2.694258E-18
3.828518E+03	1.048693E-16	2.743675E-18
3.838462E+03	1.074137E-16	2.793513E-18
3.848407E+03	1.100005E-16	2.843657E-18
3.858351E+03	1.126258E-16	2.893985E-18
3.868295E+03	1.152847E-16	2.944352E-18
3.878239E+03	1.179700E-16	2.994563E-18
3.888183E+03	1.206774E-16	3.044499E-18
3.898128E+03	1.233978E-16	3.093921E-18
3.908072E+03	1.261229E-16	3.142618E-18
3.918016E+03	1.288451E-16	3.190404E-18
3.927960E+03	1.315522E-16	3.236976E-18
3.937904E+03	1.342363E-16	3.282154E-18
3.947849E+03	1.368864E-16	3.325684E-18
3.957793E+03	1.394907E-16	3.367295E-18
3.967737E+03	1.420410E-16	3.406818E-18
3.977681E+03	1.445259E-16	3.444007E-18
3.987625E+03	1.469357E-16	3.478666E-18
3.997570E+03	1.492638E-16	3.510675E-18
4.007514E+03	1.515026E-16	3.539899E-18
4.017458E+03	1.536461E-16	3.566246E-18
4.027402E+03	1.556946E-16	3.589766E-18
4.037346E+03	1.576444E-16	3.610424E-18
4.047291E+03	1.594998E-16	3.628365E-18
4.057235E+03	1.612638E-16	3.643703E-18
4.067179E+03	1.629448E-16	3.656676E-18
4.077123E+03	1.645517E-16	3.667522E-18
4.087067E+03	1.660993E-16	3.676607E-18
4.097012E+03	1.675987E-16	3.684205E-18
4.106956E+03	1.690669E-16	3.690714E-18
4.116900E+03	1.705195E-16	3.696492E-18
4.126844E+03	1.719739E-16	3.701925E-18
4.136788E+03	1.734444E-16	3.707320E-18
4.146733E+03	1.749494E-16	3.713069E-18
4.156677E+03	1.765053E-16	3.719503E-18
4.166621E+03	1.781270E-16	3.726918E-18
4.176565E+03	1.798298E-16	3.735607E-18
4.186509E+03	1.816316E-16	3.745910E-18
4.196454E+03	1.835463E-16	3.758074E-18
4.206398E+03	1.855889E-16	3.772362E-18
4.216342E+03	1.877734E-16	3.789001E-18
4.226286E+03	1.901123E-16	3.808190E-18
4.236231E+03	1.926181E-16	3.830119E-18
4.246175E+03	1.953021E-16	3.854944E-18
4.256119E+03	1.981765E-16	3.882839E-18
4.266063E+03	2.012508E-16	3.913912E-18
4.276007E+03	2.045376E-16	3.948335E-18
4.285952E+03	2.080431E-16	3.986142E-18
4.295896E+03	2.117799E-16	4.027495E-18
4.305840E+03	2.157552E-16	4.072444E-18
4.315784E+03	2.199752E-16	4.121019E-18
4.325728E+03	2.244455E-16	4.173239E-18
4.335673E+03	2.291693E-16	4.229070E-18
4.345617E+03	2.341458E-16	4.288414E-18
4.355561E+03	2.393677E-16	4.351053E-18
4.365505E+03	2.448332E-16	4.416875E-18
4.375449E+03	2.505305E-16	4.485592E-18
4.385394E+03	2.564655E-16	4.557238E-18
4.395338E+03	2.626431E-16	4.631829E-18
4.405282E+03	2.690683E-16	4.709385E-18
4.415226E+03	2.757500E-16	4.789991E-18
4.425170E+03	2.827049E-16	4.873865E-18
4.435115E+03	2.899380E-16	4.961020E-18
4.445059E+03	2.974470E-16	5.051342E-18
4.455003E+03	3.052296E-16	5.144726E-18
4.464947E+03	3.132723E-16	5.240882E-18
4.474891E+03	3.215446E-16	5.339246E-18
4.484836E+03	3.300132E-16	5.439214E-18
4.494780E+03	3.386282E-16	5.539930E-18
4.504724E+03	3.473240E-16	5.640307E-18
4.514668E+03	3.560341E-16	5.739275E-18
4.524612E+03	3.646808E-16	5.835615E-18
4.534557E+03	3.731733E-16	5.927941E-18
4.544501E+03	3.814331E-16	6.015098E-18
4.554445E+03	3.893663E-16	6.095728E-18
4.564389E+03	3.968976E-16	6.168798E-18
4.574333E+03	4.039340E-16	6.233040E-18
4.584278E+03	4.104141E-16	6.287704E-18
4.594222E+03	4.162724E-16	6.332000E-18
4.604166E+03	4.214529E-16	6.365307E-18
4.614110E+03	4.259158E-16	6.387268E-18
4.624054E+03	4.296268E-16	6.397619E-18
4.633999E+03	4.325655E-16	6.396308E-18
4.643943E+03	4.347358E-16	6.383648E-18
4.653887E+03	4.361574E-16	6.360170E-18
4.663831E+03	4.368552E-16	6.326471E-18
4.673775E+03	4.368897E-16	6.283643E-18
4.683720E+03	4.363296E-16	6.232865E-18
4.693664E+03	4.352558E-16	6.175461E-18
4.703608E+03	4.337640E-16	6.112928E-18
4.713552E+03	4.319639E-16	6.046915E-18
4.723496E+03	4.299555E-16	5.978897E-18
4.733441E+03	4.278573E-16	5.910566E-18
4.743385E+03	4.257739E-16	5.843377E-18
4.753329E+03	4.238180E-16	5.778856E-18
4.763273E+03	4.220796E-16	5.718187E-18
4.773217E+03	4.206659E-16	5.662754E-18
4.783162E+03	4.196674E-16	5.613682E-18
4.793106E+03	4.191575E-16	5.571839E-18
4.803050E+03	4.192088E-16	5.538069E-18
4.812994E+03	4.198909E-16	5.513150E-18
4.822938E+03	4.212215E-16	5.497170E-18
4.832883E+03	4.232108E-16	5.490120E-18
4.842827E+03	4.258638E-16	5.491921E-18
4.852771E+03	4.291378E-16	5.501893E-18
4.862715E+03	4.329866E-16	5.519325E-18
4.872660E+03	4.373520E-16	5.543358E-18
4.882604E+03	4.421686E-16	5.573057E-18
4.892548E+03	4.473569E-16	5.607330E-18
4.902492E+03	4.528360E-16	5.645094E-18
4.912436E+03	4.585184E-16	5.685208E-18
4.922381E+03	4.643015E-16	5.726369E-18
4.932325E+03	4.700852E-16	5.767334E-18
4.942269E+03	4.757756E-16	5.806958E-18
4.952213E+03	4.812736E-16	5.844058E-18
4.962157E+03	4.864994E-16	5.877708E-18
4.972102E+03	4.913807E-16	5.907088E-18
4.982046E+03	4.958811E-16	5.931827E-18
4.991990E+03	4.999527E-16	5.951417E-18
5.001934E+03	5.036244E-16	5.966275E-18
5.011878E+03	5.069244E-16	5.976798E-18
5.021823E+03	5.099081E-16	5.983692E-18
5.031767E+03	5.126311E-16	5.987658E-18
5.041711E+03	5.151708E-16	5.989631E-18
5.051655E+03	5.175963E-16	5.990436E-18
5.061599E+03	5.199813E-16	5.990937E-18
5.071544E+03	5.224053E-16	5.992048E-18
5.081488E+03	5.249296E-16	5.994459E-18
5.091432E+03	5.276201E-16	5.998902E-18
5.101376E+03	5.305339E-16	6.006001E-18
5.111320E+03	5.337186E-16	6.016258E-18
5.121265E+03	5.372163E-16	6.030109E-18
5.131209E+03	5.410482E-16	6.047751E-18
5.141153E+03	5.452534E-16	6.069576E-18
5.151097E+03	5.498446E-16	6.095683E-18
5.161041E+03	5.548314E-16	6.126133E-18
5.170986E+03	5.602306E-16	6.161070E-18
5.180930E+03	5.660388E-16	6.200415E-18
5.190874E+03	5.722605E-16	6.244180E-18
5.200818E+03	5.788811E-16	6.292170E-18
5.210762E+03	5.859022E-16	6.344373E-18
5.220707E+03	5.933065E-16	6.400574E-18
5.230651E+03	6.010817E-16	6.460619E-18
5.240595E+03	6.092117E-16	6.524319E-18
5.250539E+03	6.176918E-16	6.591610E-18
5.260483E+03	6.265174E-16	6.662436E-18
5.270428E+03	6.356989E-16	6.736903E-18
5.280372E+03	6.452604E-16	6.815262E-18
5.290316E+03	6.552488E-16	6.898007E-18
5.300260E+03	6.657537E-16	6.986075E-18
5.310204E+03	6.768967E-16	7.080732E-18
5.320149E+03	6.887929E-16	7.183165E-18
5.330093E+03	7.016226E-16	7.295230E-18
5.340037E+03	7.155431E-16	7.418530E-18
5.349981E+03	7.307270E-16	7.554815E-18
5.359925E+03	7.473419E-16	7.705773E-18
5.369870E+03	7.653814E-16	7.871297E-18
5.379814E+03	7.844857E-16	8.047667E-18
5.389758E+03	8.042140E-16	8.230378E-18
5.399702E+03	8.240169E-16	8.413871E-18
5.409646E+03	8.433061E-16	8.592221E-18
5.419591E+03	8.616679E-16	8.761271E-18
5.429535E+03	8.786805E-16	8.916803E-18
5.439479E+03	8.939599E-16	9.055001E-18
5.449423E+03	9.072596E-16	9.173454E-18
5.459367E+03	9.183847E-16	9.270277E-18
5.469312E+03	9.271702E-16	9.343888E-18
5.479256E+03	9.335011E-16	9.393202E-18
5.489200E+03	9.373393E-16	9.417904E-18
5.499144E+03	9.386700E-16	9.417905E-18
5.509089E+03	9.375904E-16	9.394233E-18
5.519033E+03	9.342665E-16	9.348590E-18
5.528977E+03	9.288857E-16	9.282876E-18
5.538921E+03	9.217760E-16	9.200389E-18
5.548865E+03	9.132905E-16	9.104655E-18
5.558810E+03	9.037754E-16	8.999115E-18
5.568754E+03	8.936516E-16	8.887939E-18
5.578698E+03	8.833009E-16	8.774895E-18
5.588642E+03	8.731108E-16	8.663791E-18
5.598586E+03	8.634292E-16	8.558029E-18
5.608531E+03	8.545722E-16	8.460683E-18
5.618475E+03	8.468381E-16	8.374647E-18
5.628419E+03	8.404251E-16	8.301809E-18
5.638363E+03	8.355391E-16	8.244132E-18
5.648307E+03	8.323326E-16	8.203043E-18
5.658252E+03	8.309022E-16	8.179417E-18
5.668196E+03	8.312979E-16	8.173665E-18
5.678140E+03	8.335882E-16	8.186380E-18
5.688084E+03	8.377571E-16	8.217323E-18
5.698028E+03	8.437815E-16	8.266186E-18
5.707973E+03	8.516345E-16	8.332628E-18
5.717917E+03	8.612341E-16	8.415769E-18
5.727861E+03	8.724620E-16	8.514379E-18
5.737805E+03	8.852316E-16	8.627544E-18
5.747749E+03	8.993700E-16	8.753517E-18
5.757694E+03	9.147112E-16	8.890625E-18
5.767638E+03	9.310721E-16	9.037044E-18
5.777582E+03	9.482118E-16	9.190399E-18
5.787526E+03	9.659083E-16	9.348516E-18
5.797470E+03	9.838958E-16	9.508811E-18
5.807415E+03	1.001928E-15	9.668917E-18
5.817359E+03	1.019729E-15	9.826175E-18
5.827303E+03	1.037050E-15	9.978251E-18
5.837247E+03	1.053628E-15	1.012265E-17
5.847191E+03	1.069250E-15	1.025740E-17
5.857136E+03	1.083679E-15	1.038032E-17
5.867080E+03	1.096746E-15	1.048990E-17
5.877024E+03	1.108279E-15	1.058459E-17
5.886968E+03	1.118149E-15	1.066330E-17
5.896912E+03	1.126265E-15	1.072528E-17
5.906857E+03	1.132576E-15	1.077020E-17
5.916801E+03	1.137014E-15	1.079754E-17
5.926745E+03	1.139631E-15	1.080796E-17
5.936689E+03	1.140436E-15	1.080167E-17
5.946633E+03	1.139501E-15	1.077952E-17
5.956578E+03	1.136933E-15	1.074263E-17
5.966522E+03	1.132855E-15	1.069232E-17
5.976466E+03	1.127420E-15	1.063013E-17
5.986410E+03	1.120795E-15	1.055774E-17
5.996354E+03	1.113153E-15	1.047690E-17
6.006299E+03	1.104667E-15	1.038934E-17
6.016243E+03	1.095529E-15	1.029691E-17
6.026187E+03	1.085897E-15	1.020119E-17
6.036131E+03	1.075944E-15	1.010387E-17
6.046075E+03	1.065808E-15	1.000629E-17
6.056020E+03	1.055628E-15	9.909822E-18
6.065964E+03	1.045497E-15	9.815385E-18
6.075908E+03	1.035522E-15	9.724013E-18
6.085852E+03	1.025738E-15	9.636096E-18
6.095796E+03	1.016224E-15	9.552398E-18
6.105741E+03	1.006993E-15	9.473101E-18
6.115685E+03	9.980758E-16	9.398529E-18
6.125629E+03	9.894640E-16	9.328638E-18
6.135573E+03	9.811568E-16	9.263463E-18
6.145518E+03	9.731178E-16	9.202695E-18
6.155462E+03	9.652866E-16	9.145798E-18
6.165406E+03	9.575271E-16	9.091506E-18
6.175350E+03	9.497061E-16	9.038508E-18
6.185294E+03	9.416630E-16	8.985129E-18
6.195239E+03	9.331431E-16	8.928770E-18
6.205183E+03	9.240123E-16	8.867957E-18
6.215127E+03	9.142764E-16	8.802547E-18
6.225071E+03	9.040265E-16	8.733212E-18
6.235015E+03	8.934925E-16	8.661981E-18
6.244960E+03	8.829855E-16	8.591704E-18
6.254904E+03	8.727375E-16	8.524507E-18
6.264848E+03	8.630104E-16	8.462848E-18
6.274792E+03	8.539897E-16	8.408484E-18
6.284736E+03	8.457958E-16	8.362564E-18
6.294681E+03	8.385212E-16	8.325991E-18
6.304625E+03	8.322399E-16	8.299509E-18
6.314569E+03	8.269618E-16	8.283243E-18
6.324513E+03	8.227059E-16	8.277416E-18
6.334457E+03	8.194755E-16	8.282108E-18
6.344402E+03	8.172602E-16	8.297267E-18
6.354346E+03	8.160349E-16	8.322690E-18
6.364290E+03	8.157851E-16	8.358290E-18
6.374234E+03	8.164529E-16	8.403528E-18
6.384178E+03	8.180271E-16	8.458346E-18
6.394123E+03	8.204367E-16	8.522060E-18
6.404067E+03	8.236489E-16	8.594377E-18
6.414011E+03	8.276061E-16	8.674734E-18
6.423955E+03	8.322629E-16	8.762691E-18
6.433899E+03	8.375803E-16	8.857865E-18
6.443844E+03	8.435319E-16	8.959997E-18
6.453788E+03	8.500638E-16	9.068530E-18
6.463732E+03	8.571509E-16	9.183204E-18
6.473676E+03	8.647524E-16	9.303586E-18
6.483620E+03	8.728373E-16	9.429338E-18
6.493565E+03	8.813549E-16	9.559899E-18
6.503509E+03	8.902780E-16	9.694956E-18
6.513453E+03	8.995302E-16	9.833652E-18
6.523397E+03	9.090786E-16	9.975590E-18
6.533341E+03	9.188260E-16	1.011966E-17
6.543286E+03	9.286987E-16	1.026499E-17
6.553230E+03	9.386326E-16	1.041081E-17
6.563174E+03	9.485301E-16	1.055596E-17
6.573118E+03	9.583234E-16	1.069959E-17
6.583062E+03	9.679170E-16	1.084056E-17
6.593007E+03	9.772491E-16	1.097807E-17
6.602951E+03	9.862289E-16	1.111099E-17
6.612895E+03	9.947929E-16	1.123850E-17
6.622839E+03	1.002900E-15	1.136002E-17
6.632783E+03	1.010500E-15	1.147487E-17
6.642728E+03	1.017538E-15	1.158232E-17
6.652672E+03	1.023984E-15	1.168193E-17
6.662616E+03	1.029834E-15	1.177353E-17
6.672560E+03	1.035064E-15	1.185675E-17
6.682504E+03	1.039691E-15	1.193169E-17
6.692449E+03	1.043723E-15	1.199837E-17
6.702393E+03	1.047163E-15	1.205674E-17
6.712337E+03	1.050055E-15	1.210725E-17
6.722281E+03	1.052433E-15	1.215021E-17
6.732225E+03	1.054318E-15	1.218583E-17
6.742170E+03	1.055755E-15	1.221457E-17
6.752114E+03	1.056828E-15	1.223737E-17
6.762058E+03	1.057549E-15	1.225435E-17
6.772002E+03	1.057988E-15	1.226631E-17
6.781946E+03	1.058197E-15	1.227381E-17
6.791891E+03	1.058206E-15	1.227720E-17
6.801835E+03	1.058081E-15	1.227725E-17
6.811779E+03	1.057850E-15	1.227426E-17
6.821723E+03	1.057591E-15	1.226916E-17
6.831668E+03	1.057303E-15	1.226195E-17
6.841612E+03	1.057022E-15	1.225303E-17
6.851556E+03	1.056814E-15	1.224317E-17
6.861500E+03	1.056664E-15	1.223223E-17
6.871444E+03	1.056612E-15	1.222065E-17
6.881389E+03	1.056649E-15	1.220838E-17
6.891333E+03	1.056804E-15	1.219572E-17
6.901277E+03	1.057079E-15	1.218275E-17
6.911221E+03	1.057451E-15	1.216919E-17
6.921165E+03	1.057932E-15	1.215520E-17
6.931110E+03	1.058491E-15	1.214045E-17
6.941054E+03	1.059131E-15	1.212498E-17
6.950998E+03	1.059834E-15	1.210862E-17
6.960942E+03	1.060558E-15	1.209093E-17
6.970886E+03	1.061301E-15	1.207190E-17
6.980831E+03	1.062019E-15	1.205106E-17
6.990775E+03	1.062686E-15	1.202817E-17
7.000719E+03	1.063298E-15	1.200324E-17
7.010663E+03	1.063829E-15	1.197602E-17
7.020607E+03	1.064212E-15	1.194581E-17
7.030552E+03	1.064464E-15	1.191288E-17
7.040496E+03	1.064562E-15	1.187704E-17
7.050440E+03	1.064460E-15	1.183785E-17
7.060384E+03	1.064135E-15	1.179516E-17
7.070328E+03	1.063567E-15	1.174883E-17
7.080273E+03	1.062757E-15	1.169899E-17
7.090217E+03	1.061641E-15	1.164503E-17
7.100161E+03	1.060244E-15	1.158736E-17
7.110105E+03	1.058550E-15	1.152593E-17
7.120049E+03	1.056499E-15	1.146020E-17
7.129994E+03	1.054096E-15	1.139039E-17
7.139938E+03	1.051330E-15	1.131650E-17
7.149882E+03	1.048209E-15	1.123880E-17
7.159826E+03	1.044680E-15	1.115687E-17
7.169770E+03	1.040781E-15	1.107127E-17
7.179715E+03	1.036464E-15	1.098166E-17
7.189659E+03	1.031771E-15	1.088867E-17
7.199603E+03	1.026660E-15	1.079202E-17
7.209547E+03	1.021160E-15	1.069219E-17
7.219491E+03	1.015300E-15	1.058967E-17
7.229436E+03	1.009048E-15	1.048428E-17
7.239380E+03	1.002440E-15	1.037660E-17
7.249324E+03	9.954946E-16	1.026697E-17
7.259268E+03	9.882323E-16	1.015577E-17
7.269212E+03	9.806767E-16	1.004342E-17
7.279157E+03	9.728770E-16	9.930569E-18
7.289101E+03	9.648191E-16	9.817231E-18
7.299045E+03	9.565795E-16	9.704329E-18
7.308989E+03	9.481711E-16	9.592132E-18
7.318933E+03	9.396525E-16	9.481360E-18
7.328878E+03	9.310402E-16	9.372306E-18
7.338822E+03	9.224166E-16	9.265910E-18
7.348766E+03	9.138211E-16	9.162675E-18
7.358710E+03	9.052926E-16	9.063088E-18
7.368654E+03	8.968911E-16	8.967844E-18
7.378599E+03	8.886558E-16	8.877417E-18
7.388543E+03	8.806659E-16	8.792684E-18
7.398487E+03	8.729177E-16	8.713682E-18
7.408431E+03	8.654894E-16	8.641271E-18
7.418375E+03	8.583988E-16	8.575704E-18
7.428320E+03	8.516636E-16	8.517232E-18
7.438264E+03	8.453428E-16	8.466525E-18
7.448208E+03	8.394161E-16	8.423460E-18
7.458152E+03	8.339664E-16	8.388954E-18
7.468097E+03	8.290173E-16	8.363335E-18
7.478041E+03	8.245968E-16	8.346987E-18
7.487985E+03	8.207771E-16	8.340752E-18
7.497929E+03	8.175924E-16	8.345105E-18
7.507873E+03	8.150836E-16	8.360598E-18
7.517818E+03	8.133565E-16	8.388389E-18
7.527762E+03	8.124363E-16	8.428775E-18
7.537706E+03	8.122727E-16	8.481290E-18
7.547650E+03	8.128373E-16	8.545706E-18
7.557594E+03	8.140531E-16	8.621284E-18
7.567539E+03	8.158315E-16	8.707157E-18
7.577483E+03	8.181086E-16	8.802704E-18
7.587427E+03	8.208327E-16	8.907430E-18
7.597371E+03	8.239212E-16	9.020487E-18
7.607315E+03	8.273050E-16	9.141151E-18
7.617260E+03	8.308583E-16	9.268046E-18
7.627204E+03	8.345088E-16	9.400345E-18
7.637148E+03	8.382228E-16	9.537628E-18
7.647092E+03	8.419281E-16	9.679019E-18
7.657036E+03	8.455764E-16	9.823884E-18
7.666981E+03	8.491428E-16	9.971835E-18
7.676925E+03	8.525612E-16	1.012198E-17
7.686869E+03	8.558144E-16	1.027398E-17
7.696813E+03	8.588434E-16	1.042698E-17
7.706757E+03	8.616367E-16	1.058065E-17
7.716702E+03	8.641434E-16	1.073419E-17
