#wls	flux	fluxerr
1.591072E+03	4.849873E-19	3.114210E-20
1.630849E+03	5.106534E-19	3.277542E-20
1.670626E+03	5.293856E-19	3.396201E-20
1.710403E+03	5.400273E-19	3.462826E-20
1.750180E+03	5.415568E-19	3.470940E-20
1.789957E+03	5.318545E-19	3.407047E-20
1.829733E+03	5.089826E-19	3.258852E-20
1.869510E+03	4.717783E-19	3.019048E-20
1.909287E+03	4.207329E-19	2.690932E-20
1.949064E+03	3.593199E-19	2.296865E-20
1.988841E+03	2.942507E-19	1.879850E-20
2.028617E+03	2.346122E-19	1.497964E-20
2.068394E+03	1.888947E-19	1.205338E-20
2.108171E+03	1.621487E-19	1.034033E-20
2.147948E+03	1.562290E-19	9.956504E-21
2.187725E+03	1.719705E-19	1.095258E-20
2.227501E+03	2.111923E-19	1.344161E-20
2.267278E+03	2.761641E-19	1.756480E-20
2.307055E+03	3.681460E-19	2.339869E-20
2.346832E+03	4.862899E-19	3.088551E-20
2.386609E+03	6.280391E-19	3.985900E-20
2.426386E+03	7.897614E-19	5.008502E-20
2.466162E+03	9.681628E-19	6.135143E-20
2.505939E+03	1.160420E-18	7.347636E-20
2.545716E+03	1.364650E-18	8.633792E-20
2.585493E+03	1.579958E-18	9.987694E-20
2.625270E+03	1.805569E-18	1.140420E-19
2.665046E+03	2.041955E-18	1.288603E-19
2.704823E+03	2.289380E-18	1.443459E-19
2.744600E+03	2.549370E-18	1.605921E-19
2.784377E+03	2.823049E-18	1.776663E-19
2.824154E+03	3.112321E-18	1.956850E-19
2.863930E+03	3.417471E-18	2.146620E-19
2.903707E+03	3.740025E-18	2.346890E-19
2.943484E+03	4.080250E-18	2.557781E-19
2.983261E+03	4.440982E-18	2.781021E-19
2.993205E+03	4.534562E-18	2.838876E-19
3.003149E+03	4.629297E-18	2.897418E-19
3.013094E+03	4.726005E-18	2.957160E-19
3.023038E+03	4.824277E-18	3.017844E-19
3.032982E+03	4.925856E-18	3.080558E-19
3.042926E+03	5.031996E-18	3.146087E-19
3.052870E+03	5.142765E-18	3.214468E-19
3.062815E+03	5.257510E-18	3.285292E-19
3.072759E+03	5.376857E-18	3.358947E-19
3.082703E+03	5.500190E-18	3.435046E-19
3.092647E+03	5.627328E-18	3.513474E-19
3.102591E+03	5.758102E-18	3.594122E-19
3.112536E+03	5.892813E-18	3.677176E-19
3.122480E+03	6.030405E-18	3.761976E-19
3.132424E+03	6.172139E-18	3.849305E-19
3.142368E+03	6.316505E-18	3.938220E-19
3.152312E+03	6.464822E-18	4.029541E-19
3.162257E+03	6.616059E-18	4.122622E-19
3.172201E+03	6.770122E-18	4.217405E-19
3.182145E+03	6.927950E-18	4.314471E-19
3.192089E+03	7.089009E-18	4.413485E-19
3.202033E+03	7.253265E-18	4.514425E-19
3.211978E+03	7.420702E-18	4.617278E-19
3.221922E+03	7.591307E-18	4.722033E-19
3.231866E+03	7.765625E-18	4.829028E-19
3.241810E+03	7.943142E-18	4.937941E-19
3.251754E+03	8.124992E-18	5.049473E-19
3.261699E+03	8.310124E-18	5.162970E-19
3.271643E+03	8.499731E-18	5.279169E-19
3.281587E+03	8.693324E-18	5.397764E-19
3.291531E+03	8.891582E-18	5.519175E-19
3.301475E+03	9.094025E-18	5.643099E-19
3.311420E+03	9.301968E-18	5.770350E-19
3.321364E+03	9.514957E-18	5.900642E-19
3.331308E+03	9.733142E-18	6.034065E-19
3.341252E+03	9.957930E-18	6.171488E-19
3.351196E+03	1.018890E-17	6.312642E-19
3.361141E+03	1.042625E-17	6.457651E-19
3.371085E+03	1.067083E-17	6.607035E-19
3.381029E+03	1.092353E-17	6.761344E-19
3.390973E+03	1.118464E-17	6.920740E-19
3.400917E+03	1.145442E-17	7.085387E-19
3.410862E+03	1.173384E-17	7.255881E-19
3.420806E+03	1.202322E-17	7.432411E-19
3.430750E+03	1.232360E-17	7.615604E-19
3.440694E+03	1.263602E-17	7.806109E-19
3.450638E+03	1.296017E-17	8.003722E-19
3.460583E+03	1.329860E-17	8.210003E-19
3.470527E+03	1.365175E-17	8.425225E-19
3.480471E+03	1.402011E-17	8.649667E-19
3.490415E+03	1.440489E-17	8.884078E-19
3.500359E+03	1.480662E-17	9.128765E-19
3.510304E+03	1.522810E-17	9.385443E-19
3.520248E+03	1.566840E-17	9.653531E-19
3.530192E+03	1.612888E-17	9.933849E-19
3.540136E+03	1.661014E-17	1.022675E-18
3.550080E+03	1.711279E-17	1.053260E-18
3.560025E+03	1.763745E-17	1.085177E-18
3.569969E+03	1.818394E-17	1.118412E-18
3.579913E+03	1.875284E-17	1.153001E-18
3.589857E+03	1.934392E-17	1.188927E-18
3.599802E+03	1.995860E-17	1.226276E-18
3.609746E+03	2.059662E-17	1.265030E-18
3.619690E+03	2.125852E-17	1.305221E-18
3.629634E+03	2.194311E-17	1.346774E-18
3.639578E+03	2.265263E-17	1.389824E-18
3.649523E+03	2.338579E-17	1.434292E-18
3.659467E+03	2.414303E-17	1.480202E-18
3.669411E+03	2.492384E-17	1.527520E-18
3.679355E+03	2.572947E-17	1.576324E-18
3.689299E+03	2.655933E-17	1.626573E-18
3.699244E+03	2.741274E-17	1.678224E-18
3.709188E+03	2.828988E-17	1.731287E-18
3.719132E+03	2.919088E-17	1.785768E-18
3.729076E+03	3.011483E-17	1.841610E-18
3.739020E+03	3.106172E-17	1.898810E-18
3.748965E+03	3.203144E-17	1.957359E-18
3.758909E+03	3.302280E-17	2.017184E-18
3.768853E+03	3.403553E-17	2.078266E-18
3.778797E+03	3.506817E-17	2.140514E-18
3.788741E+03	3.612021E-17	2.203895E-18
3.798686E+03	3.719102E-17	2.268370E-18
3.808630E+03	3.827876E-17	2.333824E-18
3.818574E+03	3.938252E-17	2.400202E-18
3.828518E+03	4.050016E-17	2.467371E-18
3.838462E+03	4.163046E-17	2.535256E-18
3.848407E+03	4.277208E-17	2.603773E-18
3.858351E+03	4.392241E-17	2.672764E-18
3.868295E+03	4.507982E-17	2.742128E-18
3.878239E+03	4.624138E-17	2.811686E-18
3.888183E+03	4.740522E-17	2.881324E-18
3.898128E+03	4.856932E-17	2.950920E-18
3.908072E+03	4.973046E-17	3.020276E-18
3.918016E+03	5.088529E-17	3.089190E-18
3.927960E+03	5.203280E-17	3.157602E-18
3.937904E+03	5.316964E-17	3.225307E-18
3.947849E+03	5.429243E-17	3.292102E-18
3.957793E+03	5.539907E-17	3.357860E-18
3.967737E+03	5.648635E-17	3.422388E-18
3.977681E+03	5.755363E-17	3.485647E-18
3.987625E+03	5.859805E-17	3.547468E-18
3.997570E+03	5.961695E-17	3.607688E-18
4.007514E+03	6.060792E-17	3.666166E-18
4.017458E+03	6.157257E-17	3.722999E-18
4.027402E+03	6.250666E-17	3.777934E-18
4.037346E+03	6.341124E-17	3.831037E-18
4.047291E+03	6.428526E-17	3.882245E-18
4.057235E+03	6.512924E-17	3.931592E-18
4.067179E+03	6.594417E-17	3.979141E-18
4.077123E+03	6.673001E-17	4.024891E-18
4.087067E+03	6.748840E-17	4.068943E-18
4.097012E+03	6.821991E-17	4.111333E-18
4.106956E+03	6.892670E-17	4.152194E-18
4.116900E+03	6.961119E-17	4.191672E-18
4.126844E+03	7.027587E-17	4.229920E-18
4.136788E+03	7.092225E-17	4.267029E-18
4.146733E+03	7.155304E-17	4.303165E-18
4.156677E+03	7.217244E-17	4.338580E-18
4.166621E+03	7.278087E-17	4.373302E-18
4.176565E+03	7.338253E-17	4.407582E-18
4.186509E+03	7.397923E-17	4.441530E-18
4.196454E+03	7.457516E-17	4.475398E-18
4.206398E+03	7.517330E-17	4.509364E-18
4.216342E+03	7.577544E-17	4.543537E-18
4.226286E+03	7.638684E-17	4.578231E-18
4.236231E+03	7.700797E-17	4.613472E-18
4.246175E+03	7.764417E-17	4.649581E-18
4.256119E+03	7.829816E-17	4.686719E-18
4.266063E+03	7.897249E-17	4.725037E-18
4.276007E+03	7.967119E-17	4.764774E-18
4.285952E+03	8.039652E-17	4.806065E-18
4.295896E+03	8.115209E-17	4.849122E-18
4.305840E+03	8.193999E-17	4.894068E-18
4.315784E+03	8.276604E-17	4.941248E-18
4.325728E+03	8.362942E-17	4.990610E-18
4.335673E+03	8.453543E-17	5.042467E-18
4.345617E+03	8.548518E-17	5.096882E-18
4.355561E+03	8.648225E-17	5.154066E-18
4.365505E+03	8.752714E-17	5.214043E-18
4.375449E+03	8.862257E-17	5.276973E-18
4.385394E+03	8.976964E-17	5.342917E-18
4.395338E+03	9.096891E-17	5.411904E-18
4.405282E+03	9.221955E-17	5.483881E-18
4.415226E+03	9.352371E-17	5.558972E-18
4.425170E+03	9.487832E-17	5.636990E-18
4.435115E+03	9.627938E-17	5.717693E-18
4.445059E+03	9.772395E-17	5.800904E-18
4.455003E+03	9.920820E-17	5.886392E-18
4.464947E+03	1.007228E-16	5.973601E-18
4.474891E+03	1.022655E-16	6.062394E-18
4.484836E+03	1.038257E-16	6.152139E-18
4.494780E+03	1.054003E-16	6.242655E-18
4.504724E+03	1.069792E-16	6.333344E-18
4.514668E+03	1.085544E-16	6.423724E-18
4.524612E+03	1.101192E-16	6.513407E-18
4.534557E+03	1.116655E-16	6.601914E-18
4.544501E+03	1.131834E-16	6.688662E-18
4.554445E+03	1.146680E-16	6.773358E-18
4.564389E+03	1.161099E-16	6.855454E-18
4.574333E+03	1.175030E-16	6.934597E-18
4.584278E+03	1.188406E-16	7.010389E-18
4.594222E+03	1.201165E-16	7.082468E-18
4.604166E+03	1.213266E-16	7.150608E-18
4.614110E+03	1.224678E-16	7.214620E-18
4.624054E+03	1.235365E-16	7.274306E-18
4.633999E+03	1.245329E-16	7.329682E-18
4.643943E+03	1.254542E-16	7.380580E-18
4.653887E+03	1.263023E-16	7.427134E-18
4.663831E+03	1.270795E-16	7.469473E-18
4.673775E+03	1.277904E-16	7.507873E-18
4.683720E+03	1.284372E-16	7.542476E-18
4.693664E+03	1.290280E-16	7.573758E-18
4.703608E+03	1.295671E-16	7.601979E-18
4.713552E+03	1.300640E-16	7.627692E-18
4.723496E+03	1.305258E-16	7.651327E-18
4.733441E+03	1.309615E-16	7.673411E-18
4.743385E+03	1.313805E-16	7.694496E-18
4.753329E+03	1.317924E-16	7.715147E-18
4.763273E+03	1.322051E-16	7.735820E-18
4.773217E+03	1.326265E-16	7.756989E-18
4.783162E+03	1.330646E-16	7.779109E-18
4.793106E+03	1.335253E-16	7.802534E-18
4.803050E+03	1.340144E-16	7.827593E-18
4.812994E+03	1.345371E-16	7.854595E-18
4.822938E+03	1.351023E-16	7.884053E-18
4.832883E+03	1.357112E-16	7.916031E-18
4.842827E+03	1.363714E-16	7.950976E-18
4.852771E+03	1.370839E-16	7.988942E-18
4.862715E+03	1.378537E-16	8.030206E-18
4.872660E+03	1.386816E-16	8.074821E-18
4.882604E+03	1.395707E-16	8.122959E-18
4.892548E+03	1.405222E-16	8.174689E-18
4.902492E+03	1.415349E-16	8.229929E-18
4.912436E+03	1.426102E-16	8.288759E-18
4.922381E+03	1.437474E-16	8.351141E-18
4.932325E+03	1.449443E-16	8.416930E-18
4.942269E+03	1.462027E-16	8.486241E-18
4.952213E+03	1.475185E-16	8.558821E-18
4.962157E+03	1.488940E-16	8.634801E-18
4.972102E+03	1.503269E-16	8.714041E-18
4.982046E+03	1.518185E-16	8.796618E-18
4.991990E+03	1.533675E-16	8.882456E-18
5.001934E+03	1.549763E-16	8.971676E-18
5.011878E+03	1.566448E-16	9.064282E-18
5.021823E+03	1.583785E-16	9.160581E-18
5.031767E+03	1.601786E-16	9.260644E-18
5.041711E+03	1.620489E-16	9.364675E-18
5.051655E+03	1.639934E-16	9.472907E-18
5.061599E+03	1.660185E-16	9.585706E-18
5.071544E+03	1.681275E-16	9.703258E-18
5.081488E+03	1.703276E-16	9.825965E-18
5.091432E+03	1.726242E-16	9.954145E-18
5.101376E+03	1.750208E-16	1.008798E-17
5.111320E+03	1.775262E-16	1.022798E-17
5.121265E+03	1.801414E-16	1.037418E-17
5.131209E+03	1.828743E-16	1.052705E-17
5.141153E+03	1.857266E-16	1.068666E-17
5.151097E+03	1.887008E-16	1.085316E-17
5.161041E+03	1.917989E-16	1.102665E-17
5.170986E+03	1.950234E-16	1.120726E-17
5.180930E+03	1.983719E-16	1.139486E-17
5.190874E+03	2.018427E-16	1.158933E-17
5.200818E+03	2.054347E-16	1.179061E-17
5.210762E+03	2.091431E-16	1.199841E-17
5.220707E+03	2.129595E-16	1.221225E-17
5.230651E+03	2.168758E-16	1.243164E-17
5.240595E+03	2.208843E-16	1.265615E-17
5.250539E+03	2.249731E-16	1.288509E-17
5.260483E+03	2.291262E-16	1.311754E-17
5.270428E+03	2.333299E-16	1.335271E-17
5.280372E+03	2.375644E-16	1.358947E-17
5.290316E+03	2.418098E-16	1.382668E-17
5.300260E+03	2.460476E-16	1.406327E-17
5.310204E+03	2.502519E-16	1.429779E-17
5.320149E+03	2.544006E-16	1.452897E-17
5.330093E+03	2.584657E-16	1.475520E-17
5.340037E+03	2.624197E-16	1.497495E-17
5.349981E+03	2.662377E-16	1.518678E-17
5.359925E+03	2.698859E-16	1.538879E-17
5.369870E+03	2.733413E-16	1.557968E-17
5.379814E+03	2.765722E-16	1.575765E-17
5.389758E+03	2.795479E-16	1.592099E-17
5.399702E+03	2.822473E-16	1.606850E-17
5.409646E+03	2.846427E-16	1.619863E-17
5.419591E+03	2.867089E-16	1.630996E-17
5.429535E+03	2.884300E-16	1.640162E-17
5.439479E+03	2.897909E-16	1.647276E-17
5.449423E+03	2.907783E-16	1.652266E-17
5.459367E+03	2.913904E-16	1.655124E-17
5.469312E+03	2.916285E-16	1.655859E-17
5.479256E+03	2.914978E-16	1.654504E-17
5.489200E+03	2.910164E-16	1.651164E-17
5.499144E+03	2.902042E-16	1.645952E-17
5.509089E+03	2.890972E-16	1.639078E-17
5.519033E+03	2.877300E-16	1.630736E-17
5.528977E+03	2.861463E-16	1.621177E-17
5.538921E+03	2.843986E-16	1.610700E-17
5.548865E+03	2.825380E-16	1.599594E-17
5.558810E+03	2.806243E-16	1.588199E-17
5.568754E+03	2.787163E-16	1.576847E-17
5.578698E+03	2.768758E-16	1.565889E-17
5.588642E+03	2.751584E-16	1.555637E-17
5.598586E+03	2.736205E-16	1.546410E-17
5.608531E+03	2.723180E-16	1.538522E-17
5.618475E+03	2.712984E-16	1.532241E-17
5.628419E+03	2.706107E-16	1.527841E-17
5.638363E+03	2.702963E-16	1.525555E-17
5.648307E+03	2.703927E-16	1.525591E-17
5.658252E+03	2.709327E-16	1.528132E-17
5.668196E+03	2.719441E-16	1.533334E-17
5.678140E+03	2.734500E-16	1.541322E-17
5.688084E+03	2.754680E-16	1.552194E-17
5.698028E+03	2.780104E-16	1.566017E-17
5.707973E+03	2.810866E-16	1.582840E-17
5.717917E+03	2.846906E-16	1.602628E-17
5.727861E+03	2.888216E-16	1.625372E-17
5.737805E+03	2.934648E-16	1.650987E-17
5.747749E+03	2.985921E-16	1.679313E-17
5.757694E+03	3.041782E-16	1.710205E-17
5.767638E+03	3.101798E-16	1.743418E-17
5.777582E+03	3.165511E-16	1.778692E-17
5.787526E+03	3.232306E-16	1.815681E-17
5.797470E+03	3.301478E-16	1.853986E-17
5.807415E+03	3.372339E-16	1.893222E-17
5.817359E+03	3.444037E-16	1.932910E-17
5.827303E+03	3.515692E-16	1.972555E-17
5.837247E+03	3.586387E-16	2.011644E-17
5.847191E+03	3.655188E-16	2.049654E-17
5.857136E+03	3.721125E-16	2.086042E-17
5.867080E+03	3.783331E-16	2.120324E-17
5.877024E+03	3.840914E-16	2.152003E-17
5.886968E+03	3.893132E-16	2.180666E-17
5.896912E+03	3.939220E-16	2.205886E-17
5.906857E+03	3.978684E-16	2.227390E-17
5.916801E+03	4.011007E-16	2.244892E-17
5.926745E+03	4.035928E-16	2.258250E-17
5.936689E+03	4.053224E-16	2.267342E-17
5.946633E+03	4.062986E-16	2.272223E-17
5.956578E+03	4.065341E-16	2.272967E-17
5.966522E+03	4.060602E-16	2.269751E-17
5.976466E+03	4.049172E-16	2.262805E-17
5.986410E+03	4.031610E-16	2.252444E-17
5.996354E+03	4.008609E-16	2.239056E-17
6.006299E+03	3.980806E-16	2.223000E-17
6.016243E+03	3.949002E-16	2.204725E-17
6.026187E+03	3.913970E-16	2.184664E-17
6.036131E+03	3.876441E-16	2.163226E-17
6.046075E+03	3.837198E-16	2.140848E-17
6.056020E+03	3.796939E-16	2.117920E-17
6.065964E+03	3.756272E-16	2.094782E-17
6.075908E+03	3.715820E-16	2.071782E-17
6.085852E+03	3.676101E-16	2.049206E-17
6.095796E+03	3.637525E-16	2.027284E-17
6.105741E+03	3.600548E-16	2.006270E-17
6.115685E+03	3.565448E-16	1.986317E-17
6.125629E+03	3.532551E-16	1.967606E-17
6.135573E+03	3.501940E-16	1.950183E-17
6.145518E+03	3.473904E-16	1.934207E-17
6.155462E+03	3.448422E-16	1.919666E-17
6.165406E+03	3.425617E-16	1.906628E-17
6.175350E+03	3.405464E-16	1.895078E-17
6.185294E+03	3.387980E-16	1.885024E-17
6.195239E+03	3.373053E-16	1.876404E-17
6.205183E+03	3.360623E-16	1.869182E-17
6.215127E+03	3.350650E-16	1.863338E-17
6.225071E+03	3.343018E-16	1.858804E-17
6.235015E+03	3.337639E-16	1.855531E-17
6.244960E+03	3.334430E-16	1.853473E-17
6.254904E+03	3.333276E-16	1.852565E-17
6.264848E+03	3.334137E-16	1.852784E-17
6.274792E+03	3.336878E-16	1.854054E-17
6.284736E+03	3.341507E-16	1.856381E-17
6.294681E+03	3.347938E-16	1.859714E-17
6.304625E+03	3.356083E-16	1.864006E-17
6.314569E+03	3.365967E-16	1.869270E-17
6.324513E+03	3.377438E-16	1.875420E-17
6.334457E+03	3.390558E-16	1.882491E-17
6.344402E+03	3.405165E-16	1.890393E-17
6.354346E+03	3.421276E-16	1.899136E-17
6.364290E+03	3.438794E-16	1.908664E-17
6.374234E+03	3.457683E-16	1.918959E-17
6.384178E+03	3.477831E-16	1.929957E-17
6.394123E+03	3.499187E-16	1.941629E-17
6.404067E+03	3.521697E-16	1.953947E-17
6.414011E+03	3.545298E-16	1.966875E-17
6.423955E+03	3.569968E-16	1.980401E-17
6.433899E+03	3.595595E-16	1.994462E-17
6.443844E+03	3.622187E-16	2.009064E-17
6.453788E+03	3.649542E-16	2.024093E-17
6.463732E+03	3.677530E-16	2.039479E-17
6.473676E+03	3.705968E-16	2.055118E-17
6.483620E+03	3.734707E-16	2.070930E-17
6.493565E+03	3.763581E-16	2.086822E-17
6.503509E+03	3.792456E-16	2.102720E-17
6.513453E+03	3.821091E-16	2.118491E-17
6.523397E+03	3.849275E-16	2.134016E-17
6.533341E+03	3.876916E-16	2.149247E-17
6.543286E+03	3.903635E-16	2.163973E-17
6.553230E+03	3.929318E-16	2.178130E-17
6.563174E+03	3.953663E-16	2.191552E-17
6.573118E+03	3.976415E-16	2.204097E-17
6.583062E+03	3.997418E-16	2.215680E-17
6.593007E+03	4.016344E-16	2.226118E-17
6.602951E+03	4.033133E-16	2.235379E-17
6.612895E+03	4.047505E-16	2.243308E-17
6.622839E+03	4.059423E-16	2.249883E-17
6.632783E+03	4.068744E-16	2.255027E-17
6.642728E+03	4.075473E-16	2.258741E-17
6.652672E+03	4.079626E-16	2.261035E-17
6.662616E+03	4.081265E-16	2.261943E-17
6.672560E+03	4.080517E-16	2.261536E-17
6.682504E+03	4.077558E-16	2.259911E-17
6.692449E+03	4.072724E-16	2.257254E-17
6.702393E+03	4.066136E-16	2.253632E-17
6.712337E+03	4.058273E-16	2.249312E-17
6.722281E+03	4.049440E-16	2.244461E-17
6.732225E+03	4.039970E-16	2.239264E-17
6.742170E+03	4.030373E-16	2.234004E-17
6.752114E+03	4.021020E-16	2.228887E-17
6.762058E+03	4.012332E-16	2.224146E-17
6.772002E+03	4.004790E-16	2.220047E-17
6.781946E+03	3.998756E-16	2.216791E-17
6.791891E+03	3.994624E-16	2.214597E-17
6.801835E+03	3.992829E-16	2.213707E-17
6.811779E+03	3.993718E-16	2.214311E-17
6.821723E+03	3.997558E-16	2.216560E-17
6.831668E+03	4.004682E-16	2.220638E-17
6.841612E+03	4.015281E-16	2.226652E-17
6.851556E+03	4.029605E-16	2.234739E-17
6.861500E+03	4.047754E-16	2.244957E-17
6.871444E+03	4.069941E-16	2.257424E-17
6.881389E+03	4.096056E-16	2.272080E-17
6.891333E+03	4.126265E-16	2.289018E-17
6.901277E+03	4.160407E-16	2.308148E-17
6.911221E+03	4.198431E-16	2.329444E-17
6.921165E+03	4.240127E-16	2.352789E-17
6.931110E+03	4.285341E-16	2.378101E-17
6.941054E+03	4.333757E-16	2.405203E-17
6.950998E+03	4.385136E-16	2.433963E-17
6.960942E+03	4.439072E-16	2.464158E-17
6.970886E+03	4.495246E-16	2.495612E-17
6.980831E+03	4.553184E-16	2.528061E-17
6.990775E+03	4.612514E-16	2.561301E-17
7.000719E+03	4.672715E-16	2.595042E-17
7.010663E+03	4.733312E-16	2.629021E-17
7.020607E+03	4.793825E-16	2.662973E-17
7.030552E+03	4.853765E-16	2.696626E-17
7.040496E+03	4.912655E-16	2.729715E-17
7.050440E+03	4.970014E-16	2.761973E-17
7.060384E+03	5.025384E-16	2.793146E-17
7.070328E+03	5.078310E-16	2.822982E-17
7.080273E+03	5.128367E-16	2.851243E-17
7.090217E+03	5.175065E-16	2.877657E-17
7.100161E+03	5.218021E-16	2.902010E-17
7.110105E+03	5.256939E-16	2.924137E-17
7.120049E+03	5.291406E-16	2.943808E-17
7.129994E+03	5.321106E-16	2.960846E-17
7.139938E+03	5.345749E-16	2.975089E-17
7.149882E+03	5.365073E-16	2.986389E-17
7.159826E+03	5.378769E-16	2.994573E-17
7.169770E+03	5.386716E-16	2.999572E-17
7.179715E+03	5.388675E-16	3.001252E-17
7.189659E+03	5.384521E-16	2.999541E-17
7.199603E+03	5.374177E-16	2.994394E-17
7.209547E+03	5.357616E-16	2.985794E-17
7.219491E+03	5.334864E-16	2.973753E-17
7.229436E+03	5.305846E-16	2.958228E-17
7.239380E+03	5.270862E-16	2.939383E-17
7.249324E+03	5.229960E-16	2.917242E-17
7.259268E+03	5.183482E-16	2.891995E-17
7.269212E+03	5.131754E-16	2.863819E-17
7.279157E+03	5.074999E-16	2.832838E-17
7.289101E+03	5.013725E-16	2.799333E-17
7.299045E+03	4.948329E-16	2.763523E-17
7.308989E+03	4.879319E-16	2.725690E-17
7.318933E+03	4.807226E-16	2.686129E-17
7.328878E+03	4.732523E-16	2.645101E-17
7.338822E+03	4.655836E-16	2.602955E-17
7.348766E+03	4.577571E-16	2.559918E-17
7.358710E+03	4.498332E-16	2.516325E-17
7.368654E+03	4.418502E-16	2.472389E-17
7.378599E+03	4.338700E-16	2.428456E-17
7.388543E+03	4.259316E-16	2.384744E-17
7.398487E+03	4.180767E-16	2.341487E-17
7.408431E+03	4.103436E-16	2.298898E-17
7.418375E+03	4.027727E-16	2.257203E-17
7.428320E+03	3.953812E-16	2.216501E-17
7.438264E+03	3.882082E-16	2.177009E-17
7.448208E+03	3.812699E-16	2.138820E-17
7.458152E+03	3.745912E-16	2.102074E-17
7.468097E+03	3.681933E-16	2.066891E-17
7.478041E+03	3.620831E-16	2.033311E-17
7.487985E+03	3.562756E-16	2.001418E-17
7.497929E+03	3.507783E-16	1.971256E-17
7.507873E+03	3.456014E-16	1.942884E-17
7.517818E+03	3.407424E-16	1.916288E-17
7.527762E+03	3.362078E-16	1.891507E-17
7.537706E+03	3.319962E-16	1.868535E-17
7.547650E+03	3.281055E-16	1.847361E-17
7.557594E+03	3.245317E-16	1.827964E-17
7.567539E+03	3.212745E-16	1.810344E-17
7.577483E+03	3.183259E-16	1.794458E-17
7.587427E+03	3.156778E-16	1.780261E-17
7.597371E+03	3.133142E-16	1.767667E-17
7.607315E+03	3.112328E-16	1.756662E-17
7.617260E+03	3.094091E-16	1.747110E-17
7.627204E+03	3.078381E-16	1.738985E-17
7.637148E+03	3.064980E-16	1.732165E-17
7.647092E+03	3.053771E-16	1.726585E-17
7.657036E+03	3.044477E-16	1.722091E-17
7.666981E+03	3.037072E-16	1.718668E-17
7.676925E+03	3.031222E-16	1.716129E-17
7.686869E+03	3.026847E-16	1.714429E-17
7.696813E+03	3.023673E-16	1.713414E-17
7.706757E+03	3.021618E-16	1.713038E-17
7.716702E+03	3.020511E-16	1.713206E-17
