#wls	flux	fluxerr
1.591072E+03	5.639928E-19	1.681163E-20
1.630849E+03	6.018686E-19	1.793536E-20
1.670626E+03	6.323716E-19	1.883863E-20
1.710403E+03	6.540229E-19	1.947758E-20
1.750180E+03	6.650881E-19	1.980081E-20
1.789957E+03	6.624739E-19	1.971653E-20
1.829733E+03	6.430321E-19	1.913149E-20
1.869510E+03	6.045741E-19	1.798111E-20
1.909287E+03	5.469300E-19	1.626094E-20
1.949064E+03	4.736216E-19	1.407629E-20
1.988841E+03	3.932584E-19	1.168352E-20
2.028617E+03	3.178054E-19	9.438268E-21
2.068394E+03	2.592248E-19	7.695529E-21
2.108171E+03	2.252913E-19	6.685487E-21
2.147948E+03	2.195462E-19	6.512342E-21
2.187725E+03	2.442790E-19	7.242952E-21
2.227501E+03	3.029200E-19	8.977828E-21
2.267278E+03	3.997243E-19	1.184168E-20
2.307055E+03	5.373197E-19	1.591074E-20
2.346832E+03	7.156918E-19	2.118283E-20
2.386609E+03	9.314511E-19	2.755584E-20
2.426386E+03	1.180602E-18	3.490984E-20
2.466162E+03	1.458661E-18	4.311068E-20
2.505939E+03	1.762455E-18	5.206308E-20
2.545716E+03	2.089840E-18	6.170225E-20
2.585493E+03	2.440200E-18	7.200864E-20
2.625270E+03	2.814059E-18	8.299627E-20
2.665046E+03	3.211824E-18	9.467565E-20
2.704823E+03	3.635851E-18	1.071146E-19
2.744600E+03	4.089239E-18	1.204025E-19
2.784377E+03	4.573662E-18	1.345868E-19
2.824154E+03	5.092814E-18	1.497740E-19
2.863930E+03	5.650789E-18	1.660819E-19
2.903707E+03	6.251131E-18	1.836120E-19
2.943484E+03	6.897338E-18	2.024640E-19
2.983261E+03	7.595720E-18	2.228196E-19
2.993205E+03	7.779000E-18	2.281587E-19
3.003149E+03	7.966447E-18	2.336179E-19
3.013094E+03	8.157085E-18	2.391688E-19
3.023038E+03	8.351513E-18	2.448287E-19
3.032982E+03	8.553083E-18	2.506959E-19
3.042926E+03	8.762896E-18	2.568024E-19
3.052870E+03	8.983241E-18	2.632153E-19
3.062815E+03	9.211531E-18	2.698586E-19
3.072759E+03	9.447330E-18	2.767192E-19
3.082703E+03	9.692539E-18	2.838529E-19
3.092647E+03	9.944499E-18	2.911816E-19
3.102591E+03	1.020521E-17	2.987638E-19
3.112536E+03	1.047196E-17	3.065196E-19
3.122480E+03	1.074559E-17	3.144740E-19
3.132424E+03	1.102704E-17	3.226541E-19
3.142368E+03	1.131348E-17	3.309774E-19
3.152312E+03	1.160716E-17	3.395088E-19
3.162257E+03	1.190650E-17	3.482025E-19
3.172201E+03	1.221119E-17	3.570492E-19
3.182145E+03	1.252228E-17	3.660798E-19
3.192089E+03	1.283954E-17	3.752870E-19
3.202033E+03	1.315993E-17	3.845821E-19
3.211978E+03	1.348736E-17	3.940790E-19
3.221922E+03	1.381876E-17	4.036881E-19
3.231866E+03	1.415531E-17	4.134439E-19
3.241810E+03	1.449676E-17	4.233389E-19
3.251754E+03	1.484289E-17	4.333666E-19
3.261699E+03	1.519347E-17	4.435198E-19
3.271643E+03	1.554826E-17	4.537919E-19
3.281587E+03	1.590701E-17	4.641755E-19
3.291531E+03	1.626952E-17	4.746641E-19
3.301475E+03	1.663709E-17	4.852964E-19
3.311420E+03	1.700955E-17	4.960667E-19
3.321364E+03	1.738509E-17	5.069221E-19
3.331308E+03	1.776347E-17	5.178559E-19
3.341252E+03	1.814769E-17	5.289553E-19
3.351196E+03	1.853430E-17	5.401195E-19
3.361141E+03	1.892469E-17	5.513892E-19
3.371085E+03	1.932030E-17	5.628060E-19
3.381029E+03	1.971759E-17	5.742667E-19
3.390973E+03	2.011963E-17	5.858609E-19
3.400917E+03	2.052622E-17	5.975824E-19
3.410862E+03	2.093541E-17	6.093746E-19
3.420806E+03	2.134693E-17	6.212295E-19
3.430750E+03	2.176395E-17	6.332390E-19
3.440694E+03	2.218276E-17	6.452953E-19
3.450638E+03	2.260653E-17	6.574905E-19
3.460583E+03	2.303151E-17	6.697153E-19
3.470527E+03	2.346085E-17	6.820617E-19
3.480471E+03	2.389426E-17	6.945205E-19
3.490415E+03	2.432966E-17	7.070316E-19
3.500359E+03	2.476846E-17	7.196357E-19
3.510304E+03	2.521030E-17	7.323224E-19
3.520248E+03	2.565482E-17	7.450809E-19
3.530192E+03	2.610162E-17	7.579000E-19
3.540136E+03	2.655032E-17	7.707681E-19
3.550080E+03	2.700225E-17	7.837243E-19
3.560025E+03	2.745524E-17	7.967048E-19
3.569969E+03	2.791235E-17	8.097990E-19
3.579913E+03	2.836961E-17	8.228913E-19
3.589857E+03	2.882830E-17	8.360188E-19
3.599802E+03	2.928970E-17	8.492186E-19
3.609746E+03	2.975154E-17	8.624249E-19
3.619690E+03	3.021505E-17	8.756734E-19
3.629634E+03	3.067797E-17	8.888983E-19
3.639578E+03	3.114324E-17	9.021849E-19
3.649523E+03	3.160682E-17	9.154162E-19
3.659467E+03	3.207164E-17	9.286767E-19
3.669411E+03	3.253711E-17	9.419495E-19
3.679355E+03	3.299921E-17	9.551185E-19
3.689299E+03	3.346252E-17	9.683159E-19
3.699244E+03	3.392473E-17	9.814751E-19
3.709188E+03	3.438527E-17	9.945793E-19
3.719132E+03	3.484357E-17	1.007612E-18
3.729076E+03	3.529905E-17	1.020557E-18
3.739020E+03	3.575448E-17	1.033494E-18
3.748965E+03	3.620598E-17	1.046310E-18
3.758909E+03	3.665466E-17	1.059039E-18
3.768853E+03	3.710002E-17	1.071665E-18
3.778797E+03	3.754156E-17	1.084175E-18
3.788741E+03	3.798041E-17	1.096600E-18
3.798686E+03	3.841453E-17	1.108882E-18
3.808630E+03	3.884668E-17	1.121102E-18
3.818574E+03	3.927333E-17	1.133156E-18
3.828518E+03	3.969573E-17	1.145081E-18
3.838462E+03	4.011361E-17	1.156869E-18
3.848407E+03	4.052674E-17	1.168515E-18
3.858351E+03	4.093649E-17	1.180056E-18
3.868295E+03	4.134123E-17	1.191447E-18
3.878239E+03	4.174240E-17	1.202730E-18
3.888183E+03	4.214003E-17	1.213904E-18
3.898128E+03	4.253278E-17	1.224931E-18
3.908072E+03	4.292228E-17	1.235859E-18
3.918016E+03	4.331020E-17	1.246736E-18
3.927960E+03	4.369407E-17	1.257490E-18
3.937904E+03	4.407575E-17	1.268176E-18
3.947849E+03	4.445579E-17	1.278808E-18
3.957793E+03	4.483480E-17	1.289405E-18
3.967737E+03	4.521487E-17	1.300026E-18
3.977681E+03	4.559415E-17	1.310619E-18
3.987625E+03	4.597620E-17	1.321285E-18
3.997570E+03	4.635946E-17	1.331981E-18
4.007514E+03	4.674637E-17	1.342775E-18
4.017458E+03	4.713941E-17	1.353740E-18
4.027402E+03	4.753738E-17	1.364840E-18
4.037346E+03	4.794175E-17	1.376117E-18
4.047291E+03	4.835528E-17	1.387651E-18
4.057235E+03	4.877959E-17	1.399488E-18
4.067179E+03	4.921396E-17	1.411607E-18
4.077123E+03	4.966261E-17	1.424130E-18
4.087067E+03	5.012505E-17	1.437040E-18
4.097012E+03	5.060443E-17	1.450429E-18
4.106956E+03	5.110164E-17	1.464321E-18
4.116900E+03	5.161764E-17	1.478745E-18
4.126844E+03	5.215692E-17	1.493827E-18
4.136788E+03	5.271830E-17	1.509534E-18
4.146733E+03	5.330524E-17	1.525964E-18
4.156677E+03	5.392007E-17	1.543184E-18
4.166621E+03	5.456408E-17	1.561229E-18
4.176565E+03	5.523859E-17	1.580137E-18
4.186509E+03	5.594606E-17	1.599978E-18
4.196454E+03	5.668788E-17	1.620790E-18
4.206398E+03	5.746651E-17	1.642644E-18
4.216342E+03	5.828335E-17	1.665578E-18
4.226286E+03	5.914085E-17	1.689661E-18
4.236231E+03	6.003925E-17	1.714900E-18
4.246175E+03	6.098092E-17	1.741362E-18
4.256119E+03	6.196708E-17	1.769080E-18
4.266063E+03	6.299990E-17	1.798115E-18
4.276007E+03	6.407931E-17	1.828464E-18
4.285952E+03	6.520614E-17	1.860150E-18
4.295896E+03	6.638105E-17	1.893191E-18
4.305840E+03	6.760449E-17	1.927599E-18
4.315784E+03	6.887554E-17	1.963346E-18
4.325728E+03	7.019411E-17	2.000428E-18
4.335673E+03	7.155864E-17	2.038801E-18
4.345617E+03	7.296721E-17	2.078408E-18
4.355561E+03	7.441858E-17	2.119214E-18
4.365505E+03	7.590659E-17	2.161042E-18
4.375449E+03	7.743013E-17	2.203860E-18
4.385394E+03	7.898310E-17	2.247493E-18
4.395338E+03	8.055879E-17	2.291750E-18
4.405282E+03	8.215217E-17	2.336487E-18
4.415226E+03	8.375642E-17	2.381511E-18
4.425170E+03	8.536288E-17	2.426574E-18
4.435115E+03	8.696822E-17	2.471582E-18
4.445059E+03	8.856607E-17	2.516354E-18
4.455003E+03	9.015438E-17	2.560833E-18
4.464947E+03	9.172702E-17	2.604844E-18
4.474891E+03	9.328138E-17	2.648313E-18
4.484836E+03	9.481178E-17	2.691080E-18
4.494780E+03	9.631371E-17	2.733018E-18
4.504724E+03	9.778015E-17	2.773927E-18
4.514668E+03	9.920893E-17	2.813747E-18
4.524612E+03	1.005917E-16	2.852242E-18
4.534557E+03	1.019225E-16	2.889245E-18
4.544501E+03	1.031986E-16	2.924680E-18
4.554445E+03	1.044138E-16	2.958369E-18
4.564389E+03	1.055632E-16	2.990179E-18
4.574333E+03	1.066430E-16	3.020003E-18
4.584278E+03	1.076500E-16	3.047749E-18
4.594222E+03	1.085802E-16	3.073306E-18
4.604166E+03	1.094332E-16	3.096668E-18
4.614110E+03	1.102083E-16	3.117816E-18
4.624054E+03	1.109057E-16	3.136752E-18
4.633999E+03	1.115250E-16	3.153474E-18
4.643943E+03	1.120682E-16	3.168036E-18
4.653887E+03	1.125397E-16	3.180563E-18
4.663831E+03	1.129405E-16	3.191086E-18
4.673775E+03	1.132777E-16	3.199809E-18
4.683720E+03	1.135554E-16	3.206849E-18
4.693664E+03	1.137796E-16	3.212372E-18
4.703608E+03	1.139566E-16	3.216565E-18
4.713552E+03	1.140921E-16	3.219583E-18
4.723496E+03	1.141934E-16	3.221635E-18
4.733441E+03	1.142668E-16	3.222899E-18
4.743385E+03	1.143213E-16	3.223631E-18
4.753329E+03	1.143619E-16	3.223973E-18
4.763273E+03	1.143984E-16	3.224198E-18
4.773217E+03	1.144356E-16	3.224445E-18
4.783162E+03	1.144803E-16	3.224904E-18
4.793106E+03	1.145418E-16	3.225836E-18
4.803050E+03	1.146248E-16	3.227373E-18
4.812994E+03	1.147367E-16	3.229728E-18
4.822938E+03	1.148808E-16	3.232985E-18
4.832883E+03	1.150635E-16	3.237330E-18
4.842827E+03	1.152900E-16	3.242905E-18
4.852771E+03	1.155631E-16	3.249788E-18
4.862715E+03	1.158884E-16	3.258138E-18
4.872660E+03	1.162668E-16	3.267977E-18
4.882604E+03	1.167028E-16	3.279431E-18
4.892548E+03	1.171975E-16	3.292531E-18
4.902492E+03	1.177549E-16	3.307386E-18
4.912436E+03	1.183741E-16	3.323969E-18
4.922381E+03	1.190578E-16	3.342359E-18
4.932325E+03	1.198074E-16	3.362590E-18
4.942269E+03	1.206224E-16	3.384648E-18
4.952213E+03	1.215048E-16	3.408588E-18
4.962157E+03	1.224521E-16	3.434338E-18
4.972102E+03	1.234674E-16	3.461982E-18
4.982046E+03	1.245475E-16	3.491435E-18
4.991990E+03	1.256939E-16	3.522731E-18
5.001934E+03	1.269058E-16	3.555850E-18
5.011878E+03	1.281827E-16	3.590777E-18
5.021823E+03	1.295238E-16	3.627486E-18
5.031767E+03	1.309268E-16	3.665912E-18
5.041711E+03	1.323917E-16	3.706058E-18
5.051655E+03	1.339159E-16	3.747843E-18
5.061599E+03	1.355008E-16	3.791310E-18
5.071544E+03	1.371416E-16	3.836326E-18
5.081488E+03	1.388364E-16	3.882830E-18
5.091432E+03	1.405856E-16	3.930838E-18
5.101376E+03	1.423841E-16	3.980201E-18
5.111320E+03	1.442286E-16	4.030831E-18
5.121265E+03	1.461190E-16	4.082724E-18
5.131209E+03	1.480501E-16	4.135732E-18
5.141153E+03	1.500165E-16	4.189705E-18
5.151097E+03	1.520150E-16	4.244553E-18
5.161041E+03	1.540428E-16	4.300197E-18
5.170986E+03	1.560910E-16	4.356387E-18
5.180930E+03	1.581558E-16	4.413020E-18
5.190874E+03	1.602326E-16	4.469964E-18
5.200818E+03	1.623114E-16	4.526942E-18
5.210762E+03	1.643888E-16	4.583860E-18
5.220707E+03	1.664557E-16	4.640463E-18
5.230651E+03	1.685046E-16	4.696543E-18
5.240595E+03	1.705274E-16	4.751875E-18
5.250539E+03	1.725163E-16	4.806241E-18
5.260483E+03	1.744643E-16	4.859451E-18
5.270428E+03	1.763617E-16	4.911232E-18
5.280372E+03	1.781998E-16	4.961344E-18
5.290316E+03	1.799705E-16	5.009563E-18
5.300260E+03	1.816675E-16	5.055714E-18
5.310204E+03	1.832808E-16	5.099522E-18
5.320149E+03	1.848031E-16	5.140785E-18
5.330093E+03	1.862268E-16	5.179295E-18
5.340037E+03	1.875476E-16	5.214933E-18
5.349981E+03	1.887553E-16	5.247416E-18
5.359925E+03	1.898486E-16	5.276710E-18
5.369870E+03	1.908202E-16	5.302619E-18
5.379814E+03	1.916666E-16	5.325042E-18
5.389758E+03	1.923842E-16	5.343886E-18
5.399702E+03	1.929710E-16	5.359097E-18
5.409646E+03	1.934238E-16	5.370584E-18
5.419591E+03	1.937466E-16	5.378466E-18
5.429535E+03	1.939369E-16	5.382671E-18
5.439479E+03	1.939972E-16	5.383276E-18
5.449423E+03	1.939356E-16	5.380504E-18
5.459367E+03	1.937515E-16	5.374341E-18
5.469312E+03	1.934557E-16	5.365088E-18
5.479256E+03	1.930560E-16	5.352967E-18
5.489200E+03	1.925597E-16	5.338176E-18
5.499144E+03	1.919774E-16	5.321014E-18
5.509089E+03	1.913225E-16	5.301853E-18
5.519033E+03	1.906053E-16	5.280978E-18
5.528977E+03	1.898427E-16	5.258860E-18
5.538921E+03	1.890449E-16	5.235783E-18
5.548865E+03	1.882280E-16	5.212190E-18
5.558810E+03	1.874065E-16	5.188486E-18
5.568754E+03	1.865950E-16	5.165072E-18
5.578698E+03	1.858080E-16	5.142352E-18
5.588642E+03	1.850599E-16	5.120725E-18
5.598586E+03	1.843667E-16	5.100628E-18
5.608531E+03	1.837396E-16	5.082374E-18
5.618475E+03	1.831933E-16	5.066365E-18
5.628419E+03	1.827377E-16	5.052880E-18
5.638363E+03	1.823836E-16	5.042209E-18
5.648307E+03	1.821428E-16	5.034681E-18
5.658252E+03	1.820221E-16	5.030481E-18
5.668196E+03	1.820290E-16	5.029812E-18
5.678140E+03	1.821712E-16	5.032892E-18
5.688084E+03	1.824520E-16	5.039804E-18
5.698028E+03	1.828746E-16	5.050635E-18
5.707973E+03	1.834409E-16	5.065439E-18
5.717917E+03	1.841534E-16	5.084282E-18
5.727861E+03	1.850094E-16	5.107085E-18
5.737805E+03	1.860045E-16	5.133728E-18
5.747749E+03	1.871387E-16	5.164207E-18
5.757694E+03	1.884051E-16	5.198331E-18
5.767638E+03	1.897950E-16	5.235861E-18
5.777582E+03	1.913027E-16	5.276635E-18
5.787526E+03	1.929191E-16	5.320399E-18
5.797470E+03	1.946342E-16	5.366881E-18
5.807415E+03	1.964350E-16	5.415719E-18
5.817359E+03	1.983096E-16	5.466584E-18
5.827303E+03	2.002476E-16	5.519190E-18
5.837247E+03	2.022341E-16	5.573124E-18
5.847191E+03	2.042562E-16	5.628032E-18
5.857136E+03	2.063024E-16	5.683597E-18
5.867080E+03	2.083560E-16	5.739360E-18
5.877024E+03	2.104067E-16	5.795034E-18
5.886968E+03	2.124407E-16	5.850243E-18
5.896912E+03	2.144510E-16	5.904795E-18
5.906857E+03	2.164218E-16	5.958253E-18
5.916801E+03	2.183487E-16	6.010497E-18
5.926745E+03	2.202227E-16	6.061281E-18
5.936689E+03	2.220376E-16	6.110437E-18
5.946633E+03	2.237900E-16	6.157869E-18
5.956578E+03	2.254770E-16	6.203502E-18
5.966522E+03	2.270959E-16	6.247257E-18
5.976466E+03	2.286471E-16	6.289153E-18
5.986410E+03	2.301349E-16	6.329306E-18
5.996354E+03	2.315583E-16	6.367689E-18
6.006299E+03	2.329239E-16	6.404485E-18
6.016243E+03	2.342371E-16	6.439845E-18
6.026187E+03	2.354996E-16	6.473811E-18
6.036131E+03	2.367225E-16	6.506696E-18
6.046075E+03	2.379078E-16	6.538553E-18
6.056020E+03	2.390627E-16	6.569580E-18
6.065964E+03	2.401915E-16	6.599895E-18
6.075908E+03	2.413025E-16	6.629726E-18
6.085852E+03	2.423966E-16	6.659102E-18
6.095796E+03	2.434785E-16	6.688150E-18
6.105741E+03	2.445496E-16	6.716910E-18
6.115685E+03	2.456078E-16	6.745322E-18
6.125629E+03	2.466547E-16	6.773432E-18
6.135573E+03	2.476830E-16	6.801042E-18
6.145518E+03	2.486891E-16	6.828053E-18
6.155462E+03	2.496731E-16	6.854465E-18
6.165406E+03	2.506312E-16	6.880178E-18
6.175350E+03	2.515682E-16	6.905321E-18
6.185294E+03	2.524786E-16	6.929745E-18
6.195239E+03	2.533627E-16	6.953460E-18
6.205183E+03	2.542099E-16	6.976173E-18
6.215127E+03	2.550189E-16	6.997851E-18
6.225071E+03	2.557797E-16	7.018217E-18
6.235015E+03	2.564817E-16	7.036983E-18
6.244960E+03	2.571214E-16	7.054054E-18
6.254904E+03	2.576828E-16	7.068987E-18
6.264848E+03	2.581583E-16	7.081577E-18
6.274792E+03	2.585430E-16	7.091689E-18
6.284736E+03	2.588249E-16	7.098997E-18
6.294681E+03	2.589966E-16	7.103295E-18
6.304625E+03	2.590533E-16	7.104452E-18
6.314569E+03	2.589920E-16	7.102390E-18
6.324513E+03	2.588031E-16	7.096843E-18
6.334457E+03	2.584890E-16	7.087875E-18
6.344402E+03	2.580477E-16	7.075436E-18
6.354346E+03	2.574763E-16	7.059446E-18
6.364290E+03	2.567754E-16	7.039920E-18
6.374234E+03	2.559501E-16	7.017000E-18
6.384178E+03	2.550007E-16	6.990690E-18
6.394123E+03	2.539287E-16	6.961039E-18
6.404067E+03	2.527423E-16	6.928263E-18
6.414011E+03	2.514443E-16	6.892447E-18
6.423955E+03	2.500417E-16	6.853778E-18
6.433899E+03	2.485366E-16	6.812316E-18
6.443844E+03	2.469394E-16	6.768343E-18
6.453788E+03	2.452585E-16	6.722090E-18
6.463732E+03	2.434969E-16	6.673643E-18
6.473676E+03	2.416687E-16	6.623383E-18
6.483620E+03	2.397831E-16	6.571566E-18
6.493565E+03	2.378512E-16	6.518491E-18
6.503509E+03	2.358822E-16	6.464415E-18
6.513453E+03	2.338875E-16	6.409650E-18
6.523397E+03	2.318782E-16	6.354495E-18
6.533341E+03	2.298656E-16	6.299264E-18
6.543286E+03	2.278556E-16	6.244118E-18
6.553230E+03	2.258613E-16	6.189414E-18
6.563174E+03	2.238911E-16	6.135379E-18
6.573118E+03	2.219523E-16	6.082219E-18
6.583062E+03	2.200530E-16	6.030150E-18
6.593007E+03	2.182028E-16	5.979440E-18
6.602951E+03	2.164090E-16	5.930285E-18
6.612895E+03	2.146785E-16	5.882875E-18
6.622839E+03	2.130204E-16	5.837461E-18
6.632783E+03	2.114367E-16	5.794094E-18
6.642728E+03	2.099385E-16	5.753077E-18
6.652672E+03	2.085294E-16	5.714515E-18
6.662616E+03	2.072157E-16	5.678574E-18
6.672560E+03	2.060054E-16	5.645476E-18
6.682504E+03	2.049018E-16	5.615313E-18
6.692449E+03	2.039128E-16	5.588297E-18
6.702393E+03	2.030389E-16	5.564446E-18
6.712337E+03	2.022900E-16	5.544027E-18
6.722281E+03	2.016708E-16	5.527175E-18
6.732225E+03	2.011839E-16	5.513955E-18
6.742170E+03	2.008314E-16	5.504428E-18
6.752114E+03	2.006244E-16	5.498901E-18
6.762058E+03	2.005602E-16	5.497295E-18
6.772002E+03	2.006449E-16	5.499778E-18
6.781946E+03	2.008841E-16	5.506510E-18
6.791891E+03	2.012788E-16	5.517514E-18
6.801835E+03	2.018319E-16	5.532869E-18
6.811779E+03	2.025458E-16	5.552643E-18
6.821723E+03	2.034226E-16	5.576894E-18
6.831668E+03	2.044662E-16	5.605730E-18
6.841612E+03	2.056729E-16	5.639052E-18
6.851556E+03	2.070457E-16	5.676941E-18
6.861500E+03	2.085870E-16	5.719461E-18
6.871444E+03	2.102910E-16	5.766459E-18
6.881389E+03	2.121612E-16	5.818030E-18
6.891333E+03	2.141929E-16	5.874046E-18
6.901277E+03	2.163803E-16	5.934347E-18
6.911221E+03	2.187245E-16	5.998965E-18
6.921165E+03	2.212177E-16	6.067689E-18
6.931110E+03	2.238510E-16	6.140278E-18
6.941054E+03	2.266225E-16	6.216676E-18
6.950998E+03	2.295209E-16	6.296577E-18
6.960942E+03	2.325337E-16	6.379635E-18
6.970886E+03	2.356551E-16	6.465701E-18
6.980831E+03	2.388701E-16	6.554355E-18
6.990775E+03	2.421647E-16	6.645219E-18
7.000719E+03	2.455205E-16	6.737791E-18
7.010663E+03	2.489271E-16	6.831782E-18
7.020607E+03	2.523636E-16	6.926619E-18
7.030552E+03	2.558105E-16	7.021771E-18
7.040496E+03	2.592475E-16	7.116680E-18
7.050440E+03	2.626528E-16	7.210750E-18
7.060384E+03	2.660044E-16	7.303373E-18
7.070328E+03	2.692821E-16	7.394000E-18
7.080273E+03	2.724552E-16	7.481784E-18
7.090217E+03	2.755028E-16	7.566152E-18
7.100161E+03	2.784044E-16	7.646541E-18
7.110105E+03	2.811320E-16	7.722184E-18
7.120049E+03	2.836623E-16	7.792435E-18
7.129994E+03	2.859722E-16	7.856660E-18
7.139938E+03	2.880402E-16	7.914271E-18
7.149882E+03	2.898498E-16	7.964810E-18
7.159826E+03	2.913754E-16	8.007569E-18
7.169770E+03	2.926121E-16	8.042416E-18
7.179715E+03	2.935349E-16	8.068661E-18
7.189659E+03	2.941407E-16	8.086215E-18
7.199603E+03	2.944179E-16	8.094755E-18
7.209547E+03	2.943658E-16	8.094262E-18
7.219491E+03	2.939797E-16	8.084600E-18
7.229436E+03	2.932650E-16	8.065917E-18
7.239380E+03	2.922278E-16	8.038380E-18
7.249324E+03	2.908735E-16	8.002128E-18
7.259268E+03	2.892182E-16	7.957606E-18
7.269212E+03	2.872778E-16	7.905244E-18
7.279157E+03	2.850661E-16	7.845425E-18
7.289101E+03	2.826120E-16	7.778933E-18
7.299045E+03	2.799348E-16	7.706301E-18
7.308989E+03	2.770588E-16	7.628196E-18
7.318933E+03	2.740140E-16	7.545440E-18
7.328878E+03	2.708237E-16	7.458669E-18
7.338822E+03	2.675187E-16	7.368736E-18
7.348766E+03	2.641229E-16	7.276292E-18
7.358710E+03	2.606634E-16	7.182083E-18
7.368654E+03	2.571698E-16	7.086924E-18
7.378599E+03	2.536672E-16	6.991505E-18
7.388543E+03	2.501724E-16	6.896291E-18
7.398487E+03	2.467109E-16	6.801983E-18
7.408431E+03	2.433029E-16	6.709137E-18
7.418375E+03	2.399666E-16	6.618254E-18
7.428320E+03	2.367209E-16	6.529859E-18
7.438264E+03	2.335764E-16	6.444245E-18
7.448208E+03	2.305447E-16	6.361728E-18
7.458152E+03	2.276349E-16	6.282565E-18
7.468097E+03	2.248541E-16	6.206953E-18
7.478041E+03	2.222043E-16	6.134947E-18
7.487985E+03	2.196943E-16	6.066792E-18
7.497929E+03	2.173162E-16	6.002273E-18
7.507873E+03	2.150753E-16	5.941533E-18
7.517818E+03	2.129660E-16	5.884423E-18
7.527762E+03	2.109873E-16	5.830916E-18
7.537706E+03	2.091282E-16	5.780708E-18
7.547650E+03	2.073851E-16	5.733701E-18
7.557594E+03	2.057479E-16	5.689617E-18
7.567539E+03	2.042142E-16	5.648391E-18
7.577483E+03	2.027700E-16	5.609639E-18
7.587427E+03	2.014071E-16	5.573133E-18
7.597371E+03	2.001205E-16	5.538736E-18
7.607315E+03	1.989005E-16	5.506182E-18
7.617260E+03	1.977437E-16	5.475373E-18
7.627204E+03	1.966416E-16	5.446079E-18
7.637148E+03	1.955914E-16	5.418220E-18
7.647092E+03	1.945850E-16	5.391574E-18
7.657036E+03	1.936170E-16	5.365992E-18
7.666981E+03	1.926821E-16	5.341326E-18
7.676925E+03	1.917775E-16	5.317502E-18
7.686869E+03	1.908955E-16	5.294302E-18
7.696813E+03	1.900335E-16	5.271653E-18
7.706757E+03	1.891837E-16	5.249345E-18
7.716702E+03	1.883414E-16	5.227244E-18
