#wls	flux	fluxerr
1.591072E+03	5.621271E-19	9.885234E-21
1.630849E+03	6.036454E-19	1.060148E-20
1.670626E+03	6.383020E-19	1.119510E-20
1.710403E+03	6.643326E-19	1.163562E-20
1.750180E+03	6.797828E-19	1.188940E-20
1.789957E+03	6.813841E-19	1.190014E-20
1.829733E+03	6.654809E-19	1.160511E-20
1.869510E+03	6.294606E-19	1.096022E-20
1.909287E+03	5.727907E-19	9.957874E-21
1.949064E+03	4.989372E-19	8.660020E-21
1.988841E+03	4.165550E-19	7.218218E-21
2.028617E+03	3.384687E-19	5.855210E-21
2.068394E+03	2.775154E-19	4.792464E-21
2.108171E+03	2.424210E-19	4.178986E-21
2.147948E+03	2.374177E-19	4.085295E-21
2.187725E+03	2.653458E-19	4.557350E-21
2.227501E+03	3.305145E-19	5.665791E-21
2.267278E+03	4.378406E-19	7.490925E-21
2.307055E+03	5.909133E-19	1.008955E-20
2.346832E+03	7.898461E-19	1.345854E-20
2.386609E+03	1.031432E-18	1.753807E-20
2.426386E+03	1.311231E-18	2.224765E-20
2.466162E+03	1.624232E-18	2.749760E-20
2.505939E+03	1.967274E-18	3.323001E-20
2.545716E+03	2.337542E-18	3.939316E-20
2.585493E+03	2.733965E-18	4.596494E-20
2.625270E+03	3.156581E-18	5.294186E-20
2.665046E+03	3.606287E-18	6.033466E-20
2.704823E+03	4.085151E-18	6.817336E-20
2.744600E+03	4.594630E-18	7.647724E-20
2.784377E+03	5.136864E-18	8.527655E-20
2.824154E+03	5.714817E-18	9.461462E-20
2.863930E+03	6.332418E-18	1.045500E-19
2.903707E+03	6.990501E-18	1.150894E-19
2.943484E+03	7.693656E-18	1.263008E-19
2.983261E+03	8.444810E-18	1.382237E-19
2.993205E+03	8.640517E-18	1.413215E-19
3.003149E+03	8.839700E-18	1.444708E-19
3.013094E+03	9.041380E-18	1.476555E-19
3.023038E+03	9.247184E-18	1.509020E-19
3.032982E+03	9.459628E-18	1.542511E-19
3.042926E+03	9.681066E-18	1.577411E-19
3.052870E+03	9.911559E-18	1.613723E-19
3.062815E+03	1.015059E-17	1.651362E-19
3.072759E+03	1.039766E-17	1.690241E-19
3.082703E+03	1.065229E-17	1.730280E-19
3.092647E+03	1.091400E-17	1.771398E-19
3.102591E+03	1.118235E-17	1.813519E-19
3.112536E+03	1.145688E-17	1.856567E-19
3.122480E+03	1.173831E-17	1.900657E-19
3.132424E+03	1.202628E-17	1.945723E-19
3.142368E+03	1.231801E-17	1.991318E-19
3.152312E+03	1.261548E-17	2.037755E-19
3.162257E+03	1.291832E-17	2.084976E-19
3.172201E+03	1.322495E-17	2.132719E-19
3.182145E+03	1.353622E-17	2.181124E-19
3.192089E+03	1.385055E-17	2.229931E-19
3.202033E+03	1.417012E-17	2.279490E-19
3.211978E+03	1.449207E-17	2.329338E-19
3.221922E+03	1.481735E-17	2.379627E-19
3.231866E+03	1.514565E-17	2.430305E-19
3.241810E+03	1.547669E-17	2.481324E-19
3.251754E+03	1.581150E-17	2.532852E-19
3.261699E+03	1.614714E-17	2.584410E-19
3.271643E+03	1.648603E-17	2.636388E-19
3.281587E+03	1.682654E-17	2.688524E-19
3.291531E+03	1.716981E-17	2.740998E-19
3.301475E+03	1.751422E-17	2.793548E-19
3.311420E+03	1.786091E-17	2.846358E-19
3.321364E+03	1.820825E-17	2.899166E-19
3.331308E+03	1.855744E-17	2.952159E-19
3.341252E+03	1.890825E-17	3.005303E-19
3.351196E+03	1.926048E-17	3.058566E-19
3.361141E+03	1.961394E-17	3.111911E-19
3.371085E+03	1.996987E-17	3.165540E-19
3.381029E+03	2.032516E-17	3.218955E-19
3.390973E+03	2.068255E-17	3.272590E-19
3.400917E+03	2.104037E-17	3.326180E-19
3.410862E+03	2.139991E-17	3.379928E-19
3.420806E+03	2.175951E-17	3.433570E-19
3.430750E+03	2.212044E-17	3.487308E-19
3.440694E+03	2.248403E-17	3.541348E-19
3.450638E+03	2.284710E-17	3.595190E-19
3.460583E+03	2.321096E-17	3.649037E-19
3.470527E+03	2.357542E-17	3.702860E-19
3.480471E+03	2.394177E-17	3.756861E-19
3.490415E+03	2.430832E-17	3.810774E-19
3.500359E+03	2.467488E-17	3.864567E-19
3.510304E+03	2.504274E-17	3.918443E-19
3.520248E+03	2.541169E-17	3.972367E-19
3.530192E+03	2.578152E-17	4.026308E-19
3.540136E+03	2.615201E-17	4.080227E-19
3.550080E+03	2.652443E-17	4.134324E-19
3.560025E+03	2.689558E-17	4.188096E-19
3.569969E+03	2.726818E-17	4.241972E-19
3.579913E+03	2.764053E-17	4.295682E-19
3.589857E+03	2.801386E-17	4.349417E-19
3.599802E+03	2.838791E-17	4.403138E-19
3.609746E+03	2.876242E-17	4.456803E-19
3.619690E+03	2.913713E-17	4.510369E-19
3.629634E+03	2.951176E-17	4.563796E-19
3.639578E+03	2.988748E-17	4.617264E-19
3.649523E+03	3.026257E-17	4.670503E-19
3.659467E+03	3.063816E-17	4.723692E-19
3.669411E+03	3.101254E-17	4.776563E-19
3.679355E+03	3.138684E-17	4.829291E-19
3.689299E+03	3.176216E-17	4.882048E-19
3.699244E+03	3.213535E-17	4.934346E-19
3.709188E+03	3.250893E-17	4.986573E-19
3.719132E+03	3.288117E-17	5.038464E-19
3.729076E+03	3.325314E-17	5.090184E-19
3.739020E+03	3.362452E-17	5.141680E-19
3.748965E+03	3.399359E-17	5.192695E-19
3.758909E+03	3.436279E-17	5.243598E-19
3.768853E+03	3.472906E-17	5.293925E-19
3.778797E+03	3.509481E-17	5.344043E-19
3.788741E+03	3.545838E-17	5.393697E-19
3.798686E+03	3.582079E-17	5.443047E-19
3.808630E+03	3.618044E-17	5.491849E-19
3.818574E+03	3.653838E-17	5.540263E-19
3.828518E+03	3.689305E-17	5.588054E-19
3.838462E+03	3.724682E-17	5.635581E-19
3.848407E+03	3.759691E-17	5.682426E-19
3.858351E+03	3.794571E-17	5.728950E-19
3.868295E+03	3.829181E-17	5.774940E-19
3.878239E+03	3.863389E-17	5.820201E-19
3.888183E+03	3.897563E-17	5.865288E-19
3.898128E+03	3.931336E-17	5.909648E-19
3.908072E+03	3.964962E-17	5.953666E-19
3.918016E+03	3.998453E-17	5.997359E-19
3.927960E+03	4.031595E-17	6.040410E-19
3.937904E+03	4.064775E-17	6.083396E-19
3.947849E+03	4.097797E-17	6.126027E-19
3.957793E+03	4.130712E-17	6.168379E-19
3.967737E+03	4.163695E-17	6.210714E-19
3.977681E+03	4.196703E-17	6.252967E-19
3.987625E+03	4.229930E-17	6.295428E-19
3.997570E+03	4.263467E-17	6.338229E-19
4.007514E+03	4.297197E-17	6.381196E-19
4.017458E+03	4.331455E-17	6.424828E-19
4.027402E+03	4.366261E-17	6.469147E-19
4.037346E+03	4.401751E-17	6.514355E-19
4.047291E+03	4.438075E-17	6.560670E-19
4.057235E+03	4.475392E-17	6.608323E-19
4.067179E+03	4.513770E-17	6.657409E-19
4.077123E+03	4.553493E-17	6.708341E-19
4.087067E+03	4.594647E-17	6.761241E-19
4.097012E+03	4.637535E-17	6.816544E-19
4.106956E+03	4.682161E-17	6.874251E-19
4.116900E+03	4.728745E-17	6.934674E-19
4.126844E+03	4.777610E-17	6.998277E-19
4.136788E+03	4.828791E-17	7.065100E-19
4.146733E+03	4.882721E-17	7.135766E-19
4.156677E+03	4.939356E-17	7.210194E-19
4.166621E+03	4.999042E-17	7.288879E-19
4.176565E+03	5.062038E-17	7.372180E-19
4.186509E+03	5.128509E-17	7.460323E-19
4.196454E+03	5.198625E-17	7.553539E-19
4.206398E+03	5.272756E-17	7.652343E-19
4.216342E+03	5.350887E-17	7.756695E-19
4.226286E+03	5.433486E-17	7.867254E-19
4.236231E+03	5.520638E-17	7.984123E-19
4.246175E+03	5.612622E-17	8.107678E-19
4.256119E+03	5.709616E-17	8.238156E-19
4.266063E+03	5.811794E-17	8.375781E-19
4.276007E+03	5.919322E-17	8.520769E-19
4.285952E+03	6.032552E-17	8.673598E-19
4.295896E+03	6.151430E-17	8.834163E-19
4.305840E+03	6.276178E-17	9.002756E-19
4.315784E+03	6.406895E-17	9.179490E-19
4.325728E+03	6.543652E-17	9.364439E-19
4.335673E+03	6.686484E-17	9.557622E-19
4.345617E+03	6.835385E-17	9.759001E-19
4.355561E+03	6.990192E-17	9.968318E-19
4.365505E+03	7.150891E-17	1.018552E-18
4.375449E+03	7.317092E-17	1.041003E-18
4.385394E+03	7.488742E-17	1.064175E-18
4.395338E+03	7.665396E-17	1.088002E-18
4.405282E+03	7.846514E-17	1.112404E-18
4.415226E+03	8.031558E-17	1.137305E-18
4.425170E+03	8.220119E-17	1.162644E-18
4.435115E+03	8.411227E-17	1.188282E-18
4.445059E+03	8.604249E-17	1.214131E-18
4.455003E+03	8.798338E-17	1.240069E-18
4.464947E+03	8.992553E-17	1.265963E-18
4.474891E+03	9.185718E-17	1.291649E-18
4.484836E+03	9.376830E-17	1.316987E-18
4.494780E+03	9.564784E-17	1.341822E-18
4.504724E+03	9.748101E-17	1.365949E-18
4.514668E+03	9.925583E-17	1.389204E-18
4.524612E+03	1.009595E-16	1.411410E-18
4.534557E+03	1.025801E-16	1.432404E-18
4.544501E+03	1.041042E-16	1.452004E-18
4.554445E+03	1.055212E-16	1.470067E-18
4.564389E+03	1.068205E-16	1.486451E-18
4.574333E+03	1.079930E-16	1.501035E-18
4.584278E+03	1.090294E-16	1.513696E-18
4.594222E+03	1.099267E-16	1.524399E-18
4.604166E+03	1.106793E-16	1.533075E-18
4.614110E+03	1.112857E-16	1.539709E-18
4.624054E+03	1.117472E-16	1.544326E-18
4.633999E+03	1.120664E-16	1.546969E-18
4.643943E+03	1.122490E-16	1.547724E-18
4.653887E+03	1.123002E-16	1.546668E-18
4.663831E+03	1.122294E-16	1.543938E-18
4.673775E+03	1.120476E-16	1.539690E-18
4.683720E+03	1.117670E-16	1.534099E-18
4.693664E+03	1.114010E-16	1.527350E-18
4.703608E+03	1.109635E-16	1.519638E-18
4.713552E+03	1.104700E-16	1.511181E-18
4.723496E+03	1.099364E-16	1.502197E-18
4.733441E+03	1.093795E-16	1.492918E-18
4.743385E+03	1.088171E-16	1.483586E-18
4.753329E+03	1.082635E-16	1.474397E-18
4.763273E+03	1.077283E-16	1.465482E-18
4.773217E+03	1.072208E-16	1.456965E-18
4.783162E+03	1.067452E-16	1.448905E-18
4.793106E+03	1.063097E-16	1.441407E-18
4.803050E+03	1.059208E-16	1.434562E-18
4.812994E+03	1.055827E-16	1.428422E-18
4.822938E+03	1.053024E-16	1.423078E-18
4.832883E+03	1.050829E-16	1.418572E-18
4.842827E+03	1.049284E-16	1.414955E-18
4.852771E+03	1.048433E-16	1.412283E-18
4.862715E+03	1.048286E-16	1.410568E-18
4.872660E+03	1.048847E-16	1.409813E-18
4.882604E+03	1.050144E-16	1.410051E-18
4.892548E+03	1.052165E-16	1.411262E-18
4.902492E+03	1.054912E-16	1.413448E-18
4.912436E+03	1.058361E-16	1.416572E-18
4.922381E+03	1.062501E-16	1.420618E-18
4.932325E+03	1.067323E-16	1.425569E-18
4.942269E+03	1.072787E-16	1.431371E-18
4.952213E+03	1.078888E-16	1.438013E-18
4.962157E+03	1.085584E-16	1.445438E-18
4.972102E+03	1.092843E-16	1.453602E-18
4.982046E+03	1.100648E-16	1.462478E-18
4.991990E+03	1.108979E-16	1.472038E-18
5.001934E+03	1.117809E-16	1.482244E-18
5.011878E+03	1.127097E-16	1.493041E-18
5.021823E+03	1.136843E-16	1.504427E-18
5.031767E+03	1.147010E-16	1.516352E-18
5.041711E+03	1.157589E-16	1.528800E-18
5.051655E+03	1.168557E-16	1.541744E-18
5.061599E+03	1.179895E-16	1.555153E-18
5.071544E+03	1.191594E-16	1.569017E-18
5.081488E+03	1.203621E-16	1.583290E-18
5.091432E+03	1.215967E-16	1.597960E-18
5.101376E+03	1.228609E-16	1.612996E-18
5.111320E+03	1.241520E-16	1.628362E-18
5.121265E+03	1.254687E-16	1.644038E-18
5.131209E+03	1.268063E-16	1.659964E-18
5.141153E+03	1.281615E-16	1.676096E-18
5.151097E+03	1.295315E-16	1.692398E-18
5.161041E+03	1.309121E-16	1.708815E-18
5.170986E+03	1.322974E-16	1.725268E-18
5.180930E+03	1.336849E-16	1.741726E-18
5.190874E+03	1.350649E-16	1.758064E-18
5.200818E+03	1.364356E-16	1.774258E-18
5.210762E+03	1.377896E-16	1.790213E-18
5.220707E+03	1.391188E-16	1.805824E-18
5.230651E+03	1.404177E-16	1.821024E-18
5.240595E+03	1.416796E-16	1.835725E-18
5.250539E+03	1.428974E-16	1.849836E-18
5.260483E+03	1.440637E-16	1.863266E-18
5.270428E+03	1.451702E-16	1.875909E-18
5.280372E+03	1.462113E-16	1.887695E-18
5.290316E+03	1.471803E-16	1.898539E-18
5.300260E+03	1.480691E-16	1.908342E-18
5.310204E+03	1.488729E-16	1.917043E-18
5.320149E+03	1.495861E-16	1.924575E-18
5.330093E+03	1.502033E-16	1.930870E-18
5.340037E+03	1.507199E-16	1.935875E-18
5.349981E+03	1.511313E-16	1.939532E-18
5.359925E+03	1.514336E-16	1.941795E-18
5.369870E+03	1.516241E-16	1.942634E-18
5.379814E+03	1.516980E-16	1.941990E-18
5.389758E+03	1.516522E-16	1.939829E-18
5.399702E+03	1.514830E-16	1.936104E-18
5.409646E+03	1.511886E-16	1.930797E-18
5.419591E+03	1.507685E-16	1.923906E-18
5.429535E+03	1.502232E-16	1.915441E-18
5.439479E+03	1.495552E-16	1.905436E-18
5.449423E+03	1.487660E-16	1.893916E-18
5.459367E+03	1.478606E-16	1.880944E-18
5.469312E+03	1.468440E-16	1.866592E-18
5.479256E+03	1.457243E-16	1.850960E-18
5.489200E+03	1.445052E-16	1.834102E-18
5.499144E+03	1.431996E-16	1.816182E-18
5.509089E+03	1.418173E-16	1.797327E-18
5.519033E+03	1.403682E-16	1.777664E-18
5.528977E+03	1.388665E-16	1.757374E-18
5.538921E+03	1.373271E-16	1.736646E-18
5.548865E+03	1.357634E-16	1.715650E-18
5.558810E+03	1.341931E-16	1.694611E-18
5.568754E+03	1.326316E-16	1.673722E-18
5.578698E+03	1.310958E-16	1.653196E-18
5.588642E+03	1.296021E-16	1.633237E-18
5.598586E+03	1.281664E-16	1.614046E-18
5.608531E+03	1.268015E-16	1.595781E-18
5.618475E+03	1.255253E-16	1.578665E-18
5.628419E+03	1.243484E-16	1.562829E-18
5.638363E+03	1.232827E-16	1.548420E-18
5.648307E+03	1.223400E-16	1.535581E-18
5.658252E+03	1.215279E-16	1.524407E-18
5.668196E+03	1.208541E-16	1.514990E-18
5.678140E+03	1.203258E-16	1.507417E-18
5.688084E+03	1.199475E-16	1.501739E-18
5.698028E+03	1.197209E-16	1.497977E-18
5.707973E+03	1.196488E-16	1.496159E-18
5.717917E+03	1.197297E-16	1.496265E-18
5.727861E+03	1.199634E-16	1.498288E-18
5.737805E+03	1.203469E-16	1.502188E-18
5.747749E+03	1.208757E-16	1.507904E-18
5.757694E+03	1.215428E-16	1.515348E-18
5.767638E+03	1.223422E-16	1.524442E-18
5.777582E+03	1.232657E-16	1.535080E-18
5.787526E+03	1.243036E-16	1.547140E-18
5.797470E+03	1.254442E-16	1.560473E-18
5.807415E+03	1.266771E-16	1.574951E-18
5.817359E+03	1.279915E-16	1.590435E-18
5.827303E+03	1.293707E-16	1.606719E-18
5.837247E+03	1.308056E-16	1.623687E-18
5.847191E+03	1.322802E-16	1.641141E-18
5.857136E+03	1.337843E-16	1.658953E-18
5.867080E+03	1.353011E-16	1.676918E-18
5.877024E+03	1.368227E-16	1.694935E-18
5.886968E+03	1.383341E-16	1.712820E-18
5.896912E+03	1.398295E-16	1.730503E-18
5.906857E+03	1.412966E-16	1.747830E-18
5.916801E+03	1.427312E-16	1.764754E-18
5.926745E+03	1.441272E-16	1.781197E-18
5.936689E+03	1.454815E-16	1.797123E-18
5.946633E+03	1.467930E-16	1.812521E-18
5.956578E+03	1.480628E-16	1.827404E-18
5.966522E+03	1.492922E-16	1.841790E-18
5.976466E+03	1.504860E-16	1.855741E-18
5.986410E+03	1.516522E-16	1.869354E-18
5.996354E+03	1.527957E-16	1.882691E-18
6.006299E+03	1.539272E-16	1.895887E-18
6.016243E+03	1.550554E-16	1.909047E-18
6.026187E+03	1.561897E-16	1.922288E-18
6.036131E+03	1.573429E-16	1.935769E-18
6.046075E+03	1.585232E-16	1.949590E-18
6.056020E+03	1.597433E-16	1.963908E-18
6.065964E+03	1.610120E-16	1.978831E-18
6.075908E+03	1.623373E-16	1.994458E-18
6.085852E+03	1.637277E-16	2.010892E-18
6.095796E+03	1.651884E-16	2.028198E-18
6.105741E+03	1.667247E-16	2.046441E-18
6.115685E+03	1.683434E-16	2.065704E-18
6.125629E+03	1.700426E-16	2.085964E-18
6.135573E+03	1.718302E-16	2.107317E-18
6.145518E+03	1.737088E-16	2.129795E-18
6.155462E+03	1.756703E-16	2.153301E-18
6.165406E+03	1.777011E-16	2.177665E-18
6.175350E+03	1.797920E-16	2.202778E-18
6.185294E+03	1.819304E-16	2.228485E-18
6.195239E+03	1.841017E-16	2.254609E-18
6.205183E+03	1.862952E-16	2.281017E-18
6.215127E+03	1.884902E-16	2.307459E-18
6.225071E+03	1.906718E-16	2.333753E-18
6.235015E+03	1.928212E-16	2.359670E-18
6.244960E+03	1.949142E-16	2.384914E-18
6.254904E+03	1.969358E-16	2.409301E-18
6.264848E+03	1.988642E-16	2.432568E-18
6.274792E+03	2.006813E-16	2.454493E-18
6.284736E+03	2.023721E-16	2.474894E-18
6.294681E+03	2.039221E-16	2.493594E-18
6.304625E+03	2.053186E-16	2.510438E-18
6.314569E+03	2.065509E-16	2.525298E-18
6.324513E+03	2.076112E-16	2.538076E-18
6.334457E+03	2.084941E-16	2.548709E-18
6.344402E+03	2.091985E-16	2.557183E-18
6.354346E+03	2.097187E-16	2.563430E-18
6.364290E+03	2.100603E-16	2.567518E-18
6.374234E+03	2.102217E-16	2.569426E-18
6.384178E+03	2.102120E-16	2.569266E-18
6.394123E+03	2.100301E-16	2.567026E-18
6.404067E+03	2.096903E-16	2.562879E-18
6.414011E+03	2.091936E-16	2.556836E-18
6.423955E+03	2.085511E-16	2.549035E-18
6.433899E+03	2.077726E-16	2.539592E-18
6.443844E+03	2.068653E-16	2.528596E-18
6.453788E+03	2.058416E-16	2.516197E-18
6.463732E+03	2.047096E-16	2.502495E-18
6.473676E+03	2.034815E-16	2.487639E-18
6.483620E+03	2.021678E-16	2.471752E-18
6.493565E+03	2.007784E-16	2.454959E-18
6.503509E+03	1.993229E-16	2.437375E-18
6.513453E+03	1.978133E-16	2.419144E-18
6.523397E+03	1.962587E-16	2.400380E-18
6.533341E+03	1.946682E-16	2.381192E-18
6.543286E+03	1.930547E-16	2.361736E-18
6.553230E+03	1.914266E-16	2.342114E-18
6.563174E+03	1.897897E-16	2.322399E-18
6.573118E+03	1.881580E-16	2.302758E-18
6.583062E+03	1.865347E-16	2.283233E-18
6.593007E+03	1.849310E-16	2.263959E-18
6.602951E+03	1.833537E-16	2.245019E-18
6.612895E+03	1.818093E-16	2.226492E-18
6.622839E+03	1.803060E-16	2.208478E-18
6.632783E+03	1.788479E-16	2.191028E-18
6.642728E+03	1.774447E-16	2.174259E-18
6.652672E+03	1.761019E-16	2.158240E-18
6.662616E+03	1.748228E-16	2.143011E-18
6.672560E+03	1.736146E-16	2.128660E-18
6.682504E+03	1.724822E-16	2.115248E-18
6.692449E+03	1.714304E-16	2.102833E-18
6.702393E+03	1.704674E-16	2.091517E-18
6.712337E+03	1.695939E-16	2.081308E-18
6.722281E+03	1.688158E-16	2.072281E-18
6.732225E+03	1.681372E-16	2.064485E-18
6.742170E+03	1.675616E-16	2.057966E-18
6.752114E+03	1.670946E-16	2.052791E-18
6.762058E+03	1.667374E-16	2.048976E-18
6.772002E+03	1.664950E-16	2.046585E-18
6.781946E+03	1.663679E-16	2.045626E-18
6.791891E+03	1.663626E-16	2.046177E-18
6.801835E+03	1.664771E-16	2.048218E-18
6.811779E+03	1.667169E-16	2.051817E-18
6.821723E+03	1.670795E-16	2.056944E-18
6.831668E+03	1.675694E-16	2.063657E-18
6.841612E+03	1.681852E-16	2.071940E-18
6.851556E+03	1.689265E-16	2.081791E-18
6.861500E+03	1.697947E-16	2.093227E-18
6.871444E+03	1.707864E-16	2.106209E-18
6.881389E+03	1.718995E-16	2.120714E-18
6.891333E+03	1.731334E-16	2.136737E-18
6.901277E+03	1.744826E-16	2.154211E-18
6.911221E+03	1.759450E-16	2.173111E-18
6.921165E+03	1.775134E-16	2.193352E-18
6.931110E+03	1.791838E-16	2.214888E-18
6.941054E+03	1.809496E-16	2.237637E-18
6.950998E+03	1.827984E-16	2.261448E-18
6.960942E+03	1.847281E-16	2.286297E-18
6.970886E+03	1.867243E-16	2.312009E-18
6.980831E+03	1.887760E-16	2.338449E-18
6.990775E+03	1.908713E-16	2.365472E-18
7.000719E+03	1.929995E-16	2.392945E-18
7.010663E+03	1.951443E-16	2.420668E-18
7.020607E+03	1.972930E-16	2.448485E-18
7.030552E+03	1.994274E-16	2.476171E-18
7.040496E+03	2.015282E-16	2.503485E-18
7.050440E+03	2.035827E-16	2.530274E-18
7.060384E+03	2.055704E-16	2.556278E-18
7.070328E+03	2.074727E-16	2.581268E-18
7.080273E+03	2.092705E-16	2.605006E-18
7.090217E+03	2.109423E-16	2.627220E-18
7.100161E+03	2.124717E-16	2.647706E-18
7.110105E+03	2.138401E-16	2.666231E-18
7.120049E+03	2.150269E-16	2.682534E-18
7.129994E+03	2.160150E-16	2.696399E-18
7.139938E+03	2.167913E-16	2.707658E-18
7.149882E+03	2.173388E-16	2.716095E-18
7.159826E+03	2.176448E-16	2.721548E-18
7.169770E+03	2.176963E-16	2.723847E-18
7.179715E+03	2.174906E-16	2.722955E-18
7.189659E+03	2.170171E-16	2.718731E-18
7.199603E+03	2.162760E-16	2.711173E-18
7.209547E+03	2.152650E-16	2.700246E-18
7.219491E+03	2.139880E-16	2.685993E-18
7.229436E+03	2.124548E-16	2.668528E-18
7.239380E+03	2.106701E-16	2.647906E-18
7.249324E+03	2.086530E-16	2.624357E-18
7.259268E+03	2.064143E-16	2.598014E-18
7.269212E+03	2.039762E-16	2.569148E-18
7.279157E+03	2.013576E-16	2.537992E-18
7.289101E+03	1.985851E-16	2.504877E-18
7.299045E+03	1.956818E-16	2.470088E-18
7.308989E+03	1.926771E-16	2.433991E-18
7.318933E+03	1.895936E-16	2.396870E-18
7.328878E+03	1.864620E-16	2.359108E-18
7.338822E+03	1.833100E-16	2.321055E-18
7.348766E+03	1.801648E-16	2.283053E-18
7.358710E+03	1.770480E-16	2.245375E-18
7.368654E+03	1.739865E-16	2.208363E-18
7.378599E+03	1.710011E-16	2.172282E-18
7.388543E+03	1.681106E-16	2.137370E-18
7.398487E+03	1.653336E-16	2.103868E-18
7.408431E+03	1.626885E-16	2.072013E-18
7.418375E+03	1.601888E-16	2.041979E-18
7.428320E+03	1.578456E-16	2.013913E-18
7.438264E+03	1.556692E-16	1.987950E-18
7.448208E+03	1.536636E-16	1.964146E-18
7.458152E+03	1.518322E-16	1.942551E-18
7.468097E+03	1.501782E-16	1.923211E-18
7.478041E+03	1.487007E-16	1.906119E-18
7.487985E+03	1.473948E-16	1.891219E-18
7.497929E+03	1.462575E-16	1.878480E-18
7.507873E+03	1.452824E-16	1.867823E-18
7.517818E+03	1.444614E-16	1.859148E-18
7.527762E+03	1.437848E-16	1.852339E-18
7.537706E+03	1.432419E-16	1.847260E-18
7.547650E+03	1.428205E-16	1.843759E-18
7.557594E+03	1.425092E-16	1.841693E-18
7.567539E+03	1.422904E-16	1.840837E-18
7.577483E+03	1.421530E-16	1.841053E-18
7.587427E+03	1.420828E-16	1.842159E-18
7.597371E+03	1.420658E-16	1.843974E-18
7.607315E+03	1.420947E-16	1.846407E-18
7.617260E+03	1.421631E-16	1.849376E-18
7.627204E+03	1.422637E-16	1.852787E-18
7.637148E+03	1.423951E-16	1.856622E-18
7.647092E+03	1.425481E-16	1.860762E-18
7.657036E+03	1.427190E-16	1.865162E-18
7.666981E+03	1.429042E-16	1.869772E-18
7.676925E+03	1.430941E-16	1.874469E-18
7.686869E+03	1.432870E-16	1.879227E-18
7.696813E+03	1.434752E-16	1.883950E-18
7.706757E+03	1.436533E-16	1.888564E-18
7.716702E+03	1.438163E-16	1.893000E-18
