#wls	flux	fluxerr
1.591072E+03	5.056627E-19	5.893649E-20
1.630849E+03	5.427838E-19	6.325137E-20
1.670626E+03	5.736590E-19	6.683664E-20
1.710403E+03	5.964919E-19	6.948341E-20
1.750180E+03	6.097285E-19	7.101118E-20
1.789957E+03	6.102427E-19	7.105660E-20
1.829733E+03	5.949282E-19	6.925894E-20
1.869510E+03	5.615410E-19	6.535819E-20
1.909287E+03	5.096622E-19	5.930701E-20
1.949064E+03	4.427306E-19	5.150695E-20
1.988841E+03	3.684339E-19	4.285351E-20
2.028617E+03	2.982985E-19	3.468775E-20
2.068394E+03	2.435818E-19	2.831820E-20
2.108171E+03	2.118388E-19	2.462179E-20
2.147948E+03	2.064442E-19	2.398876E-20
2.187725E+03	2.295151E-19	2.666274E-20
2.227501E+03	2.841899E-19	3.300563E-20
2.267278E+03	3.742416E-19	4.345250E-20
2.307055E+03	5.016802E-19	5.823318E-20
2.346832E+03	6.657439E-19	7.725542E-20
2.386609E+03	8.627345E-19	1.000862E-19
2.426386E+03	1.087926E-18	1.261739E-19
2.466162E+03	1.336237E-18	1.549258E-19
2.505939E+03	1.603704E-18	1.858796E-19
2.545716E+03	1.887572E-18	2.187135E-19
2.585493E+03	2.185644E-18	2.531705E-19
2.625270E+03	2.497404E-18	2.891887E-19
2.665046E+03	2.822466E-18	3.267212E-19
2.704823E+03	3.161243E-18	3.658134E-19
2.744600E+03	3.514069E-18	4.065015E-19
2.784377E+03	3.882359E-18	4.489467E-19
2.824154E+03	4.265741E-18	4.931033E-19
2.863930E+03	4.666859E-18	5.392740E-19
2.903707E+03	5.085862E-18	5.874727E-19
2.943484E+03	5.523878E-18	6.378266E-19
2.983261E+03	5.982661E-18	6.905345E-19
2.993205E+03	6.100991E-18	7.041237E-19
3.003149E+03	6.219988E-18	7.177869E-19
3.013094E+03	6.340994E-18	7.316790E-19
3.023038E+03	6.463109E-18	7.456959E-19
3.032982E+03	6.589457E-18	7.601981E-19
3.042926E+03	6.720966E-18	7.752925E-19
3.052870E+03	6.857640E-18	7.909791E-19
3.062815E+03	6.999085E-18	8.072126E-19
3.072759E+03	7.144934E-18	8.239503E-19
3.082703E+03	7.295585E-18	8.412379E-19
3.092647E+03	7.449212E-18	8.588648E-19
3.102591E+03	7.606999E-18	8.769673E-19
3.112536E+03	7.768680E-18	8.955145E-19
3.122480E+03	7.932402E-18	9.142928E-19
3.132424E+03	8.099462E-18	9.334515E-19
3.142368E+03	8.268818E-18	9.528703E-19
3.152312E+03	8.440209E-18	9.725192E-19
3.162257E+03	8.614228E-18	9.924663E-19
3.172201E+03	8.789835E-18	1.012592E-18
3.182145E+03	8.966818E-18	1.032871E-18
3.192089E+03	9.145827E-18	1.053379E-18
3.202033E+03	9.325832E-18	1.073996E-18
3.211978E+03	9.507531E-18	1.094804E-18
3.221922E+03	9.689894E-18	1.115684E-18
3.231866E+03	9.873665E-18	1.136720E-18
3.241810E+03	1.005781E-17	1.157795E-18
3.251754E+03	1.024312E-17	1.178998E-18
3.261699E+03	1.042950E-17	1.200319E-18
3.271643E+03	1.061592E-17	1.221640E-18
3.281587E+03	1.080227E-17	1.242948E-18
3.291531E+03	1.099038E-17	1.264453E-18
3.301475E+03	1.117732E-17	1.285819E-18
3.311420E+03	1.136591E-17	1.307367E-18
3.321364E+03	1.155417E-17	1.328874E-18
3.331308E+03	1.174402E-17	1.350558E-18
3.341252E+03	1.193249E-17	1.372077E-18
3.351196E+03	1.212250E-17	1.393768E-18
3.361141E+03	1.231306E-17	1.415516E-18
3.371085E+03	1.250316E-17	1.437207E-18
3.381029E+03	1.269380E-17	1.458955E-18
3.390973E+03	1.288500E-17	1.480760E-18
3.400917E+03	1.307675E-17	1.502623E-18
3.410862E+03	1.326910E-17	1.524549E-18
3.420806E+03	1.346205E-17	1.546539E-18
3.430750E+03	1.365564E-17	1.568597E-18
3.440694E+03	1.384990E-17	1.590726E-18
3.450638E+03	1.404488E-17	1.612931E-18
3.460583E+03	1.424166E-17	1.635337E-18
3.470527E+03	1.443819E-17	1.657708E-18
3.480471E+03	1.463557E-17	1.680171E-18
3.490415E+03	1.483491E-17	1.702854E-18
3.500359E+03	1.503520E-17	1.725639E-18
3.510304E+03	1.523651E-17	1.748535E-18
3.520248E+03	1.543889E-17	1.771548E-18
3.530192E+03	1.564241E-17	1.794685E-18
3.540136E+03	1.584819E-17	1.818075E-18
3.550080E+03	1.605524E-17	1.841604E-18
3.560025E+03	1.626470E-17	1.865404E-18
3.569969E+03	1.647556E-17	1.889357E-18
3.579913E+03	1.668789E-17	1.913472E-18
3.589857E+03	1.690284E-17	1.937882E-18
3.599802E+03	1.711941E-17	1.962470E-18
3.609746E+03	1.733765E-17	1.987243E-18
3.619690E+03	1.755876E-17	2.012337E-18
3.629634E+03	1.778279E-17	2.037760E-18
3.639578E+03	1.800873E-17	2.063394E-18
3.649523E+03	1.823776E-17	2.089374E-18
3.659467E+03	1.846885E-17	2.115585E-18
3.669411E+03	1.870208E-17	2.142033E-18
3.679355E+03	1.893975E-17	2.168981E-18
3.689299E+03	1.917973E-17	2.196185E-18
3.699244E+03	1.942319E-17	2.223782E-18
3.709188E+03	1.966913E-17	2.251654E-18
3.719132E+03	1.991873E-17	2.279937E-18
3.729076E+03	2.017208E-17	2.308642E-18
3.739020E+03	2.042816E-17	2.337650E-18
3.748965E+03	2.068816E-17	2.367099E-18
3.758909E+03	2.095218E-17	2.396999E-18
3.768853E+03	2.121918E-17	2.427232E-18
3.778797E+03	2.149151E-17	2.458066E-18
3.788741E+03	2.176701E-17	2.489254E-18
3.798686E+03	2.204577E-17	2.520805E-18
3.808630E+03	2.233015E-17	2.552990E-18
3.818574E+03	2.261798E-17	2.585560E-18
3.828518E+03	2.291050E-17	2.618657E-18
3.838462E+03	2.320781E-17	2.652291E-18
3.848407E+03	2.350887E-17	2.686345E-18
3.858351E+03	2.381493E-17	2.720960E-18
3.868295E+03	2.412610E-17	2.756149E-18
3.878239E+03	2.444247E-17	2.791922E-18
3.888183E+03	2.476303E-17	2.828163E-18
3.898128E+03	2.508902E-17	2.865013E-18
3.908072E+03	2.542056E-17	2.902487E-18
3.918016E+03	2.575662E-17	2.940466E-18
3.927960E+03	2.609846E-17	2.979094E-18
3.937904E+03	2.644620E-17	3.018384E-18
3.947849E+03	2.679881E-17	3.058219E-18
3.957793E+03	2.715641E-17	3.098611E-18
3.967737E+03	2.752028E-17	3.139706E-18
3.977681E+03	2.789053E-17	3.181519E-18
3.987625E+03	2.826615E-17	3.223931E-18
3.997570E+03	2.864724E-17	3.266954E-18
4.007514E+03	2.903510E-17	3.310738E-18
4.017458E+03	2.942870E-17	3.355163E-18
4.027402E+03	2.982814E-17	3.400241E-18
4.037346E+03	3.023474E-17	3.446122E-18
4.047291E+03	3.064627E-17	3.492552E-18
4.057235E+03	3.106521E-17	3.539813E-18
4.067179E+03	3.149051E-17	3.587785E-18
4.077123E+03	3.192109E-17	3.636343E-18
4.087067E+03	3.235946E-17	3.685776E-18
4.097012E+03	3.280336E-17	3.735824E-18
4.106956E+03	3.325408E-17	3.786634E-18
4.116900E+03	3.371175E-17	3.838221E-18
4.126844E+03	3.417527E-17	3.890459E-18
4.136788E+03	3.464596E-17	3.943498E-18
4.146733E+03	3.512270E-17	3.997210E-18
4.156677E+03	3.560680E-17	4.051746E-18
4.166621E+03	3.609714E-17	4.106974E-18
4.176565E+03	3.659380E-17	4.162906E-18
4.186509E+03	3.709561E-17	4.219408E-18
4.196454E+03	3.760512E-17	4.276769E-18
4.206398E+03	3.812116E-17	4.334856E-18
4.216342E+03	3.864252E-17	4.393532E-18
4.226286E+03	3.917175E-17	4.453086E-18
4.236231E+03	3.970513E-17	4.513094E-18
4.246175E+03	4.024518E-17	4.573843E-18
4.256119E+03	4.079192E-17	4.635335E-18
4.266063E+03	4.134282E-17	4.697283E-18
4.276007E+03	4.190040E-17	4.759972E-18
4.285952E+03	4.246208E-17	4.823109E-18
4.295896E+03	4.303038E-17	4.886980E-18
4.305840E+03	4.360269E-17	4.951288E-18
4.315784E+03	4.418022E-17	5.016171E-18
4.325728E+03	4.476160E-17	5.081472E-18
4.335673E+03	4.534802E-17	5.147328E-18
4.345617E+03	4.593809E-17	5.213580E-18
4.355561E+03	4.653301E-17	5.280363E-18
4.365505E+03	4.713002E-17	5.347365E-18
4.375449E+03	4.773030E-17	5.414719E-18
4.385394E+03	4.833373E-17	5.482412E-18
4.395338E+03	4.894018E-17	5.550429E-18
4.405282E+03	4.954819E-17	5.618604E-18
4.415226E+03	5.015899E-17	5.687077E-18
4.425170E+03	5.077248E-17	5.755836E-18
4.435115E+03	5.138581E-17	5.824558E-18
4.445059E+03	5.200159E-17	5.893539E-18
4.455003E+03	5.261831E-17	5.962609E-18
4.464947E+03	5.323586E-17	6.031754E-18
4.474891E+03	5.385272E-17	6.100802E-18
4.484836E+03	5.447152E-17	6.170050E-18
4.494780E+03	5.508932E-17	6.239168E-18
4.504724E+03	5.570739E-17	6.308296E-18
4.514668E+03	5.632415E-17	6.377259E-18
4.524612E+03	5.694086E-17	6.446197E-18
4.534557E+03	5.755596E-17	6.514934E-18
4.544501E+03	5.817069E-17	6.583612E-18
4.554445E+03	5.878348E-17	6.652050E-18
4.564389E+03	5.939272E-17	6.720070E-18
4.574333E+03	6.000111E-17	6.787975E-18
4.584278E+03	6.060707E-17	6.855588E-18
4.594222E+03	6.121043E-17	6.922887E-18
4.604166E+03	6.181102E-17	6.989858E-18
4.614110E+03	6.240870E-17	7.056480E-18
4.624054E+03	6.300331E-17	7.122738E-18
4.633999E+03	6.359323E-17	7.188449E-18
4.643943E+03	6.417979E-17	7.253762E-18
4.653887E+03	6.476283E-17	7.318662E-18
4.663831E+03	6.534075E-17	7.382965E-18
4.673775E+03	6.591490E-17	7.446826E-18
4.683720E+03	6.648515E-17	7.510231E-18
4.693664E+03	6.705139E-17	7.573165E-18
4.703608E+03	6.761198E-17	7.635446E-18
4.713552E+03	6.816682E-17	7.697061E-18
4.723496E+03	6.871882E-17	7.758340E-18
4.733441E+03	6.926332E-17	7.818757E-18
4.743385E+03	6.980480E-17	7.878819E-18
4.753329E+03	7.034010E-17	7.938166E-18
4.763273E+03	7.086912E-17	7.996792E-18
4.773217E+03	7.139332E-17	8.054858E-18
4.783162E+03	7.191260E-17	8.112356E-18
4.793106E+03	7.242533E-17	8.169101E-18
4.803050E+03	7.293299E-17	8.225259E-18
4.812994E+03	7.343548E-17	8.280822E-18
4.822938E+03	7.393118E-17	8.335605E-18
4.832883E+03	7.442156E-17	8.389775E-18
4.842827E+03	7.490652E-17	8.443323E-18
4.852771E+03	7.538445E-17	8.496064E-18
4.862715E+03	7.585840E-17	8.548345E-18
4.872660E+03	7.632512E-17	8.599799E-18
4.882604E+03	7.678454E-17	8.650419E-18
4.892548E+03	7.723976E-17	8.700554E-18
4.902492E+03	7.768909E-17	8.750015E-18
4.912436E+03	7.813086E-17	8.798612E-18
4.922381E+03	7.856656E-17	8.846516E-18
4.932325E+03	7.899775E-17	8.893901E-18
4.942269E+03	7.942109E-17	8.940393E-18
4.952213E+03	7.983973E-17	8.986346E-18
4.962157E+03	8.025034E-17	9.031385E-18
4.972102E+03	8.065607E-17	9.075866E-18
4.982046E+03	8.105521E-17	9.119595E-18
4.991990E+03	8.144765E-17	9.162563E-18
5.001934E+03	8.183331E-17	9.204759E-18
5.011878E+03	8.221206E-17	9.246171E-18
5.021823E+03	8.258548E-17	9.286974E-18
5.031767E+03	8.295182E-17	9.326973E-18
5.041711E+03	8.331262E-17	9.366344E-18
5.051655E+03	8.366450E-17	9.404703E-18
5.061599E+03	8.401233E-17	9.442601E-18
5.071544E+03	8.435103E-17	9.479466E-18
5.081488E+03	8.468383E-17	9.515663E-18
5.091432E+03	8.501068E-17	9.551185E-18
5.101376E+03	8.532981E-17	9.585833E-18
5.111320E+03	8.564111E-17	9.619599E-18
5.121265E+03	8.594624E-17	9.652665E-18
5.131209E+03	8.624512E-17	9.685025E-18
5.141153E+03	8.653598E-17	9.716480E-18
5.151097E+03	8.681879E-17	9.747028E-18
5.161041E+03	8.709687E-17	9.777042E-18
5.170986E+03	8.736513E-17	9.805950E-18
5.180930E+03	8.762860E-17	9.834317E-18
5.190874E+03	8.788391E-17	9.861765E-18
5.200818E+03	8.813271E-17	9.888482E-18
5.210762E+03	8.837332E-17	9.914277E-18
5.220707E+03	8.860746E-17	9.939346E-18
5.230651E+03	8.883516E-17	9.963690E-18
5.240595E+03	8.905474E-17	9.987124E-18
5.250539E+03	8.926970E-17	1.001004E-17
5.260483E+03	8.947496E-17	1.003187E-17
5.270428E+03	8.967573E-17	1.005319E-17
5.280372E+03	8.986870E-17	1.007364E-17
5.290316E+03	9.005569E-17	1.009342E-17
5.300260E+03	9.023509E-17	1.011235E-17
5.310204E+03	9.041051E-17	1.013083E-17
5.320149E+03	9.057865E-17	1.014851E-17
5.330093E+03	9.073970E-17	1.016538E-17
5.340037E+03	9.089729E-17	1.018188E-17
5.349981E+03	9.104821E-17	1.019763E-17
5.359925E+03	9.119441E-17	1.021285E-17
5.369870E+03	9.133614E-17	1.022758E-17
5.379814E+03	9.147197E-17	1.024165E-17
5.389758E+03	9.160566E-17	1.025548E-17
5.399702E+03	9.173408E-17	1.026872E-17
5.409646E+03	9.185927E-17	1.028161E-17
5.419591E+03	9.197987E-17	1.029399E-17
5.429535E+03	9.209974E-17	1.030629E-17
5.439479E+03	9.221574E-17	1.031816E-17
5.449423E+03	9.233001E-17	1.032984E-17
5.459367E+03	9.244297E-17	1.034138E-17
5.469312E+03	9.255673E-17	1.035301E-17
5.479256E+03	9.266648E-17	1.036419E-17
5.489200E+03	9.277785E-17	1.037557E-17
5.499144E+03	9.288951E-17	1.038698E-17
5.509089E+03	9.300189E-17	1.039847E-17
5.519033E+03	9.311540E-17	1.041009E-17
5.528977E+03	9.323043E-17	1.042189E-17
5.538921E+03	9.334740E-17	1.043391E-17
5.548865E+03	9.346670E-17	1.044619E-17
5.558810E+03	9.359053E-17	1.045898E-17
5.568754E+03	9.371571E-17	1.047193E-17
5.578698E+03	9.384618E-17	1.048548E-17
5.588642E+03	9.398056E-17	1.049946E-17
5.598586E+03	9.412100E-17	1.051413E-17
5.608531E+03	9.426427E-17	1.052911E-17
5.618475E+03	9.441429E-17	1.054486E-17
5.628419E+03	9.457142E-17	1.056140E-17
5.638363E+03	9.473419E-17	1.057857E-17
5.648307E+03	9.490289E-17	1.059642E-17
5.658252E+03	9.507961E-17	1.061516E-17
5.668196E+03	9.526285E-17	1.063463E-17
5.678140E+03	9.545466E-17	1.065506E-17
5.688084E+03	9.565530E-17	1.067648E-17
5.698028E+03	9.586317E-17	1.069871E-17
5.707973E+03	9.608031E-17	1.072198E-17
5.717917E+03	9.630506E-17	1.074610E-17
5.727861E+03	9.654127E-17	1.077151E-17
5.737805E+03	9.678543E-17	1.079780E-17
5.747749E+03	9.703948E-17	1.082520E-17
5.757694E+03	9.730170E-17	1.085352E-17
5.767638E+03	9.757586E-17	1.088317E-17
5.777582E+03	9.786019E-17	1.091395E-17
5.787526E+03	9.815286E-17	1.094567E-17
5.797470E+03	9.845762E-17	1.097874E-17
5.807415E+03	9.877072E-17	1.101275E-17
5.817359E+03	9.909400E-17	1.104789E-17
5.827303E+03	9.942930E-17	1.108437E-17
5.837247E+03	9.977274E-17	1.112176E-17
5.847191E+03	1.001280E-16	1.116048E-17
5.857136E+03	1.004932E-16	1.120030E-17
5.867080E+03	1.008660E-16	1.124098E-17
5.877024E+03	1.012503E-16	1.128293E-17
5.886968E+03	1.016438E-16	1.132592E-17
5.896912E+03	1.020464E-16	1.136992E-17
5.906857E+03	1.024578E-16	1.141491E-17
5.916801E+03	1.028797E-16	1.146106E-17
5.926745E+03	1.033078E-16	1.150792E-17
5.936689E+03	1.037457E-16	1.155587E-17
5.946633E+03	1.041912E-16	1.160467E-17
5.956578E+03	1.046439E-16	1.165426E-17
5.966522E+03	1.051053E-16	1.170484E-17
5.976466E+03	1.055710E-16	1.175590E-17
5.986410E+03	1.060446E-16	1.180784E-17
5.996354E+03	1.065236E-16	1.186039E-17
6.006299E+03	1.070096E-16	1.191372E-17
6.016243E+03	1.074980E-16	1.196731E-17
6.026187E+03	1.079922E-16	1.202157E-17
6.036131E+03	1.084899E-16	1.207621E-17
6.046075E+03	1.089902E-16	1.213115E-17
6.056020E+03	1.094949E-16	1.218658E-17
6.065964E+03	1.099990E-16	1.224196E-17
6.075908E+03	1.105062E-16	1.229768E-17
6.085852E+03	1.110138E-16	1.235345E-17
6.095796E+03	1.115232E-16	1.240944E-17
6.105741E+03	1.120318E-16	1.246533E-17
6.115685E+03	1.125387E-16	1.252106E-17
6.125629E+03	1.130435E-16	1.257654E-17
6.135573E+03	1.135453E-16	1.263171E-17
6.145518E+03	1.140459E-16	1.268676E-17
6.155462E+03	1.145423E-16	1.274134E-17
6.165406E+03	1.150363E-16	1.279565E-17
6.175350E+03	1.155224E-16	1.284911E-17
6.185294E+03	1.160048E-16	1.290217E-17
6.195239E+03	1.164829E-16	1.295475E-17
6.205183E+03	1.169514E-16	1.300627E-17
6.215127E+03	1.174144E-16	1.305720E-17
6.225071E+03	1.178689E-16	1.310720E-17
6.235015E+03	1.183170E-16	1.315649E-17
6.244960E+03	1.187556E-16	1.320474E-17
6.254904E+03	1.191843E-16	1.325190E-17
6.264848E+03	1.196051E-16	1.329819E-17
6.274792E+03	1.200151E-16	1.334329E-17
6.284736E+03	1.204163E-16	1.338743E-17
6.294681E+03	1.208060E-16	1.343029E-17
6.304625E+03	1.211862E-16	1.347213E-17
6.314569E+03	1.215543E-16	1.351262E-17
6.324513E+03	1.219100E-16	1.355174E-17
6.334457E+03	1.222554E-16	1.358974E-17
6.344402E+03	1.225905E-16	1.362660E-17
6.354346E+03	1.229125E-16	1.366201E-17
6.364290E+03	1.232238E-16	1.369626E-17
6.374234E+03	1.235219E-16	1.372904E-17
6.384178E+03	1.238116E-16	1.376092E-17
6.394123E+03	1.240855E-16	1.379103E-17
6.404067E+03	1.243511E-16	1.382024E-17
6.414011E+03	1.246033E-16	1.384798E-17
6.423955E+03	1.248448E-16	1.387454E-17
6.433899E+03	1.250757E-16	1.389994E-17
6.443844E+03	1.252961E-16	1.392418E-17
6.453788E+03	1.255062E-16	1.394730E-17
6.463732E+03	1.257037E-16	1.396902E-17
6.473676E+03	1.258938E-16	1.398993E-17
6.483620E+03	1.260716E-16	1.400950E-17
6.493565E+03	1.262401E-16	1.402803E-17
6.503509E+03	1.264020E-16	1.404586E-17
6.513453E+03	1.265552E-16	1.406273E-17
6.523397E+03	1.266972E-16	1.407836E-17
6.533341E+03	1.268337E-16	1.409341E-17
6.543286E+03	1.269624E-16	1.410759E-17
6.553230E+03	1.270837E-16	1.412096E-17
6.563174E+03	1.272005E-16	1.413385E-17
6.573118E+03	1.273106E-16	1.414601E-17
6.583062E+03	1.274143E-16	1.415747E-17
6.593007E+03	1.275147E-16	1.416858E-17
6.602951E+03	1.276095E-16	1.417908E-17
6.612895E+03	1.276990E-16	1.418901E-17
6.622839E+03	1.277864E-16	1.419870E-17
6.632783E+03	1.278692E-16	1.420791E-17
6.642728E+03	1.279505E-16	1.421696E-17
6.652672E+03	1.280307E-16	1.422590E-17
6.662616E+03	1.281073E-16	1.423446E-17
6.672560E+03	1.281833E-16	1.424297E-17
6.682504E+03	1.282564E-16	1.425115E-17
6.692449E+03	1.283294E-16	1.425936E-17
6.702393E+03	1.284027E-16	1.426760E-17
6.712337E+03	1.284736E-16	1.427559E-17
6.722281E+03	1.285480E-16	1.428398E-17
6.732225E+03	1.286203E-16	1.429216E-17
6.742170E+03	1.286936E-16	1.430045E-17
6.752114E+03	1.287679E-16	1.430888E-17
6.762058E+03	1.288405E-16	1.431712E-17
6.772002E+03	1.289170E-16	1.432582E-17
6.781946E+03	1.289918E-16	1.433434E-17
6.791891E+03	1.290677E-16	1.434299E-17
6.801835E+03	1.291447E-16	1.435178E-17
6.811779E+03	1.292254E-16	1.436100E-17
6.821723E+03	1.293041E-16	1.437001E-17
6.831668E+03	1.293835E-16	1.437911E-17
6.841612E+03	1.294633E-16	1.438827E-17
6.851556E+03	1.295434E-16	1.439747E-17
6.861500E+03	1.296234E-16	1.440668E-17
6.871444E+03	1.297003E-16	1.441556E-17
6.881389E+03	1.297794E-16	1.442469E-17
6.891333E+03	1.298575E-16	1.443374E-17
6.901277E+03	1.299343E-16	1.444265E-17
6.911221E+03	1.300093E-16	1.445138E-17
6.921165E+03	1.300793E-16	1.445956E-17
6.931110E+03	1.301495E-16	1.446779E-17
6.941054E+03	1.302167E-16	1.447569E-17
6.950998E+03	1.302774E-16	1.448289E-17
6.960942E+03	1.303341E-16	1.448966E-17
6.970886E+03	1.303892E-16	1.449626E-17
6.980831E+03	1.304362E-16	1.450198E-17
6.990775E+03	1.304776E-16	1.450710E-17
7.000719E+03	1.305130E-16	1.451155E-17
7.010663E+03	1.305387E-16	1.451495E-17
7.020607E+03	1.305602E-16	1.451790E-17
7.030552E+03	1.305711E-16	1.451968E-17
7.040496E+03	1.305738E-16	1.452057E-17
7.050440E+03	1.305678E-16	1.452050E-17
7.060384E+03	1.305497E-16	1.451910E-17
7.070328E+03	1.305219E-16	1.451665E-17
7.080273E+03	1.304841E-16	1.451309E-17
7.090217E+03	1.304328E-16	1.450806E-17
7.100161E+03	1.303707E-16	1.450183E-17
7.110105E+03	1.302944E-16	1.449403E-17
7.120049E+03	1.302065E-16	1.448497E-17
7.129994E+03	1.301068E-16	1.447462E-17
7.139938E+03	1.299891E-16	1.446227E-17
7.149882E+03	1.298592E-16	1.444858E-17
7.159826E+03	1.297169E-16	1.443352E-17
7.169770E+03	1.295591E-16	1.441676E-17
7.179715E+03	1.293857E-16	1.439828E-17
7.189659E+03	1.291969E-16	1.437809E-17
7.199603E+03	1.289955E-16	1.435652E-17
7.209547E+03	1.287757E-16	1.433292E-17
7.219491E+03	1.285436E-16	1.430797E-17
7.229436E+03	1.282965E-16	1.428136E-17
7.239380E+03	1.280347E-16	1.425312E-17
7.249324E+03	1.277583E-16	1.422329E-17
7.259268E+03	1.274679E-16	1.419190E-17
7.269212E+03	1.271608E-16	1.415867E-17
7.279157E+03	1.268435E-16	1.412431E-17
7.289101E+03	1.265135E-16	1.408856E-17
7.299045E+03	1.261685E-16	1.405115E-17
7.308989E+03	1.258120E-16	1.401247E-17
7.318933E+03	1.254447E-16	1.397260E-17
7.328878E+03	1.250643E-16	1.393129E-17
7.338822E+03	1.246775E-16	1.388927E-17
7.348766E+03	1.242791E-16	1.384598E-17
7.358710E+03	1.238701E-16	1.380152E-17
7.368654E+03	1.234542E-16	1.375630E-17
7.378599E+03	1.230322E-16	1.371042E-17
7.388543E+03	1.226023E-16	1.366366E-17
7.398487E+03	1.221681E-16	1.361644E-17
7.408431E+03	1.217278E-16	1.356855E-17
7.418375E+03	1.212823E-16	1.352010E-17
7.428320E+03	1.208354E-16	1.347150E-17
7.438264E+03	1.203882E-16	1.342288E-17
7.448208E+03	1.199359E-16	1.337371E-17
7.458152E+03	1.194853E-16	1.332473E-17
7.468097E+03	1.190372E-16	1.327604E-17
7.478041E+03	1.185871E-16	1.322715E-17
7.487985E+03	1.181415E-16	1.317876E-17
7.497929E+03	1.176986E-16	1.313069E-17
7.507873E+03	1.172622E-16	1.308335E-17
7.517818E+03	1.168303E-16	1.303653E-17
7.527762E+03	1.164012E-16	1.299003E-17
7.537706E+03	1.159812E-16	1.294456E-17
7.547650E+03	1.155712E-16	1.290022E-17
7.557594E+03	1.151665E-16	1.285649E-17
7.567539E+03	1.147707E-16	1.281375E-17
7.577483E+03	1.143874E-16	1.277241E-17
7.587427E+03	1.140143E-16	1.273224E-17
7.597371E+03	1.136522E-16	1.269330E-17
7.607315E+03	1.133017E-16	1.265567E-17
7.617260E+03	1.129633E-16	1.261940E-17
7.627204E+03	1.126376E-16	1.258455E-17
7.637148E+03	1.123249E-16	1.255117E-17
7.647092E+03	1.120258E-16	1.251931E-17
7.657036E+03	1.117406E-16	1.248901E-17
7.666981E+03	1.114696E-16	1.246032E-17
7.676925E+03	1.112132E-16	1.243327E-17
7.686869E+03	1.109718E-16	1.240790E-17
7.696813E+03	1.107457E-16	1.238425E-17
7.706757E+03	1.105379E-16	1.236266E-17
7.716702E+03	1.103432E-16	1.234254E-17
