#wls	flux	fluxerr
1.591072E+03	3.017675E-19	4.285261E-20
1.630849E+03	3.226085E-19	4.581185E-20
1.670626E+03	3.394204E-19	4.819889E-20
1.710403E+03	3.513577E-19	4.989369E-20
1.750180E+03	3.573917E-19	5.075018E-20
1.789957E+03	3.559003E-19	5.053805E-20
1.829733E+03	3.451372E-19	4.900931E-20
1.869510E+03	3.240187E-19	4.601015E-20
1.909287E+03	2.924312E-19	4.152445E-20
1.949064E+03	2.524972E-19	3.585364E-20
1.988841E+03	2.088463E-19	2.965515E-20
2.028617E+03	1.680259E-19	2.385865E-20
2.068394E+03	1.362925E-19	1.935255E-20
2.108171E+03	1.177414E-19	1.671827E-20
2.147948E+03	1.139238E-19	1.617607E-20
2.187725E+03	1.257546E-19	1.785577E-20
2.227501E+03	1.545634E-19	2.194608E-20
2.267278E+03	2.019602E-19	2.867557E-20
2.307055E+03	2.686193E-19	3.813987E-20
2.346832E+03	3.535708E-19	5.020119E-20
2.386609E+03	4.544833E-19	6.452845E-20
2.426386E+03	5.682602E-19	8.068188E-20
2.466162E+03	6.920316E-19	9.825396E-20
2.505939E+03	8.233928E-19	1.169032E-19
2.545716E+03	9.605870E-19	1.363802E-19
2.585493E+03	1.102617E-18	1.565432E-19
2.625270E+03	1.248506E-18	1.772538E-19
2.665046E+03	1.398469E-18	1.985421E-19
2.704823E+03	1.552114E-18	2.203525E-19
2.744600E+03	1.710002E-18	2.427648E-19
2.784377E+03	1.872196E-18	2.657878E-19
2.824154E+03	2.039024E-18	2.894680E-19
2.863930E+03	2.211439E-18	3.139405E-19
2.903707E+03	2.389338E-18	3.391911E-19
2.943484E+03	2.573798E-18	3.653721E-19
2.983261E+03	2.765028E-18	3.925134E-19
2.993205E+03	2.814149E-18	3.994850E-19
3.003149E+03	2.863606E-18	4.065043E-19
3.013094E+03	2.913402E-18	4.135717E-19
3.023038E+03	2.964111E-18	4.207687E-19
3.032982E+03	3.016548E-18	4.282107E-19
3.042926E+03	3.071087E-18	4.359512E-19
3.052870E+03	3.127727E-18	4.439898E-19
3.062815E+03	3.186282E-18	4.523004E-19
3.072759E+03	3.247355E-18	4.609682E-19
3.082703E+03	3.309638E-18	4.698077E-19
3.092647E+03	3.373758E-18	4.789078E-19
3.102591E+03	3.439588E-18	4.882507E-19
3.112536E+03	3.506597E-18	4.977608E-19
3.122480E+03	3.575076E-18	5.074795E-19
3.132424E+03	3.644502E-18	5.173326E-19
3.142368E+03	3.714759E-18	5.273036E-19
3.152312E+03	3.786174E-18	5.374387E-19
3.162257E+03	3.858227E-18	5.476645E-19
3.172201E+03	3.931273E-18	5.580311E-19
3.182145E+03	4.005249E-18	5.685296E-19
3.192089E+03	4.079628E-18	5.790853E-19
3.202033E+03	4.154344E-18	5.896885E-19
3.211978E+03	4.229800E-18	6.003970E-19
3.221922E+03	4.305951E-18	6.112038E-19
3.231866E+03	4.382285E-18	6.220366E-19
3.241810E+03	4.458753E-18	6.328883E-19
3.251754E+03	4.535803E-18	6.438224E-19
3.261699E+03	4.613425E-18	6.548377E-19
3.271643E+03	4.691094E-18	6.658597E-19
3.281587E+03	4.769300E-18	6.769577E-19
3.291531E+03	4.847520E-18	6.880576E-19
3.301475E+03	4.926265E-18	6.992319E-19
3.311420E+03	5.005013E-18	7.104065E-19
3.321364E+03	5.084289E-18	7.216561E-19
3.331308E+03	5.163572E-18	7.329064E-19
3.341252E+03	5.243411E-18	7.442357E-19
3.351196E+03	5.323282E-18	7.555693E-19
3.361141E+03	5.403740E-18	7.669861E-19
3.371085E+03	5.484824E-18	7.784918E-19
3.381029E+03	5.566000E-18	7.900104E-19
3.390973E+03	5.647858E-18	8.016256E-19
3.400917E+03	5.729857E-18	8.132607E-19
3.410862E+03	5.812607E-18	8.250024E-19
3.420806E+03	5.895563E-18	8.367732E-19
3.430750E+03	5.979351E-18	8.486619E-19
3.440694E+03	6.063418E-18	8.605902E-19
3.450638E+03	6.148993E-18	8.727324E-19
3.460583E+03	6.234336E-18	8.848414E-19
3.470527E+03	6.320677E-18	8.970922E-19
3.480471E+03	6.408078E-18	9.094931E-19
3.490415E+03	6.496585E-18	9.220510E-19
3.500359E+03	6.585627E-18	9.346847E-19
3.510304E+03	6.675251E-18	9.474008E-19
3.520248E+03	6.766119E-18	9.602934E-19
3.530192E+03	6.858297E-18	9.733718E-19
3.540136E+03	6.951184E-18	9.865506E-19
3.550080E+03	7.045476E-18	9.999288E-19
3.560025E+03	7.140571E-18	1.013421E-18
3.569969E+03	7.237160E-18	1.027125E-18
3.579913E+03	7.335303E-18	1.041049E-18
3.589857E+03	7.434385E-18	1.055106E-18
3.599802E+03	7.535105E-18	1.069396E-18
3.609746E+03	7.636844E-18	1.083831E-18
3.619690E+03	7.740314E-18	1.098510E-18
3.629634E+03	7.845564E-18	1.113443E-18
3.639578E+03	7.951942E-18	1.128535E-18
3.649523E+03	8.059480E-18	1.143791E-18
3.659467E+03	8.168905E-18	1.159316E-18
3.669411E+03	8.280258E-18	1.175114E-18
3.679355E+03	8.392868E-18	1.191090E-18
3.689299E+03	8.507471E-18	1.207348E-18
3.699244E+03	8.623372E-18	1.223791E-18
3.709188E+03	8.741324E-18	1.240525E-18
3.719132E+03	8.861356E-18	1.257554E-18
3.729076E+03	8.982751E-18	1.274776E-18
3.739020E+03	9.105522E-18	1.292192E-18
3.748965E+03	9.230425E-18	1.309912E-18
3.758909E+03	9.357484E-18	1.327937E-18
3.768853E+03	9.485952E-18	1.346162E-18
3.778797E+03	9.615839E-18	1.364588E-18
3.788741E+03	9.748691E-18	1.383435E-18
3.798686E+03	9.882197E-18	1.402374E-18
3.808630E+03	1.001792E-17	1.421628E-18
3.818574E+03	1.015585E-17	1.441196E-18
3.828518E+03	1.029524E-17	1.460969E-18
3.838462E+03	1.043606E-17	1.480946E-18
3.848407E+03	1.057914E-17	1.501242E-18
3.858351E+03	1.072448E-17	1.521860E-18
3.868295E+03	1.087129E-17	1.542686E-18
3.878239E+03	1.101956E-17	1.563720E-18
3.888183E+03	1.117016E-17	1.585082E-18
3.898128E+03	1.132226E-17	1.606658E-18
3.908072E+03	1.147673E-17	1.628570E-18
3.918016E+03	1.163275E-17	1.650703E-18
3.927960E+03	1.179037E-17	1.673061E-18
3.937904E+03	1.195049E-17	1.695773E-18
3.947849E+03	1.211228E-17	1.718724E-18
3.957793E+03	1.227670E-17	1.742046E-18
3.967737E+03	1.244204E-17	1.765499E-18
3.977681E+03	1.261104E-17	1.789472E-18
3.987625E+03	1.278112E-17	1.813598E-18
3.997570E+03	1.295419E-17	1.838147E-18
4.007514E+03	1.312944E-17	1.863006E-18
4.017458E+03	1.330792E-17	1.888322E-18
4.027402E+03	1.348794E-17	1.913856E-18
4.037346E+03	1.367147E-17	1.939889E-18
4.047291E+03	1.385777E-17	1.966313E-18
4.057235E+03	1.404793E-17	1.993287E-18
4.067179E+03	1.424123E-17	2.020705E-18
4.077123E+03	1.443689E-17	2.048458E-18
4.087067E+03	1.463801E-17	2.076985E-18
4.097012E+03	1.484193E-17	2.105908E-18
4.106956E+03	1.504983E-17	2.135396E-18
4.116900E+03	1.526293E-17	2.165624E-18
4.126844E+03	1.547954E-17	2.196347E-18
4.136788E+03	1.570188E-17	2.227884E-18
4.146733E+03	1.592924E-17	2.260132E-18
4.156677E+03	1.616188E-17	2.293128E-18
4.166621E+03	1.640007E-17	2.326913E-18
4.176565E+03	1.664409E-17	2.361525E-18
4.186509E+03	1.689422E-17	2.397002E-18
4.196454E+03	1.715179E-17	2.433535E-18
4.206398E+03	1.741495E-17	2.470861E-18
4.216342E+03	1.768501E-17	2.509166E-18
4.226286E+03	1.796224E-17	2.548487E-18
4.236231E+03	1.824688E-17	2.588858E-18
4.246175E+03	1.853914E-17	2.630311E-18
4.256119E+03	1.883925E-17	2.672878E-18
4.266063E+03	1.914739E-17	2.716584E-18
4.276007E+03	1.946375E-17	2.761454E-18
4.285952E+03	1.978728E-17	2.807342E-18
4.295896E+03	2.012043E-17	2.854594E-18
4.305840E+03	2.046095E-17	2.902891E-18
4.315784E+03	2.081004E-17	2.952404E-18
4.325728E+03	2.116771E-17	3.003134E-18
4.335673E+03	2.153395E-17	3.055079E-18
4.345617E+03	2.190744E-17	3.108051E-18
4.355561E+03	2.228927E-17	3.162208E-18
4.365505E+03	2.267931E-17	3.217527E-18
4.375449E+03	2.307733E-17	3.273979E-18
4.385394E+03	2.348177E-17	3.331340E-18
4.395338E+03	2.389361E-17	3.389751E-18
4.405282E+03	2.431250E-17	3.449161E-18
4.415226E+03	2.473667E-17	3.509321E-18
4.425170E+03	2.516701E-17	3.570355E-18
4.435115E+03	2.560302E-17	3.632192E-18
4.445059E+03	2.604275E-17	3.694558E-18
4.455003E+03	2.648703E-17	3.757567E-18
4.464947E+03	2.693378E-17	3.820927E-18
4.474891E+03	2.738380E-17	3.884749E-18
4.484836E+03	2.783494E-17	3.948730E-18
4.494780E+03	2.828798E-17	4.012981E-18
4.504724E+03	2.874225E-17	4.077405E-18
4.514668E+03	2.919552E-17	4.141686E-18
4.524612E+03	2.964707E-17	4.205724E-18
4.534557E+03	3.009777E-17	4.269639E-18
4.544501E+03	3.054699E-17	4.333345E-18
4.554445E+03	3.099090E-17	4.396297E-18
4.564389E+03	3.143374E-17	4.459095E-18
4.574333E+03	3.187010E-17	4.520974E-18
4.584278E+03	3.230274E-17	4.582325E-18
4.594222E+03	3.273128E-17	4.643095E-18
4.604166E+03	3.315370E-17	4.702995E-18
4.614110E+03	3.356970E-17	4.761983E-18
4.624054E+03	3.398076E-17	4.820271E-18
4.633999E+03	3.438504E-17	4.877597E-18
4.643943E+03	3.478249E-17	4.933953E-18
4.653887E+03	3.517486E-17	4.989588E-18
4.663831E+03	3.555875E-17	5.044019E-18
4.673775E+03	3.593962E-17	5.098022E-18
4.683720E+03	3.631239E-17	5.150876E-18
4.693664E+03	3.668097E-17	5.203134E-18
4.703608E+03	3.704392E-17	5.254593E-18
4.713552E+03	3.740350E-17	5.305575E-18
4.723496E+03	3.775653E-17	5.355626E-18
4.733441E+03	3.810719E-17	5.405342E-18
4.743385E+03	3.845423E-17	5.454542E-18
4.753329E+03	3.880007E-17	5.503573E-18
4.763273E+03	3.914348E-17	5.552258E-18
4.773217E+03	3.948505E-17	5.600682E-18
4.783162E+03	3.982541E-17	5.648934E-18
4.793106E+03	4.016516E-17	5.697099E-18
4.803050E+03	4.050682E-17	5.745536E-18
4.812994E+03	4.084715E-17	5.793782E-18
4.822938E+03	4.119250E-17	5.842740E-18
4.832883E+03	4.153758E-17	5.891661E-18
4.842827E+03	4.188485E-17	5.940890E-18
4.852771E+03	4.223670E-17	5.990769E-18
4.862715E+03	4.259160E-17	6.041081E-18
4.872660E+03	4.294989E-17	6.091872E-18
4.882604E+03	4.331187E-17	6.143187E-18
4.892548E+03	4.367778E-17	6.195060E-18
4.902492E+03	4.404985E-17	6.247805E-18
4.912436E+03	4.442617E-17	6.301151E-18
4.922381E+03	4.480679E-17	6.355109E-18
4.932325E+03	4.519171E-17	6.409676E-18
4.942269E+03	4.558085E-17	6.464840E-18
4.952213E+03	4.597615E-17	6.520879E-18
4.962157E+03	4.637533E-17	6.577466E-18
4.972102E+03	4.677809E-17	6.634562E-18
4.982046E+03	4.718410E-17	6.692118E-18
4.991990E+03	4.759293E-17	6.750072E-18
5.001934E+03	4.800624E-17	6.808664E-18
5.011878E+03	4.841918E-17	6.867202E-18
5.021823E+03	4.883548E-17	6.926215E-18
5.031767E+03	4.925229E-17	6.985301E-18
5.041711E+03	4.966890E-17	7.044357E-18
5.051655E+03	5.008674E-17	7.103587E-18
5.061599E+03	5.050049E-17	7.162239E-18
5.071544E+03	5.091380E-17	7.220826E-18
5.081488E+03	5.132348E-17	7.278899E-18
5.091432E+03	5.172858E-17	7.336321E-18
5.101376E+03	5.213042E-17	7.393280E-18
5.111320E+03	5.252335E-17	7.448976E-18
5.121265E+03	5.291101E-17	7.503925E-18
5.131209E+03	5.329002E-17	7.557647E-18
5.141153E+03	5.365936E-17	7.609996E-18
5.151097E+03	5.402035E-17	7.661160E-18
5.161041E+03	5.436723E-17	7.710324E-18
5.170986E+03	5.470378E-17	7.758021E-18
5.180930E+03	5.502661E-17	7.803774E-18
5.190874E+03	5.533726E-17	7.847798E-18
5.200818E+03	5.562999E-17	7.889281E-18
5.210762E+03	5.590881E-17	7.928792E-18
5.220707E+03	5.617056E-17	7.965882E-18
5.230651E+03	5.641455E-17	8.000451E-18
5.240595E+03	5.664261E-17	8.032763E-18
5.250539E+03	5.685178E-17	8.062395E-18
5.260483E+03	5.704159E-17	8.089282E-18
5.270428E+03	5.721173E-17	8.113379E-18
5.280372E+03	5.736442E-17	8.135001E-18
5.290316E+03	5.749455E-17	8.153424E-18
5.300260E+03	5.760954E-17	8.169700E-18
5.310204E+03	5.770198E-17	8.182779E-18
5.320149E+03	5.777705E-17	8.193394E-18
5.330093E+03	5.783251E-17	8.201228E-18
5.340037E+03	5.786872E-17	8.206334E-18
5.349981E+03	5.788622E-17	8.208785E-18
5.359925E+03	5.788803E-17	8.209012E-18
5.369870E+03	5.787484E-17	8.207112E-18
5.379814E+03	5.784242E-17	8.202485E-18
5.389758E+03	5.779664E-17	8.195963E-18
5.399702E+03	5.773592E-17	8.187324E-18
5.409646E+03	5.766376E-17	8.177062E-18
5.419591E+03	5.757628E-17	8.164629E-18
5.429535E+03	5.748207E-17	8.151240E-18
5.439479E+03	5.737492E-17	8.136017E-18
5.449423E+03	5.726102E-17	8.119839E-18
5.459367E+03	5.713923E-17	8.102541E-18
5.469312E+03	5.701334E-17	8.084661E-18
5.479256E+03	5.688227E-17	8.066047E-18
5.489200E+03	5.674746E-17	8.046905E-18
5.499144E+03	5.661275E-17	8.027775E-18
5.509089E+03	5.647718E-17	8.008524E-18
5.519033E+03	5.634455E-17	7.989692E-18
5.528977E+03	5.621397E-17	7.971148E-18
5.538921E+03	5.608682E-17	7.953093E-18
5.548865E+03	5.596694E-17	7.936069E-18
5.558810E+03	5.585335E-17	7.919935E-18
5.568754E+03	5.574979E-17	7.905226E-18
5.578698E+03	5.565522E-17	7.891791E-18
5.588642E+03	5.557093E-17	7.879814E-18
5.598586E+03	5.550055E-17	7.869810E-18
5.608531E+03	5.544525E-17	7.861944E-18
5.618475E+03	5.540148E-17	7.855713E-18
5.628419E+03	5.537736E-17	7.852269E-18
5.638363E+03	5.536918E-17	7.851085E-18
5.648307E+03	5.537786E-17	7.852293E-18
5.658252E+03	5.540663E-17	7.856348E-18
5.668196E+03	5.545390E-17	7.863028E-18
5.678140E+03	5.552273E-17	7.872763E-18
5.688084E+03	5.561134E-17	7.885304E-18
5.698028E+03	5.572261E-17	7.901060E-18
5.707973E+03	5.585700E-17	7.920092E-18
5.717917E+03	5.601010E-17	7.941777E-18
5.727861E+03	5.618930E-17	7.967164E-18
5.737805E+03	5.639002E-17	7.995601E-18
5.747749E+03	5.661234E-17	8.027102E-18
5.757694E+03	5.685868E-17	8.062008E-18
5.767638E+03	5.712898E-17	8.100313E-18
5.777582E+03	5.742073E-17	8.141658E-18
5.787526E+03	5.773616E-17	8.186360E-18
5.797470E+03	5.807502E-17	8.234385E-18
5.807415E+03	5.843458E-17	8.285344E-18
5.817359E+03	5.881445E-17	8.339184E-18
5.827303E+03	5.921677E-17	8.396205E-18
5.837247E+03	5.964113E-17	8.456353E-18
5.847191E+03	6.008459E-17	8.519208E-18
5.857136E+03	6.054927E-17	8.585072E-18
5.867080E+03	6.103472E-17	8.653880E-18
5.877024E+03	6.153792E-17	8.725205E-18
5.886968E+03	6.206105E-17	8.799356E-18
5.896912E+03	6.260367E-17	8.876270E-18
5.906857E+03	6.316275E-17	8.955518E-18
5.916801E+03	6.374054E-17	9.037419E-18
5.926745E+03	6.433670E-17	9.121923E-18
5.936689E+03	6.494814E-17	9.208593E-18
5.946633E+03	6.557726E-17	9.297771E-18
5.956578E+03	6.622092E-17	9.389011E-18
5.966522E+03	6.688448E-17	9.483070E-18
5.976466E+03	6.756194E-17	9.579102E-18
5.986410E+03	6.825291E-17	9.677048E-18
5.996354E+03	6.896288E-17	9.777689E-18
6.006299E+03	6.968564E-17	9.880141E-18
6.016243E+03	7.042367E-17	9.984759E-18
6.026187E+03	7.117350E-17	1.009105E-17
6.036131E+03	7.193757E-17	1.019936E-17
6.046075E+03	7.271525E-17	1.030960E-17
6.056020E+03	7.350585E-17	1.042167E-17
6.065964E+03	7.430852E-17	1.053545E-17
6.075908E+03	7.511906E-17	1.065035E-17
6.085852E+03	7.593950E-17	1.076665E-17
6.095796E+03	7.676860E-17	1.088418E-17
6.105741E+03	7.760158E-17	1.100226E-17
6.115685E+03	7.844346E-17	1.112160E-17
6.125629E+03	7.928576E-17	1.124100E-17
6.135573E+03	8.012982E-17	1.136065E-17
6.145518E+03	8.097353E-17	1.148025E-17
6.155462E+03	8.181098E-17	1.159896E-17
6.165406E+03	8.264318E-17	1.171693E-17
6.175350E+03	8.347106E-17	1.183429E-17
6.185294E+03	8.428099E-17	1.194910E-17
6.195239E+03	8.508088E-17	1.206249E-17
6.205183E+03	8.586407E-17	1.217351E-17
6.215127E+03	8.662366E-17	1.228118E-17
6.225071E+03	8.736401E-17	1.238613E-17
6.235015E+03	8.807431E-17	1.248681E-17
6.244960E+03	8.875514E-17	1.258332E-17
6.254904E+03	8.939944E-17	1.267465E-17
6.264848E+03	9.001189E-17	1.276147E-17
6.274792E+03	9.058567E-17	1.284280E-17
6.284736E+03	9.111392E-17	1.291768E-17
6.294681E+03	9.159793E-17	1.298628E-17
6.304625E+03	9.203530E-17	1.304828E-17
6.314569E+03	9.242379E-17	1.310334E-17
6.324513E+03	9.276148E-17	1.315120E-17
6.334457E+03	9.304676E-17	1.319163E-17
6.344402E+03	9.327830E-17	1.322445E-17
6.354346E+03	9.345514E-17	1.324951E-17
6.364290E+03	9.357253E-17	1.326614E-17
6.374234E+03	9.363427E-17	1.327488E-17
6.384178E+03	9.364464E-17	1.327634E-17
6.394123E+03	9.359580E-17	1.326940E-17
6.404067E+03	9.349273E-17	1.325478E-17
6.414011E+03	9.333658E-17	1.323263E-17
6.423955E+03	9.313300E-17	1.320376E-17
6.433899E+03	9.287552E-17	1.316725E-17
6.443844E+03	9.256629E-17	1.312340E-17
6.453788E+03	9.221598E-17	1.307373E-17
6.463732E+03	9.182311E-17	1.301802E-17
6.473676E+03	9.139053E-17	1.295669E-17
6.483620E+03	9.092138E-17	1.289017E-17
6.493565E+03	9.041892E-17	1.281893E-17
6.503509E+03	8.988250E-17	1.274287E-17
6.513453E+03	8.932372E-17	1.266365E-17
6.523397E+03	8.874218E-17	1.258120E-17
6.533341E+03	8.813759E-17	1.249548E-17
6.543286E+03	8.752160E-17	1.240814E-17
6.553230E+03	8.689011E-17	1.231861E-17
6.563174E+03	8.625464E-17	1.222851E-17
6.573118E+03	8.561500E-17	1.213783E-17
6.583062E+03	8.497103E-17	1.204653E-17
6.593007E+03	8.433404E-17	1.195622E-17
6.602951E+03	8.369996E-17	1.186632E-17
6.612895E+03	8.307980E-17	1.177840E-17
6.622839E+03	8.247315E-17	1.169240E-17
6.632783E+03	8.187958E-17	1.160824E-17
6.642728E+03	8.130968E-17	1.152745E-17
6.652672E+03	8.076279E-17	1.144991E-17
6.662616E+03	8.023817E-17	1.137554E-17
6.672560E+03	7.974598E-17	1.130576E-17
6.682504E+03	7.928524E-17	1.124044E-17
6.692449E+03	7.885854E-17	1.117995E-17
6.702393E+03	7.846476E-17	1.112412E-17
6.712337E+03	7.811344E-17	1.107432E-17
6.722281E+03	7.780318E-17	1.103034E-17
6.732225E+03	7.753611E-17	1.099248E-17
6.742170E+03	7.731425E-17	1.096103E-17
6.752114E+03	7.713947E-17	1.093625E-17
6.762058E+03	7.701359E-17	1.091841E-17
6.772002E+03	7.693824E-17	1.090773E-17
6.781946E+03	7.691506E-17	1.090445E-17
6.791891E+03	7.694544E-17	1.090876E-17
6.801835E+03	7.703081E-17	1.092087E-17
6.811779E+03	7.717236E-17	1.094094E-17
6.821723E+03	7.737123E-17	1.096914E-17
6.831668E+03	7.763204E-17	1.100613E-17
6.841612E+03	7.794854E-17	1.105100E-17
6.851556E+03	7.832504E-17	1.110439E-17
6.861500E+03	7.876582E-17	1.116689E-17
6.871444E+03	7.926408E-17	1.123754E-17
6.881389E+03	7.982378E-17	1.131690E-17
6.891333E+03	8.044877E-17	1.140551E-17
6.901277E+03	8.113157E-17	1.150233E-17
6.911221E+03	8.187941E-17	1.160836E-17
6.921165E+03	8.268425E-17	1.172247E-17
6.931110E+03	8.355299E-17	1.184565E-17
6.941054E+03	8.448084E-17	1.197721E-17
6.950998E+03	8.546253E-17	1.211640E-17
6.960942E+03	8.650435E-17	1.226411E-17
6.970886E+03	8.760041E-17	1.241952E-17
6.980831E+03	8.874430E-17	1.258171E-17
6.990775E+03	8.994150E-17	1.275146E-17
7.000719E+03	9.118487E-17	1.292775E-17
7.010663E+03	9.246652E-17	1.310947E-17
7.020607E+03	9.379105E-17	1.329728E-17
7.030552E+03	9.514983E-17	1.348994E-17
7.040496E+03	9.653793E-17	1.368675E-17
7.050440E+03	9.794540E-17	1.388632E-17
7.060384E+03	9.937553E-17	1.408910E-17
7.070328E+03	1.008176E-16	1.429357E-17
7.080273E+03	1.022600E-16	1.449809E-17
7.090217E+03	1.037052E-16	1.470301E-17
7.100161E+03	1.051410E-16	1.490660E-17
7.110105E+03	1.065546E-16	1.510704E-17
7.120049E+03	1.079480E-16	1.530462E-17
7.129994E+03	1.093028E-16	1.549672E-17
7.139938E+03	1.106209E-16	1.568362E-17
7.149882E+03	1.118835E-16	1.586266E-17
7.159826E+03	1.130928E-16	1.603415E-17
7.169770E+03	1.142302E-16	1.619543E-17
7.179715E+03	1.152929E-16	1.634614E-17
7.189659E+03	1.162791E-16	1.648599E-17
7.199603E+03	1.171707E-16	1.661244E-17
7.209547E+03	1.179669E-16	1.672535E-17
7.219491E+03	1.186618E-16	1.682391E-17
7.229436E+03	1.192506E-16	1.690743E-17
7.239380E+03	1.197292E-16	1.697533E-17
7.249324E+03	1.200945E-16	1.702716E-17
7.259268E+03	1.203386E-16	1.706179E-17
7.269212E+03	1.204717E-16	1.708072E-17
7.279157E+03	1.204824E-16	1.708227E-17
7.289101E+03	1.203832E-16	1.706824E-17
7.299045E+03	1.201644E-16	1.703727E-17
7.308989E+03	1.198349E-16	1.699059E-17
7.318933E+03	1.193985E-16	1.692876E-17
7.328878E+03	1.188601E-16	1.685247E-17
7.338822E+03	1.182196E-16	1.676170E-17
7.348766E+03	1.174946E-16	1.665895E-17
7.358710E+03	1.166806E-16	1.654359E-17
7.368654E+03	1.157907E-16	1.641746E-17
7.378599E+03	1.148382E-16	1.628245E-17
7.388543E+03	1.138142E-16	1.613731E-17
7.398487E+03	1.127436E-16	1.598556E-17
7.408431E+03	1.116289E-16	1.582756E-17
7.418375E+03	1.104728E-16	1.566368E-17
7.428320E+03	1.092886E-16	1.549582E-17
7.438264E+03	1.080839E-16	1.532506E-17
7.448208E+03	1.068660E-16	1.515242E-17
7.458152E+03	1.056417E-16	1.497889E-17
7.468097E+03	1.044125E-16	1.480465E-17
7.478041E+03	1.031895E-16	1.463129E-17
7.487985E+03	1.019781E-16	1.445957E-17
7.497929E+03	1.007832E-16	1.429020E-17
7.507873E+03	9.960908E-17	1.412377E-17
7.517818E+03	9.845475E-17	1.396015E-17
7.527762E+03	9.732836E-17	1.380049E-17
7.537706E+03	9.623260E-17	1.364517E-17
7.547650E+03	9.516493E-17	1.349383E-17
7.557594E+03	9.413646E-17	1.334805E-17
7.567539E+03	9.313902E-17	1.320667E-17
7.577483E+03	9.217801E-17	1.307045E-17
7.587427E+03	9.124928E-17	1.293882E-17
7.597371E+03	9.036183E-17	1.281303E-17
7.607315E+03	8.950622E-17	1.269176E-17
7.617260E+03	8.868189E-17	1.257492E-17
7.627204E+03	8.789668E-17	1.246364E-17
7.637148E+03	8.714053E-17	1.235647E-17
7.647092E+03	8.641640E-17	1.225384E-17
7.657036E+03	8.572273E-17	1.215553E-17
7.666981E+03	8.505342E-17	1.206068E-17
7.676925E+03	8.441096E-17	1.196963E-17
7.686869E+03	8.379344E-17	1.188211E-17
7.696813E+03	8.319885E-17	1.179785E-17
7.706757E+03	8.262104E-17	1.171597E-17
7.716702E+03	8.206224E-17	1.163679E-17
