#wls	flux	fluxerr
1.591072E+03	2.642718E-19	5.148796E-20
1.630849E+03	2.818930E-19	5.492056E-20
1.670626E+03	2.959151E-19	5.765189E-20
1.710403E+03	3.056270E-19	5.954340E-20
1.750180E+03	3.101653E-19	6.042693E-20
1.789957E+03	3.081093E-19	6.002573E-20
1.829733E+03	2.980527E-19	5.806585E-20
1.869510E+03	2.790289E-19	5.435906E-20
1.909287E+03	2.511632E-19	4.892982E-20
1.949064E+03	2.162950E-19	4.213652E-20
1.988841E+03	1.784057E-19	3.475485E-20
2.028617E+03	1.431162E-19	2.787981E-20
2.068394E+03	1.157519E-19	2.254881E-20
2.108171E+03	9.969556E-20	1.942071E-20
2.147948E+03	9.617717E-20	1.873506E-20
2.187725E+03	1.058224E-19	2.061362E-20
2.227501E+03	1.296541E-19	2.525553E-20
2.267278E+03	1.688638E-19	3.289275E-20
2.307055E+03	2.238924E-19	4.361099E-20
2.346832E+03	2.937554E-19	5.721837E-20
2.386609E+03	3.763145E-19	7.329820E-20
2.426386E+03	4.689872E-19	9.134733E-20
2.466162E+03	5.691821E-19	1.108609E-19
2.505939E+03	6.749160E-19	1.314526E-19
2.545716E+03	7.847121E-19	1.528346E-19
2.585493E+03	8.974763E-19	1.747938E-19
2.625270E+03	1.012913E-18	1.972726E-19
2.665046E+03	1.130662E-18	2.202007E-19
2.704823E+03	1.250693E-18	2.435723E-19
2.744600E+03	1.373125E-18	2.674103E-19
2.784377E+03	1.498386E-18	2.917980E-19
2.824154E+03	1.626579E-18	3.167556E-19
2.863930E+03	1.758276E-18	3.423944E-19
2.903707E+03	1.893894E-18	3.687951E-19
2.943484E+03	2.033602E-18	3.959910E-19
2.983261E+03	2.178408E-18	4.241780E-19
2.993205E+03	2.215315E-18	4.313618E-19
3.003149E+03	2.252486E-18	4.385970E-19
3.013094E+03	2.290229E-18	4.459435E-19
3.023038E+03	2.328420E-18	4.533770E-19
3.032982E+03	2.367689E-18	4.610205E-19
3.042926E+03	2.408927E-18	4.690472E-19
3.052870E+03	2.451827E-18	4.773973E-19
3.062815E+03	2.496246E-18	4.860431E-19
3.072759E+03	2.542051E-18	4.949586E-19
3.082703E+03	2.589448E-18	5.041840E-19
3.092647E+03	2.637998E-18	5.136337E-19
3.102591E+03	2.687591E-18	5.232865E-19
3.112536E+03	2.738125E-18	5.331223E-19
3.122480E+03	2.789857E-18	5.431911E-19
3.132424E+03	2.842354E-18	5.534087E-19
3.142368E+03	2.895533E-18	5.637590E-19
3.152312E+03	2.949316E-18	5.742268E-19
3.162257E+03	3.004006E-18	5.848710E-19
3.172201E+03	3.059175E-18	5.956082E-19
3.182145E+03	3.114761E-18	6.064265E-19
3.192089E+03	3.171101E-18	6.173914E-19
3.202033E+03	3.227765E-18	6.284192E-19
3.211978E+03	3.284709E-18	6.395015E-19
3.221922E+03	3.341895E-18	6.506306E-19
3.231866E+03	3.399701E-18	6.618803E-19
3.241810E+03	3.457697E-18	6.731668E-19
3.251754E+03	3.515859E-18	6.844853E-19
3.261699E+03	3.574596E-18	6.959158E-19
3.271643E+03	3.633476E-18	7.073739E-19
3.281587E+03	3.692489E-18	7.188575E-19
3.291531E+03	3.751628E-18	7.303656E-19
3.301475E+03	3.811342E-18	7.419855E-19
3.311420E+03	3.871194E-18	7.536320E-19
3.321364E+03	3.931190E-18	7.653063E-19
3.331308E+03	3.991805E-18	7.771010E-19
3.341252E+03	4.052597E-18	7.889299E-19
3.351196E+03	4.113583E-18	8.007965E-19
3.361141E+03	4.174783E-18	8.127045E-19
3.371085E+03	4.236707E-18	8.247531E-19
3.381029E+03	4.298903E-18	8.368547E-19
3.390973E+03	4.361402E-18	8.490149E-19
3.400917E+03	4.424735E-18	8.613373E-19
3.410862E+03	4.487941E-18	8.736347E-19
3.420806E+03	4.552569E-18	8.862088E-19
3.430750E+03	4.617146E-18	8.987726E-19
3.440694E+03	4.682736E-18	9.115336E-19
3.450638E+03	4.748871E-18	9.244002E-19
3.460583E+03	4.815593E-18	9.373810E-19
3.470527E+03	4.882954E-18	9.504860E-19
3.480471E+03	4.951541E-18	9.638292E-19
3.490415E+03	5.020867E-18	9.773163E-19
3.500359E+03	5.091541E-18	9.910654E-19
3.510304E+03	5.162515E-18	1.004873E-18
3.520248E+03	5.234949E-18	1.018964E-18
3.530192E+03	5.308349E-18	1.033243E-18
3.540136E+03	5.383341E-18	1.047831E-18
3.550080E+03	5.459421E-18	1.062631E-18
3.560025E+03	5.536640E-18	1.077653E-18
3.569969E+03	5.615066E-18	1.092909E-18
3.579913E+03	5.694753E-18	1.108411E-18
3.589857E+03	5.776357E-18	1.124285E-18
3.599802E+03	5.859350E-18	1.140429E-18
3.609746E+03	5.944407E-18	1.156975E-18
3.619690E+03	6.030364E-18	1.173695E-18
3.629634E+03	6.118506E-18	1.190841E-18
3.639578E+03	6.208283E-18	1.208304E-18
3.649523E+03	6.300393E-18	1.226221E-18
3.659467E+03	6.393604E-18	1.244352E-18
3.669411E+03	6.489269E-18	1.262961E-18
3.679355E+03	6.586788E-18	1.281930E-18
3.689299E+03	6.686212E-18	1.301269E-18
3.699244E+03	6.788253E-18	1.321117E-18
3.709188E+03	6.892285E-18	1.341352E-18
3.719132E+03	6.998343E-18	1.361982E-18
3.729076E+03	7.106443E-18	1.383008E-18
3.739020E+03	7.217313E-18	1.404573E-18
3.748965E+03	7.329549E-18	1.426403E-18
3.758909E+03	7.444563E-18	1.448774E-18
3.768853E+03	7.561626E-18	1.471543E-18
3.778797E+03	7.681443E-18	1.494847E-18
3.788741E+03	7.802500E-18	1.518392E-18
3.798686E+03	7.926200E-18	1.542452E-18
3.808630E+03	8.051717E-18	1.566864E-18
3.818574E+03	8.178945E-18	1.591609E-18
3.828518E+03	8.308518E-18	1.616809E-18
3.838462E+03	8.438732E-18	1.642134E-18
3.848407E+03	8.570964E-18	1.667852E-18
3.858351E+03	8.704224E-18	1.693768E-18
3.868295E+03	8.838279E-18	1.719839E-18
3.878239E+03	8.972873E-18	1.746014E-18
3.888183E+03	9.107714E-18	1.772237E-18
3.898128E+03	9.243366E-18	1.798617E-18
3.908072E+03	9.378679E-18	1.824931E-18
3.918016E+03	9.512486E-18	1.850951E-18
3.927960E+03	9.646176E-18	1.876948E-18
3.937904E+03	9.778580E-18	1.902694E-18
3.947849E+03	9.910293E-18	1.928305E-18
3.957793E+03	1.003928E-17	1.953385E-18
3.967737E+03	1.016706E-17	1.978231E-18
3.977681E+03	1.029165E-17	2.002455E-18
3.987625E+03	1.041470E-17	2.026379E-18
3.997570E+03	1.053522E-17	2.049808E-18
4.007514E+03	1.065223E-17	2.072556E-18
4.017458E+03	1.076762E-17	2.094988E-18
4.027402E+03	1.088058E-17	2.116948E-18
4.037346E+03	1.099224E-17	2.138651E-18
4.047291E+03	1.110097E-17	2.159787E-18
4.057235E+03	1.120805E-17	2.180601E-18
4.067179E+03	1.131390E-17	2.201173E-18
4.077123E+03	1.141995E-17	2.221786E-18
4.087067E+03	1.152483E-17	2.242171E-18
4.097012E+03	1.163012E-17	2.262633E-18
4.106956E+03	1.173745E-17	2.283493E-18
4.116900E+03	1.184559E-17	2.304510E-18
4.126844E+03	1.195725E-17	2.326213E-18
4.136788E+03	1.207127E-17	2.348371E-18
4.146733E+03	1.219043E-17	2.371531E-18
4.156677E+03	1.231360E-17	2.395471E-18
4.166621E+03	1.244266E-17	2.420554E-18
4.176565E+03	1.257949E-17	2.447150E-18
4.186509E+03	1.272299E-17	2.475043E-18
4.196454E+03	1.287613E-17	2.504811E-18
4.206398E+03	1.303780E-17	2.536236E-18
4.216342E+03	1.320997E-17	2.569705E-18
4.226286E+03	1.339363E-17	2.605407E-18
4.236231E+03	1.358978E-17	2.643538E-18
4.246175E+03	1.379942E-17	2.684293E-18
4.256119E+03	1.402360E-17	2.727874E-18
4.266063E+03	1.426338E-17	2.774490E-18
4.276007E+03	1.451984E-17	2.824350E-18
4.285952E+03	1.479408E-17	2.877667E-18
4.295896E+03	1.508605E-17	2.934431E-18
4.305840E+03	1.539799E-17	2.995081E-18
4.315784E+03	1.573223E-17	3.060065E-18
4.325728E+03	1.608746E-17	3.129131E-18
4.335673E+03	1.646594E-17	3.202717E-18
4.345617E+03	1.686867E-17	3.281018E-18
4.355561E+03	1.729524E-17	3.363956E-18
4.365505E+03	1.774902E-17	3.452185E-18
4.375449E+03	1.822802E-17	3.545316E-18
4.385394E+03	1.873393E-17	3.643680E-18
4.395338E+03	1.926692E-17	3.747309E-18
4.405282E+03	1.982682E-17	3.856170E-18
4.415226E+03	2.041312E-17	3.970163E-18
4.425170E+03	2.102332E-17	4.088801E-18
4.435115E+03	2.165742E-17	4.212087E-18
4.445059E+03	2.231348E-17	4.339641E-18
4.455003E+03	2.298895E-17	4.470968E-18
4.464947E+03	2.368070E-17	4.605459E-18
4.474891E+03	2.438324E-17	4.742044E-18
4.484836E+03	2.509395E-17	4.880217E-18
4.494780E+03	2.580799E-17	5.019033E-18
4.504724E+03	2.651815E-17	5.157093E-18
4.514668E+03	2.722059E-17	5.293650E-18
4.524612E+03	2.790945E-17	5.427561E-18
4.534557E+03	2.857878E-17	5.557674E-18
4.544501E+03	2.922068E-17	5.682449E-18
4.554445E+03	2.983370E-17	5.801607E-18
4.564389E+03	3.040650E-17	5.912940E-18
4.574333E+03	3.094098E-17	6.016819E-18
4.584278E+03	3.142924E-17	6.111709E-18
4.594222E+03	3.187077E-17	6.197510E-18
4.604166E+03	3.226395E-17	6.273909E-18
4.614110E+03	3.260596E-17	6.340354E-18
4.624054E+03	3.289953E-17	6.397379E-18
4.633999E+03	3.314390E-17	6.444837E-18
4.643943E+03	3.334611E-17	6.484095E-18
4.653887E+03	3.350487E-17	6.514906E-18
4.663831E+03	3.362418E-17	6.538044E-18
4.673775E+03	3.371319E-17	6.555289E-18
4.683720E+03	3.376993E-17	6.566260E-18
4.693664E+03	3.380648E-17	6.573305E-18
4.703608E+03	3.382353E-17	6.576559E-18
4.713552E+03	3.382865E-17	6.577493E-18
4.723496E+03	3.382470E-17	6.576664E-18
4.733441E+03	3.381888E-17	6.575472E-18
4.743385E+03	3.381582E-17	6.574814E-18
4.753329E+03	3.381755E-17	6.575090E-18
4.763273E+03	3.383027E-17	6.577503E-18
4.773217E+03	3.385752E-17	6.582738E-18
4.783162E+03	3.390020E-17	6.590977E-18
4.793106E+03	3.396332E-17	6.603187E-18
4.803050E+03	3.404703E-17	6.619401E-18
4.812994E+03	3.415558E-17	6.640444E-18
4.822938E+03	3.429066E-17	6.666644E-18
4.832883E+03	3.445137E-17	6.697829E-18
4.842827E+03	3.464106E-17	6.734644E-18
4.852771E+03	3.485823E-17	6.776803E-18
4.862715E+03	3.510571E-17	6.824854E-18
4.872660E+03	3.538381E-17	6.878856E-18
4.882604E+03	3.569040E-17	6.938396E-18
4.892548E+03	3.602768E-17	7.003902E-18
4.902492E+03	3.639314E-17	7.074885E-18
4.912436E+03	3.678876E-17	7.151730E-18
4.922381E+03	3.721172E-17	7.233887E-18
4.932325E+03	3.766381E-17	7.321708E-18
4.942269E+03	3.814447E-17	7.415080E-18
4.952213E+03	3.865056E-17	7.513392E-18
4.962157E+03	3.918382E-17	7.616987E-18
4.972102E+03	3.974101E-17	7.725231E-18
4.982046E+03	4.032386E-17	7.838462E-18
4.991990E+03	4.093163E-17	7.956534E-18
5.001934E+03	4.156093E-17	8.078789E-18
5.011878E+03	4.221351E-17	8.205570E-18
5.021823E+03	4.288583E-17	8.336182E-18
5.031767E+03	4.357956E-17	8.470956E-18
5.041711E+03	4.429365E-17	8.609685E-18
5.051655E+03	4.502404E-17	8.751581E-18
5.061599E+03	4.576922E-17	8.896348E-18
5.071544E+03	4.653026E-17	9.044196E-18
5.081488E+03	4.730520E-17	9.194742E-18
5.091432E+03	4.808873E-17	9.346957E-18
5.101376E+03	4.888107E-17	9.500882E-18
5.111320E+03	4.967917E-17	9.655923E-18
5.121265E+03	5.047641E-17	9.810794E-18
5.131209E+03	5.127196E-17	9.965336E-18
5.141153E+03	5.205838E-17	1.011810E-17
5.151097E+03	5.283425E-17	1.026881E-17
5.161041E+03	5.359143E-17	1.041589E-17
5.170986E+03	5.432816E-17	1.055899E-17
5.180930E+03	5.503935E-17	1.069712E-17
5.190874E+03	5.571649E-17	1.082864E-17
5.200818E+03	5.635798E-17	1.095322E-17
5.210762E+03	5.695558E-17	1.106927E-17
5.220707E+03	5.750835E-17	1.117661E-17
5.230651E+03	5.801234E-17	1.127447E-17
5.240595E+03	5.846053E-17	1.136148E-17
5.250539E+03	5.885365E-17	1.143778E-17
5.260483E+03	5.918590E-17	1.150226E-17
5.270428E+03	5.945937E-17	1.155531E-17
5.280372E+03	5.967328E-17	1.159679E-17
5.290316E+03	5.982388E-17	1.162596E-17
5.300260E+03	5.991534E-17	1.164364E-17
5.310204E+03	5.994518E-17	1.164935E-17
5.320149E+03	5.992236E-17	1.164482E-17
5.330093E+03	5.983812E-17	1.162836E-17
5.340037E+03	5.970591E-17	1.160258E-17
5.349981E+03	5.951766E-17	1.156590E-17
5.359925E+03	5.928720E-17	1.152103E-17
5.369870E+03	5.901036E-17	1.146714E-17
5.379814E+03	5.869382E-17	1.140554E-17
5.389758E+03	5.833696E-17	1.133611E-17
5.399702E+03	5.794965E-17	1.126076E-17
5.409646E+03	5.752400E-17	1.117796E-17
5.419591E+03	5.707287E-17	1.109021E-17
5.429535E+03	5.659148E-17	1.099659E-17
5.439479E+03	5.608185E-17	1.089748E-17
5.449423E+03	5.555253E-17	1.079454E-17
5.459367E+03	5.499516E-17	1.068616E-17
5.469312E+03	5.442139E-17	1.057459E-17
5.479256E+03	5.382637E-17	1.045889E-17
5.489200E+03	5.321525E-17	1.034007E-17
5.499144E+03	5.259013E-17	1.021853E-17
5.509089E+03	5.195035E-17	1.009415E-17
5.519033E+03	5.130190E-17	9.968077E-18
5.528977E+03	5.064809E-17	9.840970E-18
5.538921E+03	4.998966E-17	9.712967E-18
5.548865E+03	4.933390E-17	9.585483E-18
5.558810E+03	4.868257E-17	9.458864E-18
5.568754E+03	4.804659E-17	9.335230E-18
5.578698E+03	4.742559E-17	9.214507E-18
5.588642E+03	4.682530E-17	9.097811E-18
5.598586E+03	4.625721E-17	8.987372E-18
5.608531E+03	4.572160E-17	8.883245E-18
5.618475E+03	4.522712E-17	8.787113E-18
5.628419E+03	4.477677E-17	8.699556E-18
5.638363E+03	4.437880E-17	8.622175E-18
5.648307E+03	4.403834E-17	8.555972E-18
5.658252E+03	4.376021E-17	8.501877E-18
5.668196E+03	4.354613E-17	8.460229E-18
5.678140E+03	4.340260E-17	8.432286E-18
5.688084E+03	4.333285E-17	8.418679E-18
5.698028E+03	4.333695E-17	8.419421E-18
5.707973E+03	4.342209E-17	8.435905E-18
5.717917E+03	4.358431E-17	8.467365E-18
5.727861E+03	4.382407E-17	8.513890E-18
5.737805E+03	4.414627E-17	8.576431E-18
5.747749E+03	4.454446E-17	8.653732E-18
5.757694E+03	4.501909E-17	8.745884E-18
5.767638E+03	4.556440E-17	8.851766E-18
5.777582E+03	4.618173E-17	8.971637E-18
5.787526E+03	4.686057E-17	9.103458E-18
5.797470E+03	4.759760E-17	9.246581E-18
5.807415E+03	4.838594E-17	9.399670E-18
5.817359E+03	4.921488E-17	9.560645E-18
5.827303E+03	5.007878E-17	9.728411E-18
5.837247E+03	5.096866E-17	9.901221E-18
5.847191E+03	5.187516E-17	1.007726E-17
5.857136E+03	5.278883E-17	1.025469E-17
5.867080E+03	5.369724E-17	1.043109E-17
5.877024E+03	5.459473E-17	1.060537E-17
5.886968E+03	5.547334E-17	1.077599E-17
5.896912E+03	5.632619E-17	1.094159E-17
5.906857E+03	5.714444E-17	1.110048E-17
5.916801E+03	5.793099E-17	1.125321E-17
5.926745E+03	5.867699E-17	1.139805E-17
5.936689E+03	5.938583E-17	1.153568E-17
5.946633E+03	6.005590E-17	1.166578E-17
5.956578E+03	6.069841E-17	1.179052E-17
5.966522E+03	6.131207E-17	1.190966E-17
5.976466E+03	6.190824E-17	1.202540E-17
5.986410E+03	6.249618E-17	1.213954E-17
5.996354E+03	6.308653E-17	1.225415E-17
6.006299E+03	6.369081E-17	1.237146E-17
6.016243E+03	6.431745E-17	1.249311E-17
6.026187E+03	6.498669E-17	1.262305E-17
6.036131E+03	6.570333E-17	1.276218E-17
6.046075E+03	6.648356E-17	1.291367E-17
6.056020E+03	6.733902E-17	1.307977E-17
6.065964E+03	6.827646E-17	1.326179E-17
6.075908E+03	6.931377E-17	1.346321E-17
6.085852E+03	7.045109E-17	1.368405E-17
6.095796E+03	7.169942E-17	1.392646E-17
6.105741E+03	7.306393E-17	1.419143E-17
6.115685E+03	7.454794E-17	1.447961E-17
6.125629E+03	7.615280E-17	1.479125E-17
6.135573E+03	7.787761E-17	1.512620E-17
6.145518E+03	7.971439E-17	1.548289E-17
6.155462E+03	8.166711E-17	1.586210E-17
6.165406E+03	8.371796E-17	1.626036E-17
6.175350E+03	8.586117E-17	1.667657E-17
6.185294E+03	8.808360E-17	1.710815E-17
6.195239E+03	9.036969E-17	1.755210E-17
6.205183E+03	9.270148E-17	1.800493E-17
6.215127E+03	9.505892E-17	1.846273E-17
6.225071E+03	9.741412E-17	1.892009E-17
6.235015E+03	9.975524E-17	1.937472E-17
6.244960E+03	1.020457E-16	1.981951E-17
6.254904E+03	1.042662E-16	2.025071E-17
6.264848E+03	1.063915E-16	2.066341E-17
6.274792E+03	1.084032E-16	2.105405E-17
6.284736E+03	1.102646E-16	2.141550E-17
6.294681E+03	1.119532E-16	2.174340E-17
6.304625E+03	1.134626E-16	2.203649E-17
6.314569E+03	1.147689E-16	2.229012E-17
6.324513E+03	1.158578E-16	2.250153E-17
6.334457E+03	1.167113E-16	2.266723E-17
6.344402E+03	1.173362E-16	2.278853E-17
6.354346E+03	1.177146E-16	2.286196E-17
6.364290E+03	1.178533E-16	2.288885E-17
6.374234E+03	1.177629E-16	2.287123E-17
6.384178E+03	1.174353E-16	2.280754E-17
6.394123E+03	1.168868E-16	2.270096E-17
6.404067E+03	1.161291E-16	2.255374E-17
6.414011E+03	1.151755E-16	2.236850E-17
6.423955E+03	1.140413E-16	2.214816E-17
6.433899E+03	1.127424E-16	2.189585E-17
6.443844E+03	1.112887E-16	2.161348E-17
6.453788E+03	1.097109E-16	2.130700E-17
6.463732E+03	1.080189E-16	2.097836E-17
6.473676E+03	1.062226E-16	2.062946E-17
6.483620E+03	1.043509E-16	2.026593E-17
6.493565E+03	1.024060E-16	1.988817E-17
6.503509E+03	1.004146E-16	1.950139E-17
6.513453E+03	9.837732E-17	1.910570E-17
6.523397E+03	9.631860E-17	1.870585E-17
6.533341E+03	9.423758E-17	1.830168E-17
6.543286E+03	9.215053E-17	1.789633E-17
6.553230E+03	9.007234E-17	1.749271E-17
6.563174E+03	8.800030E-17	1.709028E-17
6.573118E+03	8.594790E-17	1.669167E-17
6.583062E+03	8.392225E-17	1.629825E-17
6.593007E+03	8.192995E-17	1.591132E-17
6.602951E+03	7.997705E-17	1.553204E-17
6.612895E+03	7.806919E-17	1.516150E-17
6.622839E+03	7.621160E-17	1.480074E-17
6.632783E+03	7.440921E-17	1.445069E-17
6.642728E+03	7.266661E-17	1.411226E-17
6.652672E+03	7.098822E-17	1.378630E-17
6.662616E+03	6.937820E-17	1.347361E-17
6.672560E+03	6.784051E-17	1.317498E-17
6.682504E+03	6.637893E-17	1.289113E-17
6.692449E+03	6.499709E-17	1.262276E-17
6.702393E+03	6.369451E-17	1.236979E-17
6.712337E+03	6.248257E-17	1.213442E-17
6.722281E+03	6.136046E-17	1.191650E-17
6.732225E+03	6.032752E-17	1.171590E-17
6.742170E+03	5.939442E-17	1.153469E-17
6.752114E+03	5.856026E-17	1.137269E-17
6.762058E+03	5.782438E-17	1.122978E-17
6.772002E+03	5.719694E-17	1.110793E-17
6.781946E+03	5.667716E-17	1.100699E-17
6.791891E+03	5.626440E-17	1.092684E-17
6.801835E+03	5.596871E-17	1.086942E-17
6.811779E+03	5.578607E-17	1.083396E-17
6.821723E+03	5.572665E-17	1.082242E-17
6.831668E+03	5.578674E-17	1.083410E-17
6.841612E+03	5.597682E-17	1.087102E-17
6.851556E+03	5.629353E-17	1.093254E-17
6.861500E+03	5.674792E-17	1.102080E-17
6.871444E+03	5.733706E-17	1.113522E-17
6.881389E+03	5.806904E-17	1.127739E-17
6.891333E+03	5.895246E-17	1.144897E-17
6.901277E+03	5.998519E-17	1.164955E-17
6.911221E+03	6.117657E-17	1.188094E-17
6.921165E+03	6.253667E-17	1.214510E-17
6.931110E+03	6.406416E-17	1.244177E-17
6.941054E+03	6.576991E-17	1.277306E-17
6.950998E+03	6.766134E-17	1.314042E-17
6.960942E+03	6.974622E-17	1.354534E-17
6.970886E+03	7.203274E-17	1.398943E-17
6.980831E+03	7.452929E-17	1.447432E-17
6.990775E+03	7.724942E-17	1.500262E-17
7.000719E+03	8.019199E-17	1.557413E-17
7.010663E+03	8.337012E-17	1.619140E-17
7.020607E+03	8.678607E-17	1.685485E-17
7.030552E+03	9.045773E-17	1.756798E-17
7.040496E+03	9.438552E-17	1.833085E-17
7.050440E+03	9.857349E-17	1.914426E-17
7.060384E+03	1.030233E-16	2.000852E-17
7.070328E+03	1.077338E-16	2.092342E-17
7.080273E+03	1.126927E-16	2.188658E-17
7.090217E+03	1.179047E-16	2.289890E-17
7.100161E+03	1.233481E-16	2.395617E-17
7.110105E+03	1.289934E-16	2.505266E-17
7.120049E+03	1.348287E-16	2.618606E-17
7.129994E+03	1.408008E-16	2.734603E-17
7.139938E+03	1.468732E-16	2.852551E-17
7.149882E+03	1.530023E-16	2.971600E-17
7.159826E+03	1.591057E-16	3.090152E-17
7.169770E+03	1.651214E-16	3.207002E-17
7.179715E+03	1.709697E-16	3.320602E-17
7.189659E+03	1.765757E-16	3.429496E-17
7.199603E+03	1.818254E-16	3.531472E-17
7.209547E+03	1.866363E-16	3.624928E-17
7.219491E+03	1.909154E-16	3.708054E-17
7.229436E+03	1.945609E-16	3.778876E-17
7.239380E+03	1.975166E-16	3.836302E-17
7.249324E+03	1.997002E-16	3.878731E-17
7.259268E+03	2.010433E-16	3.904839E-17
7.269212E+03	2.015350E-16	3.914408E-17
7.279157E+03	2.011318E-16	3.906597E-17
7.289101E+03	1.998641E-16	3.881996E-17
7.299045E+03	1.977318E-16	3.840600E-17
7.308989E+03	1.947944E-16	3.783568E-17
7.318933E+03	1.911174E-16	3.712168E-17
7.328878E+03	1.867817E-16	3.627977E-17
7.338822E+03	1.818810E-16	3.532807E-17
7.348766E+03	1.765168E-16	3.428635E-17
7.358710E+03	1.707949E-16	3.317515E-17
7.368654E+03	1.648104E-16	3.201294E-17
7.378599E+03	1.586880E-16	3.082391E-17
7.388543E+03	1.525023E-16	2.962259E-17
7.398487E+03	1.463612E-16	2.842991E-17
7.408431E+03	1.403217E-16	2.725696E-17
7.418375E+03	1.344596E-16	2.611845E-17
7.428320E+03	1.288289E-16	2.502487E-17
7.438264E+03	1.234722E-16	2.398453E-17
7.448208E+03	1.184220E-16	2.300368E-17
7.458152E+03	1.136932E-16	2.208528E-17
7.468097E+03	1.093155E-16	2.123506E-17
7.478041E+03	1.052811E-16	2.045152E-17
7.487985E+03	1.015985E-16	1.973633E-17
7.497929E+03	9.826410E-17	1.908874E-17
7.507873E+03	9.527017E-17	1.850730E-17
7.517818E+03	9.260632E-17	1.798997E-17
7.527762E+03	9.026009E-17	1.753433E-17
7.537706E+03	8.821743E-17	1.713767E-17
7.547650E+03	8.645762E-17	1.679594E-17
7.557594E+03	8.497664E-17	1.650838E-17
7.567539E+03	8.374700E-17	1.626965E-17
7.577483E+03	8.275814E-17	1.607769E-17
7.587427E+03	8.199356E-17	1.592930E-17
7.597371E+03	8.143659E-17	1.582125E-17
7.607315E+03	8.106496E-17	1.574920E-17
7.617260E+03	8.087254E-17	1.571197E-17
7.627204E+03	8.083095E-17	1.570404E-17
7.637148E+03	8.092789E-17	1.572303E-17
7.647092E+03	8.114523E-17	1.576542E-17
7.657036E+03	8.146431E-17	1.582757E-17
7.666981E+03	8.186614E-17	1.590580E-17
7.676925E+03	8.232580E-17	1.599528E-17
7.686869E+03	8.283492E-17	1.609436E-17
7.696813E+03	8.336267E-17	1.619707E-17
7.706757E+03	8.389531E-17	1.630074E-17
7.716702E+03	8.441396E-17	1.640168E-17
