#wls	flux	fluxerr
1.591072E+03	2.827651E-19	8.226152E-20
1.630849E+03	3.010641E-19	8.758334E-20
1.670626E+03	3.154553E-19	9.176805E-20
1.710403E+03	3.251482E-19	9.458569E-20
1.750180E+03	3.293069E-19	9.579323E-20
1.789957E+03	3.264045E-19	9.494658E-20
1.829733E+03	3.151115E-19	9.165916E-20
1.869510E+03	2.944033E-19	8.563321E-20
1.909287E+03	2.644254E-19	7.691122E-20
1.949064E+03	2.272237E-19	6.608862E-20
1.988841E+03	1.869869E-19	5.438384E-20
2.028617E+03	1.496571E-19	4.352521E-20
2.068394E+03	1.207688E-19	3.512227E-20
2.108171E+03	1.037682E-19	3.017693E-20
2.147948E+03	9.987082E-20	2.904237E-20
2.187725E+03	1.096332E-19	3.187993E-20
2.227501E+03	1.339985E-19	3.896331E-20
2.267278E+03	1.740823E-19	5.061630E-20
2.307055E+03	2.302452E-19	6.694304E-20
2.346832E+03	3.013230E-19	8.760423E-20
2.386609E+03	3.850586E-19	1.119430E-19
2.426386E+03	4.786703E-19	1.391498E-19
2.466162E+03	5.795186E-19	1.684569E-19
2.505939E+03	6.853570E-19	1.992106E-19
2.545716E+03	7.948380E-19	2.310188E-19
2.585493E+03	9.068681E-19	2.635634E-19
2.625270E+03	1.020875E-18	2.966774E-19
2.665046E+03	1.136773E-18	3.303358E-19
2.704823E+03	1.254202E-18	3.644338E-19
2.744600E+03	1.373640E-18	3.991093E-19
2.784377E+03	1.495135E-18	4.343762E-19
2.824154E+03	1.619214E-18	4.703869E-19
2.863930E+03	1.746264E-18	5.072539E-19
2.903707E+03	1.876446E-18	5.450230E-19
2.943484E+03	2.010173E-18	5.838136E-19
2.983261E+03	2.148188E-18	6.238410E-19
2.993205E+03	2.183660E-18	6.341276E-19
3.003149E+03	2.219082E-18	6.443992E-19
3.013094E+03	2.255072E-18	6.548351E-19
3.023038E+03	2.291179E-18	6.653042E-19
3.032982E+03	2.328651E-18	6.761692E-19
3.042926E+03	2.367744E-18	6.875041E-19
3.052870E+03	2.408453E-18	6.993079E-19
3.062815E+03	2.450974E-18	7.116368E-19
3.072759E+03	2.494509E-18	7.242594E-19
3.082703E+03	2.539610E-18	7.373361E-19
3.092647E+03	2.585828E-18	7.507361E-19
3.102591E+03	2.633055E-18	7.644284E-19
3.112536E+03	2.681552E-18	7.784885E-19
3.122480E+03	2.730510E-18	7.926817E-19
3.132424E+03	2.780570E-18	8.071936E-19
3.142368E+03	2.830911E-18	8.217866E-19
3.152312E+03	2.882211E-18	8.366568E-19
3.162257E+03	2.934416E-18	8.517889E-19
3.172201E+03	2.986693E-18	8.669409E-19
3.182145E+03	3.039366E-18	8.822071E-19
3.192089E+03	3.092793E-18	8.976907E-19
3.202033E+03	3.146530E-18	9.132636E-19
3.211978E+03	3.200537E-18	9.289141E-19
3.221922E+03	3.254780E-18	9.446316E-19
3.231866E+03	3.309655E-18	9.605320E-19
3.241810E+03	3.364286E-18	9.763602E-19
3.251754E+03	3.419515E-18	9.923610E-19
3.261699E+03	3.474898E-18	1.008405E-18
3.271643E+03	3.530421E-18	1.024489E-18
3.281587E+03	3.586078E-18	1.040611E-18
3.291531E+03	3.642330E-18	1.056904E-18
3.301475E+03	3.698256E-18	1.073102E-18
3.311420E+03	3.754793E-18	1.089476E-18
3.321364E+03	3.811488E-18	1.105894E-18
3.331308E+03	3.868351E-18	1.122360E-18
3.341252E+03	3.925891E-18	1.139021E-18
3.351196E+03	3.983149E-18	1.155599E-18
3.361141E+03	4.041136E-18	1.172388E-18
3.371085E+03	4.099385E-18	1.189251E-18
3.381029E+03	4.157926E-18	1.206198E-18
3.390973E+03	4.216787E-18	1.223236E-18
3.400917E+03	4.276004E-18	1.240377E-18
3.410862E+03	4.336143E-18	1.257783E-18
3.420806E+03	4.396185E-18	1.275161E-18
3.430750E+03	4.457241E-18	1.292830E-18
3.440694E+03	4.518820E-18	1.310651E-18
3.450638E+03	4.580968E-18	1.328635E-18
3.460583E+03	4.644292E-18	1.346958E-18
3.470527E+03	4.707725E-18	1.365312E-18
3.480471E+03	4.772445E-18	1.384038E-18
3.490415E+03	4.837944E-18	1.402988E-18
3.500359E+03	4.904276E-18	1.422178E-18
3.510304E+03	4.971497E-18	1.441625E-18
3.520248E+03	5.039664E-18	1.461344E-18
3.530192E+03	5.109436E-18	1.481527E-18
3.540136E+03	5.179680E-18	1.501846E-18
3.550080E+03	5.251669E-18	1.522668E-18
3.560025E+03	5.324857E-18	1.543837E-18
3.569969E+03	5.399317E-18	1.565373E-18
3.579913E+03	5.475111E-18	1.587294E-18
3.589857E+03	5.552955E-18	1.609807E-18
3.599802E+03	5.631637E-18	1.632561E-18
3.609746E+03	5.712524E-18	1.655953E-18
3.619690E+03	5.795046E-18	1.679817E-18
3.629634E+03	5.879279E-18	1.704175E-18
3.639578E+03	5.965301E-18	1.729049E-18
3.649523E+03	6.053192E-18	1.754463E-18
3.659467E+03	6.143724E-18	1.780640E-18
3.669411E+03	6.235604E-18	1.807206E-18
3.679355E+03	6.330310E-18	1.834589E-18
3.689299E+03	6.426517E-18	1.862404E-18
3.699244E+03	6.525748E-18	1.891094E-18
3.709188E+03	6.627384E-18	1.920478E-18
3.719132E+03	6.732266E-18	1.950800E-18
3.729076E+03	6.839005E-18	1.981658E-18
3.739020E+03	6.948449E-18	2.013296E-18
3.748965E+03	7.061462E-18	2.045967E-18
3.758909E+03	7.176625E-18	2.079257E-18
3.768853E+03	7.295593E-18	2.113647E-18
3.778797E+03	7.417716E-18	2.148948E-18
3.788741E+03	7.543106E-18	2.185192E-18
3.798686E+03	7.671884E-18	2.222415E-18
3.808630E+03	7.804175E-18	2.260652E-18
3.818574E+03	7.940110E-18	2.299942E-18
3.828518E+03	8.079790E-18	2.340313E-18
3.838462E+03	8.224106E-18	2.382023E-18
3.848407E+03	8.371316E-18	2.424568E-18
3.858351E+03	8.523107E-18	2.468436E-18
3.868295E+03	8.677452E-18	2.513040E-18
3.878239E+03	8.835822E-18	2.558805E-18
3.888183E+03	8.996916E-18	2.605355E-18
3.898128E+03	9.160010E-18	2.652481E-18
3.908072E+03	9.324263E-18	2.699938E-18
3.918016E+03	9.488732E-18	2.747453E-18
3.927960E+03	9.652229E-18	2.794683E-18
3.937904E+03	9.813429E-18	2.841243E-18
3.947849E+03	9.970958E-18	2.886737E-18
3.957793E+03	1.012336E-17	2.930741E-18
3.967737E+03	1.027015E-17	2.973119E-18
3.977681E+03	1.040776E-17	3.012835E-18
3.987625E+03	1.053590E-17	3.049806E-18
3.997570E+03	1.065440E-17	3.083980E-18
4.007514E+03	1.076007E-17	3.114441E-18
4.017458E+03	1.085392E-17	3.141477E-18
4.027402E+03	1.093726E-17	3.165468E-18
4.037346E+03	1.100832E-17	3.185904E-18
4.047291E+03	1.107020E-17	3.203680E-18
4.057235E+03	1.112181E-17	3.218482E-18
4.067179E+03	1.116656E-17	3.231298E-18
4.077123E+03	1.120377E-17	3.241928E-18
4.087067E+03	1.123725E-17	3.251483E-18
4.097012E+03	1.126649E-17	3.259805E-18
4.106956E+03	1.129539E-17	3.268028E-18
4.116900E+03	1.132352E-17	3.276030E-18
4.126844E+03	1.135482E-17	3.284946E-18
4.136788E+03	1.138875E-17	3.294620E-18
4.146733E+03	1.142913E-17	3.306161E-18
4.156677E+03	1.147533E-17	3.319386E-18
4.166621E+03	1.152972E-17	3.334975E-18
4.176565E+03	1.159458E-17	3.353591E-18
4.186509E+03	1.166883E-17	3.374922E-18
4.196454E+03	1.175425E-17	3.399483E-18
4.206398E+03	1.185146E-17	3.427446E-18
4.216342E+03	1.196219E-17	3.459320E-18
4.226286E+03	1.208488E-17	3.494651E-18
4.236231E+03	1.222133E-17	3.533954E-18
4.246175E+03	1.237229E-17	3.577450E-18
4.256119E+03	1.253857E-17	3.625370E-18
4.266063E+03	1.271987E-17	3.677630E-18
4.276007E+03	1.291950E-17	3.735183E-18
4.285952E+03	1.313744E-17	3.798024E-18
4.295896E+03	1.337371E-17	3.866160E-18
4.305840E+03	1.363222E-17	3.940717E-18
4.315784E+03	1.391252E-17	4.021569E-18
4.325728E+03	1.421820E-17	4.109745E-18
4.335673E+03	1.455317E-17	4.206380E-18
4.345617E+03	1.491794E-17	4.311620E-18
4.355561E+03	1.531729E-17	4.426844E-18
4.365505E+03	1.575373E-17	4.552778E-18
4.375449E+03	1.623456E-17	4.691526E-18
4.385394E+03	1.676348E-17	4.844158E-18
4.395338E+03	1.734460E-17	5.011861E-18
4.405282E+03	1.798542E-17	5.196797E-18
4.415226E+03	1.869429E-17	5.401381E-18
4.425170E+03	1.947501E-17	5.626703E-18
4.435115E+03	2.033467E-17	5.874809E-18
4.445059E+03	2.127682E-17	6.146727E-18
4.455003E+03	2.230938E-17	6.444734E-18
4.464947E+03	2.342645E-17	6.767130E-18
4.474891E+03	2.462693E-17	7.113588E-18
4.484836E+03	2.589883E-17	7.480643E-18
4.494780E+03	2.723090E-17	7.865044E-18
4.504724E+03	2.860558E-17	8.261717E-18
4.514668E+03	2.999831E-17	8.663566E-18
4.524612E+03	3.138600E-17	9.063924E-18
4.534557E+03	3.273019E-17	9.451683E-18
4.544501E+03	3.399704E-17	9.817074E-18
4.554445E+03	3.515117E-17	1.014988E-17
4.564389E+03	3.615646E-17	1.043969E-17
4.574333E+03	3.697654E-17	1.067599E-17
4.584278E+03	3.759837E-17	1.085504E-17
4.594222E+03	3.800295E-17	1.097134E-17
4.604166E+03	3.818975E-17	1.102477E-17
4.614110E+03	3.817886E-17	1.102113E-17
4.624054E+03	3.799595E-17	1.096783E-17
4.633999E+03	3.767776E-17	1.087549E-17
4.643943E+03	3.724759E-17	1.075083E-17
4.653887E+03	3.673768E-17	1.060318E-17
4.663831E+03	3.617235E-17	1.043954E-17
4.673775E+03	3.558002E-17	1.026812E-17
4.683720E+03	3.497496E-17	1.009305E-17
4.693664E+03	3.437837E-17	9.920434E-18
4.703608E+03	3.380476E-17	9.754467E-18
4.713552E+03	3.326695E-17	9.598844E-18
4.723496E+03	3.277279E-17	9.455829E-18
4.733441E+03	3.232966E-17	9.327550E-18
4.743385E+03	3.194052E-17	9.214861E-18
4.753329E+03	3.160799E-17	9.118514E-18
4.763273E+03	3.133077E-17	9.038129E-18
4.773217E+03	3.111250E-17	8.974755E-18
4.783162E+03	3.095421E-17	8.928692E-18
4.793106E+03	3.085640E-17	8.900075E-18
4.803050E+03	3.081718E-17	8.888361E-18
4.812994E+03	3.084182E-17	8.895067E-18
4.822938E+03	3.092120E-17	8.917559E-18
4.832883E+03	3.106079E-17	8.957411E-18
4.842827E+03	3.125632E-17	9.013390E-18
4.852771E+03	3.150341E-17	9.084235E-18
4.862715E+03	3.180276E-17	9.170144E-18
4.872660E+03	3.215280E-17	9.270658E-18
4.882604E+03	3.254960E-17	9.384646E-18
4.892548E+03	3.299447E-17	9.512484E-18
4.902492E+03	3.348608E-17	9.653785E-18
4.912436E+03	3.402255E-17	9.808009E-18
4.922381E+03	3.459907E-17	9.973761E-18
4.932325E+03	3.521550E-17	1.015100E-17
4.942269E+03	3.586689E-17	1.033831E-17
4.952213E+03	3.654731E-17	1.053396E-17
4.962157E+03	3.724739E-17	1.073527E-17
4.972102E+03	3.796575E-17	1.094183E-17
4.982046E+03	3.868571E-17	1.114883E-17
4.991990E+03	3.940971E-17	1.135697E-17
5.001934E+03	4.013195E-17	1.156459E-17
5.011878E+03	4.085782E-17	1.177324E-17
5.021823E+03	4.159100E-17	1.198398E-17
5.031767E+03	4.233967E-17	1.219917E-17
5.041711E+03	4.311042E-17	1.242069E-17
5.051655E+03	4.391649E-17	1.265238E-17
5.061599E+03	4.476619E-17	1.289661E-17
5.071544E+03	4.566427E-17	1.315476E-17
5.081488E+03	4.662540E-17	1.343105E-17
5.091432E+03	4.764619E-17	1.372450E-17
5.101376E+03	4.872919E-17	1.403585E-17
5.111320E+03	4.988354E-17	1.436772E-17
5.121265E+03	5.109911E-17	1.471720E-17
5.131209E+03	5.237545E-17	1.508415E-17
5.141153E+03	5.370494E-17	1.546637E-17
5.151097E+03	5.506412E-17	1.585711E-17
5.161041E+03	5.643259E-17	1.625050E-17
5.170986E+03	5.778494E-17	1.663921E-17
5.180930E+03	5.909878E-17	1.701679E-17
5.190874E+03	6.034685E-17	1.737542E-17
5.200818E+03	6.151108E-17	1.770987E-17
5.210762E+03	6.257348E-17	1.801498E-17
5.220707E+03	6.351731E-17	1.828593E-17
5.230651E+03	6.432349E-17	1.851723E-17
5.240595E+03	6.499268E-17	1.870909E-17
5.250539E+03	6.552435E-17	1.886134E-17
5.260483E+03	6.591923E-17	1.897420E-17
5.270428E+03	6.617473E-17	1.904694E-17
5.280372E+03	6.629942E-17	1.908203E-17
5.290316E+03	6.629786E-17	1.908078E-17
5.300260E+03	6.617595E-17	1.904490E-17
5.310204E+03	6.593537E-17	1.897487E-17
5.320149E+03	6.558923E-17	1.887448E-17
5.330093E+03	6.514922E-17	1.874708E-17
5.340037E+03	6.462812E-17	1.859637E-17
5.349981E+03	6.403454E-17	1.842481E-17
5.359925E+03	6.338914E-17	1.823836E-17
5.369870E+03	6.270796E-17	1.804163E-17
5.379814E+03	6.200676E-17	1.783916E-17
5.389758E+03	6.129700E-17	1.763425E-17
5.399702E+03	6.059902E-17	1.743274E-17
5.409646E+03	5.992762E-17	1.723890E-17
5.419591E+03	5.929655E-17	1.705668E-17
5.429535E+03	5.871888E-17	1.688983E-17
5.439479E+03	5.819841E-17	1.673946E-17
5.449423E+03	5.773135E-17	1.660446E-17
5.459367E+03	5.730541E-17	1.648129E-17
5.469312E+03	5.689924E-17	1.636383E-17
5.479256E+03	5.648577E-17	1.624427E-17
5.489200E+03	5.601683E-17	1.610878E-17
5.499144E+03	5.546275E-17	1.594882E-17
5.509089E+03	5.480682E-17	1.575958E-17
5.519033E+03	5.403402E-17	1.553676E-17
5.528977E+03	5.314567E-17	1.528073E-17
5.538921E+03	5.213827E-17	1.499049E-17
5.548865E+03	5.102384E-17	1.466951E-17
5.558810E+03	4.980965E-17	1.431988E-17
5.568754E+03	4.852315E-17	1.394948E-17
5.578698E+03	4.717833E-17	1.356235E-17
5.588642E+03	4.580141E-17	1.316603E-17
5.598586E+03	4.442213E-17	1.276906E-17
5.608531E+03	4.306950E-17	1.237978E-17
5.618475E+03	4.176582E-17	1.200459E-17
5.628419E+03	4.053566E-17	1.165058E-17
5.638363E+03	3.939746E-17	1.132301E-17
5.648307E+03	3.836732E-17	1.102653E-17
5.658252E+03	3.745936E-17	1.076519E-17
5.668196E+03	3.668656E-17	1.054271E-17
5.678140E+03	3.605865E-17	1.036188E-17
5.688084E+03	3.559026E-17	1.022691E-17
5.698028E+03	3.529408E-17	1.014143E-17
5.707973E+03	3.518302E-17	1.010915E-17
5.717917E+03	3.526435E-17	1.013215E-17
5.727861E+03	3.555491E-17	1.021526E-17
5.737805E+03	3.606088E-17	1.036025E-17
5.747749E+03	3.678576E-17	1.056813E-17
5.757694E+03	3.772960E-17	1.083890E-17
5.767638E+03	3.889311E-17	1.117275E-17
5.777582E+03	4.027098E-17	1.156816E-17
5.787526E+03	4.185288E-17	1.202214E-17
5.797470E+03	4.363074E-17	1.253239E-17
5.807415E+03	4.558050E-17	1.309198E-17
5.817359E+03	4.766964E-17	1.369156E-17
5.827303E+03	4.985956E-17	1.432004E-17
5.837247E+03	5.210838E-17	1.496541E-17
5.847191E+03	5.436343E-17	1.561252E-17
5.857136E+03	5.657921E-17	1.624831E-17
5.867080E+03	5.869954E-17	1.685665E-17
5.877024E+03	6.067930E-17	1.742458E-17
5.886968E+03	6.246893E-17	1.793789E-17
5.896912E+03	6.402877E-17	1.838518E-17
5.906857E+03	6.531808E-17	1.875477E-17
5.916801E+03	6.631441E-17	1.904022E-17
5.926745E+03	6.698638E-17	1.923252E-17
5.936689E+03	6.732349E-17	1.932868E-17
5.946633E+03	6.732057E-17	1.932722E-17
5.956578E+03	6.699699E-17	1.923370E-17
5.966522E+03	6.638177E-17	1.905648E-17
5.976466E+03	6.551505E-17	1.880707E-17
5.986410E+03	6.446685E-17	1.850559E-17
5.996354E+03	6.330821E-17	1.817243E-17
6.006299E+03	6.211873E-17	1.783044E-17
6.016243E+03	6.098314E-17	1.750395E-17
6.026187E+03	5.996974E-17	1.721255E-17
6.036131E+03	5.915275E-17	1.697754E-17
6.046075E+03	5.858416E-17	1.681385E-17
6.056020E+03	5.832638E-17	1.673937E-17
6.065964E+03	5.842047E-17	1.676588E-17
6.075908E+03	5.887199E-17	1.689497E-17
6.085852E+03	5.969478E-17	1.713060E-17
6.095796E+03	6.088795E-17	1.747251E-17
6.105741E+03	6.245587E-17	1.792194E-17
6.115685E+03	6.440411E-17	1.848048E-17
6.125629E+03	6.672597E-17	1.914620E-17
6.135573E+03	6.942412E-17	1.991986E-17
6.145518E+03	7.248967E-17	2.079890E-17
6.155462E+03	7.592711E-17	2.178460E-17
6.165406E+03	7.971681E-17	2.287132E-17
6.175350E+03	8.383093E-17	2.405108E-17
6.185294E+03	8.825206E-17	2.531885E-17
6.195239E+03	9.292728E-17	2.665947E-17
6.205183E+03	9.781808E-17	2.806187E-17
6.215127E+03	1.028470E-16	2.950384E-17
6.225071E+03	1.079513E-16	3.096739E-17
6.235015E+03	1.130504E-16	3.242937E-17
6.244960E+03	1.180560E-16	3.386447E-17
6.254904E+03	1.228890E-16	3.525002E-17
6.264848E+03	1.274689E-16	3.656293E-17
6.274792E+03	1.317046E-16	3.777707E-17
6.284736E+03	1.355470E-16	3.887834E-17
6.294681E+03	1.389229E-16	3.984578E-17
6.304625E+03	1.417642E-16	4.065988E-17
6.314569E+03	1.440520E-16	4.131523E-17
6.324513E+03	1.457353E-16	4.179718E-17
6.334457E+03	1.468059E-16	4.210340E-17
6.344402E+03	1.472777E-16	4.223788E-17
6.354346E+03	1.471429E-16	4.219844E-17
6.364290E+03	1.464380E-16	4.199550E-17
6.374234E+03	1.452073E-16	4.164183E-17
6.384178E+03	1.435036E-16	4.115251E-17
6.394123E+03	1.413852E-16	4.054432E-17
6.404067E+03	1.389219E-16	3.983726E-17
6.414011E+03	1.361854E-16	3.905189E-17
6.423955E+03	1.332353E-16	3.820531E-17
6.433899E+03	1.301598E-16	3.732282E-17
6.443844E+03	1.270123E-16	3.641975E-17
6.453788E+03	1.238368E-16	3.550866E-17
6.463732E+03	1.206804E-16	3.460309E-17
6.473676E+03	1.175538E-16	3.370612E-17
6.483620E+03	1.144646E-16	3.281990E-17
6.493565E+03	1.114284E-16	3.194892E-17
6.503509E+03	1.084571E-16	3.109659E-17
6.513453E+03	1.055357E-16	3.025859E-17
6.523397E+03	1.026672E-16	2.943579E-17
6.533341E+03	9.985286E-17	2.862854E-17
6.543286E+03	9.707246E-17	2.783106E-17
6.553230E+03	9.433312E-17	2.704539E-17
6.563174E+03	9.163520E-17	2.627161E-17
6.573118E+03	8.897923E-17	2.550989E-17
6.583062E+03	8.636619E-17	2.476051E-17
6.593007E+03	8.379713E-17	2.402375E-17
6.602951E+03	8.127330E-17	2.329999E-17
6.612895E+03	7.879686E-17	2.258983E-17
6.622839E+03	7.637003E-17	2.189392E-17
6.632783E+03	7.399495E-17	2.121286E-17
6.642728E+03	7.167454E-17	2.054750E-17
6.652672E+03	6.940624E-17	1.989709E-17
6.662616E+03	6.720354E-17	1.926551E-17
6.672560E+03	6.506485E-17	1.865229E-17
6.682504E+03	6.299385E-17	1.805849E-17
6.692449E+03	6.099053E-17	1.748411E-17
6.702393E+03	5.907397E-17	1.693461E-17
6.712337E+03	5.724462E-17	1.641012E-17
6.722281E+03	5.551991E-17	1.591565E-17
6.732225E+03	5.389912E-17	1.545097E-17
6.742170E+03	5.239767E-17	1.502051E-17
6.752114E+03	5.101365E-17	1.462373E-17
6.762058E+03	4.976101E-17	1.426462E-17
6.772002E+03	4.863768E-17	1.394258E-17
6.781946E+03	4.765297E-17	1.366029E-17
6.791891E+03	4.681588E-17	1.342032E-17
6.801835E+03	4.612490E-17	1.322224E-17
6.811779E+03	4.558930E-17	1.306871E-17
6.821723E+03	4.521303E-17	1.296086E-17
6.831668E+03	4.500069E-17	1.290001E-17
6.841612E+03	4.496126E-17	1.288873E-17
6.851556E+03	4.509317E-17	1.292658E-17
6.861500E+03	4.540664E-17	1.301648E-17
6.871444E+03	4.590919E-17	1.316059E-17
6.881389E+03	4.660487E-17	1.336007E-17
6.891333E+03	4.749841E-17	1.361628E-17
6.901277E+03	4.859506E-17	1.393073E-17
6.911221E+03	4.989571E-17	1.430367E-17
6.921165E+03	5.139680E-17	1.473408E-17
6.931110E+03	5.310682E-17	1.522440E-17
6.941054E+03	5.502081E-17	1.577321E-17
6.950998E+03	5.713692E-17	1.637998E-17
6.960942E+03	5.945579E-17	1.704490E-17
6.970886E+03	6.198497E-17	1.777013E-17
6.980831E+03	6.475109E-17	1.856332E-17
6.990775E+03	6.776506E-17	1.942759E-17
7.000719E+03	7.106746E-17	2.037457E-17
7.010663E+03	7.468955E-17	2.141325E-17
7.020607E+03	7.866402E-17	2.255299E-17
7.030552E+03	8.303661E-17	2.380692E-17
7.040496E+03	8.782928E-17	2.518134E-17
7.050440E+03	9.308591E-17	2.668883E-17
7.060384E+03	9.885388E-17	2.834299E-17
7.070328E+03	1.051610E-16	3.015182E-17
7.080273E+03	1.120613E-16	3.213079E-17
7.090217E+03	1.196061E-16	3.429463E-17
7.100161E+03	1.278609E-16	3.666217E-17
7.110105E+03	1.368652E-16	3.924474E-17
7.120049E+03	1.466847E-16	4.206118E-17
7.129994E+03	1.573763E-16	4.512783E-17
7.139938E+03	1.689915E-16	4.845946E-17
7.149882E+03	1.815526E-16	5.206253E-17
7.159826E+03	1.950479E-16	5.593370E-17
7.169770E+03	2.094751E-16	6.007232E-17
7.179715E+03	2.246872E-16	6.443629E-17
7.189659E+03	2.404782E-16	6.896653E-17
7.199603E+03	2.565520E-16	7.357813E-17
7.209547E+03	2.725775E-16	7.817615E-17
7.219491E+03	2.880611E-16	8.261909E-17
7.229436E+03	3.025293E-16	8.677107E-17
7.239380E+03	3.153787E-16	9.045904E-17
7.249324E+03	3.260750E-16	9.352972E-17
7.259268E+03	3.340082E-16	9.580804E-17
7.269212E+03	3.387754E-16	9.717845E-17
7.279157E+03	3.400775E-16	9.755499E-17
7.289101E+03	3.376570E-16	9.686374E-17
7.299045E+03	3.315397E-16	9.511201E-17
7.308989E+03	3.218719E-16	9.234162E-17
7.318933E+03	3.089725E-16	8.864400E-17
7.328878E+03	2.934226E-16	8.418572E-17
7.338822E+03	2.759512E-16	7.917589E-17
7.348766E+03	2.572207E-16	7.380447E-17
7.358710E+03	2.379492E-16	6.827752E-17
7.368654E+03	2.187507E-16	6.277110E-17
7.378599E+03	2.001707E-16	5.744184E-17
7.388543E+03	1.825789E-16	5.239576E-17
7.398487E+03	1.662762E-16	4.771928E-17
7.408431E+03	1.514403E-16	4.346340E-17
7.418375E+03	1.380947E-16	3.963495E-17
7.428320E+03	1.262423E-16	3.623478E-17
7.438264E+03	1.158313E-16	3.324808E-17
7.448208E+03	1.067636E-16	3.064672E-17
7.458152E+03	9.893435E-17	2.840068E-17
7.468097E+03	9.223781E-17	2.647962E-17
7.478041E+03	8.654491E-17	2.484653E-17
7.487985E+03	8.176036E-17	2.347409E-17
7.497929E+03	7.778109E-17	2.233275E-17
7.507873E+03	7.450398E-17	2.139293E-17
7.517818E+03	7.185243E-17	2.063266E-17
7.527762E+03	6.976443E-17	2.003416E-17
7.537706E+03	6.817017E-17	1.957741E-17
7.547650E+03	6.702807E-17	1.925048E-17
7.557594E+03	6.630073E-17	1.904266E-17
7.567539E+03	6.595814E-17	1.894534E-17
7.577483E+03	6.597722E-17	1.895191E-17
7.587427E+03	6.634080E-17	1.905746E-17
7.597371E+03	6.703006E-17	1.925661E-17
7.607315E+03	6.804665E-17	1.954983E-17
7.617260E+03	6.937184E-17	1.993176E-17
7.627204E+03	7.099846E-17	2.040037E-17
7.637148E+03	7.291914E-17	2.095355E-17
7.647092E+03	7.510505E-17	2.158303E-17
7.657036E+03	7.752881E-17	2.228097E-17
7.666981E+03	8.014880E-17	2.303540E-17
7.676925E+03	8.291794E-17	2.383281E-17
7.686869E+03	8.577803E-17	2.465649E-17
7.696813E+03	8.868490E-17	2.549373E-17
7.706757E+03	9.156731E-17	2.632407E-17
7.716702E+03	9.435165E-17	2.712634E-17
