#wls	flux	fluxerr
1.600000E+03	1.112597E-15	5.861621E-17
1.640000E+03	1.059781E-15	5.503466E-17
1.680000E+03	1.006864E-15	5.151996E-17
1.720000E+03	9.539552E-16	4.807960E-17
1.760000E+03	9.012617E-16	4.472551E-17
1.800000E+03	8.490533E-16	4.147201E-17
1.840000E+03	7.973132E-16	3.831865E-17
1.880000E+03	7.463998E-16	3.528268E-17
1.920000E+03	6.964895E-16	3.237160E-17
1.960000E+03	6.478457E-16	2.959619E-17
2.000000E+03	6.008547E-16	2.697174E-17
2.040000E+03	5.562612E-16	2.452792E-17
2.080000E+03	5.152699E-16	2.231183E-17
2.120000E+03	4.800007E-16	2.040548E-17
2.160000E+03	4.538819E-16	1.893872E-17
2.200000E+03	4.405130E-16	1.803774E-17
2.240000E+03	4.436339E-16	1.782350E-17
2.280000E+03	4.675364E-16	1.842797E-17
2.320000E+03	5.168729E-16	1.998528E-17
2.360000E+03	5.975411E-16	2.266495E-17
2.400000E+03	7.179406E-16	2.671528E-17
2.440000E+03	8.892131E-16	3.246507E-17
2.480000E+03	1.124705E-15	4.029745E-17
2.520000E+03	1.437605E-15	5.056307E-17
2.560000E+03	1.836909E-15	6.344542E-17
2.600000E+03	2.321200E-15	7.876377E-17
2.640000E+03	2.875081E-15	9.588641E-17
2.680000E+03	3.476991E-15	1.140261E-16
2.720000E+03	4.107369E-15	1.325158E-16
2.760000E+03	4.748645E-15	1.507984E-16
2.800000E+03	5.385869E-15	1.684362E-16
2.840000E+03	6.007492E-15	1.851255E-16
2.880000E+03	6.606111E-15	2.007084E-16
2.920000E+03	7.177900E-15	2.151442E-16
2.960000E+03	7.723624E-15	2.285316E-16
3.000000E+03	8.246715E-15	2.410429E-16
3.010000E+03	8.374876E-15	2.440686E-16
3.020000E+03	8.502000E-15	2.470554E-16
3.030000E+03	8.628190E-15	2.500072E-16
3.040000E+03	8.753924E-15	2.529389E-16
3.050000E+03	8.879139E-15	2.558491E-16
3.060000E+03	9.003931E-15	2.587410E-16
3.070000E+03	9.128595E-15	2.616233E-16
3.080000E+03	9.253050E-15	2.644941E-16
3.090000E+03	9.377392E-15	2.673563E-16
3.100000E+03	9.502106E-15	2.702239E-16
3.110000E+03	9.626899E-15	2.730886E-16
3.120000E+03	9.752037E-15	2.759583E-16
3.130000E+03	9.877398E-15	2.788294E-16
3.140000E+03	1.000363E-14	2.817204E-16
3.150000E+03	1.013018E-14	2.846158E-16
3.160000E+03	1.025729E-14	2.875219E-16
3.170000E+03	1.038514E-14	2.904444E-16
3.180000E+03	1.051373E-14	2.933829E-16
3.190000E+03	1.064262E-14	2.963255E-16
3.200000E+03	1.077236E-14	2.992869E-16
3.210000E+03	1.090244E-14	3.022535E-16
3.220000E+03	1.103294E-14	3.052270E-16
3.230000E+03	1.116350E-14	3.081977E-16
3.240000E+03	1.129413E-14	3.111658E-16
3.250000E+03	1.142457E-14	3.141244E-16
3.260000E+03	1.155453E-14	3.170655E-16
3.270000E+03	1.168348E-14	3.199750E-16
3.280000E+03	1.181122E-14	3.228471E-16
3.290000E+03	1.193730E-14	3.256699E-16
3.300000E+03	1.206099E-14	3.284242E-16
3.310000E+03	1.218191E-14	3.310996E-16
3.320000E+03	1.229921E-14	3.336735E-16
3.330000E+03	1.241231E-14	3.361313E-16
3.340000E+03	1.252023E-14	3.384464E-16
3.350000E+03	1.262205E-14	3.405949E-16
3.360000E+03	1.271673E-14	3.425500E-16
3.370000E+03	1.280320E-14	3.442833E-16
3.380000E+03	1.288023E-14	3.457634E-16
3.390000E+03	1.294632E-14	3.469512E-16
3.400000E+03	1.300026E-14	3.478156E-16
3.410000E+03	1.304015E-14	3.483075E-16
3.420000E+03	1.306479E-14	3.483966E-16
3.430000E+03	1.307219E-14	3.480320E-16
3.440000E+03	1.306070E-14	3.471715E-16
3.450000E+03	1.302877E-14	3.457767E-16
3.460000E+03	1.297487E-14	3.438090E-16
3.470000E+03	1.289824E-14	3.412510E-16
3.480000E+03	1.279870E-14	3.381006E-16
3.490000E+03	1.267784E-14	3.344022E-16
3.500000E+03	1.253842E-14	3.302300E-16
3.510000E+03	1.238330E-14	3.256612E-16
3.520000E+03	1.221582E-14	3.207845E-16
3.530000E+03	1.203867E-14	3.156714E-16
3.540000E+03	1.185505E-14	3.104061E-16
3.550000E+03	1.166772E-14	3.050608E-16
3.560000E+03	1.147945E-14	2.997081E-16
3.570000E+03	1.129260E-14	2.944088E-16
3.580000E+03	1.110954E-14	2.892243E-16
3.590000E+03	1.093278E-14	2.842185E-16
3.600000E+03	1.076423E-14	2.794403E-16
3.610000E+03	1.060619E-14	2.749480E-16
3.620000E+03	1.046066E-14	2.707917E-16
3.630000E+03	1.032945E-14	2.670168E-16
3.640000E+03	1.021447E-14	2.636706E-16
3.650000E+03	1.011769E-14	2.608020E-16
3.660000E+03	1.004085E-14	2.584533E-16
3.670000E+03	9.985984E-15	2.566747E-16
3.680000E+03	9.954683E-15	2.555042E-16
3.690000E+03	9.948852E-15	2.549880E-16
3.700000E+03	9.970268E-15	2.551685E-16
3.710000E+03	1.002079E-14	2.560902E-16
3.720000E+03	1.010204E-14	2.577907E-16
3.730000E+03	1.021579E-14	2.603119E-16
3.740000E+03	1.036363E-14	2.636901E-16
3.750000E+03	1.054713E-14	2.679617E-16
3.760000E+03	1.076761E-14	2.731555E-16
3.770000E+03	1.102628E-14	2.792977E-16
3.780000E+03	1.132392E-14	2.864039E-16
3.790000E+03	1.166098E-14	2.944803E-16
3.800000E+03	1.203779E-14	3.035304E-16
3.810000E+03	1.245355E-14	3.135294E-16
3.820000E+03	1.290731E-14	3.244485E-16
3.830000E+03	1.339746E-14	3.362424E-16
3.840000E+03	1.392122E-14	3.488372E-16
3.850000E+03	1.447530E-14	3.621458E-16
3.860000E+03	1.505576E-14	3.760662E-16
3.870000E+03	1.565779E-14	3.904745E-16
3.880000E+03	1.627588E-14	4.052314E-16
3.890000E+03	1.690384E-14	4.201802E-16
3.900000E+03	1.753538E-14	4.351637E-16
3.910000E+03	1.816383E-14	4.500159E-16
3.920000E+03	1.878246E-14	4.645704E-16
3.930000E+03	1.938472E-14	4.786671E-16
3.940000E+03	1.996442E-14	4.921548E-16
3.950000E+03	2.051599E-14	5.048997E-16
3.960000E+03	2.103436E-14	5.167810E-16
3.970000E+03	2.151500E-14	5.276914E-16
3.980000E+03	2.195467E-14	5.375571E-16
3.990000E+03	2.235036E-14	5.463098E-16
4.000000E+03	2.270020E-14	5.539099E-16
4.010000E+03	2.300279E-14	5.603294E-16
4.020000E+03	2.325716E-14	5.655514E-16
4.030000E+03	2.346346E-14	5.695863E-16
4.040000E+03	2.362169E-14	5.724404E-16
4.050000E+03	2.373255E-14	5.741376E-16
4.060000E+03	2.379682E-14	5.747035E-16
4.070000E+03	2.381545E-14	5.741674E-16
4.080000E+03	2.378953E-14	5.725623E-16
4.090000E+03	2.372047E-14	5.699279E-16
4.100000E+03	2.360936E-14	5.662966E-16
4.110000E+03	2.345763E-14	5.617086E-16
4.120000E+03	2.326743E-14	5.562211E-16
4.130000E+03	2.304074E-14	5.498864E-16
4.140000E+03	2.278046E-14	5.427788E-16
4.150000E+03	2.248963E-14	5.349751E-16
4.160000E+03	2.217192E-14	5.265665E-16
4.170000E+03	2.183127E-14	5.176501E-16
4.180000E+03	2.147188E-14	5.083282E-16
4.190000E+03	2.109874E-14	4.987210E-16
4.200000E+03	2.071691E-14	4.889503E-16
4.210000E+03	2.033148E-14	4.791367E-16
4.220000E+03	1.994822E-14	4.694164E-16
4.230000E+03	1.957246E-14	4.599150E-16
4.240000E+03	1.920941E-14	4.507534E-16
4.250000E+03	1.886478E-14	4.420645E-16
4.260000E+03	1.854357E-14	4.339637E-16
4.270000E+03	1.824984E-14	4.265434E-16
4.280000E+03	1.798797E-14	4.199033E-16
4.290000E+03	1.776140E-14	4.141214E-16
4.300000E+03	1.757270E-14	4.092545E-16
4.310000E+03	1.742351E-14	4.053382E-16
4.320000E+03	1.731448E-14	4.023845E-16
4.330000E+03	1.724575E-14	4.003948E-16
4.340000E+03	1.721584E-14	3.993316E-16
4.350000E+03	1.722308E-14	3.991540E-16
4.360000E+03	1.726485E-14	3.997984E-16
4.370000E+03	1.733803E-14	4.011907E-16
4.380000E+03	1.743899E-14	4.032456E-16
4.390000E+03	1.756395E-14	4.058745E-16
4.400000E+03	1.770869E-14	4.089789E-16
4.410000E+03	1.786898E-14	4.124608E-16
4.420000E+03	1.803991E-14	4.162068E-16
4.430000E+03	1.821624E-14	4.200956E-16
4.440000E+03	1.839276E-14	4.240080E-16
4.450000E+03	1.856388E-14	4.278151E-16
4.460000E+03	1.872428E-14	4.313953E-16
4.470000E+03	1.886906E-14	4.346359E-16
4.480000E+03	1.899317E-14	4.374212E-16
4.490000E+03	1.909293E-14	4.396668E-16
4.500000E+03	1.916514E-14	4.412997E-16
4.510000E+03	1.920710E-14	4.422575E-16
4.520000E+03	1.921730E-14	4.425057E-16
4.530000E+03	1.919498E-14	4.420267E-16
4.540000E+03	1.913995E-14	4.408152E-16
4.550000E+03	1.905267E-14	4.388816E-16
4.560000E+03	1.893392E-14	4.362428E-16
4.570000E+03	1.878500E-14	4.329278E-16
4.580000E+03	1.860819E-14	4.289882E-16
4.590000E+03	1.840543E-14	4.244672E-16
4.600000E+03	1.817910E-14	4.194184E-16
4.610000E+03	1.793226E-14	4.139107E-16
4.620000E+03	1.766786E-14	4.080109E-16
4.630000E+03	1.738822E-14	4.017712E-16
4.640000E+03	1.709647E-14	3.952621E-16
4.650000E+03	1.679433E-14	3.885222E-16
4.660000E+03	1.648425E-14	3.816066E-16
4.670000E+03	1.616787E-14	3.745520E-16
4.680000E+03	1.584662E-14	3.673897E-16
4.690000E+03	1.552185E-14	3.601494E-16
4.700000E+03	1.519493E-14	3.528608E-16
4.710000E+03	1.486759E-14	3.455623E-16
4.720000E+03	1.454117E-14	3.382837E-16
4.730000E+03	1.421747E-14	3.310654E-16
4.740000E+03	1.389852E-14	3.239532E-16
4.750000E+03	1.358604E-14	3.169867E-16
4.760000E+03	1.328260E-14	3.102252E-16
4.770000E+03	1.299002E-14	3.037103E-16
4.780000E+03	1.271078E-14	2.975002E-16
4.790000E+03	1.244714E-14	2.916475E-16
4.800000E+03	1.220103E-14	2.861980E-16
4.810000E+03	1.197475E-14	2.812063E-16
4.820000E+03	1.177054E-14	2.767260E-16
4.830000E+03	1.159008E-14	2.727973E-16
4.840000E+03	1.143509E-14	2.694621E-16
4.850000E+03	1.130665E-14	2.667478E-16
4.860000E+03	1.120534E-14	2.646695E-16
4.870000E+03	1.113135E-14	2.632339E-16
4.880000E+03	1.108407E-14	2.624279E-16
4.890000E+03	1.106219E-14	2.622224E-16
4.900000E+03	1.106422E-14	2.625843E-16
4.910000E+03	1.108774E-14	2.634574E-16
4.920000E+03	1.113037E-14	2.647866E-16
4.930000E+03	1.118943E-14	2.665095E-16
4.940000E+03	1.126205E-14	2.685590E-16
4.950000E+03	1.134550E-14	2.708705E-16
4.960000E+03	1.143692E-14	2.733762E-16
4.970000E+03	1.153391E-14	2.760191E-16
4.980000E+03	1.163396E-14	2.787393E-16
4.990000E+03	1.173478E-14	2.814822E-16
5.000000E+03	1.183422E-14	2.841956E-16
5.010000E+03	1.193058E-14	2.868381E-16
5.020000E+03	1.202171E-14	2.893578E-16
5.030000E+03	1.210570E-14	2.917081E-16
5.040000E+03	1.218081E-14	2.938457E-16
5.050000E+03	1.224499E-14	2.957207E-16
5.060000E+03	1.229624E-14	2.972836E-16
5.070000E+03	1.233260E-14	2.984857E-16
5.080000E+03	1.235227E-14	2.992819E-16
5.090000E+03	1.235346E-14	2.996277E-16
5.100000E+03	1.233481E-14	2.994884E-16
5.110000E+03	1.229558E-14	2.988444E-16
5.120000E+03	1.223525E-14	2.976818E-16
5.130000E+03	1.215434E-14	2.960115E-16
5.140000E+03	1.205316E-14	2.938397E-16
5.150000E+03	1.193300E-14	2.911964E-16
5.160000E+03	1.179513E-14	2.881117E-16
5.170000E+03	1.164128E-14	2.846262E-16
5.180000E+03	1.147341E-14	2.807875E-16
5.190000E+03	1.129368E-14	2.766471E-16
5.200000E+03	1.110460E-14	2.722666E-16
5.210000E+03	1.090884E-14	2.677110E-16
5.220000E+03	1.070958E-14	2.630577E-16
5.230000E+03	1.050942E-14	2.583713E-16
5.240000E+03	1.031160E-14	2.537313E-16
5.250000E+03	1.011902E-14	2.492096E-16
5.260000E+03	9.934209E-15	2.448691E-16
5.270000E+03	9.758925E-15	2.407541E-16
5.280000E+03	9.594765E-15	2.369047E-16
5.290000E+03	9.442595E-15	2.333433E-16
5.300000E+03	9.302706E-15	2.300781E-16
5.310000E+03	9.174920E-15	2.271055E-16
5.320000E+03	9.059029E-15	2.244215E-16
5.330000E+03	8.954305E-15	2.220089E-16
5.340000E+03	8.860200E-15	2.198550E-16
5.350000E+03	8.776166E-15	2.179470E-16
5.360000E+03	8.701907E-15	2.162785E-16
5.370000E+03	8.636942E-15	2.148381E-16
5.380000E+03	8.581347E-15	2.136286E-16
5.390000E+03	8.535268E-15	2.126543E-16
5.400000E+03	8.498996E-15	2.119234E-16
5.410000E+03	8.472702E-15	2.114408E-16
5.420000E+03	8.456660E-15	2.112142E-16
5.430000E+03	8.451134E-15	2.112508E-16
5.440000E+03	8.456004E-15	2.115482E-16
5.450000E+03	8.471252E-15	2.121067E-16
5.460000E+03	8.496481E-15	2.129167E-16
5.470000E+03	8.531225E-15	2.139669E-16
5.480000E+03	8.574921E-15	2.152436E-16
5.490000E+03	8.626359E-15	2.167169E-16
5.500000E+03	8.684383E-15	2.183580E-16
5.510000E+03	8.747155E-15	2.201209E-16
5.520000E+03	8.812875E-15	2.219604E-16
5.530000E+03	8.879200E-15	2.238174E-16
5.540000E+03	8.943985E-15	2.256378E-16
5.550000E+03	9.004919E-15	2.273629E-16
5.560000E+03	9.060049E-15	2.289429E-16
5.570000E+03	9.107217E-15	2.303228E-16
5.580000E+03	9.144624E-15	2.314563E-16
5.590000E+03	9.170637E-15	2.323015E-16
5.600000E+03	9.184263E-15	2.328322E-16
5.610000E+03	9.184597E-15	2.330248E-16
5.620000E+03	9.171321E-15	2.328701E-16
5.630000E+03	9.144593E-15	2.323713E-16
5.640000E+03	9.104965E-15	2.315417E-16
5.650000E+03	9.053581E-15	2.304094E-16
5.660000E+03	8.991874E-15	2.290104E-16
5.670000E+03	8.921916E-15	2.273967E-16
5.680000E+03	8.846173E-15	2.256309E-16
5.690000E+03	8.767357E-15	2.237818E-16
5.700000E+03	8.688374E-15	2.219236E-16
5.710000E+03	8.612258E-15	2.201337E-16
5.720000E+03	8.542426E-15	2.184999E-16
5.730000E+03	8.481767E-15	2.170964E-16
5.740000E+03	8.433129E-15	2.159967E-16
5.750000E+03	8.398569E-15	2.152542E-16
5.760000E+03	8.379478E-15	2.149054E-16
5.770000E+03	8.376763E-15	2.149742E-16
5.780000E+03	8.390388E-15	2.154608E-16
5.790000E+03	8.419442E-15	2.163424E-16
5.800000E+03	8.462415E-15	2.175811E-16
5.810000E+03	8.517042E-15	2.191193E-16
5.820000E+03	8.580043E-15	2.208731E-16
5.830000E+03	8.647846E-15	2.227510E-16
5.840000E+03	8.716115E-15	2.246414E-16
5.850000E+03	8.780131E-15	2.264229E-16
5.860000E+03	8.835073E-15	2.279708E-16
5.870000E+03	8.875696E-15	2.291495E-16
5.880000E+03	8.897295E-15	2.298369E-16
5.890000E+03	8.895252E-15	2.299129E-16
5.900000E+03	8.865680E-15	2.292762E-16
5.910000E+03	8.805482E-15	2.278455E-16
5.920000E+03	8.712555E-15	2.255653E-16
5.930000E+03	8.586175E-15	2.224157E-16
5.940000E+03	8.426568E-15	2.184011E-16
5.950000E+03	8.235468E-15	2.135654E-16
5.960000E+03	8.016131E-15	2.079918E-16
5.970000E+03	7.772770E-15	2.017887E-16
5.980000E+03	7.510331E-15	1.950837E-16
5.990000E+03	7.235144E-15	1.880405E-16
6.000000E+03	6.953359E-15	1.808186E-16
6.010000E+03	6.671623E-15	1.735908E-16
6.020000E+03	6.396286E-15	1.665224E-16
6.030000E+03	6.133363E-15	1.597704E-16
6.040000E+03	5.888099E-15	1.534721E-16
6.050000E+03	5.664836E-15	1.477415E-16
6.060000E+03	5.467092E-15	1.426715E-16
6.070000E+03	5.297378E-15	1.383288E-16
6.080000E+03	5.157706E-15	1.347673E-16
6.090000E+03	5.049163E-15	1.320171E-16
6.100000E+03	4.972580E-15	1.301015E-16
6.110000E+03	4.927835E-15	1.290189E-16
6.120000E+03	4.914485E-15	1.287596E-16
6.130000E+03	4.931905E-15	1.293091E-16
6.140000E+03	4.979079E-15	1.306427E-16
6.150000E+03	5.054606E-15	1.327256E-16
6.160000E+03	5.156867E-15	1.355172E-16
6.170000E+03	5.283925E-15	1.389686E-16
6.180000E+03	5.433165E-15	1.430130E-16
6.190000E+03	5.601704E-15	1.475764E-16
6.200000E+03	5.786081E-15	1.525695E-16
6.210000E+03	5.982371E-15	1.578903E-16
6.220000E+03	6.186135E-15	1.634227E-16
6.230000E+03	6.392774E-15	1.690462E-16
6.240000E+03	6.597733E-15	1.746408E-16
6.250000E+03	6.796535E-15	1.800882E-16
6.260000E+03	6.985492E-15	1.852904E-16
6.270000E+03	7.161453E-15	1.901633E-16
6.280000E+03	7.322038E-15	1.946428E-16
6.290000E+03	7.465602E-15	1.986841E-16
6.300000E+03	7.591157E-15	2.022595E-16
6.310000E+03	7.698364E-15	2.053586E-16
6.320000E+03	7.787408E-15	2.079848E-16
6.330000E+03	7.858567E-15	2.101438E-16
6.340000E+03	7.912527E-15	2.118524E-16
6.350000E+03	7.950170E-15	2.131325E-16
6.360000E+03	7.972195E-15	2.140013E-16
6.370000E+03	7.979628E-15	2.144847E-16
6.380000E+03	7.973316E-15	2.146038E-16
6.390000E+03	7.954135E-15	2.143809E-16
6.400000E+03	7.923030E-15	2.138398E-16
6.410000E+03	7.881323E-15	2.130146E-16
6.420000E+03	7.830116E-15	2.119336E-16
6.430000E+03	7.771003E-15	2.106385E-16
6.440000E+03	7.705587E-15	2.091716E-16
6.450000E+03	7.635551E-15	2.075774E-16
6.460000E+03	7.562720E-15	2.059047E-16
6.470000E+03	7.488872E-15	2.042014E-16
6.480000E+03	7.415814E-15	2.025162E-16
6.490000E+03	7.344866E-15	2.008851E-16
6.500000E+03	7.277657E-15	1.993526E-16
6.510000E+03	7.215330E-15	1.979502E-16
6.520000E+03	7.158600E-15	1.966980E-16
6.530000E+03	7.108071E-15	1.956130E-16
6.540000E+03	7.063758E-15	1.946961E-16
6.550000E+03	7.025208E-15	1.939355E-16
6.560000E+03	6.991689E-15	1.933113E-16
6.570000E+03	6.962311E-15	1.927994E-16
6.580000E+03	6.935790E-15	1.923646E-16
6.590000E+03	6.910991E-15	1.919753E-16
6.600000E+03	6.886846E-15	1.916020E-16
6.610000E+03	6.862203E-15	1.912125E-16
6.620000E+03	6.836079E-15	1.907791E-16
6.630000E+03	6.807816E-15	1.902830E-16
6.640000E+03	6.776599E-15	1.897011E-16
6.650000E+03	6.742147E-15	1.890248E-16
6.660000E+03	6.703835E-15	1.882362E-16
6.670000E+03	6.661377E-15	1.873265E-16
6.680000E+03	6.614727E-15	1.862938E-16
6.690000E+03	6.563864E-15	1.851369E-16
6.700000E+03	6.508801E-15	1.838554E-16
6.710000E+03	6.449821E-15	1.824570E-16
6.720000E+03	6.387452E-15	1.809558E-16
6.730000E+03	6.322096E-15	1.793629E-16
6.740000E+03	6.254501E-15	1.776992E-16
6.750000E+03	6.185118E-15	1.759770E-16
6.760000E+03	6.114843E-15	1.742218E-16
6.770000E+03	6.044109E-15	1.724458E-16
6.780000E+03	5.973744E-15	1.706726E-16
6.790000E+03	5.904081E-15	1.689117E-16
6.800000E+03	5.835748E-15	1.671813E-16
6.810000E+03	5.769226E-15	1.654954E-16
6.820000E+03	5.704908E-15	1.638654E-16
6.830000E+03	5.643524E-15	1.623126E-16
6.840000E+03	5.585598E-15	1.608525E-16
6.850000E+03	5.531828E-15	1.595057E-16
6.860000E+03	5.482571E-15	1.582830E-16
6.870000E+03	5.438514E-15	1.572046E-16
6.880000E+03	5.399912E-15	1.562787E-16
6.890000E+03	5.366970E-15	1.555118E-16
6.900000E+03	5.339651E-15	1.549034E-16
6.910000E+03	5.318076E-15	1.544576E-16
6.920000E+03	5.301634E-15	1.541574E-16
6.930000E+03	5.290216E-15	1.540001E-16
6.940000E+03	5.283120E-15	1.539657E-16
6.950000E+03	5.279714E-15	1.540362E-16
6.960000E+03	5.279437E-15	1.541957E-16
6.970000E+03	5.281537E-15	1.544226E-16
6.980000E+03	5.285399E-15	1.546990E-16
6.990000E+03	5.290433E-15	1.550078E-16
7.000000E+03	5.296077E-15	1.553328E-16
7.010000E+03	5.301823E-15	1.556591E-16
7.020000E+03	5.307087E-15	1.559697E-16
7.030000E+03	5.311628E-15	1.562573E-16
7.040000E+03	5.314684E-15	1.564996E-16
7.050000E+03	5.316151E-15	1.566935E-16
7.060000E+03	5.315328E-15	1.568182E-16
7.070000E+03	5.312047E-15	1.568687E-16
7.080000E+03	5.305870E-15	1.568318E-16
7.090000E+03	5.296509E-15	1.566989E-16
7.100000E+03	5.283827E-15	1.564658E-16
7.110000E+03	5.267451E-15	1.561213E-16
7.120000E+03	5.247442E-15	1.556670E-16
7.130000E+03	5.223833E-15	1.551037E-16
7.140000E+03	5.196991E-15	1.544421E-16
7.150000E+03	5.167279E-15	1.536929E-16
7.160000E+03	5.135107E-15	1.528683E-16
7.170000E+03	5.101147E-15	1.519881E-16
7.180000E+03	5.065733E-15	1.510624E-16
7.190000E+03	5.029523E-15	1.501108E-16
7.200000E+03	4.992787E-15	1.491415E-16
7.210000E+03	4.955700E-15	1.481597E-16
7.220000E+03	4.918485E-15	1.471723E-16
7.230000E+03	4.881154E-15	1.461797E-16
7.240000E+03	4.843517E-15	1.451764E-16
7.250000E+03	4.805355E-15	1.441559E-16
7.260000E+03	4.766372E-15	1.431093E-16
7.270000E+03	4.726217E-15	1.420263E-16
7.280000E+03	4.684473E-15	1.408944E-16
7.290000E+03	4.640520E-15	1.396948E-16
7.300000E+03	4.594133E-15	1.384206E-16
7.310000E+03	4.544822E-15	1.370572E-16
7.320000E+03	4.492159E-15	1.355914E-16
7.330000E+03	4.435999E-15	1.340186E-16
7.340000E+03	4.376082E-15	1.323308E-16
7.350000E+03	4.312466E-15	1.305296E-16
7.360000E+03	4.245350E-15	1.286207E-16
7.370000E+03	4.175073E-15	1.266141E-16
7.380000E+03	4.102292E-15	1.245296E-16
7.390000E+03	4.027465E-15	1.223809E-16
7.400000E+03	3.951694E-15	1.202013E-16
7.410000E+03	3.875841E-15	1.180170E-16
7.420000E+03	3.801069E-15	1.158635E-16
7.430000E+03	3.728420E-15	1.137726E-16
7.440000E+03	3.658994E-15	1.117781E-16
7.450000E+03	3.593908E-15	1.099146E-16
7.460000E+03	3.534017E-15	1.082085E-16
7.470000E+03	3.480359E-15	1.066924E-16
7.480000E+03	3.433436E-15	1.053822E-16
7.490000E+03	3.393870E-15	1.042979E-16
7.500000E+03	3.361895E-15	1.034474E-16
7.510000E+03	3.337887E-15	1.028434E-16
7.520000E+03	3.321770E-15	1.024845E-16
7.530000E+03	3.313446E-15	1.023688E-16
7.540000E+03	3.312856E-15	1.024954E-16
7.550000E+03	3.319854E-15	1.028610E-16
7.560000E+03	3.334443E-15	1.034665E-16
7.570000E+03	3.356321E-15	1.043037E-16
7.580000E+03	3.385382E-15	1.053704E-16
7.590000E+03	3.421492E-15	1.066635E-16
7.600000E+03	3.464322E-15	1.081738E-16
7.610000E+03	3.513629E-15	1.098948E-16
7.620000E+03	3.568951E-15	1.118132E-16
7.630000E+03	3.629988E-15	1.139208E-16
7.640000E+03	3.695993E-15	1.161950E-16
7.650000E+03	3.766448E-15	1.186205E-16
7.660000E+03	3.840354E-15	1.211669E-16
7.670000E+03	3.916849E-15	1.238075E-16
7.680000E+03	3.994544E-15	1.264991E-16
7.690000E+03	4.072281E-15	1.292053E-16
7.700000E+03	4.148566E-15	1.318788E-16
7.710000E+03	4.221939E-15	1.344731E-16
7.720000E+03	4.290970E-15	1.369421E-16
7.730000E+03	4.354386E-15	1.392445E-16
7.740000E+03	4.411018E-15	1.413419E-16
7.750000E+03	4.459710E-15	1.431959E-16
7.760000E+03	4.499812E-15	1.447843E-16
