#wls	flux	fluxerr
1.600000E+03	2.546016E-15	7.348633E-17
1.640000E+03	2.444759E-15	6.954131E-17
1.680000E+03	2.336210E-15	6.547065E-17
1.720000E+03	2.221259E-15	6.130979E-17
1.760000E+03	2.099696E-15	5.706273E-17
1.800000E+03	1.971882E-15	5.274911E-17
1.840000E+03	1.838494E-15	4.839610E-17
1.880000E+03	1.700131E-15	4.402754E-17
1.920000E+03	1.557994E-15	3.968143E-17
1.960000E+03	1.413934E-15	3.540969E-17
2.000000E+03	1.270594E-15	3.128031E-17
2.040000E+03	1.132331E-15	2.739794E-17
2.080000E+03	1.004762E-15	2.388952E-17
2.120000E+03	8.946877E-16	2.090005E-17
2.160000E+03	8.085863E-16	1.855580E-17
2.200000E+03	7.521196E-16	1.695428E-17
2.240000E+03	7.303954E-16	1.617222E-17
2.280000E+03	7.491527E-16	1.629299E-17
2.320000E+03	8.142916E-16	1.739607E-17
2.360000E+03	9.342937E-16	1.960836E-17
2.400000E+03	1.122588E-15	2.314919E-17
2.440000E+03	1.397935E-15	2.833004E-17
2.480000E+03	1.783182E-15	3.552238E-17
2.520000E+03	2.301294E-15	4.507522E-17
2.560000E+03	2.970095E-15	5.721468E-17
2.600000E+03	3.795990E-15	7.193490E-17
2.640000E+03	4.771535E-15	8.897125E-17
2.680000E+03	5.864782E-15	1.076251E-16
2.720000E+03	7.021134E-15	1.268312E-16
2.760000E+03	8.180319E-15	1.454881E-16
2.800000E+03	9.287528E-15	1.626566E-16
2.840000E+03	1.030063E-14	1.776732E-16
2.880000E+03	1.119282E-14	1.901750E-16
2.920000E+03	1.195454E-14	2.001107E-16
2.960000E+03	1.259198E-14	2.076940E-16
3.000000E+03	1.312428E-14	2.133379E-16
3.010000E+03	1.324401E-14	2.145059E-16
3.020000E+03	1.335944E-14	2.155956E-16
3.030000E+03	1.347106E-14	2.166158E-16
3.040000E+03	1.357966E-14	2.175800E-16
3.050000E+03	1.368547E-14	2.184925E-16
3.060000E+03	1.378902E-14	2.193624E-16
3.070000E+03	1.389145E-14	2.202082E-16
3.080000E+03	1.399271E-14	2.210296E-16
3.090000E+03	1.409398E-14	2.218453E-16
3.100000E+03	1.419550E-14	2.226594E-16
3.110000E+03	1.429788E-14	2.234811E-16
3.120000E+03	1.440227E-14	2.243282E-16
3.130000E+03	1.450867E-14	2.252004E-16
3.140000E+03	1.461798E-14	2.261110E-16
3.150000E+03	1.473078E-14	2.270687E-16
3.160000E+03	1.484795E-14	2.280863E-16
3.170000E+03	1.496981E-14	2.291680E-16
3.180000E+03	1.509725E-14	2.303264E-16
3.190000E+03	1.523087E-14	2.315700E-16
3.200000E+03	1.537099E-14	2.329024E-16
3.210000E+03	1.551851E-14	2.343364E-16
3.220000E+03	1.567430E-14	2.358838E-16
3.230000E+03	1.583844E-14	2.375444E-16
3.240000E+03	1.601209E-14	2.393344E-16
3.250000E+03	1.619532E-14	2.412535E-16
3.260000E+03	1.638955E-14	2.433212E-16
3.270000E+03	1.659462E-14	2.455334E-16
3.280000E+03	1.681140E-14	2.479014E-16
3.290000E+03	1.704080E-14	2.504371E-16
3.300000E+03	1.728321E-14	2.531440E-16
3.310000E+03	1.753952E-14	2.560335E-16
3.320000E+03	1.780987E-14	2.591055E-16
3.330000E+03	1.809519E-14	2.623715E-16
3.340000E+03	1.839619E-14	2.658397E-16
3.350000E+03	1.871359E-14	2.695184E-16
3.360000E+03	1.904816E-14	2.734162E-16
3.370000E+03	1.940048E-14	2.775391E-16
3.380000E+03	1.977146E-14	2.818977E-16
3.390000E+03	2.016219E-14	2.865051E-16
3.400000E+03	2.057403E-14	2.913774E-16
3.410000E+03	2.100828E-14	2.965307E-16
3.420000E+03	2.146696E-14	3.019900E-16
3.430000E+03	2.195246E-14	3.077859E-16
3.440000E+03	2.246729E-14	3.139498E-16
3.450000E+03	2.301451E-14	3.205205E-16
3.460000E+03	2.359712E-14	3.275355E-16
3.470000E+03	2.421674E-14	3.350123E-16
3.480000E+03	2.487329E-14	3.429453E-16
3.490000E+03	2.556022E-14	3.512396E-16
3.500000E+03	2.626695E-14	3.597467E-16
3.510000E+03	2.698082E-14	3.682915E-16
3.520000E+03	2.768687E-14	3.766698E-16
3.530000E+03	2.836960E-14	3.846729E-16
3.540000E+03	2.901229E-14	3.920779E-16
3.550000E+03	2.959761E-14	3.986566E-16
3.560000E+03	3.010781E-14	4.041782E-16
3.570000E+03	3.052504E-14	4.084139E-16
3.580000E+03	3.083141E-14	4.111370E-16
3.590000E+03	3.101061E-14	4.121454E-16
3.600000E+03	3.104750E-14	4.112553E-16
3.610000E+03	3.093081E-14	4.083361E-16
3.620000E+03	3.065278E-14	4.033061E-16
3.630000E+03	3.021314E-14	3.961826E-16
3.640000E+03	2.961747E-14	3.870596E-16
3.650000E+03	2.888086E-14	3.761542E-16
3.660000E+03	2.802612E-14	3.637806E-16
3.670000E+03	2.708398E-14	3.503520E-16
3.680000E+03	2.608990E-14	3.363368E-16
3.690000E+03	2.508297E-14	3.222438E-16
3.700000E+03	2.410176E-14	3.085685E-16
3.710000E+03	2.318298E-14	2.957760E-16
3.720000E+03	2.235903E-14	2.842694E-16
3.730000E+03	2.165830E-14	2.743961E-16
3.740000E+03	2.110391E-14	2.664313E-16
3.750000E+03	2.071607E-14	2.606099E-16
3.760000E+03	2.051192E-14	2.571242E-16
3.770000E+03	2.050709E-14	2.561448E-16
3.780000E+03	2.071593E-14	2.578236E-16
3.790000E+03	2.115239E-14	2.623046E-16
3.800000E+03	2.182869E-14	2.697081E-16
3.810000E+03	2.275563E-14	2.801342E-16
3.820000E+03	2.394021E-14	2.936348E-16
3.830000E+03	2.538364E-14	3.101894E-16
3.840000E+03	2.707876E-14	3.296755E-16
3.850000E+03	2.900723E-14	3.518361E-16
3.860000E+03	3.113812E-14	3.762651E-16
3.870000E+03	3.342519E-14	4.023782E-16
3.880000E+03	3.580727E-14	4.294199E-16
3.890000E+03	3.821169E-14	4.565090E-16
3.900000E+03	4.055857E-14	4.826917E-16
3.910000E+03	4.276894E-14	5.070396E-16
3.920000E+03	4.477169E-14	5.287317E-16
3.930000E+03	4.651219E-14	5.471543E-16
3.940000E+03	4.795449E-14	5.619226E-16
3.950000E+03	4.908561E-14	5.729265E-16
3.960000E+03	4.991248E-14	5.802901E-16
3.970000E+03	5.046084E-14	5.843539E-16
3.980000E+03	5.077151E-14	5.856279E-16
3.990000E+03	5.089293E-14	5.847019E-16
4.000000E+03	5.087781E-14	5.822060E-16
4.010000E+03	5.077672E-14	5.787361E-16
4.020000E+03	5.063480E-14	5.748172E-16
4.030000E+03	5.048780E-14	5.708599E-16
4.040000E+03	5.036048E-14	5.671449E-16
4.050000E+03	5.026635E-14	5.638217E-16
4.060000E+03	5.020750E-14	5.609105E-16
4.070000E+03	5.017469E-14	5.583046E-16
4.080000E+03	5.015316E-14	5.558381E-16
4.090000E+03	5.012143E-14	5.532737E-16
4.091414E+03	5.199190E-14	5.735977E-16
4.095502E+03	5.180800E-14	5.706386E-16
4.099590E+03	5.156183E-14	5.670040E-16
4.103677E+03	5.114248E-14	5.614796E-16
4.107765E+03	5.089253E-14	5.578295E-16
4.111853E+03	5.067869E-14	5.545861E-16
4.115940E+03	5.058405E-14	5.526557E-16
4.120028E+03	5.052298E-14	5.510975E-16
4.124116E+03	5.054606E-14	5.504608E-16
4.128203E+03	5.052193E-14	5.493134E-16
4.132291E+03	5.032502E-14	5.462941E-16
4.136379E+03	5.013883E-14	5.434012E-16
4.140467E+03	4.999414E-14	5.409670E-16
4.144554E+03	4.984905E-14	5.385373E-16
4.148642E+03	4.977376E-14	5.368687E-16
4.152730E+03	4.966176E-14	5.348110E-16
4.156817E+03	4.947769E-14	5.319862E-16
4.160905E+03	4.922481E-14	5.284325E-16
4.164993E+03	4.900473E-14	5.252427E-16
4.169080E+03	4.883864E-14	5.226423E-16
4.173168E+03	4.858657E-14	5.191327E-16
4.177256E+03	4.826204E-14	5.148626E-16
4.181343E+03	4.802764E-14	5.115677E-16
4.185431E+03	4.758911E-14	5.061135E-16
4.189519E+03	4.711066E-14	5.002543E-16
4.193606E+03	4.659708E-14	4.940428E-16
4.197694E+03	4.598191E-14	4.867768E-16
4.201782E+03	4.564946E-14	4.825233E-16
4.205869E+03	4.534040E-14	4.785323E-16
4.209957E+03	4.504691E-14	4.747195E-16
4.214045E+03	4.472367E-14	4.706077E-16
4.218132E+03	4.454549E-14	4.680351E-16
4.222220E+03	4.432265E-14	4.650042E-16
4.226308E+03	4.408641E-14	4.618447E-16
4.230395E+03	4.374887E-14	4.576380E-16
4.234483E+03	4.339192E-14	4.532437E-16
4.238571E+03	4.324095E-14	4.510137E-16
4.242658E+03	4.288787E-14	4.466886E-16
4.246746E+03	4.245031E-14	4.415004E-16
4.250834E+03	4.209748E-14	4.372104E-16
4.254922E+03	4.136677E-14	4.290170E-16
4.259009E+03	4.047738E-14	4.192070E-16
4.263097E+03	3.940034E-14	4.074870E-16
4.267185E+03	3.827368E-14	3.952906E-16
4.271272E+03	3.717245E-14	3.833937E-16
4.275360E+03	3.602024E-14	3.710076E-16
4.279448E+03	3.484192E-14	3.583897E-16
4.283535E+03	3.379539E-14	3.471633E-16
4.287623E+03	3.272804E-14	3.357564E-16
4.291711E+03	3.156850E-14	3.234384E-16
4.295798E+03	3.036082E-14	3.106634E-16
4.299886E+03	2.914506E-14	2.978422E-16
4.303974E+03	2.827151E-14	2.885496E-16
4.308061E+03	2.750187E-14	2.803434E-16
4.312149E+03	2.701258E-14	2.750150E-16
4.316237E+03	2.666222E-14	2.711160E-16
4.320324E+03	2.641455E-14	2.682729E-16
4.324412E+03	2.618154E-14	2.655888E-16
4.328500E+03	2.602259E-14	2.636651E-16
4.332587E+03	2.610872E-14	2.642300E-16
4.336675E+03	2.643233E-14	2.671977E-16
4.340763E+03	2.686281E-14	2.712415E-16
4.344850E+03	2.748098E-14	2.771730E-16
4.348938E+03	2.813693E-14	2.834757E-16
4.353026E+03	2.878886E-14	2.897279E-16
4.357114E+03	2.958347E-14	2.974049E-16
4.361201E+03	3.050442E-14	3.063381E-16
4.365289E+03	3.148408E-14	3.158454E-16
4.369377E+03	3.227273E-14	3.234227E-16
4.373464E+03	3.313072E-14	3.316827E-16
4.377552E+03	3.405328E-14	3.405758E-16
4.381640E+03	3.471414E-14	3.468405E-16
4.385727E+03	3.544881E-14	3.538337E-16
4.389815E+03	3.613858E-14	3.603695E-16
4.393903E+03	3.670274E-14	3.656456E-16
4.397990E+03	3.713649E-14	3.696179E-16
4.402078E+03	3.732379E-14	3.711359E-16
4.406166E+03	3.752653E-14	3.728086E-16
4.410253E+03	3.773499E-14	3.745389E-16
4.414341E+03	3.776908E-14	3.745407E-16
4.418429E+03	3.773198E-14	3.738409E-16
4.422516E+03	3.768037E-14	3.730023E-16
4.426604E+03	3.782847E-14	3.741440E-16
4.430692E+03	3.812815E-14	3.767851E-16
4.434779E+03	3.856401E-14	3.807697E-16
4.438867E+03	3.891698E-14	3.839332E-16
4.442955E+03	3.923457E-14	3.867459E-16
4.447042E+03	3.981358E-14	3.921321E-16
4.451130E+03	4.005224E-14	3.941631E-16
4.455218E+03	4.041817E-14	3.974453E-16
4.459306E+03	4.072678E-14	4.001621E-16
4.463393E+03	4.126166E-14	4.050991E-16
4.467481E+03	4.198526E-14	4.118825E-16
4.471569E+03	4.263096E-14	4.178946E-16
4.475656E+03	4.336164E-14	4.247327E-16
4.479744E+03	4.410772E-14	4.317137E-16
4.483832E+03	4.474040E-14	4.375777E-16
4.487919E+03	4.541476E-14	4.438428E-16
4.492007E+03	4.619868E-14	4.511710E-16
4.496095E+03	4.678041E-14	4.565177E-16
4.500182E+03	4.729812E-14	4.612347E-16
4.504270E+03	4.764747E-14	4.643063E-16
4.508358E+03	4.786453E-14	4.660874E-16
4.512445E+03	4.798946E-14	4.669716E-16
4.516533E+03	4.790062E-14	4.657776E-16
4.520621E+03	4.776250E-14	4.641083E-16
4.524708E+03	4.754819E-14	4.617031E-16
4.528796E+03	4.711581E-14	4.571868E-16
4.532884E+03	4.667268E-14	4.525738E-16
4.536971E+03	4.623171E-14	4.479893E-16
4.541059E+03	4.577583E-14	4.432680E-16
4.545147E+03	4.523985E-14	4.377789E-16
4.549235E+03	4.464829E-14	4.317607E-16
4.553322E+03	4.418686E-14	4.270091E-16
4.557410E+03	4.367763E-14	4.218029E-16
4.561498E+03	4.325203E-14	4.174114E-16
4.565585E+03	4.293077E-14	4.140326E-16
4.569673E+03	4.275057E-14	4.120182E-16
4.573761E+03	4.256623E-14	4.099667E-16
4.577848E+03	4.247371E-14	4.088021E-16
4.581936E+03	4.247952E-14	4.085848E-16
4.586024E+03	4.249804E-14	4.084898E-16
4.590111E+03	4.258283E-14	4.090316E-16
4.594199E+03	4.266682E-14	4.095647E-16
4.598287E+03	4.282632E-14	4.108211E-16
4.602374E+03	4.295429E-14	4.117733E-16
4.606462E+03	4.311795E-14	4.130656E-16
4.610550E+03	4.318599E-14	4.134401E-16
4.614637E+03	4.345931E-14	4.157775E-16
4.618725E+03	4.354139E-14	4.162825E-16
4.622813E+03	4.350260E-14	4.156313E-16
4.626900E+03	4.341010E-14	4.144672E-16
4.630988E+03	4.310350E-14	4.112609E-16
4.635076E+03	4.268572E-14	4.069978E-16
4.639164E+03	4.216011E-14	4.017120E-16
4.643251E+03	4.148244E-14	3.949844E-16
4.647339E+03	4.066513E-14	3.869359E-16
4.651427E+03	3.991629E-14	3.795482E-16
4.655514E+03	3.906585E-14	3.712041E-16
4.659602E+03	3.828043E-14	3.634876E-16
4.663690E+03	3.747954E-14	3.556336E-16
4.667777E+03	3.665522E-14	3.475671E-16
4.671865E+03	3.592975E-14	3.404469E-16
4.675953E+03	3.526912E-14	3.339494E-16
4.680040E+03	3.482939E-14	3.295497E-16
4.684128E+03	3.453792E-14	3.265564E-16
4.688216E+03	3.432462E-14	3.243044E-16
4.692303E+03	3.411263E-14	3.220664E-16
4.696391E+03	3.398488E-14	3.206245E-16
4.700479E+03	3.385483E-14	3.191612E-16
4.704566E+03	3.384870E-14	3.188656E-16
4.708654E+03	3.394536E-14	3.195360E-16
4.712742E+03	3.393817E-14	3.192265E-16
4.716829E+03	3.398019E-14	3.193780E-16
4.720917E+03	3.392161E-14	3.185822E-16
4.725005E+03	3.377221E-14	3.169330E-16
4.729092E+03	3.369124E-14	3.159259E-16
4.733180E+03	3.363397E-14	3.151401E-16
4.737268E+03	3.347536E-14	3.134043E-16
4.741356E+03	3.321535E-14	3.107203E-16
4.745443E+03	3.294268E-14	3.079198E-16
4.749531E+03	3.268396E-14	3.052517E-16
4.753619E+03	3.239199E-14	3.022752E-16
4.757706E+03	3.216236E-14	2.998823E-16
4.761794E+03	3.193489E-14	2.975109E-16
4.765882E+03	3.162419E-14	2.943661E-16
4.769969E+03	3.130701E-14	2.911638E-16
4.774057E+03	3.107998E-14	2.888020E-16
4.778145E+03	3.077276E-14	2.856972E-16
4.782232E+03	3.051901E-14	2.830911E-16
4.786320E+03	3.030699E-14	2.808737E-16
4.790408E+03	3.001204E-14	2.778896E-16
4.794495E+03	2.976074E-14	2.753120E-16
4.798583E+03	2.949401E-14	2.725937E-16
4.802671E+03	2.935214E-14	2.710305E-16
4.806758E+03	2.927330E-14	2.700490E-16
4.810846E+03	2.921876E-14	2.692904E-16
4.814934E+03	2.898618E-14	2.668910E-16
4.819021E+03	2.872695E-14	2.642484E-16
4.823109E+03	2.843998E-14	2.613530E-16
4.827197E+03	2.804170E-14	2.574386E-16
4.831285E+03	2.763124E-14	2.534173E-16
4.835372E+03	2.711589E-14	2.484404E-16
4.839460E+03	2.648195E-14	2.423852E-16
4.843548E+03	2.584847E-14	2.363438E-16
4.847635E+03	2.514178E-14	2.296436E-16
4.851723E+03	2.437400E-14	2.223972E-16
4.855811E+03	2.359666E-14	2.150763E-16
4.859898E+03	2.281224E-14	2.077040E-16
4.863986E+03	2.209518E-14	2.009578E-16
4.868074E+03	2.144573E-14	1.948381E-16
4.872161E+03	2.083290E-14	1.890618E-16
4.876249E+03	2.029075E-14	1.839367E-16
4.880337E+03	1.982563E-14	1.795183E-16
4.884424E+03	1.951271E-14	1.764843E-16
4.888512E+03	1.935670E-14	1.748726E-16
4.892600E+03	1.930274E-14	1.741833E-16
4.896687E+03	1.940853E-14	1.749334E-16
4.900775E+03	1.969929E-14	1.773447E-16
4.904863E+03	2.001090E-14	1.799355E-16
4.908950E+03	2.038067E-14	1.830404E-16
4.913038E+03	2.084868E-14	1.870166E-16
4.917126E+03	2.138498E-14	1.915926E-16
4.921213E+03	2.200004E-14	1.968597E-16
4.925301E+03	2.262573E-14	2.022062E-16
4.929389E+03	2.325362E-14	2.075565E-16
4.933477E+03	2.381620E-14	2.123085E-16
4.937564E+03	2.432988E-14	2.166104E-16
4.941652E+03	2.488666E-14	2.212816E-16
4.945740E+03	2.534893E-14	2.250987E-16
4.949827E+03	2.574806E-14	2.283432E-16
4.953915E+03	2.609322E-14	2.310981E-16
4.958003E+03	2.635452E-14	2.331011E-16
4.962090E+03	2.662509E-14	2.351778E-16
4.966178E+03	2.682645E-14	2.366353E-16
4.970266E+03	2.697660E-14	2.376349E-16
4.974353E+03	2.703754E-14	2.378441E-16
4.978441E+03	2.707020E-14	2.378012E-16
4.982529E+03	2.705183E-14	2.373079E-16
4.986616E+03	2.697096E-14	2.362656E-16
4.990704E+03	2.688982E-14	2.352210E-16
4.994792E+03	2.679560E-14	2.340622E-16
4.998880E+03	2.670522E-14	2.329374E-16
5.002967E+03	2.659424E-14	2.316338E-16
5.007055E+03	2.647846E-14	2.302893E-16
5.011142E+03	2.642164E-14	2.294582E-16
5.015230E+03	2.637723E-14	2.287345E-16
5.019318E+03	2.631855E-14	2.278866E-16
5.023406E+03	2.626763E-14	2.271058E-16
5.027493E+03	2.623132E-14	2.264510E-16
5.031581E+03	2.619979E-14	2.258367E-16
5.035669E+03	2.620058E-14	2.255000E-16
5.039756E+03	2.625880E-14	2.256556E-16
5.043844E+03	2.628139E-14	2.255024E-16
5.047932E+03	2.629824E-14	2.252981E-16
5.052019E+03	2.638820E-14	2.257177E-16
5.056107E+03	2.653156E-14	2.265896E-16
5.060195E+03	2.668935E-14	2.275796E-16
5.064282E+03	2.686493E-14	2.287157E-16
5.068370E+03	2.707865E-14	2.301703E-16
5.072458E+03	2.731050E-14	2.317719E-16
5.076545E+03	2.756776E-14	2.335817E-16
5.080633E+03	2.782602E-14	2.353921E-16
5.084721E+03	2.809487E-14	2.372840E-16
5.088809E+03	2.840638E-14	2.395276E-16
5.092896E+03	2.874800E-14	2.420156E-16
5.096984E+03	2.906393E-14	2.442777E-16
5.101072E+03	2.931559E-14	2.459912E-16
5.105159E+03	2.958058E-14	2.478092E-16
5.109247E+03	2.980735E-14	2.492997E-16
5.113334E+03	3.004358E-14	2.508628E-16
5.117422E+03	3.025183E-14	2.521858E-16
5.121510E+03	3.039433E-14	2.529557E-16
5.125598E+03	3.047637E-14	2.532194E-16
5.129685E+03	3.046654E-14	2.527189E-16
5.133773E+03	3.042903E-14	2.519894E-16
5.137861E+03	3.039166E-14	2.512624E-16
5.141948E+03	3.025427E-14	2.497114E-16
5.146036E+03	3.001177E-14	2.472984E-16
5.150124E+03	2.979150E-14	2.450754E-16
5.154211E+03	2.959778E-14	2.430772E-16
5.158299E+03	2.948770E-14	2.417707E-16
5.162387E+03	2.930488E-14	2.398726E-16
5.166474E+03	2.910065E-14	2.378056E-16
5.170562E+03	2.891070E-14	2.358615E-16
5.174650E+03	2.875468E-14	2.342001E-16
5.178737E+03	2.861878E-14	2.327078E-16
5.182825E+03	2.850347E-14	2.313875E-16
5.186913E+03	2.838086E-14	2.300127E-16
5.191001E+03	2.824664E-14	2.285486E-16
5.195088E+03	2.816387E-14	2.275055E-16
5.199176E+03	2.808623E-14	2.265077E-16
5.203264E+03	2.802832E-14	2.256726E-16
5.207351E+03	2.799115E-14	2.250078E-16
5.211439E+03	2.790544E-14	2.239564E-16
5.215527E+03	2.777572E-14	2.225568E-16
5.219614E+03	2.765337E-14	2.212219E-16
5.223702E+03	2.745977E-14	2.193234E-16
5.227790E+03	2.725809E-14	2.173678E-16
5.231877E+03	2.702368E-14	2.151595E-16
5.235965E+03	2.674219E-14	2.125854E-16
5.240053E+03	2.634958E-14	2.091391E-16
5.244140E+03	2.588691E-14	2.051502E-16
5.248228E+03	2.542815E-14	2.012064E-16
5.252316E+03	2.493011E-14	1.969663E-16
5.256403E+03	2.434980E-14	1.920922E-16
5.260491E+03	2.375136E-14	1.870921E-16
5.264579E+03	2.311628E-14	1.818209E-16
5.268666E+03	2.248023E-14	1.765600E-16
5.272754E+03	2.186336E-14	1.714672E-16
5.276842E+03	2.127563E-14	1.666196E-16
5.280930E+03	2.069948E-14	1.618790E-16
5.285017E+03	2.015915E-14	1.574340E-16
5.289105E+03	1.970505E-14	1.536764E-16
5.293193E+03	1.928740E-14	1.502156E-16
5.297280E+03	1.890185E-14	1.470166E-16
5.301368E+03	1.859863E-14	1.444683E-16
5.305456E+03	1.838004E-14	1.425861E-16
5.309543E+03	1.824575E-14	1.413647E-16
5.313631E+03	1.820116E-14	1.408436E-16
5.317719E+03	1.816867E-14	1.404204E-16
5.321806E+03	1.817533E-14	1.403038E-16
5.325894E+03	1.821736E-14	1.404634E-16
5.329982E+03	1.829565E-14	1.409054E-16
5.334069E+03	1.842769E-14	1.417635E-16
5.338157E+03	1.854173E-14	1.424851E-16
5.342245E+03	1.862437E-14	1.429680E-16
5.346332E+03	1.882003E-14	1.443205E-16
5.350420E+03	1.901409E-14	1.456622E-16
5.354508E+03	1.923237E-14	1.471909E-16
5.358595E+03	1.943922E-14	1.486338E-16
5.362683E+03	1.958994E-14	1.496498E-16
5.366771E+03	1.974690E-14	1.507164E-16
5.370858E+03	1.983928E-14	1.512937E-16
5.374946E+03	1.988015E-14	1.514825E-16
5.379034E+03	1.997051E-14	1.520530E-16
5.383122E+03	2.002429E-14	1.523498E-16
5.387209E+03	2.007382E-14	1.526192E-16
5.391297E+03	2.013692E-14	1.529971E-16
5.395385E+03	2.014537E-14	1.529651E-16
5.399472E+03	2.013240E-14	1.527765E-16
5.403560E+03	2.010265E-14	1.524668E-16
5.407648E+03	2.001971E-14	1.517602E-16
5.411735E+03	1.988583E-14	1.506744E-16
5.415823E+03	1.971837E-14	1.493414E-16
5.419911E+03	1.952305E-14	1.478047E-16
5.423998E+03	1.930200E-14	1.460806E-16
5.428086E+03	1.904126E-14	1.440635E-16
5.432174E+03	1.872492E-14	1.416332E-16
5.436261E+03	1.838988E-14	1.390685E-16
5.440349E+03	1.803872E-14	1.363888E-16
5.444437E+03	1.768255E-14	1.336777E-16
5.448524E+03	1.727538E-14	1.305873E-16
5.452612E+03	1.686288E-14	1.274622E-16
5.456700E+03	1.649550E-14	1.246834E-16
5.460787E+03	1.617453E-14	1.222604E-16
5.464875E+03	1.588537E-14	1.200824E-16
5.468963E+03	1.561051E-14	1.180166E-16
5.473051E+03	1.540250E-14	1.164602E-16
5.477138E+03	1.521745E-14	1.150813E-16
5.481226E+03	1.510578E-14	1.142611E-16
5.485314E+03	1.505686E-14	1.139193E-16
5.489401E+03	1.504326E-14	1.138486E-16
5.493489E+03	1.507028E-14	1.140894E-16
5.497577E+03	1.520632E-14	1.151597E-16
5.501664E+03	1.541059E-14	1.167516E-16
5.505752E+03	1.566715E-14	1.187448E-16
5.509840E+03	1.598957E-14	1.212430E-16
5.513927E+03	1.634377E-14	1.239883E-16
5.518015E+03	1.675465E-14	1.271702E-16
5.522103E+03	1.719706E-14	1.305988E-16
5.526190E+03	1.765721E-14	1.341698E-16
5.530278E+03	1.816291E-14	1.380950E-16
5.534366E+03	1.863447E-14	1.417691E-16
5.538453E+03	1.910760E-14	1.454637E-16
5.542541E+03	1.959644E-14	1.492868E-16
5.546629E+03	2.002944E-14	1.526932E-16
5.550716E+03	2.044663E-14	1.559878E-16
5.554804E+03	2.082964E-14	1.590300E-16
5.558892E+03	2.109178E-14	1.611571E-16
5.562979E+03	2.132208E-14	1.630478E-16
5.567067E+03	2.151048E-14	1.646245E-16
5.571155E+03	2.170400E-14	1.662466E-16
5.575243E+03	2.189779E-14	1.678770E-16
5.579330E+03	2.205038E-14	1.691974E-16
5.583418E+03	2.216670E-14	1.702451E-16
5.587506E+03	2.225217E-14	1.710606E-16
