#wls	flux	fluxerr
1.600000E+03	2.562980E-15	7.507904E-17
1.640000E+03	2.453925E-15	7.075809E-17
1.680000E+03	2.337146E-15	6.631333E-17
1.720000E+03	2.213194E-15	6.177251E-17
1.760000E+03	2.082094E-15	5.714779E-17
1.800000E+03	1.944698E-15	5.247358E-17
1.840000E+03	1.801737E-15	4.777919E-17
1.880000E+03	1.654637E-15	4.311057E-17
1.920000E+03	1.505147E-15	3.851894E-17
1.960000E+03	1.355714E-15	3.406956E-17
2.000000E+03	1.209546E-15	2.984153E-17
2.040000E+03	1.071291E-15	2.594263E-17
2.080000E+03	9.468470E-16	2.250165E-17
2.120000E+03	8.422063E-16	1.963882E-17
2.160000E+03	7.617601E-16	1.742720E-17
2.200000E+03	7.094743E-16	1.592310E-17
2.240000E+03	6.894637E-16	1.518006E-17
2.280000E+03	7.066119E-16	1.526253E-17
2.320000E+03	7.660808E-16	1.623462E-17
2.360000E+03	8.753677E-16	1.820311E-17
2.400000E+03	1.046245E-15	2.135355E-17
2.440000E+03	1.294996E-15	2.594769E-17
2.480000E+03	1.641464E-15	3.229859E-17
2.520000E+03	2.105938E-15	4.070614E-17
2.560000E+03	2.704665E-15	5.137210E-17
2.600000E+03	3.446528E-15	6.434678E-17
2.640000E+03	4.330566E-15	7.949618E-17
2.680000E+03	5.333782E-15	9.629692E-17
2.720000E+03	6.408298E-15	1.138172E-16
2.760000E+03	7.498634E-15	1.310517E-16
2.800000E+03	8.550188E-15	1.470730E-16
2.840000E+03	9.517840E-15	1.611723E-16
2.880000E+03	1.037066E-14	1.729212E-16
2.920000E+03	1.109435E-14	1.821915E-16
2.960000E+03	1.169104E-14	1.891293E-16
3.000000E+03	1.217689E-14	1.940973E-16
3.010000E+03	1.228382E-14	1.950863E-16
3.020000E+03	1.238604E-14	1.959939E-16
3.030000E+03	1.248370E-14	1.968235E-16
3.040000E+03	1.257785E-14	1.975924E-16
3.050000E+03	1.266869E-14	1.983046E-16
3.060000E+03	1.275674E-14	1.989688E-16
3.070000E+03	1.284251E-14	1.995935E-16
3.080000E+03	1.292707E-14	2.001961E-16
3.090000E+03	1.301044E-14	2.007768E-16
3.100000E+03	1.309370E-14	2.013529E-16
3.110000E+03	1.317714E-14	2.019288E-16
3.120000E+03	1.326159E-14	2.025171E-16
3.130000E+03	1.334762E-14	2.031263E-16
3.140000E+03	1.343582E-14	2.037648E-16
3.150000E+03	1.352676E-14	2.044411E-16
3.160000E+03	1.362127E-14	2.051673E-16
3.170000E+03	1.371972E-14	2.059480E-16
3.180000E+03	1.382293E-14	2.067951E-16
3.190000E+03	1.393151E-14	2.077168E-16
3.200000E+03	1.404606E-14	2.087213E-16
3.210000E+03	1.416745E-14	2.098203E-16
3.220000E+03	1.429577E-14	2.110144E-16
3.230000E+03	1.443240E-14	2.123227E-16
3.240000E+03	1.457721E-14	2.137420E-16
3.250000E+03	1.473155E-14	2.152909E-16
3.260000E+03	1.489555E-14	2.169701E-16
3.270000E+03	1.507009E-14	2.187907E-16
3.280000E+03	1.525579E-14	2.207603E-16
3.290000E+03	1.545303E-14	2.228831E-16
3.300000E+03	1.566292E-14	2.251730E-16
3.310000E+03	1.588562E-14	2.276310E-16
3.320000E+03	1.612175E-14	2.302640E-16
3.330000E+03	1.637247E-14	2.330867E-16
3.340000E+03	1.663796E-14	2.360998E-16
3.350000E+03	1.691892E-14	2.393112E-16
3.360000E+03	1.721611E-14	2.427298E-16
3.370000E+03	1.753062E-14	2.463688E-16
3.380000E+03	1.786293E-14	2.502325E-16
3.390000E+03	1.821416E-14	2.543345E-16
3.400000E+03	1.858593E-14	2.586950E-16
3.410000E+03	1.897963E-14	2.633306E-16
3.420000E+03	1.939728E-14	2.682667E-16
3.430000E+03	1.984077E-14	2.735264E-16
3.440000E+03	2.031313E-14	2.791481E-16
3.450000E+03	2.081747E-14	2.851709E-16
3.460000E+03	2.135626E-14	2.916249E-16
3.470000E+03	2.193200E-14	2.985397E-16
3.480000E+03	2.254470E-14	3.059113E-16
3.490000E+03	2.318889E-14	3.136612E-16
3.500000E+03	2.385414E-14	3.216453E-16
3.510000E+03	2.452886E-14	3.297056E-16
3.520000E+03	2.519895E-14	3.376525E-16
3.530000E+03	2.584927E-14	3.452848E-16
3.540000E+03	2.646375E-14	3.523908E-16
3.550000E+03	2.702555E-14	3.587517E-16
3.560000E+03	2.751842E-14	3.641586E-16
3.570000E+03	2.792557E-14	3.683982E-16
3.580000E+03	2.823154E-14	3.712778E-16
3.590000E+03	2.842253E-14	3.726283E-16
3.600000E+03	2.848619E-14	3.723022E-16
3.610000E+03	2.841344E-14	3.701962E-16
3.620000E+03	2.819886E-14	3.662562E-16
3.630000E+03	2.784236E-14	3.604979E-16
3.640000E+03	2.735086E-14	3.530274E-16
3.650000E+03	2.673814E-14	3.440380E-16
3.660000E+03	2.602537E-14	3.338154E-16
3.670000E+03	2.523820E-14	3.226994E-16
3.680000E+03	2.440655E-14	3.110801E-16
3.690000E+03	2.356240E-14	2.993691E-16
3.700000E+03	2.273725E-14	2.879664E-16
3.710000E+03	2.196203E-14	2.772602E-16
3.720000E+03	2.126573E-14	2.676091E-16
3.730000E+03	2.067362E-14	2.593205E-16
3.740000E+03	2.020818E-14	2.526625E-16
3.750000E+03	1.988962E-14	2.478719E-16
3.760000E+03	1.973560E-14	2.451497E-16
3.770000E+03	1.976271E-14	2.446814E-16
3.780000E+03	1.998693E-14	2.466418E-16
3.790000E+03	2.042274E-14	2.511849E-16
3.800000E+03	2.108303E-14	2.584427E-16
3.810000E+03	2.197860E-14	2.685192E-16
3.820000E+03	2.311684E-14	2.814754E-16
3.830000E+03	2.449943E-14	2.973013E-16
3.840000E+03	2.611974E-14	3.158865E-16
3.850000E+03	2.796152E-14	3.370055E-16
3.860000E+03	2.999581E-14	3.602823E-16
3.870000E+03	3.217870E-14	3.851675E-16
3.880000E+03	3.445205E-14	4.109487E-16
3.890000E+03	3.674581E-14	4.367819E-16
3.900000E+03	3.898143E-14	4.617340E-16
3.910000E+03	4.108034E-14	4.848847E-16
3.920000E+03	4.297473E-14	5.054538E-16
3.930000E+03	4.461186E-14	5.228490E-16
3.940000E+03	4.595634E-14	5.366894E-16
3.950000E+03	4.699499E-14	5.468589E-16
3.960000E+03	4.773463E-14	5.534754E-16
3.970000E+03	4.819996E-14	5.568622E-16
3.980000E+03	4.843053E-14	5.575097E-16
3.990000E+03	4.847752E-14	5.560348E-16
4.000000E+03	4.839436E-14	5.530721E-16
4.010000E+03	4.823369E-14	5.492376E-16
4.020000E+03	4.804361E-14	5.450878E-16
4.030000E+03	4.786163E-14	5.410512E-16
4.040000E+03	4.771409E-14	5.374241E-16
4.050000E+03	4.761367E-14	5.343456E-16
4.060000E+03	4.756303E-14	5.318406E-16
4.070000E+03	4.755170E-14	5.297872E-16
4.080000E+03	4.756149E-14	5.279802E-16
4.085393E+03	6.515230E-14	7.218469E-16
4.089481E+03	6.324368E-14	6.996670E-16
4.093569E+03	6.162921E-14	6.808018E-16
4.097657E+03	5.989990E-14	6.607253E-16
4.101745E+03	5.812067E-14	6.401579E-16
4.105833E+03	5.660232E-14	6.225204E-16
4.109921E+03	5.507574E-14	6.048443E-16
4.114009E+03	5.355392E-14	5.872725E-16
4.118097E+03	5.227260E-14	5.723860E-16
4.122185E+03	5.129624E-14	5.608779E-16
4.126273E+03	5.030142E-14	5.492022E-16
4.130360E+03	4.946046E-14	5.392389E-16
4.134448E+03	4.878043E-14	5.310571E-16
4.138536E+03	4.814638E-14	5.233996E-16
4.142624E+03	4.801440E-14	5.212154E-16
4.146712E+03	4.804272E-14	5.207762E-16
4.150800E+03	4.814515E-14	5.211418E-16
4.154888E+03	4.822561E-14	5.212704E-16
4.158976E+03	4.846603E-14	5.231267E-16
4.163064E+03	4.892205E-14	5.273031E-16
4.167152E+03	4.932292E-14	5.308760E-16
4.171240E+03	4.950707E-14	5.321115E-16
4.175328E+03	4.958915E-14	5.322501E-16
4.179416E+03	4.935920E-14	5.290460E-16
4.183504E+03	4.887620E-14	5.231445E-16
4.187592E+03	4.787631E-14	5.117368E-16
4.191680E+03	4.712815E-14	5.030499E-16
4.195768E+03	4.673838E-14	4.982095E-16
4.199856E+03	4.652685E-14	4.952824E-16
4.203944E+03	4.594458E-14	4.884246E-16
4.208032E+03	4.563887E-14	4.845243E-16
4.212119E+03	4.529467E-14	4.802293E-16
4.216207E+03	4.535179E-14	4.801980E-16
4.220295E+03	4.520081E-14	4.779694E-16
4.224383E+03	4.496292E-14	4.748321E-16
4.228471E+03	4.470075E-14	4.714503E-16
4.232559E+03	4.448113E-14	4.685289E-16
4.236647E+03	4.396330E-14	4.624816E-16
4.240735E+03	4.355634E-14	4.576183E-16
4.244823E+03	4.292405E-14	4.504065E-16
4.248911E+03	4.236865E-14	4.440225E-16
4.252999E+03	4.187161E-14	4.382693E-16
4.257087E+03	4.073642E-14	4.258628E-16
4.261175E+03	3.971115E-14	4.146385E-16
4.265263E+03	3.846761E-14	4.011692E-16
4.269351E+03	3.736234E-14	3.891763E-16
4.273439E+03	3.618041E-14	3.764185E-16
4.277527E+03	3.480347E-14	3.616682E-16
4.281615E+03	3.358171E-14	3.485669E-16
4.285703E+03	3.257262E-14	3.377046E-16
4.289791E+03	3.169980E-14	3.282822E-16
4.293878E+03	3.063497E-14	3.168988E-16
4.297966E+03	2.979076E-14	3.078240E-16
4.302054E+03	2.908239E-14	3.001751E-16
4.306142E+03	2.830167E-14	2.918007E-16
4.310230E+03	2.774221E-14	2.857268E-16
4.314318E+03	2.744988E-14	2.824180E-16
4.318406E+03	2.725170E-14	2.800876E-16
4.322494E+03	2.687703E-14	2.759536E-16
4.326582E+03	2.677571E-14	2.746357E-16
4.330670E+03	2.678629E-14	2.744709E-16
4.334758E+03	2.700219E-14	2.764123E-16
4.338846E+03	2.744254E-14	2.806493E-16
4.342934E+03	2.789461E-14	2.850019E-16
4.347022E+03	2.827745E-14	2.886437E-16
4.351110E+03	2.894114E-14	2.951469E-16
4.355198E+03	2.984742E-14	3.041142E-16
4.359286E+03	3.061569E-14	3.116646E-16
4.363373E+03	3.137004E-14	3.190643E-16
4.367462E+03	3.218415E-14	3.270626E-16
4.371549E+03	3.293008E-14	3.343593E-16
4.375637E+03	3.349001E-14	3.397610E-16
4.379725E+03	3.403216E-14	3.449778E-16
4.383813E+03	3.453299E-14	3.497718E-16
4.387901E+03	3.503551E-14	3.545796E-16
4.391989E+03	3.531698E-14	3.571485E-16
4.396077E+03	3.579260E-14	3.616796E-16
4.400165E+03	3.590944E-14	3.625852E-16
4.404253E+03	3.615136E-14	3.647557E-16
4.408341E+03	3.643533E-14	3.673508E-16
4.412429E+03	3.665790E-14	3.693276E-16
4.416517E+03	3.676692E-14	3.701622E-16
4.420605E+03	3.687270E-14	3.709668E-16
4.424693E+03	3.721157E-14	3.741176E-16
4.428781E+03	3.765525E-14	3.783209E-16
4.432869E+03	3.789208E-14	3.804452E-16
4.436957E+03	3.830632E-14	3.843503E-16
4.441044E+03	3.852233E-14	3.862663E-16
4.445132E+03	3.893596E-14	3.901635E-16
4.449220E+03	3.945785E-14	3.951432E-16
4.453308E+03	3.988011E-14	3.991229E-16
4.457396E+03	4.033261E-14	4.034034E-16
4.461484E+03	4.057945E-14	4.056263E-16
4.465572E+03	4.100110E-14	4.095959E-16
4.469660E+03	4.147870E-14	4.141224E-16
4.473748E+03	4.185305E-14	4.176164E-16
4.477836E+03	4.235389E-14	4.223707E-16
4.481924E+03	4.279638E-14	4.265408E-16
4.486012E+03	4.325384E-14	4.308582E-16
4.490100E+03	4.375465E-14	4.356049E-16
4.494188E+03	4.424592E-14	4.402542E-16
4.498276E+03	4.463448E-14	4.438795E-16
4.502364E+03	4.498945E-14	4.471695E-16
4.506452E+03	4.535407E-14	4.505543E-16
4.510540E+03	4.575524E-14	4.543006E-16
4.514628E+03	4.598971E-14	4.563909E-16
4.518716E+03	4.611040E-14	4.573526E-16
4.522803E+03	4.618749E-14	4.578831E-16
4.526891E+03	4.613664E-14	4.571473E-16
4.530979E+03	4.607346E-14	4.562918E-16
4.535067E+03	4.585214E-14	4.538735E-16
4.539155E+03	4.577663E-14	4.529017E-16
4.543243E+03	4.554472E-14	4.503857E-16
4.547331E+03	4.549701E-14	4.496942E-16
4.551419E+03	4.529186E-14	4.474491E-16
4.555507E+03	4.497504E-14	4.441048E-16
4.559595E+03	4.481944E-14	4.423557E-16
4.563683E+03	4.468775E-14	4.408452E-16
4.567771E+03	4.439426E-14	4.377416E-16
4.571859E+03	4.417000E-14	4.353238E-16
4.575947E+03	4.388640E-14	4.323245E-16
4.580035E+03	4.367452E-14	4.300346E-16
4.584123E+03	4.346285E-14	4.277494E-16
4.588211E+03	4.332918E-14	4.262339E-16
4.592299E+03	4.329430E-14	4.256915E-16
4.596386E+03	4.312902E-14	4.238681E-16
4.600475E+03	4.320429E-14	4.244095E-16
4.604562E+03	4.322006E-14	4.243662E-16
4.608650E+03	4.305205E-14	4.225191E-16
4.612738E+03	4.289465E-14	4.207776E-16
4.616826E+03	4.268116E-14	4.184875E-16
4.620914E+03	4.258548E-14	4.173539E-16
4.625002E+03	4.233979E-14	4.147513E-16
4.629090E+03	4.192771E-14	4.105215E-16
4.633178E+03	4.161790E-14	4.072960E-16
4.637266E+03	4.113317E-14	4.023619E-16
4.641354E+03	4.058711E-14	3.968320E-16
4.645442E+03	4.001237E-14	3.910263E-16
4.649530E+03	3.947899E-14	3.856294E-16
4.653618E+03	3.880188E-14	3.788334E-16
4.657706E+03	3.809527E-14	3.717552E-16
4.661794E+03	3.738508E-14	3.646479E-16
4.665882E+03	3.668809E-14	3.576751E-16
4.669970E+03	3.596566E-14	3.504602E-16
4.674057E+03	3.527315E-14	3.435428E-16
4.678145E+03	3.474914E-14	3.382712E-16
4.682233E+03	3.428913E-14	3.336265E-16
4.686321E+03	3.385064E-14	3.291944E-16
4.690409E+03	3.348732E-14	3.254962E-16
4.694497E+03	3.320144E-14	3.225526E-16
4.698585E+03	3.299272E-14	3.203599E-16
4.702673E+03	3.295772E-14	3.198540E-16
4.706761E+03	3.298763E-14	3.199766E-16
4.710849E+03	3.285721E-14	3.185433E-16
4.714937E+03	3.276892E-14	3.175180E-16
4.719025E+03	3.264147E-14	3.161129E-16
4.723113E+03	3.254212E-14	3.149795E-16
4.727201E+03	3.244925E-14	3.139084E-16
4.731289E+03	3.224415E-14	3.117514E-16
4.735377E+03	3.207229E-14	3.099161E-16
4.739465E+03	3.186300E-14	3.077196E-16
4.743553E+03	3.167431E-14	3.057224E-16
4.747641E+03	3.143704E-14	3.032568E-16
4.751729E+03	3.120031E-14	3.007973E-16
4.755816E+03	3.098544E-14	2.985493E-16
4.759904E+03	3.082616E-14	2.968370E-16
4.763992E+03	3.057846E-14	2.942739E-16
4.768080E+03	3.033009E-14	2.917053E-16
4.772168E+03	2.997632E-14	2.881244E-16
4.776256E+03	2.977661E-14	2.860259E-16
4.780344E+03	2.963834E-14	2.845174E-16
4.784432E+03	2.950164E-14	2.830237E-16
4.788520E+03	2.936898E-14	2.815684E-16
4.792608E+03	2.926514E-14	2.803889E-16
4.796696E+03	2.920360E-14	2.796136E-16
4.800784E+03	2.909647E-14	2.784007E-16
4.804872E+03	2.894637E-14	2.767761E-16
4.808960E+03	2.873495E-14	2.745656E-16
4.813048E+03	2.851788E-14	2.723017E-16
4.817136E+03	2.832471E-14	2.702667E-16
4.821224E+03	2.807793E-14	2.677209E-16
4.825312E+03	2.776549E-14	2.645508E-16
4.829400E+03	2.738396E-14	2.607250E-16
4.833488E+03	2.684058E-14	2.553625E-16
4.837575E+03	2.623008E-14	2.493676E-16
4.841663E+03	2.558324E-14	2.430340E-16
4.845751E+03	2.484775E-14	2.358663E-16
4.849839E+03	2.413845E-14	2.289557E-16
4.853927E+03	2.347832E-14	2.225197E-16
4.858015E+03	2.280037E-14	2.159229E-16
4.862103E+03	2.202704E-14	2.084319E-16
4.866191E+03	2.132104E-14	2.015876E-16
4.870279E+03	2.070876E-14	1.956378E-16
4.874367E+03	2.019952E-14	1.906685E-16
4.878455E+03	1.975672E-14	1.863322E-16
4.882543E+03	1.935721E-14	1.824092E-16
4.886631E+03	1.914172E-14	1.802236E-16
4.890719E+03	1.909393E-14	1.796176E-16
4.894807E+03	1.916276E-14	1.801069E-16
4.898895E+03	1.939099E-14	1.820902E-16
4.902983E+03	1.961384E-14	1.840176E-16
4.907071E+03	2.000009E-14	1.874713E-16
4.911158E+03	2.047741E-14	1.917696E-16
4.915247E+03	2.101083E-14	1.965829E-16
4.919334E+03	2.159062E-14	2.018186E-16
4.923422E+03	2.214753E-14	2.068287E-16
4.927510E+03	2.267093E-14	2.115145E-16
4.931598E+03	2.324529E-14	2.166640E-16
4.935686E+03	2.368771E-14	2.205727E-16
4.939774E+03	2.404488E-14	2.236783E-16
4.943862E+03	2.442008E-14	2.269431E-16
4.947950E+03	2.472696E-14	2.295648E-16
4.952038E+03	2.497168E-14	2.316022E-16
4.956126E+03	2.513087E-14	2.328406E-16
4.960214E+03	2.519189E-14	2.331654E-16
4.964302E+03	2.525274E-14	2.334857E-16
4.968390E+03	2.529698E-14	2.336494E-16
4.972478E+03	2.533405E-14	2.337441E-16
4.976566E+03	2.525380E-14	2.327551E-16
4.980654E+03	2.514915E-14	2.315411E-16
4.984742E+03	2.512307E-14	2.310500E-16
4.988829E+03	2.504800E-14	2.301076E-16
4.992917E+03	2.493810E-14	2.288453E-16
4.997005E+03	2.483543E-14	2.276499E-16
5.001093E+03	2.477954E-14	2.268831E-16
5.005181E+03	2.477024E-14	2.265421E-16
5.009269E+03	2.480971E-14	2.266450E-16
5.013357E+03	2.477951E-14	2.261099E-16
5.017445E+03	2.481304E-14	2.261547E-16
5.021533E+03	2.490081E-14	2.266912E-16
5.025621E+03	2.498721E-14	2.272118E-16
5.029709E+03	2.495341E-14	2.266373E-16
5.033797E+03	2.500608E-14	2.268467E-16
5.037885E+03	2.503675E-14	2.268542E-16
5.041973E+03	2.512250E-14	2.273582E-16
5.046061E+03	2.530330E-14	2.287182E-16
5.050149E+03	2.547792E-14	2.300172E-16
5.054237E+03	2.560743E-14	2.309044E-16
5.058325E+03	2.570231E-14	2.314756E-16
5.062413E+03	2.589976E-14	2.329662E-16
5.066501E+03	2.611383E-14	2.346006E-16
5.070588E+03	2.633307E-14	2.362756E-16
5.074676E+03	2.662575E-14	2.386029E-16
5.078764E+03	2.685177E-14	2.403259E-16
5.082852E+03	2.712380E-14	2.424541E-16
5.086940E+03	2.743484E-14	2.449237E-16
5.091028E+03	2.767036E-14	2.467120E-16
5.095116E+03	2.796752E-14	2.490431E-16
5.099204E+03	2.821311E-14	2.509080E-16
5.103292E+03	2.847840E-14	2.529417E-16
5.107380E+03	2.871485E-14	2.547129E-16
5.111468E+03	2.895860E-14	2.565429E-16
5.115556E+03	2.921526E-14	2.584811E-16
5.119644E+03	2.943758E-14	2.601095E-16
5.123732E+03	2.961672E-14	2.613515E-16
5.127820E+03	2.973938E-14	2.620913E-16
5.131908E+03	2.973412E-14	2.617024E-16
5.135996E+03	2.972662E-14	2.612938E-16
5.140084E+03	2.970238E-14	2.607383E-16
5.144172E+03	2.959007E-14	2.594116E-16
5.148260E+03	2.941896E-14	2.575727E-16
5.152347E+03	2.920262E-14	2.553427E-16
5.156435E+03	2.894121E-14	2.527244E-16
5.160523E+03	2.872371E-14	2.504955E-16
5.164611E+03	2.853997E-14	2.485660E-16
5.168699E+03	2.831124E-14	2.462502E-16
5.172787E+03	2.808084E-14	2.439257E-16
5.176875E+03	2.790179E-14	2.420527E-16
5.180963E+03	2.779709E-14	2.408289E-16
5.185051E+03	2.771688E-14	2.398202E-16
5.189139E+03	2.765335E-14	2.389586E-16
5.193227E+03	2.760537E-14	2.382338E-16
5.197315E+03	2.759264E-14	2.378150E-16
5.201403E+03	2.758540E-14	2.374452E-16
5.205491E+03	2.756503E-14	2.369640E-16
5.209579E+03	2.753266E-14	2.363818E-16
5.213667E+03	2.752002E-14	2.359712E-16
5.217755E+03	2.750306E-14	2.355254E-16
5.221843E+03	2.740868E-14	2.344198E-16
5.225931E+03	2.725569E-14	2.328175E-16
5.230018E+03	2.709979E-14	2.311957E-16
5.234106E+03	2.684968E-14	2.287766E-16
5.238194E+03	2.657954E-14	2.261945E-16
5.242282E+03	2.620700E-14	2.227501E-16
5.246370E+03	2.579092E-14	2.189460E-16
5.250458E+03	2.528927E-14	2.144274E-16
5.254546E+03	2.473476E-14	2.094739E-16
5.258634E+03	2.419556E-14	2.046636E-16
5.262722E+03	2.362310E-14	1.995857E-16
5.266810E+03	2.298845E-14	1.939969E-16
5.270898E+03	2.235848E-14	1.884627E-16
5.274986E+03	2.173427E-14	1.829917E-16
5.279074E+03	2.113081E-14	1.777100E-16
5.283162E+03	2.056197E-14	1.727330E-16
5.287250E+03	2.001049E-14	1.679151E-16
5.291338E+03	1.955331E-14	1.639004E-16
5.295426E+03	1.913029E-14	1.601828E-16
5.299514E+03	1.873918E-14	1.567423E-16
5.303601E+03	1.846193E-14	1.542629E-16
5.307690E+03	1.821298E-14	1.520272E-16
5.311777E+03	1.808474E-14	1.508052E-16
5.315865E+03	1.805237E-14	1.503869E-16
5.319953E+03	1.806782E-14	1.503700E-16
5.324041E+03	1.811289E-14	1.506023E-16
5.328129E+03	1.822348E-14	1.513813E-16
5.332217E+03	1.838774E-14	1.526072E-16
5.336305E+03	1.854845E-14	1.538047E-16
5.340393E+03	1.873727E-14	1.552362E-16
5.344481E+03	1.888670E-14	1.563425E-16
5.348569E+03	1.903472E-14	1.574389E-16
5.352657E+03	1.922763E-14	1.589080E-16
5.356745E+03	1.947154E-14	1.607998E-16
5.360833E+03	1.964463E-14	1.621082E-16
5.364921E+03	1.977440E-14	1.630614E-16
5.369009E+03	1.985050E-14	1.635753E-16
5.373097E+03	1.988777E-14	1.637729E-16
5.377185E+03	1.999490E-14	1.645496E-16
5.381273E+03	2.009139E-14	1.652422E-16
5.385360E+03	2.016265E-14	1.657313E-16
5.389448E+03	2.022439E-14	1.661463E-16
5.393536E+03	2.027042E-14	1.664367E-16
5.397624E+03	2.026651E-14	1.663219E-16
5.401712E+03	2.023668E-14	1.659998E-16
5.405800E+03	2.022558E-14	1.658365E-16
5.409888E+03	2.019486E-14	1.655178E-16
5.413976E+03	2.009909E-14	1.646717E-16
5.418064E+03	1.994573E-14	1.633598E-16
5.422152E+03	1.975561E-14	1.617531E-16
5.426240E+03	1.956181E-14	1.601226E-16
5.430328E+03	1.931909E-14	1.580979E-16
5.434416E+03	1.902557E-14	1.556639E-16
5.438504E+03	1.871839E-14	1.531243E-16
5.442592E+03	1.837401E-14	1.502865E-16
5.446680E+03	1.799255E-14	1.471511E-16
5.450768E+03	1.761919E-14	1.440873E-16
5.454856E+03	1.726820E-14	1.412116E-16
5.458944E+03	1.688540E-14	1.380803E-16
5.463032E+03	1.648821E-14	1.348358E-16
5.467119E+03	1.614192E-14	1.320115E-16
5.471207E+03	1.584737E-14	1.296141E-16
5.475295E+03	1.561457E-14	1.277252E-16
5.479383E+03	1.542199E-14	1.261686E-16
5.483471E+03	1.527762E-14	1.250099E-16
5.487559E+03	1.519552E-14	1.243639E-16
5.491647E+03	1.518663E-14	1.243205E-16
5.495735E+03	1.523859E-14	1.247789E-16
5.499823E+03	1.533304E-14	1.255890E-16
5.503911E+03	1.545572E-14	1.266342E-16
5.507999E+03	1.571046E-14	1.287660E-16
5.512087E+03	1.606870E-14	1.317513E-16
5.516175E+03	1.647876E-14	1.351673E-16
5.520263E+03	1.693849E-14	1.389972E-16
5.524351E+03	1.741058E-14	1.429352E-16
5.528439E+03	1.785982E-14	1.466927E-16
5.532527E+03	1.832947E-14	1.506250E-16
5.536614E+03	1.884552E-14	1.549463E-16
5.540703E+03	1.935078E-14	1.591869E-16
5.544790E+03	1.987229E-14	1.635696E-16
5.548878E+03	2.041105E-14	1.681029E-16
5.552966E+03	2.091804E-14	1.723833E-16
5.557054E+03	2.133846E-14	1.759587E-16
5.561142E+03	2.170144E-14	1.790683E-16
5.565230E+03	2.197227E-14	1.814246E-16
5.569318E+03	2.221692E-14	1.835712E-16
5.573406E+03	2.247028E-14	1.857962E-16
5.577494E+03	2.266771E-14	1.875650E-16
5.581582E+03	2.281927E-14	1.889599E-16
5.585670E+03	2.293006E-14	1.900221E-16
