#wls	flux	fluxerr
1.600000E+03	1.548123E-15	1.488598E-16
1.640000E+03	1.399343E-15	1.335727E-16
1.680000E+03	1.255920E-15	1.189946E-16
1.720000E+03	1.119260E-15	1.052495E-16
1.760000E+03	9.908771E-16	9.246661E-17
1.800000E+03	8.717584E-16	8.072213E-17
1.840000E+03	7.627696E-16	7.007743E-17
1.880000E+03	6.644834E-16	6.056430E-17
1.920000E+03	5.771219E-16	5.218070E-17
1.960000E+03	5.009084E-16	4.492367E-17
2.000000E+03	4.354698E-16	3.873624E-17
2.040000E+03	3.806739E-16	3.358353E-17
2.080000E+03	3.361031E-16	2.940590E-17
2.120000E+03	3.014476E-16	2.615419E-17
2.160000E+03	2.764945E-16	2.378847E-17
2.200000E+03	2.612055E-16	2.228436E-17
2.240000E+03	2.557758E-16	2.163750E-17
2.280000E+03	2.607123E-16	2.186934E-17
2.320000E+03	2.768328E-16	2.302607E-17
2.360000E+03	3.052556E-16	2.517664E-17
2.400000E+03	3.477396E-16	2.843933E-17
2.440000E+03	4.064333E-16	3.295936E-17
2.480000E+03	4.838424E-16	3.890494E-17
2.520000E+03	5.822341E-16	4.641846E-17
2.560000E+03	7.029564E-16	5.556333E-17
2.600000E+03	8.456643E-16	6.626630E-17
2.640000E+03	1.007627E-15	7.826923E-17
2.680000E+03	1.184342E-15	9.118417E-17
2.720000E+03	1.369525E-15	1.044990E-16
2.760000E+03	1.555972E-15	1.176483E-16
2.800000E+03	1.735933E-15	1.300451E-16
2.840000E+03	1.901998E-15	1.411488E-16
2.880000E+03	2.048500E-15	1.505677E-16
2.920000E+03	2.172030E-15	1.580909E-16
2.960000E+03	2.271962E-15	1.637185E-16
3.000000E+03	2.350360E-15	1.676451E-16
3.010000E+03	2.367149E-15	1.684056E-16
3.020000E+03	2.382861E-15	1.690820E-16
3.030000E+03	2.397645E-15	1.696856E-16
3.040000E+03	2.411731E-15	1.702331E-16
3.050000E+03	2.425123E-15	1.707249E-16
3.060000E+03	2.437906E-15	1.711676E-16
3.070000E+03	2.450323E-15	1.715783E-16
3.080000E+03	2.462317E-15	1.719533E-16
3.090000E+03	2.474208E-15	1.723151E-16
3.100000E+03	2.486024E-15	1.726656E-16
3.110000E+03	2.497869E-15	1.730121E-16
3.120000E+03	2.509994E-15	1.733717E-16
3.130000E+03	2.522437E-15	1.737471E-16
3.140000E+03	2.535451E-15	1.741552E-16
3.150000E+03	2.549082E-15	1.745990E-16
3.160000E+03	2.563450E-15	1.750861E-16
3.170000E+03	2.578878E-15	1.756381E-16
3.180000E+03	2.595355E-15	1.762537E-16
3.190000E+03	2.613142E-15	1.769497E-16
3.200000E+03	2.632366E-15	1.777339E-16
3.210000E+03	2.653161E-15	1.786145E-16
3.220000E+03	2.675726E-15	1.796037E-16
3.230000E+03	2.700200E-15	1.807097E-16
3.240000E+03	2.726848E-15	1.819491E-16
3.250000E+03	2.755687E-15	1.833216E-16
3.260000E+03	2.786985E-15	1.848436E-16
3.270000E+03	2.820887E-15	1.865229E-16
3.280000E+03	2.857595E-15	1.883714E-16
3.290000E+03	2.897190E-15	1.903925E-16
3.300000E+03	2.939867E-15	1.925970E-16
3.310000E+03	2.985754E-15	1.949915E-16
3.320000E+03	3.035026E-15	1.975851E-16
3.330000E+03	3.087786E-15	2.003823E-16
3.340000E+03	3.144055E-15	2.033822E-16
3.350000E+03	3.203954E-15	2.065901E-16
3.360000E+03	3.267452E-15	2.100019E-16
3.370000E+03	3.334607E-15	2.136185E-16
3.380000E+03	3.405318E-15	2.174314E-16
3.390000E+03	3.479504E-15	2.214326E-16
3.400000E+03	3.556979E-15	2.256082E-16
3.410000E+03	3.637574E-15	2.299450E-16
3.420000E+03	3.721014E-15	2.344236E-16
3.430000E+03	3.807050E-15	2.390262E-16
3.440000E+03	3.895213E-15	2.437218E-16
3.450000E+03	3.985258E-15	2.484933E-16
3.460000E+03	4.076746E-15	2.533120E-16
3.470000E+03	4.169241E-15	2.581498E-16
3.480000E+03	4.262445E-15	2.629873E-16
3.490000E+03	4.355903E-15	2.677960E-16
3.500000E+03	4.449257E-15	2.725534E-16
3.510000E+03	4.542309E-15	2.772474E-16
3.520000E+03	4.634644E-15	2.818526E-16
3.530000E+03	4.726135E-15	2.863616E-16
3.540000E+03	4.816424E-15	2.907531E-16
3.550000E+03	4.905431E-15	2.950230E-16
3.560000E+03	4.992841E-15	2.991530E-16
3.570000E+03	5.078546E-15	3.031374E-16
3.580000E+03	5.162387E-15	3.069679E-16
3.590000E+03	5.244290E-15	3.106411E-16
3.600000E+03	5.324131E-15	3.141506E-16
3.610000E+03	5.401751E-15	3.174886E-16
3.620000E+03	5.477225E-15	3.206604E-16
3.630000E+03	5.550426E-15	3.236602E-16
3.640000E+03	5.621509E-15	3.264982E-16
3.650000E+03	5.690616E-15	3.291840E-16
3.660000E+03	5.758240E-15	3.317472E-16
3.670000E+03	5.824877E-15	3.342171E-16
3.680000E+03	5.891395E-15	3.366438E-16
3.690000E+03	5.958995E-15	3.390956E-16
3.700000E+03	6.029047E-15	3.416493E-16
3.710000E+03	6.103413E-15	3.444079E-16
3.720000E+03	6.184034E-15	3.474772E-16
3.730000E+03	6.273273E-15	3.509849E-16
3.740000E+03	6.373603E-15	3.550622E-16
3.750000E+03	6.487526E-15	3.598397E-16
3.760000E+03	6.617692E-15	3.654536E-16
3.770000E+03	6.766626E-15	3.720307E-16
3.780000E+03	6.936757E-15	3.796899E-16
3.790000E+03	7.130195E-15	3.885302E-16
3.800000E+03	7.348747E-15	3.986321E-16
3.810000E+03	7.593583E-15	4.100399E-16
3.820000E+03	7.865528E-15	4.227778E-16
3.830000E+03	8.164256E-15	4.368079E-16
3.840000E+03	8.488897E-15	4.520631E-16
3.850000E+03	8.837221E-15	4.684054E-16
3.860000E+03	9.206091E-15	4.856508E-16
3.870000E+03	9.590957E-15	5.035443E-16
3.880000E+03	9.986377E-15	5.217889E-16
3.890000E+03	1.038575E-14	5.400327E-16
3.900000E+03	1.078174E-14	5.578919E-16
3.910000E+03	1.116676E-14	5.749788E-16
3.920000E+03	1.153300E-14	5.909004E-16
3.930000E+03	1.187309E-14	6.052951E-16
3.940000E+03	1.218057E-14	6.178545E-16
3.950000E+03	1.245019E-14	6.283387E-16
3.960000E+03	1.267812E-14	6.365842E-16
3.970000E+03	1.286219E-14	6.425145E-16
3.980000E+03	1.300201E-14	6.461442E-16
3.990000E+03	1.309907E-14	6.475818E-16
4.000000E+03	1.315618E-14	6.469983E-16
4.010000E+03	1.317737E-14	6.446221E-16
4.020000E+03	1.316762E-14	6.407236E-16
4.030000E+03	1.313244E-14	6.355947E-16
4.040000E+03	1.307788E-14	6.295465E-16
4.050000E+03	1.300942E-14	6.228574E-16
4.060000E+03	1.293287E-14	6.158149E-16
4.070000E+03	1.285289E-14	6.086464E-16
4.080000E+03	1.277422E-14	6.015786E-16
4.090000E+03	1.270053E-14	5.947825E-16
4.100000E+03	1.263487E-14	5.883975E-16
4.110000E+03	1.257962E-14	5.825273E-16
4.120000E+03	1.253641E-14	5.772397E-16
4.130000E+03	1.250623E-14	5.725708E-16
4.140000E+03	1.248917E-14	5.685152E-16
4.150000E+03	1.248449E-14	5.650291E-16
4.160000E+03	1.249076E-14	5.620394E-16
4.170000E+03	1.250600E-14	5.594496E-16
4.180000E+03	1.252751E-14	5.571333E-16
4.190000E+03	1.255219E-14	5.549483E-16
4.200000E+03	1.257644E-14	5.527354E-16
4.210000E+03	1.259671E-14	5.503403E-16
4.220000E+03	1.260955E-14	5.476169E-16
4.230000E+03	1.261163E-14	5.444276E-16
4.240000E+03	1.259972E-14	5.406434E-16
4.250000E+03	1.257161E-14	5.361813E-16
4.260000E+03	1.252497E-14	5.309561E-16
4.270000E+03	1.245854E-14	5.249294E-16
4.280000E+03	1.237172E-14	5.180925E-16
4.290000E+03	1.226433E-14	5.104539E-16
4.300000E+03	1.213725E-14	5.020661E-16
4.310000E+03	1.199198E-14	4.930070E-16
4.320000E+03	1.183097E-14	4.833902E-16
4.330000E+03	1.165753E-14	4.733629E-16
4.340000E+03	1.147568E-14	4.630970E-16
4.350000E+03	1.129039E-14	4.527979E-16
4.360000E+03	1.110754E-14	4.427030E-16
4.370000E+03	1.093401E-14	4.330832E-16
4.380000E+03	1.077740E-14	4.242306E-16
4.390000E+03	1.064555E-14	4.164398E-16
4.400000E+03	1.054621E-14	4.099944E-16
4.410000E+03	1.048643E-14	4.051427E-16
4.420000E+03	1.047283E-14	4.021105E-16
4.430000E+03	1.051114E-14	4.010841E-16
4.440000E+03	1.060635E-14	4.022159E-16
4.450000E+03	1.076283E-14	4.056315E-16
4.460000E+03	1.098394E-14	4.114148E-16
4.470000E+03	1.127238E-14	4.196236E-16
4.480000E+03	1.162951E-14	4.302634E-16
4.490000E+03	1.205553E-14	4.432972E-16
4.500000E+03	1.254902E-14	4.586297E-16
4.510000E+03	1.310614E-14	4.760797E-16
4.520000E+03	1.372086E-14	4.953914E-16
4.530000E+03	1.438386E-14	5.161967E-16
4.540000E+03	1.508288E-14	5.380323E-16
4.550000E+03	1.580243E-14	5.603315E-16
4.560000E+03	1.652403E-14	5.824358E-16
4.570000E+03	1.722671E-14	6.036149E-16
4.580000E+03	1.788818E-14	6.231109E-16
4.590000E+03	1.848598E-14	6.401776E-16
4.600000E+03	1.899934E-14	6.541446E-16
4.610000E+03	1.941086E-14	6.644723E-16
4.620000E+03	1.970744E-14	6.707806E-16
4.630000E+03	1.988169E-14	6.728900E-16
4.640000E+03	1.993274E-14	6.708449E-16
4.650000E+03	1.986539E-14	6.648779E-16
4.660000E+03	1.969013E-14	6.554054E-16
4.670000E+03	1.942111E-14	6.429547E-16
4.680000E+03	1.907575E-14	6.281494E-16
4.690000E+03	1.867255E-14	6.116342E-16
4.700000E+03	1.823008E-14	5.940411E-16
4.710000E+03	1.776559E-14	5.759470E-16
4.720000E+03	1.729521E-14	5.578796E-16
4.730000E+03	1.683219E-14	5.402632E-16
4.740000E+03	1.638740E-14	5.234383E-16
4.750000E+03	1.596909E-14	5.076545E-16
4.760000E+03	1.558371E-14	4.931005E-16
4.770000E+03	1.523478E-14	4.798694E-16
4.780000E+03	1.492477E-14	4.680199E-16
4.790000E+03	1.465442E-14	4.575565E-16
4.800000E+03	1.442345E-14	4.484522E-16
4.810000E+03	1.423027E-14	4.406399E-16
4.820000E+03	1.407249E-14	4.340310E-16
4.830000E+03	1.394721E-14	4.285217E-16
4.840000E+03	1.385087E-14	4.239907E-16
4.850000E+03	1.377985E-14	4.203146E-16
4.860000E+03	1.373008E-14	4.173596E-16
4.870000E+03	1.369683E-14	4.149735E-16
4.880000E+03	1.367537E-14	4.130067E-16
4.890000E+03	1.366066E-14	4.113028E-16
4.900000E+03	1.364727E-14	4.096951E-16
4.910000E+03	1.362981E-14	4.080203E-16
4.920000E+03	1.360338E-14	4.061319E-16
4.930000E+03	1.356325E-14	4.038894E-16
4.940000E+03	1.350557E-14	4.011797E-16
4.950000E+03	1.342821E-14	3.979416E-16
4.960000E+03	1.332990E-14	3.941398E-16
4.970000E+03	1.321132E-14	3.897962E-16
4.980000E+03	1.307467E-14	3.849767E-16
4.990000E+03	1.292351E-14	3.797871E-16
5.000000E+03	1.276270E-14	3.743697E-16
5.010000E+03	1.259768E-14	3.688826E-16
5.020000E+03	1.243456E-14	3.635024E-16
5.030000E+03	1.227930E-14	3.584009E-16
5.040000E+03	1.213799E-14	3.537514E-16
5.050000E+03	1.201619E-14	3.497127E-16
5.060000E+03	1.191889E-14	3.464247E-16
5.070000E+03	1.185072E-14	3.440177E-16
5.080000E+03	1.181569E-14	3.426034E-16
5.090000E+03	1.181694E-14	3.422682E-16
5.100000E+03	1.185737E-14	3.430915E-16
5.110000E+03	1.193917E-14	3.451334E-16
5.120000E+03	1.206390E-14	3.484342E-16
5.130000E+03	1.223277E-14	3.530263E-16
5.140000E+03	1.244589E-14	3.589098E-16
5.150000E+03	1.270287E-14	3.660708E-16
5.160000E+03	1.300212E-14	3.744621E-16
5.170000E+03	1.334120E-14	3.840114E-16
5.180000E+03	1.371612E-14	3.946035E-16
5.190000E+03	1.412179E-14	4.060916E-16
5.200000E+03	1.455135E-14	4.182785E-16
5.210000E+03	1.499650E-14	4.309266E-16
5.220000E+03	1.544812E-14	4.437744E-16
5.230000E+03	1.589564E-14	4.565200E-16
5.240000E+03	1.632799E-14	4.688471E-16
5.250000E+03	1.673445E-14	4.804495E-16
5.260000E+03	1.710466E-14	4.910314E-16
5.270000E+03	1.742995E-14	5.003451E-16
5.280000E+03	1.770297E-14	5.081808E-16
5.290000E+03	1.791914E-14	5.144085E-16
5.300000E+03	1.807617E-14	5.189620E-16
5.310000E+03	1.817415E-14	5.218444E-16
5.320000E+03	1.821504E-14	5.231116E-16
5.330000E+03	1.820333E-14	5.228915E-16
5.340000E+03	1.814431E-14	5.213352E-16
5.350000E+03	1.804411E-14	5.186173E-16
5.360000E+03	1.790950E-14	5.149315E-16
5.370000E+03	1.774662E-14	5.104524E-16
5.380000E+03	1.756180E-14	5.053610E-16
5.390000E+03	1.735998E-14	4.997982E-16
5.400000E+03	1.714561E-14	4.938906E-16
5.410000E+03	1.692238E-14	4.877432E-16
5.420000E+03	1.669255E-14	4.814187E-16
5.430000E+03	1.645775E-14	4.749620E-16
5.440000E+03	1.621840E-14	4.683822E-16
5.450000E+03	1.597208E-14	4.616076E-16
5.460000E+03	1.571603E-14	4.545554E-16
5.470000E+03	1.544739E-14	4.471409E-16
5.480000E+03	1.516404E-14	4.392991E-16
5.490000E+03	1.486479E-14	4.309932E-16
5.500000E+03	1.454917E-14	4.222069E-16
5.510000E+03	1.421790E-14	4.129578E-16
5.520000E+03	1.387178E-14	4.032665E-16
5.530000E+03	1.351251E-14	3.931802E-16
5.540000E+03	1.314238E-14	3.827630E-16
5.550000E+03	1.276360E-14	3.720777E-16
5.560000E+03	1.237929E-14	3.612131E-16
5.570000E+03	1.199195E-14	3.502413E-16
5.580000E+03	1.160474E-14	3.392534E-16
5.590000E+03	1.122085E-14	3.283422E-16
5.600000E+03	1.084358E-14	3.176038E-16
5.610000E+03	1.047635E-14	3.071390E-16
5.620000E+03	1.012280E-14	2.970544E-16
5.630000E+03	9.786247E-15	2.874490E-16
5.640000E+03	9.470325E-15	2.784305E-16
5.650000E+03	9.178470E-15	2.701015E-16
5.660000E+03	8.913850E-15	2.625572E-16
5.670000E+03	8.679694E-15	2.558951E-16
5.680000E+03	8.478689E-15	2.501969E-16
5.690000E+03	8.313332E-15	2.455389E-16
5.700000E+03	8.185816E-15	2.419890E-16
5.710000E+03	8.098031E-15	2.396059E-16
5.720000E+03	8.051560E-15	2.384399E-16
5.730000E+03	8.047674E-15	2.385317E-16
5.740000E+03	8.087316E-15	2.399126E-16
5.750000E+03	8.171143E-15	2.426055E-16
5.760000E+03	8.299186E-15	2.466147E-16
5.770000E+03	8.470997E-15	2.519301E-16
5.780000E+03	8.685494E-15	2.585229E-16
5.790000E+03	8.940490E-15	2.663310E-16
5.800000E+03	9.232958E-15	2.752672E-16
5.810000E+03	9.558142E-15	2.851925E-16
5.820000E+03	9.909976E-15	2.959282E-16
5.830000E+03	1.028105E-14	3.072550E-16
5.840000E+03	1.066205E-14	3.188958E-16
5.850000E+03	1.104252E-14	3.305390E-16
5.860000E+03	1.141065E-14	3.418310E-16
5.870000E+03	1.175417E-14	3.524034E-16
5.880000E+03	1.206102E-14	3.618936E-16
5.890000E+03	1.231933E-14	3.699430E-16
5.900000E+03	1.251917E-14	3.762505E-16
5.910000E+03	1.265245E-14	3.805689E-16
5.920000E+03	1.271350E-14	3.827240E-16
5.930000E+03	1.269992E-14	3.826383E-16
5.940000E+03	1.261222E-14	3.803224E-16
5.950000E+03	1.245336E-14	3.758606E-16
5.960000E+03	1.222904E-14	3.694202E-16
5.970000E+03	1.194627E-14	3.612081E-16
5.980000E+03	1.161330E-14	3.514695E-16
5.990000E+03	1.123922E-14	3.404753E-16
6.000000E+03	1.083294E-14	3.284923E-16
6.010000E+03	1.040317E-14	3.157814E-16
6.020000E+03	9.958339E-15	3.025968E-16
6.030000E+03	9.506405E-15	2.891778E-16
6.040000E+03	9.054702E-15	2.757467E-16
6.050000E+03	8.610080E-15	2.625114E-16
6.060000E+03	8.179126E-15	2.496726E-16
6.070000E+03	7.767709E-15	2.374103E-16
6.080000E+03	7.381271E-15	2.258921E-16
6.090000E+03	7.024570E-15	2.152655E-16
6.100000E+03	6.701898E-15	2.056649E-16
6.110000E+03	6.416605E-15	1.971966E-16
6.120000E+03	6.171472E-15	1.899501E-16
6.130000E+03	5.968800E-15	1.840012E-16
6.140000E+03	5.810063E-15	1.794009E-16
6.150000E+03	5.696157E-15	1.761830E-16
6.160000E+03	5.627660E-15	1.743724E-16
6.170000E+03	5.604793E-15	1.739833E-16
6.180000E+03	5.627191E-15	1.750124E-16
6.190000E+03	5.694395E-15	1.774534E-16
6.200000E+03	5.804958E-15	1.812693E-16
6.210000E+03	5.956998E-15	1.864099E-16
6.220000E+03	6.147863E-15	1.928005E-16
6.230000E+03	6.373879E-15	2.003342E-16
6.240000E+03	6.630590E-15	2.088787E-16
6.250000E+03	6.913051E-15	2.182853E-16
6.260000E+03	7.216595E-15	2.284128E-16
6.270000E+03	7.536659E-15	2.391221E-16
6.280000E+03	7.868402E-15	2.502639E-16
6.290000E+03	8.206749E-15	2.616797E-16
6.300000E+03	8.546123E-15	2.731937E-16
6.310000E+03	8.881511E-15	2.846460E-16
6.320000E+03	9.207577E-15	2.958646E-16
6.330000E+03	9.519408E-15	3.066891E-16
6.340000E+03	9.812845E-15	3.169818E-16
6.350000E+03	1.008395E-14	3.266102E-16
6.360000E+03	1.032974E-14	3.354715E-16
6.370000E+03	1.054789E-14	3.434829E-16
6.380000E+03	1.073713E-14	3.505953E-16
6.390000E+03	1.089665E-14	3.567741E-16
6.400000E+03	1.102658E-14	3.620145E-16
6.410000E+03	1.112725E-14	3.663189E-16
6.420000E+03	1.119953E-14	3.697071E-16
6.430000E+03	1.124450E-14	3.722067E-16
6.440000E+03	1.126350E-14	3.738538E-16
6.450000E+03	1.125750E-14	3.746727E-16
6.460000E+03	1.122767E-14	3.746949E-16
6.470000E+03	1.117485E-14	3.739413E-16
6.480000E+03	1.109967E-14	3.724263E-16
6.490000E+03	1.100278E-14	3.701646E-16
6.500000E+03	1.088424E-14	3.671515E-16
6.510000E+03	1.074468E-14	3.634028E-16
6.520000E+03	1.058420E-14	3.589150E-16
6.530000E+03	1.040365E-14	3.537113E-16
6.540000E+03	1.020356E-14	3.478041E-16
6.550000E+03	9.984654E-15	3.412130E-16
6.560000E+03	9.748379E-15	3.339822E-16
6.570000E+03	9.496458E-15	3.261666E-16
6.580000E+03	9.230920E-15	3.178320E-16
6.590000E+03	8.954457E-15	3.090681E-16
6.600000E+03	8.669650E-15	2.999617E-16
6.610000E+03	8.379804E-15	2.906257E-16
6.620000E+03	8.087742E-15	2.811575E-16
6.630000E+03	7.796735E-15	2.716709E-16
6.640000E+03	7.509363E-15	2.622570E-16
6.650000E+03	7.228314E-15	2.530113E-16
6.660000E+03	6.955701E-15	2.440100E-16
6.670000E+03	6.693498E-15	2.353254E-16
6.680000E+03	6.443081E-15	2.270088E-16
6.690000E+03	6.205566E-15	2.191030E-16
6.700000E+03	5.981829E-15	2.116427E-16
6.710000E+03	5.772244E-15	2.046447E-16
6.720000E+03	5.577027E-15	1.981204E-16
6.730000E+03	5.396278E-15	1.920771E-16
6.740000E+03	5.229737E-15	1.865092E-16
6.750000E+03	5.077115E-15	1.814097E-16
6.760000E+03	4.938013E-15	1.767678E-16
6.770000E+03	4.811964E-15	1.725699E-16
6.780000E+03	4.698517E-15	1.688027E-16
6.790000E+03	4.597019E-15	1.654457E-16
6.800000E+03	4.506937E-15	1.624822E-16
6.810000E+03	4.427477E-15	1.598861E-16
6.820000E+03	4.358119E-15	1.576408E-16
6.830000E+03	4.298159E-15	1.557228E-16
6.840000E+03	4.246722E-15	1.541025E-16
6.850000E+03	4.203269E-15	1.527618E-16
6.860000E+03	4.166809E-15	1.516663E-16
6.870000E+03	4.136763E-15	1.507962E-16
6.880000E+03	4.112117E-15	1.501158E-16
6.890000E+03	4.092291E-15	1.496050E-16
6.900000E+03	4.076363E-15	1.492308E-16
6.910000E+03	4.063584E-15	1.489667E-16
6.920000E+03	4.053332E-15	1.487904E-16
6.930000E+03	4.044970E-15	1.486791E-16
6.940000E+03	4.037948E-15	1.486131E-16
6.950000E+03	4.031808E-15	1.485757E-16
6.960000E+03	4.026121E-15	1.485516E-16
6.970000E+03	4.020774E-15	1.485367E-16
6.980000E+03	4.015462E-15	1.485201E-16
6.990000E+03	4.010182E-15	1.485020E-16
7.000000E+03	4.004930E-15	1.484823E-16
7.010000E+03	3.999832E-15	1.484660E-16
7.020000E+03	3.994832E-15	1.484513E-16
7.030000E+03	3.990190E-15	1.484482E-16
7.040000E+03	3.985959E-15	1.484588E-16
7.050000E+03	3.982257E-15	1.484880E-16
7.060000E+03	3.979189E-15	1.485400E-16
7.070000E+03	3.976907E-15	1.486209E-16
7.080000E+03	3.975377E-15	1.487297E-16
7.090000E+03	3.974670E-15	1.488696E-16
7.100000E+03	3.974658E-15	1.490362E-16
7.110000E+03	3.975311E-15	1.492287E-16
7.120000E+03	3.976474E-15	1.494417E-16
7.130000E+03	3.977870E-15	1.496652E-16
7.140000E+03	3.979340E-15	1.498937E-16
7.150000E+03	3.980628E-15	1.501179E-16
7.160000E+03	3.981470E-15	1.503280E-16
7.170000E+03	3.981685E-15	1.505176E-16
7.180000E+03	3.980880E-15	1.506721E-16
7.190000E+03	3.978923E-15	1.507868E-16
7.200000E+03	3.975718E-15	1.508582E-16
7.210000E+03	3.971036E-15	1.508779E-16
7.220000E+03	3.964741E-15	1.508409E-16
7.230000E+03	3.956775E-15	1.507450E-16
7.240000E+03	3.946893E-15	1.505812E-16
7.250000E+03	3.934965E-15	1.503443E-16
7.260000E+03	3.920630E-15	1.500209E-16
7.270000E+03	3.903623E-15	1.496005E-16
7.280000E+03	3.883521E-15	1.490668E-16
7.290000E+03	3.859846E-15	1.484012E-16
7.300000E+03	3.832010E-15	1.475807E-16
7.310000E+03	3.799670E-15	1.465916E-16
7.320000E+03	3.762200E-15	1.454088E-16
7.330000E+03	3.719299E-15	1.440199E-16
7.340000E+03	3.670707E-15	1.424136E-16
7.350000E+03	3.616314E-15	1.405845E-16
7.360000E+03	3.556188E-15	1.385339E-16
7.370000E+03	3.490594E-15	1.362706E-16
7.380000E+03	3.419998E-15	1.338112E-16
7.390000E+03	3.345134E-15	1.311831E-16
7.400000E+03	3.266703E-15	1.284122E-16
7.410000E+03	3.185871E-15	1.255431E-16
7.420000E+03	3.103797E-15	1.226204E-16
7.430000E+03	3.021753E-15	1.196936E-16
7.440000E+03	2.941022E-15	1.168132E-16
7.450000E+03	2.862990E-15	1.140341E-16
7.460000E+03	2.789032E-15	1.114115E-16
7.470000E+03	2.720459E-15	1.089989E-16
7.480000E+03	2.658473E-15	1.068459E-16
7.490000E+03	2.604119E-15	1.049965E-16
7.500000E+03	2.558252E-15	1.034880E-16
7.510000E+03	2.521504E-15	1.023489E-16
7.520000E+03	2.494211E-15	1.015965E-16
7.530000E+03	2.476635E-15	1.012454E-16
7.540000E+03	2.468565E-15	1.012906E-16
7.550000E+03	2.469723E-15	1.017248E-16
7.560000E+03	2.479551E-15	1.025292E-16
7.570000E+03	2.497353E-15	1.036788E-16
7.580000E+03	2.522067E-15	1.051336E-16
7.590000E+03	2.552669E-15	1.068543E-16
7.600000E+03	2.588028E-15	1.087966E-16
7.610000E+03	2.626757E-15	1.109047E-16
7.620000E+03	2.667715E-15	1.131324E-16
7.630000E+03	2.709535E-15	1.154230E-16
7.640000E+03	2.751189E-15	1.177332E-16
7.650000E+03	2.791524E-15	1.200136E-16
7.660000E+03	2.829592E-15	1.222227E-16
7.670000E+03	2.864622E-15	1.243260E-16
7.680000E+03	2.895972E-15	1.262935E-16
7.690000E+03	2.923488E-15	1.281165E-16
7.700000E+03	2.946772E-15	1.297749E-16
7.710000E+03	2.965887E-15	1.312688E-16
7.720000E+03	2.981047E-15	1.326048E-16
7.730000E+03	2.992354E-15	1.337849E-16
7.740000E+03	3.000303E-15	1.348285E-16
7.750000E+03	3.005285E-15	1.357507E-16
7.760000E+03	3.007559E-15	1.365611E-16
