#wls	flux	fluxerr
1.600000E+03	2.329517E-15	9.554055E-17
1.640000E+03	2.169612E-15	8.708498E-17
1.680000E+03	2.005763E-15	7.874864E-17
1.720000E+03	1.839881E-15	7.061881E-17
1.760000E+03	1.673685E-15	6.276840E-17
1.800000E+03	1.509786E-15	5.529617E-17
1.840000E+03	1.350082E-15	4.826551E-17
1.880000E+03	1.197162E-15	4.175648E-17
1.920000E+03	1.053276E-15	3.582783E-17
1.960000E+03	9.206125E-16	3.052782E-17
2.000000E+03	8.009322E-16	2.588296E-17
2.040000E+03	6.955950E-16	2.190097E-17
2.080000E+03	6.053975E-16	1.856792E-17
2.120000E+03	5.314324E-16	1.587661E-17
2.160000E+03	4.756452E-16	1.384214E-17
2.200000E+03	4.395326E-16	1.246251E-17
2.240000E+03	4.241353E-16	1.172103E-17
2.280000E+03	4.308712E-16	1.161143E-17
2.320000E+03	4.615300E-16	1.213753E-17
2.360000E+03	5.189735E-16	1.333133E-17
2.400000E+03	6.082203E-16	1.527780E-17
2.440000E+03	7.364530E-16	1.811069E-17
2.480000E+03	9.126484E-16	2.199974E-17
2.520000E+03	1.146648E-15	2.712531E-17
2.560000E+03	1.447431E-15	3.363889E-17
2.600000E+03	1.820749E-15	4.161207E-17
2.640000E+03	2.266134E-15	5.097525E-17
2.680000E+03	2.775864E-15	6.150463E-17
2.720000E+03	3.334863E-15	7.282947E-17
2.760000E+03	3.920388E-15	8.443379E-17
2.800000E+03	4.504650E-15	9.572021E-17
2.840000E+03	5.058726E-15	1.060964E-16
2.880000E+03	5.557052E-15	1.150676E-16
2.920000E+03	5.982652E-15	1.223384E-16
2.960000E+03	6.329087E-15	1.278407E-16
3.000000E+03	6.600578E-15	1.317240E-16
3.010000E+03	6.657998E-15	1.324740E-16
3.020000E+03	6.711878E-15	1.331502E-16
3.030000E+03	6.762101E-15	1.337510E-16
3.040000E+03	6.809369E-15	1.342909E-16
3.050000E+03	6.853762E-15	1.347724E-16
3.060000E+03	6.895543E-15	1.352010E-16
3.070000E+03	6.935145E-15	1.355860E-16
3.080000E+03	6.973015E-15	1.359365E-16
3.090000E+03	7.009305E-15	1.362560E-16
3.100000E+03	7.044638E-15	1.365570E-16
3.110000E+03	7.079197E-15	1.368435E-16
3.120000E+03	7.113478E-15	1.371252E-16
3.130000E+03	7.147986E-15	1.374123E-16
3.140000E+03	7.183090E-15	1.377119E-16
3.150000E+03	7.219032E-15	1.380288E-16
3.160000E+03	7.256634E-15	1.383788E-16
3.170000E+03	7.296021E-15	1.387643E-16
3.180000E+03	7.337894E-15	1.391983E-16
3.190000E+03	7.382687E-15	1.396885E-16
3.200000E+03	7.430859E-15	1.402431E-16
3.210000E+03	7.482889E-15	1.408705E-16
3.220000E+03	7.539550E-15	1.415846E-16
3.230000E+03	7.601236E-15	1.423920E-16
3.240000E+03	7.668511E-15	1.433026E-16
3.250000E+03	7.742099E-15	1.443290E-16
3.260000E+03	7.822760E-15	1.454846E-16
3.270000E+03	7.911030E-15	1.467782E-16
3.280000E+03	8.007744E-15	1.482244E-16
3.290000E+03	8.113645E-15	1.498357E-16
3.300000E+03	8.229640E-15	1.516278E-16
3.310000E+03	8.356413E-15	1.536120E-16
3.320000E+03	8.494794E-15	1.558023E-16
3.330000E+03	8.645866E-15	1.582170E-16
3.340000E+03	8.810182E-15	1.608649E-16
3.350000E+03	8.988610E-15	1.637603E-16
3.360000E+03	9.181925E-15	1.669158E-16
3.370000E+03	9.390344E-15	1.703336E-16
3.380000E+03	9.614396E-15	1.740218E-16
3.390000E+03	9.853813E-15	1.779741E-16
3.400000E+03	1.010824E-14	1.821824E-16
3.410000E+03	1.037706E-14	1.866344E-16
3.420000E+03	1.065893E-14	1.913046E-16
3.430000E+03	1.095214E-14	1.961613E-16
3.440000E+03	1.125420E-14	2.011591E-16
3.450000E+03	1.156249E-14	2.062508E-16
3.460000E+03	1.187370E-14	2.113772E-16
3.470000E+03	1.218410E-14	2.164724E-16
3.480000E+03	1.249044E-14	2.214792E-16
3.490000E+03	1.278957E-14	2.263429E-16
3.500000E+03	1.307896E-14	2.310200E-16
3.510000E+03	1.335620E-14	2.354698E-16
3.520000E+03	1.361869E-14	2.396483E-16
3.530000E+03	1.386383E-14	2.435117E-16
3.540000E+03	1.408891E-14	2.470149E-16
3.550000E+03	1.429116E-14	2.501116E-16
3.560000E+03	1.446797E-14	2.527580E-16
3.570000E+03	1.461698E-14	2.549147E-16
3.580000E+03	1.473604E-14	2.565460E-16
3.590000E+03	1.482346E-14	2.576242E-16
3.600000E+03	1.487842E-14	2.581376E-16
3.610000E+03	1.490042E-14	2.580793E-16
3.620000E+03	1.489022E-14	2.574646E-16
3.630000E+03	1.485002E-14	2.563334E-16
3.640000E+03	1.478276E-14	2.547385E-16
3.650000E+03	1.469269E-14	2.527542E-16
3.660000E+03	1.458504E-14	2.504719E-16
3.670000E+03	1.446615E-14	2.480010E-16
3.680000E+03	1.434312E-14	2.454634E-16
3.690000E+03	1.422366E-14	2.429908E-16
3.700000E+03	1.411659E-14	2.407326E-16
3.710000E+03	1.403057E-14	2.388344E-16
3.720000E+03	1.397499E-14	2.374537E-16
3.730000E+03	1.395917E-14	2.367451E-16
3.740000E+03	1.399254E-14	2.368639E-16
3.750000E+03	1.408434E-14	2.379610E-16
3.760000E+03	1.424360E-14	2.401825E-16
3.770000E+03	1.447930E-14	2.436723E-16
3.780000E+03	1.479977E-14	2.485615E-16
3.790000E+03	1.521282E-14	2.549716E-16
3.800000E+03	1.572507E-14	2.630026E-16
3.810000E+03	1.634230E-14	2.727391E-16
3.820000E+03	1.706783E-14	2.842238E-16
3.830000E+03	1.790283E-14	2.974624E-16
3.840000E+03	1.884470E-14	3.123977E-16
3.850000E+03	1.988738E-14	3.289151E-16
3.860000E+03	2.101931E-14	3.468101E-16
3.870000E+03	2.222473E-14	3.658099E-16
3.880000E+03	2.348231E-14	3.855532E-16
3.890000E+03	2.476629E-14	4.056088E-16
3.900000E+03	2.604762E-14	4.254964E-16
3.910000E+03	2.729552E-14	4.447120E-16
3.920000E+03	2.847943E-14	4.627612E-16
3.930000E+03	2.957098E-14	4.791904E-16
3.940000E+03	3.054628E-14	4.936239E-16
3.950000E+03	3.138806E-14	5.057976E-16
3.960000E+03	3.208613E-14	5.155651E-16
3.970000E+03	3.263727E-14	5.228939E-16
3.980000E+03	3.304680E-14	5.278894E-16
3.990000E+03	3.332562E-14	5.307456E-16
4.000000E+03	3.348977E-14	5.317365E-16
4.010000E+03	3.355787E-14	5.311744E-16
4.020000E+03	3.355049E-14	5.293991E-16
4.030000E+03	3.348828E-14	5.267478E-16
4.040000E+03	3.338968E-14	5.235194E-16
4.050000E+03	3.327138E-14	5.199820E-16
4.060000E+03	3.314703E-14	5.163526E-16
4.070000E+03	3.302760E-14	5.128044E-16
4.080000E+03	3.292097E-14	5.094604E-16
4.090000E+03	3.283265E-14	5.064057E-16
4.100000E+03	3.276558E-14	5.036846E-16
4.110000E+03	3.272071E-14	5.013101E-16
4.120000E+03	3.269744E-14	4.992723E-16
4.130000E+03	3.269366E-14	4.975377E-16
4.140000E+03	3.270537E-14	4.960448E-16
4.150000E+03	3.272802E-14	4.947252E-16
4.160000E+03	3.275529E-14	4.934842E-16
4.170000E+03	3.278063E-14	4.922257E-16
4.180000E+03	3.279731E-14	4.908516E-16
4.190000E+03	3.279857E-14	4.892654E-16
4.200000E+03	3.277846E-14	4.873837E-16
4.210000E+03	3.273248E-14	4.851457E-16
4.220000E+03	3.265748E-14	4.825111E-16
4.230000E+03	3.255226E-14	4.794696E-16
4.240000E+03	3.241732E-14	4.760350E-16
4.250000E+03	3.225434E-14	4.722386E-16
4.260000E+03	3.206585E-14	4.681237E-16
4.270000E+03	3.185593E-14	4.637551E-16
4.280000E+03	3.162775E-14	4.591838E-16
4.290000E+03	3.138452E-14	4.544608E-16
4.300000E+03	3.112819E-14	4.496174E-16
4.310000E+03	3.086037E-14	4.446805E-16
4.320000E+03	3.058133E-14	4.396567E-16
4.330000E+03	3.029073E-14	4.345436E-16
4.340000E+03	2.998853E-14	4.293429E-16
4.350000E+03	2.967556E-14	4.240686E-16
4.360000E+03	2.935598E-14	4.187813E-16
4.370000E+03	2.903775E-14	4.135933E-16
4.380000E+03	2.873506E-14	4.087022E-16
4.390000E+03	2.846601E-14	4.043598E-16
4.400000E+03	2.824967E-14	4.008311E-16
4.410000E+03	2.810494E-14	3.983775E-16
4.420000E+03	2.804776E-14	3.972186E-16
4.430000E+03	2.808992E-14	3.975150E-16
4.440000E+03	2.823946E-14	3.993752E-16
4.450000E+03	2.849935E-14	4.028364E-16
4.460000E+03	2.886846E-14	4.078788E-16
4.470000E+03	2.934128E-14	4.144216E-16
4.480000E+03	2.990909E-14	4.223397E-16
4.490000E+03	3.055892E-14	4.314484E-16
4.500000E+03	3.127374E-14	4.415065E-16
4.510000E+03	3.203419E-14	4.522403E-16
4.520000E+03	3.281730E-14	4.633250E-16
4.530000E+03	3.359803E-14	4.744066E-16
4.540000E+03	3.435018E-14	4.851145E-16
4.550000E+03	3.504687E-14	4.950679E-16
4.560000E+03	3.566172E-14	5.038923E-16
4.570000E+03	3.617069E-14	5.112456E-16
4.580000E+03	3.655351E-14	5.168377E-16
4.590000E+03	3.679415E-14	5.204386E-16
4.600000E+03	3.688149E-14	5.218865E-16
4.610000E+03	3.681181E-14	5.211234E-16
4.620000E+03	3.658703E-14	5.181719E-16
4.630000E+03	3.621442E-14	5.131297E-16
4.640000E+03	3.570752E-14	5.061837E-16
4.650000E+03	3.508382E-14	4.975772E-16
4.660000E+03	3.436353E-14	4.875931E-16
4.670000E+03	3.356939E-14	4.765503E-16
4.680000E+03	3.272345E-14	4.647593E-16
4.690000E+03	3.184726E-14	4.525241E-16
4.700000E+03	3.095993E-14	4.401150E-16
4.710000E+03	3.007803E-14	4.277666E-16
4.720000E+03	2.921435E-14	4.156605E-16
4.730000E+03	2.837910E-14	4.039423E-16
4.740000E+03	2.757863E-14	3.927015E-16
4.750000E+03	2.681739E-14	3.820015E-16
4.760000E+03	2.609636E-14	3.718558E-16
4.770000E+03	2.541547E-14	3.622637E-16
4.780000E+03	2.477383E-14	3.532121E-16
4.790000E+03	2.416949E-14	3.446739E-16
4.800000E+03	2.360180E-14	3.366399E-16
4.810000E+03	2.307072E-14	3.291097E-16
4.820000E+03	2.257849E-14	3.221158E-16
4.830000E+03	2.212766E-14	3.156948E-16
4.840000E+03	2.172080E-14	3.098837E-16
4.850000E+03	2.136070E-14	3.047225E-16
4.860000E+03	2.104962E-14	3.002436E-16
4.870000E+03	2.078850E-14	2.964605E-16
4.880000E+03	2.057773E-14	2.933784E-16
4.890000E+03	2.041638E-14	2.909839E-16
4.900000E+03	2.030136E-14	2.892322E-16
4.910000E+03	2.022855E-14	2.880643E-16
4.920000E+03	2.019239E-14	2.874002E-16
4.930000E+03	2.018653E-14	2.871487E-16
4.940000E+03	2.020448E-14	2.872170E-16
4.950000E+03	2.024014E-14	2.875178E-16
4.960000E+03	2.028911E-14	2.879883E-16
4.970000E+03	2.034847E-14	2.885867E-16
4.980000E+03	2.041757E-14	2.893035E-16
4.990000E+03	2.049761E-14	2.901559E-16
5.000000E+03	2.059152E-14	2.911851E-16
5.010000E+03	2.070334E-14	2.924477E-16
5.020000E+03	2.083759E-14	2.940073E-16
5.030000E+03	2.099854E-14	2.959236E-16
5.040000E+03	2.119004E-14	2.982498E-16
5.050000E+03	2.141486E-14	3.010239E-16
5.060000E+03	2.167441E-14	3.042645E-16
5.070000E+03	2.196848E-14	3.079675E-16
5.080000E+03	2.229522E-14	3.121057E-16
5.090000E+03	2.265055E-14	3.166215E-16
5.100000E+03	2.302966E-14	3.214467E-16
5.110000E+03	2.342569E-14	3.264857E-16
5.120000E+03	2.382998E-14	3.316185E-16
5.130000E+03	2.423301E-14	3.367138E-16
5.140000E+03	2.462441E-14	3.416300E-16
5.150000E+03	2.499276E-14	3.462116E-16
5.160000E+03	2.532556E-14	3.502898E-16
5.170000E+03	2.561094E-14	3.537052E-16
5.180000E+03	2.583737E-14	3.563049E-16
5.190000E+03	2.599359E-14	3.579401E-16
5.200000E+03	2.607055E-14	3.584938E-16
5.210000E+03	2.606166E-14	3.578830E-16
5.220000E+03	2.596379E-14	3.560727E-16
5.230000E+03	2.577709E-14	3.530725E-16
5.240000E+03	2.550621E-14	3.489531E-16
5.250000E+03	2.515972E-14	3.438379E-16
5.260000E+03	2.475059E-14	3.379094E-16
5.270000E+03	2.429460E-14	3.313870E-16
5.280000E+03	2.380915E-14	3.245108E-16
5.290000E+03	2.331250E-14	3.175310E-16
5.300000E+03	2.282144E-14	3.106774E-16
5.310000E+03	2.235096E-14	3.041540E-16
5.320000E+03	2.191324E-14	2.981267E-16
5.330000E+03	2.151654E-14	2.927076E-16
5.340000E+03	2.116561E-14	2.879614E-16
5.350000E+03	2.086137E-14	2.839013E-16
5.360000E+03	2.060121E-14	2.804928E-16
5.370000E+03	2.037953E-14	2.776612E-16
5.380000E+03	2.018855E-14	2.753021E-16
5.390000E+03	2.001899E-14	2.732911E-16
5.400000E+03	1.986068E-14	2.714911E-16
5.410000E+03	1.970383E-14	2.697688E-16
5.420000E+03	1.954000E-14	2.680069E-16
5.430000E+03	1.936290E-14	2.661159E-16
5.440000E+03	1.917073E-14	2.640675E-16
5.450000E+03	1.896671E-14	2.619013E-16
5.460000E+03	1.875835E-14	2.597161E-16
5.470000E+03	1.855433E-14	2.576285E-16
5.480000E+03	1.836448E-14	2.557720E-16
5.490000E+03	1.819730E-14	2.542639E-16
5.500000E+03	1.806112E-14	2.532205E-16
5.510000E+03	1.796251E-14	2.527358E-16
5.520000E+03	1.790561E-14	2.528715E-16
5.530000E+03	1.789159E-14	2.536483E-16
5.540000E+03	1.791791E-14	2.550349E-16
5.550000E+03	1.797887E-14	2.569551E-16
5.560000E+03	1.806604E-14	2.592924E-16
5.570000E+03	1.816896E-14	2.618994E-16
5.580000E+03	1.827569E-14	2.646048E-16
5.590000E+03	1.837404E-14	2.672310E-16
5.600000E+03	1.845229E-14	2.696036E-16
5.610000E+03	1.849994E-14	2.715631E-16
5.620000E+03	1.850840E-14	2.729750E-16
5.630000E+03	1.847186E-14	2.737434E-16
5.640000E+03	1.838768E-14	2.738178E-16
5.650000E+03	1.825589E-14	2.731866E-16
5.660000E+03	1.807945E-14	2.718818E-16
5.670000E+03	1.786447E-14	2.699841E-16
5.680000E+03	1.761885E-14	2.676033E-16
5.690000E+03	1.735176E-14	2.648702E-16
5.700000E+03	1.707395E-14	2.619431E-16
5.710000E+03	1.679661E-14	2.589905E-16
5.720000E+03	1.653054E-14	2.561786E-16
5.730000E+03	1.628616E-14	2.536709E-16
5.740000E+03	1.607323E-14	2.516238E-16
5.750000E+03	1.589990E-14	2.501723E-16
5.760000E+03	1.577347E-14	2.494399E-16
5.770000E+03	1.569890E-14	2.495163E-16
5.780000E+03	1.567998E-14	2.504734E-16
5.790000E+03	1.571844E-14	2.523521E-16
5.800000E+03	1.581436E-14	2.551666E-16
5.810000E+03	1.596543E-14	2.588932E-16
5.820000E+03	1.616778E-14	2.634819E-16
5.830000E+03	1.641544E-14	2.688468E-16
5.840000E+03	1.670040E-14	2.748667E-16
5.850000E+03	1.701351E-14	2.813992E-16
5.860000E+03	1.734361E-14	2.882657E-16
5.870000E+03	1.767880E-14	2.952709E-16
5.880000E+03	1.800594E-14	3.021957E-16
5.890000E+03	1.831180E-14	3.088147E-16
5.900000E+03	1.858286E-14	3.148936E-16
5.910000E+03	1.880584E-14	3.201978E-16
5.920000E+03	1.896824E-14	3.245020E-16
5.930000E+03	1.905786E-14	3.275814E-16
5.940000E+03	1.906461E-14	3.292444E-16
5.950000E+03	1.897958E-14	3.293163E-16
5.960000E+03	1.879591E-14	3.276555E-16
5.970000E+03	1.850901E-14	3.241576E-16
5.980000E+03	1.811771E-14	3.187773E-16
5.990000E+03	1.762437E-14	3.115310E-16
6.000000E+03	1.703459E-14	3.024934E-16
6.010000E+03	1.635893E-14	2.918297E-16
6.020000E+03	1.561139E-14	2.797697E-16
6.030000E+03	1.480984E-14	2.666177E-16
6.040000E+03	1.397435E-14	2.527234E-16
6.050000E+03	1.312727E-14	2.384842E-16
6.060000E+03	1.229079E-14	2.243021E-16
6.070000E+03	1.148589E-14	2.105641E-16
6.080000E+03	1.073153E-14	1.976269E-16
6.090000E+03	1.004372E-14	1.857989E-16
6.100000E+03	9.434685E-15	1.753235E-16
6.110000E+03	8.913398E-15	1.663876E-16
6.120000E+03	8.485480E-15	1.591187E-16
6.130000E+03	8.154215E-15	1.536018E-16
6.140000E+03	7.921010E-15	1.498883E-16
6.150000E+03	7.785925E-15	1.480045E-16
6.160000E+03	7.748586E-15	1.479686E-16
6.170000E+03	7.808340E-15	1.497939E-16
6.180000E+03	7.964003E-15	1.534833E-16
6.190000E+03	8.213898E-15	1.590301E-16
6.200000E+03	8.555007E-15	1.664011E-16
6.210000E+03	8.982623E-15	1.755297E-16
6.220000E+03	9.489437E-15	1.862967E-16
6.230000E+03	1.006521E-14	1.985227E-16
6.240000E+03	1.069670E-14	2.119656E-16
6.250000E+03	1.136805E-14	2.263264E-16
6.260000E+03	1.206235E-14	2.412793E-16
6.270000E+03	1.276219E-14	2.564823E-16
6.280000E+03	1.344982E-14	2.715803E-16
6.290000E+03	1.410768E-14	2.862147E-16
6.300000E+03	1.471926E-14	3.000423E-16
6.310000E+03	1.527064E-14	3.127652E-16
6.320000E+03	1.574955E-14	3.241139E-16
6.330000E+03	1.614817E-14	3.339056E-16
6.340000E+03	1.646094E-14	3.420009E-16
6.350000E+03	1.668608E-14	3.483367E-16
6.360000E+03	1.682530E-14	3.529224E-16
6.370000E+03	1.688213E-14	3.558058E-16
6.380000E+03	1.686231E-14	3.570828E-16
6.390000E+03	1.677299E-14	3.568820E-16
6.400000E+03	1.662255E-14	3.553603E-16
6.410000E+03	1.641910E-14	3.526728E-16
6.420000E+03	1.617083E-14	3.489788E-16
6.430000E+03	1.588625E-14	3.444489E-16
6.440000E+03	1.557391E-14	3.392570E-16
6.450000E+03	1.524223E-14	3.335787E-16
6.460000E+03	1.489923E-14	3.275834E-16
6.470000E+03	1.455295E-14	3.214447E-16
6.480000E+03	1.421101E-14	3.153306E-16
6.490000E+03	1.388077E-14	3.094056E-16
6.500000E+03	1.356863E-14	3.038162E-16
6.510000E+03	1.327999E-14	2.986891E-16
6.520000E+03	1.301919E-14	2.941293E-16
6.530000E+03	1.278782E-14	2.901810E-16
6.540000E+03	1.258530E-14	2.868394E-16
6.550000E+03	1.240791E-14	2.840278E-16
6.560000E+03	1.225079E-14	2.816419E-16
6.570000E+03	1.210814E-14	2.795534E-16
6.580000E+03	1.197450E-14	2.776400E-16
6.590000E+03	1.184493E-14	2.757891E-16
6.600000E+03	1.171547E-14	2.739090E-16
6.610000E+03	1.158241E-14	2.719129E-16
6.620000E+03	1.144376E-14	2.697524E-16
6.630000E+03	1.129779E-14	2.673851E-16
6.640000E+03	1.114379E-14	2.647920E-16
6.650000E+03	1.098195E-14	2.619754E-16
6.660000E+03	1.081249E-14	2.589384E-16
6.670000E+03	1.063678E-14	2.557120E-16
6.680000E+03	1.045596E-14	2.523222E-16
6.690000E+03	1.027153E-14	2.488041E-16
6.700000E+03	1.008521E-14	2.451986E-16
6.710000E+03	9.898338E-15	2.415385E-16
6.720000E+03	9.712361E-15	2.378590E-16
6.730000E+03	9.528579E-15	2.341928E-16
6.740000E+03	9.348309E-15	2.305732E-16
6.750000E+03	9.172371E-15	2.270218E-16
6.760000E+03	9.001598E-15	2.235607E-16
6.770000E+03	8.836832E-15	2.202126E-16
6.780000E+03	8.678462E-15	2.169890E-16
6.790000E+03	8.526920E-15	2.139028E-16
6.800000E+03	8.382688E-15	2.109682E-16
6.810000E+03	8.245715E-15	2.081859E-16
6.820000E+03	8.116482E-15	2.055702E-16
6.830000E+03	7.995117E-15	2.031265E-16
6.840000E+03	7.881398E-15	2.008514E-16
6.850000E+03	7.775603E-15	1.987541E-16
6.860000E+03	7.677494E-15	1.968306E-16
6.870000E+03	7.586882E-15	1.950779E-16
6.880000E+03	7.503478E-15	1.934908E-16
6.890000E+03	7.426904E-15	1.920611E-16
6.900000E+03	7.356834E-15	1.907822E-16
6.910000E+03	7.292462E-15	1.896347E-16
6.920000E+03	7.233475E-15	1.886121E-16
6.930000E+03	7.178988E-15	1.876924E-16
6.940000E+03	7.128644E-15	1.868674E-16
6.950000E+03	7.081558E-15	1.861149E-16
6.960000E+03	7.037409E-15	1.854274E-16
6.970000E+03	6.995379E-15	1.847840E-16
6.980000E+03	6.955102E-15	1.841756E-16
6.990000E+03	6.916136E-15	1.835911E-16
7.000000E+03	6.877958E-15	1.830169E-16
7.010000E+03	6.840507E-15	1.824517E-16
7.020000E+03	6.803238E-15	1.818815E-16
7.030000E+03	6.765930E-15	1.813003E-16
7.040000E+03	6.728536E-15	1.807073E-16
7.050000E+03	6.690920E-15	1.800988E-16
7.060000E+03	6.652848E-15	1.794689E-16
7.070000E+03	6.614255E-15	1.788158E-16
7.080000E+03	6.575237E-15	1.781423E-16
7.090000E+03	6.535656E-15	1.774448E-16
7.100000E+03	6.495540E-15	1.767242E-16
7.110000E+03	6.454939E-15	1.759820E-16
7.120000E+03	6.414053E-15	1.752238E-16
7.130000E+03	6.372695E-15	1.744447E-16
7.140000E+03	6.331184E-15	1.736537E-16
7.150000E+03	6.289275E-15	1.728441E-16
7.160000E+03	6.247054E-15	1.720185E-16
7.170000E+03	6.204390E-15	1.711736E-16
7.180000E+03	6.161062E-15	1.703034E-16
7.190000E+03	6.116612E-15	1.693953E-16
7.200000E+03	6.070744E-15	1.684412E-16
7.210000E+03	6.022925E-15	1.674263E-16
7.220000E+03	5.972409E-15	1.663299E-16
7.230000E+03	5.918503E-15	1.651323E-16
7.240000E+03	5.860580E-15	1.638159E-16
7.250000E+03	5.797731E-15	1.623546E-16
7.260000E+03	5.729162E-15	1.607259E-16
7.270000E+03	5.654233E-15	1.589111E-16
7.280000E+03	5.572113E-15	1.568860E-16
7.290000E+03	5.482200E-15	1.546328E-16
7.300000E+03	5.384275E-15	1.521443E-16
7.310000E+03	5.277707E-15	1.494018E-16
7.320000E+03	5.162810E-15	1.464128E-16
7.330000E+03	5.039579E-15	1.431763E-16
7.340000E+03	4.908766E-15	1.397125E-16
7.350000E+03	4.771077E-15	1.360404E-16
7.360000E+03	4.627732E-15	1.321940E-16
7.370000E+03	4.480206E-15	1.282146E-16
7.380000E+03	4.329995E-15	1.241445E-16
7.390000E+03	4.179170E-15	1.200429E-16
7.400000E+03	4.029519E-15	1.159609E-16
7.410000E+03	3.882993E-15	1.119552E-16
7.420000E+03	3.741901E-15	1.080927E-16
7.430000E+03	3.607859E-15	1.044211E-16
7.440000E+03	3.482907E-15	1.010007E-16
7.450000E+03	3.368673E-15	9.788011E-17
7.460000E+03	3.266454E-15	9.509891E-17
7.470000E+03	3.177436E-15	9.269368E-17
7.480000E+03	3.102657E-15	9.069704E-17
7.490000E+03	3.042850E-15	8.913294E-17
7.500000E+03	2.998581E-15	8.802072E-17
7.510000E+03	2.970102E-15	8.737066E-17
7.520000E+03	2.957431E-15	8.718631E-17
7.530000E+03	2.960438E-15	8.746696E-17
7.540000E+03	2.978789E-15	8.820584E-17
7.550000E+03	3.011881E-15	8.938820E-17
7.560000E+03	3.059054E-15	9.099746E-17
7.570000E+03	3.119203E-15	9.300377E-17
7.580000E+03	3.191293E-15	9.537915E-17
7.590000E+03	3.273811E-15	9.808104E-17
7.600000E+03	3.364975E-15	1.010585E-16
7.610000E+03	3.462931E-15	1.042580E-16
7.620000E+03	3.565469E-15	1.076147E-16
7.630000E+03	3.670492E-15	1.110665E-16
7.640000E+03	3.775961E-15	1.145527E-16
7.650000E+03	3.880073E-15	1.180187E-16
7.660000E+03	3.981570E-15	1.214265E-16
7.670000E+03	4.079253E-15	1.247391E-16
7.680000E+03	4.172340E-15	1.279319E-16
7.690000E+03	4.260148E-15	1.309832E-16
7.700000E+03	4.342087E-15	1.338738E-16
7.710000E+03	4.418005E-15	1.365979E-16
7.720000E+03	4.487850E-15	1.391526E-16
7.730000E+03	4.551773E-15	1.415412E-16
7.740000E+03	4.610077E-15	1.437720E-16
7.750000E+03	4.663161E-15	1.458562E-16
7.760000E+03	4.711469E-15	1.478065E-16
