#wls	flux	fluxerr
1.600000E+03	1.243358E-16	9.281372E-18
1.640000E+03	1.197769E-16	8.924178E-18
1.680000E+03	1.155647E-16	8.593796E-18
1.720000E+03	1.117487E-16	8.293777E-18
1.760000E+03	1.082882E-16	8.020958E-18
1.800000E+03	1.052093E-16	7.777136E-18
1.840000E+03	1.025160E-16	7.562463E-18
1.880000E+03	1.002524E-16	7.380017E-18
1.920000E+03	9.836651E-17	7.225799E-18
1.960000E+03	9.692537E-17	7.104568E-18
2.000000E+03	9.592347E-17	7.015716E-18
2.040000E+03	9.538059E-17	6.960485E-18
2.080000E+03	9.534465E-17	6.942145E-18
2.120000E+03	9.584308E-17	6.962441E-18
2.160000E+03	9.697904E-17	7.028583E-18
2.200000E+03	9.881774E-17	7.144960E-18
2.240000E+03	1.014499E-16	7.317748E-18
2.280000E+03	1.049788E-16	7.553952E-18
2.320000E+03	1.094629E-16	7.857296E-18
2.360000E+03	1.149300E-16	8.229221E-18
2.400000E+03	1.214073E-16	8.671113E-18
2.440000E+03	1.288626E-16	9.180076E-18
2.480000E+03	1.373096E-16	9.756492E-18
2.520000E+03	1.466980E-16	1.039618E-17
2.560000E+03	1.569260E-16	1.109134E-17
2.600000E+03	1.679464E-16	1.183807E-17
2.640000E+03	1.796518E-16	1.262829E-17
2.680000E+03	1.919718E-16	1.345653E-17
2.720000E+03	2.048580E-16	1.431897E-17
2.760000E+03	2.182481E-16	1.521078E-17
2.800000E+03	2.321283E-16	1.613058E-17
2.840000E+03	2.465784E-16	1.708346E-17
2.880000E+03	2.615621E-16	1.806643E-17
2.920000E+03	2.772122E-16	1.908813E-17
2.960000E+03	2.936178E-16	2.015411E-17
3.000000E+03	3.109753E-16	2.127716E-17
3.010000E+03	3.154702E-16	2.156721E-17
3.020000E+03	3.200639E-16	2.186344E-17
3.030000E+03	3.247173E-16	2.216318E-17
3.040000E+03	3.294321E-16	2.246652E-17
3.050000E+03	3.342525E-16	2.277646E-17
3.060000E+03	3.391813E-16	2.309317E-17
3.070000E+03	3.442212E-16	2.341682E-17
3.080000E+03	3.493321E-16	2.374466E-17
3.090000E+03	3.545162E-16	2.407681E-17
3.100000E+03	3.598628E-16	2.441933E-17
3.110000E+03	3.652881E-16	2.476650E-17
3.120000E+03	3.708386E-16	2.512146E-17
3.130000E+03	3.765617E-16	2.548739E-17
3.140000E+03	3.823723E-16	2.585849E-17
3.150000E+03	3.883177E-16	2.623795E-17
3.160000E+03	3.944012E-16	2.662596E-17
3.170000E+03	4.006713E-16	2.702577E-17
3.180000E+03	4.070868E-16	2.743456E-17
3.190000E+03	4.136508E-16	2.785251E-17
3.200000E+03	4.203667E-16	2.827982E-17
3.210000E+03	4.272841E-16	2.871980E-17
3.220000E+03	4.344072E-16	2.917268E-17
3.230000E+03	4.416930E-16	2.963554E-17
3.240000E+03	4.491445E-16	3.010854E-17
3.250000E+03	4.568598E-16	3.059823E-17
3.260000E+03	4.647479E-16	3.109845E-17
3.270000E+03	4.728595E-16	3.161257E-17
3.280000E+03	4.811980E-16	3.214077E-17
3.290000E+03	4.898152E-16	3.268644E-17
3.300000E+03	4.986170E-16	3.324328E-17
3.310000E+03	5.077034E-16	3.381790E-17
3.320000E+03	5.170283E-16	3.440717E-17
3.330000E+03	5.266432E-16	3.501446E-17
3.340000E+03	5.365003E-16	3.563655E-17
3.350000E+03	5.466006E-16	3.627344E-17
3.360000E+03	5.570457E-16	3.693183E-17
3.370000E+03	5.677352E-16	3.760500E-17
3.380000E+03	5.787708E-16	3.829961E-17
3.390000E+03	5.900495E-16	3.900879E-17
3.400000E+03	6.016724E-16	3.973917E-17
3.410000E+03	6.135860E-16	4.048714E-17
3.420000E+03	6.257869E-16	4.125241E-17
3.430000E+03	6.383236E-16	4.203813E-17
3.440000E+03	6.511387E-16	4.284044E-17
3.450000E+03	6.643324E-16	4.366587E-17
3.460000E+03	6.777920E-16	4.450693E-17
3.470000E+03	6.915630E-16	4.536656E-17
3.480000E+03	7.056907E-16	4.624766E-17
3.490000E+03	7.201120E-16	4.714601E-17
3.500000E+03	7.348165E-16	4.806088E-17
3.510000E+03	7.498475E-16	4.899503E-17
3.520000E+03	7.651938E-16	4.994766E-17
3.530000E+03	7.807881E-16	5.091430E-17
3.540000E+03	7.967287E-16	5.190131E-17
3.550000E+03	8.129481E-16	5.290423E-17
3.560000E+03	8.294343E-16	5.392220E-17
3.570000E+03	8.461755E-16	5.495440E-17
3.580000E+03	8.632733E-16	5.600735E-17
3.590000E+03	8.806056E-16	5.707308E-17
3.600000E+03	8.982205E-16	5.815464E-17
3.610000E+03	9.161110E-16	5.925151E-17
3.620000E+03	9.343292E-16	6.036698E-17
3.630000E+03	9.527584E-16	6.149348E-17
3.640000E+03	9.715684E-16	6.264188E-17
3.650000E+03	9.906477E-16	6.380491E-17
3.660000E+03	1.010113E-15	6.499006E-17
3.670000E+03	1.029858E-15	6.619034E-17
3.680000E+03	1.050005E-15	6.741354E-17
3.690000E+03	1.070506E-15	6.865661E-17
3.700000E+03	1.091431E-15	6.992377E-17
3.710000E+03	1.112790E-15	7.121574E-17
3.720000E+03	1.134598E-15	7.253327E-17
3.730000E+03	1.156808E-15	7.387331E-17
3.740000E+03	1.179600E-15	7.524726E-17
3.750000E+03	1.202812E-15	7.664460E-17
3.760000E+03	1.226616E-15	7.807626E-17
3.770000E+03	1.250896E-15	7.953470E-17
3.780000E+03	1.275700E-15	8.102283E-17
3.790000E+03	1.301067E-15	8.254306E-17
3.800000E+03	1.326912E-15	8.408990E-17
3.810000E+03	1.353198E-15	8.566080E-17
3.820000E+03	1.379932E-15	8.725617E-17
3.830000E+03	1.407049E-15	8.887185E-17
3.840000E+03	1.434474E-15	9.050290E-17
3.850000E+03	1.462055E-15	9.213980E-17
3.860000E+03	1.489804E-15	9.378313E-17
3.870000E+03	1.517597E-15	9.542520E-17
3.880000E+03	1.545245E-15	9.705398E-17
3.890000E+03	1.572600E-15	9.866035E-17
3.900000E+03	1.599621E-15	1.002417E-16
3.910000E+03	1.626028E-15	1.017806E-16
3.920000E+03	1.651708E-15	1.032701E-16
3.930000E+03	1.676488E-15	1.046996E-16
3.940000E+03	1.700195E-15	1.060584E-16
3.950000E+03	1.722665E-15	1.073366E-16
3.960000E+03	1.743792E-15	1.085279E-16
3.970000E+03	1.763378E-15	1.096202E-16
3.980000E+03	1.781292E-15	1.106057E-16
3.990000E+03	1.797425E-15	1.114781E-16
4.000000E+03	1.811743E-15	1.122356E-16
4.010000E+03	1.824078E-15	1.128681E-16
4.020000E+03	1.834497E-15	1.133804E-16
4.030000E+03	1.842989E-15	1.137721E-16
4.040000E+03	1.849470E-15	1.140384E-16
4.050000E+03	1.854034E-15	1.141857E-16
4.060000E+03	1.856797E-15	1.142215E-16
4.070000E+03	1.857753E-15	1.141457E-16
4.080000E+03	1.857015E-15	1.139658E-16
4.090000E+03	1.854761E-15	1.136929E-16
4.100000E+03	1.851130E-15	1.133361E-16
4.110000E+03	1.846191E-15	1.128997E-16
4.120000E+03	1.840150E-15	1.123967E-16
4.130000E+03	1.833134E-15	1.118351E-16
4.140000E+03	1.825357E-15	1.112281E-16
4.150000E+03	1.816905E-15	1.105812E-16
4.160000E+03	1.807990E-15	1.099074E-16
4.170000E+03	1.798736E-15	1.092142E-16
4.180000E+03	1.789266E-15	1.085094E-16
4.190000E+03	1.779772E-15	1.078044E-16
4.200000E+03	1.770327E-15	1.071039E-16
4.210000E+03	1.761074E-15	1.064164E-16
4.220000E+03	1.752113E-15	1.057480E-16
4.230000E+03	1.743574E-15	1.051063E-16
4.240000E+03	1.735545E-15	1.044967E-16
4.250000E+03	1.728114E-15	1.039242E-16
4.260000E+03	1.721394E-15	1.033957E-16
4.270000E+03	1.715435E-15	1.029139E-16
4.280000E+03	1.710315E-15	1.024833E-16
4.290000E+03	1.706142E-15	1.021103E-16
4.300000E+03	1.702990E-15	1.017991E-16
4.310000E+03	1.700877E-15	1.015505E-16
4.320000E+03	1.699936E-15	1.013723E-16
4.330000E+03	1.700183E-15	1.012651E-16
4.340000E+03	1.701693E-15	1.012332E-16
4.350000E+03	1.704536E-15	1.012805E-16
4.360000E+03	1.708730E-15	1.014078E-16
4.370000E+03	1.714340E-15	1.016186E-16
4.380000E+03	1.721403E-15	1.019149E-16
4.390000E+03	1.729946E-15	1.022980E-16
4.400000E+03	1.739965E-15	1.027673E-16
4.410000E+03	1.751472E-15	1.033232E-16
4.420000E+03	1.764462E-15	1.039651E-16
4.430000E+03	1.778914E-15	1.046916E-16
4.440000E+03	1.794763E-15	1.054984E-16
4.450000E+03	1.811970E-15	1.063831E-16
4.460000E+03	1.830446E-15	1.073400E-16
4.470000E+03	1.850148E-15	1.083666E-16
4.480000E+03	1.870980E-15	1.094569E-16
4.490000E+03	1.892842E-15	1.106048E-16
4.500000E+03	1.915602E-15	1.118025E-16
4.510000E+03	1.939101E-15	1.130405E-16
4.520000E+03	1.963124E-15	1.143062E-16
4.530000E+03	1.987482E-15	1.155886E-16
4.540000E+03	2.011964E-15	1.168752E-16
4.550000E+03	2.036287E-15	1.181498E-16
4.560000E+03	2.060207E-15	1.193981E-16
4.570000E+03	2.083418E-15	1.206027E-16
4.580000E+03	2.105663E-15	1.217488E-16
4.590000E+03	2.126639E-15	1.228191E-16
4.600000E+03	2.146134E-15	1.238018E-16
4.610000E+03	2.163843E-15	1.246796E-16
4.620000E+03	2.179601E-15	1.254432E-16
4.630000E+03	2.193161E-15	1.260790E-16
4.640000E+03	2.204422E-15	1.265817E-16
4.650000E+03	2.213240E-15	1.269434E-16
4.660000E+03	2.219572E-15	1.271622E-16
4.670000E+03	2.223363E-15	1.272354E-16
4.680000E+03	2.224628E-15	1.271644E-16
4.690000E+03	2.223452E-15	1.269546E-16
4.700000E+03	2.219904E-15	1.266104E-16
4.710000E+03	2.214141E-15	1.261411E-16
4.720000E+03	2.206271E-15	1.255535E-16
4.730000E+03	2.196500E-15	1.248595E-16
4.740000E+03	2.185033E-15	1.240713E-16
4.750000E+03	2.172052E-15	1.231993E-16
4.760000E+03	2.157725E-15	1.222535E-16
4.770000E+03	2.142320E-15	1.212493E-16
4.780000E+03	2.125970E-15	1.201944E-16
4.790000E+03	2.108910E-15	1.191021E-16
4.800000E+03	2.091301E-15	1.179818E-16
4.810000E+03	2.073297E-15	1.168422E-16
4.820000E+03	2.055082E-15	1.156938E-16
4.830000E+03	2.036752E-15	1.145418E-16
4.840000E+03	2.018411E-15	1.133923E-16
4.850000E+03	2.000144E-15	1.122498E-16
4.860000E+03	1.982048E-15	1.111200E-16
4.870000E+03	1.964163E-15	1.100048E-16
4.880000E+03	1.946537E-15	1.089070E-16
4.890000E+03	1.929212E-15	1.078289E-16
4.900000E+03	1.912224E-15	1.067723E-16
4.910000E+03	1.895562E-15	1.057366E-16
4.920000E+03	1.879301E-15	1.047258E-16
4.930000E+03	1.863427E-15	1.037393E-16
4.940000E+03	1.847997E-15	1.027799E-16
4.950000E+03	1.833047E-15	1.018497E-16
4.960000E+03	1.818579E-15	1.009486E-16
4.970000E+03	1.804660E-15	1.000804E-16
4.980000E+03	1.791367E-15	9.924897E-17
4.990000E+03	1.778699E-15	9.845436E-17
5.000000E+03	1.766782E-15	9.770339E-17
5.010000E+03	1.755633E-15	9.699682E-17
5.020000E+03	1.745365E-15	9.634079E-17
5.030000E+03	1.736040E-15	9.573863E-17
5.040000E+03	1.727742E-15	9.519472E-17
5.050000E+03	1.720555E-15	9.471360E-17
5.060000E+03	1.714564E-15	9.429972E-17
5.070000E+03	1.709849E-15	9.395732E-17
5.080000E+03	1.706489E-15	9.369055E-17
5.090000E+03	1.704557E-15	9.350321E-17
5.100000E+03	1.704120E-15	9.339880E-17
5.110000E+03	1.705220E-15	9.337937E-17
5.120000E+03	1.707944E-15	9.344948E-17
5.130000E+03	1.712295E-15	9.360914E-17
5.140000E+03	1.718342E-15	9.386178E-17
5.150000E+03	1.726061E-15	9.420606E-17
5.160000E+03	1.735481E-15	9.464316E-17
5.170000E+03	1.746608E-15	9.517334E-17
5.180000E+03	1.759385E-15	9.579319E-17
5.190000E+03	1.773811E-15	9.650259E-17
5.200000E+03	1.789800E-15	9.729655E-17
5.210000E+03	1.807320E-15	9.817325E-17
5.220000E+03	1.826272E-15	9.912715E-17
5.230000E+03	1.846560E-15	1.001529E-16
5.240000E+03	1.868072E-15	1.012442E-16
5.250000E+03	1.890683E-15	1.023944E-16
5.260000E+03	1.914255E-15	1.035957E-16
5.270000E+03	1.938657E-15	1.048411E-16
5.280000E+03	1.963704E-15	1.061205E-16
5.290000E+03	1.989226E-15	1.074247E-16
5.300000E+03	2.015059E-15	1.087449E-16
5.310000E+03	2.040995E-15	1.100699E-16
5.320000E+03	2.066837E-15	1.113890E-16
5.330000E+03	2.092384E-15	1.126916E-16
5.340000E+03	2.117438E-15	1.139669E-16
5.350000E+03	2.141815E-15	1.152055E-16
5.360000E+03	2.165296E-15	1.163953E-16
5.370000E+03	2.187686E-15	1.175263E-16
5.380000E+03	2.208791E-15	1.185881E-16
5.390000E+03	2.228435E-15	1.195715E-16
5.400000E+03	2.246471E-15	1.204687E-16
5.410000E+03	2.262704E-15	1.212696E-16
5.420000E+03	2.277024E-15	1.219683E-16
5.430000E+03	2.289347E-15	1.225608E-16
5.440000E+03	2.299545E-15	1.230402E-16
5.450000E+03	2.307590E-15	1.234054E-16
5.460000E+03	2.313436E-15	1.236541E-16
5.470000E+03	2.317114E-15	1.237881E-16
5.480000E+03	2.318629E-15	1.238079E-16
5.490000E+03	2.318038E-15	1.237167E-16
5.500000E+03	2.315416E-15	1.235186E-16
5.510000E+03	2.310858E-15	1.232189E-16
5.520000E+03	2.304479E-15	1.228238E-16
5.530000E+03	2.296440E-15	1.223420E-16
5.540000E+03	2.286857E-15	1.217797E-16
5.550000E+03	2.275964E-15	1.211495E-16
5.560000E+03	2.263969E-15	1.204626E-16
5.570000E+03	2.251081E-15	1.197300E-16
5.580000E+03	2.237575E-15	1.189664E-16
5.590000E+03	2.223718E-15	1.181861E-16
5.600000E+03	2.209804E-15	1.174045E-16
5.610000E+03	2.196095E-15	1.166357E-16
5.620000E+03	2.182868E-15	1.158943E-16
5.630000E+03	2.170396E-15	1.151946E-16
5.640000E+03	2.158963E-15	1.145518E-16
5.650000E+03	2.148810E-15	1.139785E-16
5.660000E+03	2.140117E-15	1.134841E-16
5.670000E+03	2.133140E-15	1.130821E-16
5.680000E+03	2.127975E-15	1.127777E-16
5.690000E+03	2.124794E-15	1.125796E-16
5.700000E+03	2.123686E-15	1.124927E-16
5.710000E+03	2.124676E-15	1.125181E-16
5.720000E+03	2.127771E-15	1.126560E-16
5.730000E+03	2.132933E-15	1.129045E-16
5.740000E+03	2.140102E-15	1.132603E-16
5.750000E+03	2.149107E-15	1.137142E-16
5.760000E+03	2.159823E-15	1.142596E-16
5.770000E+03	2.172038E-15	1.148853E-16
5.780000E+03	2.185463E-15	1.155759E-16
5.790000E+03	2.199834E-15	1.163174E-16
5.800000E+03	2.214819E-15	1.170924E-16
5.810000E+03	2.230127E-15	1.178855E-16
5.820000E+03	2.245389E-15	1.186771E-16
5.830000E+03	2.260230E-15	1.194474E-16
5.840000E+03	2.274297E-15	1.201778E-16
5.850000E+03	2.287274E-15	1.208517E-16
5.860000E+03	2.298844E-15	1.214524E-16
5.870000E+03	2.308680E-15	1.219626E-16
5.880000E+03	2.316580E-15	1.223717E-16
5.890000E+03	2.322325E-15	1.226681E-16
5.900000E+03	2.325748E-15	1.228431E-16
5.910000E+03	2.326803E-15	1.228942E-16
5.920000E+03	2.325414E-15	1.228175E-16
5.930000E+03	2.321609E-15	1.226143E-16
5.940000E+03	2.315484E-15	1.222900E-16
5.950000E+03	2.307150E-15	1.218501E-16
5.960000E+03	2.296756E-15	1.213027E-16
5.970000E+03	2.284553E-15	1.206610E-16
5.980000E+03	2.270733E-15	1.199350E-16
5.990000E+03	2.255553E-15	1.191383E-16
6.000000E+03	2.239301E-15	1.182862E-16
6.010000E+03	2.222206E-15	1.173906E-16
6.020000E+03	2.204556E-15	1.164667E-16
6.030000E+03	2.186606E-15	1.155281E-16
6.040000E+03	2.168580E-15	1.145864E-16
6.050000E+03	2.150674E-15	1.136520E-16
6.060000E+03	2.133112E-15	1.127368E-16
6.070000E+03	2.116045E-15	1.118487E-16
6.080000E+03	2.099624E-15	1.109957E-16
6.090000E+03	2.083950E-15	1.101830E-16
6.100000E+03	2.069122E-15	1.094160E-16
6.110000E+03	2.055208E-15	1.086982E-16
6.120000E+03	2.042224E-15	1.080305E-16
6.130000E+03	2.030193E-15	1.074141E-16
6.140000E+03	2.019127E-15	1.068497E-16
6.150000E+03	2.008979E-15	1.063346E-16
6.160000E+03	1.999707E-15	1.058669E-16
6.170000E+03	1.991257E-15	1.054435E-16
6.180000E+03	1.983546E-15	1.050601E-16
6.190000E+03	1.976520E-15	1.047138E-16
6.200000E+03	1.970176E-15	1.044044E-16
6.210000E+03	1.964466E-15	1.041295E-16
6.220000E+03	1.959341E-15	1.038864E-16
6.230000E+03	1.954770E-15	1.036734E-16
6.240000E+03	1.950697E-15	1.034878E-16
6.250000E+03	1.947072E-15	1.033266E-16
6.260000E+03	1.943823E-15	1.031862E-16
6.270000E+03	1.940894E-15	1.030636E-16
6.280000E+03	1.938228E-15	1.029557E-16
6.290000E+03	1.935742E-15	1.028582E-16
6.300000E+03	1.933347E-15	1.027662E-16
6.310000E+03	1.930982E-15	1.026766E-16
6.320000E+03	1.928513E-15	1.025822E-16
6.330000E+03	1.925836E-15	1.024775E-16
6.340000E+03	1.922795E-15	1.023540E-16
6.350000E+03	1.919291E-15	1.022066E-16
6.360000E+03	1.915101E-15	1.020232E-16
6.370000E+03	1.910102E-15	1.017973E-16
6.380000E+03	1.904082E-15	1.015175E-16
6.390000E+03	1.896823E-15	1.011720E-16
6.400000E+03	1.888155E-15	1.007517E-16
6.410000E+03	1.877872E-15	1.002455E-16
6.420000E+03	1.865731E-15	9.964018E-17
6.430000E+03	1.851574E-15	9.892730E-17
6.440000E+03	1.835187E-15	9.809511E-17
6.450000E+03	1.816446E-15	9.713689E-17
6.460000E+03	1.795205E-15	9.604457E-17
6.470000E+03	1.771365E-15	9.481266E-17
6.480000E+03	1.744871E-15	9.343797E-17
6.490000E+03	1.715690E-15	9.191848E-17
6.500000E+03	1.683893E-15	9.025781E-17
6.510000E+03	1.649548E-15	8.845937E-17
6.520000E+03	1.612793E-15	8.653024E-17
6.530000E+03	1.573833E-15	8.448127E-17
6.540000E+03	1.532902E-15	8.232485E-17
6.550000E+03	1.490281E-15	8.007578E-17
6.560000E+03	1.446279E-15	7.775053E-17
6.570000E+03	1.401261E-15	7.536862E-17
6.580000E+03	1.355546E-15	7.294702E-17
6.590000E+03	1.309529E-15	7.050699E-17
6.600000E+03	1.263528E-15	6.806556E-17
6.610000E+03	1.217892E-15	6.564147E-17
6.620000E+03	1.172936E-15	6.325174E-17
6.630000E+03	1.128963E-15	6.091268E-17
6.640000E+03	1.086220E-15	5.863779E-17
6.650000E+03	1.044962E-15	5.644082E-17
6.660000E+03	1.005351E-15	5.433065E-17
6.670000E+03	9.675850E-16	5.231810E-17
6.680000E+03	9.317832E-16	5.040978E-17
6.690000E+03	8.980462E-16	4.861127E-17
6.700000E+03	8.664458E-16	4.692662E-17
6.710000E+03	8.370276E-16	4.535848E-17
6.720000E+03	8.098141E-16	4.390824E-17
6.730000E+03	7.848170E-16	4.257672E-17
6.740000E+03	7.620037E-16	4.136235E-17
6.750000E+03	7.413638E-16	4.026474E-17
6.760000E+03	7.228490E-16	3.928144E-17
6.770000E+03	7.064115E-16	3.841006E-17
6.780000E+03	6.919969E-16	3.764782E-17
6.790000E+03	6.795468E-16	3.699171E-17
6.800000E+03	6.689995E-16	3.643855E-17
6.810000E+03	6.602995E-16	3.598550E-17
6.820000E+03	6.533758E-16	3.562884E-17
6.830000E+03	6.481647E-16	3.536528E-17
6.840000E+03	6.446041E-16	3.519157E-17
6.850000E+03	6.426319E-16	3.510449E-17
6.860000E+03	6.421881E-16	3.510089E-17
6.870000E+03	6.432132E-16	3.517768E-17
6.880000E+03	6.456485E-16	3.533178E-17
6.890000E+03	6.494446E-16	3.556062E-17
6.900000E+03	6.545286E-16	3.586036E-17
6.910000E+03	6.608595E-16	3.622884E-17
6.920000E+03	6.683642E-16	3.666221E-17
6.930000E+03	6.770012E-16	3.715830E-17
6.940000E+03	6.867045E-16	3.771359E-17
6.950000E+03	6.974149E-16	3.832495E-17
6.960000E+03	7.090716E-16	3.898913E-17
6.970000E+03	7.216130E-16	3.970284E-17
6.980000E+03	7.349754E-16	4.046266E-17
6.990000E+03	7.490937E-16	4.126510E-17
7.000000E+03	7.639006E-16	4.210653E-17
7.010000E+03	7.793273E-16	4.298323E-17
7.020000E+03	7.953030E-16	4.389135E-17
7.030000E+03	8.117553E-16	4.482697E-17
7.040000E+03	8.286100E-16	4.578604E-17
7.050000E+03	8.458016E-16	4.676498E-17
7.060000E+03	8.632323E-16	4.775842E-17
7.070000E+03	8.808337E-16	4.876261E-17
7.080000E+03	8.985375E-16	4.977379E-17
7.090000E+03	9.162530E-16	5.078695E-17
7.100000E+03	9.338877E-16	5.179696E-17
7.110000E+03	9.513844E-16	5.280065E-17
7.120000E+03	9.686515E-16	5.379293E-17
7.130000E+03	9.856102E-16	5.476941E-17
7.140000E+03	1.002183E-15	5.572576E-17
7.150000E+03	1.018296E-15	5.665777E-17
7.160000E+03	1.033876E-15	5.756141E-17
7.170000E+03	1.048869E-15	5.843358E-17
7.180000E+03	1.063184E-15	5.926918E-17
7.190000E+03	1.076790E-15	6.006638E-17
7.200000E+03	1.089620E-15	6.082144E-17
7.210000E+03	1.101644E-15	6.153248E-17
7.220000E+03	1.112807E-15	6.219648E-17
7.230000E+03	1.123078E-15	6.281158E-17
7.240000E+03	1.132435E-15	6.337640E-17
7.250000E+03	1.140875E-15	6.389070E-17
7.260000E+03	1.148378E-15	6.435330E-17
7.270000E+03	1.154958E-15	6.476489E-17
7.280000E+03	1.160625E-15	6.512596E-17
7.290000E+03	1.165367E-15	6.543564E-17
7.300000E+03	1.169252E-15	6.569773E-17
7.310000E+03	1.172296E-15	6.591306E-17
7.320000E+03	1.174520E-15	6.608268E-17
7.330000E+03	1.175984E-15	6.620984E-17
7.340000E+03	1.176732E-15	6.629703E-17
7.350000E+03	1.176804E-15	6.634632E-17
7.360000E+03	1.176282E-15	6.636238E-17
7.370000E+03	1.175210E-15	6.634756E-17
7.380000E+03	1.173646E-15	6.630510E-17
7.390000E+03	1.171668E-15	6.623935E-17
7.400000E+03	1.169307E-15	6.615197E-17
7.410000E+03	1.166640E-15	6.604735E-17
7.420000E+03	1.163746E-15	6.592995E-17
7.430000E+03	1.160672E-15	6.580230E-17
7.440000E+03	1.157478E-15	6.566789E-17
7.450000E+03	1.154241E-15	6.553104E-17
7.460000E+03	1.150987E-15	6.539326E-17
7.470000E+03	1.147791E-15	6.525871E-17
7.480000E+03	1.144719E-15	6.513133E-17
7.490000E+03	1.141795E-15	6.501235E-17
7.500000E+03	1.139081E-15	6.490537E-17
7.510000E+03	1.136621E-15	6.481293E-17
7.520000E+03	1.134439E-15	6.473650E-17
7.530000E+03	1.132569E-15	6.467799E-17
7.540000E+03	1.131057E-15	6.464004E-17
7.550000E+03	1.129909E-15	6.462314E-17
7.560000E+03	1.129139E-15	6.462811E-17
7.570000E+03	1.128760E-15	6.465569E-17
7.580000E+03	1.128769E-15	6.470584E-17
7.590000E+03	1.129158E-15	6.477816E-17
7.600000E+03	1.129913E-15	6.487179E-17
7.610000E+03	1.130992E-15	6.498443E-17
7.620000E+03	1.132375E-15	6.511493E-17
7.630000E+03	1.134001E-15	6.525986E-17
7.640000E+03	1.135830E-15	6.541692E-17
7.650000E+03	1.137798E-15	6.558244E-17
7.660000E+03	1.139816E-15	6.575135E-17
7.670000E+03	1.141805E-15	6.591902E-17
7.680000E+03	1.143695E-15	6.608144E-17
7.690000E+03	1.145383E-15	6.623265E-17
7.700000E+03	1.146781E-15	6.636748E-17
7.710000E+03	1.147815E-15	6.648159E-17
7.720000E+03	1.148385E-15	6.656916E-17
7.730000E+03	1.148426E-15	6.662637E-17
7.740000E+03	1.147845E-15	6.664772E-17
7.750000E+03	1.146576E-15	6.662927E-17
7.760000E+03	1.144575E-15	6.656833E-17
