#wls	flux	fluxerr
1.600000E+03	4.694585E-17	3.472678E-18
1.640000E+03	4.678195E-17	3.444571E-18
1.680000E+03	4.667418E-17	3.420395E-18
1.720000E+03	4.664093E-17	3.401434E-18
1.760000E+03	4.667641E-17	3.387191E-18
1.800000E+03	4.677514E-17	3.377196E-18
1.840000E+03	4.695576E-17	3.372717E-18
1.880000E+03	4.722106E-17	3.373860E-18
1.920000E+03	4.756608E-17	3.380174E-18
1.960000E+03	4.799401E-17	3.391788E-18
2.000000E+03	4.852423E-17	3.409962E-18
2.040000E+03	4.915237E-17	3.434265E-18
2.080000E+03	4.988222E-17	3.464833E-18
2.120000E+03	5.071765E-17	3.501803E-18
2.160000E+03	5.167921E-17	3.546444E-18
2.200000E+03	5.275471E-17	3.597759E-18
2.240000E+03	5.395666E-17	3.656441E-18
2.280000E+03	5.529789E-17	3.723180E-18
2.320000E+03	5.677424E-17	3.797507E-18
2.360000E+03	5.840734E-17	3.880673E-18
2.400000E+03	6.018380E-17	3.971573E-18
2.440000E+03	6.213436E-17	4.072023E-18
2.480000E+03	6.424469E-17	4.180848E-18
2.520000E+03	6.653663E-17	4.299235E-18
2.560000E+03	6.901363E-17	4.427154E-18
2.600000E+03	7.167892E-17	4.564554E-18
2.640000E+03	7.454617E-17	4.712044E-18
2.680000E+03	7.761309E-17	4.869207E-18
2.720000E+03	8.092249E-17	5.038446E-18
2.760000E+03	8.447813E-17	5.219675E-18
2.800000E+03	8.830666E-17	5.414215E-18
2.840000E+03	9.242567E-17	5.622792E-18
2.880000E+03	9.686619E-17	5.846927E-18
2.920000E+03	1.016622E-16	6.088269E-18
2.960000E+03	1.068512E-16	6.348636E-18
3.000000E+03	1.124749E-16	6.630047E-18
3.010000E+03	1.139470E-16	6.703526E-18
3.020000E+03	1.154504E-16	6.778529E-18
3.030000E+03	1.169855E-16	6.855070E-18
3.040000E+03	1.185532E-16	6.933189E-18
3.050000E+03	1.201540E-16	7.012906E-18
3.060000E+03	1.217885E-16	7.094251E-18
3.070000E+03	1.234574E-16	7.177258E-18
3.080000E+03	1.251613E-16	7.261945E-18
3.090000E+03	1.269011E-16	7.348353E-18
3.100000E+03	1.286772E-16	7.436506E-18
3.110000E+03	1.304905E-16	7.526443E-18
3.120000E+03	1.323418E-16	7.618194E-18
3.130000E+03	1.342318E-16	7.711794E-18
3.140000E+03	1.361613E-16	7.807281E-18
3.150000E+03	1.381314E-16	7.904697E-18
3.160000E+03	1.401426E-16	8.004075E-18
3.170000E+03	1.422102E-16	8.106266E-18
3.180000E+03	1.443069E-16	8.209704E-18
3.190000E+03	1.464620E-16	8.316049E-18
3.200000E+03	1.486623E-16	8.424541E-18
3.210000E+03	1.509091E-16	8.535230E-18
3.220000E+03	1.532180E-16	8.648998E-18
3.230000E+03	1.555608E-16	8.764237E-18
3.240000E+03	1.579684E-16	8.882669E-18
3.250000E+03	1.604270E-16	9.003520E-18
3.260000E+03	1.629534E-16	9.127704E-18
3.270000E+03	1.655184E-16	9.253582E-18
3.280000E+03	1.681541E-16	9.382930E-18
3.290000E+03	1.708621E-16	9.515830E-18
3.300000E+03	1.736132E-16	9.650629E-18
3.310000E+03	1.764400E-16	9.789143E-18
3.320000E+03	1.793447E-16	9.931460E-18
3.330000E+03	1.823132E-16	1.007680E-17
3.340000E+03	1.853474E-16	1.022524E-17
3.350000E+03	1.884493E-16	1.037689E-17
3.360000E+03	1.916537E-16	1.053364E-17
3.370000E+03	1.949137E-16	1.069289E-17
3.380000E+03	1.982647E-16	1.085657E-17
3.390000E+03	2.017092E-16	1.102482E-17
3.400000E+03	2.052333E-16	1.119683E-17
3.410000E+03	2.088564E-16	1.137367E-17
3.420000E+03	2.125644E-16	1.155454E-17
3.430000E+03	2.163777E-16	1.174053E-17
3.440000E+03	2.202994E-16	1.193178E-17
3.450000E+03	2.243153E-16	1.212753E-17
3.460000E+03	2.284286E-16	1.232791E-17
3.470000E+03	2.326789E-16	1.253504E-17
3.480000E+03	2.370336E-16	1.274716E-17
3.490000E+03	2.415128E-16	1.296530E-17
3.500000E+03	2.460991E-16	1.318854E-17
3.510000E+03	2.508122E-16	1.341790E-17
3.520000E+03	2.556536E-16	1.365345E-17
3.530000E+03	2.606246E-16	1.389522E-17
3.540000E+03	2.657265E-16	1.414327E-17
3.550000E+03	2.709409E-16	1.439661E-17
3.560000E+03	2.762881E-16	1.465631E-17
3.570000E+03	2.817695E-16	1.492240E-17
3.580000E+03	2.873859E-16	1.519494E-17
3.590000E+03	2.931179E-16	1.547286E-17
3.600000E+03	2.990071E-16	1.575834E-17
3.610000E+03	3.050131E-16	1.604924E-17
3.620000E+03	3.111783E-16	1.634777E-17
3.630000E+03	3.174613E-16	1.665174E-17
3.640000E+03	3.238835E-16	1.696226E-17
3.650000E+03	3.304454E-16	1.727933E-17
3.660000E+03	3.371475E-16	1.760298E-17
3.670000E+03	3.439900E-16	1.793318E-17
3.680000E+03	3.509731E-16	1.826996E-17
3.690000E+03	3.580969E-16	1.861329E-17
3.700000E+03	3.653614E-16	1.896316E-17
3.710000E+03	3.727664E-16	1.931956E-17
3.720000E+03	3.803116E-16	1.968246E-17
3.730000E+03	3.880203E-16	2.005305E-17
3.740000E+03	3.958450E-16	2.042887E-17
3.750000E+03	4.038083E-16	2.081109E-17
3.760000E+03	4.119096E-16	2.119967E-17
3.770000E+03	4.201478E-16	2.159454E-17
3.780000E+03	4.285218E-16	2.199566E-17
3.790000E+03	4.370303E-16	2.240296E-17
3.800000E+03	4.456973E-16	2.281765E-17
3.810000E+03	4.544708E-16	2.323708E-17
3.820000E+03	4.633743E-16	2.366246E-17
3.830000E+03	4.724315E-16	2.409500E-17
3.840000E+03	4.815889E-16	2.453198E-17
3.850000E+03	4.908963E-16	2.497594E-17
3.860000E+03	5.002988E-16	2.542410E-17
3.870000E+03	5.098466E-16	2.587902E-17
3.880000E+03	5.194836E-16	2.633786E-17
3.890000E+03	5.292335E-16	2.680185E-17
3.900000E+03	5.391206E-16	2.727222E-17
3.910000E+03	5.490866E-16	2.774605E-17
3.920000E+03	5.591556E-16	2.822457E-17
3.930000E+03	5.693520E-16	2.870904E-17
3.940000E+03	5.796157E-16	2.919644E-17
3.950000E+03	5.899706E-16	2.968802E-17
3.960000E+03	6.004126E-16	3.018358E-17
3.970000E+03	6.109082E-16	3.068147E-17
3.980000E+03	6.215108E-16	3.118440E-17
3.990000E+03	6.321573E-16	3.168925E-17
4.000000E+03	6.428720E-16	3.219726E-17
4.010000E+03	6.536199E-16	3.270671E-17
4.020000E+03	6.644553E-16	3.322038E-17
4.030000E+03	6.753130E-16	3.373501E-17
4.040000E+03	6.861870E-16	3.425037E-17
4.050000E+03	6.971016E-16	3.476771E-17
4.060000E+03	7.080514E-16	3.528681E-17
4.070000E+03	7.189991E-16	3.580584E-17
4.080000E+03	7.299697E-16	3.632612E-17
4.090000E+03	7.409257E-16	3.684580E-17
4.100000E+03	7.518603E-16	3.736462E-17
4.110000E+03	7.627669E-16	3.788230E-17
4.120000E+03	7.736704E-16	3.840012E-17
4.130000E+03	7.845323E-16	3.891624E-17
4.140000E+03	7.953459E-16	3.943037E-17
4.150000E+03	8.061039E-16	3.994222E-17
4.160000E+03	8.167995E-16	4.045150E-17
4.170000E+03	8.274256E-16	4.095792E-17
4.180000E+03	8.379751E-16	4.146119E-17
4.190000E+03	8.484406E-16	4.196101E-17
4.200000E+03	8.587828E-16	4.245549E-17
4.210000E+03	8.690265E-16	4.294593E-17
4.220000E+03	8.791648E-16	4.343204E-17
4.230000E+03	8.891575E-16	4.391190E-17
4.240000E+03	8.990302E-16	4.438684E-17
4.250000E+03	9.087426E-16	4.485493E-17
4.260000E+03	9.182870E-16	4.531586E-17
4.270000E+03	9.276892E-16	4.577096E-17
4.280000E+03	9.369086E-16	4.621828E-17
4.290000E+03	9.459375E-16	4.665752E-17
4.300000E+03	9.547349E-16	4.708670E-17
4.310000E+03	9.633594E-16	4.750879E-17
4.320000E+03	9.717698E-16	4.792179E-17
4.330000E+03	9.799246E-16	4.832374E-17
4.340000E+03	9.878487E-16	4.871589E-17
4.350000E+03	9.955338E-16	4.909791E-17
4.360000E+03	1.002938E-15	4.946776E-17
4.370000E+03	1.010087E-15	4.982679E-17
4.380000E+03	1.016947E-15	5.017338E-17
4.390000E+03	1.023520E-15	5.050761E-17
4.400000E+03	1.029838E-15	5.083116E-17
4.410000E+03	1.035870E-15	5.114255E-17
4.420000E+03	1.041616E-15	5.144175E-17
4.430000E+03	1.047045E-15	5.172733E-17
4.440000E+03	1.052226E-15	5.200256E-17
4.450000E+03	1.057125E-15	5.226587E-17
4.460000E+03	1.061714E-15	5.251578E-17
4.470000E+03	1.066027E-15	5.275402E-17
4.480000E+03	1.070066E-15	5.298061E-17
4.490000E+03	1.073802E-15	5.319414E-17
4.500000E+03	1.077270E-15	5.339623E-17
4.510000E+03	1.080441E-15	5.358551E-17
4.520000E+03	1.083317E-15	5.376200E-17
4.530000E+03	1.085936E-15	5.392754E-17
4.540000E+03	1.088270E-15	5.408070E-17
4.550000E+03	1.090320E-15	5.422155E-17
4.560000E+03	1.092094E-15	5.435038E-17
4.570000E+03	1.093627E-15	5.446888E-17
4.580000E+03	1.094861E-15	5.457419E-17
4.590000E+03	1.095833E-15	5.466802E-17
4.600000E+03	1.096579E-15	5.475216E-17
4.610000E+03	1.097045E-15	5.482382E-17
4.620000E+03	1.097265E-15	5.488470E-17
4.630000E+03	1.097246E-15	5.493508E-17
4.640000E+03	1.096964E-15	5.497369E-17
4.650000E+03	1.096457E-15	5.500238E-17
4.660000E+03	1.095730E-15	5.502136E-17
4.670000E+03	1.094792E-15	5.503097E-17
4.680000E+03	1.093618E-15	5.502993E-17
4.690000E+03	1.092246E-15	5.502012E-17
4.700000E+03	1.090653E-15	5.500031E-17
4.710000E+03	1.088876E-15	5.497230E-17
4.720000E+03	1.086893E-15	5.493489E-17
4.730000E+03	1.084741E-15	5.488990E-17
4.740000E+03	1.082396E-15	5.483614E-17
4.750000E+03	1.079898E-15	5.477543E-17
4.760000E+03	1.077249E-15	5.470793E-17
4.770000E+03	1.074404E-15	5.463127E-17
4.780000E+03	1.071452E-15	5.454993E-17
4.790000E+03	1.068318E-15	5.445997E-17
4.800000E+03	1.065063E-15	5.436450E-17
4.810000E+03	1.061693E-15	5.426379E-17
4.820000E+03	1.058188E-15	5.415674E-17
4.830000E+03	1.054555E-15	5.404365E-17
4.840000E+03	1.050826E-15	5.392612E-17
4.850000E+03	1.046982E-15	5.380309E-17
4.860000E+03	1.043053E-15	5.367612E-17
4.870000E+03	1.039021E-15	5.354415E-17
4.880000E+03	1.034916E-15	5.340874E-17
4.890000E+03	1.030717E-15	5.326880E-17
4.900000E+03	1.026456E-15	5.312587E-17
4.910000E+03	1.022113E-15	5.297887E-17
4.920000E+03	1.017692E-15	5.282801E-17
4.930000E+03	1.013249E-15	5.267608E-17
4.940000E+03	1.008712E-15	5.251944E-17
4.950000E+03	1.004161E-15	5.236209E-17
4.960000E+03	9.995268E-16	5.220043E-17
4.970000E+03	9.948855E-16	5.203841E-17
4.980000E+03	9.901933E-16	5.187370E-17
4.990000E+03	9.854777E-16	5.170770E-17
5.000000E+03	9.807188E-16	5.153935E-17
5.010000E+03	9.759434E-16	5.137003E-17
5.020000E+03	9.711549E-16	5.119988E-17
5.030000E+03	9.663334E-16	5.102783E-17
5.040000E+03	9.615046E-16	5.085521E-17
5.050000E+03	9.566715E-16	5.068216E-17
5.060000E+03	9.518364E-16	5.050878E-17
5.070000E+03	9.469796E-16	5.033401E-17
5.080000E+03	9.421259E-16	5.015914E-17
5.090000E+03	9.372775E-16	4.998426E-17
5.100000E+03	9.324362E-16	4.980946E-17
5.110000E+03	9.275825E-16	4.963368E-17
5.120000E+03	9.227611E-16	4.945930E-17
5.130000E+03	9.179309E-16	4.928409E-17
5.140000E+03	9.131149E-16	4.910929E-17
5.150000E+03	9.083144E-16	4.893494E-17
5.160000E+03	9.035304E-16	4.876109E-17
5.170000E+03	8.987644E-16	4.858781E-17
5.180000E+03	8.940172E-16	4.841514E-17
5.190000E+03	8.892695E-16	4.824201E-17
5.200000E+03	8.845626E-16	4.807066E-17
5.210000E+03	8.798769E-16	4.790002E-17
5.220000E+03	8.752132E-16	4.773012E-17
5.230000E+03	8.705519E-16	4.755989E-17
5.240000E+03	8.659332E-16	4.739152E-17
5.250000E+03	8.613375E-16	4.722393E-17
5.260000E+03	8.567457E-16	4.705606E-17
5.270000E+03	8.521966E-16	4.689005E-17
5.280000E+03	8.476709E-16	4.672482E-17
5.290000E+03	8.431685E-16	4.656038E-17
5.300000E+03	8.386893E-16	4.639670E-17
5.310000E+03	8.342330E-16	4.623378E-17
5.320000E+03	8.297993E-16	4.607158E-17
5.330000E+03	8.253880E-16	4.591009E-17
5.340000E+03	8.210167E-16	4.575030E-17
5.350000E+03	8.166481E-16	4.559013E-17
5.360000E+03	8.123182E-16	4.543157E-17
5.370000E+03	8.080078E-16	4.527356E-17
5.380000E+03	8.036982E-16	4.511505E-17
5.390000E+03	7.994423E-16	4.495899E-17
5.400000E+03	7.951853E-16	4.480231E-17
5.410000E+03	7.909440E-16	4.464596E-17
5.420000E+03	7.867347E-16	4.449083E-17
5.430000E+03	7.825382E-16	4.433585E-17
5.440000E+03	7.783538E-16	4.418096E-17
5.450000E+03	7.741820E-16	4.402617E-17
5.460000E+03	7.700405E-16	4.387250E-17
5.470000E+03	7.659129E-16	4.371899E-17
5.480000E+03	7.617999E-16	4.356567E-17
5.490000E+03	7.577187E-16	4.341353E-17
5.500000E+03	7.536527E-16	4.326161E-17
5.510000E+03	7.496023E-16	4.310992E-17
5.520000E+03	7.455678E-16	4.295847E-17
5.530000E+03	7.415655E-16	4.280820E-17
5.540000E+03	7.375956E-16	4.265912E-17
5.550000E+03	7.336253E-16	4.250933E-17
5.560000E+03	7.297032E-16	4.236162E-17
5.570000E+03	7.257807E-16	4.221320E-17
5.580000E+03	7.219059E-16	4.206685E-17
5.590000E+03	7.180305E-16	4.191975E-17
5.600000E+03	7.142021E-16	4.177467E-17
5.610000E+03	7.103730E-16	4.162883E-17
5.620000E+03	7.065899E-16	4.148496E-17
5.630000E+03	7.028214E-16	4.134122E-17
5.640000E+03	6.990673E-16	4.119760E-17
5.650000E+03	6.953581E-16	4.105588E-17
5.660000E+03	6.916473E-16	4.091334E-17
5.670000E+03	6.879807E-16	4.077266E-17
5.680000E+03	6.843274E-16	4.063203E-17
5.690000E+03	6.807174E-16	4.049323E-17
5.700000E+03	6.771053E-16	4.035355E-17
5.710000E+03	6.735357E-16	4.021566E-17
5.720000E+03	6.699935E-16	4.007865E-17
5.730000E+03	6.664634E-16	3.994162E-17
5.740000E+03	6.629604E-16	3.980546E-17
5.750000E+03	6.594839E-16	3.967013E-17
5.760000E+03	6.560338E-16	3.953565E-17
5.770000E+03	6.526100E-16	3.940199E-17
5.780000E+03	6.492123E-16	3.926915E-17
5.790000E+03	6.458404E-16	3.913713E-17
5.800000E+03	6.424944E-16	3.900593E-17
5.810000E+03	6.391740E-16	3.887553E-17
5.820000E+03	6.358651E-16	3.874507E-17
5.830000E+03	6.325960E-16	3.861629E-17
5.840000E+03	6.293664E-16	3.848918E-17
5.850000E+03	6.261483E-16	3.836203E-17
5.860000E+03	6.229558E-16	3.823570E-17
5.870000E+03	6.197889E-16	3.811020E-17
5.880000E+03	6.166615E-16	3.798639E-17
5.890000E+03	6.135597E-16	3.786343E-17
5.900000E+03	6.104838E-16	3.774132E-17
5.910000E+03	6.074339E-16	3.762010E-17
5.920000E+03	6.044100E-16	3.749976E-17
5.930000E+03	6.014259E-16	3.738117E-17
5.940000E+03	5.984682E-16	3.726350E-17
5.950000E+03	5.955371E-16	3.714677E-17
5.960000E+03	5.926328E-16	3.703100E-17
5.970000E+03	5.897555E-16	3.691622E-17
5.980000E+03	5.869190E-16	3.680327E-17
5.990000E+03	5.841230E-16	3.669218E-17
6.000000E+03	5.813415E-16	3.658131E-17
6.010000E+03	5.786011E-16	3.647233E-17
6.020000E+03	5.758889E-16	3.636445E-17
6.030000E+03	5.732183E-16	3.625851E-17
6.040000E+03	5.705632E-16	3.615289E-17
6.050000E+03	5.679630E-16	3.605008E-17
6.060000E+03	5.653791E-16	3.594765E-17
6.070000E+03	5.628373E-16	3.584723E-17
6.080000E+03	5.603250E-16	3.574806E-17
6.090000E+03	5.578552E-16	3.565095E-17
6.100000E+03	5.554151E-16	3.555510E-17
6.110000E+03	5.530177E-16	3.546136E-17
6.120000E+03	5.506501E-16	3.536891E-17
6.130000E+03	5.483126E-16	3.527778E-17
6.140000E+03	5.460175E-16	3.518877E-17
6.150000E+03	5.437523E-16	3.510109E-17
6.160000E+03	5.415292E-16	3.501553E-17
6.170000E+03	5.393357E-16	3.493129E-17
6.180000E+03	5.371713E-16	3.484836E-17
6.190000E+03	5.350605E-16	3.476834E-17
6.200000E+03	5.329657E-16	3.468878E-17
6.210000E+03	5.309111E-16	3.461129E-17
6.220000E+03	5.288959E-16	3.453580E-17
6.230000E+03	5.269070E-16	3.446149E-17
6.240000E+03	5.249436E-16	3.438831E-17
6.250000E+03	5.230294E-16	3.431781E-17
6.260000E+03	5.211264E-16	3.424752E-17
6.270000E+03	5.192703E-16	3.417979E-17
6.280000E+03	5.174233E-16	3.411214E-17
6.290000E+03	5.156205E-16	3.404689E-17
6.300000E+03	5.138363E-16	3.398237E-17
6.310000E+03	5.120814E-16	3.391928E-17
6.320000E+03	5.103423E-16	3.385674E-17
6.330000E+03	5.086297E-16	3.379547E-17
6.340000E+03	5.069301E-16	3.373457E-17
6.350000E+03	5.052658E-16	3.367554E-17
6.360000E+03	5.036116E-16	3.361670E-17
6.370000E+03	5.019662E-16	3.355798E-17
6.380000E+03	5.003518E-16	3.350085E-17
6.390000E+03	4.987433E-16	3.344365E-17
6.400000E+03	4.971513E-16	3.338708E-17
6.410000E+03	4.955626E-16	3.333028E-17
6.420000E+03	4.939999E-16	3.327476E-17
6.430000E+03	4.924382E-16	3.321885E-17
6.440000E+03	4.908883E-16	3.316329E-17
6.450000E+03	4.893492E-16	3.310800E-17
6.460000E+03	4.878201E-16	3.305293E-17
6.470000E+03	4.862999E-16	3.299801E-17
6.480000E+03	4.847882E-16	3.294322E-17
6.490000E+03	4.832839E-16	3.288850E-17
6.500000E+03	4.817750E-16	3.283301E-17
6.510000E+03	4.802842E-16	3.277832E-17
6.520000E+03	4.787995E-16	3.272360E-17
6.530000E+03	4.773087E-16	3.266803E-17
6.540000E+03	4.758347E-16	3.261317E-17
6.550000E+03	4.743659E-16	3.255823E-17
6.560000E+03	4.729019E-16	3.250318E-17
6.570000E+03	4.714425E-16	3.244802E-17
6.580000E+03	4.699878E-16	3.239275E-17
6.590000E+03	4.685490E-16	3.233816E-17
6.600000E+03	4.671148E-16	3.228346E-17
6.610000E+03	4.656738E-16	3.222786E-17
6.620000E+03	4.642488E-16	3.217294E-17
6.630000E+03	4.628400E-16	3.211873E-17
6.640000E+03	4.614244E-16	3.206364E-17
6.650000E+03	4.600253E-16	3.200928E-17
6.660000E+03	4.586424E-16	3.195563E-17
6.670000E+03	4.572533E-16	3.190114E-17
6.680000E+03	4.558807E-16	3.184740E-17
6.690000E+03	4.545247E-16	3.179441E-17
6.700000E+03	4.531627E-16	3.174060E-17
6.710000E+03	4.518173E-16	3.168755E-17
6.720000E+03	4.504884E-16	3.163527E-17
6.730000E+03	4.491649E-16	3.158298E-17
6.740000E+03	4.478576E-16	3.153143E-17
6.750000E+03	4.465553E-16	3.147986E-17
6.760000E+03	4.452578E-16	3.142823E-17
6.770000E+03	4.439760E-16	3.137733E-17
6.780000E+03	4.427095E-16	3.132714E-17
6.790000E+03	4.414469E-16	3.127685E-17
6.800000E+03	4.401875E-16	3.122641E-17
6.810000E+03	4.389532E-16	3.117738E-17
6.820000E+03	4.377098E-16	3.112735E-17
6.830000E+03	4.364903E-16	3.107864E-17
6.840000E+03	4.352712E-16	3.102961E-17
6.850000E+03	4.340522E-16	3.098022E-17
6.860000E+03	4.328431E-16	3.093118E-17
6.870000E+03	4.316430E-16	3.088243E-17
6.880000E+03	4.304398E-16	3.083310E-17
6.890000E+03	4.292433E-16	3.078390E-17
6.900000E+03	4.280524E-16	3.073475E-17
6.910000E+03	4.268545E-16	3.068476E-17
6.920000E+03	4.256596E-16	3.063463E-17
6.930000E+03	4.244550E-16	3.058346E-17
6.940000E+03	4.232503E-16	3.053193E-17
6.950000E+03	4.220330E-16	3.047915E-17
6.960000E+03	4.208233E-16	3.042657E-17
6.970000E+03	4.195869E-16	3.037171E-17
6.980000E+03	4.183546E-16	3.031681E-17
6.990000E+03	4.170923E-16	3.025938E-17
7.000000E+03	4.158306E-16	3.020165E-17
7.010000E+03	4.145460E-16	3.014192E-17
7.020000E+03	4.132369E-16	3.008004E-17
7.030000E+03	4.119120E-16	3.001667E-17
7.040000E+03	4.105696E-16	2.995166E-17
7.050000E+03	4.091971E-16	2.988411E-17
7.060000E+03	4.077927E-16	2.981386E-17
7.070000E+03	4.063652E-16	2.974157E-17
7.080000E+03	4.049128E-16	2.966708E-17
7.090000E+03	4.034230E-16	2.958950E-17
7.100000E+03	4.018942E-16	2.950868E-17
7.110000E+03	4.003247E-16	2.942449E-17
7.120000E+03	3.987338E-16	2.933835E-17
7.130000E+03	3.970884E-16	2.924782E-17
7.140000E+03	3.954078E-16	2.915431E-17
7.150000E+03	3.936803E-16	2.905694E-17
7.160000E+03	3.919044E-16	2.895561E-17
7.170000E+03	3.900787E-16	2.885019E-17
7.180000E+03	3.882123E-16	2.874137E-17
7.190000E+03	3.862939E-16	2.862826E-17
7.200000E+03	3.843324E-16	2.851156E-17
7.210000E+03	3.823065E-16	2.838965E-17
7.220000E+03	3.802257E-16	2.826324E-17
7.230000E+03	3.780992E-16	2.813298E-17
7.240000E+03	3.759163E-16	2.799810E-17
7.250000E+03	3.736764E-16	2.785852E-17
7.260000E+03	3.713695E-16	2.771349E-17
7.270000E+03	3.690147E-16	2.756444E-17
7.280000E+03	3.666022E-16	2.741061E-17
7.290000E+03	3.641319E-16	2.725199E-17
7.300000E+03	3.615943E-16	2.708785E-17
7.310000E+03	3.590088E-16	2.691965E-17
7.320000E+03	3.563662E-16	2.674668E-17
7.330000E+03	3.536574E-16	2.656825E-17
7.340000E+03	3.508927E-16	2.638512E-17
7.350000E+03	3.480726E-16	2.619733E-17
7.360000E+03	3.451982E-16	2.600494E-17
7.370000E+03	3.422702E-16	2.580801E-17
7.380000E+03	3.392808E-16	2.560592E-17
7.390000E+03	3.362402E-16	2.539946E-17
7.400000E+03	3.331498E-16	2.518871E-17
7.410000E+03	3.300023E-16	2.497311E-17
7.420000E+03	3.268081E-16	2.475345E-17
7.430000E+03	3.235688E-16	2.452984E-17
7.440000E+03	3.202775E-16	2.430175E-17
7.450000E+03	3.169451E-16	2.406999E-17
7.460000E+03	3.135647E-16	2.383405E-17
7.470000E+03	3.101471E-16	2.359474E-17
7.480000E+03	3.066861E-16	2.335157E-17
7.490000E+03	3.031924E-16	2.310538E-17
7.500000E+03	2.996683E-16	2.285631E-17
7.510000E+03	2.960999E-16	2.260331E-17
7.520000E+03	2.925144E-16	2.234845E-17
7.530000E+03	2.888900E-16	2.209007E-17
7.540000E+03	2.852533E-16	2.183021E-17
7.550000E+03	2.815836E-16	2.156726E-17
7.560000E+03	2.778994E-16	2.130265E-17
7.570000E+03	2.741957E-16	2.103599E-17
7.580000E+03	2.704831E-16	2.076812E-17
7.590000E+03	2.667572E-16	2.049867E-17
7.600000E+03	2.630209E-16	2.022787E-17
7.610000E+03	2.592848E-16	1.995655E-17
7.620000E+03	2.555445E-16	1.968437E-17
7.630000E+03	2.518033E-16	1.941159E-17
7.640000E+03	2.480644E-16	1.913846E-17
7.650000E+03	2.443379E-16	1.886575E-17
7.660000E+03	2.406199E-16	1.859318E-17
7.670000E+03	2.369137E-16	1.832101E-17
7.680000E+03	2.332291E-16	1.804999E-17
7.690000E+03	2.295558E-16	1.777935E-17
7.700000E+03	2.259100E-16	1.751033E-17
7.710000E+03	2.222881E-16	1.724267E-17
7.720000E+03	2.186929E-16	1.697659E-17
7.730000E+03	2.151334E-16	1.671281E-17
7.740000E+03	2.116000E-16	1.645057E-17
7.750000E+03	2.081073E-16	1.619104E-17
7.760000E+03	2.046517E-16	1.593393E-17
