#wls	flux	fluxerr
1.600000E+03	5.996793E-17	1.024968E-17
1.640000E+03	5.996133E-17	1.024415E-17
1.680000E+03	6.001088E-17	1.024812E-17
1.720000E+03	6.012892E-17	1.026368E-17
1.760000E+03	6.030723E-17	1.028942E-17
1.800000E+03	6.055824E-17	1.032744E-17
1.840000E+03	6.088414E-17	1.037809E-17
1.880000E+03	6.128718E-17	1.044173E-17
1.920000E+03	6.176970E-17	1.051875E-17
1.960000E+03	6.233407E-17	1.060952E-17
2.000000E+03	6.298272E-17	1.071443E-17
2.040000E+03	6.372855E-17	1.083565E-17
2.080000E+03	6.456371E-17	1.097181E-17
2.120000E+03	6.550126E-17	1.112511E-17
2.160000E+03	6.654393E-17	1.129597E-17
2.200000E+03	6.768369E-17	1.148300E-17
2.240000E+03	6.894472E-17	1.169027E-17
2.280000E+03	7.031911E-17	1.191638E-17
2.320000E+03	7.182070E-17	1.216365E-17
2.360000E+03	7.344147E-17	1.243067E-17
2.400000E+03	7.519567E-17	1.271982E-17
2.440000E+03	7.708679E-17	1.303162E-17
2.480000E+03	7.911859E-17	1.336666E-17
2.520000E+03	8.130722E-17	1.372761E-17
2.560000E+03	8.364597E-17	1.411329E-17
2.600000E+03	8.615280E-17	1.452666E-17
2.640000E+03	8.884729E-17	1.497096E-17
2.680000E+03	9.172508E-17	1.544536E-17
2.720000E+03	9.479476E-17	1.595125E-17
2.760000E+03	9.809266E-17	1.649466E-17
2.800000E+03	1.016052E-16	1.707320E-17
2.840000E+03	1.053869E-16	1.769595E-17
2.880000E+03	1.094281E-16	1.836119E-17
2.920000E+03	1.137621E-16	1.907437E-17
2.960000E+03	1.184263E-16	1.984164E-17
3.000000E+03	1.234473E-16	2.066732E-17
3.010000E+03	1.247580E-16	2.088280E-17
3.020000E+03	1.261009E-16	2.110359E-17
3.030000E+03	1.274616E-16	2.132724E-17
3.040000E+03	1.288557E-16	2.155638E-17
3.050000E+03	1.302683E-16	2.178854E-17
3.060000E+03	1.317157E-16	2.202640E-17
3.070000E+03	1.331829E-16	2.226746E-17
3.080000E+03	1.346859E-16	2.251442E-17
3.090000E+03	1.362258E-16	2.276743E-17
3.100000E+03	1.377873E-16	2.302394E-17
3.110000E+03	1.393871E-16	2.328673E-17
3.120000E+03	1.410098E-16	2.355323E-17
3.130000E+03	1.426722E-16	2.382626E-17
3.140000E+03	1.443590E-16	2.410324E-17
3.150000E+03	1.460873E-16	2.438702E-17
3.160000E+03	1.478413E-16	2.467497E-17
3.170000E+03	1.496551E-16	2.497278E-17
3.180000E+03	1.514798E-16	2.527228E-17
3.190000E+03	1.533664E-16	2.558196E-17
3.200000E+03	1.552821E-16	2.589638E-17
3.210000E+03	1.572281E-16	2.621571E-17
3.220000E+03	1.592393E-16	2.654576E-17
3.230000E+03	1.612654E-16	2.687815E-17
3.240000E+03	1.633591E-16	2.722166E-17
3.250000E+03	1.654868E-16	2.757070E-17
3.260000E+03	1.676673E-16	2.792837E-17
3.270000E+03	1.698839E-16	2.829190E-17
3.280000E+03	1.721556E-16	2.866443E-17
3.290000E+03	1.744836E-16	2.904619E-17
3.300000E+03	1.768694E-16	2.943739E-17
3.310000E+03	1.792959E-16	2.983522E-17
3.320000E+03	1.817828E-16	3.024291E-17
3.330000E+03	1.843130E-16	3.065761E-17
3.340000E+03	1.869061E-16	3.108261E-17
3.350000E+03	1.895637E-16	3.151813E-17
3.360000E+03	1.922872E-16	3.196444E-17
3.370000E+03	1.950592E-16	3.241859E-17
3.380000E+03	1.978999E-16	3.288398E-17
3.390000E+03	2.008112E-16	3.336089E-17
3.400000E+03	2.037746E-16	3.384625E-17
3.410000E+03	2.068113E-16	3.434356E-17
3.420000E+03	2.099229E-16	3.485311E-17
3.430000E+03	2.130908E-16	3.537177E-17
3.440000E+03	2.163567E-16	3.590647E-17
3.450000E+03	2.196817E-16	3.645076E-17
3.460000E+03	2.230877E-16	3.700823E-17
3.470000E+03	2.265551E-16	3.757565E-17
3.480000E+03	2.301062E-16	3.815671E-17
3.490000E+03	2.337425E-16	3.875164E-17
3.500000E+03	2.374655E-16	3.936069E-17
3.510000E+03	2.412767E-16	3.998409E-17
3.520000E+03	2.451555E-16	4.061842E-17
3.530000E+03	2.491251E-16	4.126751E-17
3.540000E+03	2.531867E-16	4.193156E-17
3.550000E+03	2.573191E-16	4.260706E-17
3.560000E+03	2.615457E-16	4.329786E-17
3.570000E+03	2.658679E-16	4.400419E-17
3.580000E+03	2.702868E-16	4.472622E-17
3.590000E+03	2.748037E-16	4.546414E-17
3.600000E+03	2.793958E-16	4.621420E-17
3.610000E+03	2.840875E-16	4.698041E-17
3.620000E+03	2.888798E-16	4.776292E-17
3.630000E+03	2.937738E-16	4.856190E-17
3.640000E+03	2.987454E-16	4.937339E-17
3.650000E+03	3.038198E-16	5.020150E-17
3.660000E+03	3.089978E-16	5.104637E-17
3.670000E+03	3.142798E-16	5.190808E-17
3.680000E+03	3.196410E-16	5.278249E-17
3.690000E+03	3.251331E-16	5.367814E-17
3.700000E+03	3.307046E-16	5.458653E-17
3.710000E+03	3.363553E-16	5.550760E-17
3.720000E+03	3.421382E-16	5.645009E-17
3.730000E+03	3.480002E-16	5.740525E-17
3.740000E+03	3.539679E-16	5.837743E-17
3.750000E+03	3.600415E-16	5.936666E-17
3.760000E+03	3.661929E-16	6.036832E-17
3.770000E+03	3.724494E-16	6.138687E-17
3.780000E+03	3.788106E-16	6.242226E-17
3.790000E+03	3.852762E-16	6.347442E-17
3.800000E+03	3.918167E-16	6.453849E-17
3.810000E+03	3.984600E-16	6.561905E-17
3.820000E+03	4.052055E-16	6.671598E-17
3.830000E+03	4.120224E-16	6.782422E-17
3.840000E+03	4.189391E-16	6.894845E-17
3.850000E+03	4.259545E-16	7.008845E-17
3.860000E+03	4.330369E-16	7.123901E-17
3.870000E+03	4.402149E-16	7.240483E-17
3.880000E+03	4.474871E-16	7.358567E-17
3.890000E+03	4.548520E-16	7.478129E-17
3.900000E+03	4.622760E-16	7.598614E-17
3.910000E+03	4.697563E-16	7.719977E-17
3.920000E+03	4.773226E-16	7.842704E-17
3.930000E+03	4.849726E-16	7.966759E-17
3.940000E+03	4.927040E-16	8.092101E-17
3.950000E+03	5.004811E-16	8.218146E-17
3.960000E+03	5.083004E-16	8.344834E-17
3.970000E+03	5.161920E-16	8.472659E-17
3.980000E+03	5.241531E-16	8.601576E-17
3.990000E+03	5.321461E-16	8.730967E-17
4.000000E+03	5.402014E-16	8.861332E-17
4.010000E+03	5.482807E-16	8.992042E-17
4.020000E+03	5.563794E-16	9.123019E-17
4.030000E+03	5.645286E-16	9.254777E-17
4.040000E+03	5.727240E-16	9.387243E-17
4.050000E+03	5.809255E-16	9.519760E-17
4.060000E+03	5.891279E-16	9.652244E-17
4.070000E+03	5.973623E-16	9.785206E-17
4.080000E+03	6.055874E-16	9.917966E-17
4.090000E+03	6.137972E-16	1.005043E-16
4.100000E+03	6.220233E-16	1.018311E-16
4.110000E+03	6.302228E-16	1.031532E-16
4.120000E+03	6.383896E-16	1.044694E-16
4.130000E+03	6.465553E-16	1.057850E-16
4.140000E+03	6.546374E-16	1.070865E-16
4.150000E+03	6.627057E-16	1.083852E-16
4.160000E+03	6.707541E-16	1.096804E-16
4.170000E+03	6.786981E-16	1.109580E-16
4.180000E+03	6.866086E-16	1.122297E-16
4.190000E+03	6.944394E-16	1.134881E-16
4.200000E+03	7.021437E-16	1.147253E-16
4.210000E+03	7.097930E-16	1.159532E-16
4.220000E+03	7.173803E-16	1.171706E-16
4.230000E+03	7.248184E-16	1.183633E-16
4.240000E+03	7.321394E-16	1.195366E-16
4.250000E+03	7.393357E-16	1.206891E-16
4.260000E+03	7.463997E-16	1.218198E-16
4.270000E+03	7.533240E-16	1.229274E-16
4.280000E+03	7.601011E-16	1.240106E-16
4.290000E+03	7.667235E-16	1.250684E-16
4.300000E+03	7.731844E-16	1.260995E-16
4.310000E+03	7.794768E-16	1.271030E-16
4.320000E+03	7.855530E-16	1.280710E-16
4.330000E+03	7.914892E-16	1.290160E-16
4.340000E+03	7.971974E-16	1.299236E-16
4.350000E+03	8.027137E-16	1.307998E-16
4.360000E+03	8.079923E-16	1.316371E-16
4.370000E+03	8.131123E-16	1.324485E-16
4.380000E+03	8.179880E-16	1.332199E-16
4.390000E+03	8.226583E-16	1.339579E-16
4.400000E+03	8.270809E-16	1.346554E-16
4.410000E+03	8.312959E-16	1.353191E-16
4.420000E+03	8.353034E-16	1.359489E-16
4.430000E+03	8.390625E-16	1.365384E-16
4.440000E+03	8.426155E-16	1.370943E-16
4.450000E+03	8.459225E-16	1.376101E-16
4.460000E+03	8.490268E-16	1.380931E-16
4.470000E+03	8.518893E-16	1.385368E-16
4.480000E+03	8.545540E-16	1.389483E-16
4.490000E+03	8.569826E-16	1.393216E-16
4.500000E+03	8.592194E-16	1.396637E-16
4.510000E+03	8.612270E-16	1.399687E-16
4.520000E+03	8.630496E-16	1.402438E-16
4.530000E+03	8.646103E-16	1.404765E-16
4.540000E+03	8.660345E-16	1.406871E-16
4.550000E+03	8.672052E-16	1.408567E-16
4.560000E+03	8.682074E-16	1.409991E-16
4.570000E+03	8.690056E-16	1.411086E-16
4.580000E+03	8.696045E-16	1.411859E-16
4.590000E+03	8.700482E-16	1.412382E-16
4.600000E+03	8.703022E-16	1.412599E-16
4.610000E+03	8.703711E-16	1.412518E-16
4.620000E+03	8.702601E-16	1.412148E-16
4.630000E+03	8.700131E-16	1.411559E-16
4.640000E+03	8.695958E-16	1.410697E-16
4.650000E+03	8.689749E-16	1.409507E-16
4.660000E+03	8.682327E-16	1.408124E-16
4.670000E+03	8.673736E-16	1.406553E-16
4.680000E+03	8.663264E-16	1.404680E-16
4.690000E+03	8.651342E-16	1.402575E-16
4.700000E+03	8.638397E-16	1.400308E-16
4.710000E+03	8.623726E-16	1.397764E-16
4.720000E+03	8.608127E-16	1.395072E-16
4.730000E+03	8.590903E-16	1.392120E-16
4.740000E+03	8.572842E-16	1.389036E-16
4.750000E+03	8.553622E-16	1.385768E-16
4.760000E+03	8.533288E-16	1.382323E-16
4.770000E+03	8.511527E-16	1.378650E-16
4.780000E+03	8.489106E-16	1.374873E-16
4.790000E+03	8.465705E-16	1.370941E-16
4.800000E+03	8.441369E-16	1.366862E-16
4.810000E+03	8.416140E-16	1.362641E-16
4.820000E+03	8.389710E-16	1.358229E-16
4.830000E+03	8.362819E-16	1.353747E-16
4.840000E+03	8.335156E-16	1.349143E-16
4.850000E+03	8.306758E-16	1.344423E-16
4.860000E+03	8.277323E-16	1.339540E-16
4.870000E+03	8.247568E-16	1.334608E-16
4.880000E+03	8.217185E-16	1.329578E-16
4.890000E+03	8.185877E-16	1.324402E-16
4.900000E+03	8.154344E-16	1.319193E-16
4.910000E+03	8.121953E-16	1.313848E-16
4.920000E+03	8.089394E-16	1.308480E-16
4.930000E+03	8.056043E-16	1.302988E-16
4.940000E+03	8.022255E-16	1.297428E-16
4.950000E+03	7.988377E-16	1.291857E-16
4.960000E+03	7.953795E-16	1.286175E-16
4.970000E+03	7.918854E-16	1.280439E-16
4.980000E+03	7.883578E-16	1.274652E-16
4.990000E+03	7.847991E-16	1.268819E-16
5.000000E+03	7.812113E-16	1.262941E-16
5.010000E+03	7.775965E-16	1.257023E-16
5.020000E+03	7.739567E-16	1.251068E-16
5.030000E+03	7.702937E-16	1.245079E-16
5.040000E+03	7.666091E-16	1.239058E-16
5.050000E+03	7.629047E-16	1.233008E-16
5.060000E+03	7.591521E-16	1.226884E-16
5.070000E+03	7.554125E-16	1.220784E-16
5.080000E+03	7.516572E-16	1.214661E-16
5.090000E+03	7.478583E-16	1.208472E-16
5.100000E+03	7.440752E-16	1.202310E-16
5.110000E+03	7.402797E-16	1.196132E-16
5.120000E+03	7.364442E-16	1.189892E-16
5.130000E+03	7.326265E-16	1.183684E-16
5.140000E+03	7.287708E-16	1.177417E-16
5.150000E+03	7.249337E-16	1.171184E-16
5.160000E+03	7.210601E-16	1.164894E-16
5.170000E+03	7.172057E-16	1.158638E-16
5.180000E+03	7.133157E-16	1.152328E-16
5.190000E+03	7.094452E-16	1.146052E-16
5.200000E+03	7.055398E-16	1.139722E-16
5.210000E+03	7.016536E-16	1.133426E-16
5.220000E+03	6.977331E-16	1.127077E-16
5.230000E+03	6.938312E-16	1.120761E-16
5.240000E+03	6.898950E-16	1.114392E-16
5.250000E+03	6.859767E-16	1.108055E-16
5.260000E+03	6.820497E-16	1.101706E-16
5.270000E+03	6.780879E-16	1.095304E-16
5.280000E+03	6.741424E-16	1.088930E-16
5.290000E+03	6.701868E-16	1.082543E-16
5.300000E+03	6.662207E-16	1.076141E-16
5.310000E+03	6.622434E-16	1.069723E-16
5.320000E+03	6.582544E-16	1.063290E-16
5.330000E+03	6.542532E-16	1.056838E-16
5.340000E+03	6.502392E-16	1.050368E-16
5.350000E+03	6.462359E-16	1.043918E-16
5.360000E+03	6.421944E-16	1.037409E-16
5.370000E+03	6.381624E-16	1.030917E-16
5.380000E+03	6.340917E-16	1.024364E-16
5.390000E+03	6.300294E-16	1.017828E-16
5.400000E+03	6.259518E-16	1.011268E-16
5.410000E+03	6.218590E-16	1.004687E-16
5.420000E+03	6.177512E-16	9.980827E-17
5.430000E+03	6.136519E-16	9.914944E-17
5.440000E+03	6.095163E-16	9.848493E-17
5.450000E+03	6.053908E-16	9.782223E-17
5.460000E+03	6.012540E-16	9.715786E-17
5.470000E+03	5.971076E-16	9.649212E-17
5.480000E+03	5.929535E-16	9.582528E-17
5.490000E+03	5.888152E-16	9.516116E-17
5.500000E+03	5.846511E-16	9.449299E-17
5.510000E+03	5.805066E-16	9.382813E-17
5.520000E+03	5.763622E-16	9.316342E-17
5.530000E+03	5.722409E-16	9.250257E-17
5.540000E+03	5.681024E-16	9.183904E-17
5.550000E+03	5.639909E-16	9.118000E-17
5.560000E+03	5.598872E-16	9.052232E-17
5.570000E+03	5.558137E-16	8.986962E-17
5.580000E+03	5.517311E-16	8.921555E-17
5.590000E+03	5.476821E-16	8.856698E-17
5.600000E+03	5.436476E-16	8.792084E-17
5.610000E+03	5.396494E-16	8.728066E-17
5.620000E+03	5.356687E-16	8.664336E-17
5.630000E+03	5.317069E-16	8.600920E-17
5.640000E+03	5.277654E-16	8.537839E-17
5.650000E+03	5.238648E-16	8.475423E-17
5.660000E+03	5.199866E-16	8.413377E-17
5.670000E+03	5.161320E-16	8.351717E-17
5.680000E+03	5.123209E-16	8.290764E-17
5.690000E+03	5.085352E-16	8.230227E-17
5.700000E+03	5.047943E-16	8.170418E-17
5.710000E+03	5.010803E-16	8.111047E-17
5.720000E+03	4.973939E-16	8.052126E-17
5.730000E+03	4.937540E-16	7.993959E-17
5.740000E+03	4.901428E-16	7.936261E-17
5.750000E+03	4.865789E-16	7.879329E-17
5.760000E+03	4.830446E-16	7.822878E-17
5.770000E+03	4.795406E-16	7.766918E-17
5.780000E+03	4.760847E-16	7.711739E-17
5.790000E+03	4.726597E-16	7.657060E-17
5.800000E+03	4.692832E-16	7.603168E-17
5.810000E+03	4.659379E-16	7.549782E-17
5.820000E+03	4.626414E-16	7.497185E-17
5.830000E+03	4.593766E-16	7.445101E-17
5.840000E+03	4.561604E-16	7.393806E-17
5.850000E+03	4.529764E-16	7.343029E-17
5.860000E+03	4.498409E-16	7.293039E-17
5.870000E+03	4.467541E-16	7.243837E-17
5.880000E+03	4.436827E-16	7.194883E-17
5.890000E+03	4.406763E-16	7.146982E-17
5.900000E+03	4.377018E-16	7.099596E-17
5.910000E+03	4.347594E-16	7.052730E-17
5.920000E+03	4.318650E-16	7.006639E-17
5.930000E+03	4.290185E-16	6.961324E-17
5.940000E+03	4.262036E-16	6.916519E-17
5.950000E+03	4.234364E-16	6.872484E-17
5.960000E+03	4.207004E-16	6.828956E-17
5.970000E+03	4.180116E-16	6.786189E-17
5.980000E+03	4.153540E-16	6.743926E-17
5.990000E+03	4.127583E-16	6.702667E-17
6.000000E+03	4.101781E-16	6.661654E-17
6.010000E+03	4.076590E-16	6.621633E-17
6.020000E+03	4.051704E-16	6.582102E-17
6.030000E+03	4.027269E-16	6.543303E-17
6.040000E+03	4.003134E-16	6.504987E-17
6.050000E+03	3.979447E-16	6.467396E-17
6.060000E+03	3.956202E-16	6.430520E-17
6.070000E+03	3.933249E-16	6.394116E-17
6.080000E+03	3.910733E-16	6.358418E-17
6.090000E+03	3.888648E-16	6.323418E-17
6.100000E+03	3.866847E-16	6.288877E-17
6.110000E+03	3.845470E-16	6.255022E-17
6.120000E+03	3.824516E-16	6.221851E-17
6.130000E+03	3.803976E-16	6.189352E-17
6.140000E+03	3.783707E-16	6.157290E-17
6.150000E+03	3.763847E-16	6.125890E-17
6.160000E+03	3.744392E-16	6.095145E-17
6.170000E+03	3.725194E-16	6.064818E-17
6.180000E+03	3.706533E-16	6.035360E-17
6.190000E+03	3.688122E-16	6.006305E-17
6.200000E+03	3.670097E-16	5.977877E-17
6.210000E+03	3.652315E-16	5.949840E-17
6.220000E+03	3.634909E-16	5.922414E-17
6.230000E+03	3.618011E-16	5.895810E-17
6.240000E+03	3.601202E-16	5.869351E-17
6.250000E+03	3.584888E-16	5.843693E-17
6.260000E+03	3.568925E-16	5.818604E-17
6.270000E+03	3.553171E-16	5.793851E-17
6.280000E+03	3.537752E-16	5.769643E-17
6.290000E+03	3.522662E-16	5.745967E-17
6.300000E+03	3.507891E-16	5.722808E-17
6.310000E+03	3.493432E-16	5.700155E-17
6.320000E+03	3.479145E-16	5.677778E-17
6.330000E+03	3.465285E-16	5.656096E-17
6.340000E+03	3.451580E-16	5.634662E-17
6.350000E+03	3.438154E-16	5.613682E-17
6.360000E+03	3.424999E-16	5.593140E-17
6.370000E+03	3.412107E-16	5.573023E-17
6.380000E+03	3.399470E-16	5.553319E-17
6.390000E+03	3.386948E-16	5.533801E-17
6.400000E+03	3.374796E-16	5.514883E-17
6.410000E+03	3.362744E-16	5.496124E-17
6.420000E+03	3.351045E-16	5.477940E-17
6.430000E+03	3.339432E-16	5.459894E-17
6.440000E+03	3.328027E-16	5.442181E-17
6.450000E+03	3.316822E-16	5.424794E-17
6.460000E+03	3.305808E-16	5.407717E-17
6.470000E+03	3.294980E-16	5.390940E-17
6.480000E+03	3.284330E-16	5.374449E-17
6.490000E+03	3.273850E-16	5.358234E-17
6.500000E+03	3.263533E-16	5.342281E-17
6.510000E+03	3.253371E-16	5.326580E-17
6.520000E+03	3.243359E-16	5.311120E-17
6.530000E+03	3.233362E-16	5.295681E-17
6.540000E+03	3.223626E-16	5.280667E-17
6.550000E+03	3.214018E-16	5.265858E-17
6.560000E+03	3.204532E-16	5.251245E-17
6.570000E+03	3.195161E-16	5.236817E-17
6.580000E+03	3.185772E-16	5.222357E-17
6.590000E+03	3.176611E-16	5.208266E-17
6.600000E+03	3.167544E-16	5.194326E-17
6.610000E+03	3.158566E-16	5.180527E-17
6.620000E+03	3.149671E-16	5.166863E-17
6.630000E+03	3.140852E-16	5.153317E-17
6.640000E+03	3.131979E-16	5.139680E-17
6.650000E+03	3.123293E-16	5.126346E-17
6.660000E+03	3.114666E-16	5.113105E-17
6.670000E+03	3.106213E-16	5.100145E-17
6.680000E+03	3.097681E-16	5.087053E-17
6.690000E+03	3.089190E-16	5.074024E-17
6.700000E+03	3.080732E-16	5.061045E-17
6.710000E+03	3.072301E-16	5.048106E-17
6.720000E+03	3.064014E-16	5.035400E-17
6.730000E+03	3.055621E-16	5.022515E-17
6.740000E+03	3.047357E-16	5.009840E-17
6.750000E+03	3.038978E-16	4.996969E-17
6.760000E+03	3.030716E-16	4.984288E-17
6.770000E+03	3.022447E-16	4.971590E-17
6.780000E+03	3.014163E-16	4.958865E-17
6.790000E+03	3.005859E-16	4.946102E-17
6.800000E+03	2.997529E-16	4.933291E-17
6.810000E+03	2.989168E-16	4.920425E-17
6.820000E+03	2.980768E-16	4.907491E-17
6.830000E+03	2.972326E-16	4.894482E-17
6.840000E+03	2.963834E-16	4.881387E-17
6.850000E+03	2.955406E-16	4.868392E-17
6.860000E+03	2.946797E-16	4.855094E-17
6.870000E+03	2.938242E-16	4.841880E-17
6.880000E+03	2.929611E-16	4.828537E-17
6.890000E+03	2.920903E-16	4.815062E-17
6.900000E+03	2.912110E-16	4.801441E-17
6.910000E+03	2.903227E-16	4.787666E-17
6.920000E+03	2.894247E-16	4.773728E-17
6.930000E+03	2.885166E-16	4.759616E-17
6.940000E+03	2.875978E-16	4.745323E-17
6.950000E+03	2.866676E-16	4.730837E-17
6.960000E+03	2.857373E-16	4.716343E-17
6.970000E+03	2.847829E-16	4.701447E-17
6.980000E+03	2.838272E-16	4.686521E-17
6.990000E+03	2.828580E-16	4.671369E-17
7.000000E+03	2.818632E-16	4.655787E-17
7.010000E+03	2.808655E-16	4.640151E-17
7.020000E+03	2.798526E-16	4.624259E-17
7.030000E+03	2.788243E-16	4.608106E-17
7.040000E+03	2.777799E-16	4.591680E-17
7.050000E+03	2.767192E-16	4.574978E-17
7.060000E+03	2.756415E-16	4.557988E-17
7.070000E+03	2.745465E-16	4.540705E-17
7.080000E+03	2.734337E-16	4.523122E-17
7.090000E+03	2.723028E-16	4.505233E-17
7.100000E+03	2.711646E-16	4.487215E-17
7.110000E+03	2.699963E-16	4.468693E-17
7.120000E+03	2.688088E-16	4.449844E-17
7.130000E+03	2.676017E-16	4.430666E-17
7.140000E+03	2.663859E-16	4.411335E-17
7.150000E+03	2.651390E-16	4.391481E-17
7.160000E+03	2.638719E-16	4.371284E-17
7.170000E+03	2.625841E-16	4.350738E-17
7.180000E+03	2.612757E-16	4.329842E-17
7.190000E+03	2.599574E-16	4.308772E-17
7.200000E+03	2.586071E-16	4.287166E-17
7.210000E+03	2.572358E-16	4.265202E-17
7.220000E+03	2.558435E-16	4.242881E-17
7.230000E+03	2.544299E-16	4.220200E-17
7.240000E+03	2.529952E-16	4.197159E-17
7.250000E+03	2.515394E-16	4.173759E-17
7.260000E+03	2.500625E-16	4.150000E-17
7.270000E+03	2.485647E-16	4.125885E-17
7.280000E+03	2.470356E-16	4.101241E-17
7.290000E+03	2.454964E-16	4.076419E-17
7.300000E+03	2.439264E-16	4.051078E-17
7.310000E+03	2.423465E-16	4.025561E-17
7.320000E+03	2.407365E-16	3.999536E-17
7.330000E+03	2.391070E-16	3.973175E-17
7.340000E+03	2.374583E-16	3.946487E-17
7.350000E+03	2.357908E-16	3.919475E-17
7.360000E+03	2.340949E-16	3.891981E-17
7.370000E+03	2.323910E-16	3.864343E-17
7.380000E+03	2.306599E-16	3.836243E-17
7.390000E+03	2.289215E-16	3.808012E-17
7.400000E+03	2.271571E-16	3.779337E-17
7.410000E+03	2.253673E-16	3.750229E-17
7.420000E+03	2.235721E-16	3.721019E-17
7.430000E+03	2.217623E-16	3.691556E-17
7.440000E+03	2.199292E-16	3.661694E-17
7.450000E+03	2.180831E-16	3.631605E-17
7.460000E+03	2.162247E-16	3.601299E-17
7.470000E+03	2.143455E-16	3.570636E-17
7.480000E+03	2.124647E-16	3.539935E-17
7.490000E+03	2.105648E-16	3.508904E-17
7.500000E+03	2.086559E-16	3.477711E-17
7.510000E+03	2.067297E-16	3.446220E-17
7.520000E+03	2.048052E-16	3.414744E-17
7.530000E+03	2.028653E-16	3.383000E-17
7.540000E+03	2.009199E-16	3.351153E-17
7.550000E+03	1.989613E-16	3.319073E-17
7.560000E+03	1.969991E-16	3.286923E-17
7.570000E+03	1.950342E-16	3.254714E-17
7.580000E+03	1.930677E-16	3.222467E-17
7.590000E+03	1.910920E-16	3.190055E-17
7.600000E+03	1.891166E-16	3.157636E-17
7.610000E+03	1.871426E-16	3.125227E-17
7.620000E+03	1.851708E-16	3.092844E-17
7.630000E+03	1.831944E-16	3.060371E-17
7.640000E+03	1.812143E-16	3.027826E-17
7.650000E+03	1.792478E-16	2.995494E-17
7.660000E+03	1.772801E-16	2.963130E-17
7.670000E+03	1.753201E-16	2.930884E-17
7.680000E+03	1.733613E-16	2.898646E-17
7.690000E+03	1.714125E-16	2.866563E-17
7.700000E+03	1.694746E-16	2.834650E-17
7.710000E+03	1.675415E-16	2.802805E-17
7.720000E+03	1.656214E-16	2.771167E-17
7.730000E+03	1.637083E-16	2.739633E-17
7.740000E+03	1.618175E-16	2.708460E-17
7.750000E+03	1.599284E-16	2.677306E-17
7.760000E+03	1.580636E-16	2.646546E-17
