#wls	flux	fluxerr
1.586043E+03	7.606409E-02	5.112364E-03
1.625694E+03	7.069387E-02	4.729980E-03
1.665345E+03	6.558833E-02	4.368013E-03
1.704996E+03	6.076685E-02	4.027602E-03
1.744647E+03	5.625157E-02	3.710036E-03
1.784298E+03	5.206481E-02	3.416574E-03
1.823949E+03	4.820768E-02	3.147050E-03
1.863600E+03	4.470093E-02	2.902559E-03
1.903251E+03	4.154991E-02	2.683155E-03
1.942902E+03	3.875939E-02	2.488835E-03
1.982554E+03	3.633137E-02	2.319396E-03
2.022205E+03	3.427090E-02	2.174810E-03
2.061856E+03	3.257905E-02	2.054770E-03
2.101507E+03	3.125476E-02	1.958820E-03
2.141158E+03	3.030484E-02	1.886976E-03
2.180809E+03	2.973002E-02	1.838847E-03
2.220460E+03	2.953450E-02	1.814237E-03
2.260111E+03	2.972620E-02	1.813148E-03
2.299762E+03	3.031529E-02	1.835685E-03
2.339413E+03	3.131442E-02	1.882065E-03
2.379064E+03	3.273434E-02	1.952341E-03
2.418715E+03	3.458070E-02	2.046225E-03
2.458366E+03	3.685611E-02	2.163216E-03
2.498017E+03	3.954852E-02	2.301929E-03
2.537669E+03	4.263586E-02	2.460399E-03
2.577320E+03	4.607609E-02	2.635542E-03
2.616971E+03	4.981247E-02	2.823504E-03
2.656622E+03	5.376927E-02	3.019461E-03
2.696273E+03	5.785775E-02	3.218015E-03
2.735924E+03	6.198061E-02	3.413474E-03
2.775575E+03	6.603567E-02	3.600093E-03
2.815226E+03	6.992390E-02	3.772524E-03
2.854877E+03	7.355926E-02	3.926348E-03
2.894528E+03	7.686593E-02	4.057897E-03
2.934179E+03	7.979569E-02	4.165142E-03
2.973830E+03	8.231400E-02	4.246895E-03
2.983743E+03	8.287996E-02	4.263465E-03
2.993656E+03	8.341832E-02	4.278398E-03
3.003569E+03	8.392900E-02	4.291702E-03
3.013481E+03	8.441576E-02	4.303581E-03
3.023394E+03	8.487676E-02	4.313952E-03
3.033307E+03	8.531211E-02	4.322832E-03
3.043220E+03	8.572383E-02	4.330335E-03
3.053132E+03	8.611030E-02	4.336388E-03
3.063045E+03	8.647184E-02	4.341021E-03
3.072958E+03	8.681240E-02	4.344441E-03
3.082871E+03	8.712876E-02	4.346498E-03
3.092784E+03	8.742316E-02	4.347315E-03
3.102696E+03	8.769432E-02	4.346838E-03
3.112609E+03	8.794805E-02	4.345365E-03
3.122522E+03	8.817967E-02	4.342674E-03
3.132435E+03	8.839154E-02	4.338892E-03
3.142347E+03	8.858599E-02	4.334142E-03
3.152260E+03	8.876369E-02	4.328464E-03
3.162173E+03	8.892201E-02	4.321740E-03
3.172086E+03	8.906666E-02	4.314256E-03
3.181998E+03	8.919509E-02	4.305895E-03
3.191911E+03	8.930973E-02	4.296782E-03
3.201824E+03	8.940977E-02	4.286886E-03
3.211737E+03	8.949767E-02	4.276332E-03
3.221649E+03	8.957426E-02	4.265166E-03
3.231562E+03	8.964040E-02	4.253433E-03
3.241475E+03	8.969545E-02	4.241110E-03
3.251388E+03	8.974187E-02	4.228318E-03
3.261301E+03	8.978059E-02	4.215106E-03
3.271213E+03	8.981108E-02	4.201454E-03
3.281126E+03	8.983577E-02	4.187479E-03
3.291039E+03	8.985424E-02	4.173165E-03
3.300952E+03	8.986894E-02	4.158629E-03
3.310864E+03	8.987947E-02	4.143856E-03
3.320777E+03	8.988694E-02	4.128898E-03
3.330690E+03	8.989246E-02	4.113810E-03
3.340603E+03	8.989714E-02	4.098643E-03
3.350515E+03	8.990216E-02	4.083452E-03
3.360428E+03	8.990739E-02	4.068231E-03
3.370341E+03	8.991541E-02	4.053098E-03
3.380254E+03	8.992490E-02	4.037992E-03
3.390167E+03	8.993980E-02	4.023090E-03
3.400079E+03	8.995891E-02	4.008336E-03
3.409992E+03	8.998372E-02	3.993794E-03
3.419905E+03	9.001571E-02	3.979529E-03
3.429818E+03	9.005514E-02	3.965548E-03
3.439730E+03	9.010469E-02	3.951966E-03
3.449643E+03	9.016466E-02	3.938792E-03
3.459556E+03	9.023538E-02	3.926035E-03
3.469469E+03	9.031853E-02	3.913763E-03
3.479381E+03	9.041471E-02	3.901997E-03
3.489294E+03	9.052703E-02	3.890864E-03
3.499207E+03	9.065429E-02	3.880305E-03
3.509120E+03	9.080009E-02	3.870467E-03
3.519033E+03	9.096608E-02	3.861410E-03
3.528945E+03	9.115540E-02	3.853258E-03
3.538858E+03	9.136935E-02	3.846054E-03
3.548771E+03	9.161070E-02	3.839902E-03
3.558684E+03	9.188476E-02	3.835011E-03
3.568596E+03	9.219292E-02	3.831420E-03
3.578509E+03	9.254111E-02	3.829359E-03
3.588422E+03	9.293349E-02	3.828978E-03
3.598335E+03	9.337335E-02	3.830391E-03
3.608247E+03	9.386532E-02	3.833761E-03
3.618160E+03	9.441513E-02	3.839295E-03
3.628073E+03	9.502653E-02	3.847115E-03
3.637986E+03	9.570634E-02	3.857463E-03
3.647898E+03	9.645703E-02	3.870405E-03
3.657811E+03	9.728400E-02	3.886118E-03
3.667724E+03	9.819115E-02	3.904719E-03
3.677637E+03	9.918286E-02	3.926338E-03
3.687550E+03	1.002607E-01	3.950994E-03
3.697462E+03	1.014275E-01	3.978753E-03
3.707375E+03	1.026839E-01	4.009596E-03
3.717288E+03	1.040306E-01	4.043499E-03
3.727201E+03	1.054657E-01	4.080348E-03
3.737113E+03	1.069872E-01	4.120018E-03
3.747026E+03	1.085905E-01	4.162288E-03
3.756939E+03	1.102694E-01	4.206883E-03
3.766852E+03	1.120196E-01	4.253599E-03
3.776764E+03	1.138297E-01	4.301971E-03
3.786677E+03	1.156912E-01	4.351652E-03
3.796590E+03	1.175944E-01	4.402256E-03
3.806503E+03	1.195250E-01	4.453229E-03
3.816416E+03	1.214700E-01	4.504077E-03
3.826328E+03	1.234164E-01	4.554324E-03
3.836241E+03	1.253499E-01	4.603443E-03
3.846154E+03	1.272556E-01	4.650903E-03
3.856067E+03	1.291174E-01	4.696138E-03
3.865979E+03	1.309216E-01	4.738683E-03
3.875892E+03	1.326539E-01	4.778057E-03
3.885805E+03	1.343006E-01	4.813815E-03
3.895718E+03	1.358489E-01	4.845550E-03
3.905630E+03	1.372871E-01	4.872901E-03
3.915543E+03	1.386055E-01	4.895597E-03
3.925456E+03	1.397948E-01	4.913373E-03
3.935369E+03	1.408450E-01	4.925958E-03
3.945282E+03	1.417514E-01	4.933262E-03
3.955194E+03	1.425063E-01	4.935099E-03
3.965107E+03	1.431053E-01	4.931406E-03
3.975020E+03	1.435438E-01	4.922111E-03
3.984933E+03	1.438169E-01	4.907128E-03
3.994845E+03	1.439240E-01	4.886532E-03
4.004758E+03	1.438619E-01	4.860301E-03
4.014671E+03	1.436307E-01	4.828532E-03
4.024584E+03	1.432305E-01	4.791315E-03
4.034496E+03	1.426626E-01	4.748781E-03
4.044409E+03	1.419297E-01	4.701107E-03
4.054322E+03	1.410373E-01	4.648556E-03
4.064235E+03	1.399899E-01	4.591362E-03
4.074148E+03	1.387950E-01	4.529846E-03
4.084060E+03	1.374644E-01	4.464460E-03
4.093973E+03	1.360065E-01	4.395540E-03
4.103886E+03	1.344347E-01	4.323585E-03
4.113799E+03	1.327627E-01	4.249085E-03
4.123711E+03	1.310056E-01	4.172564E-03
4.133624E+03	1.291794E-01	4.094567E-03
4.143537E+03	1.273009E-01	4.015660E-03
4.153450E+03	1.253882E-01	3.936425E-03
4.163362E+03	1.234597E-01	3.857456E-03
4.173275E+03	1.215345E-01	3.779348E-03
4.183188E+03	1.196322E-01	3.702704E-03
4.193101E+03	1.177714E-01	3.628081E-03
4.203013E+03	1.159714E-01	3.556052E-03
4.212926E+03	1.142519E-01	3.487188E-03
4.222839E+03	1.126308E-01	3.421992E-03
4.232752E+03	1.111221E-01	3.360849E-03
4.242665E+03	1.097412E-01	3.304168E-03
4.252577E+03	1.085001E-01	3.252258E-03
4.262490E+03	1.074082E-01	3.205339E-03
4.272403E+03	1.064718E-01	3.163539E-03
4.282316E+03	1.056932E-01	3.126865E-03
4.292228E+03	1.050745E-01	3.095311E-03
4.302141E+03	1.046104E-01	3.068662E-03
4.312054E+03	1.042964E-01	3.046726E-03
4.321967E+03	1.041229E-01	3.029167E-03
4.331879E+03	1.040783E-01	3.015595E-03
4.341792E+03	1.041468E-01	3.005514E-03
4.351705E+03	1.043137E-01	2.998458E-03
4.361618E+03	1.045646E-01	2.993986E-03
4.371531E+03	1.048850E-01	2.991655E-03
4.381443E+03	1.052560E-01	2.990911E-03
4.391356E+03	1.056567E-01	2.991148E-03
4.401269E+03	1.060663E-01	2.991771E-03
4.411182E+03	1.064606E-01	2.992102E-03
4.421094E+03	1.068154E-01	2.991470E-03
4.431007E+03	1.071071E-01	2.989231E-03
4.440920E+03	1.073096E-01	2.984680E-03
4.450833E+03	1.074009E-01	2.977239E-03
4.460745E+03	1.073604E-01	2.966362E-03
4.470658E+03	1.071691E-01	2.951567E-03
4.480571E+03	1.068128E-01	2.932505E-03
4.490484E+03	1.062814E-01	2.908940E-03
4.500397E+03	1.055693E-01	2.880760E-03
4.510309E+03	1.046755E-01	2.847978E-03
4.520222E+03	1.036026E-01	2.810704E-03
4.530135E+03	1.023575E-01	2.769159E-03
4.540048E+03	1.009543E-01	2.723755E-03
4.549960E+03	9.940661E-02	2.674888E-03
4.559873E+03	9.773216E-02	2.623052E-03
4.569786E+03	9.595291E-02	2.568852E-03
4.579699E+03	9.409142E-02	2.512900E-03
4.589611E+03	9.216828E-02	2.455750E-03
4.599524E+03	9.020951E-02	2.398092E-03
4.609437E+03	8.823421E-02	2.340428E-03
4.619350E+03	8.626522E-02	2.283349E-03
4.629262E+03	8.432058E-02	2.227316E-03
4.639175E+03	8.241616E-02	2.172726E-03
4.649088E+03	8.056521E-02	2.119906E-03
4.659001E+03	7.877841E-02	2.069116E-03
4.668914E+03	7.706555E-02	2.020587E-03
4.678826E+03	7.543196E-02	1.974437E-03
4.688739E+03	7.388177E-02	1.930750E-03
4.698652E+03	7.241826E-02	1.889589E-03
4.708565E+03	7.104114E-02	1.850925E-03
4.718477E+03	6.975306E-02	1.814807E-03
4.728390E+03	6.855312E-02	1.781191E-03
4.738303E+03	6.744330E-02	1.750112E-03
4.748216E+03	6.642343E-02	1.721548E-03
4.758128E+03	6.549150E-02	1.695430E-03
4.768041E+03	6.464717E-02	1.671734E-03
4.777954E+03	6.389001E-02	1.650436E-03
4.787867E+03	6.321759E-02	1.631459E-03
4.797780E+03	6.262961E-02	1.614785E-03
4.807692E+03	6.212528E-02	1.600382E-03
4.817605E+03	6.170336E-02	1.588208E-03
4.827518E+03	6.136330E-02	1.578240E-03
4.837431E+03	6.110515E-02	1.570470E-03
4.847343E+03	6.092756E-02	1.564857E-03
4.857256E+03	6.083021E-02	1.561385E-03
4.867169E+03	6.081046E-02	1.559980E-03
4.877082E+03	6.086713E-02	1.560606E-03
4.886994E+03	6.099790E-02	1.563200E-03
4.896907E+03	6.119927E-02	1.567667E-03
4.906820E+03	6.146850E-02	1.573934E-03
4.916733E+03	6.180113E-02	1.581884E-03
4.926646E+03	6.219352E-02	1.591420E-03
4.936558E+03	6.264043E-02	1.602408E-03
4.946471E+03	6.313693E-02	1.614719E-03
4.956384E+03	6.367716E-02	1.628204E-03
4.966297E+03	6.425695E-02	1.642753E-03
4.976209E+03	6.486930E-02	1.658189E-03
4.986122E+03	6.550818E-02	1.674357E-03
4.996035E+03	6.616798E-02	1.691113E-03
5.005948E+03	6.684152E-02	1.708275E-03
5.015860E+03	6.752197E-02	1.725669E-03
5.025773E+03	6.820238E-02	1.743117E-03
5.035686E+03	6.887569E-02	1.760439E-03
5.045599E+03	6.953418E-02	1.777439E-03
5.055511E+03	7.017095E-02	1.793940E-03
5.065424E+03	7.078022E-02	1.809795E-03
5.075337E+03	7.135453E-02	1.824814E-03
5.085250E+03	7.188990E-02	1.838895E-03
5.095163E+03	7.237940E-02	1.851859E-03
5.105075E+03	7.282059E-02	1.863645E-03
5.114988E+03	7.320961E-02	1.874153E-03
5.124901E+03	7.354433E-02	1.883327E-03
5.134814E+03	7.382356E-02	1.891135E-03
5.144726E+03	7.404635E-02	1.897553E-03
5.154639E+03	7.421357E-02	1.902601E-03
5.164552E+03	7.432639E-02	1.906307E-03
5.174465E+03	7.438924E-02	1.908783E-03
5.184377E+03	7.440362E-02	1.910066E-03
5.194290E+03	7.437489E-02	1.910292E-03
5.204203E+03	7.430821E-02	1.909592E-03
5.214116E+03	7.420909E-02	1.908105E-03
5.224029E+03	7.408167E-02	1.905938E-03
5.233941E+03	7.393232E-02	1.903252E-03
5.243854E+03	7.376559E-02	1.900164E-03
5.253767E+03	7.358645E-02	1.896801E-03
5.263680E+03	7.339864E-02	1.893258E-03
5.273592E+03	7.320708E-02	1.889663E-03
5.283505E+03	7.301406E-02	1.886075E-03
5.293418E+03	7.282318E-02	1.882586E-03
5.303331E+03	7.263707E-02	1.879265E-03
5.313243E+03	7.245977E-02	1.876217E-03
5.323156E+03	7.229230E-02	1.873470E-03
5.333069E+03	7.213881E-02	1.871130E-03
5.342982E+03	7.200310E-02	1.869297E-03
5.352895E+03	7.188899E-02	1.868068E-03
5.362807E+03	7.179853E-02	1.867495E-03
5.372720E+03	7.173461E-02	1.867654E-03
5.382633E+03	7.169944E-02	1.868601E-03
5.392546E+03	7.169140E-02	1.870295E-03
5.402458E+03	7.171058E-02	1.872738E-03
5.412371E+03	7.175379E-02	1.875847E-03
5.422284E+03	7.181811E-02	1.879546E-03
5.432197E+03	7.190308E-02	1.883823E-03
5.442109E+03	7.200434E-02	1.888563E-03
5.452022E+03	7.211973E-02	1.893710E-03
5.461935E+03	7.224517E-02	1.899157E-03
5.471848E+03	7.237838E-02	1.904842E-03
5.481761E+03	7.251343E-02	1.910608E-03
5.491673E+03	7.264661E-02	1.916357E-03
5.501586E+03	7.277295E-02	1.921957E-03
5.511499E+03	7.289005E-02	1.927340E-03
5.521412E+03	7.299281E-02	1.932372E-03
5.531324E+03	7.307815E-02	1.936966E-03
5.541237E+03	7.314253E-02	1.941027E-03
5.551150E+03	7.318452E-02	1.944513E-03
5.561063E+03	7.320086E-02	1.947335E-03
5.570975E+03	7.319034E-02	1.949457E-03
5.580888E+03	7.315222E-02	1.950854E-03
5.590801E+03	7.308560E-02	1.951501E-03
5.600714E+03	7.299075E-02	1.951400E-03
5.610626E+03	7.286696E-02	1.950528E-03
5.620539E+03	7.271540E-02	1.948913E-03
5.630452E+03	7.253764E-02	1.946595E-03
5.640365E+03	7.233473E-02	1.943597E-03
5.650278E+03	7.210800E-02	1.939953E-03
5.660190E+03	7.185888E-02	1.935697E-03
5.670103E+03	7.159037E-02	1.930909E-03
5.680016E+03	7.130239E-02	1.925584E-03
5.689929E+03	7.099779E-02	1.919796E-03
5.699841E+03	7.067761E-02	1.913572E-03
5.709754E+03	7.034196E-02	1.906912E-03
5.719667E+03	6.999212E-02	1.899850E-03
5.729580E+03	6.962912E-02	1.892412E-03
5.739492E+03	6.925215E-02	1.884575E-03
5.749405E+03	6.886096E-02	1.876330E-03
5.759318E+03	6.845661E-02	1.867705E-03
5.769231E+03	6.803705E-02	1.858642E-03
5.779144E+03	6.760243E-02	1.849145E-03
5.789056E+03	6.715222E-02	1.839197E-03
5.798969E+03	6.668595E-02	1.828784E-03
5.808882E+03	6.620409E-02	1.817917E-03
5.818795E+03	6.570502E-02	1.806551E-03
5.828707E+03	6.519038E-02	1.794729E-03
5.838620E+03	6.465980E-02	1.782439E-03
5.848533E+03	6.411399E-02	1.769700E-03
5.858446E+03	6.355397E-02	1.756540E-03
5.868358E+03	6.298117E-02	1.742995E-03
5.878271E+03	6.239812E-02	1.729136E-03
5.888184E+03	6.180568E-02	1.714986E-03
5.898097E+03	6.120663E-02	1.700620E-03
5.908010E+03	6.060498E-02	1.686151E-03
5.917922E+03	6.000448E-02	1.671683E-03
5.927835E+03	5.940794E-02	1.657295E-03
5.937748E+03	5.882140E-02	1.643157E-03
5.947661E+03	5.824769E-02	1.629349E-03
5.957573E+03	5.769396E-02	1.616074E-03
5.967486E+03	5.716329E-02	1.603421E-03
5.977399E+03	5.666078E-02	1.591536E-03
5.987312E+03	5.619195E-02	1.580578E-03
5.997224E+03	5.576069E-02	1.570662E-03
6.007137E+03	5.537117E-02	1.561910E-03
6.017050E+03	5.502585E-02	1.554397E-03
6.026963E+03	5.472924E-02	1.548256E-03
6.036875E+03	5.448212E-02	1.543518E-03
6.046788E+03	5.428796E-02	1.540286E-03
6.056701E+03	5.414762E-02	1.538594E-03
6.066614E+03	5.406129E-02	1.538453E-03
6.076527E+03	5.402909E-02	1.539876E-03
6.086439E+03	5.405093E-02	1.542868E-03
6.096352E+03	5.412468E-02	1.547377E-03
6.106265E+03	5.424805E-02	1.553345E-03
6.116178E+03	5.441941E-02	1.560733E-03
6.126090E+03	5.463364E-02	1.569403E-03
6.136003E+03	5.488707E-02	1.579257E-03
6.145916E+03	5.517538E-02	1.590177E-03
6.155829E+03	5.549366E-02	1.602028E-03
6.165741E+03	5.583505E-02	1.614615E-03
6.175654E+03	5.619289E-02	1.627747E-03
6.185567E+03	5.656084E-02	1.641244E-03
6.195480E+03	5.693194E-02	1.654904E-03
6.205393E+03	5.730172E-02	1.668596E-03
6.215305E+03	5.766505E-02	1.682170E-03
6.225218E+03	5.801784E-02	1.695504E-03
6.235131E+03	5.835552E-02	1.708463E-03
6.245044E+03	5.867390E-02	1.720920E-03
6.254956E+03	5.897010E-02	1.732788E-03
6.264869E+03	5.924178E-02	1.743992E-03
6.274782E+03	5.948549E-02	1.754427E-03
6.284695E+03	5.969996E-02	1.764049E-03
6.294607E+03	5.988445E-02	1.772830E-03
6.304520E+03	6.003705E-02	1.780708E-03
6.314433E+03	6.015879E-02	1.787708E-03
6.324346E+03	6.024948E-02	1.793817E-03
6.334259E+03	6.030927E-02	1.799034E-03
6.344171E+03	6.033860E-02	1.803366E-03
6.354084E+03	6.034005E-02	1.806883E-03
6.363997E+03	6.031370E-02	1.809583E-03
6.373910E+03	6.026255E-02	1.811549E-03
6.383822E+03	6.018802E-02	1.812820E-03
6.393735E+03	6.009159E-02	1.813434E-03
6.403648E+03	5.997573E-02	1.813462E-03
6.413561E+03	5.984204E-02	1.812948E-03
6.423473E+03	5.969303E-02	1.811964E-03
6.433386E+03	5.952840E-02	1.810498E-03
6.443299E+03	5.935149E-02	1.808647E-03
6.453212E+03	5.916372E-02	1.806452E-03
6.463125E+03	5.896550E-02	1.803923E-03
6.473037E+03	5.875906E-02	1.801126E-03
6.482950E+03	5.854555E-02	1.798094E-03
6.492863E+03	5.832612E-02	1.794861E-03
6.502776E+03	5.810182E-02	1.791456E-03
6.512688E+03	5.787455E-02	1.787938E-03
6.522601E+03	5.764434E-02	1.784306E-03
6.532514E+03	5.741203E-02	1.780587E-03
6.542427E+03	5.717940E-02	1.776833E-03
6.552339E+03	5.694723E-02	1.773069E-03
6.562252E+03	5.671532E-02	1.769288E-03
6.572165E+03	5.648532E-02	1.765542E-03
6.582078E+03	5.625696E-02	1.761823E-03
6.591990E+03	5.603283E-02	1.758211E-03
6.601903E+03	5.581162E-02	1.754667E-03
6.611816E+03	5.559393E-02	1.751210E-03
6.621729E+03	5.538130E-02	1.747888E-03
6.631642E+03	5.517430E-02	1.744720E-03
6.641554E+03	5.497246E-02	1.741693E-03
6.651467E+03	5.477629E-02	1.738825E-03
6.661380E+03	5.458720E-02	1.736160E-03
6.671293E+03	5.440464E-02	1.733682E-03
6.681205E+03	5.422995E-02	1.731436E-03
6.691118E+03	5.406151E-02	1.729372E-03
6.701031E+03	5.390152E-02	1.727562E-03
6.710944E+03	5.374823E-02	1.725950E-03
6.720856E+03	5.360371E-02	1.724605E-03
6.730769E+03	5.346609E-02	1.723469E-03
6.740682E+03	5.333633E-02	1.722574E-03
6.750595E+03	5.321434E-02	1.721919E-03
6.760508E+03	5.309906E-02	1.721471E-03
6.770420E+03	5.299124E-02	1.721257E-03
6.780333E+03	5.288970E-02	1.721241E-03
6.790246E+03	5.279516E-02	1.721445E-03
6.800159E+03	5.270532E-02	1.721799E-03
6.810071E+03	5.262182E-02	1.722357E-03
6.819984E+03	5.254334E-02	1.723076E-03
6.829897E+03	5.246945E-02	1.723945E-03
6.839810E+03	5.239879E-02	1.724921E-03
6.849722E+03	5.233287E-02	1.726053E-03
6.859635E+03	5.226825E-02	1.727231E-03
6.869548E+03	5.220750E-02	1.728540E-03
6.879461E+03	5.214810E-02	1.729898E-03
6.889374E+03	5.208958E-02	1.731290E-03
6.899286E+03	5.203248E-02	1.732735E-03
6.909199E+03	5.197531E-02	1.734185E-03
6.919112E+03	5.191757E-02	1.735624E-03
6.929025E+03	5.185882E-02	1.737037E-03
6.938937E+03	5.179860E-02	1.738410E-03
6.948850E+03	5.173645E-02	1.739729E-03
6.958763E+03	5.167097E-02	1.740945E-03
6.968676E+03	5.160374E-02	1.742113E-03
6.978588E+03	5.153133E-02	1.743118E-03
6.988501E+03	5.145644E-02	1.744050E-03
6.998414E+03	5.137565E-02	1.744794E-03
7.008327E+03	5.129065E-02	1.745407E-03
7.018239E+03	5.120014E-02	1.745846E-03
7.028152E+03	5.110383E-02	1.746099E-03
7.038065E+03	5.100252E-02	1.746195E-03
7.047978E+03	5.089394E-02	1.746055E-03
7.057891E+03	5.077892E-02	1.745706E-03
7.067803E+03	5.065630E-02	1.745110E-03
7.077716E+03	5.052700E-02	1.744296E-03
7.087629E+03	5.039094E-02	1.743262E-03
7.097542E+03	5.024707E-02	1.741970E-03
7.107454E+03	5.009643E-02	1.740456E-03
7.117367E+03	4.993704E-02	1.738651E-03
7.127280E+03	4.977105E-02	1.736627E-03
7.137193E+03	4.959762E-02	1.734356E-03
7.147105E+03	4.941598E-02	1.731810E-03
7.157018E+03	4.922743E-02	1.729032E-03
7.166931E+03	4.903233E-02	1.726036E-03
7.176844E+03	4.883010E-02	1.722799E-03
7.186757E+03	4.862121E-02	1.719337E-03
7.196669E+03	4.840620E-02	1.715669E-03
7.206582E+03	4.818567E-02	1.711815E-03
7.216495E+03	4.796027E-02	1.707797E-03
7.226408E+03	4.772875E-02	1.703571E-03
7.236320E+03	4.749388E-02	1.699234E-03
7.246233E+03	4.725555E-02	1.694783E-03
7.256146E+03	4.701373E-02	1.690214E-03
7.266059E+03	4.677041E-02	1.685601E-03
7.275971E+03	4.652468E-02	1.680910E-03
7.285884E+03	4.627769E-02	1.676183E-03
7.295797E+03	4.603051E-02	1.671457E-03
7.305710E+03	4.578330E-02	1.666741E-03
7.315623E+03	4.553810E-02	1.662107E-03
7.325535E+03	4.529299E-02	1.657488E-03
7.335448E+03	4.505083E-02	1.652988E-03
7.345361E+03	4.481052E-02	1.648567E-03
7.355274E+03	4.457368E-02	1.644287E-03
7.365186E+03	4.433984E-02	1.640131E-03
7.375099E+03	4.410928E-02	1.636111E-03
7.385012E+03	4.388303E-02	1.632266E-03
7.394925E+03	4.365999E-02	1.628555E-03
7.404837E+03	4.344249E-02	1.625064E-03
7.414750E+03	4.322802E-02	1.621699E-03
7.424663E+03	4.301749E-02	1.618492E-03
7.434576E+03	4.280877E-02	1.615364E-03
7.444489E+03	4.260333E-02	1.612368E-03
7.454401E+03	4.239874E-02	1.609412E-03
7.464314E+03	4.219339E-02	1.606432E-03
7.474227E+03	4.198654E-02	1.603398E-03
7.484140E+03	4.177703E-02	1.600264E-03
7.494052E+03	4.156565E-02	1.597057E-03
7.503965E+03	4.134953E-02	1.593665E-03
7.513878E+03	4.112847E-02	1.590075E-03
7.523791E+03	4.090229E-02	1.586278E-03
7.533703E+03	4.066902E-02	1.582192E-03
7.543616E+03	4.042856E-02	1.577811E-03
7.553529E+03	4.017912E-02	1.573060E-03
7.563442E+03	3.992179E-02	1.567975E-03
7.573354E+03	3.965419E-02	1.562460E-03
7.583267E+03	3.937777E-02	1.556565E-03
7.593180E+03	3.909053E-02	1.550206E-03
7.603093E+03	3.879427E-02	1.543448E-03
7.613006E+03	3.848737E-02	1.536223E-03
7.622918E+03	3.817194E-02	1.528609E-03
7.632831E+03	3.784755E-02	1.520583E-03
7.642744E+03	3.751476E-02	1.512162E-03
7.652657E+03	3.717424E-02	1.503370E-03
7.662569E+03	3.682675E-02	1.494232E-03
7.672482E+03	3.647307E-02	1.484774E-03
7.682395E+03	3.611321E-02	1.474995E-03
7.692308E+03	3.574974E-02	1.464995E-03
