#wls	flux	fluxerr
1.574803E+03	2.498895E-03	0.000000E+00
1.614173E+03	2.580463E-03	0.000000E+00
1.653543E+03	2.667178E-03	0.000000E+00
1.692913E+03	2.758969E-03	0.000000E+00
1.732283E+03	2.856743E-03	0.000000E+00
1.771654E+03	2.960098E-03	0.000000E+00
1.811024E+03	3.068990E-03	0.000000E+00
1.850394E+03	3.183713E-03	0.000000E+00
1.889764E+03	3.303361E-03	0.000000E+00
1.929134E+03	3.427869E-03	0.000000E+00
1.968504E+03	3.557197E-03	0.000000E+00
2.007874E+03	3.693334E-03	0.000000E+00
2.047244E+03	3.839826E-03	0.000000E+00
2.086614E+03	4.003255E-03	0.000000E+00
2.125984E+03	4.190642E-03	0.000000E+00
2.165354E+03	4.404822E-03	0.000000E+00
2.204724E+03	4.643525E-03	0.000000E+00
2.244094E+03	4.902065E-03	0.000000E+00
2.283465E+03	5.176209E-03	0.000000E+00
2.322835E+03	5.465993E-03	0.000000E+00
2.362205E+03	5.772721E-03	0.000000E+00
2.401575E+03	6.098844E-03	0.000000E+00
2.440945E+03	6.448364E-03	0.000000E+00
2.480315E+03	6.824229E-03	0.000000E+00
2.519685E+03	7.230397E-03	0.000000E+00
2.559055E+03	7.670642E-03	0.000000E+00
2.598425E+03	8.149416E-03	0.000000E+00
2.637795E+03	8.670735E-03	0.000000E+00
2.677165E+03	9.239131E-03	0.000000E+00
2.716535E+03	9.859425E-03	0.000000E+00
2.755906E+03	1.053688E-02	0.000000E+00
2.795276E+03	1.127756E-02	0.000000E+00
2.834646E+03	1.208924E-02	0.000000E+00
2.874016E+03	1.298151E-02	0.000000E+00
2.913386E+03	1.396676E-02	0.000000E+00
2.952756E+03	1.506010E-02	0.000000E+00
2.962598E+03	1.535276E-02	0.000000E+00
2.972441E+03	1.565323E-02	0.000000E+00
2.982283E+03	1.596244E-02	0.000000E+00
2.992126E+03	1.628031E-02	0.000000E+00
3.001969E+03	1.660755E-02	0.000000E+00
3.011811E+03	1.694493E-02	0.000000E+00
3.021654E+03	1.729195E-02	0.000000E+00
3.031496E+03	1.764991E-02	0.000000E+00
3.041339E+03	1.801833E-02	0.000000E+00
3.051181E+03	1.839818E-02	0.000000E+00
3.061024E+03	1.878933E-02	0.000000E+00
3.070866E+03	1.919203E-02	0.000000E+00
3.080709E+03	1.960727E-02	0.000000E+00
3.090551E+03	2.003453E-02	0.000000E+00
3.100394E+03	2.047520E-02	0.000000E+00
3.110236E+03	2.092834E-02	0.000000E+00
3.120079E+03	2.139534E-02	0.000000E+00
3.129921E+03	2.187560E-02	0.000000E+00
3.139764E+03	2.237009E-02	0.000000E+00
3.149606E+03	2.287855E-02	0.000000E+00
3.159449E+03	2.340152E-02	0.000000E+00
3.169291E+03	2.393908E-02	0.000000E+00
3.179134E+03	2.449125E-02	0.000000E+00
3.188976E+03	2.505762E-02	0.000000E+00
3.198819E+03	2.563892E-02	0.000000E+00
3.208661E+03	2.623460E-02	0.000000E+00
3.218504E+03	2.684485E-02	0.000000E+00
3.228346E+03	2.746893E-02	0.000000E+00
3.238189E+03	2.810643E-02	0.000000E+00
3.248031E+03	2.875724E-02	0.000000E+00
3.257874E+03	2.942029E-02	0.000000E+00
3.267717E+03	3.009523E-02	0.000000E+00
3.277559E+03	3.078114E-02	0.000000E+00
3.287402E+03	3.147604E-02	0.000000E+00
3.297244E+03	3.217959E-02	0.000000E+00
3.307087E+03	3.288992E-02	0.000000E+00
3.316929E+03	3.360543E-02	0.000000E+00
3.326772E+03	3.432434E-02	0.000000E+00
3.336614E+03	3.504375E-02	0.000000E+00
3.346457E+03	3.576244E-02	0.000000E+00
3.356299E+03	3.647763E-02	0.000000E+00
3.366142E+03	3.718633E-02	0.000000E+00
3.375984E+03	3.788589E-02	0.000000E+00
3.385827E+03	3.857353E-02	0.000000E+00
3.395669E+03	3.924537E-02	0.000000E+00
3.405512E+03	3.989891E-02	0.000000E+00
3.415354E+03	4.053015E-02	0.000000E+00
3.425197E+03	4.113603E-02	0.000000E+00
3.435039E+03	4.171305E-02	0.000000E+00
3.444882E+03	4.225780E-02	0.000000E+00
3.454724E+03	4.276698E-02	0.000000E+00
3.464567E+03	4.323748E-02	0.000000E+00
3.474409E+03	4.366596E-02	0.000000E+00
3.484252E+03	4.404934E-02	0.000000E+00
3.494094E+03	4.438540E-02	0.000000E+00
3.503937E+03	4.467181E-02	0.000000E+00
3.513780E+03	4.490715E-02	0.000000E+00
3.523622E+03	4.508953E-02	0.000000E+00
3.533465E+03	4.521850E-02	0.000000E+00
3.543307E+03	4.529364E-02	0.000000E+00
3.553150E+03	4.531600E-02	0.000000E+00
3.562992E+03	4.528573E-02	0.000000E+00
3.572835E+03	4.520441E-02	0.000000E+00
3.582677E+03	4.507282E-02	0.000000E+00
3.592520E+03	4.489347E-02	0.000000E+00
3.602362E+03	4.466889E-02	0.000000E+00
3.612205E+03	4.440199E-02	0.000000E+00
3.622047E+03	4.409639E-02	0.000000E+00
3.631890E+03	4.375595E-02	0.000000E+00
3.641732E+03	4.338431E-02	0.000000E+00
3.651575E+03	4.298602E-02	0.000000E+00
3.661417E+03	4.256488E-02	0.000000E+00
3.671260E+03	4.212581E-02	0.000000E+00
3.681102E+03	4.167286E-02	0.000000E+00
3.690945E+03	4.120997E-02	0.000000E+00
3.700787E+03	4.074120E-02	0.000000E+00
3.710630E+03	4.027071E-02	0.000000E+00
3.720472E+03	3.980166E-02	0.000000E+00
3.730315E+03	3.933756E-02	0.000000E+00
3.740157E+03	3.888087E-02	0.000000E+00
3.750000E+03	3.843403E-02	0.000000E+00
3.759843E+03	3.799940E-02	0.000000E+00
3.769685E+03	3.757893E-02	0.000000E+00
3.779528E+03	3.717353E-02	0.000000E+00
3.789370E+03	3.678464E-02	0.000000E+00
3.799213E+03	3.641210E-02	0.000000E+00
3.809055E+03	3.605689E-02	0.000000E+00
3.818898E+03	3.571814E-02	0.000000E+00
3.828740E+03	3.539612E-02	0.000000E+00
3.838583E+03	3.508967E-02	0.000000E+00
3.848425E+03	3.479790E-02	0.000000E+00
3.858268E+03	3.451943E-02	0.000000E+00
3.868110E+03	3.425298E-02	0.000000E+00
3.877953E+03	3.399682E-02	0.000000E+00
3.887795E+03	3.374968E-02	0.000000E+00
3.897638E+03	3.350941E-02	0.000000E+00
3.907480E+03	3.327437E-02	0.000000E+00
3.917323E+03	3.304268E-02	0.000000E+00
3.927165E+03	3.281305E-02	0.000000E+00
3.937008E+03	3.258375E-02	0.000000E+00
3.946850E+03	3.235321E-02	0.000000E+00
3.956693E+03	3.211999E-02	0.000000E+00
3.966535E+03	3.188337E-02	0.000000E+00
3.976378E+03	3.164205E-02	0.000000E+00
3.986220E+03	3.139569E-02	0.000000E+00
3.996063E+03	3.114344E-02	0.000000E+00
4.005906E+03	3.088514E-02	0.000000E+00
4.015748E+03	3.062082E-02	0.000000E+00
4.025591E+03	3.035049E-02	0.000000E+00
4.035433E+03	3.007429E-02	0.000000E+00
4.045276E+03	2.979254E-02	0.000000E+00
4.055118E+03	2.950617E-02	0.000000E+00
4.064961E+03	2.921546E-02	0.000000E+00
4.074803E+03	2.892127E-02	0.000000E+00
4.084646E+03	2.862404E-02	0.000000E+00
4.094488E+03	2.832471E-02	0.000000E+00
4.104331E+03	2.802420E-02	0.000000E+00
4.114173E+03	2.772300E-02	0.000000E+00
4.124016E+03	2.742202E-02	0.000000E+00
4.133858E+03	2.712167E-02	0.000000E+00
4.143701E+03	2.682280E-02	0.000000E+00
4.153543E+03	2.652579E-02	0.000000E+00
4.163386E+03	2.623137E-02	0.000000E+00
4.173228E+03	2.593984E-02	0.000000E+00
4.183071E+03	2.565170E-02	0.000000E+00
4.192913E+03	2.536718E-02	0.000000E+00
4.202756E+03	2.508694E-02	0.000000E+00
4.212598E+03	2.481122E-02	0.000000E+00
4.222441E+03	2.454044E-02	0.000000E+00
4.232283E+03	2.427486E-02	0.000000E+00
4.242126E+03	2.401475E-02	0.000000E+00
4.251969E+03	2.376059E-02	0.000000E+00
4.261811E+03	2.351287E-02	0.000000E+00
4.271654E+03	2.327190E-02	0.000000E+00
4.281496E+03	2.303819E-02	0.000000E+00
4.291339E+03	2.281207E-02	0.000000E+00
4.301181E+03	2.259423E-02	0.000000E+00
4.311024E+03	2.238512E-02	0.000000E+00
4.320866E+03	2.218571E-02	0.000000E+00
4.330709E+03	2.199637E-02	0.000000E+00
4.340551E+03	2.181774E-02	0.000000E+00
4.350394E+03	2.165018E-02	0.000000E+00
4.360236E+03	2.149431E-02	0.000000E+00
4.370079E+03	2.135006E-02	0.000000E+00
4.379921E+03	2.121743E-02	0.000000E+00
4.389764E+03	2.109641E-02	0.000000E+00
4.399606E+03	2.098669E-02	0.000000E+00
4.409449E+03	2.088775E-02	0.000000E+00
4.419291E+03	2.079875E-02	0.000000E+00
4.429134E+03	2.071901E-02	0.000000E+00
4.438976E+03	2.064734E-02	0.000000E+00
4.448819E+03	2.058257E-02	0.000000E+00
4.458661E+03	2.052337E-02	0.000000E+00
4.468504E+03	2.046796E-02	0.000000E+00
4.478346E+03	2.041497E-02	0.000000E+00
4.488189E+03	2.036260E-02	0.000000E+00
4.498031E+03	2.030919E-02	0.000000E+00
4.507874E+03	2.025273E-02	0.000000E+00
4.517717E+03	2.019178E-02	0.000000E+00
4.527559E+03	2.012442E-02	0.000000E+00
4.537402E+03	2.004940E-02	0.000000E+00
4.547244E+03	1.996507E-02	0.000000E+00
4.557087E+03	1.987036E-02	0.000000E+00
4.566929E+03	1.976422E-02	0.000000E+00
4.576772E+03	1.964620E-02	0.000000E+00
4.586614E+03	1.951563E-02	0.000000E+00
4.596457E+03	1.937262E-02	0.000000E+00
4.606299E+03	1.921723E-02	0.000000E+00
4.616142E+03	1.904981E-02	0.000000E+00
4.625984E+03	1.887136E-02	0.000000E+00
4.635827E+03	1.868258E-02	0.000000E+00
4.645669E+03	1.848479E-02	0.000000E+00
4.655512E+03	1.827917E-02	0.000000E+00
4.665354E+03	1.806742E-02	0.000000E+00
4.675197E+03	1.785088E-02	0.000000E+00
4.685039E+03	1.763149E-02	0.000000E+00
4.694882E+03	1.741094E-02	0.000000E+00
4.704724E+03	1.719128E-02	0.000000E+00
4.714567E+03	1.697423E-02	0.000000E+00
4.724409E+03	1.676163E-02	0.000000E+00
4.734252E+03	1.655529E-02	0.000000E+00
4.744094E+03	1.635690E-02	0.000000E+00
4.753937E+03	1.616807E-02	0.000000E+00
4.763780E+03	1.599013E-02	0.000000E+00
4.773622E+03	1.582456E-02	0.000000E+00
4.783465E+03	1.567259E-02	0.000000E+00
4.793307E+03	1.553510E-02	0.000000E+00
4.803150E+03	1.541302E-02	0.000000E+00
4.812992E+03	1.530725E-02	0.000000E+00
4.822835E+03	1.521812E-02	0.000000E+00
4.832677E+03	1.514639E-02	0.000000E+00
4.842520E+03	1.509226E-02	0.000000E+00
4.852362E+03	1.505581E-02	0.000000E+00
4.862205E+03	1.503730E-02	0.000000E+00
4.872047E+03	1.503672E-02	0.000000E+00
4.881890E+03	1.505385E-02	0.000000E+00
4.891732E+03	1.508868E-02	0.000000E+00
4.901575E+03	1.514066E-02	0.000000E+00
4.911417E+03	1.520980E-02	0.000000E+00
4.921260E+03	1.529562E-02	0.000000E+00
4.931102E+03	1.539758E-02	0.000000E+00
4.940945E+03	1.551542E-02	0.000000E+00
4.950787E+03	1.564856E-02	0.000000E+00
4.960630E+03	1.579653E-02	0.000000E+00
4.970472E+03	1.595889E-02	0.000000E+00
4.980315E+03	1.613513E-02	0.000000E+00
4.990157E+03	1.632462E-02	0.000000E+00
5.000000E+03	1.652700E-02	0.000000E+00
5.009843E+03	1.674158E-02	0.000000E+00
5.019685E+03	1.696782E-02	0.000000E+00
5.029528E+03	1.720497E-02	0.000000E+00
5.039370E+03	1.745259E-02	0.000000E+00
5.049213E+03	1.770967E-02	0.000000E+00
5.059055E+03	1.797586E-02	0.000000E+00
5.068898E+03	1.825003E-02	0.000000E+00
5.078740E+03	1.853153E-02	0.000000E+00
5.088583E+03	1.881929E-02	0.000000E+00
5.098425E+03	1.911214E-02	0.000000E+00
5.108268E+03	1.940920E-02	0.000000E+00
5.118110E+03	1.970915E-02	0.000000E+00
5.127953E+03	2.001078E-02	0.000000E+00
5.137795E+03	2.031278E-02	0.000000E+00
5.147638E+03	2.061360E-02	0.000000E+00
5.157480E+03	2.091181E-02	0.000000E+00
5.167323E+03	2.120570E-02	0.000000E+00
5.177165E+03	2.149397E-02	0.000000E+00
5.187008E+03	2.177484E-02	0.000000E+00
5.196850E+03	2.204673E-02	0.000000E+00
5.206693E+03	2.230807E-02	0.000000E+00
5.216535E+03	2.255708E-02	0.000000E+00
5.226378E+03	2.279221E-02	0.000000E+00
5.236220E+03	2.301201E-02	0.000000E+00
5.246063E+03	2.321506E-02	0.000000E+00
5.255906E+03	2.339984E-02	0.000000E+00
5.265748E+03	2.356541E-02	0.000000E+00
5.275591E+03	2.371077E-02	0.000000E+00
5.285433E+03	2.383514E-02	0.000000E+00
5.295276E+03	2.393782E-02	0.000000E+00
5.305118E+03	2.401938E-02	0.000000E+00
5.314961E+03	2.408000E-02	0.000000E+00
5.324803E+03	2.412082E-02	0.000000E+00
5.334646E+03	2.414240E-02	0.000000E+00
5.344488E+03	2.414594E-02	0.000000E+00
5.354331E+03	2.413247E-02	0.000000E+00
5.364173E+03	2.410359E-02	0.000000E+00
5.374016E+03	2.406019E-02	0.000000E+00
5.383858E+03	2.400321E-02	0.000000E+00
5.393701E+03	2.393335E-02	0.000000E+00
5.403543E+03	2.385179E-02	0.000000E+00
5.413386E+03	2.375920E-02	0.000000E+00
5.423228E+03	2.365652E-02	0.000000E+00
5.433071E+03	2.354462E-02	0.000000E+00
5.442913E+03	2.342437E-02	0.000000E+00
5.452756E+03	2.329660E-02	0.000000E+00
5.462598E+03	2.316236E-02	0.000000E+00
5.472441E+03	2.302244E-02	0.000000E+00
5.482283E+03	2.287805E-02	0.000000E+00
5.492126E+03	2.272972E-02	0.000000E+00
5.501969E+03	2.257886E-02	0.000000E+00
5.511811E+03	2.242596E-02	0.000000E+00
5.521654E+03	2.227220E-02	0.000000E+00
5.531496E+03	2.211873E-02	0.000000E+00
5.541339E+03	2.196603E-02	0.000000E+00
5.551181E+03	2.181570E-02	0.000000E+00
5.561024E+03	2.166844E-02	0.000000E+00
5.570866E+03	2.152493E-02	0.000000E+00
5.580709E+03	2.138675E-02	0.000000E+00
5.590551E+03	2.125431E-02	0.000000E+00
5.600394E+03	2.112870E-02	0.000000E+00
5.610236E+03	2.101092E-02	0.000000E+00
5.620079E+03	2.090172E-02	0.000000E+00
5.629921E+03	2.080179E-02	0.000000E+00
5.639764E+03	2.071173E-02	0.000000E+00
5.649606E+03	2.063224E-02	0.000000E+00
5.659449E+03	2.056395E-02	0.000000E+00
5.669291E+03	2.050667E-02	0.000000E+00
5.679134E+03	2.046118E-02	0.000000E+00
5.688976E+03	2.042701E-02	0.000000E+00
5.698819E+03	2.040441E-02	0.000000E+00
5.708661E+03	2.039280E-02	0.000000E+00
5.718504E+03	2.039186E-02	0.000000E+00
5.728346E+03	2.040090E-02	0.000000E+00
5.738189E+03	2.041925E-02	0.000000E+00
5.748031E+03	2.044565E-02	0.000000E+00
5.757874E+03	2.047893E-02	0.000000E+00
5.767717E+03	2.051798E-02	0.000000E+00
5.777559E+03	2.056161E-02	0.000000E+00
5.787402E+03	2.060785E-02	0.000000E+00
5.797244E+03	2.065559E-02	0.000000E+00
5.807087E+03	2.070301E-02	0.000000E+00
5.816929E+03	2.074877E-02	0.000000E+00
5.826772E+03	2.079133E-02	0.000000E+00
5.836614E+03	2.082900E-02	0.000000E+00
5.846457E+03	2.086067E-02	0.000000E+00
5.856299E+03	2.088512E-02	0.000000E+00
5.866142E+03	2.090107E-02	0.000000E+00
5.875984E+03	2.090812E-02	0.000000E+00
5.885827E+03	2.090510E-02	0.000000E+00
5.895669E+03	2.089179E-02	0.000000E+00
5.905512E+03	2.086787E-02	0.000000E+00
5.915354E+03	2.083302E-02	0.000000E+00
5.925197E+03	2.078753E-02	0.000000E+00
5.935039E+03	2.073117E-02	0.000000E+00
5.944882E+03	2.066479E-02	0.000000E+00
5.954724E+03	2.058842E-02	0.000000E+00
5.964567E+03	2.050286E-02	0.000000E+00
5.974409E+03	2.040857E-02	0.000000E+00
5.984252E+03	2.030624E-02	0.000000E+00
5.994094E+03	2.019639E-02	0.000000E+00
6.003937E+03	2.007956E-02	0.000000E+00
6.013780E+03	1.995674E-02	0.000000E+00
6.023622E+03	1.982800E-02	0.000000E+00
6.033465E+03	1.969431E-02	0.000000E+00
6.043307E+03	1.955595E-02	0.000000E+00
6.053150E+03	1.941364E-02	0.000000E+00
6.062992E+03	1.926712E-02	0.000000E+00
6.072835E+03	1.911733E-02	0.000000E+00
6.082677E+03	1.896424E-02	0.000000E+00
6.092520E+03	1.880829E-02	0.000000E+00
6.102362E+03	1.864969E-02	0.000000E+00
6.112205E+03	1.848954E-02	0.000000E+00
6.122047E+03	1.832919E-02	0.000000E+00
6.131890E+03	1.816995E-02	0.000000E+00
6.141732E+03	1.801309E-02	0.000000E+00
6.151575E+03	1.785918E-02	0.000000E+00
6.161417E+03	1.770985E-02	0.000000E+00
6.171260E+03	1.756532E-02	0.000000E+00
6.181102E+03	1.742665E-02	0.000000E+00
6.190945E+03	1.729460E-02	0.000000E+00
6.200787E+03	1.716915E-02	0.000000E+00
6.210630E+03	1.705084E-02	0.000000E+00
6.220472E+03	1.693994E-02	0.000000E+00
6.230315E+03	1.683655E-02	0.000000E+00
6.240157E+03	1.674025E-02	0.000000E+00
6.250000E+03	1.665096E-02	0.000000E+00
6.259843E+03	1.656825E-02	0.000000E+00
6.269685E+03	1.649165E-02	0.000000E+00
6.279528E+03	1.642036E-02	0.000000E+00
6.289370E+03	1.635351E-02	0.000000E+00
6.299213E+03	1.629021E-02	0.000000E+00
6.309055E+03	1.622975E-02	0.000000E+00
6.318898E+03	1.617123E-02	0.000000E+00
6.328740E+03	1.611324E-02	0.000000E+00
6.338583E+03	1.605585E-02	0.000000E+00
6.348425E+03	1.599847E-02	0.000000E+00
6.358268E+03	1.594082E-02	0.000000E+00
6.368110E+03	1.588294E-02	0.000000E+00
6.377953E+03	1.582424E-02	0.000000E+00
6.387795E+03	1.576496E-02	0.000000E+00
6.397638E+03	1.570493E-02	0.000000E+00
6.407480E+03	1.564432E-02	0.000000E+00
6.417323E+03	1.558268E-02	0.000000E+00
6.427165E+03	1.552080E-02	0.000000E+00
6.437008E+03	1.545835E-02	0.000000E+00
6.446850E+03	1.539577E-02	0.000000E+00
6.456693E+03	1.533329E-02	0.000000E+00
6.466535E+03	1.527090E-02	0.000000E+00
6.476378E+03	1.520910E-02	0.000000E+00
6.486220E+03	1.514810E-02	0.000000E+00
6.496063E+03	1.508789E-02	0.000000E+00
6.505906E+03	1.502864E-02	0.000000E+00
6.515748E+03	1.497046E-02	0.000000E+00
6.525591E+03	1.491372E-02	0.000000E+00
6.535433E+03	1.485793E-02	0.000000E+00
6.545276E+03	1.480335E-02	0.000000E+00
6.555118E+03	1.474991E-02	0.000000E+00
6.564961E+03	1.469725E-02	0.000000E+00
6.574803E+03	1.464548E-02	0.000000E+00
6.584646E+03	1.459420E-02	0.000000E+00
6.594488E+03	1.454346E-02	0.000000E+00
6.604331E+03	1.449254E-02	0.000000E+00
6.614173E+03	1.444151E-02	0.000000E+00
6.624016E+03	1.439042E-02	0.000000E+00
6.633858E+03	1.433859E-02	0.000000E+00
6.643701E+03	1.428613E-02	0.000000E+00
6.653543E+03	1.423266E-02	0.000000E+00
6.663386E+03	1.417838E-02	0.000000E+00
6.673228E+03	1.412299E-02	0.000000E+00
6.683071E+03	1.406653E-02	0.000000E+00
6.692913E+03	1.400931E-02	0.000000E+00
6.702756E+03	1.395097E-02	0.000000E+00
6.712598E+03	1.389218E-02	0.000000E+00
6.722441E+03	1.383266E-02	0.000000E+00
6.732283E+03	1.377319E-02	0.000000E+00
6.742126E+03	1.371356E-02	0.000000E+00
6.751969E+03	1.365410E-02	0.000000E+00
6.761811E+03	1.359542E-02	0.000000E+00
6.771654E+03	1.353788E-02	0.000000E+00
6.781496E+03	1.348136E-02	0.000000E+00
6.791339E+03	1.342672E-02	0.000000E+00
6.801181E+03	1.337406E-02	0.000000E+00
6.811024E+03	1.332397E-02	0.000000E+00
6.820866E+03	1.327625E-02	0.000000E+00
6.830709E+03	1.323142E-02	0.000000E+00
6.840551E+03	1.318969E-02	0.000000E+00
6.850394E+03	1.315098E-02	0.000000E+00
6.860236E+03	1.311568E-02	0.000000E+00
6.870079E+03	1.308382E-02	0.000000E+00
6.879921E+03	1.305515E-02	0.000000E+00
6.889764E+03	1.302962E-02	0.000000E+00
6.899606E+03	1.300709E-02	0.000000E+00
6.909449E+03	1.298764E-02	0.000000E+00
6.919291E+03	1.297052E-02	0.000000E+00
6.929134E+03	1.295594E-02	0.000000E+00
6.938976E+03	1.294305E-02	0.000000E+00
6.948819E+03	1.293175E-02	0.000000E+00
6.958661E+03	1.292135E-02	0.000000E+00
6.968504E+03	1.291171E-02	0.000000E+00
6.978346E+03	1.290238E-02	0.000000E+00
6.988189E+03	1.289265E-02	0.000000E+00
6.998031E+03	1.288184E-02	0.000000E+00
7.007874E+03	1.287005E-02	0.000000E+00
7.017717E+03	1.285663E-02	0.000000E+00
7.027559E+03	1.284123E-02	0.000000E+00
7.037402E+03	1.282352E-02	0.000000E+00
7.047244E+03	1.280298E-02	0.000000E+00
7.057087E+03	1.277966E-02	0.000000E+00
7.066929E+03	1.275312E-02	0.000000E+00
7.076772E+03	1.272325E-02	0.000000E+00
7.086614E+03	1.269025E-02	0.000000E+00
7.096457E+03	1.265386E-02	0.000000E+00
7.106299E+03	1.261439E-02	0.000000E+00
7.116142E+03	1.257138E-02	0.000000E+00
7.125984E+03	1.252526E-02	0.000000E+00
7.135827E+03	1.247619E-02	0.000000E+00
7.145669E+03	1.242437E-02	0.000000E+00
7.155512E+03	1.237007E-02	0.000000E+00
7.165354E+03	1.231355E-02	0.000000E+00
7.175197E+03	1.225485E-02	0.000000E+00
7.185039E+03	1.219456E-02	0.000000E+00
7.194882E+03	1.213303E-02	0.000000E+00
7.204724E+03	1.207063E-02	0.000000E+00
7.214567E+03	1.200749E-02	0.000000E+00
7.224409E+03	1.194427E-02	0.000000E+00
7.234252E+03	1.188166E-02	0.000000E+00
7.244094E+03	1.181957E-02	0.000000E+00
7.253937E+03	1.175871E-02	0.000000E+00
7.263780E+03	1.169957E-02	0.000000E+00
7.273622E+03	1.164287E-02	0.000000E+00
7.283465E+03	1.158884E-02	0.000000E+00
7.293307E+03	1.153823E-02	0.000000E+00
7.303150E+03	1.149181E-02	0.000000E+00
7.312992E+03	1.144981E-02	0.000000E+00
7.322835E+03	1.141324E-02	0.000000E+00
7.332677E+03	1.138209E-02	0.000000E+00
7.342520E+03	1.135708E-02	0.000000E+00
7.352362E+03	1.133843E-02	0.000000E+00
7.362205E+03	1.132683E-02	0.000000E+00
7.372047E+03	1.132218E-02	0.000000E+00
7.381890E+03	1.132512E-02	0.000000E+00
7.391732E+03	1.133600E-02	0.000000E+00
7.401575E+03	1.135484E-02	0.000000E+00
7.411417E+03	1.138238E-02	0.000000E+00
7.421260E+03	1.141825E-02	0.000000E+00
7.431102E+03	1.146276E-02	0.000000E+00
7.440945E+03	1.151563E-02	0.000000E+00
7.450787E+03	1.157704E-02	0.000000E+00
7.460630E+03	1.164654E-02	0.000000E+00
7.470472E+03	1.172423E-02	0.000000E+00
7.480315E+03	1.180958E-02	0.000000E+00
7.490157E+03	1.190233E-02	0.000000E+00
7.500000E+03	1.200247E-02	0.000000E+00
7.509843E+03	1.210939E-02	0.000000E+00
7.519685E+03	1.222279E-02	0.000000E+00
7.529528E+03	1.234261E-02	0.000000E+00
7.539370E+03	1.246823E-02	0.000000E+00
7.549213E+03	1.259959E-02	0.000000E+00
7.559055E+03	1.273573E-02	0.000000E+00
7.568898E+03	1.287690E-02	0.000000E+00
7.578740E+03	1.302276E-02	0.000000E+00
7.588583E+03	1.317260E-02	0.000000E+00
7.598425E+03	1.332639E-02	0.000000E+00
7.608268E+03	1.348340E-02	0.000000E+00
7.618110E+03	1.364322E-02	0.000000E+00
7.627953E+03	1.380578E-02	0.000000E+00
7.637795E+03	1.397064E-02	0.000000E+00
