#wls	flux	fluxerr
1.574803E+03	3.694930E-03	2.193058E-04
1.614173E+03	3.730004E-03	2.203817E-04
1.653543E+03	3.765881E-03	2.214606E-04
1.692913E+03	3.801874E-03	2.225005E-04
1.732283E+03	3.838661E-03	2.235395E-04
1.771654E+03	3.875140E-03	2.245118E-04
1.811024E+03	3.911943E-03	2.254528E-04
1.850394E+03	3.948089E-03	2.263046E-04
1.889764E+03	3.982977E-03	2.270324E-04
1.929134E+03	4.016148E-03	2.276099E-04
1.968504E+03	4.048301E-03	2.280769E-04
2.007874E+03	4.082195E-03	2.285878E-04
2.047244E+03	4.121806E-03	2.293605E-04
2.086614E+03	4.175638E-03	2.308578E-04
2.125984E+03	4.251140E-03	2.334715E-04
2.165354E+03	4.352547E-03	2.374064E-04
2.204724E+03	4.479521E-03	2.426118E-04
2.244094E+03	4.628277E-03	2.488509E-04
2.283465E+03	4.794900E-03	2.558848E-04
2.322835E+03	4.977341E-03	2.635782E-04
2.362205E+03	5.172688E-03	2.717533E-04
2.401575E+03	5.381199E-03	2.804013E-04
2.440945E+03	5.601703E-03	2.894384E-04
2.480315E+03	5.835350E-03	2.989009E-04
2.519685E+03	6.081739E-03	3.087437E-04
2.559055E+03	6.341673E-03	3.189819E-04
2.598425E+03	6.615519E-03	3.296068E-04
2.637795E+03	6.904364E-03	3.406434E-04
2.677165E+03	7.207334E-03	3.520180E-04
2.716535E+03	7.525877E-03	3.637700E-04
2.755906E+03	7.860312E-03	3.758808E-04
2.795276E+03	8.211409E-03	3.883517E-04
2.834646E+03	8.580432E-03	4.012041E-04
2.874016E+03	8.970669E-03	4.145494E-04
2.913386E+03	9.386334E-03	4.285329E-04
2.952756E+03	9.833097E-03	4.433544E-04
2.962598E+03	9.950774E-03	4.472335E-04
2.972441E+03	1.007089E-02	4.511818E-04
2.982283E+03	1.019349E-02	4.551996E-04
2.992126E+03	1.031932E-02	4.593192E-04
3.001969E+03	1.044816E-02	4.635289E-04
3.011811E+03	1.058049E-02	4.678483E-04
3.021654E+03	1.071599E-02	4.722619E-04
3.031496E+03	1.085574E-02	4.768154E-04
3.041339E+03	1.099911E-02	4.814785E-04
3.051181E+03	1.114649E-02	4.862668E-04
3.061024E+03	1.129830E-02	4.911965E-04
3.070866E+03	1.145462E-02	4.962688E-04
3.080709E+03	1.161590E-02	5.015005E-04
3.090551E+03	1.178190E-02	5.068790E-04
3.100394E+03	1.195344E-02	5.124367E-04
3.110236E+03	1.213066E-02	5.181771E-04
3.120079E+03	1.231406E-02	5.241186E-04
3.129921E+03	1.250351E-02	5.302518E-04
3.139764E+03	1.269955E-02	5.365970E-04
3.149606E+03	1.290276E-02	5.431750E-04
3.159449E+03	1.311343E-02	5.499937E-04
3.169291E+03	1.333217E-02	5.570757E-04
3.179134E+03	1.355934E-02	5.644314E-04
3.188976E+03	1.379566E-02	5.720858E-04
3.198819E+03	1.404155E-02	5.800519E-04
3.208661E+03	1.429748E-02	5.883440E-04
3.218504E+03	1.456432E-02	5.969924E-04
3.228346E+03	1.484264E-02	6.060149E-04
3.238189E+03	1.513310E-02	6.154320E-04
3.248031E+03	1.543709E-02	6.252934E-04
3.257874E+03	1.575505E-02	6.356100E-04
3.267717E+03	1.608783E-02	6.464090E-04
3.277559E+03	1.643638E-02	6.577196E-04
3.287402E+03	1.680239E-02	6.696015E-04
3.297244E+03	1.718628E-02	6.820619E-04
3.307087E+03	1.758956E-02	6.951510E-04
3.316929E+03	1.801347E-02	7.089075E-04
3.326772E+03	1.845897E-02	7.233574E-04
3.336614E+03	1.892739E-02	7.385410E-04
3.346457E+03	1.942041E-02	7.545120E-04
3.356299E+03	1.993825E-02	7.712651E-04
3.366142E+03	1.733611E-02	6.676703E-04
3.368110E+03	1.747538E-02	6.724408E-04
3.370079E+03	1.768880E-02	6.800517E-04
3.372047E+03	1.793968E-02	6.890870E-04
3.374016E+03	1.820358E-02	6.986042E-04
3.375984E+03	1.846101E-02	7.078550E-04
3.377953E+03	1.877463E-02	7.192407E-04
3.379921E+03	1.906116E-02	7.295672E-04
3.381890E+03	1.941917E-02	7.426077E-04
3.383858E+03	1.974015E-02	7.542083E-04
3.385827E+03	2.015633E-02	7.694203E-04
3.387795E+03	2.051866E-02	7.825496E-04
3.389764E+03	2.097658E-02	7.992962E-04
3.391732E+03	2.142345E-02	8.155906E-04
3.393701E+03	2.194109E-02	8.345451E-04
3.395669E+03	2.242590E-02	8.522164E-04
3.397638E+03	2.296849E-02	8.720474E-04
3.399606E+03	2.347136E-02	8.903343E-04
3.401575E+03	2.411040E-02	9.137463E-04
3.403543E+03	2.464703E-02	9.332364E-04
3.405512E+03	2.523687E-02	9.547016E-04
3.407480E+03	2.579541E-02	9.749429E-04
3.409449E+03	2.644884E-02	9.987283E-04
3.411417E+03	2.705722E-02	1.020768E-03
3.413386E+03	2.764310E-02	1.041918E-03
3.415354E+03	2.829864E-02	1.065649E-03
3.417323E+03	2.893322E-02	1.088546E-03
3.419291E+03	2.953843E-02	1.110295E-03
3.421260E+03	3.016780E-02	1.132908E-03
3.423228E+03	3.080871E-02	1.155910E-03
3.425197E+03	3.143631E-02	1.178368E-03
3.427165E+03	3.202420E-02	1.199295E-03
3.429134E+03	3.259342E-02	1.219481E-03
3.431102E+03	3.317189E-02	1.239973E-03
3.433071E+03	3.374546E-02	1.260241E-03
3.435039E+03	3.434129E-02	1.281299E-03
3.437008E+03	3.487445E-02	1.299979E-03
3.438976E+03	3.531278E-02	1.315090E-03
3.440945E+03	3.576955E-02	1.330854E-03
3.442913E+03	3.627536E-02	1.348410E-03
3.444882E+03	3.669322E-02	1.362663E-03
3.446850E+03	3.704379E-02	1.374389E-03
3.448819E+03	3.735958E-02	1.384801E-03
3.450787E+03	3.764136E-02	1.393931E-03
3.452756E+03	3.790137E-02	1.402234E-03
3.454724E+03	3.819396E-02	1.411723E-03
3.456693E+03	3.843149E-02	1.419157E-03
3.458661E+03	3.859440E-02	1.423821E-03
3.460630E+03	3.878798E-02	1.429603E-03
3.462598E+03	3.895481E-02	1.434385E-03
3.464567E+03	3.911402E-02	1.438875E-03
3.466535E+03	3.921199E-02	1.441102E-03
3.468504E+03	3.932149E-02	1.443745E-03
3.470472E+03	3.942717E-02	1.446239E-03
3.472441E+03	3.948315E-02	1.446903E-03
3.474409E+03	3.954678E-02	1.447842E-03
3.476378E+03	3.952618E-02	1.445695E-03
3.478346E+03	3.956686E-02	1.445788E-03
3.480315E+03	3.955400E-02	1.443923E-03
3.482283E+03	3.960239E-02	1.444292E-03
3.484252E+03	3.954356E-02	1.440750E-03
3.486220E+03	3.950775E-02	1.438049E-03
3.488189E+03	3.946813E-02	1.435211E-03
3.490157E+03	3.937100E-02	1.430286E-03
3.492126E+03	3.928543E-02	1.425786E-03
3.494094E+03	3.927650E-02	1.424070E-03
3.496063E+03	3.914112E-02	1.417774E-03
3.498031E+03	3.909006E-02	1.414538E-03
3.500000E+03	3.898535E-02	1.409365E-03
3.501969E+03	3.892666E-02	1.405861E-03
3.503937E+03	3.891399E-02	1.404020E-03
3.505906E+03	3.874031E-02	1.396376E-03
3.507874E+03	3.868549E-02	1.393024E-03
3.509843E+03	3.861919E-02	1.389261E-03
3.511811E+03	3.860275E-02	1.387295E-03
3.513780E+03	3.854798E-02	1.383952E-03
3.515748E+03	3.856227E-02	1.383090E-03
3.517717E+03	3.863796E-02	1.384425E-03
3.519685E+03	3.863313E-02	1.382873E-03
3.521654E+03	3.872423E-02	1.384750E-03
3.523622E+03	3.883838E-02	1.387443E-03
3.525591E+03	3.893723E-02	1.389581E-03
3.527559E+03	3.903229E-02	1.391576E-03
3.529528E+03	3.917343E-02	1.395205E-03
3.531496E+03	3.934150E-02	1.399781E-03
3.533465E+03	3.941363E-02	1.400934E-03
3.535433E+03	3.949733E-02	1.402492E-03
3.537402E+03	3.953119E-02	1.402275E-03
3.539370E+03	3.968791E-02	1.406409E-03
3.541339E+03	3.986773E-02	1.411348E-03
3.543307E+03	4.011671E-02	1.418719E-03
3.545276E+03	4.025438E-02	1.422139E-03
3.547244E+03	4.039980E-02	1.425822E-03
3.549213E+03	4.053760E-02	1.429225E-03
3.551181E+03	4.067160E-02	1.432483E-03
3.553150E+03	4.082870E-02	1.436544E-03
3.555118E+03	4.092435E-02	1.438432E-03
3.557087E+03	4.100470E-02	1.439776E-03
3.559055E+03	4.108895E-02	1.441249E-03
3.561024E+03	4.119631E-02	1.443525E-03
3.562992E+03	4.128064E-02	1.444987E-03
3.564961E+03	4.133811E-02	1.445503E-03
3.566929E+03	4.145714E-02	1.448164E-03
3.568898E+03	4.153005E-02	1.449206E-03
3.570866E+03	4.156457E-02	1.448903E-03
3.572835E+03	4.158762E-02	1.448198E-03
3.574803E+03	4.160685E-02	1.447358E-03
3.576772E+03	4.154919E-02	1.443843E-03
3.578740E+03	4.151460E-02	1.441133E-03
3.580709E+03	4.146084E-02	1.437759E-03
3.582677E+03	4.150327E-02	1.437721E-03
3.584646E+03	4.148033E-02	1.435417E-03
3.586614E+03	4.151510E-02	1.435108E-03
3.588583E+03	4.148453E-02	1.432540E-03
3.590551E+03	4.136933E-02	1.427054E-03
3.592520E+03	4.128103E-02	1.422502E-03
3.594488E+03	4.122742E-02	1.419150E-03
3.596457E+03	4.106606E-02	1.412096E-03
3.598425E+03	4.101246E-02	1.408755E-03
3.600394E+03	4.081258E-02	1.400398E-03
3.602362E+03	4.067047E-02	1.394034E-03
3.604331E+03	4.050136E-02	1.386756E-03
3.606299E+03	4.039006E-02	1.381466E-03
3.608268E+03	4.016706E-02	1.372368E-03
3.610236E+03	4.004419E-02	1.366702E-03
3.612205E+03	3.995214E-02	1.362096E-03
3.614173E+03	3.977533E-02	1.354608E-03
3.616142E+03	3.959081E-02	1.346871E-03
3.618110E+03	3.951035E-02	1.342683E-03
3.620079E+03	3.931041E-02	1.334444E-03
3.622047E+03	3.916059E-02	1.327918E-03
3.624016E+03	3.899530E-02	1.320879E-03
3.625984E+03	3.898038E-02	1.318939E-03
3.627953E+03	3.913513E-02	1.322735E-03
3.629921E+03	3.928609E-02	1.326390E-03
3.631890E+03	3.925200E-02	1.323792E-03
3.633858E+03	3.903282E-02	1.314961E-03
3.635827E+03	3.891003E-02	1.309389E-03
3.637795E+03	3.893385E-02	1.308754E-03
3.639764E+03	3.895770E-02	1.308117E-03
3.641732E+03	3.896230E-02	1.306832E-03
3.643701E+03	3.901324E-02	1.307098E-03
3.645669E+03	3.917616E-02	1.311108E-03
3.647638E+03	3.938930E-02	1.316783E-03
3.649606E+03	3.964889E-02	1.323994E-03
3.651575E+03	3.994718E-02	1.332475E-03
3.653543E+03	4.021855E-02	1.340036E-03
3.655512E+03	4.053246E-02	1.348993E-03
3.657480E+03	4.091219E-02	1.360113E-03
3.659449E+03	4.124952E-02	1.369797E-03
3.661417E+03	4.160631E-02	1.380101E-03
3.663386E+03	4.190526E-02	1.388461E-03
3.665354E+03	4.223522E-02	1.397824E-03
3.667323E+03	4.253825E-02	1.406271E-03
3.669291E+03	4.279889E-02	1.413296E-03
3.671260E+03	4.305575E-02	1.420176E-03
3.673228E+03	4.325086E-02	1.425001E-03
3.675197E+03	4.344217E-02	1.429686E-03
3.677165E+03	4.354847E-02	1.431562E-03
3.679134E+03	4.362780E-02	1.432543E-03
3.681102E+03	4.364910E-02	1.431615E-03
3.683071E+03	4.362405E-02	1.429165E-03
3.685039E+03	4.353711E-02	1.424692E-03
3.687008E+03	4.339987E-02	1.418580E-03
3.688976E+03	4.325491E-02	1.412225E-03
3.690945E+03	4.302477E-02	1.403103E-03
3.692913E+03	4.266680E-02	1.389834E-03
3.694882E+03	4.227006E-02	1.375329E-03
3.696850E+03	4.182291E-02	1.359215E-03
3.698819E+03	4.136792E-02	1.342878E-03
3.700787E+03	4.082371E-02	1.323683E-03
3.702756E+03	4.014766E-02	1.300258E-03
3.704724E+03	3.952959E-02	1.278758E-03
3.706693E+03	3.882997E-02	1.254669E-03
3.708661E+03	3.812475E-02	1.230452E-03
3.710630E+03	3.733950E-02	1.203707E-03
3.712598E+03	3.656025E-02	1.177213E-03
3.714567E+03	3.573272E-02	1.149224E-03
3.716535E+03	3.483864E-02	1.119160E-03
3.718504E+03	3.391252E-02	1.088134E-03
3.720472E+03	3.291903E-02	1.055018E-03
3.722441E+03	3.193923E-02	1.022414E-03
3.724409E+03	3.092463E-02	9.887712E-04
3.726378E+03	2.989343E-02	9.546742E-04
3.728346E+03	2.885301E-02	9.203603E-04
3.730315E+03	2.779871E-02	8.856820E-04
3.732283E+03	2.676002E-02	8.515796E-04
3.734252E+03	2.572453E-02	8.176567E-04
3.736220E+03	2.473612E-02	7.853065E-04
3.738189E+03	2.371128E-02	7.518754E-04
3.740157E+03	2.265272E-02	7.174532E-04
3.742126E+03	2.159578E-02	6.831622E-04
3.744094E+03	2.065746E-02	6.526985E-04
3.746063E+03	1.969709E-02	6.216094E-04
3.748031E+03	1.882196E-02	5.932797E-04
3.750000E+03	1.787189E-02	5.626566E-04
3.751969E+03	1.696819E-02	5.335635E-04
3.753937E+03	1.612218E-02	5.063501E-04
3.755906E+03	1.531247E-02	4.803395E-04
3.757874E+03	1.455270E-02	4.559547E-04
3.759843E+03	1.388144E-02	4.343967E-04
3.761811E+03	1.327652E-02	4.149633E-04
3.763780E+03	1.269477E-02	3.962987E-04
3.765748E+03	1.218292E-02	3.798579E-04
3.767717E+03	1.172505E-02	3.651365E-04
3.769685E+03	1.128884E-02	3.511236E-04
3.771654E+03	1.089574E-02	3.384828E-04
3.773622E+03	1.057422E-02	3.280926E-04
3.775591E+03	1.039719E-02	3.222046E-04
3.777559E+03	1.030392E-02	3.189222E-04
3.779528E+03	1.021725E-02	3.158511E-04
3.781496E+03	1.017736E-02	3.142306E-04
3.783465E+03	1.016360E-02	3.134187E-04
3.785433E+03	1.018846E-02	3.137974E-04
3.787402E+03	1.019266E-02	3.135384E-04
3.789370E+03	1.040058E-02	3.195380E-04
3.791339E+03	1.053755E-02	3.233445E-04
3.793307E+03	1.071713E-02	3.284463E-04
3.795276E+03	1.099401E-02	3.365126E-04
3.797244E+03	1.125422E-02	3.440477E-04
3.799213E+03	1.150203E-02	3.511846E-04
3.801181E+03	1.178746E-02	3.594492E-04
3.803150E+03	1.208980E-02	3.682072E-04
3.805118E+03	1.238876E-02	3.768389E-04
3.807087E+03	1.275312E-02	3.874347E-04
3.809055E+03	1.307111E-02	3.965955E-04
3.811024E+03	1.338414E-02	4.055817E-04
3.812992E+03	1.375247E-02	4.162170E-04
3.814961E+03	1.411078E-02	4.265214E-04
3.816929E+03	1.441602E-02	4.351962E-04
3.818898E+03	1.486230E-02	4.480996E-04
3.820866E+03	1.525631E-02	4.593948E-04
3.822835E+03	1.573584E-02	4.732317E-04
3.824803E+03	1.614823E-02	4.850149E-04
3.826772E+03	1.634223E-02	4.902157E-04
3.828740E+03	1.648736E-02	4.939371E-04
3.830709E+03	1.673170E-02	5.006156E-04
3.832677E+03	1.711568E-02	5.114479E-04
3.834646E+03	1.750924E-02	5.225365E-04
3.836614E+03	1.795983E-02	5.352946E-04
3.838583E+03	1.842592E-02	5.484793E-04
3.840551E+03	1.892047E-02	5.624738E-04
3.842520E+03	1.948389E-02	5.784752E-04
3.844488E+03	2.005895E-02	5.947783E-04
3.846457E+03	2.068569E-02	6.125673E-04
3.848425E+03	2.134922E-02	6.313961E-04
3.850394E+03	2.201110E-02	6.501248E-04
3.852362E+03	2.271098E-02	6.699234E-04
3.854331E+03	2.339037E-02	6.890643E-04
3.856299E+03	2.418715E-02	7.116068E-04
3.858268E+03	2.500593E-02	7.347338E-04
3.860236E+03	2.579363E-02	7.568858E-04
3.862205E+03	2.670242E-02	7.825252E-04
3.864173E+03	2.766117E-02	8.095570E-04
3.866142E+03	2.860818E-02	8.361715E-04
3.868110E+03	2.954306E-02	8.623585E-04
3.870079E+03	3.055236E-02	8.906428E-04
3.872047E+03	3.157394E-02	9.192069E-04
3.874016E+03	3.262752E-02	9.486221E-04
3.875984E+03	3.367609E-02	9.778105E-04
3.877953E+03	3.476180E-02	1.007995E-03
3.879921E+03	3.587286E-02	1.038829E-03
3.881890E+03	3.699037E-02	1.069764E-03
3.883858E+03	3.810528E-02	1.100537E-03
3.885827E+03	3.919906E-02	1.130615E-03
3.887795E+03	4.031270E-02	1.161180E-03
3.889764E+03	4.141862E-02	1.191437E-03
3.891732E+03	4.251720E-02	1.221397E-03
3.893701E+03	4.363215E-02	1.251741E-03
3.895669E+03	4.476344E-02	1.282468E-03
3.897638E+03	4.583609E-02	1.311429E-03
3.899606E+03	4.692905E-02	1.340887E-03
3.901575E+03	4.799492E-02	1.369488E-03
3.903543E+03	4.908111E-02	1.398585E-03
3.905512E+03	5.007302E-02	1.424914E-03
3.907480E+03	5.107338E-02	1.451407E-03
3.909449E+03	5.201891E-02	1.476267E-03
3.911417E+03	5.292542E-02	1.499947E-03
3.913386E+03	5.376913E-02	1.521779E-03
3.915354E+03	5.464494E-02	1.544453E-03
3.917323E+03	5.548567E-02	1.566069E-03
3.919291E+03	5.626745E-02	1.585959E-03
3.921260E+03	5.700218E-02	1.604462E-03
3.923228E+03	5.773336E-02	1.622810E-03
3.925197E+03	5.837387E-02	1.638555E-03
3.927165E+03	5.899891E-02	1.653817E-03
3.929134E+03	5.961641E-02	1.668819E-03
3.931102E+03	6.020254E-02	1.682896E-03
3.933071E+03	6.074144E-02	1.695609E-03
3.935039E+03	6.126484E-02	1.707848E-03
3.937008E+03	6.174488E-02	1.718839E-03
3.938976E+03	6.217368E-02	1.728369E-03
3.940945E+03	6.255511E-02	1.736550E-03
3.942913E+03	6.288124E-02	1.743168E-03
3.944882E+03	6.317181E-02	1.748777E-03
3.946850E+03	6.339508E-02	1.752502E-03
3.948819E+03	6.366623E-02	1.757532E-03
3.950787E+03	6.388990E-02	1.761232E-03
3.952756E+03	6.409781E-02	1.764480E-03
3.954724E+03	6.425820E-02	1.766406E-03
3.956693E+03	6.440280E-02	1.767886E-03
3.958661E+03	6.451971E-02	1.768595E-03
3.960630E+03	6.459693E-02	1.768209E-03
3.962598E+03	6.465436E-02	1.767276E-03
3.964567E+03	6.466015E-02	1.764929E-03
3.966535E+03	6.466198E-02	1.762473E-03
3.968504E+03	6.467983E-02	1.760453E-03
3.970472E+03	6.469377E-02	1.758326E-03
3.972441E+03	6.467589E-02	1.755334E-03
3.974409E+03	6.458229E-02	1.750290E-03
3.976378E+03	6.448072E-02	1.745039E-03
3.978346E+03	6.440706E-02	1.740550E-03
3.980315E+03	6.428957E-02	1.734883E-03
3.982283E+03	6.412813E-02	1.728042E-03
3.984252E+03	6.397066E-02	1.721319E-03
3.986220E+03	6.382917E-02	1.715039E-03
3.988189E+03	6.365569E-02	1.707911E-03
3.990157E+03	6.347817E-02	1.700688E-03
3.992126E+03	6.327662E-02	1.692836E-03
3.994094E+03	6.306300E-02	1.684678E-03
3.996063E+03	6.281735E-02	1.675681E-03
3.998031E+03	6.256361E-02	1.666488E-03
4.000000E+03	6.231376E-02	1.657419E-03
4.001969E+03	6.207186E-02	1.648580E-03
4.003937E+03	6.182589E-02	1.639652E-03
4.005906E+03	6.153173E-02	1.629467E-03
4.007874E+03	6.123347E-02	1.619197E-03
4.009843E+03	6.091103E-02	1.608312E-03
4.011811E+03	6.054434E-02	1.596285E-03
4.013780E+03	6.018956E-02	1.584600E-03
4.015748E+03	5.980652E-02	1.572200E-03
4.017717E+03	5.939922E-02	1.559192E-03
4.019685E+03	5.902388E-02	1.547055E-03
4.021654E+03	5.862022E-02	1.534205E-03
4.023622E+03	5.818024E-02	1.520438E-03
4.025591E+03	5.775211E-02	1.507014E-03
4.027559E+03	5.725140E-02	1.491733E-03
4.029528E+03	5.677860E-02	1.477216E-03
4.031496E+03	5.630959E-02	1.462835E-03
4.033465E+03	5.582422E-02	1.448066E-03
4.035433E+03	5.530646E-02	1.432496E-03
4.037402E+03	5.482058E-02	1.417791E-03
4.039370E+03	5.431435E-02	1.402598E-03
4.041339E+03	5.380787E-02	1.387439E-03
4.043307E+03	5.329708E-02	1.372207E-03
4.045276E+03	5.276179E-02	1.356386E-03
4.047244E+03	5.219802E-02	1.339875E-03
4.049213E+03	5.164604E-02	1.323711E-03
4.051181E+03	5.107361E-02	1.307066E-03
4.053150E+03	5.058560E-02	1.292623E-03
4.055118E+03	5.004481E-02	1.276871E-03
4.057087E+03	4.949164E-02	1.260846E-03
4.059055E+03	4.901899E-02	1.246912E-03
4.061024E+03	4.848540E-02	1.231467E-03
4.062992E+03	4.794346E-02	1.215853E-03
4.064961E+03	4.743760E-02	1.201194E-03
4.066929E+03	4.704068E-02	1.189328E-03
4.068898E+03	4.655858E-02	1.175343E-03
4.070866E+03	4.610050E-02	1.162002E-03
4.072835E+03	4.566237E-02	1.149198E-03
4.074803E+03	4.525645E-02	1.137238E-03
4.076772E+03	4.487458E-02	1.125913E-03
4.078740E+03	4.452495E-02	1.115425E-03
4.080709E+03	4.418326E-02	1.105164E-03
4.082677E+03	4.385352E-02	1.095227E-03
4.084646E+03	4.356016E-02	1.086224E-03
4.086614E+03	4.327471E-02	1.077440E-03
4.088583E+03	4.305007E-02	1.070191E-03
4.090551E+03	4.281717E-02	1.062754E-03
4.092520E+03	4.264105E-02	1.056743E-03
4.094488E+03	4.245676E-02	1.050544E-03
4.096457E+03	4.228861E-02	1.044758E-03
4.098425E+03	4.213668E-02	1.039386E-03
4.100394E+03	4.200501E-02	1.034525E-03
4.102362E+03	4.185295E-02	1.029173E-03
4.104331E+03	4.175377E-02	1.025131E-03
4.106299E+03	4.167903E-02	1.021697E-03
4.108268E+03	4.162870E-02	1.018867E-03
4.110236E+03	4.157837E-02	1.016041E-03
4.112205E+03	4.165042E-02	1.016205E-03
4.114173E+03	4.161650E-02	1.013782E-03
4.116142E+03	4.161118E-02	1.012059E-03
4.118110E+03	4.166302E-02	1.011725E-03
4.120079E+03	4.173129E-02	1.011785E-03
4.122047E+03	4.175882E-02	1.010855E-03
4.124016E+03	4.188448E-02	1.012295E-03
4.125984E+03	4.201845E-02	1.013926E-03
4.127953E+03	4.214849E-02	1.015453E-03
4.129921E+03	4.225003E-02	1.016286E-03
4.131890E+03	4.238035E-02	1.017802E-03
4.133858E+03	4.249443E-02	1.018920E-03
4.135827E+03	4.263318E-02	1.020620E-03
4.137795E+03	4.279261E-02	1.022805E-03
4.139764E+03	4.293990E-02	1.024688E-03
4.141732E+03	4.309963E-02	1.026858E-03
4.143701E+03	4.327187E-02	1.029313E-03
4.145669E+03	4.348941E-02	1.032832E-03
4.147638E+03	4.370307E-02	1.036243E-03
4.149606E+03	4.384709E-02	1.037991E-03
4.151575E+03	4.402830E-02	1.040607E-03
4.153543E+03	4.422609E-02	1.043601E-03
4.155512E+03	4.437476E-02	1.045424E-03
4.157480E+03	4.457704E-02	1.048497E-03
4.159449E+03	4.475489E-02	1.050982E-03
4.161417E+03	4.494111E-02	1.053651E-03
4.163386E+03	4.512342E-02	1.056215E-03
4.165354E+03	4.528123E-02	1.058194E-03
4.167323E+03	4.541032E-02	1.059491E-03
4.169291E+03	4.551898E-02	1.060304E-03
4.171260E+03	4.561539E-02	1.060824E-03
4.173228E+03	4.571190E-02	1.061341E-03
4.175197E+03	4.581684E-02	1.062046E-03
4.177165E+03	4.591776E-02	1.062652E-03
4.179134E+03	4.600640E-02	1.062967E-03
4.181102E+03	4.611172E-02	1.063662E-03
4.183071E+03	4.618410E-02	1.063591E-03
4.185039E+03	4.627725E-02	1.063993E-03
4.187008E+03	4.633741E-02	1.063631E-03
4.188976E+03	4.637288E-02	1.062701E-03
4.190945E+03	4.641254E-02	1.061865E-03
4.192913E+03	4.646887E-02	1.061408E-03
4.194882E+03	4.648797E-02	1.060098E-03
4.196850E+03	4.650300E-02	1.058696E-03
4.198819E+03	4.650152E-02	1.056918E-03
4.200787E+03	4.647517E-02	1.054578E-03
4.202756E+03	4.646132E-02	1.052524E-03
4.204724E+03	4.640180E-02	1.049439E-03
4.206693E+03	4.637554E-02	1.047110E-03
4.208661E+03	4.636594E-02	1.045161E-03
4.210630E+03	4.632725E-02	1.042559E-03
4.212598E+03	4.630939E-02	1.040428E-03
4.214567E+03	4.630405E-02	1.038582E-03
4.216535E+03	4.629047E-02	1.036552E-03
4.218504E+03	4.627272E-02	1.034432E-03
4.220472E+03	4.624667E-02	1.032128E-03
