#wls	flux	fluxerr
1.574803E+03	1.698635E-03	1.091135E-04
1.614173E+03	1.691050E-03	1.076502E-04
1.653543E+03	1.682755E-03	1.061300E-04
1.692913E+03	1.674265E-03	1.045866E-04
1.732283E+03	1.665233E-03	1.029991E-04
1.771654E+03	1.655460E-03	1.013564E-04
1.811024E+03	1.645473E-03	9.969196E-05
1.850394E+03	1.634679E-03	9.797105E-05
1.889764E+03	1.622741E-03	9.617557E-05
1.929134E+03	1.610411E-03	9.435225E-05
1.968504E+03	1.597209E-03	9.247447E-05
2.007874E+03	1.584535E-03	9.062468E-05
2.047244E+03	1.574449E-03	8.891851E-05
2.086614E+03	1.569301E-03	8.748185E-05
2.125984E+03	1.571705E-03	8.644794E-05
2.165354E+03	1.582787E-03	8.586104E-05
2.204724E+03	1.601380E-03	8.563873E-05
2.244094E+03	1.625537E-03	8.566058E-05
2.283465E+03	1.652958E-03	8.579349E-05
2.322835E+03	1.682420E-03	8.596642E-05
2.362205E+03	1.713117E-03	8.613323E-05
2.401575E+03	1.744465E-03	8.626122E-05
2.440945E+03	1.776537E-03	8.635178E-05
2.480315E+03	1.809086E-03	8.639072E-05
2.519685E+03	1.842110E-03	8.637627E-05
2.559055E+03	1.875807E-03	8.631601E-05
2.598425E+03	1.910153E-03	8.620694E-05
2.637795E+03	1.944917E-03	8.603702E-05
2.677165E+03	1.980635E-03	8.582852E-05
2.716535E+03	2.017041E-03	8.556797E-05
2.755906E+03	2.054624E-03	8.527432E-05
2.795276E+03	2.092924E-03	8.492643E-05
2.834646E+03	2.132053E-03	8.452782E-05
2.874016E+03	2.171419E-03	8.405469E-05
2.913386E+03	2.211010E-03	8.350763E-05
2.952756E+03	2.250842E-03	8.288871E-05
2.962598E+03	2.261027E-03	8.272990E-05
2.972441E+03	2.271052E-03	8.256030E-05
2.982283E+03	2.281255E-03	8.239226E-05
2.992126E+03	2.291475E-03	8.221992E-05
3.001969E+03	2.301731E-03	8.204403E-05
3.011811E+03	2.312209E-03	8.187119E-05
3.021654E+03	2.322741E-03	8.169537E-05
3.031496E+03	2.333487E-03	8.152218E-05
3.041339E+03	2.344281E-03	8.134579E-05
3.051181E+03	2.355285E-03	8.117179E-05
3.061024E+03	2.366497E-03	8.100002E-05
3.070866E+03	2.377916E-03	8.083039E-05
3.080709E+03	2.389544E-03	8.066286E-05
3.090551E+03	2.401222E-03	8.049205E-05
3.100394E+03	2.413272E-03	8.032868E-05
3.110236E+03	2.425536E-03	8.016739E-05
3.120079E+03	2.438022E-03	8.000831E-05
3.129921E+03	2.450890E-03	7.985663E-05
3.139764E+03	2.463991E-03	7.970731E-05
3.149606E+03	2.477488E-03	7.956551E-05
3.159449E+03	2.491389E-03	7.943135E-05
3.169291E+03	2.505705E-03	7.930493E-05
3.179134E+03	2.520297E-03	7.918170E-05
3.188976E+03	2.535483E-03	7.907151E-05
3.198819E+03	2.551278E-03	7.897452E-05
3.208661E+03	2.567550E-03	7.888630E-05
3.218504E+03	2.584469E-03	7.881190E-05
3.228346E+03	2.601909E-03	7.874715E-05
3.238189E+03	2.620196E-03	7.870158E-05
3.248031E+03	2.639210E-03	7.867117E-05
3.257874E+03	2.659130E-03	7.866089E-05
3.267717E+03	2.679846E-03	7.866699E-05
3.277559E+03	2.701693E-03	7.869882E-05
3.287402E+03	2.724565E-03	7.875278E-05
3.297244E+03	2.748513E-03	7.882973E-05
3.307087E+03	2.773878E-03	7.893886E-05
3.316929E+03	2.800571E-03	7.907684E-05
3.326772E+03	2.828649E-03	7.924462E-05
3.336614E+03	2.858461E-03	7.945114E-05
3.346457E+03	2.889920E-03	7.969312E-05
3.356299E+03	2.923084E-03	7.997121E-05
3.366142E+03	2.958433E-03	8.029756E-05
3.375984E+03	2.995713E-03	8.066422E-05
3.385827E+03	3.035228E-03	8.107826E-05
3.395669E+03	3.076821E-03	8.153436E-05
3.405512E+03	3.120870E-03	8.204146E-05
3.415354E+03	3.167146E-03	8.259226E-05
3.425197E+03	3.215842E-03	8.319073E-05
3.435039E+03	3.266795E-03	8.383150E-05
3.444882E+03	3.320497E-03	8.452601E-05
3.454724E+03	3.376871E-03	8.527102E-05
3.464567E+03	3.436249E-03	8.607360E-05
3.474409E+03	3.498653E-03	8.693290E-05
3.484252E+03	3.564231E-03	8.785118E-05
3.494094E+03	3.632836E-03	8.882341E-05
3.503937E+03	3.704613E-03	8.985178E-05
3.513780E+03	3.779425E-03	9.093165E-05
3.523622E+03	3.857151E-03	9.205865E-05
3.533465E+03	3.937987E-03	9.323593E-05
3.543307E+03	4.021727E-03	9.445707E-05
3.553150E+03	4.108499E-03	9.572362E-05
3.562992E+03	4.198319E-03	9.703446E-05
3.572835E+03	4.291422E-03	9.839345E-05
3.582677E+03	4.387940E-03	9.980198E-05
3.592520E+03	4.488222E-03	1.012662E-04
3.602362E+03	4.592396E-03	1.027871E-04
3.612205E+03	4.701257E-03	1.043805E-04
3.622047E+03	4.814945E-03	1.060470E-04
3.631890E+03	4.934289E-03	1.078023E-04
3.641732E+03	5.059760E-03	1.096539E-04
3.651575E+03	5.192392E-03	1.116208E-04
3.661417E+03	5.333016E-03	1.137173E-04
3.671260E+03	5.482426E-03	1.159560E-04
3.681102E+03	5.642162E-03	1.183649E-04
3.690945E+03	5.813412E-03	1.209635E-04
3.700787E+03	5.997351E-03	1.237704E-04
3.710630E+03	6.195596E-03	1.268124E-04
3.720472E+03	6.410058E-03	1.301211E-04
3.730315E+03	6.642312E-03	1.337202E-04
3.740157E+03	6.894542E-03	1.376445E-04
3.750000E+03	7.168556E-03	1.419199E-04
3.759843E+03	7.466769E-03	1.465832E-04
3.769685E+03	7.791351E-03	1.516647E-04
3.779528E+03	8.144519E-03	1.571943E-04
3.789370E+03	8.528711E-03	1.632045E-04
3.799213E+03	8.946383E-03	1.697269E-04
3.809055E+03	9.399957E-03	1.767907E-04
3.818898E+03	9.891328E-03	1.844136E-04
3.828740E+03	1.042284E-02	1.926205E-04
3.838583E+03	1.099614E-02	2.014222E-04
3.848425E+03	1.161274E-02	2.108255E-04
3.858268E+03	1.227364E-02	2.208277E-04
3.868110E+03	1.297875E-02	2.314052E-04
3.877953E+03	1.372793E-02	2.425344E-04
3.887795E+03	1.451967E-02	2.541670E-04
3.897638E+03	1.535136E-02	2.662373E-04
3.907480E+03	1.622019E-02	2.786776E-04
3.917323E+03	1.712067E-02	2.913761E-04
3.927165E+03	1.804692E-02	3.042184E-04
3.937008E+03	1.899225E-02	3.170800E-04
3.946850E+03	1.994817E-02	3.298112E-04
3.956693E+03	2.090478E-02	3.422448E-04
3.966535E+03	2.185290E-02	3.542316E-04
3.976378E+03	2.278180E-02	3.656032E-04
3.986220E+03	2.368012E-02	3.761889E-04
3.996063E+03	2.453837E-02	3.858540E-04
4.005906E+03	2.534604E-02	3.944546E-04
4.015748E+03	2.609447E-02	4.018822E-04
4.025591E+03	2.677606E-02	4.080499E-04
4.035433E+03	2.738594E-02	4.129170E-04
4.045276E+03	2.792055E-02	4.164657E-04
4.055118E+03	2.837870E-02	4.187158E-04
4.064961E+03	2.876261E-02	4.197371E-04
4.074803E+03	2.907535E-02	4.196110E-04
4.084646E+03	2.932373E-02	4.184699E-04
4.094488E+03	2.951373E-02	4.164302E-04
4.104331E+03	2.965449E-02	4.136488E-04
4.114173E+03	2.975374E-02	4.102574E-04
4.124016E+03	2.982101E-02	4.064068E-04
4.133858E+03	2.986320E-02	4.022071E-04
4.143701E+03	2.988890E-02	3.977861E-04
4.153543E+03	2.990506E-02	3.932446E-04
4.163386E+03	2.991735E-02	3.886627E-04
4.173228E+03	2.993096E-02	3.841104E-04
4.183071E+03	2.995006E-02	3.796422E-04
4.192913E+03	2.997858E-02	3.753069E-04
4.202756E+03	3.001753E-02	3.711145E-04
4.212598E+03	3.006784E-02	3.670742E-04
4.222441E+03	3.012898E-02	3.631770E-04
4.232283E+03	3.019885E-02	3.593957E-04
4.242126E+03	3.027283E-02	3.556749E-04
4.251969E+03	3.034583E-02	3.519572E-04
4.261811E+03	3.041058E-02	3.481628E-04
4.271654E+03	3.045806E-02	3.441974E-04
4.281496E+03	3.047711E-02	3.399476E-04
4.291339E+03	3.045627E-02	3.353033E-04
4.301181E+03	3.038198E-02	3.301383E-04
4.311024E+03	3.024008E-02	3.243269E-04
4.320866E+03	3.001719E-02	3.177595E-04
4.330709E+03	2.970152E-02	3.103491E-04
4.340551E+03	2.928589E-02	3.020618E-04
4.350394E+03	2.877012E-02	2.929375E-04
4.360236E+03	2.817015E-02	2.831765E-04
4.370079E+03	2.752169E-02	2.731652E-04
4.379921E+03	2.686638E-02	2.633292E-04
4.389764E+03	2.624234E-02	2.540381E-04
4.399606E+03	2.568432E-02	2.456112E-04
4.409449E+03	2.521892E-02	2.382751E-04
4.419291E+03	2.486674E-02	2.321870E-04
4.429134E+03	2.464327E-02	2.274461E-04
4.438976E+03	2.455791E-02	2.240915E-04
4.448819E+03	2.461723E-02	2.221356E-04
4.458661E+03	2.482443E-02	2.215604E-04
4.468504E+03	2.517957E-02	2.223220E-04
4.478346E+03	2.568034E-02	2.243577E-04
4.488189E+03	2.632079E-02	2.275770E-04
4.498031E+03	2.709237E-02	2.318709E-04
4.507874E+03	2.798206E-02	2.370979E-04
4.517717E+03	2.897309E-02	2.430908E-04
4.527559E+03	3.004344E-02	2.496459E-04
4.537402E+03	3.116578E-02	2.565238E-04
4.547244E+03	3.230797E-02	2.634553E-04
4.557087E+03	3.343267E-02	2.701394E-04
4.566929E+03	3.450028E-02	2.762681E-04
4.576772E+03	3.547023E-02	2.815368E-04
4.586614E+03	3.630494E-02	2.856751E-04
4.596457E+03	3.697325E-02	2.884717E-04
4.606299E+03	3.745366E-02	2.897972E-04
4.616142E+03	3.773879E-02	2.896344E-04
4.625984E+03	3.783555E-02	2.880751E-04
4.635827E+03	3.776498E-02	2.853144E-04
4.645669E+03	3.756016E-02	2.816309E-04
4.655512E+03	3.726133E-02	2.773480E-04
4.665354E+03	3.691248E-02	2.728069E-04
4.675197E+03	3.655273E-02	2.683034E-04
4.685039E+03	3.620508E-02	2.640079E-04
4.694882E+03	3.585660E-02	2.598262E-04
4.704724E+03	3.548507E-02	2.555999E-04
4.714567E+03	3.506812E-02	2.511734E-04
4.724409E+03	3.458850E-02	2.464305E-04
4.734252E+03	3.403876E-02	2.413264E-04
4.744094E+03	3.342196E-02	2.358902E-04
4.753937E+03	3.274909E-02	2.302033E-04
4.763780E+03	3.203712E-02	2.243854E-04
4.773622E+03	3.130846E-02	2.185909E-04
4.783465E+03	3.058756E-02	2.129860E-04
4.793307E+03	2.990204E-02	2.077569E-04
4.803150E+03	2.927973E-02	2.030898E-04
4.812992E+03	2.874396E-02	1.991397E-04
4.822835E+03	2.831388E-02	1.960331E-04
4.832677E+03	2.800226E-02	1.938540E-04
4.842520E+03	2.781821E-02	1.926634E-04
4.852362E+03	2.776643E-02	1.924941E-04
4.862205E+03	2.784946E-02	1.933627E-04
4.872047E+03	2.806797E-02	1.952712E-04
4.881890E+03	2.841898E-02	1.981986E-04
4.891732E+03	2.889613E-02	2.021019E-04
4.901575E+03	2.948856E-02	2.069084E-04
4.911417E+03	3.018037E-02	2.125097E-04
4.921260E+03	3.094872E-02	2.187480E-04
4.931102E+03	3.176470E-02	2.254204E-04
4.940945E+03	3.259418E-02	2.322834E-04
4.950787E+03	3.339936E-02	2.390631E-04
4.960630E+03	3.414076E-02	2.454681E-04
4.970472E+03	3.478309E-02	2.512319E-04
4.980315E+03	3.529767E-02	2.561305E-04
4.990157E+03	3.566571E-02	2.600079E-04
5.000000E+03	3.588032E-02	2.627926E-04
5.009843E+03	3.594591E-02	2.644954E-04
5.019685E+03	3.587677E-02	2.652012E-04
5.029528E+03	3.569535E-02	2.650580E-04
5.039370E+03	3.542940E-02	2.642571E-04
5.049213E+03	3.510836E-02	2.630072E-04
5.059055E+03	3.476130E-02	2.615185E-04
5.068898E+03	3.441451E-02	2.599850E-04
5.078740E+03	3.409156E-02	2.585837E-04
5.088583E+03	3.381000E-02	2.574493E-04
5.098425E+03	3.358377E-02	2.566911E-04
5.108268E+03	3.342251E-02	2.563872E-04
5.118110E+03	3.333329E-02	2.565973E-04
5.127953E+03	3.332040E-02	2.573603E-04
5.137795E+03	3.338830E-02	2.587164E-04
5.147638E+03	3.354079E-02	2.607017E-04
5.157480E+03	3.378204E-02	2.633548E-04
5.167323E+03	3.411506E-02	2.667057E-04
5.177165E+03	3.454343E-02	2.707893E-04
5.187008E+03	3.506946E-02	2.756301E-04
5.196850E+03	3.569399E-02	2.812417E-04
5.206693E+03	3.641554E-02	2.876190E-04
5.216535E+03	3.723137E-02	2.947469E-04
5.226378E+03	3.813468E-02	3.025783E-04
5.236220E+03	3.911691E-02	3.110515E-04
5.246063E+03	4.016778E-02	3.200910E-04
5.255906E+03	4.127527E-02	3.296070E-04
5.265748E+03	4.242678E-02	3.395048E-04
5.275591E+03	4.361135E-02	3.497026E-04
5.285433E+03	4.482066E-02	3.601395E-04
5.295276E+03	4.605081E-02	3.707904E-04
5.305118E+03	4.730079E-02	3.816539E-04
5.314961E+03	4.857206E-02	3.927486E-04
5.324803E+03	4.985273E-02	4.039855E-04
5.334646E+03	5.110673E-02	4.150758E-04
5.344488E+03	5.229237E-02	4.256737E-04
5.354331E+03	5.337388E-02	4.354760E-04
5.364173E+03	5.432493E-02	4.442534E-04
5.374016E+03	5.513043E-02	4.518659E-04
5.383858E+03	5.578359E-02	4.582406E-04
5.393701E+03	5.628475E-02	4.633623E-04
5.403543E+03	5.663787E-02	4.672461E-04
5.413386E+03	5.684983E-02	4.699318E-04
5.423228E+03	5.692874E-02	4.714708E-04
5.433071E+03	5.687982E-02	4.718917E-04
5.442913E+03	5.670842E-02	4.712256E-04
5.452756E+03	5.641559E-02	4.694693E-04
5.462598E+03	5.599903E-02	4.665931E-04
5.472441E+03	5.545446E-02	4.625523E-04
5.482283E+03	5.477718E-02	4.573003E-04
5.492126E+03	5.396021E-02	4.507731E-04
5.501969E+03	5.299996E-02	4.429370E-04
5.511811E+03	5.189404E-02	4.337710E-04
5.521654E+03	5.064455E-02	4.232937E-04
5.531496E+03	4.925889E-02	4.115709E-04
5.541339E+03	4.774913E-02	3.987095E-04
5.551181E+03	4.613254E-02	3.848624E-04
5.561024E+03	4.443093E-02	3.702224E-04
5.570866E+03	4.267003E-02	3.550156E-04
5.580709E+03	4.087827E-02	3.394915E-04
5.590551E+03	3.908568E-02	3.239122E-04
5.600394E+03	3.732300E-02	3.085442E-04
5.610236E+03	3.561954E-02	2.936404E-04
5.620079E+03	3.400223E-02	2.794306E-04
5.629921E+03	3.249574E-02	2.661230E-04
5.639764E+03	3.112079E-02	2.538892E-04
5.649606E+03	2.989427E-02	2.428653E-04
5.659449E+03	2.882917E-02	2.331514E-04
5.669291E+03	2.793460E-02	2.248125E-04
5.679134E+03	2.721735E-02	2.178906E-04
5.688976E+03	2.668065E-02	2.123958E-04
5.698819E+03	2.632597E-02	2.083209E-04
5.708661E+03	2.615315E-02	2.056430E-04
5.718504E+03	2.616090E-02	2.043278E-04
5.728346E+03	2.634562E-02	2.043211E-04
5.738189E+03	2.670297E-02	2.055613E-04
5.748031E+03	2.722514E-02	2.079595E-04
5.757874E+03	2.790244E-02	2.114130E-04
5.767717E+03	2.872087E-02	2.157876E-04
5.777559E+03	2.966236E-02	2.209213E-04
5.787402E+03	3.070531E-02	2.266310E-04
5.797244E+03	3.182242E-02	2.326975E-04
5.807087E+03	3.298304E-02	2.388857E-04
5.816929E+03	3.415263E-02	2.449422E-04
5.826772E+03	3.529376E-02	2.506048E-04
5.836614E+03	3.636882E-02	2.556223E-04
5.846457E+03	3.734052E-02	2.597593E-04
5.856299E+03	3.817473E-02	2.628146E-04
5.866142E+03	3.884385E-02	2.646437E-04
5.875984E+03	3.932614E-02	2.651508E-04
5.885827E+03	3.960763E-02	2.642992E-04
5.895669E+03	3.968508E-02	2.621270E-04
5.905512E+03	3.956110E-02	2.587108E-04
5.915354E+03	3.924787E-02	2.541868E-04
5.925197E+03	3.876207E-02	2.487147E-04
5.935039E+03	3.812646E-02	2.424854E-04
5.944882E+03	3.736628E-02	2.356967E-04
5.954724E+03	3.650952E-02	2.285540E-04
5.964567E+03	3.558399E-02	2.212521E-04
5.974409E+03	3.461769E-02	2.139778E-04
5.984252E+03	3.363599E-02	2.068941E-04
5.994094E+03	3.266387E-02	2.001550E-04
6.003937E+03	3.172180E-02	1.938820E-04
6.013780E+03	3.082807E-02	1.881805E-04
6.023622E+03	2.999890E-02	1.831418E-04
6.033465E+03	2.924596E-02	1.788294E-04
6.043307E+03	2.857940E-02	1.752954E-04
6.053150E+03	2.800606E-02	1.725667E-04
6.062992E+03	2.753072E-02	1.706610E-04
6.072835E+03	2.715592E-02	1.695873E-04
6.082677E+03	2.688220E-02	1.693454E-04
6.092520E+03	2.670784E-02	1.699215E-04
6.102362E+03	2.662921E-02	1.712938E-04
6.112205E+03	2.663125E-02	1.733687E-04
6.122047E+03	2.668442E-02	1.759562E-04
6.131890E+03	2.675672E-02	1.788421E-04
6.141732E+03	2.681746E-02	1.818107E-04
6.151575E+03	2.684523E-02	1.846982E-04
6.161417E+03	2.682959E-02	1.874084E-04
6.171260E+03	2.676654E-02	1.898859E-04
6.181102E+03	2.665478E-02	1.920920E-04
6.190945E+03	2.649776E-02	1.940222E-04
6.200787E+03	2.630056E-02	1.956856E-04
6.210630E+03	2.607044E-02	1.971103E-04
6.220472E+03	2.581585E-02	1.983376E-04
6.230315E+03	2.554549E-02	1.994153E-04
6.240157E+03	2.526850E-02	2.003999E-04
6.250000E+03	2.499281E-02	2.013436E-04
6.259843E+03	2.472590E-02	2.022995E-04
6.269685E+03	2.447308E-02	2.033075E-04
6.279528E+03	2.423915E-02	2.044065E-04
6.289370E+03	2.402659E-02	2.056186E-04
6.299213E+03	2.383738E-02	2.069634E-04
6.309055E+03	2.367170E-02	2.084461E-04
6.318898E+03	2.352865E-02	2.100629E-04
6.328740E+03	2.340651E-02	2.118019E-04
6.338583E+03	2.330291E-02	2.136452E-04
6.348425E+03	2.321505E-02	2.155699E-04
6.358268E+03	2.314024E-02	2.175525E-04
6.368110E+03	2.307527E-02	2.195639E-04
6.377953E+03	2.301887E-02	2.215923E-04
6.387795E+03	2.296928E-02	2.236207E-04
6.397638E+03	2.292585E-02	2.256420E-04
6.407480E+03	2.288978E-02	2.276680E-04
6.417323E+03	2.286182E-02	2.297059E-04
6.427165E+03	2.284529E-02	2.317898E-04
6.437008E+03	2.284415E-02	2.339615E-04
6.446850E+03	2.286305E-02	2.362713E-04
6.456693E+03	2.290741E-02	2.387790E-04
6.466535E+03	2.298325E-02	2.415527E-04
6.476378E+03	2.309660E-02	2.446615E-04
6.486220E+03	2.325236E-02	2.481647E-04
6.496063E+03	2.345536E-02	2.521209E-04
6.505906E+03	2.370815E-02	2.565653E-04
6.515748E+03	2.401189E-02	2.615171E-04
6.525591E+03	2.436654E-02	2.669820E-04
6.535433E+03	2.476905E-02	2.729317E-04
6.545276E+03	2.521598E-02	2.793312E-04
6.555118E+03	2.570134E-02	2.861157E-04
6.564961E+03	2.621842E-02	2.932103E-04
6.574803E+03	2.675895E-02	3.005199E-04
6.584646E+03	2.731317E-02	3.079310E-04
6.594488E+03	2.787145E-02	3.153292E-04
6.604331E+03	2.842204E-02	3.225745E-04
6.614173E+03	2.895419E-02	3.295369E-04
6.624016E+03	2.945597E-02	3.360715E-04
6.633858E+03	2.991649E-02	3.420449E-04
6.643701E+03	3.032437E-02	3.473180E-04
6.653543E+03	3.067132E-02	3.517876E-04
6.663386E+03	3.094862E-02	3.553459E-04
6.673228E+03	3.115016E-02	3.579169E-04
6.683071E+03	3.127289E-02	3.594611E-04
6.692913E+03	3.131401E-02	3.599440E-04
6.702756E+03	3.127570E-02	3.593898E-04
6.712598E+03	3.116036E-02	3.578280E-04
6.722441E+03	3.097434E-02	3.553346E-04
6.732283E+03	3.072376E-02	3.519847E-04
6.742126E+03	3.041886E-02	3.479017E-04
6.751969E+03	3.006938E-02	3.432042E-04
6.761811E+03	2.968587E-02	3.380199E-04
6.771654E+03	2.928014E-02	3.324909E-04
6.781496E+03	2.886365E-02	3.267546E-04
6.791339E+03	2.844727E-02	3.209400E-04
6.801181E+03	2.804253E-02	3.151826E-04
6.811024E+03	2.765872E-02	3.095903E-04
6.820866E+03	2.730541E-02	3.042723E-04
6.830709E+03	2.699041E-02	2.993157E-04
6.840551E+03	2.672123E-02	2.948017E-04
6.850394E+03	2.650384E-02	2.907924E-04
6.860236E+03	2.634303E-02	2.873343E-04
6.870079E+03	2.624198E-02	2.844539E-04
6.879921E+03	2.620293E-02	2.821662E-04
6.889764E+03	2.622712E-02	2.804731E-04
6.899606E+03	2.631396E-02	2.793560E-04
6.909449E+03	2.646092E-02	2.787749E-04
6.919291E+03	2.666423E-02	2.786765E-04
6.929134E+03	2.691888E-02	2.789952E-04
6.938976E+03	2.721744E-02	2.796415E-04
6.948819E+03	2.755125E-02	2.805158E-04
6.958661E+03	2.791033E-02	2.815077E-04
6.968504E+03	2.828354E-02	2.824993E-04
6.978346E+03	2.865942E-02	2.833737E-04
6.988189E+03	2.902497E-02	2.840042E-04
6.998031E+03	2.936872E-02	2.842846E-04
7.007874E+03	2.967956E-02	2.841178E-04
7.017717E+03	2.994770E-02	2.834249E-04
7.027559E+03	3.016509E-02	2.821483E-04
7.037402E+03	3.032517E-02	2.802492E-04
7.047244E+03	3.042453E-02	2.777211E-04
7.057087E+03	3.046104E-02	2.745719E-04
7.066929E+03	3.043568E-02	2.708390E-04
7.076772E+03	3.035061E-02	2.665704E-04
7.086614E+03	3.021030E-02	2.618340E-04
7.096457E+03	3.002078E-02	2.567094E-04
7.106299E+03	2.978987E-02	2.512893E-04
7.116142E+03	2.952489E-02	2.456581E-04
7.125984E+03	2.923545E-02	2.399168E-04
7.135827E+03	2.892944E-02	2.341476E-04
7.145669E+03	2.861567E-02	2.284367E-04
7.155512E+03	2.830122E-02	2.228531E-04
7.165354E+03	2.799292E-02	2.174604E-04
7.175197E+03	2.769562E-02	2.123052E-04
7.185039E+03	2.741172E-02	2.074130E-04
7.194882E+03	2.714373E-02	2.028100E-04
7.204724E+03	2.689174E-02	1.985040E-04
7.214567E+03	2.665374E-02	1.944877E-04
7.224409E+03	2.642815E-02	1.907581E-04
7.234252E+03	2.621257E-02	1.873069E-04
7.244094E+03	2.600472E-02	1.841278E-04
7.253937E+03	2.580282E-02	1.812183E-04
7.263780E+03	2.560681E-02	1.785879E-04
7.273622E+03	2.541728E-02	1.762499E-04
7.283465E+03	2.523583E-02	1.742222E-04
7.293307E+03	2.506514E-02	1.725283E-04
7.303150E+03	2.490710E-02	1.711859E-04
7.312992E+03	2.476156E-02	1.701978E-04
7.322835E+03	2.462750E-02	1.695601E-04
7.332677E+03	2.450124E-02	1.692501E-04
7.342520E+03	2.437813E-02	1.692339E-04
7.352362E+03	2.424976E-02	1.694419E-04
7.362205E+03	2.410785E-02	1.698006E-04
7.372047E+03	2.394155E-02	1.702150E-04
7.381890E+03	2.374112E-02	1.705933E-04
7.391732E+03	2.349625E-02	1.708345E-04
7.401575E+03	2.319725E-02	1.708363E-04
7.411417E+03	2.283689E-02	1.705089E-04
7.421260E+03	2.241187E-02	1.697871E-04
7.431102E+03	2.192511E-02	1.686501E-04
7.440945E+03	2.138486E-02	1.671189E-04
7.450787E+03	2.080042E-02	1.652260E-04
7.460630E+03	2.018250E-02	1.630197E-04
7.470472E+03	1.954102E-02	1.605484E-04
7.480315E+03	1.888629E-02	1.578699E-04
7.490157E+03	1.822638E-02	1.550300E-04
7.500000E+03	1.756920E-02	1.520796E-04
7.509843E+03	1.692089E-02	1.490601E-04
7.519685E+03	1.628747E-02	1.460171E-04
7.529528E+03	1.567400E-02	1.429930E-04
7.539370E+03	1.508708E-02	1.400490E-04
7.549213E+03	1.453095E-02	1.372299E-04
7.559055E+03	1.400908E-02	1.345768E-04
7.568898E+03	1.352330E-02	1.321185E-04
7.578740E+03	1.307464E-02	1.298780E-04
7.588583E+03	1.266264E-02	1.278647E-04
7.598425E+03	1.228691E-02	1.260893E-04
7.608268E+03	1.194646E-02	1.245563E-04
7.618110E+03	1.163992E-02	1.232665E-04
7.627953E+03	1.136595E-02	1.222198E-04
7.637795E+03	1.112241E-02	1.214073E-04
