#wls	flux	fluxerr
1.574803E+03	1.537233E-03	1.137360E-04
1.614173E+03	1.527944E-03	1.120753E-04
1.653543E+03	1.517770E-03	1.103409E-04
1.692913E+03	1.506955E-03	1.085526E-04
1.732283E+03	1.495960E-03	1.067446E-04
1.771654E+03	1.484097E-03	1.048691E-04
1.811024E+03	1.471650E-03	1.029480E-04
1.850394E+03	1.458590E-03	1.009809E-04
1.889764E+03	1.444385E-03	9.893315E-05
1.929134E+03	1.429550E-03	9.684279E-05
1.968504E+03	1.413895E-03	9.469898E-05
2.007874E+03	1.398501E-03	9.257582E-05
2.047244E+03	1.385242E-03	9.059587E-05
2.086614E+03	1.375970E-03	8.887431E-05
2.125984E+03	1.373220E-03	8.756355E-05
2.165354E+03	1.377972E-03	8.670911E-05
2.204724E+03	1.388950E-03	8.621296E-05
2.244094E+03	1.404040E-03	8.592922E-05
2.283465E+03	1.421856E-03	8.576325E-05
2.322835E+03	1.440548E-03	8.559719E-05
2.362205E+03	1.459873E-03	8.541395E-05
2.401575E+03	1.479147E-03	8.517190E-05
2.440945E+03	1.498306E-03	8.486719E-05
2.480315E+03	1.517376E-03	8.450120E-05
2.519685E+03	1.536219E-03	8.406641E-05
2.559055E+03	1.555092E-03	8.357711E-05
2.598425E+03	1.574045E-03	8.303585E-05
2.637795E+03	1.592938E-03	8.243515E-05
2.677165E+03	1.612000E-03	8.178709E-05
2.716535E+03	1.631450E-03	8.110241E-05
2.755906E+03	1.651676E-03	8.039926E-05
2.795276E+03	1.672882E-03	7.968563E-05
2.834646E+03	1.694266E-03	7.892180E-05
2.874016E+03	1.716107E-03	7.812108E-05
2.913386E+03	1.738059E-03	7.726776E-05
2.952756E+03	1.760496E-03	7.637922E-05
2.962598E+03	1.766065E-03	7.614663E-05
2.972441E+03	1.771915E-03	7.592264E-05
2.982283E+03	1.777732E-03	7.569368E-05
2.992126E+03	1.783683E-03	7.546691E-05
3.001969E+03	1.789630E-03	7.523644E-05
3.011811E+03	1.795750E-03	7.500975E-05
3.021654E+03	1.802046E-03	7.478675E-05
3.031496E+03	1.808517E-03	7.456739E-05
3.041339E+03	1.815012E-03	7.434537E-05
3.051181E+03	1.821845E-03	7.413341E-05
3.061024E+03	1.828863E-03	7.392520E-05
3.070866E+03	1.835919E-03	7.371468E-05
3.080709E+03	1.843326E-03	7.351431E-05
3.090551E+03	1.850935E-03	7.331803E-05
3.100394E+03	1.858755E-03	7.312600E-05
3.110236E+03	1.866793E-03	7.293845E-05
3.120079E+03	1.875209E-03	7.276137E-05
3.129921E+03	1.883861E-03	7.258911E-05
3.139764E+03	1.892908E-03	7.242760E-05
3.149606E+03	1.902361E-03	7.227699E-05
3.159449E+03	1.912083E-03	7.213180E-05
3.169291E+03	1.922233E-03	7.199790E-05
3.179134E+03	1.932971E-03	7.188092E-05
3.188976E+03	1.944015E-03	7.177005E-05
3.198819E+03	1.955672E-03	7.167638E-05
3.208661E+03	1.967955E-03	7.159993E-05
3.218504E+03	1.980732E-03	7.153553E-05
3.228346E+03	1.994162E-03	7.148854E-05
3.238189E+03	2.008113E-03	7.145383E-05
3.248031E+03	2.022887E-03	7.144175E-05
3.257874E+03	2.038496E-03	7.145210E-05
3.267717E+03	2.054803E-03	7.147961E-05
3.277559E+03	2.071959E-03	7.152902E-05
3.287402E+03	2.089968E-03	7.159986E-05
3.297244E+03	2.108827E-03	7.169149E-05
3.307087E+03	2.128671E-03	7.180792E-05
3.316929E+03	2.149485E-03	7.194793E-05
3.326772E+03	2.171241E-03	7.211001E-05
3.336614E+03	2.194186E-03	7.230167E-05
3.346457E+03	2.217977E-03	7.251089E-05
3.356299E+03	2.242681E-03	7.273939E-05
3.366142E+03	2.268490E-03	7.299268E-05
3.375984E+03	2.295134E-03	7.326155E-05
3.385827E+03	2.322608E-03	7.354532E-05
3.395669E+03	2.350736E-03	7.383799E-05
3.405512E+03	2.379606E-03	7.414200E-05
3.415354E+03	2.408875E-03	7.444635E-05
3.425197E+03	2.438529E-03	7.475048E-05
3.435039E+03	2.468687E-03	7.505799E-05
3.444882E+03	2.499469E-03	7.537227E-05
3.454724E+03	2.531338E-03	7.570689E-05
3.464567E+03	2.564356E-03	7.606314E-05
3.474409E+03	2.598868E-03	7.645057E-05
3.484252E+03	2.635219E-03	7.687831E-05
3.494094E+03	2.673602E-03	7.735092E-05
3.503937E+03	2.714206E-03	7.787261E-05
3.513780E+03	2.757081E-03	7.844335E-05
3.523622E+03	2.802691E-03	7.907479E-05
3.533465E+03	2.850952E-03	7.976263E-05
3.543307E+03	2.902068E-03	8.051077E-05
3.553150E+03	2.956260E-03	8.132336E-05
3.562992E+03	3.013764E-03	8.220480E-05
3.572835E+03	3.074842E-03	8.315996E-05
3.582677E+03	3.139507E-03	8.418679E-05
3.592520E+03	3.208351E-03	8.529870E-05
3.602362E+03	3.281450E-03	8.649487E-05
3.612205E+03	3.359340E-03	8.778655E-05
3.622047E+03	3.442327E-03	8.917854E-05
3.631890E+03	3.530914E-03	9.068041E-05
3.641732E+03	3.625520E-03	9.229919E-05
3.651575E+03	3.726767E-03	9.404664E-05
3.661417E+03	3.835488E-03	9.593931E-05
3.671260E+03	3.952164E-03	9.798428E-05
3.681102E+03	4.077639E-03	1.001972E-04
3.690945E+03	4.212846E-03	1.025951E-04
3.700787E+03	4.358819E-03	1.051966E-04
3.710630E+03	4.516543E-03	1.080185E-04
3.720472E+03	4.687263E-03	1.110827E-04
3.730315E+03	4.872330E-03	1.144127E-04
3.740157E+03	5.073034E-03	1.180293E-04
3.750000E+03	5.290931E-03	1.219585E-04
3.759843E+03	5.527485E-03	1.262227E-04
3.769685E+03	5.784358E-03	1.308477E-04
3.779528E+03	6.063275E-03	1.358594E-04
3.789370E+03	6.366020E-03	1.412835E-04
3.799213E+03	6.694004E-03	1.471358E-04
3.809055E+03	7.049186E-03	1.534432E-04
3.818898E+03	7.433322E-03	1.602264E-04
3.828740E+03	7.847604E-03	1.674926E-04
3.838583E+03	8.293450E-03	1.752530E-04
3.848425E+03	8.772305E-03	1.835181E-04
3.858268E+03	9.284578E-03	1.922756E-04
3.868110E+03	9.830962E-03	2.015190E-04
3.877953E+03	1.041092E-02	2.112161E-04
3.887795E+03	1.102368E-02	2.213307E-04
3.897638E+03	1.166805E-02	2.318187E-04
3.907480E+03	1.234126E-02	2.426062E-04
3.917323E+03	1.304025E-02	2.536159E-04
3.927165E+03	1.376110E-02	2.647569E-04
3.937008E+03	1.449912E-02	2.759264E-04
3.946850E+03	1.524814E-02	2.869982E-04
3.956693E+03	1.600222E-02	2.978558E-04
3.966535E+03	1.675382E-02	3.083573E-04
3.976378E+03	1.749630E-02	3.183849E-04
3.986220E+03	1.822099E-02	3.277885E-04
3.996063E+03	1.892100E-02	3.364580E-04
4.005906E+03	1.958830E-02	3.442683E-04
4.015748E+03	2.021612E-02	3.511233E-04
4.025591E+03	2.079862E-02	3.569485E-04
4.035433E+03	2.133094E-02	3.616905E-04
4.045276E+03	2.181001E-02	3.653304E-04
4.055118E+03	2.223431E-02	3.678769E-04
4.064961E+03	2.260414E-02	3.693704E-04
4.074803E+03	2.292050E-02	3.698619E-04
4.084646E+03	2.318734E-02	3.694485E-04
4.094488E+03	2.340799E-02	3.682143E-04
4.104331E+03	2.358786E-02	3.662734E-04
4.114173E+03	2.373196E-02	3.637289E-04
4.124016E+03	2.384588E-02	3.606888E-04
4.133858E+03	2.393524E-02	3.572570E-04
4.143701E+03	2.400593E-02	3.535368E-04
4.153543E+03	2.406223E-02	3.496039E-04
4.163386E+03	2.410975E-02	3.455489E-04
4.173228E+03	2.415235E-02	3.414342E-04
4.183071E+03	2.419334E-02	3.373109E-04
4.192913E+03	2.423704E-02	3.332420E-04
4.202756E+03	2.428500E-02	3.292495E-04
4.212598E+03	2.433933E-02	3.253622E-04
4.222441E+03	2.439965E-02	3.215743E-04
4.232283E+03	2.446636E-02	3.178909E-04
4.242126E+03	2.453666E-02	3.142762E-04
4.251969E+03	2.460727E-02	3.106902E-04
4.261811E+03	2.467320E-02	3.070746E-04
4.271654E+03	2.472851E-02	3.033631E-04
4.281496E+03	2.476503E-02	2.994664E-04
4.291339E+03	2.477492E-02	2.953055E-04
4.301181E+03	2.474910E-02	2.907913E-04
4.311024E+03	2.467795E-02	2.858347E-04
4.320866E+03	2.455226E-02	2.803568E-04
4.330709E+03	2.436280E-02	2.742835E-04
4.340551E+03	2.410244E-02	2.675689E-04
4.350394E+03	2.376996E-02	2.602349E-04
4.360236E+03	2.337212E-02	2.523879E-04
4.370079E+03	2.293030E-02	2.442853E-04
4.379921E+03	2.246859E-02	2.361980E-04
4.389764E+03	2.201075E-02	2.283794E-04
4.399606E+03	2.157837E-02	2.210472E-04
4.409449E+03	2.119073E-02	2.143842E-04
4.419291E+03	2.086334E-02	2.085251E-04
4.429134E+03	2.060875E-02	2.035638E-04
4.438976E+03	2.043599E-02	1.995554E-04
4.448819E+03	2.035114E-02	1.965245E-04
4.458661E+03	2.035697E-02	1.944638E-04
4.468504E+03	2.045386E-02	1.933446E-04
4.478346E+03	2.064032E-02	1.931226E-04
4.488189E+03	2.091269E-02	1.937362E-04
4.498031E+03	2.126556E-02	1.951108E-04
4.507874E+03	2.169026E-02	1.971454E-04
4.517717E+03	2.217671E-02	1.997310E-04
4.527559E+03	2.271221E-02	2.027391E-04
4.537402E+03	2.328152E-02	2.060241E-04
4.547244E+03	2.386843E-02	2.094366E-04
4.557087E+03	2.445514E-02	2.128188E-04
4.566929E+03	2.502252E-02	2.160064E-04
4.576772E+03	2.555273E-02	2.188513E-04
4.586614E+03	2.602763E-02	2.212076E-04
4.596457E+03	2.643379E-02	2.229734E-04
4.606299E+03	2.675930E-02	2.240623E-04
4.616142E+03	2.699935E-02	2.244494E-04
4.625984E+03	2.715438E-02	2.241541E-04
4.635827E+03	2.723097E-02	2.232450E-04
4.645669E+03	2.724097E-02	2.218322E-04
4.655512E+03	2.719960E-02	2.200501E-04
4.665354E+03	2.712380E-02	2.180435E-04
4.675197E+03	2.702825E-02	2.159359E-04
4.685039E+03	2.692022E-02	2.137893E-04
4.694882E+03	2.679313E-02	2.115549E-04
4.704724E+03	2.663396E-02	2.091353E-04
4.714567E+03	2.643238E-02	2.064560E-04
4.724409E+03	2.618117E-02	2.034686E-04
4.734252E+03	2.587757E-02	2.001595E-04
4.744094E+03	2.552538E-02	1.965659E-04
4.753937E+03	2.513339E-02	1.927619E-04
4.763780E+03	2.471387E-02	1.888464E-04
4.773622E+03	2.428229E-02	1.849402E-04
4.783465E+03	2.385577E-02	1.811734E-04
4.793307E+03	2.345225E-02	1.776803E-04
4.803150E+03	2.308950E-02	1.745934E-04
4.812992E+03	2.278213E-02	1.720203E-04
4.822835E+03	2.254234E-02	1.700513E-04
4.832677E+03	2.237888E-02	1.687513E-04
4.842520E+03	2.229749E-02	1.681641E-04
4.852362E+03	2.230207E-02	1.683217E-04
4.862205E+03	2.239489E-02	1.692455E-04
4.872047E+03	2.257653E-02	1.709466E-04
4.881890E+03	2.284629E-02	1.734262E-04
4.891732E+03	2.320128E-02	1.766645E-04
4.901575E+03	2.363576E-02	1.806203E-04
4.911417E+03	2.414234E-02	1.852402E-04
4.921260E+03	2.470902E-02	1.904355E-04
4.931102E+03	2.532151E-02	1.960988E-04
4.940945E+03	2.596170E-02	2.020907E-04
4.950787E+03	2.660744E-02	2.082375E-04
4.960630E+03	2.723502E-02	2.143490E-04
4.970472E+03	2.782182E-02	2.202388E-04
4.980315E+03	2.834947E-02	2.257496E-04
4.990157E+03	2.880494E-02	2.307627E-04
5.000000E+03	2.917915E-02	2.351881E-04
5.009843E+03	2.946931E-02	2.389850E-04
5.019685E+03	2.967906E-02	2.421640E-04
5.029528E+03	2.981478E-02	2.447591E-04
5.039370E+03	2.988764E-02	2.468458E-04
5.049213E+03	2.991174E-02	2.485262E-04
5.059055E+03	2.990188E-02	2.499119E-04
5.068898E+03	2.987305E-02	2.511192E-04
5.078740E+03	2.983932E-02	2.522605E-04
5.088583E+03	2.981418E-02	2.534462E-04
5.098425E+03	2.980780E-02	2.547617E-04
5.108268E+03	2.982972E-02	2.562886E-04
5.118110E+03	2.988698E-02	2.580895E-04
5.127953E+03	2.998550E-02	2.602183E-04
5.137795E+03	3.013042E-02	2.627235E-04
5.147638E+03	3.032598E-02	2.656462E-04
5.157480E+03	3.057717E-02	2.690353E-04
5.167323E+03	3.088936E-02	2.729433E-04
5.177165E+03	3.126706E-02	2.774160E-04
5.187008E+03	3.171511E-02	2.825026E-04
5.196850E+03	3.223825E-02	2.882518E-04
5.206693E+03	3.283971E-02	2.946995E-04
5.216535E+03	3.352066E-02	3.018627E-04
5.226378E+03	3.428098E-02	3.097473E-04
5.236220E+03	3.511913E-02	3.183458E-04
5.246063E+03	3.603054E-02	3.276231E-04
5.255906E+03	3.700956E-02	3.375336E-04
5.265748E+03	3.804892E-02	3.480165E-04
5.275591E+03	3.914138E-02	3.590106E-04
5.285433E+03	4.027957E-02	3.704529E-04
5.295276E+03	4.145566E-02	3.822760E-04
5.305118E+03	4.266346E-02	3.944271E-04
5.314961E+03	4.389273E-02	4.068157E-04
5.324803E+03	4.512706E-02	4.192929E-04
5.334646E+03	4.633990E-02	4.316139E-04
5.344488E+03	4.750097E-02	4.434912E-04
5.354331E+03	4.857872E-02	4.546170E-04
5.364173E+03	4.954811E-02	4.647415E-04
5.374016E+03	5.038754E-02	4.736446E-04
5.383858E+03	5.108341E-02	4.811800E-04
5.393701E+03	5.162729E-02	4.872496E-04
5.403543E+03	5.201802E-02	4.918241E-04
5.413386E+03	5.225583E-02	4.948888E-04
5.423228E+03	5.234538E-02	4.964717E-04
5.433071E+03	5.229232E-02	4.966125E-04
5.442913E+03	5.210159E-02	4.953459E-04
5.452756E+03	5.177639E-02	4.926922E-04
5.462598E+03	5.131912E-02	4.886662E-04
5.472441E+03	5.072993E-02	4.832634E-04
5.482283E+03	5.000907E-02	4.764825E-04
5.492126E+03	4.915533E-02	4.683111E-04
5.501969E+03	4.816974E-02	4.587602E-04
5.511811E+03	4.705659E-02	4.478750E-04
5.521654E+03	4.582220E-02	4.357224E-04
5.531496E+03	4.447776E-02	4.224182E-04
5.541339E+03	4.303874E-02	4.081208E-04
5.551181E+03	4.152388E-02	3.930215E-04
5.561024E+03	3.995406E-02	3.773324E-04
5.570866E+03	3.835350E-02	3.612971E-04
5.580709E+03	3.674702E-02	3.451642E-04
5.590551E+03	3.515808E-02	3.291675E-04
5.600394E+03	3.361114E-02	3.135479E-04
5.610236E+03	3.212782E-02	2.985161E-04
5.620079E+03	3.072761E-02	2.842595E-04
5.629921E+03	2.942764E-02	2.709395E-04
5.639764E+03	2.824250E-02	2.586891E-04
5.649606E+03	2.718293E-02	2.476023E-04
5.659449E+03	2.625697E-02	2.377436E-04
5.669291E+03	2.547051E-02	2.291540E-04
5.679134E+03	2.482685E-02	2.218479E-04
5.688976E+03	2.432668E-02	2.158123E-04
5.698819E+03	2.397031E-02	2.110287E-04
5.708661E+03	2.375635E-02	2.074606E-04
5.718504E+03	2.368152E-02	2.050530E-04
5.728346E+03	2.374175E-02	2.037429E-04
5.738189E+03	2.393166E-02	2.034552E-04
5.748031E+03	2.424388E-02	2.040978E-04
5.757874E+03	2.466867E-02	2.055598E-04
5.767717E+03	2.519449E-02	2.077172E-04
5.777559E+03	2.580809E-02	2.104358E-04
5.787402E+03	2.649309E-02	2.135601E-04
5.797244E+03	2.723110E-02	2.169251E-04
5.807087E+03	2.800137E-02	2.203546E-04
5.816929E+03	2.878146E-02	2.236682E-04
5.826772E+03	2.954784E-02	2.266876E-04
5.836614E+03	3.027631E-02	2.292406E-04
5.846457E+03	3.094233E-02	2.311640E-04
5.856299E+03	3.152385E-02	2.323251E-04
5.866142E+03	3.200173E-02	2.326234E-04
5.875984E+03	3.236026E-02	2.319927E-04
5.885827E+03	3.258848E-02	2.304080E-04
5.895669E+03	3.268083E-02	2.278873E-04
5.905512E+03	3.263690E-02	2.244865E-04
5.915354E+03	3.246100E-02	2.202930E-04
5.925197E+03	3.216163E-02	2.154196E-04
5.935039E+03	3.175097E-02	2.099982E-04
5.944882E+03	3.124493E-02	2.041782E-04
5.954724E+03	3.066047E-02	1.981074E-04
5.964567E+03	3.001567E-02	1.919322E-04
5.974409E+03	2.932929E-02	1.857942E-04
5.984252E+03	2.861980E-02	1.798251E-04
5.994094E+03	2.790482E-02	1.741435E-04
6.003937E+03	2.720086E-02	1.688552E-04
6.013780E+03	2.652315E-02	1.640528E-04
6.023622E+03	2.588534E-02	1.598161E-04
6.033465E+03	2.529913E-02	1.562112E-04
6.043307E+03	2.477514E-02	1.532953E-04
6.053150E+03	2.432176E-02	1.511038E-04
6.062992E+03	2.394588E-02	1.496635E-04
6.072835E+03	2.365305E-02	1.489978E-04
6.082677E+03	2.344665E-02	1.491214E-04
6.092520E+03	2.332891E-02	1.500438E-04
6.102362E+03	2.329905E-02	1.517589E-04
6.112205E+03	2.334752E-02	1.542072E-04
6.122047E+03	2.345235E-02	1.572466E-04
6.131890E+03	2.358789E-02	1.607041E-04
6.141732E+03	2.373117E-02	1.644160E-04
6.151575E+03	2.386396E-02	1.682419E-04
6.161417E+03	2.397555E-02	1.720866E-04
6.171260E+03	2.405825E-02	1.758709E-04
6.181102E+03	2.410753E-02	1.795351E-04
6.190945E+03	2.412037E-02	1.830279E-04
6.200787E+03	2.409592E-02	1.863132E-04
6.210630E+03	2.403457E-02	1.893641E-04
6.220472E+03	2.393902E-02	1.921732E-04
6.230315E+03	2.381267E-02	1.947404E-04
6.240157E+03	2.366022E-02	1.970797E-04
6.250000E+03	2.348662E-02	1.992102E-04
6.259843E+03	2.329746E-02	2.011610E-04
6.269685E+03	2.309783E-02	2.029607E-04
6.279528E+03	2.289215E-02	2.046363E-04
6.289370E+03	2.268477E-02	2.062173E-04
6.299213E+03	2.247932E-02	2.077302E-04
6.309055E+03	2.227830E-02	2.091935E-04
6.318898E+03	2.208401E-02	2.106265E-04
6.328740E+03	2.189828E-02	2.120452E-04
6.338583E+03	2.172252E-02	2.134634E-04
6.348425E+03	2.155784E-02	2.148929E-04
6.358268E+03	2.140535E-02	2.163465E-04
6.368110E+03	2.126543E-02	2.178306E-04
6.377953E+03	2.113940E-02	2.193613E-04
6.387795E+03	2.102778E-02	2.209474E-04
6.397638E+03	2.093138E-02	2.226011E-04
6.407480E+03	2.085153E-02	2.243405E-04
6.417323E+03	2.078969E-02	2.261857E-04
6.427165E+03	2.074803E-02	2.281653E-04
6.437008E+03	2.072906E-02	2.303122E-04
6.446850E+03	2.073547E-02	2.326625E-04
6.456693E+03	2.077018E-02	2.352555E-04
6.466535E+03	2.083632E-02	2.381337E-04
6.476378E+03	2.093656E-02	2.413350E-04
6.486220E+03	2.107317E-02	2.448928E-04
6.496063E+03	2.124790E-02	2.488348E-04
6.505906E+03	2.146200E-02	2.531823E-04
6.515748E+03	2.171574E-02	2.579447E-04
6.525591E+03	2.200769E-02	2.631098E-04
6.535433E+03	2.233667E-02	2.686675E-04
6.545276E+03	2.269910E-02	2.745770E-04
6.555118E+03	2.309140E-02	2.807956E-04
6.564961E+03	2.350819E-02	2.872574E-04
6.574803E+03	2.394379E-02	2.938901E-04
6.584646E+03	2.439133E-02	3.006056E-04
6.594488E+03	2.484325E-02	3.073051E-04
6.604331E+03	2.529181E-02	3.138864E-04
6.614173E+03	2.572795E-02	3.202292E-04
6.624016E+03	2.614409E-02	3.262311E-04
6.633858E+03	2.653141E-02	3.317734E-04
6.643701E+03	2.688282E-02	3.367594E-04
6.653543E+03	2.719061E-02	3.410846E-04
6.663386E+03	2.744960E-02	3.446771E-04
6.673228E+03	2.765478E-02	3.474684E-04
6.683071E+03	2.780289E-02	3.494132E-04
6.692913E+03	2.789278E-02	3.504947E-04
6.702756E+03	2.792421E-02	3.507087E-04
6.712598E+03	2.789920E-02	3.500815E-04
6.722441E+03	2.782109E-02	3.486579E-04
6.732283E+03	2.769425E-02	3.464962E-04
6.742126E+03	2.752490E-02	3.436793E-04
6.751969E+03	2.732038E-02	3.403052E-04
6.761811E+03	2.708770E-02	3.364672E-04
6.771654E+03	2.683533E-02	3.322773E-04
6.781496E+03	2.657175E-02	3.278468E-04
6.791339E+03	2.630507E-02	3.232811E-04
6.801181E+03	2.604417E-02	3.186941E-04
6.811024E+03	2.579658E-02	3.141811E-04
6.820866E+03	2.556962E-02	3.098331E-04
6.830709E+03	2.536992E-02	3.057303E-04
6.840551E+03	2.520337E-02	3.019418E-04
6.850394E+03	2.507501E-02	2.985242E-04
6.860236E+03	2.498894E-02	2.955206E-04
6.870079E+03	2.494825E-02	2.929600E-04
6.879921E+03	2.495467E-02	2.908535E-04
6.889764E+03	2.500983E-02	2.892094E-04
6.899606E+03	2.511278E-02	2.880050E-04
6.909449E+03	2.526278E-02	2.872192E-04
6.919291E+03	2.545654E-02	2.868016E-04
6.929134E+03	2.569023E-02	2.866966E-04
6.938976E+03	2.595956E-02	2.868442E-04
6.948819E+03	2.625743E-02	2.871555E-04
6.958661E+03	2.657799E-02	2.875577E-04
6.968504E+03	2.691272E-02	2.879524E-04
6.978346E+03	2.725326E-02	2.882470E-04
6.988189E+03	2.759106E-02	2.883514E-04
6.998031E+03	2.791785E-02	2.881832E-04
7.007874E+03	2.822447E-02	2.876562E-04
7.017717E+03	2.850377E-02	2.867095E-04
7.027559E+03	2.874939E-02	2.852955E-04
7.037402E+03	2.895442E-02	2.833655E-04
7.047244E+03	2.911587E-02	2.809136E-04
7.057087E+03	2.922961E-02	2.779259E-04
7.066929E+03	2.929489E-02	2.744233E-04
7.076772E+03	2.931124E-02	2.704314E-04
7.086614E+03	2.927987E-02	2.659920E-04
7.096457E+03	2.920270E-02	2.611533E-04
7.106299E+03	2.908334E-02	2.559782E-04
7.116142E+03	2.892652E-02	2.505379E-04
7.125984E+03	2.873667E-02	2.448989E-04
7.135827E+03	2.851860E-02	2.391289E-04
7.145669E+03	2.827794E-02	2.332997E-04
7.155512E+03	2.801869E-02	2.274675E-04
7.165354E+03	2.774605E-02	2.216960E-04
7.175197E+03	2.746296E-02	2.160283E-04
7.185039E+03	2.717242E-02	2.105069E-04
7.194882E+03	2.687646E-02	2.051654E-04
7.204724E+03	2.657728E-02	2.000373E-04
7.214567E+03	2.627582E-02	1.951459E-04
7.224409E+03	2.597327E-02	1.905154E-04
7.234252E+03	2.567018E-02	1.861643E-04
7.244094E+03	2.536686E-02	1.821086E-04
7.253937E+03	2.506428E-02	1.783675E-04
7.263780E+03	2.476237E-02	1.749504E-04
7.273622E+03	2.446280E-02	1.718758E-04
7.283465E+03	2.416575E-02	1.691495E-04
7.293307E+03	2.387287E-02	1.667856E-04
7.303150E+03	2.358405E-02	1.647837E-04
7.312992E+03	2.329999E-02	1.631473E-04
7.322835E+03	2.301995E-02	1.618668E-04
7.332677E+03	2.274250E-02	1.609180E-04
7.342520E+03	2.246461E-02	1.602566E-04
7.352362E+03	2.218239E-02	1.598298E-04
7.362205E+03	2.189113E-02	1.595764E-04
7.372047E+03	2.158542E-02	1.594279E-04
7.381890E+03	2.126041E-02	1.593168E-04
7.391732E+03	2.091027E-02	1.591656E-04
7.401575E+03	2.053100E-02	1.589073E-04
7.411417E+03	2.011929E-02	1.584780E-04
7.421260E+03	1.967391E-02	1.578284E-04
7.431102E+03	1.919724E-02	1.569381E-04
7.440945E+03	1.869281E-02	1.557979E-04
7.450787E+03	1.816594E-02	1.544171E-04
7.460630E+03	1.762208E-02	1.528106E-04
7.470472E+03	1.706636E-02	1.509955E-04
7.480315E+03	1.650379E-02	1.489930E-04
7.490157E+03	1.593923E-02	1.468282E-04
7.500000E+03	1.537673E-02	1.445240E-04
7.509843E+03	1.482065E-02	1.421107E-04
7.519685E+03	1.427462E-02	1.396165E-04
7.529528E+03	1.374317E-02	1.370829E-04
7.539370E+03	1.323045E-02	1.345524E-04
7.549213E+03	1.274026E-02	1.320687E-04
7.559055E+03	1.227593E-02	1.296741E-04
7.568898E+03	1.183963E-02	1.274029E-04
7.578740E+03	1.143293E-02	1.252848E-04
7.588583E+03	1.105691E-02	1.233460E-04
7.598425E+03	1.071166E-02	1.216034E-04
7.608268E+03	1.039704E-02	1.200715E-04
7.618110E+03	1.011217E-02	1.187563E-04
7.627953E+03	9.856068E-03	1.176619E-04
7.637795E+03	9.627395E-03	1.167882E-04
