#wls	flux	fluxerr
1.574803E+03	1.136732E-03	1.040315E-04
1.614173E+03	1.123317E-03	1.023344E-04
1.653543E+03	1.109731E-03	1.006211E-04
1.692913E+03	1.095348E-03	9.883540E-05
1.732283E+03	1.080770E-03	9.703282E-05
1.771654E+03	1.065885E-03	9.520374E-05
1.811024E+03	1.050349E-03	9.331839E-05
1.850394E+03	1.034196E-03	9.138104E-05
1.889764E+03	1.017450E-03	8.939500E-05
1.929134E+03	9.999974E-04	8.735157E-05
1.968504E+03	9.821002E-04	8.527511E-05
2.007874E+03	9.642219E-04	8.320674E-05
2.047244E+03	9.473804E-04	8.123419E-05
2.086614E+03	9.333578E-04	7.950801E-05
2.125984E+03	9.232220E-04	7.811419E-05
2.165354E+03	9.174642E-04	7.708748E-05
2.204724E+03	9.151594E-04	7.634306E-05
2.244094E+03	9.153356E-04	7.579412E-05
2.283465E+03	9.164898E-04	7.531236E-05
2.322835E+03	9.180215E-04	7.484675E-05
2.362205E+03	9.195642E-04	7.436668E-05
2.401575E+03	9.208575E-04	7.385100E-05
2.440945E+03	9.220863E-04	7.331468E-05
2.480315E+03	9.231891E-04	7.275280E-05
2.519685E+03	9.242775E-04	7.217413E-05
2.559055E+03	9.254663E-04	7.158738E-05
2.598425E+03	9.268688E-04	7.100082E-05
2.637795E+03	9.285948E-04	7.042208E-05
2.677165E+03	9.307569E-04	6.985866E-05
2.716535E+03	9.334728E-04	6.931807E-05
2.755906E+03	9.367373E-04	6.879836E-05
2.795276E+03	9.408250E-04	6.831789E-05
2.834646E+03	9.456371E-04	6.786724E-05
2.874016E+03	9.516089E-04	6.747513E-05
2.913386E+03	9.590568E-04	6.716038E-05
2.952756E+03	9.683123E-04	6.694162E-05
2.962598E+03	9.708735E-04	6.689889E-05
2.972441E+03	9.737474E-04	6.687547E-05
2.982283E+03	9.766949E-04	6.685478E-05
2.992126E+03	9.798426E-04	6.684540E-05
3.001969E+03	9.832012E-04	6.684790E-05
3.011811E+03	9.866623E-04	6.685478E-05
3.021654E+03	9.904668E-04	6.688223E-05
3.031496E+03	9.943762E-04	6.691396E-05
3.041339E+03	9.986313E-04	6.696601E-05
3.051181E+03	1.003113E-03	6.703019E-05
3.061024E+03	1.007706E-03	6.709861E-05
3.070866E+03	1.012647E-03	6.718695E-05
3.080709E+03	1.017821E-03	6.728728E-05
3.090551E+03	1.023347E-03	6.740729E-05
3.100394E+03	1.029108E-03	6.753900E-05
3.110236E+03	1.035105E-03	6.768239E-05
3.120079E+03	1.041458E-03	6.784494E-05
3.129921E+03	1.048050E-03	6.801884E-05
3.139764E+03	1.055114E-03	6.821907E-05
3.149606E+03	1.062418E-03	6.843013E-05
3.159449E+03	1.070076E-03	6.865931E-05
3.169291E+03	1.078088E-03	6.890622E-05
3.179134E+03	1.086452E-03	6.917046E-05
3.188976E+03	1.095164E-03	6.945151E-05
3.198819E+03	1.104220E-03	6.974882E-05
3.208661E+03	1.113731E-03	7.006916E-05
3.218504E+03	1.123692E-03	7.041176E-05
3.228346E+03	1.133977E-03	7.076843E-05
3.238189E+03	1.144694E-03	7.114557E-05
3.248031E+03	1.155831E-03	7.154211E-05
3.257874E+03	1.167375E-03	7.195695E-05
3.267717E+03	1.179312E-03	7.238880E-05
3.277559E+03	1.191742E-03	7.284346E-05
3.287402E+03	1.204529E-03	7.331222E-05
3.297244E+03	1.217769E-03	7.380064E-05
3.307087E+03	1.231439E-03	7.430694E-05
3.316929E+03	1.245396E-03	7.482217E-05
3.326772E+03	1.259851E-03	7.535858E-05
3.336614E+03	1.274656E-03	7.590707E-05
3.346457E+03	1.289901E-03	7.647255E-05
3.356299E+03	1.305555E-03	7.705289E-05
3.366142E+03	1.321472E-03	7.763908E-05
3.375984E+03	1.337858E-03	7.824298E-05
3.385827E+03	1.354453E-03	7.884897E-05
3.395669E+03	1.371467E-03	7.946909E-05
3.405512E+03	1.388886E-03	8.010206E-05
3.415354E+03	1.406699E-03	8.074696E-05
3.425197E+03	1.424911E-03	8.140369E-05
3.435039E+03	1.443544E-03	8.207316E-05
3.444882E+03	1.462757E-03	8.276396E-05
3.454724E+03	1.482493E-03	8.347232E-05
3.464567E+03	1.502938E-03	8.420825E-05
3.474409E+03	1.524175E-03	8.497566E-05
3.484252E+03	1.546295E-03	8.577900E-05
3.494094E+03	1.569400E-03	8.662311E-05
3.503937E+03	1.593718E-03	8.751958E-05
3.513780E+03	1.619368E-03	8.847388E-05
3.523622E+03	1.646478E-03	8.949177E-05
3.533465E+03	1.675072E-03	9.057323E-05
3.543307E+03	1.705525E-03	9.173717E-05
3.553150E+03	1.737878E-03	9.298412E-05
3.562992E+03	1.772414E-03	9.432741E-05
3.572835E+03	1.809194E-03	9.576834E-05
3.582677E+03	1.848522E-03	9.732092E-05
3.592520E+03	1.890598E-03	9.899339E-05
3.602362E+03	1.935521E-03	1.007883E-04
3.612205E+03	1.983753E-03	1.027272E-04
3.622047E+03	2.035419E-03	1.048134E-04
3.631890E+03	2.090779E-03	1.070571E-04
3.641732E+03	2.150109E-03	1.094692E-04
3.651575E+03	2.213823E-03	1.120669E-04
3.661417E+03	2.282113E-03	1.148560E-04
3.671260E+03	2.355311E-03	1.178488E-04
3.681102E+03	2.434017E-03	1.210708E-04
3.690945E+03	2.518227E-03	1.245167E-04
3.700787E+03	2.608711E-03	1.282193E-04
3.710630E+03	2.705493E-03	1.321741E-04
3.720472E+03	2.809390E-03	1.364149E-04
3.730315E+03	2.920582E-03	1.409439E-04
3.740157E+03	3.039519E-03	1.457759E-04
3.750000E+03	3.166945E-03	1.509392E-04
3.759843E+03	3.302907E-03	1.564282E-04
3.769685E+03	3.448304E-03	1.622771E-04
3.779528E+03	3.603157E-03	1.684783E-04
3.789370E+03	3.768360E-03	1.750645E-04
3.799213E+03	3.943874E-03	1.820242E-04
3.809055E+03	4.130389E-03	1.893793E-04
3.818898E+03	4.328078E-03	1.971274E-04
3.828740E+03	4.537199E-03	2.052697E-04
3.838583E+03	4.757760E-03	2.137958E-04
3.848425E+03	4.990181E-03	2.227135E-04
3.858268E+03	5.234264E-03	2.320030E-04
3.868110E+03	5.489632E-03	2.416366E-04
3.877953E+03	5.755944E-03	2.515885E-04
3.887795E+03	6.032888E-03	2.618349E-04
3.897638E+03	6.319567E-03	2.723270E-04
3.907480E+03	6.615077E-03	2.830167E-04
3.917323E+03	6.918101E-03	2.938396E-04
3.927165E+03	7.227757E-03	3.047513E-04
3.937008E+03	7.541867E-03	3.156542E-04
3.946850E+03	7.859163E-03	3.264912E-04
3.956693E+03	8.177549E-03	3.371727E-04
3.966535E+03	8.494740E-03	3.476040E-04
3.976378E+03	8.808850E-03	3.577095E-04
3.986220E+03	9.117416E-03	3.673928E-04
3.996063E+03	9.418463E-03	3.765801E-04
4.005906E+03	9.709299E-03	3.851716E-04
4.015748E+03	9.987827E-03	3.930944E-04
4.025591E+03	1.025240E-02	4.002958E-04
4.035433E+03	1.050107E-02	4.067136E-04
4.045276E+03	1.073244E-02	4.123099E-04
4.055118E+03	1.094523E-02	4.170512E-04
4.064961E+03	1.113901E-02	4.209404E-04
4.074803E+03	1.131301E-02	4.239659E-04
4.084646E+03	1.146762E-02	4.261615E-04
4.094488E+03	1.160309E-02	4.275553E-04
4.104331E+03	1.172054E-02	4.282065E-04
4.114173E+03	1.182058E-02	4.281545E-04
4.124016E+03	1.190483E-02	4.274747E-04
4.133858E+03	1.197454E-02	4.262269E-04
4.143701E+03	1.203133E-02	4.244821E-04
4.153543E+03	1.207681E-02	4.223100E-04
4.163386E+03	1.211234E-02	4.197685E-04
4.173228E+03	1.213944E-02	4.169197E-04
4.183071E+03	1.215950E-02	4.138198E-04
4.192913E+03	1.217378E-02	4.105181E-04
4.202756E+03	1.218311E-02	4.070486E-04
4.212598E+03	1.218814E-02	4.034383E-04
4.222441E+03	1.219005E-02	3.997301E-04
4.232283E+03	1.218885E-02	3.959284E-04
4.242126E+03	1.218463E-02	3.920395E-04
4.251969E+03	1.217795E-02	3.880851E-04
4.261811E+03	1.216835E-02	3.840531E-04
4.271654E+03	1.215588E-02	3.799492E-04
4.281496E+03	1.213989E-02	3.757563E-04
4.291339E+03	1.212033E-02	3.714769E-04
4.301181E+03	1.209697E-02	3.671080E-04
4.311024E+03	1.206945E-02	3.626437E-04
4.320866E+03	1.203781E-02	3.580890E-04
4.330709E+03	1.200229E-02	3.534557E-04
4.340551E+03	1.196320E-02	3.487576E-04
4.350394E+03	1.192164E-02	3.440299E-04
4.360236E+03	1.187894E-02	3.393137E-04
4.370079E+03	1.183672E-02	3.346572E-04
4.379921E+03	1.179713E-02	3.301203E-04
4.389764E+03	1.176265E-02	3.257705E-04
4.399606E+03	1.173525E-02	3.216586E-04
4.409449E+03	1.171725E-02	3.178422E-04
4.419291E+03	1.171100E-02	3.143777E-04
4.429134E+03	1.171832E-02	3.113044E-04
4.438976E+03	1.174077E-02	3.086531E-04
4.448819E+03	1.177979E-02	3.064494E-04
4.458661E+03	1.183646E-02	3.047091E-04
4.468504E+03	1.191152E-02	3.034373E-04
4.478346E+03	1.200510E-02	3.026242E-04
4.488189E+03	1.211726E-02	3.022581E-04
4.498031E+03	1.224730E-02	3.023087E-04
4.507874E+03	1.239406E-02	3.027363E-04
4.517717E+03	1.255631E-02	3.035003E-04
4.527559E+03	1.273224E-02	3.045482E-04
4.537402E+03	1.291950E-02	3.058168E-04
4.547244E+03	1.311559E-02	3.072422E-04
4.557087E+03	1.331758E-02	3.087532E-04
4.566929E+03	1.352274E-02	3.102864E-04
4.576772E+03	1.372810E-02	3.117755E-04
4.586614E+03	1.393054E-02	3.131540E-04
4.596457E+03	1.412724E-02	3.143652E-04
4.606299E+03	1.431563E-02	3.153601E-04
4.616142E+03	1.449341E-02	3.160980E-04
4.625984E+03	1.465867E-02	3.165487E-04
4.635827E+03	1.480968E-02	3.166870E-04
4.645669E+03	1.494550E-02	3.165061E-04
4.655512E+03	1.506518E-02	3.159990E-04
4.665354E+03	1.516835E-02	3.151715E-04
4.675197E+03	1.525420E-02	3.140200E-04
4.685039E+03	1.532123E-02	3.125274E-04
4.694882E+03	1.536628E-02	3.106432E-04
4.704724E+03	1.538562E-02	3.083077E-04
4.714567E+03	1.537648E-02	3.054818E-04
4.724409E+03	1.533722E-02	3.021498E-04
4.734252E+03	1.526726E-02	2.983169E-04
4.744094E+03	1.516818E-02	2.940290E-04
4.753937E+03	1.504241E-02	2.893469E-04
4.763780E+03	1.489457E-02	2.843705E-04
4.773622E+03	1.473016E-02	2.792125E-04
4.783465E+03	1.455542E-02	2.739959E-04
4.793307E+03	1.437750E-02	2.688564E-04
4.803150E+03	1.420358E-02	2.639254E-04
4.812992E+03	1.404076E-02	2.593281E-04
4.822835E+03	1.389573E-02	2.551802E-04
4.832677E+03	1.377472E-02	2.515860E-04
4.842520E+03	1.368292E-02	2.486301E-04
4.852362E+03	1.362461E-02	2.463784E-04
4.862205E+03	1.360296E-02	2.448776E-04
4.872047E+03	1.362021E-02	2.441571E-04
4.881890E+03	1.367733E-02	2.442248E-04
4.891732E+03	1.377422E-02	2.450698E-04
4.901575E+03	1.390983E-02	2.466657E-04
4.911417E+03	1.408183E-02	2.489629E-04
4.921260E+03	1.428723E-02	2.519026E-04
4.931102E+03	1.452218E-02	2.554120E-04
4.940945E+03	1.478157E-02	2.593975E-04
4.950787E+03	1.506045E-02	2.637692E-04
4.960630E+03	1.535255E-02	2.684159E-04
4.970472E+03	1.565185E-02	2.732306E-04
4.980315E+03	1.595229E-02	2.781072E-04
4.990157E+03	1.624772E-02	2.829379E-04
5.000000E+03	1.653270E-02	2.876276E-04
5.009843E+03	1.680273E-02	2.920974E-04
5.019685E+03	1.705418E-02	2.962833E-04
5.029528E+03	1.728456E-02	3.001411E-04
5.039370E+03	1.749271E-02	3.036490E-04
5.049213E+03	1.767893E-02	3.068104E-04
5.059055E+03	1.784421E-02	3.096402E-04
5.068898E+03	1.799157E-02	3.121883E-04
5.078740E+03	1.812379E-02	3.145001E-04
5.088583E+03	1.824521E-02	3.166483E-04
5.098425E+03	1.836022E-02	3.187059E-04
5.108268E+03	1.847335E-02	3.207490E-04
5.118110E+03	1.858894E-02	3.228498E-04
5.127953E+03	1.871154E-02	3.250848E-04
5.137795E+03	1.884523E-02	3.275225E-04
5.147638E+03	1.899359E-02	3.302225E-04
5.157480E+03	1.916038E-02	3.332478E-04
5.167323E+03	1.934833E-02	3.366443E-04
5.177165E+03	1.955974E-02	3.404496E-04
5.187008E+03	1.979701E-02	3.447037E-04
5.196850E+03	2.006120E-02	3.494228E-04
5.206693E+03	2.035336E-02	3.546237E-04
5.216535E+03	2.067392E-02	3.603115E-04
5.226378E+03	2.102193E-02	3.664678E-04
5.236220E+03	2.139627E-02	3.730708E-04
5.246063E+03	2.179474E-02	3.800799E-04
5.255906E+03	2.221447E-02	3.874425E-04
5.265748E+03	2.265099E-02	3.950781E-04
5.275591E+03	2.309965E-02	4.029030E-04
5.285433E+03	2.355486E-02	4.108169E-04
5.295276E+03	2.401063E-02	4.187124E-04
5.305118E+03	2.446099E-02	4.264829E-04
5.314961E+03	2.490010E-02	4.340239E-04
5.324803E+03	2.532228E-02	4.412339E-04
5.334646E+03	2.572343E-02	4.480383E-04
5.344488E+03	2.609892E-02	4.543537E-04
5.354331E+03	2.644566E-02	4.601230E-04
5.364173E+03	2.675998E-02	4.652792E-04
5.374016E+03	2.703971E-02	4.697823E-04
5.383858E+03	2.728209E-02	4.735816E-04
5.393701E+03	2.748556E-02	4.766487E-04
5.403543E+03	2.764867E-02	4.789568E-04
5.413386E+03	2.777044E-02	4.804886E-04
5.423228E+03	2.784911E-02	4.812138E-04
5.433071E+03	2.788363E-02	4.811146E-04
5.442913E+03	2.787262E-02	4.801693E-04
5.452756E+03	2.781345E-02	4.783346E-04
5.462598E+03	2.770387E-02	4.755752E-04
5.472441E+03	2.754121E-02	4.718499E-04
5.482283E+03	2.732238E-02	4.671112E-04
5.492126E+03	2.704391E-02	4.613067E-04
5.501969E+03	2.670398E-02	4.544133E-04
5.511811E+03	2.630122E-02	4.464176E-04
5.521654E+03	2.583549E-02	4.373276E-04
5.531496E+03	2.530870E-02	4.271873E-04
5.541339E+03	2.472505E-02	4.160798E-04
5.551181E+03	2.409031E-02	4.041150E-04
5.561024E+03	2.341249E-02	3.914397E-04
5.570866E+03	2.270152E-02	3.782316E-04
5.580709E+03	2.196816E-02	3.646805E-04
5.590551E+03	2.122418E-02	3.509914E-04
5.600394E+03	2.048190E-02	3.373747E-04
5.610236E+03	1.975307E-02	3.240289E-04
5.620079E+03	1.904897E-02	3.111415E-04
5.629921E+03	1.838065E-02	2.988925E-04
5.639764E+03	1.775756E-02	2.874326E-04
5.649606E+03	1.718822E-02	2.768941E-04
5.659449E+03	1.667999E-02	2.673874E-04
5.669291E+03	1.623890E-02	2.589983E-04
5.679134E+03	1.587036E-02	2.518004E-04
5.688976E+03	1.557799E-02	2.458363E-04
5.698819E+03	1.536547E-02	2.411471E-04
5.708661E+03	1.523478E-02	2.377456E-04
5.718504E+03	1.518797E-02	2.356442E-04
5.728346E+03	1.522599E-02	2.348367E-04
5.738189E+03	1.534927E-02	2.353081E-04
5.748031E+03	1.555748E-02	2.370308E-04
5.757874E+03	1.584931E-02	2.399627E-04
5.767717E+03	1.622215E-02	2.440416E-04
5.777559E+03	1.667219E-02	2.491886E-04
5.787402E+03	1.719355E-02	2.552958E-04
5.797244E+03	1.777848E-02	2.622299E-04
5.807087E+03	1.841716E-02	2.698308E-04
5.816929E+03	1.909686E-02	2.779004E-04
5.826772E+03	1.980284E-02	2.862175E-04
5.836614E+03	2.051842E-02	2.945392E-04
5.846457E+03	2.122501E-02	3.026032E-04
5.856299E+03	2.190255E-02	3.101345E-04
5.866142E+03	2.253141E-02	3.168726E-04
5.875984E+03	2.309259E-02	3.225738E-04
5.885827E+03	2.356881E-02	3.270260E-04
5.895669E+03	2.394594E-02	3.300673E-04
5.905512E+03	2.421370E-02	3.315927E-04
5.915354E+03	2.436619E-02	3.315604E-04
5.925197E+03	2.440198E-02	3.299894E-04
5.935039E+03	2.432462E-02	3.269648E-04
5.944882E+03	2.414132E-02	3.226175E-04
5.954724E+03	2.386273E-02	3.171197E-04
5.964567E+03	2.350254E-02	3.106784E-04
5.974409E+03	2.307597E-02	3.035139E-04
5.984252E+03	2.259886E-02	2.958493E-04
5.994094E+03	2.208729E-02	2.879039E-04
6.003937E+03	2.155755E-02	2.798945E-04
6.013780E+03	2.102441E-02	2.720137E-04
6.023622E+03	2.050151E-02	2.644354E-04
6.033465E+03	2.000151E-02	2.573183E-04
6.043307E+03	1.953562E-02	2.508004E-04
6.053150E+03	1.911309E-02	2.449943E-04
6.062992E+03	1.874203E-02	2.399976E-04
6.072835E+03	1.842933E-02	2.358931E-04
6.082677E+03	1.817956E-02	2.327322E-04
6.092520E+03	1.799562E-02	2.305460E-04
6.102362E+03	1.787683E-02	2.293223E-04
6.112205E+03	1.781790E-02	2.289918E-04
6.122047E+03	1.780718E-02	2.294031E-04
6.131890E+03	1.783131E-02	2.303823E-04
6.141732E+03	1.787705E-02	2.317565E-04
6.151575E+03	1.793407E-02	2.333886E-04
6.161417E+03	1.799554E-02	2.351865E-04
6.171260E+03	1.805638E-02	2.370786E-04
6.181102E+03	1.811302E-02	2.390123E-04
6.190945E+03	1.816263E-02	2.409440E-04
6.200787E+03	1.820281E-02	2.428343E-04
6.210630E+03	1.823155E-02	2.446482E-04
6.220472E+03	1.824722E-02	2.463551E-04
6.230315E+03	1.824866E-02	2.479300E-04
6.240157E+03	1.823509E-02	2.493526E-04
6.250000E+03	1.820565E-02	2.506006E-04
6.259843E+03	1.816032E-02	2.516639E-04
6.269685E+03	1.809889E-02	2.525286E-04
6.279528E+03	1.802195E-02	2.531930E-04
6.289370E+03	1.793001E-02	2.536540E-04
6.299213E+03	1.782369E-02	2.539105E-04
6.309055E+03	1.770437E-02	2.539730E-04
6.318898E+03	1.757328E-02	2.538503E-04
6.328740E+03	1.743204E-02	2.535577E-04
6.338583E+03	1.728189E-02	2.531062E-04
6.348425E+03	1.712495E-02	2.525200E-04
6.358268E+03	1.696312E-02	2.518218E-04
6.368110E+03	1.679791E-02	2.510293E-04
6.377953E+03	1.663188E-02	2.501767E-04
6.387795E+03	1.646705E-02	2.492916E-04
6.397638E+03	1.630611E-02	2.484130E-04
6.407480E+03	1.615212E-02	2.475862E-04
6.417323E+03	1.600792E-02	2.468553E-04
6.427165E+03	1.587686E-02	2.462728E-04
6.437008E+03	1.576201E-02	2.458887E-04
6.446850E+03	1.566683E-02	2.457596E-04
6.456693E+03	1.559401E-02	2.459317E-04
6.466535E+03	1.554680E-02	2.464605E-04
6.476378E+03	1.552763E-02	2.473895E-04
6.486220E+03	1.553906E-02	2.487647E-04
6.496063E+03	1.558250E-02	2.506139E-04
6.505906E+03	1.565940E-02	2.529656E-04
6.515748E+03	1.577002E-02	2.558290E-04
6.525591E+03	1.591422E-02	2.592062E-04
6.535433E+03	1.609068E-02	2.630797E-04
6.545276E+03	1.629766E-02	2.674237E-04
6.555118E+03	1.653261E-02	2.721984E-04
6.564961E+03	1.679183E-02	2.773442E-04
6.574803E+03	1.707114E-02	2.827915E-04
6.584646E+03	1.736585E-02	2.884617E-04
6.594488E+03	1.767056E-02	2.942630E-04
6.604331E+03	1.797939E-02	3.000940E-04
6.614173E+03	1.828611E-02	3.058473E-04
6.624016E+03	1.858430E-02	3.114107E-04
6.633858E+03	1.886772E-02	3.166747E-04
6.643701E+03	1.912983E-02	3.215245E-04
6.653543E+03	1.936488E-02	3.258582E-04
6.663386E+03	1.956742E-02	3.295796E-04
6.673228E+03	1.973278E-02	3.326055E-04
6.683071E+03	1.985693E-02	3.348646E-04
6.692913E+03	1.993764E-02	3.363163E-04
6.702756E+03	1.997314E-02	3.369293E-04
6.712598E+03	1.996312E-02	3.366977E-04
6.722441E+03	1.990876E-02	3.356421E-04
6.732283E+03	1.981196E-02	3.337960E-04
6.742126E+03	1.967599E-02	3.312173E-04
6.751969E+03	1.950537E-02	3.279854E-04
6.761811E+03	1.930502E-02	3.241872E-04
6.771654E+03	1.908106E-02	3.199300E-04
6.781496E+03	1.883967E-02	3.153220E-04
6.791339E+03	1.858782E-02	3.104848E-04
6.801181E+03	1.833246E-02	3.055383E-04
6.811024E+03	1.808025E-02	3.005973E-04
6.820866E+03	1.783813E-02	2.957800E-04
6.830709E+03	1.761225E-02	2.911904E-04
6.840551E+03	1.740872E-02	2.869299E-04
6.850394E+03	1.723282E-02	2.830851E-04
6.860236E+03	1.708892E-02	2.797260E-04
6.870079E+03	1.698081E-02	2.769112E-04
6.879921E+03	1.691160E-02	2.746869E-04
6.889764E+03	1.688305E-02	2.730761E-04
6.899606E+03	1.689632E-02	2.720911E-04
6.909449E+03	1.695115E-02	2.717198E-04
6.919291E+03	1.704615E-02	2.719324E-04
6.929134E+03	1.717948E-02	2.726911E-04
6.938976E+03	1.734758E-02	2.739314E-04
6.948819E+03	1.754587E-02	2.755734E-04
6.958661E+03	1.776944E-02	2.775335E-04
6.968504E+03	1.801154E-02	2.797010E-04
6.978346E+03	1.826585E-02	2.819742E-04
6.988189E+03	1.852525E-02	2.842416E-04
6.998031E+03	1.878206E-02	2.863857E-04
7.007874E+03	1.902939E-02	2.883049E-04
7.017717E+03	1.926064E-02	2.899047E-04
7.027559E+03	1.946995E-02	2.911044E-04
7.037402E+03	1.965221E-02	2.918379E-04
7.047244E+03	1.980346E-02	2.920584E-04
7.057087E+03	1.992182E-02	2.917514E-04
7.066929E+03	2.000571E-02	2.909085E-04
7.076772E+03	2.005561E-02	2.895518E-04
7.086614E+03	2.007243E-02	2.877099E-04
7.096457E+03	2.005884E-02	2.854360E-04
7.106299E+03	2.001806E-02	2.827905E-04
7.116142E+03	1.995341E-02	2.798338E-04
7.125984E+03	1.986951E-02	2.766434E-04
7.135827E+03	1.977012E-02	2.732827E-04
7.145669E+03	1.965938E-02	2.698189E-04
7.155512E+03	1.954088E-02	2.663102E-04
7.165354E+03	1.941826E-02	2.628139E-04
7.175197E+03	1.929410E-02	2.593718E-04
7.185039E+03	1.917063E-02	2.560199E-04
7.194882E+03	1.904891E-02	2.527780E-04
7.204724E+03	1.893031E-02	2.496697E-04
7.214567E+03	1.881469E-02	2.466982E-04
7.224409E+03	1.870161E-02	2.438632E-04
7.234252E+03	1.859092E-02	2.411681E-04
7.244094E+03	1.848123E-02	2.386000E-04
7.253937E+03	1.837114E-02	2.361467E-04
7.263780E+03	1.825960E-02	2.338001E-04
7.273622E+03	1.814501E-02	2.315453E-04
7.283465E+03	1.802623E-02	2.293732E-04
7.293307E+03	1.790147E-02	2.272659E-04
7.303150E+03	1.776966E-02	2.252143E-04
7.312992E+03	1.762967E-02	2.232058E-04
7.322835E+03	1.748042E-02	2.212273E-04
7.332677E+03	1.732058E-02	2.192616E-04
7.342520E+03	1.714931E-02	2.172969E-04
7.352362E+03	1.696468E-02	2.153062E-04
7.362205E+03	1.676510E-02	2.132660E-04
7.372047E+03	1.654850E-02	2.111446E-04
7.381890E+03	1.631268E-02	2.089051E-04
7.391732E+03	1.605486E-02	2.064983E-04
7.401575E+03	1.577299E-02	2.038823E-04
7.411417E+03	1.546548E-02	2.010194E-04
7.421260E+03	1.513293E-02	1.978997E-04
7.431102E+03	1.477808E-02	1.945402E-04
7.440945E+03	1.440532E-02	1.909805E-04
7.450787E+03	1.402028E-02	1.872776E-04
7.460630E+03	1.362875E-02	1.834932E-04
7.470472E+03	1.323600E-02	1.796848E-04
7.480315E+03	1.284742E-02	1.759140E-04
7.490157E+03	1.246726E-02	1.722300E-04
7.500000E+03	1.209966E-02	1.686836E-04
7.509843E+03	1.174814E-02	1.653196E-04
7.519685E+03	1.141518E-02	1.621709E-04
7.529528E+03	1.110165E-02	1.592499E-04
7.539370E+03	1.080731E-02	1.565541E-04
7.549213E+03	1.053093E-02	1.540673E-04
7.559055E+03	1.027189E-02	1.517822E-04
7.568898E+03	1.002936E-02	1.496893E-04
7.578740E+03	9.802966E-03	1.477855E-04
7.588583E+03	9.592722E-03	1.460743E-04
7.598425E+03	9.398576E-03	1.445585E-04
7.608268E+03	9.220867E-03	1.432476E-04
7.618110E+03	9.059714E-03	1.421480E-04
7.627953E+03	8.915466E-03	1.412704E-04
7.637795E+03	8.788100E-03	1.406200E-04
