#wls	flux	fluxerr
1.574803E+03	1.681698E-03	1.582792E-04
1.614173E+03	1.668310E-03	1.560351E-04
1.653543E+03	1.654172E-03	1.537148E-04
1.692913E+03	1.638975E-03	1.512912E-04
1.732283E+03	1.623260E-03	1.488161E-04
1.771654E+03	1.606842E-03	1.462740E-04
1.811024E+03	1.589205E-03	1.436200E-04
1.850394E+03	1.570921E-03	1.409083E-04
1.889764E+03	1.551414E-03	1.380895E-04
1.929134E+03	1.530757E-03	1.351729E-04
1.968504E+03	1.509300E-03	1.321925E-04
2.007874E+03	1.487721E-03	1.292095E-04
2.047244E+03	1.468075E-03	1.264018E-04
2.086614E+03	1.452809E-03	1.239746E-04
2.125984E+03	1.443870E-03	1.220828E-04
2.165354E+03	1.442033E-03	1.207769E-04
2.204724E+03	1.446141E-03	1.199436E-04
2.244094E+03	1.454158E-03	1.194009E-04
2.283465E+03	1.464197E-03	1.189851E-04
2.322835E+03	1.474996E-03	1.185890E-04
2.362205E+03	1.485675E-03	1.181400E-04
2.401575E+03	1.495771E-03	1.176011E-04
2.440945E+03	1.505484E-03	1.169890E-04
2.480315E+03	1.514664E-03	1.162926E-04
2.519685E+03	1.523205E-03	1.155048E-04
2.559055E+03	1.531648E-03	1.146675E-04
2.598425E+03	1.539678E-03	1.137571E-04
2.637795E+03	1.547609E-03	1.127977E-04
2.677165E+03	1.555545E-03	1.117963E-04
2.716535E+03	1.563788E-03	1.107743E-04
2.755906E+03	1.572259E-03	1.097248E-04
2.795276E+03	1.580912E-03	1.086437E-04
2.834646E+03	1.589927E-03	1.075424E-04
2.874016E+03	1.599338E-03	1.064220E-04
2.913386E+03	1.609232E-03	1.052867E-04
2.952756E+03	1.620104E-03	1.041666E-04
2.962598E+03	1.623113E-03	1.038974E-04
2.972441E+03	1.626317E-03	1.036374E-04
2.982283E+03	1.629382E-03	1.033651E-04
2.992126E+03	1.632829E-03	1.031137E-04
3.001969E+03	1.636338E-03	1.028626E-04
3.011811E+03	1.639929E-03	1.026131E-04
3.021654E+03	1.643772E-03	1.023757E-04
3.031496E+03	1.647871E-03	1.021504E-04
3.041339E+03	1.652228E-03	1.019371E-04
3.051181E+03	1.656848E-03	1.017358E-04
3.061024E+03	1.661569E-03	1.015366E-04
3.070866E+03	1.666727E-03	1.013596E-04
3.080709E+03	1.671997E-03	1.011849E-04
3.090551E+03	1.677714E-03	1.010324E-04
3.100394E+03	1.683555E-03	1.008826E-04
3.110236E+03	1.689854E-03	1.007551E-04
3.120079E+03	1.696452E-03	1.006401E-04
3.129921E+03	1.703518E-03	1.005474E-04
3.139764E+03	1.710896E-03	1.004672E-04
3.149606E+03	1.718592E-03	1.003998E-04
3.159449E+03	1.726930E-03	1.003635E-04
3.169291E+03	1.735595E-03	1.003398E-04
3.179134E+03	1.744750E-03	1.003375E-04
3.188976E+03	1.754397E-03	1.003565E-04
3.198819E+03	1.764537E-03	1.003961E-04
3.208661E+03	1.775328E-03	1.004651E-04
3.218504E+03	1.786607E-03	1.005535E-04
3.228346E+03	1.798371E-03	1.006607E-04
3.238189E+03	1.810923E-03	1.008032E-04
3.248031E+03	1.824095E-03	1.009710E-04
3.257874E+03	1.837713E-03	1.011538E-04
3.267717E+03	1.852069E-03	1.013672E-04
3.277559E+03	1.867135E-03	1.016090E-04
3.287402E+03	1.882721E-03	1.018683E-04
3.297244E+03	1.899097E-03	1.021590E-04
3.307087E+03	1.916057E-03	1.024694E-04
3.316929E+03	1.933543E-03	1.027960E-04
3.326772E+03	1.951643E-03	1.031427E-04
3.336614E+03	1.970431E-03	1.035129E-04
3.346457E+03	1.989510E-03	1.038853E-04
3.356299E+03	2.009244E-03	1.042784E-04
3.366142E+03	2.029218E-03	1.046702E-04
3.375984E+03	2.049624E-03	1.050703E-04
3.385827E+03	2.070343E-03	1.054722E-04
3.395669E+03	2.091104E-03	1.058620E-04
3.405512E+03	2.112257E-03	1.062571E-04
3.415354E+03	2.133252E-03	1.066297E-04
3.425197E+03	2.154487E-03	1.069998E-04
3.435039E+03	2.175963E-03	1.073672E-04
3.444882E+03	2.197599E-03	1.077276E-04
3.454724E+03	2.219803E-03	1.081008E-04
3.464567E+03	2.242561E-03	1.084856E-04
3.474409E+03	2.266181E-03	1.088963E-04
3.484252E+03	2.290835E-03	1.093402E-04
3.494094E+03	2.316708E-03	1.098251E-04
3.503937E+03	2.344137E-03	1.103657E-04
3.513780E+03	2.373176E-03	1.109631E-04
3.523622E+03	2.404321E-03	1.116386E-04
3.533465E+03	2.437498E-03	1.123868E-04
3.543307E+03	2.472930E-03	1.132158E-04
3.553150E+03	2.511133E-03	1.141469E-04
3.562992E+03	2.552211E-03	1.151820E-04
3.572835E+03	2.596278E-03	1.163234E-04
3.582677E+03	2.643750E-03	1.175866E-04
3.592520E+03	2.694921E-03	1.189813E-04
3.602362E+03	2.750106E-03	1.205175E-04
3.612205E+03	2.809504E-03	1.221999E-04
3.622047E+03	2.873625E-03	1.240464E-04
3.631890E+03	2.942870E-03	1.260694E-04
3.641732E+03	3.017532E-03	1.282763E-04
3.651575E+03	3.098085E-03	1.306817E-04
3.661417E+03	3.185044E-03	1.333012E-04
3.671260E+03	3.278966E-03	1.361518E-04
3.681102E+03	3.380608E-03	1.392575E-04
3.690945E+03	3.490335E-03	1.426255E-04
3.700787E+03	3.608854E-03	1.462765E-04
3.710630E+03	3.737075E-03	1.502383E-04
3.720472E+03	3.875664E-03	1.545278E-04
3.730315E+03	4.025487E-03	1.591688E-04
3.740157E+03	4.187459E-03	1.641860E-04
3.750000E+03	4.362376E-03	1.695982E-04
3.759843E+03	4.551226E-03	1.754306E-04
3.769685E+03	4.755200E-03	1.817147E-04
3.779528E+03	4.975166E-03	1.884684E-04
3.789370E+03	5.211797E-03	1.957009E-04
3.799213E+03	5.466644E-03	2.034533E-04
3.809055E+03	5.740126E-03	2.117229E-04
3.818898E+03	6.033319E-03	2.205304E-04
3.828740E+03	6.346804E-03	2.298772E-04
3.838583E+03	6.681440E-03	2.397740E-04
3.848425E+03	7.037270E-03	2.502012E-04
3.858268E+03	7.414736E-03	2.611534E-04
3.868110E+03	7.813573E-03	2.725998E-04
3.877953E+03	8.233420E-03	2.845068E-04
3.887795E+03	8.673296E-03	2.968201E-04
3.897638E+03	9.132318E-03	3.094901E-04
3.907480E+03	9.608406E-03	3.224282E-04
3.917323E+03	1.009980E-02	3.355594E-04
3.927165E+03	1.060374E-02	3.487784E-04
3.937008E+03	1.111702E-02	3.619683E-04
3.946850E+03	1.163656E-02	3.750219E-04
3.956693E+03	1.215870E-02	3.878165E-04
3.966535E+03	1.267849E-02	4.001948E-04
3.976378E+03	1.319270E-02	4.120586E-04
3.986220E+03	1.369611E-02	4.232533E-04
3.996063E+03	1.418480E-02	4.336716E-04
4.005906E+03	1.465479E-02	4.432081E-04
4.015748E+03	1.510166E-02	4.517513E-04
4.025591E+03	1.552289E-02	4.592504E-04
4.035433E+03	1.591475E-02	4.656236E-04
4.045276E+03	1.627599E-02	4.708648E-04
4.055118E+03	1.660499E-02	4.749595E-04
4.064961E+03	1.690090E-02	4.779172E-04
4.074803E+03	1.716435E-02	4.797893E-04
4.084646E+03	1.739594E-02	4.806260E-04
4.094488E+03	1.759725E-02	4.805035E-04
4.104331E+03	1.777044E-02	4.795107E-04
4.114173E+03	1.791768E-02	4.777350E-04
4.124016E+03	1.804219E-02	4.752879E-04
4.133858E+03	1.814665E-02	4.722629E-04
4.143701E+03	1.823417E-02	4.687606E-04
4.153543E+03	1.830815E-02	4.648859E-04
4.163386E+03	1.837079E-02	4.607085E-04
4.173228E+03	1.842546E-02	4.563246E-04
4.183071E+03	1.847414E-02	4.517921E-04
4.192913E+03	1.851910E-02	4.471737E-04
4.202756E+03	1.856145E-02	4.425010E-04
4.212598E+03	1.860211E-02	4.378007E-04
4.222441E+03	1.864173E-02	4.330919E-04
4.232283E+03	1.868003E-02	4.283712E-04
4.242126E+03	1.871573E-02	4.236135E-04
4.251969E+03	1.874789E-02	4.188027E-04
4.261811E+03	1.877396E-02	4.138884E-04
4.271654E+03	1.879147E-02	4.088246E-04
4.281496E+03	1.879679E-02	4.035441E-04
4.291339E+03	1.878660E-02	3.979893E-04
4.301181E+03	1.875736E-02	3.921024E-04
4.311024E+03	1.870467E-02	3.858110E-04
4.320866E+03	1.862572E-02	3.790800E-04
4.330709E+03	1.851756E-02	3.718736E-04
4.340551E+03	1.837908E-02	3.641953E-04
4.350394E+03	1.821052E-02	3.560756E-04
4.360236E+03	1.801516E-02	3.476024E-04
4.370079E+03	1.780054E-02	3.389408E-04
4.379921E+03	1.757537E-02	3.302694E-04
4.389764E+03	1.734843E-02	3.217589E-04
4.399606E+03	1.712889E-02	3.135784E-04
4.409449E+03	1.692571E-02	3.058843E-04
4.419291E+03	1.674582E-02	2.987877E-04
4.429134E+03	1.659549E-02	2.923792E-04
4.438976E+03	1.647996E-02	2.867264E-04
4.448819E+03	1.640287E-02	2.818664E-04
4.458661E+03	1.636612E-02	2.778044E-04
4.468504E+03	1.637107E-02	2.745363E-04
4.478346E+03	1.641741E-02	2.720307E-04
4.488189E+03	1.650421E-02	2.702470E-04
4.498031E+03	1.662876E-02	2.691182E-04
4.507874E+03	1.678806E-02	2.685758E-04
4.517717E+03	1.697796E-02	2.685365E-04
4.527559E+03	1.719330E-02	2.689046E-04
4.537402E+03	1.742817E-02	2.695782E-04
4.547244E+03	1.767666E-02	2.704594E-04
4.557087E+03	1.793206E-02	2.714429E-04
4.566929E+03	1.818784E-02	2.724309E-04
4.576772E+03	1.843742E-02	2.733296E-04
4.586614E+03	1.867551E-02	2.740674E-04
4.596457E+03	1.889639E-02	2.745702E-04
4.606299E+03	1.909664E-02	2.747999E-04
4.616142E+03	1.927337E-02	2.747273E-04
4.625984E+03	1.942528E-02	2.743471E-04
4.635827E+03	1.955238E-02	2.736727E-04
4.645669E+03	1.965561E-02	2.727293E-04
4.655512E+03	1.973717E-02	2.715591E-04
4.665354E+03	1.979891E-02	2.701977E-04
4.675197E+03	1.984309E-02	2.686851E-04
4.685039E+03	1.987059E-02	2.670415E-04
4.694882E+03	1.987993E-02	2.652548E-04
4.704724E+03	1.986916E-02	2.633070E-04
4.714567E+03	1.983627E-02	2.611792E-04
4.724409E+03	1.977950E-02	2.588560E-04
4.734252E+03	1.969847E-02	2.563400E-04
4.744094E+03	1.959380E-02	2.536457E-04
4.753937E+03	1.946755E-02	2.508053E-04
4.763780E+03	1.932259E-02	2.478600E-04
4.773622E+03	1.916360E-02	2.448724E-04
4.783465E+03	1.899571E-02	2.419072E-04
4.793307E+03	1.882706E-02	2.390670E-04
4.803150E+03	1.866596E-02	2.364544E-04
4.812992E+03	1.852143E-02	2.341801E-04
4.822835E+03	1.840108E-02	2.323368E-04
4.832677E+03	1.831164E-02	2.310061E-04
4.842520E+03	1.825878E-02	2.302571E-04
4.852362E+03	1.824647E-02	2.301382E-04
4.862205E+03	1.827773E-02	2.306878E-04
4.872047E+03	1.835407E-02	2.319261E-04
4.881890E+03	1.847563E-02	2.338555E-04
4.891732E+03	1.864118E-02	2.364585E-04
4.901575E+03	1.884817E-02	2.397019E-04
4.911417E+03	1.909280E-02	2.435373E-04
4.921260E+03	1.937025E-02	2.479034E-04
4.931102E+03	1.967420E-02	2.527197E-04
4.940945E+03	1.999785E-02	2.578982E-04
4.950787E+03	2.033330E-02	2.633359E-04
4.960630E+03	2.067278E-02	2.689294E-04
4.970472E+03	2.100837E-02	2.745718E-04
4.980315E+03	2.133264E-02	2.801600E-04
4.990157E+03	2.163908E-02	2.856009E-04
5.000000E+03	2.192239E-02	2.908153E-04
5.009843E+03	2.217874E-02	2.957423E-04
5.019685E+03	2.240622E-02	3.003448E-04
5.029528E+03	2.260431E-02	3.046041E-04
5.039370E+03	2.277386E-02	3.085197E-04
5.049213E+03	2.291760E-02	3.121168E-04
5.059055E+03	2.303921E-02	3.154350E-04
5.068898E+03	2.314327E-02	3.185270E-04
5.078740E+03	2.323476E-02	3.214526E-04
5.088583E+03	2.331975E-02	3.242887E-04
5.098425E+03	2.340371E-02	3.271059E-04
5.108268E+03	2.349236E-02	3.299796E-04
5.118110E+03	2.359146E-02	3.329880E-04
5.127953E+03	2.370605E-02	3.362009E-04
5.137795E+03	2.384111E-02	3.396884E-04
5.147638E+03	2.400153E-02	3.435208E-04
5.157480E+03	2.419134E-02	3.477575E-04
5.167323E+03	2.441467E-02	3.524600E-04
5.177165E+03	2.467473E-02	3.576772E-04
5.187008E+03	2.497473E-02	3.634590E-04
5.196850E+03	2.531710E-02	3.698438E-04
5.206693E+03	2.570362E-02	3.768611E-04
5.216535E+03	2.613514E-02	3.845262E-04
5.226378E+03	2.661224E-02	3.928508E-04
5.236220E+03	2.713418E-02	4.018259E-04
5.246063E+03	2.769988E-02	4.114374E-04
5.255906E+03	2.830708E-02	4.216530E-04
5.265748E+03	2.895258E-02	4.324247E-04
5.275591E+03	2.963176E-02	4.436834E-04
5.285433E+03	3.033934E-02	4.553484E-04
5.295276E+03	3.106788E-02	4.673055E-04
5.305118E+03	3.180711E-02	4.793970E-04
5.314961E+03	3.254470E-02	4.914322E-04
5.324803E+03	3.326878E-02	5.032252E-04
5.334646E+03	3.396769E-02	5.145918E-04
5.344488E+03	3.463090E-02	5.253629E-04
5.354331E+03	3.524788E-02	5.353677E-04
5.364173E+03	3.580865E-02	5.444430E-04
5.374016E+03	3.630361E-02	5.524322E-04
5.383858E+03	3.672533E-02	5.592116E-04
5.393701E+03	3.706614E-02	5.646550E-04
5.403543E+03	3.732111E-02	5.686793E-04
5.413386E+03	3.748550E-02	5.712055E-04
5.423228E+03	3.755647E-02	5.721858E-04
5.433071E+03	3.753189E-02	5.715849E-04
5.442913E+03	3.741055E-02	5.693833E-04
5.452756E+03	3.719206E-02	5.655769E-04
5.462598E+03	3.687723E-02	5.601817E-04
5.472441E+03	3.646703E-02	5.532181E-04
5.482283E+03	3.596374E-02	5.447291E-04
5.492126E+03	3.537049E-02	5.347721E-04
5.501969E+03	3.469277E-02	5.234429E-04
5.511811E+03	3.393652E-02	5.108446E-04
5.521654E+03	3.310926E-02	4.971063E-04
5.531496E+03	3.222111E-02	4.823959E-04
5.541339E+03	3.128266E-02	4.668890E-04
5.551181E+03	3.030610E-02	4.507843E-04
5.561024E+03	2.930489E-02	4.342980E-04
5.570866E+03	2.829218E-02	4.176399E-04
5.580709E+03	2.728246E-02	4.010369E-04
5.590551E+03	2.628939E-02	3.847002E-04
5.600394E+03	2.532572E-02	3.688244E-04
5.610236E+03	2.440356E-02	3.535902E-04
5.620079E+03	2.353401E-02	3.391599E-04
5.629921E+03	2.272632E-02	3.256644E-04
5.639764E+03	2.198872E-02	3.132161E-04
5.649606E+03	2.132754E-02	3.018961E-04
5.659449E+03	2.074812E-02	2.917675E-04
5.669291E+03	2.025426E-02	2.828683E-04
5.679134E+03	1.984840E-02	2.752144E-04
5.688976E+03	1.953231E-02	2.688097E-04
5.698819E+03	1.930641E-02	2.636371E-04
5.708661E+03	1.917067E-02	2.596716E-04
5.718504E+03	1.912407E-02	2.568731E-04
5.728346E+03	1.916457E-02	2.551872E-04
5.738189E+03	1.928949E-02	2.545503E-04
5.748031E+03	1.949543E-02	2.548895E-04
5.757874E+03	1.977774E-02	2.561166E-04
5.767717E+03	2.013039E-02	2.581273E-04
5.777559E+03	2.054629E-02	2.608059E-04
5.787402E+03	2.101687E-02	2.640223E-04
5.797244E+03	2.153234E-02	2.676352E-04
5.807087E+03	2.208079E-02	2.714831E-04
5.816929E+03	2.264981E-02	2.754052E-04
5.826772E+03	2.322494E-02	2.792240E-04
5.836614E+03	2.379160E-02	2.827691E-04
5.846457E+03	2.433461E-02	2.858727E-04
5.856299E+03	2.483872E-02	2.883758E-04
5.866142E+03	2.529000E-02	2.901443E-04
5.875984E+03	2.567521E-02	2.910606E-04
5.885827E+03	2.598390E-02	2.910469E-04
5.895669E+03	2.620794E-02	2.900571E-04
5.905512E+03	2.634215E-02	2.880827E-04
5.915354E+03	2.638401E-02	2.851460E-04
5.925197E+03	2.633528E-02	2.813158E-04
5.935039E+03	2.619949E-02	2.766780E-04
5.944882E+03	2.598428E-02	2.713577E-04
5.954724E+03	2.569888E-02	2.654914E-04
5.964567E+03	2.535418E-02	2.592256E-04
5.974409E+03	2.496316E-02	2.527213E-04
5.984252E+03	2.453909E-02	2.461346E-04
5.994094E+03	2.409555E-02	2.396171E-04
6.003937E+03	2.364595E-02	2.333123E-04
6.013780E+03	2.320343E-02	2.273548E-04
6.023622E+03	2.278005E-02	2.218639E-04
6.033465E+03	2.238662E-02	2.169435E-04
6.043307E+03	2.203341E-02	2.126898E-04
6.053150E+03	2.172845E-02	2.091770E-04
6.062992E+03	2.147919E-02	2.064741E-04
6.072835E+03	2.129094E-02	2.046307E-04
6.082677E+03	2.116700E-02	2.036728E-04
6.092520E+03	2.110857E-02	2.036044E-04
6.102362E+03	2.111350E-02	2.044009E-04
6.112205E+03	2.117482E-02	2.059945E-04
6.122047E+03	2.128006E-02	2.082631E-04
6.131890E+03	2.141423E-02	2.110574E-04
6.141732E+03	2.156160E-02	2.142174E-04
6.151575E+03	2.170990E-02	2.176132E-04
6.161417E+03	2.185049E-02	2.211468E-04
6.171260E+03	2.197708E-02	2.247402E-04
6.181102E+03	2.208492E-02	2.283277E-04
6.190945E+03	2.217048E-02	2.318536E-04
6.200787E+03	2.223116E-02	2.352692E-04
6.210630E+03	2.226556E-02	2.385366E-04
6.220472E+03	2.227320E-02	2.416273E-04
6.230315E+03	2.225423E-02	2.445182E-04
6.240157E+03	2.220994E-02	2.471997E-04
6.250000E+03	2.214132E-02	2.496591E-04
6.259843E+03	2.205099E-02	2.519034E-04
6.269685E+03	2.194121E-02	2.539375E-04
6.279528E+03	2.181429E-02	2.557684E-04
6.289370E+03	2.167333E-02	2.574149E-04
6.299213E+03	2.152105E-02	2.588936E-04
6.309055E+03	2.136039E-02	2.602262E-04
6.318898E+03	2.119380E-02	2.614308E-04
6.328740E+03	2.102409E-02	2.625325E-04
6.338583E+03	2.085402E-02	2.635579E-04
6.348425E+03	2.068580E-02	2.645291E-04
6.358268E+03	2.052182E-02	2.654723E-04
6.368110E+03	2.036420E-02	2.664122E-04
6.377953E+03	2.021547E-02	2.673805E-04
6.387795E+03	2.007790E-02	2.684076E-04
6.397638E+03	1.995357E-02	2.695223E-04
6.407480E+03	1.984559E-02	2.707698E-04
6.417323E+03	1.975578E-02	2.721783E-04
6.427165E+03	1.968678E-02	2.737889E-04
6.437008E+03	1.964049E-02	2.756339E-04
6.446850E+03	1.961938E-02	2.777537E-04
6.456693E+03	1.962531E-02	2.801815E-04
6.466535E+03	1.965948E-02	2.829413E-04
6.476378E+03	1.972370E-02	2.860660E-04
6.486220E+03	1.981897E-02	2.895772E-04
6.496063E+03	1.994567E-02	2.934867E-04
6.505906E+03	2.010412E-02	2.978054E-04
6.515748E+03	2.029367E-02	3.025287E-04
6.525591E+03	2.051351E-02	3.076489E-04
6.535433E+03	2.076196E-02	3.131440E-04
6.545276E+03	2.103645E-02	3.189770E-04
6.555118E+03	2.133443E-02	3.251101E-04
6.564961E+03	2.165196E-02	3.314825E-04
6.574803E+03	2.198471E-02	3.380256E-04
6.584646E+03	2.232799E-02	3.446642E-04
6.594488E+03	2.267611E-02	3.513054E-04
6.604331E+03	2.302349E-02	3.578572E-04
6.614173E+03	2.336404E-02	3.642181E-04
6.624016E+03	2.369125E-02	3.702797E-04
6.633858E+03	2.399958E-02	3.759474E-04
6.643701E+03	2.428288E-02	3.811175E-04
6.653543E+03	2.453607E-02	3.857028E-04
6.663386E+03	2.475414E-02	3.896179E-04
6.673228E+03	2.493352E-02	3.928007E-04
6.683071E+03	2.507101E-02	3.951963E-04
6.692913E+03	2.516546E-02	3.967827E-04
6.702756E+03	2.521567E-02	3.975392E-04
6.712598E+03	2.522284E-02	3.974845E-04
6.722441E+03	2.518847E-02	3.966428E-04
6.732283E+03	2.511545E-02	3.950623E-04
6.742126E+03	2.500769E-02	3.928078E-04
6.751969E+03	2.487026E-02	3.899635E-04
6.761811E+03	2.470829E-02	3.866151E-04
6.771654E+03	2.452807E-02	3.828661E-04
6.781496E+03	2.433585E-02	3.788200E-04
6.791339E+03	2.413773E-02	3.745768E-04
6.801181E+03	2.394038E-02	3.702446E-04
6.811024E+03	2.374963E-02	3.659174E-04
6.820866E+03	2.357187E-02	3.616963E-04
6.830709E+03	2.341183E-02	3.576552E-04
6.840551E+03	2.327424E-02	3.538665E-04
6.850394E+03	2.316380E-02	3.503998E-04
6.860236E+03	2.308326E-02	3.472941E-04
6.870079E+03	2.303552E-02	3.445883E-04
6.879921E+03	2.302236E-02	3.423035E-04
6.889764E+03	2.304446E-02	3.404427E-04
6.899606E+03	2.310250E-02	3.390082E-04
6.909449E+03	2.319485E-02	3.379677E-04
6.919291E+03	2.332081E-02	3.373023E-04
6.929134E+03	2.347706E-02	3.369553E-04
6.938976E+03	2.366130E-02	3.368857E-04
6.948819E+03	2.386867E-02	3.370169E-04
6.958661E+03	2.409519E-02	3.372868E-04
6.968504E+03	2.433539E-02	3.376150E-04
6.978346E+03	2.458369E-02	3.379220E-04
6.988189E+03	2.483421E-02	3.381279E-04
6.998031E+03	2.508100E-02	3.381549E-04
7.007874E+03	2.531814E-02	3.379298E-04
7.017717E+03	2.553966E-02	3.373826E-04
7.027559E+03	2.574034E-02	3.364571E-04
7.037402E+03	2.591592E-02	3.351134E-04
7.047244E+03	2.606185E-02	3.333113E-04
7.057087E+03	2.617580E-02	3.310421E-04
7.066929E+03	2.625464E-02	3.282894E-04
7.076772E+03	2.629826E-02	3.250766E-04
7.086614E+03	2.630542E-02	3.214142E-04
7.096457E+03	2.627710E-02	3.173410E-04
7.106299E+03	2.621440E-02	3.128971E-04
7.116142E+03	2.611977E-02	3.081380E-04
7.125984E+03	2.599549E-02	3.031165E-04
7.135827E+03	2.584385E-02	2.978844E-04
7.145669E+03	2.566876E-02	2.925103E-04
7.155512E+03	2.547318E-02	2.870502E-04
7.165354E+03	2.526000E-02	2.815578E-04
7.175197E+03	2.503200E-02	2.760834E-04
7.185039E+03	2.479238E-02	2.706804E-04
7.194882E+03	2.454342E-02	2.653901E-04
7.204724E+03	2.428704E-02	2.602488E-04
7.214567E+03	2.402489E-02	2.552879E-04
7.224409E+03	2.375887E-02	2.505406E-04
7.234252E+03	2.348963E-02	2.460249E-04
7.244094E+03	2.321780E-02	2.417578E-04
7.253937E+03	2.294435E-02	2.377581E-04
7.263780E+03	2.266936E-02	2.340333E-04
7.273622E+03	2.239253E-02	2.305829E-04
7.283465E+03	2.211427E-02	2.274118E-04
7.293307E+03	2.183378E-02	2.245111E-04
7.303150E+03	2.155085E-02	2.218761E-04
7.312992E+03	2.126378E-02	2.194850E-04
7.322835E+03	2.097230E-02	2.173286E-04
7.332677E+03	2.067435E-02	2.153724E-04
7.342520E+03	2.036797E-02	2.135738E-04
7.352362E+03	2.005177E-02	2.118935E-04
7.362205E+03	1.972293E-02	2.102751E-04
7.372047E+03	1.937993E-02	2.086749E-04
7.381890E+03	1.902014E-02	2.070352E-04
7.391732E+03	1.864254E-02	2.053144E-04
7.401575E+03	1.824559E-02	2.034643E-04
7.411417E+03	1.782925E-02	2.014524E-04
7.421260E+03	1.739372E-02	1.992492E-04
7.431102E+03	1.694115E-02	1.968480E-04
7.440945E+03	1.647494E-02	1.942587E-04
7.450787E+03	1.599802E-02	1.914892E-04
7.460630E+03	1.551447E-02	1.885639E-04
7.470472E+03	1.502810E-02	1.855084E-04
7.480315E+03	1.454193E-02	1.823425E-04
7.490157E+03	1.405974E-02	1.790996E-04
7.500000E+03	1.358397E-02	1.758000E-04
7.509843E+03	1.311753E-02	1.724738E-04
7.519685E+03	1.266268E-02	1.691464E-04
7.529528E+03	1.222179E-02	1.658475E-04
7.539370E+03	1.179785E-02	1.626191E-04
7.549213E+03	1.139339E-02	1.595002E-04
7.559055E+03	1.101036E-02	1.565250E-04
7.568898E+03	1.065033E-02	1.537247E-04
7.578740E+03	1.031405E-02	1.511209E-04
7.588583E+03	1.000199E-02	1.487324E-04
7.598425E+03	9.714392E-03	1.465756E-04
7.608268E+03	9.450891E-03	1.446581E-04
7.618110E+03	9.211016E-03	1.429864E-04
7.627953E+03	8.994216E-03	1.415652E-04
7.637795E+03	8.799639E-03	1.403943E-04
