#wls	flux	fluxerr
1.574803E+03	7.374634E-04	8.579697E-05
1.614173E+03	7.333941E-04	8.503813E-05
1.653543E+03	7.290653E-04	8.424432E-05
1.692913E+03	7.247545E-04	8.344780E-05
1.732283E+03	7.201730E-04	8.261535E-05
1.771654E+03	7.155230E-04	8.177040E-05
1.811024E+03	7.105741E-04	8.088683E-05
1.850394E+03	7.053443E-04	7.996704E-05
1.889764E+03	6.997135E-04	7.899790E-05
1.929134E+03	6.934733E-04	7.795656E-05
1.968504E+03	6.869339E-04	7.687868E-05
2.007874E+03	6.804231E-04	7.580131E-05
2.047244E+03	6.745514E-04	7.479217E-05
2.086614E+03	6.705110E-04	7.398186E-05
2.125984E+03	6.692723E-04	7.347395E-05
2.165354E+03	6.712903E-04	7.331330E-05
2.204724E+03	6.761126E-04	7.344495E-05
2.244094E+03	6.828744E-04	7.377016E-05
2.283465E+03	6.908840E-04	7.421065E-05
2.322835E+03	6.996182E-04	7.470767E-05
2.362205E+03	7.089539E-04	7.524619E-05
2.401575E+03	7.187179E-04	7.580613E-05
2.440945E+03	7.291949E-04	7.641581E-05
2.480315E+03	7.404762E-04	7.708256E-05
2.519685E+03	7.529053E-04	7.783946E-05
2.559055E+03	7.663517E-04	7.866981E-05
2.598425E+03	7.813937E-04	7.962942E-05
2.637795E+03	7.978957E-04	8.070002E-05
2.677165E+03	8.163122E-04	8.192279E-05
2.716535E+03	8.368605E-04	8.331368E-05
2.755906E+03	8.596443E-04	8.487648E-05
2.795276E+03	8.851279E-04	8.664969E-05
2.834646E+03	9.135480E-04	8.864787E-05
2.874016E+03	9.451532E-04	9.088558E-05
2.913386E+03	9.804473E-04	9.340048E-05
2.952756E+03	1.019838E-03	9.621886E-05
2.962598E+03	1.030469E-03	9.698275E-05
2.972441E+03	1.041310E-03	9.776021E-05
2.982283E+03	1.052365E-03	9.855135E-05
2.992126E+03	1.063883E-03	9.937921E-05
3.001969E+03	1.075633E-03	1.002219E-04
3.011811E+03	1.087749E-03	1.010918E-04
3.021654E+03	1.100233E-03	1.019887E-04
3.031496E+03	1.113088E-03	1.029124E-04
3.041339E+03	1.126314E-03	1.038629E-04
3.051181E+03	1.140040E-03	1.048515E-04
3.061024E+03	1.154022E-03	1.058555E-04
3.070866E+03	1.168386E-03	1.068862E-04
3.080709E+03	1.183260E-03	1.079548E-04
3.090551E+03	1.198524E-03	1.090502E-04
3.100394E+03	1.214184E-03	1.101724E-04
3.110236E+03	1.230370E-03	1.113328E-04
3.120079E+03	1.246961E-03	1.125202E-04
3.129921E+03	1.263964E-03	1.137347E-04
3.139764E+03	1.281511E-03	1.149878E-04
3.149606E+03	1.299609E-03	1.162796E-04
3.159449E+03	1.318264E-03	1.176104E-04
3.169291E+03	1.337360E-03	1.189690E-04
3.179134E+03	1.357029E-03	1.203670E-04
3.188976E+03	1.377410E-03	1.218160E-04
3.198819E+03	1.398255E-03	1.232936E-04
3.208661E+03	1.419703E-03	1.248116E-04
3.218504E+03	1.441763E-03	1.263700E-04
3.228346E+03	1.464575E-03	1.279808E-04
3.238189E+03	1.488022E-03	1.296329E-04
3.248031E+03	1.512114E-03	1.313266E-04
3.257874E+03	1.536994E-03	1.330738E-04
3.267717E+03	1.562676E-03	1.348749E-04
3.277559E+03	1.589042E-03	1.367190E-04
3.287402E+03	1.616104E-03	1.386065E-04
3.297244E+03	1.644142E-03	1.405605E-04
3.307087E+03	1.673038E-03	1.425704E-04
3.316929E+03	1.702675E-03	1.446251E-04
3.326772E+03	1.733334E-03	1.467479E-04
3.336614E+03	1.764899E-03	1.489279E-04
3.346457E+03	1.797386E-03	1.511657E-04
3.356299E+03	1.830947E-03	1.534731E-04
3.366142E+03	1.865600E-03	1.558506E-04
3.375984E+03	1.901228E-03	1.582873E-04
3.385827E+03	1.937846E-03	1.607836E-04
3.395669E+03	1.975747E-03	1.633628E-04
3.405512E+03	2.014814E-03	1.660140E-04
3.415354E+03	2.054924E-03	1.687258E-04
3.425197E+03	2.096375E-03	1.715217E-04
3.435039E+03	2.139185E-03	1.744019E-04
3.444882E+03	2.183232E-03	1.773551E-04
3.454724E+03	2.228533E-03	1.803814E-04
3.464567E+03	2.275247E-03	1.834924E-04
3.474409E+03	2.323390E-03	1.866881E-04
3.484252E+03	2.372980E-03	1.899683E-04
3.494094E+03	2.424030E-03	1.933328E-04
3.503937E+03	2.476701E-03	1.967928E-04
3.513780E+03	2.530712E-03	2.003245E-04
3.523622E+03	2.586517E-03	2.039622E-04
3.533465E+03	2.643831E-03	2.076819E-04
3.543307E+03	2.702659E-03	2.114824E-04
3.553150E+03	2.763308E-03	2.153860E-04
3.562992E+03	2.825632E-03	2.193795E-04
3.572835E+03	2.889632E-03	2.234613E-04
3.582677E+03	2.955305E-03	2.276296E-04
3.592520E+03	3.022802E-03	2.318940E-04
3.602362E+03	3.091959E-03	2.362402E-04
3.612205E+03	3.162920E-03	2.406773E-04
3.622047E+03	3.235668E-03	2.452024E-04
3.631890E+03	3.310343E-03	2.498240E-04
3.641732E+03	3.386604E-03	2.545145E-04
3.651575E+03	3.464738E-03	2.592936E-04
3.661417E+03	3.544551E-03	2.641450E-04
3.671260E+03	3.626001E-03	2.690637E-04
3.681102E+03	3.709361E-03	2.740682E-04
3.690945E+03	3.794258E-03	2.791290E-04
3.700787E+03	3.880792E-03	2.842517E-04
3.710630E+03	3.969059E-03	2.894416E-04
3.720472E+03	4.058657E-03	2.946675E-04
3.730315E+03	4.149832E-03	2.999458E-04
3.740157E+03	4.242326E-03	3.052563E-04
3.750000E+03	4.336207E-03	3.106023E-04
3.759843E+03	4.431364E-03	3.159744E-04
3.769685E+03	4.527521E-03	3.213514E-04
3.779528E+03	4.624714E-03	3.267350E-04
3.789370E+03	4.722806E-03	3.321141E-04
3.799213E+03	4.821656E-03	3.374779E-04
3.809055E+03	4.921107E-03	3.428145E-04
3.818898E+03	5.020997E-03	3.481121E-04
3.828740E+03	5.121156E-03	3.533581E-04
3.838583E+03	5.221400E-03	3.585397E-04
3.848425E+03	5.321533E-03	3.636432E-04
3.858268E+03	5.421525E-03	3.686666E-04
3.868110E+03	5.520991E-03	3.735838E-04
3.877953E+03	5.619547E-03	3.783694E-04
3.887795E+03	5.717293E-03	3.830311E-04
3.897638E+03	5.813825E-03	3.875426E-04
3.907480E+03	5.908895E-03	3.918886E-04
3.917323E+03	6.002237E-03	3.960531E-04
3.927165E+03	6.093428E-03	4.000100E-04
3.937008E+03	6.182372E-03	4.037551E-04
3.946850E+03	6.268791E-03	4.072728E-04
3.956693E+03	6.352087E-03	4.105270E-04
3.966535E+03	6.432336E-03	4.135258E-04
3.976378E+03	6.509114E-03	4.162453E-04
3.986220E+03	6.582177E-03	4.186735E-04
3.996063E+03	6.651144E-03	4.207903E-04
4.005906E+03	6.715818E-03	4.225877E-04
4.015748E+03	6.776181E-03	4.240688E-04
4.025591E+03	6.831626E-03	4.252007E-04
4.035433E+03	6.882368E-03	4.260018E-04
4.045276E+03	6.928190E-03	4.264637E-04
4.055118E+03	6.968934E-03	4.265821E-04
4.064961E+03	7.004794E-03	4.263742E-04
4.074803E+03	7.035548E-03	4.258317E-04
4.084646E+03	7.061350E-03	4.249696E-04
4.094488E+03	7.082386E-03	4.238041E-04
4.104331E+03	7.098763E-03	4.223470E-04
4.114173E+03	7.110765E-03	4.206199E-04
4.124016E+03	7.118587E-03	4.186393E-04
4.133858E+03	7.122467E-03	4.164234E-04
4.143701E+03	7.122945E-03	4.140082E-04
4.153543E+03	7.120324E-03	4.114150E-04
4.163386E+03	7.114916E-03	4.086650E-04
4.173228E+03	7.107073E-03	4.057815E-04
4.183071E+03	7.097280E-03	4.027950E-04
4.192913E+03	7.086032E-03	3.997355E-04
4.202756E+03	7.073687E-03	3.966251E-04
4.212598E+03	7.060622E-03	3.934861E-04
4.222441E+03	7.047443E-03	3.903532E-04
4.232283E+03	7.034376E-03	3.872392E-04
4.242126E+03	7.021892E-03	3.841701E-04
4.251969E+03	7.010539E-03	3.811754E-04
4.261811E+03	7.000637E-03	3.782717E-04
4.271654E+03	6.992467E-03	3.754729E-04
4.281496E+03	6.986425E-03	3.727987E-04
4.291339E+03	6.982870E-03	3.702664E-04
4.301181E+03	6.982259E-03	3.678978E-04
4.311024E+03	6.984691E-03	3.656958E-04
4.320866E+03	6.990576E-03	3.636789E-04
4.330709E+03	7.000188E-03	3.618582E-04
4.340551E+03	7.013677E-03	3.602383E-04
4.350394E+03	7.031370E-03	3.588325E-04
4.360236E+03	7.053442E-03	3.576458E-04
4.370079E+03	7.079909E-03	3.566756E-04
4.379921E+03	7.110960E-03	3.559272E-04
4.389764E+03	7.146642E-03	3.553993E-04
4.399606E+03	7.186778E-03	3.550793E-04
4.409449E+03	7.231453E-03	3.549676E-04
4.419291E+03	7.280517E-03	3.550531E-04
4.429134E+03	7.333793E-03	3.553235E-04
4.438976E+03	7.391351E-03	3.557789E-04
4.448819E+03	7.452730E-03	3.563937E-04
4.458661E+03	7.517724E-03	3.571553E-04
4.468504E+03	7.586168E-03	3.580531E-04
4.478346E+03	7.657568E-03	3.590615E-04
4.488189E+03	7.731568E-03	3.601620E-04
4.498031E+03	7.807865E-03	3.613390E-04
4.507874E+03	7.885821E-03	3.625619E-04
4.517717E+03	7.964941E-03	3.638075E-04
4.527559E+03	8.044704E-03	3.650520E-04
4.537402E+03	8.124567E-03	3.662713E-04
4.547244E+03	8.203959E-03	3.674407E-04
4.557087E+03	8.282305E-03	3.685361E-04
4.566929E+03	8.358952E-03	3.695304E-04
4.576772E+03	8.433357E-03	3.704024E-04
4.586614E+03	8.505214E-03	3.711416E-04
4.596457E+03	8.573782E-03	3.717192E-04
4.606299E+03	8.638864E-03	3.721304E-04
4.616142E+03	8.700057E-03	3.723619E-04
4.625984E+03	8.757023E-03	3.724038E-04
4.635827E+03	8.809623E-03	3.722544E-04
4.645669E+03	8.857808E-03	3.719164E-04
4.655512E+03	8.901425E-03	3.713878E-04
4.665354E+03	8.940490E-03	3.706739E-04
4.675197E+03	8.975110E-03	3.697837E-04
4.685039E+03	9.005316E-03	3.687227E-04
4.694882E+03	9.031064E-03	3.674934E-04
4.704724E+03	9.052550E-03	3.661080E-04
4.714567E+03	9.069947E-03	3.645773E-04
4.724409E+03	9.084029E-03	3.629362E-04
4.734252E+03	9.095340E-03	3.612093E-04
4.744094E+03	9.104922E-03	3.594405E-04
4.753937E+03	9.113681E-03	3.576673E-04
4.763780E+03	9.122366E-03	3.559201E-04
4.773622E+03	9.132160E-03	3.542455E-04
4.783465E+03	9.143811E-03	3.526721E-04
4.793307E+03	9.157932E-03	3.512223E-04
4.803150E+03	9.175311E-03	3.499249E-04
4.812992E+03	9.196271E-03	3.487905E-04
4.822835E+03	9.221387E-03	3.478388E-04
4.832677E+03	9.250988E-03	3.470800E-04
4.842520E+03	9.285356E-03	3.465224E-04
4.852362E+03	9.324798E-03	3.461750E-04
4.862205E+03	9.369471E-03	3.460413E-04
4.872047E+03	9.419443E-03	3.461212E-04
4.881890E+03	9.474808E-03	3.464152E-04
4.891732E+03	9.535460E-03	3.469159E-04
4.901575E+03	9.601102E-03	3.476093E-04
4.911417E+03	9.671646E-03	3.484894E-04
4.921260E+03	9.746605E-03	3.495357E-04
4.931102E+03	9.825586E-03	3.507316E-04
4.940945E+03	9.907924E-03	3.520512E-04
4.950787E+03	9.993173E-03	3.534766E-04
4.960630E+03	1.008041E-02	3.549738E-04
4.970472E+03	1.016890E-02	3.565154E-04
4.980315E+03	1.025821E-02	3.580851E-04
4.990157E+03	1.034726E-02	3.596453E-04
5.000000E+03	1.043549E-02	3.611758E-04
5.009843E+03	1.052242E-02	3.626598E-04
5.019685E+03	1.060755E-02	3.640803E-04
5.029528E+03	1.069043E-02	3.654223E-04
5.039370E+03	1.077098E-02	3.666831E-04
5.049213E+03	1.084905E-02	3.678581E-04
5.059055E+03	1.092487E-02	3.689554E-04
5.068898E+03	1.099871E-02	3.699842E-04
5.078740E+03	1.107094E-02	3.709569E-04
5.088583E+03	1.114215E-02	3.718929E-04
5.098425E+03	1.121262E-02	3.728017E-04
5.108268E+03	1.128303E-02	3.737049E-04
5.118110E+03	1.135402E-02	3.746231E-04
5.127953E+03	1.142599E-02	3.755682E-04
5.137795E+03	1.149950E-02	3.765576E-04
5.147638E+03	1.157480E-02	3.775980E-04
5.157480E+03	1.165229E-02	3.787010E-04
5.167323E+03	1.173202E-02	3.798666E-04
5.177165E+03	1.181430E-02	3.811035E-04
5.187008E+03	1.189886E-02	3.824010E-04
5.196850E+03	1.198577E-02	3.837600E-04
5.206693E+03	1.207454E-02	3.851630E-04
5.216535E+03	1.216502E-02	3.866042E-04
5.226378E+03	1.225674E-02	3.880676E-04
5.236220E+03	1.234901E-02	3.895297E-04
5.246063E+03	1.244128E-02	3.909731E-04
5.255906E+03	1.253271E-02	3.923699E-04
5.265748E+03	1.262275E-02	3.937034E-04
5.275591E+03	1.271058E-02	3.949478E-04
5.285433E+03	1.279513E-02	3.960699E-04
5.295276E+03	1.287600E-02	3.970583E-04
5.305118E+03	1.295228E-02	3.978853E-04
5.314961E+03	1.302349E-02	3.985374E-04
5.324803E+03	1.308905E-02	3.989978E-04
5.334646E+03	1.314851E-02	3.992539E-04
5.344488E+03	1.320114E-02	3.992850E-04
5.354331E+03	1.324651E-02	3.990797E-04
5.364173E+03	1.328396E-02	3.986192E-04
5.374016E+03	1.331308E-02	3.978941E-04
5.383858E+03	1.333349E-02	3.968950E-04
5.393701E+03	1.334443E-02	3.956019E-04
5.403543E+03	1.334556E-02	3.940073E-04
5.413386E+03	1.333641E-02	3.921005E-04
5.423228E+03	1.331640E-02	3.898680E-04
5.433071E+03	1.328537E-02	3.873086E-04
5.442913E+03	1.324267E-02	3.844070E-04
5.452756E+03	1.318818E-02	3.811640E-04
5.462598E+03	1.312133E-02	3.775676E-04
5.472441E+03	1.304190E-02	3.736157E-04
5.482283E+03	1.294984E-02	3.693123E-04
5.492126E+03	1.284514E-02	3.646617E-04
5.501969E+03	1.272765E-02	3.596653E-04
5.511811E+03	1.259794E-02	3.543436E-04
5.521654E+03	1.245625E-02	3.487092E-04
5.531496E+03	1.230345E-02	3.427912E-04
5.541339E+03	1.214038E-02	3.366181E-04
5.551181E+03	1.196826E-02	3.302287E-04
5.561024E+03	1.178868E-02	3.236702E-04
5.570866E+03	1.160306E-02	3.169863E-04
5.580709E+03	1.141341E-02	3.102338E-04
5.590551E+03	1.122159E-02	3.034665E-04
5.600394E+03	1.102974E-02	2.967432E-04
5.610236E+03	1.084011E-02	2.901254E-04
5.620079E+03	1.065465E-02	2.836650E-04
5.629921E+03	1.047556E-02	2.774194E-04
5.639764E+03	1.030476E-02	2.714374E-04
5.649606E+03	1.014423E-02	2.657685E-04
5.659449E+03	9.995584E-03	2.604511E-04
5.669291E+03	9.860251E-03	2.555184E-04
5.679134E+03	9.739750E-03	2.510048E-04
5.688976E+03	9.634988E-03	2.469281E-04
5.698819E+03	9.546936E-03	2.433073E-04
5.708661E+03	9.476114E-03	2.401495E-04
5.718504E+03	9.422915E-03	2.374582E-04
5.728346E+03	9.387454E-03	2.352298E-04
5.738189E+03	9.369595E-03	2.334546E-04
5.748031E+03	9.368923E-03	2.321161E-04
5.757874E+03	9.384668E-03	2.311892E-04
5.767717E+03	9.415943E-03	2.306468E-04
5.777559E+03	9.461405E-03	2.304512E-04
5.787402E+03	9.519599E-03	2.305630E-04
5.797244E+03	9.588522E-03	2.309305E-04
5.807087E+03	9.666284E-03	2.315060E-04
5.816929E+03	9.750384E-03	2.322285E-04
5.826772E+03	9.838396E-03	2.330403E-04
5.836614E+03	9.927664E-03	2.338797E-04
5.846457E+03	1.001534E-02	2.346819E-04
5.856299E+03	1.009875E-02	2.353882E-04
5.866142E+03	1.017509E-02	2.359377E-04
5.875984E+03	1.024182E-02	2.362770E-04
5.885827E+03	1.029670E-02	2.363613E-04
5.895669E+03	1.033755E-02	2.361475E-04
5.905512E+03	1.036307E-02	2.356135E-04
5.915354E+03	1.037181E-02	2.347341E-04
5.925197E+03	1.036330E-02	2.335068E-04
5.935039E+03	1.033734E-02	2.319340E-04
5.944882E+03	1.029429E-02	2.300315E-04
5.954724E+03	1.023515E-02	2.278278E-04
5.964567E+03	1.016129E-02	2.253590E-04
5.974409E+03	1.007437E-02	2.226668E-04
5.984252E+03	9.976708E-03	2.198062E-04
5.994094E+03	9.870694E-03	2.168326E-04
6.003937E+03	9.758911E-03	2.138047E-04
6.013780E+03	9.644051E-03	2.107826E-04
6.023622E+03	9.528962E-03	2.078288E-04
6.033465E+03	9.416550E-03	2.050065E-04
6.043307E+03	9.309426E-03	2.023719E-04
6.053150E+03	9.210173E-03	1.999800E-04
6.062992E+03	9.121256E-03	1.978835E-04
6.072835E+03	9.045082E-03	1.961333E-04
6.082677E+03	8.983379E-03	1.947637E-04
6.092520E+03	8.937332E-03	1.937973E-04
6.102362E+03	8.907522E-03	1.932440E-04
6.112205E+03	8.893950E-03	1.931016E-04
6.122047E+03	8.895312E-03	1.933399E-04
6.131890E+03	8.910061E-03	1.939239E-04
6.141732E+03	8.936268E-03	1.948104E-04
6.151575E+03	8.972234E-03	1.959615E-04
6.161417E+03	9.016334E-03	1.973408E-04
6.171260E+03	9.067102E-03	1.989153E-04
6.181102E+03	9.123118E-03	2.006530E-04
6.190945E+03	9.182921E-03	2.025206E-04
6.200787E+03	9.245174E-03	2.044873E-04
6.210630E+03	9.308688E-03	2.065252E-04
6.220472E+03	9.372031E-03	2.086008E-04
6.230315E+03	9.434126E-03	2.106879E-04
6.240157E+03	9.493947E-03	2.127613E-04
6.250000E+03	9.550379E-03	2.147931E-04
6.259843E+03	9.602488E-03	2.167592E-04
6.269685E+03	9.649454E-03	2.186379E-04
6.279528E+03	9.690773E-03	2.204140E-04
6.289370E+03	9.725696E-03	2.220668E-04
6.299213E+03	9.753992E-03	2.235868E-04
6.309055E+03	9.775393E-03	2.249640E-04
6.318898E+03	9.789762E-03	2.261909E-04
6.328740E+03	9.797200E-03	2.272658E-04
6.338583E+03	9.797731E-03	2.281850E-04
6.348425E+03	9.791806E-03	2.289550E-04
6.358268E+03	9.779860E-03	2.295821E-04
6.368110E+03	9.762108E-03	2.300678E-04
6.377953E+03	9.739336E-03	2.304271E-04
6.387795E+03	9.711972E-03	2.306668E-04
6.397638E+03	9.680668E-03	2.307996E-04
6.407480E+03	9.646103E-03	2.308390E-04
6.417323E+03	9.608627E-03	2.307908E-04
6.427165E+03	9.568901E-03	2.306689E-04
6.437008E+03	9.527352E-03	2.304817E-04
6.446850E+03	9.484570E-03	2.302416E-04
6.456693E+03	9.440908E-03	2.299558E-04
6.466535E+03	9.396659E-03	2.296301E-04
6.476378E+03	9.352351E-03	2.292764E-04
6.486220E+03	9.308047E-03	2.288952E-04
6.496063E+03	9.263932E-03	2.284903E-04
6.505906E+03	9.220201E-03	2.280657E-04
6.515748E+03	9.176854E-03	2.276209E-04
6.525591E+03	9.133614E-03	2.271484E-04
6.535433E+03	9.090595E-03	2.266504E-04
6.545276E+03	9.047232E-03	2.261123E-04
6.555118E+03	9.003381E-03	2.255302E-04
6.564961E+03	8.958619E-03	2.248928E-04
6.574803E+03	8.912474E-03	2.241879E-04
6.584646E+03	8.864327E-03	2.233993E-04
6.594488E+03	8.813742E-03	2.225157E-04
6.604331E+03	8.760272E-03	2.215253E-04
6.614173E+03	8.703302E-03	2.204122E-04
6.624016E+03	8.642348E-03	2.191638E-04
6.633858E+03	8.577090E-03	2.177718E-04
6.643701E+03	8.507195E-03	2.162275E-04
6.653543E+03	8.432336E-03	2.145227E-04
6.663386E+03	8.352592E-03	2.126595E-04
6.673228E+03	8.267870E-03	2.106357E-04
6.683071E+03	8.178326E-03	2.084559E-04
6.692913E+03	8.084329E-03	2.061300E-04
6.702756E+03	7.986294E-03	2.036694E-04
6.712598E+03	7.884672E-03	2.010865E-04
6.722441E+03	7.780301E-03	1.984036E-04
6.732283E+03	7.673838E-03	1.956386E-04
6.742126E+03	7.566125E-03	1.928143E-04
6.751969E+03	7.458054E-03	1.899545E-04
6.761811E+03	7.350663E-03	1.870869E-04
6.771654E+03	7.244836E-03	1.842353E-04
6.781496E+03	7.141637E-03	1.814279E-04
6.791339E+03	7.042035E-03	1.786903E-04
6.801181E+03	6.946979E-03	1.760475E-04
6.811024E+03	6.857377E-03	1.735232E-04
6.820866E+03	6.774014E-03	1.711379E-04
6.830709E+03	6.697855E-03	1.689163E-04
6.840551E+03	6.629554E-03	1.668748E-04
6.850394E+03	6.569776E-03	1.650302E-04
6.860236E+03	6.519096E-03	1.633963E-04
6.870079E+03	6.478078E-03	1.619868E-04
6.879921E+03	6.447029E-03	1.608081E-04
6.889764E+03	6.426226E-03	1.598661E-04
6.899606E+03	6.415840E-03	1.591637E-04
6.909449E+03	6.415988E-03	1.587019E-04
6.919291E+03	6.426511E-03	1.584751E-04
6.929134E+03	6.447281E-03	1.584780E-04
6.938976E+03	6.477867E-03	1.586982E-04
6.948819E+03	6.517794E-03	1.591217E-04
6.958661E+03	6.566548E-03	1.597339E-04
6.968504E+03	6.623330E-03	1.605134E-04
6.978346E+03	6.687331E-03	1.614385E-04
6.988189E+03	6.757730E-03	1.624877E-04
6.998031E+03	6.833583E-03	1.636368E-04
7.007874E+03	6.913733E-03	1.648568E-04
7.017717E+03	6.997361E-03	1.661271E-04
7.027559E+03	7.083417E-03	1.674224E-04
7.037402E+03	7.171074E-03	1.687226E-04
7.047244E+03	7.259397E-03	1.700060E-04
7.057087E+03	7.347633E-03	1.712553E-04
7.066929E+03	7.435230E-03	1.724584E-04
7.076772E+03	7.521458E-03	1.735996E-04
7.086614E+03	7.606173E-03	1.746768E-04
7.096457E+03	7.688760E-03	1.756777E-04
7.106299E+03	7.769191E-03	1.766033E-04
7.116142E+03	7.847209E-03	1.774501E-04
7.125984E+03	7.922817E-03	1.782203E-04
7.135827E+03	7.995851E-03	1.789125E-04
7.145669E+03	8.066246E-03	1.795280E-04
7.155512E+03	8.134139E-03	1.800725E-04
7.165354E+03	8.199101E-03	1.805393E-04
7.175197E+03	8.261265E-03	1.809344E-04
7.185039E+03	8.320158E-03	1.812507E-04
7.194882E+03	8.375630E-03	1.814882E-04
7.204724E+03	8.427000E-03	1.816358E-04
7.214567E+03	8.473906E-03	1.816897E-04
7.224409E+03	8.515554E-03	1.816370E-04
7.234252E+03	8.551264E-03	1.814676E-04
7.244094E+03	8.580157E-03	1.811677E-04
7.253937E+03	8.601173E-03	1.807198E-04
7.263780E+03	8.613421E-03	1.801105E-04
7.273622E+03	8.615884E-03	1.793241E-04
7.283465E+03	8.607561E-03	1.783453E-04
7.293307E+03	8.587605E-03	1.771623E-04
7.303150E+03	8.554803E-03	1.757558E-04
7.312992E+03	8.508746E-03	1.741229E-04
7.322835E+03	8.448615E-03	1.722523E-04
7.332677E+03	8.374014E-03	1.701410E-04
7.342520E+03	8.284764E-03	1.677897E-04
7.352362E+03	8.181048E-03	1.652062E-04
7.362205E+03	8.063090E-03	1.623983E-04
7.372047E+03	7.931403E-03	1.593787E-04
7.381890E+03	7.786916E-03	1.561677E-04
7.391732E+03	7.630843E-03	1.527900E-04
7.401575E+03	7.464770E-03	1.492774E-04
7.411417E+03	7.290171E-03	1.456580E-04
7.421260E+03	7.109368E-03	1.419767E-04
7.431102E+03	6.924388E-03	1.382713E-04
7.440945E+03	6.737898E-03	1.345922E-04
7.450787E+03	6.552217E-03	1.309817E-04
7.460630E+03	6.369882E-03	1.274847E-04
7.470472E+03	6.193214E-03	1.241419E-04
7.480315E+03	6.024258E-03	1.209889E-04
7.490157E+03	5.865008E-03	1.180614E-04
7.500000E+03	5.717030E-03	1.153869E-04
7.509843E+03	5.581740E-03	1.129910E-04
7.519685E+03	5.459922E-03	1.108876E-04
7.529528E+03	5.352075E-03	1.090854E-04
7.539370E+03	5.257891E-03	1.075774E-04
7.549213E+03	5.176631E-03	1.063483E-04
7.559055E+03	5.107741E-03	1.053870E-04
7.568898E+03	5.050397E-03	1.046769E-04
7.578740E+03	5.003845E-03	1.042031E-04
7.588583E+03	4.967353E-03	1.039511E-04
7.598425E+03	4.940274E-03	1.039085E-04
7.608268E+03	4.921859E-03	1.040605E-04
7.618110E+03	4.911447E-03	1.043940E-04
7.627953E+03	4.908464E-03	1.048979E-04
7.637795E+03	4.912280E-03	1.055598E-04
