#wls	flux	fluxerr
1.574803E+03	7.463375E-04	8.980827E-05
1.614173E+03	7.422845E-04	8.901848E-05
1.653543E+03	7.379747E-04	8.819263E-05
1.692913E+03	7.336884E-04	8.736435E-05
1.732283E+03	7.291340E-04	8.649898E-05
1.771654E+03	7.245160E-04	8.562103E-05
1.811024E+03	7.196009E-04	8.470306E-05
1.850394E+03	7.144071E-04	8.374765E-05
1.889764E+03	7.088127E-04	8.274095E-05
1.929134E+03	7.026060E-04	8.165901E-05
1.968504E+03	6.961019E-04	8.053922E-05
2.007874E+03	6.896311E-04	7.942024E-05
2.047244E+03	6.838134E-04	7.837311E-05
2.086614E+03	6.798568E-04	7.753457E-05
2.125984E+03	6.787478E-04	7.701337E-05
2.165354E+03	6.809473E-04	7.685643E-05
2.204724E+03	6.860010E-04	7.700651E-05
2.244094E+03	6.930313E-04	7.735995E-05
2.283465E+03	7.013381E-04	7.783481E-05
2.322835E+03	7.103905E-04	7.836940E-05
2.362205E+03	7.200632E-04	7.894787E-05
2.401575E+03	7.301816E-04	7.954923E-05
2.440945E+03	7.410339E-04	8.020298E-05
2.480315E+03	7.527130E-04	8.091679E-05
2.519685E+03	7.655675E-04	8.172522E-05
2.559055E+03	7.794657E-04	8.261074E-05
2.598425E+03	7.949945E-04	8.363172E-05
2.637795E+03	8.120165E-04	8.476890E-05
2.677165E+03	8.309929E-04	8.606526E-05
2.716535E+03	8.521466E-04	8.753758E-05
2.755906E+03	8.755823E-04	8.918956E-05
2.795276E+03	9.017729E-04	9.106149E-05
2.834646E+03	9.309596E-04	9.316843E-05
2.874016E+03	9.633950E-04	9.552540E-05
2.913386E+03	9.995938E-04	9.817177E-05
2.952756E+03	1.039970E-03	1.011348E-04
2.962598E+03	1.050862E-03	1.019374E-04
2.972441E+03	1.061970E-03	1.027542E-04
2.982283E+03	1.073295E-03	1.035851E-04
2.992126E+03	1.085092E-03	1.044544E-04
3.001969E+03	1.097126E-03	1.053392E-04
3.011811E+03	1.109533E-03	1.062523E-04
3.021654E+03	1.122315E-03	1.071935E-04
3.031496E+03	1.135475E-03	1.081627E-04
3.041339E+03	1.149014E-03	1.091599E-04
3.051181E+03	1.163062E-03	1.101967E-04
3.061024E+03	1.177370E-03	1.112495E-04
3.070866E+03	1.192068E-03	1.123300E-04
3.080709E+03	1.207286E-03	1.134502E-04
3.090551E+03	1.222901E-03	1.145982E-04
3.100394E+03	1.238919E-03	1.157740E-04
3.110236E+03	1.255472E-03	1.169895E-04
3.120079E+03	1.272438E-03	1.182330E-04
3.129921E+03	1.289823E-03	1.195046E-04
3.139764E+03	1.307761E-03	1.208164E-04
3.149606E+03	1.326258E-03	1.221683E-04
3.159449E+03	1.345324E-03	1.235607E-04
3.169291E+03	1.364836E-03	1.249818E-04
3.179134E+03	1.384931E-03	1.264437E-04
3.188976E+03	1.405749E-03	1.279586E-04
3.198819E+03	1.427038E-03	1.295029E-04
3.208661E+03	1.448938E-03	1.310888E-04
3.218504E+03	1.471458E-03	1.327166E-04
3.228346E+03	1.494741E-03	1.343985E-04
3.238189E+03	1.518666E-03	1.361229E-04
3.248031E+03	1.543245E-03	1.378902E-04
3.257874E+03	1.568621E-03	1.397126E-04
3.267717E+03	1.594808E-03	1.415905E-04
3.277559E+03	1.621685E-03	1.435124E-04
3.287402E+03	1.649264E-03	1.454786E-04
3.297244E+03	1.677829E-03	1.475135E-04
3.307087E+03	1.707259E-03	1.496055E-04
3.316929E+03	1.737432E-03	1.517430E-04
3.326772E+03	1.768638E-03	1.539504E-04
3.336614E+03	1.800753E-03	1.562162E-04
3.346457E+03	1.833794E-03	1.585406E-04
3.356299E+03	1.867914E-03	1.609362E-04
3.366142E+03	1.903131E-03	1.634032E-04
3.375984E+03	1.939322E-03	1.659301E-04
3.385827E+03	1.976503E-03	1.685170E-04
3.395669E+03	2.014971E-03	1.711885E-04
3.405512E+03	2.054603E-03	1.739326E-04
3.415354E+03	2.095273E-03	1.767376E-04
3.425197E+03	2.137283E-03	1.796276E-04
3.435039E+03	2.180649E-03	1.826028E-04
3.444882E+03	2.225245E-03	1.856512E-04
3.454724E+03	2.271085E-03	1.887726E-04
3.464567E+03	2.318329E-03	1.919790E-04
3.474409E+03	2.366992E-03	1.952701E-04
3.484252E+03	2.417087E-03	1.986457E-04
3.494094E+03	2.468628E-03	2.021051E-04
3.503937E+03	2.521776E-03	2.056600E-04
3.513780E+03	2.576240E-03	2.092852E-04
3.523622E+03	2.632480E-03	2.130163E-04
3.533465E+03	2.690203E-03	2.168279E-04
3.543307E+03	2.749413E-03	2.207187E-04
3.553150E+03	2.810416E-03	2.247115E-04
3.562992E+03	2.873062E-03	2.287926E-04
3.572835E+03	2.937349E-03	2.329598E-04
3.582677E+03	3.003272E-03	2.372111E-04
3.592520E+03	3.070979E-03	2.415562E-04
3.602362E+03	3.140301E-03	2.459800E-04
3.612205E+03	3.211381E-03	2.504919E-04
3.622047E+03	3.284199E-03	2.550883E-04
3.631890E+03	3.358894E-03	2.597779E-04
3.641732E+03	3.435116E-03	2.645320E-04
3.651575E+03	3.513153E-03	2.693707E-04
3.661417E+03	3.592805E-03	2.742768E-04
3.671260E+03	3.674029E-03	2.792451E-04
3.681102E+03	3.757097E-03	2.842945E-04
3.690945E+03	3.841630E-03	2.893943E-04
3.700787E+03	3.927725E-03	2.945500E-04
3.710630E+03	4.015478E-03	2.997672E-04
3.720472E+03	4.104480E-03	3.050133E-04
3.730315E+03	4.194978E-03	3.103053E-04
3.740157E+03	4.286711E-03	3.156222E-04
3.750000E+03	4.379742E-03	3.209670E-04
3.759843E+03	4.473969E-03	3.263310E-04
3.769685E+03	4.569095E-03	3.316909E-04
3.779528E+03	4.665166E-03	3.370491E-04
3.789370E+03	4.762049E-03	3.423948E-04
3.799213E+03	4.859589E-03	3.477159E-04
3.809055E+03	4.957636E-03	3.530008E-04
3.818898E+03	5.056027E-03	3.582374E-04
3.828740E+03	5.154589E-03	3.634127E-04
3.838583E+03	5.253129E-03	3.685132E-04
3.848425E+03	5.351465E-03	3.735259E-04
3.858268E+03	5.449563E-03	3.784485E-04
3.868110E+03	5.547039E-03	3.832547E-04
3.877953E+03	5.643500E-03	3.879180E-04
3.887795E+03	5.739065E-03	3.924475E-04
3.897638E+03	5.833321E-03	3.968161E-04
3.907480E+03	5.926025E-03	4.010086E-04
3.917323E+03	6.016934E-03	4.050102E-04
3.927165E+03	6.105616E-03	4.087940E-04
3.937008E+03	6.191992E-03	4.123572E-04
3.946850E+03	6.275800E-03	4.156847E-04
3.956693E+03	6.356456E-03	4.187410E-04
3.966535E+03	6.434047E-03	4.215352E-04
3.976378E+03	6.508172E-03	4.240445E-04
3.986220E+03	6.578605E-03	4.262581E-04
3.996063E+03	6.644989E-03	4.281572E-04
4.005906E+03	6.707141E-03	4.297345E-04
4.015748E+03	6.765075E-03	4.309956E-04
4.025591E+03	6.818194E-03	4.319075E-04
4.035433E+03	6.866734E-03	4.324904E-04
4.045276E+03	6.910499E-03	4.327373E-04
4.055118E+03	6.949345E-03	4.326445E-04
4.064961E+03	6.983464E-03	4.322296E-04
4.074803E+03	7.012661E-03	4.314858E-04
4.084646E+03	7.037082E-03	4.304278E-04
4.094488E+03	7.056924E-03	4.290731E-04
4.104331E+03	7.072277E-03	4.274322E-04
4.114173E+03	7.083425E-03	4.255276E-04
4.124016E+03	7.090559E-03	4.233754E-04
4.133858E+03	7.093899E-03	4.209933E-04
4.143701E+03	7.093977E-03	4.184172E-04
4.153543E+03	7.091074E-03	4.156675E-04
4.163386E+03	7.085492E-03	4.127653E-04
4.173228E+03	7.077567E-03	4.097333E-04
4.183071E+03	7.067775E-03	4.066017E-04
4.192913E+03	7.056583E-03	4.033996E-04
4.202756E+03	7.044347E-03	4.001491E-04
4.212598E+03	7.031421E-03	3.968715E-04
4.222441E+03	7.018406E-03	3.936018E-04
4.232283E+03	7.005514E-03	3.903522E-04
4.242126E+03	6.993200E-03	3.871479E-04
4.251969E+03	6.982018E-03	3.840194E-04
4.261811E+03	6.972263E-03	3.809818E-04
4.271654E+03	6.964229E-03	3.780498E-04
4.281496E+03	6.958289E-03	3.752423E-04
4.291339E+03	6.954810E-03	3.725769E-04
4.301181E+03	6.954235E-03	3.700750E-04
4.311024E+03	6.956661E-03	3.677390E-04
4.320866E+03	6.962499E-03	3.655879E-04
4.330709E+03	6.972011E-03	3.636320E-04
4.340551E+03	6.985342E-03	3.618756E-04
4.350394E+03	7.002808E-03	3.603312E-04
4.360236E+03	7.024572E-03	3.590035E-04
4.370079E+03	7.050650E-03	3.578894E-04
4.379921E+03	7.081210E-03	3.569934E-04
4.389764E+03	7.116293E-03	3.563135E-04
4.399606E+03	7.155707E-03	3.558362E-04
4.409449E+03	7.199529E-03	3.555616E-04
4.419291E+03	7.247596E-03	3.554776E-04
4.429134E+03	7.299714E-03	3.555711E-04
4.438976E+03	7.355948E-03	3.558418E-04
4.448819E+03	7.415830E-03	3.562638E-04
4.458661E+03	7.479146E-03	3.568238E-04
4.468504E+03	7.545732E-03	3.575115E-04
4.478346E+03	7.615090E-03	3.583010E-04
4.488189E+03	7.686877E-03	3.591743E-04
4.498031E+03	7.760803E-03	3.601166E-04
4.507874E+03	7.836241E-03	3.610977E-04
4.517717E+03	7.912737E-03	3.620964E-04
4.527559E+03	7.989793E-03	3.630900E-04
4.537402E+03	8.066896E-03	3.640558E-04
4.547244E+03	8.143525E-03	3.649714E-04
4.557087E+03	8.219150E-03	3.658149E-04
4.566929E+03	8.293160E-03	3.665611E-04
4.576772E+03	8.365061E-03	3.671911E-04
4.586614E+03	8.434597E-03	3.676967E-04
4.596457E+03	8.501063E-03	3.680506E-04
4.606299E+03	8.564303E-03	3.682500E-04
4.616142E+03	8.623945E-03	3.682830E-04
4.625984E+03	8.679680E-03	3.681408E-04
4.635827E+03	8.731388E-03	3.678229E-04
4.645669E+03	8.779030E-03	3.673321E-04
4.655512E+03	8.822453E-03	3.666666E-04
4.665354E+03	8.861684E-03	3.658322E-04
4.675197E+03	8.896812E-03	3.648371E-04
4.685039E+03	8.927878E-03	3.636873E-04
4.694882E+03	8.954823E-03	3.623846E-04
4.704724E+03	8.977851E-03	3.609417E-04
4.714567E+03	8.997126E-03	3.593689E-04
4.724409E+03	9.013384E-03	3.576994E-04
4.734252E+03	9.027142E-03	3.559567E-04
4.744094E+03	9.039375E-03	3.541817E-04
4.753937E+03	9.050914E-03	3.524089E-04
4.763780E+03	9.062447E-03	3.506659E-04
4.773622E+03	9.075061E-03	3.489955E-04
4.783465E+03	9.089433E-03	3.474233E-04
4.793307E+03	9.106118E-03	3.459694E-04
4.803150E+03	9.125850E-03	3.446606E-04
4.812992E+03	9.148928E-03	3.435065E-04
4.822835E+03	9.175891E-03	3.425254E-04
4.832677E+03	9.207040E-03	3.417266E-04
4.842520E+03	9.242636E-03	3.411177E-04
4.852362E+03	9.282962E-03	3.407068E-04
4.862205E+03	9.328163E-03	3.404971E-04
4.872047E+03	9.378300E-03	3.404884E-04
4.881890E+03	9.433453E-03	3.406807E-04
4.891732E+03	9.493536E-03	3.410675E-04
4.901575E+03	9.558274E-03	3.416358E-04
4.911417E+03	9.627598E-03	3.423800E-04
4.921260E+03	9.701070E-03	3.432819E-04
4.931102E+03	9.778367E-03	3.443272E-04
4.940945E+03	9.858885E-03	3.454926E-04
4.950787E+03	9.942282E-03	3.467639E-04
4.960630E+03	1.002774E-02	3.481109E-04
4.970472E+03	1.011463E-02	3.495102E-04
4.980315E+03	1.020262E-02	3.509495E-04
4.990157E+03	1.029078E-02	3.523957E-04
5.000000E+03	1.037864E-02	3.538318E-04
5.009843E+03	1.046579E-02	3.552440E-04
5.019685E+03	1.055182E-02	3.566178E-04
5.029528E+03	1.063632E-02	3.579390E-04
5.039370E+03	1.071919E-02	3.592044E-04
5.049213E+03	1.080027E-02	3.604086E-04
5.059055E+03	1.087973E-02	3.615569E-04
5.068898E+03	1.095773E-02	3.626547E-04
5.078740E+03	1.103454E-02	3.637106E-04
5.088583E+03	1.111062E-02	3.647392E-04
5.098425E+03	1.118613E-02	3.657451E-04
5.108268E+03	1.126161E-02	3.667450E-04
5.118110E+03	1.133757E-02	3.677550E-04
5.127953E+03	1.141430E-02	3.687832E-04
5.137795E+03	1.149227E-02	3.698431E-04
5.147638E+03	1.157163E-02	3.709387E-04
5.157480E+03	1.165272E-02	3.720789E-04
5.167323E+03	1.173555E-02	3.732625E-04
5.177165E+03	1.182036E-02	3.744961E-04
5.187008E+03	1.190686E-02	3.757683E-04
5.196850E+03	1.199512E-02	3.770798E-04
5.206693E+03	1.208460E-02	3.784126E-04
5.216535E+03	1.217519E-02	3.797615E-04
5.226378E+03	1.226641E-02	3.811105E-04
5.236220E+03	1.235758E-02	3.824375E-04
5.246063E+03	1.244819E-02	3.837256E-04
5.255906E+03	1.253740E-02	3.849491E-04
5.265748E+03	1.262473E-02	3.860923E-04
5.275591E+03	1.270939E-02	3.871314E-04
5.285433E+03	1.279036E-02	3.880356E-04
5.295276E+03	1.286729E-02	3.887948E-04
5.305118E+03	1.293929E-02	3.893831E-04
5.314961E+03	1.300593E-02	3.897884E-04
5.324803E+03	1.306665E-02	3.899951E-04
5.334646E+03	1.312102E-02	3.899914E-04
5.344488E+03	1.316834E-02	3.897579E-04
5.354331E+03	1.320822E-02	3.892845E-04
5.364173E+03	1.323999E-02	3.885533E-04
5.374016E+03	1.326328E-02	3.875556E-04
5.383858E+03	1.327774E-02	3.862835E-04
5.393701E+03	1.328264E-02	3.847183E-04
5.403543E+03	1.327766E-02	3.828538E-04
5.413386E+03	1.326239E-02	3.806812E-04
5.423228E+03	1.323629E-02	3.781887E-04
5.433071E+03	1.319925E-02	3.753772E-04
5.442913E+03	1.315071E-02	3.722341E-04
5.452756E+03	1.309064E-02	3.687634E-04
5.462598E+03	1.301857E-02	3.649564E-04
5.472441E+03	1.293438E-02	3.608145E-04
5.482283E+03	1.283818E-02	3.563458E-04
5.492126E+03	1.273006E-02	3.515581E-04
5.501969E+03	1.261001E-02	3.464566E-04
5.511811E+03	1.247872E-02	3.410651E-04
5.521654E+03	1.233652E-02	3.353984E-04
5.531496E+03	1.218435E-02	3.294868E-04
5.541339E+03	1.202309E-02	3.233595E-04
5.551181E+03	1.185395E-02	3.170538E-04
5.561024E+03	1.167847E-02	3.106146E-04
5.570866E+03	1.149799E-02	3.040816E-04
5.580709E+03	1.131437E-02	2.975065E-04
5.590551E+03	1.112932E-02	2.909373E-04
5.600394E+03	1.094478E-02	2.844256E-04
5.610236E+03	1.076279E-02	2.780252E-04
5.620079E+03	1.058507E-02	2.717807E-04
5.629921E+03	1.041362E-02	2.657418E-04
5.639764E+03	1.025012E-02	2.599498E-04
5.649606E+03	1.009634E-02	2.544466E-04
5.659449E+03	9.953704E-03	2.492644E-04
5.669291E+03	9.823462E-03	2.444304E-04
5.679134E+03	9.706964E-03	2.399731E-04
5.688976E+03	9.604977E-03	2.359060E-04
5.698819E+03	9.518337E-03	2.322438E-04
5.708661E+03	9.447464E-03	2.289905E-04
5.718504E+03	9.392658E-03	2.261469E-04
5.728346E+03	9.353965E-03	2.237078E-04
5.738189E+03	9.331209E-03	2.216626E-04
5.748031E+03	9.323959E-03	2.199948E-04
5.757874E+03	9.331443E-03	2.186806E-04
5.767717E+03	9.352823E-03	2.176950E-04
5.777559E+03	9.386825E-03	2.170038E-04
5.787402E+03	9.432116E-03	2.165723E-04
5.797244E+03	9.486849E-03	2.163552E-04
5.807087E+03	9.549327E-03	2.163120E-04
5.816929E+03	9.617289E-03	2.163906E-04
5.826772E+03	9.688587E-03	2.165431E-04
5.836614E+03	9.760880E-03	2.167190E-04
5.846457E+03	9.831651E-03	2.168651E-04
5.856299E+03	9.898587E-03	2.169346E-04
5.866142E+03	9.959248E-03	2.168791E-04
5.875984E+03	1.001143E-02	2.166569E-04
5.885827E+03	1.005324E-02	2.162340E-04
5.895669E+03	1.008278E-02	2.155772E-04
5.905512E+03	1.009896E-02	2.146718E-04
5.915354E+03	1.010053E-02	2.134990E-04
5.925197E+03	1.008713E-02	2.120599E-04
5.935039E+03	1.005858E-02	2.103586E-04
5.944882E+03	1.001521E-02	2.084099E-04
5.954724E+03	9.957928E-03	2.062392E-04
5.964567E+03	9.887909E-03	2.038773E-04
5.974409E+03	9.806616E-03	2.013593E-04
5.984252E+03	9.716091E-03	1.987315E-04
5.994094E+03	9.618441E-03	1.960401E-04
6.003937E+03	9.515938E-03	1.933336E-04
6.013780E+03	9.410975E-03	1.906621E-04
6.023622E+03	9.306081E-03	1.880772E-04
6.033465E+03	9.203870E-03	1.856318E-04
6.043307E+03	9.106696E-03	1.833730E-04
6.053150E+03	9.016901E-03	1.813471E-04
6.062992E+03	8.936757E-03	1.795991E-04
6.072835E+03	8.868521E-03	1.781729E-04
6.082677E+03	8.813816E-03	1.770979E-04
6.092520E+03	8.773790E-03	1.763935E-04
6.102362E+03	8.749051E-03	1.760690E-04
6.112205E+03	8.739643E-03	1.761230E-04
6.122047E+03	8.744294E-03	1.765277E-04
6.131890E+03	8.761533E-03	1.772520E-04
6.141732E+03	8.789526E-03	1.782577E-04
6.151575E+03	8.826690E-03	1.795116E-04
6.161417E+03	8.871476E-03	1.809811E-04
6.171260E+03	8.922510E-03	1.826371E-04
6.181102E+03	8.978465E-03	1.844513E-04
6.190945E+03	9.037972E-03	1.863941E-04
6.200787E+03	9.099793E-03	1.884384E-04
6.210630E+03	9.162826E-03	1.905593E-04
6.220472E+03	9.225746E-03	1.927271E-04
6.230315E+03	9.287553E-03	1.949181E-04
6.240157E+03	9.347311E-03	1.971097E-04
6.250000E+03	9.403974E-03	1.992765E-04
6.259843E+03	9.456673E-03	2.013963E-04
6.269685E+03	9.504643E-03	2.034488E-04
6.279528E+03	9.547413E-03	2.054196E-04
6.289370E+03	9.584241E-03	2.072881E-04
6.299213E+03	9.614915E-03	2.090449E-04
6.309055E+03	9.639128E-03	2.106785E-04
6.318898E+03	9.656715E-03	2.121803E-04
6.328740E+03	9.667732E-03	2.135467E-04
6.338583E+03	9.672144E-03	2.147719E-04
6.348425E+03	9.670318E-03	2.158593E-04
6.358268E+03	9.662621E-03	2.168124E-04
6.368110E+03	9.649185E-03	2.176300E-04
6.377953E+03	9.630717E-03	2.183237E-04
6.387795E+03	9.607563E-03	2.188976E-04
6.397638E+03	9.580301E-03	2.193613E-04
6.407480E+03	9.549530E-03	2.197254E-04
6.417323E+03	9.515545E-03	2.199935E-04
6.427165E+03	9.478945E-03	2.201770E-04
6.437008E+03	9.440095E-03	2.202820E-04
6.446850E+03	9.399546E-03	2.203193E-04
6.456693E+03	9.357598E-03	2.202940E-04
6.466535E+03	9.314506E-03	2.202105E-04
6.476378E+03	9.270773E-03	2.200795E-04
6.486220E+03	9.226431E-03	2.199003E-04
6.496063E+03	9.181648E-03	2.196761E-04
6.505906E+03	9.136618E-03	2.194104E-04
6.515748E+03	9.091351E-03	2.191028E-04
6.525591E+03	9.045585E-03	2.187462E-04
6.535433E+03	8.999477E-03	2.183436E-04
6.545276E+03	8.952512E-03	2.178821E-04
6.555118E+03	8.904602E-03	2.173589E-04
6.564961E+03	8.855412E-03	2.167652E-04
6.574803E+03	8.804562E-03	2.160913E-04
6.584646E+03	8.751537E-03	2.153238E-04
6.594488E+03	8.696007E-03	2.144544E-04
6.604331E+03	8.637643E-03	2.134743E-04
6.614173E+03	8.575953E-03	2.123712E-04
6.624016E+03	8.510572E-03	2.111356E-04
6.633858E+03	8.441292E-03	2.097622E-04
6.643701E+03	8.367883E-03	2.082453E-04
6.653543E+03	8.290108E-03	2.065790E-04
6.663386E+03	8.208127E-03	2.047675E-04
6.673228E+03	8.121906E-03	2.028103E-04
6.683071E+03	8.031639E-03	2.007129E-04
6.692913E+03	7.937717E-03	1.984857E-04
6.702756E+03	7.840555E-03	1.961400E-04
6.712598E+03	7.740577E-03	1.936874E-04
6.722441E+03	7.638579E-03	1.911490E-04
6.732283E+03	7.535172E-03	1.885413E-04
6.742126E+03	7.431119E-03	1.858848E-04
6.751969E+03	7.327243E-03	1.832014E-04
6.761811E+03	7.224484E-03	1.805160E-04
6.771654E+03	7.123631E-03	1.778496E-04
6.781496E+03	7.025656E-03	1.752278E-04
6.791339E+03	6.931428E-03	1.726735E-04
6.801181E+03	6.841795E-03	1.702087E-04
6.811024E+03	6.757566E-03	1.678545E-04
6.820866E+03	6.679436E-03	1.656287E-04
6.830709E+03	6.608274E-03	1.635533E-04
6.840551E+03	6.544654E-03	1.616427E-04
6.850394E+03	6.489157E-03	1.599110E-04
6.860236E+03	6.442280E-03	1.583703E-04
6.870079E+03	6.404524E-03	1.570319E-04
6.879921E+03	6.376141E-03	1.559014E-04
6.889764E+03	6.357360E-03	1.549829E-04
6.899606E+03	6.348319E-03	1.542784E-04
6.909449E+03	6.349118E-03	1.537887E-04
6.919291E+03	6.359599E-03	1.535080E-04
6.929134E+03	6.379648E-03	1.534316E-04
6.938976E+03	6.408877E-03	1.535479E-04
6.948819E+03	6.446872E-03	1.538447E-04
6.958661E+03	6.493197E-03	1.543096E-04
6.968504E+03	6.547145E-03	1.549233E-04
6.978346E+03	6.608026E-03	1.556675E-04
6.988189E+03	6.675144E-03	1.565239E-04
6.998031E+03	6.747681E-03	1.574714E-04
7.007874E+03	6.824619E-03	1.584849E-04
7.017717E+03	6.905263E-03	1.595470E-04
7.027559E+03	6.988667E-03	1.606351E-04
7.037402E+03	7.074111E-03	1.617319E-04
7.047244E+03	7.160727E-03	1.628175E-04
7.057087E+03	7.247818E-03	1.638763E-04
7.066929E+03	7.334844E-03	1.648967E-04
7.076772E+03	7.421069E-03	1.658631E-04
7.086614E+03	7.506319E-03	1.667728E-04
7.096457E+03	7.589930E-03	1.676127E-04
7.106299E+03	7.671778E-03	1.683819E-04
7.116142E+03	7.751520E-03	1.690750E-04
7.125984E+03	7.829051E-03	1.696922E-04
7.135827E+03	7.904091E-03	1.702300E-04
7.145669E+03	7.976465E-03	1.706876E-04
7.155512E+03	8.046198E-03	1.710686E-04
7.165354E+03	8.112752E-03	1.713648E-04
7.175197E+03	8.176168E-03	1.715807E-04
7.185039E+03	8.235901E-03	1.717087E-04
7.194882E+03	8.291746E-03	1.717488E-04
7.204724E+03	8.342982E-03	1.716904E-04
7.214567E+03	8.389228E-03	1.715304E-04
7.224409E+03	8.429698E-03	1.712579E-04
7.234252E+03	8.463734E-03	1.708650E-04
7.244094E+03	8.490496E-03	1.703405E-04
7.253937E+03	8.508986E-03	1.696705E-04
7.263780E+03	8.518389E-03	1.688452E-04
7.273622E+03	8.517772E-03	1.678528E-04
7.283465E+03	8.506217E-03	1.666819E-04
7.293307E+03	8.482978E-03	1.653249E-04
7.303150E+03	8.446930E-03	1.637667E-04
7.312992E+03	8.397755E-03	1.620078E-04
7.322835E+03	8.334708E-03	1.600402E-04
7.332677E+03	8.257462E-03	1.578638E-04
7.342520E+03	8.165884E-03	1.554815E-04
7.352362E+03	8.060192E-03	1.529021E-04
7.362205E+03	7.940638E-03	1.501344E-04
7.372047E+03	7.807740E-03	1.471910E-04
7.381890E+03	7.662422E-03	1.440912E-04
7.391732E+03	7.505885E-03	1.408585E-04
7.401575E+03	7.339697E-03	1.375220E-04
7.411417E+03	7.165307E-03	1.341077E-04
7.421260E+03	6.985013E-03	1.306564E-04
7.431102E+03	6.800815E-03	1.272026E-04
7.440945E+03	6.615351E-03	1.237920E-04
7.450787E+03	6.430917E-03	1.204629E-04
7.460630E+03	6.250018E-03	1.172551E-04
7.470472E+03	6.074924E-03	1.142043E-04
7.480315E+03	5.907652E-03	1.113420E-04
7.490157E+03	5.750145E-03	1.086996E-04
7.500000E+03	5.603931E-03	1.063012E-04
7.509843E+03	5.470374E-03	1.041694E-04
7.519685E+03	5.350250E-03	1.023164E-04
7.529528E+03	5.244026E-03	1.007495E-04
7.539370E+03	5.151364E-03	9.946152E-05
7.549213E+03	5.071527E-03	9.843797E-05
7.559055E+03	5.003944E-03	9.766803E-05
7.568898E+03	4.947792E-03	9.713628E-05
7.578740E+03	4.902311E-03	9.682866E-05
7.588583E+03	4.866762E-03	9.673159E-05
7.598425E+03	4.840496E-03	9.683333E-05
7.608268E+03	4.822743E-03	9.711972E-05
7.618110E+03	4.812842E-03	9.757867E-05
7.627953E+03	4.810211E-03	9.819960E-05
7.637795E+03	4.814206E-03	9.897045E-05
