#wls	flux	fluxerr
1.574803E+03	5.778792E-04	5.143437E-05
1.614173E+03	5.822208E-04	5.162231E-05
1.653543E+03	5.865204E-04	5.179866E-05
1.692913E+03	5.909871E-04	5.198166E-05
1.732283E+03	5.955039E-04	5.216067E-05
1.771654E+03	6.000110E-04	5.233019E-05
1.811024E+03	6.045287E-04	5.249177E-05
1.850394E+03	6.089508E-04	5.263600E-05
1.889764E+03	6.131613E-04	5.275280E-05
1.929134E+03	6.170719E-04	5.283462E-05
1.968504E+03	6.208140E-04	5.289283E-05
2.007874E+03	6.245657E-04	5.294251E-05
2.047244E+03	6.291128E-04	5.304968E-05
2.086614E+03	6.354927E-04	5.330007E-05
2.125984E+03	6.448263E-04	5.378437E-05
2.165354E+03	6.574650E-04	5.452721E-05
2.204724E+03	6.733279E-04	5.551673E-05
2.244094E+03	6.915716E-04	5.667847E-05
2.283465E+03	7.115728E-04	5.795743E-05
2.322835E+03	7.329581E-04	5.931993E-05
2.362205E+03	7.553952E-04	6.073625E-05
2.401575E+03	7.790790E-04	6.221939E-05
2.440945E+03	8.039676E-04	6.376308E-05
2.480315E+03	8.304234E-04	6.539283E-05
2.519685E+03	8.587218E-04	6.712646E-05
2.559055E+03	8.889038E-04	6.896281E-05
2.598425E+03	9.212554E-04	7.091933E-05
2.637795E+03	9.563259E-04	7.303274E-05
2.677165E+03	9.940384E-04	7.529077E-05
2.716535E+03	1.034962E-03	7.772964E-05
2.755906E+03	1.079290E-03	8.035594E-05
2.795276E+03	1.127631E-03	8.320605E-05
2.834646E+03	1.179928E-03	8.626580E-05
2.874016E+03	1.237101E-03	8.959173E-05
2.913386E+03	1.299261E-03	9.317921E-05
2.952756E+03	1.366949E-03	9.705363E-05
2.962598E+03	1.384909E-03	9.807771E-05
2.972441E+03	1.403191E-03	9.911678E-05
2.982283E+03	1.421796E-03	1.001709E-04
2.992126E+03	1.440883E-03	1.012508E-04
3.001969E+03	1.460468E-03	1.023573E-04
3.011811E+03	1.480417E-03	1.034808E-04
3.021654E+03	1.500883E-03	1.046317E-04
3.031496E+03	1.521867E-03	1.058098E-04
3.041339E+03	1.543220E-03	1.070043E-04
3.051181E+03	1.565097E-03	1.082256E-04
3.061024E+03	1.587499E-03	1.094736E-04
3.070866E+03	1.610274E-03	1.107374E-04
3.080709E+03	1.633738E-03	1.120384E-04
3.090551E+03	1.657579E-03	1.133548E-04
3.100394E+03	1.681958E-03	1.146972E-04
3.110236E+03	1.707036E-03	1.160765E-04
3.120079E+03	1.732500E-03	1.174706E-04
3.129921E+03	1.758509E-03	1.188903E-04
3.139764E+03	1.785232E-03	1.203464E-04
3.149606E+03	1.812345E-03	1.218168E-04
3.159449E+03	1.840178E-03	1.233231E-04
3.169291E+03	1.868572E-03	1.248543E-04
3.179134E+03	1.897527E-03	1.264101E-04
3.188976E+03	1.927214E-03	1.280013E-04
3.198819E+03	1.957470E-03	1.296166E-04
3.208661E+03	1.988297E-03	1.312557E-04
3.218504E+03	2.019864E-03	1.329295E-04
3.228346E+03	2.052176E-03	1.346376E-04
3.238189E+03	2.085066E-03	1.363686E-04
3.248031E+03	2.118534E-03	1.381220E-04
3.257874E+03	2.152753E-03	1.399088E-04
3.267717E+03	2.187724E-03	1.417283E-04
3.277559E+03	2.223450E-03	1.435802E-04
3.287402E+03	2.259931E-03	1.454641E-04
3.297244E+03	2.296993E-03	1.473681E-04
3.307087E+03	2.334986E-03	1.493142E-04
3.316929E+03	2.373557E-03	1.512792E-04
3.326772E+03	2.413058E-03	1.532850E-04
3.336614E+03	2.453131E-03	1.553083E-04
3.346457E+03	2.494132E-03	1.573711E-04
3.356299E+03	2.535877E-03	1.594611E-04
3.366142E+03	2.578544E-03	1.615889E-04
3.375984E+03	2.621946E-03	1.637422E-04
3.385827E+03	2.666078E-03	1.659199E-04
3.395669E+03	2.711114E-03	1.681325E-04
3.405512E+03	2.756865E-03	1.703675E-04
3.415354E+03	2.803504E-03	1.726349E-04
3.425197E+03	2.851023E-03	1.749337E-04
3.435039E+03	2.899411E-03	1.772625E-04
3.444882E+03	2.948470E-03	1.796085E-04
3.454724E+03	2.998371E-03	1.819815E-04
3.464567E+03	3.049289E-03	1.843915E-04
3.474409E+03	3.100831E-03	1.868140E-04
3.484252E+03	3.153356E-03	1.892701E-04
3.494094E+03	3.206657E-03	1.917465E-04
3.503937E+03	3.260712E-03	1.942414E-04
3.513780E+03	3.315690E-03	1.967642E-04
3.523622E+03	3.371374E-03	1.993013E-04
3.533465E+03	3.427738E-03	2.018506E-04
3.543307E+03	3.484948E-03	2.044212E-04
3.553150E+03	3.542972E-03	2.070107E-04
3.562992E+03	3.601782E-03	2.096166E-04
3.572835E+03	3.661147E-03	2.122251E-04
3.582677E+03	3.721422E-03	2.148560E-04
3.592520E+03	3.782178E-03	2.174840E-04
3.602362E+03	3.843769E-03	2.201290E-04
3.612205E+03	3.905757E-03	2.227652E-04
3.622047E+03	3.968494E-03	2.254122E-04
3.631890E+03	4.031934E-03	2.280670E-04
3.641732E+03	4.095829E-03	2.307148E-04
3.651575E+03	4.160134E-03	2.333528E-04
3.661417E+03	4.224987E-03	2.359882E-04
3.671260E+03	4.290140E-03	2.386069E-04
3.681102E+03	4.355736E-03	2.412164E-04
3.690945E+03	4.421711E-03	2.438128E-04
3.700787E+03	4.488015E-03	2.463930E-04
3.710630E+03	4.554576E-03	2.489528E-04
3.720472E+03	4.621334E-03	2.514887E-04
3.730315E+03	4.688226E-03	2.539969E-04
3.740157E+03	4.755180E-03	2.564736E-04
3.750000E+03	4.822137E-03	2.589153E-04
3.759843E+03	4.889222E-03	2.613287E-04
3.769685E+03	4.956164E-03	2.636994E-04
3.779528E+03	5.023096E-03	2.660343E-04
3.789370E+03	5.089549E-03	2.683087E-04
3.799213E+03	5.156044E-03	2.705502E-04
3.809055E+03	5.222118E-03	2.727347E-04
3.818898E+03	5.287894E-03	2.748688E-04
3.828740E+03	5.353107E-03	2.769390E-04
3.838583E+03	5.417883E-03	2.789521E-04
3.848425E+03	5.482152E-03	2.809050E-04
3.858268E+03	5.545837E-03	2.827940E-04
3.868110E+03	5.608684E-03	2.846068E-04
3.877953E+03	5.670811E-03	2.863499E-04
3.887795E+03	5.732148E-03	2.880203E-04
3.897638E+03	5.792616E-03	2.896148E-04
3.907480E+03	5.852136E-03	2.911300E-04
3.917323E+03	5.910388E-03	2.925510E-04
3.927165E+03	5.967428E-03	2.938813E-04
3.937008E+03	6.023097E-03	2.951143E-04
3.946850E+03	6.077217E-03	2.962425E-04
3.956693E+03	6.129593E-03	2.972574E-04
3.966535E+03	6.179844E-03	2.981422E-04
3.976378E+03	6.227963E-03	2.988982E-04
3.986220E+03	6.273587E-03	2.995098E-04
3.996063E+03	6.316539E-03	2.999706E-04
4.005906E+03	6.356848E-03	3.002840E-04
4.015748E+03	6.394376E-03	3.004459E-04
4.025591E+03	6.428653E-03	3.004363E-04
4.035433E+03	6.459771E-03	3.002622E-04
4.045276E+03	6.487679E-03	2.999238E-04
4.055118E+03	6.512355E-03	2.994225E-04
4.064961E+03	6.533654E-03	2.987546E-04
4.074803E+03	6.551799E-03	2.979326E-04
4.084646E+03	6.566725E-03	2.969564E-04
4.094488E+03	6.578400E-03	2.958271E-04
4.104331E+03	6.587324E-03	2.945696E-04
4.114173E+03	6.593375E-03	2.931808E-04
4.124016E+03	6.596774E-03	2.916730E-04
4.133858E+03	6.597625E-03	2.900527E-04
4.143701E+03	6.596492E-03	2.883468E-04
4.153543E+03	6.593353E-03	2.865561E-04
4.163386E+03	6.588492E-03	2.846945E-04
4.173228E+03	6.582225E-03	2.827772E-04
4.183071E+03	6.574715E-03	2.808122E-04
4.192913E+03	6.566290E-03	2.788148E-04
4.202756E+03	6.557151E-03	2.767944E-04
4.212598E+03	6.547799E-03	2.747725E-04
4.222441E+03	6.538458E-03	2.727591E-04
4.232283E+03	6.529499E-03	2.707698E-04
4.242126E+03	6.521029E-03	2.688088E-04
4.251969E+03	6.513676E-03	2.669019E-04
4.261811E+03	6.507418E-03	2.650474E-04
4.271654E+03	6.502839E-03	2.632685E-04
4.281496E+03	6.499997E-03	2.615666E-04
4.291339E+03	6.499212E-03	2.599535E-04
4.301181E+03	6.500752E-03	2.584386E-04
4.311024E+03	6.504769E-03	2.570264E-04
4.320866E+03	6.511517E-03	2.557256E-04
4.330709E+03	6.521120E-03	2.545392E-04
4.340551E+03	6.533808E-03	2.534745E-04
4.350394E+03	6.549814E-03	2.525387E-04
4.360236E+03	6.569228E-03	2.517330E-04
4.370079E+03	6.592347E-03	2.510669E-04
4.379921E+03	6.619028E-03	2.505327E-04
4.389764E+03	6.649651E-03	2.501427E-04
4.399606E+03	6.684251E-03	2.498959E-04
4.409449E+03	6.722951E-03	2.497945E-04
4.419291E+03	6.765608E-03	2.498310E-04
4.429134E+03	6.812515E-03	2.500139E-04
4.438976E+03	6.863588E-03	2.503380E-04
4.448819E+03	6.918685E-03	2.507957E-04
4.458661E+03	6.977738E-03	2.513828E-04
4.468504E+03	7.040764E-03	2.520977E-04
4.478346E+03	7.107335E-03	2.529234E-04
4.488189E+03	7.177305E-03	2.538532E-04
4.498031E+03	7.250375E-03	2.548752E-04
4.507874E+03	7.325950E-03	2.559673E-04
4.517717E+03	7.403485E-03	2.571101E-04
4.527559E+03	7.482373E-03	2.582822E-04
4.537402E+03	7.561996E-03	2.594625E-04
4.547244E+03	7.641449E-03	2.606208E-04
4.557087E+03	7.719809E-03	2.617267E-04
4.566929E+03	7.796468E-03	2.627617E-04
4.576772E+03	7.870371E-03	2.636923E-04
4.586614E+03	7.940840E-03	2.644987E-04
4.596457E+03	8.007235E-03	2.651627E-04
4.606299E+03	8.068996E-03	2.656694E-04
4.616142E+03	8.125538E-03	2.660032E-04
4.625984E+03	8.176810E-03	2.661665E-04
4.635827E+03	8.222412E-03	2.661501E-04
4.645669E+03	8.262489E-03	2.659628E-04
4.655512E+03	8.296876E-03	2.656032E-04
4.665354E+03	8.325937E-03	2.650868E-04
4.675197E+03	8.349741E-03	2.644192E-04
4.685039E+03	8.368426E-03	2.636084E-04
4.694882E+03	8.381763E-03	2.626505E-04
4.704724E+03	8.389700E-03	2.615471E-04
4.714567E+03	8.391940E-03	2.602922E-04
4.724409E+03	8.388650E-03	2.588944E-04
4.734252E+03	8.379996E-03	2.573616E-04
4.744094E+03	8.366380E-03	2.557092E-04
4.753937E+03	8.348437E-03	2.539589E-04
4.763780E+03	8.326675E-03	2.521279E-04
4.773622E+03	8.302006E-03	2.502446E-04
4.783465E+03	8.275436E-03	2.483396E-04
4.793307E+03	8.247697E-03	2.464347E-04
4.803150E+03	8.220105E-03	2.445687E-04
4.812992E+03	8.193799E-03	2.427746E-04
4.822835E+03	8.169925E-03	2.410847E-04
4.832677E+03	8.149653E-03	2.395319E-04
4.842520E+03	8.134222E-03	2.381504E-04
4.852362E+03	8.124612E-03	2.369664E-04
4.862205E+03	8.121840E-03	2.360069E-04
4.872047E+03	8.126815E-03	2.352953E-04
4.881890E+03	8.139991E-03	2.348419E-04
4.891732E+03	8.161861E-03	2.346576E-04
4.901575E+03	8.192230E-03	2.347340E-04
4.911417E+03	8.231090E-03	2.350680E-04
4.921260E+03	8.278094E-03	2.356469E-04
4.931102E+03	8.332866E-03	2.364576E-04
4.940945E+03	8.394714E-03	2.374782E-04
4.950787E+03	8.463067E-03	2.386906E-04
4.960630E+03	8.536809E-03	2.400615E-04
4.970472E+03	8.615073E-03	2.415653E-04
4.980315E+03	8.696764E-03	2.431700E-04
4.990157E+03	8.780838E-03	2.448457E-04
5.000000E+03	8.866163E-03	2.465602E-04
5.009843E+03	8.951630E-03	2.482823E-04
5.019685E+03	9.036316E-03	2.499864E-04
5.029528E+03	9.119644E-03	2.516565E-04
5.039370E+03	9.200952E-03	2.532746E-04
5.049213E+03	9.280185E-03	2.548393E-04
5.059055E+03	9.357029E-03	2.563422E-04
5.068898E+03	9.432036E-03	2.577987E-04
5.078740E+03	9.505943E-03	2.592290E-04
5.088583E+03	9.579163E-03	2.606442E-04
5.098425E+03	9.652475E-03	2.620654E-04
5.108268E+03	9.726273E-03	2.635030E-04
5.118110E+03	9.800873E-03	2.649652E-04
5.127953E+03	9.876675E-03	2.664623E-04
5.137795E+03	9.953485E-03	2.679887E-04
5.147638E+03	1.003154E-02	2.695502E-04
5.157480E+03	1.011046E-02	2.711366E-04
5.167323E+03	1.019009E-02	2.727427E-04
5.177165E+03	1.027047E-02	2.743698E-04
5.187008E+03	1.035107E-02	2.760033E-04
5.196850E+03	1.043200E-02	2.776455E-04
5.206693E+03	1.051292E-02	2.792877E-04
5.216535E+03	1.059380E-02	2.809283E-04
5.226378E+03	1.067417E-02	2.825549E-04
5.236220E+03	1.075377E-02	2.841604E-04
5.246063E+03	1.083253E-02	2.857431E-04
5.255906E+03	1.090966E-02	2.872822E-04
5.265748E+03	1.098502E-02	2.887735E-04
5.275591E+03	1.105796E-02	2.902005E-04
5.285433E+03	1.112799E-02	2.915502E-04
5.295276E+03	1.119451E-02	2.928075E-04
5.305118E+03	1.125744E-02	2.939702E-04
5.314961E+03	1.131607E-02	2.950200E-04
5.324803E+03	1.137043E-02	2.959579E-04
5.334646E+03	1.142018E-02	2.967748E-04
5.344488E+03	1.146511E-02	2.974657E-04
5.354331E+03	1.150506E-02	2.980265E-04
5.364173E+03	1.153987E-02	2.984533E-04
5.374016E+03	1.156942E-02	2.987430E-04
5.383858E+03	1.159340E-02	2.988882E-04
5.393701E+03	1.161189E-02	2.988912E-04
5.403543E+03	1.162439E-02	2.987392E-04
5.413386E+03	1.163078E-02	2.984299E-04
5.423228E+03	1.163076E-02	2.979556E-04
5.433071E+03	1.162399E-02	2.973083E-04
5.442913E+03	1.161005E-02	2.964781E-04
5.452756E+03	1.158854E-02	2.954551E-04
5.462598E+03	1.155872E-02	2.942212E-04
5.472441E+03	1.151991E-02	2.927602E-04
5.482283E+03	1.147143E-02	2.910556E-04
5.492126E+03	1.141242E-02	2.890868E-04
5.501969E+03	1.134221E-02	2.868380E-04
5.511811E+03	1.125976E-02	2.842843E-04
5.521654E+03	1.116483E-02	2.814210E-04
5.531496E+03	1.105671E-02	2.782323E-04
5.541339E+03	1.093558E-02	2.747242E-04
5.551181E+03	1.080175E-02	2.709059E-04
5.561024E+03	1.065601E-02	2.667991E-04
5.570866E+03	1.049979E-02	2.624415E-04
5.580709E+03	1.033506E-02	2.578834E-04
5.590551E+03	1.016399E-02	2.531803E-04
5.600394E+03	9.989096E-03	2.483954E-04
5.610236E+03	9.813041E-03	2.435960E-04
5.620079E+03	9.638534E-03	2.388494E-04
5.629921E+03	9.468030E-03	2.342164E-04
5.639764E+03	9.303827E-03	2.297535E-04
5.649606E+03	9.148004E-03	2.255113E-04
5.659449E+03	9.002513E-03	2.215371E-04
5.669291E+03	8.868862E-03	2.178669E-04
5.679134E+03	8.748443E-03	2.145335E-04
5.688976E+03	8.642404E-03	2.115635E-04
5.698819E+03	8.551677E-03	2.089783E-04
5.708661E+03	8.476539E-03	2.067829E-04
5.718504E+03	8.417516E-03	2.049884E-04
5.728346E+03	8.374515E-03	2.035909E-04
5.738189E+03	8.347345E-03	2.025842E-04
5.748031E+03	8.335469E-03	2.019535E-04
5.757874E+03	8.338186E-03	2.016805E-04
5.767717E+03	8.354638E-03	2.017432E-04
5.777559E+03	8.383760E-03	2.021147E-04
5.787402E+03	8.424333E-03	2.027647E-04
5.797244E+03	8.475153E-03	2.036636E-04
5.807087E+03	8.534547E-03	2.047706E-04
5.816929E+03	8.601042E-03	2.060502E-04
5.826772E+03	8.672953E-03	2.074621E-04
5.836614E+03	8.748450E-03	2.089628E-04
5.846457E+03	8.825488E-03	2.105039E-04
5.856299E+03	8.902159E-03	2.120407E-04
5.866142E+03	8.976371E-03	2.135245E-04
5.875984E+03	9.045910E-03	2.149037E-04
5.885827E+03	9.108737E-03	2.161314E-04
5.895669E+03	9.163174E-03	2.171694E-04
5.905512E+03	9.207481E-03	2.179782E-04
5.915354E+03	9.240290E-03	2.185271E-04
5.925197E+03	9.260748E-03	2.187977E-04
5.935039E+03	9.268210E-03	2.187765E-04
5.944882E+03	9.262774E-03	2.184676E-04
5.954724E+03	9.244825E-03	2.178814E-04
5.964567E+03	9.215823E-03	2.170538E-04
5.974409E+03	9.176747E-03	2.160088E-04
5.984252E+03	9.129401E-03	2.147899E-04
5.994094E+03	9.075396E-03	2.134356E-04
6.003937E+03	9.016537E-03	2.119891E-04
6.013780E+03	8.954721E-03	2.104954E-04
6.023622E+03	8.891877E-03	2.090002E-04
6.033465E+03	8.829786E-03	2.075456E-04
6.043307E+03	8.770404E-03	2.061777E-04
6.053150E+03	8.715405E-03	2.049364E-04
6.062992E+03	8.666546E-03	2.038632E-04
6.072835E+03	8.625020E-03	2.029866E-04
6.082677E+03	8.592111E-03	2.023373E-04
6.092520E+03	8.568757E-03	2.019379E-04
6.102362E+03	8.555800E-03	2.018080E-04
6.112205E+03	8.553934E-03	2.019637E-04
6.122047E+03	8.563725E-03	2.024185E-04
6.131890E+03	8.585664E-03	2.031841E-04
6.141732E+03	8.619805E-03	2.042623E-04
6.151575E+03	8.666280E-03	2.056567E-04
6.161417E+03	8.724431E-03	2.073526E-04
6.171260E+03	8.793469E-03	2.093321E-04
6.181102E+03	8.872729E-03	2.115801E-04
6.190945E+03	8.960700E-03	2.140615E-04
6.200787E+03	9.055753E-03	2.167381E-04
6.210630E+03	9.156039E-03	2.195662E-04
6.220472E+03	9.259299E-03	2.224920E-04
6.230315E+03	9.362678E-03	2.254469E-04
6.240157E+03	9.463738E-03	2.283717E-04
6.250000E+03	9.559813E-03	2.312011E-04
6.259843E+03	9.648498E-03	2.338757E-04
6.269685E+03	9.727243E-03	2.363317E-04
6.279528E+03	9.794086E-03	2.385191E-04
6.289370E+03	9.847411E-03	2.403959E-04
6.299213E+03	9.885634E-03	2.419201E-04
6.309055E+03	9.908403E-03	2.430797E-04
6.318898E+03	9.915183E-03	2.438580E-04
6.328740E+03	9.906168E-03	2.442560E-04
6.338583E+03	9.882190E-03	2.442904E-04
6.348425E+03	9.844230E-03	2.439819E-04
6.358268E+03	9.793943E-03	2.433680E-04
6.368110E+03	9.732490E-03	2.424745E-04
6.377953E+03	9.661753E-03	2.413454E-04
6.387795E+03	9.583145E-03	2.400135E-04
6.397638E+03	9.498077E-03	2.385119E-04
6.407480E+03	9.407708E-03	2.368676E-04
6.417323E+03	9.312918E-03	2.351013E-04
6.427165E+03	9.214578E-03	2.332334E-04
6.437008E+03	9.112906E-03	2.312682E-04
6.446850E+03	9.008647E-03	2.292233E-04
6.456693E+03	8.901587E-03	2.270922E-04
6.466535E+03	8.792070E-03	2.248829E-04
6.476378E+03	8.680199E-03	2.225968E-04
6.486220E+03	8.566195E-03	2.202390E-04
6.496063E+03	8.450302E-03	2.178148E-04
6.505906E+03	8.332895E-03	2.153334E-04
6.515748E+03	8.214089E-03	2.127971E-04
6.525591E+03	8.094581E-03	2.102236E-04
6.535433E+03	7.974444E-03	2.076144E-04
6.545276E+03	7.853968E-03	2.049768E-04
6.555118E+03	7.733285E-03	2.023141E-04
6.564961E+03	7.612494E-03	1.996288E-04
6.574803E+03	7.491734E-03	1.969245E-04
6.584646E+03	7.370910E-03	1.941987E-04
6.594488E+03	7.250116E-03	1.914538E-04
6.604331E+03	7.129294E-03	1.886885E-04
6.614173E+03	7.008373E-03	1.859008E-04
6.624016E+03	6.887294E-03	1.830894E-04
6.633858E+03	6.765991E-03	1.802525E-04
6.643701E+03	6.644531E-03	1.773920E-04
6.653543E+03	6.522799E-03	1.745050E-04
6.663386E+03	6.401026E-03	1.715980E-04
6.673228E+03	6.279277E-03	1.686727E-04
6.683071E+03	6.157861E-03	1.657379E-04
6.692913E+03	6.037211E-03	1.628054E-04
6.702756E+03	5.917530E-03	1.598812E-04
6.712598E+03	5.799323E-03	1.569794E-04
6.722441E+03	5.683206E-03	1.541171E-04
6.732283E+03	5.569623E-03	1.513071E-04
6.742126E+03	5.459136E-03	1.485652E-04
6.751969E+03	5.352455E-03	1.459118E-04
6.761811E+03	5.250151E-03	1.433630E-04
6.771654E+03	5.152908E-03	1.409387E-04
6.781496E+03	5.061310E-03	1.386557E-04
6.791339E+03	4.976049E-03	1.365340E-04
6.801181E+03	4.897711E-03	1.345909E-04
6.811024E+03	4.826731E-03	1.328394E-04
6.820866E+03	4.763607E-03	1.312945E-04
6.830709E+03	4.708922E-03	1.299735E-04
6.840551E+03	4.662911E-03	1.288840E-04
6.850394E+03	4.626006E-03	1.280392E-04
6.860236E+03	4.598468E-03	1.274475E-04
6.870079E+03	4.580607E-03	1.271188E-04
6.879921E+03	4.572647E-03	1.270606E-04
6.889764E+03	4.574717E-03	1.272775E-04
6.899606E+03	4.586968E-03	1.277749E-04
6.909449E+03	4.609382E-03	1.285536E-04
6.919291E+03	4.642028E-03	1.296165E-04
6.929134E+03	4.684555E-03	1.309549E-04
6.938976E+03	4.736895E-03	1.325679E-04
6.948819E+03	4.798472E-03	1.344405E-04
6.958661E+03	4.868853E-03	1.365615E-04
6.968504E+03	4.947303E-03	1.389110E-04
6.978346E+03	5.032972E-03	1.414660E-04
6.988189E+03	5.125113E-03	1.442063E-04
6.998031E+03	5.222576E-03	1.471001E-04
7.007874E+03	5.324397E-03	1.501208E-04
7.017717E+03	5.429578E-03	1.532409E-04
7.027559E+03	5.537283E-03	1.564372E-04
7.037402E+03	5.646532E-03	1.596824E-04
7.047244E+03	5.756746E-03	1.629604E-04
7.057087E+03	5.867148E-03	1.662497E-04
7.066929E+03	5.977289E-03	1.695377E-04
7.076772E+03	6.086818E-03	1.728150E-04
7.086614E+03	6.195388E-03	1.760718E-04
7.096457E+03	6.302894E-03	1.793055E-04
7.106299E+03	6.409070E-03	1.825089E-04
7.116142E+03	6.514101E-03	1.856877E-04
7.125984E+03	6.617918E-03	1.888402E-04
7.135827E+03	6.720512E-03	1.919666E-04
7.145669E+03	6.822075E-03	1.950729E-04
7.155512E+03	6.922706E-03	1.981624E-04
7.165354E+03	7.022195E-03	2.012296E-04
7.175197E+03	7.120723E-03	2.042802E-04
7.185039E+03	7.217946E-03	2.073050E-04
7.194882E+03	7.313608E-03	2.102972E-04
7.204724E+03	7.407214E-03	2.132432E-04
7.214567E+03	7.498049E-03	2.161228E-04
7.224409E+03	7.585227E-03	2.189110E-04
7.234252E+03	7.667741E-03	2.215791E-04
7.244094E+03	7.744478E-03	2.240953E-04
7.253937E+03	7.814148E-03	2.264223E-04
7.263780E+03	7.875385E-03	2.285205E-04
7.273622E+03	7.926686E-03	2.303459E-04
7.283465E+03	7.966792E-03	2.318614E-04
7.293307E+03	7.994245E-03	2.330239E-04
7.303150E+03	8.007954E-03	2.338005E-04
7.312992E+03	8.006925E-03	2.341608E-04
7.322835E+03	7.990485E-03	2.340835E-04
7.332677E+03	7.958360E-03	2.335588E-04
7.342520E+03	7.910620E-03	2.325867E-04
7.352362E+03	7.848119E-03	2.311900E-04
7.362205E+03	7.771628E-03	2.293893E-04
7.372047E+03	7.682869E-03	2.272331E-04
7.381890E+03	7.583401E-03	2.247653E-04
7.391732E+03	7.475389E-03	2.220483E-04
7.401575E+03	7.361152E-03	2.191490E-04
7.411417E+03	7.243064E-03	2.161366E-04
7.421260E+03	7.123312E-03	2.130746E-04
7.431102E+03	7.003297E-03	2.100036E-04
7.440945E+03	6.884078E-03	2.069542E-04
7.450787E+03	6.766317E-03	2.039455E-04
7.460630E+03	6.650957E-03	2.010051E-04
7.470472E+03	6.538752E-03	1.981556E-04
7.480315E+03	6.430308E-03	1.954151E-04
7.490157E+03	6.326430E-03	1.928081E-04
7.500000E+03	6.227743E-03	1.903539E-04
7.509843E+03	6.134807E-03	1.880701E-04
7.519685E+03	6.048163E-03	1.859741E-04
7.529528E+03	5.968217E-03	1.840793E-04
7.539370E+03	5.895182E-03	1.823935E-04
7.549213E+03	5.829277E-03	1.809247E-04
7.559055E+03	5.770644E-03	1.796789E-04
7.568898E+03	5.719447E-03	1.786626E-04
7.578740E+03	5.675556E-03	1.778736E-04
7.588583E+03	5.639149E-03	1.773192E-04
7.598425E+03	5.610081E-03	1.769967E-04
7.608268E+03	5.588255E-03	1.769049E-04
7.618110E+03	5.573267E-03	1.770329E-04
7.627953E+03	5.565007E-03	1.773791E-04
7.637795E+03	5.562962E-03	1.779289E-04
