#wls	flux	fluxerr
1.574803E+03	7.881641E-04	8.401647E-05
1.614173E+03	8.008187E-04	8.515725E-05
1.653543E+03	8.138658E-04	8.632724E-05
1.692913E+03	8.271717E-04	8.751161E-05
1.732283E+03	8.407208E-04	8.870804E-05
1.771654E+03	8.547184E-04	8.993750E-05
1.811024E+03	8.687574E-04	9.115643E-05
1.850394E+03	8.826775E-04	9.234754E-05
1.889764E+03	8.965965E-04	9.352276E-05
1.929134E+03	9.102251E-04	9.465151E-05
1.968504E+03	9.235858E-04	9.573591E-05
2.007874E+03	9.370875E-04	9.681798E-05
2.047244E+03	9.519081E-04	9.801836E-05
2.086614E+03	9.694963E-04	9.948378E-05
2.125984E+03	9.914670E-04	1.013758E-04
2.165354E+03	1.018938E-03	1.038026E-04
2.204724E+03	1.051232E-03	1.066884E-04
2.244094E+03	1.087601E-03	1.099510E-04
2.283465E+03	1.126597E-03	1.134384E-04
2.322835E+03	1.167806E-03	1.171046E-04
2.362205E+03	1.210875E-03	1.209102E-04
2.401575E+03	1.255550E-03	1.248262E-04
2.440945E+03	1.302109E-03	1.288762E-04
2.480315E+03	1.350727E-03	1.330734E-04
2.519685E+03	1.401817E-03	1.374538E-04
2.559055E+03	1.455194E-03	1.419938E-04
2.598425E+03	1.511696E-03	1.467696E-04
2.637795E+03	1.571341E-03	1.517765E-04
2.677165E+03	1.634346E-03	1.570281E-04
2.716535E+03	1.700917E-03	1.625368E-04
2.755906E+03	1.771492E-03	1.683360E-04
2.795276E+03	1.846037E-03	1.744135E-04
2.834646E+03	1.925238E-03	1.808243E-04
2.874016E+03	2.009050E-03	1.875536E-04
2.913386E+03	2.097922E-03	1.946317E-04
2.952756E+03	2.192045E-03	2.020642E-04
2.962598E+03	2.216392E-03	2.039758E-04
2.972441E+03	2.241235E-03	2.059239E-04
2.982283E+03	2.266303E-03	2.078835E-04
2.992126E+03	2.291879E-03	2.098803E-04
3.001969E+03	2.317707E-03	2.118905E-04
3.011811E+03	2.343807E-03	2.139159E-04
3.021654E+03	2.370456E-03	2.159814E-04
3.031496E+03	2.397369E-03	2.180609E-04
3.041339E+03	2.424829E-03	2.201797E-04
3.051181E+03	2.452834E-03	2.223376E-04
3.061024E+03	2.481099E-03	2.245081E-04
3.070866E+03	2.509616E-03	2.266907E-04
3.080709E+03	2.538677E-03	2.289113E-04
3.090551E+03	2.567987E-03	2.311431E-04
3.100394E+03	2.597839E-03	2.334123E-04
3.110236E+03	2.628237E-03	2.357187E-04
3.120079E+03	2.658879E-03	2.380351E-04
3.129921E+03	2.689763E-03	2.403611E-04
3.139764E+03	2.721189E-03	2.427233E-04
3.149606E+03	2.753160E-03	2.451217E-04
3.159449E+03	2.785370E-03	2.475285E-04
3.169291E+03	2.817813E-03	2.499432E-04
3.179134E+03	2.851114E-03	2.524208E-04
3.188976E+03	2.884333E-03	2.548779E-04
3.198819E+03	2.918413E-03	2.573976E-04
3.208661E+03	2.952404E-03	2.598956E-04
3.218504E+03	2.987260E-03	2.624558E-04
3.228346E+03	3.022341E-03	2.650217E-04
3.238189E+03	3.057644E-03	2.675925E-04
3.248031E+03	3.093818E-03	2.702251E-04
3.257874E+03	3.129883E-03	2.728331E-04
3.267717E+03	3.166823E-03	2.755024E-04
3.277559E+03	3.203644E-03	2.781461E-04
3.287402E+03	3.241340E-03	2.808503E-04
3.297244E+03	3.279244E-03	2.835567E-04
3.307087E+03	3.317690E-03	2.862940E-04
3.316929E+03	3.356336E-03	2.890324E-04
3.326772E+03	3.395519E-03	2.918008E-04
3.336614E+03	3.434895E-03	2.945690E-04
3.346457E+03	3.474804E-03	2.973660E-04
3.356299E+03	3.515244E-03	3.001915E-04
3.366142E+03	3.555864E-03	3.030149E-04
3.375984E+03	3.597009E-03	3.058657E-04
3.385827E+03	3.638677E-03	3.087431E-04
3.395669E+03	3.680510E-03	3.116164E-04
3.405512E+03	3.722857E-03	3.145151E-04
3.415354E+03	3.765355E-03	3.174081E-04
3.425197E+03	3.808359E-03	3.203251E-04
3.435039E+03	3.851863E-03	3.232653E-04
3.444882E+03	3.895499E-03	3.261974E-04
3.454724E+03	3.939624E-03	3.291511E-04
3.464567E+03	3.983862E-03	3.320949E-04
3.474409E+03	4.028949E-03	3.350896E-04
3.484252E+03	4.073761E-03	3.380414E-04
3.494094E+03	4.119409E-03	3.410425E-04
3.503937E+03	4.165136E-03	3.440297E-04
3.513780E+03	4.211310E-03	3.470333E-04
3.523622E+03	4.257541E-03	3.500208E-04
3.533465E+03	4.304200E-03	3.530225E-04
3.543307E+03	4.350892E-03	3.560058E-04
3.553150E+03	4.398378E-03	3.590328E-04
3.562992E+03	4.445875E-03	3.620390E-04
3.572835E+03	4.493369E-03	3.650234E-04
3.582677E+03	4.541235E-03	3.680162E-04
3.592520E+03	4.589463E-03	3.710162E-04
3.602362E+03	4.637646E-03	3.739905E-04
3.612205E+03	4.686161E-03	3.769693E-04
3.622047E+03	4.734999E-03	3.799515E-04
3.631890E+03	4.783745E-03	3.829037E-04
3.641732E+03	4.832775E-03	3.858560E-04
3.651575E+03	4.882086E-03	3.888078E-04
3.661417E+03	4.931252E-03	3.917251E-04
3.671260E+03	4.980251E-03	3.946061E-04
3.681102E+03	5.029878E-03	3.975139E-04
3.690945E+03	5.078891E-03	4.003498E-04
3.700787E+03	5.128499E-03	4.032094E-04
3.710630E+03	5.177860E-03	4.060263E-04
3.720472E+03	5.227365E-03	4.088310E-04
3.730315E+03	5.276576E-03	4.115893E-04
3.740157E+03	5.325888E-03	4.143322E-04
3.750000E+03	5.374860E-03	4.170251E-04
3.759843E+03	5.423887E-03	4.196990E-04
3.769685E+03	5.472936E-03	4.223510E-04
3.779528E+03	5.521574E-03	4.249481E-04
3.789370E+03	5.569766E-03	4.274875E-04
3.799213E+03	5.617906E-03	4.299997E-04
3.809055E+03	5.665960E-03	4.324823E-04
3.818898E+03	5.713483E-03	4.349013E-04
3.828740E+03	5.760866E-03	4.372867E-04
3.838583E+03	5.807649E-03	4.396038E-04
3.848425E+03	5.853796E-03	4.418502E-04
3.858268E+03	5.899690E-03	4.440553E-04
3.868110E+03	5.945294E-03	4.462163E-04
3.877953E+03	5.990133E-03	4.482979E-04
3.887795E+03	6.034574E-03	4.503280E-04
3.897638E+03	6.077705E-03	4.522390E-04
3.907480E+03	6.120729E-03	4.541210E-04
3.917323E+03	6.162285E-03	4.558735E-04
3.927165E+03	6.203557E-03	4.575846E-04
3.937008E+03	6.243161E-03	4.591530E-04
3.946850E+03	6.281839E-03	4.606341E-04
3.956693E+03	6.319052E-03	4.619892E-04
3.966535E+03	6.355107E-03	4.632415E-04
3.976378E+03	6.389466E-03	4.643529E-04
3.986220E+03	6.422023E-03	4.653168E-04
3.996063E+03	6.452683E-03	4.661276E-04
4.005906E+03	6.481785E-03	4.668111E-04
4.015748E+03	6.508831E-03	4.673326E-04
4.025591E+03	6.534199E-03	4.677205E-04
4.035433E+03	6.557001E-03	4.679127E-04
4.045276E+03	6.578074E-03	4.679705E-04
4.055118E+03	6.596994E-03	4.678652E-04
4.064961E+03	6.613789E-03	4.676001E-04
4.074803E+03	6.628924E-03	4.672095E-04
4.084646E+03	6.641635E-03	4.666411E-04
4.094488E+03	6.652826E-03	4.659598E-04
4.104331E+03	6.662188E-03	4.651451E-04
4.114173E+03	6.669829E-03	4.642060E-04
4.124016E+03	6.675879E-03	4.631527E-04
4.133858E+03	6.680465E-03	4.619951E-04
4.143701E+03	6.683737E-03	4.607448E-04
4.153543E+03	6.685834E-03	4.594122E-04
4.163386E+03	6.687314E-03	4.580365E-04
4.173228E+03	6.687537E-03	4.565746E-04
4.183071E+03	6.687056E-03	4.550651E-04
4.192913E+03	6.686037E-03	4.535197E-04
4.202756E+03	6.684646E-03	4.519503E-04
4.212598E+03	6.683032E-03	4.503673E-04
4.222441E+03	6.681362E-03	4.487822E-04
4.232283E+03	6.679790E-03	4.472055E-04
4.242126E+03	6.678467E-03	4.456474E-04
4.251969E+03	6.677157E-03	4.440922E-04
4.261811E+03	6.676763E-03	4.425998E-04
4.271654E+03	6.676657E-03	4.411284E-04
4.281496E+03	6.677340E-03	4.397109E-04
4.291339E+03	6.678555E-03	4.383301E-04
4.301181E+03	6.681151E-03	4.370414E-04
4.311024E+03	6.684485E-03	4.358020E-04
4.320866E+03	6.689011E-03	4.346414E-04
4.330709E+03	6.694807E-03	4.335637E-04
4.340551E+03	6.701580E-03	4.325496E-04
4.350394E+03	6.709757E-03	4.316260E-04
4.360236E+03	6.719036E-03	4.307730E-04
4.370079E+03	6.730170E-03	4.300380E-04
4.379921E+03	6.742121E-03	4.293540E-04
4.389764E+03	6.755987E-03	4.287904E-04
4.399606E+03	6.771062E-03	4.283014E-04
4.409449E+03	6.787343E-03	4.278864E-04
4.419291E+03	6.805178E-03	4.275666E-04
4.429134E+03	6.824527E-03	4.273389E-04
4.438976E+03	6.845003E-03	4.271782E-04
4.448819E+03	6.866884E-03	4.271014E-04
4.458661E+03	6.889741E-03	4.270814E-04
4.468504E+03	6.913462E-03	4.271109E-04
4.478346E+03	6.938271E-03	4.272033E-04
4.488189E+03	6.963658E-03	4.273270E-04
4.498031E+03	6.989786E-03	4.274920E-04
4.507874E+03	7.016092E-03	4.276636E-04
4.517717E+03	7.042687E-03	4.278488E-04
4.527559E+03	7.068956E-03	4.280105E-04
4.537402E+03	7.094614E-03	4.281321E-04
4.547244E+03	7.119715E-03	4.282175E-04
4.557087E+03	7.143263E-03	4.282076E-04
4.566929E+03	7.165993E-03	4.281475E-04
4.576772E+03	7.186576E-03	4.279591E-04
4.586614E+03	7.205450E-03	4.276697E-04
4.596457E+03	7.222032E-03	4.272464E-04
4.606299E+03	7.236124E-03	4.266790E-04
4.616142E+03	7.247924E-03	4.259809E-04
4.625984E+03	7.256976E-03	4.251272E-04
4.635827E+03	7.263222E-03	4.241161E-04
4.645669E+03	7.266643E-03	4.229486E-04
4.655512E+03	7.267607E-03	4.216478E-04
4.665354E+03	7.265817E-03	4.201982E-04
4.675197E+03	7.261030E-03	4.185876E-04
4.685039E+03	7.254364E-03	4.168821E-04
4.694882E+03	7.244930E-03	4.150321E-04
4.704724E+03	7.233212E-03	4.130669E-04
4.714567E+03	7.219698E-03	4.110156E-04
4.724409E+03	7.204250E-03	4.088716E-04
4.734252E+03	7.187069E-03	4.066475E-04
4.744094E+03	7.168392E-03	4.043576E-04
4.753937E+03	7.148485E-03	4.020178E-04
4.763780E+03	7.127956E-03	3.996629E-04
4.773622E+03	7.106482E-03	3.972753E-04
4.783465E+03	7.085079E-03	3.949122E-04
4.793307E+03	7.063826E-03	3.925781E-04
4.803150E+03	7.043170E-03	3.902976E-04
4.812992E+03	7.023575E-03	3.880962E-04
4.822835E+03	7.005501E-03	3.859980E-04
4.832677E+03	6.989711E-03	3.840441E-04
4.842520E+03	6.976002E-03	3.822219E-04
4.852362E+03	6.965361E-03	3.805841E-04
4.862205E+03	6.957793E-03	3.791292E-04
4.872047E+03	6.953243E-03	3.778527E-04
4.881890E+03	6.952492E-03	3.767951E-04
4.891732E+03	6.955309E-03	3.759423E-04
4.901575E+03	6.961702E-03	3.752927E-04
4.911417E+03	6.971880E-03	3.748559E-04
4.921260E+03	6.985070E-03	3.745887E-04
4.931102E+03	7.001618E-03	3.745080E-04
4.940945E+03	7.020586E-03	3.745624E-04
4.950787E+03	7.042185E-03	3.747619E-04
4.960630E+03	7.065648E-03	3.750645E-04
4.970472E+03	7.090473E-03	3.754428E-04
4.980315E+03	7.116136E-03	3.758685E-04
4.990157E+03	7.142120E-03	3.763137E-04
5.000000E+03	7.167929E-03	3.767524E-04
5.009843E+03	7.193458E-03	3.771787E-04
5.019685E+03	7.217764E-03	3.775435E-04
5.029528E+03	7.241237E-03	3.778673E-04
5.039370E+03	7.263468E-03	3.781291E-04
5.049213E+03	7.284461E-03	3.783293E-04
5.059055E+03	7.304329E-03	3.784741E-04
5.068898E+03	7.323250E-03	3.785731E-04
5.078740E+03	7.341462E-03	3.786385E-04
5.088583E+03	7.359520E-03	3.786992E-04
5.098425E+03	7.377367E-03	3.787520E-04
5.108268E+03	7.394901E-03	3.787918E-04
5.118110E+03	7.412920E-03	3.788591E-04
5.127953E+03	7.431237E-03	3.789442E-04
5.137795E+03	7.450233E-03	3.790661E-04
5.147638E+03	7.469309E-03	3.791942E-04
5.157480E+03	7.489076E-03	3.793592E-04
5.167323E+03	7.509171E-03	3.795424E-04
5.177165E+03	7.529523E-03	3.797399E-04
5.187008E+03	7.550048E-03	3.799475E-04
5.196850E+03	7.570663E-03	3.801605E-04
5.206693E+03	7.591579E-03	3.803896E-04
5.216535E+03	7.612079E-03	3.805987E-04
5.226378E+03	7.632683E-03	3.808137E-04
5.236220E+03	7.653298E-03	3.810298E-04
5.246063E+03	7.673171E-03	3.812095E-04
5.255906E+03	7.692819E-03	3.813787E-04
5.265748E+03	7.711788E-03	3.815148E-04
5.275591E+03	7.729930E-03	3.816107E-04
5.285433E+03	7.747080E-03	3.816583E-04
5.295276E+03	7.763065E-03	3.816494E-04
5.305118E+03	7.778010E-03	3.815904E-04
5.314961E+03	7.791389E-03	3.814556E-04
5.324803E+03	7.803304E-03	3.812506E-04
5.334646E+03	7.812867E-03	3.809323E-04
5.344488E+03	7.820475E-03	3.805208E-04
5.354331E+03	7.825539E-03	3.799878E-04
5.364173E+03	7.828098E-03	3.793360E-04
5.374016E+03	7.827541E-03	3.785365E-04
5.383858E+03	7.823573E-03	3.775758E-04
5.393701E+03	7.815878E-03	3.764398E-04
5.403543E+03	7.804452E-03	3.751292E-04
5.413386E+03	7.788650E-03	3.736141E-04
5.423228E+03	7.768131E-03	3.718794E-04
5.433071E+03	7.742866E-03	3.699252E-04
5.442913E+03	7.712178E-03	3.677202E-04
5.452756E+03	7.675710E-03	3.652491E-04
5.462598E+03	7.633415E-03	3.625113E-04
5.472441E+03	7.584628E-03	3.594768E-04
5.482283E+03	7.529013E-03	3.561315E-04
5.492126E+03	7.466585E-03	3.524781E-04
5.501969E+03	7.396798E-03	3.484926E-04
5.511811E+03	7.319500E-03	3.441699E-04
5.521654E+03	7.234956E-03	3.395245E-04
5.531496E+03	7.143267E-03	3.345631E-04
5.541339E+03	7.044142E-03	3.292739E-04
5.551181E+03	6.938914E-03	3.237211E-04
5.561024E+03	6.827401E-03	3.178979E-04
5.570866E+03	6.711028E-03	3.118721E-04
5.580709E+03	6.590790E-03	3.056911E-04
5.590551E+03	6.467551E-03	2.993958E-04
5.600394E+03	6.342506E-03	2.930422E-04
5.610236E+03	6.217127E-03	2.866985E-04
5.620079E+03	6.092336E-03	2.804072E-04
5.629921E+03	5.969501E-03	2.742309E-04
5.639764E+03	5.849407E-03	2.682049E-04
5.649606E+03	5.733203E-03	2.623811E-04
5.659449E+03	5.621444E-03	2.567835E-04
5.669291E+03	5.515026E-03	2.514520E-04
5.679134E+03	5.414258E-03	2.463992E-04
5.688976E+03	5.319788E-03	2.416528E-04
5.698819E+03	5.231700E-03	2.372152E-04
5.708661E+03	5.150416E-03	2.331037E-04
5.718504E+03	5.075833E-03	2.293119E-04
5.728346E+03	5.008177E-03	2.258484E-04
5.738189E+03	4.947188E-03	2.226998E-04
5.748031E+03	4.892942E-03	2.198679E-04
5.757874E+03	4.845261E-03	2.173430E-04
5.767717E+03	4.803703E-03	2.151039E-04
5.777559E+03	4.768190E-03	2.131457E-04
5.787402E+03	4.738201E-03	2.114437E-04
5.797244E+03	4.713567E-03	2.099892E-04
5.807087E+03	4.693889E-03	2.087634E-04
5.816929E+03	4.678546E-03	2.077377E-04
5.826772E+03	4.667261E-03	2.068989E-04
5.836614E+03	4.659358E-03	2.062164E-04
5.846457E+03	4.654523E-03	2.056758E-04
5.856299E+03	4.652233E-03	2.052533E-04
5.866142E+03	4.651776E-03	2.049174E-04
5.875984E+03	4.652827E-03	2.046535E-04
5.885827E+03	4.654711E-03	2.044318E-04
5.895669E+03	4.657355E-03	2.042492E-04
5.905512E+03	4.659988E-03	2.040719E-04
5.915354E+03	4.662290E-03	2.038861E-04
5.925197E+03	4.664407E-03	2.036985E-04
5.935039E+03	4.665820E-03	2.034866E-04
5.944882E+03	4.666501E-03	2.032495E-04
5.954724E+03	4.666905E-03	2.030074E-04
5.964567E+03	4.666839E-03	2.027521E-04
5.974409E+03	4.666588E-03	2.024961E-04
5.984252E+03	4.666932E-03	2.022736E-04
5.994094E+03	4.667944E-03	2.020878E-04
6.003937E+03	4.670346E-03	2.019700E-04
6.013780E+03	4.674713E-03	2.019450E-04
6.023622E+03	4.681448E-03	2.020301E-04
6.033465E+03	4.691546E-03	2.022683E-04
6.043307E+03	4.705210E-03	2.026680E-04
6.053150E+03	4.723009E-03	2.032534E-04
6.062992E+03	4.745859E-03	2.040638E-04
6.072835E+03	4.773856E-03	2.051024E-04
6.082677E+03	4.807605E-03	2.063947E-04
6.092520E+03	4.847470E-03	2.079555E-04
6.102362E+03	4.893725E-03	2.097960E-04
6.112205E+03	4.946323E-03	2.119133E-04
6.122047E+03	5.005507E-03	2.143175E-04
6.131890E+03	5.071184E-03	2.170040E-04
6.141732E+03	5.143154E-03	2.199636E-04
6.151575E+03	5.221077E-03	2.231813E-04
6.161417E+03	5.304473E-03	2.266364E-04
6.171260E+03	5.392472E-03	2.302912E-04
6.181102E+03	5.484499E-03	2.341209E-04
6.190945E+03	5.579581E-03	2.380838E-04
6.200787E+03	5.676574E-03	2.421309E-04
6.210630E+03	5.774165E-03	2.462061E-04
6.220472E+03	5.870632E-03	2.502358E-04
6.230315E+03	5.964868E-03	2.541728E-04
6.240157E+03	6.054678E-03	2.579237E-04
6.250000E+03	6.138577E-03	2.614252E-04
6.259843E+03	6.215116E-03	2.646156E-04
6.269685E+03	6.282143E-03	2.674034E-04
6.279528E+03	6.338191E-03	2.697262E-04
6.289370E+03	6.382563E-03	2.715545E-04
6.299213E+03	6.414038E-03	2.728362E-04
6.309055E+03	6.431988E-03	2.735449E-04
6.318898E+03	6.435862E-03	2.736569E-04
6.328740E+03	6.426250E-03	2.731975E-04
6.338583E+03	6.402985E-03	2.721595E-04
6.348425E+03	6.366979E-03	2.705816E-04
6.358268E+03	6.319372E-03	2.685123E-04
6.368110E+03	6.260660E-03	2.659724E-04
6.377953E+03	6.192241E-03	2.630213E-04
6.387795E+03	6.115278E-03	2.597084E-04
6.397638E+03	6.030917E-03	2.560822E-04
6.407480E+03	5.940251E-03	2.521889E-04
6.417323E+03	5.844274E-03	2.480707E-04
6.427165E+03	5.743870E-03	2.437650E-04
6.437008E+03	5.639813E-03	2.393045E-04
6.446850E+03	5.532763E-03	2.347171E-04
6.456693E+03	5.423280E-03	2.300267E-04
6.466535E+03	5.311613E-03	2.252436E-04
6.476378E+03	5.198639E-03	2.204051E-04
6.486220E+03	5.084490E-03	2.155167E-04
6.496063E+03	4.969500E-03	2.105926E-04
6.505906E+03	4.853982E-03	2.056459E-04
6.515748E+03	4.738247E-03	2.006900E-04
6.525591E+03	4.622582E-03	1.957371E-04
6.535433E+03	4.507084E-03	1.907912E-04
6.545276E+03	4.392440E-03	1.858815E-04
6.555118E+03	4.278733E-03	1.810116E-04
6.564961E+03	4.166235E-03	1.761931E-04
6.574803E+03	4.055218E-03	1.714375E-04
6.584646E+03	3.945939E-03	1.667558E-04
6.594488E+03	3.838636E-03	1.621580E-04
6.604331E+03	3.733537E-03	1.576540E-04
6.614173E+03	3.630849E-03	1.532523E-04
6.624016E+03	3.530759E-03	1.489611E-04
6.633858E+03	3.433588E-03	1.447938E-04
6.643701E+03	3.339184E-03	1.407440E-04
6.653543E+03	3.247834E-03	1.368239E-04
6.663386E+03	3.159656E-03	1.330385E-04
6.673228E+03	3.074889E-03	1.293978E-04
6.683071E+03	2.993356E-03	1.258942E-04
6.692913E+03	2.915407E-03	1.225424E-04
6.702756E+03	2.840862E-03	1.193349E-04
6.712598E+03	2.770048E-03	1.162852E-04
6.722441E+03	2.702787E-03	1.133857E-04
6.732283E+03	2.639387E-03	1.106493E-04
6.742126E+03	2.579788E-03	1.080733E-04
6.751969E+03	2.523942E-03	1.056554E-04
6.761811E+03	2.472131E-03	1.034073E-04
6.771654E+03	2.424297E-03	1.013264E-04
6.781496E+03	2.380492E-03	9.941442E-05
6.791339E+03	2.340764E-03	9.767318E-05
6.801181E+03	2.305153E-03	9.610409E-05
6.811024E+03	2.273695E-03	9.470828E-05
6.820866E+03	2.246421E-03	9.348664E-05
6.830709E+03	2.223452E-03	9.244387E-05
6.840551E+03	2.204609E-03	9.157209E-05
6.850394E+03	2.190005E-03	9.087553E-05
6.860236E+03	2.179647E-03	9.035409E-05
6.870079E+03	2.173635E-03	9.001135E-05
6.879921E+03	2.171771E-03	8.983862E-05
6.889764E+03	2.174141E-03	8.983896E-05
6.899606E+03	2.180822E-03	9.001497E-05
6.909449E+03	2.191589E-03	9.035682E-05
6.919291E+03	2.206594E-03	9.087015E-05
6.929134E+03	2.225581E-03	9.154389E-05
6.938976E+03	2.248673E-03	9.238244E-05
6.948819E+03	2.275678E-03	9.337728E-05
6.958661E+03	2.306378E-03	9.451889E-05
6.968504E+03	2.340845E-03	9.580961E-05
6.978346E+03	2.378718E-03	9.723412E-05
6.988189E+03	2.420040E-03	9.879352E-05
6.998031E+03	2.464521E-03	1.004754E-04
7.007874E+03	2.511849E-03	1.022665E-04
7.017717E+03	2.562043E-03	1.041672E-04
7.027559E+03	2.614660E-03	1.061589E-04
7.037402E+03	2.669722E-03	1.082420E-04
7.047244E+03	2.726776E-03	1.103978E-04
7.057087E+03	2.785859E-03	1.126274E-04
7.066929E+03	2.846516E-03	1.149121E-04
7.076772E+03	2.908804E-03	1.172539E-04
7.086614E+03	2.972268E-03	1.196341E-04
7.096457E+03	3.036842E-03	1.220500E-04
7.106299E+03	3.102473E-03	1.244992E-04
7.116142E+03	3.168682E-03	1.269624E-04
7.125984E+03	3.235396E-03	1.294367E-04
7.135827E+03	3.302397E-03	1.319131E-04
7.145669E+03	3.369444E-03	1.343822E-04
7.155512E+03	3.436278E-03	1.368338E-04
7.165354E+03	3.502618E-03	1.392568E-04
7.175197E+03	3.567986E-03	1.416324E-04
7.185039E+03	3.632362E-03	1.439602E-04
7.194882E+03	3.695207E-03	1.462192E-04
7.204724E+03	3.755932E-03	1.483866E-04
7.214567E+03	3.814253E-03	1.504516E-04
7.224409E+03	3.869685E-03	1.523960E-04
7.234252E+03	3.921892E-03	1.542071E-04
7.244094E+03	3.969788E-03	1.558433E-04
7.253937E+03	4.013356E-03	1.573048E-04
7.263780E+03	4.051843E-03	1.585633E-04
7.273622E+03	4.084494E-03	1.595904E-04
7.283465E+03	4.111133E-03	1.603806E-04
7.293307E+03	4.130865E-03	1.609003E-04
7.303150E+03	4.143414E-03	1.611404E-04
7.312992E+03	4.148199E-03	1.610798E-04
7.322835E+03	4.145310E-03	1.607236E-04
7.332677E+03	4.134181E-03	1.600515E-04
7.342520E+03	4.115146E-03	1.590780E-04
7.352362E+03	4.087913E-03	1.577935E-04
7.362205E+03	4.052913E-03	1.562160E-04
7.372047E+03	4.010344E-03	1.543546E-04
7.381890E+03	3.961108E-03	1.522454E-04
7.391732E+03	3.905487E-03	1.499004E-04
7.401575E+03	3.844436E-03	1.473572E-04
7.411417E+03	3.778640E-03	1.446429E-04
7.421260E+03	3.709393E-03	1.418077E-04
7.431102E+03	3.637337E-03	1.388765E-04
7.440945E+03	3.563679E-03	1.358958E-04
7.450787E+03	3.489467E-03	1.329056E-04
7.460630E+03	3.415584E-03	1.299394E-04
7.470472E+03	3.343378E-03	1.270483E-04
7.480315E+03	3.273508E-03	1.242570E-04
7.490157E+03	3.206895E-03	1.215997E-04
7.500000E+03	3.144668E-03	1.191184E-04
7.509843E+03	3.087221E-03	1.168270E-04
7.519685E+03	3.035254E-03	1.147510E-04
7.529528E+03	2.988937E-03	1.128958E-04
7.539370E+03	2.948616E-03	1.112735E-04
7.549213E+03	2.913926E-03	1.098694E-04
7.559055E+03	2.884704E-03	1.086765E-04
7.568898E+03	2.860999E-03	1.076958E-04
7.578740E+03	2.842269E-03	1.069061E-04
7.588583E+03	2.828360E-03	1.063010E-04
7.598425E+03	2.818827E-03	1.058631E-04
7.608268E+03	2.813477E-03	1.055846E-04
7.618110E+03	2.811966E-03	1.054521E-04
7.627953E+03	2.813933E-03	1.054514E-04
7.637795E+03	2.818862E-03	1.055628E-04
