#wls	flux	fluxerr
1.574803E+03	7.790161E-04	1.917804E-04
1.614173E+03	7.988074E-04	1.966461E-04
1.653543E+03	8.189156E-04	2.015892E-04
1.692913E+03	8.396260E-04	2.066801E-04
1.732283E+03	8.607759E-04	2.118786E-04
1.771654E+03	8.822706E-04	2.171614E-04
1.811024E+03	9.039702E-04	2.224940E-04
1.850394E+03	9.258542E-04	2.278713E-04
1.889764E+03	9.475537E-04	2.332026E-04
1.929134E+03	9.688860E-04	2.384429E-04
1.968504E+03	9.898395E-04	2.435892E-04
2.007874E+03	1.010997E-03	2.487852E-04
2.047244E+03	1.033272E-03	2.542552E-04
2.086614E+03	1.058402E-03	2.604270E-04
2.125984E+03	1.088173E-03	2.677401E-04
2.165354E+03	1.123692E-03	2.764660E-04
2.204724E+03	1.164399E-03	2.864675E-04
2.244094E+03	1.209098E-03	2.974495E-04
2.283465E+03	1.256515E-03	3.090987E-04
2.322835E+03	1.305970E-03	3.212480E-04
2.362205E+03	1.356773E-03	3.337269E-04
2.401575E+03	1.408753E-03	3.464936E-04
2.440945E+03	1.462167E-03	3.596112E-04
2.480315E+03	1.516871E-03	3.730443E-04
2.519685E+03	1.572987E-03	3.868225E-04
2.559055E+03	1.630637E-03	4.009759E-04
2.598425E+03	1.690221E-03	4.156030E-04
2.637795E+03	1.751568E-03	4.306610E-04
2.677165E+03	1.814757E-03	4.461694E-04
2.716535E+03	1.880169E-03	4.622221E-04
2.755906E+03	1.947551E-03	4.787565E-04
2.795276E+03	2.016932E-03	4.957793E-04
2.834646E+03	2.088321E-03	5.132929E-04
2.874016E+03	2.162075E-03	5.313851E-04
2.913386E+03	2.237831E-03	5.499659E-04
2.952756E+03	2.315542E-03	5.690242E-04
2.962598E+03	2.335073E-03	5.738136E-04
2.972441E+03	2.355113E-03	5.787277E-04
2.982283E+03	2.375271E-03	5.836709E-04
2.992126E+03	2.395152E-03	5.885456E-04
3.001969E+03	2.415570E-03	5.935522E-04
3.011811E+03	2.436148E-03	5.985977E-04
3.021654E+03	2.456466E-03	6.035792E-04
3.031496E+03	2.477335E-03	6.086959E-04
3.041339E+03	2.498342E-03	6.138461E-04
3.051181E+03	2.519060E-03	6.189252E-04
3.061024E+03	2.540319E-03	6.241371E-04
3.070866E+03	2.561698E-03	6.293780E-04
3.080709E+03	2.583189E-03	6.346465E-04
3.090551E+03	2.604356E-03	6.398350E-04
3.100394E+03	2.626056E-03	6.451540E-04
3.110236E+03	2.647853E-03	6.504968E-04
3.120079E+03	2.669743E-03	6.558622E-04
3.129921E+03	2.691721E-03	6.612490E-04
3.139764E+03	2.713783E-03	6.666561E-04
3.149606E+03	2.735470E-03	6.719710E-04
3.159449E+03	2.757682E-03	6.774144E-04
3.169291E+03	2.779963E-03	6.828748E-04
3.179134E+03	2.802311E-03	6.883512E-04
3.188976E+03	2.824721E-03	6.938425E-04
3.198819E+03	2.847188E-03	6.993477E-04
3.208661E+03	2.869708E-03	7.048656E-04
3.218504E+03	2.892277E-03	7.103954E-04
3.228346E+03	2.914892E-03	7.159361E-04
3.238189E+03	2.937548E-03	7.214865E-04
3.248031E+03	2.960240E-03	7.270457E-04
3.257874E+03	2.982965E-03	7.326127E-04
3.267717E+03	3.005718E-03	7.381864E-04
3.277559E+03	3.028496E-03	7.437659E-04
3.287402E+03	3.051294E-03	7.493500E-04
3.297244E+03	3.074108E-03	7.549378E-04
3.307087E+03	3.096934E-03	7.605281E-04
3.316929E+03	3.119766E-03	7.661199E-04
3.326772E+03	3.142601E-03	7.717122E-04
3.336614E+03	3.165435E-03	7.773037E-04
3.346457E+03	3.188262E-03	7.828934E-04
3.356299E+03	3.211079E-03	7.884802E-04
3.366142E+03	3.233879E-03	7.940630E-04
3.375984E+03	3.257191E-03	7.997708E-04
3.385827E+03	3.279950E-03	8.053427E-04
3.395669E+03	3.302678E-03	8.109068E-04
3.405512E+03	3.325372E-03	8.164621E-04
3.415354E+03	3.348024E-03	8.220072E-04
3.425197E+03	3.370632E-03	8.275409E-04
3.435039E+03	3.393740E-03	8.331971E-04
3.444882E+03	3.416243E-03	8.387048E-04
3.454724E+03	3.438686E-03	8.441971E-04
3.464567E+03	3.461061E-03	8.496727E-04
3.474409E+03	3.483363E-03	8.551301E-04
3.484252E+03	3.506154E-03	8.607072E-04
3.494094E+03	3.528296E-03	8.661248E-04
3.503937E+03	3.550348E-03	8.715199E-04
3.513780E+03	3.572303E-03	8.768911E-04
3.523622E+03	3.594156E-03	8.822369E-04
3.533465E+03	3.616483E-03	8.876989E-04
3.543307E+03	3.638115E-03	8.929900E-04
3.553150E+03	3.659625E-03	8.982508E-04
3.562992E+03	3.681600E-03	9.036256E-04
3.572835E+03	3.702850E-03	9.088222E-04
3.582677E+03	3.723959E-03	9.139839E-04
3.592520E+03	3.744920E-03	9.191089E-04
3.602362E+03	3.766330E-03	9.243441E-04
3.612205E+03	3.786976E-03	9.293916E-04
3.622047E+03	3.807454E-03	9.343972E-04
3.631890E+03	3.827755E-03	9.393595E-04
3.641732E+03	3.848488E-03	9.444276E-04
3.651575E+03	3.868418E-03	9.492982E-04
3.661417E+03	3.888150E-03	9.541201E-04
3.671260E+03	3.908301E-03	9.590445E-04
3.681102E+03	3.927616E-03	9.637638E-04
3.690945E+03	3.946712E-03	9.684288E-04
3.700787E+03	3.966212E-03	9.731928E-04
3.710630E+03	3.984845E-03	9.777441E-04
3.720472E+03	4.003236E-03	9.822355E-04
3.730315E+03	4.021374E-03	9.866649E-04
3.740157E+03	4.039896E-03	9.911882E-04
3.750000E+03	4.057511E-03	9.954887E-04
3.759843E+03	4.074851E-03	9.997215E-04
3.769685E+03	4.092557E-03	1.004044E-03
3.779528E+03	4.109324E-03	1.008136E-03
3.789370E+03	4.125793E-03	1.012154E-03
3.799213E+03	4.142610E-03	1.016258E-03
3.809055E+03	4.158457E-03	1.020124E-03
3.818898E+03	4.173981E-03	1.023910E-03
3.828740E+03	4.189834E-03	1.027777E-03
3.838583E+03	4.204687E-03	1.031398E-03
3.848425E+03	4.219192E-03	1.034934E-03
3.858268E+03	4.233340E-03	1.038382E-03
3.868110E+03	4.247792E-03	1.041905E-03
3.877953E+03	4.261203E-03	1.045172E-03
3.887795E+03	4.274233E-03	1.048345E-03
3.897638E+03	4.287546E-03	1.051588E-03
3.907480E+03	4.299788E-03	1.054568E-03
3.917323E+03	4.311624E-03	1.057448E-03
3.927165E+03	4.323044E-03	1.060227E-03
3.937008E+03	4.334721E-03	1.063068E-03
3.946850E+03	4.345287E-03	1.065636E-03
3.956693E+03	4.355413E-03	1.068097E-03
3.966535E+03	4.365090E-03	1.070447E-03
3.976378E+03	4.374996E-03	1.072853E-03
3.986220E+03	4.383753E-03	1.074978E-03
3.996063E+03	4.392037E-03	1.076986E-03
4.005906E+03	4.399840E-03	1.078877E-03
4.015748E+03	4.407153E-03	1.080647E-03
4.025591E+03	4.414656E-03	1.082464E-03
4.035433E+03	4.420967E-03	1.083989E-03
4.045276E+03	4.426763E-03	1.085387E-03
4.055118E+03	4.432038E-03	1.086657E-03
4.064961E+03	4.436783E-03	1.087798E-03
4.074803E+03	4.441682E-03	1.088976E-03
4.084646E+03	4.445344E-03	1.089851E-03
4.094488E+03	4.448454E-03	1.090591E-03
4.104331E+03	4.451004E-03	1.091193E-03
4.114173E+03	4.452985E-03	1.091656E-03
4.124016E+03	4.454391E-03	1.091978E-03
4.133858E+03	4.455215E-03	1.092158E-03
4.143701E+03	4.455448E-03	1.092192E-03
4.153543E+03	4.455085E-03	1.092081E-03
4.163386E+03	4.454806E-03	1.091990E-03
4.173228E+03	4.453228E-03	1.091581E-03
4.183071E+03	4.451033E-03	1.091021E-03
4.192913E+03	4.448214E-03	1.090307E-03
4.202756E+03	4.444766E-03	1.089440E-03
4.212598E+03	4.440682E-03	1.088417E-03
4.222441E+03	4.435956E-03	1.087237E-03
4.232283E+03	4.430584E-03	1.085898E-03
4.242126E+03	4.424559E-03	1.084400E-03
4.251969E+03	4.417877E-03	1.082741E-03
4.261811E+03	4.409855E-03	1.080753E-03
4.271654E+03	4.401847E-03	1.078769E-03
4.281496E+03	4.393167E-03	1.076621E-03
4.291339E+03	4.383814E-03	1.074308E-03
4.301181E+03	4.373784E-03	1.071829E-03
4.311024E+03	4.363075E-03	1.069184E-03
4.320866E+03	4.351683E-03	1.066372E-03
4.330709E+03	4.339608E-03	1.063392E-03
4.340551E+03	4.326186E-03	1.060083E-03
4.350394E+03	4.312743E-03	1.056769E-03
4.360236E+03	4.298616E-03	1.053287E-03
4.370079E+03	4.283806E-03	1.049638E-03
4.379921E+03	4.267663E-03	1.045664E-03
4.389764E+03	4.251497E-03	1.041683E-03
4.399606E+03	4.234658E-03	1.037538E-03
4.409449E+03	4.217152E-03	1.033230E-03
4.419291E+03	4.198348E-03	1.028604E-03
4.429134E+03	4.179537E-03	1.023977E-03
4.438976E+03	4.160087E-03	1.019193E-03
4.448819E+03	4.139384E-03	1.014103E-03
4.458661E+03	4.118706E-03	1.009019E-03
4.468504E+03	4.096818E-03	1.003639E-03
4.478346E+03	4.074991E-03	9.982744E-04
4.488189E+03	4.052012E-03	9.926278E-04
4.498031E+03	4.029144E-03	9.870088E-04
4.507874E+03	4.005805E-03	9.812746E-04
4.517717E+03	3.981433E-03	9.752877E-04
4.527559E+03	3.956683E-03	9.692087E-04
4.537402E+03	3.932202E-03	9.631960E-04
4.547244E+03	3.906855E-03	9.569713E-04
4.557087E+03	3.881889E-03	9.508404E-04
4.566929E+03	3.856197E-03	9.445319E-04
4.576772E+03	3.831022E-03	9.383505E-04
4.586614E+03	3.805284E-03	9.320316E-04
4.596457E+03	3.779653E-03	9.257391E-04
4.606299E+03	3.754218E-03	9.194949E-04
4.616142E+03	3.729635E-03	9.134601E-04
4.625984E+03	3.704878E-03	9.073825E-04
4.635827E+03	3.680611E-03	9.014256E-04
4.645669E+03	3.656938E-03	8.956145E-04
4.655512E+03	3.634510E-03	8.901085E-04
4.665354E+03	3.612334E-03	8.846647E-04
4.675197E+03	3.591064E-03	8.794429E-04
4.685039E+03	3.570800E-03	8.744680E-04
4.694882E+03	3.551642E-03	8.697640E-04
4.704724E+03	3.533684E-03	8.653542E-04
4.714567E+03	3.517015E-03	8.612606E-04
4.724409E+03	3.501724E-03	8.575043E-04
4.734252E+03	3.487888E-03	8.541049E-04
4.744094E+03	3.475583E-03	8.510804E-04
4.753937E+03	3.464875E-03	8.484472E-04
4.763780E+03	3.455825E-03	8.462202E-04
4.773622E+03	3.448485E-03	8.444121E-04
4.783465E+03	3.442900E-03	8.430342E-04
4.793307E+03	3.439109E-03	8.420953E-04
4.803150E+03	3.437140E-03	8.416029E-04
4.812992E+03	3.437014E-03	8.415620E-04
4.822835E+03	3.438230E-03	8.418498E-04
4.832677E+03	3.441819E-03	8.427186E-04
4.842520E+03	3.447261E-03	8.440413E-04
4.852362E+03	3.454544E-03	8.458148E-04
4.862205E+03	3.463128E-03	8.479071E-04
4.872047E+03	3.474013E-03	8.505627E-04
4.881890E+03	3.486642E-03	8.536456E-04
4.891732E+03	3.500446E-03	8.570159E-04
4.901575E+03	3.516404E-03	8.609137E-04
4.911417E+03	3.533404E-03	8.650669E-04
4.921260E+03	3.552420E-03	8.697133E-04
4.931102E+03	3.572841E-03	8.747041E-04
4.940945E+03	3.594042E-03	8.798856E-04
4.950787E+03	3.616985E-03	8.854938E-04
4.960630E+03	3.640492E-03	8.912400E-04
4.970472E+03	3.664979E-03	8.972263E-04
4.980315E+03	3.690872E-03	9.035567E-04
4.990157E+03	3.716953E-03	9.099329E-04
5.000000E+03	3.744184E-03	9.165908E-04
5.009843E+03	3.771322E-03	9.232260E-04
5.019685E+03	3.798775E-03	9.299383E-04
5.029528E+03	3.826394E-03	9.366915E-04
5.039370E+03	3.854601E-03	9.435883E-04
5.049213E+03	3.882104E-03	9.503128E-04
5.059055E+03	3.909311E-03	9.569651E-04
5.068898E+03	3.936063E-03	9.635060E-04
5.078740E+03	3.962198E-03	9.698958E-04
5.088583E+03	3.988142E-03	9.762387E-04
5.098425E+03	4.012553E-03	9.822067E-04
5.108268E+03	4.035853E-03	9.879027E-04
5.118110E+03	4.057877E-03	9.932862E-04
5.127953E+03	4.078460E-03	9.983174E-04
5.137795E+03	4.097443E-03	1.002957E-03
5.147638E+03	4.114668E-03	1.007166E-03
5.157480E+03	4.129986E-03	1.010908E-03
5.167323E+03	4.143253E-03	1.014149E-03
5.177165E+03	4.153722E-03	1.016705E-03
5.187008E+03	4.162494E-03	1.018845E-03
5.196850E+03	4.168848E-03	1.020394E-03
5.206693E+03	4.172685E-03	1.021327E-03
5.216535E+03	4.173926E-03	1.021625E-03
5.226378E+03	4.172504E-03	1.021270E-03
5.236220E+03	4.167758E-03	1.020103E-03
5.246063E+03	4.160884E-03	1.018415E-03
5.255906E+03	4.151256E-03	1.016053E-03
5.265748E+03	4.138270E-03	1.012868E-03
5.275591E+03	4.123166E-03	1.009166E-03
5.285433E+03	4.105371E-03	1.004806E-03
5.295276E+03	4.084338E-03	9.996530E-04
5.305118E+03	4.061337E-03	9.940186E-04
5.314961E+03	4.035253E-03	9.876298E-04
5.324803E+03	4.007364E-03	9.807995E-04
5.334646E+03	3.976589E-03	9.732631E-04
5.344488E+03	3.944207E-03	9.653336E-04
5.354331E+03	3.909169E-03	9.567542E-04
5.364173E+03	3.872743E-03	9.478352E-04
5.374016E+03	3.833907E-03	9.383265E-04
5.383858E+03	3.793354E-03	9.283979E-04
5.393701E+03	3.751754E-03	9.182133E-04
5.403543E+03	3.708118E-03	9.075306E-04
5.413386E+03	3.663121E-03	8.965149E-04
5.423228E+03	3.617404E-03	8.853234E-04
5.433071E+03	3.570015E-03	8.737225E-04
5.442913E+03	3.521596E-03	8.618702E-04
5.452756E+03	3.472255E-03	8.497922E-04
5.462598E+03	3.422598E-03	8.376370E-04
5.472441E+03	3.371718E-03	8.251828E-04
5.482283E+03	3.320228E-03	8.125793E-04
5.492126E+03	3.268231E-03	7.998519E-04
5.501969E+03	3.215830E-03	7.870261E-04
5.511811E+03	3.163135E-03	7.741282E-04
5.521654E+03	3.110253E-03	7.611847E-04
5.531496E+03	3.057296E-03	7.482233E-04
5.541339E+03	3.004381E-03	7.352719E-04
5.551181E+03	2.951623E-03	7.223595E-04
5.561024E+03	2.899146E-03	7.095158E-04
5.570866E+03	2.847072E-03	6.967707E-04
5.580709E+03	2.795525E-03	6.841549E-04
5.590551E+03	2.744631E-03	6.716989E-04
5.600394E+03	2.694513E-03	6.594333E-04
5.610236E+03	2.644911E-03	6.472937E-04
5.620079E+03	2.596723E-03	6.355005E-04
5.629921E+03	2.549674E-03	6.239860E-04
5.639764E+03	2.503875E-03	6.127775E-04
5.649606E+03	2.459432E-03	6.019009E-04
5.659449E+03	2.416091E-03	5.912943E-04
5.669291E+03	2.374657E-03	5.811543E-04
5.679134E+03	2.334854E-03	5.714137E-04
5.688976E+03	2.296422E-03	5.620087E-04
5.698819E+03	2.260106E-03	5.531215E-04
5.708661E+03	2.225622E-03	5.446827E-04
5.718504E+03	2.192701E-03	5.366267E-04
5.728346E+03	2.162031E-03	5.291214E-04
5.738189E+03	2.133009E-03	5.220198E-04
5.748031E+03	2.106292E-03	5.154819E-04
5.757874E+03	2.081281E-03	5.093619E-04
5.767717E+03	2.058603E-03	5.038130E-04
5.777559E+03	2.037666E-03	4.986901E-04
5.787402E+03	2.019075E-03	4.941416E-04
5.797244E+03	2.002244E-03	4.900236E-04
5.807087E+03	1.987761E-03	4.864805E-04
5.816929E+03	1.975047E-03	4.833705E-04
5.826772E+03	1.964397E-03	4.807655E-04
5.836614E+03	1.956098E-03	4.787360E-04
5.846457E+03	1.949584E-03	4.771436E-04
5.856299E+03	1.945151E-03	4.760604E-04
5.866142E+03	1.943094E-03	4.755588E-04
5.875984E+03	1.942863E-03	4.755043E-04
5.885827E+03	1.944764E-03	4.759715E-04
5.895669E+03	1.948825E-03	4.769677E-04
5.905512E+03	1.955367E-03	4.785710E-04
5.915354E+03	1.963863E-03	4.806528E-04
5.925197E+03	1.974645E-03	4.832942E-04
5.935039E+03	1.987770E-03	4.865091E-04
5.944882E+03	2.003300E-03	4.903129E-04
5.954724E+03	2.021307E-03	4.947230E-04
5.964567E+03	2.042162E-03	4.998304E-04
5.974409E+03	2.065357E-03	5.055104E-04
5.984252E+03	2.091269E-03	5.118559E-04
5.994094E+03	2.119987E-03	5.188882E-04
6.003937E+03	2.151600E-03	5.266293E-04
6.013780E+03	2.186194E-03	5.351004E-04
6.023622E+03	2.223854E-03	5.443222E-04
6.033465E+03	2.264656E-03	5.543133E-04
6.043307E+03	2.308669E-03	5.650904E-04
6.053150E+03	2.355944E-03	5.766664E-04
6.062992E+03	2.406518E-03	5.890502E-04
6.072835E+03	2.460404E-03	6.022451E-04
6.082677E+03	2.517221E-03	6.161577E-04
6.092520E+03	2.577646E-03	6.309540E-04
6.102362E+03	2.641237E-03	6.465255E-04
6.112205E+03	2.707863E-03	6.628405E-04
6.122047E+03	2.777346E-03	6.798553E-04
6.131890E+03	2.849452E-03	6.975126E-04
6.141732E+03	2.923460E-03	7.156361E-04
6.151575E+03	2.999853E-03	7.343438E-04
6.161417E+03	3.077790E-03	7.534302E-04
6.171260E+03	3.156777E-03	7.727741E-04
6.181102E+03	3.235778E-03	7.921220E-04
6.190945E+03	3.315096E-03	8.115480E-04
6.200787E+03	3.393578E-03	8.307701E-04
6.210630E+03	3.469973E-03	8.494819E-04
6.220472E+03	3.544492E-03	8.677350E-04
6.230315E+03	3.615818E-03	8.852070E-04
6.240157E+03	3.682577E-03	9.015615E-04
6.250000E+03	3.744997E-03	9.168544E-04
6.259843E+03	3.801735E-03	9.307567E-04
6.269685E+03	3.851453E-03	9.429409E-04
6.279528E+03	3.894553E-03	9.535051E-04
6.289370E+03	3.929270E-03	9.620175E-04
6.299213E+03	3.956209E-03	9.686259E-04
6.309055E+03	3.973793E-03	9.729442E-04
6.318898E+03	3.982878E-03	9.751817E-04
6.328740E+03	3.982132E-03	9.750126E-04
6.338583E+03	3.972683E-03	9.727127E-04
6.348425E+03	3.953469E-03	9.680218E-04
6.358268E+03	3.925875E-03	9.612790E-04
6.368110E+03	3.889101E-03	9.522883E-04
6.377953E+03	3.844743E-03	9.414405E-04
6.387795E+03	3.792224E-03	9.285942E-04
6.397638E+03	3.733286E-03	9.141758E-04
6.407480E+03	3.667518E-03	8.980845E-04
6.417323E+03	3.596203E-03	8.806346E-04
6.427165E+03	3.520608E-03	8.621364E-04
6.437008E+03	3.440455E-03	8.425212E-04
6.446850E+03	3.357021E-03	8.221022E-04
6.456693E+03	3.271517E-03	8.011757E-04
6.466535E+03	3.183675E-03	7.796762E-04
6.476378E+03	3.094647E-03	7.578856E-04
6.486220E+03	3.005486E-03	7.360618E-04
6.496063E+03	2.915865E-03	7.141245E-04
6.505906E+03	2.826743E-03	6.923091E-04
6.515748E+03	2.738576E-03	6.707267E-04
6.525591E+03	2.652149E-03	6.495701E-04
6.535433E+03	2.567022E-03	6.287311E-04
6.545276E+03	2.483890E-03	6.083801E-04
6.555118E+03	2.403000E-03	5.885778E-04
6.564961E+03	2.324555E-03	5.693737E-04
6.574803E+03	2.248719E-03	5.508078E-04
6.584646E+03	2.175933E-03	5.329888E-04
6.594488E+03	2.105646E-03	5.157810E-04
6.604331E+03	2.038249E-03	4.992809E-04
6.614173E+03	1.973783E-03	4.834980E-04
6.624016E+03	1.912265E-03	4.684368E-04
6.633858E+03	1.853693E-03	4.540970E-04
6.643701E+03	1.798053E-03	4.404748E-04
6.653543E+03	1.745316E-03	4.275632E-04
6.663386E+03	1.695443E-03	4.153529E-04
6.673228E+03	1.648388E-03	4.038326E-04
6.683071E+03	1.604098E-03	3.929893E-04
6.692913E+03	1.562517E-03	3.828094E-04
6.702756E+03	1.523586E-03	3.732783E-04
6.712598E+03	1.487243E-03	3.643810E-04
6.722441E+03	1.453427E-03	3.561027E-04
6.732283E+03	1.422078E-03	3.484284E-04
6.742126E+03	1.393135E-03	3.413431E-04
6.751969E+03	1.366539E-03	3.348331E-04
6.761811E+03	1.342235E-03	3.288842E-04
6.771654E+03	1.320170E-03	3.234838E-04
6.781496E+03	1.300293E-03	3.186192E-04
6.791339E+03	1.282556E-03	3.142791E-04
6.801181E+03	1.266916E-03	3.104525E-04
6.811024E+03	1.253332E-03	3.071297E-04
6.820866E+03	1.241586E-03	3.042572E-04
6.830709E+03	1.232011E-03	3.019164E-04
6.840551E+03	1.224392E-03	3.000551E-04
6.850394E+03	1.218704E-03	2.986669E-04
6.860236E+03	1.214924E-03	2.977465E-04
6.870079E+03	1.212857E-03	2.972457E-04
6.879921E+03	1.212843E-03	2.972479E-04
6.889764E+03	1.214690E-03	2.977065E-04
6.899606E+03	1.218391E-03	2.986192E-04
6.909449E+03	1.223937E-03	2.999845E-04
6.919291E+03	1.231145E-03	3.017569E-04
6.929134E+03	1.240372E-03	3.040246E-04
6.938976E+03	1.251441E-03	3.067436E-04
6.948819E+03	1.264164E-03	3.098684E-04
6.958661E+03	1.278917E-03	3.134906E-04
6.968504E+03	1.295517E-03	3.175659E-04
6.978346E+03	1.313775E-03	3.220478E-04
6.988189E+03	1.334077E-03	3.270311E-04
6.998031E+03	1.356237E-03	3.324697E-04
7.007874E+03	1.380049E-03	3.383138E-04
7.017717E+03	1.405916E-03	3.446618E-04
7.027559E+03	1.433420E-03	3.514115E-04
7.037402E+03	1.462971E-03	3.586633E-04
7.047244E+03	1.494348E-03	3.663628E-04
7.057087E+03	1.527304E-03	3.744499E-04
7.066929E+03	1.562256E-03	3.830270E-04
7.076772E+03	1.598715E-03	3.919735E-04
7.086614E+03	1.637099E-03	4.013925E-04
7.096457E+03	1.676876E-03	4.111534E-04
7.106299E+03	1.718466E-03	4.213593E-04
7.116142E+03	1.761287E-03	4.318675E-04
7.125984E+03	1.805757E-03	4.427803E-04
7.135827E+03	1.851236E-03	4.539412E-04
7.145669E+03	1.898139E-03	4.654514E-04
7.155512E+03	1.945762E-03	4.771387E-04
7.165354E+03	1.994507E-03	4.891019E-04
7.175197E+03	2.043607E-03	5.011524E-04
7.185039E+03	2.093141E-03	5.133098E-04
7.194882E+03	2.143199E-03	5.255962E-04
7.204724E+03	2.192905E-03	5.377968E-04
7.214567E+03	2.242631E-03	5.500029E-04
7.224409E+03	2.291435E-03	5.619831E-04
7.234252E+03	2.339335E-03	5.737423E-04
7.244094E+03	2.386366E-03	5.852888E-04
7.253937E+03	2.431498E-03	5.963698E-04
7.263780E+03	2.474740E-03	6.069876E-04
7.273622E+03	2.516125E-03	6.171506E-04
7.283465E+03	2.554577E-03	6.265944E-04
7.293307E+03	2.590136E-03	6.353292E-04
7.303150E+03	2.622492E-03	6.432785E-04
7.312992E+03	2.651751E-03	6.504682E-04
7.322835E+03	2.676869E-03	6.566427E-04
7.332677E+03	2.698014E-03	6.618426E-04
7.342520E+03	2.715003E-03	6.660235E-04
7.352362E+03	2.727703E-03	6.691521E-04
7.362205E+03	2.736435E-03	6.713074E-04
7.372047E+03	2.740356E-03	6.722825E-04
7.381890E+03	2.739893E-03	6.721822E-04
7.391732E+03	2.735125E-03	6.710256E-04
7.401575E+03	2.726178E-03	6.688438E-04
7.411417E+03	2.713232E-03	6.656807E-04
7.421260E+03	2.696910E-03	6.616891E-04
7.431102E+03	2.676666E-03	6.567350E-04
7.440945E+03	2.653196E-03	6.509891E-04
7.450787E+03	2.626815E-03	6.445289E-04
7.460630E+03	2.597858E-03	6.374363E-04
7.470472E+03	2.566669E-03	6.297955E-04
7.480315E+03	2.533591E-03	6.216911E-04
7.490157E+03	2.498966E-03	6.132068E-04
7.500000E+03	2.463126E-03	6.044238E-04
7.509843E+03	2.426383E-03	5.954191E-04
7.519685E+03	2.389035E-03	5.862653E-04
7.529528E+03	2.351350E-03	5.770286E-04
7.539370E+03	2.313573E-03	5.677690E-04
7.549213E+03	2.275922E-03	5.585396E-04
7.559055E+03	2.238581E-03	5.493863E-04
7.568898E+03	2.201710E-03	5.403478E-04
7.578740E+03	2.165437E-03	5.314557E-04
7.588583E+03	2.129545E-03	5.226568E-04
7.598425E+03	2.094750E-03	5.141268E-04
7.608268E+03	2.060779E-03	5.057985E-04
7.618110E+03	2.027657E-03	4.976785E-04
7.627953E+03	1.995392E-03	4.897683E-04
7.637795E+03	1.963970E-03	4.820650E-04
