#wls	flux	fluxerr
1.593625E+03	2.396647E-02	6.656717E-04
1.633466E+03	2.019543E-02	5.484645E-04
1.673307E+03	1.683936E-02	4.469148E-04
1.713147E+03	1.390504E-02	3.604498E-04
1.752988E+03	1.138814E-02	2.881884E-04
1.792829E+03	9.262815E-03	2.287215E-04
1.832669E+03	7.499774E-03	1.806159E-04
1.872510E+03	6.058990E-03	1.422572E-04
1.912351E+03	4.898732E-03	1.120908E-04
1.952191E+03	3.975647E-03	8.863032E-05
1.992032E+03	3.249399E-03	7.056299E-05
2.031873E+03	2.682441E-03	5.673586E-05
2.071713E+03	2.243471E-03	4.621750E-05
2.111554E+03	1.911875E-03	3.836787E-05
2.151394E+03	1.680518E-03	3.286288E-05
2.191235E+03	1.544142E-03	2.943832E-05
2.231076E+03	1.500948E-03	2.791579E-05
2.270916E+03	1.556697E-03	2.827066E-05
2.310757E+03	1.724152E-03	3.060868E-05
2.350598E+03	2.028323E-03	3.524822E-05
2.390438E+03	2.512032E-03	4.280064E-05
2.430279E+03	3.239328E-03	5.420243E-05
2.470120E+03	4.294887E-03	7.068441E-05
2.509960E+03	5.775427E-03	9.362150E-05
2.549801E+03	7.767662E-03	1.241782E-04
2.589641E+03	1.030986E-02	1.627199E-04
2.629482E+03	1.335149E-02	2.082289E-04
2.669323E+03	1.676346E-02	2.585282E-04
2.709163E+03	2.036027E-02	3.106638E-04
2.749004E+03	2.392285E-02	3.612725E-04
2.788845E+03	2.722479E-02	4.069862E-04
2.828685E+03	3.007111E-02	4.450084E-04
2.868526E+03	3.232512E-02	4.734903E-04
2.908367E+03	3.393525E-02	4.918901E-04
2.948207E+03	3.493709E-02	5.009527E-04
2.988048E+03	3.543612E-02	5.024087E-04
2.998008E+03	3.549972E-02	5.018540E-04
3.007968E+03	3.554391E-02	5.010080E-04
3.017928E+03	3.557226E-02	4.999233E-04
3.027888E+03	3.558738E-02	4.986377E-04
3.037849E+03	3.559292E-02	4.972041E-04
3.047809E+03	3.559159E-02	4.956610E-04
3.057769E+03	3.558612E-02	4.940472E-04
3.067729E+03	3.558025E-02	4.924150E-04
3.077689E+03	3.557676E-02	4.908026E-04
3.087649E+03	3.558023E-02	4.892728E-04
3.097610E+03	3.559163E-02	4.878381E-04
3.107570E+03	3.561644E-02	4.865722E-04
3.117530E+03	3.565565E-02	4.854870E-04
3.127490E+03	3.571472E-02	4.846548E-04
3.137450E+03	3.579470E-02	4.840870E-04
3.147410E+03	3.590015E-02	4.838428E-04
3.157371E+03	3.603478E-02	4.839681E-04
3.167331E+03	3.620069E-02	4.844872E-04
3.177291E+03	3.640248E-02	4.854568E-04
3.187251E+03	3.664244E-02	4.869020E-04
3.197211E+03	3.692452E-02	4.888691E-04
3.207171E+03	3.725286E-02	4.914067E-04
3.217131E+03	3.763082E-02	4.945519E-04
3.227092E+03	3.806286E-02	4.983554E-04
3.237052E+03	3.855269E-02	5.028576E-04
3.247012E+03	3.910436E-02	5.081021E-04
3.256972E+03	3.972289E-02	5.141443E-04
3.266932E+03	4.041269E-02	5.210310E-04
3.276892E+03	4.117862E-02	5.288131E-04
3.286853E+03	4.202644E-02	5.375527E-04
3.296813E+03	4.296154E-02	5.473057E-04
3.306773E+03	4.399036E-02	5.581399E-04
3.316733E+03	4.511732E-02	5.700964E-04
3.326693E+03	4.635019E-02	5.832577E-04
3.336653E+03	4.769385E-02	5.976681E-04
3.346614E+03	4.915709E-02	6.134198E-04
3.356574E+03	5.074390E-02	6.305434E-04
3.366534E+03	5.246014E-02	6.490919E-04
3.376494E+03	5.431253E-02	6.691279E-04
3.386454E+03	5.630219E-02	6.906434E-04
3.396414E+03	5.843067E-02	7.136362E-04
3.406375E+03	6.069670E-02	7.380690E-04
3.416335E+03	6.309444E-02	7.638502E-04
3.426295E+03	6.561342E-02	7.908332E-04
3.436255E+03	6.823689E-02	8.187991E-04
3.446215E+03	7.094380E-02	8.474814E-04
3.456175E+03	7.370386E-02	8.765084E-04
3.466135E+03	7.648589E-02	9.055046E-04
3.476096E+03	7.925596E-02	9.340695E-04
3.486056E+03	8.198471E-02	9.618637E-04
3.496016E+03	8.463492E-02	9.884621E-04
3.505976E+03	8.716980E-02	1.013454E-03
3.515936E+03	8.955133E-02	1.036420E-03
3.525896E+03	9.174551E-02	1.056999E-03
3.535857E+03	9.371771E-02	1.074827E-03
3.545817E+03	9.544260E-02	1.089653E-03
3.555777E+03	9.690174E-02	1.101312E-03
3.565737E+03	9.808739E-02	1.109760E-03
3.575697E+03	9.899998E-02	1.115042E-03
3.585657E+03	9.965273E-02	1.117347E-03
3.595618E+03	1.000677E-01	1.116955E-03
3.605578E+03	1.002765E-01	1.114251E-03
3.615538E+03	1.003182E-01	1.109693E-03
3.625498E+03	1.002361E-01	1.103781E-03
3.635458E+03	1.000784E-01	1.097056E-03
3.645418E+03	9.989616E-02	1.090084E-03
3.655378E+03	9.974036E-02	1.083418E-03
3.665339E+03	9.966450E-02	1.077629E-03
3.675299E+03	9.971582E-02	1.073211E-03
3.685259E+03	9.994559E-02	1.070690E-03
3.695219E+03	1.003987E-01	1.070515E-03
3.705179E+03	1.011205E-01	1.073129E-03
3.715139E+03	1.021521E-01	1.078924E-03
3.725100E+03	1.035310E-01	1.088243E-03
3.735060E+03	1.052930E-01	1.101404E-03
3.745020E+03	1.074694E-01	1.118669E-03
3.754980E+03	1.100877E-01	1.140256E-03
3.764940E+03	1.131686E-01	1.166305E-03
3.774900E+03	1.167260E-01	1.196881E-03
3.784861E+03	1.207623E-01	1.231927E-03
3.794821E+03	1.252688E-01	1.271275E-03
3.804781E+03	1.302179E-01	1.314563E-03
3.814741E+03	1.355635E-01	1.361249E-03
3.824701E+03	1.412373E-01	1.410580E-03
3.834661E+03	1.471457E-01	1.461564E-03
3.844622E+03	1.531789E-01	1.513068E-03
3.854582E+03	1.592003E-01	1.563722E-03
3.864542E+03	1.650627E-01	1.612083E-03
3.874502E+03	1.706153E-01	1.656703E-03
3.884462E+03	1.757028E-01	1.696129E-03
3.894422E+03	1.801898E-01	1.729134E-03
3.904382E+03	1.839582E-01	1.754691E-03
3.914343E+03	1.869247E-01	1.772132E-03
3.924303E+03	1.890461E-01	1.781185E-03
3.934263E+03	1.903156E-01	1.781938E-03
3.944223E+03	1.907706E-01	1.774888E-03
3.954183E+03	1.904846E-01	1.760865E-03
3.964143E+03	1.895571E-01	1.740919E-03
3.974104E+03	1.881132E-01	1.716315E-03
3.984064E+03	1.862801E-01	1.688302E-03
3.994024E+03	1.841903E-01	1.658154E-03
4.003984E+03	1.819651E-01	1.627009E-03
4.013944E+03	1.797111E-01	1.595849E-03
4.023904E+03	1.775191E-01	1.565486E-03
4.033865E+03	1.754577E-01	1.536520E-03
4.043825E+03	1.735810E-01	1.509405E-03
4.053785E+03	1.719249E-01	1.484428E-03
4.063745E+03	1.705124E-01	1.461753E-03
4.073705E+03	1.693509E-01	1.441409E-03
4.083665E+03	1.684393E-01	1.423351E-03
4.093625E+03	1.677643E-01	1.407432E-03
4.103586E+03	1.673034E-01	1.393431E-03
4.113546E+03	1.670250E-01	1.381062E-03
4.123506E+03	1.668905E-01	1.369988E-03
4.133466E+03	1.668559E-01	1.359836E-03
4.143426E+03	1.668754E-01	1.350234E-03
4.153386E+03	1.669007E-01	1.340798E-03
4.163347E+03	1.668891E-01	1.331203E-03
4.173307E+03	1.668006E-01	1.321153E-03
4.183267E+03	1.666069E-01	1.310455E-03
4.193227E+03	1.662826E-01	1.298946E-03
4.203187E+03	1.658181E-01	1.286587E-03
4.213147E+03	1.652053E-01	1.273354E-03
4.223108E+03	1.644481E-01	1.259316E-03
4.233068E+03	1.635580E-01	1.244597E-03
4.243028E+03	1.625480E-01	1.229330E-03
4.252988E+03	1.614378E-01	1.213691E-03
4.262948E+03	1.602500E-01	1.197878E-03
4.272908E+03	1.590066E-01	1.182074E-03
4.282869E+03	1.577277E-01	1.166448E-03
4.292829E+03	1.564310E-01	1.151142E-03
4.302789E+03	1.551298E-01	1.136266E-03
4.312749E+03	1.538284E-01	1.121859E-03
4.322709E+03	1.525305E-01	1.107955E-03
4.332669E+03	1.512321E-01	1.094531E-03
4.342629E+03	1.499366E-01	1.081609E-03
4.352590E+03	1.486440E-01	1.069172E-03
4.362550E+03	1.473699E-01	1.057308E-03
4.372510E+03	1.461765E-01	1.046436E-03
4.382470E+03	1.451869E-01	1.037409E-03
4.392430E+03	1.445365E-01	1.031162E-03
4.402390E+03	1.443459E-01	1.028525E-03
4.412351E+03	1.447239E-01	1.030242E-03
4.422311E+03	1.457554E-01	1.036893E-03
4.432271E+03	1.475009E-01	1.048889E-03
4.442231E+03	1.499915E-01	1.066439E-03
4.452191E+03	1.532292E-01	1.089551E-03
4.462151E+03	1.571840E-01	1.118014E-03
4.472112E+03	1.617875E-01	1.151346E-03
4.482072E+03	1.669334E-01	1.188802E-03
4.492032E+03	1.724749E-01	1.229348E-03
4.501992E+03	1.782282E-01	1.271680E-03
4.511952E+03	1.839681E-01	1.314200E-03
4.521912E+03	1.894440E-01	1.355115E-03
4.531873E+03	1.943871E-01	1.392490E-03
4.541833E+03	1.985309E-01	1.424393E-03
4.551793E+03	2.016290E-01	1.449021E-03
4.561753E+03	2.034794E-01	1.464871E-03
4.571713E+03	2.039414E-01	1.470871E-03
4.581673E+03	2.029525E-01	1.466500E-03
4.591633E+03	2.005312E-01	1.451820E-03
4.601594E+03	1.967784E-01	1.427484E-03
4.611554E+03	1.918545E-01	1.394587E-03
4.621514E+03	1.859767E-01	1.354643E-03
4.631474E+03	1.793827E-01	1.309332E-03
4.641434E+03	1.723212E-01	1.260427E-03
4.651394E+03	1.650258E-01	1.209609E-03
4.661355E+03	1.577124E-01	1.158443E-03
4.671315E+03	1.505588E-01	1.108231E-03
4.681275E+03	1.437128E-01	1.060064E-03
4.691235E+03	1.372862E-01	1.014780E-03
4.701195E+03	1.313613E-01	9.730041E-04
4.711155E+03	1.259929E-01	9.351577E-04
4.721116E+03	1.212124E-01	9.014933E-04
4.731076E+03	1.170350E-01	8.721452E-04
4.741036E+03	1.134593E-01	8.471237E-04
4.750996E+03	1.104593E-01	8.262565E-04
4.760956E+03	1.080025E-01	8.093211E-04
4.770916E+03	1.060498E-01	7.960431E-04
4.780876E+03	1.045595E-01	7.861240E-04
4.790837E+03	1.034858E-01	7.792341E-04
4.800797E+03	1.027795E-01	7.750120E-04
4.810757E+03	1.023878E-01	7.730684E-04
4.820717E+03	1.022518E-01	7.729643E-04
4.830677E+03	1.023092E-01	7.742290E-04
4.840637E+03	1.024929E-01	7.763567E-04
4.850598E+03	1.027336E-01	7.788200E-04
4.860558E+03	1.029585E-01	7.810640E-04
4.870518E+03	1.030983E-01	7.825590E-04
4.880478E+03	1.030876E-01	7.828051E-04
4.890438E+03	1.028734E-01	7.813959E-04
4.900398E+03	1.024201E-01	7.780596E-04
4.910359E+03	1.017130E-01	7.726827E-04
4.920319E+03	1.007611E-01	7.653372E-04
4.930279E+03	9.959800E-02	7.562806E-04
4.940239E+03	9.827874E-02	7.459366E-04
4.950199E+03	9.687441E-02	7.348511E-04
4.960159E+03	9.546978E-02	7.236731E-04
4.970120E+03	9.415279E-02	7.130746E-04
4.980080E+03	9.300956E-02	7.037114E-04
4.990040E+03	9.212471E-02	6.962247E-04
5.000000E+03	9.157644E-02	6.912033E-04
5.009960E+03	9.143426E-02	6.891658E-04
5.019920E+03	9.175808E-02	6.905540E-04
5.029880E+03	9.260329E-02	6.957708E-04
5.039841E+03	9.401538E-02	7.051399E-04
5.049801E+03	9.603420E-02	7.189382E-04
5.059761E+03	9.869007E-02	7.373673E-04
5.069721E+03	1.020052E-01	7.605642E-04
5.079681E+03	1.059913E-01	7.885858E-04
5.089641E+03	1.106425E-01	8.213553E-04
5.099602E+03	1.159374E-01	8.586825E-04
5.109562E+03	1.218274E-01	9.001754E-04
5.119522E+03	1.282350E-01	9.452343E-04
5.129482E+03	1.350483E-01	9.930145E-04
5.139442E+03	1.421176E-01	1.042402E-03
5.149402E+03	1.492612E-01	1.092063E-03
5.159363E+03	1.562623E-01	1.140425E-03
5.169323E+03	1.628900E-01	1.185832E-03
5.179283E+03	1.689081E-01	1.226607E-03
5.189243E+03	1.740993E-01	1.261232E-03
5.199203E+03	1.782841E-01	1.288479E-03
5.209163E+03	1.813312E-01	1.307477E-03
5.219124E+03	1.831718E-01	1.317814E-03
5.229084E+03	1.837999E-01	1.319533E-03
5.239044E+03	1.832678E-01	1.313084E-03
5.249004E+03	1.816740E-01	1.299245E-03
5.258964E+03	1.791562E-01	1.279058E-03
5.268924E+03	1.758717E-01	1.253691E-03
5.278884E+03	1.719917E-01	1.224398E-03
5.288845E+03	1.676937E-01	1.192461E-03
5.298805E+03	1.631489E-01	1.159110E-03
5.308765E+03	1.585301E-01	1.125574E-03
5.318725E+03	1.540006E-01	1.093005E-03
5.328685E+03	1.497183E-01	1.062518E-03
5.338645E+03	1.458287E-01	1.035136E-03
5.348606E+03	1.424613E-01	1.011768E-03
5.358566E+03	1.397012E-01	9.930042E-04
5.368526E+03	1.374846E-01	9.783784E-04
5.378486E+03	1.357152E-01	9.672020E-04
5.388446E+03	1.343051E-01	9.588444E-04
5.398406E+03	1.331788E-01	9.527604E-04
5.408367E+03	1.322624E-01	9.484109E-04
5.418327E+03	1.314940E-01	9.453419E-04
5.428287E+03	1.308155E-01	9.431257E-04
5.438247E+03	1.301732E-01	9.413613E-04
5.448207E+03	1.295128E-01	9.396405E-04
5.458167E+03	1.287805E-01	9.375531E-04
5.468127E+03	1.279251E-01	9.347032E-04
5.478088E+03	1.269020E-01	9.307370E-04
5.488048E+03	1.256723E-01	9.253379E-04
5.498008E+03	1.242096E-01	9.182754E-04
5.507968E+03	1.224994E-01	9.094047E-04
5.517928E+03	1.205454E-01	8.987142E-04
5.527888E+03	1.183623E-01	8.862748E-04
5.537849E+03	1.159786E-01	8.722634E-04
5.547809E+03	1.134360E-01	8.569600E-04
5.557769E+03	1.107863E-01	8.407289E-04
5.567729E+03	1.080851E-01	8.239696E-04
5.577689E+03	1.053916E-01	8.071192E-04
5.587649E+03	1.027646E-01	7.906201E-04
5.597610E+03	1.002594E-01	7.748987E-04
5.607570E+03	9.792621E-02	7.603494E-04
5.617530E+03	9.580846E-02	7.473229E-04
5.627490E+03	9.394242E-02	7.361205E-04
5.637450E+03	9.235627E-02	7.269862E-04
5.647410E+03	9.107374E-02	7.201334E-04
5.657371E+03	9.011116E-02	7.157206E-04
5.667331E+03	8.948243E-02	7.138896E-04
5.677291E+03	8.919713E-02	7.147500E-04
5.687251E+03	8.926150E-02	7.183854E-04
5.697211E+03	8.968157E-02	7.248790E-04
5.707171E+03	9.046018E-02	7.342887E-04
5.717131E+03	9.159647E-02	7.466421E-04
5.727092E+03	9.308763E-02	7.619507E-04
5.737052E+03	9.492446E-02	7.801728E-04
5.747012E+03	9.708956E-02	8.011974E-04
5.756972E+03	9.955859E-02	8.248534E-04
5.766932E+03	1.022967E-01	8.508789E-04
5.776892E+03	1.052539E-01	8.788814E-04
5.786853E+03	1.083715E-01	9.083881E-04
5.796813E+03	1.115795E-01	9.388243E-04
5.806773E+03	1.147958E-01	9.695043E-04
5.816733E+03	1.179324E-01	9.996835E-04
5.826693E+03	1.208992E-01	1.028589E-03
5.836653E+03	1.236054E-01	1.055431E-03
5.846614E+03	1.259646E-01	1.079448E-03
5.856574E+03	1.278989E-01	1.099940E-03
5.866534E+03	1.293416E-01	1.116297E-03
5.876494E+03	1.302416E-01	1.128039E-03
5.886454E+03	1.305624E-01	1.134802E-03
5.896414E+03	1.302831E-01	1.136359E-03
5.906375E+03	1.294050E-01	1.132672E-03
5.916335E+03	1.279423E-01	1.123817E-03
5.926295E+03	1.259300E-01	1.110056E-03
5.936255E+03	1.234117E-01	1.091729E-03
5.946215E+03	1.204493E-01	1.069344E-03
5.956175E+03	1.171111E-01	1.043470E-03
5.966135E+03	1.134715E-01	1.014741E-03
5.976096E+03	1.096100E-01	9.838446E-04
5.986056E+03	1.056059E-01	9.514717E-04
5.996016E+03	1.015380E-01	9.183235E-04
6.005976E+03	9.748151E-02	8.850728E-04
6.015936E+03	9.350715E-02	8.523643E-04
6.025896E+03	8.968263E-02	8.208233E-04
6.035857E+03	8.606681E-02	7.910035E-04
6.045817E+03	8.271101E-02	7.633983E-04
6.055777E+03	7.965902E-02	7.384394E-04
6.065737E+03	7.694522E-02	7.164793E-04
6.075697E+03	7.459405E-02	6.977846E-04
6.085657E+03	7.262052E-02	6.825396E-04
6.095618E+03	7.102991E-02	6.708415E-04
6.105578E+03	6.982187E-02	6.627360E-04
6.115538E+03	6.898959E-02	6.582098E-04
6.125498E+03	6.851935E-02	6.571852E-04
6.135458E+03	6.839574E-02	6.595690E-04
6.145418E+03	6.859636E-02	6.652002E-04
6.155378E+03	6.909288E-02	6.738586E-04
6.165339E+03	6.985221E-02	6.852741E-04
6.175299E+03	7.083930E-02	6.991524E-04
6.185259E+03	7.201029E-02	7.151064E-04
6.195219E+03	7.332008E-02	7.327261E-04
6.205179E+03	7.471737E-02	7.515245E-04
6.215139E+03	7.614683E-02	7.709602E-04
6.225100E+03	7.755155E-02	7.904608E-04
6.235060E+03	7.886963E-02	8.093872E-04
6.245020E+03	8.004535E-02	8.271454E-04
6.254980E+03	8.102732E-02	8.431693E-04
6.264940E+03	8.177661E-02	8.570065E-04
6.274900E+03	8.226474E-02	8.683014E-04
6.284861E+03	8.247737E-02	8.768383E-04
6.294821E+03	8.241556E-02	8.825597E-04
6.304781E+03	8.209463E-02	8.855607E-04
6.314741E+03	8.153700E-02	8.860169E-04
6.324701E+03	8.077547E-02	8.842233E-04
6.334661E+03	7.984688E-02	8.805292E-04
6.344622E+03	7.879044E-02	8.753214E-04
6.354582E+03	7.764690E-02	8.690169E-04
6.364542E+03	7.645212E-02	8.619908E-04
6.374502E+03	7.524396E-02	8.546529E-04
6.384462E+03	7.405442E-02	8.473592E-04
6.394422E+03	7.291557E-02	8.404775E-04
6.404382E+03	7.184979E-02	8.342745E-04
6.414343E+03	7.087741E-02	8.290012E-04
6.424303E+03	7.000574E-02	8.247619E-04
6.434263E+03	6.923838E-02	8.216207E-04
6.444223E+03	6.856562E-02	8.194836E-04
6.454183E+03	6.797981E-02	8.182786E-04
6.464143E+03	6.746122E-02	8.177850E-04
6.474104E+03	6.698836E-02	8.177540E-04
6.484064E+03	6.653573E-02	8.178802E-04
6.494024E+03	6.607892E-02	8.178636E-04
6.503984E+03	6.559551E-02	8.174205E-04
6.513944E+03	6.506627E-02	8.163001E-04
6.523904E+03	6.447564E-02	8.142917E-04
6.533865E+03	6.381123E-02	8.112200E-04
6.543825E+03	6.306574E-02	8.069711E-04
6.553785E+03	6.223592E-02	8.014810E-04
6.563745E+03	6.132111E-02	7.947193E-04
6.573705E+03	6.032686E-02	7.867362E-04
6.583665E+03	5.925673E-02	7.775585E-04
6.593625E+03	5.812125E-02	7.673067E-04
6.603586E+03	5.693001E-02	7.560924E-04
6.613546E+03	5.569472E-02	7.440594E-04
6.623506E+03	5.442713E-02	7.313559E-04
6.633466E+03	5.314199E-02	7.181749E-04
6.643426E+03	5.185054E-02	7.046666E-04
6.653386E+03	5.056544E-02	6.910042E-04
6.663347E+03	4.929951E-02	6.773669E-04
6.673307E+03	4.806378E-02	6.639136E-04
6.683267E+03	4.686731E-02	6.507788E-04
6.693227E+03	4.571946E-02	6.381039E-04
6.703187E+03	4.462666E-02	6.259916E-04
6.713147E+03	4.359453E-02	6.145351E-04
6.723108E+03	4.262788E-02	6.038173E-04
6.733068E+03	4.172843E-02	5.938782E-04
6.743028E+03	4.089720E-02	5.847478E-04
6.752988E+03	4.013434E-02	5.764439E-04
6.762948E+03	3.943794E-02	5.689539E-04
6.772908E+03	3.880356E-02	5.622278E-04
6.782869E+03	3.822834E-02	5.562371E-04
6.792829E+03	3.770725E-02	5.509207E-04
6.802789E+03	3.723390E-02	5.461956E-04
6.812749E+03	3.680280E-02	5.419908E-04
6.822709E+03	3.640704E-02	5.382122E-04
6.832669E+03	3.604092E-02	5.347826E-04
6.842629E+03	3.569775E-02	5.316075E-04
6.852590E+03	3.537248E-02	5.286164E-04
6.862550E+03	3.505989E-02	5.257346E-04
6.872510E+03	3.475489E-02	5.228882E-04
6.882470E+03	3.445430E-02	5.200311E-04
6.892430E+03	3.415522E-02	5.171208E-04
6.902390E+03	3.385551E-02	5.141262E-04
6.912351E+03	3.355338E-02	5.110206E-04
6.922311E+03	3.324955E-02	5.078157E-04
6.932271E+03	3.294301E-02	5.044967E-04
6.942231E+03	3.263561E-02	5.010928E-04
6.952191E+03	3.232717E-02	4.976021E-04
6.962151E+03	3.202011E-02	4.940630E-04
6.972112E+03	3.171500E-02	4.904855E-04
6.982072E+03	3.141240E-02	4.868795E-04
6.992032E+03	3.111445E-02	4.832800E-04
7.001992E+03	3.082192E-02	4.797003E-04
7.011952E+03	3.053422E-02	4.761328E-04
7.021912E+03	3.025292E-02	4.726040E-04
7.031873E+03	2.997830E-02	4.691195E-04
7.041833E+03	2.971005E-02	4.656764E-04
7.051793E+03	2.944853E-02	4.622816E-04
7.061753E+03	2.919527E-02	4.589613E-04
7.071713E+03	2.894974E-02	4.557083E-04
7.081673E+03	2.871270E-02	4.525363E-04
7.091633E+03	2.848619E-02	4.494791E-04
7.101594E+03	2.827062E-02	4.465446E-04
7.111554E+03	2.806637E-02	4.437404E-04
7.121514E+03	2.787534E-02	4.410982E-04
7.131474E+03	2.769745E-02	4.386178E-04
7.141434E+03	2.753326E-02	4.363095E-04
7.151394E+03	2.738164E-02	4.341567E-04
7.161355E+03	2.724133E-02	4.321406E-04
7.171315E+03	2.711092E-02	4.302395E-04
7.181275E+03	2.698769E-02	4.284114E-04
7.191235E+03	2.686829E-02	4.266034E-04
7.201195E+03	2.674877E-02	4.247538E-04
7.211155E+03	2.662422E-02	4.227853E-04
7.221116E+03	2.649122E-02	4.206441E-04
7.231076E+03	2.634466E-02	4.182499E-04
7.241036E+03	2.618082E-02	4.155446E-04
7.250996E+03	2.599481E-02	4.124514E-04
7.260956E+03	2.578469E-02	4.089412E-04
7.270916E+03	2.554835E-02	4.049818E-04
7.280876E+03	2.528363E-02	4.005411E-04
7.290837E+03	2.499176E-02	3.956406E-04
7.300797E+03	2.467350E-02	3.902946E-04
7.310757E+03	2.433073E-02	3.845354E-04
7.320717E+03	2.396743E-02	3.784284E-04
7.330677E+03	2.358731E-02	3.720349E-04
7.340637E+03	2.319473E-02	3.654259E-04
7.350598E+03	2.279493E-02	3.586867E-04
7.360558E+03	2.239281E-02	3.518962E-04
7.370518E+03	2.199365E-02	3.451395E-04
7.380478E+03	2.160147E-02	3.384812E-04
7.390438E+03	2.122029E-02	3.319852E-04
7.400398E+03	2.085439E-02	3.257193E-04
7.410359E+03	2.050626E-02	3.197222E-04
7.420319E+03	2.017839E-02	3.140323E-04
7.430279E+03	1.987318E-02	3.086861E-04
7.440239E+03	1.959010E-02	3.036743E-04
7.450199E+03	1.932855E-02	2.989867E-04
7.460159E+03	1.908745E-02	2.946051E-04
7.470120E+03	1.886402E-02	2.904856E-04
7.480080E+03	1.865441E-02	2.865676E-04
7.490040E+03	1.845612E-02	2.828120E-04
7.500000E+03	1.826422E-02	2.791429E-04
7.509960E+03	1.807541E-02	2.755099E-04
7.519920E+03	1.788831E-02	2.718922E-04
7.529880E+03	1.770280E-02	2.682882E-04
7.539841E+03	1.751895E-02	2.646998E-04
7.549801E+03	1.733752E-02	2.611385E-04
7.559761E+03	1.715818E-02	2.575999E-04
7.569721E+03	1.698254E-02	2.541083E-04
7.579681E+03	1.681071E-02	2.506656E-04
7.589641E+03	1.664470E-02	2.473016E-04
7.599602E+03	1.648500E-02	2.440234E-04
7.609562E+03	1.633351E-02	2.408585E-04
7.619522E+03	1.619182E-02	2.378296E-04
7.629482E+03	1.606117E-02	2.349535E-04
7.639442E+03	1.594362E-02	2.322590E-04
7.649402E+03	1.584076E-02	2.297671E-04
7.659363E+03	1.575403E-02	2.274965E-04
7.669323E+03	1.568429E-02	2.254565E-04
7.679283E+03	1.563253E-02	2.236584E-04
7.689243E+03	1.559988E-02	2.221149E-04
7.699203E+03	1.558678E-02	2.208283E-04
7.709163E+03	1.559334E-02	2.197963E-04
7.719124E+03	1.561940E-02	2.190124E-04
7.729084E+03	1.566412E-02	2.184603E-04
