#wls	flux	fluxerr
1.593625E+03	8.559743E-03	3.278361E-04
1.633466E+03	7.063377E-03	2.660383E-04
1.673307E+03	5.806861E-03	2.150312E-04
1.713147E+03	4.761925E-03	1.733298E-04
1.752988E+03	3.898822E-03	1.394663E-04
1.792829E+03	3.191168E-03	1.121654E-04
1.832669E+03	2.616346E-03	9.034885E-05
1.872510E+03	2.152144E-03	7.300967E-05
1.912351E+03	1.779866E-03	5.931472E-05
1.952191E+03	1.484505E-03	4.859957E-05
1.992032E+03	1.251908E-03	4.026567E-05
2.031873E+03	1.071598E-03	3.386675E-05
2.071713E+03	9.348797E-04	2.903865E-05
2.111554E+03	8.349905E-04	2.549873E-05
2.151394E+03	7.677996E-04	2.306100E-05
2.191235E+03	7.310754E-04	2.160750E-05
2.231076E+03	7.241659E-04	2.107444E-05
2.270916E+03	7.483061E-04	2.145767E-05
2.310757E+03	8.062302E-04	2.279838E-05
2.350598E+03	9.027196E-04	2.519631E-05
2.390438E+03	1.044587E-03	2.880476E-05
2.430279E+03	1.240464E-03	3.382284E-05
2.470120E+03	1.500406E-03	4.048373E-05
2.509960E+03	1.833750E-03	4.899633E-05
2.549801E+03	2.247234E-03	5.949670E-05
2.589641E+03	2.742540E-03	7.198629E-05
2.629482E+03	3.313925E-03	8.627487E-05
2.669323E+03	3.947942E-03	1.019788E-04
2.709163E+03	4.626804E-03	1.186130E-04
2.749004E+03	5.327456E-03	1.355685E-04
2.788845E+03	6.027619E-03	1.522691E-04
2.828685E+03	6.704238E-03	1.681305E-04
2.868526E+03	7.339933E-03	1.827222E-04
2.908367E+03	7.920889E-03	1.957110E-04
2.948207E+03	8.441949E-03	2.069841E-04
2.988048E+03	8.904959E-03	2.166025E-04
2.998008E+03	9.013193E-03	2.187881E-04
3.007968E+03	9.117741E-03	2.208699E-04
3.017928E+03	9.220140E-03	2.228854E-04
3.027888E+03	9.319922E-03	2.248234E-04
3.037849E+03	9.417316E-03	2.266895E-04
3.047809E+03	9.513229E-03	2.285055E-04
3.057769E+03	9.607229E-03	2.302612E-04
3.067729E+03	9.700252E-03	2.319789E-04
3.077689E+03	9.791880E-03	2.336485E-04
3.087649E+03	9.883059E-03	2.352925E-04
3.097610E+03	9.974062E-03	2.369173E-04
3.107570E+03	1.006516E-02	2.385292E-04
3.117530E+03	1.015664E-02	2.401343E-04
3.127490E+03	1.024810E-02	2.417231E-04
3.137450E+03	1.034116E-02	2.433337E-04
3.147410E+03	1.043542E-02	2.449560E-04
3.157371E+03	1.053117E-02	2.465961E-04
3.167331E+03	1.062933E-02	2.482755E-04
3.177291E+03	1.072952E-02	2.499840E-04
3.187251E+03	1.083264E-02	2.517428E-04
3.197211E+03	1.093897E-02	2.535569E-04
3.207171E+03	1.104874E-02	2.554313E-04
3.217131E+03	1.116154E-02	2.573552E-04
3.227092E+03	1.127893E-02	2.593641E-04
3.237052E+03	1.140114E-02	2.614621E-04
3.247012E+03	1.152773E-02	2.636376E-04
3.256972E+03	1.165957E-02	2.659097E-04
3.266932E+03	1.179621E-02	2.682662E-04
3.276892E+03	1.193918E-02	2.707410E-04
3.286853E+03	1.208801E-02	2.733216E-04
3.296813E+03	1.224356E-02	2.760258E-04
3.306773E+03	1.240533E-02	2.788407E-04
3.316733E+03	1.257485E-02	2.817988E-04
3.326693E+03	1.275161E-02	2.848869E-04
3.336653E+03	1.293577E-02	2.881062E-04
3.346614E+03	1.312884E-02	2.914888E-04
3.356574E+03	1.333029E-02	2.950202E-04
3.366534E+03	1.354024E-02	2.987009E-04
3.376494E+03	1.376020E-02	3.025617E-04
3.386454E+03	1.398955E-02	3.065865E-04
3.396414E+03	1.422837E-02	3.107744E-04
3.406375E+03	1.447879E-02	3.151690E-04
3.416335E+03	1.473943E-02	3.197371E-04
3.426295E+03	1.501165E-02	3.245057E-04
3.436255E+03	1.529470E-02	3.294549E-04
3.446215E+03	1.559062E-02	3.346256E-04
3.456175E+03	1.589862E-02	3.399973E-04
3.466135E+03	1.622005E-02	3.455952E-04
3.476096E+03	1.655411E-02	3.513985E-04
3.486056E+03	1.690293E-02	3.574485E-04
3.496016E+03	1.726574E-02	3.637249E-04
3.505976E+03	1.764400E-02	3.702541E-04
3.515936E+03	1.803772E-02	3.770319E-04
3.525896E+03	1.844768E-02	3.840699E-04
3.535857E+03	1.887320E-02	3.913492E-04
3.545817E+03	1.931515E-02	3.988830E-04
3.555777E+03	1.977295E-02	4.066545E-04
3.565737E+03	2.024611E-02	4.146488E-04
3.575697E+03	2.073576E-02	4.228841E-04
3.585657E+03	2.124088E-02	4.313342E-04
3.595618E+03	2.176210E-02	4.400068E-04
3.605578E+03	2.229946E-02	4.488968E-04
3.615538E+03	2.285394E-02	4.580183E-04
3.625498E+03	2.342592E-02	4.673735E-04
3.635458E+03	2.401681E-02	4.769839E-04
3.645418E+03	2.462664E-02	4.868437E-04
3.655378E+03	2.525885E-02	4.970140E-04
3.665339E+03	2.591312E-02	5.074811E-04
3.675299E+03	2.659254E-02	5.182974E-04
3.685259E+03	2.729797E-02	5.294711E-04
3.695219E+03	2.803286E-02	5.410601E-04
3.705179E+03	2.879914E-02	5.530911E-04
3.715139E+03	2.959789E-02	5.655744E-04
3.725100E+03	3.043346E-02	5.785818E-04
3.735060E+03	3.130760E-02	5.921337E-04
3.745020E+03	3.222080E-02	6.062265E-04
3.754980E+03	3.317477E-02	6.208789E-04
3.764940E+03	3.417154E-02	6.361147E-04
3.774900E+03	3.520966E-02	6.518926E-04
3.784861E+03	3.628933E-02	6.682019E-04
3.794821E+03	3.740690E-02	6.849614E-04
3.804781E+03	3.856004E-02	7.021153E-04
3.814741E+03	3.974313E-02	7.195492E-04
3.824701E+03	4.094894E-02	7.371220E-04
3.834661E+03	4.216962E-02	7.546847E-04
3.844622E+03	4.339581E-02	7.720645E-04
3.854582E+03	4.461679E-02	7.890687E-04
3.864542E+03	4.581886E-02	8.054570E-04
3.874502E+03	4.699046E-02	8.210324E-04
3.884462E+03	4.811773E-02	8.355636E-04
3.894422E+03	4.918800E-02	8.488453E-04
3.904382E+03	5.018928E-02	8.606902E-04
3.914343E+03	5.110880E-02	8.709031E-04
3.924303E+03	5.193856E-02	8.793756E-04
3.934263E+03	5.267062E-02	8.860044E-04
3.944223E+03	5.329965E-02	8.907329E-04
3.954183E+03	5.382599E-02	8.936022E-04
3.964143E+03	5.424770E-02	8.946155E-04
3.974104E+03	5.456858E-02	8.938717E-04
3.984064E+03	5.479592E-02	8.915244E-04
3.994024E+03	5.493722E-02	8.877281E-04
4.003984E+03	5.500065E-02	8.826449E-04
4.013944E+03	5.499976E-02	8.765189E-04
4.023904E+03	5.494582E-02	8.695528E-04
4.033865E+03	5.484956E-02	8.619352E-04
4.043825E+03	5.472540E-02	8.539081E-04
4.053785E+03	5.458339E-02	8.456393E-04
4.063745E+03	5.443458E-02	8.373074E-04
4.073705E+03	5.428787E-02	8.290538E-04
4.083665E+03	5.415259E-02	8.210221E-04
4.093625E+03	5.403465E-02	8.133005E-04
4.103586E+03	5.393821E-02	8.059489E-04
4.113546E+03	5.386753E-02	7.990265E-04
4.123506E+03	5.382237E-02	7.925250E-04
4.133466E+03	5.380441E-02	7.864639E-04
4.143426E+03	5.380936E-02	7.807762E-04
4.153386E+03	5.383590E-02	7.754394E-04
4.163347E+03	5.387802E-02	7.703645E-04
4.173307E+03	5.393209E-02	7.654992E-04
4.183267E+03	5.398966E-02	7.607252E-04
4.193227E+03	5.404582E-02	7.559771E-04
4.203187E+03	5.409381E-02	7.511659E-04
4.213147E+03	5.412617E-02	7.461958E-04
4.223108E+03	5.413656E-02	7.409897E-04
4.233068E+03	5.411936E-02	7.354822E-04
4.243028E+03	5.407141E-02	7.296432E-04
4.252988E+03	5.398767E-02	7.234186E-04
4.262948E+03	5.386687E-02	7.168060E-04
4.272908E+03	5.370950E-02	7.098265E-04
4.282869E+03	5.351786E-02	7.025240E-04
4.292829E+03	5.329472E-02	6.949479E-04
4.302789E+03	5.304705E-02	6.872000E-04
4.312749E+03	5.278301E-02	6.793948E-04
4.322709E+03	5.251260E-02	6.716675E-04
4.332669E+03	5.224664E-02	6.641600E-04
4.342629E+03	5.199956E-02	6.570564E-04
4.352590E+03	5.178549E-02	6.505325E-04
4.362550E+03	5.161932E-02	6.447700E-04
4.372510E+03	5.151704E-02	6.399604E-04
4.382470E+03	5.149376E-02	6.362802E-04
4.392430E+03	5.156462E-02	6.339010E-04
4.402390E+03	5.174276E-02	6.329658E-04
4.412351E+03	5.203952E-02	6.335928E-04
4.422311E+03	5.246283E-02	6.358549E-04
4.432271E+03	5.302001E-02	6.398177E-04
4.442231E+03	5.371217E-02	6.454721E-04
4.452191E+03	5.454068E-02	6.528131E-04
4.462151E+03	5.550002E-02	6.617553E-04
4.472112E+03	5.658244E-02	6.721888E-04
4.482072E+03	5.777789E-02	6.839790E-04
4.492032E+03	5.906960E-02	6.969144E-04
4.501992E+03	6.043928E-02	7.107694E-04
4.511952E+03	6.186449E-02	7.252719E-04
4.521912E+03	6.331894E-02	7.401091E-04
4.531873E+03	6.477568E-02	7.549632E-04
4.541833E+03	6.620472E-02	7.694847E-04
4.551793E+03	6.757746E-02	7.833432E-04
4.561753E+03	6.886454E-02	7.962022E-04
4.571713E+03	7.004045E-02	8.077723E-04
4.581673E+03	7.108233E-02	8.177965E-04
4.591633E+03	7.197168E-02	8.260694E-04
4.601594E+03	7.269610E-02	8.324565E-04
4.611554E+03	7.324713E-02	8.368688E-04
4.621514E+03	7.362371E-02	8.393022E-04
4.631474E+03	7.382947E-02	8.398050E-04
4.641434E+03	7.387367E-02	8.384890E-04
4.651394E+03	7.376970E-02	8.355119E-04
4.661355E+03	7.353323E-02	8.310553E-04
4.671315E+03	7.318379E-02	8.253434E-04
4.681275E+03	7.274110E-02	8.186009E-04
4.691235E+03	7.222519E-02	8.110540E-04
4.701195E+03	7.165630E-02	8.029302E-04
4.711155E+03	7.105265E-02	7.944327E-04
4.721116E+03	7.043304E-02	7.857698E-04
4.731076E+03	6.981172E-02	7.770976E-04
4.741036E+03	6.920288E-02	7.685706E-04
4.750996E+03	6.861572E-02	7.602872E-04
4.760956E+03	6.805915E-02	7.523416E-04
4.770916E+03	6.753717E-02	7.447733E-04
4.780876E+03	6.704978E-02	7.375777E-04
4.790837E+03	6.659607E-02	7.307402E-04
4.800797E+03	6.617373E-02	7.242313E-04
4.810757E+03	6.577680E-02	7.179822E-04
4.820717E+03	6.539684E-02	7.118974E-04
4.830677E+03	6.502604E-02	7.058883E-04
4.840637E+03	6.465402E-02	6.998399E-04
4.850598E+03	6.427048E-02	6.936397E-04
4.860558E+03	6.386560E-02	6.871817E-04
4.870518E+03	6.342817E-02	6.803468E-04
4.880478E+03	6.295015E-02	6.730519E-04
4.890438E+03	6.242406E-02	6.652213E-04
4.900398E+03	6.184707E-02	6.568304E-04
4.910359E+03	6.121664E-02	6.478584E-04
4.920319E+03	6.053504E-02	6.383362E-04
4.930279E+03	5.980933E-02	6.283456E-04
4.940239E+03	5.904805E-02	6.179830E-04
4.950199E+03	5.826343E-02	6.073824E-04
4.960159E+03	5.747025E-02	5.967028E-04
4.970120E+03	5.668585E-02	5.861274E-04
4.980080E+03	5.592753E-02	5.758360E-04
4.990040E+03	5.521377E-02	5.660179E-04
5.000000E+03	5.456359E-02	5.568645E-04
5.009960E+03	5.399547E-02	5.485581E-04
5.019920E+03	5.352525E-02	5.412504E-04
5.029880E+03	5.316934E-02	5.350961E-04
5.039841E+03	5.294222E-02	5.302266E-04
5.049801E+03	5.285711E-02	5.267577E-04
5.059761E+03	5.292624E-02	5.247926E-04
5.069721E+03	5.316006E-02	5.244141E-04
5.079681E+03	5.356697E-02	5.256822E-04
5.089641E+03	5.415455E-02	5.286475E-04
5.099602E+03	5.492936E-02	5.333485E-04
5.109562E+03	5.589579E-02	5.398019E-04
5.119522E+03	5.705626E-02	5.480044E-04
5.129482E+03	5.841038E-02	5.579259E-04
5.139442E+03	5.995693E-02	5.695291E-04
5.149402E+03	6.168947E-02	5.827284E-04
5.159363E+03	6.360002E-02	5.974258E-04
5.169323E+03	6.567643E-02	6.134879E-04
5.179283E+03	6.790358E-02	6.307571E-04
5.189243E+03	7.026053E-02	6.490272E-04
5.199203E+03	7.272485E-02	6.680843E-04
5.209163E+03	7.527039E-02	6.876869E-04
5.219124E+03	7.786926E-02	7.075853E-04
5.229084E+03	8.048979E-02	7.275027E-04
5.239044E+03	8.310198E-02	7.471857E-04
5.249004E+03	8.567566E-02	7.663868E-04
5.258964E+03	8.818237E-02	7.848806E-04
5.268924E+03	9.059544E-02	8.024640E-04
5.278884E+03	9.289436E-02	8.189940E-04
5.288845E+03	9.505892E-02	8.343335E-04
5.298805E+03	9.707470E-02	8.483997E-04
5.308765E+03	9.893214E-02	8.611538E-04
5.318725E+03	1.006238E-01	8.725759E-04
5.328685E+03	1.021435E-01	8.826561E-04
5.338645E+03	1.034867E-01	8.913996E-04
5.348606E+03	1.046490E-01	8.988091E-04
5.358566E+03	1.056258E-01	9.048834E-04
5.368526E+03	1.064076E-01	9.095786E-04
5.378486E+03	1.069870E-01	9.128630E-04
5.388446E+03	1.073556E-01	9.146801E-04
5.398406E+03	1.075054E-01	9.149704E-04
5.408367E+03	1.074291E-01	9.136740E-04
5.418327E+03	1.071238E-01	9.107642E-04
5.428287E+03	1.065872E-01	9.062102E-04
5.438247E+03	1.058213E-01	9.000082E-04
5.448207E+03	1.048321E-01	8.921829E-04
5.458167E+03	1.036305E-01	8.827984E-04
5.468127E+03	1.022291E-01	8.719314E-04
5.478088E+03	1.006450E-01	8.596954E-04
5.488048E+03	9.889952E-02	8.462383E-04
5.498008E+03	9.701315E-02	8.317022E-04
5.507968E+03	9.501204E-02	8.162785E-04
5.517928E+03	9.292143E-02	8.001530E-04
5.527888E+03	9.076619E-02	7.835110E-04
5.537849E+03	8.857204E-02	7.665483E-04
5.547809E+03	8.636605E-02	7.494757E-04
5.557769E+03	8.417098E-02	7.324711E-04
5.567729E+03	8.201182E-02	7.157354E-04
5.577689E+03	7.990973E-02	6.994404E-04
5.587649E+03	7.788513E-02	6.837554E-04
5.597610E+03	7.595749E-02	6.688448E-04
5.607570E+03	7.414378E-02	6.548552E-04
5.617530E+03	7.245898E-02	6.419184E-04
5.627490E+03	7.091635E-02	6.301540E-04
5.637450E+03	6.952720E-02	6.196669E-04
5.647410E+03	6.830115E-02	6.105488E-04
5.657371E+03	6.724597E-02	6.028769E-04
5.667331E+03	6.636837E-02	5.967198E-04
5.677291E+03	6.567264E-02	5.921256E-04
5.687251E+03	6.516063E-02	5.891208E-04
5.697211E+03	6.483376E-02	5.877281E-04
5.707171E+03	6.469070E-02	5.879453E-04
5.717131E+03	6.472805E-02	5.897508E-04
5.727092E+03	6.494005E-02	5.931008E-04
5.737052E+03	6.531763E-02	5.979203E-04
5.747012E+03	6.585089E-02	6.041251E-04
5.756972E+03	6.652487E-02	6.115835E-04
5.766932E+03	6.732205E-02	6.201385E-04
5.776892E+03	6.822175E-02	6.296020E-04
5.786853E+03	6.920075E-02	6.397610E-04
5.796813E+03	7.023097E-02	6.503558E-04
5.806773E+03	7.128486E-02	6.611300E-04
5.816733E+03	7.233048E-02	6.717846E-04
5.826693E+03	7.333801E-02	6.820397E-04
5.836653E+03	7.427594E-02	6.915984E-04
5.846614E+03	7.511428E-02	7.001776E-04
5.856574E+03	7.582800E-02	7.075403E-04
5.866534E+03	7.639269E-02	7.134553E-04
5.876494E+03	7.679094E-02	7.177578E-04
5.886454E+03	7.700981E-02	7.203250E-04
5.896414E+03	7.704119E-02	7.210808E-04
5.906375E+03	7.688421E-02	7.200179E-04
5.916335E+03	7.654202E-02	7.171680E-04
5.926295E+03	7.602271E-02	7.126099E-04
5.936255E+03	7.534123E-02	7.064882E-04
5.946215E+03	7.451379E-02	6.989603E-04
5.956175E+03	7.355866E-02	6.902035E-04
5.966135E+03	7.249990E-02	6.804501E-04
5.976096E+03	7.135808E-02	6.699002E-04
5.986056E+03	7.015795E-02	6.587932E-04
5.996016E+03	6.892083E-02	6.473366E-04
6.005976E+03	6.766950E-02	6.357516E-04
6.015936E+03	6.642381E-02	6.242320E-04
6.025896E+03	6.520345E-02	6.129698E-04
6.035857E+03	6.402468E-02	6.021249E-04
6.045817E+03	6.290312E-02	5.918511E-04
6.055777E+03	6.185030E-02	5.822642E-04
6.065737E+03	6.087893E-02	5.734906E-04
6.075697E+03	5.999631E-02	5.656070E-04
6.085657E+03	5.920928E-02	5.586855E-04
6.095618E+03	5.852465E-02	5.527988E-04
6.105578E+03	5.794433E-02	5.479741E-04
6.115538E+03	5.747133E-02	5.442498E-04
6.125498E+03	5.710586E-02	5.416386E-04
6.135458E+03	5.684755E-02	5.401487E-04
6.145418E+03	5.669469E-02	5.397760E-04
6.155378E+03	5.664441E-02	5.405058E-04
6.165339E+03	5.669163E-02	5.423038E-04
6.175299E+03	5.683215E-02	5.451446E-04
6.185259E+03	5.705842E-02	5.489722E-04
6.195219E+03	5.736260E-02	5.537276E-04
6.205179E+03	5.773743E-02	5.593584E-04
6.215139E+03	5.817363E-02	5.657925E-04
6.225100E+03	5.866132E-02	5.729520E-04
6.235060E+03	5.919006E-02	5.807527E-04
6.245020E+03	5.975101E-02	5.891252E-04
6.254980E+03	6.033173E-02	5.979635E-04
6.264940E+03	6.092318E-02	6.071880E-04
6.274900E+03	6.151451E-02	6.166913E-04
6.284861E+03	6.209605E-02	6.263746E-04
6.294821E+03	6.265879E-02	6.361422E-04
6.304781E+03	6.319391E-02	6.458977E-04
6.314741E+03	6.369508E-02	6.555667E-04
6.324701E+03	6.415599E-02	6.650721E-04
6.334661E+03	6.457315E-02	6.743637E-04
6.344622E+03	6.494233E-02	6.833813E-04
6.354582E+03	6.526303E-02	6.921018E-04
6.364542E+03	6.553391E-02	7.004922E-04
6.374502E+03	6.575701E-02	7.085547E-04
6.384462E+03	6.593383E-02	7.162856E-04
6.394422E+03	6.606637E-02	7.236866E-04
6.404382E+03	6.615681E-02	7.307616E-04
6.414343E+03	6.620688E-02	7.375101E-04
6.424303E+03	6.621723E-02	7.439194E-04
6.434263E+03	6.618774E-02	7.499687E-04
6.444223E+03	6.611478E-02	7.555964E-04
6.454183E+03	6.599726E-02	7.607688E-04
6.464143E+03	6.582917E-02	7.653947E-04
6.474104E+03	6.560403E-02	7.693747E-04
6.484064E+03	6.531689E-02	7.726250E-04
6.494024E+03	6.495805E-02	7.750032E-04
6.503984E+03	6.452202E-02	7.764138E-04
6.513944E+03	6.400280E-02	7.767526E-04
6.523904E+03	6.339467E-02	7.759170E-04
6.533865E+03	6.269364E-02	7.738235E-04
6.543825E+03	6.189819E-02	7.704179E-04
6.553785E+03	6.100885E-02	7.656715E-04
6.563745E+03	6.002661E-02	7.595622E-04
6.573705E+03	5.895685E-02	7.521248E-04
6.583665E+03	5.780457E-02	7.433922E-04
6.593625E+03	5.657744E-02	7.334345E-04
6.603586E+03	5.528603E-02	7.223633E-04
6.613546E+03	5.393944E-02	7.102764E-04
6.623506E+03	5.255044E-02	6.973241E-04
6.633466E+03	5.113038E-02	6.836441E-04
6.643426E+03	4.969221E-02	6.694005E-04
6.653386E+03	4.824807E-02	6.547524E-04
6.663347E+03	4.680907E-02	6.398501E-04
6.673307E+03	4.538747E-02	6.248647E-04
6.683267E+03	4.399222E-02	6.099265E-04
6.693227E+03	4.263355E-02	5.951873E-04
6.703187E+03	4.131867E-02	5.807608E-04
6.713147E+03	4.005467E-02	5.667617E-04
6.723108E+03	3.884574E-02	5.532662E-04
6.733068E+03	3.769744E-02	5.403718E-04
6.743028E+03	3.661152E-02	5.281226E-04
6.752988E+03	3.558968E-02	5.165627E-04
6.762948E+03	3.463349E-02	5.057346E-04
6.772908E+03	3.374139E-02	4.956350E-04
6.782869E+03	3.291368E-02	4.862875E-04
6.792829E+03	3.214790E-02	4.776741E-04
6.802789E+03	3.144268E-02	4.697922E-04
6.812749E+03	3.079413E-02	4.626005E-04
6.822709E+03	3.020069E-02	4.560908E-04
6.832669E+03	2.965874E-02	4.502235E-04
6.842629E+03	2.916462E-02	4.449563E-04
6.852590E+03	2.871542E-02	4.402571E-04
6.862550E+03	2.830781E-02	4.360862E-04
6.872510E+03	2.793814E-02	4.323975E-04
6.882470E+03	2.760404E-02	4.291637E-04
6.892430E+03	2.730174E-02	4.263343E-04
6.902390E+03	2.702882E-02	4.238789E-04
6.912351E+03	2.678229E-02	4.217573E-04
6.922311E+03	2.656015E-02	4.199440E-04
6.932271E+03	2.636026E-02	4.184101E-04
6.942231E+03	2.618070E-02	4.171299E-04
6.952191E+03	2.601941E-02	4.160746E-04
6.962151E+03	2.587489E-02	4.152242E-04
6.972112E+03	2.574626E-02	4.145675E-04
6.982072E+03	2.563239E-02	4.140895E-04
6.992032E+03	2.553197E-02	4.137717E-04
7.001992E+03	2.544417E-02	4.136030E-04
7.011952E+03	2.536865E-02	4.135799E-04
7.021912E+03	2.530440E-02	4.136881E-04
7.031873E+03	2.525084E-02	4.139198E-04
7.041833E+03	2.520745E-02	4.142681E-04
7.051793E+03	2.517373E-02	4.147262E-04
7.061753E+03	2.514959E-02	4.152938E-04
7.071713E+03	2.513382E-02	4.159523E-04
7.081673E+03	2.512636E-02	4.167017E-04
7.091633E+03	2.512679E-02	4.175359E-04
7.101594E+03	2.513472E-02	4.184492E-04
7.111554E+03	2.514975E-02	4.194358E-04
7.121514E+03	2.517114E-02	4.204839E-04
7.131474E+03	2.519891E-02	4.215944E-04
7.141434E+03	2.523231E-02	4.227552E-04
7.151394E+03	2.527135E-02	4.239668E-04
7.161355E+03	2.531524E-02	4.252164E-04
7.171315E+03	2.536355E-02	4.264971E-04
7.181275E+03	2.541580E-02	4.278008E-04
7.191235E+03	2.547182E-02	4.291250E-04
7.201195E+03	2.553021E-02	4.304464E-04
7.211155E+03	2.559110E-02	4.317668E-04
7.221116E+03	2.565293E-02	4.330605E-04
7.231076E+03	2.571530E-02	4.343204E-04
7.241036E+03	2.577697E-02	4.355258E-04
7.250996E+03	2.583747E-02	4.366687E-04
7.260956E+03	2.589594E-02	4.377347E-04
7.270916E+03	2.595072E-02	4.386958E-04
7.280876E+03	2.600183E-02	4.395528E-04
7.290837E+03	2.604857E-02	4.402937E-04
7.300797E+03	2.608950E-02	4.408945E-04
7.310757E+03	2.612454E-02	4.413542E-04
7.320717E+03	2.615333E-02	4.416673E-04
7.330677E+03	2.617565E-02	4.418307E-04
7.340637E+03	2.619104E-02	4.418370E-04
7.350598E+03	2.620000E-02	4.416953E-04
7.360558E+03	2.620276E-02	4.414103E-04
7.370518E+03	2.619924E-02	4.409818E-04
7.380478E+03	2.618992E-02	4.404182E-04
7.390438E+03	2.617534E-02	4.397299E-04
7.400398E+03	2.615570E-02	4.389210E-04
7.410359E+03	2.613209E-02	4.380110E-04
7.420319E+03	2.610477E-02	4.370050E-04
7.430279E+03	2.607531E-02	4.359303E-04
7.440239E+03	2.604351E-02	4.347846E-04
7.450199E+03	2.601085E-02	4.335935E-04
7.460159E+03	2.597708E-02	4.323529E-04
7.470120E+03	2.594358E-02	4.310854E-04
7.480080E+03	2.591078E-02	4.297979E-04
7.490040E+03	2.587861E-02	4.284886E-04
7.500000E+03	2.584727E-02	4.271603E-04
7.509960E+03	2.581722E-02	4.258205E-04
7.519920E+03	2.578789E-02	4.244590E-04
7.529880E+03	2.575941E-02	4.230774E-04
7.539841E+03	2.573089E-02	4.216611E-04
7.549801E+03	2.570223E-02	4.202080E-04
7.559761E+03	2.567242E-02	4.187013E-04
7.569721E+03	2.564172E-02	4.171451E-04
7.579681E+03	2.560864E-02	4.155152E-04
7.589641E+03	2.557300E-02	4.138088E-04
7.599602E+03	2.553376E-02	4.120092E-04
7.609562E+03	2.549118E-02	4.101212E-04
7.619522E+03	2.544383E-02	4.081220E-04
7.629482E+03	2.539200E-02	4.060172E-04
7.639442E+03	2.533432E-02	4.037854E-04
7.649402E+03	2.527071E-02	4.014267E-04
7.659363E+03	2.520075E-02	3.989354E-04
7.669323E+03	2.512450E-02	3.963136E-04
7.679283E+03	2.504074E-02	3.935437E-04
7.689243E+03	2.494964E-02	3.906300E-04
7.699203E+03	2.485096E-02	3.875705E-04
7.709163E+03	2.474450E-02	3.843640E-04
7.719124E+03	2.463049E-02	3.810162E-04
7.729084E+03	2.450788E-02	3.775130E-04
