#wls	flux	fluxerr
1.593625E+03	1.148912E-03	6.223355E-05
1.633466E+03	1.050571E-03	5.668647E-05
1.673307E+03	9.622617E-04	5.171748E-05
1.713147E+03	8.835325E-04	4.729673E-05
1.752988E+03	8.132539E-04	4.335845E-05
1.792829E+03	7.510303E-04	3.987667E-05
1.832669E+03	6.960426E-04	3.680328E-05
1.872510E+03	6.478271E-04	3.410947E-05
1.912351E+03	6.057294E-04	3.175676E-05
1.952191E+03	5.695216E-04	2.972941E-05
1.992032E+03	5.387017E-04	2.799760E-05
2.031873E+03	5.129768E-04	2.654270E-05
2.071713E+03	4.921520E-04	2.535133E-05
2.111554E+03	4.763279E-04	2.442541E-05
2.151394E+03	4.654683E-04	2.375972E-05
2.191235E+03	4.597477E-04	2.335974E-05
2.231076E+03	4.595862E-04	2.324320E-05
2.270916E+03	4.651082E-04	2.341249E-05
2.310757E+03	4.767102E-04	2.388350E-05
2.350598E+03	4.945844E-04	2.466147E-05
2.390438E+03	5.189701E-04	2.575377E-05
2.430279E+03	5.502737E-04	2.717577E-05
2.470120E+03	5.888941E-04	2.894197E-05
2.509960E+03	6.353920E-04	3.107431E-05
2.549801E+03	6.903936E-04	3.359732E-05
2.589641E+03	7.544648E-04	3.653189E-05
2.629482E+03	8.283347E-04	3.990614E-05
2.669323E+03	9.128459E-04	4.375277E-05
2.709163E+03	1.008967E-03	4.810951E-05
2.749004E+03	1.117753E-03	5.301702E-05
2.788845E+03	1.240482E-03	5.852534E-05
2.828685E+03	1.378140E-03	6.466918E-05
2.868526E+03	1.532260E-03	7.150759E-05
2.908367E+03	1.704019E-03	7.908124E-05
2.948207E+03	1.894750E-03	8.743648E-05
2.988048E+03	2.105722E-03	9.661508E-05
2.998008E+03	2.161876E-03	9.904766E-05
3.007968E+03	2.219232E-03	1.015274E-04
3.017928E+03	2.278057E-03	1.040662E-04
3.027888E+03	2.338363E-03	1.066643E-04
3.037849E+03	2.399881E-03	1.093091E-04
3.047809E+03	2.463174E-03	1.120259E-04
3.057769E+03	2.527686E-03	1.147892E-04
3.067729E+03	2.593701E-03	1.176114E-04
3.077689E+03	2.661520E-03	1.205059E-04
3.087649E+03	2.730552E-03	1.234457E-04
3.097610E+03	2.801096E-03	1.264437E-04
3.107570E+03	2.873456E-03	1.295135E-04
3.117530E+03	2.947011E-03	1.326267E-04
3.127490E+03	3.022383E-03	1.358110E-04
3.137450E+03	3.099251E-03	1.390515E-04
3.147410E+03	3.177937E-03	1.423623E-04
3.157371E+03	3.258104E-03	1.457279E-04
3.167331E+03	3.339738E-03	1.491474E-04
3.177291E+03	3.423166E-03	1.526349E-04
3.187251E+03	3.508378E-03	1.561897E-04
3.197211E+03	3.595016E-03	1.597955E-04
3.207171E+03	3.683768E-03	1.634823E-04
3.217131E+03	3.773547E-03	1.672015E-04
3.227092E+03	3.865406E-03	1.709996E-04
3.237052E+03	3.958971E-03	1.748595E-04
3.247012E+03	4.054215E-03	1.787795E-04
3.256972E+03	4.151114E-03	1.827583E-04
3.266932E+03	4.249635E-03	1.867940E-04
3.276892E+03	4.350142E-03	1.909021E-04
3.286853E+03	4.451819E-03	1.950465E-04
3.296813E+03	4.555810E-03	1.992770E-04
3.306773E+03	4.661295E-03	2.035571E-04
3.316733E+03	4.768231E-03	2.078846E-04
3.326693E+03	4.877386E-03	2.122927E-04
3.336653E+03	4.987910E-03	2.167437E-04
3.346614E+03	5.100165E-03	2.212532E-04
3.356574E+03	5.214105E-03	2.258187E-04
3.366534E+03	5.329683E-03	2.304378E-04
3.376494E+03	5.446851E-03	2.351080E-04
3.386454E+03	5.565979E-03	2.398448E-04
3.396414E+03	5.686589E-03	2.446273E-04
3.406375E+03	5.809060E-03	2.494713E-04
3.416335E+03	5.933334E-03	2.543740E-04
3.426295E+03	6.058916E-03	2.593136E-04
3.436255E+03	6.186180E-03	2.643059E-04
3.446215E+03	6.315061E-03	2.693477E-04
3.456175E+03	6.445491E-03	2.744357E-04
3.466135E+03	6.577856E-03	2.795859E-04
3.476096E+03	6.711628E-03	2.847755E-04
3.486056E+03	6.846730E-03	2.900008E-04
3.496016E+03	6.983536E-03	2.952775E-04
3.505976E+03	7.121969E-03	3.006017E-04
3.515936E+03	7.261482E-03	3.059502E-04
3.525896E+03	7.402910E-03	3.113577E-04
3.535857E+03	7.545701E-03	3.168006E-04
3.545817E+03	7.689769E-03	3.222750E-04
3.555777E+03	7.835481E-03	3.277961E-04
3.565737E+03	7.982277E-03	3.333398E-04
3.575697E+03	8.130529E-03	3.389217E-04
3.585657E+03	8.279669E-03	3.445176E-04
3.595618E+03	8.430537E-03	3.501623E-04
3.605578E+03	8.582559E-03	3.558315E-04
3.615538E+03	8.735635E-03	3.615209E-04
3.625498E+03	8.889660E-03	3.672258E-04
3.635458E+03	9.044999E-03	3.729611E-04
3.645418E+03	9.201548E-03	3.787223E-04
3.655378E+03	9.359197E-03	3.845044E-04
3.665339E+03	9.517371E-03	3.902838E-04
3.675299E+03	9.676899E-03	3.960941E-04
3.685259E+03	9.837206E-03	4.019118E-04
3.695219E+03	9.998645E-03	4.077508E-04
3.705179E+03	1.016064E-02	4.135878E-04
3.715139E+03	1.032309E-02	4.194179E-04
3.725100E+03	1.048680E-02	4.252748E-04
3.735060E+03	1.065121E-02	4.311345E-04
3.745020E+03	1.081574E-02	4.369739E-04
3.754980E+03	1.098120E-02	4.428258E-04
3.764940E+03	1.114703E-02	4.486673E-04
3.774900E+03	1.131358E-02	4.545122E-04
3.784861E+03	1.148028E-02	4.603379E-04
3.794821E+03	1.164748E-02	4.661585E-04
3.804781E+03	1.181508E-02	4.719696E-04
3.814741E+03	1.198251E-02	4.777490E-04
3.824701E+03	1.215059E-02	4.835289E-04
3.834661E+03	1.231832E-02	4.892694E-04
3.844622E+03	1.248648E-02	4.950024E-04
3.854582E+03	1.265411E-02	5.006889E-04
3.864542E+03	1.282199E-02	5.063607E-04
3.874502E+03	1.299003E-02	5.120140E-04
3.884462E+03	1.315727E-02	5.176110E-04
3.894422E+03	1.332450E-02	5.231834E-04
3.904382E+03	1.349121E-02	5.287111E-04
3.914343E+03	1.365733E-02	5.341915E-04
3.924303E+03	1.382322E-02	5.396389E-04
3.934263E+03	1.398837E-02	5.450342E-04
3.944223E+03	1.415275E-02	5.503758E-04
3.954183E+03	1.431629E-02	5.556617E-04
3.964143E+03	1.447895E-02	5.608906E-04
3.974104E+03	1.464068E-02	5.660611E-04
3.984064E+03	1.480105E-02	5.711567E-04
3.994024E+03	1.496042E-02	5.761924E-04
4.003984E+03	1.511879E-02	5.811675E-04
4.013944E+03	1.527532E-02	5.860514E-04
4.023904E+03	1.543081E-02	5.908749E-04
4.033865E+03	1.558448E-02	5.956083E-04
4.043825E+03	1.573672E-02	6.002675E-04
4.053785E+03	1.588716E-02	6.048389E-04
4.063745E+03	1.603583E-02	6.093241E-04
4.073705E+03	1.618238E-02	6.137107E-04
4.083665E+03	1.632685E-02	6.180010E-04
4.093625E+03	1.646931E-02	6.221979E-04
4.103586E+03	1.660943E-02	6.262902E-04
4.113546E+03	1.674729E-02	6.302815E-04
4.123506E+03	1.688297E-02	6.341755E-04
4.133466E+03	1.701583E-02	6.379492E-04
4.143426E+03	1.714598E-02	6.416071E-04
4.153386E+03	1.727387E-02	6.451677E-04
4.163347E+03	1.739856E-02	6.485961E-04
4.173307E+03	1.752053E-02	6.519115E-04
4.183267E+03	1.763957E-02	6.551066E-04
4.193227E+03	1.775581E-02	6.581877E-04
4.203187E+03	1.786872E-02	6.611357E-04
4.213147E+03	1.797879E-02	6.639701E-04
4.223108E+03	1.808551E-02	6.666727E-04
4.233068E+03	1.818905E-02	6.692509E-04
4.243028E+03	1.828924E-02	6.717000E-04
4.252988E+03	1.838660E-02	6.740390E-04
4.262948E+03	1.848031E-02	6.762399E-04
4.272908E+03	1.857121E-02	6.783336E-04
4.282869E+03	1.865882E-02	6.803043E-04
4.292829E+03	1.874332E-02	6.821594E-04
4.302789E+03	1.882458E-02	6.838949E-04
4.312749E+03	1.890339E-02	6.855405E-04
4.322709E+03	1.897899E-02	6.870696E-04
4.332669E+03	1.905215E-02	6.885111E-04
4.342629E+03	1.912272E-02	6.898608E-04
4.352590E+03	1.919116E-02	6.911354E-04
4.362550E+03	1.925760E-02	6.923408E-04
4.372510E+03	1.932218E-02	6.934827E-04
4.382470E+03	1.938531E-02	6.945768E-04
4.392430E+03	1.944682E-02	6.956176E-04
4.402390E+03	1.950741E-02	6.966300E-04
4.412351E+03	1.956662E-02	6.975979E-04
4.422311E+03	1.962511E-02	6.985455E-04
4.432271E+03	1.968241E-02	6.994563E-04
4.442231E+03	1.973918E-02	7.003539E-04
4.452191E+03	1.979550E-02	7.012413E-04
4.462151E+03	1.985089E-02	7.021019E-04
4.472112E+03	1.990544E-02	7.029392E-04
4.482072E+03	1.995950E-02	7.037654E-04
4.492032E+03	2.001234E-02	7.045551E-04
4.501992E+03	2.006403E-02	7.053115E-04
4.511952E+03	2.011440E-02	7.060283E-04
4.521912E+03	2.016325E-02	7.066995E-04
4.531873E+03	2.021042E-02	7.073193E-04
4.541833E+03	2.025625E-02	7.079001E-04
4.551793E+03	2.030003E-02	7.084177E-04
4.561753E+03	2.034211E-02	7.088846E-04
4.571713E+03	2.038257E-02	7.093041E-04
4.581673E+03	2.042098E-02	7.096614E-04
4.591633E+03	2.045768E-02	7.099686E-04
4.601594E+03	2.049248E-02	7.102200E-04
4.611554E+03	2.052546E-02	7.104186E-04
4.621514E+03	2.055696E-02	7.105760E-04
4.631474E+03	2.058652E-02	7.106775E-04
4.641434E+03	2.061449E-02	7.107347E-04
4.651394E+03	2.064066E-02	7.107416E-04
4.661355E+03	2.066535E-02	7.107092E-04
4.671315E+03	2.068838E-02	7.106314E-04
4.681275E+03	2.070980E-02	7.105106E-04
4.691235E+03	2.072943E-02	7.103410E-04
4.701195E+03	2.074708E-02	7.101165E-04
4.711155E+03	2.076306E-02	7.098476E-04
4.721116E+03	2.077716E-02	7.095281E-04
4.731076E+03	2.078896E-02	7.091440E-04
4.741036E+03	2.079876E-02	7.087055E-04
4.750996E+03	2.080612E-02	7.081985E-04
4.760956E+03	2.081132E-02	7.076327E-04
4.770916E+03	2.081441E-02	7.070101E-04
4.780876E+03	2.081541E-02	7.063319E-04
4.790837E+03	2.081436E-02	7.055998E-04
4.800797E+03	2.081173E-02	7.048303E-04
4.810757E+03	2.080754E-02	7.040244E-04
4.820717E+03	2.080228E-02	7.031985E-04
4.830677E+03	2.079616E-02	7.023603E-04
4.840637E+03	2.078941E-02	7.015181E-04
4.850598E+03	2.078226E-02	7.006793E-04
4.860558E+03	2.077469E-02	6.998440E-04
4.870518E+03	2.076736E-02	6.990345E-04
4.880478E+03	2.076004E-02	6.982429E-04
4.890438E+03	2.075292E-02	6.974759E-04
4.900398E+03	2.074597E-02	6.967331E-04
4.910359E+03	2.073961E-02	6.960285E-04
4.920319E+03	2.073360E-02	6.953540E-04
4.930279E+03	2.072810E-02	6.947158E-04
4.940239E+03	2.072310E-02	6.941129E-04
4.950199E+03	2.071876E-02	6.935517E-04
4.960159E+03	2.071483E-02	6.930235E-04
4.970120E+03	2.071149E-02	6.925345E-04
4.980080E+03	2.070890E-02	6.920909E-04
4.990040E+03	2.070659E-02	6.916765E-04
5.000000E+03	2.070493E-02	6.913046E-04
5.009960E+03	2.070368E-02	6.909667E-04
5.019920E+03	2.070299E-02	6.906685E-04
5.029880E+03	2.070281E-02	6.904086E-04
5.039841E+03	2.070288E-02	6.901783E-04
5.049801E+03	2.070357E-02	6.899905E-04
5.059761E+03	2.070440E-02	6.898296E-04
5.069721E+03	2.070554E-02	6.897011E-04
5.079681E+03	2.070714E-02	6.896107E-04
5.089641E+03	2.070872E-02	6.895429E-04
5.099602E+03	2.071067E-02	6.895102E-04
5.109562E+03	2.071271E-02	6.895044E-04
5.119522E+03	2.071479E-02	6.895239E-04
5.129482E+03	2.071708E-02	6.895747E-04
5.139442E+03	2.071932E-02	6.896483E-04
5.149402E+03	2.072167E-02	6.897508E-04
5.159363E+03	2.072409E-02	6.898806E-04
5.169323E+03	2.072633E-02	6.900299E-04
5.179283E+03	2.072854E-02	6.902045E-04
5.189243E+03	2.073070E-02	6.904036E-04
5.199203E+03	2.073255E-02	6.906191E-04
5.209163E+03	2.073449E-02	6.908643E-04
5.219124E+03	2.073626E-02	6.911315E-04
5.229084E+03	2.073784E-02	6.914200E-04
5.239044E+03	2.073920E-02	6.917292E-04
5.249004E+03	2.074052E-02	6.920656E-04
5.258964E+03	2.074158E-02	6.924218E-04
5.268924E+03	2.074234E-02	6.927973E-04
5.278884E+03	2.074322E-02	6.932061E-04
5.288845E+03	2.074377E-02	6.936336E-04
5.298805E+03	2.074398E-02	6.940799E-04
5.308765E+03	2.074426E-02	6.945586E-04
5.318725E+03	2.074437E-02	6.950628E-04
5.328685E+03	2.074431E-02	6.955923E-04
5.338645E+03	2.074406E-02	6.961470E-04
5.348606E+03	2.074383E-02	6.967340E-04
5.358566E+03	2.074340E-02	6.973461E-04
5.368526E+03	2.074274E-02	6.979831E-04
5.378486E+03	2.074205E-02	6.986521E-04
5.388446E+03	2.074133E-02	6.993527E-04
5.398406E+03	2.074035E-02	7.000780E-04
5.408367E+03	2.073930E-02	7.008347E-04
5.418327E+03	2.073818E-02	7.016225E-04
5.428287E+03	2.073694E-02	7.024401E-04
5.438247E+03	2.073539E-02	7.032798E-04
5.448207E+03	2.073371E-02	7.041475E-04
5.458167E+03	2.073187E-02	7.050418E-04
5.468127E+03	2.072985E-02	7.059617E-04
5.478088E+03	2.072765E-02	7.069061E-04
5.488048E+03	2.072524E-02	7.078735E-04
5.498008E+03	2.072259E-02	7.088630E-04
5.507968E+03	2.071968E-02	7.098729E-04
5.517928E+03	2.071650E-02	7.109024E-04
5.527888E+03	2.071282E-02	7.119431E-04
5.537849E+03	2.070883E-02	7.130006E-04
5.547809E+03	2.070430E-02	7.140669E-04
5.557769E+03	2.069922E-02	7.151409E-04
5.567729E+03	2.069399E-02	7.162357E-04
5.577689E+03	2.068798E-02	7.173289E-04
5.587649E+03	2.068138E-02	7.184267E-04
5.597610E+03	2.067439E-02	7.195354E-04
5.607570E+03	2.066681E-02	7.206473E-04
5.617530E+03	2.065843E-02	7.217543E-04
5.627490E+03	2.064946E-02	7.228632E-04
5.637450E+03	2.063989E-02	7.239733E-04
5.647410E+03	2.062954E-02	7.250772E-04
5.657371E+03	2.061841E-02	7.261746E-04
5.667331E+03	2.060673E-02	7.272725E-04
5.677291E+03	2.059409E-02	7.283563E-04
5.687251E+03	2.058072E-02	7.294333E-04
5.697211E+03	2.056666E-02	7.305036E-04
5.707171E+03	2.055170E-02	7.315601E-04
5.717131E+03	2.053609E-02	7.326103E-04
5.727092E+03	2.051944E-02	7.336401E-04
5.737052E+03	2.050220E-02	7.346644E-04
5.747012E+03	2.048399E-02	7.356691E-04
5.756972E+03	2.046505E-02	7.366620E-04
5.766932E+03	2.044520E-02	7.376364E-04
5.776892E+03	2.042469E-02	7.386003E-04
5.786853E+03	2.040316E-02	7.395397E-04
5.796813E+03	2.038104E-02	7.404701E-04
5.806773E+03	2.035797E-02	7.413775E-04
5.816733E+03	2.033419E-02	7.422700E-04
5.826693E+03	2.030955E-02	7.431410E-04
5.836653E+03	2.028427E-02	7.439989E-04
5.846614E+03	2.025821E-02	7.448369E-04
5.856574E+03	2.023119E-02	7.456485E-04
5.866534E+03	2.020367E-02	7.464494E-04
5.876494E+03	2.017527E-02	7.472255E-04
5.886454E+03	2.014624E-02	7.479848E-04
5.896414E+03	2.011661E-02	7.487284E-04
5.906375E+03	2.008602E-02	7.494420E-04
5.916335E+03	2.005490E-02	7.501409E-04
5.926295E+03	2.002308E-02	7.508185E-04
5.936255E+03	1.999059E-02	7.514753E-04
5.946215E+03	1.995767E-02	7.521192E-04
5.956175E+03	1.992393E-02	7.527358E-04
5.966135E+03	1.988961E-02	7.533329E-04
5.976096E+03	1.985492E-02	7.539181E-04
5.986056E+03	1.981949E-02	7.544768E-04
5.996016E+03	1.978352E-02	7.550166E-04
6.005976E+03	1.974723E-02	7.555448E-04
6.015936E+03	1.971044E-02	7.560540E-04
6.025896E+03	1.967334E-02	7.565515E-04
6.035857E+03	1.963594E-02	7.570370E-04
6.045817E+03	1.959806E-02	7.575027E-04
6.055777E+03	1.956026E-02	7.579706E-04
6.065737E+03	1.952215E-02	7.584250E-04
6.075697E+03	1.948412E-02	7.588806E-04
6.085657E+03	1.944616E-02	7.593363E-04
6.095618E+03	1.940844E-02	7.597991E-04
6.105578E+03	1.937094E-02	7.602679E-04
6.115538E+03	1.933403E-02	7.607569E-04
6.125498E+03	1.929768E-02	7.612649E-04
6.135458E+03	1.926206E-02	7.617984E-04
6.145418E+03	1.922734E-02	7.623638E-04
6.155378E+03	1.919308E-02	7.629443E-04
6.165339E+03	1.915983E-02	7.635615E-04
6.175299E+03	1.912678E-02	7.641829E-04
6.185259E+03	1.909427E-02	7.648222E-04
6.195219E+03	1.906169E-02	7.654540E-04
6.205179E+03	1.902897E-02	7.660766E-04
6.215139E+03	1.899608E-02	7.666876E-04
6.225100E+03	1.896258E-02	7.672689E-04
6.235060E+03	1.892842E-02	7.678181E-04
6.245020E+03	1.889334E-02	7.683249E-04
6.254980E+03	1.885730E-02	7.687864E-04
6.264940E+03	1.882023E-02	7.691997E-04
6.274900E+03	1.878189E-02	7.695542E-04
6.284861E+03	1.874222E-02	7.698469E-04
6.294821E+03	1.870116E-02	7.700747E-04
6.304781E+03	1.865864E-02	7.702345E-04
6.314741E+03	1.861462E-02	7.703233E-04
6.324701E+03	1.856884E-02	7.703302E-04
6.334661E+03	1.852162E-02	7.702677E-04
6.344622E+03	1.847290E-02	7.701329E-04
6.354582E+03	1.842226E-02	7.699071E-04
6.364542E+03	1.837020E-02	7.696110E-04
6.374502E+03	1.831649E-02	7.692339E-04
6.384462E+03	1.826126E-02	7.687810E-04
6.394422E+03	1.820446E-02	7.682496E-04
6.404382E+03	1.814643E-02	7.676532E-04
6.414343E+03	1.808693E-02	7.669815E-04
6.424303E+03	1.802611E-02	7.662400E-04
6.434263E+03	1.796431E-02	7.654428E-04
6.444223E+03	1.790150E-02	7.645879E-04
6.454183E+03	1.783763E-02	7.636733E-04
6.464143E+03	1.777306E-02	7.627136E-04
6.474104E+03	1.770758E-02	7.616992E-04
6.484064E+03	1.764133E-02	7.606366E-04
6.494024E+03	1.757430E-02	7.595245E-04
6.503984E+03	1.750610E-02	7.583455E-04
6.513944E+03	1.743708E-02	7.571149E-04
6.523904E+03	1.736667E-02	7.558072E-04
6.533865E+03	1.729524E-02	7.544381E-04
6.543825E+03	1.722240E-02	7.529905E-04
6.553785E+03	1.714798E-02	7.514558E-04
6.563745E+03	1.707234E-02	7.498500E-04
6.573705E+03	1.699513E-02	7.481567E-04
6.583665E+03	1.691653E-02	7.463838E-04
6.593625E+03	1.683620E-02	7.445152E-04
6.603586E+03	1.675452E-02	7.425676E-04
6.613546E+03	1.667131E-02	7.405329E-04
6.623506E+03	1.658661E-02	7.384119E-04
6.633466E+03	1.650063E-02	7.362135E-04
6.643426E+03	1.641302E-02	7.339217E-04
6.653386E+03	1.632419E-02	7.315543E-04
6.663347E+03	1.623415E-02	7.291119E-04
6.673307E+03	1.614277E-02	7.265875E-04
6.683267E+03	1.605025E-02	7.239906E-04
6.693227E+03	1.595664E-02	7.213224E-04
6.703187E+03	1.586198E-02	7.185844E-04
6.713147E+03	1.576647E-02	7.157860E-04
6.723108E+03	1.566981E-02	7.129126E-04
6.733068E+03	1.557256E-02	7.099902E-04
6.743028E+03	1.547442E-02	7.070042E-04
6.752988E+03	1.537560E-02	7.039641E-04
6.762948E+03	1.527597E-02	7.008641E-04
6.772908E+03	1.517609E-02	6.977297E-04
6.782869E+03	1.507549E-02	6.945387E-04
6.792829E+03	1.497455E-02	6.913091E-04
6.802789E+03	1.487314E-02	6.880346E-04
6.812749E+03	1.477165E-02	6.847331E-04
6.822709E+03	1.466977E-02	6.813905E-04
6.832669E+03	1.456772E-02	6.780166E-04
6.842629E+03	1.446554E-02	6.746133E-04
6.852590E+03	1.436326E-02	6.711824E-04
6.862550E+03	1.426093E-02	6.677260E-04
6.872510E+03	1.415876E-02	6.642535E-04
6.882470E+03	1.405661E-02	6.607591E-04
6.892430E+03	1.395468E-02	6.572523E-04
6.902390E+03	1.385285E-02	6.537272E-04
6.912351E+03	1.375131E-02	6.501931E-04
6.922311E+03	1.365010E-02	6.466521E-04
6.932271E+03	1.354910E-02	6.430980E-04
6.942231E+03	1.344848E-02	6.395401E-04
6.952191E+03	1.334830E-02	6.359803E-04
6.962151E+03	1.324857E-02	6.324200E-04
6.972112E+03	1.314932E-02	6.288608E-04
6.982072E+03	1.305058E-02	6.253044E-04
6.992032E+03	1.295239E-02	6.217521E-04
7.001992E+03	1.285476E-02	6.182057E-04
7.011952E+03	1.275772E-02	6.146663E-04
7.021912E+03	1.266130E-02	6.111355E-04
7.031873E+03	1.256568E-02	6.076222E-04
7.041833E+03	1.247056E-02	6.041125E-04
7.051793E+03	1.237628E-02	6.006229E-04
7.061753E+03	1.228270E-02	5.971472E-04
7.071713E+03	1.218985E-02	5.936865E-04
7.081673E+03	1.209788E-02	5.902492E-04
7.091633E+03	1.200668E-02	5.868295E-04
7.101594E+03	1.191626E-02	5.834281E-04
7.111554E+03	1.182677E-02	5.800536E-04
7.121514E+03	1.173810E-02	5.766996E-04
7.131474E+03	1.165039E-02	5.733746E-04
7.141434E+03	1.156352E-02	5.700718E-04
7.151394E+03	1.147764E-02	5.667998E-04
7.161355E+03	1.139277E-02	5.635594E-04
7.171315E+03	1.130876E-02	5.603439E-04
7.181275E+03	1.122593E-02	5.571689E-04
7.191235E+03	1.114398E-02	5.540205E-04
7.201195E+03	1.106307E-02	5.509066E-04
7.211155E+03	1.098321E-02	5.478281E-04
7.221116E+03	1.090455E-02	5.447924E-04
7.231076E+03	1.082694E-02	5.417933E-04
7.241036E+03	1.075040E-02	5.388312E-04
7.250996E+03	1.067492E-02	5.359067E-04
7.260956E+03	1.060079E-02	5.330342E-04
7.270916E+03	1.052774E-02	5.302004E-04
7.280876E+03	1.045589E-02	5.274123E-04
7.290837E+03	1.038512E-02	5.246638E-04
7.300797E+03	1.031570E-02	5.219687E-04
7.310757E+03	1.024736E-02	5.193138E-04
7.320717E+03	1.018022E-02	5.167062E-04
7.330677E+03	1.011430E-02	5.141461E-04
7.340637E+03	1.004945E-02	5.116271E-04
7.350598E+03	9.985812E-03	5.091562E-04
7.360558E+03	9.923108E-03	5.067200E-04
7.370518E+03	9.861347E-03	5.043191E-04
7.380478E+03	9.800654E-03	5.019600E-04
7.390438E+03	9.740643E-03	4.996234E-04
7.400398E+03	9.681440E-03	4.973159E-04
7.410359E+03	9.623048E-03	4.950380E-04
7.420319E+03	9.565593E-03	4.927963E-04
7.430279E+03	9.508949E-03	4.905846E-04
7.440239E+03	9.453239E-03	4.884095E-04
7.450199E+03	9.398458E-03	4.862711E-04
7.460159E+03	9.344732E-03	4.841761E-04
7.470120E+03	9.291929E-03	4.821180E-04
7.480080E+03	9.240164E-03	4.801030E-04
7.490040E+03	9.189315E-03	4.781249E-04
7.500000E+03	9.139495E-03	4.761901E-04
7.509960E+03	9.090697E-03	4.742983E-04
7.519920E+03	9.042670E-03	4.724368E-04
7.529880E+03	8.995653E-03	4.706182E-04
7.539841E+03	8.949515E-03	4.688360E-04
7.549801E+03	8.904253E-03	4.670903E-04
7.559761E+03	8.859859E-03	4.653807E-04
7.569721E+03	8.816205E-03	4.637010E-04
7.579681E+03	8.773287E-03	4.620510E-04
7.589641E+03	8.731215E-03	4.604368E-04
7.599602E+03	8.689989E-03	4.588584E-04
7.609562E+03	8.649356E-03	4.573030E-04
7.619522E+03	8.609435E-03	4.557768E-04
7.629482E+03	8.570219E-03	4.542797E-04
7.639442E+03	8.531818E-03	4.528177E-04
7.649402E+03	8.493993E-03	4.513784E-04
7.659363E+03	8.456736E-03	4.499614E-04
7.669323E+03	8.420280E-03	4.485794E-04
7.679283E+03	8.384380E-03	4.472194E-04
7.689243E+03	8.349150E-03	4.458877E-04
7.699203E+03	8.314587E-03	4.445843E-04
7.709163E+03	8.280678E-03	4.433088E-04
7.719124E+03	8.247426E-03	4.420613E-04
7.729084E+03	8.214706E-03	4.408354E-04
