#wls	flux	fluxerr
1.600000E+03	1.267406E-14	3.081586E-15
1.640000E+03	1.065171E-14	2.348023E-15
1.680000E+03	8.859227E-15	1.753304E-15
1.720000E+03	7.289162E-15	1.280203E-15
1.760000E+03	5.930891E-15	9.115644E-16
1.800000E+03	4.770671E-15	6.307361E-16
1.840000E+03	3.790563E-15	4.218744E-16
1.880000E+03	2.973134E-15	2.708701E-16
1.920000E+03	2.298996E-15	1.651686E-16
1.960000E+03	1.749068E-15	9.411359E-17
2.000000E+03	1.305242E-15	4.897963E-17
2.040000E+03	9.514997E-16	2.303615E-17
2.080000E+03	6.749016E-16	1.145927E-17
2.120000E+03	4.689739E-16	8.280850E-18
2.160000E+03	3.303618E-16	6.545835E-18
2.200000E+03	2.465389E-16	4.898879E-18
2.240000E+03	2.034219E-16	3.885645E-18
2.280000E+03	1.923774E-16	4.095960E-18
2.320000E+03	2.092896E-16	5.537892E-18
2.360000E+03	2.565406E-16	8.116562E-18
2.400000E+03	3.456152E-16	1.210171E-17
2.440000E+03	4.982042E-16	1.780861E-17
2.480000E+03	7.472551E-16	2.505784E-17
2.520000E+03	1.133168E-15	3.231771E-17
2.560000E+03	1.687958E-15	3.631892E-17
2.600000E+03	2.400626E-15	3.687169E-17
2.640000E+03	3.183657E-15	5.313679E-17
2.680000E+03	3.944467E-15	9.462046E-17
2.720000E+03	4.657579E-15	1.467614E-16
2.760000E+03	5.338975E-15	2.005843E-16
2.800000E+03	6.019726E-15	2.524852E-16
2.840000E+03	6.722421E-15	3.014763E-16
2.880000E+03	7.448007E-15	3.472802E-16
2.920000E+03	8.173902E-15	3.891885E-16
2.960000E+03	8.863879E-15	4.258080E-16
3.000000E+03	9.478746E-15	4.552535E-16
3.010000E+03	9.617142E-15	4.612973E-16
3.020000E+03	9.748413E-15	4.667602E-16
3.030000E+03	9.872294E-15	4.716277E-16
3.040000E+03	9.989060E-15	4.759119E-16
3.050000E+03	1.009843E-14	4.795987E-16
3.060000E+03	1.020049E-14	4.826905E-16
3.070000E+03	1.029565E-14	4.852058E-16
3.080000E+03	1.038406E-14	4.871478E-16
3.090000E+03	1.046626E-14	4.885351E-16
3.100000E+03	1.054338E-14	4.894110E-16
3.110000E+03	1.061584E-14	4.897813E-16
3.120000E+03	1.068488E-14	4.896852E-16
3.130000E+03	1.075146E-14	4.891429E-16
3.140000E+03	1.081751E-14	4.882138E-16
3.150000E+03	1.088377E-14	4.868976E-16
3.160000E+03	1.095191E-14	4.852300E-16
3.170000E+03	1.102362E-14	4.832422E-16
3.180000E+03	1.110037E-14	4.809498E-16
3.190000E+03	1.118318E-14	4.783433E-16
3.200000E+03	1.127400E-14	4.754493E-16
3.210000E+03	1.137366E-14	4.722394E-16
3.220000E+03	1.148341E-14	4.687000E-16
3.230000E+03	1.160395E-14	4.647875E-16
3.240000E+03	1.173615E-14	4.604616E-16
3.250000E+03	1.188041E-14	4.556592E-16
3.260000E+03	1.203688E-14	4.503029E-16
3.270000E+03	1.220521E-14	4.442939E-16
3.280000E+03	1.238511E-14	4.375363E-16
3.290000E+03	1.257576E-14	4.299152E-16
3.300000E+03	1.277576E-14	4.213011E-16
3.310000E+03	1.298370E-14	4.115740E-16
3.320000E+03	1.319736E-14	4.006011E-16
3.330000E+03	1.341448E-14	3.882694E-16
3.340000E+03	1.363188E-14	3.744682E-16
3.350000E+03	1.384610E-14	3.591177E-16
3.360000E+03	1.405309E-14	3.421745E-16
3.370000E+03	1.424823E-14	3.236468E-16
3.380000E+03	1.442620E-14	3.036125E-16
3.390000E+03	1.458076E-14	2.822377E-16
3.400000E+03	1.470529E-14	2.598171E-16
3.410000E+03	1.479164E-14	2.367850E-16
3.420000E+03	1.483154E-14	2.137730E-16
3.430000E+03	1.481584E-14	1.915524E-16
3.440000E+03	1.473838E-14	1.709207E-16
3.450000E+03	1.459284E-14	1.527893E-16
3.460000E+03	1.437471E-14	1.380332E-16
3.470000E+03	1.408785E-14	1.270755E-16
3.480000E+03	1.373419E-14	1.197755E-16
3.490000E+03	1.331094E-14	1.152481E-16
3.500000E+03	1.282253E-14	1.122057E-16
3.510000E+03	1.227497E-14	1.095995E-16
3.520000E+03	1.167709E-14	1.068035E-16
3.530000E+03	1.104550E-14	1.034526E-16
3.540000E+03	1.039817E-14	9.952716E-17
3.550000E+03	9.752096E-15	9.521635E-17
3.560000E+03	9.126479E-15	9.069605E-17
3.570000E+03	8.537627E-15	8.620633E-17
3.580000E+03	7.998301E-15	8.200454E-17
3.590000E+03	7.519217E-15	7.823664E-17
3.600000E+03	7.107958E-15	7.504444E-17
3.610000E+03	6.769413E-15	7.255112E-17
3.620000E+03	6.504916E-15	7.073487E-17
3.630000E+03	6.315149E-15	6.958719E-17
3.640000E+03	6.200795E-15	6.913594E-17
3.650000E+03	6.161365E-15	6.936427E-17
3.660000E+03	6.197255E-15	7.028530E-17
3.670000E+03	6.309779E-15	7.192515E-17
3.680000E+03	6.497954E-15	7.420413E-17
3.690000E+03	6.761205E-15	7.703655E-17
3.700000E+03	7.099436E-15	8.034917E-17
3.710000E+03	7.511544E-15	8.402039E-17
3.720000E+03	7.995481E-15	8.794028E-17
3.730000E+03	8.548466E-15	9.204262E-17
3.740000E+03	9.166213E-15	9.627784E-17
3.750000E+03	9.842688E-15	1.006804E-16
3.760000E+03	1.057020E-14	1.053362E-16
3.770000E+03	1.134097E-14	1.102112E-16
3.780000E+03	1.214610E-14	1.152951E-16
3.790000E+03	1.297559E-14	1.206018E-16
3.800000E+03	1.381985E-14	1.259296E-16
3.810000E+03	1.466847E-14	1.311073E-16
3.820000E+03	1.551117E-14	1.361016E-16
3.830000E+03	1.633705E-14	1.408344E-16
3.840000E+03	1.713493E-14	1.454321E-16
3.850000E+03	1.789429E-14	1.501612E-16
3.860000E+03	1.860415E-14	1.549278E-16
3.870000E+03	1.925432E-14	1.597038E-16
3.880000E+03	1.983649E-14	1.645566E-16
3.890000E+03	2.034394E-14	1.691411E-16
3.900000E+03	2.077289E-14	1.732207E-16
3.910000E+03	2.112265E-14	1.767730E-16
3.920000E+03	2.139630E-14	1.796000E-16
3.930000E+03	2.160007E-14	1.817082E-16
3.940000E+03	2.174249E-14	1.832329E-16
3.950000E+03	2.183373E-14	1.839070E-16
3.960000E+03	2.188507E-14	1.835658E-16
3.970000E+03	2.190707E-14	1.822388E-16
3.980000E+03	2.190711E-14	1.797922E-16
3.990000E+03	2.189082E-14	1.763286E-16
4.000000E+03	2.186209E-14	1.721979E-16
4.010000E+03	2.181786E-14	1.675872E-16
4.020000E+03	2.175313E-14	1.629494E-16
4.030000E+03	2.166216E-14	1.588343E-16
4.040000E+03	2.153306E-14	1.551387E-16
4.050000E+03	2.135424E-14	1.518690E-16
4.060000E+03	2.111680E-14	1.491417E-16
4.070000E+03	2.081526E-14	1.464972E-16
4.080000E+03	2.044776E-14	1.436832E-16
4.090000E+03	2.001638E-14	1.407440E-16
4.100000E+03	1.952632E-14	1.374341E-16
4.110000E+03	1.898605E-14	1.337924E-16
4.120000E+03	1.840618E-14	1.300290E-16
4.130000E+03	1.779663E-14	1.258568E-16
4.140000E+03	1.716875E-14	1.211856E-16
4.150000E+03	1.653434E-14	1.161947E-16
4.160000E+03	1.590463E-14	1.109027E-16
4.170000E+03	1.529062E-14	1.055773E-16
4.180000E+03	1.470326E-14	1.006247E-16
4.190000E+03	1.415343E-14	9.609687E-17
4.200000E+03	1.365124E-14	9.217578E-17
4.210000E+03	1.320556E-14	8.908336E-17
4.220000E+03	1.282391E-14	8.657869E-17
4.230000E+03	1.251271E-14	8.452959E-17
4.240000E+03	1.227664E-14	8.297148E-17
4.250000E+03	1.211634E-14	8.170337E-17
4.260000E+03	1.203140E-14	8.071050E-17
4.270000E+03	1.201969E-14	8.014851E-17
4.280000E+03	1.207372E-14	7.992011E-17
4.290000E+03	1.218435E-14	8.009356E-17
4.300000E+03	1.234082E-14	8.083239E-17
4.310000E+03	1.252686E-14	8.186625E-17
4.320000E+03	1.272410E-14	8.301887E-17
4.330000E+03	1.291532E-14	8.432022E-17
4.340000E+03	1.308577E-14	8.561575E-17
4.350000E+03	1.322374E-14	8.693727E-17
4.360000E+03	1.332120E-14	8.847054E-17
4.370000E+03	1.337763E-14	9.004289E-17
4.380000E+03	1.339999E-14	9.129495E-17
4.390000E+03	1.339903E-14	9.194099E-17
4.400000E+03	1.338608E-14	9.167649E-17
4.410000E+03	1.337340E-14	9.046720E-17
4.420000E+03	1.337157E-14	8.849529E-17
4.430000E+03	1.338572E-14	8.583655E-17
4.440000E+03	1.341919E-14	8.282362E-17
4.450000E+03	1.347360E-14	8.001275E-17
4.460000E+03	1.354663E-14	7.773468E-17
4.470000E+03	1.363388E-14	7.653478E-17
4.480000E+03	1.372941E-14	7.694370E-17
4.490000E+03	1.382546E-14	7.854538E-17
4.500000E+03	1.391155E-14	8.073372E-17
4.510000E+03	1.397711E-14	8.310849E-17
4.520000E+03	1.401526E-14	8.511986E-17
4.530000E+03	1.402067E-14	8.656965E-17
4.540000E+03	1.398933E-14	8.754902E-17
4.550000E+03	1.391991E-14	8.787510E-17
4.560000E+03	1.381247E-14	8.758129E-17
4.570000E+03	1.366839E-14	8.691554E-17
4.580000E+03	1.349167E-14	8.584823E-17
4.590000E+03	1.328694E-14	8.454362E-17
4.600000E+03	1.306002E-14	8.330990E-17
4.610000E+03	1.281901E-14	8.206555E-17
4.620000E+03	1.257233E-14	8.086819E-17
4.630000E+03	1.232756E-14	7.990540E-17
4.640000E+03	1.209207E-14	7.902899E-17
4.650000E+03	1.187167E-14	7.822130E-17
4.660000E+03	1.167137E-14	7.760557E-17
4.670000E+03	1.149265E-14	7.701952E-17
4.680000E+03	1.133589E-14	7.643587E-17
4.690000E+03	1.120022E-14	7.597059E-17
4.700000E+03	1.108120E-14	7.549868E-17
4.710000E+03	1.097387E-14	7.502555E-17
4.720000E+03	1.087289E-14	7.464723E-17
4.730000E+03	1.077175E-14	7.415239E-17
4.740000E+03	1.066435E-14	7.344223E-17
4.750000E+03	1.054577E-14	7.260603E-17
4.760000E+03	1.041416E-14	7.166207E-17
4.770000E+03	1.026844E-14	7.079026E-17
4.780000E+03	1.010997E-14	7.020610E-17
4.790000E+03	9.943940E-15	6.972368E-17
4.800000E+03	9.776373E-15	6.918826E-17
4.810000E+03	9.613118E-15	6.857195E-17
4.820000E+03	9.459242E-15	6.773523E-17
4.830000E+03	9.318748E-15	6.666523E-17
4.840000E+03	9.194626E-15	6.546575E-17
4.850000E+03	9.087541E-15	6.412442E-17
4.860000E+03	8.997145E-15	6.273636E-17
4.870000E+03	8.922673E-15	6.147054E-17
4.880000E+03	8.862518E-15	6.028677E-17
4.890000E+03	8.814788E-15	5.923037E-17
4.900000E+03	8.778378E-15	5.842767E-17
4.910000E+03	8.753151E-15	5.778902E-17
4.920000E+03	8.739945E-15	5.732177E-17
4.930000E+03	8.739891E-15	5.712706E-17
4.940000E+03	8.754344E-15	5.709670E-17
4.950000E+03	8.785093E-15	5.722456E-17
4.960000E+03	8.833433E-15	5.759832E-17
4.970000E+03	8.899520E-15	5.808398E-17
4.980000E+03	8.982892E-15	5.863830E-17
4.990000E+03	9.082665E-15	5.932623E-17
5.000000E+03	9.196230E-15	6.001204E-17
5.010000E+03	9.320700E-15	6.066609E-17
5.020000E+03	9.452542E-15	6.136737E-17
5.030000E+03	9.587585E-15	6.199316E-17
5.040000E+03	9.721578E-15	6.253225E-17
5.050000E+03	9.850307E-15	6.308921E-17
5.060000E+03	9.970019E-15	6.355683E-17
5.070000E+03	1.007730E-14	6.394183E-17
5.080000E+03	1.016892E-14	6.434794E-17
5.090000E+03	1.024145E-14	6.459238E-17
5.100000E+03	1.029170E-14	6.459477E-17
5.110000E+03	1.031670E-14	6.442374E-17
5.120000E+03	1.031277E-14	6.397340E-17
5.130000E+03	1.027698E-14	6.330157E-17
5.140000E+03	1.020689E-14	6.258760E-17
5.150000E+03	1.010222E-14	6.175477E-17
5.160000E+03	9.963704E-15	6.083835E-17
5.170000E+03	9.794308E-15	5.995908E-17
5.180000E+03	9.600986E-15	5.891393E-17
5.190000E+03	9.391977E-15	5.761464E-17
5.200000E+03	9.175946E-15	5.615400E-17
5.210000E+03	8.962112E-15	5.451938E-17
5.220000E+03	8.759384E-15	5.286262E-17
5.230000E+03	8.574426E-15	5.141326E-17
5.240000E+03	8.411393E-15	5.012709E-17
5.250000E+03	8.272763E-15	4.904384E-17
5.260000E+03	8.159241E-15	4.827704E-17
5.270000E+03	8.068205E-15	4.767587E-17
5.280000E+03	7.996096E-15	4.718470E-17
5.290000E+03	7.938877E-15	4.685106E-17
5.300000E+03	7.892160E-15	4.651684E-17
5.310000E+03	7.851554E-15	4.613093E-17
5.320000E+03	7.813628E-15	4.575616E-17
5.330000E+03	7.776414E-15	4.527728E-17
5.340000E+03	7.739033E-15	4.468532E-17
5.350000E+03	7.701615E-15	4.405577E-17
5.360000E+03	7.666508E-15	4.324707E-17
5.370000E+03	7.636524E-15	4.221874E-17
5.380000E+03	7.614585E-15	4.107422E-17
5.390000E+03	7.602571E-15	3.981071E-17
5.400000E+03	7.601940E-15	3.862506E-17
5.410000E+03	7.612618E-15	3.790820E-17
5.420000E+03	7.631344E-15	3.788179E-17
5.430000E+03	7.656523E-15	3.858797E-17
5.440000E+03	7.687828E-15	3.988677E-17
5.450000E+03	7.722673E-15	4.140165E-17
5.460000E+03	7.757544E-15	4.291204E-17
5.470000E+03	7.789482E-15	4.437316E-17
5.480000E+03	7.816142E-15	4.558496E-17
5.490000E+03	7.835390E-15	4.647986E-17
5.500000E+03	7.846533E-15	4.712869E-17
5.510000E+03	7.850517E-15	4.743165E-17
5.520000E+03	7.849421E-15	4.740671E-17
5.530000E+03	7.845164E-15	4.718831E-17
5.540000E+03	7.839595E-15	4.674443E-17
5.550000E+03	7.834365E-15	4.616347E-17
5.560000E+03	7.830894E-15	4.563313E-17
5.570000E+03	7.828522E-15	4.511088E-17
5.580000E+03	7.826419E-15	4.466752E-17
5.590000E+03	7.823475E-15	4.445600E-17
5.600000E+03	7.817427E-15	4.433758E-17
5.610000E+03	7.805911E-15	4.426918E-17
5.620000E+03	7.787402E-15	4.432814E-17
5.630000E+03	7.760726E-15	4.435959E-17
5.640000E+03	7.725452E-15	4.433293E-17
5.650000E+03	7.682181E-15	4.434394E-17
5.660000E+03	7.632186E-15	4.426615E-17
5.670000E+03	7.577656E-15	4.408905E-17
5.680000E+03	7.521236E-15	4.391497E-17
5.690000E+03	7.465465E-15	4.363497E-17
5.700000E+03	7.413101E-15	4.325069E-17
5.710000E+03	7.366713E-15	4.288346E-17
5.720000E+03	7.327825E-15	4.247900E-17
5.730000E+03	7.297440E-15	4.210104E-17
5.740000E+03	7.276379E-15	4.189859E-17
5.750000E+03	7.263381E-15	4.176616E-17
5.760000E+03	7.256797E-15	4.168850E-17
5.770000E+03	7.254963E-15	4.175727E-17
5.780000E+03	7.254650E-15	4.185272E-17
5.790000E+03	7.252587E-15	4.196697E-17
5.800000E+03	7.245863E-15	4.220313E-17
5.810000E+03	7.230611E-15	4.245176E-17
5.820000E+03	7.203239E-15	4.270685E-17
5.830000E+03	7.161439E-15	4.306779E-17
5.840000E+03	7.103020E-15	4.341605E-17
5.850000E+03	7.026937E-15	4.371791E-17
5.860000E+03	6.933675E-15	4.402395E-17
5.870000E+03	6.824569E-15	4.417841E-17
5.880000E+03	6.702228E-15	4.410064E-17
5.890000E+03	6.569683E-15	4.381342E-17
5.900000E+03	6.430279E-15	4.323287E-17
5.910000E+03	6.287326E-15	4.236769E-17
5.920000E+03	6.143667E-15	4.130802E-17
5.930000E+03	6.001166E-15	4.003386E-17
5.940000E+03	5.860811E-15	3.859801E-17
5.950000E+03	5.723057E-15	3.711523E-17
5.960000E+03	5.587445E-15	3.559426E-17
5.970000E+03	5.452996E-15	3.411260E-17
5.980000E+03	5.318580E-15	3.278320E-17
5.990000E+03	5.183601E-15	3.155321E-17
6.000000E+03	5.047390E-15	3.042679E-17
6.010000E+03	4.910358E-15	2.946282E-17
6.020000E+03	4.774252E-15	2.856999E-17
6.030000E+03	4.641582E-15	2.773071E-17
6.040000E+03	4.515304E-15	2.700207E-17
6.050000E+03	4.399306E-15	2.633262E-17
6.060000E+03	4.297672E-15	2.574596E-17
6.070000E+03	4.213911E-15	2.532276E-17
6.080000E+03	4.150936E-15	2.502226E-17
6.090000E+03	4.111131E-15	2.485708E-17
6.100000E+03	4.096373E-15	2.488879E-17
6.110000E+03	4.106279E-15	2.505162E-17
6.120000E+03	4.139947E-15	2.532569E-17
6.130000E+03	4.196185E-15	2.574432E-17
6.140000E+03	4.272233E-15	2.623212E-17
6.150000E+03	4.364781E-15	2.676521E-17
6.160000E+03	4.470605E-15	2.738402E-17
6.170000E+03	4.586318E-15	2.803585E-17
6.180000E+03	4.708319E-15	2.873053E-17
6.190000E+03	4.833436E-15	2.954185E-17
6.200000E+03	4.958943E-15	3.042321E-17
6.210000E+03	5.082416E-15	3.137990E-17
6.220000E+03	5.201543E-15	3.246488E-17
6.230000E+03	5.314411E-15	3.356703E-17
6.240000E+03	5.419375E-15	3.461550E-17
6.250000E+03	5.514777E-15	3.561147E-17
6.260000E+03	5.599194E-15	3.644475E-17
6.270000E+03	5.671257E-15	3.707726E-17
6.280000E+03	5.729843E-15	3.755180E-17
6.290000E+03	5.773963E-15	3.780067E-17
6.300000E+03	5.802853E-15	3.782634E-17
6.310000E+03	5.816199E-15	3.769652E-17
6.320000E+03	5.814279E-15	3.735118E-17
6.330000E+03	5.797607E-15	3.679105E-17
6.340000E+03	5.767351E-15	3.608003E-17
6.350000E+03	5.725605E-15	3.515843E-17
6.360000E+03	5.674665E-15	3.405150E-17
6.370000E+03	5.617485E-15	3.289680E-17
6.380000E+03	5.557901E-15	3.177898E-17
6.390000E+03	5.499659E-15	3.090137E-17
6.400000E+03	5.446038E-15	3.054229E-17
6.410000E+03	5.399352E-15	3.073947E-17
6.420000E+03	5.357967E-15	3.133126E-17
6.430000E+03	5.319490E-15	3.215414E-17
6.440000E+03	5.282277E-15	3.297850E-17
6.450000E+03	5.244980E-15	3.369450E-17
6.460000E+03	5.206564E-15	3.429995E-17
6.470000E+03	5.166710E-15	3.472639E-17
6.480000E+03	5.125501E-15	3.498068E-17
6.490000E+03	5.082904E-15	3.513259E-17
6.500000E+03	5.039408E-15	3.516419E-17
6.510000E+03	4.995443E-15	3.510865E-17
6.520000E+03	4.951365E-15	3.504162E-17
6.530000E+03	4.907597E-15	3.493270E-17
6.540000E+03	4.864485E-15	3.479310E-17
6.550000E+03	4.822369E-15	3.467857E-17
6.560000E+03	4.781463E-15	3.455284E-17
6.570000E+03	4.742055E-15	3.442581E-17
6.580000E+03	4.704259E-15	3.434759E-17
6.590000E+03	4.668103E-15	3.427198E-17
6.600000E+03	4.633680E-15	3.419487E-17
6.610000E+03	4.600990E-15	3.415660E-17
6.620000E+03	4.569819E-15	3.411609E-17
6.630000E+03	4.540101E-15	3.407638E-17
6.640000E+03	4.511632E-15	3.407872E-17
6.650000E+03	4.484347E-15	3.408075E-17
6.660000E+03	4.457898E-15	3.407497E-17
6.670000E+03	4.432123E-15	3.409437E-17
6.680000E+03	4.406890E-15	3.409664E-17
6.690000E+03	4.382024E-15	3.407710E-17
6.700000E+03	4.357309E-15	3.406855E-17
6.710000E+03	4.332577E-15	3.403229E-17
6.720000E+03	4.307767E-15	3.396687E-17
6.730000E+03	4.282709E-15	3.390648E-17
6.740000E+03	4.257405E-15	3.381903E-17
6.750000E+03	4.231671E-15	3.370726E-17
6.760000E+03	4.205681E-15	3.361325E-17
6.770000E+03	4.179359E-15	3.351432E-17
6.780000E+03	4.152978E-15	3.342554E-17
6.790000E+03	4.126527E-15	3.338975E-17
6.800000E+03	4.100227E-15	3.338011E-17
6.810000E+03	4.074228E-15	3.339746E-17
6.820000E+03	4.048615E-15	3.347080E-17
6.830000E+03	4.023603E-15	3.356330E-17
6.840000E+03	3.999257E-15	3.366504E-17
6.850000E+03	3.975776E-15	3.379842E-17
6.860000E+03	3.953095E-15	3.392702E-17
6.870000E+03	3.931428E-15	3.404575E-17
6.880000E+03	3.910746E-15	3.417613E-17
6.890000E+03	3.891021E-15	3.428657E-17
6.900000E+03	3.872135E-15	3.437065E-17
6.910000E+03	3.854195E-15	3.445091E-17
6.920000E+03	3.836917E-15	3.449687E-17
6.930000E+03	3.820467E-15	3.450801E-17
6.940000E+03	3.804665E-15	3.450786E-17
6.950000E+03	3.789446E-15	3.447590E-17
6.960000E+03	3.774839E-15	3.441938E-17
6.970000E+03	3.760736E-15	3.437034E-17
6.980000E+03	3.747052E-15	3.431483E-17
6.990000E+03	3.733708E-15	3.426285E-17
7.000000E+03	3.720613E-15	3.424259E-17
7.010000E+03	3.707585E-15	3.422279E-17
7.020000E+03	3.694360E-15	3.419006E-17
7.030000E+03	3.680914E-15	3.415750E-17
7.040000E+03	3.666845E-15	3.409125E-17
7.050000E+03	3.652221E-15	3.398858E-17
7.060000E+03	3.636705E-15	3.387102E-17
7.070000E+03	3.620291E-15	3.372445E-17
7.080000E+03	3.602800E-15	3.356058E-17
7.090000E+03	3.584168E-15	3.341585E-17
7.100000E+03	3.564383E-15	3.328092E-17
7.110000E+03	3.543274E-15	3.316612E-17
7.120000E+03	3.520945E-15	3.310085E-17
7.130000E+03	3.497358E-15	3.305793E-17
7.140000E+03	3.472679E-15	3.302848E-17
7.150000E+03	3.447081E-15	3.302408E-17
7.160000E+03	3.420710E-15	3.301491E-17
7.170000E+03	3.393912E-15	3.299403E-17
7.180000E+03	3.366854E-15	3.297449E-17
7.190000E+03	3.339937E-15	3.293447E-17
7.200000E+03	3.313368E-15	3.287165E-17
7.210000E+03	3.287351E-15	3.280665E-17
7.220000E+03	3.262115E-15	3.272875E-17
7.230000E+03	3.237813E-15	3.264733E-17
7.240000E+03	3.214505E-15	3.258724E-17
7.250000E+03	3.192138E-15	3.253085E-17
7.260000E+03	3.170638E-15	3.247398E-17
7.270000E+03	3.149935E-15	3.242539E-17
7.280000E+03	3.129843E-15	3.235557E-17
7.290000E+03	3.110061E-15	3.224716E-17
7.300000E+03	3.090594E-15	3.210301E-17
7.310000E+03	3.071248E-15	3.189626E-17
7.320000E+03	3.051890E-15	3.161947E-17
7.330000E+03	3.032585E-15	3.128743E-17
7.340000E+03	3.013249E-15	3.089145E-17
7.350000E+03	2.994010E-15	3.044565E-17
7.360000E+03	2.975076E-15	2.998227E-17
7.370000E+03	2.956627E-15	2.950458E-17
7.380000E+03	2.939058E-15	2.903657E-17
7.390000E+03	2.922559E-15	2.861558E-17
7.400000E+03	2.907522E-15	2.824376E-17
7.410000E+03	2.894133E-15	2.793756E-17
7.420000E+03	2.882745E-15	2.772542E-17
7.430000E+03	2.873317E-15	2.758321E-17
7.440000E+03	2.865858E-15	2.750019E-17
7.450000E+03	2.860441E-15	2.748508E-17
7.460000E+03	2.856775E-15	2.750925E-17
7.470000E+03	2.854837E-15	2.756758E-17
7.480000E+03	2.854336E-15	2.767323E-17
7.490000E+03	2.855038E-15	2.780641E-17
7.500000E+03	2.856580E-15	2.796532E-17
7.510000E+03	2.858888E-15	2.816876E-17
7.520000E+03	2.861400E-15	2.839273E-17
7.530000E+03	2.863668E-15	2.862946E-17
7.540000E+03	2.865330E-15	2.888507E-17
7.550000E+03	2.865657E-15	2.911740E-17
7.560000E+03	2.864094E-15	2.929938E-17
7.570000E+03	2.859939E-15	2.942342E-17
7.580000E+03	2.852542E-15	2.945750E-17
7.590000E+03	2.841392E-15	2.939359E-17
7.600000E+03	2.825989E-15	2.924624E-17
7.610000E+03	2.805847E-15	2.900526E-17
7.620000E+03	2.780508E-15	2.868226E-17
7.630000E+03	2.749856E-15	2.830899E-17
7.640000E+03	2.713442E-15	2.787583E-17
7.650000E+03	2.671224E-15	2.739289E-17
7.660000E+03	2.623113E-15	2.688256E-17
7.670000E+03	2.569353E-15	2.632944E-17
7.680000E+03	2.510097E-15	2.573163E-17
7.690000E+03	2.445921E-15	2.510591E-17
7.700000E+03	2.377458E-15	2.443494E-17
7.710000E+03	2.305461E-15	2.371976E-17
7.720000E+03	2.230754E-15	2.297876E-17
7.730000E+03	2.154415E-15	2.220680E-17
7.740000E+03	2.077444E-15	2.141523E-17
7.750000E+03	2.000727E-15	2.062955E-17
7.760000E+03	1.925557E-15	1.985664E-17
