#wls	flux	fluxerr
1.600000E+03	3.076116E-14	7.025465E-15
1.640000E+03	2.593676E-14	5.344768E-15
1.680000E+03	2.158385E-14	3.971858E-15
1.720000E+03	1.771207E-14	2.875101E-15
1.760000E+03	1.432109E-14	2.020378E-15
1.800000E+03	1.139983E-14	1.372360E-15
1.840000E+03	8.923464E-15	8.955974E-16
1.880000E+03	6.864366E-15	5.570489E-16
1.920000E+03	5.186180E-15	3.261990E-16
1.960000E+03	3.849264E-15	1.762861E-16
2.000000E+03	2.812174E-15	8.479845E-17
2.040000E+03	2.033543E-15	3.413918E-17
2.080000E+03	1.471801E-15	1.424983E-17
2.120000E+03	1.084156E-15	1.415816E-17
2.160000E+03	8.299314E-16	1.351092E-17
2.200000E+03	6.758639E-16	1.071482E-17
2.240000E+03	5.990970E-16	8.286849E-18
2.280000E+03	5.874780E-16	9.217775E-18
2.320000E+03	6.399570E-16	1.387528E-17
2.360000E+03	7.679700E-16	2.131071E-17
2.400000E+03	9.973899E-16	3.180255E-17
2.440000E+03	1.368736E-15	4.559743E-17
2.480000E+03	1.931154E-15	6.150158E-17
2.520000E+03	2.721864E-15	7.563777E-17
2.560000E+03	3.728871E-15	8.257889E-17
2.600000E+03	4.853707E-15	8.431670E-17
2.640000E+03	5.929396E-15	1.017598E-16
2.680000E+03	6.842210E-15	1.394947E-16
2.720000E+03	7.622567E-15	1.774397E-16
2.760000E+03	8.401671E-15	2.056049E-16
2.800000E+03	9.303068E-15	2.228219E-16
2.840000E+03	1.039395E-14	2.318504E-16
2.880000E+03	1.165642E-14	2.372909E-16
2.920000E+03	1.298295E-14	2.443016E-16
2.960000E+03	1.423538E-14	2.570385E-16
3.000000E+03	1.531443E-14	2.725846E-16
3.010000E+03	1.555145E-14	2.758941E-16
3.020000E+03	1.577343E-14	2.786858E-16
3.030000E+03	1.597917E-14	2.808623E-16
3.040000E+03	1.616789E-14	2.823742E-16
3.050000E+03	1.633742E-14	2.831852E-16
3.060000E+03	1.648578E-14	2.833029E-16
3.070000E+03	1.661128E-14	2.827772E-16
3.080000E+03	1.671164E-14	2.816732E-16
3.090000E+03	1.678527E-14	2.800850E-16
3.100000E+03	1.683180E-14	2.781289E-16
3.110000E+03	1.685022E-14	2.758914E-16
3.120000E+03	1.684149E-14	2.734639E-16
3.130000E+03	1.680699E-14	2.709040E-16
3.140000E+03	1.675064E-14	2.682609E-16
3.150000E+03	1.667547E-14	2.655334E-16
3.160000E+03	1.658681E-14	2.627379E-16
3.170000E+03	1.649074E-14	2.598940E-16
3.180000E+03	1.639351E-14	2.570366E-16
3.190000E+03	1.630097E-14	2.542210E-16
3.200000E+03	1.622045E-14	2.515554E-16
3.210000E+03	1.615744E-14	2.491527E-16
3.220000E+03	1.611780E-14	2.471564E-16
3.230000E+03	1.610598E-14	2.456978E-16
3.240000E+03	1.612613E-14	2.449000E-16
3.250000E+03	1.618097E-14	2.448347E-16
3.260000E+03	1.627197E-14	2.454994E-16
3.270000E+03	1.639917E-14	2.468243E-16
3.280000E+03	1.656217E-14	2.486938E-16
3.290000E+03	1.675941E-14	2.509336E-16
3.300000E+03	1.698830E-14	2.533389E-16
3.310000E+03	1.724625E-14	2.557143E-16
3.320000E+03	1.752972E-14	2.578699E-16
3.330000E+03	1.783544E-14	2.596510E-16
3.340000E+03	1.815941E-14	2.609241E-16
3.350000E+03	1.849798E-14	2.615818E-16
3.360000E+03	1.884762E-14	2.615317E-16
3.370000E+03	1.920524E-14	2.606762E-16
3.380000E+03	1.956837E-14	2.588974E-16
3.390000E+03	1.993492E-14	2.560827E-16
3.400000E+03	2.030409E-14	2.521804E-16
3.410000E+03	2.067496E-14	2.472243E-16
3.420000E+03	2.104859E-14	2.414158E-16
3.430000E+03	2.142565E-14	2.351467E-16
3.440000E+03	2.180814E-14	2.290662E-16
3.450000E+03	2.219830E-14	2.241139E-16
3.460000E+03	2.259764E-14	2.214655E-16
3.470000E+03	2.300671E-14	2.223197E-16
3.480000E+03	2.342056E-14	2.274073E-16
3.490000E+03	2.382288E-14	2.362521E-16
3.500000E+03	2.419175E-14	2.476410E-16
3.510000E+03	2.450278E-14	2.601605E-16
3.520000E+03	2.473212E-14	2.725145E-16
3.530000E+03	2.485693E-14	2.836500E-16
3.540000E+03	2.485981E-14	2.928428E-16
3.550000E+03	2.472875E-14	2.996626E-16
3.560000E+03	2.445951E-14	3.039326E-16
3.570000E+03	2.405523E-14	3.056817E-16
3.580000E+03	2.352737E-14	3.051026E-16
3.590000E+03	2.289524E-14	3.024947E-16
3.600000E+03	2.218233E-14	2.982179E-16
3.610000E+03	2.141632E-14	2.926951E-16
3.620000E+03	2.062546E-14	2.863519E-16
3.630000E+03	1.983689E-14	2.795933E-16
3.640000E+03	1.907563E-14	2.727779E-16
3.650000E+03	1.836370E-14	2.661940E-16
3.660000E+03	1.771888E-14	2.600611E-16
3.670000E+03	1.715544E-14	2.545560E-16
3.680000E+03	1.668316E-14	2.497979E-16
3.690000E+03	1.630929E-14	2.458849E-16
3.700000E+03	1.603851E-14	2.428926E-16
3.710000E+03	1.587393E-14	2.408808E-16
3.720000E+03	1.581727E-14	2.398952E-16
3.730000E+03	1.587006E-14	2.399786E-16
3.740000E+03	1.603336E-14	2.411594E-16
3.750000E+03	1.630834E-14	2.434657E-16
3.760000E+03	1.669596E-14	2.469271E-16
3.770000E+03	1.719707E-14	2.515770E-16
3.780000E+03	1.781177E-14	2.574477E-16
3.790000E+03	1.853890E-14	2.645533E-16
3.800000E+03	1.937590E-14	2.728773E-16
3.810000E+03	2.031684E-14	2.823632E-16
3.820000E+03	2.135364E-14	2.929480E-16
3.830000E+03	2.247499E-14	3.045471E-16
3.840000E+03	2.366556E-14	3.170588E-16
3.850000E+03	2.490736E-14	3.303808E-16
3.860000E+03	2.618020E-14	3.443873E-16
3.870000E+03	2.746209E-14	3.589054E-16
3.880000E+03	2.873072E-14	3.736697E-16
3.890000E+03	2.996467E-14	3.882746E-16
3.900000E+03	3.114507E-14	4.022283E-16
3.910000E+03	3.225543E-14	4.150160E-16
3.920000E+03	3.328243E-14	4.261597E-16
3.930000E+03	3.421599E-14	4.352866E-16
3.940000E+03	3.504912E-14	4.421706E-16
3.950000E+03	3.577785E-14	4.467483E-16
3.960000E+03	3.640016E-14	4.491350E-16
3.970000E+03	3.691527E-14	4.496113E-16
3.980000E+03	3.732433E-14	4.485821E-16
3.990000E+03	3.762796E-14	4.464926E-16
4.000000E+03	3.782725E-14	4.437246E-16
4.010000E+03	3.792250E-14	4.404680E-16
4.020000E+03	3.791338E-14	4.367517E-16
4.030000E+03	3.780083E-14	4.325120E-16
4.040000E+03	3.758542E-14	4.275969E-16
4.050000E+03	3.726941E-14	4.218668E-16
4.060000E+03	3.685607E-14	4.152492E-16
4.070000E+03	3.635026E-14	4.077701E-16
4.080000E+03	3.575839E-14	3.995940E-16
4.090000E+03	3.508867E-14	3.910139E-16
4.100000E+03	3.434997E-14	3.823821E-16
4.110000E+03	3.355258E-14	3.740648E-16
4.120000E+03	3.270819E-14	3.663176E-16
4.130000E+03	3.182793E-14	3.591705E-16
4.140000E+03	3.092418E-14	3.525339E-16
4.150000E+03	3.000922E-14	3.462746E-16
4.160000E+03	2.909541E-14	3.402433E-16
4.170000E+03	2.819502E-14	3.343212E-16
4.180000E+03	2.732024E-14	3.284284E-16
4.190000E+03	2.648314E-14	3.224998E-16
4.200000E+03	2.569524E-14	3.164873E-16
4.210000E+03	2.496727E-14	3.103392E-16
4.220000E+03	2.430908E-14	3.039759E-16
4.230000E+03	2.372900E-14	2.973225E-16
4.240000E+03	2.323395E-14	2.903467E-16
4.250000E+03	2.282925E-14	2.830557E-16
4.260000E+03	2.251809E-14	2.754742E-16
4.270000E+03	2.230093E-14	2.676007E-16
4.280000E+03	2.217618E-14	2.593936E-16
4.290000E+03	2.213937E-14	2.507981E-16
4.300000E+03	2.218315E-14	2.417994E-16
4.310000E+03	2.229683E-14	2.324754E-16
4.320000E+03	2.246616E-14	2.230902E-16
4.330000E+03	2.267418E-14	2.141951E-16
4.340000E+03	2.290008E-14	2.066586E-16
4.350000E+03	2.312214E-14	2.016131E-16
4.360000E+03	2.331871E-14	2.001195E-16
4.370000E+03	2.347417E-14	2.024675E-16
4.380000E+03	2.358598E-14	2.075611E-16
4.390000E+03	2.365821E-14	2.137394E-16
4.400000E+03	2.369755E-14	2.194115E-16
4.410000E+03	2.371254E-14	2.234200E-16
4.420000E+03	2.371173E-14	2.251701E-16
4.430000E+03	2.370343E-14	2.246408E-16
4.440000E+03	2.369566E-14	2.223830E-16
4.450000E+03	2.369496E-14	2.194760E-16
4.460000E+03	2.370669E-14	2.174140E-16
4.470000E+03	2.373473E-14	2.178310E-16
4.480000E+03	2.378034E-14	2.219413E-16
4.490000E+03	2.384272E-14	2.297234E-16
4.500000E+03	2.391871E-14	2.402658E-16
4.510000E+03	2.400354E-14	2.523906E-16
4.520000E+03	2.409170E-14	2.649779E-16
4.530000E+03	2.417713E-14	2.771306E-16
4.540000E+03	2.425343E-14	2.882223E-16
4.550000E+03	2.431415E-14	2.978776E-16
4.560000E+03	2.435277E-14	3.059384E-16
4.570000E+03	2.436316E-14	3.124259E-16
4.580000E+03	2.434048E-14	3.175020E-16
4.590000E+03	2.427984E-14	3.214017E-16
4.600000E+03	2.417762E-14	3.243819E-16
4.610000E+03	2.403197E-14	3.266657E-16
4.620000E+03	2.384219E-14	3.284203E-16
4.630000E+03	2.360840E-14	3.297366E-16
4.640000E+03	2.333368E-14	3.306442E-16
4.650000E+03	2.302079E-14	3.311020E-16
4.660000E+03	2.267478E-14	3.310686E-16
4.670000E+03	2.230068E-14	3.304848E-16
4.680000E+03	2.190391E-14	3.293093E-16
4.690000E+03	2.148989E-14	3.275331E-16
4.700000E+03	2.106394E-14	3.251765E-16
4.710000E+03	2.063140E-14	3.222993E-16
4.720000E+03	2.019656E-14	3.189809E-16
4.730000E+03	1.976335E-14	3.153167E-16
4.740000E+03	1.933534E-14	3.114109E-16
4.750000E+03	1.891496E-14	3.073535E-16
4.760000E+03	1.850511E-14	3.032349E-16
4.770000E+03	1.810712E-14	2.991115E-16
4.780000E+03	1.772294E-14	2.950407E-16
4.790000E+03	1.735391E-14	2.910584E-16
4.800000E+03	1.700089E-14	2.871828E-16
4.810000E+03	1.666515E-14	2.834270E-16
4.820000E+03	1.634787E-14	2.797884E-16
4.830000E+03	1.604969E-14	2.762526E-16
4.840000E+03	1.577169E-14	2.728199E-16
4.850000E+03	1.551473E-14	2.694971E-16
4.860000E+03	1.527942E-14	2.663054E-16
4.870000E+03	1.506647E-14	2.632911E-16
4.880000E+03	1.487662E-14	2.605245E-16
4.890000E+03	1.471024E-14	2.580908E-16
4.900000E+03	1.456791E-14	2.560956E-16
4.910000E+03	1.444966E-14	2.546397E-16
4.920000E+03	1.435583E-14	2.538187E-16
4.930000E+03	1.428642E-14	2.536822E-16
4.940000E+03	1.424102E-14	2.542118E-16
4.950000E+03	1.421926E-14	2.553461E-16
4.960000E+03	1.422022E-14	2.569897E-16
4.970000E+03	1.424298E-14	2.590322E-16
4.980000E+03	1.428599E-14	2.613555E-16
4.990000E+03	1.434759E-14	2.638545E-16
5.000000E+03	1.442560E-14	2.664363E-16
5.010000E+03	1.451796E-14	2.690325E-16
5.020000E+03	1.462170E-14	2.715801E-16
5.030000E+03	1.473384E-14	2.740343E-16
5.040000E+03	1.485127E-14	2.763667E-16
5.050000E+03	1.497038E-14	2.785566E-16
5.060000E+03	1.508760E-14	2.805965E-16
5.070000E+03	1.519931E-14	2.824901E-16
5.080000E+03	1.530200E-14	2.842479E-16
5.090000E+03	1.539222E-14	2.858757E-16
5.100000E+03	1.546701E-14	2.873732E-16
5.110000E+03	1.552405E-14	2.887251E-16
5.120000E+03	1.556111E-14	2.898806E-16
5.130000E+03	1.557727E-14	2.907809E-16
5.140000E+03	1.557149E-14	2.913411E-16
5.150000E+03	1.554433E-14	2.914871E-16
5.160000E+03	1.549659E-14	2.911470E-16
5.170000E+03	1.542993E-14	2.902739E-16
5.180000E+03	1.534668E-14	2.888457E-16
5.190000E+03	1.524957E-14	2.868629E-16
5.200000E+03	1.514190E-14	2.843485E-16
5.210000E+03	1.502718E-14	2.813320E-16
5.220000E+03	1.490951E-14	2.778587E-16
5.230000E+03	1.479225E-14	2.739602E-16
5.240000E+03	1.467924E-14	2.696722E-16
5.250000E+03	1.457391E-14	2.650161E-16
5.260000E+03	1.447941E-14	2.599951E-16
5.270000E+03	1.439819E-14	2.545822E-16
5.280000E+03	1.433276E-14	2.487352E-16
5.290000E+03	1.428501E-14	2.423863E-16
5.300000E+03	1.425660E-14	2.354483E-16
5.310000E+03	1.424869E-14	2.278087E-16
5.320000E+03	1.426226E-14	2.193339E-16
5.330000E+03	1.429735E-14	2.098612E-16
5.340000E+03	1.435377E-14	1.992343E-16
5.350000E+03	1.443070E-14	1.873351E-16
5.360000E+03	1.452709E-14	1.741420E-16
5.370000E+03	1.464082E-14	1.597996E-16
5.380000E+03	1.476988E-14	1.447630E-16
5.390000E+03	1.491152E-14	1.299890E-16
5.400000E+03	1.506260E-14	1.172076E-16
5.410000E+03	1.521938E-14	1.090377E-16
5.420000E+03	1.537847E-14	1.082905E-16
5.430000E+03	1.553756E-14	1.158020E-16
5.440000E+03	1.569502E-14	1.298543E-16
5.450000E+03	1.585071E-14	1.478022E-16
5.460000E+03	1.600429E-14	1.674269E-16
5.470000E+03	1.615566E-14	1.872491E-16
5.480000E+03	1.630532E-14	2.063689E-16
5.490000E+03	1.645283E-14	2.242560E-16
5.500000E+03	1.659809E-14	2.406268E-16
5.510000E+03	1.674038E-14	2.553440E-16
5.520000E+03	1.687918E-14	2.683780E-16
5.530000E+03	1.701297E-14	2.797534E-16
5.540000E+03	1.714061E-14	2.895462E-16
5.550000E+03	1.726057E-14	2.978613E-16
5.560000E+03	1.737189E-14	3.048406E-16
5.570000E+03	1.747300E-14	3.106384E-16
5.580000E+03	1.756286E-14	3.154390E-16
5.590000E+03	1.764040E-14	3.194464E-16
5.600000E+03	1.770517E-14	3.228863E-16
5.610000E+03	1.775645E-14	3.259777E-16
5.620000E+03	1.779427E-14	3.289234E-16
5.630000E+03	1.781909E-14	3.318814E-16
5.640000E+03	1.783162E-14	3.349591E-16
5.650000E+03	1.783312E-14	3.382176E-16
5.660000E+03	1.782487E-14	3.416582E-16
5.670000E+03	1.780870E-14	3.452551E-16
5.680000E+03	1.778652E-14	3.489692E-16
5.690000E+03	1.775999E-14	3.527526E-16
5.700000E+03	1.773061E-14	3.565601E-16
5.710000E+03	1.769960E-14	3.603491E-16
5.720000E+03	1.766827E-14	3.640850E-16
5.730000E+03	1.763680E-14	3.677259E-16
5.740000E+03	1.760574E-14	3.712608E-16
5.750000E+03	1.757488E-14	3.746889E-16
5.760000E+03	1.754343E-14	3.780284E-16
5.770000E+03	1.751060E-14	3.813292E-16
5.780000E+03	1.747530E-14	3.846633E-16
5.790000E+03	1.743570E-14	3.881156E-16
5.800000E+03	1.738993E-14	3.917904E-16
5.810000E+03	1.733625E-14	3.958065E-16
5.820000E+03	1.727197E-14	4.002663E-16
5.830000E+03	1.719491E-14	4.052756E-16
5.840000E+03	1.710264E-14	4.109102E-16
5.850000E+03	1.699287E-14	4.172061E-16
5.860000E+03	1.686371E-14	4.241456E-16
5.870000E+03	1.671312E-14	4.316230E-16
5.880000E+03	1.654026E-14	4.394801E-16
5.890000E+03	1.634437E-14	4.474795E-16
5.900000E+03	1.612555E-14	4.553348E-16
5.910000E+03	1.588454E-14	4.627414E-16
5.920000E+03	1.562260E-14	4.694135E-16
5.930000E+03	1.534166E-14	4.751144E-16
5.940000E+03	1.504348E-14	4.796469E-16
5.950000E+03	1.473057E-14	4.828842E-16
5.960000E+03	1.440586E-14	4.847644E-16
5.970000E+03	1.407234E-14	4.852751E-16
5.980000E+03	1.373281E-14	4.844409E-16
5.990000E+03	1.339079E-14	4.823493E-16
6.000000E+03	1.304901E-14	4.790915E-16
6.010000E+03	1.271102E-14	4.748152E-16
6.020000E+03	1.237934E-14	4.696495E-16
6.030000E+03	1.205671E-14	4.637473E-16
6.040000E+03	1.174577E-14	4.572668E-16
6.050000E+03	1.144855E-14	4.503492E-16
6.060000E+03	1.116691E-14	4.431304E-16
6.070000E+03	1.090211E-14	4.357208E-16
6.080000E+03	1.065556E-14	4.282345E-16
6.090000E+03	1.042772E-14	4.207398E-16
6.100000E+03	1.021930E-14	4.133106E-16
6.110000E+03	1.003037E-14	4.059840E-16
6.120000E+03	9.860659E-15	3.987769E-16
6.130000E+03	9.709787E-15	3.916914E-16
6.140000E+03	9.577238E-15	3.847155E-16
6.150000E+03	9.462050E-15	3.778102E-16
6.160000E+03	9.363200E-15	3.709260E-16
6.170000E+03	9.279751E-15	3.640084E-16
6.180000E+03	9.210174E-15	3.569732E-16
6.190000E+03	9.153200E-15	3.497400E-16
6.200000E+03	9.107494E-15	3.422210E-16
6.210000E+03	9.071685E-15	3.343230E-16
6.220000E+03	9.044156E-15	3.259418E-16
6.230000E+03	9.023421E-15	3.169772E-16
6.240000E+03	9.008147E-15	3.073360E-16
6.250000E+03	8.996824E-15	2.969219E-16
6.260000E+03	8.988255E-15	2.856549E-16
6.270000E+03	8.981223E-15	2.734620E-16
6.280000E+03	8.974733E-15	2.602882E-16
6.290000E+03	8.967788E-15	2.460925E-16
6.300000E+03	8.959509E-15	2.308564E-16
6.310000E+03	8.949245E-15	2.145932E-16
6.320000E+03	8.936449E-15	1.973527E-16
6.330000E+03	8.920407E-15	1.792312E-16
6.340000E+03	8.900701E-15	1.604070E-16
6.350000E+03	8.876937E-15	1.411790E-16
6.360000E+03	8.848465E-15	1.220474E-16
6.370000E+03	8.814972E-15	1.038805E-16
6.380000E+03	8.775860E-15	8.817178E-17
6.390000E+03	8.730526E-15	7.729783E-17
6.400000E+03	8.678482E-15	7.400083E-17
6.410000E+03	8.619984E-15	7.921068E-17
6.420000E+03	8.555736E-15	9.084438E-17
6.430000E+03	8.487055E-15	1.060162E-16
6.440000E+03	8.414978E-15	1.226446E-16
6.450000E+03	8.340414E-15	1.395195E-16
6.460000E+03	8.264238E-15	1.559781E-16
6.470000E+03	8.187049E-15	1.716587E-16
6.480000E+03	8.109436E-15	1.863716E-16
6.490000E+03	8.031507E-15	2.000159E-16
6.500000E+03	7.953784E-15	2.125610E-16
6.510000E+03	7.876477E-15	2.240071E-16
6.520000E+03	7.799630E-15	2.343745E-16
6.530000E+03	7.723501E-15	2.437051E-16
6.540000E+03	7.648204E-15	2.520477E-16
6.550000E+03	7.573838E-15	2.594569E-16
6.560000E+03	7.500493E-15	2.659908E-16
6.570000E+03	7.428368E-15	2.717137E-16
6.580000E+03	7.357417E-15	2.766814E-16
6.590000E+03	7.287704E-15	2.809531E-16
6.600000E+03	7.219408E-15	2.845914E-16
6.610000E+03	7.152579E-15	2.876522E-16
6.620000E+03	7.087139E-15	2.901838E-16
6.630000E+03	7.023243E-15	2.922415E-16
6.640000E+03	6.960798E-15	2.938681E-16
6.650000E+03	6.900058E-15	2.951178E-16
6.660000E+03	6.840801E-15	2.960222E-16
6.670000E+03	6.783033E-15	2.966198E-16
6.680000E+03	6.726870E-15	2.969513E-16
6.690000E+03	6.672308E-15	2.970496E-16
6.700000E+03	6.619225E-15	2.969397E-16
6.710000E+03	6.567611E-15	2.966495E-16
6.720000E+03	6.517570E-15	2.962096E-16
6.730000E+03	6.468974E-15	2.956381E-16
6.740000E+03	6.421925E-15	2.949612E-16
6.750000E+03	6.376182E-15	2.941879E-16
6.760000E+03	6.331959E-15	2.933459E-16
6.770000E+03	6.289016E-15	2.924405E-16
6.780000E+03	6.247567E-15	2.914960E-16
6.790000E+03	6.207372E-15	2.905143E-16
6.800000E+03	6.168527E-15	2.895116E-16
6.810000E+03	6.131017E-15	2.884972E-16
6.820000E+03	6.094709E-15	2.874740E-16
6.830000E+03	6.059693E-15	2.864539E-16
6.840000E+03	6.025833E-15	2.854372E-16
6.850000E+03	5.993210E-15	2.844335E-16
6.860000E+03	5.961567E-15	2.834356E-16
6.870000E+03	5.931088E-15	2.824565E-16
6.880000E+03	5.901618E-15	2.814923E-16
6.890000E+03	5.873107E-15	2.805438E-16
6.900000E+03	5.845392E-15	2.796057E-16
6.910000E+03	5.818634E-15	2.786880E-16
6.920000E+03	5.792438E-15	2.777739E-16
6.930000E+03	5.767069E-15	2.768778E-16
6.940000E+03	5.742235E-15	2.759872E-16
6.950000E+03	5.717861E-15	2.751001E-16
6.960000E+03	5.693981E-15	2.742195E-16
6.970000E+03	5.670408E-15	2.733378E-16
6.980000E+03	5.647065E-15	2.724526E-16
6.990000E+03	5.623875E-15	2.715613E-16
7.000000E+03	5.600763E-15	2.706616E-16
7.010000E+03	5.577658E-15	2.697513E-16
7.020000E+03	5.554383E-15	2.688231E-16
7.030000E+03	5.531096E-15	2.678857E-16
7.040000E+03	5.507415E-15	2.669219E-16
7.050000E+03	5.483621E-15	2.659464E-16
7.060000E+03	5.459352E-15	2.649426E-16
7.070000E+03	5.434799E-15	2.639207E-16
7.080000E+03	5.409838E-15	2.628756E-16
7.090000E+03	5.384468E-15	2.618080E-16
7.100000E+03	5.358807E-15	2.607239E-16
7.110000E+03	5.332661E-15	2.596143E-16
7.120000E+03	5.306175E-15	2.584863E-16
7.130000E+03	5.279292E-15	2.573370E-16
7.140000E+03	5.252180E-15	2.561741E-16
7.150000E+03	5.224915E-15	2.550007E-16
7.160000E+03	5.197475E-15	2.538149E-16
7.170000E+03	5.170065E-15	2.526256E-16
7.180000E+03	5.142581E-15	2.514267E-16
7.190000E+03	5.115351E-15	2.502330E-16
7.200000E+03	5.088395E-15	2.490443E-16
7.210000E+03	5.061743E-15	2.478606E-16
7.220000E+03	5.035639E-15	2.466929E-16
7.230000E+03	5.010230E-15	2.455472E-16
7.240000E+03	4.985566E-15	2.444249E-16
7.250000E+03	4.961804E-15	2.433332E-16
7.260000E+03	4.939110E-15	2.422795E-16
7.270000E+03	4.917651E-15	2.412716E-16
7.280000E+03	4.897601E-15	2.403182E-16
7.290000E+03	4.878935E-15	2.394182E-16
7.300000E+03	4.862040E-15	2.385910E-16
7.310000E+03	4.847000E-15	2.378417E-16
7.320000E+03	4.833904E-15	2.371757E-16
7.330000E+03	4.823044E-15	2.366087E-16
7.340000E+03	4.814411E-15	2.361417E-16
7.350000E+03	4.808194E-15	2.357858E-16
7.360000E+03	4.804581E-15	2.355520E-16
7.370000E+03	4.803650E-15	2.354459E-16
7.380000E+03	4.805671E-15	2.354826E-16
7.390000E+03	4.810497E-15	2.356564E-16
7.400000E+03	4.818467E-15	2.359854E-16
7.410000E+03	4.829496E-15	2.364662E-16
7.420000E+03	4.843774E-15	2.371090E-16
7.430000E+03	4.861258E-15	2.379117E-16
7.440000E+03	4.881971E-15	2.388751E-16
7.450000E+03	4.906002E-15	2.400025E-16
7.460000E+03	4.933186E-15	2.412842E-16
7.470000E+03	4.963735E-15	2.427283E-16
7.480000E+03	4.997279E-15	2.443136E-16
7.490000E+03	5.033821E-15	2.460365E-16
7.500000E+03	5.072980E-15	2.478737E-16
7.510000E+03	5.114755E-15	2.498199E-16
7.520000E+03	5.158642E-15	2.518444E-16
7.530000E+03	5.204180E-15	2.539175E-16
7.540000E+03	5.250957E-15	2.560114E-16
7.550000E+03	5.298380E-15	2.580886E-16
7.560000E+03	5.346032E-15	2.601194E-16
7.570000E+03	5.392967E-15	2.620475E-16
7.580000E+03	5.438538E-15	2.638309E-16
7.590000E+03	5.482056E-15	2.654247E-16
7.600000E+03	5.522561E-15	2.667705E-16
7.610000E+03	5.559311E-15	2.678204E-16
7.620000E+03	5.591318E-15	2.685142E-16
7.630000E+03	5.617977E-15	2.688105E-16
7.640000E+03	5.638216E-15	2.686454E-16
7.650000E+03	5.651520E-15	2.679826E-16
7.660000E+03	5.656938E-15	2.667654E-16
7.670000E+03	5.654126E-15	2.649671E-16
7.680000E+03	5.642338E-15	2.625433E-16
7.690000E+03	5.621472E-15	2.594813E-16
7.700000E+03	5.591187E-15	2.557590E-16
7.710000E+03	5.551421E-15	2.513692E-16
7.720000E+03	5.502273E-15	2.463140E-16
7.730000E+03	5.444000E-15	2.406052E-16
7.740000E+03	5.377011E-15	2.342633E-16
7.750000E+03	5.301738E-15	2.273122E-16
7.760000E+03	5.219110E-15	2.197993E-16
