#wls	flux	fluxerr
1.600000E+03	1.706556E-14	4.060296E-15
1.640000E+03	1.444337E-14	3.108891E-15
1.680000E+03	1.209961E-14	2.332428E-15
1.720000E+03	1.002972E-14	1.710762E-15
1.760000E+03	8.224662E-15	1.223335E-15
1.800000E+03	6.670778E-15	8.497667E-16
1.840000E+03	5.348065E-15	5.702774E-16
1.880000E+03	4.236502E-15	3.669927E-16
1.920000E+03	3.312427E-15	2.237726E-16
1.960000E+03	2.551532E-15	1.267652E-16
2.000000E+03	1.929699E-15	6.456181E-17
2.040000E+03	1.424752E-15	2.849334E-17
2.080000E+03	1.018730E-15	1.324672E-17
2.120000E+03	7.075421E-16	1.064736E-17
2.160000E+03	4.964695E-16	8.810066E-18
2.200000E+03	3.695796E-16	6.471665E-18
2.240000E+03	3.048411E-16	4.907197E-18
2.280000E+03	2.874145E-16	5.179306E-18
2.320000E+03	3.113972E-16	7.328295E-18
2.360000E+03	3.813419E-16	1.113885E-17
2.400000E+03	5.150099E-16	1.701629E-17
2.440000E+03	7.459399E-16	2.548591E-17
2.480000E+03	1.124956E-15	3.635554E-17
2.520000E+03	1.712734E-15	4.742633E-17
2.560000E+03	2.550465E-15	5.400047E-17
2.600000E+03	3.598738E-15	5.575117E-17
2.640000E+03	4.692434E-15	7.564733E-17
2.680000E+03	5.678812E-15	1.241500E-16
2.720000E+03	6.545607E-15	1.811408E-16
2.760000E+03	7.362290E-15	2.348724E-16
2.800000E+03	8.212070E-15	2.825689E-16
2.840000E+03	9.146070E-15	3.252098E-16
2.880000E+03	1.016475E-14	3.644345E-16
2.920000E+03	1.122249E-14	4.010108E-16
2.960000E+03	1.225113E-14	4.343993E-16
3.000000E+03	1.318209E-14	4.625706E-16
3.010000E+03	1.339310E-14	4.685076E-16
3.020000E+03	1.359347E-14	4.739253E-16
3.030000E+03	1.378247E-14	4.788038E-16
3.040000E+03	1.396005E-14	4.831539E-16
3.050000E+03	1.412538E-14	4.869638E-16
3.060000E+03	1.427807E-14	4.902419E-16
3.070000E+03	1.441831E-14	4.930153E-16
3.080000E+03	1.454595E-14	4.952969E-16
3.090000E+03	1.466149E-14	4.971163E-16
3.100000E+03	1.476643E-14	4.985276E-16
3.110000E+03	1.486149E-14	4.995457E-16
3.120000E+03	1.494870E-14	5.002176E-16
3.130000E+03	1.502990E-14	5.005692E-16
3.140000E+03	1.510850E-14	5.006652E-16
3.150000E+03	1.518639E-14	5.005082E-16
3.160000E+03	1.526688E-14	5.001383E-16
3.170000E+03	1.535338E-14	4.995923E-16
3.180000E+03	1.544904E-14	4.988931E-16
3.190000E+03	1.555634E-14	4.980400E-16
3.200000E+03	1.567907E-14	4.970720E-16
3.210000E+03	1.581929E-14	4.959718E-16
3.220000E+03	1.597963E-14	4.947375E-16
3.230000E+03	1.616170E-14	4.933335E-16
3.240000E+03	1.636725E-14	4.917232E-16
3.250000E+03	1.659719E-14	4.898397E-16
3.260000E+03	1.685185E-14	4.875931E-16
3.270000E+03	1.713060E-14	4.848613E-16
3.280000E+03	1.743275E-14	4.815155E-16
3.290000E+03	1.775655E-14	4.773969E-16
3.300000E+03	1.809924E-14	4.723216E-16
3.310000E+03	1.845781E-14	4.661090E-16
3.320000E+03	1.882788E-14	4.585583E-16
3.330000E+03	1.920485E-14	4.494887E-16
3.340000E+03	1.958267E-14	4.387203E-16
3.350000E+03	1.995482E-14	4.261101E-16
3.360000E+03	2.031401E-14	4.115596E-16
3.370000E+03	2.065228E-14	3.950319E-16
3.380000E+03	2.096115E-14	3.765728E-16
3.390000E+03	2.123147E-14	3.563278E-16
3.400000E+03	2.145471E-14	3.345853E-16
3.410000E+03	2.162182E-14	3.117776E-16
3.420000E+03	2.172594E-14	2.885423E-16
3.430000E+03	2.176065E-14	2.657086E-16
3.440000E+03	2.172243E-14	2.443297E-16
3.450000E+03	2.161064E-14	2.256262E-16
3.460000E+03	2.142716E-14	2.108254E-16
3.470000E+03	2.117605E-14	2.008500E-16
3.480000E+03	2.085801E-14	1.957985E-16
3.490000E+03	2.046320E-14	1.944766E-16
3.500000E+03	1.998069E-14	1.951298E-16
3.510000E+03	1.940442E-14	1.961409E-16
3.520000E+03	1.873647E-14	1.963564E-16
3.530000E+03	1.798613E-14	1.951316E-16
3.540000E+03	1.717096E-14	1.922753E-16
3.550000E+03	1.631343E-14	1.879119E-16
3.560000E+03	1.543926E-14	1.823651E-16
3.570000E+03	1.457427E-14	1.760485E-16
3.580000E+03	1.374285E-14	1.693944E-16
3.590000E+03	1.296647E-14	1.628022E-16
3.600000E+03	1.226179E-14	1.565977E-16
3.610000E+03	1.164172E-14	1.510380E-16
3.620000E+03	1.111477E-14	1.463037E-16
3.630000E+03	1.068599E-14	1.425142E-16
3.640000E+03	1.035803E-14	1.397461E-16
3.650000E+03	1.013187E-14	1.380433E-16
3.660000E+03	1.000708E-14	1.374177E-16
3.670000E+03	9.982793E-15	1.378581E-16
3.680000E+03	1.005721E-14	1.393211E-16
3.690000E+03	1.022858E-14	1.417471E-16
3.700000E+03	1.049484E-14	1.450625E-16
3.710000E+03	1.085386E-14	1.491913E-16
3.720000E+03	1.130292E-14	1.540597E-16
3.730000E+03	1.183906E-14	1.596101E-16
3.740000E+03	1.245850E-14	1.658008E-16
3.750000E+03	1.315674E-14	1.726058E-16
3.760000E+03	1.392822E-14	1.800007E-16
3.770000E+03	1.476651E-14	1.879529E-16
3.780000E+03	1.566400E-14	1.964081E-16
3.790000E+03	1.661190E-14	2.052874E-16
3.800000E+03	1.760076E-14	2.144971E-16
3.810000E+03	1.861909E-14	2.239275E-16
3.820000E+03	1.965485E-14	2.334885E-16
3.830000E+03	2.069494E-14	2.431118E-16
3.840000E+03	2.172475E-14	2.527388E-16
3.850000E+03	2.272947E-14	2.623094E-16
3.860000E+03	2.369442E-14	2.717337E-16
3.870000E+03	2.460530E-14	2.808734E-16
3.880000E+03	2.544917E-14	2.895450E-16
3.890000E+03	2.621497E-14	2.975331E-16
3.900000E+03	2.689496E-14	3.046300E-16
3.910000E+03	2.748453E-14	3.106598E-16
3.920000E+03	2.798263E-14	3.154982E-16
3.930000E+03	2.839166E-14	3.190722E-16
3.940000E+03	2.871696E-14	3.213440E-16
3.950000E+03	2.896630E-14	3.222986E-16
3.960000E+03	2.914831E-14	3.219423E-16
3.970000E+03	2.927141E-14	3.203188E-16
3.980000E+03	2.934377E-14	3.175365E-16
3.990000E+03	2.937082E-14	3.137614E-16
4.000000E+03	2.935597E-14	3.092269E-16
4.010000E+03	2.929942E-14	3.042016E-16
4.020000E+03	2.919824E-14	2.989520E-16
4.030000E+03	2.904788E-14	2.937048E-16
4.040000E+03	2.884137E-14	2.885898E-16
4.050000E+03	2.857188E-14	2.836421E-16
4.060000E+03	2.823326E-14	2.787995E-16
4.070000E+03	2.782144E-14	2.739306E-16
4.080000E+03	2.733527E-14	2.688809E-16
4.090000E+03	2.677703E-14	2.635173E-16
4.100000E+03	2.615177E-14	2.577415E-16
4.110000E+03	2.546763E-14	2.515029E-16
4.120000E+03	2.473555E-14	2.447933E-16
4.130000E+03	2.396728E-14	2.376308E-16
4.140000E+03	2.317644E-14	2.300880E-16
4.150000E+03	2.237714E-14	2.222962E-16
4.160000E+03	2.158375E-14	2.144430E-16
4.170000E+03	2.081054E-14	2.067533E-16
4.180000E+03	2.007134E-14	1.994546E-16
4.190000E+03	1.937913E-14	1.927400E-16
4.200000E+03	1.874576E-14	1.867408E-16
4.210000E+03	1.818151E-14	1.815091E-16
4.220000E+03	1.769483E-14	1.770175E-16
4.230000E+03	1.729191E-14	1.731827E-16
4.240000E+03	1.697670E-14	1.698965E-16
4.250000E+03	1.675075E-14	1.670453E-16
4.260000E+03	1.661278E-14	1.645188E-16
4.270000E+03	1.655836E-14	1.622120E-16
4.280000E+03	1.658051E-14	1.600291E-16
4.290000E+03	1.666899E-14	1.578751E-16
4.300000E+03	1.681041E-14	1.556579E-16
4.310000E+03	1.698850E-14	1.533092E-16
4.320000E+03	1.718481E-14	1.508332E-16
4.330000E+03	1.738059E-14	1.483724E-16
4.340000E+03	1.755728E-14	1.462300E-16
4.350000E+03	1.769944E-14	1.448452E-16
4.360000E+03	1.779564E-14	1.446272E-16
4.370000E+03	1.784140E-14	1.456104E-16
4.380000E+03	1.784113E-14	1.471589E-16
4.390000E+03	1.780485E-14	1.484312E-16
4.400000E+03	1.774523E-14	1.487193E-16
4.410000E+03	1.767597E-14	1.475966E-16
4.420000E+03	1.760964E-14	1.449409E-16
4.430000E+03	1.755699E-14	1.409279E-16
4.440000E+03	1.752685E-14	1.360384E-16
4.450000E+03	1.752548E-14	1.310742E-16
4.460000E+03	1.755710E-14	1.271516E-16
4.470000E+03	1.762387E-14	1.255484E-16
4.480000E+03	1.772415E-14	1.272130E-16
4.490000E+03	1.784946E-14	1.319012E-16
4.500000E+03	1.798687E-14	1.385851E-16
4.510000E+03	1.812280E-14	1.461578E-16
4.520000E+03	1.824466E-14	1.537262E-16
4.530000E+03	1.834154E-14	1.606804E-16
4.540000E+03	1.840464E-14	1.666553E-16
4.550000E+03	1.842750E-14	1.714683E-16
4.560000E+03	1.840598E-14	1.750691E-16
4.570000E+03	1.833842E-14	1.775053E-16
4.580000E+03	1.822613E-14	1.788971E-16
4.590000E+03	1.807204E-14	1.794026E-16
4.600000E+03	1.788128E-14	1.792022E-16
4.610000E+03	1.766093E-14	1.784787E-16
4.620000E+03	1.741896E-14	1.773989E-16
4.630000E+03	1.716319E-14	1.760981E-16
4.640000E+03	1.690218E-14	1.746878E-16
4.650000E+03	1.664245E-14	1.732355E-16
4.660000E+03	1.639009E-14	1.717899E-16
4.670000E+03	1.614900E-14	1.703695E-16
4.680000E+03	1.592114E-14	1.689776E-16
4.690000E+03	1.570660E-14	1.676099E-16
4.700000E+03	1.550366E-14	1.662553E-16
4.710000E+03	1.530947E-14	1.648986E-16
4.720000E+03	1.511969E-14	1.635105E-16
4.730000E+03	1.492966E-14	1.620570E-16
4.740000E+03	1.473500E-14	1.605139E-16
4.750000E+03	1.453172E-14	1.588737E-16
4.760000E+03	1.431788E-14	1.571575E-16
4.770000E+03	1.409240E-14	1.553837E-16
4.780000E+03	1.385676E-14	1.535639E-16
4.790000E+03	1.361385E-14	1.516813E-16
4.800000E+03	1.336751E-14	1.497014E-16
4.810000E+03	1.312261E-14	1.475992E-16
4.820000E+03	1.288394E-14	1.453692E-16
4.830000E+03	1.265546E-14	1.430276E-16
4.840000E+03	1.244066E-14	1.406188E-16
4.850000E+03	1.224193E-14	1.381999E-16
4.860000E+03	1.206067E-14	1.358340E-16
4.870000E+03	1.189768E-14	1.335850E-16
4.880000E+03	1.175343E-14	1.315117E-16
4.890000E+03	1.162795E-14	1.296623E-16
4.900000E+03	1.152163E-14	1.280807E-16
4.910000E+03	1.143470E-14	1.267985E-16
4.920000E+03	1.136801E-14	1.258449E-16
4.930000E+03	1.132249E-14	1.252392E-16
4.940000E+03	1.129897E-14	1.249886E-16
4.950000E+03	1.129836E-14	1.250908E-16
4.960000E+03	1.132095E-14	1.255266E-16
4.970000E+03	1.136671E-14	1.262644E-16
4.980000E+03	1.143472E-14	1.272585E-16
4.990000E+03	1.152341E-14	1.284586E-16
5.000000E+03	1.163036E-14	1.298101E-16
5.010000E+03	1.175281E-14	1.312634E-16
5.020000E+03	1.188689E-14	1.327665E-16
5.030000E+03	1.202846E-14	1.342725E-16
5.040000E+03	1.217316E-14	1.357393E-16
5.050000E+03	1.231619E-14	1.371243E-16
5.060000E+03	1.245280E-14	1.383850E-16
5.070000E+03	1.257826E-14	1.394770E-16
5.080000E+03	1.268794E-14	1.403529E-16
5.090000E+03	1.277721E-14	1.409624E-16
5.100000E+03	1.284183E-14	1.412640E-16
5.110000E+03	1.287802E-14	1.412346E-16
5.120000E+03	1.288216E-14	1.408665E-16
5.130000E+03	1.285204E-14	1.401759E-16
5.140000E+03	1.278595E-14	1.391805E-16
5.150000E+03	1.268438E-14	1.379022E-16
5.160000E+03	1.254919E-14	1.363540E-16
5.170000E+03	1.238432E-14	1.345467E-16
5.180000E+03	1.219547E-14	1.324935E-16
5.190000E+03	1.198962E-14	1.302221E-16
5.200000E+03	1.177468E-14	1.277865E-16
5.210000E+03	1.155861E-14	1.252638E-16
5.220000E+03	1.134919E-14	1.227472E-16
5.230000E+03	1.115256E-14	1.203168E-16
5.240000E+03	1.097379E-14	1.180345E-16
5.250000E+03	1.081619E-14	1.159299E-16
5.260000E+03	1.068131E-14	1.139997E-16
5.270000E+03	1.056894E-14	1.122062E-16
5.280000E+03	1.047788E-14	1.104894E-16
5.290000E+03	1.040584E-14	1.087681E-16
5.300000E+03	1.035018E-14	1.069481E-16
5.310000E+03	1.030806E-14	1.049278E-16
5.320000E+03	1.027713E-14	1.026074E-16
5.330000E+03	1.025530E-14	9.988726E-17
5.340000E+03	1.024142E-14	9.667982E-17
5.350000E+03	1.023497E-14	9.291535E-17
5.360000E+03	1.023629E-14	8.856207E-17
5.370000E+03	1.024564E-14	8.365697E-17
5.380000E+03	1.026367E-14	7.837134E-17
5.390000E+03	1.029035E-14	7.308607E-17
5.400000E+03	1.032481E-14	6.848073E-17
5.410000E+03	1.036501E-14	6.553226E-17
5.420000E+03	1.040845E-14	6.523003E-17
5.430000E+03	1.045396E-14	6.778436E-17
5.440000E+03	1.050114E-14	7.251906E-17
5.450000E+03	1.054970E-14	7.845688E-17
5.460000E+03	1.059834E-14	8.475467E-17
5.470000E+03	1.064535E-14	9.083828E-17
5.480000E+03	1.068924E-14	9.636301E-17
5.490000E+03	1.072820E-14	1.011379E-16
5.500000E+03	1.076125E-14	1.050809E-16
5.510000E+03	1.078779E-14	1.081795E-16
5.520000E+03	1.080812E-14	1.104774E-16
5.530000E+03	1.082245E-14	1.120541E-16
5.540000E+03	1.083154E-14	1.130229E-16
5.550000E+03	1.083592E-14	1.135140E-16
5.560000E+03	1.083629E-14	1.136653E-16
5.570000E+03	1.083256E-14	1.136011E-16
5.580000E+03	1.082451E-14	1.134282E-16
5.590000E+03	1.081145E-14	1.132223E-16
5.600000E+03	1.079267E-14	1.130272E-16
5.610000E+03	1.076709E-14	1.128553E-16
5.620000E+03	1.073405E-14	1.127026E-16
5.630000E+03	1.069332E-14	1.125536E-16
5.640000E+03	1.064511E-14	1.123889E-16
5.650000E+03	1.059038E-14	1.121922E-16
5.660000E+03	1.053055E-14	1.119479E-16
5.670000E+03	1.046780E-14	1.116497E-16
5.680000E+03	1.040470E-14	1.112991E-16
5.690000E+03	1.034398E-14	1.109052E-16
5.700000E+03	1.028831E-14	1.104900E-16
5.710000E+03	1.024019E-14	1.100891E-16
5.720000E+03	1.020187E-14	1.097500E-16
5.730000E+03	1.017458E-14	1.095179E-16
5.740000E+03	1.015924E-14	1.094338E-16
5.750000E+03	1.015569E-14	1.095191E-16
5.760000E+03	1.016284E-14	1.097788E-16
5.770000E+03	1.017901E-14	1.102091E-16
5.780000E+03	1.020176E-14	1.107983E-16
5.790000E+03	1.022781E-14	1.115293E-16
5.800000E+03	1.025346E-14	1.123831E-16
5.810000E+03	1.027490E-14	1.133376E-16
5.820000E+03	1.028777E-14	1.143599E-16
5.830000E+03	1.028817E-14	1.154116E-16
5.840000E+03	1.027255E-14	1.164400E-16
5.850000E+03	1.023801E-14	1.173787E-16
5.860000E+03	1.018262E-14	1.181514E-16
5.870000E+03	1.010510E-14	1.186698E-16
5.880000E+03	1.000559E-14	1.188548E-16
5.890000E+03	9.884657E-15	1.186401E-16
5.900000E+03	9.743657E-15	1.179856E-16
5.910000E+03	9.584301E-15	1.168804E-16
5.920000E+03	9.408439E-15	1.153417E-16
5.930000E+03	9.217974E-15	1.134117E-16
5.940000E+03	9.014311E-15	1.111460E-16
5.950000E+03	8.798869E-15	1.086125E-16
5.960000E+03	8.573022E-15	1.058815E-16
5.970000E+03	8.338039E-15	1.030180E-16
5.980000E+03	8.095195E-15	1.000755E-16
5.990000E+03	7.846549E-15	9.710059E-17
6.000000E+03	7.594258E-15	9.412632E-17
6.010000E+03	7.341688E-15	9.118837E-17
6.020000E+03	7.092326E-15	8.831549E-17
6.030000E+03	6.850437E-15	8.554444E-17
6.040000E+03	6.620642E-15	8.291938E-17
6.050000E+03	6.407397E-15	8.048692E-17
6.060000E+03	6.214945E-15	7.829581E-17
6.070000E+03	6.046809E-15	7.638860E-17
6.080000E+03	5.906029E-15	7.480198E-17
6.090000E+03	5.794380E-15	7.355650E-17
6.100000E+03	5.713012E-15	7.266412E-17
6.110000E+03	5.661875E-15	7.212019E-17
6.120000E+03	5.640024E-15	7.190825E-17
6.130000E+03	5.645785E-15	7.200313E-17
6.140000E+03	5.676884E-15	7.237286E-17
6.150000E+03	5.730388E-15	7.297986E-17
6.160000E+03	5.803078E-15	7.378673E-17
6.170000E+03	5.891667E-15	7.475839E-17
6.180000E+03	5.992491E-15	7.585697E-17
6.190000E+03	6.102122E-15	7.704607E-17
6.200000E+03	6.217239E-15	7.828423E-17
6.210000E+03	6.334678E-15	7.952265E-17
6.220000E+03	6.451292E-15	8.070075E-17
6.230000E+03	6.564203E-15	8.174788E-17
6.240000E+03	6.670810E-15	8.258682E-17
6.250000E+03	6.768530E-15	8.313608E-17
6.260000E+03	6.855155E-15	8.331900E-17
6.270000E+03	6.928620E-15	8.306548E-17
6.280000E+03	6.987239E-15	8.231732E-17
6.290000E+03	7.029587E-15	8.102715E-17
6.300000E+03	7.054677E-15	7.916042E-17
6.310000E+03	7.062147E-15	7.669662E-17
6.320000E+03	7.052255E-15	7.362950E-17
6.330000E+03	7.025750E-15	6.997150E-17
6.340000E+03	6.984308E-15	6.576961E-17
6.350000E+03	6.930354E-15	6.112267E-17
6.360000E+03	6.866846E-15	5.621369E-17
6.370000E+03	6.797679E-15	5.136227E-17
6.380000E+03	6.727033E-15	4.707258E-17
6.390000E+03	6.659248E-15	4.404172E-17
6.400000E+03	6.598259E-15	4.299267E-17
6.410000E+03	6.546197E-15	4.417258E-17
6.420000E+03	6.501461E-15	4.702218E-17
6.430000E+03	6.461773E-15	5.077360E-17
6.440000E+03	6.424710E-15	5.480887E-17
6.450000E+03	6.388276E-15	5.873368E-17
6.460000E+03	6.351115E-15	6.233218E-17
6.470000E+03	6.312309E-15	6.550431E-17
6.480000E+03	6.271507E-15	6.822294E-17
6.490000E+03	6.228431E-15	7.050008E-17
6.500000E+03	6.183452E-15	7.237470E-17
6.510000E+03	6.136923E-15	7.389480E-17
6.520000E+03	6.089199E-15	7.511021E-17
6.530000E+03	6.040864E-15	7.607082E-17
6.540000E+03	5.992406E-15	7.682150E-17
6.550000E+03	5.944281E-15	7.740228E-17
6.560000E+03	5.896893E-15	7.784752E-17
6.570000E+03	5.850681E-15	7.818754E-17
6.580000E+03	5.805818E-15	7.844468E-17
6.590000E+03	5.762495E-15	7.863692E-17
6.600000E+03	5.720921E-15	7.877931E-17
6.610000E+03	5.681142E-15	7.888263E-17
6.620000E+03	5.643045E-15	7.895357E-17
6.630000E+03	5.606650E-15	7.899941E-17
6.640000E+03	5.571750E-15	7.902267E-17
6.650000E+03	5.538384E-15	7.902737E-17
6.660000E+03	5.506196E-15	7.901064E-17
6.670000E+03	5.475006E-15	7.897152E-17
6.680000E+03	5.444723E-15	7.890995E-17
6.690000E+03	5.415168E-15	7.882495E-17
6.700000E+03	5.386073E-15	7.871488E-17
6.710000E+03	5.357277E-15	7.858003E-17
6.720000E+03	5.328735E-15	7.842331E-17
6.730000E+03	5.300238E-15	7.824647E-17
6.740000E+03	5.271797E-15	7.805551E-17
6.750000E+03	5.243183E-15	7.785434E-17
6.760000E+03	5.214580E-15	7.765440E-17
6.770000E+03	5.185838E-15	7.746250E-17
6.780000E+03	5.157218E-15	7.729117E-17
6.790000E+03	5.128629E-15	7.714590E-17
6.800000E+03	5.100278E-15	7.703334E-17
6.810000E+03	5.072288E-15	7.695570E-17
6.820000E+03	5.044688E-15	7.691092E-17
6.830000E+03	5.017690E-15	7.689706E-17
6.840000E+03	4.991311E-15	7.690789E-17
6.850000E+03	4.965739E-15	7.693951E-17
6.860000E+03	4.940866E-15	7.698344E-17
6.870000E+03	4.916933E-15	7.703692E-17
6.880000E+03	4.893878E-15	7.709268E-17
6.890000E+03	4.871709E-15	7.714431E-17
6.900000E+03	4.850320E-15	7.718394E-17
6.910000E+03	4.829867E-15	7.720880E-17
6.920000E+03	4.810034E-15	7.720996E-17
6.930000E+03	4.791053E-15	7.718926E-17
6.940000E+03	4.772689E-15	7.714360E-17
6.950000E+03	4.754883E-15	7.707510E-17
6.960000E+03	4.737660E-15	7.698948E-17
6.970000E+03	4.720850E-15	7.689068E-17
6.980000E+03	4.704358E-15	7.678384E-17
6.990000E+03	4.688071E-15	7.667227E-17
7.000000E+03	4.671853E-15	7.655594E-17
7.010000E+03	4.655545E-15	7.643078E-17
7.020000E+03	4.638885E-15	7.628853E-17
7.030000E+03	4.621883E-15	7.612501E-17
7.040000E+03	4.604103E-15	7.592999E-17
7.050000E+03	4.585671E-15	7.570559E-17
7.060000E+03	4.566185E-15	7.544901E-17
7.070000E+03	4.545721E-15	7.516902E-17
7.080000E+03	4.524107E-15	7.487319E-17
7.090000E+03	4.501285E-15	7.457234E-17
7.100000E+03	4.477314E-15	7.427857E-17
7.110000E+03	4.452012E-15	7.399772E-17
7.120000E+03	4.425501E-15	7.373686E-17
7.130000E+03	4.397757E-15	7.349588E-17
7.140000E+03	4.368976E-15	7.327406E-17
7.150000E+03	4.339302E-15	7.306664E-17
7.160000E+03	4.308834E-15	7.286575E-17
7.170000E+03	4.277873E-15	7.266618E-17
7.180000E+03	4.246483E-15	7.245892E-17
7.190000E+03	4.215080E-15	7.224213E-17
7.200000E+03	4.183815E-15	7.201162E-17
7.210000E+03	4.152826E-15	7.176571E-17
7.220000E+03	4.122396E-15	7.150779E-17
7.230000E+03	4.092682E-15	7.124098E-17
7.240000E+03	4.063717E-15	7.096663E-17
7.250000E+03	4.035571E-15	7.068568E-17
7.260000E+03	4.008269E-15	7.039612E-17
7.270000E+03	3.981802E-15	7.009232E-17
7.280000E+03	3.956137E-15	6.976534E-17
7.290000E+03	3.931072E-15	6.940189E-17
7.300000E+03	3.906743E-15	6.899548E-17
7.310000E+03	3.883071E-15	6.853844E-17
7.320000E+03	3.860022E-15	6.802798E-17
7.330000E+03	3.837775E-15	6.746992E-17
7.340000E+03	3.816330E-15	6.687176E-17
7.350000E+03	3.795912E-15	6.624931E-17
7.360000E+03	3.776804E-15	6.562272E-17
7.370000E+03	3.759260E-15	6.501364E-17
7.380000E+03	3.743732E-15	6.444804E-17
7.390000E+03	3.730373E-15	6.394626E-17
7.400000E+03	3.719721E-15	6.353326E-17
7.410000E+03	3.711969E-15	6.322422E-17
7.420000E+03	3.707486E-15	6.303198E-17
7.430000E+03	3.706406E-15	6.295939E-17
7.440000E+03	3.708860E-15	6.300479E-17
7.450000E+03	3.714979E-15	6.316433E-17
7.460000E+03	3.724662E-15	6.342991E-17
7.470000E+03	3.738064E-15	6.379878E-17
7.480000E+03	3.754874E-15	6.426177E-17
7.490000E+03	3.775044E-15	6.481534E-17
7.500000E+03	3.798217E-15	6.545136E-17
7.510000E+03	3.824291E-15	6.616590E-17
7.520000E+03	3.852752E-15	6.694649E-17
7.530000E+03	3.883069E-15	6.777788E-17
7.540000E+03	3.914697E-15	6.864117E-17
7.550000E+03	3.946898E-15	6.951085E-17
7.560000E+03	3.979021E-15	7.036116E-17
7.570000E+03	4.009997E-15	7.115975E-17
7.580000E+03	4.038971E-15	7.188082E-17
7.590000E+03	4.065061E-15	7.250238E-17
7.600000E+03	4.087190E-15	7.300369E-17
7.610000E+03	4.104459E-15	7.337143E-17
7.620000E+03	4.115797E-15	7.359253E-17
7.630000E+03	4.120444E-15	7.366116E-17
7.640000E+03	4.117328E-15	7.356597E-17
7.650000E+03	4.105839E-15	7.330264E-17
7.660000E+03	4.085123E-15	7.286030E-17
7.670000E+03	4.054870E-15	7.223510E-17
7.680000E+03	4.014608E-15	7.141793E-17
7.690000E+03	3.964475E-15	7.040892E-17
7.700000E+03	3.904597E-15	6.920718E-17
7.710000E+03	3.835466E-15	6.781836E-17
7.720000E+03	3.757851E-15	6.625368E-17
7.730000E+03	3.672775E-15	6.453004E-17
7.740000E+03	3.581492E-15	6.266974E-17
7.750000E+03	3.485370E-15	6.069828E-17
7.760000E+03	3.386173E-15	5.864845E-17
