#wls	flux	fluxerr
1.600000E+03	1.343543E-14	3.252605E-15
1.640000E+03	1.130947E-14	2.481144E-15
1.680000E+03	9.421925E-15	1.854802E-15
1.720000E+03	7.765765E-15	1.355834E-15
1.760000E+03	6.330579E-15	9.664830E-16
1.800000E+03	5.102581E-15	6.694482E-16
1.840000E+03	4.063419E-15	4.482032E-16
1.880000E+03	3.195165E-15	2.879912E-16
1.920000E+03	2.477651E-15	1.756443E-16
1.960000E+03	1.890870E-15	9.996261E-17
2.000000E+03	1.415664E-15	5.176697E-17
2.040000E+03	1.034975E-15	2.400227E-17
2.080000E+03	7.350962E-16	1.175084E-17
2.120000E+03	5.101920E-16	8.650331E-18
2.160000E+03	3.585152E-16	6.894753E-18
2.200000E+03	2.669237E-16	5.122990E-18
2.240000E+03	2.198810E-16	4.008952E-18
2.280000E+03	2.077298E-16	4.233719E-18
2.320000E+03	2.259306E-16	5.802129E-18
2.360000E+03	2.771278E-16	8.592451E-18
2.400000E+03	3.739228E-16	1.290078E-17
2.440000E+03	5.401627E-16	1.908107E-17
2.480000E+03	8.121491E-16	2.695125E-17
2.520000E+03	1.234370E-15	3.484788E-17
2.560000E+03	1.841463E-15	3.917953E-17
2.600000E+03	2.618500E-15	3.960505E-17
2.640000E+03	3.463581E-15	5.654962E-17
2.680000E+03	4.272123E-15	9.999604E-17
2.720000E+03	5.020216E-15	1.539142E-16
2.760000E+03	5.732087E-15	2.087139E-16
2.800000E+03	6.447200E-15	2.608857E-16
2.840000E+03	7.193165E-15	3.097738E-16
2.880000E+03	7.971535E-15	3.554225E-16
2.920000E+03	8.756656E-15	3.973401E-16
2.960000E+03	9.507461E-15	4.342215E-16
3.000000E+03	1.017977E-14	4.641362E-16
3.010000E+03	1.033149E-14	4.703167E-16
3.020000E+03	1.047552E-14	4.759202E-16
3.030000E+03	1.061153E-14	4.809312E-16
3.040000E+03	1.073977E-14	4.853614E-16
3.050000E+03	1.085989E-14	4.891963E-16
3.060000E+03	1.097194E-14	4.924386E-16
3.070000E+03	1.107634E-14	4.951076E-16
3.080000E+03	1.117323E-14	4.972074E-16
3.090000E+03	1.126315E-14	4.987582E-16
3.100000E+03	1.134736E-14	4.998054E-16
3.110000E+03	1.142633E-14	5.003565E-16
3.120000E+03	1.150144E-14	5.004529E-16
3.130000E+03	1.157381E-14	5.001169E-16
3.140000E+03	1.164560E-14	4.994108E-16
3.150000E+03	1.171773E-14	4.983360E-16
3.160000E+03	1.179212E-14	4.969308E-16
3.170000E+03	1.187073E-14	4.952287E-16
3.180000E+03	1.195528E-14	4.932474E-16
3.190000E+03	1.204700E-14	4.909788E-16
3.200000E+03	1.214816E-14	4.884515E-16
3.210000E+03	1.225976E-14	4.856373E-16
3.220000E+03	1.238331E-14	4.825229E-16
3.230000E+03	1.251963E-14	4.790630E-16
3.240000E+03	1.266977E-14	4.752151E-16
3.250000E+03	1.283424E-14	4.709114E-16
3.260000E+03	1.301326E-14	4.660684E-16
3.270000E+03	1.320646E-14	4.605788E-16
3.280000E+03	1.341356E-14	4.543361E-16
3.290000E+03	1.363365E-14	4.472129E-16
3.300000E+03	1.386515E-14	4.390647E-16
3.310000E+03	1.410648E-14	4.297551E-16
3.320000E+03	1.435515E-14	4.191331E-16
3.330000E+03	1.460857E-14	4.070674E-16
3.340000E+03	1.486318E-14	3.934278E-16
3.350000E+03	1.511504E-14	3.781167E-16
3.360000E+03	1.535962E-14	3.610750E-16
3.370000E+03	1.559171E-14	3.422986E-16
3.380000E+03	1.580538E-14	3.218589E-16
3.390000E+03	1.599372E-14	2.999234E-16
3.400000E+03	1.614943E-14	2.767996E-16
3.410000E+03	1.626361E-14	2.529463E-16
3.420000E+03	1.632756E-14	2.290258E-16
3.430000E+03	1.633198E-14	2.058405E-16
3.440000E+03	1.626959E-14	1.842904E-16
3.450000E+03	1.613344E-14	1.653949E-16
3.460000E+03	1.591878E-14	1.501269E-16
3.470000E+03	1.562955E-14	1.389689E-16
3.480000E+03	1.526698E-14	1.317577E-16
3.490000E+03	1.482726E-14	1.275380E-16
3.500000E+03	1.431330E-14	1.248911E-16
3.510000E+03	1.373009E-14	1.226540E-16
3.520000E+03	1.308619E-14	1.201245E-16
3.530000E+03	1.239916E-14	1.168908E-16
3.540000E+03	1.168851E-14	1.129226E-16
3.550000E+03	1.097310E-14	1.084242E-16
3.560000E+03	1.027504E-14	1.035964E-16
3.570000E+03	9.613151E-15	9.871445E-17
3.580000E+03	9.002238E-15	9.407421E-17
3.590000E+03	8.455394E-15	8.985558E-17
3.600000E+03	7.981694E-15	8.622444E-17
3.610000E+03	7.586758E-15	8.331605E-17
3.620000E+03	7.272822E-15	8.113270E-17
3.630000E+03	7.040813E-15	7.967568E-17
3.640000E+03	6.891200E-15	7.897282E-17
3.650000E+03	6.823423E-15	7.901535E-17
3.660000E+03	6.837580E-15	7.981860E-17
3.670000E+03	6.934543E-15	8.140507E-17
3.680000E+03	7.112820E-15	8.369073E-17
3.690000E+03	7.371349E-15	8.658324E-17
3.700000E+03	7.709595E-15	9.000131E-17
3.710000E+03	8.126034E-15	9.381714E-17
3.720000E+03	8.618291E-15	9.791562E-17
3.730000E+03	9.183396E-15	1.022272E-16
3.740000E+03	9.816884E-15	1.067015E-16
3.750000E+03	1.051269E-14	1.113728E-16
3.760000E+03	1.126322E-14	1.163259E-16
3.770000E+03	1.206065E-14	1.215280E-16
3.780000E+03	1.289611E-14	1.269668E-16
3.790000E+03	1.375979E-14	1.326490E-16
3.800000E+03	1.464183E-14	1.383782E-16
3.810000E+03	1.553159E-14	1.439858E-16
3.820000E+03	1.641863E-14	1.494393E-16
3.830000E+03	1.729140E-14	1.546598E-16
3.840000E+03	1.813809E-14	1.597673E-16
3.850000E+03	1.894758E-14	1.650142E-16
3.860000E+03	1.970787E-14	1.703066E-16
3.870000E+03	2.040779E-14	1.756029E-16
3.880000E+03	2.103814E-14	1.809434E-16
3.890000E+03	2.159113E-14	1.859788E-16
3.900000E+03	2.206209E-14	1.904625E-16
3.910000E+03	2.244971E-14	1.943591E-16
3.920000E+03	2.275645E-14	1.974622E-16
3.930000E+03	2.298822E-14	1.997767E-16
3.940000E+03	2.315350E-14	2.014435E-16
3.950000E+03	2.326260E-14	2.021815E-16
3.960000E+03	2.332706E-14	2.018202E-16
3.970000E+03	2.335789E-14	2.003940E-16
3.980000E+03	2.336297E-14	1.977692E-16
3.990000E+03	2.334845E-14	1.940598E-16
4.000000E+03	2.331873E-14	1.896373E-16
4.010000E+03	2.327109E-14	1.847022E-16
4.020000E+03	2.320073E-14	1.797183E-16
4.030000E+03	2.310199E-14	1.752417E-16
4.040000E+03	2.296289E-14	1.711959E-16
4.050000E+03	2.277164E-14	1.676084E-16
4.060000E+03	2.251915E-14	1.646107E-16
4.070000E+03	2.219969E-14	1.617200E-16
4.080000E+03	2.181127E-14	1.586645E-16
4.090000E+03	2.135589E-14	1.554760E-16
4.100000E+03	2.083898E-14	1.518951E-16
4.110000E+03	2.026926E-14	1.479495E-16
4.120000E+03	1.965763E-14	1.438406E-16
4.130000E+03	1.901451E-14	1.392841E-16
4.140000E+03	1.835173E-14	1.341966E-16
4.150000E+03	1.768156E-14	1.287688E-16
4.160000E+03	1.701579E-14	1.230288E-16
4.170000E+03	1.636599E-14	1.172612E-16
4.180000E+03	1.574365E-14	1.118930E-16
4.190000E+03	1.516026E-14	1.069916E-16
4.200000E+03	1.462648E-14	1.027553E-16
4.210000E+03	1.415176E-14	9.942045E-17
4.220000E+03	1.374410E-14	9.672230E-17
4.230000E+03	1.341034E-14	9.450307E-17
4.240000E+03	1.315544E-14	9.277161E-17
4.250000E+03	1.298030E-14	9.132925E-17
4.260000E+03	1.288452E-14	9.014755E-17
4.270000E+03	1.286575E-14	8.935249E-17
4.280000E+03	1.291644E-14	8.887262E-17
4.290000E+03	1.302728E-14	8.879320E-17
4.300000E+03	1.318731E-14	8.928875E-17
4.310000E+03	1.337903E-14	9.008596E-17
4.320000E+03	1.358302E-14	9.101506E-17
4.330000E+03	1.378123E-14	9.212609E-17
4.340000E+03	1.395761E-14	9.327555E-17
4.350000E+03	1.409944E-14	9.451104E-17
4.360000E+03	1.419811E-14	9.602616E-17
4.370000E+03	1.425285E-14	9.763837E-17
4.380000E+03	1.427052E-14	9.895715E-17
4.390000E+03	1.426243E-14	9.963778E-17
4.400000E+03	1.424071E-14	9.933137E-17
4.410000E+03	1.421862E-14	9.798335E-17
4.420000E+03	1.420790E-14	9.578130E-17
4.430000E+03	1.421444E-14	9.280169E-17
4.440000E+03	1.424249E-14	8.940488E-17
4.450000E+03	1.429462E-14	8.620430E-17
4.460000E+03	1.436901E-14	8.361974E-17
4.470000E+03	1.446188E-14	8.230032E-17
4.480000E+03	1.456741E-14	8.282707E-17
4.490000E+03	1.467737E-14	8.478775E-17
4.500000E+03	1.478029E-14	8.750014E-17
4.510000E+03	1.486453E-14	9.046854E-17
4.520000E+03	1.492195E-14	9.308011E-17
4.530000E+03	1.494610E-14	9.509592E-17
4.540000E+03	1.493198E-14	9.658560E-17
4.550000E+03	1.487747E-14	9.734115E-17
4.560000E+03	1.478199E-14	9.738697E-17
4.570000E+03	1.464644E-14	9.697490E-17
4.580000E+03	1.447465E-14	9.607949E-17
4.590000E+03	1.427117E-14	9.487341E-17
4.600000E+03	1.404192E-14	9.367650E-17
4.610000E+03	1.379537E-14	9.242494E-17
4.620000E+03	1.354041E-14	9.119891E-17
4.630000E+03	1.328510E-14	9.021215E-17
4.640000E+03	1.303746E-14	8.931136E-17
4.650000E+03	1.280388E-14	8.848441E-17
4.660000E+03	1.258991E-14	8.787042E-17
4.670000E+03	1.239749E-14	8.729061E-17
4.680000E+03	1.222735E-14	8.670559E-17
4.690000E+03	1.207880E-14	8.622267E-17
4.700000E+03	1.194755E-14	8.572245E-17
4.710000E+03	1.182869E-14	8.521018E-17
4.720000E+03	1.171678E-14	8.477455E-17
4.730000E+03	1.160493E-14	8.420719E-17
4.740000E+03	1.148669E-14	8.340817E-17
4.750000E+03	1.135686E-14	8.246321E-17
4.760000E+03	1.121312E-14	8.139831E-17
4.770000E+03	1.105404E-14	8.039770E-17
4.780000E+03	1.088092E-14	7.967676E-17
4.790000E+03	1.069889E-14	7.904870E-17
4.800000E+03	1.051408E-14	7.835841E-17
4.810000E+03	1.033255E-14	7.758139E-17
4.820000E+03	1.015976E-14	7.657155E-17
4.830000E+03	1.000006E-14	7.532382E-17
4.840000E+03	9.856797E-15	7.396285E-17
4.850000E+03	9.730872E-15	7.246776E-17
4.860000E+03	9.622164E-15	7.093240E-17
4.870000E+03	9.530137E-15	6.952815E-17
4.880000E+03	9.453318E-15	6.821683E-17
4.890000E+03	9.389990E-15	6.704052E-17
4.900000E+03	9.339283E-15	6.611983E-17
4.910000E+03	9.301033E-15	6.537278E-17
4.920000E+03	9.276171E-15	6.481213E-17
4.930000E+03	9.266024E-15	6.454068E-17
4.940000E+03	9.271844E-15	6.445648E-17
4.950000E+03	9.295472E-15	6.455859E-17
4.960000E+03	9.338414E-15	6.493784E-17
4.970000E+03	9.400606E-15	6.545517E-17
4.980000E+03	9.481534E-15	6.606047E-17
4.990000E+03	9.580453E-15	6.681016E-17
5.000000E+03	9.694509E-15	6.756764E-17
5.010000E+03	9.820755E-15	6.830032E-17
5.020000E+03	9.955744E-15	6.908176E-17
5.030000E+03	1.009498E-14	6.978965E-17
5.040000E+03	1.023405E-14	7.041281E-17
5.050000E+03	1.036870E-14	7.105489E-17
5.060000E+03	1.049477E-14	7.160457E-17
5.070000E+03	1.060852E-14	7.206301E-17
5.080000E+03	1.070655E-14	7.252787E-17
5.090000E+03	1.078505E-14	7.281358E-17
5.100000E+03	1.084054E-14	7.283884E-17
5.110000E+03	1.086986E-14	7.267463E-17
5.120000E+03	1.086912E-14	7.221621E-17
5.130000E+03	1.083527E-14	7.153031E-17
5.140000E+03	1.076584E-14	7.081119E-17
5.150000E+03	1.066045E-14	6.996894E-17
5.160000E+03	1.051986E-14	6.902537E-17
5.170000E+03	1.034725E-14	6.808980E-17
5.180000E+03	1.014952E-14	6.696655E-17
5.190000E+03	9.935028E-15	6.556998E-17
5.200000E+03	9.712697E-15	6.399052E-17
5.210000E+03	9.491932E-15	6.222720E-17
5.220000E+03	9.281909E-15	6.043866E-17
5.230000E+03	9.089609E-15	5.885727E-17
5.240000E+03	8.919439E-15	5.744607E-17
5.250000E+03	8.774168E-15	5.624642E-17
5.260000E+03	8.654853E-15	5.536881E-17
5.270000E+03	8.558898E-15	5.466456E-17
5.280000E+03	8.482912E-15	5.407572E-17
5.290000E+03	8.423121E-15	5.364265E-17
5.300000E+03	8.374929E-15	5.320031E-17
5.310000E+03	8.333917E-15	5.268749E-17
5.320000E+03	8.296792E-15	5.215577E-17
5.330000E+03	8.261239E-15	5.148074E-17
5.340000E+03	8.226220E-15	5.064380E-17
5.350000E+03	8.191871E-15	4.971299E-17
5.360000E+03	8.160229E-15	4.854403E-17
5.370000E+03	8.133870E-15	4.709598E-17
5.380000E+03	8.115605E-15	4.548060E-17
5.390000E+03	8.107174E-15	4.373543E-17
5.400000E+03	8.109902E-15	4.212655E-17
5.410000E+03	8.123603E-15	4.114937E-17
5.420000E+03	8.144863E-15	4.109919E-17
5.430000E+03	8.172260E-15	4.203970E-17
5.440000E+03	8.206081E-15	4.377962E-17
5.450000E+03	8.243690E-15	4.584434E-17
5.460000E+03	8.281727E-15	4.793009E-17
5.470000E+03	8.317513E-15	4.993301E-17
5.480000E+03	8.348326E-15	5.163931E-17
5.490000E+03	8.371728E-15	5.296598E-17
5.500000E+03	8.386844E-15	5.395636E-17
5.510000E+03	8.394358E-15	5.452648E-17
5.520000E+03	8.396082E-15	5.468800E-17
5.530000E+03	8.393615E-15	5.454819E-17
5.540000E+03	8.388980E-15	5.411447E-17
5.550000E+03	8.383794E-15	5.349442E-17
5.560000E+03	8.379225E-15	5.287230E-17
5.570000E+03	8.375099E-15	5.224188E-17
5.580000E+03	8.370811E-15	5.169567E-17
5.590000E+03	8.365173E-15	5.139362E-17
5.600000E+03	8.356233E-15	5.120379E-17
5.610000E+03	8.341711E-15	5.108193E-17
5.620000E+03	8.319979E-15	5.109770E-17
5.630000E+03	8.290006E-15	5.109778E-17
5.640000E+03	8.251390E-15	5.104721E-17
5.650000E+03	8.204686E-15	5.103162E-17
5.660000E+03	8.151237E-15	5.092715E-17
5.670000E+03	8.093284E-15	5.072083E-17
5.680000E+03	8.033507E-15	5.050781E-17
5.690000E+03	7.974607E-15	5.018101E-17
5.700000E+03	7.919477E-15	4.973985E-17
5.710000E+03	7.870801E-15	4.930023E-17
5.720000E+03	7.830356E-15	4.882275E-17
5.730000E+03	7.799355E-15	4.838529E-17
5.740000E+03	7.778828E-15	4.814953E-17
5.750000E+03	7.767656E-15	4.800706E-17
5.760000E+03	7.764282E-15	4.794117E-17
5.770000E+03	7.767088E-15	4.804497E-17
5.780000E+03	7.772933E-15	4.819562E-17
5.790000E+03	7.778492E-15	4.838589E-17
5.800000E+03	7.780642E-15	4.872436E-17
5.810000E+03	7.775407E-15	4.909757E-17
5.820000E+03	7.758847E-15	4.949842E-17
5.830000E+03	7.728107E-15	5.002696E-17
5.840000E+03	7.680654E-15	5.055544E-17
5.850000E+03	7.614901E-15	5.103908E-17
5.860000E+03	7.530625E-15	5.151678E-17
5.870000E+03	7.428814E-15	5.181965E-17
5.880000E+03	7.311657E-15	5.184958E-17
5.890000E+03	7.181691E-15	5.160808E-17
5.900000E+03	7.042179E-15	5.101807E-17
5.910000E+03	6.896298E-15	5.008688E-17
5.920000E+03	6.746700E-15	4.889615E-17
5.930000E+03	6.595493E-15	4.744318E-17
5.940000E+03	6.443785E-15	4.579411E-17
5.950000E+03	6.292064E-15	4.407534E-17
5.960000E+03	6.140216E-15	4.230237E-17
5.970000E+03	5.987520E-15	4.056147E-17
5.980000E+03	5.833014E-15	3.897480E-17
5.990000E+03	5.676534E-15	3.749201E-17
6.000000E+03	5.517782E-15	3.612002E-17
6.010000E+03	5.357562E-15	3.492121E-17
6.020000E+03	5.198088E-15	3.380287E-17
6.030000E+03	5.042341E-15	3.274772E-17
6.040000E+03	4.893732E-15	3.181450E-17
6.050000E+03	4.756502E-15	3.095518E-17
6.060000E+03	4.635058E-15	3.019790E-17
6.070000E+03	4.533194E-15	2.962721E-17
6.080000E+03	4.453925E-15	2.920156E-17
6.090000E+03	4.399713E-15	2.893362E-17
6.100000E+03	4.372554E-15	2.888618E-17
6.110000E+03	4.371922E-15	2.899196E-17
6.120000E+03	4.396860E-15	2.923161E-17
6.130000E+03	4.446200E-15	2.963965E-17
6.140000E+03	4.516976E-15	3.013718E-17
6.150000E+03	4.605771E-15	3.069760E-17
6.160000E+03	4.709349E-15	3.135972E-17
6.170000E+03	4.824128E-15	3.206755E-17
6.180000E+03	4.946368E-15	3.283001E-17
6.190000E+03	5.072823E-15	3.372319E-17
6.200000E+03	5.200536E-15	3.469239E-17
6.210000E+03	5.326873E-15	3.573735E-17
6.220000E+03	5.449358E-15	3.690837E-17
6.230000E+03	5.565860E-15	3.808952E-17
6.240000E+03	5.674546E-15	3.920398E-17
6.250000E+03	5.773587E-15	4.024263E-17
6.260000E+03	5.861397E-15	4.109512E-17
6.270000E+03	5.936432E-15	4.171652E-17
6.280000E+03	5.997390E-15	4.213625E-17
6.290000E+03	6.043211E-15	4.228860E-17
6.300000E+03	6.073023E-15	4.217409E-17
6.310000E+03	6.086368E-15	4.185568E-17
6.320000E+03	6.083596E-15	4.127235E-17
6.330000E+03	6.065243E-15	4.042379E-17
6.340000E+03	6.032486E-15	3.937558E-17
6.350000E+03	5.987607E-15	3.807727E-17
6.360000E+03	5.933093E-15	3.656828E-17
6.370000E+03	5.872107E-15	3.501080E-17
6.380000E+03	5.808795E-15	3.353774E-17
6.390000E+03	5.747296E-15	3.241489E-17
6.400000E+03	5.691241E-15	3.197793E-17
6.410000E+03	5.642913E-15	3.228089E-17
6.420000E+03	5.600658E-15	3.312735E-17
6.430000E+03	5.561752E-15	3.427946E-17
6.440000E+03	5.524274E-15	3.545478E-17
6.450000E+03	5.486702E-15	3.650900E-17
6.460000E+03	5.447919E-15	3.741858E-17
6.470000E+03	5.407504E-15	3.810839E-17
6.480000E+03	5.365510E-15	3.858382E-17
6.490000E+03	5.321933E-15	3.891438E-17
6.500000E+03	5.277235E-15	3.908798E-17
6.510000E+03	5.231876E-15	3.914300E-17
6.520000E+03	5.186291E-15	3.915892E-17
6.530000E+03	5.140890E-15	3.911120E-17
6.540000E+03	5.096061E-15	3.901641E-17
6.550000E+03	5.052238E-15	3.893473E-17
6.560000E+03	5.009604E-15	3.883320E-17
6.570000E+03	4.968481E-15	3.872465E-17
6.580000E+03	4.929072E-15	3.866115E-17
6.590000E+03	4.891350E-15	3.859788E-17
6.600000E+03	4.855419E-15	3.853155E-17
6.610000E+03	4.821360E-15	3.850264E-17
6.620000E+03	4.788888E-15	3.847031E-17
6.630000E+03	4.757942E-15	3.843774E-17
6.640000E+03	4.728383E-15	3.844586E-17
6.650000E+03	4.700080E-15	3.845235E-17
6.660000E+03	4.672671E-15	3.844902E-17
6.670000E+03	4.646051E-15	3.846770E-17
6.680000E+03	4.620017E-15	3.846726E-17
6.690000E+03	4.594391E-15	3.844336E-17
6.700000E+03	4.569015E-15	3.842820E-17
6.710000E+03	4.543639E-15	3.838401E-17
6.720000E+03	4.518195E-15	3.830982E-17
6.730000E+03	4.492576E-15	3.823965E-17
6.740000E+03	4.466705E-15	3.814237E-17
6.750000E+03	4.440383E-15	3.802133E-17
6.760000E+03	4.413858E-15	3.791949E-17
6.770000E+03	4.386971E-15	3.781504E-17
6.780000E+03	4.360003E-15	3.772472E-17
6.790000E+03	4.333017E-15	3.769319E-17
6.800000E+03	4.306152E-15	3.769261E-17
6.810000E+03	4.279562E-15	3.772324E-17
6.820000E+03	4.253405E-15	3.781389E-17
6.830000E+03	4.227822E-15	3.792699E-17
6.840000E+03	4.202870E-15	3.805131E-17
6.850000E+03	4.178822E-15	3.820763E-17
6.860000E+03	4.155540E-15	3.836060E-17
6.870000E+03	4.133250E-15	3.850562E-17
6.880000E+03	4.111984E-15	3.866340E-17
6.890000E+03	4.091657E-15	3.880202E-17
6.900000E+03	4.072147E-15	3.891316E-17
6.910000E+03	4.053626E-15	3.901621E-17
6.920000E+03	4.035749E-15	3.908226E-17
6.930000E+03	4.018699E-15	3.911034E-17
6.940000E+03	4.002334E-15	3.912030E-17
6.950000E+03	3.986545E-15	3.909572E-17
6.960000E+03	3.971359E-15	3.904462E-17
6.970000E+03	3.956708E-15	3.899610E-17
6.980000E+03	3.942459E-15	3.894093E-17
6.990000E+03	3.928530E-15	3.889040E-17
7.000000E+03	3.914874E-15	3.887059E-17
7.010000E+03	3.901253E-15	3.885208E-17
7.020000E+03	3.887387E-15	3.881951E-17
7.030000E+03	3.873284E-15	3.878048E-17
7.040000E+03	3.858503E-15	3.870517E-17
7.050000E+03	3.843119E-15	3.859081E-17
7.060000E+03	3.826810E-15	3.845372E-17
7.070000E+03	3.809561E-15	3.828605E-17
7.080000E+03	3.791196E-15	3.810111E-17
7.090000E+03	3.771682E-15	3.793286E-17
7.100000E+03	3.750993E-15	3.777723E-17
7.110000E+03	3.728955E-15	3.764612E-17
7.120000E+03	3.705702E-15	3.756752E-17
7.130000E+03	3.681166E-15	3.751693E-17
7.140000E+03	3.655515E-15	3.748573E-17
7.150000E+03	3.628935E-15	3.748299E-17
7.160000E+03	3.601547E-15	3.747999E-17
7.170000E+03	3.573694E-15	3.746824E-17
7.180000E+03	3.545546E-15	3.745613E-17
7.190000E+03	3.517503E-15	3.742420E-17
7.200000E+03	3.489765E-15	3.736811E-17
7.210000E+03	3.462533E-15	3.730229E-17
7.220000E+03	3.436054E-15	3.722128E-17
7.230000E+03	3.410492E-15	3.713434E-17
7.240000E+03	3.385905E-15	3.706104E-17
7.250000E+03	3.362259E-15	3.698974E-17
7.260000E+03	3.339497E-15	3.691815E-17
7.270000E+03	3.317560E-15	3.685316E-17
7.280000E+03	3.296263E-15	3.676595E-17
7.290000E+03	3.275307E-15	3.663630E-17
7.300000E+03	3.254715E-15	3.646130E-17
7.310000E+03	3.234295E-15	3.621830E-17
7.320000E+03	3.213919E-15	3.589988E-17
7.330000E+03	3.193677E-15	3.551694E-17
7.340000E+03	3.173492E-15	3.506637E-17
7.350000E+03	3.153512E-15	3.456422E-17
7.360000E+03	3.133966E-15	3.404100E-17
7.370000E+03	3.115063E-15	3.350612E-17
7.380000E+03	3.097223E-15	3.298569E-17
7.390000E+03	3.080639E-15	3.251470E-17
7.400000E+03	3.065757E-15	3.210320E-17
7.410000E+03	3.052796E-15	3.177112E-17
7.420000E+03	3.042145E-15	3.154663E-17
7.430000E+03	3.033774E-15	3.140728E-17
7.440000E+03	3.027706E-15	3.134011E-17
7.450000E+03	3.024022E-15	3.134794E-17
7.460000E+03	3.022456E-15	3.140582E-17
7.470000E+03	3.023012E-15	3.150811E-17
7.480000E+03	3.025394E-15	3.166253E-17
7.490000E+03	3.029399E-15	3.185375E-17
7.500000E+03	3.034668E-15	3.207937E-17
7.510000E+03	3.041134E-15	3.235323E-17
7.520000E+03	3.048236E-15	3.265641E-17
7.530000E+03	3.055513E-15	3.298111E-17
7.540000E+03	3.062581E-15	3.332789E-17
7.550000E+03	3.068678E-15	3.365772E-17
7.560000E+03	3.073197E-15	3.394049E-17
7.570000E+03	3.075338E-15	3.415898E-17
7.580000E+03	3.074414E-15	3.428586E-17
7.590000E+03	3.069837E-15	3.431104E-17
7.600000E+03	3.060987E-15	3.424019E-17
7.610000E+03	3.047308E-15	3.406898E-17
7.620000E+03	3.028225E-15	3.380710E-17
7.630000E+03	3.003497E-15	3.347731E-17
7.640000E+03	2.972557E-15	3.307700E-17
7.650000E+03	2.935250E-15	3.261536E-17
7.660000E+03	2.891348E-15	3.210584E-17
7.670000E+03	2.840975E-15	3.154031E-17
7.680000E+03	2.784166E-15	3.091560E-17
7.690000E+03	2.721442E-15	3.024072E-17
7.700000E+03	2.653329E-15	2.950587E-17
7.710000E+03	2.580551E-15	2.871267E-17
7.720000E+03	2.503973E-15	2.787433E-17
7.730000E+03	2.424660E-15	2.699243E-17
7.740000E+03	2.343687E-15	2.607958E-17
7.750000E+03	2.262099E-15	2.515814E-17
7.760000E+03	2.181257E-15	2.424278E-17
