#wls	flux	fluxerr
1.600000E+03	2.306557E-14	5.252622E-15
1.640000E+03	1.862510E-14	3.836342E-15
1.680000E+03	1.481775E-14	2.734133E-15
1.720000E+03	1.161388E-14	1.897933E-15
1.760000E+03	8.971879E-15	1.280844E-15
1.800000E+03	6.836027E-15	8.383241E-16
1.840000E+03	5.145546E-15	5.306686E-16
1.880000E+03	3.833628E-15	3.234557E-16
1.920000E+03	2.836442E-15	1.886359E-16
1.960000E+03	2.092180E-15	1.040617E-16
2.000000E+03	1.545916E-15	5.329405E-17
2.040000E+03	1.150710E-15	2.504624E-17
2.080000E+03	8.681054E-16	1.300187E-17
2.120000E+03	6.695244E-16	1.117613E-17
2.160000E+03	5.368227E-16	1.058165E-17
2.200000E+03	4.557411E-16	9.361870E-18
2.240000E+03	4.160231E-16	8.520948E-18
2.280000E+03	4.126673E-16	9.363803E-18
2.320000E+03	4.442868E-16	1.217337E-17
2.360000E+03	5.136963E-16	1.656673E-17
2.400000E+03	6.284973E-16	2.232488E-17
2.440000E+03	7.999690E-16	2.905522E-17
2.480000E+03	1.040944E-15	3.569867E-17
2.520000E+03	1.361017E-15	4.021698E-17
2.560000E+03	1.760357E-15	4.034150E-17
2.600000E+03	2.222654E-15	3.844654E-17
2.640000E+03	2.713466E-15	5.128330E-17
2.680000E+03	3.197291E-15	8.475457E-17
2.720000E+03	3.651079E-15	1.270867E-16
2.760000E+03	4.062096E-15	1.703160E-16
2.800000E+03	4.425391E-15	2.098403E-16
2.840000E+03	4.739637E-15	2.430262E-16
2.880000E+03	5.001902E-15	2.684264E-16
2.920000E+03	5.208114E-15	2.853768E-16
2.960000E+03	5.356089E-15	2.938546E-16
3.000000E+03	5.445811E-15	2.943326E-16
3.010000E+03	5.459623E-15	2.933171E-16
3.020000E+03	5.470165E-15	2.918882E-16
3.030000E+03	5.477539E-15	2.900691E-16
3.040000E+03	5.482134E-15	2.878999E-16
3.050000E+03	5.483968E-15	2.854020E-16
3.060000E+03	5.483354E-15	2.826129E-16
3.070000E+03	5.480504E-15	2.795656E-16
3.080000E+03	5.475790E-15	2.763013E-16
3.090000E+03	5.469492E-15	2.728557E-16
3.100000E+03	5.462046E-15	2.692716E-16
3.110000E+03	5.453806E-15	2.655857E-16
3.120000E+03	5.445160E-15	2.618347E-16
3.130000E+03	5.436651E-15	2.580595E-16
3.140000E+03	5.428741E-15	2.542939E-16
3.150000E+03	5.422147E-15	2.505795E-16
3.160000E+03	5.417172E-15	2.469341E-16
3.170000E+03	5.414591E-15	2.433924E-16
3.180000E+03	5.414980E-15	2.399749E-16
3.190000E+03	5.419042E-15	2.367020E-16
3.200000E+03	5.427290E-15	2.335800E-16
3.210000E+03	5.440555E-15	2.306233E-16
3.220000E+03	5.459473E-15	2.278317E-16
3.230000E+03	5.484586E-15	2.251952E-16
3.240000E+03	5.516734E-15	2.227104E-16
3.250000E+03	5.556652E-15	2.203628E-16
3.260000E+03	5.604786E-15	2.181210E-16
3.270000E+03	5.661960E-15	2.159619E-16
3.280000E+03	5.728797E-15	2.138488E-16
3.290000E+03	5.805910E-15	2.117387E-16
3.300000E+03	5.893903E-15	2.095822E-16
3.310000E+03	5.993454E-15	2.073269E-16
3.320000E+03	6.105132E-15	2.049116E-16
3.330000E+03	6.229480E-15	2.022697E-16
3.340000E+03	6.367008E-15	1.993310E-16
3.350000E+03	6.518186E-15	1.960234E-16
3.360000E+03	6.683520E-15	1.922791E-16
3.370000E+03	6.863258E-15	1.880306E-16
3.380000E+03	7.057644E-15	1.832274E-16
3.390000E+03	7.266797E-15	1.778435E-16
3.400000E+03	7.490679E-15	1.718942E-16
3.410000E+03	7.729051E-15	1.654599E-16
3.420000E+03	7.981323E-15	1.587182E-16
3.430000E+03	8.246590E-15	1.519912E-16
3.440000E+03	8.523778E-15	1.458027E-16
3.450000E+03	8.811167E-15	1.409145E-16
3.460000E+03	9.106428E-15	1.383206E-16
3.470000E+03	9.406951E-15	1.391117E-16
3.480000E+03	9.709920E-15	1.440701E-16
3.490000E+03	1.001301E-14	1.531845E-16
3.500000E+03	1.031413E-14	1.658399E-16
3.510000E+03	1.061121E-14	1.811989E-16
3.520000E+03	1.090142E-14	1.984092E-16
3.530000E+03	1.118223E-14	2.167230E-16
3.540000E+03	1.145054E-14	2.355049E-16
3.550000E+03	1.170344E-14	2.542364E-16
3.560000E+03	1.193825E-14	2.724982E-16
3.570000E+03	1.215255E-14	2.899532E-16
3.580000E+03	1.234454E-14	3.063411E-16
3.590000E+03	1.251277E-14	3.214623E-16
3.600000E+03	1.265645E-14	3.351780E-16
3.610000E+03	1.277592E-14	3.474159E-16
3.620000E+03	1.287233E-14	3.581600E-16
3.630000E+03	1.294769E-14	3.674454E-16
3.640000E+03	1.300474E-14	3.753530E-16
3.650000E+03	1.304703E-14	3.820059E-16
3.660000E+03	1.307833E-14	3.875488E-16
3.670000E+03	1.310298E-14	3.921546E-16
3.680000E+03	1.312542E-14	3.960073E-16
3.690000E+03	1.315034E-14	3.993022E-16
3.700000E+03	1.318229E-14	4.022334E-16
3.710000E+03	1.322589E-14	4.049956E-16
3.720000E+03	1.328556E-14	4.077761E-16
3.730000E+03	1.336536E-14	4.107480E-16
3.740000E+03	1.346916E-14	4.140735E-16
3.750000E+03	1.360041E-14	4.178980E-16
3.760000E+03	1.376192E-14	4.223404E-16
3.770000E+03	1.395639E-14	4.275119E-16
3.780000E+03	1.418534E-14	4.334819E-16
3.790000E+03	1.445032E-14	4.403149E-16
3.800000E+03	1.475139E-14	4.480256E-16
3.810000E+03	1.508820E-14	4.566126E-16
3.820000E+03	1.545923E-14	4.660354E-16
3.830000E+03	1.586205E-14	4.762241E-16
3.840000E+03	1.629318E-14	4.870759E-16
3.850000E+03	1.674805E-14	4.984562E-16
3.860000E+03	1.722096E-14	5.101965E-16
3.870000E+03	1.770537E-14	5.221070E-16
3.880000E+03	1.819397E-14	5.339773E-16
3.890000E+03	1.867892E-14	5.455848E-16
3.900000E+03	1.915177E-14	5.566939E-16
3.910000E+03	1.960470E-14	5.670911E-16
3.920000E+03	2.002972E-14	5.765615E-16
3.930000E+03	2.041982E-14	5.849235E-16
3.940000E+03	2.076923E-14	5.920338E-16
3.950000E+03	2.107288E-14	5.977718E-16
3.960000E+03	2.132800E-14	6.020843E-16
3.970000E+03	2.153296E-14	6.049509E-16
3.980000E+03	2.168763E-14	6.063922E-16
3.990000E+03	2.179405E-14	6.064884E-16
4.000000E+03	2.185500E-14	6.053361E-16
4.010000E+03	2.187455E-14	6.030636E-16
4.020000E+03	2.185798E-14	5.998263E-16
4.030000E+03	2.181077E-14	5.957789E-16
4.040000E+03	2.173849E-14	5.910715E-16
4.050000E+03	2.164735E-14	5.858637E-16
4.060000E+03	2.154244E-14	5.802777E-16
4.070000E+03	2.142904E-14	5.744329E-16
4.080000E+03	2.131127E-14	5.684111E-16
4.090000E+03	2.119302E-14	5.622799E-16
4.100000E+03	2.107689E-14	5.560655E-16
4.110000E+03	2.096513E-14	5.497780E-16
4.120000E+03	2.085855E-14	5.433827E-16
4.130000E+03	2.075787E-14	5.368348E-16
4.140000E+03	2.066281E-14	5.300565E-16
4.150000E+03	2.057268E-14	5.229528E-16
4.160000E+03	2.048599E-14	5.154030E-16
4.170000E+03	2.040140E-14	5.072848E-16
4.180000E+03	2.031697E-14	4.984599E-16
4.190000E+03	2.023067E-14	4.887877E-16
4.200000E+03	2.014043E-14	4.781313E-16
4.210000E+03	2.004456E-14	4.663721E-16
4.220000E+03	1.994124E-14	4.534016E-16
4.230000E+03	1.982901E-14	4.391408E-16
4.240000E+03	1.970658E-14	4.235406E-16
4.250000E+03	1.957311E-14	4.065975E-16
4.260000E+03	1.942815E-14	3.883590E-16
4.270000E+03	1.927148E-14	3.689311E-16
4.280000E+03	1.910353E-14	3.484982E-16
4.290000E+03	1.892482E-14	3.273248E-16
4.300000E+03	1.873645E-14	3.057818E-16
4.310000E+03	1.853936E-14	2.843493E-16
4.320000E+03	1.833528E-14	2.636465E-16
4.330000E+03	1.812566E-14	2.444153E-16
4.340000E+03	1.791233E-14	2.274983E-16
4.350000E+03	1.769721E-14	2.137373E-16
4.360000E+03	1.748254E-14	2.037598E-16
4.370000E+03	1.727280E-14	1.975365E-16
4.380000E+03	1.707592E-14	1.941059E-16
4.390000E+03	1.690118E-14	1.921790E-16
4.400000E+03	1.675637E-14	1.906214E-16
4.410000E+03	1.664855E-14	1.886623E-16
4.420000E+03	1.658273E-14	1.859389E-16
4.430000E+03	1.656264E-14	1.825183E-16
4.440000E+03	1.659040E-14	1.789041E-16
4.450000E+03	1.666695E-14	1.760540E-16
4.460000E+03	1.679178E-14	1.753366E-16
4.470000E+03	1.696277E-14	1.783256E-16
4.480000E+03	1.717657E-14	1.862511E-16
4.490000E+03	1.742801E-14	1.992439E-16
4.500000E+03	1.770961E-14	2.165245E-16
4.510000E+03	1.801296E-14	2.370030E-16
4.520000E+03	1.832877E-14	2.595832E-16
4.530000E+03	1.864661E-14	2.832794E-16
4.540000E+03	1.895577E-14	3.072509E-16
4.550000E+03	1.924511E-14	3.307838E-16
4.560000E+03	1.950324E-14	3.532685E-16
4.570000E+03	1.972008E-14	3.742052E-16
4.580000E+03	1.988552E-14	3.931642E-16
4.590000E+03	1.999181E-14	4.098203E-16
4.600000E+03	2.003199E-14	4.239136E-16
4.610000E+03	2.000204E-14	4.352874E-16
4.620000E+03	1.989978E-14	4.438598E-16
4.630000E+03	1.972556E-14	4.496344E-16
4.640000E+03	1.948213E-14	4.526911E-16
4.650000E+03	1.917420E-14	4.531738E-16
4.660000E+03	1.880855E-14	4.512866E-16
4.670000E+03	1.839342E-14	4.472779E-16
4.680000E+03	1.793822E-14	4.414306E-16
4.690000E+03	1.745267E-14	4.340374E-16
4.700000E+03	1.694687E-14	4.254036E-16
4.710000E+03	1.643053E-14	4.158251E-16
4.720000E+03	1.591290E-14	4.055863E-16
4.730000E+03	1.540219E-14	3.949472E-16
4.740000E+03	1.490589E-14	3.841485E-16
4.750000E+03	1.442990E-14	3.733927E-16
4.760000E+03	1.397949E-14	3.628661E-16
4.770000E+03	1.355827E-14	3.527130E-16
4.780000E+03	1.316911E-14	3.430592E-16
4.790000E+03	1.281352E-14	3.339943E-16
4.800000E+03	1.249247E-14	3.255922E-16
4.810000E+03	1.220576E-14	3.178944E-16
4.820000E+03	1.195276E-14	3.109271E-16
4.830000E+03	1.173211E-14	3.046942E-16
4.840000E+03	1.154205E-14	2.991850E-16
4.850000E+03	1.138025E-14	2.943686E-16
4.860000E+03	1.124416E-14	2.902037E-16
4.870000E+03	1.113115E-14	2.866416E-16
4.880000E+03	1.103828E-14	2.836207E-16
4.890000E+03	1.096285E-14	2.810800E-16
4.900000E+03	1.090212E-14	2.789522E-16
4.910000E+03	1.085382E-14	2.771776E-16
4.920000E+03	1.081586E-14	2.756975E-16
4.930000E+03	1.078672E-14	2.744653E-16
4.940000E+03	1.076557E-14	2.734494E-16
4.950000E+03	1.075194E-14	2.726277E-16
4.960000E+03	1.074606E-14	2.719961E-16
4.970000E+03	1.074874E-14	2.715661E-16
4.980000E+03	1.076117E-14	2.713606E-16
4.990000E+03	1.078524E-14	2.714224E-16
5.000000E+03	1.082265E-14	2.717904E-16
5.010000E+03	1.087587E-14	2.725247E-16
5.020000E+03	1.094682E-14	2.736728E-16
5.030000E+03	1.103788E-14	2.752935E-16
5.040000E+03	1.115083E-14	2.774317E-16
5.050000E+03	1.128760E-14	2.801349E-16
5.060000E+03	1.144936E-14	2.834302E-16
5.070000E+03	1.163712E-14	2.873398E-16
5.080000E+03	1.185116E-14	2.918648E-16
5.090000E+03	1.209125E-14	2.969914E-16
5.100000E+03	1.235659E-14	3.026880E-16
5.110000E+03	1.264530E-14	3.088926E-16
5.120000E+03	1.295502E-14	3.155271E-16
5.130000E+03	1.328246E-14	3.224858E-16
5.140000E+03	1.362334E-14	3.296336E-16
5.150000E+03	1.397284E-14	3.368166E-16
5.160000E+03	1.432501E-14	3.438478E-16
5.170000E+03	1.467383E-14	3.505327E-16
5.180000E+03	1.501248E-14	3.566517E-16
5.190000E+03	1.533394E-14	3.619756E-16
5.200000E+03	1.563158E-14	3.662803E-16
5.210000E+03	1.589886E-14	3.693405E-16
5.220000E+03	1.613020E-14	3.709526E-16
5.230000E+03	1.632053E-14	3.709242E-16
5.240000E+03	1.646652E-14	3.691054E-16
5.250000E+03	1.656570E-14	3.653693E-16
5.260000E+03	1.661714E-14	3.596286E-16
5.270000E+03	1.662113E-14	3.518299E-16
5.280000E+03	1.657957E-14	3.419634E-16
5.290000E+03	1.649540E-14	3.300504E-16
5.300000E+03	1.637239E-14	3.161418E-16
5.310000E+03	1.621525E-14	3.003225E-16
5.320000E+03	1.602941E-14	2.827107E-16
5.330000E+03	1.582036E-14	2.634516E-16
5.340000E+03	1.559404E-14	2.427362E-16
5.350000E+03	1.535588E-14	2.208046E-16
5.360000E+03	1.511172E-14	1.979937E-16
5.370000E+03	1.486643E-14	1.747770E-16
5.380000E+03	1.462479E-14	1.518874E-16
5.390000E+03	1.439077E-14	1.305021E-16
5.400000E+03	1.416748E-14	1.125326E-16
5.410000E+03	1.395682E-14	1.007703E-16
5.420000E+03	1.376025E-14	9.793087E-17
5.430000E+03	1.357780E-14	1.041113E-16
5.440000E+03	1.340867E-14	1.165867E-16
5.450000E+03	1.325242E-14	1.322441E-16
5.460000E+03	1.310768E-14	1.489031E-16
5.470000E+03	1.297293E-14	1.653103E-16
5.480000E+03	1.284632E-14	1.807927E-16
5.490000E+03	1.272589E-14	1.950043E-16
5.500000E+03	1.260967E-14	2.077825E-16
5.510000E+03	1.249558E-14	2.190654E-16
5.520000E+03	1.238226E-14	2.288627E-16
5.530000E+03	1.226829E-14	2.372176E-16
5.540000E+03	1.215261E-14	2.441997E-16
5.550000E+03	1.203477E-14	2.499027E-16
5.560000E+03	1.191439E-14	2.544272E-16
5.570000E+03	1.179182E-14	2.578918E-16
5.580000E+03	1.166767E-14	2.604210E-16
5.590000E+03	1.154266E-14	2.621386E-16
5.600000E+03	1.141826E-14	2.631818E-16
5.610000E+03	1.129572E-14	2.636774E-16
5.620000E+03	1.117684E-14	2.637574E-16
5.630000E+03	1.106344E-14	2.635469E-16
5.640000E+03	1.095729E-14	2.631617E-16
5.650000E+03	1.086044E-14	2.627150E-16
5.660000E+03	1.077457E-14	2.623031E-16
5.670000E+03	1.070173E-14	2.620229E-16
5.680000E+03	1.064351E-14	2.619535E-16
5.690000E+03	1.060160E-14	2.621688E-16
5.700000E+03	1.057709E-14	2.627249E-16
5.710000E+03	1.057133E-14	2.636789E-16
5.720000E+03	1.058501E-14	2.650700E-16
5.730000E+03	1.061862E-14	2.669307E-16
5.740000E+03	1.067238E-14	2.692865E-16
5.750000E+03	1.074600E-14	2.721502E-16
5.760000E+03	1.083850E-14	2.755175E-16
5.770000E+03	1.094901E-14	2.793871E-16
5.780000E+03	1.107553E-14	2.837296E-16
5.790000E+03	1.121589E-14	2.885105E-16
5.800000E+03	1.136737E-14	2.936798E-16
5.810000E+03	1.152634E-14	2.991617E-16
5.820000E+03	1.168917E-14	3.048763E-16
5.830000E+03	1.185139E-14	3.107172E-16
5.840000E+03	1.200841E-14	3.165690E-16
5.850000E+03	1.215512E-14	3.222957E-16
5.860000E+03	1.228669E-14	3.277609E-16
5.870000E+03	1.239777E-14	3.328070E-16
5.880000E+03	1.248376E-14	3.372890E-16
5.890000E+03	1.254004E-14	3.410548E-16
5.900000E+03	1.256279E-14	3.439697E-16
5.910000E+03	1.254868E-14	3.459078E-16
5.920000E+03	1.249550E-14	3.467729E-16
5.930000E+03	1.240193E-14	3.464923E-16
5.940000E+03	1.226786E-14	3.450285E-16
5.950000E+03	1.209389E-14	3.423658E-16
5.960000E+03	1.188243E-14	3.385429E-16
5.970000E+03	1.163628E-14	3.336126E-16
5.980000E+03	1.135961E-14	3.276713E-16
5.990000E+03	1.105728E-14	3.208391E-16
6.000000E+03	1.073480E-14	3.132590E-16
6.010000E+03	1.039820E-14	3.050944E-16
6.020000E+03	1.005361E-14	2.965152E-16
6.030000E+03	9.707151E-15	2.876945E-16
6.040000E+03	9.364687E-15	2.788018E-16
6.050000E+03	9.031798E-15	2.700003E-16
6.060000E+03	8.713267E-15	2.614308E-16
6.070000E+03	8.413424E-15	2.532213E-16
6.080000E+03	8.135735E-15	2.454734E-16
6.090000E+03	7.882991E-15	2.382674E-16
6.100000E+03	7.657003E-15	2.316521E-16
6.110000E+03	7.459138E-15	2.256607E-16
6.120000E+03	7.289683E-15	2.202916E-16
6.130000E+03	7.148683E-15	2.155329E-16
6.140000E+03	7.035339E-15	2.113449E-16
6.150000E+03	6.948548E-15	2.076762E-16
6.160000E+03	6.886596E-15	2.044545E-16
6.170000E+03	6.847669E-15	2.016024E-16
6.180000E+03	6.829456E-15	1.990254E-16
6.190000E+03	6.829384E-15	1.966194E-16
6.200000E+03	6.844673E-15	1.942725E-16
6.210000E+03	6.872481E-15	1.918697E-16
6.220000E+03	6.909795E-15	1.892898E-16
6.230000E+03	6.953496E-15	1.864080E-16
6.240000E+03	7.000719E-15	1.831069E-16
6.250000E+03	7.048562E-15	1.792686E-16
6.260000E+03	7.094547E-15	1.747885E-16
6.270000E+03	7.136410E-15	1.695708E-16
6.280000E+03	7.172260E-15	1.635341E-16
6.290000E+03	7.200521E-15	1.566128E-16
6.300000E+03	7.220466E-15	1.487717E-16
6.310000E+03	7.231407E-15	1.399926E-16
6.320000E+03	7.233280E-15	1.302937E-16
6.330000E+03	7.226392E-15	1.197348E-16
6.340000E+03	7.211352E-15	1.084339E-16
6.350000E+03	7.188881E-15	9.659612E-17
6.360000E+03	7.160034E-15	8.457525E-17
6.370000E+03	7.125780E-15	7.297513E-17
6.380000E+03	7.087015E-15	6.282857E-17
6.390000E+03	7.044371E-15	5.576443E-17
6.400000E+03	6.998449E-15	5.366937E-17
6.410000E+03	6.949738E-15	5.718802E-17
6.420000E+03	6.899567E-15	6.491526E-17
6.430000E+03	6.848698E-15	7.490880E-17
6.440000E+03	6.797909E-15	8.577982E-17
6.450000E+03	6.747464E-15	9.672126E-17
6.460000E+03	6.697464E-15	1.072944E-16
6.470000E+03	6.647789E-15	1.172656E-16
6.480000E+03	6.598254E-15	1.265168E-16
6.490000E+03	6.548337E-15	1.349901E-16
6.500000E+03	6.497638E-15	1.426679E-16
6.510000E+03	6.445601E-15	1.495518E-16
6.520000E+03	6.391753E-15	1.556585E-16
6.530000E+03	6.335532E-15	1.610095E-16
6.540000E+03	6.276609E-15	1.656355E-16
6.550000E+03	6.214410E-15	1.695625E-16
6.560000E+03	6.148836E-15	1.728288E-16
6.570000E+03	6.079478E-15	1.754630E-16
6.580000E+03	6.006227E-15	1.775006E-16
6.590000E+03	5.929176E-15	1.789810E-16
6.600000E+03	5.848335E-15	1.799396E-16
6.610000E+03	5.764016E-15	1.804184E-16
6.620000E+03	5.676441E-15	1.804551E-16
6.630000E+03	5.586116E-15	1.800944E-16
6.640000E+03	5.493441E-15	1.793759E-16
6.650000E+03	5.398976E-15	1.783427E-16
6.660000E+03	5.303417E-15	1.770407E-16
6.670000E+03	5.207396E-15	1.755126E-16
6.680000E+03	5.111468E-15	1.737969E-16
6.690000E+03	5.016271E-15	1.719335E-16
6.700000E+03	4.922502E-15	1.699632E-16
6.710000E+03	4.830646E-15	1.679184E-16
6.720000E+03	4.741306E-15	1.658341E-16
6.730000E+03	4.654939E-15	1.637395E-16
6.740000E+03	4.571854E-15	1.616574E-16
6.750000E+03	4.492451E-15	1.596127E-16
6.760000E+03	4.416973E-15	1.576242E-16
6.770000E+03	4.345515E-15	1.557043E-16
6.780000E+03	4.278181E-15	1.538650E-16
6.790000E+03	4.215152E-15	1.521204E-16
6.800000E+03	4.156248E-15	1.504710E-16
6.810000E+03	4.101456E-15	1.489228E-16
6.820000E+03	4.050635E-15	1.474765E-16
6.830000E+03	4.003528E-15	1.461280E-16
6.840000E+03	3.959984E-15	1.448767E-16
6.850000E+03	3.919679E-15	1.437150E-16
6.860000E+03	3.882478E-15	1.426420E-16
6.870000E+03	3.847949E-15	1.416451E-16
6.880000E+03	3.815792E-15	1.407165E-16
6.890000E+03	3.785850E-15	1.398530E-16
6.900000E+03	3.757687E-15	1.390408E-16
6.910000E+03	3.731095E-15	1.382741E-16
6.920000E+03	3.705741E-15	1.375424E-16
6.930000E+03	3.681454E-15	1.368407E-16
6.940000E+03	3.658020E-15	1.361621E-16
6.950000E+03	3.635183E-15	1.354983E-16
6.960000E+03	3.612853E-15	1.348465E-16
6.970000E+03	3.590834E-15	1.342003E-16
6.980000E+03	3.569093E-15	1.335587E-16
6.990000E+03	3.547553E-15	1.329193E-16
7.000000E+03	3.526093E-15	1.322779E-16
7.010000E+03	3.504749E-15	1.316358E-16
7.020000E+03	3.483434E-15	1.309899E-16
7.030000E+03	3.462146E-15	1.303398E-16
7.040000E+03	3.440954E-15	1.296879E-16
7.050000E+03	3.419870E-15	1.290344E-16
7.060000E+03	3.398768E-15	1.283741E-16
7.070000E+03	3.377798E-15	1.277120E-16
7.080000E+03	3.356967E-15	1.270481E-16
7.090000E+03	3.336215E-15	1.263793E-16
7.100000E+03	3.315541E-15	1.257051E-16
7.110000E+03	3.294941E-15	1.250245E-16
7.120000E+03	3.274469E-15	1.243392E-16
7.130000E+03	3.253973E-15	1.236425E-16
7.140000E+03	3.233561E-15	1.229381E-16
7.150000E+03	3.213200E-15	1.222241E-16
7.160000E+03	3.192719E-15	1.214935E-16
7.170000E+03	3.172139E-15	1.207466E-16
7.180000E+03	3.151412E-15	1.199812E-16
7.190000E+03	3.130548E-15	1.191973E-16
7.200000E+03	3.109358E-15	1.183875E-16
7.210000E+03	3.087911E-15	1.175540E-16
7.220000E+03	3.066011E-15	1.166894E-16
7.230000E+03	3.043724E-15	1.157959E-16
7.240000E+03	3.020855E-15	1.148660E-16
7.250000E+03	2.997404E-15	1.138997E-16
7.260000E+03	2.973377E-15	1.128973E-16
7.270000E+03	2.948590E-15	1.118521E-16
7.280000E+03	2.923062E-15	1.107654E-16
7.290000E+03	2.896758E-15	1.096364E-16
7.300000E+03	2.869656E-15	1.084656E-16
7.310000E+03	2.841751E-15	1.072539E-16
7.320000E+03	2.813116E-15	1.060060E-16
7.330000E+03	2.783658E-15	1.047201E-16
7.340000E+03	2.753551E-15	1.034050E-16
7.350000E+03	2.722803E-15	1.020632E-16
7.360000E+03	2.691565E-15	1.007025E-16
7.370000E+03	2.659881E-15	9.932678E-17
7.380000E+03	2.627991E-15	9.794684E-17
7.390000E+03	2.596024E-15	9.656906E-17
7.400000E+03	2.564116E-15	9.519972E-17
7.410000E+03	2.532463E-15	9.384700E-17
7.420000E+03	2.501202E-15	9.251640E-17
7.430000E+03	2.470581E-15	9.121713E-17
7.440000E+03	2.440604E-15	8.994903E-17
7.450000E+03	2.411498E-15	8.871976E-17
7.460000E+03	2.383301E-15	8.752973E-17
7.470000E+03	2.356040E-15	8.637856E-17
7.480000E+03	2.329839E-15	8.526916E-17
7.490000E+03	2.304580E-15	8.419536E-17
7.500000E+03	2.280415E-15	8.316046E-17
7.510000E+03	2.257312E-15	8.216087E-17
7.520000E+03	2.235226E-15	8.119235E-17
7.530000E+03	2.214216E-15	8.025418E-17
7.540000E+03	2.194220E-15	7.934121E-17
7.550000E+03	2.175173E-15	7.844819E-17
7.560000E+03	2.157170E-15	7.757569E-17
7.570000E+03	2.140142E-15	7.671864E-17
7.580000E+03	2.124025E-15	7.587237E-17
7.590000E+03	2.108863E-15	7.503667E-17
7.600000E+03	2.094602E-15	7.420813E-17
7.610000E+03	2.081249E-15	7.338599E-17
7.620000E+03	2.068868E-15	7.257201E-17
7.630000E+03	2.057481E-15	7.176659E-17
7.640000E+03	2.047010E-15	7.096686E-17
7.650000E+03	2.037596E-15	7.017748E-17
7.660000E+03	2.029226E-15	6.939749E-17
7.670000E+03	2.021944E-15	6.862741E-17
7.680000E+03	2.015849E-15	6.786899E-17
7.690000E+03	2.010934E-15	6.711962E-17
7.700000E+03	2.007245E-15	6.637759E-17
7.710000E+03	2.004876E-15	6.564191E-17
7.720000E+03	2.003813E-15	6.490696E-17
7.730000E+03	2.004141E-15	6.416946E-17
7.740000E+03	2.005829E-15	6.342142E-17
7.750000E+03	2.008948E-15	6.265703E-17
7.760000E+03	2.013447E-15	6.186572E-17
