#wls	flux	fluxerr
1.600000E+03	3.338244E-14	7.550820E-15
1.640000E+03	2.755249E-14	5.625741E-15
1.680000E+03	2.239102E-14	4.085438E-15
1.720000E+03	1.789946E-14	2.883558E-15
1.760000E+03	1.406838E-14	1.972166E-15
1.800000E+03	1.086382E-14	1.301644E-15
1.840000E+03	8.241238E-15	8.249130E-16
1.880000E+03	6.145541E-15	4.987295E-16
1.920000E+03	4.511222E-15	2.848426E-16
1.960000E+03	3.270948E-15	1.513558E-16
2.000000E+03	2.356500E-15	7.286404E-17
2.040000E+03	1.703440E-15	3.077408E-17
2.080000E+03	1.252008E-15	1.436809E-17
2.120000E+03	9.495660E-16	1.339310E-17
2.160000E+03	7.552818E-16	1.279863E-17
2.200000E+03	6.398449E-16	1.058893E-17
2.240000E+03	5.861173E-16	8.659827E-18
2.280000E+03	5.869904E-16	9.756014E-18
2.320000E+03	6.426289E-16	1.436246E-17
2.360000E+03	7.609143E-16	2.146929E-17
2.400000E+03	9.581836E-16	3.085534E-17
2.440000E+03	1.257574E-15	4.208842E-17
2.480000E+03	1.683435E-15	5.344566E-17
2.520000E+03	2.249248E-15	6.124619E-17
2.560000E+03	2.942414E-15	6.110804E-17
2.600000E+03	3.713927E-15	5.582478E-17
2.640000E+03	4.489836E-15	7.017892E-17
2.680000E+03	5.214240E-15	1.105051E-16
2.720000E+03	5.879419E-15	1.561297E-16
2.760000E+03	6.513618E-15	1.962464E-16
2.800000E+03	7.157246E-15	2.278697E-16
2.840000E+03	7.839409E-15	2.521371E-16
2.880000E+03	8.553959E-15	2.714915E-16
2.920000E+03	9.253126E-15	2.878956E-16
2.960000E+03	9.874148E-15	3.022879E-16
3.000000E+03	1.037513E-14	3.131929E-16
3.010000E+03	1.047961E-14	3.149505E-16
3.020000E+03	1.057501E-14	3.161868E-16
3.030000E+03	1.066148E-14	3.168707E-16
3.040000E+03	1.073842E-14	3.169668E-16
3.050000E+03	1.080565E-14	3.164738E-16
3.060000E+03	1.086296E-14	3.154102E-16
3.070000E+03	1.090943E-14	3.137940E-16
3.080000E+03	1.094533E-14	3.116933E-16
3.090000E+03	1.096986E-14	3.091563E-16
3.100000E+03	1.098327E-14	3.062654E-16
3.110000E+03	1.098533E-14	3.030872E-16
3.120000E+03	1.097634E-14	2.996938E-16
3.130000E+03	1.095734E-14	2.961650E-16
3.140000E+03	1.092891E-14	2.925515E-16
3.150000E+03	1.089312E-14	2.889268E-16
3.160000E+03	1.085115E-14	2.853257E-16
3.170000E+03	1.080583E-14	2.818121E-16
3.180000E+03	1.075925E-14	2.784202E-16
3.190000E+03	1.071448E-14	2.752024E-16
3.200000E+03	1.067414E-14	2.721916E-16
3.210000E+03	1.064120E-14	2.694252E-16
3.220000E+03	1.061835E-14	2.669268E-16
3.230000E+03	1.060807E-14	2.647086E-16
3.240000E+03	1.061241E-14	2.627651E-16
3.250000E+03	1.063366E-14	2.610890E-16
3.260000E+03	1.067324E-14	2.596446E-16
3.270000E+03	1.073258E-14	2.583902E-16
3.280000E+03	1.081248E-14	2.572627E-16
3.290000E+03	1.091361E-14	2.561921E-16
3.300000E+03	1.103658E-14	2.551035E-16
3.310000E+03	1.118145E-14	2.539071E-16
3.320000E+03	1.134843E-14	2.525164E-16
3.330000E+03	1.153746E-14	2.508391E-16
3.340000E+03	1.174804E-14	2.487759E-16
3.350000E+03	1.198030E-14	2.462453E-16
3.360000E+03	1.223382E-14	2.431615E-16
3.370000E+03	1.250835E-14	2.394532E-16
3.380000E+03	1.280362E-14	2.350681E-16
3.390000E+03	1.311902E-14	2.299799E-16
3.400000E+03	1.345465E-14	2.242284E-16
3.410000E+03	1.381004E-14	2.179275E-16
3.420000E+03	1.418474E-14	2.113190E-16
3.430000E+03	1.457840E-14	2.048290E-16
3.440000E+03	1.499062E-14	1.991224E-16
3.450000E+03	1.542043E-14	1.951304E-16
3.460000E+03	1.586706E-14	1.940140E-16
3.470000E+03	1.632834E-14	1.969399E-16
3.480000E+03	1.680037E-14	2.046572E-16
3.490000E+03	1.727469E-14	2.169615E-16
3.500000E+03	1.773996E-14	2.329638E-16
3.510000E+03	1.818350E-14	2.514958E-16
3.520000E+03	1.859214E-14	2.713737E-16
3.530000E+03	1.895291E-14	2.915321E-16
3.540000E+03	1.925393E-14	3.110787E-16
3.550000E+03	1.948554E-14	3.293074E-16
3.560000E+03	1.964052E-14	3.456875E-16
3.570000E+03	1.971516E-14	3.598592E-16
3.580000E+03	1.970903E-14	3.716114E-16
3.590000E+03	1.962584E-14	3.808822E-16
3.600000E+03	1.947266E-14	3.877330E-16
3.610000E+03	1.925994E-14	3.923407E-16
3.620000E+03	1.899989E-14	3.949558E-16
3.630000E+03	1.870659E-14	3.958962E-16
3.640000E+03	1.839432E-14	3.955013E-16
3.650000E+03	1.807786E-14	3.941306E-16
3.660000E+03	1.777112E-14	3.921290E-16
3.670000E+03	1.748693E-14	3.898170E-16
3.680000E+03	1.723684E-14	3.874878E-16
3.690000E+03	1.703093E-14	3.854028E-16
3.700000E+03	1.687767E-14	3.837902E-16
3.710000E+03	1.678450E-14	3.828593E-16
3.720000E+03	1.675739E-14	3.827886E-16
3.730000E+03	1.680174E-14	3.837439E-16
3.740000E+03	1.692169E-14	3.858596E-16
3.750000E+03	1.712054E-14	3.892434E-16
3.760000E+03	1.740079E-14	3.939776E-16
3.770000E+03	1.776415E-14	4.001176E-16
3.780000E+03	1.821090E-14	4.076830E-16
3.790000E+03	1.874040E-14	4.166725E-16
3.800000E+03	1.935024E-14	4.270530E-16
3.810000E+03	2.003653E-14	4.387708E-16
3.820000E+03	2.079372E-14	4.517519E-16
3.830000E+03	2.161434E-14	4.658965E-16
3.840000E+03	2.248865E-14	4.810690E-16
3.850000E+03	2.340562E-14	4.971129E-16
3.860000E+03	2.435196E-14	5.138200E-16
3.870000E+03	2.531425E-14	5.309637E-16
3.880000E+03	2.627752E-14	5.482566E-16
3.890000E+03	2.722788E-14	5.653966E-16
3.900000E+03	2.815120E-14	5.820357E-16
3.910000E+03	2.903491E-14	5.978205E-16
3.920000E+03	2.986771E-14	6.124003E-16
3.930000E+03	3.064021E-14	6.254620E-16
3.940000E+03	3.134454E-14	6.367479E-16
3.950000E+03	3.197502E-14	6.460951E-16
3.960000E+03	3.252675E-14	6.534261E-16
3.970000E+03	3.299664E-14	6.587786E-16
3.980000E+03	3.338248E-14	6.622806E-16
3.990000E+03	3.368346E-14	6.641439E-16
4.000000E+03	3.389903E-14	6.646109E-16
4.010000E+03	3.402929E-14	6.639293E-16
4.020000E+03	3.407506E-14	6.623177E-16
4.030000E+03	3.403842E-14	6.599506E-16
4.040000E+03	3.392151E-14	6.569170E-16
4.050000E+03	3.372824E-14	6.532515E-16
4.060000E+03	3.346276E-14	6.489161E-16
4.070000E+03	3.313075E-14	6.438483E-16
4.080000E+03	3.273883E-14	6.379783E-16
4.090000E+03	3.229406E-14	6.312496E-16
4.100000E+03	3.180406E-14	6.236418E-16
4.110000E+03	3.127669E-14	6.151758E-16
4.120000E+03	3.072040E-14	6.059151E-16
4.130000E+03	3.014278E-14	5.959234E-16
4.140000E+03	2.955173E-14	5.852651E-16
4.150000E+03	2.895438E-14	5.739662E-16
4.160000E+03	2.835804E-14	5.620236E-16
4.170000E+03	2.776967E-14	5.494001E-16
4.180000E+03	2.719550E-14	5.360289E-16
4.190000E+03	2.664188E-14	5.218488E-16
4.200000E+03	2.611438E-14	5.068007E-16
4.210000E+03	2.561862E-14	4.908533E-16
4.220000E+03	2.515937E-14	4.739899E-16
4.230000E+03	2.474128E-14	4.562237E-16
4.240000E+03	2.436802E-14	4.375803E-16
4.250000E+03	2.404273E-14	4.181079E-16
4.260000E+03	2.376755E-14	3.978714E-16
4.270000E+03	2.354400E-14	3.769678E-16
4.280000E+03	2.337200E-14	3.555231E-16
4.290000E+03	2.325024E-14	3.337216E-16
4.300000E+03	2.317550E-14	3.118327E-16
4.310000E+03	2.314259E-14	2.902670E-16
4.320000E+03	2.314436E-14	2.696520E-16
4.330000E+03	2.317155E-14	2.509066E-16
4.340000E+03	2.321283E-14	2.352695E-16
4.350000E+03	2.325589E-14	2.241649E-16
4.360000E+03	2.328847E-14	2.187427E-16
4.370000E+03	2.330193E-14	2.190173E-16
4.380000E+03	2.329400E-14	2.232720E-16
4.390000E+03	2.326668E-14	2.291673E-16
4.400000E+03	2.322351E-14	2.346319E-16
4.410000E+03	2.316974E-14	2.382569E-16
4.420000E+03	2.311142E-14	2.393657E-16
4.430000E+03	2.305566E-14	2.379889E-16
4.440000E+03	2.300936E-14	2.348150E-16
4.450000E+03	2.297966E-14	2.311618E-16
4.460000E+03	2.297350E-14	2.288724E-16
4.470000E+03	2.299659E-14	2.300003E-16
4.480000E+03	2.305214E-14	2.361374E-16
4.490000E+03	2.313783E-14	2.474381E-16
4.500000E+03	2.324804E-14	2.629598E-16
4.510000E+03	2.337519E-14	2.813926E-16
4.520000E+03	2.351126E-14	3.014729E-16
4.530000E+03	2.364804E-14	3.221537E-16
4.540000E+03	2.377703E-14	3.426293E-16
4.550000E+03	2.389066E-14	3.623195E-16
4.560000E+03	2.398143E-14	3.808113E-16
4.570000E+03	2.404274E-14	3.978241E-16
4.580000E+03	2.406838E-14	4.131631E-16
4.590000E+03	2.405380E-14	4.267072E-16
4.600000E+03	2.399495E-14	4.383673E-16
4.610000E+03	2.388969E-14	4.480956E-16
4.620000E+03	2.373658E-14	4.558587E-16
4.630000E+03	2.353598E-14	4.616567E-16
4.640000E+03	2.328933E-14	4.655141E-16
4.650000E+03	2.299972E-14	4.674943E-16
4.660000E+03	2.267067E-14	4.676801E-16
4.670000E+03	2.230719E-14	4.661983E-16
4.680000E+03	2.191453E-14	4.631986E-16
4.690000E+03	2.149835E-14	4.588598E-16
4.700000E+03	2.106491E-14	4.533952E-16
4.710000E+03	2.061983E-14	4.470258E-16
4.720000E+03	2.016891E-14	4.399926E-16
4.730000E+03	1.971722E-14	4.325296E-16
4.740000E+03	1.926970E-14	4.248676E-16
4.750000E+03	1.883021E-14	4.172031E-16
4.760000E+03	1.840258E-14	4.097142E-16
4.770000E+03	1.798971E-14	4.025366E-16
4.780000E+03	1.759430E-14	3.957791E-16
4.790000E+03	1.721821E-14	3.895114E-16
4.800000E+03	1.686302E-14	3.837792E-16
4.810000E+03	1.652991E-14	3.786055E-16
4.820000E+03	1.621971E-14	3.739958E-16
4.830000E+03	1.593294E-14	3.699430E-16
4.840000E+03	1.566973E-14	3.664275E-16
4.850000E+03	1.543026E-14	3.634303E-16
4.860000E+03	1.521441E-14	3.609225E-16
4.870000E+03	1.502177E-14	3.588657E-16
4.880000E+03	1.485200E-14	3.572184E-16
4.890000E+03	1.470488E-14	3.559376E-16
4.900000E+03	1.457971E-14	3.549677E-16
4.910000E+03	1.447641E-14	3.542674E-16
4.920000E+03	1.439447E-14	3.537900E-16
4.930000E+03	1.433342E-14	3.534963E-16
4.940000E+03	1.429307E-14	3.533648E-16
4.950000E+03	1.427309E-14	3.533824E-16
4.960000E+03	1.427297E-14	3.535458E-16
4.970000E+03	1.429241E-14	3.538707E-16
4.980000E+03	1.433059E-14	3.543730E-16
4.990000E+03	1.438710E-14	3.550900E-16
5.000000E+03	1.446092E-14	3.560522E-16
5.010000E+03	1.455084E-14	3.572882E-16
5.020000E+03	1.465565E-14	3.588280E-16
5.030000E+03	1.477362E-14	3.606861E-16
5.040000E+03	1.490287E-14	3.628722E-16
5.050000E+03	1.504133E-14	3.653887E-16
5.060000E+03	1.518665E-14	3.682320E-16
5.070000E+03	1.533621E-14	3.713876E-16
5.080000E+03	1.548754E-14	3.748363E-16
5.090000E+03	1.563783E-14	3.785333E-16
5.100000E+03	1.578441E-14	3.824106E-16
5.110000E+03	1.592456E-14	3.863636E-16
5.120000E+03	1.605603E-14	3.902611E-16
5.130000E+03	1.617632E-14	3.939326E-16
5.140000E+03	1.628385E-14	3.972055E-16
5.150000E+03	1.637674E-14	3.998891E-16
5.160000E+03	1.645397E-14	4.018143E-16
5.170000E+03	1.651462E-14	4.028256E-16
5.180000E+03	1.655819E-14	4.027951E-16
5.190000E+03	1.658498E-14	4.016353E-16
5.200000E+03	1.659538E-14	3.992823E-16
5.210000E+03	1.659038E-14	3.957062E-16
5.220000E+03	1.657135E-14	3.909027E-16
5.230000E+03	1.653982E-14	3.848834E-16
5.240000E+03	1.649776E-14	3.776778E-16
5.250000E+03	1.644719E-14	3.693180E-16
5.260000E+03	1.639060E-14	3.598436E-16
5.270000E+03	1.633024E-14	3.492798E-16
5.280000E+03	1.626857E-14	3.376426E-16
5.290000E+03	1.620798E-14	3.249307E-16
5.300000E+03	1.615059E-14	3.111189E-16
5.310000E+03	1.609851E-14	2.961643E-16
5.320000E+03	1.605352E-14	2.800056E-16
5.330000E+03	1.601707E-14	2.625702E-16
5.340000E+03	1.598998E-14	2.437866E-16
5.350000E+03	1.597291E-14	2.236180E-16
5.360000E+03	1.596585E-14	2.021025E-16
5.370000E+03	1.596830E-14	1.794412E-16
5.380000E+03	1.597917E-14	1.561552E-16
5.390000E+03	1.599752E-14	1.333962E-16
5.400000E+03	1.602174E-14	1.134790E-16
5.410000E+03	1.605072E-14	1.004622E-16
5.420000E+03	1.608316E-14	9.906375E-17
5.430000E+03	1.611900E-14	1.101157E-16
5.440000E+03	1.615872E-14	1.297574E-16
5.450000E+03	1.620293E-14	1.536715E-16
5.460000E+03	1.625159E-14	1.790674E-16
5.470000E+03	1.630446E-14	2.044244E-16
5.480000E+03	1.636095E-14	2.289386E-16
5.490000E+03	1.642062E-14	2.521933E-16
5.500000E+03	1.648250E-14	2.739772E-16
5.510000E+03	1.654559E-14	2.942001E-16
5.520000E+03	1.660881E-14	3.128424E-16
5.530000E+03	1.667097E-14	3.299275E-16
5.540000E+03	1.673092E-14	3.455052E-16
5.550000E+03	1.678769E-14	3.596457E-16
5.560000E+03	1.684026E-14	3.724269E-16
5.570000E+03	1.688811E-14	3.839421E-16
5.580000E+03	1.693036E-14	3.942786E-16
5.590000E+03	1.696701E-14	4.035438E-16
5.600000E+03	1.699760E-14	4.118326E-16
5.610000E+03	1.702235E-14	4.192547E-16
5.620000E+03	1.704170E-14	4.259219E-16
5.630000E+03	1.705575E-14	4.319334E-16
5.640000E+03	1.706561E-14	4.374094E-16
5.650000E+03	1.707186E-14	4.424500E-16
5.660000E+03	1.707512E-14	4.471507E-16
5.670000E+03	1.707677E-14	4.516188E-16
5.680000E+03	1.707731E-14	4.559300E-16
5.690000E+03	1.707769E-14	4.601632E-16
5.700000E+03	1.707872E-14	4.643852E-16
5.710000E+03	1.708088E-14	4.686447E-16
5.720000E+03	1.708445E-14	4.729782E-16
5.730000E+03	1.708944E-14	4.774118E-16
5.740000E+03	1.709579E-14	4.819698E-16
5.750000E+03	1.710319E-14	4.866734E-16
5.760000E+03	1.711050E-14	4.915280E-16
5.770000E+03	1.711722E-14	4.965665E-16
5.780000E+03	1.712171E-14	5.017987E-16
5.790000E+03	1.712281E-14	5.072573E-16
5.800000E+03	1.711861E-14	5.129598E-16
5.810000E+03	1.710740E-14	5.189313E-16
5.820000E+03	1.708716E-14	5.251832E-16
5.830000E+03	1.705598E-14	5.317187E-16
5.840000E+03	1.701157E-14	5.385097E-16
5.850000E+03	1.695187E-14	5.455085E-16
5.860000E+03	1.687519E-14	5.526447E-16
5.870000E+03	1.678005E-14	5.598187E-16
5.880000E+03	1.666471E-14	5.668833E-16
5.890000E+03	1.652859E-14	5.736917E-16
5.900000E+03	1.637095E-14	5.800619E-16
5.910000E+03	1.619191E-14	5.858186E-16
5.920000E+03	1.599186E-14	5.907863E-16
5.930000E+03	1.577150E-14	5.948003E-16
5.940000E+03	1.553230E-14	5.977358E-16
5.950000E+03	1.527597E-14	5.994940E-16
5.960000E+03	1.500438E-14	6.000059E-16
5.970000E+03	1.472023E-14	5.992593E-16
5.980000E+03	1.442574E-14	5.972504E-16
5.990000E+03	1.412381E-14	5.940277E-16
6.000000E+03	1.381725E-14	5.896606E-16
6.010000E+03	1.350871E-14	5.842343E-16
6.020000E+03	1.320113E-14	5.778640E-16
6.030000E+03	1.289684E-14	5.706555E-16
6.040000E+03	1.259865E-14	5.627468E-16
6.050000E+03	1.230853E-14	5.542489E-16
6.060000E+03	1.202865E-14	5.452884E-16
6.070000E+03	1.176065E-14	5.359697E-16
6.080000E+03	1.150599E-14	5.263918E-16
6.090000E+03	1.126573E-14	5.166332E-16
6.100000E+03	1.104065E-14	5.067563E-16
6.110000E+03	1.083151E-14	4.968182E-16
6.120000E+03	1.063826E-14	4.868341E-16
6.130000E+03	1.046114E-14	4.768255E-16
6.140000E+03	1.029976E-14	4.667789E-16
6.150000E+03	1.015378E-14	4.566758E-16
6.160000E+03	1.002216E-14	4.464604E-16
6.170000E+03	9.904301E-15	4.360913E-16
6.180000E+03	9.798978E-15	4.254932E-16
6.190000E+03	9.705068E-15	4.145922E-16
6.200000E+03	9.621218E-15	4.033019E-16
6.210000E+03	9.546470E-15	3.915509E-16
6.220000E+03	9.479917E-15	3.792688E-16
6.230000E+03	9.420607E-15	3.663835E-16
6.240000E+03	9.367572E-15	3.528235E-16
6.250000E+03	9.319487E-15	3.385076E-16
6.260000E+03	9.275658E-15	3.233840E-16
6.270000E+03	9.234720E-15	3.073840E-16
6.280000E+03	9.195855E-15	2.904692E-16
6.290000E+03	9.158217E-15	2.726128E-16
6.300000E+03	9.120694E-15	2.537979E-16
6.310000E+03	9.082662E-15	2.340450E-16
6.320000E+03	9.043507E-15	2.134046E-16
6.330000E+03	9.002766E-15	1.919738E-16
6.340000E+03	8.959890E-15	1.699127E-16
6.350000E+03	8.914754E-15	1.474978E-16
6.360000E+03	8.867296E-15	1.251982E-16
6.370000E+03	8.817660E-15	1.038576E-16
6.380000E+03	8.766062E-15	8.506416E-17
6.390000E+03	8.712896E-15	7.170804E-17
6.400000E+03	8.658613E-15	6.766534E-17
6.410000E+03	8.603467E-15	7.439277E-17
6.420000E+03	8.546917E-15	8.879443E-17
6.430000E+03	8.488053E-15	1.069956E-16
6.440000E+03	8.426803E-15	1.265813E-16
6.450000E+03	8.362874E-15	1.462904E-16
6.460000E+03	8.296234E-15	1.654691E-16
6.470000E+03	8.227088E-15	1.837687E-16
6.480000E+03	8.155356E-15	2.009917E-16
6.490000E+03	8.081387E-15	2.170380E-16
6.500000E+03	8.005327E-15	2.318564E-16
6.510000E+03	7.927465E-15	2.454345E-16
6.520000E+03	7.847745E-15	2.577722E-16
6.530000E+03	7.766722E-15	2.689054E-16
6.540000E+03	7.684351E-15	2.788628E-16
6.550000E+03	7.600947E-15	2.876937E-16
6.560000E+03	7.516705E-15	2.954499E-16
6.570000E+03	7.431700E-15	3.021833E-16
6.580000E+03	7.346245E-15	3.079578E-16
6.590000E+03	7.260532E-15	3.128355E-16
6.600000E+03	7.174639E-15	3.168739E-16
6.610000E+03	7.088762E-15	3.201361E-16
6.620000E+03	7.003100E-15	3.226850E-16
6.630000E+03	6.917966E-15	3.245880E-16
6.640000E+03	6.833328E-15	3.258952E-16
6.650000E+03	6.749501E-15	3.266710E-16
6.660000E+03	6.666679E-15	3.269725E-16
6.670000E+03	6.584944E-15	3.268490E-16
6.680000E+03	6.504591E-15	3.263582E-16
6.690000E+03	6.425690E-15	3.255438E-16
6.700000E+03	6.348519E-15	3.244579E-16
6.710000E+03	6.273017E-15	3.231325E-16
6.720000E+03	6.199436E-15	3.216134E-16
6.730000E+03	6.128012E-15	3.199428E-16
6.740000E+03	6.058642E-15	3.181433E-16
6.750000E+03	5.991527E-15	3.162509E-16
6.760000E+03	5.926635E-15	3.142871E-16
6.770000E+03	5.864128E-15	3.122814E-16
6.780000E+03	5.803939E-15	3.102496E-16
6.790000E+03	5.746084E-15	3.082097E-16
6.800000E+03	5.690666E-15	3.061828E-16
6.810000E+03	5.637461E-15	3.041706E-16
6.820000E+03	5.586637E-15	3.021948E-16
6.830000E+03	5.537938E-15	3.002528E-16
6.840000E+03	5.491500E-15	2.983616E-16
6.850000E+03	5.447045E-15	2.965150E-16
6.860000E+03	5.404482E-15	2.947159E-16
6.870000E+03	5.363814E-15	2.929712E-16
6.880000E+03	5.324934E-15	2.912810E-16
6.890000E+03	5.287534E-15	2.896339E-16
6.900000E+03	5.251695E-15	2.880391E-16
6.910000E+03	5.217204E-15	2.864887E-16
6.920000E+03	5.184042E-15	2.849852E-16
6.930000E+03	5.151897E-15	2.835148E-16
6.940000E+03	5.120755E-15	2.820792E-16
6.950000E+03	5.090508E-15	2.806747E-16
6.960000E+03	5.060956E-15	2.792923E-16
6.970000E+03	5.032098E-15	2.779337E-16
6.980000E+03	5.003844E-15	2.765953E-16
6.990000E+03	4.976013E-15	2.752682E-16
7.000000E+03	4.948529E-15	2.739495E-16
7.010000E+03	4.921325E-15	2.726360E-16
7.020000E+03	4.894435E-15	2.713304E-16
7.030000E+03	4.867616E-15	2.700197E-16
7.040000E+03	4.841012E-15	2.687123E-16
7.050000E+03	4.814394E-15	2.673959E-16
7.060000E+03	4.787827E-15	2.660740E-16
7.070000E+03	4.761190E-15	2.647403E-16
7.080000E+03	4.734560E-15	2.633988E-16
7.090000E+03	4.707923E-15	2.620488E-16
7.100000E+03	4.681177E-15	2.606844E-16
7.110000E+03	4.654226E-15	2.593000E-16
7.120000E+03	4.627260E-15	2.579061E-16
7.130000E+03	4.600192E-15	2.564975E-16
7.140000E+03	4.573032E-15	2.550744E-16
7.150000E+03	4.545795E-15	2.536374E-16
7.160000E+03	4.518407E-15	2.521819E-16
7.170000E+03	4.490983E-15	2.507142E-16
7.180000E+03	4.463457E-15	2.492303E-16
7.190000E+03	4.435860E-15	2.477315E-16
7.200000E+03	4.408316E-15	2.462247E-16
7.210000E+03	4.380772E-15	2.447066E-16
7.220000E+03	4.353359E-15	2.431847E-16
7.230000E+03	4.325938E-15	2.416510E-16
7.240000E+03	4.298651E-15	2.401137E-16
7.250000E+03	4.271549E-15	2.385756E-16
7.260000E+03	4.244688E-15	2.370402E-16
7.270000E+03	4.218126E-15	2.355112E-16
7.280000E+03	4.191927E-15	2.339925E-16
7.290000E+03	4.166065E-15	2.324832E-16
7.300000E+03	4.140699E-15	2.309927E-16
7.310000E+03	4.115899E-15	2.295257E-16
7.320000E+03	4.091737E-15	2.280867E-16
7.330000E+03	4.068196E-15	2.266756E-16
7.340000E+03	4.045438E-15	2.253020E-16
7.350000E+03	4.023621E-15	2.239755E-16
7.360000E+03	4.002639E-15	2.226906E-16
7.370000E+03	3.982645E-15	2.214564E-16
7.380000E+03	3.963700E-15	2.202766E-16
7.390000E+03	3.945948E-15	2.191592E-16
7.400000E+03	3.929348E-15	2.181020E-16
7.410000E+03	3.914028E-15	2.171117E-16
7.420000E+03	3.900105E-15	2.161943E-16
7.430000E+03	3.887510E-15	2.153451E-16
7.440000E+03	3.876425E-15	2.145730E-16
7.450000E+03	3.866668E-15	2.138664E-16
7.460000E+03	3.858307E-15	2.132273E-16
7.470000E+03	3.851218E-15	2.126464E-16
7.480000E+03	3.845440E-15	2.121233E-16
7.490000E+03	3.840730E-15	2.116416E-16
7.500000E+03	3.837093E-15	2.111982E-16
7.510000E+03	3.834433E-15	2.107838E-16
7.520000E+03	3.832548E-15	2.103832E-16
7.530000E+03	3.831488E-15	2.099945E-16
7.540000E+03	3.830936E-15	2.095951E-16
7.550000E+03	3.830829E-15	2.091760E-16
7.560000E+03	3.830912E-15	2.087176E-16
7.570000E+03	3.831104E-15	2.082090E-16
7.580000E+03	3.831138E-15	2.076291E-16
7.590000E+03	3.830920E-15	2.069657E-16
7.600000E+03	3.830175E-15	2.061966E-16
7.610000E+03	3.828719E-15	2.053040E-16
7.620000E+03	3.826463E-15	2.042751E-16
7.630000E+03	3.823141E-15	2.030872E-16
7.640000E+03	3.818587E-15	2.017228E-16
7.650000E+03	3.812739E-15	2.001698E-16
7.660000E+03	3.805363E-15	1.984068E-16
7.670000E+03	3.796427E-15	1.964227E-16
7.680000E+03	3.785636E-15	1.941931E-16
7.690000E+03	3.773089E-15	1.917137E-16
7.700000E+03	3.758716E-15	1.889716E-16
7.710000E+03	3.742377E-15	1.859508E-16
7.720000E+03	3.724139E-15	1.826457E-16
7.730000E+03	3.703902E-15	1.790432E-16
7.740000E+03	3.681682E-15	1.751362E-16
7.750000E+03	3.657607E-15	1.709239E-16
7.760000E+03	3.631729E-15	1.664023E-16
