#wls	flux	fluxerr
1.600000E+03	1.129101E-14	2.624023E-15
1.640000E+03	8.980369E-15	1.893408E-15
1.680000E+03	7.051878E-15	1.336948E-15
1.720000E+03	5.470415E-15	9.230111E-16
1.760000E+03	4.197124E-15	6.226561E-16
1.800000E+03	3.189144E-15	4.100411E-16
1.840000E+03	2.404429E-15	2.633524E-16
1.880000E+03	1.803039E-15	1.647904E-16
1.920000E+03	1.348580E-15	1.003824E-16
1.960000E+03	1.009934E-15	5.963510E-17
2.000000E+03	7.601893E-16	3.489074E-17
2.040000E+03	5.783091E-16	2.083903E-17
2.080000E+03	4.475582E-16	1.369706E-17
2.120000E+03	3.555909E-16	1.045407E-17
2.160000E+03	2.935400E-16	8.887566E-18
2.200000E+03	2.550446E-16	8.037048E-18
2.240000E+03	2.358687E-16	7.776708E-18
2.280000E+03	2.337969E-16	8.246964E-18
2.320000E+03	2.484484E-16	9.528103E-18
2.360000E+03	2.811870E-16	1.161223E-17
2.400000E+03	3.353434E-16	1.447192E-17
2.440000E+03	4.157146E-16	1.799561E-17
2.480000E+03	5.279064E-16	2.190686E-17
2.520000E+03	6.765179E-16	2.579421E-17
2.560000E+03	8.625666E-16	2.956764E-17
2.600000E+03	1.080856E-15	3.455886E-17
2.640000E+03	1.318979E-15	4.394001E-17
2.680000E+03	1.560560E-15	5.986809E-17
2.720000E+03	1.789030E-15	8.110416E-17
2.760000E+03	1.991323E-15	1.045729E-16
2.800000E+03	2.158776E-15	1.270710E-16
2.840000E+03	2.287057E-15	1.459770E-16
2.880000E+03	2.375991E-15	1.595257E-16
2.920000E+03	2.428305E-15	1.668158E-16
2.960000E+03	2.448951E-15	1.677304E-16
3.000000E+03	2.444376E-15	1.627864E-16
3.010000E+03	2.440236E-15	1.607489E-16
3.020000E+03	2.435019E-15	1.584191E-16
3.030000E+03	2.428910E-15	1.558215E-16
3.040000E+03	2.422168E-15	1.529859E-16
3.050000E+03	2.414819E-15	1.499280E-16
3.060000E+03	2.406970E-15	1.466698E-16
3.070000E+03	2.398879E-15	1.432429E-16
3.080000E+03	2.390508E-15	1.396618E-16
3.090000E+03	2.382185E-15	1.359636E-16
3.100000E+03	2.373948E-15	1.321686E-16
3.110000E+03	2.365914E-15	1.283026E-16
3.120000E+03	2.358332E-15	1.243991E-16
3.130000E+03	2.351251E-15	1.204813E-16
3.140000E+03	2.344920E-15	1.165830E-16
3.150000E+03	2.339399E-15	1.127284E-16
3.160000E+03	2.334818E-15	1.089452E-16
3.170000E+03	2.331501E-15	1.052690E-16
3.180000E+03	2.329477E-15	1.017191E-16
3.190000E+03	2.329035E-15	9.832413E-17
3.200000E+03	2.330364E-15	9.510365E-17
3.210000E+03	2.333677E-15	9.207392E-17
3.220000E+03	2.339269E-15	8.924939E-17
3.230000E+03	2.347399E-15	8.663806E-17
3.240000E+03	2.358456E-15	8.424775E-17
3.250000E+03	2.372630E-15	8.207426E-17
3.260000E+03	2.390342E-15	8.011740E-17
3.270000E+03	2.411914E-15	7.836950E-17
3.280000E+03	2.437727E-15	7.682147E-17
3.290000E+03	2.468058E-15	7.545824E-17
3.300000E+03	2.503292E-15	7.426619E-17
3.310000E+03	2.543754E-15	7.322889E-17
3.320000E+03	2.589821E-15	7.233109E-17
3.330000E+03	2.641816E-15	7.155664E-17
3.340000E+03	2.700005E-15	7.088951E-17
3.350000E+03	2.764755E-15	7.031869E-17
3.360000E+03	2.836330E-15	6.983346E-17
3.370000E+03	2.915090E-15	6.942945E-17
3.380000E+03	3.001292E-15	6.910429E-17
3.390000E+03	3.095238E-15	6.886245E-17
3.400000E+03	3.197176E-15	6.871375E-17
3.410000E+03	3.307396E-15	6.867650E-17
3.420000E+03	3.426127E-15	6.877545E-17
3.430000E+03	3.553636E-15	6.904356E-17
3.440000E+03	3.689984E-15	6.951573E-17
3.450000E+03	3.835397E-15	7.023317E-17
3.460000E+03	3.989829E-15	7.123025E-17
3.470000E+03	4.153073E-15	7.253263E-17
3.480000E+03	4.324865E-15	7.415549E-17
3.490000E+03	4.504542E-15	7.609486E-17
3.500000E+03	4.691227E-15	7.833270E-17
3.510000E+03	4.883855E-15	8.084112E-17
3.520000E+03	5.080754E-15	8.357897E-17
3.530000E+03	5.280170E-15	8.650379E-17
3.540000E+03	5.479757E-15	8.956633E-17
3.550000E+03	5.677204E-15	9.272253E-17
3.560000E+03	5.869752E-15	9.592561E-17
3.570000E+03	6.054819E-15	9.913609E-17
3.580000E+03	6.229835E-15	1.023173E-16
3.590000E+03	6.392524E-15	1.054364E-16
3.600000E+03	6.540854E-15	1.084600E-16
3.610000E+03	6.673120E-15	1.113519E-16
3.620000E+03	6.788322E-15	1.140758E-16
3.630000E+03	6.885654E-15	1.165876E-16
3.640000E+03	6.965075E-15	1.188469E-16
3.650000E+03	7.026932E-15	1.208139E-16
3.660000E+03	7.072360E-15	1.224617E-16
3.670000E+03	7.102817E-15	1.237732E-16
3.680000E+03	7.120490E-15	1.247506E-16
3.690000E+03	7.128204E-15	1.254153E-16
3.700000E+03	7.129184E-15	1.258035E-16
3.710000E+03	7.127392E-15	1.259715E-16
3.720000E+03	7.127009E-15	1.259856E-16
3.730000E+03	7.132779E-15	1.259291E-16
3.740000E+03	7.149618E-15	1.258944E-16
3.750000E+03	7.182508E-15	1.259807E-16
3.760000E+03	7.236594E-15	1.262952E-16
3.770000E+03	7.316847E-15	1.269440E-16
3.780000E+03	7.428065E-15	1.280309E-16
3.790000E+03	7.574513E-15	1.296468E-16
3.800000E+03	7.759798E-15	1.318627E-16
3.810000E+03	7.986347E-15	1.347179E-16
3.820000E+03	8.255491E-15	1.382182E-16
3.830000E+03	8.566384E-15	1.423162E-16
3.840000E+03	8.916562E-15	1.469261E-16
3.850000E+03	9.301103E-15	1.519176E-16
3.860000E+03	9.713129E-15	1.571330E-16
3.870000E+03	1.014334E-14	1.623883E-16
3.880000E+03	1.058078E-14	1.674908E-16
3.890000E+03	1.101277E-14	1.722381E-16
3.900000E+03	1.142572E-14	1.764303E-16
3.910000E+03	1.180622E-14	1.798814E-16
3.920000E+03	1.214150E-14	1.824220E-16
3.930000E+03	1.242061E-14	1.839171E-16
3.940000E+03	1.263525E-14	1.842836E-16
3.950000E+03	1.278031E-14	1.834994E-16
3.960000E+03	1.285411E-14	1.816103E-16
3.970000E+03	1.285857E-14	1.787295E-16
3.980000E+03	1.279904E-14	1.750249E-16
3.990000E+03	1.268409E-14	1.707049E-16
4.000000E+03	1.252435E-14	1.659892E-16
4.010000E+03	1.233198E-14	1.610886E-16
4.020000E+03	1.211976E-14	1.561920E-16
4.030000E+03	1.190027E-14	1.514573E-16
4.040000E+03	1.168535E-14	1.470077E-16
4.050000E+03	1.148504E-14	1.429282E-16
4.060000E+03	1.130816E-14	1.392805E-16
4.070000E+03	1.116105E-14	1.360929E-16
4.080000E+03	1.104879E-14	1.333853E-16
4.090000E+03	1.097427E-14	1.311647E-16
4.100000E+03	1.093874E-14	1.294317E-16
4.110000E+03	1.094177E-14	1.281808E-16
4.120000E+03	1.098131E-14	1.273966E-16
4.130000E+03	1.105385E-14	1.270476E-16
4.140000E+03	1.115434E-14	1.270855E-16
4.150000E+03	1.127640E-14	1.274441E-16
4.160000E+03	1.141275E-14	1.280391E-16
4.170000E+03	1.155545E-14	1.287741E-16
4.180000E+03	1.169606E-14	1.295409E-16
4.190000E+03	1.182603E-14	1.302223E-16
4.200000E+03	1.193694E-14	1.306996E-16
4.210000E+03	1.202098E-14	1.308600E-16
4.220000E+03	1.207125E-14	1.305988E-16
4.230000E+03	1.208178E-14	1.298246E-16
4.240000E+03	1.204765E-14	1.284632E-16
4.250000E+03	1.196589E-14	1.264668E-16
4.260000E+03	1.183452E-14	1.238122E-16
4.270000E+03	1.165378E-14	1.205182E-16
4.280000E+03	1.142581E-14	1.166410E-16
4.290000E+03	1.115448E-14	1.122764E-16
4.300000E+03	1.084599E-14	1.075596E-16
4.310000E+03	1.050827E-14	1.026463E-16
4.320000E+03	1.015106E-14	9.770572E-17
4.330000E+03	9.785420E-15	9.290279E-17
4.340000E+03	9.423108E-15	8.837899E-17
4.350000E+03	9.076225E-15	8.424946E-17
4.360000E+03	8.756620E-15	8.059457E-17
4.370000E+03	8.475655E-15	7.744805E-17
4.380000E+03	8.243805E-15	7.479439E-17
4.390000E+03	8.070033E-15	7.258694E-17
4.400000E+03	7.961492E-15	7.075704E-17
4.410000E+03	7.923391E-15	6.923003E-17
4.420000E+03	7.959487E-15	6.794681E-17
4.430000E+03	8.071708E-15	6.688163E-17
4.440000E+03	8.260308E-15	6.608526E-17
4.450000E+03	8.523821E-15	6.573890E-17
4.460000E+03	8.858305E-15	6.619412E-17
4.470000E+03	9.257506E-15	6.796688E-17
4.480000E+03	9.713349E-15	7.154659E-17
4.490000E+03	1.022158E-14	7.692361E-17
4.500000E+03	1.077952E-14	8.370081E-17
4.510000E+03	1.138238E-14	9.138761E-17
4.520000E+03	1.202295E-14	9.952384E-17
4.530000E+03	1.269037E-14	1.077274E-16
4.540000E+03	1.337037E-14	1.157017E-16
4.550000E+03	1.404505E-14	1.232168E-16
4.560000E+03	1.469324E-14	1.301031E-16
4.570000E+03	1.529131E-14	1.362401E-16
4.580000E+03	1.581480E-14	1.415443E-16
4.590000E+03	1.623988E-14	1.459733E-16
4.600000E+03	1.654572E-14	1.495256E-16
4.610000E+03	1.671652E-14	1.522219E-16
4.620000E+03	1.674269E-14	1.540895E-16
4.630000E+03	1.662225E-14	1.551441E-16
4.640000E+03	1.636120E-14	1.553763E-16
4.650000E+03	1.597229E-14	1.547708E-16
4.660000E+03	1.547407E-14	1.533377E-16
4.670000E+03	1.488838E-14	1.511135E-16
4.680000E+03	1.423930E-14	1.481788E-16
4.690000E+03	1.355076E-14	1.446422E-16
4.700000E+03	1.284542E-14	1.406187E-16
4.710000E+03	1.214328E-14	1.362105E-16
4.720000E+03	1.146173E-14	1.315003E-16
4.730000E+03	1.081431E-14	1.265394E-16
4.740000E+03	1.021131E-14	1.213755E-16
4.750000E+03	9.659863E-15	1.160689E-16
4.760000E+03	9.164717E-15	1.107020E-16
4.770000E+03	8.727938E-15	1.053689E-16
4.780000E+03	8.350334E-15	1.001799E-16
4.790000E+03	8.031274E-15	9.524279E-17
4.800000E+03	7.769271E-15	9.065391E-17
4.810000E+03	7.562049E-15	8.648416E-17
4.820000E+03	7.406837E-15	8.277682E-17
4.830000E+03	7.300400E-15	7.955735E-17
4.840000E+03	7.238975E-15	7.684327E-17
4.850000E+03	7.218327E-15	7.464994E-17
4.860000E+03	7.233404E-15	7.298836E-17
4.870000E+03	7.277851E-15	7.185206E-17
4.880000E+03	7.344207E-15	7.120659E-17
4.890000E+03	7.423838E-15	7.098209E-17
4.900000E+03	7.507206E-15	7.106761E-17
4.910000E+03	7.584657E-15	7.131515E-17
4.920000E+03	7.647249E-15	7.156324E-17
4.930000E+03	7.687341E-15	7.166114E-17
4.940000E+03	7.699650E-15	7.149239E-17
4.950000E+03	7.682022E-15	7.099748E-17
4.960000E+03	7.634975E-15	7.017410E-17
4.970000E+03	7.562178E-15	6.907215E-17
4.980000E+03	7.469666E-15	6.777455E-17
4.990000E+03	7.365173E-15	6.637373E-17
5.000000E+03	7.257420E-15	6.495338E-17
5.010000E+03	7.155156E-15	6.358698E-17
5.020000E+03	7.066754E-15	6.234354E-17
5.030000E+03	6.999516E-15	6.128463E-17
5.040000E+03	6.959824E-15	6.046926E-17
5.050000E+03	6.952971E-15	5.994770E-17
5.060000E+03	6.983278E-15	5.975481E-17
5.070000E+03	7.054527E-15	5.991552E-17
5.080000E+03	7.170051E-15	6.044485E-17
5.090000E+03	7.332641E-15	6.134496E-17
5.100000E+03	7.545004E-15	6.261708E-17
5.110000E+03	7.809400E-15	6.426312E-17
5.120000E+03	8.127414E-15	6.628293E-17
5.130000E+03	8.499930E-15	6.868070E-17
5.140000E+03	8.926162E-15	7.145669E-17
5.150000E+03	9.403691E-15	7.460047E-17
5.160000E+03	9.927581E-15	7.808620E-17
5.170000E+03	1.049039E-14	8.186759E-17
5.180000E+03	1.108160E-14	8.586187E-17
5.190000E+03	1.168809E-14	8.995904E-17
5.200000E+03	1.229417E-14	9.402354E-17
5.210000E+03	1.288263E-14	9.789664E-17
5.220000E+03	1.343599E-14	1.014224E-16
5.230000E+03	1.393702E-14	1.044595E-16
5.240000E+03	1.437024E-14	1.068898E-16
5.250000E+03	1.472319E-14	1.086417E-16
5.260000E+03	1.498655E-14	1.096894E-16
5.270000E+03	1.515510E-14	1.100408E-16
5.280000E+03	1.522691E-14	1.097319E-16
5.290000E+03	1.520385E-14	1.088127E-16
5.300000E+03	1.509042E-14	1.073117E-16
5.310000E+03	1.489339E-14	1.052396E-16
5.320000E+03	1.462094E-14	1.025805E-16
5.330000E+03	1.428327E-14	9.928582E-17
5.340000E+03	1.389149E-14	9.529736E-17
5.350000E+03	1.345817E-14	9.057503E-17
5.360000E+03	1.299774E-14	8.511950E-17
5.370000E+03	1.252575E-14	7.902557E-17
5.380000E+03	1.205971E-14	7.254468E-17
5.390000E+03	1.161753E-14	6.613870E-17
5.400000E+03	1.121722E-14	6.056961E-17
5.410000E+03	1.087536E-14	5.688228E-17
5.420000E+03	1.060400E-14	5.602797E-17
5.430000E+03	1.040020E-14	5.771883E-17
5.440000E+03	1.024895E-14	6.072233E-17
5.450000E+03	1.013405E-14	6.399519E-17
5.460000E+03	1.004055E-14	6.691068E-17
5.470000E+03	9.955125E-15	6.918608E-17
5.480000E+03	9.866679E-15	7.076055E-17
5.490000E+03	9.766573E-15	7.170002E-17
5.500000E+03	9.648446E-15	7.211118E-17
5.510000E+03	9.508517E-15	7.208378E-17
5.520000E+03	9.344707E-15	7.167755E-17
5.530000E+03	9.156968E-15	7.093463E-17
5.540000E+03	8.946858E-15	6.988316E-17
5.550000E+03	8.716825E-15	6.854835E-17
5.560000E+03	8.470575E-15	6.696312E-17
5.570000E+03	8.211788E-15	6.515779E-17
5.580000E+03	7.944737E-15	6.317388E-17
5.590000E+03	7.673655E-15	6.105994E-17
5.600000E+03	7.402679E-15	5.886650E-17
5.610000E+03	7.135755E-15	5.665079E-17
5.620000E+03	6.876662E-15	5.447495E-17
5.630000E+03	6.628711E-15	5.239518E-17
5.640000E+03	6.395173E-15	5.046481E-17
5.650000E+03	6.179015E-15	4.872599E-17
5.660000E+03	5.982924E-15	4.720336E-17
5.670000E+03	5.809573E-15	4.591360E-17
5.680000E+03	5.661247E-15	4.486659E-17
5.690000E+03	5.540115E-15	4.406623E-17
5.700000E+03	5.448165E-15	4.351615E-17
5.710000E+03	5.387194E-15	4.322075E-17
5.720000E+03	5.358815E-15	4.318123E-17
5.730000E+03	5.364441E-15	4.339864E-17
5.740000E+03	5.405254E-15	4.387477E-17
5.750000E+03	5.482211E-15	4.461060E-17
5.760000E+03	5.595801E-15	4.560998E-17
5.770000E+03	5.746096E-15	4.688321E-17
5.780000E+03	5.932592E-15	4.844554E-17
5.790000E+03	6.153855E-15	5.031915E-17
5.800000E+03	6.407648E-15	5.253282E-17
5.810000E+03	6.690289E-15	5.510810E-17
5.820000E+03	6.996971E-15	5.805831E-17
5.830000E+03	7.321828E-15	6.137863E-17
5.840000E+03	7.657652E-15	6.502681E-17
5.850000E+03	7.996460E-15	6.892153E-17
5.860000E+03	8.329416E-15	7.293675E-17
5.870000E+03	8.647386E-15	7.690351E-17
5.880000E+03	8.941357E-15	8.063010E-17
5.890000E+03	9.202142E-15	8.392008E-17
5.900000E+03	9.421493E-15	8.659795E-17
5.910000E+03	9.591765E-15	8.852684E-17
5.920000E+03	9.706260E-15	8.962386E-17
5.930000E+03	9.759820E-15	8.986685E-17
5.940000E+03	9.748873E-15	8.929690E-17
5.950000E+03	9.671430E-15	8.800732E-17
5.960000E+03	9.527860E-15	8.612598E-17
5.970000E+03	9.320345E-15	8.378702E-17
5.980000E+03	9.053403E-15	8.110848E-17
5.990000E+03	8.733902E-15	7.817589E-17
6.000000E+03	8.370380E-15	7.504928E-17
6.010000E+03	7.972928E-15	7.178059E-17
6.020000E+03	7.552833E-15	6.842426E-17
6.030000E+03	7.121883E-15	6.504757E-17
6.040000E+03	6.691729E-15	6.172929E-17
6.050000E+03	6.273451E-15	5.855057E-17
6.060000E+03	5.877188E-15	5.559027E-17
6.070000E+03	5.511433E-15	5.291378E-17
6.080000E+03	5.183076E-15	5.056941E-17
6.090000E+03	4.897117E-15	4.858990E-17
6.100000E+03	4.656838E-15	4.699367E-17
6.110000E+03	4.463655E-15	4.577870E-17
6.120000E+03	4.317662E-15	4.492825E-17
6.130000E+03	4.217900E-15	4.441295E-17
6.140000E+03	4.162299E-15	4.418817E-17
6.150000E+03	4.148096E-15	4.420189E-17
6.160000E+03	4.172213E-15	4.440416E-17
6.170000E+03	4.231245E-15	4.475051E-17
6.180000E+03	4.321268E-15	4.520174E-17
6.190000E+03	4.438137E-15	4.572544E-17
6.200000E+03	4.576749E-15	4.628667E-17
6.210000E+03	4.731525E-15	4.685640E-17
6.220000E+03	4.896344E-15	4.741247E-17
6.230000E+03	5.064583E-15	4.793791E-17
6.240000E+03	5.229533E-15	4.842337E-17
6.250000E+03	5.384655E-15	4.886112E-17
6.260000E+03	5.523795E-15	4.923518E-17
6.270000E+03	5.641790E-15	4.952248E-17
6.280000E+03	5.734607E-15	4.968923E-17
6.290000E+03	5.799586E-15	4.968738E-17
6.300000E+03	5.835319E-15	4.945738E-17
6.310000E+03	5.842339E-15	4.893771E-17
6.320000E+03	5.822362E-15	4.806291E-17
6.330000E+03	5.778547E-15	4.678266E-17
6.340000E+03	5.715377E-15	4.507910E-17
6.350000E+03	5.638018E-15	4.297875E-17
6.360000E+03	5.552475E-15	4.057918E-17
6.370000E+03	5.465068E-15	3.807245E-17
6.380000E+03	5.382374E-15	3.576891E-17
6.390000E+03	5.310524E-15	3.409796E-17
6.400000E+03	5.255004E-15	3.352954E-17
6.410000E+03	5.218412E-15	3.424791E-17
6.420000E+03	5.198917E-15	3.590813E-17
6.430000E+03	5.193324E-15	3.806426E-17
6.440000E+03	5.198328E-15	4.036977E-17
6.450000E+03	5.210644E-15	4.260506E-17
6.460000E+03	5.227473E-15	4.465270E-17
6.470000E+03	5.246326E-15	4.645908E-17
6.480000E+03	5.265094E-15	4.800965E-17
6.490000E+03	5.282064E-15	4.931190E-17
6.500000E+03	5.295529E-15	5.037984E-17
6.510000E+03	5.304283E-15	5.123504E-17
6.520000E+03	5.306927E-15	5.189797E-17
6.530000E+03	5.302464E-15	5.239064E-17
6.540000E+03	5.289733E-15	5.273096E-17
6.550000E+03	5.267648E-15	5.293321E-17
6.560000E+03	5.235393E-15	5.300666E-17
6.570000E+03	5.192222E-15	5.295462E-17
6.580000E+03	5.137518E-15	5.277533E-17
6.590000E+03	5.071091E-15	5.246488E-17
6.600000E+03	4.992831E-15	5.201768E-17
6.610000E+03	4.903297E-15	5.143535E-17
6.620000E+03	4.803106E-15	5.072067E-17
6.630000E+03	4.693534E-15	4.988581E-17
6.640000E+03	4.575860E-15	4.894526E-17
6.650000E+03	4.451837E-15	4.791858E-17
6.660000E+03	4.323231E-15	4.682601E-17
6.670000E+03	4.192019E-15	4.568989E-17
6.680000E+03	4.060024E-15	4.452944E-17
6.690000E+03	3.929044E-15	4.336329E-17
6.700000E+03	3.800780E-15	4.220902E-17
6.710000E+03	3.676606E-15	4.107994E-17
6.720000E+03	3.557737E-15	3.998821E-17
6.730000E+03	3.445210E-15	3.894497E-17
6.740000E+03	3.339721E-15	3.795808E-17
6.750000E+03	3.241810E-15	3.703531E-17
6.760000E+03	3.151826E-15	3.618393E-17
6.770000E+03	3.069948E-15	3.540985E-17
6.780000E+03	2.996250E-15	3.471830E-17
6.790000E+03	2.930570E-15	3.411136E-17
6.800000E+03	2.872722E-15	3.358890E-17
6.810000E+03	2.822266E-15	3.314584E-17
6.820000E+03	2.778855E-15	3.277612E-17
6.830000E+03	2.741956E-15	3.246930E-17
6.840000E+03	2.710870E-15	3.221241E-17
6.850000E+03	2.685067E-15	3.199528E-17
6.860000E+03	2.663698E-15	3.180549E-17
6.870000E+03	2.646160E-15	3.163673E-17
6.880000E+03	2.631572E-15	3.148289E-17
6.890000E+03	2.619343E-15	3.134383E-17
6.900000E+03	2.608690E-15	3.121882E-17
6.910000E+03	2.598983E-15	3.110872E-17
6.920000E+03	2.589717E-15	3.101384E-17
6.930000E+03	2.580433E-15	3.093285E-17
6.940000E+03	2.570775E-15	3.086353E-17
6.950000E+03	2.560492E-15	3.080272E-17
6.960000E+03	2.549387E-15	3.074657E-17
6.970000E+03	2.537497E-15	3.069295E-17
6.980000E+03	2.524754E-15	3.063720E-17
6.990000E+03	2.511296E-15	3.057653E-17
7.000000E+03	2.497263E-15	3.050797E-17
7.010000E+03	2.482871E-15	3.042931E-17
7.020000E+03	2.468215E-15	3.033765E-17
7.030000E+03	2.453568E-15	3.023381E-17
7.040000E+03	2.439050E-15	3.011820E-17
7.050000E+03	2.424794E-15	2.999361E-17
7.060000E+03	2.410901E-15	2.986441E-17
7.070000E+03	2.397471E-15	2.973597E-17
7.080000E+03	2.384475E-15	2.961247E-17
7.090000E+03	2.371942E-15	2.949806E-17
7.100000E+03	2.359783E-15	2.939350E-17
7.110000E+03	2.347983E-15	2.929861E-17
7.120000E+03	2.336474E-15	2.921088E-17
7.130000E+03	2.325141E-15	2.912571E-17
7.140000E+03	2.313970E-15	2.903932E-17
7.150000E+03	2.302905E-15	2.894777E-17
7.160000E+03	2.291907E-15	2.884766E-17
7.170000E+03	2.280987E-15	2.873730E-17
7.180000E+03	2.270031E-15	2.861444E-17
7.190000E+03	2.259066E-15	2.847929E-17
7.200000E+03	2.248118E-15	2.833300E-17
7.210000E+03	2.237122E-15	2.817635E-17
7.220000E+03	2.226050E-15	2.801092E-17
7.230000E+03	2.214905E-15	2.783902E-17
7.240000E+03	2.203579E-15	2.766152E-17
7.250000E+03	2.192027E-15	2.747922E-17
7.260000E+03	2.180086E-15	2.729062E-17
7.270000E+03	2.167651E-15	2.709403E-17
7.280000E+03	2.154549E-15	2.688567E-17
7.290000E+03	2.140589E-15	2.666121E-17
7.300000E+03	2.125531E-15	2.641621E-17
7.310000E+03	2.109283E-15	2.614880E-17
7.320000E+03	2.091594E-15	2.585667E-17
7.330000E+03	2.072393E-15	2.554127E-17
7.340000E+03	2.051612E-15	2.520514E-17
7.350000E+03	2.029250E-15	2.485226E-17
7.360000E+03	2.005374E-15	2.448717E-17
7.370000E+03	1.980121E-15	2.411382E-17
7.380000E+03	1.953697E-15	2.373540E-17
7.390000E+03	1.926400E-15	2.335462E-17
7.400000E+03	1.898439E-15	2.297142E-17
7.410000E+03	1.870216E-15	2.258758E-17
7.420000E+03	1.842046E-15	2.220425E-17
7.430000E+03	1.814233E-15	2.182305E-17
7.440000E+03	1.787009E-15	2.144606E-17
7.450000E+03	1.760603E-15	2.107657E-17
7.460000E+03	1.735196E-15	2.071787E-17
7.470000E+03	1.710916E-15	2.037338E-17
7.480000E+03	1.687839E-15	2.004642E-17
7.490000E+03	1.665995E-15	1.973975E-17
7.500000E+03	1.645374E-15	1.945583E-17
7.510000E+03	1.625932E-15	1.919659E-17
7.520000E+03	1.607559E-15	1.896249E-17
7.530000E+03	1.590242E-15	1.875435E-17
7.540000E+03	1.573802E-15	1.856991E-17
7.550000E+03	1.558169E-15	1.840629E-17
7.560000E+03	1.543242E-15	1.825847E-17
7.570000E+03	1.528966E-15	1.812029E-17
7.580000E+03	1.515193E-15	1.798268E-17
7.590000E+03	1.501910E-15	1.783742E-17
7.600000E+03	1.489130E-15	1.767705E-17
7.610000E+03	1.476785E-15	1.749459E-17
7.620000E+03	1.464977E-15	1.728776E-17
7.630000E+03	1.453689E-15	1.705629E-17
7.640000E+03	1.443064E-15	1.680529E-17
7.650000E+03	1.433154E-15	1.654205E-17
7.660000E+03	1.424053E-15	1.627615E-17
7.670000E+03	1.415857E-15	1.601709E-17
7.680000E+03	1.408620E-15	1.577284E-17
7.690000E+03	1.402532E-15	1.555065E-17
7.700000E+03	1.397555E-15	1.535210E-17
7.710000E+03	1.393777E-15	1.517795E-17
7.720000E+03	1.391279E-15	1.502747E-17
7.730000E+03	1.390023E-15	1.489793E-17
7.740000E+03	1.390109E-15	1.478835E-17
7.750000E+03	1.391561E-15	1.469742E-17
7.760000E+03	1.394328E-15	1.462316E-17
