#wls	flux	fluxerr
1.600000E+03	4.480637E-15	1.093422E-15
1.640000E+03	3.547585E-15	7.888409E-16
1.680000E+03	2.782932E-15	5.592948E-16
1.720000E+03	2.165576E-15	3.897154E-16
1.760000E+03	1.673080E-15	2.667184E-16
1.800000E+03	1.285763E-15	1.793205E-16
1.840000E+03	9.845139E-16	1.183863E-16
1.880000E+03	7.529783E-16	7.676545E-17
1.920000E+03	5.768514E-16	4.892990E-17
1.960000E+03	4.441495E-16	3.075654E-17
2.000000E+03	3.450867E-16	1.926470E-17
2.040000E+03	2.719029E-16	1.236124E-17
2.080000E+03	2.185513E-16	8.558430E-18
2.120000E+03	1.804715E-16	6.683438E-18
2.160000E+03	1.544229E-16	5.815963E-18
2.200000E+03	1.381444E-16	5.451265E-18
2.240000E+03	1.301950E-16	5.437067E-18
2.280000E+03	1.298813E-16	5.777255E-18
2.320000E+03	1.371086E-16	6.488210E-18
2.360000E+03	1.523823E-16	7.563422E-18
2.400000E+03	1.768517E-16	8.979985E-18
2.440000E+03	2.121900E-16	1.068118E-17
2.480000E+03	2.602269E-16	1.255714E-17
2.520000E+03	3.224485E-16	1.449200E-17
2.560000E+03	3.991128E-16	1.656609E-17
2.600000E+03	4.883424E-16	1.945114E-17
2.640000E+03	5.856825E-16	2.445412E-17
2.680000E+03	6.852810E-16	3.240583E-17
2.720000E+03	7.810022E-16	4.284622E-17
2.760000E+03	8.674865E-16	5.456360E-17
2.800000E+03	9.404650E-16	6.617391E-17
2.840000E+03	9.975288E-16	7.644938E-17
2.880000E+03	1.037725E-15	8.444697E-17
2.920000E+03	1.061794E-15	8.961638E-17
2.960000E+03	1.071956E-15	9.182153E-17
3.000000E+03	1.070985E-15	9.124680E-17
3.010000E+03	1.069454E-15	9.072299E-17
3.020000E+03	1.067463E-15	9.005947E-17
3.030000E+03	1.065123E-15	8.927067E-17
3.040000E+03	1.062485E-15	8.836599E-17
3.050000E+03	1.059596E-15	8.735516E-17
3.060000E+03	1.056446E-15	8.624334E-17
3.070000E+03	1.053204E-15	8.505056E-17
3.080000E+03	1.049915E-15	8.378677E-17
3.090000E+03	1.046511E-15	8.245302E-17
3.100000E+03	1.043155E-15	8.106873E-17
3.110000E+03	1.039892E-15	7.964377E-17
3.120000E+03	1.036767E-15	7.818783E-17
3.130000E+03	1.033827E-15	7.671037E-17
3.140000E+03	1.031118E-15	7.522051E-17
3.150000E+03	1.028686E-15	7.372700E-17
3.160000E+03	1.026631E-15	7.224174E-17
3.170000E+03	1.024998E-15	7.077216E-17
3.180000E+03	1.023785E-15	6.932170E-17
3.190000E+03	1.023140E-15	6.790345E-17
3.200000E+03	1.023061E-15	6.651945E-17
3.210000E+03	1.023600E-15	6.517451E-17
3.220000E+03	1.024853E-15	6.387567E-17
3.230000E+03	1.026918E-15	6.262884E-17
3.240000E+03	1.029750E-15	6.143047E-17
3.250000E+03	1.033491E-15	6.028783E-17
3.260000E+03	1.038146E-15	5.919900E-17
3.270000E+03	1.043852E-15	5.816937E-17
3.280000E+03	1.050609E-15	5.719582E-17
3.290000E+03	1.058461E-15	5.627751E-17
3.300000E+03	1.067494E-15	5.541562E-17
3.310000E+03	1.077745E-15	5.460862E-17
3.320000E+03	1.089292E-15	5.385718E-17
3.330000E+03	1.102120E-15	5.315762E-17
3.340000E+03	1.116342E-15	5.251310E-17
3.350000E+03	1.131934E-15	5.192080E-17
3.360000E+03	1.148953E-15	5.138290E-17
3.370000E+03	1.167364E-15	5.089852E-17
3.380000E+03	1.187300E-15	5.047577E-17
3.390000E+03	1.208667E-15	5.011446E-17
3.400000E+03	1.231498E-15	4.982178E-17
3.410000E+03	1.255819E-15	4.960644E-17
3.420000E+03	1.281605E-15	4.947690E-17
3.430000E+03	1.308822E-15	4.944301E-17
3.440000E+03	1.337477E-15	4.951723E-17
3.450000E+03	1.367522E-15	4.971042E-17
3.460000E+03	1.398945E-15	5.003442E-17
3.470000E+03	1.431590E-15	5.049436E-17
3.480000E+03	1.465524E-15	5.110078E-17
3.490000E+03	1.500629E-15	5.185390E-17
3.500000E+03	1.536825E-15	5.275171E-17
3.510000E+03	1.574075E-15	5.379011E-17
3.520000E+03	1.612235E-15	5.495846E-17
3.530000E+03	1.651249E-15	5.624673E-17
3.540000E+03	1.690955E-15	5.763968E-17
3.550000E+03	1.731233E-15	5.912241E-17
3.560000E+03	1.771863E-15	6.067613E-17
3.570000E+03	1.812771E-15	6.228710E-17
3.580000E+03	1.853795E-15	6.393878E-17
3.590000E+03	1.894733E-15	6.561389E-17
3.600000E+03	1.935502E-15	6.729993E-17
3.610000E+03	1.975997E-15	6.898439E-17
3.620000E+03	2.016194E-15	7.065840E-17
3.630000E+03	2.056005E-15	7.231178E-17
3.640000E+03	2.095488E-15	7.394018E-17
3.650000E+03	2.134701E-15	7.554003E-17
3.660000E+03	2.173804E-15	7.711217E-17
3.670000E+03	2.212913E-15	7.865666E-17
3.680000E+03	2.252407E-15	8.018351E-17
3.690000E+03	2.292472E-15	8.169653E-17
3.700000E+03	2.333503E-15	8.320754E-17
3.710000E+03	2.376001E-15	8.473261E-17
3.720000E+03	2.420359E-15	8.628443E-17
3.730000E+03	2.467110E-15	8.788092E-17
3.740000E+03	2.516861E-15	8.954286E-17
3.750000E+03	2.570071E-15	9.128584E-17
3.760000E+03	2.627287E-15	9.312853E-17
3.770000E+03	2.689018E-15	9.508812E-17
3.780000E+03	2.755706E-15	9.717920E-17
3.790000E+03	2.827646E-15	9.941086E-17
3.800000E+03	2.905059E-15	1.017892E-16
3.810000E+03	2.987956E-15	1.043127E-16
3.820000E+03	3.076273E-15	1.069767E-16
3.830000E+03	3.169627E-15	1.097658E-16
3.840000E+03	3.267471E-15	1.126584E-16
3.850000E+03	3.368912E-15	1.156217E-16
3.860000E+03	3.473070E-15	1.186237E-16
3.870000E+03	3.578688E-15	1.216204E-16
3.880000E+03	3.684401E-15	1.245652E-16
3.890000E+03	3.788597E-15	1.274042E-16
3.900000E+03	3.889852E-15	1.300914E-16
3.910000E+03	3.986497E-15	1.325739E-16
3.920000E+03	4.077137E-15	1.348091E-16
3.930000E+03	4.160402E-15	1.367567E-16
3.940000E+03	4.235149E-15	1.383849E-16
3.950000E+03	4.300723E-15	1.396787E-16
3.960000E+03	4.356468E-15	1.406235E-16
3.970000E+03	4.402420E-15	1.412271E-16
3.980000E+03	4.438777E-15	1.415022E-16
3.990000E+03	4.466081E-15	1.414717E-16
4.000000E+03	4.485318E-15	1.411716E-16
4.010000E+03	4.497526E-15	1.406377E-16
4.020000E+03	4.504199E-15	1.399188E-16
4.030000E+03	4.506685E-15	1.390573E-16
4.040000E+03	4.506514E-15	1.380992E-16
4.050000E+03	4.505255E-15	1.370900E-16
4.060000E+03	4.504209E-15	1.360656E-16
4.070000E+03	4.504730E-15	1.350619E-16
4.080000E+03	4.507874E-15	1.341043E-16
4.090000E+03	4.514550E-15	1.332129E-16
4.100000E+03	4.525431E-15	1.323993E-16
4.110000E+03	4.540943E-15	1.316670E-16
4.120000E+03	4.561135E-15	1.310077E-16
4.130000E+03	4.586037E-15	1.304117E-16
4.140000E+03	4.615186E-15	1.298547E-16
4.150000E+03	4.648059E-15	1.293106E-16
4.160000E+03	4.683734E-15	1.287425E-16
4.170000E+03	4.721274E-15	1.281137E-16
4.180000E+03	4.759522E-15	1.273832E-16
4.190000E+03	4.797143E-15	1.265069E-16
4.200000E+03	4.832720E-15	1.254417E-16
4.210000E+03	4.864991E-15	1.241521E-16
4.220000E+03	4.892417E-15	1.225997E-16
4.230000E+03	4.913836E-15	1.207607E-16
4.240000E+03	4.927975E-15	1.186147E-16
4.250000E+03	4.933929E-15	1.161561E-16
4.260000E+03	4.930906E-15	1.133891E-16
4.270000E+03	4.918514E-15	1.103339E-16
4.280000E+03	4.896565E-15	1.070216E-16
4.290000E+03	4.865224E-15	1.034966E-16
4.300000E+03	4.825260E-15	9.981962E-17
4.310000E+03	4.777472E-15	9.605285E-17
4.320000E+03	4.723314E-15	9.226944E-17
4.330000E+03	4.664468E-15	8.854044E-17
4.340000E+03	4.602976E-15	8.493321E-17
4.350000E+03	4.541131E-15	8.150523E-17
4.360000E+03	4.481325E-15	7.829806E-17
4.370000E+03	4.426333E-15	7.533890E-17
4.380000E+03	4.378910E-15	7.263351E-17
4.390000E+03	4.341882E-15	7.018044E-17
4.400000E+03	4.317868E-15	6.797882E-17
4.410000E+03	4.309303E-15	6.603978E-17
4.420000E+03	4.318245E-15	6.439355E-17
4.430000E+03	4.346588E-15	6.310233E-17
4.440000E+03	4.395707E-15	6.226325E-17
4.450000E+03	4.466790E-15	6.201774E-17
4.460000E+03	4.560526E-15	6.254285E-17
4.470000E+03	4.677341E-15	6.403400E-17
4.480000E+03	4.817284E-15	6.665087E-17
4.490000E+03	4.980280E-15	7.043484E-17
4.500000E+03	5.165751E-15	7.532143E-17
4.510000E+03	5.372756E-15	8.119754E-17
4.520000E+03	5.599466E-15	8.792177E-17
4.530000E+03	5.843193E-15	9.533985E-17
4.540000E+03	6.100432E-15	1.032917E-16
4.550000E+03	6.366562E-15	1.116077E-16
4.560000E+03	6.635983E-15	1.201099E-16
4.570000E+03	6.902372E-15	1.286147E-16
4.580000E+03	7.158459E-15	1.369273E-16
4.590000E+03	7.397007E-15	1.448588E-16
4.600000E+03	7.610469E-15	1.522183E-16
4.610000E+03	7.792063E-15	1.588334E-16
4.620000E+03	7.935944E-15	1.645529E-16
4.630000E+03	8.037794E-15	1.692591E-16
4.640000E+03	8.094809E-15	1.728675E-16
4.650000E+03	8.106383E-15	1.753428E-16
4.660000E+03	8.073777E-15	1.766924E-16
4.670000E+03	7.999971E-15	1.769642E-16
4.680000E+03	7.889548E-15	1.762438E-16
4.690000E+03	7.748238E-15	1.746443E-16
4.700000E+03	7.582488E-15	1.722968E-16
4.710000E+03	7.399048E-15	1.693417E-16
4.720000E+03	7.204577E-15	1.659207E-16
4.730000E+03	7.005408E-15	1.621736E-16
4.740000E+03	6.807230E-15	1.582319E-16
4.750000E+03	6.615079E-15	1.542190E-16
4.760000E+03	6.433041E-15	1.502438E-16
4.770000E+03	6.264325E-15	1.464006E-16
4.780000E+03	6.111411E-15	1.427705E-16
4.790000E+03	5.975860E-15	1.394155E-16
4.800000E+03	5.858583E-15	1.363822E-16
4.810000E+03	5.759749E-15	1.336985E-16
4.820000E+03	5.679101E-15	1.313800E-16
4.830000E+03	5.615849E-15	1.294275E-16
4.840000E+03	5.568737E-15	1.278280E-16
4.850000E+03	5.536202E-15	1.265587E-16
4.860000E+03	5.516300E-15	1.255853E-16
4.870000E+03	5.506860E-15	1.248649E-16
4.880000E+03	5.505365E-15	1.243435E-16
4.890000E+03	5.509295E-15	1.239638E-16
4.900000E+03	5.515888E-15	1.236602E-16
4.910000E+03	5.522475E-15	1.233677E-16
4.920000E+03	5.526607E-15	1.230252E-16
4.930000E+03	5.525982E-15	1.225754E-16
4.940000E+03	5.519015E-15	1.219778E-16
4.950000E+03	5.504346E-15	1.211988E-16
4.960000E+03	5.481586E-15	1.202277E-16
4.970000E+03	5.450681E-15	1.190632E-16
4.980000E+03	5.412510E-15	1.177254E-16
4.990000E+03	5.368431E-15	1.162458E-16
5.000000E+03	5.320238E-15	1.146660E-16
5.010000E+03	5.270145E-15	1.130364E-16
5.020000E+03	5.220601E-15	1.114121E-16
5.030000E+03	5.174216E-15	1.098508E-16
5.040000E+03	5.133499E-15	1.084068E-16
5.050000E+03	5.100933E-15	1.071326E-16
5.060000E+03	5.078919E-15	1.060774E-16
5.070000E+03	5.069594E-15	1.052830E-16
5.080000E+03	5.074964E-15	1.047870E-16
5.090000E+03	5.096853E-15	1.046215E-16
5.100000E+03	5.136893E-15	1.048132E-16
5.110000E+03	5.196522E-15	1.053831E-16
5.120000E+03	5.277016E-15	1.063472E-16
5.130000E+03	5.379246E-15	1.077116E-16
5.140000E+03	5.503938E-15	1.094776E-16
5.150000E+03	5.651460E-15	1.116371E-16
5.160000E+03	5.821559E-15	1.141670E-16
5.170000E+03	6.013604E-15	1.170336E-16
5.180000E+03	6.226195E-15	1.201845E-16
5.190000E+03	6.457307E-15	1.235510E-16
5.200000E+03	6.704024E-15	1.270433E-16
5.210000E+03	6.962483E-15	1.305497E-16
5.220000E+03	7.228075E-15	1.339424E-16
5.230000E+03	7.495246E-15	1.370766E-16
5.240000E+03	7.757914E-15	1.398010E-16
5.250000E+03	8.009328E-15	1.419585E-16
5.260000E+03	8.242820E-15	1.434031E-16
5.270000E+03	8.451955E-15	1.440024E-16
5.280000E+03	8.630661E-15	1.436404E-16
5.290000E+03	8.774131E-15	1.422311E-16
5.300000E+03	8.878757E-15	1.397152E-16
5.310000E+03	8.942658E-15	1.360684E-16
5.320000E+03	8.965864E-15	1.313057E-16
5.330000E+03	8.950094E-15	1.254814E-16
5.340000E+03	8.898955E-15	1.186988E-16
5.350000E+03	8.817594E-15	1.111148E-16
5.360000E+03	8.712677E-15	1.029552E-16
5.370000E+03	8.591686E-15	9.452829E-17
5.380000E+03	8.462849E-15	8.625817E-17
5.390000E+03	8.334254E-15	7.871567E-17
5.400000E+03	8.213865E-15	7.264459E-17
5.410000E+03	8.108666E-15	6.889271E-17
5.420000E+03	8.023840E-15	6.812958E-17
5.430000E+03	7.959865E-15	7.027383E-17
5.440000E+03	7.913140E-15	7.456158E-17
5.450000E+03	7.878648E-15	8.010998E-17
5.460000E+03	7.850541E-15	8.618551E-17
5.470000E+03	7.823128E-15	9.226518E-17
5.480000E+03	7.790939E-15	9.799838E-17
5.490000E+03	7.749031E-15	1.031582E-16
5.500000E+03	7.693391E-15	1.076058E-16
5.510000E+03	7.621109E-15	1.112652E-16
5.520000E+03	7.530241E-15	1.141044E-16
5.530000E+03	7.420211E-15	1.161293E-16
5.540000E+03	7.291230E-15	1.173689E-16
5.550000E+03	7.144700E-15	1.178763E-16
5.560000E+03	6.982761E-15	1.177201E-16
5.570000E+03	6.808174E-15	1.169802E-16
5.580000E+03	6.624125E-15	1.157446E-16
5.590000E+03	6.434096E-15	1.141068E-16
5.600000E+03	6.241504E-15	1.121595E-16
5.610000E+03	6.049758E-15	1.099955E-16
5.620000E+03	5.862205E-15	1.077063E-16
5.630000E+03	5.681693E-15	1.053738E-16
5.640000E+03	5.511011E-15	1.030769E-16
5.650000E+03	5.352398E-15	1.008824E-16
5.660000E+03	5.208004E-15	9.885266E-17
5.670000E+03	5.079557E-15	9.703936E-17
5.680000E+03	4.968455E-15	9.548530E-17
5.690000E+03	4.875944E-15	9.422821E-17
5.700000E+03	4.802937E-15	9.329782E-17
5.710000E+03	4.750293E-15	9.272161E-17
5.720000E+03	4.718482E-15	9.251882E-17
5.730000E+03	4.707992E-15	9.270842E-17
5.740000E+03	4.719026E-15	9.330339E-17
5.750000E+03	4.751495E-15	9.431027E-17
5.760000E+03	4.805275E-15	9.573425E-17
5.770000E+03	4.879880E-15	9.757236E-17
5.780000E+03	4.974505E-15	9.981406E-17
5.790000E+03	5.087973E-15	1.024397E-16
5.800000E+03	5.218614E-15	1.054179E-16
5.810000E+03	5.364435E-15	1.087085E-16
5.820000E+03	5.522694E-15	1.122539E-16
5.830000E+03	5.690334E-15	1.159878E-16
5.840000E+03	5.863594E-15	1.198276E-16
5.850000E+03	6.038359E-15	1.236815E-16
5.860000E+03	6.210001E-15	1.274462E-16
5.870000E+03	6.373769E-15	1.310155E-16
5.880000E+03	6.524698E-15	1.342784E-16
5.890000E+03	6.658075E-15	1.371300E-16
5.900000E+03	6.769449E-15	1.394715E-16
5.910000E+03	6.854838E-15	1.412151E-16
5.920000E+03	6.911139E-15	1.422924E-16
5.930000E+03	6.936149E-15	1.426562E-16
5.940000E+03	6.928446E-15	1.422784E-16
5.950000E+03	6.887899E-15	1.411620E-16
5.960000E+03	6.815445E-15	1.393365E-16
5.970000E+03	6.712812E-15	1.368524E-16
5.980000E+03	6.582929E-15	1.337880E-16
5.990000E+03	6.429200E-15	1.302332E-16
6.000000E+03	6.255891E-15	1.262951E-16
6.010000E+03	6.067446E-15	1.220814E-16
6.020000E+03	5.868502E-15	1.176997E-16
6.030000E+03	5.663833E-15	1.132541E-16
6.040000E+03	5.458045E-15	1.088393E-16
6.050000E+03	5.255209E-15	1.045337E-16
6.060000E+03	5.059301E-15	1.004096E-16
6.070000E+03	4.873652E-15	9.652437E-17
6.080000E+03	4.701140E-15	9.292492E-17
6.090000E+03	4.544060E-15	8.964625E-17
6.100000E+03	4.404279E-15	8.671424E-17
6.110000E+03	4.282985E-15	8.414075E-17
6.120000E+03	4.180959E-15	8.192890E-17
6.130000E+03	4.098542E-15	8.007255E-17
6.140000E+03	4.035426E-15	7.855276E-17
6.150000E+03	3.991157E-15	7.734799E-17
6.160000E+03	3.964670E-15	7.642550E-17
6.170000E+03	3.954646E-15	7.574873E-17
6.180000E+03	3.959564E-15	7.527829E-17
6.190000E+03	3.977568E-15	7.496950E-17
6.200000E+03	4.006611E-15	7.477527E-17
6.210000E+03	4.044518E-15	7.464717E-17
6.220000E+03	4.089092E-15	7.453742E-17
6.230000E+03	4.138142E-15	7.439867E-17
6.240000E+03	4.189452E-15	7.418242E-17
6.250000E+03	4.241140E-15	7.384402E-17
6.260000E+03	4.291235E-15	7.333380E-17
6.270000E+03	4.338323E-15	7.260776E-17
6.280000E+03	4.381157E-15	7.162078E-17
6.290000E+03	4.418791E-15	7.033036E-17
6.300000E+03	4.450770E-15	6.870215E-17
6.310000E+03	4.476941E-15	6.671079E-17
6.320000E+03	4.497732E-15	6.434968E-17
6.330000E+03	4.513764E-15	6.163305E-17
6.340000E+03	4.526202E-15	5.861197E-17
6.350000E+03	4.536497E-15	5.538568E-17
6.360000E+03	4.546375E-15	5.212172E-17
6.370000E+03	4.557703E-15	4.907829E-17
6.380000E+03	4.572494E-15	4.662231E-17
6.390000E+03	4.592730E-15	4.521223E-17
6.400000E+03	4.620129E-15	4.529962E-17
6.410000E+03	4.655717E-15	4.708287E-17
6.420000E+03	4.698941E-15	5.033748E-17
6.430000E+03	4.748912E-15	5.466712E-17
6.440000E+03	4.804147E-15	5.968100E-17
6.450000E+03	4.863190E-15	6.506496E-17
6.460000E+03	4.924272E-15	7.058255E-17
6.470000E+03	4.985727E-15	7.606431E-17
6.480000E+03	5.045736E-15	8.138594E-17
6.490000E+03	5.102553E-15	8.645678E-17
6.500000E+03	5.154479E-15	9.120914E-17
6.510000E+03	5.199961E-15	9.559291E-17
6.520000E+03	5.237424E-15	9.956779E-17
6.530000E+03	5.265700E-15	1.031080E-16
6.540000E+03	5.283457E-15	1.061891E-16
6.550000E+03	5.289821E-15	1.087989E-16
6.560000E+03	5.284005E-15	1.109288E-16
6.570000E+03	5.265458E-15	1.125763E-16
6.580000E+03	5.233956E-15	1.137465E-16
6.590000E+03	5.189472E-15	1.144489E-16
6.600000E+03	5.132255E-15	1.146990E-16
6.610000E+03	5.062884E-15	1.145195E-16
6.620000E+03	4.982127E-15	1.139374E-16
6.630000E+03	4.890975E-15	1.129843E-16
6.640000E+03	4.790683E-15	1.116976E-16
6.650000E+03	4.682526E-15	1.101154E-16
6.660000E+03	4.568014E-15	1.082806E-16
6.670000E+03	4.448652E-15	1.062365E-16
6.680000E+03	4.326013E-15	1.040274E-16
6.690000E+03	4.201457E-15	1.016929E-16
6.700000E+03	4.076509E-15	9.927612E-17
6.710000E+03	3.952470E-15	9.681490E-17
6.720000E+03	3.830458E-15	9.434239E-17
6.730000E+03	3.711555E-15	9.189078E-17
6.740000E+03	3.596638E-15	8.948691E-17
6.750000E+03	3.486422E-15	8.715354E-17
6.760000E+03	3.381424E-15	8.490819E-17
6.770000E+03	3.282159E-15	8.276808E-17
6.780000E+03	3.188811E-15	8.074189E-17
6.790000E+03	3.101627E-15	7.883953E-17
6.800000E+03	3.020557E-15	7.706317E-17
6.810000E+03	2.945634E-15	7.541669E-17
6.820000E+03	2.876671E-15	7.389817E-17
6.830000E+03	2.813457E-15	7.250475E-17
6.840000E+03	2.755725E-15	7.123194E-17
6.850000E+03	2.703204E-15	7.007494E-17
6.860000E+03	2.655475E-15	6.902485E-17
6.870000E+03	2.612256E-15	6.807619E-17
6.880000E+03	2.573140E-15	6.721994E-17
6.890000E+03	2.537760E-15	6.644787E-17
6.900000E+03	2.505758E-15	6.575168E-17
6.910000E+03	2.476830E-15	6.512423E-17
6.920000E+03	2.450581E-15	6.455576E-17
6.930000E+03	2.426793E-15	6.404094E-17
6.940000E+03	2.405164E-15	6.357217E-17
6.950000E+03	2.385428E-15	6.314264E-17
6.960000E+03	2.367457E-15	6.274929E-17
6.970000E+03	2.351047E-15	6.238706E-17
6.980000E+03	2.336061E-15	6.205270E-17
6.990000E+03	2.322389E-15	6.174378E-17
7.000000E+03	2.309911E-15	6.145760E-17
7.010000E+03	2.298635E-15	6.119491E-17
7.020000E+03	2.288479E-15	6.095400E-17
7.030000E+03	2.279371E-15	6.073346E-17
7.040000E+03	2.271322E-15	6.053392E-17
7.050000E+03	2.264309E-15	6.035514E-17
7.060000E+03	2.258309E-15	6.019682E-17
7.070000E+03	2.253262E-15	6.005759E-17
7.080000E+03	2.249175E-15	5.993790E-17
7.090000E+03	2.246013E-15	5.983705E-17
7.100000E+03	2.243737E-15	5.975419E-17
7.110000E+03	2.242262E-15	5.968732E-17
7.120000E+03	2.241573E-15	5.963618E-17
7.130000E+03	2.241576E-15	5.959840E-17
7.140000E+03	2.242245E-15	5.957339E-17
7.150000E+03	2.243517E-15	5.955939E-17
7.160000E+03	2.245324E-15	5.955450E-17
7.170000E+03	2.247559E-15	5.955570E-17
7.180000E+03	2.250150E-15	5.956083E-17
7.190000E+03	2.253100E-15	5.956968E-17
7.200000E+03	2.256257E-15	5.957799E-17
7.210000E+03	2.259545E-15	5.958348E-17
7.220000E+03	2.262961E-15	5.958591E-17
7.230000E+03	2.266349E-15	5.958102E-17
7.240000E+03	2.269703E-15	5.956866E-17
7.250000E+03	2.272865E-15	5.954464E-17
7.260000E+03	2.275788E-15	5.950789E-17
7.270000E+03	2.278391E-15	5.945641E-17
7.280000E+03	2.280633E-15	5.938933E-17
7.290000E+03	2.282397E-15	5.930386E-17
7.300000E+03	2.283611E-15	5.919841E-17
7.310000E+03	2.284212E-15	5.907160E-17
7.320000E+03	2.284183E-15	5.892335E-17
7.330000E+03	2.283482E-15	5.875283E-17
7.340000E+03	2.282036E-15	5.855849E-17
7.350000E+03	2.279870E-15	5.834123E-17
7.360000E+03	2.276983E-15	5.810128E-17
7.370000E+03	2.273391E-15	5.783930E-17
7.380000E+03	2.269125E-15	5.755639E-17
7.390000E+03	2.264273E-15	5.725508E-17
7.400000E+03	2.258856E-15	5.693624E-17
7.410000E+03	2.252945E-15	5.660208E-17
7.420000E+03	2.246702E-15	5.625719E-17
7.430000E+03	2.240133E-15	5.590221E-17
7.440000E+03	2.233407E-15	5.554200E-17
7.450000E+03	2.226568E-15	5.517834E-17
7.460000E+03	2.219657E-15	5.481294E-17
7.470000E+03	2.212749E-15	5.444832E-17
7.480000E+03	2.205948E-15	5.408771E-17
7.490000E+03	2.199224E-15	5.373091E-17
7.500000E+03	2.192618E-15	5.337921E-17
7.510000E+03	2.186195E-15	5.303429E-17
7.520000E+03	2.179883E-15	5.269409E-17
7.530000E+03	2.173762E-15	5.235974E-17
7.540000E+03	2.167731E-15	5.202754E-17
7.550000E+03	2.161761E-15	5.169495E-17
7.560000E+03	2.155895E-15	5.136066E-17
7.570000E+03	2.149964E-15	5.101797E-17
7.580000E+03	2.143958E-15	5.066390E-17
7.590000E+03	2.137869E-15	5.029567E-17
7.600000E+03	2.131568E-15	4.990821E-17
7.610000E+03	2.125097E-15	4.950123E-17
7.620000E+03	2.118345E-15	4.907171E-17
7.630000E+03	2.111293E-15	4.861965E-17
7.640000E+03	2.104016E-15	4.814791E-17
7.650000E+03	2.096437E-15	4.765628E-17
7.660000E+03	2.088571E-15	4.714693E-17
7.670000E+03	2.080480E-15	4.662307E-17
7.680000E+03	2.072154E-15	4.608601E-17
7.690000E+03	2.063664E-15	4.553863E-17
7.700000E+03	2.055004E-15	4.498163E-17
7.710000E+03	2.046208E-15	4.441622E-17
7.720000E+03	2.037354E-15	4.384394E-17
7.730000E+03	2.028438E-15	4.326411E-17
7.740000E+03	2.019539E-15	4.267714E-17
7.750000E+03	2.010621E-15	4.208025E-17
7.760000E+03	2.001810E-15	4.147325E-17
