#wls	flux	fluxerr
1.600000E+03	3.652084E-15	9.035013E-16
1.640000E+03	2.895823E-15	6.533850E-16
1.680000E+03	2.276980E-15	4.648096E-16
1.720000E+03	1.777078E-15	3.251913E-16
1.760000E+03	1.378232E-15	2.236935E-16
1.800000E+03	1.064072E-15	1.513020E-16
1.840000E+03	8.191244E-16	1.005881E-16
1.880000E+03	6.303568E-16	6.575765E-17
1.920000E+03	4.861027E-16	4.229394E-17
1.960000E+03	3.768639E-16	2.684906E-17
2.000000E+03	2.949632E-16	1.699465E-17
2.040000E+03	2.341427E-16	1.100702E-17
2.080000E+03	1.895139E-16	7.667964E-18
2.120000E+03	1.574679E-16	6.013929E-18
2.160000E+03	1.354461E-16	5.249317E-18
2.200000E+03	1.216080E-16	4.929015E-18
2.240000E+03	1.147594E-16	4.917783E-18
2.280000E+03	1.143794E-16	5.223454E-18
2.320000E+03	1.203403E-16	5.854380E-18
2.360000E+03	1.329938E-16	6.797089E-18
2.400000E+03	1.532337E-16	8.034426E-18
2.440000E+03	1.822778E-16	9.526717E-18
2.480000E+03	2.215220E-16	1.120846E-17
2.520000E+03	2.720234E-16	1.302392E-17
2.560000E+03	3.338838E-16	1.507574E-17
2.600000E+03	4.056002E-16	1.787197E-17
2.640000E+03	4.838779E-16	2.232274E-17
2.680000E+03	5.642669E-16	2.900901E-17
2.720000E+03	6.419885E-16	3.764189E-17
2.760000E+03	7.128612E-16	4.736282E-17
2.800000E+03	7.736171E-16	5.713035E-17
2.840000E+03	8.221884E-16	6.596715E-17
2.880000E+03	8.577736E-16	7.310359E-17
2.920000E+03	8.807185E-16	7.805231E-17
2.960000E+03	8.926056E-16	8.065426E-17
3.000000E+03	8.954761E-16	8.100480E-17
3.010000E+03	8.951156E-16	8.077740E-17
3.020000E+03	8.944281E-16	8.043805E-17
3.030000E+03	8.933926E-16	7.998796E-17
3.040000E+03	8.921111E-16	7.943973E-17
3.050000E+03	8.906236E-16	7.880063E-17
3.060000E+03	8.889114E-16	7.807299E-17
3.070000E+03	8.871323E-16	7.727480E-17
3.080000E+03	8.852095E-16	7.640355E-17
3.090000E+03	8.832974E-16	7.547691E-17
3.100000E+03	8.813216E-16	7.449271E-17
3.110000E+03	8.794333E-16	7.346803E-17
3.120000E+03	8.776694E-16	7.240986E-17
3.130000E+03	8.760126E-16	7.132061E-17
3.140000E+03	8.745012E-16	7.020712E-17
3.150000E+03	8.732260E-16	6.908009E-17
3.160000E+03	8.722232E-16	6.794536E-17
3.170000E+03	8.715288E-16	6.680838E-17
3.180000E+03	8.711787E-16	6.567420E-17
3.190000E+03	8.712086E-16	6.454739E-17
3.200000E+03	8.716540E-16	6.343210E-17
3.210000E+03	8.725992E-16	6.233547E-17
3.220000E+03	8.740287E-16	6.125697E-17
3.230000E+03	8.760732E-16	6.020595E-17
3.240000E+03	8.786673E-16	5.917761E-17
3.250000E+03	8.819385E-16	5.818006E-17
3.260000E+03	8.858207E-16	5.720805E-17
3.270000E+03	8.904842E-16	5.627157E-17
3.280000E+03	8.958601E-16	5.536486E-17
3.290000E+03	9.020192E-16	5.449107E-17
3.300000E+03	9.089826E-16	5.365015E-17
3.310000E+03	9.168148E-16	5.284474E-17
3.320000E+03	9.254844E-16	5.207208E-17
3.330000E+03	9.350491E-16	5.133500E-17
3.340000E+03	9.455623E-16	5.063644E-17
3.350000E+03	9.569809E-16	4.997483E-17
3.360000E+03	9.693496E-16	4.935423E-17
3.370000E+03	9.826614E-16	4.877706E-17
3.380000E+03	9.969503E-16	4.824901E-17
3.390000E+03	1.012198E-15	4.777456E-17
3.400000E+03	1.028380E-15	4.735946E-17
3.410000E+03	1.045512E-15	4.701288E-17
3.420000E+03	1.063554E-15	4.674302E-17
3.430000E+03	1.082508E-15	4.656118E-17
3.440000E+03	1.102321E-15	4.647726E-17
3.450000E+03	1.122979E-15	4.650328E-17
3.460000E+03	1.144466E-15	4.665059E-17
3.470000E+03	1.166717E-15	4.692703E-17
3.480000E+03	1.189716E-15	4.733966E-17
3.490000E+03	1.213423E-15	4.788934E-17
3.500000E+03	1.237901E-15	4.857698E-17
3.510000E+03	1.263123E-15	4.939658E-17
3.520000E+03	1.289109E-15	5.034160E-17
3.530000E+03	1.315832E-15	5.140179E-17
3.540000E+03	1.343313E-15	5.256764E-17
3.550000E+03	1.371475E-15	5.382529E-17
3.560000E+03	1.400339E-15	5.516461E-17
3.570000E+03	1.429784E-15	5.657004E-17
3.580000E+03	1.459788E-15	5.803053E-17
3.590000E+03	1.490290E-15	5.953405E-17
3.600000E+03	1.521339E-15	6.107369E-17
3.610000E+03	1.552796E-15	6.263602E-17
3.620000E+03	1.584789E-15	6.421902E-17
3.630000E+03	1.617216E-15	6.581233E-17
3.640000E+03	1.650194E-15	6.741532E-17
3.650000E+03	1.683715E-15	6.902305E-17
3.660000E+03	1.717896E-15	7.063640E-17
3.670000E+03	1.752832E-15	7.225597E-17
3.680000E+03	1.788740E-15	7.388819E-17
3.690000E+03	1.825666E-15	7.553279E-17
3.700000E+03	1.863879E-15	7.719924E-17
3.710000E+03	1.903568E-15	7.889406E-17
3.720000E+03	1.944935E-15	8.062473E-17
3.730000E+03	1.988246E-15	8.240140E-17
3.740000E+03	2.033765E-15	8.423449E-17
3.750000E+03	2.081701E-15	8.613209E-17
3.760000E+03	2.132241E-15	8.810151E-17
3.770000E+03	2.185596E-15	9.015096E-17
3.780000E+03	2.241987E-15	9.228899E-17
3.790000E+03	2.301368E-15	9.451313E-17
3.800000E+03	2.363834E-15	9.682666E-17
3.810000E+03	2.429350E-15	9.922733E-17
3.820000E+03	2.497731E-15	1.017069E-16
3.830000E+03	2.568749E-15	1.042554E-16
3.840000E+03	2.642015E-15	1.068564E-16
3.850000E+03	2.717092E-15	1.094917E-16
3.860000E+03	2.793384E-15	1.121371E-16
3.870000E+03	2.870324E-15	1.147701E-16
3.880000E+03	2.947097E-15	1.173583E-16
3.890000E+03	3.023013E-15	1.198752E-16
3.900000E+03	3.097241E-15	1.222891E-16
3.910000E+03	3.169015E-15	1.245714E-16
3.920000E+03	3.237551E-15	1.266932E-16
3.930000E+03	3.302194E-15	1.286312E-16
3.940000E+03	3.362333E-15	1.303640E-16
3.950000E+03	3.417611E-15	1.318804E-16
3.960000E+03	3.467636E-15	1.331675E-16
3.970000E+03	3.512428E-15	1.342285E-16
3.980000E+03	3.551863E-15	1.350603E-16
3.990000E+03	3.586235E-15	1.356757E-16
4.000000E+03	3.615861E-15	1.360873E-16
4.010000E+03	3.641258E-15	1.363145E-16
4.020000E+03	3.663045E-15	1.363798E-16
4.030000E+03	3.681922E-15	1.363075E-16
4.040000E+03	3.698509E-15	1.361180E-16
4.050000E+03	3.713628E-15	1.358378E-16
4.060000E+03	3.727958E-15	1.354874E-16
4.070000E+03	3.742196E-15	1.350865E-16
4.080000E+03	3.756906E-15	1.346490E-16
4.090000E+03	3.772684E-15	1.341889E-16
4.100000E+03	3.789836E-15	1.337085E-16
4.110000E+03	3.808727E-15	1.332114E-16
4.120000E+03	3.829475E-15	1.326916E-16
4.130000E+03	3.852067E-15	1.321376E-16
4.140000E+03	3.876472E-15	1.315368E-16
4.150000E+03	3.902475E-15	1.308699E-16
4.160000E+03	3.929624E-15	1.301095E-16
4.170000E+03	3.957475E-15	1.292292E-16
4.180000E+03	3.985550E-15	1.282022E-16
4.190000E+03	4.013183E-15	1.269971E-16
4.200000E+03	4.039712E-15	1.255848E-16
4.210000E+03	4.064452E-15	1.239387E-16
4.220000E+03	4.086657E-15	1.220338E-16
4.230000E+03	4.105726E-15	1.198544E-16
4.240000E+03	4.121055E-15	1.173902E-16
4.250000E+03	4.132070E-15	1.146378E-16
4.260000E+03	4.138361E-15	1.116063E-16
4.270000E+03	4.139710E-15	1.083174E-16
4.280000E+03	4.136050E-15	1.048048E-16
4.290000E+03	4.127369E-15	1.011122E-16
4.300000E+03	4.113888E-15	9.729689E-17
4.310000E+03	4.096169E-15	9.343077E-17
4.320000E+03	4.074673E-15	8.958796E-17
4.330000E+03	4.050307E-15	8.585335E-17
4.340000E+03	4.023973E-15	8.230698E-17
4.350000E+03	3.996840E-15	7.902251E-17
4.360000E+03	3.970126E-15	7.605455E-17
4.370000E+03	3.945429E-15	7.343197E-17
4.380000E+03	3.924520E-15	7.114180E-17
4.390000E+03	3.909397E-15	6.915706E-17
4.400000E+03	3.901953E-15	6.745091E-17
4.410000E+03	3.903908E-15	6.601149E-17
4.420000E+03	3.916809E-15	6.485537E-17
4.430000E+03	3.942050E-15	6.403805E-17
4.440000E+03	3.980602E-15	6.365623E-17
4.450000E+03	4.033294E-15	6.385337E-17
4.460000E+03	4.100697E-15	6.480900E-17
4.470000E+03	4.183116E-15	6.671572E-17
4.480000E+03	4.280485E-15	6.972904E-17
4.490000E+03	4.392617E-15	7.386412E-17
4.500000E+03	4.518978E-15	7.903299E-17
4.510000E+03	4.658648E-15	8.510810E-17
4.520000E+03	4.810380E-15	9.194707E-17
4.530000E+03	4.972164E-15	9.939743E-17
4.540000E+03	5.141832E-15	1.073127E-16
4.550000E+03	5.316426E-15	1.155398E-16
4.560000E+03	5.492767E-15	1.239288E-16
4.570000E+03	5.667106E-15	1.323231E-16
4.580000E+03	5.835476E-15	1.405649E-16
4.590000E+03	5.993792E-15	1.484976E-16
4.600000E+03	6.138099E-15	1.559706E-16
4.610000E+03	6.264649E-15	1.628423E-16
4.620000E+03	6.370092E-15	1.689850E-16
4.630000E+03	6.451962E-15	1.742987E-16
4.640000E+03	6.508395E-15	1.787048E-16
4.650000E+03	6.538515E-15	1.821566E-16
4.660000E+03	6.542477E-15	1.846414E-16
4.670000E+03	6.521285E-15	1.861758E-16
4.680000E+03	6.476923E-15	1.868095E-16
4.690000E+03	6.411852E-15	1.866104E-16
4.700000E+03	6.329268E-15	1.856722E-16
4.710000E+03	6.232621E-15	1.840999E-16
4.720000E+03	6.125503E-15	1.820063E-16
4.730000E+03	6.011602E-15	1.795103E-16
4.740000E+03	5.894225E-15	1.767223E-16
4.750000E+03	5.776703E-15	1.737560E-16
4.760000E+03	5.661663E-15	1.707058E-16
4.770000E+03	5.551554E-15	1.676624E-16
4.780000E+03	5.448129E-15	1.646958E-16
4.790000E+03	5.352929E-15	1.618701E-16
4.800000E+03	5.266829E-15	1.592287E-16
4.810000E+03	5.190417E-15	1.568053E-16
4.820000E+03	5.123800E-15	1.546178E-16
4.830000E+03	5.066863E-15	1.526758E-16
4.840000E+03	5.019089E-15	1.509750E-16
4.850000E+03	4.979815E-15	1.495050E-16
4.860000E+03	4.948054E-15	1.482439E-16
4.870000E+03	4.922704E-15	1.471645E-16
4.880000E+03	4.902587E-15	1.462355E-16
4.890000E+03	4.886293E-15	1.454175E-16
4.900000E+03	4.872602E-15	1.446754E-16
4.910000E+03	4.860125E-15	1.439680E-16
4.920000E+03	4.847779E-15	1.432626E-16
4.930000E+03	4.834541E-15	1.425279E-16
4.940000E+03	4.819500E-15	1.417359E-16
4.950000E+03	4.802158E-15	1.408707E-16
4.960000E+03	4.782306E-15	1.399253E-16
4.970000E+03	4.759990E-15	1.389003E-16
4.980000E+03	4.735461E-15	1.378028E-16
4.990000E+03	4.709502E-15	1.366553E-16
5.000000E+03	4.682897E-15	1.354807E-16
5.010000E+03	4.656740E-15	1.343103E-16
5.020000E+03	4.632374E-15	1.331828E-16
5.030000E+03	4.611053E-15	1.321334E-16
5.040000E+03	4.594233E-15	1.312027E-16
5.050000E+03	4.583376E-15	1.304304E-16
5.060000E+03	4.579773E-15	1.298504E-16
5.070000E+03	4.584798E-15	1.294979E-16
5.080000E+03	4.599734E-15	1.294040E-16
5.090000E+03	4.625664E-15	1.295928E-16
5.100000E+03	4.663584E-15	1.300843E-16
5.110000E+03	4.714392E-15	1.308940E-16
5.120000E+03	4.778716E-15	1.320278E-16
5.130000E+03	4.857033E-15	1.334851E-16
5.140000E+03	4.949639E-15	1.352576E-16
5.150000E+03	5.056466E-15	1.373244E-16
5.160000E+03	5.177243E-15	1.396553E-16
5.170000E+03	5.311248E-15	1.422049E-16
5.180000E+03	5.457482E-15	1.449162E-16
5.190000E+03	5.614415E-15	1.477143E-16
5.200000E+03	5.780194E-15	1.505121E-16
5.210000E+03	5.952405E-15	1.532047E-16
5.220000E+03	6.128335E-15	1.556768E-16
5.230000E+03	6.304781E-15	1.577993E-16
5.240000E+03	6.478314E-15	1.594378E-16
5.250000E+03	6.645339E-15	1.604555E-16
5.260000E+03	6.802313E-15	1.607210E-16
5.270000E+03	6.945715E-15	1.601091E-16
5.280000E+03	7.072427E-15	1.585126E-16
5.290000E+03	7.179854E-15	1.558469E-16
5.300000E+03	7.266089E-15	1.520557E-16
5.310000E+03	7.330047E-15	1.471161E-16
5.320000E+03	7.371556E-15	1.410436E-16
5.330000E+03	7.391316E-15	1.338952E-16
5.340000E+03	7.391101E-15	1.257784E-16
5.350000E+03	7.373386E-15	1.168538E-16
5.360000E+03	7.341507E-15	1.073534E-16
5.370000E+03	7.299193E-15	9.759826E-17
5.380000E+03	7.250500E-15	8.803841E-17
5.390000E+03	7.199775E-15	7.930582E-17
5.400000E+03	7.150927E-15	7.224636E-17
5.410000E+03	7.107295E-15	6.785751E-17
5.420000E+03	7.071363E-15	6.697577E-17
5.430000E+03	7.043761E-15	6.965289E-17
5.440000E+03	7.023591E-15	7.513883E-17
5.450000E+03	7.008641E-15	8.242452E-17
5.460000E+03	6.996363E-15	9.062723E-17
5.470000E+03	6.983812E-15	9.909890E-17
5.480000E+03	6.967903E-15	1.073936E-16
5.490000E+03	6.945957E-15	1.152145E-16
5.500000E+03	6.915508E-15	1.223626E-16
5.510000E+03	6.874768E-15	1.287126E-16
5.520000E+03	6.822295E-15	1.341870E-16
5.530000E+03	6.757313E-15	1.387499E-16
5.540000E+03	6.679657E-15	1.423982E-16
5.550000E+03	6.589816E-15	1.451578E-16
5.560000E+03	6.488679E-15	1.470748E-16
5.570000E+03	6.377727E-15	1.482168E-16
5.580000E+03	6.258681E-15	1.486629E-16
5.590000E+03	6.133661E-15	1.485058E-16
5.600000E+03	6.004894E-15	1.478435E-16
5.610000E+03	5.874747E-15	1.467783E-16
5.620000E+03	5.745405E-15	1.454080E-16
5.630000E+03	5.619220E-15	1.438332E-16
5.640000E+03	5.498294E-15	1.421468E-16
5.650000E+03	5.384569E-15	1.404347E-16
5.660000E+03	5.279738E-15	1.387737E-16
5.670000E+03	5.185398E-15	1.372349E-16
5.680000E+03	5.102930E-15	1.358809E-16
5.690000E+03	5.033346E-15	1.347614E-16
5.700000E+03	4.977656E-15	1.339235E-16
5.710000E+03	4.936560E-15	1.334034E-16
5.720000E+03	4.910512E-15	1.332284E-16
5.730000E+03	4.899863E-15	1.334212E-16
5.740000E+03	4.904662E-15	1.339944E-16
5.750000E+03	4.924847E-15	1.349560E-16
5.760000E+03	4.960132E-15	1.363061E-16
5.770000E+03	5.009838E-15	1.380329E-16
5.780000E+03	5.073171E-15	1.401197E-16
5.790000E+03	5.149005E-15	1.425391E-16
5.800000E+03	5.235910E-15	1.452542E-16
5.810000E+03	5.332138E-15	1.482175E-16
5.820000E+03	5.435677E-15	1.513728E-16
5.830000E+03	5.544036E-15	1.546495E-16
5.840000E+03	5.654665E-15	1.579738E-16
5.850000E+03	5.764610E-15	1.612601E-16
5.860000E+03	5.870803E-15	1.644184E-16
5.870000E+03	5.970156E-15	1.673583E-16
5.880000E+03	6.059420E-15	1.699843E-16
5.890000E+03	6.135735E-15	1.722123E-16
5.900000E+03	6.196250E-15	1.739590E-16
5.910000E+03	6.238748E-15	1.751598E-16
5.920000E+03	6.261243E-15	1.757577E-16
5.930000E+03	6.262516E-15	1.757190E-16
5.940000E+03	6.241919E-15	1.750274E-16
5.950000E+03	6.199466E-15	1.736873E-16
5.960000E+03	6.135768E-15	1.717212E-16
5.970000E+03	6.052123E-15	1.691724E-16
5.980000E+03	5.950391E-15	1.661006E-16
5.990000E+03	5.832957E-15	1.625805E-16
6.000000E+03	5.702383E-15	1.586913E-16
6.010000E+03	5.561661E-15	1.545228E-16
6.020000E+03	5.413845E-15	1.501652E-16
6.030000E+03	5.261946E-15	1.457048E-16
6.040000E+03	5.109002E-15	1.412269E-16
6.050000E+03	4.957708E-15	1.368048E-16
6.060000E+03	4.810685E-15	1.325077E-16
6.070000E+03	4.670252E-15	1.283949E-16
6.080000E+03	4.538247E-15	1.245107E-16
6.090000E+03	4.416317E-15	1.208932E-16
6.100000E+03	4.305708E-15	1.175683E-16
6.110000E+03	4.207367E-15	1.145526E-16
6.120000E+03	4.121815E-15	1.118504E-16
6.130000E+03	4.049358E-15	1.094592E-16
6.140000E+03	3.989965E-15	1.073665E-16
6.150000E+03	3.943429E-15	1.055541E-16
6.160000E+03	3.909266E-15	1.039955E-16
6.170000E+03	3.886700E-15	1.026556E-16
6.180000E+03	3.874865E-15	1.014958E-16
6.190000E+03	3.872796E-15	1.004741E-16
6.200000E+03	3.879242E-15	9.953985E-17
6.210000E+03	3.893008E-15	9.864287E-17
6.220000E+03	3.912767E-15	9.772857E-17
6.230000E+03	3.937189E-15	9.674126E-17
6.240000E+03	3.965017E-15	9.562624E-17
6.250000E+03	3.995117E-15	9.433086E-17
6.260000E+03	4.026324E-15	9.280164E-17
6.270000E+03	4.057756E-15	9.099211E-17
6.280000E+03	4.088614E-15	8.885943E-17
6.290000E+03	4.118395E-15	8.637078E-17
6.300000E+03	4.146721E-15	8.350226E-17
6.310000E+03	4.173546E-15	8.024667E-17
6.320000E+03	4.198963E-15	7.661491E-17
6.330000E+03	4.223347E-15	7.264638E-17
6.340000E+03	4.247337E-15	6.841952E-17
6.350000E+03	4.271616E-15	6.406423E-17
6.360000E+03	4.297216E-15	5.978860E-17
6.370000E+03	4.325073E-15	5.589715E-17
6.380000E+03	4.356252E-15	5.280970E-17
6.390000E+03	4.391700E-15	5.103067E-17
6.400000E+03	4.432222E-15	5.103635E-17
6.410000E+03	4.478096E-15	5.303997E-17
6.420000E+03	4.529138E-15	5.683470E-17
6.430000E+03	4.584492E-15	6.200450E-17
6.440000E+03	4.643282E-15	6.811169E-17
6.450000E+03	4.704212E-15	7.477984E-17
6.460000E+03	4.766005E-15	8.171863E-17
6.470000E+03	4.827290E-15	8.871005E-17
6.480000E+03	4.886698E-15	9.559121E-17
6.490000E+03	4.942843E-15	1.022379E-16
6.500000E+03	4.994476E-15	1.085561E-16
6.510000E+03	5.040279E-15	1.144699E-16
6.520000E+03	5.079012E-15	1.199186E-16
6.530000E+03	5.109541E-15	1.248546E-16
6.540000E+03	5.130867E-15	1.292411E-16
6.550000E+03	5.142089E-15	1.330498E-16
6.560000E+03	5.142618E-15	1.362655E-16
6.570000E+03	5.131940E-15	1.388786E-16
6.580000E+03	5.109755E-15	1.408887E-16
6.590000E+03	5.075991E-15	1.423039E-16
6.600000E+03	5.030928E-15	1.431442E-16
6.610000E+03	4.974875E-15	1.434319E-16
6.620000E+03	4.908415E-15	1.431982E-16
6.630000E+03	4.832379E-15	1.424822E-16
6.640000E+03	4.747698E-15	1.413264E-16
6.650000E+03	4.655432E-15	1.397771E-16
6.660000E+03	4.556798E-15	1.378853E-16
6.670000E+03	4.452897E-15	1.356980E-16
6.680000E+03	4.345091E-15	1.332695E-16
6.690000E+03	4.234612E-15	1.306499E-16
6.700000E+03	4.122655E-15	1.278872E-16
6.710000E+03	4.010295E-15	1.250253E-16
6.720000E+03	3.898629E-15	1.221077E-16
6.730000E+03	3.788598E-15	1.191724E-16
6.740000E+03	3.681027E-15	1.162533E-16
6.750000E+03	3.576622E-15	1.133796E-16
6.760000E+03	3.476016E-15	1.105777E-16
6.770000E+03	3.379582E-15	1.078651E-16
6.780000E+03	3.287764E-15	1.052610E-16
6.790000E+03	3.200721E-15	1.027749E-16
6.800000E+03	3.118690E-15	1.004185E-16
6.810000E+03	3.041735E-15	9.819749E-17
6.820000E+03	2.969757E-15	9.611182E-17
6.830000E+03	2.902766E-15	9.416459E-17
6.840000E+03	2.840590E-15	9.235276E-17
6.850000E+03	2.783097E-15	9.067425E-17
6.860000E+03	2.730040E-15	8.912301E-17
6.870000E+03	2.681191E-15	8.769328E-17
6.880000E+03	2.636305E-15	8.637856E-17
6.890000E+03	2.595168E-15	8.517307E-17
6.900000E+03	2.557488E-15	8.406833E-17
6.910000E+03	2.523015E-15	8.305705E-17
6.920000E+03	2.491509E-15	8.213207E-17
6.930000E+03	2.462777E-15	8.128772E-17
6.940000E+03	2.436536E-15	8.051519E-17
6.950000E+03	2.412662E-15	7.981092E-17
6.960000E+03	2.390944E-15	7.916838E-17
6.970000E+03	2.371225E-15	7.858285E-17
6.980000E+03	2.353402E-15	7.805137E-17
6.990000E+03	2.337288E-15	7.756812E-17
7.000000E+03	2.322814E-15	7.713132E-17
7.010000E+03	2.309895E-15	7.673850E-17
7.020000E+03	2.298456E-15	7.638764E-17
7.030000E+03	2.288436E-15	7.607702E-17
7.040000E+03	2.279746E-15	7.580407E-17
7.050000E+03	2.272408E-15	7.556982E-17
7.060000E+03	2.266309E-15	7.537083E-17
7.070000E+03	2.261443E-15	7.520713E-17
7.080000E+03	2.257737E-15	7.507647E-17
7.090000E+03	2.255183E-15	7.497884E-17
7.100000E+03	2.253706E-15	7.491182E-17
7.110000E+03	2.253294E-15	7.487521E-17
7.120000E+03	2.253900E-15	7.486749E-17
7.130000E+03	2.255401E-15	7.488469E-17
7.140000E+03	2.257849E-15	7.492847E-17
7.150000E+03	2.261077E-15	7.499332E-17
7.160000E+03	2.265093E-15	7.507943E-17
7.170000E+03	2.269760E-15	7.518211E-17
7.180000E+03	2.275077E-15	7.530123E-17
7.190000E+03	2.280934E-15	7.543300E-17
7.200000E+03	2.287253E-15	7.557467E-17
7.210000E+03	2.293990E-15	7.572463E-17
7.220000E+03	2.300989E-15	7.587754E-17
7.230000E+03	2.308199E-15	7.603167E-17
7.240000E+03	2.315497E-15	7.618283E-17
7.250000E+03	2.322868E-15	7.633050E-17
7.260000E+03	2.330149E-15	7.646934E-17
7.270000E+03	2.337329E-15	7.659899E-17
7.280000E+03	2.344211E-15	7.671304E-17
7.290000E+03	2.350826E-15	7.681270E-17
7.300000E+03	2.357023E-15	7.689313E-17
7.310000E+03	2.362771E-15	7.695353E-17
7.320000E+03	2.367970E-15	7.699085E-17
7.330000E+03	2.372607E-15	7.700490E-17
7.340000E+03	2.376600E-15	7.699332E-17
7.350000E+03	2.379958E-15	7.695668E-17
7.360000E+03	2.382663E-15	7.689470E-17
7.370000E+03	2.384629E-15	7.680494E-17
7.380000E+03	2.385981E-15	7.669180E-17
7.390000E+03	2.386616E-15	7.655237E-17
7.400000E+03	2.386683E-15	7.639185E-17
7.410000E+03	2.386140E-15	7.620932E-17
7.420000E+03	2.385072E-15	7.600798E-17
7.430000E+03	2.383493E-15	7.578869E-17
7.440000E+03	2.381539E-15	7.555628E-17
7.450000E+03	2.379188E-15	7.531046E-17
7.460000E+03	2.376501E-15	7.505348E-17
7.470000E+03	2.373574E-15	7.478874E-17
7.480000E+03	2.370423E-15	7.451683E-17
7.490000E+03	2.367138E-15	7.424058E-17
7.500000E+03	2.363680E-15	7.395862E-17
7.510000E+03	2.360167E-15	7.367422E-17
7.520000E+03	2.356545E-15	7.338503E-17
7.530000E+03	2.352878E-15	7.309206E-17
7.540000E+03	2.349175E-15	7.279449E-17
7.550000E+03	2.345444E-15	7.249107E-17
7.560000E+03	2.341683E-15	7.218015E-17
7.570000E+03	2.337842E-15	7.185855E-17
7.580000E+03	2.333953E-15	7.152545E-17
7.590000E+03	2.330000E-15	7.117878E-17
7.600000E+03	2.325969E-15	7.081656E-17
7.610000E+03	2.321843E-15	7.043701E-17
7.620000E+03	2.317566E-15	7.003737E-17
7.630000E+03	2.313166E-15	6.961766E-17
7.640000E+03	2.308632E-15	6.917684E-17
7.650000E+03	2.303913E-15	6.871278E-17
7.660000E+03	2.299084E-15	6.822710E-17
7.670000E+03	2.294058E-15	6.771635E-17
7.680000E+03	2.288870E-15	6.718055E-17
7.690000E+03	2.283475E-15	6.661692E-17
7.700000E+03	2.277952E-15	6.602581E-17
7.710000E+03	2.272212E-15	6.540219E-17
7.720000E+03	2.266293E-15	6.474395E-17
7.730000E+03	2.260188E-15	6.404707E-17
7.740000E+03	2.253850E-15	6.330555E-17
7.750000E+03	2.247313E-15	6.251489E-17
7.760000E+03	2.240567E-15	6.166852E-17
