#wls	flux	fluxerr
1.600000E+03	3.204399E-16	1.215653E-16
1.640000E+03	2.729875E-16	9.857429E-17
1.680000E+03	2.324771E-16	7.978114E-17
1.720000E+03	1.981008E-16	6.452556E-17
1.760000E+03	1.690586E-16	5.221064E-17
1.800000E+03	1.446253E-16	4.232210E-17
1.840000E+03	1.241772E-16	3.442882E-17
1.880000E+03	1.070912E-16	2.814753E-17
1.920000E+03	9.293356E-17	2.318829E-17
1.960000E+03	8.124669E-17	1.928924E-17
2.000000E+03	7.166357E-17	1.624227E-17
2.040000E+03	6.387750E-17	1.387914E-17
2.080000E+03	5.764649E-17	1.206745E-17
2.120000E+03	5.276186E-17	1.069970E-17
2.160000E+03	4.905745E-17	9.692175E-18
2.200000E+03	4.640385E-17	8.980799E-18
2.240000E+03	4.471174E-17	8.519172E-18
2.280000E+03	4.390231E-17	8.270638E-18
2.320000E+03	4.394611E-17	8.213795E-18
2.360000E+03	4.480260E-17	8.329471E-18
2.400000E+03	4.648218E-17	8.611126E-18
2.440000E+03	4.898610E-17	9.052722E-18
2.480000E+03	5.235300E-17	9.656714E-18
2.520000E+03	5.659412E-17	1.042156E-17
2.560000E+03	6.176087E-17	1.135368E-17
2.600000E+03	6.788742E-17	1.245616E-17
2.640000E+03	7.500509E-17	1.373045E-17
2.680000E+03	8.315420E-17	1.517720E-17
2.720000E+03	9.236089E-17	1.679054E-17
2.760000E+03	1.026815E-16	1.856452E-17
2.800000E+03	1.141505E-16	2.048225E-17
2.840000E+03	1.268288E-16	2.252349E-17
2.880000E+03	1.408167E-16	2.466611E-17
2.920000E+03	1.562026E-16	2.687631E-17
2.960000E+03	1.731715E-16	2.912723E-17
3.000000E+03	1.919089E-16	3.138146E-17
3.010000E+03	1.969208E-16	3.194498E-17
3.020000E+03	2.020585E-16	3.250498E-17
3.030000E+03	2.073252E-16	3.306068E-17
3.040000E+03	2.127249E-16	3.361129E-17
3.050000E+03	2.182894E-16	3.416043E-17
3.060000E+03	2.239956E-16	3.470294E-17
3.070000E+03	2.298768E-16	3.524248E-17
3.080000E+03	2.359089E-16	3.577375E-17
3.090000E+03	2.421267E-16	3.630047E-17
3.100000E+03	2.485362E-16	3.682184E-17
3.110000E+03	2.551123E-16	3.733243E-17
3.120000E+03	2.618915E-16	3.783598E-17
3.130000E+03	2.688805E-16	3.833162E-17
3.140000E+03	2.760526E-16	3.881383E-17
3.150000E+03	2.834802E-16	3.929104E-17
3.160000E+03	2.911375E-16	3.975770E-17
3.170000E+03	2.989964E-16	4.020820E-17
3.180000E+03	3.071330E-16	4.065102E-17
3.190000E+03	3.155199E-16	4.108055E-17
3.200000E+03	3.242007E-16	4.150058E-17
3.210000E+03	3.331093E-16	4.190079E-17
3.220000E+03	3.423267E-16	4.228969E-17
3.230000E+03	3.518614E-16	4.266641E-17
3.240000E+03	3.616827E-16	4.302540E-17
3.250000E+03	3.718368E-16	4.337052E-17
3.260000E+03	3.822912E-16	4.369634E-17
3.270000E+03	3.930930E-16	4.400681E-17
3.280000E+03	4.042920E-16	4.430592E-17
3.290000E+03	4.158116E-16	4.458383E-17
3.300000E+03	4.276999E-16	4.484476E-17
3.310000E+03	4.399632E-16	4.508839E-17
3.320000E+03	4.526518E-16	4.531907E-17
3.330000E+03	4.657272E-16	4.553227E-17
3.340000E+03	4.792397E-16	4.573264E-17
3.350000E+03	4.931476E-16	4.591617E-17
3.360000E+03	5.074529E-16	4.608359E-17
3.370000E+03	5.222541E-16	4.624455E-17
3.380000E+03	5.374564E-16	4.639162E-17
3.390000E+03	5.531589E-16	4.653492E-17
3.400000E+03	5.692608E-16	4.666785E-17
3.410000E+03	5.858610E-16	4.680104E-17
3.420000E+03	6.029047E-16	4.693285E-17
3.430000E+03	6.204389E-16	4.707019E-17
3.440000E+03	6.384030E-16	4.721206E-17
3.450000E+03	6.568408E-16	4.736574E-17
3.460000E+03	6.757407E-16	4.753455E-17
3.470000E+03	6.950878E-16	4.772185E-17
3.480000E+03	7.148645E-16	4.793093E-17
3.490000E+03	7.351071E-16	4.816872E-17
3.500000E+03	7.556757E-16	4.843048E-17
3.510000E+03	7.767171E-16	4.873000E-17
3.520000E+03	7.980831E-16	4.906185E-17
3.530000E+03	8.197982E-16	4.943131E-17
3.540000E+03	8.418246E-16	4.983941E-17
3.550000E+03	8.641219E-16	5.028663E-17
3.560000E+03	8.866469E-16	5.077290E-17
3.570000E+03	9.094176E-16	5.130118E-17
3.580000E+03	9.323894E-16	5.187029E-17
3.590000E+03	9.554535E-16	5.247512E-17
3.600000E+03	9.786928E-16	5.312069E-17
3.610000E+03	1.001936E-15	5.379768E-17
3.620000E+03	1.025271E-15	5.451045E-17
3.630000E+03	1.048596E-15	5.525275E-17
3.640000E+03	1.071943E-15	5.602510E-17
3.650000E+03	1.095282E-15	5.682454E-17
3.660000E+03	1.118592E-15	5.764808E-17
3.670000E+03	1.141787E-15	5.848944E-17
3.680000E+03	1.165054E-15	5.935601E-17
3.690000E+03	1.188193E-15	6.023501E-17
3.700000E+03	1.211402E-15	6.113409E-17
3.710000E+03	1.234560E-15	6.204430E-17
3.720000E+03	1.257748E-15	6.296697E-17
3.730000E+03	1.281054E-15	6.390357E-17
3.740000E+03	1.304437E-15	6.484915E-17
3.750000E+03	1.327925E-15	6.580218E-17
3.760000E+03	1.351677E-15	6.676775E-17
3.770000E+03	1.375584E-15	6.773780E-17
3.780000E+03	1.399731E-15	6.871392E-17
3.790000E+03	1.424122E-15	6.969419E-17
3.800000E+03	1.448816E-15	7.067946E-17
3.810000E+03	1.473785E-15	7.166683E-17
3.820000E+03	1.498919E-15	7.264964E-17
3.830000E+03	1.524210E-15	7.362687E-17
3.840000E+03	1.549562E-15	7.459359E-17
3.850000E+03	1.574855E-15	7.554414E-17
3.860000E+03	1.599943E-15	7.647217E-17
3.870000E+03	1.624722E-15	7.737375E-17
3.880000E+03	1.649004E-15	7.824136E-17
3.890000E+03	1.672524E-15	7.906420E-17
3.900000E+03	1.695135E-15	7.983732E-17
3.910000E+03	1.716686E-15	8.055572E-17
3.920000E+03	1.736841E-15	8.120591E-17
3.930000E+03	1.755462E-15	8.178372E-17
3.940000E+03	1.772365E-15	8.228273E-17
3.950000E+03	1.787447E-15	8.270019E-17
3.960000E+03	1.800514E-15	8.302884E-17
3.970000E+03	1.811462E-15	8.326547E-17
3.980000E+03	1.820279E-15	8.341074E-17
3.990000E+03	1.826877E-15	8.346138E-17
4.000000E+03	1.831259E-15	8.341815E-17
4.010000E+03	1.833524E-15	8.328552E-17
4.020000E+03	1.833689E-15	8.306418E-17
4.030000E+03	1.831863E-15	8.275840E-17
4.040000E+03	1.828229E-15	8.237563E-17
4.050000E+03	1.822841E-15	8.191710E-17
4.060000E+03	1.815969E-15	8.139368E-17
4.070000E+03	1.807698E-15	8.080767E-17
4.080000E+03	1.798265E-15	8.016806E-17
4.090000E+03	1.787813E-15	7.947961E-17
4.100000E+03	1.776574E-15	7.875095E-17
4.110000E+03	1.764639E-15	7.798453E-17
4.120000E+03	1.752223E-15	7.718826E-17
4.130000E+03	1.739441E-15	7.636578E-17
4.140000E+03	1.726442E-15	7.552208E-17
4.150000E+03	1.713358E-15	7.466153E-17
4.160000E+03	1.700233E-15	7.378466E-17
4.170000E+03	1.687216E-15	7.289647E-17
4.180000E+03	1.674331E-15	7.199661E-17
4.190000E+03	1.661705E-15	7.108897E-17
4.200000E+03	1.649385E-15	7.017390E-17
4.210000E+03	1.637411E-15	6.925154E-17
4.220000E+03	1.625793E-15	6.832049E-17
4.230000E+03	1.614634E-15	6.738334E-17
4.240000E+03	1.603972E-15	6.643984E-17
4.250000E+03	1.593818E-15	6.548863E-17
4.260000E+03	1.584220E-15	6.452987E-17
4.270000E+03	1.575256E-15	6.356519E-17
4.280000E+03	1.566955E-15	6.259425E-17
4.290000E+03	1.559383E-15	6.161842E-17
4.300000E+03	1.552613E-15	6.063971E-17
4.310000E+03	1.546724E-15	5.966081E-17
4.320000E+03	1.541807E-15	5.868526E-17
4.330000E+03	1.537908E-15	5.771565E-17
4.340000E+03	1.535160E-15	5.675862E-17
4.350000E+03	1.533651E-15	5.582014E-17
4.360000E+03	1.533499E-15	5.490851E-17
4.370000E+03	1.534849E-15	5.403444E-17
4.380000E+03	1.537774E-15	5.320781E-17
4.390000E+03	1.542417E-15	5.244297E-17
4.400000E+03	1.548889E-15	5.175550E-17
4.410000E+03	1.557313E-15	5.116392E-17
4.420000E+03	1.567752E-15	5.068734E-17
4.430000E+03	1.580339E-15	5.034985E-17
4.440000E+03	1.595113E-15	5.017476E-17
4.450000E+03	1.612104E-15	5.018681E-17
4.460000E+03	1.631261E-15	5.040883E-17
4.470000E+03	1.652536E-15	5.086290E-17
4.480000E+03	1.675790E-15	5.156396E-17
4.490000E+03	1.700839E-15	5.250811E-17
4.500000E+03	1.727522E-15	5.368079E-17
4.510000E+03	1.755572E-15	5.505987E-17
4.520000E+03	1.784670E-15	5.661812E-17
4.530000E+03	1.814487E-15	5.832593E-17
4.540000E+03	1.844597E-15	6.014932E-17
4.550000E+03	1.874575E-15	6.205391E-17
4.560000E+03	1.903960E-15	6.400421E-17
4.570000E+03	1.932211E-15	6.596260E-17
4.580000E+03	1.958844E-15	6.789417E-17
4.590000E+03	1.983347E-15	6.976407E-17
4.600000E+03	2.005194E-15	7.153807E-17
4.610000E+03	2.023910E-15	7.318500E-17
4.620000E+03	2.039064E-15	7.467657E-17
4.630000E+03	2.050282E-15	7.598805E-17
4.640000E+03	2.057290E-15	7.709977E-17
4.650000E+03	2.059847E-15	7.799481E-17
4.660000E+03	2.057857E-15	7.866314E-17
4.670000E+03	2.051269E-15	7.909801E-17
4.680000E+03	2.040186E-15	7.929986E-17
4.690000E+03	2.024780E-15	7.927325E-17
4.700000E+03	2.005314E-15	7.902750E-17
4.710000E+03	1.982153E-15	7.857716E-17
4.720000E+03	1.955704E-15	7.793945E-17
4.730000E+03	1.926402E-15	7.713358E-17
4.740000E+03	1.894783E-15	7.618366E-17
4.750000E+03	1.861333E-15	7.511230E-17
4.760000E+03	1.826583E-15	7.394438E-17
4.770000E+03	1.791009E-15	7.270274E-17
4.780000E+03	1.755081E-15	7.141018E-17
4.790000E+03	1.719196E-15	7.008634E-17
4.800000E+03	1.683768E-15	6.875156E-17
4.810000E+03	1.649067E-15	6.741992E-17
4.820000E+03	1.615433E-15	6.610813E-17
4.830000E+03	1.583039E-15	6.482578E-17
4.840000E+03	1.552090E-15	6.358340E-17
4.850000E+03	1.522724E-15	6.238860E-17
4.860000E+03	1.495040E-15	6.124706E-17
4.870000E+03	1.469084E-15	6.016202E-17
4.880000E+03	1.444903E-15	5.913671E-17
4.890000E+03	1.422487E-15	5.817171E-17
4.900000E+03	1.401820E-15	5.726732E-17
4.910000E+03	1.382889E-15	5.642374E-17
4.920000E+03	1.365620E-15	5.563866E-17
4.930000E+03	1.349983E-15	5.491139E-17
4.940000E+03	1.335929E-15	5.424036E-17
4.950000E+03	1.323413E-15	5.362403E-17
4.960000E+03	1.312379E-15	5.306033E-17
4.970000E+03	1.302809E-15	5.254862E-17
4.980000E+03	1.294679E-15	5.208792E-17
4.990000E+03	1.287964E-15	5.167704E-17
5.000000E+03	1.282676E-15	5.131629E-17
5.010000E+03	1.278812E-15	5.100514E-17
5.020000E+03	1.276392E-15	5.074396E-17
5.030000E+03	1.275462E-15	5.053389E-17
5.040000E+03	1.276059E-15	5.037562E-17
5.050000E+03	1.278197E-15	5.026879E-17
5.060000E+03	1.281953E-15	5.021514E-17
5.070000E+03	1.287376E-15	5.021515E-17
5.080000E+03	1.294486E-15	5.026786E-17
5.090000E+03	1.303359E-15	5.037411E-17
5.100000E+03	1.314039E-15	5.053314E-17
5.110000E+03	1.326536E-15	5.074248E-17
5.120000E+03	1.340927E-15	5.100172E-17
5.130000E+03	1.357193E-15	5.130644E-17
5.140000E+03	1.375383E-15	5.165412E-17
5.150000E+03	1.395490E-15	5.203973E-17
5.160000E+03	1.417528E-15	5.245840E-17
5.170000E+03	1.441471E-15	5.290320E-17
5.180000E+03	1.467309E-15	5.336726E-17
5.190000E+03	1.494990E-15	5.384157E-17
5.200000E+03	1.524460E-15	5.431661E-17
5.210000E+03	1.555669E-15	5.478238E-17
5.220000E+03	1.588515E-15	5.522679E-17
5.230000E+03	1.622913E-15	5.563804E-17
5.240000E+03	1.658726E-15	5.600254E-17
5.250000E+03	1.695817E-15	5.630691E-17
5.260000E+03	1.734050E-15	5.653843E-17
5.270000E+03	1.773256E-15	5.668437E-17
5.280000E+03	1.813214E-15	5.673206E-17
5.290000E+03	1.853767E-15	5.667328E-17
5.300000E+03	1.894691E-15	5.650111E-17
5.310000E+03	1.935797E-15	5.621402E-17
5.320000E+03	1.976854E-15	5.581487E-17
5.330000E+03	2.017650E-15	5.531415E-17
5.340000E+03	2.057978E-15	5.473089E-17
5.350000E+03	2.097640E-15	5.409425E-17
5.360000E+03	2.136448E-15	5.344468E-17
5.370000E+03	2.174228E-15	5.283453E-17
5.380000E+03	2.210822E-15	5.232748E-17
5.390000E+03	2.246067E-15	5.199563E-17
5.400000E+03	2.279887E-15	5.191674E-17
5.410000E+03	2.312132E-15	5.216316E-17
5.420000E+03	2.342714E-15	5.279433E-17
5.430000E+03	2.371557E-15	5.382097E-17
5.440000E+03	2.398529E-15	5.520480E-17
5.450000E+03	2.423531E-15	5.688911E-17
5.460000E+03	2.446500E-15	5.880765E-17
5.470000E+03	2.467333E-15	6.089025E-17
5.480000E+03	2.485962E-15	6.307003E-17
5.490000E+03	2.502349E-15	6.528689E-17
5.500000E+03	2.516419E-15	6.748739E-17
5.510000E+03	2.528179E-15	6.962860E-17
5.520000E+03	2.537570E-15	7.167394E-17
5.530000E+03	2.544629E-15	7.359676E-17
5.540000E+03	2.549330E-15	7.537540E-17
5.550000E+03	2.551675E-15	7.699456E-17
5.560000E+03	2.551718E-15	7.844539E-17
5.570000E+03	2.549548E-15	7.972417E-17
5.580000E+03	2.545289E-15	8.083172E-17
5.590000E+03	2.539107E-15	8.177291E-17
5.600000E+03	2.531184E-15	8.255528E-17
5.610000E+03	2.521811E-15	8.319181E-17
5.620000E+03	2.511220E-15	8.369471E-17
5.630000E+03	2.499745E-15	8.408055E-17
5.640000E+03	2.487742E-15	8.436734E-17
5.650000E+03	2.475508E-15	8.457146E-17
5.660000E+03	2.463419E-15	8.471212E-17
5.670000E+03	2.451822E-15	8.480755E-17
5.680000E+03	2.441048E-15	8.487533E-17
5.690000E+03	2.431404E-15	8.493197E-17
5.700000E+03	2.423184E-15	8.499334E-17
5.710000E+03	2.416571E-15	8.507100E-17
5.720000E+03	2.411765E-15	8.517687E-17
5.730000E+03	2.408889E-15	8.531962E-17
5.740000E+03	2.408001E-15	8.550535E-17
5.750000E+03	2.409093E-15	8.573740E-17
5.760000E+03	2.412087E-15	8.601627E-17
5.770000E+03	2.416816E-15	8.633874E-17
5.780000E+03	2.423089E-15	8.670045E-17
5.790000E+03	2.430626E-15	8.709345E-17
5.800000E+03	2.439066E-15	8.750646E-17
5.810000E+03	2.448043E-15	8.792760E-17
5.820000E+03	2.457100E-15	8.834141E-17
5.830000E+03	2.465776E-15	8.873183E-17
5.840000E+03	2.473590E-15	8.908183E-17
5.850000E+03	2.480063E-15	8.937402E-17
5.860000E+03	2.484728E-15	8.959129E-17
5.870000E+03	2.487149E-15	8.971740E-17
5.880000E+03	2.486908E-15	8.973681E-17
5.890000E+03	2.483698E-15	8.963781E-17
5.900000E+03	2.477208E-15	8.940875E-17
5.910000E+03	2.467299E-15	8.904444E-17
5.920000E+03	2.453826E-15	8.853955E-17
5.930000E+03	2.436799E-15	8.789471E-17
5.940000E+03	2.416268E-15	8.711219E-17
5.950000E+03	2.392388E-15	8.619830E-17
5.960000E+03	2.365389E-15	8.516215E-17
5.970000E+03	2.335543E-15	8.401447E-17
5.980000E+03	2.303201E-15	8.276876E-17
5.990000E+03	2.268776E-15	8.144067E-17
6.000000E+03	2.232624E-15	8.004358E-17
6.010000E+03	2.195226E-15	7.859514E-17
6.020000E+03	2.157000E-15	7.711047E-17
6.030000E+03	2.118379E-15	7.560488E-17
6.040000E+03	2.079737E-15	7.409126E-17
6.050000E+03	2.041481E-15	7.258341E-17
6.060000E+03	2.003962E-15	7.109285E-17
6.070000E+03	1.967472E-15	6.962870E-17
6.080000E+03	1.932262E-15	6.819833E-17
6.090000E+03	1.898574E-15	6.680855E-17
6.100000E+03	1.866568E-15	6.546299E-17
6.110000E+03	1.836376E-15	6.416413E-17
6.120000E+03	1.808090E-15	6.291269E-17
6.130000E+03	1.781761E-15	6.170777E-17
6.140000E+03	1.757390E-15	6.054640E-17
6.150000E+03	1.734994E-15	5.942605E-17
6.160000E+03	1.714530E-15	5.834184E-17
6.170000E+03	1.695917E-15	5.728738E-17
6.180000E+03	1.679089E-15	5.625670E-17
6.190000E+03	1.663964E-15	5.524323E-17
6.200000E+03	1.650406E-15	5.423857E-17
6.210000E+03	1.638337E-15	5.323642E-17
6.220000E+03	1.627650E-15	5.222968E-17
6.230000E+03	1.618209E-15	5.121081E-17
6.240000E+03	1.609940E-15	5.017472E-17
6.250000E+03	1.602762E-15	4.911705E-17
6.260000E+03	1.596613E-15	4.803506E-17
6.270000E+03	1.591467E-15	4.692846E-17
6.280000E+03	1.587302E-15	4.579889E-17
6.290000E+03	1.584101E-15	4.465043E-17
6.300000E+03	1.581928E-15	4.349229E-17
6.310000E+03	1.580787E-15	4.233538E-17
6.320000E+03	1.580758E-15	4.119680E-17
6.330000E+03	1.581880E-15	4.009741E-17
6.340000E+03	1.584260E-15	3.906520E-17
6.350000E+03	1.587918E-15	3.813188E-17
6.360000E+03	1.592930E-15	3.733616E-17
6.370000E+03	1.599320E-15	3.672019E-17
6.380000E+03	1.607106E-15	3.632831E-17
6.390000E+03	1.616241E-15	3.620216E-17
6.400000E+03	1.626714E-15	3.637785E-17
6.410000E+03	1.638429E-15	3.687091E-17
6.420000E+03	1.651248E-15	3.766356E-17
6.430000E+03	1.665041E-15	3.872384E-17
6.440000E+03	1.679622E-15	4.001101E-17
6.450000E+03	1.694744E-15	4.147976E-17
6.460000E+03	1.710139E-15	4.308433E-17
6.470000E+03	1.725484E-15	4.477983E-17
6.480000E+03	1.740463E-15	4.652488E-17
6.490000E+03	1.754697E-15	4.828032E-17
6.500000E+03	1.767791E-15	5.001016E-17
6.510000E+03	1.779342E-15	5.168166E-17
6.520000E+03	1.788951E-15	5.326519E-17
6.530000E+03	1.796210E-15	5.473368E-17
6.540000E+03	1.800759E-15	5.606379E-17
6.550000E+03	1.802254E-15	5.723488E-17
6.560000E+03	1.800437E-15	5.823097E-17
6.570000E+03	1.795052E-15	5.903785E-17
6.580000E+03	1.785963E-15	5.964693E-17
6.590000E+03	1.773092E-15	6.005288E-17
6.600000E+03	1.756412E-15	6.025360E-17
6.610000E+03	1.735994E-15	6.025139E-17
6.620000E+03	1.711982E-15	6.005219E-17
6.630000E+03	1.684570E-15	5.966463E-17
6.640000E+03	1.654070E-15	5.910222E-17
6.650000E+03	1.620788E-15	5.837904E-17
6.660000E+03	1.585094E-15	5.751182E-17
6.670000E+03	1.547367E-15	5.651810E-17
6.680000E+03	1.508058E-15	5.541823E-17
6.690000E+03	1.467555E-15	5.423042E-17
6.700000E+03	1.426310E-15	5.297524E-17
6.710000E+03	1.384692E-15	5.167023E-17
6.720000E+03	1.343113E-15	5.033437E-17
6.730000E+03	1.301909E-15	4.898360E-17
6.740000E+03	1.261409E-15	4.763350E-17
6.750000E+03	1.221875E-15	4.629689E-17
6.760000E+03	1.183545E-15	4.498541E-17
6.770000E+03	1.146629E-15	4.370943E-17
6.780000E+03	1.111270E-15	4.247657E-17
6.790000E+03	1.077600E-15	4.129379E-17
6.800000E+03	1.045704E-15	4.016600E-17
6.810000E+03	1.015632E-15	3.909669E-17
6.820000E+03	9.873981E-16	3.808768E-17
6.830000E+03	9.610136E-16	3.714061E-17
6.840000E+03	9.364583E-16	3.625572E-17
6.850000E+03	9.137056E-16	3.543293E-17
6.860000E+03	8.926840E-16	3.467031E-17
6.870000E+03	8.733447E-16	3.396671E-17
6.880000E+03	8.556209E-16	3.332025E-17
6.890000E+03	8.394419E-16	3.272880E-17
6.900000E+03	8.247351E-16	3.219012E-17
6.910000E+03	8.114373E-16	3.170230E-17
6.920000E+03	7.994675E-16	3.126267E-17
6.930000E+03	7.887481E-16	3.086865E-17
6.940000E+03	7.792332E-16	3.051886E-17
6.950000E+03	7.708532E-16	3.021097E-17
6.960000E+03	7.635618E-16	2.994352E-17
6.970000E+03	7.572904E-16	2.971412E-17
6.980000E+03	7.520123E-16	2.952203E-17
6.990000E+03	7.476695E-16	2.936520E-17
7.000000E+03	7.442452E-16	2.924322E-17
7.010000E+03	7.417096E-16	2.915509E-17
7.020000E+03	7.400192E-16	2.909928E-17
7.030000E+03	7.391710E-16	2.907577E-17
7.040000E+03	7.391296E-16	2.908329E-17
7.050000E+03	7.398988E-16	2.912203E-17
7.060000E+03	7.414585E-16	2.919125E-17
7.070000E+03	7.437993E-16	2.929057E-17
7.080000E+03	7.469134E-16	2.941968E-17
7.090000E+03	7.508028E-16	2.957860E-17
7.100000E+03	7.554417E-16	2.976627E-17
7.110000E+03	7.608402E-16	2.998300E-17
7.120000E+03	7.669692E-16	3.022756E-17
7.130000E+03	7.738343E-16	3.050009E-17
7.140000E+03	7.814094E-16	3.079945E-17
7.150000E+03	7.896731E-16	3.112471E-17
7.160000E+03	7.985992E-16	3.147476E-17
7.170000E+03	8.081555E-16	3.184826E-17
7.180000E+03	8.183043E-16	3.224366E-17
7.190000E+03	8.290011E-16	3.265917E-17
7.200000E+03	8.402059E-16	3.309321E-17
7.210000E+03	8.518408E-16	3.354269E-17
7.220000E+03	8.638645E-16	3.400602E-17
7.230000E+03	8.761869E-16	3.447967E-17
7.240000E+03	8.887577E-16	3.496169E-17
7.250000E+03	9.014894E-16	3.544870E-17
7.260000E+03	9.143035E-16	3.593763E-17
7.270000E+03	9.271205E-16	3.642541E-17
7.280000E+03	9.398734E-16	3.690944E-17
7.290000E+03	9.524619E-16	3.738580E-17
7.300000E+03	9.648377E-16	3.785265E-17
7.310000E+03	9.769220E-16	3.830691E-17
7.320000E+03	9.886552E-16	3.874629E-17
7.330000E+03	9.999991E-16	3.916936E-17
7.340000E+03	1.010899E-15	3.957405E-17
7.350000E+03	1.021323E-15	3.995922E-17
7.360000E+03	1.031247E-15	4.032414E-17
7.370000E+03	1.040674E-15	4.066906E-17
7.380000E+03	1.049571E-15	4.099298E-17
7.390000E+03	1.057969E-15	4.129741E-17
7.400000E+03	1.065877E-15	4.158308E-17
7.410000E+03	1.073283E-15	4.184984E-17
7.420000E+03	1.080217E-15	4.209932E-17
7.430000E+03	1.086703E-15	4.233271E-17
7.440000E+03	1.092775E-15	4.255176E-17
7.450000E+03	1.098430E-15	4.275653E-17
7.460000E+03	1.103705E-15	4.294870E-17
7.470000E+03	1.108627E-15	4.312930E-17
7.480000E+03	1.113222E-15	4.329923E-17
7.490000E+03	1.117519E-15	4.345932E-17
7.500000E+03	1.121547E-15	4.361029E-17
7.510000E+03	1.125341E-15	4.375277E-17
7.520000E+03	1.128939E-15	4.388734E-17
7.530000E+03	1.132368E-15	4.401393E-17
7.540000E+03	1.135705E-15	4.413420E-17
7.550000E+03	1.138972E-15	4.424746E-17
7.560000E+03	1.142238E-15	4.435478E-17
7.570000E+03	1.145563E-15	4.445668E-17
7.580000E+03	1.148991E-15	4.455306E-17
7.590000E+03	1.152583E-15	4.464443E-17
7.600000E+03	1.156425E-15	4.473248E-17
7.610000E+03	1.160538E-15	4.481642E-17
7.620000E+03	1.164966E-15	4.489647E-17
7.630000E+03	1.169741E-15	4.497259E-17
7.640000E+03	1.174896E-15	4.504494E-17
7.650000E+03	1.180433E-15	4.511253E-17
7.660000E+03	1.186300E-15	4.517243E-17
7.670000E+03	1.192490E-15	4.522333E-17
7.680000E+03	1.198923E-15	4.526115E-17
7.690000E+03	1.205512E-15	4.528142E-17
7.700000E+03	1.212165E-15	4.527928E-17
7.710000E+03	1.218730E-15	4.524769E-17
7.720000E+03	1.225057E-15	4.517935E-17
7.730000E+03	1.230973E-15	4.506628E-17
7.740000E+03	1.236309E-15	4.490058E-17
7.750000E+03	1.240853E-15	4.467290E-17
7.760000E+03	1.244403E-15	4.437453E-17
