#wls	flux	fluxerr
1.600000E+03	3.641033E-16	1.315324E-16
1.640000E+03	3.079553E-16	1.053858E-16
1.680000E+03	2.603669E-16	8.422788E-17
1.720000E+03	2.201414E-16	6.718914E-17
1.760000E+03	1.863039E-16	5.355589E-17
1.800000E+03	1.580300E-16	4.273115E-17
1.840000E+03	1.344987E-16	3.418422E-17
1.880000E+03	1.149697E-16	2.746762E-17
1.920000E+03	9.883202E-17	2.221996E-17
1.960000E+03	8.559648E-17	1.815242E-17
2.000000E+03	7.479470E-17	1.501834E-17
2.040000E+03	6.606971E-17	1.262658E-17
2.080000E+03	5.910397E-17	1.082014E-17
2.120000E+03	5.367591E-17	9.482029E-18
2.160000E+03	4.957026E-17	8.514560E-18
2.200000E+03	4.665748E-17	7.850387E-18
2.240000E+03	4.482434E-17	7.437135E-18
2.280000E+03	4.399099E-17	7.237758E-18
2.320000E+03	4.409845E-17	7.225964E-18
2.360000E+03	4.512902E-17	7.387484E-18
2.400000E+03	4.708663E-17	7.715347E-18
2.440000E+03	4.998524E-17	8.207022E-18
2.480000E+03	5.383275E-17	8.861220E-18
2.520000E+03	5.868886E-17	9.687078E-18
2.560000E+03	6.457815E-17	1.068952E-17
2.600000E+03	7.154080E-17	1.187686E-17
2.640000E+03	7.958580E-17	1.325173E-17
2.680000E+03	8.874987E-17	1.481889E-17
2.720000E+03	9.902305E-17	1.657059E-17
2.760000E+03	1.104358E-16	1.849876E-17
2.800000E+03	1.229928E-16	2.058224E-17
2.840000E+03	1.367266E-16	2.279462E-17
2.880000E+03	1.516916E-16	2.510272E-17
2.920000E+03	1.679954E-16	2.747177E-17
2.960000E+03	1.857638E-16	2.985959E-17
3.000000E+03	2.051926E-16	3.222503E-17
3.010000E+03	2.103591E-16	3.281128E-17
3.020000E+03	2.156453E-16	3.339211E-17
3.030000E+03	2.210254E-16	3.396212E-17
3.040000E+03	2.265613E-16	3.452945E-17
3.050000E+03	2.322585E-16	3.509330E-17
3.060000E+03	2.380914E-16	3.564823E-17
3.070000E+03	2.440641E-16	3.619330E-17
3.080000E+03	2.502129E-16	3.673228E-17
3.090000E+03	2.565112E-16	3.725953E-17
3.100000E+03	2.629967E-16	3.777885E-17
3.110000E+03	2.696417E-16	3.828451E-17
3.120000E+03	2.764853E-16	3.878029E-17
3.130000E+03	2.835340E-16	3.926523E-17
3.140000E+03	2.907588E-16	3.973345E-17
3.150000E+03	2.982368E-16	4.019362E-17
3.160000E+03	3.059032E-16	4.063496E-17
3.170000E+03	3.138001E-16	4.106125E-17
3.180000E+03	3.219722E-16	4.147628E-17
3.190000E+03	3.303512E-16	4.186918E-17
3.200000E+03	3.390202E-16	4.224858E-17
3.210000E+03	3.479480E-16	4.260847E-17
3.220000E+03	3.571413E-16	4.294772E-17
3.230000E+03	3.666477E-16	4.327005E-17
3.240000E+03	3.764337E-16	4.356949E-17
3.250000E+03	3.865479E-16	4.384977E-17
3.260000E+03	3.969552E-16	4.410500E-17
3.270000E+03	4.077050E-16	4.433897E-17
3.280000E+03	4.188047E-16	4.455069E-17
3.290000E+03	4.302612E-16	4.473925E-17
3.300000E+03	4.420812E-16	4.490384E-17
3.310000E+03	4.542709E-16	4.504379E-17
3.320000E+03	4.668356E-16	4.515857E-17
3.330000E+03	4.798286E-16	4.525239E-17
3.340000E+03	4.932073E-16	4.532053E-17
3.350000E+03	5.069753E-16	4.536312E-17
3.360000E+03	5.211855E-16	4.538504E-17
3.370000E+03	5.358417E-16	4.538694E-17
3.380000E+03	5.509470E-16	4.536985E-17
3.390000E+03	5.664504E-16	4.533107E-17
3.400000E+03	5.824571E-16	4.528106E-17
3.410000E+03	5.989143E-16	4.521806E-17
3.420000E+03	6.158748E-16	4.514919E-17
3.430000E+03	6.332256E-16	4.506994E-17
3.440000E+03	6.511283E-16	4.499634E-17
3.450000E+03	6.694653E-16	4.492488E-17
3.460000E+03	6.882844E-16	4.486409E-17
3.470000E+03	7.075752E-16	4.481862E-17
3.480000E+03	7.273237E-16	4.479304E-17
3.490000E+03	7.475120E-16	4.479173E-17
3.500000E+03	7.681786E-16	4.482226E-17
3.510000E+03	7.892979E-16	4.488805E-17
3.520000E+03	8.107769E-16	4.498853E-17
3.530000E+03	8.326400E-16	4.512948E-17
3.540000E+03	8.548456E-16	4.531245E-17
3.550000E+03	8.773474E-16	4.553829E-17
3.560000E+03	9.001598E-16	4.581048E-17
3.570000E+03	9.231660E-16	4.612516E-17
3.580000E+03	9.463110E-16	4.648128E-17
3.590000E+03	9.696719E-16	4.688368E-17
3.600000E+03	9.930629E-16	4.732379E-17
3.610000E+03	1.016565E-15	4.780556E-17
3.620000E+03	1.040062E-15	4.832304E-17
3.630000E+03	1.063509E-15	4.887330E-17
3.640000E+03	1.086931E-15	4.945636E-17
3.650000E+03	1.110293E-15	5.006899E-17
3.660000E+03	1.133566E-15	5.070797E-17
3.670000E+03	1.156725E-15	5.137008E-17
3.680000E+03	1.179754E-15	5.205220E-17
3.690000E+03	1.202714E-15	5.275433E-17
3.700000E+03	1.225608E-15	5.347362E-17
3.710000E+03	1.248381E-15	5.420449E-17
3.720000E+03	1.271196E-15	5.495060E-17
3.730000E+03	1.293956E-15	5.570404E-17
3.740000E+03	1.316850E-15	5.646914E-17
3.750000E+03	1.339941E-15	5.724462E-17
3.760000E+03	1.363230E-15	5.802661E-17
3.770000E+03	1.386858E-15	5.881732E-17
3.780000E+03	1.410895E-15	5.961607E-17
3.790000E+03	1.435467E-15	6.042488E-17
3.800000E+03	1.460481E-15	6.123686E-17
3.810000E+03	1.486085E-15	6.205590E-17
3.820000E+03	1.512260E-15	6.287935E-17
3.830000E+03	1.538947E-15	6.370363E-17
3.840000E+03	1.565980E-15	6.452145E-17
3.850000E+03	1.593346E-15	6.533274E-17
3.860000E+03	1.620794E-15	6.612829E-17
3.870000E+03	1.648100E-15	6.690085E-17
3.880000E+03	1.675012E-15	6.764262E-17
3.890000E+03	1.701318E-15	6.834801E-17
3.900000E+03	1.726727E-15	6.900860E-17
3.910000E+03	1.750877E-15	6.961347E-17
3.920000E+03	1.773608E-15	7.015982E-17
3.930000E+03	1.794516E-15	7.063515E-17
3.940000E+03	1.813416E-15	7.103553E-17
3.950000E+03	1.830093E-15	7.135549E-17
3.960000E+03	1.844429E-15	7.159322E-17
3.970000E+03	1.856173E-15	7.174116E-17
3.980000E+03	1.865307E-15	7.180047E-17
3.990000E+03	1.871860E-15	7.177368E-17
4.000000E+03	1.875741E-15	7.165806E-17
4.010000E+03	1.877140E-15	7.146130E-17
4.020000E+03	1.876123E-15	7.118565E-17
4.030000E+03	1.872799E-15	7.083465E-17
4.040000E+03	1.867423E-15	7.041681E-17
4.050000E+03	1.860220E-15	6.993909E-17
4.060000E+03	1.851430E-15	6.940874E-17
4.070000E+03	1.841254E-15	6.883125E-17
4.080000E+03	1.829944E-15	6.821396E-17
4.090000E+03	1.817743E-15	6.756390E-17
4.100000E+03	1.804836E-15	6.688604E-17
4.110000E+03	1.791479E-15	6.618825E-17
4.120000E+03	1.777862E-15	6.547611E-17
4.130000E+03	1.764022E-15	6.474996E-17
4.140000E+03	1.750233E-15	6.401899E-17
4.150000E+03	1.736493E-15	6.328250E-17
4.160000E+03	1.722947E-15	6.254517E-17
4.170000E+03	1.709643E-15	6.180815E-17
4.180000E+03	1.696615E-15	6.107204E-17
4.190000E+03	1.683923E-15	6.033831E-17
4.200000E+03	1.671583E-15	5.960663E-17
4.210000E+03	1.659640E-15	5.887757E-17
4.220000E+03	1.648102E-15	5.815017E-17
4.230000E+03	1.636977E-15	5.742335E-17
4.240000E+03	1.626308E-15	5.669712E-17
4.250000E+03	1.616079E-15	5.596934E-17
4.260000E+03	1.606313E-15	5.523925E-17
4.270000E+03	1.597102E-15	5.450847E-17
4.280000E+03	1.588428E-15	5.377495E-17
4.290000E+03	1.580374E-15	5.304032E-17
4.300000E+03	1.573005E-15	5.230585E-17
4.310000E+03	1.566375E-15	5.157273E-17
4.320000E+03	1.560634E-15	5.084571E-17
4.330000E+03	1.555841E-15	5.012694E-17
4.340000E+03	1.552124E-15	4.942144E-17
4.350000E+03	1.549677E-15	4.873695E-17
4.360000E+03	1.548580E-15	4.807847E-17
4.370000E+03	1.549052E-15	4.745631E-17
4.380000E+03	1.551270E-15	4.688063E-17
4.390000E+03	1.555388E-15	4.636239E-17
4.400000E+03	1.561611E-15	4.591551E-17
4.410000E+03	1.570087E-15	4.555394E-17
4.420000E+03	1.580971E-15	4.529366E-17
4.430000E+03	1.594400E-15	4.515154E-17
4.440000E+03	1.610475E-15	4.514480E-17
4.450000E+03	1.629283E-15	4.529081E-17
4.460000E+03	1.650839E-15	4.560449E-17
4.470000E+03	1.675101E-15	4.609749E-17
4.480000E+03	1.702014E-15	4.677774E-17
4.490000E+03	1.731416E-15	4.764415E-17
4.500000E+03	1.763123E-15	4.868967E-17
4.510000E+03	1.796809E-15	4.989916E-17
4.520000E+03	1.832168E-15	5.125483E-17
4.530000E+03	1.868722E-15	5.273184E-17
4.540000E+03	1.905997E-15	5.430389E-17
4.550000E+03	1.943428E-15	5.594134E-17
4.560000E+03	1.980391E-15	5.761254E-17
4.570000E+03	2.016244E-15	5.928537E-17
4.580000E+03	2.050286E-15	6.092638E-17
4.590000E+03	2.081828E-15	6.250308E-17
4.600000E+03	2.110135E-15	6.398232E-17
4.610000E+03	2.134587E-15	6.533518E-17
4.620000E+03	2.154561E-15	6.653376E-17
4.630000E+03	2.169545E-15	6.755448E-17
4.640000E+03	2.179103E-15	6.837711E-17
4.650000E+03	2.182971E-15	6.898801E-17
4.660000E+03	2.180943E-15	6.937619E-17
4.670000E+03	2.173061E-15	6.953961E-17
4.680000E+03	2.159432E-15	6.947909E-17
4.690000E+03	2.140328E-15	6.920157E-17
4.700000E+03	2.116149E-15	6.871886E-17
4.710000E+03	2.087405E-15	6.804714E-17
4.720000E+03	2.054694E-15	6.720625E-17
4.730000E+03	2.018678E-15	6.621899E-17
4.740000E+03	1.980078E-15	6.511101E-17
4.750000E+03	1.939605E-15	6.390828E-17
4.760000E+03	1.897956E-15	6.263691E-17
4.770000E+03	1.855795E-15	6.132220E-17
4.780000E+03	1.813736E-15	5.998779E-17
4.790000E+03	1.772265E-15	5.865279E-17
4.800000E+03	1.731881E-15	5.733639E-17
4.810000E+03	1.692925E-15	5.605196E-17
4.820000E+03	1.655698E-15	5.481118E-17
4.830000E+03	1.620447E-15	5.362343E-17
4.840000E+03	1.587290E-15	5.249349E-17
4.850000E+03	1.556360E-15	5.142628E-17
4.860000E+03	1.527642E-15	5.042168E-17
4.870000E+03	1.501183E-15	4.948157E-17
4.880000E+03	1.476903E-15	4.860358E-17
4.890000E+03	1.454744E-15	4.778618E-17
4.900000E+03	1.434592E-15	4.702606E-17
4.910000E+03	1.416351E-15	4.632058E-17
4.920000E+03	1.399881E-15	4.566581E-17
4.930000E+03	1.385093E-15	4.505934E-17
4.940000E+03	1.371836E-15	4.449674E-17
4.950000E+03	1.360021E-15	4.397543E-17
4.960000E+03	1.349543E-15	4.349226E-17
4.970000E+03	1.340363E-15	4.304614E-17
4.980000E+03	1.332423E-15	4.263523E-17
4.990000E+03	1.325689E-15	4.225853E-17
5.000000E+03	1.320198E-15	4.191731E-17
5.010000E+03	1.315966E-15	4.161219E-17
5.020000E+03	1.313062E-15	4.134542E-17
5.030000E+03	1.311528E-15	4.111840E-17
5.040000E+03	1.311478E-15	4.093473E-17
5.050000E+03	1.312991E-15	4.079680E-17
5.060000E+03	1.316181E-15	4.070788E-17
5.070000E+03	1.321132E-15	4.067010E-17
5.080000E+03	1.327954E-15	4.068617E-17
5.090000E+03	1.336735E-15	4.075782E-17
5.100000E+03	1.347541E-15	4.088574E-17
5.110000E+03	1.360444E-15	4.107037E-17
5.120000E+03	1.375518E-15	4.131187E-17
5.130000E+03	1.392811E-15	4.160914E-17
5.140000E+03	1.412363E-15	4.196034E-17
5.150000E+03	1.434186E-15	4.236234E-17
5.160000E+03	1.458309E-15	4.281214E-17
5.170000E+03	1.484737E-15	4.330544E-17
5.180000E+03	1.513443E-15	4.383661E-17
5.190000E+03	1.544434E-15	4.440046E-17
5.200000E+03	1.577631E-15	4.498892E-17
5.210000E+03	1.612970E-15	4.559373E-17
5.220000E+03	1.650395E-15	4.620639E-17
5.230000E+03	1.689761E-15	4.681529E-17
5.240000E+03	1.730945E-15	4.740913E-17
5.250000E+03	1.773763E-15	4.797473E-17
5.260000E+03	1.818045E-15	4.849937E-17
5.270000E+03	1.863576E-15	4.896978E-17
5.280000E+03	1.910126E-15	4.937331E-17
5.290000E+03	1.957427E-15	4.969814E-17
5.300000E+03	2.005220E-15	4.993524E-17
5.310000E+03	2.053263E-15	5.007951E-17
5.320000E+03	2.101270E-15	5.012944E-17
5.330000E+03	2.149006E-15	5.009052E-17
5.340000E+03	2.196200E-15	4.997447E-17
5.350000E+03	2.242613E-15	4.980200E-17
5.360000E+03	2.288049E-15	4.960346E-17
5.370000E+03	2.332260E-15	4.941687E-17
5.380000E+03	2.375115E-15	4.929033E-17
5.390000E+03	2.416434E-15	4.927559E-17
5.400000E+03	2.456060E-15	4.942488E-17
5.410000E+03	2.493934E-15	4.978589E-17
5.420000E+03	2.529918E-15	5.039080E-17
5.430000E+03	2.563954E-15	5.124771E-17
5.440000E+03	2.595965E-15	5.233818E-17
5.450000E+03	2.625881E-15	5.362686E-17
5.460000E+03	2.653616E-15	5.506709E-17
5.470000E+03	2.679165E-15	5.660929E-17
5.480000E+03	2.702409E-15	5.820201E-17
5.490000E+03	2.723299E-15	5.979922E-17
5.500000E+03	2.741717E-15	6.135930E-17
5.510000E+03	2.757583E-15	6.284812E-17
5.520000E+03	2.770747E-15	6.423668E-17
5.530000E+03	2.781108E-15	6.550333E-17
5.540000E+03	2.788517E-15	6.663077E-17
5.550000E+03	2.792899E-15	6.760821E-17
5.560000E+03	2.794216E-15	6.842978E-17
5.570000E+03	2.792397E-15	6.909211E-17
5.580000E+03	2.787521E-15	6.959808E-17
5.590000E+03	2.779711E-15	6.995385E-17
5.600000E+03	2.769196E-15	7.016975E-17
5.610000E+03	2.756204E-15	7.025711E-17
5.620000E+03	2.741148E-15	7.023252E-17
5.630000E+03	2.724397E-15	7.011167E-17
5.640000E+03	2.706487E-15	6.991433E-17
5.650000E+03	2.687884E-15	6.965824E-17
5.660000E+03	2.669184E-15	6.936400E-17
5.670000E+03	2.650908E-15	6.904985E-17
5.680000E+03	2.633567E-15	6.873324E-17
5.690000E+03	2.617690E-15	6.843174E-17
5.700000E+03	2.603760E-15	6.816140E-17
5.710000E+03	2.592121E-15	6.793437E-17
5.720000E+03	2.583118E-15	6.776263E-17
5.730000E+03	2.576961E-15	6.765439E-17
5.740000E+03	2.573835E-15	6.761710E-17
5.750000E+03	2.573725E-15	6.765260E-17
5.760000E+03	2.576557E-15	6.776101E-17
5.770000E+03	2.582172E-15	6.793995E-17
5.780000E+03	2.590276E-15	6.818325E-17
5.790000E+03	2.600420E-15	6.848039E-17
5.800000E+03	2.612160E-15	6.882071E-17
5.810000E+03	2.624893E-15	6.918897E-17
5.820000E+03	2.637972E-15	6.956840E-17
5.830000E+03	2.650702E-15	6.994051E-17
5.840000E+03	2.662340E-15	7.028488E-17
5.850000E+03	2.672194E-15	7.058192E-17
5.860000E+03	2.679552E-15	7.081087E-17
5.870000E+03	2.683807E-15	7.095335E-17
5.880000E+03	2.684377E-15	7.099152E-17
5.890000E+03	2.680784E-15	7.091033E-17
5.900000E+03	2.672714E-15	7.069956E-17
5.910000E+03	2.659954E-15	7.035236E-17
5.920000E+03	2.642397E-15	6.986550E-17
5.930000E+03	2.620090E-15	6.924075E-17
5.940000E+03	2.593230E-15	6.848467E-17
5.950000E+03	2.562027E-15	6.760486E-17
5.960000E+03	2.526938E-15	6.661590E-17
5.970000E+03	2.488356E-15	6.553084E-17
5.980000E+03	2.446861E-15	6.436758E-17
5.990000E+03	2.402981E-15	6.314234E-17
6.000000E+03	2.357345E-15	6.187349E-17
6.010000E+03	2.310544E-15	6.057786E-17
6.020000E+03	2.263185E-15	5.927206E-17
6.030000E+03	2.215853E-15	5.797158E-17
6.040000E+03	2.169074E-15	5.668986E-17
6.050000E+03	2.123368E-15	5.543980E-17
6.060000E+03	2.079156E-15	5.423139E-17
6.070000E+03	2.036797E-15	5.307278E-17
6.080000E+03	1.996619E-15	5.197123E-17
6.090000E+03	1.958861E-15	5.093156E-17
6.100000E+03	1.923677E-15	4.995625E-17
6.110000E+03	1.891177E-15	4.904652E-17
6.120000E+03	1.861410E-15	4.820186E-17
6.130000E+03	1.834375E-15	4.742026E-17
6.140000E+03	1.810023E-15	4.669823E-17
6.150000E+03	1.788252E-15	4.603059E-17
6.160000E+03	1.768960E-15	4.541199E-17
6.170000E+03	1.751981E-15	4.483524E-17
6.180000E+03	1.737130E-15	4.429244E-17
6.190000E+03	1.724220E-15	4.377556E-17
6.200000E+03	1.713070E-15	4.327659E-17
6.210000E+03	1.703475E-15	4.278690E-17
6.220000E+03	1.695249E-15	4.229837E-17
6.230000E+03	1.688197E-15	4.180283E-17
6.240000E+03	1.682142E-15	4.129284E-17
6.250000E+03	1.676949E-15	4.076251E-17
6.260000E+03	1.672501E-15	4.020706E-17
6.270000E+03	1.668702E-15	3.962332E-17
6.280000E+03	1.665568E-15	3.901213E-17
6.290000E+03	1.663065E-15	3.837484E-17
6.300000E+03	1.661300E-15	3.771839E-17
6.310000E+03	1.660361E-15	3.705181E-17
6.320000E+03	1.660399E-15	3.638883E-17
6.330000E+03	1.661561E-15	3.574660E-17
6.340000E+03	1.664073E-15	3.514796E-17
6.350000E+03	1.668077E-15	3.461794E-17
6.360000E+03	1.673768E-15	3.418637E-17
6.370000E+03	1.681283E-15	3.388448E-17
6.380000E+03	1.690717E-15	3.374344E-17
6.390000E+03	1.702156E-15	3.379221E-17
6.400000E+03	1.715577E-15	3.405224E-17
6.410000E+03	1.730956E-15	3.453408E-17
6.420000E+03	1.748196E-15	3.523093E-17
6.430000E+03	1.767124E-15	3.612453E-17
6.440000E+03	1.787499E-15	3.718881E-17
6.450000E+03	1.809078E-15	3.839393E-17
6.460000E+03	1.831483E-15	3.970613E-17
6.470000E+03	1.854336E-15	4.109224E-17
6.480000E+03	1.877155E-15	4.251852E-17
6.490000E+03	1.899474E-15	4.395387E-17
6.500000E+03	1.920738E-15	4.536760E-17
6.510000E+03	1.940412E-15	4.673191E-17
6.520000E+03	1.957897E-15	4.801972E-17
6.530000E+03	1.972685E-15	4.920826E-17
6.540000E+03	1.984237E-15	5.027585E-17
6.550000E+03	1.992058E-15	5.120359E-17
6.560000E+03	1.995715E-15	5.197561E-17
6.570000E+03	1.994894E-15	5.258047E-17
6.580000E+03	1.989328E-15	5.300912E-17
6.590000E+03	1.978872E-15	5.325673E-17
6.600000E+03	1.963463E-15	5.332154E-17
6.610000E+03	1.943165E-15	5.320596E-17
6.620000E+03	1.918147E-15	5.291584E-17
6.630000E+03	1.888671E-15	5.246019E-17
6.640000E+03	1.855089E-15	5.185080E-17
6.650000E+03	1.817824E-15	5.110180E-17
6.660000E+03	1.777358E-15	5.022918E-17
6.670000E+03	1.734213E-15	4.925025E-17
6.680000E+03	1.688921E-15	4.818253E-17
6.690000E+03	1.642060E-15	4.704492E-17
6.700000E+03	1.594198E-15	4.585603E-17
6.710000E+03	1.545848E-15	4.463274E-17
6.720000E+03	1.497494E-15	4.339096E-17
6.730000E+03	1.449626E-15	4.214676E-17
6.740000E+03	1.402655E-15	4.091364E-17
6.750000E+03	1.356918E-15	3.970297E-17
6.760000E+03	1.312716E-15	3.852489E-17
6.770000E+03	1.270308E-15	3.738817E-17
6.780000E+03	1.229867E-15	3.629897E-17
6.790000E+03	1.191559E-15	3.526307E-17
6.800000E+03	1.155444E-15	3.428306E-17
6.810000E+03	1.121581E-15	3.336136E-17
6.820000E+03	1.089992E-15	3.249919E-17
6.830000E+03	1.060627E-15	3.169559E-17
6.840000E+03	1.033447E-15	3.094991E-17
6.850000E+03	1.008395E-15	3.026083E-17
6.860000E+03	9.853691E-16	2.962585E-17
6.870000E+03	9.642737E-16	2.904251E-17
6.880000E+03	9.450046E-16	2.850824E-17
6.890000E+03	9.274662E-16	2.802071E-17
6.900000E+03	9.115420E-16	2.757699E-17
6.910000E+03	8.971299E-16	2.717457E-17
6.920000E+03	8.841434E-16	2.681137E-17
6.930000E+03	8.724821E-16	2.648482E-17
6.940000E+03	8.620739E-16	2.619321E-17
6.950000E+03	8.528347E-16	2.593441E-17
6.960000E+03	8.446990E-16	2.570683E-17
6.970000E+03	8.376197E-16	2.550943E-17
6.980000E+03	8.315476E-16	2.534106E-17
6.990000E+03	8.264214E-16	2.520016E-17
7.000000E+03	8.222366E-16	2.508688E-17
7.010000E+03	8.189362E-16	2.499972E-17
7.020000E+03	8.165187E-16	2.493880E-17
7.030000E+03	8.149691E-16	2.490383E-17
7.040000E+03	8.142576E-16	2.489396E-17
7.050000E+03	8.143991E-16	2.490969E-17
7.060000E+03	8.153830E-16	2.495067E-17
7.070000E+03	8.172220E-16	2.501722E-17
7.080000E+03	8.199115E-16	2.510908E-17
7.090000E+03	8.234582E-16	2.522632E-17
7.100000E+03	8.278689E-16	2.536898E-17
7.110000E+03	8.331490E-16	2.553706E-17
7.120000E+03	8.393012E-16	2.573044E-17
7.130000E+03	8.463342E-16	2.594919E-17
7.140000E+03	8.542197E-16	2.619224E-17
7.150000E+03	8.629641E-16	2.645958E-17
7.160000E+03	8.725233E-16	2.674967E-17
7.170000E+03	8.828763E-16	2.706171E-17
7.180000E+03	8.939930E-16	2.739471E-17
7.190000E+03	9.058004E-16	2.774641E-17
7.200000E+03	9.182489E-16	2.811533E-17
7.210000E+03	9.312683E-16	2.849942E-17
7.220000E+03	9.447793E-16	2.889638E-17
7.230000E+03	9.586817E-16	2.930331E-17
7.240000E+03	9.729040E-16	2.971816E-17
7.250000E+03	9.873195E-16	3.013723E-17
7.260000E+03	1.001833E-15	3.055775E-17
7.270000E+03	1.016323E-15	3.097610E-17
7.280000E+03	1.030705E-15	3.138981E-17
7.290000E+03	1.044846E-15	3.179488E-17
7.300000E+03	1.058657E-15	3.218865E-17
7.310000E+03	1.072048E-15	3.256834E-17
7.320000E+03	1.084926E-15	3.293107E-17
7.330000E+03	1.097253E-15	3.327569E-17
7.340000E+03	1.108939E-15	3.359943E-17
7.350000E+03	1.119995E-15	3.390265E-17
7.360000E+03	1.130392E-15	3.418459E-17
7.370000E+03	1.140116E-15	3.444509E-17
7.380000E+03	1.149196E-15	3.468538E-17
7.390000E+03	1.157640E-15	3.490632E-17
7.400000E+03	1.165496E-15	3.511001E-17
7.410000E+03	1.172797E-15	3.529835E-17
7.420000E+03	1.179551E-15	3.547244E-17
7.430000E+03	1.185822E-15	3.563514E-17
7.440000E+03	1.191609E-15	3.578736E-17
7.450000E+03	1.196954E-15	3.593116E-17
7.460000E+03	1.201880E-15	3.606791E-17
7.470000E+03	1.206420E-15	3.619914E-17
7.480000E+03	1.210575E-15	3.632521E-17
7.490000E+03	1.214361E-15	3.644667E-17
7.500000E+03	1.217813E-15	3.656433E-17
7.510000E+03	1.220938E-15	3.667789E-17
7.520000E+03	1.223768E-15	3.678739E-17
7.530000E+03	1.226362E-15	3.689322E-17
7.540000E+03	1.228756E-15	3.699475E-17
7.550000E+03	1.231031E-15	3.709222E-17
7.560000E+03	1.233236E-15	3.718439E-17
7.570000E+03	1.235492E-15	3.727201E-17
7.580000E+03	1.237883E-15	3.735451E-17
7.590000E+03	1.240516E-15	3.743207E-17
7.600000E+03	1.243498E-15	3.750533E-17
7.610000E+03	1.246937E-15	3.757543E-17
7.620000E+03	1.250932E-15	3.764408E-17
7.630000E+03	1.255550E-15	3.771288E-17
7.640000E+03	1.260894E-15	3.778513E-17
7.650000E+03	1.266988E-15	3.786246E-17
7.660000E+03	1.273829E-15	3.794580E-17
7.670000E+03	1.281411E-15	3.803605E-17
7.680000E+03	1.289673E-15	3.813224E-17
7.690000E+03	1.298515E-15	3.823186E-17
7.700000E+03	1.307797E-15	3.833084E-17
7.710000E+03	1.317327E-15	3.842309E-17
7.720000E+03	1.326910E-15	3.850222E-17
7.730000E+03	1.336310E-15	3.856021E-17
7.740000E+03	1.345264E-15	3.858816E-17
7.750000E+03	1.353494E-15	3.857657E-17
7.760000E+03	1.360695E-15	3.851513E-17
