#wls	flux	fluxerr
1.600000E+03	2.601744E-16	1.069441E-16
1.640000E+03	2.242627E-16	8.836637E-17
1.680000E+03	1.933522E-16	7.297223E-17
1.720000E+03	1.668981E-16	6.029362E-17
1.760000E+03	1.443509E-16	4.990023E-17
1.800000E+03	1.252103E-16	4.141757E-17
1.840000E+03	1.090262E-16	3.452333E-17
1.880000E+03	9.541756E-17	2.894852E-17
1.920000E+03	8.402670E-17	2.445879E-17
1.960000E+03	7.453017E-17	2.085485E-17
2.000000E+03	6.669370E-17	1.798383E-17
2.040000E+03	6.027758E-17	1.570880E-17
2.080000E+03	5.510548E-17	1.392502E-17
2.120000E+03	5.101137E-17	1.254296E-17
2.160000E+03	4.787996E-17	1.149632E-17
2.200000E+03	4.561963E-17	1.073288E-17
2.240000E+03	4.414470E-17	1.020871E-17
2.280000E+03	4.340759E-17	9.894217E-18
2.320000E+03	4.336287E-17	9.764414E-18
2.360000E+03	4.401292E-17	9.808166E-18
2.400000E+03	4.532728E-17	1.000907E-17
2.440000E+03	4.733523E-17	1.036546E-17
2.480000E+03	5.004463E-17	1.087161E-17
2.520000E+03	5.348795E-17	1.152742E-17
2.560000E+03	5.769555E-17	1.233192E-17
2.600000E+03	6.271180E-17	1.328618E-17
2.640000E+03	6.858621E-17	1.439059E-17
2.680000E+03	7.534937E-17	1.563905E-17
2.720000E+03	8.306876E-17	1.702968E-17
2.760000E+03	9.182244E-17	1.855812E-17
2.800000E+03	1.016571E-16	2.020801E-17
2.840000E+03	1.126722E-16	2.196714E-17
2.880000E+03	1.249888E-16	2.381989E-17
2.920000E+03	1.387364E-16	2.574369E-17
2.960000E+03	1.540713E-16	2.771198E-17
3.000000E+03	1.712485E-16	2.970615E-17
3.010000E+03	1.758601E-16	3.020541E-17
3.020000E+03	1.806201E-16	3.070614E-17
3.030000E+03	1.855094E-16	3.120383E-17
3.040000E+03	1.905318E-16	3.169781E-17
3.050000E+03	1.957153E-16	3.219143E-17
3.060000E+03	2.010402E-16	3.268005E-17
3.070000E+03	2.065614E-16	3.317113E-17
3.080000E+03	2.122340E-16	3.365593E-17
3.090000E+03	2.180622E-16	3.413373E-17
3.100000E+03	2.241042E-16	3.461214E-17
3.110000E+03	2.303127E-16	3.508225E-17
3.120000E+03	2.367480E-16	3.555170E-17
3.130000E+03	2.433613E-16	3.601152E-17
3.140000E+03	2.501863E-16	3.646522E-17
3.150000E+03	2.572589E-16	3.691640E-17
3.160000E+03	2.645276E-16	3.735600E-17
3.170000E+03	2.720585E-16	3.779187E-17
3.180000E+03	2.798290E-16	3.821918E-17
3.190000E+03	2.878462E-16	3.863740E-17
3.200000E+03	2.961490E-16	3.905024E-17
3.210000E+03	3.047462E-16	3.945721E-17
3.220000E+03	3.135801E-16	3.984942E-17
3.230000E+03	3.227574E-16	4.023919E-17
3.240000E+03	3.322195E-16	4.061774E-17
3.250000E+03	3.420084E-16	4.098906E-17
3.260000E+03	3.521323E-16	4.135299E-17
3.270000E+03	3.625995E-16	4.170947E-17
3.280000E+03	3.734178E-16	4.205853E-17
3.290000E+03	3.845946E-16	4.240035E-17
3.300000E+03	3.961371E-16	4.273522E-17
3.310000E+03	4.080516E-16	4.306359E-17
3.320000E+03	4.203836E-16	4.339017E-17
3.330000E+03	4.331401E-16	4.371565E-17
3.340000E+03	4.462862E-16	4.403688E-17
3.350000E+03	4.598250E-16	4.435498E-17
3.360000E+03	4.738430E-16	4.467928E-17
3.370000E+03	4.882588E-16	4.500320E-17
3.380000E+03	5.031150E-16	4.533236E-17
3.390000E+03	5.184555E-16	4.567248E-17
3.400000E+03	5.341893E-16	4.601762E-17
3.410000E+03	5.504016E-16	4.637767E-17
3.420000E+03	5.670878E-16	4.675475E-17
3.430000E+03	5.841930E-16	4.714717E-17
3.440000E+03	6.017054E-16	4.755719E-17
3.450000E+03	6.197081E-16	4.799462E-17
3.460000E+03	6.380884E-16	4.845393E-17
3.470000E+03	6.569266E-16	4.894464E-17
3.480000E+03	6.761012E-16	4.946096E-17
3.490000E+03	6.956892E-16	5.001189E-17
3.500000E+03	7.156652E-16	5.059860E-17
3.510000E+03	7.359480E-16	5.121819E-17
3.520000E+03	7.565586E-16	5.187486E-17
3.530000E+03	7.774639E-16	5.256863E-17
3.540000E+03	7.986288E-16	5.329915E-17
3.550000E+03	8.200168E-16	5.406566E-17
3.560000E+03	8.415905E-16	5.486700E-17
3.570000E+03	8.633684E-16	5.570529E-17
3.580000E+03	8.852575E-16	5.657505E-17
3.590000E+03	9.073360E-16	5.748143E-17
3.600000E+03	9.294558E-16	5.841483E-17
3.610000E+03	9.516425E-16	5.937639E-17
3.620000E+03	9.739257E-16	6.036717E-17
3.630000E+03	9.962222E-16	6.138094E-17
3.640000E+03	1.018569E-15	6.241874E-17
3.650000E+03	1.040891E-15	6.347447E-17
3.660000E+03	1.063294E-15	6.455295E-17
3.670000E+03	1.085650E-15	6.564474E-17
3.680000E+03	1.108074E-15	6.675497E-17
3.690000E+03	1.130566E-15	6.788171E-17
3.700000E+03	1.153010E-15	6.901603E-17
3.710000E+03	1.175588E-15	7.016706E-17
3.720000E+03	1.198249E-15	7.132966E-17
3.730000E+03	1.220997E-15	7.250232E-17
3.740000E+03	1.243839E-15	7.368353E-17
3.750000E+03	1.266775E-15	7.487168E-17
3.760000E+03	1.289924E-15	7.607206E-17
3.770000E+03	1.313156E-15	7.727556E-17
3.780000E+03	1.336514E-15	7.848336E-17
3.790000E+03	1.359971E-15	7.969270E-17
3.800000E+03	1.383491E-15	8.090037E-17
3.810000E+03	1.407081E-15	8.210607E-17
3.820000E+03	1.430620E-15	8.330203E-17
3.830000E+03	1.454148E-15	8.449018E-17
3.840000E+03	1.477454E-15	8.565814E-17
3.850000E+03	1.500491E-15	8.680324E-17
3.860000E+03	1.523142E-15	8.791884E-17
3.870000E+03	1.545275E-15	8.899786E-17
3.880000E+03	1.566808E-15	9.003617E-17
3.890000E+03	1.587537E-15	9.102276E-17
3.900000E+03	1.607367E-15	9.195310E-17
3.910000E+03	1.626145E-15	9.281940E-17
3.920000E+03	1.643668E-15	9.361097E-17
3.930000E+03	1.659848E-15	9.432388E-17
3.940000E+03	1.674609E-15	9.495468E-17
3.950000E+03	1.687723E-15	9.549131E-17
3.960000E+03	1.699146E-15	9.593200E-17
3.970000E+03	1.708798E-15	9.627282E-17
3.980000E+03	1.716623E-15	9.651097E-17
3.990000E+03	1.722639E-15	9.664768E-17
4.000000E+03	1.726738E-15	9.667678E-17
4.010000E+03	1.729038E-15	9.660469E-17
4.020000E+03	1.729483E-15	9.642782E-17
4.030000E+03	1.728190E-15	9.615198E-17
4.040000E+03	1.725291E-15	9.578372E-17
4.050000E+03	1.720800E-15	9.532272E-17
4.060000E+03	1.714840E-15	9.477469E-17
4.070000E+03	1.707592E-15	9.414827E-17
4.080000E+03	1.699196E-15	9.344990E-17
4.090000E+03	1.689720E-15	9.268176E-17
4.100000E+03	1.679401E-15	9.185529E-17
4.110000E+03	1.668310E-15	9.097289E-17
4.120000E+03	1.656640E-15	9.004337E-17
4.130000E+03	1.644499E-15	8.907101E-17
4.140000E+03	1.631993E-15	8.805987E-17
4.150000E+03	1.619330E-15	8.701944E-17
4.160000E+03	1.606531E-15	8.594907E-17
4.170000E+03	1.593751E-15	8.485536E-17
4.180000E+03	1.581101E-15	8.374240E-17
4.190000E+03	1.568652E-15	8.261209E-17
4.200000E+03	1.556471E-15	8.146606E-17
4.210000E+03	1.544648E-15	8.030729E-17
4.220000E+03	1.533242E-15	7.913686E-17
4.230000E+03	1.522335E-15	7.795721E-17
4.240000E+03	1.511980E-15	7.676916E-17
4.250000E+03	1.502255E-15	7.557495E-17
4.260000E+03	1.493183E-15	7.437416E-17
4.270000E+03	1.484847E-15	7.316932E-17
4.280000E+03	1.477299E-15	7.196194E-17
4.290000E+03	1.470625E-15	7.075512E-17
4.300000E+03	1.464859E-15	6.955007E-17
4.310000E+03	1.460068E-15	6.834992E-17
4.320000E+03	1.456320E-15	6.715863E-17
4.330000E+03	1.453688E-15	6.598108E-17
4.340000E+03	1.452224E-15	6.482226E-17
4.350000E+03	1.452007E-15	6.368959E-17
4.360000E+03	1.453095E-15	6.259106E-17
4.370000E+03	1.455545E-15	6.153658E-17
4.380000E+03	1.459436E-15	6.053910E-17
4.390000E+03	1.464756E-15	5.961043E-17
4.400000E+03	1.471599E-15	5.876960E-17
4.410000E+03	1.479963E-15	5.803499E-17
4.420000E+03	1.489838E-15	5.742804E-17
4.430000E+03	1.501245E-15	5.697460E-17
4.440000E+03	1.514165E-15	5.670186E-17
4.450000E+03	1.528541E-15	5.663740E-17
4.460000E+03	1.544399E-15	5.681198E-17
4.470000E+03	1.561691E-15	5.725071E-17
4.480000E+03	1.580415E-15	5.797149E-17
4.490000E+03	1.600447E-15	5.897316E-17
4.500000E+03	1.621675E-15	6.024177E-17
4.510000E+03	1.643903E-15	6.175246E-17
4.520000E+03	1.666922E-15	6.347559E-17
4.530000E+03	1.690444E-15	6.537629E-17
4.540000E+03	1.714242E-15	6.742078E-17
4.550000E+03	1.737947E-15	6.956983E-17
4.560000E+03	1.761212E-15	7.178533E-17
4.570000E+03	1.783719E-15	7.403113E-17
4.580000E+03	1.805067E-15	7.626895E-17
4.590000E+03	1.824879E-15	7.846252E-17
4.600000E+03	1.842781E-15	8.057713E-17
4.610000E+03	1.858416E-15	8.258014E-17
4.620000E+03	1.871432E-15	8.444048E-17
4.630000E+03	1.881556E-15	8.613226E-17
4.640000E+03	1.888542E-15	8.763223E-17
4.650000E+03	1.892196E-15	8.892120E-17
4.660000E+03	1.892361E-15	8.998338E-17
4.670000E+03	1.888972E-15	9.080876E-17
4.680000E+03	1.882053E-15	9.139329E-17
4.690000E+03	1.871627E-15	9.173445E-17
4.700000E+03	1.857877E-15	9.183884E-17
4.710000E+03	1.840973E-15	9.171404E-17
4.720000E+03	1.821166E-15	9.137270E-17
4.730000E+03	1.798750E-15	9.083078E-17
4.740000E+03	1.774032E-15	9.010590E-17
4.750000E+03	1.747369E-15	8.921885E-17
4.760000E+03	1.719111E-15	8.819074E-17
4.770000E+03	1.689654E-15	8.704549E-17
4.780000E+03	1.659329E-15	8.580404E-17
4.790000E+03	1.628517E-15	8.448993E-17
4.800000E+03	1.597520E-15	8.312283E-17
4.810000E+03	1.566638E-15	8.172217E-17
4.820000E+03	1.536181E-15	8.030774E-17
4.830000E+03	1.506373E-15	7.889472E-17
4.840000E+03	1.477443E-15	7.749837E-17
4.850000E+03	1.449539E-15	7.612935E-17
4.860000E+03	1.422832E-15	7.479927E-17
4.870000E+03	1.397446E-15	7.351703E-17
4.880000E+03	1.373466E-15	7.228911E-17
4.890000E+03	1.350983E-15	7.112214E-17
4.900000E+03	1.330023E-15	7.001901E-17
4.910000E+03	1.310641E-15	6.898386E-17
4.920000E+03	1.292847E-15	6.801822E-17
4.930000E+03	1.276669E-15	6.712435E-17
4.940000E+03	1.262083E-15	6.630149E-17
4.950000E+03	1.249099E-15	6.555064E-17
4.960000E+03	1.237712E-15	6.487152E-17
4.970000E+03	1.227898E-15	6.426283E-17
4.980000E+03	1.219658E-15	6.372443E-17
4.990000E+03	1.212954E-15	6.325382E-17
5.000000E+03	1.207804E-15	6.285120E-17
5.010000E+03	1.204172E-15	6.251380E-17
5.020000E+03	1.202063E-15	6.224085E-17
5.030000E+03	1.201475E-15	6.203073E-17
5.040000E+03	1.202403E-15	6.188167E-17
5.050000E+03	1.204848E-15	6.179172E-17
5.060000E+03	1.208798E-15	6.175803E-17
5.070000E+03	1.214267E-15	6.177882E-17
5.080000E+03	1.221244E-15	6.185063E-17
5.090000E+03	1.229759E-15	6.197160E-17
5.100000E+03	1.239786E-15	6.213670E-17
5.110000E+03	1.251324E-15	6.234171E-17
5.120000E+03	1.264397E-15	6.258313E-17
5.130000E+03	1.278969E-15	6.285410E-17
5.140000E+03	1.295030E-15	6.314835E-17
5.150000E+03	1.312590E-15	6.346016E-17
5.160000E+03	1.331612E-15	6.378098E-17
5.170000E+03	1.352052E-15	6.410135E-17
5.180000E+03	1.373885E-15	6.441235E-17
5.190000E+03	1.397080E-15	6.470421E-17
5.200000E+03	1.421550E-15	6.496432E-17
5.210000E+03	1.447246E-15	6.518148E-17
5.220000E+03	1.474106E-15	6.534392E-17
5.230000E+03	1.502012E-15	6.543755E-17
5.240000E+03	1.530900E-15	6.545094E-17
5.250000E+03	1.560645E-15	6.537097E-17
5.260000E+03	1.591131E-15	6.518600E-17
5.270000E+03	1.622230E-15	6.488576E-17
5.280000E+03	1.653808E-15	6.446205E-17
5.290000E+03	1.685740E-15	6.391026E-17
5.300000E+03	1.717860E-15	6.322836E-17
5.310000E+03	1.750018E-15	6.242011E-17
5.320000E+03	1.782057E-15	6.149574E-17
5.330000E+03	1.813843E-15	6.047406E-17
5.340000E+03	1.845203E-15	5.938220E-17
5.350000E+03	1.875988E-15	5.825910E-17
5.360000E+03	1.906052E-15	5.715619E-17
5.370000E+03	1.935279E-15	5.613852E-17
5.380000E+03	1.963498E-15	5.528170E-17
5.390000E+03	1.990627E-15	5.467296E-17
5.400000E+03	2.016535E-15	5.440082E-17
5.410000E+03	2.041117E-15	5.454647E-17
5.420000E+03	2.064276E-15	5.516583E-17
5.430000E+03	2.085918E-15	5.627046E-17
5.440000E+03	2.105931E-15	5.782586E-17
5.450000E+03	2.124277E-15	5.976980E-17
5.460000E+03	2.140839E-15	6.202350E-17
5.470000E+03	2.155556E-15	6.450552E-17
5.480000E+03	2.168425E-15	6.713880E-17
5.490000E+03	2.179348E-15	6.985002E-17
5.500000E+03	2.188353E-15	7.257825E-17
5.510000E+03	2.195439E-15	7.527095E-17
5.520000E+03	2.200604E-15	7.788428E-17
5.530000E+03	2.203886E-15	8.038399E-17
5.540000E+03	2.205367E-15	8.274479E-17
5.550000E+03	2.205103E-15	8.494704E-17
5.560000E+03	2.203241E-15	8.698008E-17
5.570000E+03	2.199860E-15	8.883558E-17
5.580000E+03	2.195125E-15	9.051274E-17
5.590000E+03	2.189200E-15	9.201424E-17
5.600000E+03	2.182269E-15	9.334648E-17
5.610000E+03	2.174527E-15	9.451894E-17
5.620000E+03	2.166188E-15	9.554364E-17
5.630000E+03	2.157492E-15	9.643553E-17
5.640000E+03	2.148642E-15	9.720913E-17
5.650000E+03	2.139886E-15	9.788174E-17
5.660000E+03	2.131425E-15	9.846922E-17
5.670000E+03	2.123469E-15	9.898832E-17
5.680000E+03	2.116238E-15	9.945630E-17
5.690000E+03	2.109889E-15	9.988757E-17
5.700000E+03	2.104578E-15	1.002963E-16
5.710000E+03	2.100452E-15	1.006961E-16
5.720000E+03	2.097587E-15	1.010968E-16
5.730000E+03	2.096043E-15	1.015070E-16
5.740000E+03	2.095843E-15	1.019334E-16
5.750000E+03	2.096994E-15	1.023809E-16
5.760000E+03	2.099417E-15	1.028502E-16
5.770000E+03	2.102996E-15	1.033397E-16
5.780000E+03	2.107636E-15	1.038480E-16
5.790000E+03	2.113139E-15	1.043687E-16
5.800000E+03	2.119276E-15	1.048929E-16
5.810000E+03	2.125824E-15	1.054119E-16
5.820000E+03	2.132512E-15	1.059142E-16
5.830000E+03	2.139051E-15	1.063869E-16
5.840000E+03	2.145113E-15	1.068151E-16
5.850000E+03	2.150387E-15	1.071844E-16
5.860000E+03	2.154584E-15	1.074810E-16
5.870000E+03	2.157386E-15	1.076897E-16
5.880000E+03	2.158511E-15	1.077970E-16
5.890000E+03	2.157732E-15	1.077917E-16
5.900000E+03	2.154792E-15	1.076614E-16
5.910000E+03	2.149542E-15	1.073986E-16
5.920000E+03	2.141837E-15	1.069964E-16
5.930000E+03	2.131649E-15	1.064533E-16
5.940000E+03	2.118901E-15	1.057656E-16
5.950000E+03	2.103673E-15	1.049372E-16
5.960000E+03	2.086035E-15	1.039718E-16
5.970000E+03	2.066127E-15	1.028761E-16
5.980000E+03	2.044132E-15	1.016593E-16
5.990000E+03	2.020271E-15	1.003320E-16
6.000000E+03	1.994773E-15	9.890555E-17
6.010000E+03	1.967911E-15	9.739288E-17
6.020000E+03	1.939988E-15	9.580855E-17
6.030000E+03	1.911258E-15	9.416438E-17
6.040000E+03	1.882027E-15	9.247468E-17
6.050000E+03	1.852577E-15	9.075218E-17
6.060000E+03	1.823137E-15	8.900694E-17
6.070000E+03	1.793991E-15	8.725135E-17
6.080000E+03	1.765329E-15	8.549296E-17
6.090000E+03	1.737352E-15	8.373961E-17
6.100000E+03	1.710218E-15	8.199675E-17
6.110000E+03	1.684091E-15	8.026988E-17
6.120000E+03	1.659060E-15	7.856057E-17
6.130000E+03	1.635221E-15	7.687053E-17
6.140000E+03	1.612631E-15	7.519933E-17
6.150000E+03	1.591311E-15	7.354464E-17
6.160000E+03	1.571292E-15	7.190449E-17
6.170000E+03	1.552546E-15	7.027397E-17
6.180000E+03	1.535058E-15	6.864890E-17
6.190000E+03	1.518836E-15	6.702592E-17
6.200000E+03	1.503859E-15	6.540068E-17
6.210000E+03	1.490161E-15	6.377118E-17
6.220000E+03	1.477711E-15	6.213294E-17
6.230000E+03	1.466520E-15	6.048367E-17
6.240000E+03	1.456541E-15	5.881928E-17
6.250000E+03	1.447786E-15	5.713900E-17
6.260000E+03	1.440228E-15	5.544157E-17
6.270000E+03	1.433842E-15	5.372751E-17
6.280000E+03	1.428651E-15	5.200108E-17
6.290000E+03	1.424610E-15	5.026667E-17
6.300000E+03	1.421719E-15	4.853372E-17
6.310000E+03	1.419997E-15	4.681640E-17
6.320000E+03	1.419417E-15	4.513268E-17
6.330000E+03	1.419968E-15	4.350739E-17
6.340000E+03	1.421647E-15	4.197326E-17
6.350000E+03	1.424448E-15	4.057129E-17
6.360000E+03	1.428312E-15	3.934982E-17
6.370000E+03	1.433227E-15	3.836645E-17
6.380000E+03	1.439140E-15	3.768242E-17
6.390000E+03	1.445967E-15	3.735671E-17
6.400000E+03	1.453620E-15	3.743532E-17
6.410000E+03	1.462005E-15	3.793496E-17
6.420000E+03	1.470976E-15	3.883406E-17
6.430000E+03	1.480362E-15	4.008424E-17
6.440000E+03	1.490000E-15	4.162509E-17
6.450000E+03	1.499673E-15	4.339173E-17
6.460000E+03	1.509159E-15	4.532127E-17
6.470000E+03	1.518183E-15	4.735420E-17
6.480000E+03	1.526504E-15	4.943784E-17
6.490000E+03	1.533850E-15	5.152469E-17
6.500000E+03	1.539914E-15	5.357137E-17
6.510000E+03	1.544448E-15	5.554152E-17
6.520000E+03	1.547184E-15	5.740211E-17
6.530000E+03	1.547882E-15	5.912486E-17
6.540000E+03	1.546308E-15	6.068486E-17
6.550000E+03	1.542274E-15	6.206174E-17
6.560000E+03	1.535630E-15	6.323909E-17
6.570000E+03	1.526267E-15	6.420454E-17
6.580000E+03	1.514092E-15	6.494838E-17
6.590000E+03	1.499111E-15	6.546705E-17
6.600000E+03	1.481350E-15	6.575965E-17
6.610000E+03	1.460889E-15	6.582919E-17
6.620000E+03	1.437856E-15	6.568238E-17
6.630000E+03	1.412443E-15	6.533004E-17
6.640000E+03	1.384867E-15	6.478531E-17
6.650000E+03	1.355378E-15	6.406387E-17
6.660000E+03	1.324270E-15	6.318410E-17
6.670000E+03	1.291811E-15	6.216382E-17
6.680000E+03	1.258337E-15	6.102452E-17
6.690000E+03	1.224143E-15	5.978604E-17
6.700000E+03	1.189535E-15	5.846879E-17
6.710000E+03	1.154820E-15	5.709325E-17
6.720000E+03	1.120259E-15	5.567768E-17
6.730000E+03	1.086121E-15	5.424032E-17
6.740000E+03	1.052608E-15	5.279612E-17
6.750000E+03	1.019947E-15	5.136078E-17
6.760000E+03	9.883090E-16	4.994703E-17
6.770000E+03	9.578278E-16	4.856528E-17
6.780000E+03	9.286090E-16	4.722424E-17
6.790000E+03	9.007744E-16	4.593313E-17
6.800000E+03	8.743578E-16	4.469637E-17
6.810000E+03	8.494130E-16	4.351907E-17
6.820000E+03	8.259727E-16	4.240503E-17
6.830000E+03	8.040329E-16	4.135590E-17
6.840000E+03	7.835848E-16	4.037286E-17
6.850000E+03	7.646076E-16	3.945625E-17
6.860000E+03	7.470701E-16	3.860571E-17
6.870000E+03	7.309423E-16	3.782078E-17
6.880000E+03	7.161625E-16	3.709919E-17
6.890000E+03	7.026906E-16	3.643972E-17
6.900000E+03	6.904839E-16	3.584087E-17
6.910000E+03	6.794734E-16	3.529968E-17
6.920000E+03	6.696230E-16	3.481484E-17
6.930000E+03	6.608729E-16	3.438372E-17
6.940000E+03	6.531650E-16	3.400376E-17
6.950000E+03	6.464672E-16	3.367365E-17
6.960000E+03	6.407261E-16	3.339097E-17
6.970000E+03	6.358916E-16	3.315341E-17
6.980000E+03	6.319397E-16	3.296001E-17
6.990000E+03	6.288265E-16	3.280871E-17
7.000000E+03	6.265114E-16	3.269764E-17
7.010000E+03	6.249801E-16	3.262624E-17
7.020000E+03	6.241980E-16	3.259289E-17
7.030000E+03	6.241413E-16	3.259650E-17
7.040000E+03	6.247808E-16	3.263571E-17
7.050000E+03	6.261127E-16	3.271042E-17
7.060000E+03	6.281117E-16	3.281943E-17
7.070000E+03	6.307620E-16	3.296198E-17
7.080000E+03	6.340482E-16	3.313736E-17
7.090000E+03	6.379558E-16	3.334485E-17
7.100000E+03	6.424699E-16	3.358371E-17
7.110000E+03	6.475832E-16	3.385359E-17
7.120000E+03	6.532633E-16	3.415278E-17
7.130000E+03	6.594999E-16	3.448076E-17
7.140000E+03	6.662815E-16	3.483690E-17
7.150000E+03	6.735773E-16	3.521956E-17
7.160000E+03	6.813619E-16	3.562737E-17
7.170000E+03	6.896067E-16	3.605879E-17
7.180000E+03	6.982798E-16	3.651210E-17
7.190000E+03	7.073551E-16	3.698587E-17
7.200000E+03	7.167757E-16	3.747707E-17
7.210000E+03	7.265272E-16	3.798486E-17
7.220000E+03	7.365366E-16	3.850538E-17
7.230000E+03	7.467747E-16	3.903704E-17
7.240000E+03	7.571820E-16	3.957664E-17
7.250000E+03	7.677162E-16	4.012194E-17
7.260000E+03	7.783145E-16	4.066958E-17
7.270000E+03	7.889339E-16	4.121728E-17
7.280000E+03	7.995217E-16	4.176226E-17
7.290000E+03	8.100164E-16	4.230126E-17
7.300000E+03	8.203792E-16	4.283227E-17
7.310000E+03	8.305642E-16	4.335288E-17
7.320000E+03	8.405181E-16	4.386033E-17
7.330000E+03	8.502250E-16	4.435384E-17
7.340000E+03	8.596409E-16	4.483116E-17
7.350000E+03	8.687383E-16	4.529092E-17
7.360000E+03	8.775066E-16	4.573265E-17
7.370000E+03	8.859183E-16	4.615499E-17
7.380000E+03	8.939743E-16	4.655808E-17
7.390000E+03	9.016579E-16	4.694115E-17
7.400000E+03	9.089690E-16	4.730425E-17
7.410000E+03	9.159249E-16	4.764833E-17
7.420000E+03	9.225353E-16	4.797391E-17
7.430000E+03	9.287892E-16	4.828041E-17
7.440000E+03	9.347158E-16	4.856926E-17
7.450000E+03	9.403355E-16	4.884139E-17
7.460000E+03	9.456713E-16	4.909777E-17
7.470000E+03	9.507615E-16	4.934010E-17
7.480000E+03	9.556207E-16	4.956874E-17
7.490000E+03	9.602780E-16	4.978470E-17
7.500000E+03	9.647637E-16	4.998896E-17
7.510000E+03	9.691089E-16	5.018243E-17
7.520000E+03	9.733325E-16	5.036524E-17
7.530000E+03	9.774925E-16	5.053948E-17
7.540000E+03	9.815810E-16	5.070368E-17
7.550000E+03	9.856550E-16	5.085964E-17
7.560000E+03	9.897303E-16	5.100691E-17
7.570000E+03	9.938471E-16	5.114620E-17
7.580000E+03	9.980018E-16	5.127588E-17
7.590000E+03	1.002227E-15	5.139611E-17
7.600000E+03	1.006525E-15	5.150528E-17
7.610000E+03	1.010929E-15	5.160351E-17
7.620000E+03	1.015413E-15	5.168764E-17
7.630000E+03	1.019970E-15	5.175543E-17
7.640000E+03	1.024597E-15	5.180479E-17
7.650000E+03	1.029252E-15	5.183162E-17
7.660000E+03	1.033913E-15	5.183265E-17
7.670000E+03	1.038515E-15	5.180252E-17
7.680000E+03	1.043012E-15	5.173672E-17
7.690000E+03	1.047317E-15	5.162870E-17
7.700000E+03	1.051346E-15	5.147209E-17
7.710000E+03	1.055006E-15	5.126010E-17
7.720000E+03	1.058206E-15	5.098631E-17
7.730000E+03	1.060821E-15	5.064271E-17
7.740000E+03	1.062747E-15	5.022274E-17
7.750000E+03	1.063850E-15	4.971863E-17
7.760000E+03	1.064005E-15	4.912383E-17
