#wls	flux	fluxerr
1.600000E+03	1.319262E-16	7.800694E-17
1.640000E+03	1.202835E-16	6.967203E-17
1.680000E+03	1.098822E-16	6.234672E-17
1.720000E+03	1.006204E-16	5.592533E-17
1.760000E+03	9.240155E-17	5.031033E-17
1.800000E+03	8.513456E-17	4.541252E-17
1.840000E+03	7.874903E-17	4.115828E-17
1.880000E+03	7.316367E-17	3.747247E-17
1.920000E+03	6.829256E-17	3.428197E-17
1.960000E+03	6.409466E-17	3.154019E-17
2.000000E+03	6.049780E-17	2.918810E-17
2.040000E+03	5.746002E-17	2.718456E-17
2.080000E+03	5.493441E-17	2.548853E-17
2.120000E+03	5.288090E-17	2.406448E-17
2.160000E+03	5.127454E-17	2.288567E-17
2.200000E+03	5.008678E-17	2.192512E-17
2.240000E+03	4.929500E-17	2.115975E-17
2.280000E+03	4.888215E-17	2.056983E-17
2.320000E+03	4.885228E-17	2.014498E-17
2.360000E+03	4.919005E-17	1.986684E-17
2.400000E+03	4.990104E-17	1.972561E-17
2.440000E+03	5.098752E-17	1.970969E-17
2.480000E+03	5.247240E-17	1.981470E-17
2.520000E+03	5.436754E-17	2.003064E-17
2.560000E+03	5.668940E-17	2.034791E-17
2.600000E+03	5.947618E-17	2.076282E-17
2.640000E+03	6.275487E-17	2.126512E-17
2.680000E+03	6.656660E-17	2.184669E-17
2.720000E+03	7.095902E-17	2.249809E-17
2.760000E+03	7.599705E-17	2.321126E-17
2.800000E+03	8.174488E-17	2.397289E-17
2.840000E+03	8.826487E-17	2.476398E-17
2.880000E+03	9.567429E-17	2.557485E-17
2.920000E+03	1.040603E-16	2.637987E-17
2.960000E+03	1.135479E-16	2.715560E-17
3.000000E+03	1.242950E-16	2.787733E-17
3.010000E+03	1.271958E-16	2.804517E-17
3.020000E+03	1.301927E-16	2.820793E-17
3.030000E+03	1.332739E-16	2.836187E-17
3.040000E+03	1.364709E-16	2.851242E-17
3.050000E+03	1.397574E-16	2.865276E-17
3.060000E+03	1.431511E-16	2.878521E-17
3.070000E+03	1.466549E-16	2.890902E-17
3.080000E+03	1.502721E-16	2.902344E-17
3.090000E+03	1.540060E-16	2.912769E-17
3.100000E+03	1.578601E-16	2.922098E-17
3.110000E+03	1.618380E-16	2.930251E-17
3.120000E+03	1.659434E-16	2.937148E-17
3.130000E+03	1.701969E-16	2.942997E-17
3.140000E+03	1.745693E-16	2.947138E-17
3.150000E+03	1.790984E-16	2.950066E-17
3.160000E+03	1.837894E-16	2.951691E-17
3.170000E+03	1.886297E-16	2.951651E-17
3.180000E+03	1.936240E-16	2.949869E-17
3.190000E+03	1.987955E-16	2.946543E-17
3.200000E+03	2.041314E-16	2.941325E-17
3.210000E+03	2.096559E-16	2.934414E-17
3.220000E+03	2.153751E-16	2.925740E-17
3.230000E+03	2.212958E-16	2.915238E-17
3.240000E+03	2.274047E-16	2.902600E-17
3.250000E+03	2.337282E-16	2.888039E-17
3.260000E+03	2.402938E-16	2.871764E-17
3.270000E+03	2.470686E-16	2.853261E-17
3.280000E+03	2.541014E-16	2.833009E-17
3.290000E+03	2.613583E-16	2.810545E-17
3.300000E+03	2.688901E-16	2.786371E-17
3.310000E+03	2.766840E-16	2.760311E-17
3.320000E+03	2.847711E-16	2.732671E-17
3.330000E+03	2.931384E-16	2.703347E-17
3.340000E+03	3.018180E-16	2.672706E-17
3.350000E+03	3.107960E-16	2.640734E-17
3.360000E+03	3.201294E-16	2.608070E-17
3.370000E+03	3.297556E-16	2.574411E-17
3.380000E+03	3.397562E-16	2.540682E-17
3.390000E+03	3.501158E-16	2.507082E-17
3.400000E+03	3.608424E-16	2.474063E-17
3.410000E+03	3.719424E-16	2.442133E-17
3.420000E+03	3.834475E-16	2.412018E-17
3.430000E+03	3.953347E-16	2.384143E-17
3.440000E+03	4.076040E-16	2.359136E-17
3.450000E+03	4.202794E-16	2.337790E-17
3.460000E+03	4.333258E-16	2.320562E-17
3.470000E+03	4.467873E-16	2.308328E-17
3.480000E+03	4.605882E-16	2.301282E-17
3.490000E+03	4.747310E-16	2.299965E-17
3.500000E+03	4.891820E-16	2.304638E-17
3.510000E+03	5.039292E-16	2.315550E-17
3.520000E+03	5.188910E-16	2.332502E-17
3.530000E+03	5.340066E-16	2.355274E-17
3.540000E+03	5.492384E-16	2.383630E-17
3.550000E+03	5.644782E-16	2.416916E-17
3.560000E+03	5.797084E-16	2.454784E-17
3.570000E+03	5.947777E-16	2.496253E-17
3.580000E+03	6.096316E-16	2.540710E-17
3.590000E+03	6.241852E-16	2.587396E-17
3.600000E+03	6.383934E-16	2.635708E-17
3.610000E+03	6.521532E-16	2.684818E-17
3.620000E+03	6.654089E-16	2.734108E-17
3.630000E+03	6.781905E-16	2.783340E-17
3.640000E+03	6.904117E-16	2.831822E-17
3.650000E+03	7.020770E-16	2.879260E-17
3.660000E+03	7.132850E-16	2.925773E-17
3.670000E+03	7.240906E-16	2.971319E-17
3.680000E+03	7.345049E-16	3.015695E-17
3.690000E+03	7.447006E-16	3.059381E-17
3.700000E+03	7.547687E-16	3.102534E-17
3.710000E+03	7.649218E-16	3.145822E-17
3.720000E+03	7.752501E-16	3.189421E-17
3.730000E+03	7.859568E-16	3.233980E-17
3.740000E+03	7.972162E-16	3.280032E-17
3.750000E+03	8.092025E-16	3.328113E-17
3.760000E+03	8.221175E-16	3.378871E-17
3.770000E+03	8.360839E-16	3.432624E-17
3.780000E+03	8.512741E-16	3.489890E-17
3.790000E+03	8.678028E-16	3.550945E-17
3.800000E+03	8.857211E-16	3.615808E-17
3.810000E+03	9.051458E-16	3.684774E-17
3.820000E+03	9.260174E-16	3.757438E-17
3.830000E+03	9.483665E-16	3.833797E-17
3.840000E+03	9.721063E-16	3.913416E-17
3.850000E+03	9.970616E-16	3.995573E-17
3.860000E+03	1.023036E-15	4.079543E-17
3.870000E+03	1.049814E-15	4.164613E-17
3.880000E+03	1.077124E-15	4.249956E-17
3.890000E+03	1.104540E-15	4.334223E-17
3.900000E+03	1.131697E-15	4.416406E-17
3.910000E+03	1.158160E-15	4.495304E-17
3.920000E+03	1.183475E-15	4.569684E-17
3.930000E+03	1.207215E-15	4.638455E-17
3.940000E+03	1.228893E-15	4.700274E-17
3.950000E+03	1.248088E-15	4.754019E-17
3.960000E+03	1.264468E-15	4.798818E-17
3.970000E+03	1.277729E-15	4.833818E-17
3.980000E+03	1.287615E-15	4.858225E-17
3.990000E+03	1.294005E-15	4.871625E-17
4.000000E+03	1.296914E-15	4.873996E-17
4.010000E+03	1.296423E-15	4.865455E-17
4.020000E+03	1.292713E-15	4.846398E-17
4.030000E+03	1.286021E-15	4.817357E-17
4.040000E+03	1.276695E-15	4.779236E-17
4.050000E+03	1.265169E-15	4.733249E-17
4.060000E+03	1.251883E-15	4.680632E-17
4.070000E+03	1.237264E-15	4.622603E-17
4.080000E+03	1.221771E-15	4.560541E-17
4.090000E+03	1.205871E-15	4.495915E-17
4.100000E+03	1.189917E-15	4.429819E-17
4.110000E+03	1.174330E-15	4.363660E-17
4.120000E+03	1.159373E-15	4.298310E-17
4.130000E+03	1.145334E-15	4.234782E-17
4.140000E+03	1.132394E-15	4.173730E-17
4.150000E+03	1.120728E-15	4.115811E-17
4.160000E+03	1.110387E-15	4.061245E-17
4.170000E+03	1.101439E-15	4.010341E-17
4.180000E+03	1.093864E-15	3.963080E-17
4.190000E+03	1.087622E-15	3.919376E-17
4.200000E+03	1.082635E-15	3.879005E-17
4.210000E+03	1.078777E-15	3.841551E-17
4.220000E+03	1.075894E-15	3.806504E-17
4.230000E+03	1.073857E-15	3.773412E-17
4.240000E+03	1.072463E-15	3.741556E-17
4.250000E+03	1.071564E-15	3.710391E-17
4.260000E+03	1.070957E-15	3.679166E-17
4.270000E+03	1.070487E-15	3.647291E-17
4.280000E+03	1.070000E-15	3.614169E-17
4.290000E+03	1.069368E-15	3.579298E-17
4.300000E+03	1.068498E-15	3.542302E-17
4.310000E+03	1.067373E-15	3.503076E-17
4.320000E+03	1.065955E-15	3.461466E-17
4.330000E+03	1.064293E-15	3.417643E-17
4.340000E+03	1.062521E-15	3.372108E-17
4.350000E+03	1.060750E-15	3.325323E-17
4.360000E+03	1.059225E-15	3.278254E-17
4.370000E+03	1.058195E-15	3.231941E-17
4.380000E+03	1.057957E-15	3.187651E-17
4.390000E+03	1.058862E-15	3.146913E-17
4.400000E+03	1.061299E-15	3.111448E-17
4.410000E+03	1.065664E-15	3.083108E-17
4.420000E+03	1.072388E-15	3.063951E-17
4.430000E+03	1.081881E-15	3.056075E-17
4.440000E+03	1.094616E-15	3.061847E-17
4.450000E+03	1.110997E-15	3.083499E-17
4.460000E+03	1.131478E-15	3.123396E-17
4.470000E+03	1.156457E-15	3.183671E-17
4.480000E+03	1.186333E-15	3.266281E-17
4.490000E+03	1.221433E-15	3.372688E-17
4.500000E+03	1.262051E-15	3.503996E-17
4.510000E+03	1.308404E-15	3.660874E-17
4.520000E+03	1.360566E-15	3.843443E-17
4.530000E+03	1.418524E-15	4.051478E-17
4.540000E+03	1.482060E-15	4.284104E-17
4.550000E+03	1.550735E-15	4.539734E-17
4.560000E+03	1.623929E-15	4.816184E-17
4.570000E+03	1.700724E-15	5.110291E-17
4.580000E+03	1.779926E-15	5.417930E-17
4.590000E+03	1.860105E-15	5.734113E-17
4.600000E+03	1.939486E-15	6.052612E-17
4.610000E+03	2.016167E-15	6.366617E-17
4.620000E+03	2.088055E-15	6.668534E-17
4.630000E+03	2.153026E-15	6.950498E-17
4.640000E+03	2.208965E-15	7.204510E-17
4.650000E+03	2.254015E-15	7.423279E-17
4.660000E+03	2.286545E-15	7.600164E-17
4.670000E+03	2.305366E-15	7.729926E-17
4.680000E+03	2.309844E-15	7.809165E-17
4.690000E+03	2.299782E-15	7.836018E-17
4.700000E+03	2.275623E-15	7.810881E-17
4.710000E+03	2.238297E-15	7.736003E-17
4.720000E+03	2.189131E-15	7.615206E-17
4.730000E+03	2.129874E-15	7.454023E-17
4.740000E+03	2.062423E-15	7.258782E-17
4.750000E+03	1.988832E-15	7.036601E-17
4.760000E+03	1.911102E-15	6.794635E-17
4.770000E+03	1.831171E-15	6.539997E-17
4.780000E+03	1.750816E-15	6.279350E-17
4.790000E+03	1.671518E-15	6.018385E-17
4.800000E+03	1.594579E-15	5.762179E-17
4.810000E+03	1.521008E-15	5.514779E-17
4.820000E+03	1.451558E-15	5.279290E-17
4.830000E+03	1.386746E-15	5.057953E-17
4.840000E+03	1.326900E-15	4.852294E-17
4.850000E+03	1.272144E-15	4.663081E-17
4.860000E+03	1.222493E-15	4.490658E-17
4.870000E+03	1.177826E-15	4.334844E-17
4.880000E+03	1.137956E-15	4.195184E-17
4.890000E+03	1.102614E-15	4.070887E-17
4.900000E+03	1.071531E-15	3.961119E-17
4.910000E+03	1.044380E-15	3.864793E-17
4.920000E+03	1.020848E-15	3.780829E-17
4.930000E+03	1.000615E-15	3.708068E-17
4.940000E+03	9.833677E-16	3.645351E-17
4.950000E+03	9.688193E-16	3.591581E-17
4.960000E+03	9.566837E-16	3.545643E-17
4.970000E+03	9.467196E-16	3.506573E-17
4.980000E+03	9.386928E-16	3.473436E-17
4.990000E+03	9.324287E-16	3.445520E-17
5.000000E+03	9.277534E-16	3.422135E-17
5.010000E+03	9.245344E-16	3.402761E-17
5.020000E+03	9.226799E-16	3.387053E-17
5.030000E+03	9.221083E-16	3.374729E-17
5.040000E+03	9.227848E-16	3.365696E-17
5.050000E+03	9.246988E-16	3.359969E-17
5.060000E+03	9.278301E-16	3.357535E-17
5.070000E+03	9.322117E-16	3.358577E-17
5.080000E+03	9.378557E-16	3.363196E-17
5.090000E+03	9.447956E-16	3.371554E-17
5.100000E+03	9.530410E-16	3.383702E-17
5.110000E+03	9.626105E-16	3.399692E-17
5.120000E+03	9.735085E-16	3.419486E-17
5.130000E+03	9.856909E-16	3.442827E-17
5.140000E+03	9.991345E-16	3.469484E-17
5.150000E+03	1.013766E-15	3.499000E-17
5.160000E+03	1.029507E-15	3.530849E-17
5.170000E+03	1.046276E-15	3.564450E-17
5.180000E+03	1.063960E-15	3.599084E-17
5.190000E+03	1.082467E-15	3.634064E-17
5.200000E+03	1.101681E-15	3.668611E-17
5.210000E+03	1.121514E-15	3.702029E-17
5.220000E+03	1.141869E-15	3.733609E-17
5.230000E+03	1.162644E-15	3.762637E-17
5.240000E+03	1.183764E-15	3.788523E-17
5.250000E+03	1.205138E-15	3.810685E-17
5.260000E+03	1.226661E-15	3.828550E-17
5.270000E+03	1.248227E-15	3.841638E-17
5.280000E+03	1.269731E-15	3.849564E-17
5.290000E+03	1.291034E-15	3.851979E-17
5.300000E+03	1.311964E-15	3.848595E-17
5.310000E+03	1.332341E-15	3.839311E-17
5.320000E+03	1.351964E-15	3.824227E-17
5.330000E+03	1.370617E-15	3.803718E-17
5.340000E+03	1.388074E-15	3.778511E-17
5.350000E+03	1.404116E-15	3.749750E-17
5.360000E+03	1.418520E-15	3.719007E-17
5.370000E+03	1.431123E-15	3.688398E-17
5.380000E+03	1.441775E-15	3.660356E-17
5.390000E+03	1.450396E-15	3.637580E-17
5.400000E+03	1.456964E-15	3.622729E-17
5.410000E+03	1.461511E-15	3.618032E-17
5.420000E+03	1.464155E-15	3.625030E-17
5.430000E+03	1.465032E-15	3.644048E-17
5.440000E+03	1.464337E-15	3.674324E-17
5.450000E+03	1.462283E-15	3.714307E-17
5.460000E+03	1.459119E-15	3.762057E-17
5.470000E+03	1.455069E-15	3.815438E-17
5.480000E+03	1.450353E-15	3.872435E-17
5.490000E+03	1.445120E-15	3.931137E-17
5.500000E+03	1.439476E-15	3.989901E-17
5.510000E+03	1.433529E-15	4.047468E-17
5.520000E+03	1.427238E-15	4.102537E-17
5.530000E+03	1.420444E-15	4.153761E-17
5.540000E+03	1.412901E-15	4.199772E-17
5.550000E+03	1.404254E-15	4.239042E-17
5.560000E+03	1.394098E-15	4.269994E-17
5.570000E+03	1.382036E-15	4.291127E-17
5.580000E+03	1.367695E-15	4.301058E-17
5.590000E+03	1.350781E-15	4.298672E-17
5.600000E+03	1.331179E-15	4.283446E-17
5.610000E+03	1.308901E-15	4.255324E-17
5.620000E+03	1.284168E-15	4.214974E-17
5.630000E+03	1.257418E-15	4.163844E-17
5.640000E+03	1.229206E-15	4.103863E-17
5.650000E+03	1.200254E-15	4.037590E-17
5.660000E+03	1.171413E-15	3.968090E-17
5.670000E+03	1.143505E-15	3.898407E-17
5.680000E+03	1.117400E-15	3.831799E-17
5.690000E+03	1.093926E-15	3.771430E-17
5.700000E+03	1.073830E-15	3.720221E-17
5.710000E+03	1.057765E-15	3.680774E-17
5.720000E+03	1.046306E-15	3.655441E-17
5.730000E+03	1.039919E-15	3.646189E-17
5.740000E+03	1.038974E-15	3.654632E-17
5.750000E+03	1.043733E-15	3.681994E-17
5.760000E+03	1.054395E-15	3.729252E-17
5.770000E+03	1.071026E-15	3.796895E-17
5.780000E+03	1.093586E-15	3.885010E-17
5.790000E+03	1.121950E-15	3.993350E-17
5.800000E+03	1.155825E-15	4.121050E-17
5.810000E+03	1.194779E-15	4.266716E-17
5.820000E+03	1.238214E-15	4.428323E-17
5.830000E+03	1.285372E-15	4.603220E-17
5.840000E+03	1.335277E-15	4.787928E-17
5.850000E+03	1.386839E-15	4.978487E-17
5.860000E+03	1.438769E-15	5.170164E-17
5.870000E+03	1.489726E-15	5.357983E-17
5.880000E+03	1.538254E-15	5.536518E-17
5.890000E+03	1.582949E-15	5.700503E-17
5.900000E+03	1.622469E-15	5.844899E-17
5.910000E+03	1.655615E-15	5.965219E-17
5.920000E+03	1.681382E-15	6.057725E-17
5.930000E+03	1.699045E-15	6.119752E-17
5.940000E+03	1.708192E-15	6.149852E-17
5.950000E+03	1.708695E-15	6.147659E-17
5.960000E+03	1.700749E-15	6.114046E-17
5.970000E+03	1.684819E-15	6.050896E-17
5.980000E+03	1.661654E-15	5.961114E-17
5.990000E+03	1.632160E-15	5.848175E-17
6.000000E+03	1.597404E-15	5.716077E-17
6.010000E+03	1.558530E-15	5.569049E-17
6.020000E+03	1.516687E-15	5.411286E-17
6.030000E+03	1.473030E-15	5.246936E-17
6.040000E+03	1.428596E-15	5.079677E-17
6.050000E+03	1.384361E-15	4.912934E-17
6.060000E+03	1.341130E-15	4.749490E-17
6.070000E+03	1.299607E-15	4.591753E-17
6.080000E+03	1.260333E-15	4.441539E-17
6.090000E+03	1.223667E-15	4.300015E-17
6.100000E+03	1.189894E-15	4.168088E-17
6.110000E+03	1.159126E-15	4.046053E-17
6.120000E+03	1.131380E-15	3.933880E-17
6.130000E+03	1.106592E-15	3.831267E-17
6.140000E+03	1.084613E-15	3.737623E-17
6.150000E+03	1.065232E-15	3.652170E-17
6.160000E+03	1.048198E-15	3.573994E-17
6.170000E+03	1.033233E-15	3.502124E-17
6.180000E+03	1.020053E-15	3.435567E-17
6.190000E+03	1.008328E-15	3.373196E-17
6.200000E+03	9.977595E-16	3.313983E-17
6.210000E+03	9.880541E-16	3.256918E-17
6.220000E+03	9.789338E-16	3.201029E-17
6.230000E+03	9.701350E-16	3.145381E-17
6.240000E+03	9.614373E-16	3.089179E-17
6.250000E+03	9.526622E-16	3.031777E-17
6.260000E+03	9.436727E-16	2.972693E-17
6.270000E+03	9.343898E-16	2.911692E-17
6.280000E+03	9.248173E-16	2.848876E-17
6.290000E+03	9.150066E-16	2.784598E-17
6.300000E+03	9.050663E-16	2.719498E-17
6.310000E+03	8.951875E-16	2.654578E-17
6.320000E+03	8.856081E-16	2.591090E-17
6.330000E+03	8.766134E-16	2.530517E-17
6.340000E+03	8.685235E-16	2.474515E-17
6.350000E+03	8.616795E-16	2.424849E-17
6.360000E+03	8.564384E-16	2.383350E-17
6.370000E+03	8.531321E-16	2.351761E-17
6.380000E+03	8.520898E-16	2.331763E-17
6.390000E+03	8.535815E-16	2.324770E-17
6.400000E+03	8.578703E-16	2.332019E-17
6.410000E+03	8.651315E-16	2.354260E-17
6.420000E+03	8.755158E-16	2.391848E-17
6.430000E+03	8.890615E-16	2.444636E-17
6.440000E+03	9.057358E-16	2.512157E-17
6.450000E+03	9.254028E-16	2.593584E-17
6.460000E+03	9.478223E-16	2.687756E-17
6.470000E+03	9.725993E-16	2.793051E-17
6.480000E+03	9.992268E-16	2.907499E-17
6.490000E+03	1.027077E-15	3.028740E-17
6.500000E+03	1.055361E-15	3.153895E-17
6.510000E+03	1.083222E-15	3.279814E-17
6.520000E+03	1.109670E-15	3.402867E-17
6.530000E+03	1.133716E-15	3.519360E-17
6.540000E+03	1.154303E-15	3.625306E-17
6.550000E+03	1.170457E-15	3.716936E-17
6.560000E+03	1.181291E-15	3.790713E-17
6.570000E+03	1.186039E-15	3.843484E-17
6.580000E+03	1.184169E-15	3.872884E-17
6.590000E+03	1.175363E-15	3.877289E-17
6.600000E+03	1.159574E-15	3.856046E-17
6.610000E+03	1.137007E-15	3.809437E-17
6.620000E+03	1.108124E-15	3.738693E-17
6.630000E+03	1.073631E-15	3.645985E-17
6.640000E+03	1.034376E-15	3.534067E-17
6.650000E+03	9.913513E-16	3.406296E-17
6.660000E+03	9.456016E-16	3.266295E-17
6.670000E+03	8.981865E-16	3.117826E-17
6.680000E+03	8.500984E-16	2.964486E-17
6.690000E+03	8.022715E-16	2.809727E-17
6.700000E+03	7.555013E-16	2.656555E-17
6.710000E+03	7.104488E-16	2.507535E-17
6.720000E+03	6.676264E-16	2.364719E-17
6.730000E+03	6.274329E-16	2.229761E-17
6.740000E+03	5.901232E-16	2.103802E-17
6.750000E+03	5.558339E-16	1.987547E-17
6.760000E+03	5.246280E-16	1.881422E-17
6.770000E+03	4.964667E-16	1.785470E-17
6.780000E+03	4.712780E-16	1.699590E-17
6.790000E+03	4.489292E-16	1.623442E-17
6.800000E+03	4.292700E-16	1.556600E-17
6.810000E+03	4.121267E-16	1.498528E-17
6.820000E+03	3.973164E-16	1.448639E-17
6.830000E+03	3.846489E-16	1.406298E-17
6.840000E+03	3.739505E-16	1.370910E-17
6.850000E+03	3.650384E-16	1.341831E-17
6.860000E+03	3.577419E-16	1.318448E-17
6.870000E+03	3.518988E-16	1.300168E-17
6.880000E+03	3.473603E-16	1.286433E-17
6.890000E+03	3.439777E-16	1.276684E-17
6.900000E+03	3.416203E-16	1.270416E-17
6.910000E+03	3.401576E-16	1.267127E-17
6.920000E+03	3.394766E-16	1.266375E-17
6.930000E+03	3.394646E-16	1.267718E-17
6.940000E+03	3.400261E-16	1.270787E-17
6.950000E+03	3.410668E-16	1.275220E-17
6.960000E+03	3.425102E-16	1.280730E-17
6.970000E+03	3.442861E-16	1.287069E-17
6.980000E+03	3.463307E-16	1.294024E-17
6.990000E+03	3.486003E-16	1.301473E-17
7.000000E+03	3.510590E-16	1.309337E-17
7.010000E+03	3.536789E-16	1.317579E-17
7.020000E+03	3.564490E-16	1.326233E-17
7.030000E+03	3.593757E-16	1.335404E-17
7.040000E+03	3.624727E-16	1.345222E-17
7.050000E+03	3.657562E-16	1.355822E-17
7.060000E+03	3.692753E-16	1.367452E-17
7.070000E+03	3.730596E-16	1.380281E-17
7.080000E+03	3.771685E-16	1.394570E-17
7.090000E+03	3.816511E-16	1.410537E-17
7.100000E+03	3.865621E-16	1.428409E-17
7.110000E+03	3.919548E-16	1.448397E-17
7.120000E+03	3.978777E-16	1.470692E-17
7.130000E+03	4.043672E-16	1.495430E-17
7.140000E+03	4.114653E-16	1.522766E-17
7.150000E+03	4.191818E-16	1.552725E-17
7.160000E+03	4.275286E-16	1.585336E-17
7.170000E+03	4.364868E-16	1.620505E-17
7.180000E+03	4.460498E-16	1.658172E-17
7.190000E+03	4.561617E-16	1.698088E-17
7.200000E+03	4.667731E-16	1.740018E-17
7.210000E+03	4.778143E-16	1.783644E-17
7.220000E+03	4.891946E-16	1.828564E-17
7.230000E+03	5.008228E-16	1.874368E-17
7.240000E+03	5.125838E-16	1.920553E-17
7.250000E+03	5.243596E-16	1.966603E-17
7.260000E+03	5.360256E-16	2.011978E-17
7.270000E+03	5.474471E-16	2.056099E-17
7.280000E+03	5.584966E-16	2.098420E-17
7.290000E+03	5.690508E-16	2.138414E-17
7.300000E+03	5.789878E-16	2.175572E-17
7.310000E+03	5.882059E-16	2.209473E-17
7.320000E+03	5.966206E-16	2.239780E-17
7.330000E+03	6.041528E-16	2.266198E-17
7.340000E+03	6.107779E-16	2.288661E-17
7.350000E+03	6.164582E-16	2.307082E-17
7.360000E+03	6.212053E-16	2.321583E-17
7.370000E+03	6.250561E-16	2.332406E-17
7.380000E+03	6.280543E-16	2.339835E-17
7.390000E+03	6.302865E-16	2.344328E-17
7.400000E+03	6.318286E-16	2.346303E-17
7.410000E+03	6.327804E-16	2.346268E-17
7.420000E+03	6.332261E-16	2.344658E-17
7.430000E+03	6.332614E-16	2.341937E-17
7.440000E+03	6.329711E-16	2.338506E-17
7.450000E+03	6.324335E-16	2.334720E-17
7.460000E+03	6.317016E-16	2.330816E-17
7.470000E+03	6.308264E-16	2.327002E-17
7.480000E+03	6.298181E-16	2.323315E-17
7.490000E+03	6.286893E-16	2.319778E-17
7.500000E+03	6.274514E-16	2.316392E-17
7.510000E+03	6.260863E-16	2.313029E-17
7.520000E+03	6.245929E-16	2.309603E-17
7.530000E+03	6.229672E-16	2.305999E-17
7.540000E+03	6.212306E-16	2.302177E-17
7.550000E+03	6.193927E-16	2.298041E-17
7.560000E+03	6.174928E-16	2.293596E-17
7.570000E+03	6.155766E-16	2.288869E-17
7.580000E+03	6.137112E-16	2.283971E-17
7.590000E+03	6.119582E-16	2.279005E-17
7.600000E+03	6.104035E-16	2.274178E-17
7.610000E+03	6.091289E-16	2.269704E-17
7.620000E+03	6.082160E-16	2.265814E-17
7.630000E+03	6.077412E-16	2.262740E-17
7.640000E+03	6.077874E-16	2.260758E-17
7.650000E+03	6.083832E-16	2.259949E-17
7.660000E+03	6.095870E-16	2.260517E-17
7.670000E+03	6.114025E-16	2.262464E-17
7.680000E+03	6.138080E-16	2.265699E-17
7.690000E+03	6.167783E-16	2.270116E-17
7.700000E+03	6.202260E-16	2.275382E-17
7.710000E+03	6.240669E-16	2.281177E-17
7.720000E+03	6.281628E-16	2.286999E-17
7.730000E+03	6.323570E-16	2.292292E-17
7.740000E+03	6.364780E-16	2.296473E-17
7.750000E+03	6.403102E-16	2.298828E-17
7.760000E+03	6.436601E-16	2.298758E-17
