#wls	flux	fluxerr
1.600000E+03	9.876508E-17	6.748646E-17
1.640000E+03	9.225740E-17	6.206173E-17
1.680000E+03	8.635244E-17	5.718139E-17
1.720000E+03	8.101256E-17	5.280066E-17
1.760000E+03	7.621486E-17	4.888588E-17
1.800000E+03	7.190965E-17	4.538751E-17
1.840000E+03	6.806444E-17	4.226887E-17
1.880000E+03	6.466004E-17	3.950281E-17
1.920000E+03	6.167715E-17	3.706304E-17
1.960000E+03	5.906688E-17	3.490668E-17
2.000000E+03	5.682563E-17	3.301922E-17
2.040000E+03	5.492135E-17	3.137011E-17
2.080000E+03	5.335306E-17	2.994756E-17
2.120000E+03	5.208572E-17	2.872108E-17
2.160000E+03	5.112289E-17	2.768239E-17
2.200000E+03	5.045275E-17	2.681486E-17
2.240000E+03	5.006650E-17	2.610376E-17
2.280000E+03	4.995822E-17	2.553602E-17
2.320000E+03	5.013269E-17	2.510389E-17
2.360000E+03	5.059730E-17	2.480040E-17
2.400000E+03	5.134681E-17	2.461183E-17
2.440000E+03	5.240245E-17	2.453656E-17
2.480000E+03	5.376523E-17	2.456230E-17
2.520000E+03	5.546315E-17	2.468801E-17
2.560000E+03	5.750403E-17	2.490191E-17
2.600000E+03	5.993209E-17	2.520632E-17
2.640000E+03	6.276352E-17	2.558897E-17
2.680000E+03	6.603558E-17	2.604406E-17
2.720000E+03	6.980034E-17	2.656834E-17
2.760000E+03	7.408919E-17	2.714692E-17
2.800000E+03	7.897722E-17	2.777728E-17
2.840000E+03	8.451984E-17	2.844461E-17
2.880000E+03	9.080128E-17	2.913872E-17
2.920000E+03	9.789530E-17	2.983986E-17
2.960000E+03	1.059200E-16	3.053537E-17
3.000000E+03	1.149857E-16	3.120198E-17
3.010000E+03	1.174240E-16	3.135967E-17
3.020000E+03	1.199446E-16	3.151541E-17
3.030000E+03	1.225499E-16	3.166867E-17
3.040000E+03	1.252160E-16	3.181220E-17
3.050000E+03	1.279838E-16	3.195540E-17
3.060000E+03	1.308294E-16	3.209101E-17
3.070000E+03	1.337548E-16	3.221842E-17
3.080000E+03	1.367894E-16	3.234354E-17
3.090000E+03	1.399084E-16	3.245913E-17
3.100000E+03	1.431136E-16	3.256452E-17
3.110000E+03	1.464215E-16	3.266223E-17
3.120000E+03	1.498493E-16	3.275468E-17
3.130000E+03	1.533560E-16	3.283154E-17
3.140000E+03	1.569878E-16	3.290154E-17
3.150000E+03	1.607330E-16	3.296066E-17
3.160000E+03	1.645789E-16	3.300496E-17
3.170000E+03	1.685587E-16	3.303975E-17
3.180000E+03	1.726442E-16	3.305798E-17
3.190000E+03	1.768696E-16	3.306483E-17
3.200000E+03	1.812056E-16	3.305330E-17
3.210000E+03	1.856872E-16	3.302842E-17
3.220000E+03	1.903010E-16	3.298618E-17
3.230000E+03	1.950495E-16	3.292561E-17
3.240000E+03	1.999350E-16	3.284567E-17
3.250000E+03	2.049776E-16	3.274816E-17
3.260000E+03	2.101446E-16	3.262641E-17
3.270000E+03	2.154914E-16	3.248768E-17
3.280000E+03	2.209664E-16	3.232265E-17
3.290000E+03	2.266265E-16	3.213835E-17
3.300000E+03	2.324179E-16	3.192575E-17
3.310000E+03	2.383986E-16	3.169165E-17
3.320000E+03	2.445322E-16	3.142983E-17
3.330000E+03	2.508192E-16	3.113942E-17
3.340000E+03	2.572799E-16	3.082199E-17
3.350000E+03	2.639351E-16	3.047901E-17
3.360000E+03	2.707243E-16	3.010265E-17
3.370000E+03	2.777080E-16	2.969927E-17
3.380000E+03	2.848651E-16	2.926600E-17
3.390000E+03	2.921943E-16	2.880249E-17
3.400000E+03	2.996937E-16	2.830863E-17
3.410000E+03	3.073609E-16	2.778453E-17
3.420000E+03	3.151926E-16	2.723065E-17
3.430000E+03	3.231849E-16	2.664779E-17
3.440000E+03	3.313565E-16	2.603897E-17
3.450000E+03	3.396795E-16	2.540402E-17
3.460000E+03	3.481718E-16	2.474692E-17
3.470000E+03	3.568036E-16	2.406886E-17
3.480000E+03	3.655677E-16	2.337362E-17
3.490000E+03	3.744805E-16	2.266735E-17
3.500000E+03	3.835342E-16	2.195548E-17
3.510000E+03	3.927203E-16	2.124459E-17
3.520000E+03	4.020035E-16	2.054059E-17
3.530000E+03	4.114183E-16	1.985233E-17
3.540000E+03	4.208961E-16	1.918414E-17
3.550000E+03	4.304415E-16	1.854486E-17
3.560000E+03	4.400533E-16	1.794223E-17
3.570000E+03	4.496487E-16	1.738140E-17
3.580000E+03	4.592472E-16	1.687219E-17
3.590000E+03	4.687849E-16	1.641951E-17
3.600000E+03	4.782487E-16	1.603020E-17
3.610000E+03	4.875719E-16	1.570837E-17
3.620000E+03	4.967488E-16	1.545488E-17
3.630000E+03	5.057209E-16	1.526745E-17
3.640000E+03	5.144600E-16	1.514432E-17
3.650000E+03	5.230104E-16	1.508332E-17
3.660000E+03	5.313110E-16	1.507926E-17
3.670000E+03	5.394179E-16	1.513077E-17
3.680000E+03	5.472992E-16	1.523235E-17
3.690000E+03	5.550137E-16	1.538188E-17
3.700000E+03	5.626301E-16	1.557774E-17
3.710000E+03	5.701645E-16	1.581292E-17
3.720000E+03	5.777553E-16	1.608396E-17
3.730000E+03	5.854634E-16	1.638545E-17
3.740000E+03	5.934161E-16	1.670937E-17
3.750000E+03	6.016919E-16	1.704649E-17
3.760000E+03	6.103954E-16	1.738921E-17
3.770000E+03	6.196361E-16	1.772829E-17
3.780000E+03	6.294932E-16	1.805443E-17
3.790000E+03	6.400118E-16	1.835873E-17
3.800000E+03	6.512796E-16	1.863344E-17
3.810000E+03	6.632637E-16	1.886865E-17
3.820000E+03	6.760085E-16	1.905839E-17
3.830000E+03	6.895025E-16	1.919653E-17
3.840000E+03	7.037251E-16	1.927879E-17
3.850000E+03	7.186393E-16	1.930251E-17
3.860000E+03	7.341480E-16	1.926483E-17
3.870000E+03	7.501302E-16	1.916524E-17
3.880000E+03	7.664453E-16	1.900605E-17
3.890000E+03	7.829352E-16	1.879110E-17
3.900000E+03	7.993295E-16	1.852598E-17
3.910000E+03	8.154554E-16	1.822243E-17
3.920000E+03	8.310525E-16	1.788866E-17
3.930000E+03	8.457822E-16	1.753536E-17
3.940000E+03	8.594139E-16	1.717905E-17
3.950000E+03	8.716273E-16	1.682959E-17
3.960000E+03	8.821597E-16	1.650064E-17
3.970000E+03	8.906724E-16	1.620559E-17
3.980000E+03	8.970337E-16	1.595072E-17
3.990000E+03	9.009610E-16	1.573899E-17
4.000000E+03	9.023422E-16	1.557450E-17
4.010000E+03	9.012196E-16	1.544758E-17
4.020000E+03	8.976351E-16	1.534728E-17
4.030000E+03	8.917139E-16	1.526495E-17
4.040000E+03	8.837270E-16	1.518509E-17
4.050000E+03	8.739864E-16	1.509622E-17
4.060000E+03	8.627998E-16	1.499162E-17
4.070000E+03	8.506205E-16	1.486354E-17
4.080000E+03	8.378058E-16	1.470790E-17
4.090000E+03	8.247687E-16	1.452722E-17
4.100000E+03	8.118540E-16	1.432160E-17
4.110000E+03	7.994088E-16	1.409569E-17
4.120000E+03	7.877581E-16	1.385671E-17
4.130000E+03	7.770550E-16	1.360311E-17
4.140000E+03	7.674853E-16	1.333649E-17
4.150000E+03	7.591845E-16	1.306074E-17
4.160000E+03	7.521938E-16	1.277549E-17
4.170000E+03	7.464981E-16	1.248277E-17
4.180000E+03	7.421451E-16	1.218892E-17
4.190000E+03	7.390430E-16	1.189537E-17
4.200000E+03	7.371449E-16	1.160795E-17
4.210000E+03	7.363602E-16	1.133494E-17
4.220000E+03	7.365656E-16	1.107942E-17
4.230000E+03	7.376277E-16	1.084742E-17
4.240000E+03	7.394063E-16	1.064519E-17
4.250000E+03	7.416917E-16	1.046309E-17
4.260000E+03	7.443144E-16	1.029286E-17
4.270000E+03	7.470892E-16	1.012950E-17
4.280000E+03	7.498243E-16	9.961758E-18
4.290000E+03	7.523292E-16	9.784070E-18
4.300000E+03	7.544631E-16	9.598695E-18
4.310000E+03	7.560190E-16	9.405029E-18
4.320000E+03	7.568571E-16	9.212259E-18
4.330000E+03	7.568196E-16	9.038174E-18
4.340000E+03	7.558297E-16	8.898348E-18
4.350000E+03	7.537809E-16	8.813868E-18
4.360000E+03	7.506651E-16	8.802553E-18
4.370000E+03	7.466263E-16	8.846951E-18
4.380000E+03	7.419002E-16	8.926231E-18
4.390000E+03	7.367295E-16	9.023743E-18
4.400000E+03	7.315352E-16	9.116866E-18
4.410000E+03	7.267107E-16	9.190028E-18
4.420000E+03	7.227281E-16	9.238229E-18
4.430000E+03	7.200968E-16	9.258145E-18
4.440000E+03	7.193459E-16	9.254503E-18
4.450000E+03	7.210446E-16	9.239263E-18
4.460000E+03	7.257669E-16	9.222772E-18
4.470000E+03	7.341790E-16	9.221669E-18
4.480000E+03	7.469383E-16	9.254692E-18
4.490000E+03	7.645883E-16	9.326223E-18
4.500000E+03	7.876898E-16	9.442686E-18
4.510000E+03	8.168836E-16	9.614467E-18
4.520000E+03	8.525162E-16	9.836959E-18
4.530000E+03	8.949443E-16	1.010928E-17
4.540000E+03	9.445185E-16	1.043428E-17
4.550000E+03	1.001247E-15	1.079424E-17
4.560000E+03	1.064962E-15	1.117360E-17
4.570000E+03	1.135361E-15	1.156371E-17
4.580000E+03	1.211744E-15	1.194005E-17
4.590000E+03	1.293091E-15	1.228909E-17
4.600000E+03	1.378009E-15	1.261355E-17
4.610000E+03	1.464674E-15	1.290278E-17
4.620000E+03	1.550803E-15	1.317092E-17
4.630000E+03	1.633702E-15	1.345442E-17
4.640000E+03	1.710609E-15	1.374298E-17
4.650000E+03	1.778459E-15	1.404606E-17
4.660000E+03	1.834228E-15	1.439953E-17
4.670000E+03	1.875534E-15	1.478175E-17
4.680000E+03	1.900258E-15	1.519312E-17
4.690000E+03	1.906951E-15	1.565559E-17
4.700000E+03	1.895618E-15	1.611623E-17
4.710000E+03	1.866988E-15	1.653626E-17
4.720000E+03	1.822423E-15	1.689461E-17
4.730000E+03	1.764487E-15	1.711419E-17
4.740000E+03	1.695966E-15	1.714417E-17
4.750000E+03	1.619761E-15	1.697765E-17
4.760000E+03	1.538814E-15	1.661880E-17
4.770000E+03	1.455819E-15	1.610246E-17
4.780000E+03	1.373141E-15	1.548653E-17
4.790000E+03	1.292785E-15	1.482705E-17
4.800000E+03	1.216459E-15	1.418578E-17
4.810000E+03	1.145367E-15	1.360874E-17
4.820000E+03	1.080325E-15	1.308699E-17
4.830000E+03	1.021914E-15	1.261014E-17
4.840000E+03	9.704178E-16	1.217537E-17
4.850000E+03	9.257342E-16	1.177236E-17
4.860000E+03	8.876873E-16	1.139950E-17
4.870000E+03	8.560582E-16	1.106234E-17
4.880000E+03	8.302549E-16	1.075773E-17
4.890000E+03	8.097406E-16	1.048925E-17
4.900000E+03	7.940132E-16	1.026543E-17
4.910000E+03	7.824374E-16	1.008614E-17
4.920000E+03	7.743969E-16	9.956403E-18
4.930000E+03	7.693334E-16	9.885118E-18
4.940000E+03	7.667668E-16	9.870444E-18
4.950000E+03	7.662056E-16	9.912479E-18
4.960000E+03	7.672352E-16	1.001049E-17
4.970000E+03	7.694985E-16	1.013964E-17
4.980000E+03	7.726567E-16	1.027428E-17
4.990000E+03	7.763644E-16	1.039497E-17
5.000000E+03	7.803302E-16	1.048399E-17
5.010000E+03	7.842314E-16	1.053107E-17
5.020000E+03	7.877847E-16	1.053432E-17
5.030000E+03	7.907876E-16	1.049353E-17
5.040000E+03	7.930818E-16	1.041585E-17
5.050000E+03	7.945915E-16	1.031100E-17
5.060000E+03	7.956206E-16	1.017566E-17
5.070000E+03	7.965697E-16	1.000882E-17
5.080000E+03	7.978584E-16	9.815600E-18
5.090000E+03	7.999912E-16	9.600116E-18
5.100000E+03	8.034867E-16	9.374250E-18
5.110000E+03	8.088180E-16	9.155834E-18
5.120000E+03	8.162951E-16	8.954151E-18
5.130000E+03	8.262142E-16	8.786382E-18
5.140000E+03	8.387843E-16	8.673724E-18
5.150000E+03	8.538066E-16	8.613198E-18
5.160000E+03	8.709710E-16	8.607503E-18
5.170000E+03	8.899266E-16	8.668084E-18
5.180000E+03	9.102657E-16	8.789716E-18
5.190000E+03	9.315169E-16	8.976561E-18
5.200000E+03	9.532138E-16	9.240896E-18
5.210000E+03	9.751418E-16	9.569685E-18
5.220000E+03	9.970813E-16	9.954863E-18
5.230000E+03	1.018857E-15	1.039524E-17
5.240000E+03	1.040449E-15	1.086317E-17
5.250000E+03	1.061862E-15	1.133669E-17
5.260000E+03	1.083077E-15	1.180602E-17
5.270000E+03	1.104026E-15	1.225363E-17
5.280000E+03	1.124622E-15	1.267359E-17
5.290000E+03	1.144757E-15	1.307024E-17
5.300000E+03	1.164133E-15	1.343162E-17
5.310000E+03	1.182449E-15	1.375403E-17
5.320000E+03	1.199360E-15	1.404256E-17
5.330000E+03	1.214460E-15	1.428757E-17
5.340000E+03	1.227301E-15	1.448715E-17
5.350000E+03	1.237471E-15	1.464789E-17
5.360000E+03	1.244672E-15	1.476107E-17
5.370000E+03	1.248592E-15	1.482432E-17
5.380000E+03	1.249053E-15	1.484157E-17
5.390000E+03	1.246039E-15	1.479551E-17
5.400000E+03	1.239609E-15	1.467410E-17
5.410000E+03	1.229936E-15	1.447239E-17
5.420000E+03	1.217431E-15	1.416996E-17
5.430000E+03	1.202595E-15	1.375564E-17
5.440000E+03	1.185938E-15	1.323094E-17
5.450000E+03	1.168159E-15	1.259834E-17
5.460000E+03	1.149933E-15	1.187369E-17
5.470000E+03	1.131965E-15	1.108612E-17
5.480000E+03	1.115032E-15	1.026397E-17
5.490000E+03	1.099956E-15	9.450812E-18
5.500000E+03	1.087483E-15	8.696440E-18
5.510000E+03	1.078289E-15	8.021032E-18
5.520000E+03	1.073054E-15	7.461334E-18
5.530000E+03	1.072240E-15	7.061874E-18
5.540000E+03	1.075207E-15	6.803693E-18
5.550000E+03	1.081161E-15	6.685560E-18
5.560000E+03	1.089046E-15	6.713367E-18
5.570000E+03	1.096891E-15	6.797169E-18
5.580000E+03	1.102486E-15	6.863115E-18
5.590000E+03	1.103656E-15	6.886174E-18
5.600000E+03	1.098623E-15	6.850723E-18
5.610000E+03	1.085836E-15	6.789493E-18
5.620000E+03	1.064381E-15	6.756265E-18
5.630000E+03	1.035083E-15	6.732949E-18
5.640000E+03	9.993275E-16	6.712530E-18
5.650000E+03	9.587233E-16	6.702407E-18
5.660000E+03	9.156444E-16	6.664721E-18
5.670000E+03	8.723981E-16	6.582584E-18
5.680000E+03	8.309283E-16	6.465835E-18
5.690000E+03	7.928760E-16	6.317694E-18
5.700000E+03	7.595961E-16	6.158915E-18
5.710000E+03	7.321381E-16	6.022490E-18
5.720000E+03	7.112279E-16	5.928397E-18
5.730000E+03	6.975289E-16	5.904005E-18
5.740000E+03	6.915612E-16	5.971311E-18
5.750000E+03	6.931324E-16	6.099439E-18
5.760000E+03	7.020294E-16	6.254073E-18
5.770000E+03	7.182064E-16	6.411040E-18
5.780000E+03	7.415629E-16	6.543928E-18
5.790000E+03	7.720580E-16	6.634996E-18
5.800000E+03	8.097092E-16	6.677625E-18
5.810000E+03	8.543783E-16	6.668303E-18
5.820000E+03	9.058221E-16	6.625921E-18
5.830000E+03	9.635895E-16	6.592225E-18
5.840000E+03	1.026599E-15	6.594148E-18
5.850000E+03	1.093313E-15	6.696511E-18
5.860000E+03	1.161721E-15	6.984954E-18
5.870000E+03	1.229595E-15	7.436325E-18
5.880000E+03	1.294352E-15	8.019879E-18
5.890000E+03	1.353183E-15	8.721071E-18
5.900000E+03	1.404082E-15	9.449089E-18
5.910000E+03	1.445282E-15	1.012741E-17
5.920000E+03	1.475287E-15	1.071009E-17
5.930000E+03	1.493581E-15	1.111284E-17
5.940000E+03	1.500027E-15	1.128071E-17
5.950000E+03	1.494933E-15	1.120781E-17
5.960000E+03	1.479034E-15	1.090602E-17
5.970000E+03	1.453320E-15	1.043486E-17
5.980000E+03	1.419003E-15	9.885788E-18
5.990000E+03	1.377569E-15	9.317925E-18
6.000000E+03	1.330508E-15	8.813314E-18
6.010000E+03	1.279402E-15	8.444108E-18
6.020000E+03	1.225934E-15	8.161062E-18
6.030000E+03	1.171669E-15	7.924659E-18
6.040000E+03	1.118025E-15	7.729833E-18
6.050000E+03	1.066300E-15	7.551019E-18
6.060000E+03	1.017589E-15	7.392528E-18
6.070000E+03	9.727220E-16	7.272689E-18
6.080000E+03	9.322075E-16	7.161768E-18
6.090000E+03	8.964235E-16	7.043498E-18
6.100000E+03	8.655789E-16	6.920009E-18
6.110000E+03	8.395484E-16	6.779335E-18
6.120000E+03	8.181651E-16	6.622978E-18
6.130000E+03	8.012222E-16	6.460531E-18
6.140000E+03	7.882142E-16	6.276807E-18
6.150000E+03	7.786232E-16	6.065840E-18
6.160000E+03	7.719812E-16	5.835229E-18
6.170000E+03	7.678066E-16	5.586193E-18
6.180000E+03	7.656592E-16	5.337785E-18
6.190000E+03	7.651437E-16	5.121074E-18
6.200000E+03	7.659987E-16	4.940134E-18
6.210000E+03	7.680224E-16	4.814444E-18
6.220000E+03	7.709434E-16	4.768823E-18
6.230000E+03	7.743011E-16	4.766815E-18
6.240000E+03	7.775540E-16	4.783725E-18
6.250000E+03	7.801189E-16	4.824498E-18
6.260000E+03	7.811736E-16	4.885416E-18
6.270000E+03	7.798648E-16	4.989528E-18
6.280000E+03	7.754485E-16	5.163164E-18
6.290000E+03	7.676773E-16	5.356097E-18
6.300000E+03	7.564410E-16	5.518830E-18
6.310000E+03	7.418146E-16	5.626757E-18
6.320000E+03	7.243303E-16	5.659181E-18
6.330000E+03	7.046458E-16	5.617551E-18
6.340000E+03	6.834697E-16	5.520729E-18
6.350000E+03	6.618525E-16	5.383516E-18
6.360000E+03	6.408132E-16	5.230495E-18
6.370000E+03	6.212788E-16	5.086737E-18
6.380000E+03	6.041825E-16	4.947498E-18
6.390000E+03	5.904075E-16	4.811093E-18
6.400000E+03	5.806915E-16	4.682566E-18
6.410000E+03	5.754002E-16	4.554589E-18
6.420000E+03	5.749059E-16	4.429195E-18
6.430000E+03	5.795801E-16	4.319489E-18
6.440000E+03	5.894726E-16	4.234013E-18
6.450000E+03	6.046626E-16	4.196964E-18
6.460000E+03	6.252058E-16	4.238706E-18
6.470000E+03	6.505768E-16	4.345298E-18
6.480000E+03	6.800586E-16	4.505453E-18
6.490000E+03	7.128109E-16	4.718115E-18
6.500000E+03	7.478493E-16	4.951987E-18
6.510000E+03	7.840132E-16	5.186727E-18
6.520000E+03	8.199221E-16	5.420173E-18
6.530000E+03	8.541997E-16	5.631434E-18
6.540000E+03	8.853460E-16	5.819225E-18
6.550000E+03	9.118198E-16	5.999013E-18
6.560000E+03	9.323253E-16	6.143957E-18
6.570000E+03	9.457312E-16	6.240991E-18
6.580000E+03	9.510434E-16	6.296702E-18
6.590000E+03	9.477879E-16	6.287167E-18
6.600000E+03	9.357852E-16	6.211306E-18
6.610000E+03	9.152097E-16	6.092850E-18
6.620000E+03	8.867924E-16	5.931121E-18
6.630000E+03	8.515565E-16	5.745206E-18
6.640000E+03	8.107326E-16	5.560372E-18
6.650000E+03	7.659584E-16	5.349904E-18
6.660000E+03	7.188776E-16	5.100176E-18
6.670000E+03	6.709744E-16	4.818122E-18
6.680000E+03	6.235900E-16	4.501178E-18
6.690000E+03	5.778323E-16	4.164351E-18
6.700000E+03	5.345481E-16	3.835489E-18
6.710000E+03	4.943256E-16	3.532192E-18
6.720000E+03	4.575430E-16	3.278727E-18
6.730000E+03	4.244051E-16	3.093305E-18
6.740000E+03	3.948526E-16	2.956207E-18
6.750000E+03	3.687763E-16	2.852676E-18
6.760000E+03	3.460104E-16	2.778667E-18
6.770000E+03	3.263244E-16	2.726401E-18
6.780000E+03	3.095012E-16	2.695462E-18
6.790000E+03	2.953203E-16	2.687863E-18
6.800000E+03	2.835077E-16	2.692576E-18
6.810000E+03	2.738123E-16	2.700954E-18
6.820000E+03	2.660211E-16	2.708449E-18
6.830000E+03	2.599203E-16	2.707466E-18
6.840000E+03	2.553328E-16	2.693464E-18
6.850000E+03	2.521092E-16	2.665665E-18
6.860000E+03	2.500993E-16	2.624367E-18
6.870000E+03	2.491855E-16	2.573602E-18
6.880000E+03	2.492480E-16	2.520433E-18
6.890000E+03	2.501568E-16	2.471364E-18
6.900000E+03	2.517824E-16	2.436380E-18
6.910000E+03	2.539938E-16	2.425513E-18
6.920000E+03	2.566458E-16	2.435862E-18
6.930000E+03	2.595767E-16	2.463589E-18
6.940000E+03	2.626339E-16	2.506162E-18
6.950000E+03	2.657112E-16	2.554569E-18
6.960000E+03	2.687013E-16	2.602206E-18
6.970000E+03	2.715059E-16	2.646929E-18
6.980000E+03	2.740632E-16	2.686038E-18
6.990000E+03	2.763244E-16	2.721428E-18
7.000000E+03	2.782403E-16	2.758198E-18
7.010000E+03	2.798336E-16	2.796548E-18
7.020000E+03	2.811288E-16	2.838735E-18
7.030000E+03	2.821673E-16	2.888282E-18
7.040000E+03	2.830334E-16	2.940242E-18
7.050000E+03	2.838238E-16	2.990623E-18
7.060000E+03	2.846371E-16	3.037701E-18
7.070000E+03	2.855776E-16	3.075616E-18
7.080000E+03	2.867474E-16	3.100811E-18
7.090000E+03	2.882552E-16	3.112570E-18
7.100000E+03	2.901843E-16	3.107315E-18
7.110000E+03	2.926263E-16	3.084356E-18
7.120000E+03	2.956609E-16	3.046358E-18
7.130000E+03	2.993516E-16	2.995348E-18
7.140000E+03	3.037458E-16	2.937733E-18
7.150000E+03	3.089031E-16	2.884446E-18
7.160000E+03	3.148149E-16	2.843494E-18
7.170000E+03	3.214811E-16	2.828229E-18
7.180000E+03	3.288628E-16	2.853188E-18
7.190000E+03	3.368848E-16	2.915592E-18
7.200000E+03	3.454386E-16	3.011399E-18
7.210000E+03	3.544056E-16	3.136515E-18
7.220000E+03	3.636906E-16	3.270456E-18
7.230000E+03	3.731899E-16	3.393522E-18
7.240000E+03	3.828087E-16	3.493202E-18
7.250000E+03	3.924276E-16	3.559665E-18
7.260000E+03	4.019378E-16	3.592755E-18
7.270000E+03	4.112073E-16	3.602923E-18
7.280000E+03	4.200978E-16	3.605584E-18
7.290000E+03	4.284618E-16	3.628194E-18
7.300000E+03	4.361464E-16	3.701147E-18
7.310000E+03	4.429998E-16	3.826522E-18
7.320000E+03	4.488622E-16	4.001872E-18
7.330000E+03	4.536109E-16	4.222743E-18
7.340000E+03	4.572013E-16	4.461463E-18
7.350000E+03	4.596344E-16	4.691209E-18
7.360000E+03	4.609128E-16	4.893171E-18
7.370000E+03	4.611317E-16	5.050916E-18
7.380000E+03	4.603788E-16	5.155358E-18
7.390000E+03	4.587911E-16	5.204303E-18
7.400000E+03	4.565338E-16	5.194467E-18
7.410000E+03	4.538076E-16	5.128202E-18
7.420000E+03	4.507989E-16	5.013665E-18
7.430000E+03	4.477122E-16	4.860856E-18
7.440000E+03	4.447419E-16	4.685773E-18
7.450000E+03	4.420541E-16	4.508321E-18
7.460000E+03	4.397539E-16	4.342466E-18
7.470000E+03	4.379358E-16	4.206992E-18
7.480000E+03	4.366436E-16	4.121457E-18
7.490000E+03	4.357349E-16	4.085687E-18
7.500000E+03	4.350614E-16	4.100646E-18
7.510000E+03	4.344268E-16	4.168753E-18
7.520000E+03	4.336416E-16	4.277227E-18
7.530000E+03	4.324964E-16	4.415517E-18
7.540000E+03	4.308018E-16	4.577288E-18
7.550000E+03	4.284775E-16	4.748128E-18
7.560000E+03	4.254783E-16	4.917390E-18
7.570000E+03	4.217871E-16	5.078619E-18
7.580000E+03	4.175137E-16	5.220637E-18
7.590000E+03	4.127899E-16	5.335839E-18
7.600000E+03	4.077614E-16	5.421378E-18
7.610000E+03	4.026264E-16	5.474576E-18
7.620000E+03	3.975587E-16	5.495953E-18
7.630000E+03	3.927495E-16	5.488999E-18
7.640000E+03	3.883587E-16	5.454319E-18
7.650000E+03	3.845593E-16	5.394663E-18
7.660000E+03	3.814994E-16	5.314162E-18
7.670000E+03	3.792755E-16	5.213455E-18
7.680000E+03	3.779737E-16	5.094881E-18
7.690000E+03	3.776703E-16	4.963290E-18
7.700000E+03	3.783920E-16	4.823065E-18
7.710000E+03	3.801596E-16	4.681964E-18
7.720000E+03	3.829659E-16	4.549702E-18
7.730000E+03	3.866647E-16	4.429773E-18
7.740000E+03	3.910730E-16	4.328662E-18
7.750000E+03	3.959883E-16	4.255144E-18
7.760000E+03	4.010913E-16	4.207905E-18
