#wls	flux	fluxerr
1.600000E+03	4.052755E-17	4.247658E-17
1.640000E+03	4.061069E-17	4.233744E-17
1.680000E+03	4.074783E-17	4.224916E-17
1.720000E+03	4.091955E-17	4.219067E-17
1.760000E+03	4.114225E-17	4.217805E-17
1.800000E+03	4.141097E-17	4.220520E-17
1.840000E+03	4.173530E-17	4.228082E-17
1.880000E+03	4.211048E-17	4.239892E-17
1.920000E+03	4.254648E-17	4.256834E-17
1.960000E+03	4.303880E-17	4.278319E-17
2.000000E+03	4.359787E-17	4.305246E-17
2.040000E+03	4.421944E-17	4.337040E-17
2.080000E+03	4.490682E-17	4.373868E-17
2.120000E+03	4.567918E-17	4.417420E-17
2.160000E+03	4.651713E-17	4.465622E-17
2.200000E+03	4.744856E-17	4.520958E-17
2.240000E+03	4.845386E-17	4.581333E-17
2.280000E+03	4.956235E-17	4.649292E-17
2.320000E+03	5.076270E-17	4.723508E-17
2.360000E+03	5.206008E-17	4.804201E-17
2.400000E+03	5.347795E-17	4.893241E-17
2.440000E+03	5.499574E-17	4.988426E-17
2.480000E+03	5.664731E-17	5.092502E-17
2.520000E+03	5.842121E-17	5.204061E-17
2.560000E+03	6.033432E-17	5.324226E-17
2.600000E+03	6.238441E-17	5.452381E-17
2.640000E+03	6.458972E-17	5.589678E-17
2.680000E+03	6.695915E-17	5.736398E-17
2.720000E+03	6.949068E-17	5.891851E-17
2.760000E+03	7.220467E-17	6.057219E-17
2.800000E+03	7.511121E-17	6.232744E-17
2.840000E+03	7.820812E-17	6.417609E-17
2.880000E+03	8.151788E-17	6.612991E-17
2.920000E+03	8.503787E-17	6.817951E-17
2.960000E+03	8.880604E-17	7.034755E-17
3.000000E+03	9.280591E-17	7.261242E-17
3.010000E+03	9.384322E-17	7.319367E-17
3.020000E+03	9.489576E-17	7.378089E-17
3.030000E+03	9.596368E-17	7.437406E-17
3.040000E+03	9.704714E-17	7.497314E-17
3.050000E+03	9.814626E-17	7.557810E-17
3.060000E+03	9.927688E-17	7.620093E-17
3.070000E+03	1.004080E-16	7.681764E-17
3.080000E+03	1.015551E-16	7.744010E-17
3.090000E+03	1.027347E-16	7.808056E-17
3.100000E+03	1.039147E-16	7.871450E-17
3.110000E+03	1.051277E-16	7.936650E-17
3.120000E+03	1.063410E-16	8.001168E-17
3.130000E+03	1.075880E-16	8.067499E-17
3.140000E+03	1.088352E-16	8.133118E-17
3.150000E+03	1.101166E-16	8.200553E-17
3.160000E+03	1.114156E-16	8.268534E-17
3.170000E+03	1.127147E-16	8.335753E-17
3.180000E+03	1.140490E-16	8.404792E-17
3.190000E+03	1.154011E-16	8.474351E-17
3.200000E+03	1.167713E-16	8.544421E-17
3.210000E+03	1.181413E-16	8.613656E-17
3.220000E+03	1.195477E-16	8.684709E-17
3.230000E+03	1.209724E-16	8.756242E-17
3.240000E+03	1.224155E-16	8.828244E-17
3.250000E+03	1.238772E-16	8.900702E-17
3.260000E+03	1.253576E-16	8.973604E-17
3.270000E+03	1.268567E-16	9.046938E-17
3.280000E+03	1.283746E-16	9.120689E-17
3.290000E+03	1.299114E-16	9.194844E-17
3.300000E+03	1.314873E-16	9.270809E-17
3.310000E+03	1.330623E-16	9.345735E-17
3.320000E+03	1.346564E-16	9.421019E-17
3.330000E+03	1.362696E-16	9.496645E-17
3.340000E+03	1.379231E-16	9.574055E-17
3.350000E+03	1.395750E-16	9.650320E-17
3.360000E+03	1.412462E-16	9.726874E-17
3.370000E+03	1.429584E-16	9.805187E-17
3.380000E+03	1.446685E-16	9.882270E-17
3.390000E+03	1.463979E-16	9.959582E-17
3.400000E+03	1.481690E-16	1.003862E-16
3.410000E+03	1.499374E-16	1.011634E-16
3.420000E+03	1.517479E-16	1.019577E-16
3.430000E+03	1.535783E-16	1.027535E-16
3.440000E+03	1.554050E-16	1.035352E-16
3.450000E+03	1.572747E-16	1.043335E-16
3.460000E+03	1.591401E-16	1.051170E-16
3.470000E+03	1.610488E-16	1.059168E-16
3.480000E+03	1.629771E-16	1.067170E-16
3.490000E+03	1.649250E-16	1.075174E-16
3.500000E+03	1.668673E-16	1.083015E-16
3.510000E+03	1.688537E-16	1.091013E-16
3.520000E+03	1.708592E-16	1.099004E-16
3.530000E+03	1.728839E-16	1.106985E-16
3.540000E+03	1.749276E-16	1.114954E-16
3.550000E+03	1.769639E-16	1.122741E-16
3.560000E+03	1.790448E-16	1.130676E-16
3.570000E+03	1.811443E-16	1.138589E-16
3.580000E+03	1.832621E-16	1.146478E-16
3.590000E+03	1.853981E-16	1.154339E-16
3.600000E+03	1.875520E-16	1.162170E-16
3.610000E+03	1.897237E-16	1.169966E-16
3.620000E+03	1.919129E-16	1.177726E-16
3.630000E+03	1.941193E-16	1.185445E-16
3.640000E+03	1.963427E-16	1.193120E-16
3.650000E+03	1.985828E-16	1.200749E-16
3.660000E+03	2.008393E-16	1.208327E-16
3.670000E+03	2.031120E-16	1.215851E-16
3.680000E+03	2.054304E-16	1.223497E-16
3.690000E+03	2.077345E-16	1.230905E-16
3.700000E+03	2.100538E-16	1.238249E-16
3.710000E+03	2.123877E-16	1.245526E-16
3.720000E+03	2.147360E-16	1.252733E-16
3.730000E+03	2.170983E-16	1.259865E-16
3.740000E+03	2.195057E-16	1.267104E-16
3.750000E+03	2.218948E-16	1.274080E-16
3.760000E+03	2.242965E-16	1.280972E-16
3.770000E+03	2.267103E-16	1.287777E-16
3.780000E+03	2.291687E-16	1.294678E-16
3.790000E+03	2.316055E-16	1.301300E-16
3.800000E+03	2.340529E-16	1.307826E-16
3.810000E+03	2.365104E-16	1.314252E-16
3.820000E+03	2.390116E-16	1.320764E-16
3.830000E+03	2.414877E-16	1.326983E-16
3.840000E+03	2.439721E-16	1.333093E-16
3.850000E+03	2.464641E-16	1.339092E-16
3.860000E+03	2.489987E-16	1.345169E-16
3.870000E+03	2.515044E-16	1.350938E-16
3.880000E+03	2.540159E-16	1.356589E-16
3.890000E+03	2.565687E-16	1.362312E-16
3.900000E+03	2.590897E-16	1.367719E-16
3.910000E+03	2.616142E-16	1.373001E-16
3.920000E+03	2.641788E-16	1.378350E-16
3.930000E+03	2.667085E-16	1.383376E-16
3.940000E+03	2.692393E-16	1.388271E-16
3.950000E+03	2.717706E-16	1.393034E-16
3.960000E+03	2.743401E-16	1.397860E-16
3.970000E+03	2.768700E-16	1.402355E-16
3.980000E+03	2.793979E-16	1.406714E-16
3.990000E+03	2.819622E-16	1.411135E-16
4.000000E+03	2.844836E-16	1.415221E-16
4.010000E+03	2.870001E-16	1.419171E-16
4.020000E+03	2.895110E-16	1.422982E-16
4.030000E+03	2.920560E-16	1.426855E-16
4.040000E+03	2.945530E-16	1.430393E-16
4.050000E+03	2.970415E-16	1.433793E-16
4.060000E+03	2.995205E-16	1.437058E-16
4.070000E+03	3.020309E-16	1.440387E-16
4.080000E+03	3.044882E-16	1.443383E-16
4.090000E+03	3.069330E-16	1.446246E-16
4.100000E+03	3.093643E-16	1.448978E-16
4.110000E+03	3.117810E-16	1.451581E-16
4.120000E+03	3.141822E-16	1.454057E-16
4.130000E+03	3.166103E-16	1.456608E-16
4.140000E+03	3.189775E-16	1.458837E-16
4.150000E+03	3.213259E-16	1.460946E-16
4.160000E+03	3.236546E-16	1.462938E-16
4.170000E+03	3.259624E-16	1.464817E-16
4.180000E+03	3.282482E-16	1.466585E-16
4.190000E+03	3.305111E-16	1.468247E-16
4.200000E+03	3.327500E-16	1.469805E-16
4.210000E+03	3.349637E-16	1.471264E-16
4.220000E+03	3.371513E-16	1.472628E-16
4.230000E+03	3.393116E-16	1.473900E-16
4.240000E+03	3.414436E-16	1.475085E-16
4.250000E+03	3.435463E-16	1.476187E-16
4.260000E+03	3.455719E-16	1.477010E-16
4.270000E+03	3.476127E-16	1.477960E-16
4.280000E+03	3.496210E-16	1.478840E-16
4.290000E+03	3.515960E-16	1.479655E-16
4.300000E+03	3.535365E-16	1.480409E-16
4.310000E+03	3.553939E-16	1.480908E-16
4.320000E+03	3.572627E-16	1.481554E-16
4.330000E+03	3.590942E-16	1.482152E-16
4.340000E+03	3.608391E-16	1.482508E-16
4.350000E+03	3.625933E-16	1.483024E-16
4.360000E+03	3.642588E-16	1.483305E-16
4.370000E+03	3.659322E-16	1.483753E-16
4.380000E+03	3.675150E-16	1.483974E-16
4.390000E+03	3.691044E-16	1.484369E-16
4.400000E+03	3.706014E-16	1.484543E-16
4.410000E+03	3.721038E-16	1.484895E-16
4.420000E+03	3.735122E-16	1.485033E-16
4.430000E+03	3.748752E-16	1.485155E-16
4.440000E+03	3.762423E-16	1.485461E-16
4.450000E+03	3.775130E-16	1.485558E-16
4.460000E+03	3.787368E-16	1.485644E-16
4.470000E+03	3.799130E-16	1.485719E-16
4.480000E+03	3.810414E-16	1.485784E-16
4.490000E+03	3.821215E-16	1.485838E-16
4.500000E+03	3.832035E-16	1.486076E-16
4.510000E+03	3.841861E-16	1.486106E-16
4.520000E+03	3.851196E-16	1.486122E-16
4.530000E+03	3.859529E-16	1.485927E-16
4.540000E+03	3.867874E-16	1.485910E-16
4.550000E+03	3.875722E-16	1.485872E-16
4.560000E+03	3.883072E-16	1.485812E-16
4.570000E+03	3.889924E-16	1.485725E-16
4.580000E+03	3.895769E-16	1.485414E-16
4.590000E+03	3.901626E-16	1.485264E-16
4.600000E+03	3.906986E-16	1.485076E-16
4.610000E+03	3.911341E-16	1.484654E-16
4.620000E+03	3.915712E-16	1.484380E-16
4.630000E+03	3.919081E-16	1.483863E-16
4.640000E+03	3.922472E-16	1.483484E-16
4.650000E+03	3.924866E-16	1.482854E-16
4.660000E+03	3.926778E-16	1.482160E-16
4.670000E+03	3.928210E-16	1.481398E-16
4.680000E+03	3.929676E-16	1.480755E-16
4.690000E+03	3.930161E-16	1.479843E-16
4.700000E+03	3.930181E-16	1.478849E-16
4.710000E+03	3.929738E-16	1.477768E-16
4.720000E+03	3.928840E-16	1.476596E-16
4.730000E+03	3.927490E-16	1.475329E-16
4.740000E+03	3.925695E-16	1.473963E-16
4.750000E+03	3.923460E-16	1.472494E-16
4.760000E+03	3.920792E-16	1.470918E-16
4.770000E+03	3.917194E-16	1.469043E-16
4.780000E+03	3.913679E-16	1.467244E-16
4.790000E+03	3.909751E-16	1.465329E-16
4.800000E+03	3.904916E-16	1.463107E-16
4.810000E+03	3.900183E-16	1.460951E-16
4.820000E+03	3.894559E-16	1.458485E-16
4.830000E+03	3.889050E-16	1.456081E-16
4.840000E+03	3.882667E-16	1.453364E-16
4.850000E+03	3.875918E-16	1.450520E-16
4.860000E+03	3.868808E-16	1.447549E-16
4.870000E+03	3.861839E-16	1.444633E-16
4.880000E+03	3.854034E-16	1.441404E-16
4.890000E+03	3.845893E-16	1.438047E-16
4.900000E+03	3.837424E-16	1.434561E-16
4.910000E+03	3.828636E-16	1.430949E-16
4.920000E+03	3.819538E-16	1.427211E-16
4.930000E+03	3.810136E-16	1.423349E-16
4.940000E+03	3.799959E-16	1.419184E-16
4.950000E+03	3.789978E-16	1.415080E-16
4.960000E+03	3.779720E-16	1.410857E-16
4.970000E+03	3.768715E-16	1.406341E-16
4.980000E+03	3.757926E-16	1.401892E-16
4.990000E+03	3.746411E-16	1.397156E-16
5.000000E+03	3.735125E-16	1.392493E-16
5.010000E+03	3.723133E-16	1.387552E-16
5.020000E+03	3.710915E-16	1.382515E-16
5.030000E+03	3.698944E-16	1.377560E-16
5.040000E+03	3.686297E-16	1.372343E-16
5.050000E+03	3.673447E-16	1.367042E-16
5.060000E+03	3.660403E-16	1.361664E-16
5.070000E+03	3.647172E-16	1.356213E-16
5.080000E+03	3.633763E-16	1.350694E-16
5.090000E+03	3.620181E-16	1.345112E-16
5.100000E+03	3.606436E-16	1.339473E-16
5.110000E+03	3.592533E-16	1.333782E-16
5.120000E+03	3.578032E-16	1.327879E-16
5.130000E+03	3.563839E-16	1.322103E-16
5.140000E+03	3.549509E-16	1.316292E-16
5.150000E+03	3.534608E-16	1.310288E-16
5.160000E+03	3.520029E-16	1.304425E-16
5.170000E+03	3.504895E-16	1.298384E-16
5.180000E+03	3.489656E-16	1.292332E-16
5.190000E+03	3.474751E-16	1.286436E-16
5.200000E+03	3.459317E-16	1.280380E-16
5.210000E+03	3.443796E-16	1.274331E-16
5.220000E+03	3.428193E-16	1.268294E-16
5.230000E+03	3.412515E-16	1.262274E-16
5.240000E+03	3.396766E-16	1.256278E-16
5.250000E+03	3.380953E-16	1.250308E-16
5.260000E+03	3.365079E-16	1.244371E-16
5.270000E+03	3.349152E-16	1.238472E-16
5.280000E+03	3.332761E-16	1.232460E-16
5.290000E+03	3.316741E-16	1.226648E-16
5.300000E+03	3.300682E-16	1.220886E-16
5.310000E+03	3.284180E-16	1.215026E-16
5.320000E+03	3.268056E-16	1.209374E-16
5.330000E+03	3.251503E-16	1.203633E-16
5.340000E+03	3.235332E-16	1.198105E-16
5.350000E+03	3.218745E-16	1.192494E-16
5.360000E+03	3.202148E-16	1.186951E-16
5.370000E+03	3.185938E-16	1.181626E-16
5.380000E+03	3.169329E-16	1.176227E-16
5.390000E+03	3.152721E-16	1.170900E-16
5.400000E+03	3.136117E-16	1.165649E-16
5.410000E+03	3.119521E-16	1.160473E-16
5.420000E+03	3.102935E-16	1.155372E-16
5.430000E+03	3.086363E-16	1.150347E-16
5.440000E+03	3.069808E-16	1.145397E-16
5.450000E+03	3.052895E-16	1.140381E-16
5.460000E+03	3.036383E-16	1.135580E-16
5.470000E+03	3.019896E-16	1.130851E-16
5.480000E+03	3.003065E-16	1.126055E-16
5.490000E+03	2.986637E-16	1.121468E-16
5.500000E+03	2.969874E-16	1.116811E-16
5.510000E+03	2.953514E-16	1.112357E-16
5.520000E+03	2.936828E-16	1.107831E-16
5.530000E+03	2.920543E-16	1.103502E-16
5.540000E+03	2.903942E-16	1.099097E-16
5.550000E+03	2.887386E-16	1.094748E-16
5.560000E+03	2.870879E-16	1.090454E-16
5.570000E+03	2.854420E-16	1.086211E-16
5.580000E+03	2.838013E-16	1.082016E-16
5.590000E+03	2.821658E-16	1.077867E-16
5.600000E+03	2.805357E-16	1.073760E-16
5.610000E+03	2.789111E-16	1.069692E-16
5.620000E+03	2.772922E-16	1.065660E-16
5.630000E+03	2.756790E-16	1.061661E-16
5.640000E+03	2.740717E-16	1.057693E-16
5.650000E+03	2.724370E-16	1.053623E-16
5.660000E+03	2.708420E-16	1.049706E-16
5.670000E+03	2.692531E-16	1.045812E-16
5.680000E+03	2.676378E-16	1.041808E-16
5.690000E+03	2.660618E-16	1.037948E-16
5.700000E+03	2.644599E-16	1.033975E-16
5.710000E+03	2.628648E-16	1.030015E-16
5.720000E+03	2.613088E-16	1.026189E-16
5.730000E+03	2.597276E-16	1.022245E-16
5.740000E+03	2.581536E-16	1.018306E-16
5.750000E+03	2.565867E-16	1.014370E-16
5.760000E+03	2.550582E-16	1.010559E-16
5.770000E+03	2.535057E-16	1.006624E-16
5.780000E+03	2.519604E-16	1.002686E-16
5.790000E+03	2.504225E-16	9.987455E-17
5.800000E+03	2.488920E-16	9.947998E-17
5.810000E+03	2.473690E-16	9.908481E-17
5.820000E+03	2.458535E-16	9.868893E-17
5.830000E+03	2.443155E-16	9.828023E-17
5.840000E+03	2.428153E-16	9.788273E-17
5.850000E+03	2.413225E-16	9.748429E-17
5.860000E+03	2.398374E-16	9.708485E-17
5.870000E+03	2.383308E-16	9.667256E-17
5.880000E+03	2.368612E-16	9.627109E-17
5.890000E+03	2.353992E-16	9.586854E-17
5.900000E+03	2.339163E-16	9.545326E-17
5.910000E+03	2.324699E-16	9.504863E-17
5.920000E+03	2.310031E-16	9.463141E-17
5.930000E+03	2.295443E-16	9.421328E-17
5.940000E+03	2.281215E-16	9.380576E-17
5.950000E+03	2.266788E-16	9.338592E-17
5.960000E+03	2.252443E-16	9.296534E-17
5.970000E+03	2.238453E-16	9.255541E-17
5.980000E+03	2.224269E-16	9.213353E-17
5.990000E+03	2.210167E-16	9.171117E-17
6.000000E+03	2.196147E-16	9.128841E-17
6.010000E+03	2.182209E-16	9.086535E-17
6.020000E+03	2.168353E-16	9.044213E-17
6.030000E+03	2.154580E-16	9.001884E-17
6.040000E+03	2.140888E-16	8.959562E-17
6.050000E+03	2.127280E-16	8.917259E-17
6.060000E+03	2.113753E-16	8.874988E-17
6.070000E+03	2.100310E-16	8.832764E-17
6.080000E+03	2.086949E-16	8.790600E-17
6.090000E+03	2.073418E-16	8.747441E-17
6.100000E+03	2.060224E-16	8.705445E-17
6.110000E+03	2.047114E-16	8.663553E-17
6.120000E+03	2.034086E-16	8.621780E-17
6.130000E+03	2.020895E-16	8.579091E-17
6.140000E+03	2.008036E-16	8.537603E-17
6.150000E+03	1.995016E-16	8.495240E-17
6.160000E+03	1.982325E-16	8.454098E-17
6.170000E+03	1.969478E-16	8.412119E-17
6.180000E+03	1.956956E-16	8.371381E-17
6.190000E+03	1.944280E-16	8.329844E-17
6.200000E+03	1.931927E-16	8.289565E-17
6.210000E+03	1.919424E-16	8.248525E-17
6.220000E+03	1.907008E-16	8.207756E-17
6.230000E+03	1.894911E-16	8.168269E-17
6.240000E+03	1.882668E-16	8.128073E-17
6.250000E+03	1.870513E-16	8.088185E-17
6.260000E+03	1.858672E-16	8.049600E-17
6.270000E+03	1.846690E-16	8.010354E-17
6.280000E+03	1.834796E-16	7.971447E-17
6.290000E+03	1.822990E-16	7.932889E-17
6.300000E+03	1.811271E-16	7.894688E-17
6.310000E+03	1.799641E-16	7.856853E-17
6.320000E+03	1.788098E-16	7.819390E-17
6.330000E+03	1.776644E-16	7.782307E-17
6.340000E+03	1.765278E-16	7.745609E-17
6.350000E+03	1.754000E-16	7.709302E-17
6.360000E+03	1.742810E-16	7.673391E-17
6.370000E+03	1.731708E-16	7.637879E-17
6.380000E+03	1.720695E-16	7.602771E-17
6.390000E+03	1.709771E-16	7.568067E-17
6.400000E+03	1.698727E-16	7.532846E-17
6.410000E+03	1.687980E-16	7.498961E-17
6.420000E+03	1.677323E-16	7.465483E-17
6.430000E+03	1.666754E-16	7.432413E-17
6.440000E+03	1.656070E-16	7.398842E-17
6.450000E+03	1.645679E-16	7.366586E-17
6.460000E+03	1.635377E-16	7.334732E-17
6.470000E+03	1.624964E-16	7.302380E-17
6.480000E+03	1.614839E-16	7.271324E-17
6.490000E+03	1.604804E-16	7.240657E-17
6.500000E+03	1.594661E-16	7.209492E-17
6.510000E+03	1.584803E-16	7.179595E-17
6.520000E+03	1.574839E-16	7.149195E-17
6.530000E+03	1.565159E-16	7.120044E-17
6.540000E+03	1.555375E-16	7.090383E-17
6.550000E+03	1.545682E-16	7.061083E-17
6.560000E+03	1.536267E-16	7.033001E-17
6.570000E+03	1.526752E-16	7.004396E-17
6.580000E+03	1.517513E-16	6.976986E-17
6.590000E+03	1.508176E-16	6.949043E-17
6.600000E+03	1.498928E-16	6.921419E-17
6.610000E+03	1.489952E-16	6.894953E-17
6.620000E+03	1.480880E-16	6.867936E-17
6.630000E+03	1.471897E-16	6.841211E-17
6.640000E+03	1.463002E-16	6.814768E-17
6.650000E+03	1.454194E-16	6.788596E-17
6.660000E+03	1.445652E-16	6.763519E-17
6.670000E+03	1.437017E-16	6.737858E-17
6.680000E+03	1.428469E-16	6.712439E-17
6.690000E+03	1.420008E-16	6.687252E-17
6.700000E+03	1.411632E-16	6.662287E-17
6.710000E+03	1.403342E-16	6.637533E-17
6.720000E+03	1.395136E-16	6.612981E-17
6.730000E+03	1.387015E-16	6.588620E-17
6.740000E+03	1.378977E-16	6.564442E-17
6.750000E+03	1.371023E-16	6.540435E-17
6.760000E+03	1.363152E-16	6.516590E-17
6.770000E+03	1.355363E-16	6.492897E-17
6.780000E+03	1.347655E-16	6.469348E-17
6.790000E+03	1.340029E-16	6.445932E-17
6.800000E+03	1.332483E-16	6.422640E-17
6.810000E+03	1.325016E-16	6.399463E-17
6.820000E+03	1.317466E-16	6.375604E-17
6.830000E+03	1.310158E-16	6.352633E-17
6.840000E+03	1.302927E-16	6.329751E-17
6.850000E+03	1.295774E-16	6.306949E-17
6.860000E+03	1.288536E-16	6.283440E-17
6.870000E+03	1.281535E-16	6.260777E-17
6.880000E+03	1.274608E-16	6.238168E-17
6.890000E+03	1.267754E-16	6.215609E-17
6.900000E+03	1.260817E-16	6.192322E-17
6.910000E+03	1.254110E-16	6.169839E-17
6.920000E+03	1.247318E-16	6.146619E-17
6.930000E+03	1.240752E-16	6.124184E-17
6.940000E+03	1.234255E-16	6.101762E-17
6.950000E+03	1.227674E-16	6.078591E-17
6.960000E+03	1.221314E-16	6.056177E-17
6.970000E+03	1.214869E-16	6.033008E-17
6.980000E+03	1.208641E-16	6.010579E-17
6.990000E+03	1.202328E-16	5.987389E-17
7.000000E+03	1.196228E-16	5.964922E-17
7.010000E+03	1.190042E-16	5.941688E-17
7.020000E+03	1.183919E-16	5.918427E-17
7.030000E+03	1.178004E-16	5.895867E-17
7.040000E+03	1.172002E-16	5.872533E-17
7.050000E+03	1.166205E-16	5.849887E-17
7.060000E+03	1.160320E-16	5.826464E-17
7.070000E+03	1.154492E-16	5.802992E-17
7.080000E+03	1.148720E-16	5.779468E-17
7.090000E+03	1.143145E-16	5.756606E-17
7.100000E+03	1.137481E-16	5.732964E-17
7.110000E+03	1.131869E-16	5.709259E-17
7.120000E+03	1.126308E-16	5.685491E-17
7.130000E+03	1.120797E-16	5.661655E-17
7.140000E+03	1.115475E-16	5.638454E-17
7.150000E+03	1.110060E-16	5.614475E-17
7.160000E+03	1.104692E-16	5.590423E-17
7.170000E+03	1.099370E-16	5.566297E-17
7.180000E+03	1.094091E-16	5.542095E-17
7.190000E+03	1.088856E-16	5.517817E-17
7.200000E+03	1.083662E-16	5.493462E-17
7.210000E+03	1.078509E-16	5.469028E-17
7.220000E+03	1.073395E-16	5.444517E-17
7.230000E+03	1.068320E-16	5.419928E-17
7.240000E+03	1.063282E-16	5.395261E-17
7.250000E+03	1.058279E-16	5.370517E-17
7.260000E+03	1.053312E-16	5.345697E-17
7.270000E+03	1.048378E-16	5.320801E-17
7.280000E+03	1.043346E-16	5.295167E-17
7.290000E+03	1.038477E-16	5.270129E-17
7.300000E+03	1.033638E-16	5.245020E-17
7.310000E+03	1.028828E-16	5.219842E-17
7.320000E+03	1.023918E-16	5.193946E-17
7.330000E+03	1.019164E-16	5.168643E-17
7.340000E+03	1.014437E-16	5.143279E-17
7.350000E+03	1.009734E-16	5.117858E-17
7.360000E+03	1.004929E-16	5.091742E-17
7.370000E+03	1.000273E-16	5.066220E-17
7.380000E+03	9.955146E-17	5.040017E-17
7.390000E+03	9.909030E-17	5.014411E-17
7.400000E+03	9.863115E-17	4.988767E-17
7.410000E+03	9.816153E-17	4.962464E-17
7.420000E+03	9.770619E-17	4.936764E-17
7.430000E+03	9.724030E-17	4.910421E-17
7.440000E+03	9.678842E-17	4.884684E-17
7.450000E+03	9.632594E-17	4.858322E-17
7.460000E+03	9.586506E-17	4.831961E-17
7.470000E+03	9.541779E-17	4.806215E-17
7.480000E+03	9.495985E-17	4.779872E-17
7.490000E+03	9.450329E-17	4.753549E-17
7.500000E+03	9.405997E-17	4.727852E-17
7.510000E+03	9.360593E-17	4.701587E-17
7.520000E+03	9.315308E-17	4.675363E-17
7.530000E+03	9.270136E-17	4.649187E-17
7.540000E+03	9.226243E-17	4.623655E-17
7.550000E+03	9.181276E-17	4.597597E-17
7.560000E+03	9.136406E-17	4.571610E-17
7.570000E+03	9.091628E-17	4.545702E-17
7.580000E+03	9.046939E-17	4.519882E-17
7.590000E+03	9.002335E-17	4.494158E-17
7.600000E+03	8.957811E-17	4.468537E-17
7.610000E+03	8.913364E-17	4.443029E-17
7.620000E+03	8.868992E-17	4.417642E-17
7.630000E+03	8.824692E-17	4.392383E-17
7.640000E+03	8.780462E-17	4.367262E-17
7.650000E+03	8.736298E-17	4.342287E-17
7.660000E+03	8.692201E-17	4.317466E-17
7.670000E+03	8.648169E-17	4.292808E-17
7.680000E+03	8.604200E-17	4.268320E-17
7.690000E+03	8.560294E-17	4.244012E-17
7.700000E+03	8.515360E-17	4.219351E-17
7.710000E+03	8.471585E-17	4.195429E-17
7.720000E+03	8.427873E-17	4.171710E-17
7.730000E+03	8.383149E-17	4.147670E-17
7.740000E+03	8.339570E-17	4.124385E-17
7.750000E+03	8.296057E-17	4.101325E-17
7.760000E+03	8.251552E-17	4.077976E-17
