#wls	flux	fluxerr
1.595464E+03	9.410947E-03	3.342165E-04
1.635351E+03	7.886062E-03	2.755278E-04
1.675237E+03	6.560595E-03	2.254187E-04
1.715124E+03	5.420926E-03	1.831021E-04
1.755011E+03	4.453601E-03	1.478214E-04
1.794897E+03	3.641419E-03	1.187238E-04
1.834784E+03	2.967519E-03	9.500361E-05
1.874670E+03	2.415261E-03	7.589857E-05
1.914557E+03	1.967503E-03	6.066759E-05
1.954444E+03	1.608888E-03	4.866265E-05
1.994330E+03	1.325208E-03	3.930504E-05
2.034217E+03	1.104310E-03	3.210904E-05
2.074103E+03	9.357479E-04	2.666600E-05
2.113990E+03	8.120788E-04	2.267603E-05
2.153877E+03	7.297380E-04	1.996326E-05
2.193763E+03	6.870496E-04	1.841177E-05
2.233650E+03	6.850026E-04	1.798103E-05
2.273536E+03	7.288281E-04	1.873970E-05
2.313423E+03	8.271862E-04	2.083470E-05
2.353310E+03	9.944219E-04	2.453957E-05
2.393196E+03	1.253327E-03	3.030935E-05
2.433083E+03	1.635973E-03	3.878343E-05
2.472969E+03	2.182818E-03	5.074739E-05
2.512856E+03	2.937181E-03	6.699407E-05
2.552743E+03	3.935736E-03	8.810818E-05
2.592629E+03	5.194189E-03	1.141703E-04
2.632516E+03	6.697082E-03	1.445810E-04
2.672402E+03	8.408549E-03	1.783464E-04
2.712289E+03	1.028909E-02	2.144613E-04
2.752176E+03	1.229939E-02	2.519867E-04
2.792062E+03	1.440113E-02	2.900621E-04
2.831949E+03	1.655344E-02	3.278285E-04
2.871835E+03	1.870879E-02	3.643504E-04
2.911722E+03	2.081132E-02	3.985931E-04
2.951609E+03	2.280127E-02	4.295176E-04
2.991495E+03	2.462213E-02	4.562177E-04
3.001467E+03	2.504623E-02	4.621682E-04
3.011438E+03	2.545603E-02	4.678019E-04
3.021410E+03	2.585221E-02	4.731346E-04
3.031382E+03	2.623385E-02	4.781533E-04
3.041353E+03	2.660127E-02	4.828677E-04
3.051325E+03	2.695494E-02	4.872901E-04
3.061297E+03	2.729374E-02	4.914035E-04
3.071268E+03	2.761952E-02	4.952456E-04
3.081240E+03	2.793145E-02	4.988046E-04
3.091212E+03	2.823108E-02	5.021117E-04
3.101183E+03	2.851841E-02	5.051702E-04
3.111155E+03	2.879413E-02	5.079956E-04
3.121127E+03	2.906021E-02	5.106256E-04
3.131098E+03	2.931647E-02	5.130598E-04
3.141070E+03	2.956566E-02	5.153485E-04
3.151042E+03	2.980733E-02	5.174858E-04
3.161013E+03	3.004440E-02	5.195240E-04
3.170985E+03	3.027721E-02	5.214701E-04
3.180957E+03	3.050831E-02	5.233692E-04
3.190928E+03	3.073874E-02	5.252396E-04
3.200900E+03	3.097063E-02	5.271182E-04
3.210871E+03	3.120568E-02	5.290337E-04
3.220843E+03	3.144557E-02	5.310146E-04
3.230815E+03	3.169154E-02	5.330810E-04
3.240786E+03	3.194637E-02	5.352788E-04
3.250758E+03	3.221130E-02	5.376275E-04
3.260730E+03	3.248858E-02	5.401631E-04
3.270701E+03	3.277940E-02	5.429036E-04
3.280673E+03	3.308547E-02	5.458753E-04
3.290645E+03	3.340896E-02	5.491115E-04
3.300616E+03	3.375094E-02	5.526275E-04
3.310588E+03	3.411352E-02	5.564550E-04
3.320560E+03	3.449817E-02	5.606151E-04
3.330531E+03	3.490538E-02	5.651127E-04
3.340503E+03	3.533756E-02	5.699834E-04
3.350475E+03	3.579557E-02	5.752381E-04
3.360446E+03	3.628076E-02	5.808947E-04
3.370418E+03	3.679439E-02	5.869700E-04
3.380390E+03	3.733674E-02	5.934651E-04
3.390361E+03	3.791007E-02	6.004122E-04
3.400333E+03	3.851512E-02	6.078195E-04
3.410305E+03	3.915270E-02	6.156960E-04
3.420276E+03	3.982411E-02	6.240589E-04
3.430248E+03	4.053075E-02	6.329264E-04
3.440219E+03	4.127306E-02	6.423016E-04
3.450191E+03	4.205308E-02	6.522131E-04
3.460163E+03	4.287117E-02	6.626630E-04
3.470134E+03	4.372849E-02	6.736657E-04
3.480106E+03	4.462525E-02	6.852214E-04
3.490078E+03	4.555871E-02	6.972853E-04
3.500049E+03	4.652197E-02	7.097496E-04
3.510021E+03	4.750356E-02	7.224389E-04
3.519993E+03	4.848706E-02	7.351030E-04
3.529964E+03	4.945229E-02	7.474376E-04
3.539936E+03	5.037723E-02	7.591134E-04
3.549908E+03	5.123804E-02	7.697783E-04
3.559879E+03	5.201135E-02	7.790903E-04
3.569851E+03	5.267368E-02	7.867106E-04
3.579823E+03	5.320490E-02	7.923529E-04
3.589794E+03	5.358708E-02	7.957670E-04
3.599766E+03	5.380675E-02	7.967713E-04
3.609738E+03	5.385300E-02	7.952236E-04
3.619709E+03	5.372110E-02	7.910739E-04
3.629681E+03	5.341098E-02	7.843413E-04
3.639652E+03	5.293120E-02	7.751708E-04
3.649624E+03	5.229634E-02	7.637935E-04
3.659596E+03	5.152679E-02	7.505225E-04
3.669567E+03	5.064841E-02	7.357472E-04
3.679539E+03	4.969091E-02	7.199086E-04
3.689511E+03	4.868645E-02	7.034784E-04
3.699482E+03	4.767012E-02	6.869658E-04
3.709454E+03	4.667702E-02	6.708746E-04
3.719426E+03	4.574330E-02	6.557187E-04
3.729397E+03	4.490348E-02	6.419833E-04
3.739369E+03	4.419058E-02	6.301275E-04
3.749341E+03	4.363592E-02	6.205808E-04
3.759312E+03	4.326895E-02	6.137424E-04
3.769284E+03	4.311611E-02	6.099644E-04
3.779256E+03	4.320215E-02	6.095713E-04
3.789227E+03	4.354792E-02	6.128291E-04
3.799199E+03	4.417030E-02	6.199452E-04
3.809171E+03	4.507964E-02	6.310333E-04
3.819142E+03	4.627682E-02	6.460732E-04
3.829114E+03	4.775271E-02	6.649053E-04
3.839085E+03	4.949073E-02	6.872681E-04
3.849057E+03	5.146427E-02	7.127636E-04
3.859029E+03	5.364052E-02	7.409121E-04
3.869000E+03	5.597767E-02	7.711150E-04
3.878972E+03	5.843089E-02	8.027382E-04
3.888944E+03	6.095084E-02	8.350929E-04
3.898915E+03	6.349079E-02	8.675332E-04
3.908887E+03	6.600942E-02	8.994940E-04
3.918859E+03	6.847288E-02	9.305179E-04
3.928830E+03	7.085346E-02	9.602365E-04
3.938802E+03	7.313106E-02	9.883877E-04
3.948774E+03	7.528993E-02	1.014772E-03
3.958745E+03	7.732090E-02	1.039280E-03
3.968717E+03	7.921935E-02	1.061866E-03
3.978689E+03	8.098639E-02	1.082561E-03
3.988660E+03	8.262535E-02	1.101426E-03
3.998632E+03	8.414187E-02	1.118551E-03
4.008604E+03	8.554208E-02	1.134035E-03
4.018575E+03	8.683144E-02	1.147964E-03
4.028547E+03	8.800935E-02	1.160345E-03
4.038518E+03	8.907250E-02	1.171151E-03
4.048490E+03	9.001051E-02	1.180260E-03
4.058462E+03	9.080972E-02	1.187511E-03
4.068433E+03	9.145388E-02	1.192710E-03
4.078405E+03	9.192646E-02	1.195661E-03
4.088377E+03	9.221372E-02	1.196210E-03
4.098348E+03	9.230595E-02	1.194251E-03
4.108320E+03	9.219958E-02	1.189764E-03
4.118292E+03	9.189381E-02	1.182761E-03
4.128263E+03	9.139341E-02	1.173326E-03
4.138235E+03	9.070440E-02	1.161560E-03
4.148207E+03	8.983627E-02	1.147603E-03
4.158178E+03	8.880037E-02	1.131620E-03
4.168150E+03	8.760923E-02	1.113788E-03
4.178122E+03	8.627968E-02	1.094335E-03
4.188093E+03	8.483064E-02	1.073515E-03
4.198065E+03	8.328650E-02	1.051647E-03
4.208037E+03	8.167439E-02	1.029080E-03
4.218008E+03	8.002571E-02	1.006215E-03
4.227980E+03	7.837208E-02	9.834497E-04
4.237952E+03	7.674594E-02	9.611910E-04
4.247923E+03	7.517780E-02	9.398166E-04
4.257895E+03	7.369632E-02	9.196791E-04
4.267866E+03	7.232478E-02	9.010614E-04
4.277838E+03	7.108222E-02	8.841922E-04
4.287810E+03	6.998129E-02	8.692203E-04
4.297781E+03	6.902823E-02	8.562145E-04
4.307753E+03	6.822344E-02	8.451717E-04
4.317725E+03	6.756058E-02	8.360068E-04
4.327696E+03	6.702617E-02	8.285469E-04
4.337668E+03	6.660240E-02	8.225637E-04
4.347640E+03	6.626897E-02	8.177983E-04
4.357611E+03	6.601590E-02	8.141206E-04
4.367583E+03	6.585453E-02	8.116643E-04
4.377555E+03	6.580419E-02	8.106620E-04
4.387526E+03	6.587993E-02	8.112937E-04
4.397498E+03	6.609366E-02	8.137016E-04
4.407470E+03	6.645194E-02	8.179627E-04
4.417441E+03	6.695725E-02	8.241046E-04
4.427413E+03	6.760524E-02	8.320713E-04
4.437385E+03	6.838652E-02	8.417448E-04
4.447356E+03	6.928629E-02	8.529407E-04
4.457328E+03	7.028306E-02	8.653927E-04
4.467299E+03	7.134905E-02	8.787572E-04
4.477271E+03	7.244835E-02	8.925901E-04
4.487243E+03	7.354100E-02	9.063967E-04
4.497214E+03	7.458415E-02	9.196458E-04
4.507186E+03	7.553655E-02	9.318247E-04
4.517158E+03	7.636008E-02	9.424581E-04
4.527129E+03	7.702062E-02	9.511184E-04
4.537101E+03	7.749307E-02	9.574883E-04
4.547073E+03	7.775807E-02	9.613206E-04
4.557044E+03	7.780329E-02	9.624538E-04
4.567016E+03	7.762104E-02	9.607837E-04
4.576988E+03	7.721136E-02	9.563011E-04
4.586959E+03	7.657802E-02	9.490435E-04
4.596931E+03	7.573244E-02	9.391434E-04
4.606903E+03	7.468943E-02	9.267757E-04
4.616874E+03	7.346998E-02	9.121937E-04
4.626846E+03	7.209870E-02	8.956959E-04
4.636818E+03	7.060437E-02	8.776344E-04
4.646789E+03	6.901519E-02	8.583550E-04
4.656761E+03	6.736136E-02	8.382303E-04
4.666732E+03	6.567063E-02	8.176032E-04
4.676704E+03	6.396840E-02	7.967887E-04
4.686676E+03	6.227814E-02	7.760788E-04
4.696647E+03	6.061817E-02	7.557021E-04
4.706619E+03	5.900439E-02	7.358576E-04
4.716591E+03	5.744803E-02	7.166867E-04
4.726562E+03	5.595841E-02	6.983073E-04
4.736534E+03	5.454069E-02	6.807854E-04
4.746506E+03	5.319940E-02	6.641793E-04
4.756477E+03	5.193634E-02	6.485134E-04
4.766449E+03	5.075293E-02	6.338072E-04
4.776421E+03	4.964859E-02	6.200549E-04
4.786392E+03	4.862274E-02	6.072511E-04
4.796364E+03	4.767475E-02	5.953893E-04
4.806336E+03	4.680437E-02	5.844675E-04
4.816307E+03	4.601174E-02	5.744888E-04
4.826279E+03	4.529715E-02	5.654576E-04
4.836251E+03	4.466203E-02	5.573926E-04
4.846222E+03	4.410733E-02	5.503063E-04
4.856194E+03	4.363289E-02	5.441966E-04
4.866165E+03	4.323778E-02	5.390525E-04
4.876137E+03	4.292031E-02	5.348525E-04
4.886109E+03	4.267646E-02	5.315464E-04
4.896080E+03	4.250285E-02	5.290917E-04
4.906052E+03	4.239454E-02	5.274263E-04
4.916024E+03	4.234697E-02	5.264932E-04
4.925995E+03	4.235752E-02	5.262590E-04
4.935967E+03	4.242455E-02	5.267031E-04
4.945939E+03	4.254787E-02	5.278221E-04
4.955910E+03	4.273009E-02	5.296479E-04
4.965882E+03	4.297422E-02	5.322171E-04
4.975854E+03	4.328603E-02	5.355997E-04
4.985825E+03	4.367044E-02	5.398558E-04
4.995797E+03	4.413191E-02	5.450389E-04
5.005769E+03	4.467388E-02	5.511900E-04
5.015740E+03	4.529598E-02	5.583029E-04
5.025712E+03	4.599460E-02	5.663318E-04
5.035684E+03	4.676188E-02	5.751787E-04
5.045655E+03	4.758497E-02	5.846849E-04
5.055627E+03	4.844579E-02	5.946285E-04
5.065599E+03	4.932290E-02	6.047476E-04
5.075570E+03	5.019021E-02	6.147246E-04
5.085542E+03	5.101954E-02	6.242184E-04
5.095513E+03	5.178147E-02	6.328739E-04
5.105485E+03	5.244857E-02	6.403626E-04
5.115457E+03	5.299440E-02	6.463696E-04
5.125428E+03	5.339880E-02	6.506577E-04
5.135400E+03	5.364505E-02	6.530325E-04
5.145372E+03	5.372391E-02	6.533916E-04
5.155343E+03	5.363083E-02	6.516893E-04
5.165315E+03	5.336708E-02	6.479505E-04
5.175287E+03	5.294047E-02	6.422787E-04
5.185258E+03	5.236295E-02	6.348264E-04
5.195230E+03	5.165182E-02	6.258100E-04
5.205202E+03	5.082839E-02	6.154932E-04
5.215173E+03	4.991644E-02	6.041679E-04
5.225145E+03	4.894255E-02	5.921584E-04
5.235117E+03	4.793393E-02	5.797959E-04
5.245088E+03	4.691908E-02	5.674255E-04
5.255060E+03	4.592472E-02	5.553709E-04
5.265032E+03	4.497580E-02	5.439336E-04
5.275003E+03	4.409311E-02	5.333651E-04
5.284975E+03	4.329178E-02	5.238486E-04
5.294946E+03	4.258207E-02	5.155092E-04
5.304918E+03	4.196868E-02	5.084058E-04
5.314890E+03	4.145077E-02	5.025307E-04
5.324861E+03	4.102209E-02	4.978114E-04
5.334833E+03	4.067257E-02	4.941301E-04
5.344805E+03	4.038749E-02	4.913122E-04
5.354776E+03	4.014895E-02	4.891443E-04
5.364748E+03	3.993690E-02	4.873862E-04
5.374720E+03	3.973206E-02	4.858057E-04
5.384691E+03	3.951525E-02	4.841686E-04
5.394663E+03	3.927216E-02	4.822986E-04
5.404635E+03	3.899359E-02	4.800792E-04
5.414606E+03	3.868169E-02	4.775306E-04
5.424578E+03	3.835143E-02	4.748300E-04
5.434550E+03	3.803260E-02	4.723407E-04
5.444521E+03	3.775878E-02	4.704782E-04
5.454493E+03	3.756115E-02	4.696335E-04
5.464465E+03	3.746491E-02	4.701289E-04
5.474436E+03	3.748884E-02	4.722121E-04
5.484408E+03	3.764233E-02	4.760166E-04
5.494379E+03	3.792547E-02	4.815614E-04
5.504351E+03	3.832996E-02	4.887605E-04
5.514323E+03	3.884071E-02	4.974400E-04
5.524294E+03	3.943682E-02	5.073493E-04
5.534266E+03	4.009309E-02	5.181784E-04
5.544238E+03	4.078066E-02	5.295645E-04
5.554209E+03	4.146951E-02	5.411226E-04
5.564181E+03	4.212804E-02	5.524397E-04
5.574153E+03	4.272828E-02	5.631417E-04
5.584124E+03	4.324463E-02	5.728784E-04
5.594096E+03	4.365798E-02	5.813779E-04
5.604068E+03	4.395523E-02	5.884430E-04
5.614039E+03	4.412864E-02	5.939433E-04
5.624011E+03	4.417909E-02	5.978625E-04
5.633983E+03	4.411127E-02	6.002353E-04
5.643954E+03	4.393487E-02	6.011650E-04
5.653926E+03	4.366517E-02	6.008344E-04
5.663898E+03	4.331752E-02	5.994313E-04
5.673869E+03	4.291006E-02	5.971868E-04
5.683841E+03	4.246131E-02	5.943427E-04
5.693812E+03	4.198890E-02	5.911340E-04
5.703784E+03	4.150947E-02	5.877874E-04
5.713756E+03	4.103833E-02	5.845161E-04
5.723727E+03	4.058954E-02	5.815210E-04
5.733699E+03	4.017530E-02	5.789807E-04
5.743671E+03	3.980450E-02	5.770305E-04
5.753642E+03	3.948583E-02	5.758058E-04
5.763614E+03	3.922332E-02	5.753774E-04
5.773586E+03	3.902015E-02	5.758049E-04
5.783557E+03	3.887566E-02	5.770926E-04
5.793529E+03	3.878726E-02	5.792157E-04
5.803501E+03	3.874963E-02	5.821082E-04
5.813472E+03	3.875579E-02	5.856771E-04
5.823444E+03	3.879622E-02	5.897885E-04
5.833416E+03	3.886044E-02	5.942908E-04
5.843387E+03	3.893765E-02	5.990232E-04
5.853359E+03	3.901660E-02	6.038150E-04
5.863331E+03	3.908456E-02	6.084675E-04
5.873302E+03	3.913038E-02	6.128028E-04
5.883274E+03	3.914165E-02	6.166187E-04
5.893246E+03	3.910691E-02	6.197231E-04
5.903217E+03	3.901443E-02	6.219160E-04
5.913189E+03	3.885237E-02	6.229906E-04
5.923160E+03	3.861036E-02	6.227595E-04
5.933132E+03	3.827865E-02	6.210411E-04
5.943104E+03	3.784845E-02	6.176660E-04
5.953075E+03	3.731433E-02	6.125160E-04
5.963047E+03	3.667173E-02	6.054855E-04
5.973019E+03	3.592061E-02	5.965416E-04
5.982990E+03	3.506408E-02	5.857044E-04
5.992962E+03	3.410881E-02	5.730539E-04
6.002934E+03	3.306635E-02	5.587562E-04
6.012905E+03	3.195101E-02	5.430277E-04
6.022877E+03	3.078225E-02	5.261788E-04
6.032849E+03	2.958120E-02	5.085557E-04
6.042820E+03	2.837198E-02	4.905649E-04
6.052792E+03	2.717898E-02	4.726271E-04
6.062764E+03	2.602685E-02	4.551770E-04
6.072735E+03	2.493853E-02	4.386291E-04
6.082707E+03	2.393443E-02	4.233627E-04
6.092679E+03	2.303260E-02	4.097230E-04
6.102650E+03	2.224680E-02	3.979862E-04
6.112622E+03	2.158877E-02	3.883982E-04
6.122593E+03	2.106654E-02	3.811420E-04
6.132565E+03	2.068575E-02	3.763613E-04
6.142537E+03	2.044793E-02	3.741272E-04
6.152508E+03	2.035265E-02	3.744755E-04
6.162480E+03	2.039577E-02	3.773739E-04
6.172452E+03	2.057132E-02	3.827540E-04
6.182423E+03	2.087061E-02	3.904951E-04
6.192395E+03	2.128372E-02	4.004500E-04
6.202367E+03	2.179886E-02	4.124319E-04
6.212338E+03	2.240202E-02	4.262073E-04
6.222310E+03	2.307714E-02	4.414972E-04
6.232282E+03	2.380567E-02	4.579678E-04
6.242253E+03	2.456960E-02	4.752879E-04
6.252225E+03	2.534846E-02	4.930710E-04
6.262197E+03	2.612326E-02	5.109506E-04
6.272168E+03	2.687588E-02	5.285688E-04
6.282140E+03	2.758881E-02	5.455724E-04
6.292112E+03	2.824791E-02	5.616674E-04
6.302083E+03	2.884176E-02	5.766073E-04
6.312055E+03	2.936219E-02	5.902067E-04
6.322026E+03	2.980374E-02	6.023306E-04
6.331998E+03	3.016532E-02	6.129308E-04
6.341970E+03	3.044887E-02	6.220199E-04
6.351941E+03	3.065921E-02	6.296707E-04
6.361913E+03	3.080327E-02	6.360016E-04
6.371885E+03	3.088972E-02	6.411704E-04
6.381856E+03	3.092791E-02	6.453521E-04
6.391828E+03	3.092582E-02	6.486982E-04
6.401800E+03	3.088707E-02	6.512704E-04
6.411771E+03	3.081287E-02	6.530820E-04
6.421743E+03	3.070681E-02	6.541970E-04
6.431715E+03	3.057107E-02	6.546513E-04
6.441686E+03	3.040823E-02	6.544897E-04
6.451658E+03	3.022126E-02	6.537674E-04
6.461630E+03	3.001178E-02	6.525109E-04
6.471601E+03	2.978261E-02	6.507743E-04
6.481573E+03	2.953555E-02	6.485896E-04
6.491545E+03	2.927270E-02	6.459977E-04
6.501516E+03	2.899467E-02	6.430063E-04
6.511488E+03	2.870418E-02	6.396706E-04
6.521459E+03	2.840155E-02	6.359934E-04
6.531431E+03	2.808828E-02	6.320046E-04
6.541403E+03	2.776543E-02	6.277245E-04
6.551374E+03	2.743349E-02	6.231606E-04
6.561346E+03	2.709384E-02	6.183416E-04
6.571318E+03	2.674743E-02	6.132868E-04
6.581289E+03	2.639481E-02	6.080068E-04
6.591261E+03	2.603701E-02	6.025230E-04
6.601233E+03	2.567516E-02	5.968603E-04
6.611204E+03	2.531080E-02	5.910536E-04
6.621176E+03	2.494432E-02	5.851109E-04
6.631148E+03	2.457734E-02	5.790704E-04
6.641119E+03	2.421107E-02	5.729603E-04
6.651091E+03	2.384627E-02	5.667991E-04
6.661063E+03	2.348442E-02	5.606231E-04
6.671034E+03	2.312609E-02	5.544470E-04
6.681006E+03	2.277261E-02	5.483038E-04
6.690978E+03	2.242398E-02	5.421957E-04
6.700949E+03	2.208130E-02	5.361509E-04
6.710921E+03	2.174561E-02	5.301968E-04
6.720893E+03	2.141672E-02	5.243314E-04
6.730864E+03	2.109553E-02	5.185790E-04
6.740836E+03	2.078212E-02	5.129443E-04
6.750807E+03	2.047725E-02	5.074489E-04
6.760779E+03	2.018085E-02	5.020934E-04
6.770751E+03	1.989312E-02	4.968863E-04
6.780722E+03	1.961453E-02	4.918418E-04
6.790694E+03	1.934436E-02	4.869450E-04
6.800666E+03	1.908325E-02	4.822147E-04
6.810637E+03	1.883032E-02	4.776319E-04
6.820609E+03	1.858611E-02	4.732125E-04
6.830581E+03	1.834972E-02	4.689365E-04
6.840552E+03	1.812097E-02	4.648017E-04
6.850524E+03	1.790001E-02	4.608150E-04
6.860496E+03	1.768674E-02	4.569758E-04
6.870467E+03	1.748041E-02	4.532670E-04
6.880439E+03	1.728162E-02	4.497069E-04
6.890411E+03	1.709001E-02	4.462884E-04
6.900382E+03	1.690590E-02	4.430217E-04
6.910354E+03	1.672857E-02	4.398907E-04
6.920326E+03	1.655830E-02	4.369047E-04
6.930297E+03	1.639501E-02	4.340640E-04
6.940269E+03	1.623828E-02	4.313592E-04
6.950240E+03	1.608827E-02	4.287967E-04
6.960212E+03	1.594483E-02	4.263747E-04
6.970184E+03	1.580746E-02	4.240818E-04
6.980155E+03	1.567598E-02	4.219146E-04
6.990127E+03	1.555018E-02	4.198697E-04
7.000099E+03	1.543017E-02	4.179516E-04
7.010070E+03	1.531510E-02	4.161388E-04
7.020042E+03	1.520530E-02	4.144418E-04
7.030014E+03	1.509986E-02	4.128372E-04
7.039985E+03	1.499868E-02	4.113239E-04
7.049957E+03	1.490101E-02	4.098823E-04
7.059929E+03	1.480661E-02	4.085069E-04
7.069900E+03	1.471486E-02	4.071818E-04
7.079872E+03	1.462479E-02	4.058806E-04
7.089844E+03	1.453536E-02	4.045751E-04
7.099815E+03	1.444637E-02	4.032598E-04
7.109787E+03	1.435669E-02	4.019040E-04
7.119759E+03	1.426550E-02	4.004842E-04
7.129730E+03	1.417196E-02	3.989771E-04
7.139702E+03	1.407499E-02	3.973512E-04
7.149673E+03	1.397408E-02	3.955922E-04
7.159645E+03	1.386822E-02	3.936703E-04
7.169617E+03	1.375674E-02	3.915653E-04
7.179588E+03	1.363930E-02	3.892672E-04
7.189560E+03	1.351509E-02	3.867512E-04
7.199532E+03	1.338396E-02	3.840118E-04
7.209503E+03	1.324501E-02	3.810218E-04
7.219475E+03	1.309831E-02	3.777818E-04
7.229447E+03	1.294379E-02	3.742881E-04
7.239418E+03	1.278150E-02	3.705413E-04
7.249390E+03	1.261167E-02	3.665462E-04
7.259362E+03	1.243468E-02	3.623126E-04
7.269333E+03	1.225081E-02	3.578472E-04
7.279305E+03	1.206100E-02	3.531768E-04
7.289277E+03	1.186609E-02	3.483250E-04
7.299248E+03	1.166703E-02	3.433190E-04
7.309220E+03	1.146464E-02	3.381820E-04
7.319192E+03	1.126029E-02	3.329548E-04
7.329163E+03	1.105542E-02	3.276793E-04
7.339135E+03	1.085073E-02	3.223768E-04
7.349106E+03	1.064764E-02	3.170902E-04
7.359078E+03	1.044731E-02	3.118544E-04
7.369050E+03	1.025107E-02	3.067103E-04
7.379021E+03	1.005973E-02	3.016832E-04
7.388993E+03	9.874511E-03	2.968112E-04
7.398965E+03	9.696572E-03	2.921306E-04
7.408936E+03	9.526585E-03	2.876635E-04
7.418908E+03	9.365840E-03	2.834508E-04
7.428880E+03	9.214730E-03	2.795066E-04
7.438851E+03	9.074246E-03	2.758632E-04
7.448823E+03	8.944913E-03	2.725389E-04
7.458795E+03	8.827589E-03	2.695625E-04
7.468766E+03	8.722437E-03	2.669415E-04
7.478738E+03	8.630119E-03	2.646988E-04
7.488710E+03	8.550970E-03	2.628476E-04
7.498681E+03	8.484975E-03	2.613901E-04
7.508653E+03	8.432574E-03	2.603428E-04
7.518625E+03	8.393272E-03	2.596932E-04
7.528596E+03	8.367027E-03	2.594428E-04
7.538568E+03	8.353282E-03	2.595770E-04
7.548540E+03	8.351780E-03	2.600906E-04
7.558511E+03	8.361791E-03	2.609633E-04
7.568483E+03	8.382922E-03	2.621852E-04
7.578454E+03	8.414345E-03	2.637328E-04
7.588426E+03	8.455410E-03	2.655880E-04
7.598398E+03	8.505664E-03	2.677384E-04
7.608369E+03	8.564250E-03	2.701592E-04
7.618341E+03	8.630534E-03	2.728321E-04
7.628313E+03	8.704116E-03	2.757462E-04
7.638284E+03	8.784205E-03	2.788779E-04
7.648256E+03	8.870460E-03	2.822181E-04
7.658228E+03	8.961918E-03	2.857373E-04
7.668199E+03	9.058479E-03	2.894337E-04
7.678171E+03	9.159601E-03	2.932911E-04
7.688143E+03	9.264481E-03	2.972851E-04
7.698114E+03	9.372703E-03	3.014032E-04
7.708086E+03	9.483314E-03	3.056156E-04
7.718058E+03	9.595500E-03	3.098969E-04
7.728029E+03	9.708584E-03	3.142256E-04
7.738001E+03	9.821557E-03	3.185696E-04
