#wls	flux	fluxerr
1.595464E+03	9.342695E-03	3.350102E-04
1.635351E+03	7.826636E-03	2.761187E-04
1.675237E+03	6.509684E-03	2.258646E-04
1.715124E+03	5.377982E-03	1.834461E-04
1.755011E+03	4.417880E-03	1.480944E-04
1.794897E+03	3.612078E-03	1.189475E-04
1.834784E+03	2.943670E-03	9.519218E-05
1.874670E+03	2.396020E-03	7.606106E-05
1.914557E+03	1.952041E-03	6.080964E-05
1.954444E+03	1.596456E-03	4.878784E-05
1.994330E+03	1.315158E-03	3.941602E-05
2.034217E+03	1.096104E-03	3.220831E-05
2.074103E+03	9.289719E-04	2.675682E-05
2.113990E+03	8.063944E-04	2.276177E-05
2.153877E+03	7.247846E-04	2.004583E-05
2.193763E+03	6.824509E-04	1.849246E-05
2.233650E+03	6.803532E-04	1.806104E-05
2.273536E+03	7.235892E-04	1.881873E-05
2.313423E+03	8.206983E-04	2.091259E-05
2.353310E+03	9.858628E-04	2.461715E-05
2.393196E+03	1.241553E-03	3.038733E-05
2.433083E+03	1.619407E-03	3.886301E-05
2.472969E+03	2.159412E-03	5.083257E-05
2.512856E+03	2.904552E-03	6.709656E-05
2.552743E+03	3.891604E-03	8.825594E-05
2.592629E+03	5.137145E-03	1.144186E-04
2.632516E+03	6.627310E-03	1.450177E-04
2.672402E+03	8.327444E-03	1.790758E-04
2.712289E+03	1.019776E-02	2.155690E-04
2.752176E+03	1.219732E-02	2.535133E-04
2.792062E+03	1.428555E-02	2.919915E-04
2.831949E+03	1.641956E-02	3.300949E-04
2.871835E+03	1.855084E-02	3.668596E-04
2.911722E+03	2.062407E-02	4.012493E-04
2.951609E+03	2.258141E-02	4.322472E-04
2.991495E+03	2.436911E-02	4.589828E-04
3.001467E+03	2.478517E-02	4.649412E-04
3.011438E+03	2.518715E-02	4.705833E-04
3.021410E+03	2.557573E-02	4.759259E-04
3.031382E+03	2.595003E-02	4.809560E-04
3.041353E+03	2.631041E-02	4.856840E-04
3.051325E+03	2.665738E-02	4.901228E-04
3.061297E+03	2.698982E-02	4.942556E-04
3.071268E+03	2.730962E-02	4.981203E-04
3.081240E+03	2.761594E-02	5.017052E-04
3.091212E+03	2.791035E-02	5.050420E-04
3.101183E+03	2.819282E-02	5.081336E-04
3.111155E+03	2.846408E-02	5.109958E-04
3.121127E+03	2.872603E-02	5.136660E-04
3.131098E+03	2.897850E-02	5.161435E-04
3.141070E+03	2.922419E-02	5.184788E-04
3.151042E+03	2.946262E-02	5.206647E-04
3.161013E+03	2.969667E-02	5.227539E-04
3.170985E+03	2.992662E-02	5.247524E-04
3.180957E+03	3.015495E-02	5.267049E-04
3.190928E+03	3.038264E-02	5.286287E-04
3.200900E+03	3.061177E-02	5.305605E-04
3.210871E+03	3.084396E-02	5.325280E-04
3.220843E+03	3.108082E-02	5.345592E-04
3.230815E+03	3.132351E-02	5.366731E-04
3.240786E+03	3.157472E-02	5.389151E-04
3.250758E+03	3.183563E-02	5.413038E-04
3.260730E+03	3.210842E-02	5.438748E-04
3.270701E+03	3.239421E-02	5.466456E-04
3.280673E+03	3.269463E-02	5.496414E-04
3.290645E+03	3.301179E-02	5.528954E-04
3.300616E+03	3.334673E-02	5.564227E-04
3.310588E+03	3.370145E-02	5.602539E-04
3.320560E+03	3.407742E-02	5.644107E-04
3.330531E+03	3.447508E-02	5.688972E-04
3.340503E+03	3.489681E-02	5.737495E-04
3.350475E+03	3.534346E-02	5.789784E-04
3.360446E+03	3.581632E-02	5.846017E-04
3.370418E+03	3.631670E-02	5.906370E-04
3.380390E+03	3.684486E-02	5.970854E-04
3.390361E+03	3.740304E-02	6.039796E-04
3.400333E+03	3.799204E-02	6.113286E-04
3.410305E+03	3.861266E-02	6.191419E-04
3.420276E+03	3.926620E-02	6.274367E-04
3.430248E+03	3.995402E-02	6.362310E-04
3.440219E+03	4.067649E-02	6.455273E-04
3.450191E+03	4.143539E-02	6.553499E-04
3.460163E+03	4.223055E-02	6.656930E-04
3.470134E+03	4.306218E-02	6.765564E-04
3.480106E+03	4.392993E-02	6.879316E-04
3.490078E+03	4.483092E-02	6.997710E-04
3.500049E+03	4.575837E-02	7.119669E-04
3.510021E+03	4.670137E-02	7.243491E-04
3.519993E+03	4.764454E-02	7.366789E-04
3.529964E+03	4.856907E-02	7.486667E-04
3.539936E+03	4.945432E-02	7.599983E-04
3.549908E+03	5.027790E-02	7.703362E-04
3.559879E+03	5.101778E-02	7.793521E-04
3.569851E+03	5.165178E-02	7.867191E-04
3.579823E+03	5.216069E-02	7.921593E-04
3.589794E+03	5.252745E-02	7.954298E-04
3.599766E+03	5.273939E-02	7.963568E-04
3.609738E+03	5.278635E-02	7.948060E-04
3.619709E+03	5.266423E-02	7.907352E-04
3.629681E+03	5.237327E-02	7.841680E-04
3.639652E+03	5.192164E-02	7.752455E-04
3.649624E+03	5.132320E-02	7.641920E-04
3.659596E+03	5.059737E-02	7.513123E-04
3.669567E+03	4.976879E-02	7.369844E-04
3.679539E+03	4.886588E-02	7.216388E-04
3.689511E+03	4.791940E-02	7.057355E-04
3.699482E+03	4.696290E-02	6.897706E-04
3.709454E+03	4.602991E-02	6.742350E-04
3.719426E+03	4.515513E-02	6.596312E-04
3.729397E+03	4.437159E-02	6.464319E-04
3.739369E+03	4.371087E-02	6.350843E-04
3.749341E+03	4.320306E-02	6.260083E-04
3.759312E+03	4.287641E-02	6.195938E-04
3.769284E+03	4.275611E-02	6.161814E-04
3.779256E+03	4.286552E-02	6.160820E-04
3.789227E+03	4.322399E-02	6.195455E-04
3.799199E+03	4.384673E-02	6.267595E-04
3.809171E+03	4.474297E-02	6.378243E-04
3.819142E+03	4.591383E-02	6.527234E-04
3.829114E+03	4.735125E-02	6.713101E-04
3.839085E+03	4.904011E-02	6.933391E-04
3.849057E+03	5.095562E-02	7.184310E-04
3.859029E+03	5.306748E-02	7.461331E-04
3.869000E+03	5.533668E-02	7.758753E-04
3.878972E+03	5.772156E-02	8.070564E-04
3.888944E+03	6.017638E-02	8.390253E-04
3.898915E+03	6.265743E-02	8.711660E-04
3.908887E+03	6.512493E-02	9.029240E-04
3.918859E+03	6.754553E-02	9.338406E-04
3.928830E+03	6.989159E-02	9.635406E-04
3.938802E+03	7.214276E-02	9.917536E-04
3.948774E+03	7.428281E-02	1.018270E-03
3.958745E+03	7.630203E-02	1.042970E-03
3.968717E+03	7.819508E-02	1.065797E-03
3.978689E+03	7.996203E-02	1.086770E-03
3.988660E+03	8.160508E-02	1.105933E-03
3.998632E+03	8.312840E-02	1.123360E-03
4.008604E+03	8.453650E-02	1.139128E-03
4.018575E+03	8.583353E-02	1.153308E-03
4.028547E+03	8.701825E-02	1.165901E-03
4.038518E+03	8.808728E-02	1.176875E-03
4.048490E+03	8.903072E-02	1.186117E-03
4.058462E+03	8.983618E-02	1.193479E-03
4.068433E+03	9.048916E-02	1.198787E-03
4.078405E+03	9.097456E-02	1.201864E-03
4.088377E+03	9.127960E-02	1.202562E-03
4.098348E+03	9.139494E-02	1.200783E-03
4.108320E+03	9.131697E-02	1.196504E-03
4.118292E+03	9.104433E-02	1.189730E-03
4.128263E+03	9.058091E-02	1.180537E-03
4.138235E+03	8.993210E-02	1.169016E-03
4.148207E+03	8.910700E-02	1.155309E-03
4.158178E+03	8.811702E-02	1.139583E-03
4.168150E+03	8.697466E-02	1.122016E-03
4.178122E+03	8.569684E-02	1.102844E-03
4.188093E+03	8.430252E-02	1.082323E-03
4.198065E+03	8.281577E-02	1.060773E-03
4.208037E+03	8.126285E-02	1.038539E-03
4.218008E+03	7.967404E-02	1.016011E-03
4.227980E+03	7.807975E-02	9.935801E-04
4.237952E+03	7.651107E-02	9.716399E-04
4.247923E+03	7.499716E-02	9.505569E-04
4.257895E+03	7.356550E-02	9.306739E-04
4.267866E+03	7.223853E-02	9.122668E-04
4.277838E+03	7.103447E-02	8.955576E-04
4.287810E+03	6.996547E-02	8.806905E-04
4.297781E+03	6.903768E-02	8.677339E-04
4.307753E+03	6.825161E-02	8.566860E-04
4.317725E+03	6.760149E-02	8.474676E-04
4.327696E+03	6.707514E-02	8.399196E-04
4.337668E+03	6.665639E-02	8.338316E-04
4.347640E+03	6.632584E-02	8.289521E-04
4.357611E+03	6.607244E-02	8.251358E-04
4.367583E+03	6.590932E-02	8.225402E-04
4.377555E+03	6.585489E-02	8.213889E-04
4.387526E+03	6.592313E-02	8.218507E-04
4.397498E+03	6.612524E-02	8.240598E-04
4.407470E+03	6.646721E-02	8.280868E-04
4.417441E+03	6.695126E-02	8.339558E-04
4.427413E+03	6.757286E-02	8.416075E-04
4.437385E+03	6.832257E-02	8.509213E-04
4.447356E+03	6.918580E-02	8.617129E-04
4.457328E+03	7.014173E-02	8.737206E-04
4.467299E+03	7.116365E-02	8.866099E-04
4.477271E+03	7.221705E-02	8.999486E-04
4.487243E+03	7.326386E-02	9.132600E-04
4.497214E+03	7.426327E-02	9.260323E-04
4.507186E+03	7.517582E-02	9.377695E-04
4.517158E+03	7.596494E-02	9.480106E-04
4.527129E+03	7.659761E-02	9.563379E-04
4.537101E+03	7.704901E-02	9.624345E-04
4.547073E+03	7.729959E-02	9.660487E-04
4.557044E+03	7.733675E-02	9.670150E-04
4.567016E+03	7.715261E-02	9.652263E-04
4.576988E+03	7.674703E-02	9.606719E-04
4.586959E+03	7.612355E-02	9.533875E-04
4.596931E+03	7.529334E-02	9.435045E-04
4.606903E+03	7.427071E-02	9.311942E-04
4.616874E+03	7.307601E-02	9.167048E-04
4.626846E+03	7.173293E-02	9.003271E-04
4.636818E+03	7.026913E-02	8.824028E-04
4.646789E+03	6.871176E-02	8.632685E-04
4.656761E+03	6.708993E-02	8.432868E-04
4.666732E+03	6.543038E-02	8.227916E-04
4.676704E+03	6.375779E-02	8.020918E-04
4.686676E+03	6.209506E-02	7.814749E-04
4.696647E+03	6.046013E-02	7.611671E-04
4.706619E+03	5.886876E-02	7.413671E-04
4.716591E+03	5.733224E-02	7.222184E-04
4.726562E+03	5.586004E-02	7.038415E-04
4.736534E+03	5.445752E-02	6.863052E-04
4.746506E+03	5.312945E-02	6.696715E-04
4.756477E+03	5.187790E-02	6.539678E-04
4.766449E+03	5.070456E-02	6.392172E-04
4.776421E+03	4.960921E-02	6.254181E-04
4.786392E+03	4.859155E-02	6.125685E-04
4.796364E+03	4.765125E-02	6.006649E-04
4.806336E+03	4.678816E-02	5.897071E-04
4.816307E+03	4.600245E-02	5.796977E-04
4.826279E+03	4.529426E-02	5.706397E-04
4.836251E+03	4.466482E-02	5.625488E-04
4.846222E+03	4.411469E-02	5.554326E-04
4.856194E+03	4.364347E-02	5.492863E-04
4.866165E+03	4.325018E-02	5.440975E-04
4.876137E+03	4.293323E-02	5.398460E-04
4.886109E+03	4.268878E-02	5.364829E-04
4.896080E+03	4.251391E-02	5.339714E-04
4.906052E+03	4.240416E-02	5.322549E-04
4.916024E+03	4.235549E-02	5.312817E-04
4.925995E+03	4.236560E-02	5.310226E-04
4.935967E+03	4.243309E-02	5.314595E-04
4.945939E+03	4.255782E-02	5.325897E-04
4.955910E+03	4.274214E-02	5.344417E-04
4.965882E+03	4.298862E-02	5.370470E-04
4.975854E+03	4.330244E-02	5.404691E-04
4.985825E+03	4.368778E-02	5.447588E-04
4.995797E+03	4.414822E-02	5.499593E-04
5.005769E+03	4.468644E-02	5.561027E-04
5.015740E+03	4.530152E-02	5.631758E-04
5.025712E+03	4.598957E-02	5.711289E-04
5.035684E+03	4.674252E-02	5.798608E-04
5.045655E+03	4.754782E-02	5.892155E-04
5.055627E+03	4.838799E-02	5.989765E-04
5.065599E+03	4.924236E-02	6.088893E-04
5.075570E+03	5.008592E-02	6.186471E-04
5.085542E+03	5.089183E-02	6.279226E-04
5.095513E+03	5.163199E-02	6.363740E-04
5.105485E+03	5.228018E-02	6.436849E-04
5.115457E+03	5.281100E-02	6.495505E-04
5.125428E+03	5.320509E-02	6.537415E-04
5.135400E+03	5.344605E-02	6.560657E-04
5.145372E+03	5.352467E-02	6.564198E-04
5.155343E+03	5.343629E-02	6.547566E-04
5.165315E+03	5.318199E-02	6.510985E-04
5.175287E+03	5.276927E-02	6.455461E-04
5.185258E+03	5.220971E-02	6.382488E-04
5.195230E+03	5.152006E-02	6.294180E-04
5.205202E+03	5.072094E-02	6.193109E-04
5.215173E+03	4.983548E-02	6.082139E-04
5.225145E+03	4.888940E-02	5.964439E-04
5.235117E+03	4.790911E-02	5.843246E-04
5.245088E+03	4.692206E-02	5.721919E-04
5.255060E+03	4.595381E-02	5.603575E-04
5.265032E+03	4.502798E-02	5.491095E-04
5.275003E+03	4.416439E-02	5.386899E-04
5.284975E+03	4.337767E-02	5.292771E-04
5.294946E+03	4.267773E-02	5.209934E-04
5.304918E+03	4.206921E-02	5.138970E-04
5.314890E+03	4.155152E-02	5.079834E-04
5.324861E+03	4.111886E-02	5.031851E-04
5.334833E+03	4.076177E-02	4.993900E-04
5.344805E+03	4.046654E-02	4.964347E-04
5.354776E+03	4.021652E-02	4.941193E-04
5.364748E+03	3.999301E-02	4.922179E-04
5.374720E+03	3.977829E-02	4.905152E-04
5.384691E+03	3.955480E-02	4.887957E-04
5.394663E+03	3.930964E-02	4.868985E-04
5.404635E+03	3.903398E-02	4.847115E-04
5.414606E+03	3.872975E-02	4.822523E-04
5.424578E+03	3.841012E-02	4.796781E-04
5.434550E+03	3.810360E-02	4.773394E-04
5.444521E+03	3.784120E-02	4.756234E-04
5.454493E+03	3.765161E-02	4.748930E-04
5.464465E+03	3.755816E-02	4.754496E-04
5.474436E+03	3.757819E-02	4.775237E-04
5.484408E+03	3.772031E-02	4.812396E-04
5.494379E+03	3.798496E-02	4.866201E-04
5.504351E+03	3.836475E-02	4.935884E-04
5.514323E+03	3.884558E-02	5.019815E-04
5.524294E+03	3.940778E-02	5.115613E-04
5.534266E+03	4.002759E-02	5.220331E-04
5.544238E+03	4.067759E-02	5.330489E-04
5.554209E+03	4.132936E-02	5.442412E-04
5.564181E+03	4.195303E-02	5.552158E-04
5.574153E+03	4.252218E-02	5.656161E-04
5.584124E+03	4.301228E-02	5.751034E-04
5.594096E+03	4.340491E-02	5.834133E-04
5.604068E+03	4.368741E-02	5.903534E-04
5.614039E+03	4.385195E-02	5.957925E-04
5.624011E+03	4.389902E-02	5.997091E-04
5.633983E+03	4.383274E-02	6.021317E-04
5.643954E+03	4.366198E-02	6.031544E-04
5.653926E+03	4.340109E-02	6.029493E-04
5.663898E+03	4.306457E-02	6.016949E-04
5.673869E+03	4.266972E-02	5.996131E-04
5.683841E+03	4.223431E-02	5.969376E-04
5.693812E+03	4.177535E-02	5.938971E-04
5.703784E+03	4.130894E-02	5.907130E-04
5.713756E+03	4.084991E-02	5.875936E-04
5.723727E+03	4.041195E-02	5.847359E-04
5.733699E+03	4.000687E-02	5.823146E-04
5.743671E+03	3.964320E-02	5.804607E-04
5.753642E+03	3.932932E-02	5.793062E-04
5.763614E+03	3.906914E-02	5.789198E-04
5.773586E+03	3.886570E-02	5.793596E-04
5.783557E+03	3.871831E-02	5.806285E-04
5.793529E+03	3.862460E-02	5.827046E-04
5.803501E+03	3.857954E-02	5.855246E-04
5.813472E+03	3.857649E-02	5.889995E-04
5.823444E+03	3.860633E-02	5.929997E-04
5.833416E+03	3.865908E-02	5.973793E-04
5.843387E+03	3.872434E-02	6.019819E-04
5.853359E+03	3.879117E-02	6.066397E-04
5.863331E+03	3.884714E-02	6.111567E-04
5.873302E+03	3.888133E-02	6.153564E-04
5.883274E+03	3.888149E-02	6.190372E-04
5.893246E+03	3.883641E-02	6.220094E-04
5.903217E+03	3.873455E-02	6.240736E-04
5.913189E+03	3.856440E-02	6.250263E-04
5.923160E+03	3.831595E-02	6.246841E-04
5.933132E+03	3.797978E-02	6.228695E-04
5.943104E+03	3.754758E-02	6.194193E-04
5.953075E+03	3.701434E-02	6.142217E-04
5.963047E+03	3.637596E-02	6.071779E-04
5.973019E+03	3.563267E-02	5.982605E-04
5.982990E+03	3.478788E-02	5.874952E-04
5.992962E+03	3.384835E-02	5.749659E-04
6.002934E+03	3.282556E-02	5.608398E-04
6.012905E+03	3.173363E-02	5.453340E-04
6.022877E+03	3.059159E-02	5.287556E-04
6.032849E+03	2.941980E-02	5.114425E-04
6.042820E+03	2.824159E-02	4.937924E-04
6.052792E+03	2.708038E-02	4.762143E-04
6.062764E+03	2.595970E-02	4.591285E-04
6.072735E+03	2.490145E-02	4.429356E-04
6.082707E+03	2.392523E-02	4.280042E-04
6.092679E+03	2.304839E-02	4.146706E-04
6.102650E+03	2.228416E-02	4.032039E-04
6.112622E+03	2.164389E-02	3.938447E-04
6.122593E+03	2.113520E-02	3.867696E-04
6.132565E+03	2.076338E-02	3.821168E-04
6.142537E+03	2.052980E-02	3.799536E-04
6.152508E+03	2.043417E-02	3.803180E-04
6.162480E+03	2.047264E-02	3.831809E-04
6.172452E+03	2.063945E-02	3.884766E-04
6.182423E+03	2.092635E-02	3.960899E-04
6.192395E+03	2.132380E-02	4.058780E-04
6.202367E+03	2.182049E-02	4.176602E-04
6.212338E+03	2.240295E-02	4.312100E-04
6.222310E+03	2.305586E-02	4.462586E-04
6.232282E+03	2.376141E-02	4.624825E-04
6.242253E+03	2.450227E-02	4.795596E-04
6.252225E+03	2.525873E-02	4.971137E-04
6.262197E+03	2.601253E-02	5.147886E-04
6.272168E+03	2.674606E-02	5.322332E-04
6.282140E+03	2.744234E-02	5.491008E-04
6.292112E+03	2.808762E-02	5.651024E-04
6.302083E+03	2.867062E-02	5.799930E-04
6.312055E+03	2.918328E-02	5.935874E-04
6.322026E+03	2.962011E-02	6.057496E-04
6.331998E+03	2.997978E-02	6.164269E-04
6.341970E+03	3.026388E-02	6.256254E-04
6.351941E+03	3.047676E-02	6.334102E-04
6.361913E+03	3.062482E-02	6.398905E-04
6.371885E+03	3.071604E-02	6.452116E-04
6.381856E+03	3.075940E-02	6.495433E-04
6.391828E+03	3.076274E-02	6.530358E-04
6.401800E+03	3.072913E-02	6.557402E-04
6.411771E+03	3.065974E-02	6.576689E-04
6.421743E+03	3.055824E-02	6.588881E-04
6.431715E+03	3.042678E-02	6.594336E-04
6.441686E+03	3.026797E-02	6.593511E-04
6.451658E+03	3.008477E-02	6.586961E-04
6.461630E+03	2.987874E-02	6.574945E-04
6.471601E+03	2.965275E-02	6.558011E-04
6.481573E+03	2.940854E-02	6.536480E-04
6.491545E+03	2.914826E-02	6.510767E-04
6.501516E+03	2.887255E-02	6.480956E-04
6.511488E+03	2.858408E-02	6.447600E-04
6.521459E+03	2.828326E-02	6.410744E-04
6.531431E+03	2.797164E-02	6.370697E-04
6.541403E+03	2.765028E-02	6.327669E-04
6.551374E+03	2.731976E-02	6.281755E-04
6.561346E+03	2.698148E-02	6.233249E-04
6.571318E+03	2.663642E-02	6.182352E-04
6.581289E+03	2.628517E-02	6.129180E-04
6.591261E+03	2.592877E-02	6.073959E-04
6.601233E+03	2.556836E-02	6.016935E-04
6.611204E+03	2.520549E-02	5.958466E-04
6.621176E+03	2.484053E-02	5.898633E-04
6.631148E+03	2.447508E-02	5.837811E-04
6.641119E+03	2.411034E-02	5.776289E-04
6.651091E+03	2.374703E-02	5.714244E-04
6.661063E+03	2.338665E-02	5.652042E-04
6.671034E+03	2.302974E-02	5.589829E-04
6.681006E+03	2.267761E-02	5.527939E-04
6.690978E+03	2.233030E-02	5.466393E-04
6.700949E+03	2.198887E-02	5.405475E-04
6.710921E+03	2.165438E-02	5.345467E-04
6.720893E+03	2.132664E-02	5.286343E-04
6.730864E+03	2.100653E-02	5.228350E-04
6.740836E+03	2.069414E-02	5.171534E-04
6.750807E+03	2.039018E-02	5.116101E-04
6.760779E+03	2.009462E-02	5.062071E-04
6.770751E+03	1.980763E-02	5.009515E-04
6.780722E+03	1.952967E-02	4.958583E-04
6.790694E+03	1.926004E-02	4.909121E-04
6.800666E+03	1.899938E-02	4.861325E-04
6.810637E+03	1.874687E-02	4.815010E-04
6.820609E+03	1.850301E-02	4.770336E-04
6.830581E+03	1.826694E-02	4.727106E-04
6.840552E+03	1.803848E-02	4.685301E-04
6.850524E+03	1.781783E-02	4.644998E-04
6.860496E+03	1.760487E-02	4.606187E-04
6.870467E+03	1.739883E-02	4.568698E-04
6.880439E+03	1.720032E-02	4.532709E-04
6.890411E+03	1.700896E-02	4.498145E-04
6.900382E+03	1.682506E-02	4.465110E-04
6.910354E+03	1.664792E-02	4.433444E-04
6.920326E+03	1.647778E-02	4.403230E-04
6.930297E+03	1.631457E-02	4.374474E-04
6.940269E+03	1.615787E-02	4.347082E-04
6.950240E+03	1.600784E-02	4.321118E-04
6.960212E+03	1.586433E-02	4.296563E-04
6.970184E+03	1.572685E-02	4.273304E-04
6.980155E+03	1.559521E-02	4.251309E-04
6.990127E+03	1.546924E-02	4.230543E-04
7.000099E+03	1.534898E-02	4.211041E-04
7.010070E+03	1.523361E-02	4.192593E-04
7.020042E+03	1.512345E-02	4.175301E-04
7.030014E+03	1.501758E-02	4.158926E-04
7.039985E+03	1.491589E-02	4.143452E-04
7.049957E+03	1.481764E-02	4.128685E-04
7.059929E+03	1.472260E-02	4.114570E-04
7.069900E+03	1.463015E-02	4.100946E-04
7.079872E+03	1.453934E-02	4.087553E-04
7.089844E+03	1.444914E-02	4.074108E-04
7.099815E+03	1.435938E-02	4.060564E-04
7.109787E+03	1.426896E-02	4.046613E-04
7.119759E+03	1.417706E-02	4.032025E-04
7.129730E+03	1.408289E-02	4.016570E-04
7.139702E+03	1.398536E-02	3.999935E-04
7.149673E+03	1.388400E-02	3.981979E-04
7.159645E+03	1.377781E-02	3.962408E-04
7.169617E+03	1.366614E-02	3.941023E-04
7.179588E+03	1.354867E-02	3.917725E-04
7.189560E+03	1.342461E-02	3.892272E-04
7.199532E+03	1.329381E-02	3.864609E-04
7.209503E+03	1.315541E-02	3.834469E-04
7.219475E+03	1.300948E-02	3.801861E-04
7.229447E+03	1.285595E-02	3.766751E-04
7.239418E+03	1.269491E-02	3.729146E-04
7.249390E+03	1.252656E-02	3.689100E-04
7.259362E+03	1.235130E-02	3.646709E-04
7.269333E+03	1.216939E-02	3.602040E-04
7.279305E+03	1.198176E-02	3.555361E-04
7.289277E+03	1.178923E-02	3.506904E-04
7.299248E+03	1.159273E-02	3.456939E-04
7.309220E+03	1.139304E-02	3.405693E-04
7.319192E+03	1.119151E-02	3.353568E-04
7.329163E+03	1.098954E-02	3.300981E-04
7.339135E+03	1.078778E-02	3.248135E-04
7.349106E+03	1.058765E-02	3.195458E-04
7.359078E+03	1.039027E-02	3.143295E-04
7.369050E+03	1.019694E-02	3.092054E-04
7.379021E+03	1.000847E-02	3.041988E-04
7.388993E+03	9.826058E-03	2.993476E-04
7.398965E+03	9.650851E-03	2.946884E-04
7.408936E+03	9.483515E-03	2.902433E-04
7.418908E+03	9.325318E-03	2.860531E-04
7.428880E+03	9.176639E-03	2.821317E-04
7.438851E+03	9.038445E-03	2.785110E-04
7.448823E+03	8.911236E-03	2.752088E-04
7.458795E+03	8.795846E-03	2.722534E-04
7.468766E+03	8.692413E-03	2.696518E-04
7.478738E+03	8.601580E-03	2.674265E-04
7.488710E+03	8.523661E-03	2.655902E-04
7.498681E+03	8.458637E-03	2.641449E-04
7.508653E+03	8.406947E-03	2.631074E-04
7.518625E+03	8.368101E-03	2.624651E-04
7.528596E+03	8.342072E-03	2.622198E-04
7.538568E+03	8.328326E-03	2.623577E-04
7.548540E+03	8.326628E-03	2.628738E-04
7.558511E+03	8.336272E-03	2.637485E-04
7.568483E+03	8.356890E-03	2.649726E-04
7.578454E+03	8.387680E-03	2.665229E-04
7.588426E+03	8.428013E-03	2.683818E-04
7.598398E+03	8.477453E-03	2.705372E-04
7.608369E+03	8.535168E-03	2.729648E-04
7.618341E+03	8.600535E-03	2.756463E-04
7.628313E+03	8.673162E-03	2.785709E-04
7.638284E+03	8.752269E-03	2.817152E-04
7.648256E+03	8.837513E-03	2.850697E-04
7.658228E+03	8.927924E-03	2.886044E-04
7.668199E+03	9.023396E-03	2.923172E-04
7.678171E+03	9.123378E-03	2.961914E-04
7.688143E+03	9.227054E-03	3.002018E-04
7.698114E+03	9.334001E-03	3.043354E-04
7.708086E+03	9.443266E-03	3.085622E-04
7.718058E+03	9.554030E-03	3.128559E-04
7.728029E+03	9.665624E-03	3.171953E-04
7.738001E+03	9.777047E-03	3.215479E-04
