#wls	flux	fluxerr
1.595464E+03	6.913799E-03	2.757890E-04
1.635351E+03	5.756119E-03	2.255400E-04
1.675237E+03	4.767277E-03	1.834032E-04
1.715124E+03	3.930771E-03	1.484112E-04
1.755011E+03	3.229010E-03	1.195975E-04
1.794897E+03	2.646199E-03	9.610644E-05
1.834784E+03	2.165686E-03	7.709393E-05
1.874670E+03	1.773116E-03	6.184149E-05
1.914557E+03	1.454981E-03	4.969908E-05
1.954444E+03	1.199448E-03	4.011072E-05
1.994330E+03	9.961300E-04	3.260125E-05
2.034217E+03	8.363278E-04	2.677932E-05
2.074103E+03	7.128718E-04	2.232657E-05
2.113990E+03	6.208001E-04	1.901311E-05
2.153877E+03	5.575097E-04	1.669445E-05
2.193763E+03	5.217852E-04	1.527514E-05
2.233650E+03	5.138363E-04	1.470549E-05
2.273536E+03	5.361585E-04	1.500146E-05
2.313423E+03	5.931063E-04	1.622645E-05
2.353310E+03	6.919755E-04	1.851581E-05
2.393196E+03	8.450108E-04	2.212253E-05
2.433083E+03	1.069975E-03	2.741991E-05
2.472969E+03	1.390233E-03	3.489178E-05
2.512856E+03	1.833334E-03	4.508677E-05
2.552743E+03	2.427029E-03	5.851491E-05
2.592629E+03	3.192541E-03	7.549261E-05
2.632516E+03	4.136209E-03	9.596597E-05
2.672402E+03	5.249906E-03	1.195531E-04
2.712289E+03	6.513667E-03	1.456311E-04
2.752176E+03	7.893292E-03	1.733041E-04
2.792062E+03	9.343160E-03	2.014880E-04
2.831949E+03	1.081083E-02	2.290255E-04
2.871835E+03	1.224315E-02	2.548228E-04
2.911722E+03	1.359589E-02	2.780436E-04
2.951609E+03	1.483862E-02	2.981908E-04
2.991495E+03	1.595652E-02	3.151155E-04
3.001467E+03	1.621583E-02	3.188488E-04
3.011438E+03	1.646761E-02	3.223986E-04
3.021410E+03	1.671109E-02	3.257520E-04
3.031382E+03	1.694745E-02	3.289348E-04
3.041353E+03	1.717640E-02	3.319434E-04
3.051325E+03	1.739803E-02	3.347823E-04
3.061297E+03	1.761291E-02	3.374643E-04
3.071268E+03	1.782160E-02	3.400027E-04
3.081240E+03	1.802394E-02	3.423964E-04
3.091212E+03	1.822097E-02	3.446672E-04
3.101183E+03	1.841258E-02	3.468150E-04
3.111155E+03	1.859945E-02	3.488545E-04
3.121127E+03	1.878231E-02	3.508010E-04
3.131098E+03	1.896149E-02	3.526623E-04
3.141070E+03	1.913698E-02	3.544397E-04
3.151042E+03	1.931028E-02	3.561627E-04
3.161013E+03	1.948103E-02	3.578257E-04
3.170985E+03	1.965035E-02	3.594501E-04
3.180957E+03	1.981863E-02	3.610436E-04
3.190928E+03	1.998624E-02	3.626138E-04
3.200900E+03	2.015360E-02	3.641683E-04
3.210871E+03	2.032182E-02	3.657275E-04
3.220843E+03	2.049088E-02	3.672914E-04
3.230815E+03	2.066116E-02	3.688669E-04
3.240786E+03	2.083338E-02	3.704668E-04
3.250758E+03	2.100822E-02	3.721033E-04
3.260730E+03	2.118563E-02	3.737752E-04
3.270701E+03	2.136626E-02	3.754942E-04
3.280673E+03	2.155037E-02	3.772643E-04
3.290645E+03	2.173852E-02	3.790953E-04
3.300616E+03	2.193057E-02	3.809846E-04
3.310588E+03	2.212669E-02	3.829349E-04
3.320560E+03	2.232764E-02	3.849592E-04
3.330531E+03	2.253285E-02	3.870471E-04
3.340503E+03	2.274265E-02	3.892046E-04
3.350475E+03	2.295731E-02	3.914361E-04
3.360446E+03	2.317612E-02	3.937293E-04
3.370418E+03	2.339956E-02	3.960923E-04
3.380390E+03	2.362677E-02	3.985111E-04
3.390361E+03	2.385747E-02	4.009808E-04
3.400333E+03	2.409165E-02	4.035018E-04
3.410305E+03	2.432860E-02	4.060625E-04
3.420276E+03	2.456786E-02	4.086559E-04
3.430248E+03	2.480831E-02	4.112644E-04
3.440219E+03	2.504974E-02	4.138852E-04
3.450191E+03	2.529135E-02	4.165062E-04
3.460163E+03	2.553210E-02	4.191117E-04
3.470134E+03	2.577183E-02	4.217001E-04
3.480106E+03	2.601001E-02	4.242647E-04
3.490078E+03	2.624671E-02	4.268077E-04
3.500049E+03	2.648222E-02	4.293355E-04
3.510021E+03	2.671640E-02	4.318475E-04
3.519993E+03	2.694921E-02	4.343441E-04
3.529964E+03	2.718045E-02	4.368220E-04
3.539936E+03	2.740977E-02	4.392747E-04
3.549908E+03	2.763691E-02	4.416976E-04
3.559879E+03	2.786175E-02	4.440880E-04
3.569851E+03	2.808404E-02	4.464413E-04
3.579823E+03	2.830362E-02	4.487541E-04
3.589794E+03	2.852104E-02	4.510344E-04
3.599766E+03	2.873615E-02	4.532792E-04
3.609738E+03	2.894978E-02	4.555006E-04
3.619709E+03	2.916391E-02	4.577285E-04
3.629681E+03	2.938007E-02	4.599859E-04
3.639652E+03	2.960046E-02	4.623056E-04
3.649624E+03	2.982729E-02	4.647204E-04
3.659596E+03	3.006316E-02	4.672689E-04
3.669567E+03	3.031038E-02	4.699845E-04
3.679539E+03	3.057108E-02	4.728979E-04
3.689511E+03	3.084841E-02	4.760551E-04
3.699482E+03	3.114422E-02	4.794817E-04
3.709454E+03	3.146136E-02	4.832181E-04
3.719426E+03	3.180207E-02	4.872952E-04
3.729397E+03	3.216875E-02	4.917462E-04
3.739369E+03	3.256345E-02	4.965982E-04
3.749341E+03	3.298803E-02	5.018756E-04
3.759312E+03	3.344467E-02	5.076071E-04
3.769284E+03	3.393483E-02	5.138101E-04
3.779256E+03	3.445998E-02	5.205021E-04
3.789227E+03	3.502073E-02	5.276877E-04
3.799199E+03	3.561853E-02	5.353831E-04
3.809171E+03	3.625331E-02	5.435828E-04
3.819142E+03	3.692557E-02	5.522885E-04
3.829114E+03	3.763446E-02	5.614827E-04
3.839085E+03	3.837999E-02	5.711601E-04
3.849057E+03	3.916024E-02	5.812873E-04
3.859029E+03	3.997435E-02	5.918466E-04
3.869000E+03	4.082022E-02	6.028020E-04
3.878972E+03	4.169529E-02	6.141112E-04
3.888944E+03	4.259691E-02	6.257311E-04
3.898915E+03	4.352211E-02	6.376143E-04
3.908887E+03	4.446761E-02	6.497093E-04
3.918859E+03	4.542944E-02	6.619553E-04
3.928830E+03	4.640343E-02	6.742892E-04
3.938802E+03	4.738586E-02	6.866552E-04
3.948774E+03	4.837254E-02	6.989915E-04
3.958745E+03	4.935804E-02	7.112193E-04
3.968717E+03	5.033874E-02	7.232868E-04
3.978689E+03	5.130989E-02	7.351266E-04
3.988660E+03	5.226714E-02	7.466785E-04
3.998632E+03	5.320546E-02	7.578731E-04
4.008604E+03	5.412070E-02	7.686547E-04
4.018575E+03	5.500926E-02	7.789766E-04
4.028547E+03	5.586656E-02	7.887785E-04
4.038518E+03	5.668900E-02	7.980156E-04
4.048490E+03	5.747281E-02	8.066411E-04
4.058462E+03	5.821491E-02	8.146189E-04
4.068433E+03	5.891205E-02	8.219114E-04
4.078405E+03	5.956172E-02	8.284919E-04
4.088377E+03	6.016125E-02	8.343322E-04
4.098348E+03	6.070834E-02	8.394099E-04
4.108320E+03	6.120141E-02	8.437130E-04
4.118292E+03	6.163928E-02	8.472355E-04
4.128263E+03	6.202020E-02	8.499637E-04
4.138235E+03	6.234418E-02	8.519089E-04
4.148207E+03	6.261025E-02	8.530684E-04
4.158178E+03	6.281872E-02	8.534576E-04
4.168150E+03	6.297040E-02	8.530981E-04
4.178122E+03	6.306596E-02	8.520099E-04
4.188093E+03	6.310650E-02	8.502188E-04
4.198065E+03	6.309407E-02	8.477622E-04
4.208037E+03	6.303058E-02	8.446760E-04
4.218008E+03	6.291883E-02	8.410072E-04
4.227980E+03	6.276205E-02	8.368080E-04
4.237952E+03	6.256326E-02	8.321271E-04
4.247923E+03	6.232539E-02	8.270113E-04
4.257895E+03	6.205362E-02	8.215366E-04
4.267866E+03	6.175138E-02	8.157549E-04
4.277838E+03	6.142341E-02	8.097347E-04
4.287810E+03	6.107360E-02	8.035326E-04
4.297781E+03	6.070754E-02	7.972265E-04
4.307753E+03	6.032988E-02	7.908815E-04
4.317725E+03	5.994541E-02	7.845635E-04
4.327696E+03	5.955937E-02	7.783440E-04
4.337668E+03	5.917652E-02	7.722873E-04
4.347640E+03	5.880273E-02	7.664710E-04
4.357611E+03	5.844164E-02	7.609389E-04
4.367583E+03	5.809728E-02	7.557374E-04
4.377555E+03	5.777318E-02	7.509064E-04
4.387526E+03	5.747155E-02	7.464687E-04
4.397498E+03	5.719512E-02	7.424540E-04
4.407470E+03	5.694576E-02	7.388813E-04
4.417441E+03	5.672442E-02	7.357575E-04
4.427413E+03	5.653290E-02	7.331008E-04
4.437385E+03	5.637106E-02	7.309047E-04
4.447356E+03	5.623847E-02	7.291591E-04
4.457328E+03	5.613331E-02	7.278348E-04
4.467299E+03	5.605378E-02	7.269031E-04
4.477271E+03	5.599569E-02	7.263041E-04
4.487243E+03	5.595253E-02	7.259480E-04
4.497214E+03	5.591888E-02	7.257594E-04
4.507186E+03	5.588745E-02	7.256385E-04
4.517158E+03	5.585132E-02	7.254904E-04
4.527129E+03	5.580406E-02	7.252264E-04
4.537101E+03	5.573909E-02	7.247555E-04
4.547073E+03	5.564971E-02	7.239855E-04
4.557044E+03	5.553022E-02	7.228368E-04
4.567016E+03	5.537612E-02	7.212454E-04
4.576988E+03	5.518319E-02	7.191512E-04
4.586959E+03	5.494719E-02	7.164934E-04
4.596931E+03	5.466669E-02	7.132483E-04
4.606903E+03	5.434035E-02	7.093932E-04
4.616874E+03	5.396692E-02	7.049073E-04
4.626846E+03	5.354753E-02	6.998007E-04
4.636818E+03	5.308384E-02	6.940911E-04
4.646789E+03	5.257789E-02	6.878012E-04
4.656761E+03	5.203393E-02	6.809833E-04
4.666732E+03	5.145547E-02	6.736805E-04
4.676704E+03	5.084754E-02	6.659562E-04
4.686676E+03	5.021508E-02	6.578731E-04
4.696647E+03	4.956378E-02	6.495041E-04
4.706619E+03	4.889860E-02	6.409130E-04
4.716591E+03	4.822585E-02	6.321819E-04
4.726562E+03	4.755042E-02	6.233743E-04
4.736534E+03	4.687877E-02	6.145747E-04
4.746506E+03	4.621492E-02	6.058360E-04
4.756477E+03	4.556393E-02	5.972246E-04
4.766449E+03	4.493079E-02	5.888065E-04
4.776421E+03	4.431890E-02	5.806265E-04
4.786392E+03	4.373244E-02	5.727401E-04
4.796364E+03	4.317356E-02	5.651758E-04
4.806336E+03	4.264562E-02	5.579781E-04
4.816307E+03	4.215073E-02	5.511750E-04
4.826279E+03	4.169024E-02	5.447845E-04
4.836251E+03	4.126594E-02	5.388302E-04
4.846222E+03	4.087926E-02	5.333309E-04
4.856194E+03	4.053018E-02	5.282860E-04
4.866165E+03	4.021955E-02	5.237067E-04
4.876137E+03	3.994797E-02	5.196004E-04
4.886109E+03	3.971467E-02	5.159566E-04
4.896080E+03	3.951985E-02	5.127772E-04
4.906052E+03	3.936308E-02	5.100560E-04
4.916024E+03	3.924382E-02	5.077852E-04
4.925995E+03	3.916134E-02	5.059546E-04
4.935967E+03	3.911442E-02	5.045472E-04
4.945939E+03	3.910239E-02	5.035538E-04
4.955910E+03	3.912376E-02	5.029540E-04
4.965882E+03	3.917719E-02	5.027297E-04
4.975854E+03	3.926127E-02	5.028620E-04
4.985825E+03	3.937435E-02	5.033291E-04
4.995797E+03	3.951467E-02	5.041077E-04
5.005769E+03	3.968028E-02	5.051725E-04
5.015740E+03	3.986869E-02	5.064917E-04
5.025712E+03	4.007758E-02	5.080361E-04
5.035684E+03	4.030446E-02	5.097742E-04
5.045655E+03	4.054664E-02	5.116729E-04
5.055627E+03	4.080127E-02	5.136973E-04
5.065599E+03	4.106533E-02	5.158111E-04
5.075570E+03	4.133485E-02	5.179663E-04
5.085542E+03	4.160734E-02	5.201345E-04
5.095513E+03	4.187938E-02	5.222762E-04
5.105485E+03	4.214673E-02	5.243419E-04
5.115457E+03	4.240594E-02	5.262931E-04
5.125428E+03	4.265395E-02	5.280967E-04
5.135400E+03	4.288743E-02	5.297169E-04
5.145372E+03	4.310237E-02	5.311099E-04
5.155343E+03	4.329616E-02	5.322500E-04
5.165315E+03	4.346646E-02	5.331154E-04
5.175287E+03	4.361003E-02	5.336734E-04
5.185258E+03	4.372474E-02	5.339056E-04
5.195230E+03	4.380890E-02	5.337989E-04
5.205202E+03	4.386170E-02	5.333514E-04
5.215173E+03	4.388186E-02	5.325553E-04
5.225145E+03	4.386903E-02	5.314145E-04
5.235117E+03	4.382289E-02	5.299326E-04
5.245088E+03	4.374438E-02	5.281286E-04
5.255060E+03	4.363448E-02	5.260216E-04
5.265032E+03	4.349413E-02	5.236297E-04
5.275003E+03	4.332542E-02	5.209847E-04
5.284975E+03	4.312994E-02	5.181116E-04
5.294946E+03	4.290996E-02	5.150431E-04
5.304918E+03	4.266832E-02	5.118186E-04
5.314890E+03	4.240718E-02	5.084681E-04
5.324861E+03	4.212919E-02	5.050278E-04
5.334833E+03	4.183702E-02	5.015330E-04
5.344805E+03	4.153331E-02	4.980183E-04
5.354776E+03	4.122064E-02	4.945174E-04
5.364748E+03	4.090144E-02	4.910617E-04
5.374720E+03	4.057803E-02	4.876795E-04
5.384691E+03	4.025211E-02	4.843903E-04
5.394663E+03	3.992554E-02	4.812152E-04
5.404635E+03	3.960023E-02	4.781739E-04
5.414606E+03	3.927680E-02	4.752680E-04
5.424578E+03	3.895617E-02	4.725022E-04
5.434550E+03	3.863898E-02	4.698780E-04
5.444521E+03	3.832666E-02	4.674069E-04
5.454493E+03	3.801961E-02	4.650878E-04
5.464465E+03	3.771960E-02	4.629369E-04
5.474436E+03	3.742641E-02	4.609460E-04
5.484408E+03	3.714120E-02	4.591247E-04
5.494379E+03	3.686458E-02	4.574756E-04
5.504351E+03	3.659672E-02	4.559964E-04
5.514323E+03	3.633799E-02	4.546878E-04
5.524294E+03	3.608838E-02	4.535455E-04
5.534266E+03	3.584813E-02	4.525694E-04
5.544238E+03	3.561746E-02	4.517586E-04
5.554209E+03	3.539650E-02	4.511119E-04
5.564181E+03	3.518507E-02	4.506242E-04
5.574153E+03	3.498328E-02	4.502944E-04
5.584124E+03	3.479120E-02	4.501214E-04
5.594096E+03	3.460897E-02	4.501046E-04
5.604068E+03	3.443629E-02	4.502388E-04
5.614039E+03	3.427323E-02	4.505230E-04
5.624011E+03	3.412014E-02	4.509607E-04
5.633983E+03	3.397665E-02	4.515458E-04
5.643954E+03	3.384230E-02	4.522715E-04
5.653926E+03	3.371761E-02	4.531436E-04
5.663898E+03	3.360230E-02	4.541581E-04
5.673869E+03	3.349523E-02	4.552991E-04
5.683841E+03	3.339620E-02	4.565634E-04
5.693812E+03	3.330482E-02	4.579454E-04
5.703784E+03	3.321985E-02	4.594274E-04
5.713756E+03	3.314017E-02	4.609937E-04
5.723727E+03	3.306487E-02	4.626308E-04
5.733699E+03	3.299208E-02	4.643120E-04
5.743671E+03	3.292081E-02	4.660221E-04
5.753642E+03	3.284852E-02	4.677240E-04
5.763614E+03	3.277351E-02	4.693917E-04
5.773586E+03	3.269362E-02	4.709921E-04
5.783557E+03	3.260695E-02	4.724953E-04
5.793529E+03	3.251078E-02	4.738589E-04
5.803501E+03	3.240313E-02	4.750506E-04
5.813472E+03	3.228168E-02	4.760322E-04
5.823444E+03	3.214385E-02	4.767610E-04
5.833416E+03	3.198827E-02	4.772118E-04
5.843387E+03	3.181270E-02	4.773458E-04
5.853359E+03	3.161586E-02	4.771378E-04
5.863331E+03	3.139610E-02	4.765566E-04
5.873302E+03	3.115284E-02	4.755869E-04
5.883274E+03	3.088546E-02	4.742130E-04
5.893246E+03	3.059389E-02	4.724267E-04
5.903217E+03	3.027878E-02	4.702315E-04
5.913189E+03	2.994017E-02	4.676218E-04
5.923160E+03	2.958000E-02	4.646216E-04
5.933132E+03	2.919988E-02	4.612502E-04
5.943104E+03	2.880187E-02	4.575351E-04
5.953075E+03	2.838803E-02	4.535042E-04
5.963047E+03	2.796143E-02	4.492026E-04
5.973019E+03	2.752534E-02	4.446795E-04
5.982990E+03	2.708230E-02	4.399738E-04
5.992962E+03	2.663623E-02	4.351474E-04
6.002934E+03	2.619020E-02	4.302500E-04
6.012905E+03	2.574788E-02	4.253421E-04
6.022877E+03	2.531194E-02	4.204692E-04
6.032849E+03	2.488623E-02	4.156975E-04
6.042820E+03	2.447375E-02	4.110801E-04
6.052792E+03	2.407704E-02	4.066635E-04
6.062764E+03	2.369869E-02	4.024962E-04
6.072735E+03	2.334129E-02	3.986279E-04
6.082707E+03	2.300658E-02	3.950941E-04
6.092679E+03	2.269655E-02	3.919359E-04
6.102650E+03	2.241232E-02	3.891801E-04
6.112622E+03	2.215526E-02	3.868578E-04
6.122593E+03	2.192639E-02	3.849952E-04
6.132565E+03	2.172590E-02	3.836041E-04
6.142537E+03	2.155420E-02	3.827001E-04
6.152508E+03	2.141171E-02	3.822999E-04
6.162480E+03	2.129798E-02	3.824045E-04
6.172452E+03	2.121263E-02	3.830157E-04
6.182423E+03	2.115442E-02	3.841203E-04
6.192395E+03	2.112218E-02	3.857056E-04
6.202367E+03	2.111422E-02	3.877494E-04
6.212338E+03	2.112896E-02	3.902292E-04
6.222310E+03	2.116489E-02	3.931230E-04
6.232282E+03	2.121975E-02	3.963948E-04
6.242253E+03	2.129144E-02	4.000100E-04
6.252225E+03	2.137803E-02	4.039367E-04
6.262197E+03	2.147744E-02	4.081396E-04
6.272168E+03	2.158729E-02	4.125763E-04
6.282140E+03	2.170505E-02	4.172011E-04
6.292112E+03	2.182912E-02	4.219846E-04
6.302083E+03	2.195636E-02	4.268671E-04
6.312055E+03	2.208547E-02	4.318237E-04
6.322026E+03	2.221364E-02	4.367985E-04
6.331998E+03	2.233868E-02	4.417475E-04
6.341970E+03	2.245918E-02	4.466404E-04
6.351941E+03	2.257277E-02	4.514277E-04
6.361913E+03	2.267755E-02	4.560681E-04
6.371885E+03	2.277179E-02	4.605225E-04
6.381856E+03	2.285435E-02	4.647633E-04
6.391828E+03	2.292342E-02	4.687490E-04
6.401800E+03	2.297726E-02	4.724381E-04
6.411771E+03	2.301479E-02	4.758025E-04
6.421743E+03	2.303518E-02	4.788182E-04
6.431715E+03	2.303776E-02	4.814651E-04
6.441686E+03	2.302163E-02	4.837171E-04
6.451658E+03	2.298642E-02	4.855592E-04
6.461630E+03	2.293181E-02	4.869777E-04
6.471601E+03	2.285803E-02	4.879701E-04
6.481573E+03	2.276503E-02	4.885282E-04
6.491545E+03	2.265294E-02	4.886476E-04
6.501516E+03	2.252269E-02	4.883417E-04
6.511488E+03	2.237428E-02	4.876038E-04
6.521459E+03	2.220890E-02	4.864533E-04
6.531431E+03	2.202715E-02	4.848975E-04
6.541403E+03	2.183039E-02	4.829605E-04
6.551374E+03	2.161941E-02	4.806549E-04
6.561346E+03	2.139540E-02	4.780020E-04
6.571318E+03	2.115962E-02	4.750257E-04
6.581289E+03	2.091367E-02	4.717582E-04
6.591261E+03	2.065821E-02	4.682110E-04
6.601233E+03	2.039522E-02	4.644261E-04
6.611204E+03	2.012568E-02	4.604236E-04
6.621176E+03	1.985088E-02	4.562309E-04
6.631148E+03	1.957241E-02	4.518832E-04
6.641119E+03	1.929084E-02	4.473927E-04
6.651091E+03	1.900800E-02	4.428012E-04
6.661063E+03	1.872461E-02	4.381257E-04
6.671034E+03	1.844175E-02	4.333912E-04
6.681006E+03	1.816067E-02	4.286278E-04
6.690978E+03	1.788193E-02	4.238499E-04
6.700949E+03	1.760633E-02	4.190772E-04
6.710921E+03	1.733460E-02	4.143285E-04
6.720893E+03	1.706765E-02	4.096275E-04
6.730864E+03	1.680573E-02	4.049819E-04
6.740836E+03	1.654931E-02	4.004048E-04
6.750807E+03	1.629910E-02	3.959156E-04
6.760779E+03	1.605511E-02	3.915166E-04
6.770751E+03	1.581761E-02	3.872169E-04
6.780722E+03	1.558705E-02	3.830296E-04
6.790694E+03	1.536303E-02	3.789472E-04
6.800666E+03	1.514615E-02	3.749872E-04
6.810637E+03	1.493645E-02	3.711525E-04
6.820609E+03	1.473336E-02	3.674314E-04
6.830581E+03	1.453734E-02	3.638380E-04
6.840552E+03	1.434804E-02	3.603654E-04
6.850524E+03	1.416531E-02	3.570123E-04
6.860496E+03	1.398899E-02	3.537766E-04
6.870467E+03	1.381888E-02	3.506557E-04
6.880439E+03	1.365503E-02	3.476524E-04
6.890411E+03	1.349669E-02	3.447498E-04
6.900382E+03	1.334412E-02	3.419563E-04
6.910354E+03	1.319655E-02	3.392539E-04
6.920326E+03	1.305420E-02	3.366499E-04
6.930297E+03	1.291628E-02	3.341257E-04
6.940269E+03	1.278300E-02	3.316880E-04
6.950240E+03	1.265357E-02	3.293177E-04
6.960212E+03	1.252793E-02	3.270145E-04
6.970184E+03	1.240577E-02	3.247716E-04
6.980155E+03	1.228654E-02	3.225760E-04
6.990127E+03	1.217042E-02	3.204332E-04
7.000099E+03	1.205664E-02	3.183237E-04
7.010070E+03	1.194489E-02	3.162406E-04
7.020042E+03	1.183512E-02	3.141831E-04
7.030014E+03	1.172705E-02	3.121446E-04
7.039985E+03	1.162016E-02	3.101121E-04
7.049957E+03	1.151420E-02	3.080792E-04
7.059929E+03	1.140914E-02	3.060459E-04
7.069900E+03	1.130451E-02	3.040001E-04
7.079872E+03	1.120008E-02	3.019363E-04
7.089844E+03	1.109566E-02	2.998493E-04
7.099815E+03	1.099128E-02	2.977404E-04
7.109787E+03	1.088633E-02	2.955934E-04
7.119759E+03	1.078109E-02	2.934165E-04
7.129730E+03	1.067501E-02	2.911948E-04
7.139702E+03	1.056820E-02	2.889316E-04
7.149673E+03	1.046060E-02	2.866253E-04
7.159645E+03	1.035215E-02	2.842748E-04
7.169617E+03	1.024261E-02	2.818738E-04
7.179588E+03	1.013222E-02	2.794286E-04
7.189560E+03	1.002099E-02	2.769403E-04
7.199532E+03	9.908787E-03	2.744050E-04
7.209503E+03	9.795689E-03	2.718254E-04
7.219475E+03	9.682028E-03	2.692109E-04
7.229447E+03	9.567732E-03	2.665598E-04
7.239418E+03	9.452968E-03	2.638771E-04
7.249390E+03	9.338130E-03	2.611741E-04
7.259362E+03	9.223220E-03	2.584511E-04
7.269333E+03	9.108465E-03	2.557151E-04
7.279305E+03	8.994510E-03	2.529844E-04
7.289277E+03	8.881007E-03	2.502499E-04
7.299248E+03	8.768821E-03	2.475364E-04
7.309220E+03	8.657830E-03	2.448409E-04
7.319192E+03	8.548703E-03	2.421831E-04
7.329163E+03	8.441525E-03	2.395659E-04
7.339135E+03	8.336768E-03	2.370034E-04
7.349106E+03	8.234894E-03	2.345094E-04
7.359078E+03	8.135980E-03	2.320869E-04
7.369050E+03	8.040850E-03	2.297601E-04
7.379021E+03	7.949556E-03	2.275316E-04
7.388993E+03	7.862337E-03	2.254088E-04
7.398965E+03	7.780144E-03	2.234200E-04
7.408936E+03	7.702626E-03	2.215561E-04
7.418908E+03	7.630520E-03	2.198393E-04
7.428880E+03	7.563993E-03	2.182755E-04
7.438851E+03	7.502837E-03	2.168595E-04
7.448823E+03	7.447018E-03	2.155915E-04
7.458795E+03	7.396655E-03	2.144759E-04
7.468766E+03	7.351679E-03	2.135117E-04
7.478738E+03	7.312175E-03	2.127023E-04
7.488710E+03	7.278034E-03	2.120456E-04
7.498681E+03	7.249123E-03	2.115387E-04
7.508653E+03	7.225464E-03	2.111832E-04
7.518625E+03	7.207060E-03	2.109801E-04
7.528596E+03	7.193705E-03	2.109244E-04
7.538568E+03	7.185533E-03	2.110210E-04
7.548540E+03	7.182109E-03	2.112580E-04
7.558511E+03	7.183695E-03	2.116440E-04
7.568483E+03	7.189981E-03	2.121710E-04
7.578454E+03	7.200637E-03	2.128301E-04
7.588426E+03	7.215659E-03	2.136220E-04
7.598398E+03	7.234657E-03	2.145362E-04
7.608369E+03	7.257573E-03	2.155717E-04
7.618341E+03	7.284142E-03	2.167217E-04
7.628313E+03	7.313878E-03	2.179724E-04
7.638284E+03	7.346644E-03	2.193206E-04
7.648256E+03	7.381891E-03	2.207506E-04
7.658228E+03	7.419422E-03	2.222574E-04
7.668199E+03	7.458825E-03	2.238291E-04
7.678171E+03	7.499459E-03	2.254474E-04
7.688143E+03	7.541049E-03	2.271044E-04
7.698114E+03	7.583101E-03	2.287859E-04
7.708086E+03	7.625096E-03	2.304765E-04
7.718058E+03	7.666495E-03	2.321605E-04
7.728029E+03	7.706741E-03	2.338212E-04
7.738001E+03	7.745263E-03	2.354415E-04
