#wls	flux	fluxerr
1.595464E+03	5.566349E-04	3.080425E-05
1.635351E+03	5.046707E-04	2.775884E-05
1.675237E+03	4.582870E-04	2.505231E-05
1.715124E+03	4.171003E-04	2.265859E-05
1.755011E+03	3.806642E-04	2.054864E-05
1.794897E+03	3.486225E-04	1.869878E-05
1.834784E+03	3.205832E-04	1.708384E-05
1.874670E+03	2.961959E-04	1.568130E-05
1.914557E+03	2.752855E-04	1.447833E-05
1.954444E+03	2.575615E-04	1.345626E-05
1.994330E+03	2.427912E-04	1.259979E-05
2.034217E+03	2.308770E-04	1.190087E-05
2.074103E+03	2.217514E-04	1.135315E-05
2.113990E+03	2.155499E-04	1.096066E-05
2.153877E+03	2.124741E-04	1.073060E-05
2.193763E+03	2.130247E-04	1.068490E-05
2.233650E+03	2.176363E-04	1.084155E-05
2.273536E+03	2.268392E-04	1.122274E-05
2.313423E+03	2.411589E-04	1.184975E-05
2.353310E+03	2.609783E-04	1.273629E-05
2.393196E+03	2.867871E-04	1.390075E-05
2.433083E+03	3.190377E-04	1.535916E-05
2.472969E+03	3.580632E-04	1.712128E-05
2.512856E+03	4.040516E-04	1.918951E-05
2.552743E+03	4.568972E-04	2.155216E-05
2.592629E+03	5.161690E-04	2.418242E-05
2.632516E+03	5.809030E-04	2.702914E-05
2.672402E+03	6.502338E-04	3.004690E-05
2.712289E+03	7.231953E-04	3.318664E-05
2.752176E+03	7.988775E-04	3.640297E-05
2.792062E+03	8.764708E-04	3.965609E-05
2.831949E+03	9.550656E-04	4.290262E-05
2.871835E+03	1.033751E-03	4.610017E-05
2.911722E+03	1.111455E-03	4.920038E-05
2.951609E+03	1.187848E-03	5.218877E-05
2.991495E+03	1.262463E-03	5.504530E-05
3.001467E+03	1.280751E-03	5.573510E-05
3.011438E+03	1.299049E-03	5.642197E-05
3.021410E+03	1.317261E-03	5.710176E-05
3.031382E+03	1.335390E-03	5.777462E-05
3.041353E+03	1.353444E-03	5.844084E-05
3.051325E+03	1.371429E-03	5.910075E-05
3.061297E+03	1.389354E-03	5.975471E-05
3.071268E+03	1.407229E-03	6.040313E-05
3.081240E+03	1.425170E-03	6.105100E-05
3.091212E+03	1.443086E-03	6.169434E-05
3.101183E+03	1.460984E-03	6.233355E-05
3.111155E+03	1.478991E-03	6.297392E-05
3.121127E+03	1.497012E-03	6.361142E-05
3.131098E+03	1.515173E-03	6.425135E-05
3.141070E+03	1.533489E-03	6.489432E-05
3.151042E+03	1.551874E-03	6.553660E-05
3.161013E+03	1.570455E-03	6.618351E-05
3.170985E+03	1.589359E-03	6.684038E-05
3.180957E+03	1.608393E-03	6.749897E-05
3.190928E+03	1.627798E-03	6.816928E-05
3.200900E+03	1.647378E-03	6.884307E-05
3.210871E+03	1.667489E-03	6.953503E-05
3.220843E+03	1.687937E-03	7.023700E-05
3.230815E+03	1.708747E-03	7.094989E-05
3.240786E+03	1.730171E-03	7.168394E-05
3.250758E+03	1.752016E-03	7.243110E-05
3.260730E+03	1.774535E-03	7.320157E-05
3.270701E+03	1.797648E-03	7.399186E-05
3.280673E+03	1.821500E-03	7.480776E-05
3.290645E+03	1.846010E-03	7.564572E-05
3.300616E+03	1.871326E-03	7.651161E-05
3.310588E+03	1.897598E-03	7.741120E-05
3.320560E+03	1.924745E-03	7.834102E-05
3.330531E+03	1.952920E-03	7.930690E-05
3.340503E+03	1.982158E-03	8.031001E-05
3.350475E+03	2.012496E-03	8.135144E-05
3.360446E+03	2.044084E-03	8.243700E-05
3.370418E+03	2.076959E-03	8.356770E-05
3.380390E+03	2.111154E-03	8.474450E-05
3.390361E+03	2.146817E-03	8.597292E-05
3.400333E+03	2.183977E-03	8.725364E-05
3.410305E+03	2.222898E-03	8.859674E-05
3.420276E+03	2.263364E-03	8.999306E-05
3.430248E+03	2.305631E-03	9.145225E-05
3.440219E+03	2.349828E-03	9.297888E-05
3.450191E+03	2.395961E-03	9.457257E-05
3.460163E+03	2.444150E-03	9.623741E-05
3.470134E+03	2.494508E-03	9.797720E-05
3.480106E+03	2.546896E-03	9.978578E-05
3.490078E+03	2.601781E-03	1.016808E-04
3.500049E+03	2.658885E-03	1.036505E-04
3.510021E+03	2.718412E-03	1.057023E-04
3.519993E+03	2.780307E-03	1.078331E-04
3.529964E+03	2.844760E-03	1.100496E-04
3.539936E+03	2.911566E-03	1.123430E-04
3.549908E+03	2.980641E-03	1.147092E-04
3.559879E+03	3.051757E-03	1.171388E-04
3.569851E+03	3.124934E-03	1.196320E-04
3.579823E+03	3.199801E-03	1.221736E-04
3.589794E+03	3.276368E-03	1.247636E-04
3.599766E+03	3.354384E-03	1.273918E-04
3.609738E+03	3.433734E-03	1.300534E-04
3.619709E+03	3.514042E-03	1.327335E-04
3.629681E+03	3.595475E-03	1.354382E-04
3.639652E+03	3.677557E-03	1.381490E-04
3.649624E+03	3.760362E-03	1.408685E-04
3.659596E+03	3.843728E-03	1.435904E-04
3.669567E+03	3.927663E-03	1.463145E-04
3.679539E+03	4.011941E-03	1.490323E-04
3.689511E+03	4.096916E-03	1.517566E-04
3.699482E+03	4.182447E-03	1.544820E-04
3.709454E+03	4.268706E-03	1.572145E-04
3.719426E+03	4.355766E-03	1.599564E-04
3.729397E+03	4.443876E-03	1.627166E-04
3.739369E+03	4.533170E-03	1.654994E-04
3.749341E+03	4.624075E-03	1.683200E-04
3.759312E+03	4.716615E-03	1.711786E-04
3.769284E+03	4.811075E-03	1.740849E-04
3.779256E+03	4.907720E-03	1.770478E-04
3.789227E+03	5.006776E-03	1.800745E-04
3.799199E+03	5.108140E-03	1.831604E-04
3.809171E+03	5.212188E-03	1.863182E-04
3.819142E+03	5.318533E-03	1.895332E-04
3.829114E+03	5.427245E-03	1.928068E-04
3.839085E+03	5.538021E-03	1.961276E-04
3.849057E+03	5.650600E-03	1.994854E-04
3.859029E+03	5.764616E-03	2.028668E-04
3.869000E+03	5.879478E-03	2.062504E-04
3.878972E+03	5.994502E-03	2.096119E-04
3.888944E+03	6.109219E-03	2.129349E-04
3.898915E+03	6.222821E-03	2.161912E-04
3.908887E+03	6.334463E-03	2.193521E-04
3.918859E+03	6.443433E-03	2.223933E-04
3.928830E+03	6.549024E-03	2.252915E-04
3.938802E+03	6.650420E-03	2.280198E-04
3.948774E+03	6.746865E-03	2.305537E-04
3.958745E+03	6.837956E-03	2.328812E-04
3.968717E+03	6.923108E-03	2.349843E-04
3.978689E+03	7.001984E-03	2.368535E-04
3.988660E+03	7.074222E-03	2.384787E-04
3.998632E+03	7.139589E-03	2.398546E-04
4.008604E+03	7.198116E-03	2.409845E-04
4.018575E+03	7.250093E-03	2.418804E-04
4.028547E+03	7.295503E-03	2.425442E-04
4.038518E+03	7.334569E-03	2.429855E-04
4.048490E+03	7.368004E-03	2.432302E-04
4.058462E+03	7.396038E-03	2.432877E-04
4.068433E+03	7.419082E-03	2.431737E-04
4.078405E+03	7.437838E-03	2.429127E-04
4.088377E+03	7.452746E-03	2.425207E-04
4.098348E+03	7.464360E-03	2.420171E-04
4.108320E+03	7.473201E-03	2.414199E-04
4.118292E+03	7.479494E-03	2.407375E-04
4.128263E+03	7.483789E-03	2.399884E-04
4.138235E+03	7.486447E-03	2.391851E-04
4.148207E+03	7.487635E-03	2.383334E-04
4.158178E+03	7.487453E-03	2.374372E-04
4.168150E+03	7.486312E-03	2.365099E-04
4.178122E+03	7.484067E-03	2.355476E-04
4.188093E+03	7.480891E-03	2.345561E-04
4.198065E+03	7.476676E-03	2.335325E-04
4.208037E+03	7.471530E-03	2.324806E-04
4.218008E+03	7.465192E-03	2.313927E-04
4.227980E+03	7.457989E-03	2.302795E-04
4.237952E+03	7.449690E-03	2.291342E-04
4.247923E+03	7.440439E-03	2.279619E-04
4.257895E+03	7.430206E-03	2.267619E-04
4.267866E+03	7.419470E-03	2.255494E-04
4.277838E+03	7.408219E-03	2.243243E-04
4.287810E+03	7.396963E-03	2.231022E-04
4.297781E+03	7.386072E-03	2.218944E-04
4.307753E+03	7.376217E-03	2.207210E-04
4.317725E+03	7.367721E-03	2.195912E-04
4.327696E+03	7.361636E-03	2.185361E-04
4.337668E+03	7.358668E-03	2.175756E-04
4.347640E+03	7.359633E-03	2.167329E-04
4.357611E+03	7.365756E-03	2.160426E-04
4.367583E+03	7.378147E-03	2.155355E-04
4.377555E+03	7.397854E-03	2.152399E-04
4.387526E+03	7.426228E-03	2.151925E-04
4.397498E+03	7.464240E-03	2.154186E-04
4.407470E+03	7.512855E-03	2.159424E-04
4.417441E+03	7.573093E-03	2.167896E-04
4.427413E+03	7.645387E-03	2.179684E-04
4.437385E+03	7.730171E-03	2.194869E-04
4.447356E+03	7.827445E-03	2.213409E-04
4.457328E+03	7.936969E-03	2.235193E-04
4.467299E+03	8.058244E-03	2.260038E-04
4.477271E+03	8.190504E-03	2.287692E-04
4.487243E+03	8.332712E-03	2.317827E-04
4.497214E+03	8.483551E-03	2.350047E-04
4.507186E+03	8.641429E-03	2.383883E-04
4.517158E+03	8.804396E-03	2.418776E-04
4.527129E+03	8.970379E-03	2.454143E-04
4.537101E+03	9.137251E-03	2.489395E-04
4.547073E+03	9.302540E-03	2.523858E-04
4.557044E+03	9.463963E-03	2.556923E-04
4.567016E+03	9.619165E-03	2.587968E-04
4.576988E+03	9.765798E-03	2.616386E-04
4.586959E+03	9.902086E-03	2.641732E-04
4.596931E+03	1.002607E-02	2.663520E-04
4.606903E+03	1.013675E-02	2.681530E-04
4.616874E+03	1.023295E-02	2.695492E-04
4.626846E+03	1.031429E-02	2.705358E-04
4.636818E+03	1.038097E-02	2.711229E-04
4.646789E+03	1.043325E-02	2.713224E-04
4.656761E+03	1.047217E-02	2.711657E-04
4.666732E+03	1.049897E-02	2.706893E-04
4.676704E+03	1.051504E-02	2.699330E-04
4.686676E+03	1.052220E-02	2.689467E-04
4.696647E+03	1.052236E-02	2.677821E-04
4.706619E+03	1.051732E-02	2.664872E-04
4.716591E+03	1.050883E-02	2.651077E-04
4.726562E+03	1.049887E-02	2.636942E-04
4.736534E+03	1.048884E-02	2.622828E-04
4.746506E+03	1.048018E-02	2.609090E-04
4.756477E+03	1.047392E-02	2.595980E-04
4.766449E+03	1.047082E-02	2.583676E-04
4.776421E+03	1.047145E-02	2.572311E-04
4.786392E+03	1.047574E-02	2.561851E-04
4.796364E+03	1.048320E-02	2.552168E-04
4.806336E+03	1.049332E-02	2.543129E-04
4.816307E+03	1.050531E-02	2.534537E-04
4.826279E+03	1.051797E-02	2.526092E-04
4.836251E+03	1.053010E-02	2.517511E-04
4.846222E+03	1.054036E-02	2.508478E-04
4.856194E+03	1.054723E-02	2.498637E-04
4.866165E+03	1.054924E-02	2.487653E-04
4.876137E+03	1.054494E-02	2.475207E-04
4.886109E+03	1.053299E-02	2.461006E-04
4.896080E+03	1.051212E-02	2.444777E-04
4.906052E+03	1.048159E-02	2.426383E-04
4.916024E+03	1.044054E-02	2.405657E-04
4.925995E+03	1.038889E-02	2.382616E-04
4.935967E+03	1.032650E-02	2.357261E-04
4.945939E+03	1.025405E-02	2.329786E-04
4.955910E+03	1.017230E-02	2.300396E-04
4.965882E+03	1.008249E-02	2.269398E-04
4.975854E+03	9.986286E-03	2.237194E-04
4.985825E+03	9.885513E-03	2.204212E-04
4.995797E+03	9.782204E-03	2.170919E-04
5.005769E+03	9.678427E-03	2.137780E-04
5.015740E+03	9.576619E-03	2.105334E-04
5.025712E+03	9.478803E-03	2.074018E-04
5.035684E+03	9.387355E-03	2.044339E-04
5.045655E+03	9.304326E-03	2.016722E-04
5.055627E+03	9.231536E-03	1.991536E-04
5.065599E+03	9.170821E-03	1.969145E-04
5.075570E+03	9.123724E-03	1.949845E-04
5.085542E+03	9.091590E-03	1.933881E-04
5.095513E+03	9.075557E-03	1.921454E-04
5.105485E+03	9.076465E-03	1.912694E-04
5.115457E+03	9.095329E-03	1.907767E-04
5.125428E+03	9.132403E-03	1.906679E-04
5.135400E+03	9.188226E-03	1.909492E-04
5.145372E+03	9.262877E-03	1.916174E-04
5.155343E+03	9.356450E-03	1.926696E-04
5.165315E+03	9.468695E-03	1.940959E-04
5.175287E+03	9.599404E-03	1.958877E-04
5.185258E+03	9.748039E-03	1.980297E-04
5.195230E+03	9.914148E-03	2.005088E-04
5.205202E+03	1.009709E-02	2.033084E-04
5.215173E+03	1.029605E-02	2.064086E-04
5.225145E+03	1.051037E-02	2.097936E-04
5.235117E+03	1.073931E-02	2.134456E-04
5.245088E+03	1.098200E-02	2.173455E-04
5.255060E+03	1.123787E-02	2.214800E-04
5.265032E+03	1.150633E-02	2.258358E-04
5.275003E+03	1.178690E-02	2.304022E-04
5.284975E+03	1.207907E-02	2.351687E-04
5.294946E+03	1.238261E-02	2.401298E-04
5.304918E+03	1.269753E-02	2.452852E-04
5.314890E+03	1.302367E-02	2.506319E-04
5.324861E+03	1.336122E-02	2.561733E-04
5.334833E+03	1.371011E-02	2.619082E-04
5.344805E+03	1.407051E-02	2.678402E-04
5.354776E+03	1.444220E-02	2.739656E-04
5.364748E+03	1.482474E-02	2.802772E-04
5.374720E+03	1.521789E-02	2.867713E-04
5.384691E+03	1.562056E-02	2.934289E-04
5.394663E+03	1.603115E-02	3.002217E-04
5.404635E+03	1.644786E-02	3.071185E-04
5.414606E+03	1.686740E-02	3.140607E-04
5.424578E+03	1.728607E-02	3.209832E-04
5.434550E+03	1.769884E-02	3.277968E-04
5.444521E+03	1.810029E-02	3.344063E-04
5.454493E+03	1.848413E-02	3.407010E-04
5.464465E+03	1.884418E-02	3.465728E-04
5.474436E+03	1.917397E-02	3.519082E-04
5.484408E+03	1.946753E-02	3.566031E-04
5.494379E+03	1.971972E-02	3.605684E-04
5.504351E+03	1.992609E-02	3.637279E-04
5.514323E+03	2.008279E-02	3.660161E-04
5.524294E+03	2.018823E-02	3.674083E-04
5.534266E+03	2.024131E-02	3.678883E-04
5.544238E+03	2.024228E-02	3.674637E-04
5.554209E+03	2.019335E-02	3.661770E-04
5.564181E+03	2.009709E-02	3.640762E-04
5.574153E+03	1.995820E-02	3.612473E-04
5.584124E+03	1.978125E-02	3.577731E-04
5.594096E+03	1.957204E-02	3.537581E-04
5.604068E+03	1.933668E-02	3.493115E-04
5.614039E+03	1.908142E-02	3.445444E-04
5.624011E+03	1.881244E-02	3.395669E-04
5.633983E+03	1.853576E-02	3.344852E-04
5.643954E+03	1.825708E-02	3.294003E-04
5.653926E+03	1.798120E-02	3.243964E-04
5.663898E+03	1.771276E-02	3.195548E-04
5.673869E+03	1.745478E-02	3.149281E-04
5.683841E+03	1.721049E-02	3.105728E-04
5.693812E+03	1.698166E-02	3.065188E-04
5.703784E+03	1.676921E-02	3.027814E-04
5.713756E+03	1.657383E-02	2.993718E-04
5.723727E+03	1.639481E-02	2.962759E-04
5.733699E+03	1.623147E-02	2.934807E-04
5.743671E+03	1.608208E-02	2.909538E-04
5.753642E+03	1.594458E-02	2.886573E-04
5.763614E+03	1.581656E-02	2.865471E-04
5.773586E+03	1.569535E-02	2.845740E-04
5.783557E+03	1.557830E-02	2.826893E-04
5.793529E+03	1.546241E-02	2.808377E-04
5.803501E+03	1.534492E-02	2.789682E-04
5.813472E+03	1.522326E-02	2.770333E-04
5.823444E+03	1.509513E-02	2.749901E-04
5.833416E+03	1.495862E-02	2.728025E-04
5.843387E+03	1.481222E-02	2.704417E-04
5.853359E+03	1.465489E-02	2.678874E-04
5.863331E+03	1.448607E-02	2.651279E-04
5.873302E+03	1.430553E-02	2.621574E-04
5.883274E+03	1.411380E-02	2.589840E-04
5.893246E+03	1.391164E-02	2.556204E-04
5.903217E+03	1.369990E-02	2.520807E-04
5.913189E+03	1.348028E-02	2.483947E-04
5.923160E+03	1.325426E-02	2.445884E-04
5.933132E+03	1.302346E-02	2.406908E-04
5.943104E+03	1.278985E-02	2.367370E-04
5.953075E+03	1.255512E-02	2.327576E-04
5.963047E+03	1.232116E-02	2.287871E-04
5.973019E+03	1.208938E-02	2.248514E-04
5.982990E+03	1.186145E-02	2.209810E-04
5.992962E+03	1.163874E-02	2.172015E-04
6.002934E+03	1.142247E-02	2.135356E-04
6.012905E+03	1.121344E-02	2.099985E-04
6.022877E+03	1.101279E-02	2.066119E-04
6.032849E+03	1.082102E-02	2.033859E-04
6.042820E+03	1.063901E-02	2.003372E-04
6.052792E+03	1.046705E-02	1.974723E-04
6.062764E+03	1.030582E-02	1.948048E-04
6.072735E+03	1.015550E-02	1.923390E-04
6.082707E+03	1.001657E-02	1.900849E-04
6.092679E+03	9.889476E-03	1.880521E-04
6.102650E+03	9.774544E-03	1.862481E-04
6.112622E+03	9.672116E-03	1.846806E-04
6.122593E+03	9.582526E-03	1.833574E-04
6.132565E+03	9.506223E-03	1.822886E-04
6.142537E+03	9.443657E-03	1.814845E-04
6.152508E+03	9.395272E-03	1.809553E-04
6.162480E+03	9.361423E-03	1.807097E-04
6.172452E+03	9.342551E-03	1.807583E-04
6.182423E+03	9.338898E-03	1.811077E-04
6.192395E+03	9.350889E-03	1.817684E-04
6.202367E+03	9.378640E-03	1.827451E-04
6.212338E+03	9.422441E-03	1.840458E-04
6.222310E+03	9.482463E-03	1.856764E-04
6.232282E+03	9.558939E-03	1.876443E-04
6.242253E+03	9.651963E-03	1.899540E-04
6.252225E+03	9.761784E-03	1.926134E-04
6.262197E+03	9.888378E-03	1.956251E-04
6.272168E+03	1.003164E-02	1.989901E-04
6.282140E+03	1.019157E-02	2.027119E-04
6.292112E+03	1.036786E-02	2.067871E-04
6.302083E+03	1.056027E-02	2.112138E-04
6.312055E+03	1.076817E-02	2.159823E-04
6.322026E+03	1.099076E-02	2.210790E-04
6.331998E+03	1.122741E-02	2.264938E-04
6.341970E+03	1.147680E-02	2.322023E-04
6.351941E+03	1.173760E-02	2.381797E-04
6.361913E+03	1.200822E-02	2.443957E-04
6.371885E+03	1.228670E-02	2.508122E-04
6.381856E+03	1.257066E-02	2.573817E-04
6.391828E+03	1.285704E-02	2.640423E-04
6.401800E+03	1.314237E-02	2.707224E-04
6.411771E+03	1.342267E-02	2.773399E-04
6.421743E+03	1.369367E-02	2.838046E-04
6.431715E+03	1.395091E-02	2.900221E-04
6.441686E+03	1.418999E-02	2.958974E-04
6.451658E+03	1.440664E-02	3.013371E-04
6.461630E+03	1.459720E-02	3.062601E-04
6.471601E+03	1.475814E-02	3.105863E-04
6.481573E+03	1.488659E-02	3.142488E-04
6.491545E+03	1.498031E-02	3.171935E-04
6.501516E+03	1.503771E-02	3.193794E-04
6.511488E+03	1.505763E-02	3.207738E-04
6.521459E+03	1.504009E-02	3.213696E-04
6.531431E+03	1.498557E-02	3.211693E-04
6.541403E+03	1.489521E-02	3.201897E-04
6.551374E+03	1.477082E-02	3.184623E-04
6.561346E+03	1.461513E-02	3.160392E-04
6.571318E+03	1.443064E-02	3.129684E-04
6.581289E+03	1.422112E-02	3.093258E-04
6.591261E+03	1.398988E-02	3.051788E-04
6.601233E+03	1.374058E-02	3.006031E-04
6.611204E+03	1.347692E-02	2.956762E-04
6.621176E+03	1.320270E-02	2.904789E-04
6.631148E+03	1.292156E-02	2.850896E-04
6.641119E+03	1.263660E-02	2.795755E-04
6.651091E+03	1.235079E-02	2.740020E-04
6.661063E+03	1.206710E-02	2.684351E-04
6.671034E+03	1.178754E-02	2.629198E-04
6.681006E+03	1.151419E-02	2.575040E-04
6.690978E+03	1.124881E-02	2.522281E-04
6.700949E+03	1.099237E-02	2.471156E-04
6.710921E+03	1.074624E-02	2.421992E-04
6.720893E+03	1.051080E-02	2.374896E-04
6.730864E+03	1.028647E-02	2.329981E-04
6.740836E+03	1.007371E-02	2.287376E-04
6.750807E+03	9.872282E-03	2.247045E-04
6.760779E+03	9.682174E-03	2.209009E-04
6.770751E+03	9.503138E-03	2.173232E-04
6.780722E+03	9.334829E-03	2.139654E-04
6.790694E+03	9.176835E-03	2.108200E-04
6.800666E+03	9.028815E-03	2.078810E-04
6.810637E+03	8.890036E-03	2.051333E-04
6.820609E+03	8.760229E-03	2.025722E-04
6.830581E+03	8.638757E-03	2.001845E-04
6.840552E+03	8.525117E-03	1.979600E-04
6.850524E+03	8.418815E-03	1.958885E-04
6.860496E+03	8.319381E-03	1.939602E-04
6.870467E+03	8.226485E-03	1.921687E-04
6.880439E+03	8.139610E-03	1.905028E-04
6.890411E+03	8.058391E-03	1.889550E-04
6.900382E+03	7.982622E-03	1.875214E-04
6.910354E+03	7.911813E-03	1.861913E-04
6.920326E+03	7.845974E-03	1.849657E-04
6.930297E+03	7.784836E-03	1.838390E-04
6.940269E+03	7.728295E-03	1.828095E-04
6.950240E+03	7.676304E-03	1.818768E-04
6.960212E+03	7.628869E-03	1.810416E-04
6.970184E+03	7.586148E-03	1.803084E-04
6.980155E+03	7.548017E-03	1.796748E-04
6.990127E+03	7.514711E-03	1.791472E-04
7.000099E+03	7.486485E-03	1.787321E-04
7.010070E+03	7.463291E-03	1.784291E-04
7.020042E+03	7.445296E-03	1.782428E-04
7.030014E+03	7.432879E-03	1.781829E-04
7.039985E+03	7.425973E-03	1.782483E-04
7.049957E+03	7.424808E-03	1.784452E-04
7.059929E+03	7.429477E-03	1.787765E-04
7.069900E+03	7.439919E-03	1.792412E-04
7.079872E+03	7.456141E-03	1.798400E-04
7.089844E+03	7.478207E-03	1.805750E-04
7.099815E+03	7.505915E-03	1.814419E-04
7.109787E+03	7.539115E-03	1.824375E-04
7.119759E+03	7.577613E-03	1.835576E-04
7.129730E+03	7.621279E-03	1.847994E-04
7.139702E+03	7.669605E-03	1.861510E-04
7.149673E+03	7.722384E-03	1.876077E-04
7.159645E+03	7.779152E-03	1.891586E-04
7.169617E+03	7.839772E-03	1.908006E-04
7.179588E+03	7.903509E-03	1.925161E-04
7.189560E+03	7.970207E-03	1.943015E-04
7.199532E+03	8.039353E-03	1.961446E-04
7.209503E+03	8.110677E-03	1.980389E-04
7.219475E+03	8.183552E-03	1.999693E-04
7.229447E+03	8.257716E-03	2.019296E-04
7.239418E+03	8.332674E-03	2.039077E-04
7.249390E+03	8.408179E-03	2.058979E-04
7.259362E+03	8.483735E-03	2.078880E-04
7.269333E+03	8.559104E-03	2.098724E-04
7.279305E+03	8.633648E-03	2.118355E-04
7.289277E+03	8.707119E-03	2.137715E-04
7.299248E+03	8.779131E-03	2.156708E-04
7.309220E+03	8.849164E-03	2.175210E-04
7.319192E+03	8.916833E-03	2.193126E-04
7.329163E+03	8.981905E-03	2.210400E-04
7.339135E+03	9.043759E-03	2.226881E-04
7.349106E+03	9.102223E-03	2.242527E-04
7.359078E+03	9.156909E-03	2.257246E-04
7.369050E+03	9.207781E-03	2.271028E-04
7.379021E+03	9.254462E-03	2.283784E-04
7.388993E+03	9.297116E-03	2.295555E-04
7.398965E+03	9.335728E-03	2.306339E-04
7.408936E+03	9.370558E-03	2.316203E-04
7.418908E+03	9.401985E-03	2.325242E-04
7.428880E+03	9.430661E-03	2.333621E-04
7.438851E+03	9.456897E-03	2.341419E-04
7.448823E+03	9.481837E-03	2.348923E-04
7.458795E+03	9.505936E-03	2.356250E-04
7.468766E+03	9.530137E-03	2.363637E-04
7.478738E+03	9.555220E-03	2.371283E-04
7.488710E+03	9.582084E-03	2.379415E-04
7.498681E+03	9.611246E-03	2.388168E-04
7.508653E+03	9.643415E-03	2.397724E-04
7.518625E+03	9.679011E-03	2.408194E-04
7.528596E+03	9.718281E-03	2.419646E-04
7.538568E+03	9.761284E-03	2.432103E-04
7.548540E+03	9.807874E-03	2.445537E-04
7.558511E+03	9.857857E-03	2.459905E-04
7.568483E+03	9.910510E-03	2.475037E-04
7.578454E+03	9.965233E-03	2.490789E-04
7.588426E+03	1.002091E-02	2.506891E-04
7.598398E+03	1.007660E-02	2.523114E-04
7.608369E+03	1.013105E-02	2.539153E-04
7.618341E+03	1.018294E-02	2.554678E-04
7.628313E+03	1.023085E-02	2.569344E-04
7.638284E+03	1.027338E-02	2.582798E-04
7.648256E+03	1.030914E-02	2.594695E-04
7.658228E+03	1.033681E-02	2.604704E-04
7.668199E+03	1.035536E-02	2.612565E-04
7.678171E+03	1.036340E-02	2.617921E-04
7.688143E+03	1.036038E-02	2.620637E-04
7.698114E+03	1.034549E-02	2.620493E-04
7.708086E+03	1.031827E-02	2.617371E-04
7.718058E+03	1.027852E-02	2.611209E-04
7.728029E+03	1.022626E-02	2.602003E-04
7.738001E+03	1.016175E-02	2.589804E-04
