#wls	flux	fluxerr
1.589729E+03	3.878088E-02	2.703072E-03
1.629472E+03	3.311680E-02	2.260627E-03
1.669215E+03	2.787658E-02	1.862716E-03
1.708958E+03	2.311233E-02	1.511019E-03
1.748702E+03	1.885782E-02	1.205692E-03
1.788445E+03	1.512126E-02	9.450665E-04
1.828188E+03	1.189946E-02	7.267005E-04
1.867931E+03	9.175098E-03	5.473111E-04
1.907675E+03	6.920556E-03	4.031090E-04
1.947418E+03	5.101327E-03	2.900754E-04
1.987161E+03	3.677466E-03	2.040995E-04
2.026904E+03	2.605407E-03	1.411204E-04
2.066647E+03	1.835605E-03	9.703138E-05
2.106391E+03	1.315083E-03	6.785030E-05
2.146134E+03	9.901017E-04	4.987085E-05
2.185877E+03	8.099941E-04	3.984577E-05
2.225620E+03	7.392668E-04	3.553606E-05
2.265363E+03	7.640013E-04	3.591197E-05
2.305107E+03	8.930463E-04	4.108521E-05
2.344850E+03	1.163091E-03	5.242813E-05
2.384593E+03	1.653049E-03	7.310152E-05
2.424336E+03	2.505633E-03	1.088503E-04
2.464080E+03	3.954450E-03	1.689830E-04
2.503823E+03	6.346204E-03	2.670874E-04
2.543566E+03	1.012599E-02	4.201959E-04
2.583309E+03	1.574374E-02	6.448190E-04
2.623052E+03	2.347614E-02	9.498517E-04
2.662796E+03	3.325941E-02	1.330355E-03
2.702539E+03	4.462283E-02	1.765625E-03
2.742282E+03	5.672669E-02	2.221373E-03
2.782025E+03	6.853434E-02	2.656935E-03
2.821769E+03	7.904584E-02	3.034457E-03
2.861512E+03	8.752188E-02	3.327252E-03
2.901255E+03	9.360984E-02	3.524089E-03
2.940998E+03	9.734947E-02	3.628773E-03
2.980741E+03	9.909413E-02	3.656611E-03
2.990677E+03	9.927960E-02	3.654034E-03
3.000613E+03	9.938210E-02	3.648326E-03
3.010549E+03	9.941094E-02	3.639847E-03
3.020485E+03	9.937874E-02	3.629075E-03
3.030420E+03	9.929881E-02	3.616511E-03
3.040356E+03	9.918437E-02	3.602643E-03
3.050292E+03	9.904329E-02	3.587765E-03
3.060228E+03	9.888350E-02	3.572169E-03
3.070164E+03	9.871293E-02	3.556142E-03
3.080099E+03	9.854157E-02	3.540042E-03
3.090035E+03	9.837734E-02	3.524146E-03
3.099971E+03	9.822619E-02	3.508656E-03
3.109907E+03	9.809998E-02	3.493982E-03
3.119843E+03	9.800269E-02	3.480251E-03
3.129779E+03	9.794430E-02	3.467799E-03
3.139714E+03	9.793471E-02	3.456955E-03
3.149650E+03	9.798024E-02	3.447919E-03
3.159586E+03	9.809120E-02	3.441028E-03
3.169522E+03	9.827449E-02	3.436492E-03
3.179458E+03	9.854112E-02	3.434663E-03
3.189393E+03	9.890080E-02	3.435842E-03
3.199329E+03	9.936207E-02	3.440284E-03
3.209265E+03	9.993773E-02	3.448386E-03
3.219201E+03	1.006396E-01	3.460504E-03
3.229137E+03	1.014802E-01	3.477008E-03
3.239072E+03	1.024723E-01	3.498279E-03
3.249008E+03	1.036297E-01	3.524710E-03
3.258944E+03	1.049661E-01	3.556693E-03
3.268880E+03	1.064938E-01	3.594557E-03
3.278816E+03	1.082301E-01	3.638797E-03
3.288751E+03	1.101855E-01	3.689658E-03
3.298687E+03	1.123751E-01	3.747542E-03
3.308623E+03	1.148104E-01	3.812707E-03
3.318559E+03	1.175056E-01	3.885499E-03
3.328495E+03	1.204728E-01	3.966178E-03
3.338430E+03	1.237194E-01	4.054842E-03
3.348366E+03	1.272594E-01	4.151793E-03
3.358302E+03	1.310980E-01	4.257036E-03
3.368238E+03	1.352444E-01	4.370693E-03
3.378174E+03	1.397030E-01	4.492724E-03
3.388109E+03	1.444705E-01	4.622836E-03
3.398045E+03	1.495459E-01	4.760797E-03
3.407981E+03	1.549119E-01	4.905867E-03
3.417917E+03	1.605450E-01	5.057105E-03
3.427853E+03	1.664077E-01	5.213148E-03
3.437788E+03	1.724431E-01	5.372049E-03
3.447724E+03	1.785785E-01	5.531404E-03
3.457660E+03	1.847104E-01	5.687915E-03
3.467596E+03	1.907141E-01	5.837703E-03
3.477532E+03	1.964370E-01	5.976140E-03
3.487467E+03	2.017099E-01	6.098212E-03
3.497403E+03	2.063406E-01	6.198343E-03
3.507339E+03	2.101333E-01	6.271012E-03
3.517275E+03	2.129034E-01	6.311198E-03
3.527211E+03	2.144776E-01	6.314378E-03
3.537146E+03	2.147273E-01	6.277492E-03
3.547082E+03	2.135756E-01	6.199122E-03
3.557018E+03	2.110049E-01	6.079642E-03
3.566954E+03	2.070733E-01	5.921645E-03
3.576890E+03	2.019055E-01	5.729575E-03
3.586826E+03	1.956920E-01	5.509664E-03
3.596761E+03	1.886756E-01	5.269448E-03
3.606697E+03	1.811244E-01	5.016965E-03
3.616633E+03	1.733259E-01	4.760555E-03
3.626569E+03	1.655533E-01	4.507910E-03
3.636505E+03	1.580580E-01	4.265873E-03
3.646440E+03	1.510544E-01	4.040057E-03
3.656376E+03	1.447196E-01	3.834865E-03
3.666312E+03	1.391877E-01	3.653386E-03
3.676248E+03	1.345535E-01	3.497544E-03
3.686184E+03	1.308834E-01	3.368404E-03
3.696119E+03	1.282181E-01	3.266302E-03
3.706055E+03	1.265811E-01	3.191067E-03
3.715991E+03	1.259910E-01	3.142366E-03
3.725927E+03	1.264564E-01	3.119573E-03
3.735863E+03	1.279888E-01	3.122103E-03
3.745798E+03	1.306029E-01	3.149411E-03
3.755734E+03	1.343111E-01	3.200863E-03
3.765670E+03	1.391345E-01	3.275991E-03
3.775606E+03	1.450898E-01	3.374174E-03
3.785542E+03	1.521944E-01	3.494768E-03
3.795477E+03	1.604561E-01	3.636873E-03
3.805413E+03	1.698658E-01	3.799166E-03
3.815349E+03	1.803902E-01	3.979793E-03
3.825285E+03	1.919629E-01	4.176191E-03
3.835221E+03	2.044699E-01	4.384839E-03
3.845156E+03	2.177515E-01	4.601376E-03
3.855092E+03	2.315954E-01	4.820534E-03
3.865028E+03	2.457501E-01	5.036500E-03
3.874964E+03	2.599305E-01	5.243104E-03
3.884900E+03	2.738354E-01	5.434224E-03
3.894835E+03	2.871693E-01	5.604253E-03
3.904771E+03	2.996558E-01	5.748354E-03
3.914707E+03	3.110675E-01	5.862999E-03
3.924643E+03	3.212376E-01	5.946109E-03
3.934579E+03	3.300621E-01	5.996998E-03
3.944514E+03	3.375264E-01	6.016745E-03
3.954450E+03	3.436769E-01	6.007542E-03
3.964386E+03	3.486257E-01	5.972664E-03
3.974322E+03	3.525345E-01	5.916095E-03
3.984258E+03	3.555866E-01	5.841959E-03
3.994194E+03	3.579791E-01	5.754370E-03
4.004129E+03	3.598854E-01	5.656799E-03
4.014065E+03	3.614426E-01	5.551928E-03
4.024001E+03	3.627355E-01	5.441469E-03
4.033937E+03	3.638029E-01	5.326351E-03
4.043873E+03	3.646217E-01	5.206570E-03
4.053808E+03	3.651194E-01	5.081484E-03
4.063744E+03	3.651867E-01	4.950062E-03
4.073680E+03	3.646922E-01	4.811157E-03
4.083616E+03	3.635044E-01	4.663826E-03
4.093552E+03	3.615006E-01	4.507430E-03
4.103487E+03	3.585920E-01	4.341933E-03
4.113423E+03	3.547212E-01	4.167802E-03
4.123359E+03	3.498657E-01	3.985987E-03
4.133295E+03	3.440364E-01	3.797838E-03
4.143231E+03	3.372749E-01	3.605016E-03
4.153166E+03	3.296555E-01	3.409446E-03
4.163102E+03	3.212718E-01	3.213135E-03
4.173038E+03	3.122546E-01	3.018298E-03
4.182974E+03	3.027616E-01	2.827206E-03
4.192910E+03	2.929680E-01	2.642055E-03
4.202845E+03	2.830766E-01	2.465036E-03
4.212781E+03	2.732979E-01	2.298129E-03
4.222717E+03	2.638512E-01	2.143125E-03
4.232653E+03	2.549443E-01	2.001471E-03
4.242589E+03	2.467689E-01	1.874278E-03
4.252524E+03	2.394956E-01	1.762346E-03
4.262460E+03	2.332487E-01	1.666037E-03
4.272396E+03	2.281193E-01	1.585457E-03
4.282332E+03	2.241466E-01	1.520391E-03
4.292268E+03	2.213286E-01	1.470439E-03
4.302203E+03	2.196223E-01	1.435057E-03
4.312139E+03	2.189529E-01	1.413634E-03
4.322075E+03	2.192107E-01	1.405463E-03
4.332011E+03	2.202523E-01	1.409635E-03
4.341947E+03	2.219113E-01	1.424894E-03
4.351882E+03	2.239870E-01	1.449715E-03
4.361818E+03	2.262630E-01	1.482418E-03
4.371754E+03	2.285159E-01	1.521172E-03
4.381690E+03	2.305567E-01	1.564238E-03
4.391626E+03	2.322753E-01	1.610277E-03
4.401562E+03	2.337049E-01	1.658855E-03
4.411497E+03	2.349730E-01	1.710229E-03
4.421433E+03	2.362492E-01	1.765061E-03
4.431369E+03	2.377064E-01	1.824203E-03
4.441305E+03	2.394750E-01	1.888350E-03
4.451241E+03	2.416295E-01	1.957903E-03
4.461176E+03	2.441763E-01	2.032804E-03
4.471112E+03	2.470550E-01	2.112471E-03
4.481048E+03	2.501456E-01	2.195776E-03
4.490984E+03	2.532911E-01	2.281171E-03
4.500920E+03	2.563096E-01	2.366759E-03
4.510855E+03	2.590162E-01	2.450463E-03
4.520791E+03	2.612433E-01	2.530229E-03
4.530727E+03	2.628581E-01	2.604214E-03
4.540663E+03	2.637611E-01	2.670825E-03
4.550599E+03	2.638840E-01	2.728728E-03
4.560534E+03	2.632008E-01	2.777016E-03
4.570470E+03	2.617002E-01	2.814948E-03
4.580406E+03	2.594025E-01	2.842162E-03
4.590342E+03	2.563455E-01	2.858547E-03
4.600278E+03	2.525838E-01	2.864250E-03
4.610213E+03	2.481931E-01	2.859740E-03
4.620149E+03	2.432609E-01	2.845718E-03
4.630085E+03	2.378966E-01	2.823237E-03
4.640021E+03	2.322053E-01	2.793402E-03
4.649957E+03	2.263019E-01	2.757532E-03
4.659892E+03	2.202903E-01	2.716897E-03
4.669828E+03	2.142649E-01	2.672728E-03
4.679764E+03	2.083014E-01	2.626078E-03
4.689700E+03	2.024637E-01	2.577900E-03
4.699636E+03	1.967965E-01	2.528926E-03
4.709571E+03	1.913364E-01	2.479807E-03
4.719507E+03	1.861013E-01	2.430959E-03
4.729443E+03	1.811057E-01	2.382751E-03
4.739379E+03	1.763555E-01	2.335441E-03
4.749315E+03	1.718511E-01	2.289202E-03
4.759250E+03	1.675941E-01	2.244214E-03
4.769186E+03	1.635829E-01	2.200609E-03
4.779122E+03	1.598199E-01	2.158557E-03
4.789058E+03	1.563114E-01	2.118275E-03
4.798994E+03	1.530698E-01	2.080048E-03
4.808930E+03	1.501124E-01	2.044222E-03
4.818865E+03	1.474673E-01	2.011279E-03
4.828801E+03	1.451591E-01	1.981640E-03
4.838737E+03	1.432196E-01	1.955811E-03
4.848673E+03	1.416706E-01	1.934146E-03
4.858609E+03	1.405247E-01	1.916854E-03
4.868544E+03	1.397720E-01	1.903819E-03
4.878480E+03	1.393858E-01	1.894679E-03
4.888416E+03	1.393187E-01	1.888776E-03
4.898352E+03	1.395085E-01	1.885246E-03
4.908288E+03	1.398910E-01	1.883195E-03
4.918223E+03	1.404051E-01	1.881771E-03
4.928159E+03	1.410084E-01	1.880388E-03
4.938095E+03	1.416781E-01	1.878722E-03
4.948031E+03	1.424236E-01	1.876877E-03
4.957967E+03	1.432718E-01	1.875186E-03
4.967902E+03	1.442723E-01	1.874260E-03
4.977838E+03	1.454815E-01	1.874776E-03
4.987774E+03	1.469591E-01	1.877423E-03
4.997710E+03	1.487555E-01	1.882736E-03
5.007646E+03	1.509042E-01	1.891005E-03
5.017581E+03	1.534242E-01	1.902313E-03
5.027517E+03	1.563111E-01	1.916432E-03
5.037453E+03	1.595352E-01	1.932822E-03
5.047389E+03	1.630367E-01	1.950587E-03
5.057325E+03	1.667343E-01	1.968613E-03
5.067260E+03	1.705186E-01	1.985502E-03
5.077196E+03	1.742537E-01	1.999628E-03
5.087132E+03	1.778003E-01	2.009425E-03
5.097068E+03	1.810058E-01	2.013285E-03
5.107004E+03	1.837260E-01	2.009821E-03
5.116939E+03	1.858314E-01	1.997928E-03
5.126875E+03	1.872122E-01	1.976830E-03
5.136811E+03	1.877890E-01	1.946174E-03
5.146747E+03	1.875079E-01	1.905955E-03
5.156683E+03	1.863476E-01	1.856558E-03
5.166618E+03	1.843181E-01	1.798711E-03
5.176554E+03	1.814574E-01	1.733420E-03
5.186490E+03	1.778431E-01	1.662042E-03
5.196426E+03	1.735796E-01	1.586122E-03
5.206362E+03	1.688027E-01	1.507401E-03
5.216298E+03	1.636777E-01	1.427762E-03
5.226233E+03	1.583913E-01	1.349133E-03
5.236169E+03	1.531405E-01	1.273360E-03
5.246105E+03	1.481236E-01	1.202137E-03
5.256041E+03	1.435192E-01	1.136839E-03
5.265977E+03	1.394852E-01	1.078546E-03
5.275912E+03	1.361426E-01	1.027949E-03
5.285848E+03	1.335803E-01	9.854338E-04
5.295784E+03	1.318447E-01	9.510553E-04
5.305720E+03	1.309411E-01	9.245916E-04
5.315656E+03	1.308297E-01	9.055610E-04
5.325591E+03	1.314199E-01	8.932231E-04
5.335527E+03	1.325777E-01	8.866569E-04
5.345463E+03	1.341219E-01	8.847482E-04
5.355399E+03	1.358350E-01	8.862567E-04
5.365335E+03	1.374714E-01	8.898413E-04
5.375270E+03	1.387855E-01	8.941931E-04
5.385206E+03	1.395448E-01	8.980297E-04
5.395142E+03	1.395733E-01	9.001846E-04
5.405078E+03	1.387828E-01	8.998799E-04
5.415014E+03	1.372073E-01	8.970041E-04
5.424949E+03	1.350546E-01	8.924968E-04
5.434885E+03	1.326514E-01	8.880867E-04
5.444821E+03	1.303521E-01	8.857789E-04
5.454757E+03	1.284661E-01	8.874219E-04
5.464693E+03	1.272266E-01	8.945107E-04
5.474628E+03	1.267840E-01	9.081154E-04
5.484564E+03	1.272081E-01	9.288513E-04
5.494500E+03	1.284922E-01	9.568523E-04
5.504436E+03	1.305699E-01	9.918325E-04
5.514372E+03	1.333153E-01	1.033034E-03
5.524307E+03	1.365638E-01	1.079329E-03
5.534243E+03	1.401286E-01	1.129317E-03
5.544179E+03	1.438098E-01	1.181379E-03
5.554115E+03	1.474187E-01	1.233859E-03
5.564051E+03	1.507892E-01	1.285179E-03
5.573986E+03	1.537858E-01	1.333929E-03
5.583922E+03	1.563100E-01	1.378946E-03
5.593858E+03	1.582972E-01	1.419325E-03
5.603794E+03	1.597147E-01	1.454430E-03
5.613730E+03	1.605588E-01	1.483890E-03
5.623665E+03	1.608436E-01	1.507523E-03
5.633601E+03	1.606051E-01	1.525383E-03
5.643537E+03	1.598799E-01	1.537573E-03
5.653473E+03	1.587170E-01	1.544356E-03
5.663409E+03	1.571650E-01	1.546036E-03
5.673345E+03	1.552740E-01	1.542975E-03
5.683280E+03	1.531028E-01	1.535664E-03
5.693216E+03	1.507112E-01	1.524639E-03
5.703152E+03	1.481690E-01	1.510580E-03
5.713088E+03	1.455523E-01	1.494262E-03
5.723024E+03	1.429441E-01	1.476566E-03
5.732959E+03	1.404276E-01	1.458396E-03
5.742895E+03	1.380883E-01	1.440702E-03
5.752831E+03	1.359982E-01	1.424307E-03
5.762767E+03	1.342204E-01	1.409941E-03
5.772703E+03	1.328004E-01	1.398147E-03
5.782638E+03	1.317623E-01	1.389232E-03
5.792574E+03	1.311085E-01	1.383259E-03
5.802510E+03	1.308260E-01	1.380112E-03
5.812446E+03	1.308873E-01	1.379505E-03
5.822382E+03	1.312514E-01	1.380994E-03
5.832317E+03	1.318765E-01	1.384120E-03
5.842253E+03	1.327192E-01	1.388397E-03
5.852189E+03	1.337316E-01	1.393287E-03
5.862125E+03	1.348720E-01	1.398321E-03
5.872061E+03	1.360962E-01	1.403007E-03
5.881996E+03	1.373563E-01	1.406825E-03
5.891932E+03	1.386070E-01	1.409292E-03
5.901868E+03	1.397990E-01	1.409904E-03
5.911804E+03	1.408713E-01	1.408061E-03
5.921740E+03	1.417590E-01	1.403156E-03
5.931675E+03	1.423848E-01	1.394495E-03
5.941611E+03	1.426575E-01	1.381301E-03
5.951547E+03	1.424767E-01	1.362764E-03
5.961483E+03	1.417329E-01	1.338058E-03
5.971419E+03	1.403116E-01	1.306389E-03
5.981354E+03	1.381078E-01	1.267140E-03
5.991290E+03	1.350335E-01	1.219930E-03
6.001226E+03	1.310395E-01	1.164801E-03
6.011162E+03	1.261270E-01	1.102291E-03
6.021098E+03	1.203702E-01	1.033583E-03
6.031033E+03	1.139069E-01	9.603667E-04
6.040969E+03	1.069460E-01	8.848361E-04
6.050905E+03	9.973501E-02	8.093618E-04
6.060841E+03	9.254638E-02	7.363449E-04
6.070777E+03	8.563775E-02	6.678792E-04
6.080713E+03	7.923901E-02	6.056642E-04
6.090648E+03	7.353119E-02	5.508747E-04
6.100584E+03	6.864227E-02	5.041762E-04
6.110520E+03	6.465211E-02	4.658144E-04
6.120456E+03	6.160279E-02	4.357379E-04
6.130392E+03	5.950863E-02	4.137105E-04
6.140327E+03	5.836818E-02	3.994273E-04
6.150263E+03	5.817300E-02	3.926003E-04
6.160199E+03	5.891275E-02	3.930114E-04
6.170135E+03	6.057168E-02	4.005066E-04
6.180071E+03	6.312088E-02	4.149600E-04
6.190006E+03	6.651437E-02	4.362602E-04
6.199942E+03	7.067422E-02	4.642165E-04
6.209878E+03	7.548670E-02	4.985223E-04
6.219814E+03	8.079981E-02	5.386816E-04
6.229750E+03	8.642158E-02	5.838691E-04
6.239685E+03	9.213218E-02	6.329962E-04
6.249621E+03	9.769734E-02	6.847471E-04
6.259557E+03	1.028881E-01	7.376557E-04
6.269493E+03	1.075043E-01	7.902348E-04
6.279429E+03	1.113788E-01	8.410012E-04
6.289364E+03	1.143999E-01	8.886627E-04
6.299300E+03	1.165035E-01	9.321069E-04
6.309236E+03	1.176794E-01	9.705156E-04
6.319172E+03	1.179558E-01	1.003310E-03
6.329108E+03	1.173999E-01	1.030225E-03
6.339043E+03	1.161085E-01	1.051290E-03
6.348979E+03	1.141976E-01	1.066798E-03
6.358915E+03	1.118102E-01	1.077421E-03
6.368851E+03	1.091032E-01	1.084135E-03
6.378787E+03	1.062454E-01	1.088231E-03
6.388722E+03	1.034122E-01	1.091290E-03
6.398658E+03	1.007745E-01	1.095079E-03
6.408594E+03	9.848381E-02	1.101380E-03
6.418530E+03	9.665030E-02	1.111707E-03
6.428466E+03	9.529818E-02	1.126717E-03
6.438401E+03	9.436070E-02	1.146005E-03
6.448337E+03	9.373317E-02	1.168619E-03
6.458273E+03	9.331344E-02	1.193510E-03
6.468209E+03	9.300668E-02	1.219597E-03
6.478145E+03	9.273372E-02	1.245892E-03
6.488081E+03	9.243330E-02	1.271553E-03
6.498016E+03	9.206161E-02	1.295910E-03
6.507952E+03	9.159211E-02	1.318485E-03
6.517888E+03	9.100859E-02	1.338925E-03
6.527824E+03	9.030877E-02	1.357067E-03
6.537760E+03	8.949697E-02	1.372851E-03
6.547695E+03	8.858195E-02	1.386294E-03
6.557631E+03	8.757871E-02	1.397529E-03
6.567567E+03	8.650285E-02	1.406719E-03
6.577503E+03	8.537039E-02	1.414057E-03
6.587439E+03	8.419662E-02	1.419745E-03
6.597374E+03	8.299558E-02	1.423986E-03
6.607310E+03	8.177922E-02	1.426962E-03
6.617246E+03	8.055594E-02	1.428812E-03
6.627182E+03	7.933456E-02	1.429690E-03
6.637118E+03	7.811858E-02	1.429667E-03
6.647053E+03	7.691261E-02	1.428836E-03
6.656989E+03	7.571801E-02	1.427237E-03
6.666925E+03	7.453419E-02	1.424876E-03
6.676861E+03	7.336139E-02	1.421773E-03
6.686797E+03	7.220124E-02	1.417977E-03
6.696732E+03	7.105245E-02	1.413479E-03
6.706668E+03	6.991982E-02	1.408395E-03
6.716604E+03	6.880553E-02	1.402792E-03
6.726540E+03	6.771326E-02	1.396769E-03
6.736476E+03	6.664972E-02	1.390490E-03
6.746411E+03	6.562117E-02	1.384121E-03
6.756347E+03	6.463237E-02	1.377797E-03
6.766283E+03	6.368993E-02	1.371696E-03
6.776219E+03	6.279701E-02	1.365930E-03
6.786155E+03	6.195789E-02	1.360632E-03
6.796090E+03	6.117186E-02	1.355832E-03
6.806026E+03	6.044142E-02	1.351625E-03
6.815962E+03	5.976327E-02	1.347979E-03
6.825898E+03	5.913764E-02	1.344937E-03
6.835834E+03	5.855964E-02	1.342422E-03
6.845769E+03	5.802731E-02	1.340424E-03
6.855705E+03	5.753637E-02	1.338871E-03
6.865641E+03	5.708472E-02	1.337741E-03
6.875577E+03	5.666822E-02	1.336962E-03
6.885513E+03	5.628506E-02	1.336510E-03
6.895449E+03	5.593034E-02	1.336289E-03
6.905384E+03	5.560352E-02	1.336302E-03
6.915320E+03	5.530083E-02	1.336472E-03
6.925256E+03	5.501837E-02	1.336719E-03
6.935192E+03	5.475524E-02	1.337030E-03
6.945128E+03	5.450607E-02	1.337283E-03
6.955063E+03	5.426860E-02	1.337431E-03
6.964999E+03	5.403841E-02	1.337370E-03
6.974935E+03	5.381347E-02	1.337054E-03
6.984871E+03	5.359002E-02	1.336394E-03
6.994807E+03	5.336700E-02	1.335365E-03
7.004742E+03	5.314082E-02	1.333881E-03
7.014678E+03	5.291267E-02	1.331972E-03
7.024614E+03	5.268004E-02	1.329578E-03
7.034550E+03	5.244496E-02	1.326753E-03
7.044486E+03	5.220547E-02	1.323450E-03
7.054421E+03	5.196281E-02	1.319701E-03
7.064357E+03	5.171616E-02	1.315490E-03
7.074293E+03	5.146674E-02	1.310851E-03
7.084229E+03	5.121470E-02	1.305791E-03
7.094165E+03	5.095811E-02	1.300264E-03
7.104100E+03	5.069911E-02	1.294329E-03
7.114036E+03	5.043768E-02	1.287988E-03
7.123972E+03	5.017165E-02	1.281192E-03
7.133908E+03	4.990168E-02	1.273960E-03
7.143844E+03	4.962711E-02	1.266281E-03
7.153779E+03	4.934588E-02	1.258108E-03
7.163715E+03	4.905850E-02	1.249457E-03
7.173651E+03	4.876098E-02	1.240235E-03
7.183587E+03	4.845090E-02	1.230385E-03
7.193523E+03	4.812649E-02	1.219869E-03
7.203458E+03	4.778276E-02	1.208571E-03
7.213394E+03	4.741858E-02	1.196469E-03
7.223330E+03	4.702984E-02	1.183474E-03
7.233266E+03	4.661369E-02	1.169524E-03
7.243202E+03	4.616665E-02	1.154548E-03
7.253137E+03	4.568687E-02	1.138515E-03
7.263073E+03	4.517421E-02	1.121441E-03
7.273009E+03	4.462763E-02	1.103320E-03
7.282945E+03	4.404728E-02	1.084176E-03
7.292881E+03	4.343543E-02	1.064088E-03
7.302817E+03	4.279546E-02	1.043163E-03
7.312752E+03	4.213170E-02	1.021528E-03
7.322688E+03	4.144829E-02	9.993066E-04
7.332624E+03	4.074970E-02	9.766282E-04
7.342560E+03	4.004134E-02	9.536425E-04
7.352496E+03	3.932660E-02	9.304491E-04
7.362431E+03	3.861178E-02	9.072140E-04
7.372367E+03	3.789843E-02	8.839883E-04
7.382303E+03	3.719021E-02	8.608709E-04
7.392239E+03	3.649137E-02	8.379720E-04
7.402175E+03	3.580635E-02	8.154019E-04
7.412110E+03	3.513848E-02	7.932429E-04
7.422046E+03	3.449410E-02	7.716404E-04
7.431982E+03	3.387857E-02	7.507130E-04
7.441918E+03	3.329931E-02	7.306181E-04
7.451854E+03	3.276171E-02	7.114617E-04
7.461789E+03	3.227326E-02	6.933886E-04
7.471725E+03	3.183950E-02	6.764927E-04
7.481661E+03	3.146510E-02	6.608433E-04
7.491597E+03	3.115426E-02	6.464922E-04
7.501533E+03	3.090835E-02	6.334275E-04
7.511468E+03	3.072948E-02	6.216475E-04
7.521404E+03	3.061638E-02	6.110793E-04
7.531340E+03	3.056744E-02	6.016411E-04
7.541276E+03	3.058089E-02	5.932488E-04
7.551212E+03	3.065376E-02	5.857943E-04
7.561147E+03	3.078275E-02	5.791648E-04
7.571083E+03	3.096364E-02	5.732328E-04
7.581019E+03	3.119420E-02	5.679102E-04
7.590955E+03	3.146920E-02	5.630566E-04
7.600891E+03	3.178603E-02	5.585832E-04
7.610826E+03	3.213888E-02	5.543483E-04
7.620762E+03	3.252460E-02	5.502616E-04
7.630698E+03	3.293686E-02	5.461846E-04
7.640634E+03	3.337234E-02	5.420353E-04
7.650570E+03	3.382563E-02	5.377035E-04
7.660505E+03	3.429237E-02	5.331034E-04
7.670441E+03	3.476768E-02	5.281479E-04
7.680377E+03	3.524926E-02	5.227964E-04
7.690313E+03	3.573216E-02	5.169748E-04
7.700249E+03	3.621153E-02	5.106191E-04
7.710184E+03	3.668046E-02	5.036465E-04
