#wls	flux	fluxerr
1.589729E+03	3.710425E-02	2.339299E-03
1.629472E+03	3.163263E-02	1.952733E-03
1.669215E+03	2.657890E-02	1.605675E-03
1.708958E+03	2.199306E-02	1.299540E-03
1.748702E+03	1.790658E-02	1.034367E-03
1.788445E+03	1.432825E-02	8.087152E-04
1.828188E+03	1.124759E-02	6.200035E-04
1.867931E+03	8.648846E-03	4.654032E-04
1.907675E+03	6.503216E-03	3.414734E-04
1.947418E+03	4.775446E-03	2.445914E-04
1.987161E+03	3.425156E-03	1.710695E-04
2.026904E+03	2.409659E-03	1.173301E-04
2.066647E+03	1.681447E-03	7.980517E-05
2.106391E+03	1.189527E-03	5.502898E-05
2.146134E+03	8.838175E-04	3.985415E-05
2.185877E+03	7.153380E-04	3.144831E-05
2.225620E+03	6.493519E-04	2.784111E-05
2.265363E+03	6.727792E-04	2.814597E-05
2.305107E+03	7.945639E-04	3.245670E-05
2.344850E+03	1.051269E-03	4.196620E-05
2.384593E+03	1.522892E-03	5.947447E-05
2.424336E+03	2.356489E-03	9.014631E-05
2.464080E+03	3.798649E-03	1.425285E-04
2.503823E+03	6.222931E-03	2.293029E-04
2.543566E+03	1.012060E-02	3.666745E-04
2.583309E+03	1.600097E-02	5.706343E-04
2.623052E+03	2.418773E-02	8.499111E-04
2.662796E+03	3.463674E-02	1.200220E-03
2.702539E+03	4.686659E-02	1.602722E-03
2.742282E+03	5.999705E-02	2.026129E-03
2.782025E+03	7.292881E-02	2.433309E-03
2.821769E+03	8.459431E-02	2.789764E-03
2.861512E+03	9.419050E-02	3.071007E-03
2.901255E+03	1.013216E-01	3.266617E-03
2.940998E+03	1.060211E-01	3.380225E-03
2.980741E+03	1.086370E-01	3.425208E-03
2.990677E+03	1.090307E-01	3.428017E-03
3.000613E+03	1.093368E-01	3.428014E-03
3.010549E+03	1.095649E-01	3.425528E-03
3.020485E+03	1.097314E-01	3.421077E-03
3.030420E+03	1.098480E-01	3.415044E-03
3.040356E+03	1.099291E-01	3.407888E-03
3.050292E+03	1.099858E-01	3.399953E-03
3.060228E+03	1.100243E-01	3.391434E-03
3.070164E+03	1.100531E-01	3.382602E-03
3.080099E+03	1.100858E-01	3.373861E-03
3.090035E+03	1.101265E-01	3.365334E-03
3.099971E+03	1.101863E-01	3.357345E-03
3.109907E+03	1.102719E-01	3.350081E-03
3.119843E+03	1.103986E-01	3.343994E-03
3.129779E+03	1.105688E-01	3.339134E-03
3.139714E+03	1.107938E-01	3.335816E-03
3.149650E+03	1.110846E-01	3.334352E-03
3.159586E+03	1.114505E-01	3.334989E-03
3.169522E+03	1.118966E-01	3.337854E-03
3.179458E+03	1.124389E-01	3.343384E-03
3.189393E+03	1.130830E-01	3.351714E-03
3.199329E+03	1.138416E-01	3.363172E-03
3.209265E+03	1.147240E-01	3.377998E-03
3.219201E+03	1.157447E-01	3.396564E-03
3.229137E+03	1.169164E-01	3.419191E-03
3.239072E+03	1.182525E-01	3.446211E-03
3.249008E+03	1.197649E-01	3.477903E-03
3.258944E+03	1.214692E-01	3.514656E-03
3.268880E+03	1.233789E-01	3.556780E-03
3.278816E+03	1.255049E-01	3.604508E-03
3.288751E+03	1.278617E-01	3.658168E-03
3.298687E+03	1.304583E-01	3.717916E-03
3.308623E+03	1.333066E-01	3.783995E-03
3.318559E+03	1.364137E-01	3.856498E-03
3.328495E+03	1.397891E-01	3.935574E-03
3.338430E+03	1.434407E-01	4.021332E-03
3.348366E+03	1.473761E-01	4.113850E-03
3.358302E+03	1.516020E-01	4.213187E-03
3.368238E+03	1.561213E-01	4.319280E-03
3.378174E+03	1.609378E-01	4.432092E-03
3.388109E+03	1.660450E-01	4.551291E-03
3.398045E+03	1.714392E-01	4.676627E-03
3.407981E+03	1.770980E-01	4.807337E-03
3.417917E+03	1.829920E-01	4.942476E-03
3.427853E+03	1.890765E-01	5.080699E-03
3.437788E+03	1.952848E-01	5.220101E-03
3.447724E+03	2.015327E-01	5.358337E-03
3.457660E+03	2.077039E-01	5.492266E-03
3.467596E+03	2.136526E-01	5.618037E-03
3.477532E+03	2.192086E-01	5.731252E-03
3.487467E+03	2.241772E-01	5.826979E-03
3.497403E+03	2.283570E-01	5.900235E-03
3.507339E+03	2.315344E-01	5.945863E-03
3.517275E+03	2.335204E-01	5.959473E-03
3.527211E+03	2.341500E-01	5.937437E-03
3.537146E+03	2.333110E-01	5.877568E-03
3.547082E+03	2.309443E-01	5.779120E-03
3.557018E+03	2.270665E-01	5.643281E-03
3.566954E+03	2.217841E-01	5.473485E-03
3.576890E+03	2.152625E-01	5.274547E-03
3.586826E+03	2.077361E-01	5.052880E-03
3.596761E+03	1.994871E-01	4.815888E-03
3.606697E+03	1.908151E-01	4.571214E-03
3.616633E+03	1.820214E-01	4.326326E-03
3.626569E+03	1.733994E-01	4.088278E-03
3.636505E+03	1.652053E-01	3.863043E-03
3.646440E+03	1.576565E-01	3.655476E-03
3.656376E+03	1.509175E-01	3.469046E-03
3.666312E+03	1.451169E-01	3.306253E-03
3.676248E+03	1.403430E-01	3.168572E-03
3.686184E+03	1.366492E-01	3.056607E-03
3.696119E+03	1.340669E-01	2.970404E-03
3.706055E+03	1.326178E-01	2.909759E-03
3.715991E+03	1.323087E-01	2.874097E-03
3.725927E+03	1.331456E-01	2.862808E-03
3.735863E+03	1.351366E-01	2.875292E-03
3.745798E+03	1.382891E-01	2.910914E-03
3.755734E+03	1.426119E-01	2.969033E-03
3.765670E+03	1.481164E-01	3.049039E-03
3.775606E+03	1.548181E-01	3.150372E-03
3.785542E+03	1.627201E-01	3.272185E-03
3.795477E+03	1.718206E-01	3.413512E-03
3.805413E+03	1.820997E-01	3.573013E-03
3.815349E+03	1.935055E-01	3.748732E-03
3.825285E+03	2.059517E-01	3.938084E-03
3.835221E+03	2.193030E-01	4.137630E-03
3.845156E+03	2.333696E-01	4.343046E-03
3.855092E+03	2.479130E-01	4.549293E-03
3.865028E+03	2.626518E-01	4.750807E-03
3.874964E+03	2.772771E-01	4.941821E-03
3.884900E+03	2.914650E-01	5.116643E-03
3.894835E+03	3.049119E-01	5.270287E-03
3.904771E+03	3.173443E-01	5.398623E-03
3.914707E+03	3.285369E-01	5.498647E-03
3.924643E+03	3.383426E-01	5.568913E-03
3.934579E+03	3.466861E-01	5.609325E-03
3.944514E+03	3.535628E-01	5.621020E-03
3.954450E+03	3.590559E-01	5.606536E-03
3.964386E+03	3.632998E-01	5.569127E-03
3.974322E+03	3.664786E-01	5.512658E-03
3.984258E+03	3.688009E-01	5.441165E-03
3.994194E+03	3.704787E-01	5.358507E-03
4.004129E+03	3.717105E-01	5.268120E-03
4.014065E+03	3.726294E-01	5.172311E-03
4.024001E+03	3.733273E-01	5.072679E-03
4.033937E+03	3.738379E-01	4.969955E-03
4.043873E+03	3.741199E-01	4.863861E-03
4.053808E+03	3.740820E-01	4.753544E-03
4.063744E+03	3.736038E-01	4.637907E-03
4.073680E+03	3.725310E-01	4.515592E-03
4.083616E+03	3.707064E-01	4.385397E-03
4.093552E+03	3.680004E-01	4.246627E-03
4.103487E+03	3.643160E-01	4.099109E-03
4.113423E+03	3.596051E-01	3.943314E-03
4.123359E+03	3.538529E-01	3.780122E-03
4.133295E+03	3.470862E-01	3.610849E-03
4.143231E+03	3.393660E-01	3.437109E-03
4.153166E+03	3.307829E-01	3.260722E-03
4.163102E+03	3.214554E-01	3.083647E-03
4.173038E+03	3.115238E-01	2.907889E-03
4.182974E+03	3.011532E-01	2.735503E-03
4.192910E+03	2.905419E-01	2.568629E-03
4.202845E+03	2.798951E-01	2.409244E-03
4.212781E+03	2.694260E-01	2.259168E-03
4.222717E+03	2.593651E-01	2.120152E-03
4.232653E+03	2.499250E-01	1.993600E-03
4.242589E+03	2.412937E-01	1.880562E-03
4.252524E+03	2.336575E-01	1.781962E-03
4.262460E+03	2.271664E-01	1.698375E-03
4.272396E+03	2.219132E-01	1.629936E-03
4.282332E+03	2.179241E-01	1.576336E-03
4.292268E+03	2.151783E-01	1.537025E-03
4.302203E+03	2.136239E-01	1.511348E-03
4.312139E+03	2.131585E-01	1.498423E-03
4.322075E+03	2.136595E-01	1.497318E-03
4.332011E+03	2.149756E-01	1.506829E-03
4.341947E+03	2.169285E-01	1.525556E-03
4.351882E+03	2.193296E-01	1.552054E-03
4.361818E+03	2.219661E-01	1.584687E-03
4.371754E+03	2.245633E-01	1.621316E-03
4.381690E+03	2.268611E-01	1.659797E-03
4.391626E+03	2.287020E-01	1.698603E-03
4.401562E+03	2.301286E-01	1.737608E-03
4.411497E+03	2.313310E-01	1.777804E-03
4.421433E+03	2.325309E-01	1.820521E-03
4.431369E+03	2.339112E-01	1.866911E-03
4.441305E+03	2.356217E-01	1.917990E-03
4.451241E+03	2.377496E-01	1.974372E-03
4.461176E+03	2.402801E-01	2.035892E-03
4.471112E+03	2.431269E-01	2.101778E-03
4.481048E+03	2.461584E-01	2.170817E-03
4.490984E+03	2.492038E-01	2.241366E-03
4.500920E+03	2.520666E-01	2.311436E-03
4.510855E+03	2.545559E-01	2.378963E-03
4.520791E+03	2.565265E-01	2.442193E-03
4.530727E+03	2.578598E-01	2.499542E-03
4.540663E+03	2.584640E-01	2.549625E-03
4.550599E+03	2.582984E-01	2.591525E-03
4.560534E+03	2.573418E-01	2.624523E-03
4.570470E+03	2.555960E-01	2.648149E-03
4.580406E+03	2.530905E-01	2.662251E-03
4.590342E+03	2.498687E-01	2.666879E-03
4.600278E+03	2.459843E-01	2.662247E-03
4.610213E+03	2.415289E-01	2.649047E-03
4.620149E+03	2.365895E-01	2.628001E-03
4.630085E+03	2.312761E-01	2.600164E-03
4.640021E+03	2.257041E-01	2.566733E-03
4.649957E+03	2.199872E-01	2.528965E-03
4.659892E+03	2.142269E-01	2.488043E-03
4.669828E+03	2.085061E-01	2.444995E-03
4.679764E+03	2.028957E-01	2.400745E-03
4.689700E+03	1.974438E-01	2.355980E-03
4.699636E+03	1.921826E-01	2.311212E-03
4.709571E+03	1.871329E-01	2.266832E-03
4.719507E+03	1.823006E-01	2.223044E-03
4.729443E+03	1.776935E-01	2.180079E-03
4.739379E+03	1.733035E-01	2.137966E-03
4.749315E+03	1.691284E-01	2.096796E-03
4.759250E+03	1.651608E-01	2.056596E-03
4.769186E+03	1.613909E-01	2.017346E-03
4.779122E+03	1.578164E-01	1.979121E-03
4.789058E+03	1.544404E-01	1.942050E-03
4.798994E+03	1.512661E-01	1.906260E-03
4.808930E+03	1.483096E-01	1.872034E-03
4.818865E+03	1.456009E-01	1.839824E-03
4.828801E+03	1.431725E-01	1.810108E-03
4.838737E+03	1.410575E-01	1.783361E-03
4.848673E+03	1.392894E-01	1.760051E-03
4.858609E+03	1.378909E-01	1.740495E-03
4.868544E+03	1.368708E-01	1.724823E-03
4.878480E+03	1.362106E-01	1.712804E-03
4.888416E+03	1.358807E-01	1.704056E-03
4.898352E+03	1.358406E-01	1.698050E-03
4.908288E+03	1.360419E-01	1.694158E-03
4.918223E+03	1.364388E-01	1.691781E-03
4.928159E+03	1.369918E-01	1.690402E-03
4.938095E+03	1.376851E-01	1.689798E-03
4.948031E+03	1.385149E-01	1.689891E-03
4.957967E+03	1.394932E-01	1.690792E-03
4.967902E+03	1.406512E-01	1.692839E-03
4.977838E+03	1.420333E-01	1.696507E-03
4.987774E+03	1.436778E-01	1.702181E-03
4.997710E+03	1.456214E-01	1.710201E-03
5.007646E+03	1.478921E-01	1.720786E-03
5.017581E+03	1.504991E-01	1.733918E-03
5.027517E+03	1.534302E-01	1.749319E-03
5.037453E+03	1.566501E-01	1.766456E-03
5.047389E+03	1.600999E-01	1.784538E-03
5.057325E+03	1.636927E-01	1.802498E-03
5.067260E+03	1.673197E-01	1.819072E-03
5.077196E+03	1.708572E-01	1.832907E-03
5.087132E+03	1.741717E-01	1.842621E-03
5.097068E+03	1.771326E-01	1.846952E-03
5.107004E+03	1.796047E-01	1.844687E-03
5.116939E+03	1.814832E-01	1.835017E-03
5.126875E+03	1.826765E-01	1.817353E-03
5.136811E+03	1.831150E-01	1.791401E-03
5.146747E+03	1.827580E-01	1.757203E-03
5.156683E+03	1.815886E-01	1.715077E-03
5.166618E+03	1.796174E-01	1.665617E-03
5.176554E+03	1.768789E-01	1.609642E-03
5.186490E+03	1.734395E-01	1.548238E-03
5.196426E+03	1.693863E-01	1.482631E-03
5.206362E+03	1.648473E-01	1.414337E-03
5.216298E+03	1.599709E-01	1.344950E-03
5.226233E+03	1.549274E-01	1.276138E-03
5.236169E+03	1.499135E-01	1.209657E-03
5.246105E+03	1.451290E-01	1.147149E-03
5.256041E+03	1.407497E-01	1.089934E-03
5.265977E+03	1.369274E-01	1.039039E-03
5.275912E+03	1.337821E-01	9.951684E-04
5.285848E+03	1.314000E-01	9.587253E-04
5.295784E+03	1.298193E-01	9.297460E-04
5.305720E+03	1.290461E-01	9.080555E-04
5.315656E+03	1.290438E-01	8.932242E-04
5.325591E+03	1.297188E-01	8.844973E-04
5.335527E+03	1.309292E-01	8.808854E-04
5.345463E+03	1.325007E-01	8.812789E-04
5.355399E+03	1.342123E-01	8.843466E-04
5.365335E+03	1.358166E-01	8.886538E-04
5.375270E+03	1.370655E-01	8.927950E-04
5.385206E+03	1.377499E-01	8.955917E-04
5.395142E+03	1.377107E-01	8.960131E-04
5.405078E+03	1.368518E-01	8.932967E-04
5.415014E+03	1.352001E-01	8.873871E-04
5.424949E+03	1.330022E-01	8.796044E-04
5.434885E+03	1.306467E-01	8.722130E-04
5.444821E+03	1.284872E-01	8.673211E-04
5.454757E+03	1.268149E-01	8.667301E-04
5.464693E+03	1.258517E-01	8.718927E-04
5.474628E+03	1.257045E-01	8.835795E-04
5.484564E+03	1.264131E-01	9.021706E-04
5.494500E+03	1.279521E-01	9.276276E-04
5.504436E+03	1.302196E-01	9.593680E-04
5.514372E+03	1.330569E-01	9.963576E-04
5.524307E+03	1.362852E-01	1.037343E-03
5.534243E+03	1.397221E-01	1.080960E-03
5.544179E+03	1.431852E-01	1.125754E-03
5.554115E+03	1.465019E-01	1.170257E-03
5.564051E+03	1.495469E-01	1.213294E-03
5.573986E+03	1.522219E-01	1.253853E-03
5.583922E+03	1.544575E-01	1.291118E-03
5.593858E+03	1.562159E-01	1.324513E-03
5.603794E+03	1.574808E-01	1.353641E-03
5.613730E+03	1.582543E-01	1.378264E-03
5.623665E+03	1.585484E-01	1.398253E-03
5.633601E+03	1.583873E-01	1.413603E-03
5.643537E+03	1.577996E-01	1.424380E-03
5.653473E+03	1.568147E-01	1.430682E-03
5.663409E+03	1.554645E-01	1.432657E-03
5.673345E+03	1.537865E-01	1.430540E-03
5.683280E+03	1.518320E-01	1.424716E-03
5.693216E+03	1.496527E-01	1.415610E-03
5.703152E+03	1.473142E-01	1.403807E-03
5.713088E+03	1.448922E-01	1.390015E-03
5.723024E+03	1.424641E-01	1.374991E-03
5.732959E+03	1.401103E-01	1.359540E-03
5.742895E+03	1.379103E-01	1.344478E-03
5.752831E+03	1.359333E-01	1.330534E-03
5.762767E+03	1.342363E-01	1.318321E-03
5.772703E+03	1.328611E-01	1.308303E-03
5.782638E+03	1.318275E-01	1.300723E-03
5.792574E+03	1.311444E-01	1.295706E-03
5.802510E+03	1.308006E-01	1.293165E-03
5.812446E+03	1.307726E-01	1.292883E-03
5.822382E+03	1.310301E-01	1.294563E-03
5.832317E+03	1.315346E-01	1.297819E-03
5.842253E+03	1.322488E-01	1.302270E-03
5.852189E+03	1.331285E-01	1.307463E-03
5.862125E+03	1.341301E-01	1.312954E-03
5.872061E+03	1.352085E-01	1.318283E-03
5.881996E+03	1.363154E-01	1.322970E-03
5.891932E+03	1.374013E-01	1.326531E-03
5.901868E+03	1.384086E-01	1.328415E-03
5.911804E+03	1.392759E-01	1.328061E-03
5.921740E+03	1.399333E-01	1.324843E-03
5.931675E+03	1.403029E-01	1.318094E-03
5.941611E+03	1.402966E-01	1.307085E-03
5.951547E+03	1.398219E-01	1.291091E-03
5.961483E+03	1.387791E-01	1.269362E-03
5.971419E+03	1.370818E-01	1.241329E-03
5.981354E+03	1.346351E-01	1.206390E-03
5.991290E+03	1.313744E-01	1.164268E-03
6.001226E+03	1.272762E-01	1.115089E-03
6.011162E+03	1.223549E-01	1.059329E-03
6.021098E+03	1.166843E-01	9.979708E-04
6.031033E+03	1.103971E-01	9.324696E-04
6.040969E+03	1.036845E-01	8.647079E-04
6.050905E+03	9.676539E-02	7.967016E-04
6.060841E+03	8.988212E-02	7.305537E-04
6.070777E+03	8.327616E-02	6.682393E-04
6.080713E+03	7.715972E-02	6.113873E-04
6.090648E+03	7.170141E-02	5.611886E-04
6.100584E+03	6.702642E-02	5.184284E-04
6.110520E+03	6.321733E-02	4.835246E-04
6.120456E+03	6.032027E-02	4.566056E-04
6.130392E+03	5.834962E-02	4.375725E-04
6.140327E+03	5.730722E-02	4.262660E-04
6.150263E+03	5.719124E-02	4.225465E-04
6.160199E+03	5.798115E-02	4.261954E-04
6.170135E+03	5.965454E-02	4.370511E-04
6.180071E+03	6.218218E-02	4.549799E-04
6.190006E+03	6.550527E-02	4.797149E-04
6.199942E+03	6.953761E-02	5.108710E-04
6.209878E+03	7.416453E-02	5.479263E-04
6.219814E+03	7.924454E-02	5.902009E-04
6.229750E+03	8.460260E-02	6.367175E-04
6.239685E+03	9.003807E-02	6.862457E-04
6.249621E+03	9.533990E-02	7.373876E-04
6.259557E+03	1.002977E-01	7.886231E-04
6.269493E+03	1.047183E-01	8.384104E-04
6.279429E+03	1.084473E-01	8.853495E-04
6.289364E+03	1.113723E-01	9.282214E-04
6.299300E+03	1.134301E-01	9.660730E-04
6.309236E+03	1.146024E-01	9.982316E-04
6.319172E+03	1.149121E-01	1.024312E-03
6.329108E+03	1.144251E-01	1.044293E-03
6.339043E+03	1.132329E-01	1.058404E-03
6.348979E+03	1.114510E-01	1.067160E-03
6.358915E+03	1.092149E-01	1.071361E-03
6.368851E+03	1.066771E-01	1.072094E-03
6.378787E+03	1.039896E-01	1.070591E-03
6.388722E+03	1.013087E-01	1.068281E-03
6.398658E+03	9.878690E-02	1.066720E-03
6.408594E+03	9.655481E-02	1.067389E-03
6.418530E+03	9.470615E-02	1.071499E-03
6.428466E+03	9.327302E-02	1.079660E-03
6.438401E+03	9.221156E-02	1.091626E-03
6.448337E+03	9.143943E-02	1.106649E-03
6.458273E+03	9.088118E-02	1.123986E-03
6.468209E+03	9.046270E-02	1.142836E-03
6.478145E+03	9.011524E-02	1.162393E-03
6.488081E+03	8.978667E-02	1.181997E-03
6.498016E+03	8.943427E-02	1.201063E-03
6.507952E+03	8.902583E-02	1.219106E-03
6.517888E+03	8.854112E-02	1.235778E-03
6.527824E+03	8.797007E-02	1.250855E-03
6.537760E+03	8.730672E-02	1.264165E-03
6.547695E+03	8.655341E-02	1.275654E-03
6.557631E+03	8.571804E-02	1.285358E-03
6.567567E+03	8.480939E-02	1.293336E-03
6.577503E+03	8.383738E-02	1.299676E-03
6.587439E+03	8.281504E-02	1.304528E-03
6.597374E+03	8.175187E-02	1.308001E-03
6.607310E+03	8.066108E-02	1.310275E-03
6.617246E+03	7.954868E-02	1.311426E-03
6.627182E+03	7.842165E-02	1.311556E-03
6.637118E+03	7.728710E-02	1.310773E-03
6.647053E+03	7.614916E-02	1.309145E-03
6.656989E+03	7.500924E-02	1.306697E-03
6.666925E+03	7.387009E-02	1.303479E-03
6.676861E+03	7.273498E-02	1.299555E-03
6.686797E+03	7.160459E-02	1.294944E-03
6.696732E+03	7.048300E-02	1.289731E-03
6.706668E+03	6.937100E-02	1.283941E-03
6.716604E+03	6.827479E-02	1.277705E-03
6.726540E+03	6.719666E-02	1.271082E-03
6.736476E+03	6.614427E-02	1.264237E-03
6.746411E+03	6.512030E-02	1.257247E-03
6.756347E+03	6.413123E-02	1.250261E-03
6.766283E+03	6.318192E-02	1.243404E-03
6.776219E+03	6.227546E-02	1.236768E-03
6.786155E+03	6.141715E-02	1.230488E-03
6.796090E+03	6.060921E-02	1.224645E-03
6.806026E+03	5.985502E-02	1.219339E-03
6.815962E+03	5.915363E-02	1.214585E-03
6.825898E+03	5.850767E-02	1.210470E-03
6.835834E+03	5.791565E-02	1.206994E-03
6.845769E+03	5.737641E-02	1.204163E-03
6.855705E+03	5.688718E-02	1.201947E-03
6.865641E+03	5.644785E-02	1.200370E-03
6.875577E+03	5.605202E-02	1.199318E-03
6.885513E+03	5.569924E-02	1.198803E-03
6.895449E+03	5.538340E-02	1.198711E-03
6.905384E+03	5.510050E-02	1.198971E-03
6.915320E+03	5.484726E-02	1.199525E-03
6.925256E+03	5.461820E-02	1.200265E-03
6.935192E+03	5.440943E-02	1.201113E-03
6.945128E+03	5.421692E-02	1.201988E-03
6.955063E+03	5.403657E-02	1.202803E-03
6.964999E+03	5.386502E-02	1.203489E-03
6.974935E+03	5.369785E-02	1.203948E-03
6.984871E+03	5.353393E-02	1.204158E-03
6.994807E+03	5.336786E-02	1.203999E-03
7.004742E+03	5.320074E-02	1.203496E-03
7.014678E+03	5.302750E-02	1.202535E-03
7.024614E+03	5.284926E-02	1.201142E-03
7.034550E+03	5.266401E-02	1.199272E-03
7.044486E+03	5.247084E-02	1.196905E-03
7.054421E+03	5.227053E-02	1.194060E-03
7.064357E+03	5.206069E-02	1.190683E-03
7.074293E+03	5.184204E-02	1.186794E-03
7.084229E+03	5.161400E-02	1.182379E-03
7.094165E+03	5.137807E-02	1.177478E-03
7.104100E+03	5.113458E-02	1.172098E-03
7.114036E+03	5.088322E-02	1.166238E-03
7.123972E+03	5.062557E-02	1.159936E-03
7.133908E+03	5.035977E-02	1.153154E-03
7.143844E+03	5.008786E-02	1.145942E-03
7.153779E+03	4.980842E-02	1.138273E-03
7.163715E+03	4.951955E-02	1.130107E-03
7.173651E+03	4.922091E-02	1.121444E-03
7.183587E+03	4.891077E-02	1.112248E-03
7.193523E+03	4.858606E-02	1.102456E-03
7.203458E+03	4.824448E-02	1.092026E-03
7.213394E+03	4.788367E-02	1.080910E-03
7.223330E+03	4.750126E-02	1.069066E-03
7.233266E+03	4.709516E-02	1.056458E-03
7.243202E+03	4.666161E-02	1.043013E-03
7.253137E+03	4.620115E-02	1.028759E-03
7.263073E+03	4.571205E-02	1.013671E-03
7.273009E+03	4.519318E-02	9.977421E-04
7.282945E+03	4.464610E-02	9.810232E-04
7.292881E+03	4.407066E-02	9.635305E-04
7.302817E+03	4.346931E-02	9.453368E-04
7.312752E+03	4.284510E-02	9.265279E-04
7.322688E+03	4.220106E-02	9.071892E-04
7.332624E+03	4.154227E-02	8.874481E-04
7.342560E+03	4.087030E-02	8.673565E-04
7.352496E+03	4.019140E-02	8.470639E-04
7.362431E+03	3.950806E-02	8.266379E-04
7.372367E+03	3.882503E-02	8.061922E-04
7.382303E+03	3.814544E-02	7.858036E-04
7.392239E+03	3.747300E-02	7.655593E-04
7.402175E+03	3.681229E-02	7.455606E-04
7.412110E+03	3.616698E-02	7.258874E-04
7.422046E+03	3.554395E-02	7.066807E-04
7.431982E+03	3.494647E-02	6.880037E-04
7.441918E+03	3.438164E-02	6.699914E-04
7.451854E+03	3.385422E-02	6.527268E-04
7.461789E+03	3.337148E-02	6.363358E-04
7.471725E+03	3.293734E-02	6.208729E-04
7.481661E+03	3.255572E-02	6.063883E-04
7.491597E+03	3.223042E-02	5.929242E-04
7.501533E+03	3.196391E-02	5.804936E-04
7.511468E+03	3.175929E-02	5.691165E-04
7.521404E+03	3.161590E-02	5.587416E-04
7.531340E+03	3.153445E-02	5.493397E-04
7.541276E+03	3.151505E-02	5.408692E-04
7.551212E+03	3.155599E-02	5.332551E-04
7.561147E+03	3.165660E-02	5.264402E-04
7.571083E+03	3.181464E-02	5.203404E-04
7.581019E+03	3.202980E-02	5.149037E-04
7.590955E+03	3.229865E-02	5.100275E-04
7.600891E+03	3.262034E-02	5.056516E-04
7.610826E+03	3.299017E-02	5.016578E-04
7.620762E+03	3.340434E-02	4.979452E-04
7.630698E+03	3.385498E-02	4.943574E-04
7.640634E+03	3.433685E-02	4.907854E-04
7.650570E+03	3.484226E-02	4.870920E-04
7.660505E+03	3.536403E-02	4.831569E-04
7.670441E+03	3.589501E-02	4.788700E-04
7.680377E+03	3.642854E-02	4.741384E-04
7.690313E+03	3.695779E-02	4.688763E-04
7.700249E+03	3.747427E-02	4.629894E-04
7.710184E+03	3.797137E-02	4.564184E-04
