#wls	flux	fluxerr
1.589729E+03	3.208024E-02	1.854058E-03
1.629472E+03	2.725002E-02	1.540122E-03
1.669215E+03	2.280581E-02	1.259637E-03
1.708958E+03	1.879024E-02	1.013560E-03
1.748702E+03	1.522873E-02	8.016792E-04
1.788445E+03	1.212606E-02	6.225551E-04
1.828188E+03	9.469733E-03	4.738256E-04
1.867931E+03	7.242032E-03	3.529130E-04
1.907675E+03	5.413787E-03	2.567696E-04
1.947418E+03	3.950266E-03	1.822304E-04
1.987161E+03	2.812574E-03	1.261185E-04
2.026904E+03	1.960622E-03	8.540703E-05
2.066647E+03	1.351765E-03	5.717303E-05
2.106391E+03	9.417357E-04	3.865474E-05
2.146134E+03	6.889161E-04	2.743157E-05
2.185877E+03	5.509779E-04	2.127643E-05
2.225620E+03	4.979501E-04	1.864451E-05
2.265363E+03	5.197824E-04	1.886987E-05
2.305107E+03	6.255569E-04	2.202161E-05
2.344850E+03	8.493450E-04	2.900257E-05
2.384593E+03	1.267463E-03	4.200351E-05
2.424336E+03	2.024030E-03	6.514730E-05
2.464080E+03	3.368490E-03	1.054111E-04
2.503823E+03	5.692617E-03	1.734084E-04
2.543566E+03	9.530876E-03	2.829723E-04
2.583309E+03	1.545720E-02	4.478401E-04
2.623052E+03	2.385730E-02	6.753007E-04
2.662796E+03	3.473094E-02	9.614927E-04
2.702539E+03	4.763721E-02	1.291106E-03
2.742282E+03	6.173041E-02	1.639435E-03
2.782025E+03	7.592312E-02	1.977436E-03
2.821769E+03	8.912930E-02	2.278237E-03
2.861512E+03	1.004988E-01	2.522739E-03
2.901255E+03	1.095738E-01	2.702752E-03
2.940998E+03	1.163331E-01	2.821144E-03
2.980741E+03	1.210847E-01	2.888378E-03
2.990677E+03	1.220221E-01	2.898995E-03
3.000613E+03	1.228752E-01	2.907576E-03
3.010549E+03	1.236541E-01	2.914382E-03
3.020485E+03	1.243758E-01	2.919837E-03
3.030420E+03	1.250529E-01	2.924252E-03
3.040356E+03	1.257011E-01	2.928006E-03
3.050292E+03	1.263321E-01	2.931383E-03
3.060228E+03	1.269525E-01	2.934539E-03
3.070164E+03	1.275716E-01	2.937695E-03
3.080099E+03	1.282043E-01	2.941194E-03
3.090035E+03	1.288548E-01	2.945128E-03
3.099971E+03	1.295358E-01	2.949772E-03
3.109907E+03	1.302543E-01	2.955270E-03
3.119843E+03	1.310283E-01	2.962005E-03
3.129779E+03	1.318599E-01	2.970004E-03
3.139714E+03	1.327617E-01	2.979527E-03
3.149650E+03	1.337464E-01	2.990832E-03
3.159586E+03	1.348241E-01	3.004117E-03
3.169522E+03	1.360003E-01	3.019468E-03
3.179458E+03	1.372929E-01	3.037254E-03
3.189393E+03	1.387079E-01	3.057566E-03
3.199329E+03	1.402586E-01	3.080664E-03
3.209265E+03	1.419541E-01	3.106700E-03
3.219201E+03	1.438082E-01	3.135936E-03
3.229137E+03	1.458328E-01	3.168583E-03
3.239072E+03	1.480395E-01	3.204842E-03
3.249008E+03	1.504372E-01	3.244854E-03
3.258944E+03	1.530394E-01	3.288853E-03
3.268880E+03	1.558564E-01	3.337002E-03
3.278816E+03	1.588949E-01	3.389384E-03
3.288751E+03	1.621656E-01	3.446158E-03
3.298687E+03	1.656726E-01	3.507349E-03
3.308623E+03	1.694238E-01	3.573052E-03
3.318559E+03	1.734201E-01	3.643216E-03
3.328495E+03	1.776634E-01	3.717806E-03
3.338430E+03	1.821536E-01	3.796747E-03
3.348366E+03	1.868895E-01	3.879940E-03
3.358302E+03	1.918699E-01	3.967284E-03
3.368238E+03	1.970888E-01	4.058578E-03
3.378174E+03	2.025438E-01	4.153694E-03
3.388109E+03	2.082208E-01	4.252271E-03
3.398045E+03	2.141132E-01	4.354100E-03
3.407981E+03	2.201960E-01	4.458599E-03
3.417917E+03	2.264417E-01	4.565146E-03
3.427853E+03	2.328109E-01	4.672888E-03
3.437788E+03	2.392443E-01	4.780589E-03
3.447724E+03	2.456651E-01	4.886680E-03
3.457660E+03	2.519490E-01	4.988691E-03
3.467596E+03	2.579110E-01	5.082988E-03
3.477532E+03	2.633240E-01	5.165191E-03
3.487467E+03	2.679338E-01	5.230456E-03
3.497403E+03	2.714866E-01	5.274048E-03
3.507339E+03	2.737302E-01	5.291349E-03
3.517275E+03	2.744572E-01	5.278718E-03
3.527211E+03	2.735061E-01	5.233478E-03
3.537146E+03	2.707937E-01	5.154524E-03
3.547082E+03	2.663104E-01	5.042186E-03
3.557018E+03	2.601404E-01	4.898587E-03
3.566954E+03	2.524740E-01	4.727822E-03
3.576890E+03	2.435625E-01	4.535054E-03
3.586826E+03	2.337224E-01	4.326568E-03
3.596761E+03	2.233058E-01	4.109182E-03
3.606697E+03	2.126683E-01	3.889630E-03
3.616633E+03	2.021507E-01	3.674232E-03
3.626569E+03	1.920719E-01	3.468754E-03
3.636505E+03	1.827005E-01	3.277916E-03
3.646440E+03	1.742529E-01	3.105370E-03
3.656376E+03	1.668790E-01	2.953485E-03
3.666312E+03	1.606895E-01	2.823850E-03
3.676248E+03	1.557540E-01	2.717273E-03
3.686184E+03	1.521088E-01	2.633927E-03
3.696119E+03	1.497698E-01	2.573604E-03
3.706055E+03	1.487475E-01	2.535977E-03
3.715991E+03	1.490421E-01	2.520516E-03
3.725927E+03	1.506558E-01	2.526711E-03
3.735863E+03	1.535923E-01	2.554046E-03
3.745798E+03	1.578516E-01	2.601932E-03
3.755734E+03	1.634317E-01	2.669721E-03
3.765670E+03	1.703314E-01	2.756757E-03
3.775606E+03	1.785508E-01	2.862386E-03
3.785542E+03	1.880721E-01	2.985652E-03
3.795477E+03	1.988680E-01	3.125432E-03
3.805413E+03	2.108872E-01	3.280236E-03
3.815349E+03	2.240389E-01	3.447972E-03
3.825285E+03	2.381898E-01	3.625950E-03
3.835221E+03	2.531514E-01	3.810717E-03
3.845156E+03	2.686730E-01	3.998015E-03
3.855092E+03	2.844538E-01	4.183011E-03
3.865028E+03	3.001575E-01	4.360571E-03
3.874964E+03	3.154273E-01	4.525505E-03
3.884900E+03	3.299021E-01	4.672831E-03
3.894835E+03	3.432593E-01	4.798385E-03
3.904771E+03	3.552222E-01	4.898894E-03
3.914707E+03	3.655767E-01	4.972176E-03
3.924643E+03	3.742052E-01	5.017528E-03
3.934579E+03	3.810721E-01	5.035453E-03
3.944514E+03	3.862199E-01	5.027530E-03
3.954450E+03	3.897884E-01	4.996576E-03
3.964386E+03	3.919682E-01	4.945968E-03
3.974322E+03	3.929963E-01	4.879527E-03
3.984258E+03	3.931317E-01	4.801170E-03
3.994194E+03	3.926285E-01	4.714560E-03
4.004129E+03	3.917139E-01	4.622847E-03
4.014065E+03	3.905385E-01	4.528115E-03
4.024001E+03	3.891998E-01	4.431728E-03
4.033937E+03	3.877249E-01	4.334190E-03
4.043873E+03	3.860584E-01	4.235084E-03
4.053808E+03	3.840884E-01	4.133439E-03
4.063744E+03	3.816733E-01	4.028076E-03
4.073680E+03	3.786433E-01	3.917642E-03
4.083616E+03	3.748290E-01	3.800941E-03
4.093552E+03	3.700977E-01	3.677279E-03
4.103487E+03	3.643645E-01	3.546535E-03
4.113423E+03	3.576006E-01	3.409183E-03
4.123359E+03	3.498161E-01	3.266071E-03
4.133295E+03	3.410725E-01	3.118491E-03
4.143231E+03	3.314675E-01	2.967983E-03
4.153166E+03	3.211255E-01	2.816220E-03
4.163102E+03	3.101980E-01	2.664977E-03
4.173038E+03	2.988542E-01	2.516038E-03
4.182974E+03	2.872790E-01	2.371157E-03
4.192910E+03	2.756744E-01	2.232069E-03
4.202845E+03	2.642440E-01	2.100362E-03
4.212781E+03	2.531977E-01	1.977522E-03
4.222717E+03	2.427557E-01	1.864986E-03
4.232653E+03	2.331232E-01	1.763958E-03
4.242589E+03	2.244800E-01	1.675372E-03
4.252524E+03	2.169952E-01	1.600040E-03
4.262460E+03	2.108042E-01	1.538518E-03
4.272396E+03	2.059845E-01	1.490971E-03
4.282332E+03	2.025339E-01	1.457055E-03
4.292268E+03	2.004024E-01	1.436184E-03
4.302203E+03	1.995092E-01	1.427648E-03
4.312139E+03	1.997156E-01	1.430316E-03
4.322075E+03	2.008569E-01	1.442887E-03
4.332011E+03	2.027325E-01	1.463854E-03
4.341947E+03	2.051119E-01	1.491513E-03
4.351882E+03	2.077827E-01	1.524275E-03
4.361818E+03	2.105327E-01	1.560505E-03
4.371754E+03	2.131271E-01	1.598332E-03
4.381690E+03	2.153548E-01	1.635963E-03
4.391626E+03	2.170850E-01	1.672118E-03
4.401562E+03	2.183786E-01	1.706933E-03
4.411497E+03	2.194092E-01	1.741446E-03
4.421433E+03	2.203745E-01	1.776965E-03
4.431369E+03	2.214503E-01	1.814719E-03
4.441305E+03	2.227807E-01	1.855777E-03
4.451241E+03	2.244450E-01	1.900747E-03
4.461176E+03	2.264337E-01	1.949530E-03
4.471112E+03	2.286714E-01	2.001458E-03
4.481048E+03	2.310398E-01	2.055447E-03
4.490984E+03	2.333820E-01	2.109998E-03
4.500920E+03	2.355221E-01	2.163359E-03
4.510855E+03	2.372966E-01	2.213794E-03
4.520791E+03	2.385782E-01	2.259822E-03
4.530727E+03	2.392696E-01	2.300188E-03
4.540663E+03	2.393042E-01	2.333893E-03
4.550599E+03	2.386586E-01	2.360343E-03
4.560534E+03	2.373291E-01	2.379144E-03
4.570470E+03	2.353332E-01	2.390136E-03
4.580406E+03	2.327062E-01	2.393368E-03
4.590342E+03	2.294951E-01	2.389051E-03
4.600278E+03	2.257571E-01	2.377546E-03
4.610213E+03	2.215806E-01	2.359598E-03
4.620149E+03	2.170496E-01	2.335957E-03
4.630085E+03	2.122668E-01	2.307640E-03
4.640021E+03	2.073338E-01	2.275704E-03
4.649957E+03	2.023479E-01	2.241212E-03
4.659892E+03	1.973926E-01	2.205126E-03
4.669828E+03	1.925325E-01	2.168227E-03
4.679764E+03	1.878195E-01	2.131177E-03
4.689700E+03	1.832832E-01	2.094405E-03
4.699636E+03	1.789368E-01	2.058158E-03
4.709571E+03	1.747836E-01	2.022568E-03
4.719507E+03	1.708136E-01	1.987615E-03
4.729443E+03	1.670192E-01	1.953295E-03
4.739379E+03	1.633790E-01	1.919441E-03
4.749315E+03	1.598793E-01	1.885966E-03
4.759250E+03	1.565030E-01	1.852742E-03
4.769186E+03	1.532326E-01	1.819625E-03
4.779122E+03	1.500603E-01	1.786586E-03
4.789058E+03	1.469853E-01	1.753673E-03
4.798994E+03	1.440101E-01	1.720974E-03
4.808930E+03	1.411541E-01	1.688778E-03
4.818865E+03	1.384519E-01	1.657550E-03
4.828801E+03	1.359459E-01	1.627847E-03
4.838737E+03	1.336825E-01	1.600273E-03
4.848673E+03	1.317113E-01	1.575456E-03
4.858609E+03	1.300752E-01	1.553937E-03
4.868544E+03	1.288033E-01	1.536080E-03
4.878480E+03	1.278925E-01	1.521850E-03
4.888416E+03	1.273281E-01	1.511064E-03
4.898352E+03	1.270857E-01	1.503415E-03
4.908288E+03	1.271295E-01	1.498453E-03
4.918223E+03	1.274240E-01	1.495731E-03
4.928159E+03	1.279372E-01	1.494841E-03
4.938095E+03	1.286516E-01	1.495545E-03
4.948031E+03	1.295580E-01	1.497696E-03
4.957967E+03	1.306589E-01	1.501283E-03
4.967902E+03	1.319691E-01	1.506427E-03
4.977838E+03	1.335158E-01	1.513382E-03
4.987774E+03	1.353210E-01	1.522327E-03
4.997710E+03	1.374023E-01	1.533382E-03
5.007646E+03	1.397727E-01	1.546600E-03
5.017581E+03	1.424303E-01	1.561864E-03
5.027517E+03	1.453524E-01	1.578825E-03
5.037453E+03	1.484992E-01	1.596954E-03
5.047389E+03	1.518134E-01	1.615550E-03
5.057325E+03	1.552100E-01	1.633647E-03
5.067260E+03	1.585881E-01	1.650155E-03
5.077196E+03	1.618402E-01	1.663966E-03
5.087132E+03	1.648474E-01	1.673919E-03
5.097068E+03	1.674983E-01	1.678996E-03
5.107004E+03	1.696829E-01	1.678263E-03
5.116939E+03	1.713175E-01	1.671115E-03
5.126875E+03	1.723321E-01	1.657137E-03
5.136811E+03	1.726770E-01	1.636159E-03
5.146747E+03	1.723219E-01	1.608233E-03
5.156683E+03	1.712559E-01	1.573618E-03
5.166618E+03	1.694899E-01	1.532787E-03
5.176554E+03	1.670514E-01	1.486360E-03
5.186490E+03	1.639943E-01	1.435178E-03
5.196426E+03	1.603909E-01	1.380210E-03
5.206362E+03	1.563496E-01	1.322686E-03
5.216298E+03	1.519983E-01	1.263932E-03
5.226233E+03	1.474889E-01	1.205390E-03
5.236169E+03	1.429998E-01	1.148623E-03
5.246105E+03	1.387158E-01	1.095137E-03
5.256041E+03	1.347999E-01	1.046165E-03
5.265977E+03	1.313923E-01	1.002680E-03
5.275912E+03	1.286039E-01	9.653663E-04
5.285848E+03	1.265133E-01	9.346292E-04
5.295784E+03	1.251520E-01	9.105129E-04
5.305720E+03	1.245217E-01	8.928594E-04
5.315656E+03	1.245819E-01	8.812422E-04
5.325591E+03	1.252329E-01	8.748719E-04
5.335527E+03	1.263295E-01	8.727125E-04
5.345463E+03	1.277021E-01	8.736370E-04
5.355399E+03	1.291451E-01	8.763401E-04
5.365335E+03	1.304366E-01	8.794594E-04
5.375270E+03	1.313600E-01	8.816937E-04
5.385206E+03	1.317321E-01	8.819598E-04
5.395142E+03	1.314212E-01	8.794109E-04
5.405078E+03	1.303607E-01	8.735133E-04
5.415014E+03	1.285962E-01	8.644173E-04
5.424949E+03	1.264016E-01	8.537634E-04
5.434885E+03	1.241739E-01	8.440282E-04
5.444821E+03	1.222393E-01	8.372653E-04
5.454757E+03	1.208482E-01	8.350844E-04
5.464693E+03	1.201808E-01	8.386991E-04
5.474628E+03	1.203141E-01	8.486749E-04
5.484564E+03	1.212589E-01	8.651658E-04
5.494500E+03	1.229627E-01	8.878990E-04
5.504436E+03	1.253012E-01	9.160851E-04
5.514372E+03	1.280987E-01	9.485209E-04
5.524307E+03	1.311695E-01	9.838726E-04
5.534243E+03	1.343350E-01	1.020791E-03
5.544179E+03	1.374280E-01	1.057942E-03
5.554115E+03	1.403036E-01	1.094101E-03
5.564051E+03	1.428754E-01	1.128440E-03
5.573986E+03	1.450897E-01	1.160363E-03
5.583922E+03	1.469173E-01	1.189448E-03
5.593858E+03	1.483489E-01	1.215432E-03
5.603794E+03	1.493890E-01	1.238167E-03
5.613730E+03	1.500503E-01	1.257583E-03
5.623665E+03	1.503436E-01	1.273607E-03
5.633601E+03	1.502845E-01	1.286222E-03
5.643537E+03	1.498900E-01	1.295436E-03
5.653473E+03	1.491725E-01	1.301235E-03
5.663409E+03	1.481462E-01	1.303638E-03
5.673345E+03	1.468332E-01	1.302747E-03
5.683280E+03	1.452706E-01	1.298818E-03
5.693216E+03	1.434979E-01	1.292148E-03
5.703152E+03	1.415705E-01	1.283196E-03
5.713088E+03	1.395542E-01	1.272544E-03
5.723024E+03	1.375185E-01	1.260823E-03
5.732959E+03	1.355356E-01	1.248710E-03
5.742895E+03	1.336780E-01	1.236900E-03
5.752831E+03	1.320093E-01	1.226013E-03
5.762767E+03	1.305807E-01	1.216565E-03
5.772703E+03	1.294304E-01	1.208948E-03
5.782638E+03	1.285762E-01	1.203362E-03
5.792574E+03	1.280259E-01	1.199907E-03
5.802510E+03	1.277705E-01	1.198518E-03
5.812446E+03	1.277893E-01	1.199011E-03
5.822382E+03	1.280560E-01	1.201145E-03
5.832317E+03	1.285366E-01	1.204597E-03
5.842253E+03	1.291977E-01	1.209048E-03
5.852189E+03	1.299979E-01	1.214100E-03
5.862125E+03	1.308953E-01	1.219354E-03
5.872061E+03	1.318445E-01	1.224378E-03
5.881996E+03	1.327955E-01	1.228706E-03
5.891932E+03	1.336979E-01	1.231875E-03
5.901868E+03	1.344911E-01	1.233342E-03
5.911804E+03	1.351125E-01	1.232561E-03
5.921740E+03	1.354972E-01	1.228983E-03
5.931675E+03	1.355737E-01	1.222024E-03
5.941611E+03	1.352627E-01	1.211058E-03
5.951547E+03	1.344902E-01	1.195533E-03
5.961483E+03	1.331748E-01	1.174864E-03
5.971419E+03	1.312488E-01	1.148626E-03
5.981354E+03	1.286478E-01	1.116446E-03
5.991290E+03	1.253291E-01	1.078174E-03
6.001226E+03	1.212803E-01	1.033941E-03
6.011162E+03	1.165280E-01	9.842138E-04
6.021098E+03	1.111379E-01	9.297845E-04
6.031033E+03	1.052232E-01	8.718154E-04
6.040969E+03	9.896399E-02	8.119747E-04
6.050905E+03	9.255682E-02	7.519988E-04
6.060841E+03	8.621249E-02	6.936623E-04
6.070777E+03	8.014752E-02	6.387067E-04
6.080713E+03	7.455076E-02	5.885779E-04
6.090648E+03	6.957134E-02	5.443473E-04
6.100584E+03	6.532712E-02	5.068002E-04
6.110520E+03	6.189784E-02	4.764022E-04
6.120456E+03	5.932788E-02	4.533427E-04
6.130392E+03	5.763512E-02	4.376215E-04
6.140327E+03	5.682240E-02	4.291509E-04
6.150263E+03	5.688462E-02	4.278202E-04
6.160199E+03	5.779881E-02	4.334306E-04
6.170135E+03	5.953344E-02	4.457722E-04
6.180071E+03	6.204452E-02	4.645997E-04
6.190006E+03	6.526121E-02	4.895260E-04
6.199942E+03	6.908350E-02	5.200011E-04
6.209878E+03	7.338518E-02	5.553226E-04
6.219814E+03	7.802620E-02	5.947070E-04
6.229750E+03	8.284384E-02	6.371573E-04
6.239685E+03	8.765885E-02	6.814849E-04
6.249621E+03	9.229190E-02	7.264290E-04
6.259557E+03	9.656872E-02	7.706730E-04
6.269493E+03	1.003334E-01	8.129340E-04
6.279429E+03	1.034692E-01	8.521284E-04
6.289364E+03	1.058943E-01	8.873486E-04
6.299300E+03	1.075639E-01	9.179046E-04
6.309236E+03	1.084717E-01	9.433624E-04
6.319172E+03	1.086409E-01	9.635000E-04
6.329108E+03	1.081280E-01	9.783748E-04
6.339043E+03	1.070128E-01	9.882700E-04
6.348979E+03	1.053933E-01	9.936780E-04
6.358915E+03	1.033816E-01	9.952877E-04
6.368851E+03	1.011057E-01	9.940274E-04
6.378787E+03	9.869134E-02	9.909040E-04
6.388722E+03	9.626640E-02	9.870564E-04
6.398658E+03	9.395548E-02	9.837041E-04
6.408594E+03	9.186597E-02	9.819996E-04
6.418530E+03	9.008161E-02	9.829419E-04
6.428466E+03	8.863614E-02	9.870584E-04
6.438401E+03	8.749758E-02	9.941686E-04
6.448337E+03	8.660907E-02	1.003783E-03
6.458273E+03	8.591935E-02	1.015433E-03
6.468209E+03	8.537563E-02	1.028587E-03
6.478145E+03	8.492715E-02	1.042696E-03
6.488081E+03	8.453429E-02	1.057303E-03
6.498016E+03	8.416294E-02	1.071991E-03
6.507952E+03	8.378449E-02	1.086380E-03
6.517888E+03	8.337807E-02	1.100171E-03
6.527824E+03	8.293010E-02	1.113145E-03
6.537760E+03	8.242895E-02	1.125098E-03
6.547695E+03	8.186942E-02	1.135905E-03
6.557631E+03	8.125146E-02	1.145515E-03
6.567567E+03	8.057636E-02	1.153895E-03
6.577503E+03	7.984624E-02	1.161026E-03
6.587439E+03	7.906719E-02	1.166954E-03
6.597374E+03	7.824343E-02	1.171703E-03
6.607310E+03	7.738266E-02	1.175354E-03
6.617246E+03	7.648736E-02	1.177918E-03
6.627182E+03	7.556219E-02	1.179443E-03
6.637118E+03	7.461233E-02	1.179988E-03
6.647053E+03	7.364094E-02	1.179589E-03
6.656989E+03	7.265003E-02	1.178265E-03
6.666925E+03	7.164238E-02	1.176052E-03
6.676861E+03	7.062220E-02	1.173010E-03
6.686797E+03	6.959141E-02	1.169167E-03
6.696732E+03	6.855513E-02	1.164609E-03
6.706668E+03	6.751508E-02	1.159366E-03
6.716604E+03	6.647849E-02	1.153567E-03
6.726540E+03	6.544827E-02	1.147269E-03
6.736476E+03	6.443256E-02	1.140626E-03
6.746411E+03	6.343464E-02	1.133712E-03
6.756347E+03	6.246138E-02	1.126665E-03
6.766283E+03	6.151828E-02	1.119604E-03
6.776219E+03	6.060956E-02	1.112630E-03
6.786155E+03	5.974138E-02	1.105878E-03
6.796090E+03	5.891729E-02	1.099441E-03
6.806026E+03	5.814238E-02	1.093441E-03
6.815962E+03	5.741741E-02	1.087921E-03
6.825898E+03	5.674674E-02	1.082990E-03
6.835834E+03	5.613084E-02	1.078686E-03
6.845769E+03	5.557045E-02	1.075049E-03
6.855705E+03	5.506464E-02	1.072088E-03
6.865641E+03	5.461479E-02	1.069855E-03
6.875577E+03	5.421573E-02	1.068270E-03
6.885513E+03	5.386787E-02	1.067362E-03
6.895449E+03	5.356582E-02	1.067044E-03
6.905384E+03	5.330515E-02	1.067244E-03
6.915320E+03	5.308221E-02	1.067901E-03
6.925256E+03	5.289121E-02	1.068912E-03
6.935192E+03	5.272720E-02	1.070184E-03
6.945128E+03	5.258542E-02	1.071629E-03
6.955063E+03	5.246135E-02	1.073160E-03
6.964999E+03	5.235038E-02	1.074687E-03
6.974935E+03	5.224721E-02	1.076102E-03
6.984871E+03	5.215012E-02	1.077373E-03
6.994807E+03	5.205229E-02	1.078358E-03
7.004742E+03	5.195360E-02	1.079056E-03
7.014678E+03	5.184825E-02	1.079345E-03
7.024614E+03	5.173571E-02	1.079213E-03
7.034550E+03	5.161283E-02	1.078595E-03
7.044486E+03	5.147803E-02	1.077456E-03
7.054421E+03	5.133086E-02	1.075787E-03
7.064357E+03	5.116827E-02	1.073525E-03
7.074293E+03	5.099089E-02	1.070682E-03
7.084229E+03	5.079750E-02	1.067234E-03
7.094165E+03	5.058946E-02	1.063211E-03
7.104100E+03	5.036743E-02	1.058630E-03
7.114036E+03	5.013106E-02	1.053484E-03
7.123972E+03	4.988221E-02	1.047817E-03
7.133908E+03	4.961978E-02	1.041609E-03
7.143844E+03	4.934639E-02	1.034918E-03
7.153779E+03	4.906157E-02	1.027740E-03
7.163715E+03	4.876464E-02	1.020065E-03
7.173651E+03	4.845642E-02	1.011914E-03
7.183587E+03	4.813648E-02	1.003286E-03
7.193523E+03	4.780332E-02	9.941545E-04
7.203458E+03	4.745602E-02	9.845074E-04
7.213394E+03	4.709367E-02	9.743331E-04
7.223330E+03	4.671537E-02	9.636215E-04
7.233266E+03	4.632014E-02	9.523610E-04
7.243202E+03	4.590525E-02	9.405053E-04
7.253137E+03	4.547206E-02	9.280930E-04
7.263073E+03	4.501914E-02	9.151061E-04
7.273009E+03	4.454542E-02	9.015353E-04
7.282945E+03	4.405227E-02	8.874213E-04
7.292881E+03	4.353869E-02	8.727575E-04
7.302817E+03	4.300613E-02	8.575872E-04
7.312752E+03	4.245656E-02	8.419645E-04
7.322688E+03	4.189148E-02	8.259334E-04
7.332624E+03	4.131464E-02	8.095819E-04
7.342560E+03	4.072653E-02	7.929339E-04
7.352496E+03	4.013209E-02	7.760985E-04
7.362431E+03	3.953295E-02	7.591198E-04
7.372367E+03	3.893344E-02	7.420920E-04
7.382303E+03	3.833597E-02	7.250715E-04
7.392239E+03	3.774392E-02	7.081303E-04
7.402175E+03	3.716160E-02	6.913567E-04
7.412110E+03	3.659186E-02	6.748081E-04
7.422046E+03	3.604082E-02	6.586004E-04
7.431982E+03	3.551095E-02	6.427784E-04
7.441918E+03	3.500815E-02	6.274459E-04
7.451854E+03	3.453608E-02	6.126623E-04
7.461789E+03	3.410118E-02	5.985323E-04
7.471725E+03	3.370649E-02	5.850957E-04
7.481661E+03	3.335544E-02	5.723952E-04
7.491597E+03	3.305186E-02	5.604768E-04
7.501533E+03	3.279835E-02	5.493611E-04
7.511468E+03	3.259859E-02	5.390836E-04
7.521404E+03	3.245297E-02	5.296213E-04
7.531340E+03	3.236363E-02	5.209772E-04
7.541276E+03	3.233231E-02	5.131455E-04
7.551212E+03	3.235906E-02	5.060904E-04
7.561147E+03	3.244504E-02	4.997921E-04
7.571083E+03	3.258968E-02	4.942022E-04
7.581019E+03	3.279428E-02	4.892991E-04
7.590955E+03	3.305662E-02	4.850081E-04
7.600891E+03	3.337689E-02	4.812896E-04
7.610826E+03	3.375076E-02	4.780398E-04
7.620762E+03	3.417429E-02	4.751635E-04
7.630698E+03	3.463874E-02	4.725040E-04
7.640634E+03	3.513761E-02	4.699439E-04
7.650570E+03	3.566116E-02	4.673306E-04
7.660505E+03	3.619983E-02	4.645249E-04
7.670441E+03	3.674384E-02	4.613964E-04
7.680377E+03	3.728342E-02	4.578274E-04
7.690313E+03	3.780877E-02	4.537119E-04
7.700249E+03	3.830882E-02	4.489428E-04
7.710184E+03	3.877465E-02	4.434524E-04
