#wls	flux	fluxerr
1.589729E+03	1.428430E-02	9.872427E-04
1.629472E+03	1.225593E-02	8.406058E-04
1.669215E+03	1.045815E-02	7.117090E-04
1.708958E+03	8.883341E-03	5.997133E-04
1.748702E+03	7.519464E-03	5.034902E-04
1.788445E+03	6.348412E-03	4.215234E-04
1.828188E+03	5.349689E-03	3.521696E-04
1.867931E+03	4.504173E-03	2.939124E-04
1.907675E+03	3.792273E-03	2.452413E-04
1.947418E+03	3.197761E-03	2.048996E-04
1.987161E+03	2.707593E-03	1.718653E-04
2.026904E+03	2.313089E-03	1.454166E-04
2.066647E+03	2.009734E-03	1.251073E-04
2.106391E+03	1.796358E-03	1.107042E-04
2.146134E+03	1.670349E-03	1.018844E-04
2.185877E+03	1.626834E-03	9.819132E-05
2.225620E+03	1.658473E-03	9.902883E-05
2.265363E+03	1.760836E-03	1.039881E-04
2.305107E+03	1.933405E-03	1.128965E-04
2.344850E+03	2.180762E-03	1.258731E-04
2.384593E+03	2.510595E-03	1.431975E-04
2.424336E+03	2.933098E-03	1.652646E-04
2.464080E+03	3.456876E-03	1.923460E-04
2.503823E+03	4.086054E-03	2.244365E-04
2.543566E+03	4.816492E-03	2.610634E-04
2.583309E+03	5.630454E-03	3.010308E-04
2.623052E+03	6.498342E-03	3.425628E-04
2.662796E+03	7.383421E-03	3.835955E-04
2.702539E+03	8.249597E-03	4.222065E-04
2.742282E+03	9.061479E-03	4.566204E-04
2.782025E+03	9.790274E-03	4.855031E-04
2.821769E+03	1.041544E-02	5.080207E-04
2.861512E+03	1.092618E-02	5.238800E-04
2.901255E+03	1.132311E-02	5.333719E-04
2.940998E+03	1.162014E-02	5.374080E-04
2.980741E+03	1.184065E-02	5.372918E-04
2.990677E+03	1.188717E-02	5.367877E-04
3.000613E+03	1.193151E-02	5.361538E-04
3.010549E+03	1.197405E-02	5.354091E-04
3.020485E+03	1.201533E-02	5.345786E-04
3.030420E+03	1.205624E-02	5.337021E-04
3.040356E+03	1.209813E-02	5.328396E-04
3.050292E+03	1.214126E-02	5.320015E-04
3.060228E+03	1.218636E-02	5.312182E-04
3.070164E+03	1.223325E-02	5.304809E-04
3.080099E+03	1.228268E-02	5.298206E-04
3.090035E+03	1.233540E-02	5.292672E-04
3.099971E+03	1.239128E-02	5.288129E-04
3.109907E+03	1.245108E-02	5.284877E-04
3.119843E+03	1.251555E-02	5.283204E-04
3.129779E+03	1.258460E-02	5.283035E-04
3.139714E+03	1.265940E-02	5.284829E-04
3.149650E+03	1.274030E-02	5.288680E-04
3.159586E+03	1.282721E-02	5.294515E-04
3.169522E+03	1.292131E-02	5.302766E-04
3.179458E+03	1.302292E-02	5.313514E-04
3.189393E+03	1.313240E-02	5.326846E-04
3.199329E+03	1.325009E-02	5.342842E-04
3.209265E+03	1.337711E-02	5.361889E-04
3.219201E+03	1.351382E-02	5.384054E-04
3.229137E+03	1.366014E-02	5.409238E-04
3.239072E+03	1.381719E-02	5.437804E-04
3.249008E+03	1.398529E-02	5.469796E-04
3.258944E+03	1.416475E-02	5.505249E-04
3.268880E+03	1.435589E-02	5.544196E-04
3.278816E+03	1.455975E-02	5.586949E-04
3.288751E+03	1.477624E-02	5.633368E-04
3.298687E+03	1.500600E-02	5.683597E-04
3.308623E+03	1.524925E-02	5.737621E-04
3.318559E+03	1.550661E-02	5.795552E-04
3.328495E+03	1.577788E-02	5.857214E-04
3.338430E+03	1.606360E-02	5.922688E-04
3.348366E+03	1.636353E-02	5.991769E-04
3.358302E+03	1.667851E-02	6.064649E-04
3.368238E+03	1.700821E-02	6.141085E-04
3.378174E+03	1.735264E-02	6.220958E-04
3.388109E+03	1.771136E-02	6.303992E-04
3.398045E+03	1.808460E-02	6.390146E-04
3.407981E+03	1.847173E-02	6.479083E-04
3.417917E+03	1.887203E-02	6.570429E-04
3.427853E+03	1.928504E-02	6.663913E-04
3.437788E+03	1.971021E-02	6.759244E-04
3.447724E+03	2.014588E-02	6.855745E-04
3.457660E+03	2.059153E-02	6.953148E-04
3.467596E+03	2.104629E-02	7.051077E-04
3.477532E+03	2.150898E-02	7.149054E-04
3.487467E+03	2.197874E-02	7.246724E-04
3.497403E+03	2.245390E-02	7.343474E-04
3.507339E+03	2.293384E-02	7.439052E-04
3.517275E+03	2.341675E-02	7.532821E-04
3.527211E+03	2.390153E-02	7.624404E-04
3.537146E+03	2.438676E-02	7.713325E-04
3.547082E+03	2.487076E-02	7.799043E-04
3.557018E+03	2.535283E-02	7.881347E-04
3.566954E+03	2.583221E-02	7.960005E-04
3.576890E+03	2.630806E-02	8.034774E-04
3.586826E+03	2.678070E-02	8.105774E-04
3.596761E+03	2.725041E-02	8.173111E-04
3.606697E+03	2.771823E-02	8.237106E-04
3.616633E+03	2.818593E-02	8.298293E-04
3.626569E+03	2.865519E-02	8.357158E-04
3.636505E+03	2.912807E-02	8.414274E-04
3.646440E+03	2.960782E-02	8.470538E-04
3.656376E+03	3.009776E-02	8.526830E-04
3.666312E+03	3.060138E-02	8.584038E-04
3.676248E+03	3.112322E-02	8.643305E-04
3.686184E+03	3.166858E-02	8.705930E-04
3.696119E+03	3.224393E-02	8.773474E-04
3.706055E+03	3.285572E-02	8.847418E-04
3.715991E+03	3.351156E-02	8.929477E-04
3.725927E+03	3.422015E-02	9.021572E-04
3.735863E+03	3.499034E-02	9.125557E-04
3.745798E+03	3.583089E-02	9.243172E-04
3.755734E+03	3.675160E-02	9.376311E-04
3.765670E+03	3.776164E-02	9.526605E-04
3.775606E+03	3.887007E-02	9.695549E-04
3.785542E+03	4.008346E-02	9.883924E-04
3.795477E+03	4.140851E-02	1.009247E-03
3.805413E+03	4.284850E-02	1.032100E-03
3.815349E+03	4.440275E-02	1.056840E-03
3.825285E+03	4.606775E-02	1.083285E-03
3.835221E+03	4.783321E-02	1.111101E-03
3.845156E+03	4.968306E-02	1.139836E-03
3.855092E+03	5.159773E-02	1.168973E-03
3.865028E+03	5.354917E-02	1.197832E-03
3.874964E+03	5.550689E-02	1.225710E-03
3.884900E+03	5.743456E-02	1.251811E-03
3.894835E+03	5.929613E-02	1.275390E-03
3.904771E+03	6.105338E-02	1.295695E-03
3.914707E+03	6.267139E-02	1.312090E-03
3.924643E+03	6.411576E-02	1.323986E-03
3.934579E+03	6.535874E-02	1.330974E-03
3.944514E+03	6.637912E-02	1.332804E-03
3.954450E+03	6.716252E-02	1.329388E-03
3.964386E+03	6.770229E-02	1.320805E-03
3.974322E+03	6.800230E-02	1.307343E-03
3.984258E+03	6.807513E-02	1.289448E-03
3.994194E+03	6.793954E-02	1.267670E-03
4.004129E+03	6.762124E-02	1.242663E-03
4.014065E+03	6.715081E-02	1.215140E-03
4.024001E+03	6.656043E-02	1.185807E-03
4.033937E+03	6.588302E-02	1.155347E-03
4.043873E+03	6.515057E-02	1.124388E-03
4.053808E+03	6.439391E-02	1.093505E-03
4.063744E+03	6.364014E-02	1.063174E-03
4.073680E+03	6.291421E-02	1.033807E-03
4.083616E+03	6.223855E-02	1.005748E-03
4.093552E+03	6.163122E-02	9.792469E-04
4.103487E+03	6.110807E-02	9.545009E-04
4.113423E+03	6.068061E-02	9.316245E-04
4.123359E+03	6.035781E-02	9.106828E-04
4.133295E+03	6.014426E-02	8.916678E-04
4.143231E+03	6.004187E-02	8.745295E-04
4.153166E+03	6.005005E-02	8.591823E-04
4.163102E+03	6.016581E-02	8.455097E-04
4.173038E+03	6.038451E-02	8.333777E-04
4.182974E+03	6.069864E-02	8.226210E-04
4.192910E+03	6.110136E-02	8.130932E-04
4.202845E+03	6.158266E-02	8.046159E-04
4.212781E+03	6.213270E-02	7.970254E-04
4.222717E+03	6.273933E-02	7.901413E-04
4.232653E+03	6.338910E-02	7.837810E-04
4.242589E+03	6.406441E-02	7.777267E-04
4.252524E+03	6.474589E-02	7.717574E-04
4.262460E+03	6.541153E-02	7.656403E-04
4.272396E+03	6.603735E-02	7.591399E-04
4.282332E+03	6.659648E-02	7.520087E-04
4.292268E+03	6.706427E-02	7.440449E-04
4.302203E+03	6.741562E-02	7.350600E-04
4.312139E+03	6.762911E-02	7.249203E-04
4.322075E+03	6.768584E-02	7.135304E-04
4.332011E+03	6.757272E-02	7.008624E-04
4.341947E+03	6.728298E-02	6.869547E-04
4.351882E+03	6.681718E-02	6.719153E-04
4.361818E+03	6.618159E-02	6.558988E-04
4.371754E+03	6.539466E-02	6.391655E-04
4.381690E+03	6.448725E-02	6.220753E-04
4.391626E+03	6.351486E-02	6.051977E-04
4.401562E+03	6.255926E-02	5.893164E-04
4.411497E+03	6.171671E-02	5.753117E-04
4.421433E+03	6.108060E-02	5.640017E-04
4.431369E+03	6.073586E-02	5.561022E-04
4.441305E+03	6.075288E-02	5.521770E-04
4.451241E+03	6.118832E-02	5.526468E-04
4.461176E+03	6.208857E-02	5.578460E-04
4.471112E+03	6.348737E-02	5.680105E-04
4.481048E+03	6.540486E-02	5.832730E-04
4.490984E+03	6.784725E-02	6.036629E-04
4.500920E+03	7.080266E-02	6.290694E-04
4.510855E+03	7.423861E-02	6.592174E-04
4.520791E+03	7.810010E-02	6.936473E-04
4.530727E+03	8.230566E-02	7.316741E-04
4.540663E+03	8.674745E-02	7.723810E-04
4.550599E+03	9.128932E-02	8.145935E-04
4.560534E+03	9.577540E-02	8.569458E-04
4.570470E+03	1.000326E-01	8.978944E-04
4.580406E+03	1.038907E-01	9.358891E-04
4.590342E+03	1.071878E-01	9.694195E-04
4.600278E+03	1.097972E-01	9.972561E-04
4.610213E+03	1.116294E-01	1.018476E-03
4.620149E+03	1.126478E-01	1.032609E-03
4.630085E+03	1.128594E-01	1.039578E-03
4.640021E+03	1.123188E-01	1.039735E-03
4.649957E+03	1.111126E-01	1.033739E-03
4.659892E+03	1.093502E-01	1.022480E-03
4.669828E+03	1.071552E-01	1.007002E-03
4.679764E+03	1.046525E-01	9.883887E-04
4.689700E+03	1.019605E-01	9.676938E-04
4.699636E+03	9.918756E-02	9.458989E-04
4.709571E+03	9.642394E-02	9.238405E-04
4.719507E+03	9.374737E-02	9.022534E-04
4.729443E+03	9.121578E-02	8.816987E-04
4.739379E+03	8.887591E-02	8.626409E-04
4.749315E+03	8.675998E-02	8.454124E-04
4.759250E+03	8.488791E-02	8.302304E-04
4.769186E+03	8.327029E-02	8.172234E-04
4.779122E+03	8.190732E-02	8.064175E-04
4.789058E+03	8.079139E-02	7.977604E-04
4.798994E+03	7.990635E-02	7.911118E-04
4.808930E+03	7.923232E-02	7.862907E-04
4.818865E+03	7.874427E-02	7.830605E-04
4.828801E+03	7.841545E-02	7.811632E-04
4.838737E+03	7.821302E-02	7.802761E-04
4.848673E+03	7.810496E-02	7.800811E-04
4.858609E+03	7.805224E-02	7.801875E-04
4.868544E+03	7.801581E-02	7.802026E-04
4.878480E+03	7.795191E-02	7.796859E-04
4.888416E+03	7.781809E-02	7.782108E-04
4.898352E+03	7.757052E-02	7.753387E-04
4.908288E+03	7.717330E-02	7.707143E-04
4.918223E+03	7.659357E-02	7.640166E-04
4.928159E+03	7.581293E-02	7.550749E-04
4.938095E+03	7.482239E-02	7.438172E-04
4.948031E+03	7.362753E-02	7.303218E-04
4.957967E+03	7.224501E-02	7.147808E-04
4.967902E+03	7.070604E-02	6.975323E-04
4.977838E+03	6.905000E-02	6.789946E-04
4.987774E+03	6.732209E-02	6.596413E-04
4.997710E+03	6.557238E-02	6.399889E-04
5.007646E+03	6.385032E-02	6.205411E-04
5.017581E+03	6.220489E-02	6.017887E-04
5.027517E+03	6.068140E-02	5.841773E-04
5.037453E+03	5.932138E-02	5.681061E-04
5.047389E+03	5.816180E-02	5.539198E-04
5.057325E+03	5.723787E-02	5.419354E-04
5.067260E+03	5.658167E-02	5.324295E-04
5.077196E+03	5.622335E-02	5.256490E-04
5.087132E+03	5.619352E-02	5.218340E-04
5.097068E+03	5.652092E-02	5.211959E-04
5.107004E+03	5.723690E-02	5.239584E-04
5.116939E+03	5.836890E-02	5.302979E-04
5.126875E+03	5.994554E-02	5.403906E-04
5.136811E+03	6.199041E-02	5.543567E-04
5.146747E+03	6.452063E-02	5.722506E-04
5.156683E+03	6.754547E-02	5.940513E-04
5.166618E+03	7.105707E-02	6.195857E-04
5.176554E+03	7.502904E-02	6.485245E-04
5.186490E+03	7.941105E-02	6.803436E-04
5.196426E+03	8.412306E-02	7.142864E-04
5.206362E+03	8.905514E-02	7.493748E-04
5.216298E+03	9.406843E-02	7.844298E-04
5.226233E+03	9.900069E-02	8.181281E-04
5.236169E+03	1.036743E-01	8.490764E-04
5.246105E+03	1.079120E-01	8.759434E-04
5.256041E+03	1.115476E-01	8.975406E-04
5.265977E+03	1.144436E-01	9.129581E-04
5.275912E+03	1.165021E-01	9.216335E-04
5.285848E+03	1.176773E-01	9.234311E-04
5.295784E+03	1.179752E-01	9.186207E-04
5.305720E+03	1.174506E-01	9.078318E-04
5.315656E+03	1.162050E-01	8.920223E-04
5.325591E+03	1.143712E-01	8.723501E-04
5.335527E+03	1.121023E-01	8.500786E-04
5.345463E+03	1.095629E-01	8.265182E-04
5.355399E+03	1.069159E-01	8.029239E-04
5.365335E+03	1.043230E-01	7.805084E-04
5.375270E+03	1.019352E-01	7.603841E-04
5.385206E+03	9.989457E-02	7.435820E-04
5.395142E+03	9.832193E-02	7.309653E-04
5.405078E+03	9.730595E-02	7.231321E-04
5.415014E+03	9.686111E-02	7.201350E-04
5.424949E+03	9.690436E-02	7.213202E-04
5.434885E+03	9.726562E-02	7.253982E-04
5.444821E+03	9.774217E-02	7.308363E-04
5.454757E+03	9.814027E-02	7.361574E-04
5.464693E+03	9.830088E-02	7.401254E-04
5.474628E+03	9.811061E-02	7.418266E-04
5.484564E+03	9.749869E-02	7.406490E-04
5.494500E+03	9.643807E-02	7.362974E-04
5.504436E+03	9.493362E-02	7.287110E-04
5.514372E+03	9.301503E-02	7.180170E-04
5.524307E+03	9.072883E-02	7.044761E-04
5.534243E+03	8.813265E-02	6.884437E-04
5.544179E+03	8.528717E-02	6.703114E-04
5.554115E+03	8.225462E-02	6.504974E-04
5.564051E+03	7.909960E-02	6.294551E-04
5.573986E+03	7.587922E-02	6.075950E-04
5.583922E+03	7.265290E-02	5.853625E-04
5.593858E+03	6.947304E-02	5.631626E-04
5.603794E+03	6.639018E-02	5.414000E-04
5.613730E+03	6.345191E-02	5.204688E-04
5.623665E+03	6.070107E-02	5.007364E-04
5.633601E+03	5.817606E-02	4.825437E-04
5.643537E+03	5.591073E-02	4.662019E-04
5.653473E+03	5.393426E-02	4.519895E-04
5.663409E+03	5.227122E-02	4.401506E-04
5.673345E+03	5.094185E-02	4.308951E-04
5.683280E+03	4.996242E-02	4.243997E-04
5.693216E+03	4.934630E-02	4.208155E-04
5.703152E+03	4.910322E-02	4.202601E-04
5.713088E+03	4.923935E-02	4.228169E-04
5.723024E+03	4.975809E-02	4.285409E-04
5.732959E+03	5.065983E-02	4.374554E-04
5.742895E+03	5.193754E-02	4.495135E-04
5.752831E+03	5.357978E-02	4.646229E-04
5.762767E+03	5.556464E-02	4.825931E-04
5.772703E+03	5.786248E-02	5.031588E-04
5.782638E+03	6.042997E-02	5.259285E-04
5.792574E+03	6.321174E-02	5.503995E-04
5.802510E+03	6.613782E-02	5.759367E-04
5.812446E+03	6.912436E-02	6.017814E-04
5.822382E+03	7.207817E-02	6.270929E-04
5.832317E+03	7.489924E-02	6.509743E-04
5.842253E+03	7.748293E-02	6.724950E-04
5.852189E+03	7.973283E-02	6.908056E-04
5.862125E+03	8.155859E-02	7.051220E-04
5.872061E+03	8.288828E-02	7.148342E-04
5.881996E+03	8.367461E-02	7.195607E-04
5.891932E+03	8.389425E-02	7.191404E-04
5.901868E+03	8.355364E-02	7.136807E-04
5.911804E+03	8.268789E-02	7.035425E-04
5.921740E+03	8.135358E-02	6.892739E-04
5.931675E+03	7.962507E-02	6.715733E-04
5.941611E+03	7.758369E-02	6.511928E-04
5.951547E+03	7.530732E-02	6.288475E-04
5.961483E+03	7.287125E-02	6.052208E-04
5.971419E+03	7.033880E-02	5.808855E-04
5.981354E+03	6.776511E-02	5.563362E-04
5.991290E+03	6.519016E-02	5.319325E-04
6.001226E+03	6.264875E-02	5.079830E-04
6.011162E+03	6.016385E-02	4.846925E-04
6.021098E+03	5.775253E-02	4.622120E-04
6.031033E+03	5.542749E-02	4.406524E-04
6.040969E+03	5.319889E-02	4.200995E-04
6.050905E+03	5.107647E-02	4.006324E-04
6.060841E+03	4.906951E-02	3.823222E-04
6.070777E+03	4.718874E-02	3.652482E-04
6.080713E+03	4.544487E-02	3.494860E-04
6.090648E+03	4.385150E-02	3.351301E-04
6.100584E+03	4.242294E-02	3.222776E-04
6.110520E+03	4.117325E-02	3.110216E-04
6.120456E+03	4.011775E-02	3.014630E-04
6.130392E+03	3.927048E-02	2.936931E-04
6.140327E+03	3.864148E-02	2.877747E-04
6.150263E+03	3.824049E-02	2.837713E-04
6.160199E+03	3.807435E-02	2.817299E-04
6.170135E+03	3.814769E-02	2.816871E-04
6.180071E+03	3.846142E-02	2.836604E-04
6.190006E+03	3.901346E-02	2.876544E-04
6.199942E+03	3.979550E-02	2.936382E-04
6.209878E+03	4.079599E-02	3.015675E-04
6.219814E+03	4.199740E-02	3.113645E-04
6.229750E+03	4.337790E-02	3.229290E-04
6.239685E+03	4.490870E-02	3.361163E-04
6.249621E+03	4.655509E-02	3.507377E-04
6.259557E+03	4.827577E-02	3.665355E-04
6.269493E+03	5.002375E-02	3.831955E-04
6.279429E+03	5.174609E-02	4.003430E-04
6.289364E+03	5.338568E-02	4.175504E-04
6.299300E+03	5.488619E-02	4.343699E-04
6.309236E+03	5.619365E-02	4.503428E-04
6.319172E+03	5.726134E-02	4.650368E-04
6.329108E+03	5.805427E-02	4.780842E-04
6.339043E+03	5.855457E-02	4.892323E-04
6.348979E+03	5.876308E-02	4.983669E-04
6.358915E+03	5.870492E-02	5.055728E-04
6.368851E+03	5.843006E-02	5.111568E-04
6.378787E+03	5.801326E-02	5.156673E-04
6.388722E+03	5.754739E-02	5.198548E-04
6.398658E+03	5.714088E-02	5.246659E-04
6.408594E+03	5.690036E-02	5.310969E-04
6.418530E+03	5.690811E-02	5.399814E-04
6.428466E+03	5.719427E-02	5.517060E-04
6.438401E+03	5.773528E-02	5.661548E-04
6.448337E+03	5.846693E-02	5.827955E-04
6.458273E+03	5.931134E-02	6.009187E-04
6.468209E+03	6.018883E-02	6.197468E-04
6.478145E+03	6.102084E-02	6.384615E-04
6.488081E+03	6.173867E-02	6.562971E-04
6.498016E+03	6.228279E-02	6.725407E-04
6.507952E+03	6.260389E-02	6.865508E-04
6.517888E+03	6.266991E-02	6.978444E-04
6.527824E+03	6.245945E-02	7.060378E-04
6.537760E+03	6.196900E-02	7.109389E-04
6.547695E+03	6.120466E-02	7.124657E-04
6.557631E+03	6.018675E-02	7.107103E-04
6.567567E+03	5.894375E-02	7.058780E-04
6.577503E+03	5.751057E-02	6.982731E-04
6.587439E+03	5.592570E-02	6.882698E-04
6.597374E+03	5.422779E-02	6.762720E-04
6.607310E+03	5.245598E-02	6.627168E-04
6.617246E+03	5.064642E-02	6.480311E-04
6.627182E+03	4.882896E-02	6.325850E-04
6.637118E+03	4.703121E-02	6.167393E-04
6.647053E+03	4.527522E-02	6.007998E-04
6.656989E+03	4.357838E-02	5.850242E-04
6.666925E+03	4.195452E-02	5.696327E-04
6.676861E+03	4.041170E-02	5.547753E-04
6.686797E+03	3.895743E-02	5.405984E-04
6.696732E+03	3.759462E-02	5.271884E-04
6.706668E+03	3.632525E-02	5.146197E-04
6.716604E+03	3.514843E-02	5.029259E-04
6.726540E+03	3.406253E-02	4.921282E-04
6.736476E+03	3.306538E-02	4.822389E-04
6.746411E+03	3.215350E-02	4.732483E-04
6.756347E+03	3.132236E-02	4.651287E-04
6.766283E+03	3.056813E-02	4.578590E-04
6.776219E+03	2.988583E-02	4.513979E-04
6.786155E+03	2.927186E-02	4.457220E-04
6.796090E+03	2.872075E-02	4.407760E-04
6.806026E+03	2.822849E-02	4.365237E-04
6.815962E+03	2.779015E-02	4.329122E-04
6.825898E+03	2.740223E-02	4.299074E-04
6.835834E+03	2.705989E-02	4.274519E-04
6.845769E+03	2.675831E-02	4.254857E-04
6.855705E+03	2.649405E-02	4.239683E-04
6.865641E+03	2.626193E-02	4.228291E-04
6.875577E+03	2.605863E-02	4.220250E-04
6.885513E+03	2.587924E-02	4.214850E-04
6.895449E+03	2.572083E-02	4.211686E-04
6.905384E+03	2.557949E-02	4.210177E-04
6.915320E+03	2.545169E-02	4.209787E-04
6.925256E+03	2.533609E-02	4.210331E-04
6.935192E+03	2.522921E-02	4.211259E-04
6.945128E+03	2.512976E-02	4.212381E-04
6.955063E+03	2.503699E-02	4.213587E-04
6.964999E+03	2.494931E-02	4.214625E-04
6.974935E+03	2.486736E-02	4.215614E-04
6.984871E+03	2.479083E-02	4.216518E-04
6.994807E+03	2.472069E-02	4.217509E-04
7.004742E+03	2.465722E-02	4.218650E-04
7.014678E+03	2.460129E-02	4.220099E-04
7.024614E+03	2.455378E-02	4.222018E-04
7.034550E+03	2.451542E-02	4.224546E-04
7.044486E+03	2.448724E-02	4.227868E-04
7.054421E+03	2.446954E-02	4.232045E-04
7.064357E+03	2.446190E-02	4.237010E-04
7.074293E+03	2.446403E-02	4.242720E-04
7.084229E+03	2.447541E-02	4.249083E-04
7.094165E+03	2.449619E-02	4.256127E-04
7.104100E+03	2.452411E-02	4.263458E-04
7.114036E+03	2.455911E-02	4.271058E-04
7.123972E+03	2.460020E-02	4.278751E-04
7.133908E+03	2.464643E-02	4.286364E-04
7.143844E+03	2.469647E-02	4.293656E-04
7.153779E+03	2.474999E-02	4.300563E-04
7.163715E+03	2.480627E-02	4.306947E-04
7.173651E+03	2.486459E-02	4.312677E-04
7.183587E+03	2.492370E-02	4.317523E-04
7.193523E+03	2.498363E-02	4.321483E-04
7.203458E+03	2.504276E-02	4.324266E-04
7.213394E+03	2.510012E-02	4.325701E-04
7.223330E+03	2.515343E-02	4.325386E-04
7.233266E+03	2.520053E-02	4.322950E-04
7.243202E+03	2.523995E-02	4.318143E-04
7.253137E+03	2.526794E-02	4.310331E-04
7.263073E+03	2.528263E-02	4.299208E-04
7.273009E+03	2.528054E-02	4.284208E-04
7.282945E+03	2.525938E-02	4.264971E-04
7.292881E+03	2.521707E-02	4.241191E-04
7.302817E+03	2.515092E-02	4.212460E-04
7.312752E+03	2.506026E-02	4.178730E-04
7.322688E+03	2.494349E-02	4.139800E-04
7.332624E+03	2.480068E-02	4.095763E-04
7.342560E+03	2.463262E-02	4.046828E-04
7.352496E+03	2.444024E-02	3.993239E-04
7.362431E+03	2.422569E-02	3.935435E-04
7.372367E+03	2.399120E-02	3.873869E-04
7.382303E+03	2.374008E-02	3.809161E-04
7.392239E+03	2.347456E-02	3.741753E-04
7.402175E+03	2.319834E-02	3.672311E-04
7.412110E+03	2.291536E-02	3.601528E-04
7.422046E+03	2.262925E-02	3.530033E-04
7.431982E+03	2.234375E-02	3.458451E-04
7.441918E+03	2.206246E-02	3.387377E-04
7.451854E+03	2.178931E-02	3.317429E-04
7.461789E+03	2.152781E-02	3.249144E-04
7.471725E+03	2.128100E-02	3.182970E-04
7.481661E+03	2.105043E-02	3.119111E-04
7.491597E+03	2.083849E-02	3.057886E-04
7.501533E+03	2.064649E-02	2.999437E-04
7.511468E+03	2.047475E-02	2.943755E-04
7.521404E+03	2.032354E-02	2.890816E-04
7.531340E+03	2.019269E-02	2.840530E-04
7.541276E+03	2.008209E-02	2.792813E-04
7.551212E+03	1.998990E-02	2.747340E-04
7.561147E+03	1.991530E-02	2.703935E-04
7.571083E+03	1.985627E-02	2.662262E-04
7.581019E+03	1.981187E-02	2.622144E-04
7.590955E+03	1.977914E-02	2.583142E-04
7.600891E+03	1.975636E-02	2.544997E-04
7.610826E+03	1.974088E-02	2.507345E-04
7.620762E+03	1.973109E-02	2.469974E-04
7.630698E+03	1.972515E-02	2.432651E-04
7.640634E+03	1.972155E-02	2.395203E-04
7.650570E+03	1.971872E-02	2.357465E-04
7.660505E+03	1.971642E-02	2.319439E-04
7.670441E+03	1.971439E-02	2.281131E-04
7.680377E+03	1.971268E-02	2.242587E-04
7.690313E+03	1.971161E-02	2.203890E-04
7.700249E+03	1.971127E-02	2.165096E-04
7.710184E+03	1.971319E-02	2.126421E-04
