#wls	flux	fluxerr
1.589729E+03	1.312740E-02	6.232693E-04
1.629472E+03	1.127565E-02	5.303722E-04
1.669215E+03	9.625121E-03	4.484464E-04
1.708958E+03	8.175739E-03	3.772426E-04
1.748702E+03	6.916091E-03	3.159863E-04
1.788445E+03	5.832409E-03	2.638123E-04
1.828188E+03	4.907091E-03	2.197038E-04
1.867931E+03	4.122907E-03	1.826886E-04
1.907675E+03	3.463106E-03	1.518441E-04
1.947418E+03	2.912972E-03	1.263643E-04
1.987161E+03	2.460495E-03	1.055845E-04
2.026904E+03	2.096991E-03	8.900216E-05
2.066647E+03	1.818884E-03	7.634392E-05
2.106391E+03	1.623804E-03	6.739238E-05
2.146134E+03	1.510678E-03	6.198732E-05
2.185877E+03	1.475588E-03	5.985480E-05
2.225620E+03	1.513875E-03	6.069875E-05
2.265363E+03	1.624186E-03	6.436262E-05
2.305107E+03	1.809657E-03	7.086839E-05
2.344850E+03	2.078237E-03	8.041853E-05
2.384593E+03	2.442698E-03	9.338500E-05
2.424336E+03	2.918809E-03	1.102289E-04
2.464080E+03	3.522351E-03	1.313820E-04
2.503823E+03	4.264779E-03	1.570864E-04
2.543566E+03	5.146907E-03	1.871748E-04
2.583309E+03	6.151537E-03	2.208302E-04
2.623052E+03	7.242784E-03	2.566043E-04
2.662796E+03	8.373102E-03	2.927069E-04
2.702539E+03	9.496091E-03	3.274761E-04
2.742282E+03	1.056419E-02	3.592978E-04
2.782025E+03	1.153451E-02	3.868049E-04
2.821769E+03	1.237382E-02	4.090333E-04
2.861512E+03	1.306420E-02	4.255824E-04
2.901255E+03	1.360298E-02	4.365777E-04
2.940998E+03	1.400511E-02	4.427091E-04
2.980741E+03	1.429938E-02	4.450716E-04
2.990677E+03	1.436069E-02	4.452342E-04
3.000613E+03	1.441812E-02	4.452608E-04
3.010549E+03	1.447275E-02	4.451862E-04
3.020485E+03	1.452582E-02	4.450495E-04
3.030420E+03	1.457741E-02	4.448537E-04
3.040356E+03	1.463025E-02	4.446819E-04
3.050292E+03	1.468419E-02	4.445294E-04
3.060228E+03	1.473964E-02	4.444082E-04
3.070164E+03	1.479705E-02	4.443306E-04
3.080099E+03	1.485784E-02	4.443389E-04
3.090035E+03	1.492248E-02	4.444453E-04
3.099971E+03	1.499094E-02	4.446477E-04
3.109907E+03	1.506467E-02	4.449875E-04
3.119843E+03	1.514416E-02	4.454769E-04
3.129779E+03	1.522991E-02	4.461283E-04
3.139714E+03	1.532243E-02	4.469544E-04
3.149650E+03	1.542317E-02	4.479946E-04
3.159586E+03	1.553173E-02	4.492342E-04
3.169522E+03	1.565000E-02	4.507251E-04
3.179458E+03	1.577808E-02	4.524658E-04
3.189393E+03	1.591694E-02	4.544808E-04
3.199329E+03	1.606758E-02	4.567942E-04
3.209265E+03	1.623009E-02	4.594043E-04
3.219201E+03	1.640547E-02	4.623349E-04
3.229137E+03	1.659429E-02	4.655966E-04
3.239072E+03	1.679795E-02	4.692236E-04
3.249008E+03	1.701656E-02	4.732139E-04
3.258944E+03	1.725110E-02	4.775882E-04
3.268880E+03	1.750209E-02	4.823554E-04
3.278816E+03	1.777048E-02	4.875348E-04
3.288751E+03	1.805674E-02	4.931331E-04
3.298687E+03	1.836133E-02	4.991559E-04
3.308623E+03	1.868467E-02	5.056076E-04
3.318559E+03	1.902756E-02	5.125023E-04
3.328495E+03	1.939029E-02	5.198409E-04
3.338430E+03	1.977309E-02	5.276215E-04
3.348366E+03	2.017566E-02	5.358288E-04
3.358302E+03	2.059886E-02	5.444781E-04
3.368238E+03	2.104174E-02	5.535360E-04
3.378174E+03	2.150399E-02	5.629877E-04
3.388109E+03	2.198560E-02	5.728248E-04
3.398045E+03	2.248503E-02	5.830007E-04
3.407981E+03	2.300140E-02	5.934853E-04
3.417917E+03	2.353358E-02	6.042435E-04
3.427853E+03	2.407932E-02	6.152118E-04
3.437788E+03	2.463658E-02	6.263331E-04
3.447724E+03	2.520353E-02	6.375568E-04
3.457660E+03	2.577762E-02	6.488155E-04
3.467596E+03	2.635744E-02	6.600707E-04
3.477532E+03	2.694238E-02	6.713051E-04
3.487467E+03	2.753170E-02	6.824991E-04
3.497403E+03	2.812408E-02	6.936182E-04
3.507339E+03	2.871802E-02	7.046249E-04
3.517275E+03	2.931188E-02	7.154785E-04
3.527211E+03	2.990438E-02	7.261484E-04
3.537146E+03	3.049291E-02	7.365724E-04
3.547082E+03	3.107677E-02	7.467352E-04
3.557018E+03	3.165410E-02	7.565944E-04
3.566954E+03	3.222426E-02	7.661364E-04
3.576890E+03	3.278647E-02	7.753461E-04
3.586826E+03	3.334043E-02	7.842187E-04
3.596761E+03	3.388676E-02	7.927717E-04
3.606697E+03	3.442613E-02	8.010236E-04
3.616633E+03	3.496025E-02	8.090161E-04
3.626569E+03	3.549092E-02	8.167928E-04
3.636505E+03	3.602195E-02	8.244418E-04
3.646440E+03	3.655599E-02	8.320234E-04
3.656376E+03	3.709824E-02	8.396537E-04
3.666312E+03	3.765425E-02	8.474542E-04
3.676248E+03	3.822945E-02	8.555416E-04
3.686184E+03	3.883160E-02	8.640806E-04
3.696119E+03	3.946885E-02	8.732414E-04
3.706055E+03	4.014974E-02	8.831985E-04
3.715991E+03	4.088454E-02	8.941595E-04
3.725927E+03	4.168366E-02	9.063304E-04
3.735863E+03	4.255797E-02	9.199215E-04
3.745798E+03	4.351851E-02	9.351415E-04
3.755734E+03	4.457620E-02	9.521903E-04
3.765670E+03	4.574186E-02	9.712613E-04
3.775606E+03	4.702482E-02	9.925098E-04
3.785542E+03	4.843326E-02	1.016063E-03
3.795477E+03	4.997143E-02	1.041962E-03
3.805413E+03	5.164302E-02	1.070233E-03
3.815349E+03	5.344574E-02	1.100779E-03
3.825285E+03	5.537285E-02	1.133413E-03
3.835221E+03	5.741268E-02	1.167849E-03
3.845156E+03	5.954762E-02	1.203691E-03
3.855092E+03	6.175244E-02	1.240395E-03
3.865028E+03	6.399737E-02	1.277342E-03
3.874964E+03	6.624719E-02	1.313820E-03
3.884900E+03	6.846106E-02	1.349023E-03
3.894835E+03	7.059690E-02	1.382143E-03
3.904771E+03	7.261105E-02	1.412362E-03
3.914707E+03	7.446189E-02	1.438924E-03
3.924643E+03	7.611063E-02	1.461149E-03
3.934579E+03	7.752497E-02	1.478500E-03
3.944514E+03	7.867875E-02	1.490573E-03
3.954450E+03	7.955568E-02	1.497162E-03
3.964386E+03	8.015183E-02	1.498300E-03
3.974322E+03	8.046907E-02	1.494131E-03
3.984258E+03	8.052266E-02	1.485044E-03
3.994194E+03	8.033523E-02	1.471554E-03
4.004129E+03	7.993694E-02	1.454302E-03
4.014065E+03	7.936145E-02	1.433976E-03
4.024001E+03	7.864617E-02	1.411317E-03
4.033937E+03	7.783016E-02	1.387074E-03
4.043873E+03	7.695193E-02	1.361966E-03
4.053808E+03	7.604565E-02	1.336618E-03
4.063744E+03	7.514557E-02	1.311641E-03
4.073680E+03	7.428013E-02	1.287525E-03
4.083616E+03	7.347517E-02	1.264705E-03
4.093552E+03	7.275110E-02	1.243508E-03
4.103487E+03	7.212539E-02	1.224203E-03
4.113423E+03	7.161056E-02	1.206969E-03
4.123359E+03	7.121516E-02	1.191909E-03
4.133295E+03	7.094283E-02	1.179045E-03
4.143231E+03	7.079505E-02	1.168360E-03
4.153166E+03	7.076850E-02	1.159759E-03
4.163102E+03	7.085831E-02	1.153124E-03
4.173038E+03	7.105504E-02	1.148267E-03
4.182974E+03	7.134901E-02	1.144999E-03
4.192910E+03	7.172734E-02	1.143087E-03
4.202845E+03	7.217603E-02	1.142286E-03
4.212781E+03	7.267854E-02	1.142318E-03
4.222717E+03	7.321680E-02	1.142890E-03
4.232653E+03	7.377136E-02	1.143693E-03
4.242589E+03	7.431983E-02	1.144384E-03
4.252524E+03	7.483839E-02	1.144607E-03
4.262460E+03	7.530190E-02	1.143995E-03
4.272396E+03	7.568322E-02	1.142163E-03
4.282332E+03	7.595714E-02	1.138763E-03
4.292268E+03	7.609866E-02	1.133459E-03
4.302203E+03	7.608397E-02	1.125944E-03
4.312139E+03	7.589609E-02	1.116018E-03
4.322075E+03	7.552213E-02	1.103542E-03
4.332011E+03	7.495594E-02	1.088484E-03
4.341947E+03	7.420248E-02	1.070966E-03
4.351882E+03	7.328176E-02	1.051326E-03
4.361818E+03	7.222044E-02	1.029986E-03
4.371754E+03	7.105145E-02	1.007446E-03
4.381690E+03	6.981462E-02	9.842882E-04
4.391626E+03	6.856352E-02	9.612749E-04
4.401562E+03	6.739392E-02	9.397387E-04
4.411497E+03	6.641005E-02	9.211009E-04
4.421433E+03	6.570744E-02	9.066334E-04
4.431369E+03	6.536745E-02	8.973858E-04
4.441305E+03	6.545727E-02	8.941932E-04
4.451241E+03	6.603080E-02	8.976959E-04
4.461176E+03	6.712981E-02	9.083621E-04
4.471112E+03	6.878498E-02	9.265052E-04
4.481048E+03	7.101196E-02	9.522350E-04
4.490984E+03	7.381357E-02	9.854915E-04
4.500920E+03	7.717290E-02	1.025956E-03
4.510855E+03	8.105465E-02	1.073077E-03
4.520791E+03	8.539606E-02	1.125948E-03
4.530727E+03	9.010522E-02	1.183299E-03
4.540663E+03	9.506155E-02	1.243506E-03
4.550599E+03	1.001167E-01	1.304607E-03
4.560534E+03	1.050954E-01	1.364321E-03
4.570470E+03	1.098129E-01	1.420276E-03
4.580406E+03	1.140786E-01	1.470057E-03
4.590342E+03	1.177193E-01	1.511510E-03
4.600278E+03	1.205935E-01	1.542905E-03
4.610213E+03	1.225991E-01	1.563047E-03
4.620149E+03	1.236880E-01	1.571433E-03
4.630085E+03	1.238645E-01	1.568234E-03
4.640021E+03	1.231836E-01	1.554255E-03
4.649957E+03	1.217372E-01	1.530752E-03
4.659892E+03	1.196507E-01	1.499389E-03
4.669828E+03	1.170640E-01	1.461981E-03
4.679764E+03	1.141170E-01	1.420329E-03
4.689700E+03	1.109463E-01	1.376159E-03
4.699636E+03	1.076756E-01	1.331026E-03
4.709571E+03	1.044120E-01	1.286254E-03
4.719507E+03	1.012446E-01	1.242928E-03
4.729443E+03	9.824286E-02	1.201884E-03
4.739379E+03	9.545861E-02	1.163728E-03
4.749315E+03	9.292712E-02	1.128857E-03
4.759250E+03	9.067145E-02	1.097515E-03
4.769186E+03	8.869916E-02	1.069756E-03
4.779122E+03	8.701260E-02	1.045569E-03
4.789058E+03	8.560156E-02	1.024792E-03
4.798994E+03	8.445116E-02	1.007209E-03
4.808930E+03	8.353992E-02	9.925292E-04
4.818865E+03	8.284249E-02	9.804182E-04
4.828801E+03	8.232783E-02	9.704791E-04
4.838737E+03	8.196284E-02	9.622965E-04
4.848673E+03	8.171032E-02	9.554128E-04
4.858609E+03	8.153124E-02	9.493562E-04
4.868544E+03	8.138328E-02	9.436243E-04
4.878480E+03	8.122308E-02	9.377108E-04
4.888416E+03	8.100758E-02	9.311224E-04
4.898352E+03	8.069770E-02	9.234195E-04
4.908288E+03	8.025614E-02	9.141924E-04
4.918223E+03	7.965584E-02	9.031554E-04
4.928159E+03	7.887792E-02	8.901221E-04
4.938095E+03	7.791387E-02	8.750271E-04
4.948031E+03	7.676893E-02	8.579618E-04
4.957967E+03	7.545951E-02	8.391415E-04
4.967902E+03	7.401364E-02	8.189077E-04
4.977838E+03	7.246720E-02	7.976824E-04
4.987774E+03	7.086326E-02	7.759586E-04
4.997710E+03	6.924961E-02	7.542716E-04
5.007646E+03	6.767494E-02	7.331551E-04
5.017581E+03	6.618655E-02	7.131170E-04
5.027517E+03	6.483073E-02	6.946425E-04
5.037453E+03	6.365037E-02	6.781693E-04
5.047389E+03	6.268415E-02	6.640798E-04
5.057325E+03	6.196894E-02	6.527275E-04
5.067260E+03	6.153819E-02	6.444208E-04
5.077196E+03	6.142333E-02	6.394380E-04
5.087132E+03	6.165331E-02	6.380244E-04
5.097068E+03	6.225647E-02	6.404107E-04
5.107004E+03	6.326010E-02	6.468107E-04
5.116939E+03	6.468879E-02	6.574035E-04
5.126875E+03	6.656311E-02	6.723227E-04
5.136811E+03	6.889897E-02	6.916502E-04
5.146747E+03	7.170435E-02	7.153863E-04
5.156683E+03	7.497576E-02	7.434175E-04
5.166618E+03	7.869392E-02	7.754770E-04
5.176554E+03	8.282249E-02	8.111387E-04
5.186490E+03	8.729938E-02	8.497370E-04
5.196426E+03	9.203967E-02	8.904040E-04
5.206362E+03	9.693095E-02	9.320305E-04
5.216298E+03	1.018380E-01	9.733189E-04
5.226233E+03	1.066071E-01	1.012830E-03
5.236169E+03	1.110734E-01	1.049054E-03
5.246105E+03	1.150749E-01	1.080551E-03
5.256041E+03	1.184620E-01	1.106024E-03
5.265977E+03	1.211084E-01	1.124430E-03
5.275912E+03	1.229293E-01	1.135124E-03
5.285848E+03	1.238789E-01	1.137835E-03
5.295784E+03	1.239622E-01	1.132755E-03
5.305720E+03	1.232273E-01	1.120460E-03
5.315656E+03	1.217635E-01	1.101880E-03
5.325591E+03	1.196909E-01	1.078195E-03
5.335527E+03	1.171546E-01	1.050785E-03
5.345463E+03	1.143065E-01	1.021057E-03
5.355399E+03	1.113071E-01	9.904648E-04
5.365335E+03	1.083139E-01	9.604120E-04
5.375270E+03	1.054791E-01	9.322303E-04
5.385206E+03	1.029462E-01	9.071598E-04
5.395142E+03	1.008513E-01	8.863547E-04
5.405078E+03	9.931539E-02	8.708171E-04
5.415014E+03	9.841494E-02	8.611570E-04
5.424949E+03	9.806784E-02	8.566033E-04
5.434885E+03	9.808225E-02	8.554413E-04
5.444821E+03	9.826748E-02	8.559827E-04
5.454757E+03	9.845372E-02	8.567317E-04
5.464693E+03	9.850061E-02	8.564554E-04
5.474628E+03	9.829354E-02	8.541474E-04
5.484564E+03	9.775533E-02	8.491266E-04
5.494500E+03	9.683673E-02	8.409526E-04
5.504436E+03	9.552102E-02	8.294652E-04
5.514372E+03	9.381687E-02	8.147224E-04
5.524307E+03	9.175050E-02	7.969327E-04
5.534243E+03	8.936654E-02	7.764634E-04
5.544179E+03	8.672010E-02	7.537730E-04
5.554115E+03	8.386999E-02	7.293528E-04
5.564051E+03	8.088038E-02	7.037428E-04
5.573986E+03	7.781565E-02	6.774870E-04
5.583922E+03	7.473557E-02	6.510919E-04
5.593858E+03	7.169978E-02	6.250661E-04
5.603794E+03	6.876164E-02	5.998662E-04
5.613730E+03	6.596797E-02	5.758949E-04
5.623665E+03	6.336287E-02	5.535335E-04
5.633601E+03	6.098341E-02	5.331045E-04
5.643537E+03	5.886050E-02	5.148780E-04
5.653473E+03	5.702119E-02	4.990921E-04
5.663409E+03	5.548664E-02	4.859340E-04
5.673345E+03	5.427507E-02	4.755660E-04
5.683280E+03	5.340055E-02	4.681137E-04
5.693216E+03	5.287400E-02	4.636752E-04
5.703152E+03	5.270358E-02	4.623235E-04
5.713088E+03	5.289522E-02	4.641114E-04
5.723024E+03	5.345017E-02	4.690492E-04
5.732959E+03	5.436832E-02	4.771340E-04
5.742895E+03	5.564321E-02	4.883058E-04
5.752831E+03	5.726303E-02	5.024560E-04
5.762767E+03	5.920907E-02	5.194139E-04
5.772703E+03	6.145283E-02	5.389215E-04
5.782638E+03	6.395498E-02	5.606253E-04
5.792574E+03	6.666420E-02	5.840657E-04
5.802510E+03	6.951673E-02	6.086744E-04
5.812446E+03	7.243682E-02	6.337792E-04
5.822382E+03	7.533917E-02	6.586265E-04
5.832317E+03	7.813093E-02	6.823995E-04
5.842253E+03	8.071542E-02	7.042524E-04
5.852189E+03	8.300058E-02	7.233844E-04
5.862125E+03	8.490208E-02	7.390681E-04
5.872061E+03	8.635096E-02	7.507152E-04
5.881996E+03	8.729559E-02	7.578939E-04
5.891932E+03	8.770899E-02	7.603911E-04
5.901868E+03	8.758680E-02	7.581934E-04
5.911804E+03	8.694763E-02	7.514888E-04
5.921740E+03	8.583074E-02	7.406441E-04
5.931675E+03	8.428968E-02	7.261486E-04
5.941611E+03	8.238689E-02	7.085658E-04
5.951547E+03	8.019238E-02	6.885215E-04
5.961483E+03	7.777312E-02	6.666108E-04
5.971419E+03	7.519420E-02	6.434092E-04
5.981354E+03	7.251363E-02	6.194263E-04
5.991290E+03	6.978177E-02	5.951031E-04
6.001226E+03	6.704199E-02	5.708168E-04
6.011162E+03	6.433016E-02	5.468777E-04
6.021098E+03	6.167311E-02	5.235163E-04
6.031033E+03	5.909568E-02	5.009441E-04
6.040969E+03	5.661704E-02	4.793225E-04
6.050905E+03	5.425435E-02	4.587944E-04
6.060841E+03	5.202238E-02	4.394814E-04
6.070777E+03	4.993565E-02	4.215025E-04
6.080713E+03	4.800713E-02	4.049627E-04
6.090648E+03	4.625210E-02	3.899869E-04
6.100584E+03	4.468386E-02	3.766838E-04
6.110520E+03	4.331539E-02	3.651601E-04
6.120456E+03	4.216060E-02	3.555319E-04
6.130392E+03	4.123013E-02	3.478902E-04
6.140327E+03	4.053495E-02	3.423309E-04
6.150263E+03	4.008169E-02	3.389172E-04
6.160199E+03	3.987702E-02	3.377160E-04
6.170135E+03	3.992385E-02	3.387670E-04
6.180071E+03	4.022168E-02	3.420853E-04
6.190006E+03	4.076581E-02	3.476552E-04
6.199942E+03	4.154669E-02	3.554243E-04
6.209878E+03	4.254931E-02	3.652977E-04
6.219814E+03	4.375423E-02	3.771455E-04
6.229750E+03	4.513227E-02	3.907564E-04
6.239685E+03	4.664905E-02	4.058709E-04
6.249621E+03	4.826123E-02	4.221414E-04
6.259557E+03	4.991930E-02	4.391578E-04
6.269493E+03	5.156613E-02	4.564334E-04
6.279429E+03	5.314037E-02	4.734299E-04
6.289364E+03	5.458196E-02	4.896048E-04
6.299300E+03	5.583133E-02	5.044011E-04
6.309236E+03	5.683846E-02	5.173298E-04
6.319172E+03	5.756806E-02	5.280181E-04
6.329108E+03	5.799901E-02	5.362092E-04
6.339043E+03	5.813307E-02	5.418479E-04
6.348979E+03	5.799220E-02	5.450648E-04
6.358915E+03	5.762197E-02	5.462170E-04
6.368851E+03	5.708327E-02	5.458196E-04
6.378787E+03	5.645372E-02	5.445672E-04
6.388722E+03	5.581905E-02	5.432588E-04
6.398658E+03	5.526675E-02	5.427400E-04
6.408594E+03	5.488506E-02	5.438959E-04
6.418530E+03	5.475034E-02	5.475261E-04
6.428466E+03	5.489141E-02	5.539802E-04
6.438401E+03	5.526964E-02	5.629330E-04
6.448337E+03	5.583200E-02	5.738992E-04
6.458273E+03	5.651764E-02	5.862931E-04
6.468209E+03	5.726443E-02	5.994934E-04
6.478145E+03	5.800776E-02	6.128287E-04
6.488081E+03	5.868914E-02	6.256686E-04
6.498016E+03	5.925316E-02	6.373927E-04
6.507952E+03	5.965236E-02	6.474454E-04
6.517888E+03	5.985094E-02	6.553804E-04
6.527824E+03	5.982262E-02	6.608427E-04
6.537760E+03	5.955468E-02	6.636186E-04
6.547695E+03	5.904421E-02	6.636002E-04
6.557631E+03	5.829977E-02	6.608095E-04
6.567567E+03	5.733987E-02	6.553864E-04
6.577503E+03	5.618751E-02	6.475303E-04
6.587439E+03	5.487404E-02	6.375481E-04
6.597374E+03	5.343099E-02	6.257616E-04
6.607310E+03	5.189154E-02	6.125254E-04
6.617246E+03	5.028797E-02	5.981963E-04
6.627182E+03	4.865112E-02	5.831271E-04
6.637118E+03	4.700646E-02	5.676177E-04
6.647053E+03	4.537816E-02	5.519619E-04
6.656989E+03	4.378647E-02	5.364145E-04
6.666925E+03	4.224643E-02	5.211738E-04
6.676861E+03	4.076962E-02	5.063998E-04
6.686797E+03	3.936632E-02	4.922409E-04
6.696732E+03	3.804264E-02	4.787956E-04
6.706668E+03	3.680108E-02	4.661188E-04
6.716604E+03	3.564458E-02	4.542714E-04
6.726540E+03	3.457263E-02	4.432705E-04
6.736476E+03	3.358404E-02	4.331237E-04
6.746411E+03	3.267715E-02	4.238316E-04
6.756347E+03	3.184848E-02	4.153701E-04
6.766283E+03	3.109506E-02	4.077200E-04
6.776219E+03	3.041254E-02	4.008423E-04
6.786155E+03	2.979733E-02	3.947067E-04
6.796090E+03	2.924471E-02	3.892659E-04
6.806026E+03	2.875086E-02	3.844831E-04
6.815962E+03	2.831142E-02	3.803124E-04
6.825898E+03	2.792158E-02	3.767005E-04
6.835834E+03	2.757748E-02	3.736050E-04
6.845769E+03	2.727434E-02	3.709700E-04
6.855705E+03	2.700884E-02	3.687577E-04
6.865641E+03	2.677591E-02	3.669053E-04
6.875577E+03	2.657195E-02	3.653689E-04
6.885513E+03	2.639307E-02	3.640997E-04
6.895449E+03	2.623561E-02	3.630505E-04
6.905384E+03	2.609615E-02	3.621773E-04
6.915320E+03	2.597161E-02	3.614395E-04
6.925256E+03	2.585923E-02	3.608007E-04
6.935192E+03	2.575669E-02	3.602295E-04
6.945128E+03	2.566155E-02	3.596932E-04
6.955063E+03	2.557320E-02	3.591839E-04
6.964999E+03	2.549003E-02	3.586795E-04
6.974935E+03	2.541124E-02	3.581695E-04
6.984871E+03	2.533687E-02	3.576544E-04
6.994807E+03	2.526581E-02	3.571192E-04
7.004742E+03	2.519905E-02	3.565780E-04
7.014678E+03	2.513635E-02	3.560277E-04
7.024614E+03	2.507802E-02	3.554729E-04
7.034550E+03	2.502442E-02	3.549189E-04
7.044486E+03	2.497633E-02	3.543769E-04
7.054421E+03	2.493359E-02	3.538448E-04
7.064357E+03	2.489687E-02	3.533319E-04
7.074293E+03	2.486579E-02	3.528331E-04
7.084229E+03	2.484037E-02	3.523484E-04
7.094165E+03	2.482099E-02	3.518829E-04
7.104100E+03	2.480748E-02	3.514341E-04
7.114036E+03	2.479912E-02	3.509915E-04
7.123972E+03	2.479608E-02	3.505570E-04
7.133908E+03	2.479750E-02	3.501180E-04
7.143844E+03	2.480340E-02	3.496745E-04
7.153779E+03	2.481326E-02	3.492184E-04
7.163715E+03	2.482642E-02	3.487400E-04
7.173651E+03	2.484208E-02	3.482278E-04
7.183587E+03	2.485929E-02	3.476675E-04
7.193523E+03	2.487634E-02	3.470354E-04
7.203458E+03	2.489280E-02	3.463250E-04
7.213394E+03	2.490649E-02	3.455058E-04
7.223330E+03	2.491546E-02	3.445512E-04
7.233266E+03	2.491801E-02	3.434384E-04
7.243202E+03	2.491127E-02	3.421284E-04
7.253137E+03	2.489319E-02	3.405950E-04
7.263073E+03	2.486122E-02	3.388051E-04
7.273009E+03	2.481281E-02	3.367268E-04
7.282945E+03	2.474559E-02	3.343313E-04
7.292881E+03	2.465796E-02	3.316012E-04
7.302817E+03	2.454768E-02	3.285112E-04
7.312752E+03	2.441452E-02	3.250636E-04
7.322688E+03	2.425828E-02	3.212618E-04
7.332624E+03	2.407778E-02	3.170967E-04
7.342560E+03	2.387508E-02	3.126023E-04
7.352496E+03	2.365126E-02	3.077995E-04
7.362431E+03	2.340850E-02	3.027238E-04
7.372367E+03	2.314900E-02	2.974105E-04
7.382303E+03	2.287595E-02	2.919066E-04
7.392239E+03	2.259187E-02	2.862503E-04
7.402175E+03	2.229910E-02	2.804767E-04
7.412110E+03	2.200168E-02	2.746413E-04
7.422046E+03	2.170225E-02	2.687811E-04
7.431982E+03	2.140443E-02	2.629438E-04
7.441918E+03	2.111079E-02	2.571631E-04
7.451854E+03	2.082513E-02	2.514864E-04
7.461789E+03	2.055046E-02	2.459500E-04
7.471725E+03	2.028858E-02	2.405743E-04
7.481661E+03	2.004227E-02	2.353904E-04
7.491597E+03	1.981304E-02	2.304130E-04
7.501533E+03	1.960240E-02	2.256562E-04
7.511468E+03	1.941198E-02	2.211341E-04
7.521404E+03	1.924211E-02	2.168454E-04
7.531340E+03	1.909321E-02	2.127894E-04
7.541276E+03	1.896537E-02	2.089613E-04
7.551212E+03	1.885836E-02	2.053523E-04
7.561147E+03	1.877163E-02	2.019506E-04
7.571083E+03	1.870435E-02	1.987408E-04
7.581019E+03	1.865541E-02	1.957056E-04
7.590955E+03	1.862347E-02	1.928252E-04
7.600891E+03	1.860702E-02	1.900790E-04
7.610826E+03	1.860441E-02	1.874458E-04
7.620762E+03	1.861397E-02	1.849051E-04
7.630698E+03	1.863448E-02	1.824415E-04
7.640634E+03	1.866349E-02	1.800289E-04
7.650570E+03	1.870046E-02	1.776608E-04
7.660505E+03	1.874329E-02	1.753162E-04
7.670441E+03	1.879185E-02	1.729941E-04
7.680377E+03	1.884490E-02	1.706837E-04
7.690313E+03	1.890228E-02	1.683847E-04
7.700249E+03	1.896310E-02	1.660906E-04
7.710184E+03	1.902696E-02	1.638006E-04
