#wls	flux	fluxerr
1.589729E+03	7.471332E-03	6.738923E-04
1.629472E+03	6.636616E-03	5.947305E-04
1.669215E+03	5.884949E-03	5.238614E-04
1.708958E+03	5.213652E-03	4.609275E-04
1.748702E+03	4.618370E-03	4.054248E-04
1.788445E+03	4.093749E-03	3.567674E-04
1.828188E+03	3.631788E-03	3.141490E-04
1.867931E+03	3.226935E-03	2.769889E-04
1.907675E+03	2.871819E-03	2.445622E-04
1.947418E+03	2.561521E-03	2.163666E-04
1.987161E+03	2.294138E-03	1.921624E-04
2.026904E+03	2.070433E-03	1.719333E-04
2.066647E+03	1.894947E-03	1.559682E-04
2.106391E+03	1.775009E-03	1.447658E-04
2.146134E+03	1.716071E-03	1.386466E-04
2.185877E+03	1.717387E-03	1.374136E-04
2.225620E+03	1.772221E-03	1.403917E-04
2.265363E+03	1.872645E-03	1.468284E-04
2.305107E+03	2.011150E-03	1.560255E-04
2.344850E+03	2.183259E-03	1.675376E-04
2.384593E+03	2.387454E-03	1.811561E-04
2.424336E+03	2.622358E-03	1.966844E-04
2.464080E+03	2.887453E-03	2.139916E-04
2.503823E+03	3.181085E-03	2.328619E-04
2.543566E+03	3.500163E-03	2.529790E-04
2.583309E+03	3.839941E-03	2.739167E-04
2.623052E+03	4.194539E-03	2.951847E-04
2.662796E+03	4.557003E-03	3.162391E-04
2.702539E+03	4.919025E-03	3.364692E-04
2.742282E+03	5.273770E-03	3.553963E-04
2.782025E+03	5.614906E-03	3.726032E-04
2.821769E+03	5.937051E-03	3.877624E-04
2.861512E+03	6.236163E-03	4.006566E-04
2.901255E+03	6.509697E-03	4.111828E-04
2.940998E+03	6.759103E-03	4.194997E-04
2.980741E+03	6.986190E-03	4.257844E-04
2.990677E+03	7.040241E-03	4.270919E-04
3.000613E+03	7.093536E-03	4.283155E-04
3.010549E+03	7.145662E-03	4.294309E-04
3.020485E+03	7.197257E-03	4.304770E-04
3.030420E+03	7.248687E-03	4.314760E-04
3.040356E+03	7.299839E-03	4.324211E-04
3.050292E+03	7.351680E-03	4.333694E-04
3.060228E+03	7.403238E-03	4.342633E-04
3.070164E+03	7.455492E-03	4.351598E-04
3.080099E+03	7.507502E-03	4.360038E-04
3.090035E+03	7.560240E-03	4.368512E-04
3.099971E+03	7.613730E-03	4.377029E-04
3.109907E+03	7.667535E-03	4.385330E-04
3.119843E+03	7.721694E-03	4.393432E-04
3.129779E+03	7.776715E-03	4.401620E-04
3.139714E+03	7.832637E-03	4.409904E-04
3.149650E+03	7.889507E-03	4.418304E-04
3.159586E+03	7.947373E-03	4.426834E-04
3.169522E+03	8.006276E-03	4.435507E-04
3.179458E+03	8.066271E-03	4.444343E-04
3.189393E+03	8.127867E-03	4.453610E-04
3.199329E+03	8.190645E-03	4.463063E-04
3.209265E+03	8.255574E-03	4.473214E-04
3.219201E+03	8.321781E-03	4.483572E-04
3.229137E+03	8.390224E-03	4.494637E-04
3.239072E+03	8.460034E-03	4.505924E-04
3.249008E+03	8.532612E-03	4.518160E-04
3.258944E+03	8.607088E-03	4.530860E-04
3.268880E+03	8.683948E-03	4.544260E-04
3.278816E+03	8.763225E-03	4.558352E-04
3.288751E+03	8.845388E-03	4.573354E-04
3.298687E+03	8.930018E-03	4.589022E-04
3.308623E+03	9.017573E-03	4.605565E-04
3.318559E+03	9.108521E-03	4.623192E-04
3.328495E+03	9.202415E-03	4.641642E-04
3.338430E+03	9.299714E-03	4.661115E-04
3.348366E+03	9.400406E-03	4.681572E-04
3.358302E+03	9.504931E-03	4.703196E-04
3.368238E+03	9.613271E-03	4.725938E-04
3.378174E+03	9.725411E-03	4.749754E-04
3.388109E+03	9.841764E-03	4.774803E-04
3.398045E+03	9.962299E-03	4.801030E-04
3.407981E+03	1.008742E-02	4.828583E-04
3.417917E+03	1.021708E-02	4.857395E-04
3.427853E+03	1.035167E-02	4.887606E-04
3.437788E+03	1.049158E-02	4.919344E-04
3.447724E+03	1.063676E-02	4.952532E-04
3.457660E+03	1.078759E-02	4.987292E-04
3.467596E+03	1.094401E-02	5.023543E-04
3.477532E+03	1.110685E-02	5.061599E-04
3.487467E+03	1.127605E-02	5.101374E-04
3.497403E+03	1.145202E-02	5.142978E-04
3.507339E+03	1.163472E-02	5.186332E-04
3.517275E+03	1.182457E-02	5.231547E-04
3.527211E+03	1.202115E-02	5.278368E-04
3.537146E+03	1.222496E-02	5.326939E-04
3.547082E+03	1.243522E-02	5.376856E-04
3.557018E+03	1.265208E-02	5.428112E-04
3.566954E+03	1.287535E-02	5.480553E-04
3.576890E+03	1.310573E-02	5.534414E-04
3.586826E+03	1.334228E-02	5.589229E-04
3.596761E+03	1.358631E-02	5.645471E-04
3.606697E+03	1.383705E-02	5.702752E-04
3.616633E+03	1.409551E-02	5.761413E-04
3.626569E+03	1.436148E-02	5.821290E-04
3.636505E+03	1.463568E-02	5.882592E-04
3.646440E+03	1.491849E-02	5.945390E-04
3.656376E+03	1.521132E-02	6.010152E-04
3.666312E+03	1.551400E-02	6.076707E-04
3.676248E+03	1.582825E-02	6.145619E-04
3.686184E+03	1.615534E-02	6.217269E-04
3.696119E+03	1.649682E-02	6.292105E-04
3.706055E+03	1.685479E-02	6.370787E-04
3.715991E+03	1.723180E-02	6.454091E-04
3.725927E+03	1.763014E-02	6.542677E-04
3.735863E+03	1.805224E-02	6.637219E-04
3.745798E+03	1.850105E-02	6.738554E-04
3.755734E+03	1.898009E-02	6.847680E-04
3.765670E+03	1.949105E-02	6.964889E-04
3.775606E+03	2.003683E-02	7.090885E-04
3.785542E+03	2.061971E-02	7.226113E-04
3.795477E+03	2.124115E-02	7.370702E-04
3.805413E+03	2.190173E-02	7.524467E-04
3.815349E+03	2.260092E-02	7.686832E-04
3.825285E+03	2.333768E-02	7.857054E-04
3.835221E+03	2.410757E-02	8.033283E-04
3.845156E+03	2.490561E-02	8.213550E-04
3.855092E+03	2.572407E-02	8.395055E-04
3.865028E+03	2.655470E-02	8.574949E-04
3.874964E+03	2.738679E-02	8.749703E-04
3.884900E+03	2.820913E-02	8.915784E-04
3.894835E+03	2.900933E-02	9.069443E-04
3.904771E+03	2.977486E-02	9.207061E-04
3.914707E+03	3.049248E-02	9.324975E-04
3.924643E+03	3.115115E-02	9.420367E-04
3.934579E+03	3.173873E-02	9.490242E-04
3.944514E+03	3.224651E-02	9.532780E-04
3.954450E+03	3.266578E-02	9.546286E-04
3.964386E+03	3.299199E-02	9.530374E-04
3.974322E+03	3.322176E-02	9.485055E-04
3.984258E+03	3.335694E-02	9.411850E-04
3.994194E+03	3.340181E-02	9.312941E-04
4.004129E+03	3.336276E-02	9.191015E-04
4.014065E+03	3.324837E-02	9.049273E-04
4.024001E+03	3.307042E-02	8.891657E-04
4.033937E+03	3.284038E-02	8.721864E-04
4.043873E+03	3.257094E-02	8.543757E-04
4.053808E+03	3.227447E-02	8.360946E-04
4.063744E+03	3.196407E-02	8.177059E-04
4.073680E+03	3.165052E-02	7.994976E-04
4.083616E+03	3.134557E-02	7.817669E-04
4.093552E+03	3.105923E-02	7.647540E-04
4.103487E+03	3.080025E-02	7.486555E-04
4.113423E+03	3.057760E-02	7.336625E-04
4.123359E+03	3.039879E-02	7.199209E-04
4.133295E+03	3.026817E-02	7.074942E-04
4.143231E+03	3.019024E-02	6.964443E-04
4.153166E+03	3.016917E-02	6.868213E-04
4.163102E+03	3.020615E-02	6.786045E-04
4.173038E+03	3.030220E-02	6.717690E-04
4.182974E+03	3.045767E-02	6.662750E-04
4.192910E+03	3.067028E-02	6.620276E-04
4.202845E+03	3.093790E-02	6.589384E-04
4.212781E+03	3.125721E-02	6.568985E-04
4.222717E+03	3.162205E-02	6.557451E-04
4.232653E+03	3.202576E-02	6.553134E-04
4.242589E+03	3.246088E-02	6.554318E-04
4.252524E+03	3.291657E-02	6.558698E-04
4.262460E+03	3.337969E-02	6.563653E-04
4.272396E+03	3.383664E-02	6.566612E-04
4.282332E+03	3.427351E-02	6.565088E-04
4.292268E+03	3.467356E-02	6.556202E-04
4.302203E+03	3.502287E-02	6.537759E-04
4.312139E+03	3.530838E-02	6.507847E-04
4.322075E+03	3.551945E-02	6.465102E-04
4.332011E+03	3.564682E-02	6.408481E-04
4.341947E+03	3.568700E-02	6.338020E-04
4.351882E+03	3.563836E-02	6.254087E-04
4.361818E+03	3.550314E-02	6.157695E-04
4.371754E+03	3.528507E-02	6.050058E-04
4.381690E+03	3.499207E-02	5.933035E-04
4.391626E+03	3.464249E-02	5.810142E-04
4.401562E+03	3.427020E-02	5.687297E-04
4.411497E+03	3.391715E-02	5.571492E-04
4.421433E+03	3.362775E-02	5.469831E-04
4.431369E+03	3.344383E-02	5.388735E-04
4.441305E+03	3.340686E-02	5.334349E-04
4.451241E+03	3.355314E-02	5.311819E-04
4.461176E+03	3.390232E-02	5.323532E-04
4.471112E+03	3.447102E-02	5.371306E-04
4.481048E+03	3.527236E-02	5.456420E-04
4.490984E+03	3.629853E-02	5.576965E-04
4.500920E+03	3.753245E-02	5.729741E-04
4.510855E+03	3.895607E-02	5.911543E-04
4.520791E+03	4.053904E-02	6.117433E-04
4.530727E+03	4.224496E-02	6.341714E-04
4.540663E+03	4.402876E-02	6.577533E-04
4.550599E+03	4.583820E-02	6.817110E-04
4.560534E+03	4.761301E-02	7.051603E-04
4.570470E+03	4.929051E-02	7.271936E-04
4.580406E+03	5.081833E-02	7.470644E-04
4.590342E+03	5.214694E-02	7.640733E-04
4.600278E+03	5.323414E-02	7.776310E-04
4.610213E+03	5.405467E-02	7.873957E-04
4.620149E+03	5.459439E-02	7.931854E-04
4.630085E+03	5.484977E-02	7.949675E-04
4.640021E+03	5.483366E-02	7.929421E-04
4.649957E+03	5.456964E-02	7.874587E-04
4.659892E+03	5.408687E-02	7.789416E-04
4.669828E+03	5.342725E-02	7.679927E-04
4.679764E+03	5.263573E-02	7.552530E-04
4.689700E+03	5.175709E-02	7.413562E-04
4.699636E+03	5.083522E-02	7.269202E-04
4.709571E+03	4.990981E-02	7.124992E-04
4.719507E+03	4.901917E-02	6.986259E-04
4.729443E+03	4.819199E-02	6.856935E-04
4.739379E+03	4.745518E-02	6.740688E-04
4.749315E+03	4.682943E-02	6.640287E-04
4.759250E+03	4.632979E-02	6.557690E-04
4.769186E+03	4.596628E-02	6.494136E-04
4.779122E+03	4.574521E-02	6.450326E-04
4.789058E+03	4.565822E-02	6.424889E-04
4.798994E+03	4.569375E-02	6.416011E-04
4.808930E+03	4.583838E-02	6.421621E-04
4.818865E+03	4.607771E-02	6.439524E-04
4.828801E+03	4.639501E-02	6.467211E-04
4.838737E+03	4.677257E-02	6.502051E-04
4.848673E+03	4.719076E-02	6.541174E-04
4.858609E+03	4.762684E-02	6.581304E-04
4.868544E+03	4.805678E-02	6.619025E-04
4.878480E+03	4.844649E-02	6.649588E-04
4.888416E+03	4.876105E-02	6.668200E-04
4.898352E+03	4.896521E-02	6.670111E-04
4.908288E+03	4.902646E-02	6.651033E-04
4.918223E+03	4.891675E-02	6.607381E-04
4.928159E+03	4.861486E-02	6.536589E-04
4.938095E+03	4.811558E-02	6.438321E-04
4.948031E+03	4.742064E-02	6.313217E-04
4.957967E+03	4.654281E-02	6.163418E-04
4.967902E+03	4.551019E-02	5.993080E-04
4.977838E+03	4.435752E-02	5.807187E-04
4.987774E+03	4.312173E-02	5.610926E-04
4.997710E+03	4.184094E-02	5.409543E-04
5.007646E+03	4.055320E-02	5.208159E-04
5.017581E+03	3.929320E-02	5.011346E-04
5.027517E+03	3.809074E-02	4.822927E-04
5.037453E+03	3.697317E-02	4.646307E-04
5.047389E+03	3.596367E-02	4.484250E-04
5.057325E+03	3.507902E-02	4.338624E-04
5.067260E+03	3.433363E-02	4.210919E-04
5.077196E+03	3.374007E-02	4.102321E-04
5.087132E+03	3.330639E-02	4.013394E-04
5.097068E+03	3.304027E-02	3.944603E-04
5.107004E+03	3.294901E-02	3.896309E-04
5.116939E+03	3.303555E-02	3.868310E-04
5.126875E+03	3.330360E-02	3.860458E-04
5.136811E+03	3.375599E-02	3.872471E-04
5.146747E+03	3.439154E-02	3.903580E-04
5.156683E+03	3.520755E-02	3.952848E-04
5.166618E+03	3.620074E-02	4.019269E-04
5.176554E+03	3.736006E-02	4.101006E-04
5.186490E+03	3.867178E-02	4.195984E-04
5.196426E+03	4.011814E-02	4.301778E-04
5.206362E+03	4.167534E-02	4.415423E-04
5.216298E+03	4.331451E-02	4.533566E-04
5.226233E+03	4.500353E-02	4.652689E-04
5.236169E+03	4.670789E-02	4.769224E-04
5.246105E+03	4.839072E-02	4.879568E-04
5.256041E+03	5.001446E-02	4.980271E-04
5.265977E+03	5.154786E-02	5.068720E-04
5.275912E+03	5.296224E-02	5.142734E-04
5.285848E+03	5.423507E-02	5.200883E-04
5.295784E+03	5.536285E-02	5.243663E-04
5.305720E+03	5.635217E-02	5.272538E-04
5.315656E+03	5.721957E-02	5.289862E-04
5.325591E+03	5.801157E-02	5.300659E-04
5.335527E+03	5.878402E-02	5.310592E-04
5.345463E+03	5.959642E-02	5.325436E-04
5.355399E+03	6.051789E-02	5.351609E-04
5.365335E+03	6.161688E-02	5.395264E-04
5.375270E+03	6.295851E-02	5.462101E-04
5.385206E+03	6.460215E-02	5.557226E-04
5.395142E+03	6.659796E-02	5.684928E-04
5.405078E+03	6.898669E-02	5.848740E-04
5.415014E+03	7.177587E-02	6.049508E-04
5.424949E+03	7.486759E-02	6.279448E-04
5.434885E+03	7.806956E-02	6.523251E-04
5.444821E+03	8.122134E-02	6.768567E-04
5.454757E+03	8.415130E-02	7.001873E-04
5.464693E+03	8.667982E-02	7.208738E-04
5.474628E+03	8.871196E-02	7.381543E-04
5.484564E+03	9.017652E-02	7.514326E-04
5.494500E+03	9.102060E-02	7.602307E-04
5.504436E+03	9.124777E-02	7.645092E-04
5.514372E+03	9.088918E-02	7.644341E-04
5.524307E+03	8.998668E-02	7.602434E-04
5.534243E+03	8.859688E-02	7.522895E-04
5.544179E+03	8.678362E-02	7.409845E-04
5.554115E+03	8.461699E-02	7.267984E-04
5.564051E+03	8.216479E-02	7.101929E-04
5.573986E+03	7.949543E-02	6.916497E-04
5.583922E+03	7.667491E-02	6.716482E-04
5.593858E+03	7.377197E-02	6.507119E-04
5.603794E+03	7.084929E-02	6.293339E-04
5.613730E+03	6.796546E-02	6.079925E-04
5.623665E+03	6.517838E-02	5.871816E-04
5.633601E+03	6.254048E-02	5.673667E-04
5.643537E+03	6.009579E-02	5.489554E-04
5.653473E+03	5.788115E-02	5.323050E-04
5.663409E+03	5.592913E-02	5.177461E-04
5.673345E+03	5.426361E-02	5.055383E-04
5.683280E+03	5.289881E-02	4.958573E-04
5.693216E+03	5.184672E-02	4.888607E-04
5.703152E+03	5.111396E-02	4.846566E-04
5.713088E+03	5.069588E-02	4.832442E-04
5.723024E+03	5.058618E-02	4.846026E-04
5.732959E+03	5.077526E-02	4.886740E-04
5.742895E+03	5.124259E-02	4.952888E-04
5.752831E+03	5.196394E-02	5.042329E-04
5.762767E+03	5.291224E-02	5.152563E-04
5.772703E+03	5.404965E-02	5.279954E-04
5.782638E+03	5.533265E-02	5.420224E-04
5.792574E+03	5.671137E-02	5.568386E-04
5.802510E+03	5.813336E-02	5.719134E-04
5.812446E+03	5.953901E-02	5.866404E-04
5.822382E+03	6.086654E-02	6.003886E-04
5.832317E+03	6.205966E-02	6.125806E-04
5.842253E+03	6.306106E-02	6.226304E-04
5.852189E+03	6.382003E-02	6.300224E-04
5.862125E+03	6.429792E-02	6.343661E-04
5.872061E+03	6.446725E-02	6.353903E-04
5.881996E+03	6.430853E-02	6.329115E-04
5.891932E+03	6.382504E-02	6.269804E-04
5.901868E+03	6.303052E-02	6.177587E-04
5.911804E+03	6.194883E-02	6.055144E-04
5.921740E+03	6.061919E-02	5.906706E-04
5.931675E+03	5.908753E-02	5.737174E-04
5.941611E+03	5.740108E-02	5.551566E-04
5.951547E+03	5.560844E-02	5.355001E-04
5.961483E+03	5.375431E-02	5.152171E-04
5.971419E+03	5.187980E-02	4.947358E-04
5.981354E+03	5.001582E-02	4.743802E-04
5.991290E+03	4.818755E-02	4.544134E-04
6.001226E+03	4.641650E-02	4.350577E-04
6.011162E+03	4.471532E-02	4.164465E-04
6.021098E+03	4.309461E-02	3.986895E-04
6.031033E+03	4.156195E-02	3.818642E-04
6.040969E+03	4.011880E-02	3.659887E-04
6.050905E+03	3.876618E-02	3.510747E-04
6.060841E+03	3.750434E-02	3.371256E-04
6.070777E+03	3.633471E-02	3.241534E-04
6.080713E+03	3.525771E-02	3.121599E-04
6.090648E+03	3.427471E-02	3.011542E-04
6.100584E+03	3.338843E-02	2.911561E-04
6.110520E+03	3.260249E-02	2.821921E-04
6.120456E+03	3.192069E-02	2.742896E-04
6.130392E+03	3.134920E-02	2.674958E-04
6.140327E+03	3.089558E-02	2.618690E-04
6.150263E+03	3.056733E-02	2.574676E-04
6.160199E+03	3.036943E-02	2.543295E-04
6.170135E+03	3.030825E-02	2.525068E-04
6.180071E+03	3.038762E-02	2.520336E-04
6.190006E+03	3.060231E-02	2.528741E-04
6.199942E+03	3.094555E-02	2.549863E-04
6.209878E+03	3.141163E-02	2.583441E-04
6.219814E+03	3.199406E-02	2.629219E-04
6.229750E+03	3.268758E-02	2.687119E-04
6.239685E+03	3.348646E-02	2.757092E-04
6.249621E+03	3.438644E-02	2.839280E-04
6.259557E+03	3.538249E-02	2.933829E-04
6.269493E+03	3.646887E-02	3.040888E-04
6.279429E+03	3.763473E-02	3.160151E-04
6.289364E+03	3.886709E-02	3.290966E-04
6.299300E+03	4.014987E-02	3.432365E-04
6.309236E+03	4.145695E-02	3.582455E-04
6.319172E+03	4.275873E-02	3.738922E-04
6.329108E+03	4.402118E-02	3.898906E-04
6.339043E+03	4.521217E-02	4.059508E-04
6.348979E+03	4.629688E-02	4.217359E-04
6.358915E+03	4.724830E-02	4.369557E-04
6.368851E+03	4.807428E-02	4.516235E-04
6.378787E+03	4.879351E-02	4.658538E-04
6.388722E+03	4.943060E-02	4.798235E-04
6.398658E+03	5.005193E-02	4.941335E-04
6.408594E+03	5.072491E-02	5.094368E-04
6.418530E+03	5.150713E-02	5.263327E-04
6.428466E+03	5.243895E-02	5.452835E-04
6.438401E+03	5.349884E-02	5.661288E-04
6.448337E+03	5.463262E-02	5.883432E-04
6.458273E+03	5.579852E-02	6.114976E-04
6.468209E+03	5.694827E-02	6.350590E-04
6.478145E+03	5.802742E-02	6.583863E-04
6.488081E+03	5.899316E-02	6.809293E-04
6.498016E+03	5.980326E-02	7.021097E-04
6.507952E+03	6.041571E-02	7.213169E-04
6.517888E+03	6.080280E-02	7.380797E-04
6.527824E+03	6.094157E-02	7.519624E-04
6.537760E+03	6.081555E-02	7.625929E-04
6.547695E+03	6.042179E-02	7.697582E-04
6.557631E+03	5.976708E-02	7.733703E-04
6.567567E+03	5.886308E-02	7.734129E-04
6.577503E+03	5.773222E-02	7.700244E-04
6.587439E+03	5.640306E-02	7.634469E-04
6.597374E+03	5.490689E-02	7.539854E-04
6.607310E+03	5.327846E-02	7.420204E-04
6.617246E+03	5.155381E-02	7.279814E-04
6.627182E+03	4.976579E-02	7.122818E-04
6.637118E+03	4.794758E-02	6.953679E-04
6.647053E+03	4.612818E-02	6.776518E-04
6.656989E+03	4.433289E-02	6.595139E-04
6.666925E+03	4.258152E-02	6.412716E-04
6.676861E+03	4.089137E-02	6.232199E-04
6.686797E+03	3.927561E-02	6.056023E-04
6.696732E+03	3.774287E-02	5.886013E-04
6.706668E+03	3.629906E-02	5.723622E-04
6.716604E+03	3.494830E-02	5.570051E-04
6.726540E+03	3.369047E-02	5.425838E-04
6.736476E+03	3.252588E-02	5.291581E-04
6.746411E+03	3.145194E-02	5.167395E-04
6.756347E+03	3.046646E-02	5.053426E-04
6.766283E+03	2.956579E-02	4.949553E-04
6.776219E+03	2.874517E-02	4.855435E-04
6.786155E+03	2.800102E-02	4.770881E-04
6.796090E+03	2.732845E-02	4.695453E-04
6.806026E+03	2.672341E-02	4.628807E-04
6.815962E+03	2.618071E-02	4.570369E-04
6.825898E+03	2.569567E-02	4.519617E-04
6.835834E+03	2.526381E-02	4.476022E-04
6.845769E+03	2.488089E-02	4.439069E-04
6.855705E+03	2.454217E-02	4.408118E-04
6.865641E+03	2.424341E-02	4.382591E-04
6.875577E+03	2.398016E-02	4.361841E-04
6.885513E+03	2.374844E-02	4.345279E-04
6.895449E+03	2.354360E-02	4.332169E-04
6.905384E+03	2.336265E-02	4.322054E-04
6.915320E+03	2.320189E-02	4.314333E-04
6.925256E+03	2.305841E-02	4.308528E-04
6.935192E+03	2.293031E-02	4.304340E-04
6.945128E+03	2.281512E-02	4.301350E-04
6.955063E+03	2.271178E-02	4.299396E-04
6.964999E+03	2.261954E-02	4.298367E-04
6.974935E+03	2.253799E-02	4.298215E-04
6.984871E+03	2.246702E-02	4.298945E-04
6.994807E+03	2.240651E-02	4.300556E-04
7.004742E+03	2.235760E-02	4.303286E-04
7.014678E+03	2.232017E-02	4.307133E-04
7.024614E+03	2.229514E-02	4.312290E-04
7.034550E+03	2.228281E-02	4.318830E-04
7.044486E+03	2.228420E-02	4.326962E-04
7.054421E+03	2.229947E-02	4.336725E-04
7.064357E+03	2.232944E-02	4.348288E-04
7.074293E+03	2.237456E-02	4.361737E-04
7.084229E+03	2.243445E-02	4.376996E-04
7.094165E+03	2.251035E-02	4.394306E-04
7.104100E+03	2.260133E-02	4.413472E-04
7.114036E+03	2.270797E-02	4.434592E-04
7.123972E+03	2.282926E-02	4.457454E-04
7.133908E+03	2.296551E-02	4.482093E-04
7.143844E+03	2.311580E-02	4.508306E-04
7.153779E+03	2.327942E-02	4.535921E-04
7.163715E+03	2.345593E-02	4.564821E-04
7.173651E+03	2.364383E-02	4.594674E-04
7.183587E+03	2.384262E-02	4.625347E-04
7.193523E+03	2.405101E-02	4.656546E-04
7.203458E+03	2.426903E-02	4.688236E-04
7.213394E+03	2.449514E-02	4.720072E-04
7.223330E+03	2.472925E-02	4.751994E-04
7.233266E+03	2.496929E-02	4.783555E-04
7.243202E+03	2.521552E-02	4.814759E-04
7.253137E+03	2.546594E-02	4.845180E-04
7.263073E+03	2.571949E-02	4.874570E-04
7.273009E+03	2.597404E-02	4.902485E-04
7.282945E+03	2.622812E-02	4.928613E-04
7.292881E+03	2.647906E-02	4.952419E-04
7.302817E+03	2.672488E-02	4.973507E-04
7.312752E+03	2.696305E-02	4.991395E-04
7.322688E+03	2.719004E-02	5.005420E-04
7.332624E+03	2.740453E-02	5.015351E-04
7.342560E+03	2.760259E-02	5.020488E-04
7.352496E+03	2.778329E-02	5.020694E-04
7.362431E+03	2.794362E-02	5.015473E-04
7.372367E+03	2.808232E-02	5.004659E-04
7.382303E+03	2.819785E-02	4.988055E-04
7.392239E+03	2.829062E-02	4.965814E-04
7.402175E+03	2.835962E-02	4.937854E-04
7.412110E+03	2.840578E-02	4.904438E-04
7.422046E+03	2.843109E-02	4.866013E-04
7.431982E+03	2.843701E-02	4.822934E-04
7.441918E+03	2.842676E-02	4.775845E-04
7.451854E+03	2.840246E-02	4.725196E-04
7.461789E+03	2.836831E-02	4.671771E-04
7.471725E+03	2.832641E-02	4.615983E-04
7.481661E+03	2.828033E-02	4.558477E-04
7.491597E+03	2.823296E-02	4.499766E-04
7.501533E+03	2.818646E-02	4.440227E-04
7.511468E+03	2.814269E-02	4.380179E-04
7.521404E+03	2.810282E-02	4.319823E-04
7.531340E+03	2.806851E-02	4.259424E-04
7.541276E+03	2.804067E-02	4.199125E-04
7.551212E+03	2.801995E-02	4.139026E-04
7.561147E+03	2.800665E-02	4.079172E-04
7.571083E+03	2.800031E-02	4.019495E-04
7.581019E+03	2.800112E-02	3.960031E-04
7.590955E+03	2.800817E-02	3.900662E-04
7.600891E+03	2.801973E-02	3.841167E-04
7.610826E+03	2.803502E-02	3.781477E-04
7.620762E+03	2.804997E-02	3.721098E-04
7.630698E+03	2.806155E-02	3.659710E-04
7.640634E+03	2.806560E-02	3.596889E-04
7.650570E+03	2.805958E-02	3.532458E-04
7.660505E+03	2.803892E-02	3.466020E-04
7.670441E+03	2.800100E-02	3.397471E-04
7.680377E+03	2.794401E-02	3.326835E-04
7.690313E+03	2.786618E-02	3.254166E-04
7.700249E+03	2.776720E-02	3.179713E-04
7.710184E+03	2.764720E-02	3.103790E-04
