#wls	flux	fluxerr
1.589729E+03	9.978951E-04	1.270733E-05
1.629472E+03	9.779858E-04	1.243004E-05
1.669215E+03	9.575992E-04	1.214706E-05
1.708958E+03	9.369872E-04	1.186165E-05
1.748702E+03	9.159255E-04	1.157101E-05
1.788445E+03	8.943649E-04	1.127459E-05
1.828188E+03	8.715882E-04	1.096345E-05
1.867931E+03	8.471430E-04	1.063202E-05
1.907675E+03	8.202759E-04	1.027107E-05
1.947418E+03	7.910123E-04	9.881169E-06
1.987161E+03	7.595523E-04	9.465074E-06
2.026904E+03	7.281667E-04	9.051274E-06
2.066647E+03	7.005586E-04	8.685731E-06
2.106391E+03	6.819406E-04	8.432598E-06
2.146134E+03	6.767413E-04	8.345637E-06
2.185877E+03	6.860908E-04	8.437404E-06
2.225620E+03	7.082410E-04	8.684931E-06
2.265363E+03	7.392818E-04	9.038995E-06
2.305107E+03	7.753015E-04	9.450868E-06
2.344850E+03	8.134692E-04	9.885495E-06
2.384593E+03	8.524819E-04	1.032674E-05
2.424336E+03	8.913818E-04	1.076282E-05
2.464080E+03	9.303560E-04	1.119589E-05
2.503823E+03	9.697357E-04	1.162979E-05
2.543566E+03	1.009640E-03	1.206577E-05
2.583309E+03	1.050529E-03	1.250913E-05
2.623052E+03	1.092858E-03	1.296501E-05
2.662796E+03	1.137061E-03	1.343820E-05
2.702539E+03	1.183364E-03	1.393098E-05
2.742282E+03	1.232328E-03	1.444947E-05
2.782025E+03	1.284132E-03	1.499524E-05
2.821769E+03	1.339504E-03	1.557617E-05
2.861512E+03	1.398606E-03	1.619344E-05
2.901255E+03	1.461976E-03	1.685246E-05
2.940998E+03	1.530363E-03	1.756101E-05
2.980741E+03	1.603928E-03	1.831987E-05
2.990677E+03	1.623222E-03	1.851840E-05
3.000613E+03	1.643008E-03	1.872190E-05
3.010549E+03	1.663080E-03	1.892801E-05
3.020485E+03	1.683668E-03	1.913933E-05
3.030420E+03	1.704840E-03	1.935661E-05
3.040356E+03	1.726464E-03	1.957831E-05
3.050292E+03	1.748732E-03	1.980659E-05
3.060228E+03	1.771418E-03	2.003887E-05
3.070164E+03	1.794933E-03	2.027976E-05
3.080099E+03	1.818842E-03	2.052432E-05
3.090035E+03	1.843561E-03	2.077720E-05
3.099971E+03	1.868653E-03	2.103346E-05
3.109907E+03	1.894538E-03	2.129780E-05
3.119843E+03	1.920781E-03	2.156528E-05
3.129779E+03	1.947804E-03	2.184064E-05
3.139714E+03	1.975390E-03	2.212137E-05
3.149650E+03	2.003530E-03	2.240738E-05
3.159586E+03	2.032222E-03	2.269859E-05
3.169522E+03	2.061682E-03	2.299740E-05
3.179458E+03	2.091910E-03	2.330374E-05
3.189393E+03	2.122683E-03	2.361512E-05
3.199329E+03	2.154220E-03	2.393393E-05
3.209265E+03	2.186301E-03	2.425769E-05
3.219201E+03	2.219148E-03	2.458882E-05
3.229137E+03	2.252761E-03	2.492729E-05
3.239072E+03	2.287142E-03	2.527308E-05
3.249008E+03	2.322294E-03	2.562617E-05
3.258944E+03	2.358218E-03	2.598655E-05
3.268880E+03	2.394918E-03	2.635419E-05
3.278816E+03	2.432624E-03	2.673160E-05
3.288751E+03	2.470882E-03	2.711374E-05
3.298687E+03	2.510385E-03	2.750817E-05
3.308623E+03	2.550446E-03	2.790729E-05
3.318559E+03	2.591762E-03	2.831870E-05
3.328495E+03	2.633876E-03	2.873734E-05
3.338430E+03	2.677024E-03	2.916573E-05
3.348366E+03	2.721212E-03	2.960388E-05
3.358302E+03	2.766445E-03	3.005180E-05
3.368238E+03	2.812729E-03	3.050948E-05
3.378174E+03	2.860306E-03	3.097948E-05
3.388109E+03	2.908947E-03	3.145926E-05
3.398045E+03	2.958656E-03	3.194880E-05
3.407981E+03	3.009678E-03	3.245067E-05
3.417917E+03	3.061782E-03	3.296233E-05
3.427853E+03	3.115449E-03	3.348887E-05
3.437788E+03	3.170212E-03	3.402519E-05
3.447724E+03	3.226554E-03	3.457640E-05
3.457660E+03	3.284242E-03	3.513994E-05
3.467596E+03	3.343285E-03	3.571579E-05
3.477532E+03	3.403930E-03	3.630654E-05
3.487467E+03	3.465941E-03	3.690956E-05
3.497403E+03	3.529569E-03	3.752744E-05
3.507339E+03	3.594819E-03	3.816016E-05
3.517275E+03	3.661697E-03	3.880767E-05
3.527211E+03	3.730211E-03	3.946996E-05
3.537146E+03	3.800611E-03	4.014957E-05
3.547082E+03	3.872656E-03	4.084387E-05
3.557018E+03	3.946353E-03	4.155281E-05
3.566954E+03	4.022199E-03	4.228152E-05
3.576890E+03	4.099702E-03	4.302473E-05
3.586826E+03	4.179362E-03	4.378754E-05
3.596761E+03	4.260934E-03	4.456729E-05
3.606697E+03	4.344417E-03	4.536385E-05
3.616633E+03	4.430062E-03	4.617971E-05
3.626569E+03	4.517615E-03	4.701210E-05
3.636505E+03	4.607574E-03	4.786608E-05
3.646440E+03	4.699431E-03	4.873624E-05
3.656376E+03	4.793681E-03	4.962757E-05
3.666312E+03	4.890060E-03	5.053721E-05
3.676248E+03	4.988552E-03	5.146487E-05
3.686184E+03	5.089643E-03	5.241539E-05
3.696119E+03	5.192804E-03	5.338322E-05
3.706055E+03	5.298258E-03	5.437048E-05
3.715991E+03	5.405970E-03	5.537668E-05
3.725927E+03	5.516150E-03	5.640383E-05
3.735863E+03	5.628499E-03	5.744872E-05
3.745798E+03	5.743205E-03	5.851312E-05
3.755734E+03	5.860207E-03	5.959627E-05
3.765670E+03	5.979168E-03	6.069459E-05
3.775606E+03	6.100516E-03	6.181230E-05
3.785542E+03	6.223891E-03	6.294561E-05
3.795477E+03	6.349184E-03	6.409327E-05
3.805413E+03	6.476528E-03	6.525650E-05
3.815349E+03	6.605786E-03	6.643380E-05
3.825285E+03	6.736557E-03	6.762099E-05
3.835221E+03	6.868943E-03	6.881901E-05
3.845156E+03	7.002765E-03	7.002594E-05
3.855092E+03	7.137850E-03	7.123996E-05
3.865028E+03	7.274008E-03	7.245908E-05
3.874964E+03	7.411294E-03	7.368378E-05
3.884900E+03	7.548994E-03	7.490689E-05
3.894835E+03	7.687421E-03	7.613146E-05
3.904771E+03	7.826366E-03	7.735535E-05
3.914707E+03	7.965362E-03	7.857393E-05
3.924643E+03	8.104209E-03	7.978519E-05
3.934579E+03	8.242964E-03	8.098970E-05
3.944514E+03	8.381440E-03	8.218560E-05
3.954450E+03	8.518955E-03	8.336624E-05
3.964386E+03	8.656110E-03	8.453749E-05
3.974322E+03	8.791997E-03	8.569055E-05
3.984258E+03	8.927004E-03	8.682923E-05
3.994194E+03	9.061011E-03	8.795242E-05
4.004129E+03	9.193443E-03	8.905458E-05
4.014065E+03	9.324496E-03	9.013769E-05
4.024001E+03	9.454367E-03	9.120373E-05
4.033937E+03	9.582553E-03	9.224792E-05
4.043873E+03	9.709073E-03	9.327052E-05
4.053808E+03	9.834200E-03	9.427425E-05
4.063744E+03	9.957744E-03	9.525737E-05
4.073680E+03	1.007978E-02	9.622072E-05
4.083616E+03	1.020017E-02	9.716292E-05
4.093552E+03	1.031925E-02	9.808746E-05
4.103487E+03	1.043669E-02	9.899112E-05
4.113423E+03	1.055307E-02	9.987967E-05
4.123359E+03	1.066786E-02	1.007480E-04
4.133295E+03	1.078145E-02	1.015999E-04
4.143231E+03	1.089400E-02	1.024369E-04
4.153166E+03	1.100521E-02	1.032565E-04
4.163102E+03	1.111548E-02	1.040623E-04
4.173038E+03	1.122477E-02	1.048540E-04
4.182974E+03	1.133301E-02	1.056311E-04
4.192910E+03	1.144040E-02	1.063953E-04
4.202845E+03	1.154708E-02	1.071483E-04
4.212781E+03	1.165280E-02	1.078876E-04
4.222717E+03	1.175772E-02	1.086148E-04
4.232653E+03	1.186180E-02	1.093297E-04
4.242589E+03	1.196521E-02	1.100337E-04
4.252524E+03	1.206769E-02	1.107245E-04
4.262460E+03	1.216961E-02	1.114057E-04
4.272396E+03	1.227052E-02	1.120732E-04
4.282332E+03	1.237101E-02	1.127324E-04
4.292268E+03	1.247043E-02	1.133774E-04
4.302203E+03	1.256917E-02	1.140118E-04
4.312139E+03	1.266702E-02	1.146337E-04
4.322075E+03	1.276415E-02	1.152450E-04
4.332011E+03	1.286018E-02	1.158420E-04
4.341947E+03	1.295531E-02	1.164267E-04
4.351882E+03	1.304934E-02	1.169975E-04
4.361818E+03	1.314228E-02	1.175544E-04
4.371754E+03	1.323374E-02	1.180940E-04
4.381690E+03	1.332369E-02	1.186164E-04
4.391626E+03	1.341172E-02	1.191177E-04
4.401562E+03	1.349739E-02	1.195944E-04
4.411497E+03	1.358041E-02	1.200440E-04
4.421433E+03	1.366029E-02	1.204624E-04
4.431369E+03	1.373687E-02	1.208484E-04
4.441305E+03	1.381054E-02	1.212057E-04
4.451241E+03	1.388146E-02	1.215357E-04
4.461176E+03	1.394952E-02	1.218380E-04
4.471112E+03	1.401538E-02	1.221182E-04
4.481048E+03	1.407850E-02	1.223718E-04
4.490984E+03	1.413907E-02	1.226008E-04
4.500920E+03	1.419704E-02	1.228049E-04
4.510855E+03	1.425236E-02	1.229837E-04
4.520791E+03	1.430474E-02	1.231350E-04
4.530727E+03	1.435410E-02	1.232582E-04
4.540663E+03	1.440011E-02	1.233508E-04
4.550599E+03	1.444266E-02	1.234120E-04
4.560534E+03	1.448145E-02	1.234394E-04
4.570470E+03	1.451636E-02	1.234324E-04
4.580406E+03	1.454729E-02	1.233903E-04
4.590342E+03	1.457381E-02	1.233097E-04
4.600278E+03	1.459624E-02	1.231937E-04
4.610213E+03	1.461403E-02	1.230379E-04
4.620149E+03	1.462740E-02	1.228443E-04
4.630085E+03	1.463641E-02	1.226139E-04
4.640021E+03	1.464102E-02	1.223465E-04
4.649957E+03	1.464119E-02	1.220422E-04
4.659892E+03	1.463750E-02	1.217060E-04
4.669828E+03	1.462983E-02	1.213372E-04
4.679764E+03	1.461845E-02	1.209383E-04
4.689700E+03	1.460387E-02	1.205137E-04
4.699636E+03	1.458642E-02	1.200665E-04
4.709571E+03	1.456629E-02	1.195982E-04
4.719507E+03	1.454402E-02	1.191135E-04
4.729443E+03	1.451999E-02	1.186158E-04
4.739379E+03	1.449460E-02	1.181083E-04
4.749315E+03	1.446857E-02	1.175971E-04
4.759250E+03	1.444194E-02	1.170824E-04
4.769186E+03	1.441491E-02	1.165660E-04
4.779122E+03	1.438767E-02	1.160495E-04
4.789058E+03	1.436024E-02	1.155331E-04
4.798994E+03	1.433279E-02	1.150180E-04
4.808930E+03	1.430531E-02	1.145044E-04
4.818865E+03	1.427795E-02	1.139933E-04
4.828801E+03	1.425066E-02	1.134844E-04
4.838737E+03	1.422358E-02	1.129789E-04
4.848673E+03	1.419682E-02	1.124775E-04
4.858609E+03	1.417031E-02	1.119798E-04
4.868544E+03	1.414416E-02	1.114866E-04
4.878480E+03	1.411862E-02	1.110001E-04
4.888416E+03	1.409349E-02	1.105183E-04
4.898352E+03	1.406919E-02	1.100448E-04
4.908288E+03	1.404552E-02	1.095778E-04
4.918223E+03	1.402277E-02	1.091197E-04
4.928159E+03	1.400107E-02	1.086714E-04
4.938095E+03	1.398043E-02	1.082331E-04
4.948031E+03	1.396118E-02	1.078070E-04
4.957967E+03	1.394351E-02	1.073949E-04
4.967902E+03	1.392762E-02	1.069979E-04
4.977838E+03	1.391360E-02	1.066168E-04
4.987774E+03	1.390183E-02	1.062544E-04
4.997710E+03	1.389256E-02	1.059124E-04
5.007646E+03	1.388606E-02	1.055930E-04
5.017581E+03	1.388259E-02	1.052978E-04
5.027517E+03	1.388245E-02	1.050289E-04
5.037453E+03	1.388589E-02	1.047883E-04
5.047389E+03	1.389321E-02	1.045778E-04
5.057325E+03	1.390482E-02	1.044004E-04
5.067260E+03	1.392084E-02	1.042569E-04
5.077196E+03	1.394151E-02	1.041487E-04
5.087132E+03	1.396707E-02	1.040775E-04
5.097068E+03	1.399788E-02	1.040457E-04
5.107004E+03	1.403413E-02	1.040544E-04
5.116939E+03	1.407583E-02	1.041036E-04
5.126875E+03	1.412313E-02	1.041940E-04
5.136811E+03	1.417644E-02	1.043284E-04
5.146747E+03	1.423553E-02	1.045049E-04
5.156683E+03	1.430060E-02	1.047246E-04
5.166618E+03	1.437167E-02	1.049876E-04
5.176554E+03	1.444872E-02	1.052932E-04
5.186490E+03	1.453169E-02	1.056410E-04
5.196426E+03	1.462050E-02	1.060300E-04
5.206362E+03	1.471504E-02	1.064592E-04
5.216298E+03	1.481514E-02	1.069272E-04
5.226233E+03	1.492064E-02	1.074327E-04
5.236169E+03	1.503146E-02	1.079750E-04
5.246105E+03	1.514722E-02	1.085510E-04
5.256041E+03	1.526764E-02	1.091586E-04
5.265977E+03	1.539258E-02	1.097967E-04
5.275912E+03	1.552138E-02	1.104606E-04
5.285848E+03	1.565416E-02	1.111510E-04
5.295784E+03	1.579004E-02	1.118616E-04
5.305720E+03	1.592892E-02	1.125916E-04
5.315656E+03	1.607032E-02	1.133377E-04
5.325591E+03	1.621342E-02	1.140941E-04
5.335527E+03	1.635801E-02	1.148593E-04
5.345463E+03	1.650349E-02	1.156293E-04
5.355399E+03	1.664891E-02	1.163975E-04
5.365335E+03	1.679393E-02	1.171617E-04
5.375270E+03	1.693769E-02	1.179160E-04
5.385206E+03	1.707965E-02	1.186569E-04
5.395142E+03	1.721870E-02	1.193769E-04
5.405078E+03	1.735446E-02	1.200738E-04
5.415014E+03	1.748588E-02	1.207405E-04
5.424949E+03	1.761258E-02	1.213748E-04
5.434885E+03	1.773359E-02	1.219701E-04
5.444821E+03	1.784863E-02	1.225250E-04
5.454757E+03	1.795678E-02	1.230335E-04
5.464693E+03	1.805788E-02	1.234946E-04
5.474628E+03	1.815145E-02	1.239056E-04
5.484564E+03	1.823672E-02	1.242614E-04
5.494500E+03	1.831387E-02	1.245636E-04
5.504436E+03	1.838206E-02	1.248067E-04
5.514372E+03	1.844140E-02	1.249921E-04
5.524307E+03	1.849159E-02	1.251178E-04
5.534243E+03	1.853255E-02	1.251838E-04
5.544179E+03	1.856431E-02	1.251905E-04
5.554115E+03	1.858698E-02	1.251390E-04
5.564051E+03	1.860077E-02	1.250309E-04
5.573986E+03	1.860596E-02	1.248685E-04
5.583922E+03	1.860309E-02	1.246556E-04
5.593858E+03	1.859239E-02	1.243940E-04
5.603794E+03	1.857434E-02	1.240871E-04
5.613730E+03	1.854947E-02	1.237386E-04
5.623665E+03	1.851849E-02	1.233535E-04
5.633601E+03	1.848158E-02	1.229332E-04
5.643537E+03	1.843966E-02	1.224837E-04
5.653473E+03	1.839307E-02	1.220075E-04
5.663409E+03	1.834248E-02	1.215091E-04
5.673345E+03	1.828798E-02	1.209892E-04
5.683280E+03	1.823014E-02	1.204517E-04
5.693216E+03	1.816947E-02	1.198999E-04
5.703152E+03	1.810588E-02	1.193331E-04
5.713088E+03	1.803972E-02	1.187540E-04
5.723024E+03	1.797112E-02	1.181631E-04
5.732959E+03	1.790013E-02	1.175610E-04
5.742895E+03	1.782673E-02	1.169474E-04
5.752831E+03	1.775065E-02	1.163207E-04
5.762767E+03	1.767178E-02	1.156801E-04
5.772703E+03	1.759013E-02	1.150257E-04
5.782638E+03	1.750530E-02	1.143549E-04
5.792574E+03	1.741727E-02	1.136675E-04
5.802510E+03	1.732547E-02	1.129599E-04
5.812446E+03	1.723002E-02	1.122330E-04
5.822382E+03	1.713040E-02	1.114832E-04
5.832317E+03	1.702678E-02	1.107117E-04
5.842253E+03	1.691871E-02	1.099157E-04
5.852189E+03	1.680628E-02	1.090957E-04
5.862125E+03	1.668934E-02	1.082508E-04
5.872061E+03	1.656809E-02	1.073823E-04
5.881996E+03	1.644249E-02	1.064899E-04
5.891932E+03	1.631274E-02	1.055749E-04
5.901868E+03	1.617910E-02	1.046390E-04
5.911804E+03	1.604204E-02	1.036852E-04
5.921740E+03	1.590164E-02	1.027141E-04
5.931675E+03	1.575848E-02	1.017292E-04
5.941611E+03	1.561304E-02	1.007338E-04
5.951547E+03	1.546569E-02	9.972999E-05
5.961483E+03	1.531696E-02	9.872135E-05
5.971419E+03	1.516742E-02	9.771144E-05
5.981354E+03	1.501779E-02	9.670477E-05
5.991290E+03	1.486836E-02	9.570312E-05
6.001226E+03	1.471967E-02	9.470998E-05
6.011162E+03	1.457242E-02	9.372974E-05
6.021098E+03	1.442686E-02	9.276392E-05
6.031033E+03	1.428376E-02	9.181734E-05
6.040969E+03	1.414316E-02	9.089027E-05
6.050905E+03	1.400577E-02	8.998710E-05
6.060841E+03	1.387169E-02	8.910851E-05
6.070777E+03	1.374143E-02	8.825753E-05
6.080713E+03	1.361512E-02	8.743507E-05
6.090648E+03	1.349291E-02	8.664197E-05
6.100584E+03	1.337528E-02	8.588120E-05
6.110520E+03	1.326226E-02	8.515299E-05
6.120456E+03	1.315399E-02	8.445814E-05
6.130392E+03	1.305071E-02	8.379811E-05
6.140327E+03	1.295248E-02	8.317320E-05
6.150263E+03	1.285943E-02	8.258435E-05
6.160199E+03	1.277133E-02	8.202994E-05
6.170135E+03	1.268813E-02	8.150967E-05
6.180071E+03	1.260991E-02	8.102409E-05
6.190006E+03	1.253647E-02	8.057175E-05
6.199942E+03	1.246783E-02	8.015287E-05
6.209878E+03	1.240397E-02	7.976735E-05
6.219814E+03	1.234463E-02	7.941348E-05
6.229750E+03	1.228989E-02	7.909173E-05
6.239685E+03	1.223942E-02	7.880012E-05
6.249621E+03	1.219326E-02	7.853878E-05
6.259557E+03	1.215117E-02	7.830615E-05
6.269493E+03	1.211288E-02	7.810046E-05
6.279429E+03	1.207824E-02	7.792067E-05
6.289364E+03	1.204692E-02	7.776465E-05
6.299300E+03	1.201871E-02	7.763092E-05
6.309236E+03	1.199310E-02	7.751627E-05
6.319172E+03	1.196972E-02	7.741812E-05
6.329108E+03	1.194834E-02	7.733505E-05
6.339043E+03	1.192851E-02	7.726406E-05
6.348979E+03	1.190948E-02	7.720026E-05
6.358915E+03	1.189084E-02	7.714092E-05
6.368851E+03	1.187215E-02	7.708305E-05
6.378787E+03	1.185255E-02	7.702116E-05
6.388722E+03	1.183158E-02	7.695204E-05
6.398658E+03	1.180847E-02	7.687067E-05
6.408594E+03	1.178248E-02	7.677206E-05
6.418530E+03	1.175310E-02	7.665284E-05
6.428466E+03	1.171937E-02	7.650650E-05
6.438401E+03	1.168057E-02	7.632833E-05
6.448337E+03	1.163629E-02	7.611539E-05
6.458273E+03	1.158578E-02	7.586262E-05
6.468209E+03	1.152859E-02	7.556686E-05
6.478145E+03	1.146458E-02	7.522700E-05
6.488081E+03	1.139367E-02	7.484227E-05
6.498016E+03	1.131561E-02	7.441083E-05
6.507952E+03	1.123035E-02	7.393217E-05
6.517888E+03	1.113817E-02	7.340784E-05
6.527824E+03	1.103884E-02	7.283607E-05
6.537760E+03	1.093269E-02	7.221892E-05
6.547695E+03	1.082003E-02	7.155807E-05
6.557631E+03	1.070101E-02	7.085437E-05
6.567567E+03	1.057610E-02	7.011072E-05
6.577503E+03	1.044586E-02	6.933064E-05
6.587439E+03	1.031056E-02	6.851568E-05
6.597374E+03	1.017112E-02	6.767174E-05
6.607310E+03	1.002790E-02	6.680115E-05
6.617246E+03	9.881689E-03	6.590893E-05
6.627182E+03	9.733151E-03	6.499942E-05
6.637118E+03	9.582874E-03	6.407642E-05
6.647053E+03	9.431768E-03	6.314592E-05
6.656989E+03	9.280419E-03	6.221177E-05
6.666925E+03	9.129396E-03	6.127772E-05
6.676861E+03	8.979554E-03	6.034949E-05
6.686797E+03	8.831311E-03	5.942987E-05
6.696732E+03	8.685338E-03	5.852337E-05
6.706668E+03	8.542182E-03	5.763370E-05
6.716604E+03	8.402424E-03	5.676482E-05
6.726540E+03	8.266309E-03	5.591842E-05
6.736476E+03	8.134328E-03	5.509792E-05
6.746411E+03	8.006718E-03	5.430498E-05
6.756347E+03	7.883964E-03	5.354299E-05
6.766283E+03	7.766202E-03	5.281297E-05
6.776219E+03	7.653546E-03	5.211581E-05
6.786155E+03	7.546320E-03	5.145381E-05
6.796090E+03	7.444458E-03	5.082667E-05
6.806026E+03	7.348118E-03	5.023560E-05
6.815962E+03	7.257331E-03	4.968091E-05
6.825898E+03	7.172018E-03	4.916221E-05
6.835834E+03	7.092326E-03	4.868064E-05
6.845769E+03	7.018035E-03	4.823484E-05
6.855705E+03	6.949249E-03	4.782563E-05
6.865641E+03	6.885699E-03	4.745132E-05
6.875577E+03	6.827370E-03	4.711192E-05
6.885513E+03	6.774137E-03	4.680671E-05
6.895449E+03	6.725794E-03	4.653440E-05
6.905384E+03	6.682364E-03	4.629526E-05
6.915320E+03	6.643619E-03	4.608784E-05
6.925256E+03	6.609322E-03	4.591062E-05
6.935192E+03	6.579405E-03	4.576324E-05
6.945128E+03	6.553794E-03	4.564529E-05
6.955063E+03	6.532162E-03	4.555462E-05
6.964999E+03	6.514447E-03	4.549089E-05
6.974935E+03	6.500478E-03	4.545300E-05
6.984871E+03	6.490187E-03	4.544059E-05
6.994807E+03	6.483263E-03	4.545156E-05
7.004742E+03	6.479632E-03	4.548549E-05
7.014678E+03	6.479149E-03	4.554144E-05
7.024614E+03	6.481675E-03	4.561852E-05
7.034550E+03	6.487063E-03	4.571578E-05
7.044486E+03	6.495261E-03	4.583292E-05
7.054421E+03	6.505965E-03	4.596787E-05
7.064357E+03	6.519215E-03	4.612098E-05
7.074293E+03	6.534786E-03	4.629074E-05
7.084229E+03	6.552566E-03	4.647639E-05
7.094165E+03	6.572430E-03	4.667712E-05
7.104100E+03	6.594240E-03	4.689201E-05
7.114036E+03	6.617976E-03	4.712096E-05
7.123972E+03	6.643423E-03	4.736249E-05
7.133908E+03	6.670474E-03	4.761589E-05
7.143844E+03	6.698999E-03	4.788028E-05
7.153779E+03	6.728979E-03	4.815556E-05
7.163715E+03	6.760206E-03	4.844028E-05
7.173651E+03	6.792660E-03	4.873433E-05
7.183587E+03	6.826132E-03	4.903627E-05
7.193523E+03	6.860599E-03	4.934594E-05
7.203458E+03	6.895871E-03	4.966200E-05
7.213394E+03	6.931917E-03	4.998428E-05
7.223330E+03	6.968542E-03	5.031138E-05
7.233266E+03	7.005730E-03	5.064321E-05
7.243202E+03	7.043369E-03	5.097898E-05
7.253137E+03	7.081358E-03	5.131798E-05
7.263073E+03	7.119504E-03	5.165882E-05
7.273009E+03	7.157794E-03	5.200143E-05
7.282945E+03	7.196138E-03	5.234517E-05
7.292881E+03	7.234436E-03	5.268930E-05
7.302817E+03	7.272596E-03	5.303318E-05
7.312752E+03	7.310626E-03	5.337687E-05
7.322688E+03	7.348341E-03	5.371902E-05
7.332624E+03	7.385662E-03	5.405906E-05
7.342560E+03	7.422610E-03	5.439714E-05
7.352496E+03	7.459108E-03	5.473270E-05
7.362431E+03	7.495181E-03	5.506594E-05
7.372367E+03	7.530566E-03	5.539490E-05
7.382303E+03	7.565403E-03	5.572063E-05
7.392239E+03	7.599627E-03	5.604265E-05
7.402175E+03	7.633085E-03	5.635981E-05
7.412110E+03	7.665711E-03	5.667164E-05
7.422046E+03	7.697460E-03	5.697780E-05
7.431982E+03	7.728173E-03	5.727708E-05
7.441918E+03	7.757790E-03	5.756905E-05
7.451854E+03	7.786273E-03	5.785340E-05
7.461789E+03	7.813456E-03	5.812890E-05
7.471725E+03	7.839396E-03	5.839593E-05
7.481661E+03	7.864029E-03	5.865402E-05
7.491597E+03	7.887100E-03	5.890125E-05
7.501533E+03	7.908750E-03	5.913864E-05
7.511468E+03	7.928712E-03	5.936417E-05
7.521404E+03	7.947019E-03	5.957807E-05
7.531340E+03	7.963601E-03	5.977979E-05
7.541276E+03	7.978272E-03	5.996788E-05
7.551212E+03	7.991063E-03	6.014257E-05
7.561147E+03	8.001882E-03	6.030312E-05
7.571083E+03	8.010529E-03	6.044798E-05
7.581019E+03	8.016900E-03	6.057633E-05
7.590955E+03	8.021010E-03	6.068823E-05
7.600891E+03	8.022636E-03	6.078195E-05
7.610826E+03	8.021668E-03	6.085660E-05
7.620762E+03	8.018102E-03	6.091210E-05
7.630698E+03	8.011604E-03	6.094583E-05
7.640634E+03	8.002289E-03	6.095861E-05
7.650570E+03	7.989924E-03	6.094859E-05
7.660505E+03	7.974522E-03	6.091580E-05
7.670441E+03	7.955761E-03	6.085769E-05
7.680377E+03	7.933764E-03	6.077510E-05
7.690313E+03	7.908348E-03	6.066657E-05
7.700249E+03	7.879541E-03	6.053221E-05
7.710184E+03	7.847074E-03	6.036983E-05
