#wls	flux	fluxerr
1.589729E+03	7.500689E-04	1.677575E-05
1.629472E+03	7.462661E-04	1.667544E-05
1.669215E+03	7.415252E-04	1.655394E-05
1.708958E+03	7.358396E-04	1.641117E-05
1.748702E+03	7.291269E-04	1.624536E-05
1.788445E+03	7.211550E-04	1.605141E-05
1.828188E+03	7.113076E-04	1.581571E-05
1.867931E+03	6.991586E-04	1.552894E-05
1.907675E+03	6.841663E-04	1.517925E-05
1.947418E+03	6.660404E-04	1.476044E-05
1.987161E+03	6.451816E-04	1.428163E-05
2.026904E+03	6.233930E-04	1.378295E-05
2.066647E+03	6.040363E-04	1.333873E-05
2.106391E+03	5.916353E-04	1.304857E-05
2.146134E+03	5.902314E-04	1.300094E-05
2.185877E+03	6.011341E-04	1.322371E-05
2.225620E+03	6.229594E-04	1.368538E-05
2.265363E+03	6.521444E-04	1.430676E-05
2.305107E+03	6.855885E-04	1.501919E-05
2.344850E+03	7.207963E-04	1.576760E-05
2.384593E+03	7.562220E-04	1.651799E-05
2.424336E+03	7.914984E-04	1.726222E-05
2.464080E+03	8.263919E-04	1.799515E-05
2.503823E+03	8.614348E-04	1.872830E-05
2.543566E+03	8.967530E-04	1.946429E-05
2.583309E+03	9.327568E-04	2.021189E-05
2.623052E+03	9.698500E-04	2.097967E-05
2.662796E+03	1.008416E-03	2.177569E-05
2.702539E+03	1.048957E-03	2.261050E-05
2.742282E+03	1.091664E-03	2.348788E-05
2.782025E+03	1.136848E-03	2.441412E-05
2.821769E+03	1.184952E-03	2.539832E-05
2.861512E+03	1.236568E-03	2.645262E-05
2.901255E+03	1.291662E-03	2.757573E-05
2.940998E+03	1.350962E-03	2.878259E-05
2.980741E+03	1.414889E-03	3.008136E-05
2.990677E+03	1.431659E-03	3.042174E-05
3.000613E+03	1.448797E-03	3.076944E-05
3.010549E+03	1.466140E-03	3.112106E-05
3.020485E+03	1.483870E-03	3.148039E-05
3.030420E+03	1.502045E-03	3.184866E-05
3.040356E+03	1.520729E-03	3.222724E-05
3.050292E+03	1.539908E-03	3.261576E-05
3.060228E+03	1.559566E-03	3.301390E-05
3.070164E+03	1.579691E-03	3.342139E-05
3.080099E+03	1.600272E-03	3.383794E-05
3.090035E+03	1.621297E-03	3.426330E-05
3.099971E+03	1.642755E-03	3.469723E-05
3.109907E+03	1.664637E-03	3.513950E-05
3.119843E+03	1.687101E-03	3.559343E-05
3.129779E+03	1.710140E-03	3.605887E-05
3.139714E+03	1.733413E-03	3.652855E-05
3.149650E+03	1.757246E-03	3.700940E-05
3.159586E+03	1.781636E-03	3.750127E-05
3.169522E+03	1.806407E-03	3.800047E-05
3.179458E+03	1.831723E-03	3.851042E-05
3.189393E+03	1.857411E-03	3.902746E-05
3.199329E+03	1.883806E-03	3.955860E-05
3.209265E+03	1.910563E-03	4.009659E-05
3.219201E+03	1.937851E-03	4.064491E-05
3.229137E+03	1.965664E-03	4.120346E-05
3.239072E+03	1.994001E-03	4.177217E-05
3.249008E+03	2.023030E-03	4.235455E-05
3.258944E+03	2.052405E-03	4.294330E-05
3.268880E+03	2.082467E-03	4.354557E-05
3.278816E+03	2.113043E-03	4.415767E-05
3.288751E+03	2.144303E-03	4.478316E-05
3.298687E+03	2.176071E-03	4.541832E-05
3.308623E+03	2.208518E-03	4.606672E-05
3.318559E+03	2.241469E-03	4.672463E-05
3.328495E+03	2.275096E-03	4.739564E-05
3.338430E+03	2.309398E-03	4.807968E-05
3.348366E+03	2.344371E-03	4.877665E-05
3.358302E+03	2.380013E-03	4.948648E-05
3.368238E+03	2.416499E-03	5.021277E-05
3.378174E+03	2.453474E-03	5.094808E-05
3.388109E+03	2.491287E-03	5.169967E-05
3.398045E+03	2.529759E-03	5.246377E-05
3.407981E+03	2.569064E-03	5.324394E-05
3.417917E+03	2.609022E-03	5.403643E-05
3.427853E+03	2.649806E-03	5.484478E-05
3.437788E+03	2.691591E-03	5.567259E-05
3.447724E+03	2.734017E-03	5.651232E-05
3.457660E+03	2.777257E-03	5.736758E-05
3.467596E+03	2.821307E-03	5.823818E-05
3.477532E+03	2.866340E-03	5.912770E-05
3.487467E+03	2.912173E-03	6.003227E-05
3.497403E+03	2.958798E-03	6.095173E-05
3.507339E+03	3.006389E-03	6.188960E-05
3.517275E+03	3.054939E-03	6.284570E-05
3.527211E+03	3.104442E-03	6.381984E-05
3.537146E+03	3.154889E-03	6.481180E-05
3.547082E+03	3.206451E-03	6.582506E-05
3.557018E+03	3.258761E-03	6.685200E-05
3.566954E+03	3.312169E-03	6.789977E-05
3.576890E+03	3.366485E-03	6.896442E-05
3.586826E+03	3.421878E-03	7.004938E-05
3.596761E+03	3.478338E-03	7.115436E-05
3.606697E+03	3.535853E-03	7.227907E-05
3.616633E+03	3.594409E-03	7.342321E-05
3.626569E+03	3.653995E-03	7.458645E-05
3.636505E+03	3.714777E-03	7.577214E-05
3.646440E+03	3.776559E-03	7.697624E-05
3.656376E+03	3.839508E-03	7.820206E-05
3.666312E+03	3.903426E-03	7.944556E-05
3.676248E+03	3.968479E-03	8.071003E-05
3.686184E+03	4.034828E-03	8.199869E-05
3.696119E+03	4.102097E-03	8.330382E-05
3.706055E+03	4.170626E-03	8.463230E-05
3.715991E+03	4.240215E-03	8.598000E-05
3.725927E+03	4.311026E-03	8.735014E-05
3.735863E+03	4.383037E-03	8.874220E-05
3.745798E+03	4.456047E-03	9.015208E-05
3.755734E+03	4.530393E-03	9.158651E-05
3.765670E+03	4.605695E-03	9.303777E-05
3.775606E+03	4.682287E-03	9.451251E-05
3.785542E+03	4.759967E-03	9.600661E-05
3.795477E+03	4.838889E-03	9.752313E-05
3.805413E+03	4.918851E-03	9.905790E-05
3.815349E+03	5.000005E-03	1.006140E-04
3.825285E+03	5.082148E-03	1.021871E-04
3.835221E+03	5.165609E-03	1.037840E-04
3.845156E+03	5.250009E-03	1.053969E-04
3.855092E+03	5.335676E-03	1.070323E-04
3.865028E+03	5.422399E-03	1.086859E-04
3.874964E+03	5.509990E-03	1.103539E-04
3.884900E+03	5.598938E-03	1.120461E-04
3.894835E+03	5.688697E-03	1.137514E-04
3.904771E+03	5.779590E-03	1.154763E-04
3.914707E+03	5.871587E-03	1.172200E-04
3.924643E+03	5.964319E-03	1.189753E-04
3.934579E+03	6.058279E-03	1.207518E-04
3.944514E+03	6.153101E-03	1.225422E-04
3.954450E+03	6.248751E-03	1.243458E-04
3.964386E+03	6.345392E-03	1.261658E-04
3.974322E+03	6.442819E-03	1.279980E-04
3.984258E+03	6.541190E-03	1.298455E-04
3.994194E+03	6.640481E-03	1.317079E-04
4.004129E+03	6.740327E-03	1.335778E-04
4.014065E+03	6.841062E-03	1.354618E-04
4.024001E+03	6.942489E-03	1.373559E-04
4.033937E+03	7.044601E-03	1.392600E-04
4.043873E+03	7.147378E-03	1.411737E-04
4.053808E+03	7.250812E-03	1.430967E-04
4.063744E+03	7.354726E-03	1.450255E-04
4.073680E+03	7.459278E-03	1.469633E-04
4.083616E+03	7.564293E-03	1.489064E-04
4.093552E+03	7.669937E-03	1.508583E-04
4.103487E+03	7.775868E-03	1.528120E-04
4.113423E+03	7.882092E-03	1.547678E-04
4.123359E+03	7.988769E-03	1.567287E-04
4.133295E+03	8.095578E-03	1.586884E-04
4.143231E+03	8.202852E-03	1.606534E-04
4.153166E+03	8.310100E-03	1.626142E-04
4.163102E+03	8.417505E-03	1.645742E-04
4.173038E+03	8.525071E-03	1.665335E-04
4.182974E+03	8.632646E-03	1.684893E-04
4.192910E+03	8.740082E-03	1.704385E-04
4.202845E+03	8.847557E-03	1.723847E-04
4.212781E+03	8.954607E-03	1.743188E-04
4.222717E+03	9.061572E-03	1.762475E-04
4.232653E+03	9.168146E-03	1.781649E-04
4.242589E+03	9.274347E-03	1.800712E-04
4.252524E+03	9.380042E-03	1.819640E-04
4.262460E+03	9.485091E-03	1.838405E-04
4.272396E+03	9.589359E-03	1.856983E-04
4.282332E+03	9.693023E-03	1.875407E-04
4.292268E+03	9.795629E-03	1.893590E-04
4.302203E+03	9.897211E-03	1.911539E-04
4.312139E+03	9.997632E-03	1.929230E-04
4.322075E+03	1.009676E-02	1.946635E-04
4.332011E+03	1.019445E-02	1.963731E-04
4.341947E+03	1.029060E-02	1.980494E-04
4.351882E+03	1.038490E-02	1.996869E-04
4.361818E+03	1.047739E-02	2.012866E-04
4.371754E+03	1.056765E-02	2.028401E-04
4.381690E+03	1.065585E-02	2.043511E-04
4.391626E+03	1.074175E-02	2.058149E-04
4.401562E+03	1.082505E-02	2.072263E-04
4.411497E+03	1.090567E-02	2.085835E-04
4.421433E+03	1.098381E-02	2.098904E-04
4.431369E+03	1.105906E-02	2.111397E-04
4.441305E+03	1.113161E-02	2.123351E-04
4.451241E+03	1.120152E-02	2.134778E-04
4.461176E+03	1.126884E-02	2.145689E-04
4.471112E+03	1.133347E-02	2.156064E-04
4.481048E+03	1.139559E-02	2.165945E-04
4.490984E+03	1.145540E-02	2.175367E-04
4.500920E+03	1.151265E-02	2.184283E-04
4.510855E+03	1.156753E-02	2.192732E-04
4.520791E+03	1.162005E-02	2.200718E-04
4.530727E+03	1.167041E-02	2.208281E-04
4.540663E+03	1.171850E-02	2.215397E-04
4.550599E+03	1.176447E-02	2.222101E-04
4.560534E+03	1.180838E-02	2.228400E-04
4.570470E+03	1.185022E-02	2.234299E-04
4.580406E+03	1.188990E-02	2.239778E-04
4.590342E+03	1.192770E-02	2.244893E-04
4.600278E+03	1.196352E-02	2.249626E-04
4.610213E+03	1.199736E-02	2.253978E-04
4.620149E+03	1.202940E-02	2.257983E-04
4.630085E+03	1.205965E-02	2.261645E-04
4.640021E+03	1.208825E-02	2.264992E-04
4.649957E+03	1.211509E-02	2.268003E-04
4.659892E+03	1.214032E-02	2.270707E-04
4.669828E+03	1.216410E-02	2.273135E-04
4.679764E+03	1.218657E-02	2.275315E-04
4.689700E+03	1.220789E-02	2.277277E-04
4.699636E+03	1.222819E-02	2.279048E-04
4.709571E+03	1.224779E-02	2.280683E-04
4.719507E+03	1.226694E-02	2.282235E-04
4.729443E+03	1.228607E-02	2.283782E-04
4.739379E+03	1.230575E-02	2.285427E-04
4.749315E+03	1.232623E-02	2.287221E-04
4.759250E+03	1.234725E-02	2.289113E-04
4.769186E+03	1.236868E-02	2.291080E-04
4.779122E+03	1.238984E-02	2.292996E-04
4.789058E+03	1.241061E-02	2.294839E-04
4.798994E+03	1.243088E-02	2.296587E-04
4.808930E+03	1.245024E-02	2.298168E-04
4.818865E+03	1.246885E-02	2.299611E-04
4.828801E+03	1.248645E-02	2.300868E-04
4.838737E+03	1.250307E-02	2.301945E-04
4.848673E+03	1.251884E-02	2.302870E-04
4.858609E+03	1.253366E-02	2.303620E-04
4.868544E+03	1.254740E-02	2.304176E-04
4.878480E+03	1.256036E-02	2.304590E-04
4.888416E+03	1.257239E-02	2.304841E-04
4.898352E+03	1.258367E-02	2.304956E-04
4.908288E+03	1.259407E-02	2.304914E-04
4.918223E+03	1.260373E-02	2.304744E-04
4.928159E+03	1.261280E-02	2.304471E-04
4.938095E+03	1.262115E-02	2.304073E-04
4.948031E+03	1.262906E-02	2.303602E-04
4.957967E+03	1.263641E-02	2.303035E-04
4.967902E+03	1.264320E-02	2.302372E-04
4.977838E+03	1.264957E-02	2.301642E-04
4.987774E+03	1.265565E-02	2.300867E-04
4.997710E+03	1.266144E-02	2.300050E-04
5.007646E+03	1.266683E-02	2.299166E-04
5.017581E+03	1.267205E-02	2.298263E-04
5.027517E+03	1.267698E-02	2.297317E-04
5.037453E+03	1.268175E-02	2.296351E-04
5.047389E+03	1.268635E-02	2.295364E-04
5.057325E+03	1.269077E-02	2.294356E-04
5.067260E+03	1.269513E-02	2.293348E-04
5.077196E+03	1.269929E-02	2.292313E-04
5.087132E+03	1.270336E-02	2.291275E-04
5.097068E+03	1.270732E-02	2.290230E-04
5.107004E+03	1.271116E-02	2.289175E-04
5.116939E+03	1.271500E-02	2.288131E-04
5.126875E+03	1.271866E-02	2.287070E-04
5.136811E+03	1.272215E-02	2.285988E-04
5.146747E+03	1.272555E-02	2.284906E-04
5.156683E+03	1.272884E-02	2.283817E-04
5.166618E+03	1.273186E-02	2.282695E-04
5.176554E+03	1.273485E-02	2.281580E-04
5.186490E+03	1.273739E-02	2.280401E-04
5.196426E+03	1.273982E-02	2.279217E-04
5.206362E+03	1.274200E-02	2.278003E-04
5.216298E+03	1.274375E-02	2.276729E-04
5.226233E+03	1.274518E-02	2.275415E-04
5.236169E+03	1.274624E-02	2.274051E-04
5.246105E+03	1.274692E-02	2.272634E-04
5.256041E+03	1.274716E-02	2.271159E-04
5.265977E+03	1.274680E-02	2.269595E-04
5.275912E+03	1.274595E-02	2.267962E-04
5.285848E+03	1.274456E-02	2.266251E-04
5.295784E+03	1.274248E-02	2.264437E-04
5.305720E+03	1.273980E-02	2.262536E-04
5.315656E+03	1.273648E-02	2.260542E-04
5.325591E+03	1.273250E-02	2.258451E-04
5.335527E+03	1.272781E-02	2.256256E-04
5.345463E+03	1.272240E-02	2.253954E-04
5.355399E+03	1.271622E-02	2.251539E-04
5.365335E+03	1.270937E-02	2.249027E-04
5.375270E+03	1.270183E-02	2.246416E-04
5.385206E+03	1.269369E-02	2.243721E-04
5.395142E+03	1.268491E-02	2.240939E-04
5.405078E+03	1.267560E-02	2.238086E-04
5.415014E+03	1.266584E-02	2.235178E-04
5.424949E+03	1.265574E-02	2.232234E-04
5.434885E+03	1.264539E-02	2.229269E-04
5.444821E+03	1.263476E-02	2.226277E-04
5.454757E+03	1.262394E-02	2.223275E-04
5.464693E+03	1.261290E-02	2.220258E-04
5.474628E+03	1.260173E-02	2.217242E-04
5.484564E+03	1.259004E-02	2.214156E-04
5.494500E+03	1.257804E-02	2.211040E-04
5.504436E+03	1.256558E-02	2.207865E-04
5.514372E+03	1.255239E-02	2.204584E-04
5.524307E+03	1.253845E-02	2.201194E-04
5.534243E+03	1.252374E-02	2.197692E-04
5.544179E+03	1.250800E-02	2.194031E-04
5.554115E+03	1.249134E-02	2.190231E-04
5.564051E+03	1.247362E-02	2.186268E-04
5.573986E+03	1.245485E-02	2.182142E-04
5.583922E+03	1.243501E-02	2.177852E-04
5.593858E+03	1.241411E-02	2.173398E-04
5.603794E+03	1.239191E-02	2.168739E-04
5.613730E+03	1.236878E-02	2.163938E-04
5.623665E+03	1.234447E-02	2.158955E-04
5.633601E+03	1.231901E-02	2.153791E-04
5.643537E+03	1.229252E-02	2.148470E-04
5.653473E+03	1.226491E-02	2.142974E-04
5.663409E+03	1.223618E-02	2.137304E-04
5.673345E+03	1.220648E-02	2.131487E-04
5.683280E+03	1.217582E-02	2.125524E-04
5.693216E+03	1.214412E-02	2.119400E-04
5.703152E+03	1.211150E-02	2.113139E-04
5.713088E+03	1.207788E-02	2.106723E-04
5.723024E+03	1.204340E-02	2.100178E-04
5.732959E+03	1.200810E-02	2.093510E-04
5.742895E+03	1.197199E-02	2.086723E-04
5.752831E+03	1.193498E-02	2.079800E-04
5.762767E+03	1.189723E-02	2.072767E-04
5.772703E+03	1.185876E-02	2.065630E-04
5.782638E+03	1.181960E-02	2.058394E-04
5.792574E+03	1.177967E-02	2.051042E-04
5.802510E+03	1.173911E-02	2.043602E-04
5.812446E+03	1.169806E-02	2.036096E-04
5.822382E+03	1.165623E-02	2.028472E-04
5.832317E+03	1.161397E-02	2.020794E-04
5.842253E+03	1.157109E-02	2.013027E-04
5.852189E+03	1.152785E-02	2.005216E-04
5.862125E+03	1.148393E-02	1.997307E-04
5.872061E+03	1.143972E-02	1.989365E-04
5.881996E+03	1.139489E-02	1.981334E-04
5.891932E+03	1.134983E-02	1.973279E-04
5.901868E+03	1.130420E-02	1.965145E-04
5.911804E+03	1.125827E-02	1.956977E-04
5.921740E+03	1.121196E-02	1.948760E-04
5.931675E+03	1.116529E-02	1.940497E-04
5.941611E+03	1.111828E-02	1.932195E-04
5.951547E+03	1.107097E-02	1.923855E-04
5.961483E+03	1.102326E-02	1.915464E-04
5.971419E+03	1.097518E-02	1.907026E-04
5.981354E+03	1.092687E-02	1.898562E-04
5.991290E+03	1.087813E-02	1.890041E-04
6.001226E+03	1.082908E-02	1.881483E-04
6.011162E+03	1.077965E-02	1.872873E-04
6.021098E+03	1.072974E-02	1.864198E-04
6.031033E+03	1.067948E-02	1.855476E-04
6.040969E+03	1.062868E-02	1.846677E-04
6.050905E+03	1.057746E-02	1.837819E-04
6.060841E+03	1.052574E-02	1.828888E-04
6.070777E+03	1.047342E-02	1.819870E-04
6.080713E+03	1.042053E-02	1.810765E-04
6.090648E+03	1.036697E-02	1.801559E-04
6.100584E+03	1.031276E-02	1.792254E-04
6.110520E+03	1.025811E-02	1.782889E-04
6.120456E+03	1.020285E-02	1.773429E-04
6.130392E+03	1.014748E-02	1.763963E-04
6.140327E+03	1.009231E-02	1.754546E-04
6.150263E+03	1.003712E-02	1.745140E-04
6.160199E+03	9.981551E-03	1.735679E-04
6.170135E+03	9.925577E-03	1.726161E-04
6.180071E+03	9.869121E-03	1.716571E-04
6.190006E+03	9.812084E-03	1.706893E-04
6.199942E+03	9.754675E-03	1.697162E-04
6.209878E+03	9.696701E-03	1.687345E-04
6.219814E+03	9.638369E-03	1.677477E-04
6.229750E+03	9.579780E-03	1.667575E-04
6.239685E+03	9.520743E-03	1.657606E-04
6.249621E+03	9.461557E-03	1.647623E-04
6.259557E+03	9.402134E-03	1.637609E-04
6.269493E+03	9.342485E-03	1.627565E-04
6.279429E+03	9.282712E-03	1.617509E-04
6.289364E+03	9.222828E-03	1.607443E-04
6.299300E+03	9.162850E-03	1.597370E-04
6.309236E+03	9.102785E-03	1.587288E-04
6.319172E+03	9.042662E-03	1.577205E-04
6.329108E+03	8.982493E-03	1.567120E-04
6.339043E+03	8.922400E-03	1.557056E-04
6.348979E+03	8.862224E-03	1.546983E-04
6.358915E+03	8.802178E-03	1.536938E-04
6.368851E+03	8.742097E-03	1.526892E-04
6.378787E+03	8.682200E-03	1.516884E-04
6.388722E+03	8.622233E-03	1.506867E-04
6.398658E+03	8.562497E-03	1.496895E-04
6.408594E+03	8.502728E-03	1.486921E-04
6.418530E+03	8.443032E-03	1.476962E-04
6.428466E+03	8.383411E-03	1.467020E-04
6.438401E+03	8.323762E-03	1.457075E-04
6.448337E+03	8.264169E-03	1.447142E-04
6.458273E+03	8.204517E-03	1.437200E-04
6.468209E+03	8.144872E-03	1.427260E-04
6.478145E+03	8.085223E-03	1.417321E-04
6.488081E+03	8.025532E-03	1.407375E-04
6.498016E+03	7.965794E-03	1.397421E-04
6.507952E+03	7.906074E-03	1.387470E-04
6.517888E+03	7.846350E-03	1.377517E-04
6.527824E+03	7.786619E-03	1.367563E-04
6.537760E+03	7.727047E-03	1.357635E-04
6.547695E+03	7.667626E-03	1.347732E-04
6.557631E+03	7.608266E-03	1.337839E-04
6.567567E+03	7.549227E-03	1.327999E-04
6.577503E+03	7.490352E-03	1.318187E-04
6.587439E+03	7.431805E-03	1.308429E-04
6.597374E+03	7.373597E-03	1.298729E-04
6.607310E+03	7.315746E-03	1.289088E-04
6.617246E+03	7.258333E-03	1.279522E-04
6.627182E+03	7.201308E-03	1.270020E-04
6.637118E+03	7.144830E-03	1.260612E-04
6.647053E+03	7.088922E-03	1.251300E-04
6.656989E+03	7.033525E-03	1.242075E-04
6.666925E+03	6.978723E-03	1.232950E-04
6.676861E+03	6.924536E-03	1.223931E-04
6.686797E+03	6.870981E-03	1.215018E-04
6.696732E+03	6.818235E-03	1.206245E-04
6.706668E+03	6.766147E-03	1.197583E-04
6.716604E+03	6.714815E-03	1.189051E-04
6.726540E+03	6.664256E-03	1.180651E-04
6.736476E+03	6.614478E-03	1.172385E-04
6.746411E+03	6.565566E-03	1.164267E-04
6.756347E+03	6.517466E-03	1.156289E-04
6.766283E+03	6.470258E-03	1.148465E-04
6.776219E+03	6.423874E-03	1.140782E-04
6.786155E+03	6.378474E-03	1.133269E-04
6.796090E+03	6.333919E-03	1.125901E-04
6.806026E+03	6.290361E-03	1.118706E-04
6.815962E+03	6.247654E-03	1.111658E-04
6.825898E+03	6.205952E-03	1.104784E-04
6.835834E+03	6.165187E-03	1.098072E-04
6.845769E+03	6.125356E-03	1.091522E-04
6.855705E+03	6.086533E-03	1.085147E-04
6.865641E+03	6.048645E-03	1.078934E-04
6.875577E+03	6.011690E-03	1.072883E-04
6.885513E+03	5.975736E-03	1.067007E-04
6.895449E+03	5.940707E-03	1.061291E-04
6.905384E+03	5.906669E-03	1.055749E-04
6.915320E+03	5.873544E-03	1.050365E-04
6.925256E+03	5.841395E-03	1.045153E-04
6.935192E+03	5.810214E-03	1.040109E-04
6.945128E+03	5.779848E-03	1.035208E-04
6.955063E+03	5.750500E-03	1.030485E-04
6.964999E+03	5.722017E-03	1.025913E-04
6.974935E+03	5.694386E-03	1.021491E-04
6.984871E+03	5.667594E-03	1.017216E-04
6.994807E+03	5.641697E-03	1.013098E-04
7.004742E+03	5.616610E-03	1.009123E-04
7.014678E+03	5.592387E-03	1.005299E-04
7.024614E+03	5.568942E-03	1.001612E-04
7.034550E+03	5.546188E-03	9.980473E-05
7.044486E+03	5.524248E-03	9.946255E-05
7.054421E+03	5.503032E-03	9.913315E-05
7.064357E+03	5.482523E-03	9.881623E-05
7.074293E+03	5.462701E-03	9.851143E-05
7.084229E+03	5.443478E-03	9.821719E-05
7.094165E+03	5.424903E-03	9.793439E-05
7.104100E+03	5.406954E-03	9.766266E-05
7.114036E+03	5.389542E-03	9.740043E-05
7.123972E+03	5.372647E-03	9.714732E-05
7.133908E+03	5.356314E-03	9.690417E-05
7.143844E+03	5.340455E-03	9.666939E-05
7.153779E+03	5.325047E-03	9.644258E-05
7.163715E+03	5.310000E-03	9.622213E-05
7.173651E+03	5.295427E-03	9.601010E-05
7.183587E+03	5.281172E-03	9.580365E-05
7.193523E+03	5.267277E-03	9.560358E-05
7.203458E+03	5.253656E-03	9.540831E-05
7.213394E+03	5.240285E-03	9.521741E-05
7.223330E+03	5.227209E-03	9.503171E-05
7.233266E+03	5.214271E-03	9.484839E-05
7.243202E+03	5.201583E-03	9.466947E-05
7.253137E+03	5.188991E-03	9.449213E-05
7.263073E+03	5.176538E-03	9.431720E-05
7.273009E+03	5.164138E-03	9.414308E-05
7.282945E+03	5.151835E-03	9.397060E-05
7.292881E+03	5.139543E-03	9.379818E-05
7.302817E+03	5.127309E-03	9.362666E-05
7.312752E+03	5.114978E-03	9.345326E-05
7.322688E+03	5.102599E-03	9.327882E-05
7.332624E+03	5.090153E-03	9.310301E-05
7.342560E+03	5.077622E-03	9.292551E-05
7.352496E+03	5.064855E-03	9.274357E-05
7.362431E+03	5.051904E-03	9.255810E-05
7.372367E+03	5.038688E-03	9.236760E-05
7.382303E+03	5.025123E-03	9.217057E-05
7.392239E+03	5.011199E-03	9.196678E-05
7.402175E+03	4.996967E-03	9.175717E-05
7.412110E+03	4.982415E-03	9.154150E-05
7.422046E+03	4.967530E-03	9.131955E-05
7.431982E+03	4.952368E-03	9.109230E-05
7.441918E+03	4.936854E-03	9.085840E-05
7.451854E+03	4.920979E-03	9.061766E-05
7.461789E+03	4.904801E-03	9.037113E-05
7.471725E+03	4.888312E-03	9.011867E-05
7.481661E+03	4.871443E-03	8.985899E-05
7.491597E+03	4.854255E-03	8.959319E-05
7.501533E+03	4.836743E-03	8.932120E-05
7.511468E+03	4.818904E-03	8.904295E-05
7.521404E+03	4.800739E-03	8.875842E-05
7.531340E+03	4.782247E-03	8.846762E-05
7.541276E+03	4.763431E-03	8.817056E-05
7.551212E+03	4.744354E-03	8.786844E-05
7.561147E+03	4.724895E-03	8.755898E-05
7.571083E+03	4.705185E-03	8.724459E-05
7.581019E+03	4.685228E-03	8.692539E-05
7.590955E+03	4.664971E-03	8.660033E-05
7.600891E+03	4.644482E-03	8.627070E-05
7.610826E+03	4.623772E-03	8.593669E-05
7.620762E+03	4.602789E-03	8.559731E-05
7.630698E+03	4.581667E-03	8.525508E-05
7.640634E+03	4.560297E-03	8.490792E-05
7.650570E+03	4.538752E-03	8.455724E-05
7.660505E+03	4.517108E-03	8.420441E-05
7.670441E+03	4.495259E-03	8.384747E-05
7.680377E+03	4.473342E-03	8.348897E-05
7.690313E+03	4.451313E-03	8.312808E-05
7.700249E+03	4.429190E-03	8.276515E-05
7.710184E+03	4.406993E-03	8.240052E-05
