#wls	flux	fluxerr
1.589729E+03	5.918388E-04	7.529700E-06
1.629472E+03	5.933000E-04	7.538571E-06
1.669215E+03	5.937626E-04	7.534476E-06
1.708958E+03	5.933049E-04	7.518451E-06
1.748702E+03	5.919416E-04	7.490727E-06
1.788445E+03	5.892435E-04	7.445923E-06
1.828188E+03	5.848941E-04	7.380119E-06
1.867931E+03	5.783998E-04	7.287186E-06
1.907675E+03	5.691766E-04	7.159907E-06
1.947418E+03	5.571467E-04	6.997471E-06
1.987161E+03	5.425102E-04	6.802568E-06
2.026904E+03	5.267630E-04	6.594099E-06
2.066647E+03	5.127606E-04	6.407837E-06
2.106391E+03	5.044865E-04	6.293383E-06
2.146134E+03	5.052280E-04	6.291300E-06
2.185877E+03	5.165694E-04	6.420672E-06
2.225620E+03	5.371716E-04	6.664131E-06
2.265363E+03	5.643133E-04	6.987291E-06
2.305107E+03	5.949825E-04	7.352416E-06
2.344850E+03	6.272995E-04	7.736006E-06
2.384593E+03	6.598269E-04	8.120190E-06
2.424336E+03	6.922241E-04	8.500709E-06
2.464080E+03	7.243891E-04	8.876263E-06
2.503823E+03	7.564388E-04	9.248237E-06
2.543566E+03	7.889238E-04	9.623298E-06
2.583309E+03	8.218652E-04	1.000160E-05
2.623052E+03	8.558452E-04	1.039011E-05
2.662796E+03	8.909655E-04	1.078990E-05
2.702539E+03	9.277823E-04	1.120752E-05
2.742282E+03	9.664739E-04	1.164489E-05
2.782025E+03	1.007320E-03	1.210511E-05
2.821769E+03	1.050714E-03	1.259263E-05
2.861512E+03	1.096784E-03	1.310862E-05
2.901255E+03	1.146167E-03	1.366034E-05
2.940998E+03	1.198977E-03	1.424869E-05
2.980741E+03	1.255582E-03	1.487760E-05
2.990677E+03	1.270324E-03	1.504108E-05
3.000613E+03	1.285387E-03	1.520804E-05
3.010549E+03	1.300774E-03	1.537851E-05
3.020485E+03	1.316361E-03	1.555103E-05
3.030420E+03	1.332341E-03	1.572785E-05
3.040356E+03	1.348771E-03	1.590962E-05
3.050292E+03	1.365636E-03	1.609618E-05
3.060228E+03	1.382785E-03	1.628573E-05
3.070164E+03	1.400487E-03	1.648141E-05
3.080099E+03	1.418452E-03	1.667980E-05
3.090035E+03	1.436808E-03	1.688241E-05
3.099971E+03	1.455549E-03	1.708912E-05
3.109907E+03	1.474807E-03	1.730151E-05
3.119843E+03	1.494292E-03	1.751613E-05
3.129779E+03	1.514282E-03	1.773625E-05
3.139714E+03	1.534485E-03	1.795842E-05
3.149650E+03	1.555181E-03	1.818591E-05
3.159586E+03	1.576367E-03	1.841868E-05
3.169522E+03	1.597750E-03	1.865327E-05
3.179458E+03	1.619614E-03	1.889301E-05
3.189393E+03	1.641956E-03	1.913783E-05
3.199329E+03	1.664628E-03	1.938599E-05
3.209265E+03	1.687626E-03	1.963745E-05
3.219201E+03	1.711094E-03	1.989385E-05
3.229137E+03	1.735030E-03	2.015517E-05
3.239072E+03	1.759285E-03	2.041964E-05
3.249008E+03	1.784151E-03	2.069066E-05
3.258944E+03	1.809333E-03	2.096478E-05
3.268880E+03	1.834977E-03	2.124367E-05
3.278816E+03	1.861080E-03	2.152730E-05
3.288751E+03	1.887644E-03	2.181565E-05
3.298687E+03	1.914666E-03	2.210869E-05
3.308623E+03	1.942146E-03	2.240639E-05
3.318559E+03	1.970233E-03	2.271046E-05
3.328495E+03	1.998627E-03	2.301740E-05
3.338430E+03	2.027626E-03	2.333067E-05
3.348366E+03	2.057233E-03	2.365024E-05
3.358302E+03	2.087294E-03	2.397434E-05
3.368238E+03	2.117961E-03	2.430470E-05
3.378174E+03	2.149081E-03	2.463954E-05
3.388109E+03	2.180807E-03	2.498059E-05
3.398045E+03	2.213138E-03	2.532781E-05
3.407981E+03	2.246073E-03	2.568119E-05
3.417917E+03	2.279612E-03	2.604068E-05
3.427853E+03	2.313755E-03	2.640627E-05
3.437788E+03	2.348499E-03	2.677792E-05
3.447724E+03	2.383846E-03	2.715560E-05
3.457660E+03	2.419947E-03	2.754103E-05
3.467596E+03	2.456648E-03	2.793241E-05
3.477532E+03	2.493947E-03	2.832971E-05
3.487467E+03	2.532152E-03	2.873640E-05
3.497403E+03	2.570797E-03	2.914717E-05
3.507339E+03	2.610347E-03	2.956724E-05
3.517275E+03	2.650643E-03	2.999482E-05
3.527211E+03	2.691528E-03	3.042807E-05
3.537146E+03	2.733311E-03	3.087048E-05
3.547082E+03	2.775834E-03	3.132023E-05
3.557018E+03	2.819095E-03	3.177726E-05
3.566954E+03	2.863090E-03	3.224150E-05
3.576890E+03	2.907972E-03	3.271464E-05
3.586826E+03	2.953738E-03	3.319663E-05
3.596761E+03	3.000228E-03	3.368562E-05
3.606697E+03	3.047595E-03	3.418330E-05
3.616633E+03	3.095833E-03	3.468959E-05
3.626569E+03	3.144939E-03	3.520440E-05
3.636505E+03	3.194908E-03	3.572765E-05
3.646440E+03	3.245734E-03	3.625924E-05
3.656376E+03	3.297569E-03	3.680084E-05
3.666312E+03	3.350250E-03	3.735058E-05
3.676248E+03	3.403929E-03	3.791012E-05
3.686184E+03	3.458440E-03	3.847759E-05
3.696119E+03	3.513935E-03	3.905463E-05
3.706055E+03	3.570564E-03	3.964289E-05
3.715991E+03	3.628004E-03	4.023872E-05
3.725927E+03	3.686404E-03	4.084375E-05
3.735863E+03	3.745756E-03	4.145786E-05
3.745798E+03	3.806210E-03	4.208265E-05
3.755734E+03	3.867596E-03	4.271624E-05
3.765670E+03	3.930065E-03	4.336021E-05
3.775606E+03	3.993447E-03	4.401269E-05
3.785542E+03	4.057891E-03	4.467525E-05
3.795477E+03	4.123385E-03	4.534773E-05
3.805413E+03	4.189917E-03	4.602997E-05
3.815349E+03	4.257476E-03	4.672179E-05
3.825285E+03	4.326050E-03	4.742303E-05
3.835221E+03	4.395783E-03	4.813523E-05
3.845156E+03	4.466347E-03	4.885474E-05
3.855092E+03	4.538044E-03	4.958484E-05
3.865028E+03	4.610860E-03	5.032533E-05
3.874964E+03	4.684621E-03	5.107429E-05
3.884900E+03	4.759472E-03	5.183323E-05
3.894835E+03	4.835240E-03	5.260024E-05
3.904771E+03	4.912224E-03	5.337854E-05
3.914707E+03	4.990092E-03	5.416447E-05
3.924643E+03	5.068986E-03	5.495954E-05
3.934579E+03	5.148732E-03	5.576183E-05
3.944514E+03	5.229627E-03	5.657451E-05
3.954450E+03	5.311497E-03	5.739566E-05
3.964386E+03	5.394169E-03	5.822338E-05
3.974322E+03	5.477933E-03	5.906077E-05
3.984258E+03	5.562615E-03	5.990590E-05
3.994194E+03	5.648049E-03	6.075697E-05
4.004129E+03	5.734516E-03	6.161696E-05
4.014065E+03	5.821699E-03	6.248242E-05
4.024001E+03	5.909720E-03	6.335465E-05
4.033937E+03	5.998572E-03	6.423352E-05
4.043873E+03	6.088235E-03	6.511882E-05
4.053808E+03	6.178533E-03	6.600860E-05
4.063744E+03	6.269444E-03	6.690265E-05
4.073680E+03	6.361109E-03	6.780241E-05
4.083616E+03	6.453355E-03	6.870602E-05
4.093552E+03	6.546320E-03	6.961494E-05
4.103487E+03	6.639527E-03	7.052408E-05
4.113423E+03	6.733413E-03	7.143807E-05
4.123359E+03	6.827665E-03	7.235355E-05
4.133295E+03	6.922266E-03	7.327036E-05
4.143231E+03	7.017201E-03	7.418831E-05
4.153166E+03	7.112310E-03	7.510571E-05
4.163102E+03	7.207581E-03	7.602242E-05
4.173038E+03	7.303158E-03	7.693998E-05
4.182974E+03	7.398735E-03	7.785514E-05
4.192910E+03	7.494154E-03	7.876626E-05
4.202845E+03	7.589710E-03	7.967644E-05
4.212781E+03	7.684966E-03	8.058110E-05
4.222717E+03	7.780069E-03	8.148181E-05
4.232653E+03	7.874877E-03	8.237709E-05
4.242589E+03	7.969410E-03	8.326716E-05
4.252524E+03	8.063530E-03	8.415060E-05
4.262460E+03	8.157113E-03	8.502616E-05
4.272396E+03	8.250034E-03	8.589253E-05
4.282332E+03	8.342481E-03	8.675175E-05
4.292268E+03	8.434338E-03	8.760260E-05
4.302203E+03	8.525362E-03	8.844262E-05
4.312139E+03	8.615603E-03	8.927235E-05
4.322075E+03	8.704975E-03	9.009093E-05
4.332011E+03	8.793553E-03	9.089922E-05
4.341947E+03	8.881257E-03	9.169641E-05
4.351882E+03	8.968186E-03	9.248357E-05
4.361818E+03	9.054133E-03	9.325860E-05
4.371754E+03	9.139070E-03	9.402128E-05
4.381690E+03	9.223391E-03	9.477570E-05
4.391626E+03	9.306621E-03	9.551703E-05
4.401562E+03	9.389023E-03	9.624800E-05
4.411497E+03	9.470240E-03	9.696503E-05
4.421433E+03	9.550211E-03	9.766754E-05
4.431369E+03	9.628871E-03	9.835493E-05
4.441305E+03	9.706030E-03	9.902532E-05
4.451241E+03	9.781632E-03	9.967822E-05
4.461176E+03	9.855488E-03	1.003118E-04
4.471112E+03	9.927553E-03	1.009256E-04
4.481048E+03	9.997646E-03	1.015180E-04
4.490984E+03	1.006601E-02	1.020914E-04
4.500920E+03	1.013234E-02	1.026428E-04
4.510855E+03	1.019659E-02	1.031720E-04
4.520791E+03	1.025889E-02	1.036803E-04
4.530727E+03	1.031894E-02	1.041646E-04
4.540663E+03	1.037698E-02	1.046276E-04
4.550599E+03	1.043288E-02	1.050680E-04
4.560534E+03	1.048647E-02	1.054842E-04
4.570470E+03	1.053803E-02	1.058790E-04
4.580406E+03	1.058740E-02	1.062511E-04
4.590342E+03	1.063459E-02	1.066005E-04
4.600278E+03	1.067945E-02	1.069258E-04
4.610213E+03	1.072225E-02	1.072300E-04
4.620149E+03	1.076286E-02	1.075116E-04
4.630085E+03	1.080113E-02	1.077694E-04
4.640021E+03	1.083737E-02	1.080064E-04
4.649957E+03	1.087142E-02	1.082213E-04
4.659892E+03	1.090330E-02	1.084142E-04
4.669828E+03	1.093301E-02	1.085853E-04
4.679764E+03	1.096055E-02	1.087348E-04
4.689700E+03	1.098610E-02	1.088642E-04
4.699636E+03	1.100950E-02	1.089724E-04
4.709571E+03	1.103078E-02	1.090595E-04
4.719507E+03	1.104994E-02	1.091257E-04
4.729443E+03	1.106728E-02	1.091741E-04
4.739379E+03	1.108254E-02	1.092020E-04
4.749315E+03	1.109585E-02	1.092111E-04
4.759250E+03	1.110738E-02	1.092028E-04
4.769186E+03	1.111686E-02	1.091748E-04
4.779122E+03	1.112472E-02	1.091312E-04
4.789058E+03	1.113084E-02	1.090709E-04
4.798994E+03	1.113523E-02	1.089942E-04
4.808930E+03	1.113803E-02	1.089025E-04
4.818865E+03	1.113927E-02	1.087960E-04
4.828801E+03	1.113909E-02	1.086764E-04
4.838737E+03	1.113736E-02	1.085424E-04
4.848673E+03	1.113438E-02	1.083967E-04
4.858609E+03	1.113015E-02	1.082397E-04
4.868544E+03	1.112455E-02	1.080702E-04
4.878480E+03	1.111800E-02	1.078922E-04
4.888416E+03	1.111024E-02	1.077034E-04
4.898352E+03	1.110154E-02	1.075064E-04
4.908288E+03	1.109180E-02	1.073002E-04
4.918223E+03	1.108114E-02	1.070861E-04
4.928159E+03	1.106971E-02	1.068655E-04
4.938095E+03	1.105753E-02	1.066387E-04
4.948031E+03	1.104460E-02	1.064057E-04
4.957967E+03	1.103107E-02	1.061679E-04
4.967902E+03	1.101681E-02	1.059243E-04
4.977838E+03	1.100196E-02	1.056762E-04
4.987774E+03	1.098667E-02	1.054249E-04
4.997710E+03	1.097081E-02	1.051693E-04
5.007646E+03	1.095453E-02	1.049109E-04
5.017581E+03	1.093783E-02	1.046497E-04
5.027517E+03	1.092085E-02	1.043870E-04
5.037453E+03	1.090348E-02	1.041218E-04
5.047389E+03	1.088572E-02	1.038542E-04
5.057325E+03	1.086772E-02	1.035856E-04
5.067260E+03	1.084948E-02	1.033159E-04
5.077196E+03	1.083102E-02	1.030455E-04
5.087132E+03	1.081246E-02	1.027755E-04
5.097068E+03	1.079359E-02	1.025038E-04
5.107004E+03	1.077464E-02	1.022328E-04
5.116939E+03	1.075552E-02	1.019616E-04
5.126875E+03	1.073636E-02	1.016913E-04
5.136811E+03	1.071704E-02	1.014210E-04
5.146747E+03	1.069760E-02	1.011509E-04
5.156683E+03	1.067816E-02	1.008823E-04
5.166618E+03	1.065861E-02	1.006141E-04
5.176554E+03	1.063909E-02	1.003476E-04
5.186490E+03	1.061951E-02	1.000821E-04
5.196426E+03	1.059988E-02	9.981745E-05
5.206362E+03	1.058020E-02	9.955398E-05
5.216298E+03	1.056063E-02	9.929300E-05
5.226233E+03	1.054095E-02	9.903255E-05
5.236169E+03	1.052129E-02	9.877379E-05
5.246105E+03	1.050156E-02	9.851600E-05
5.256041E+03	1.048190E-02	9.826039E-05
5.265977E+03	1.046210E-02	9.800506E-05
5.275912E+03	1.044242E-02	9.775239E-05
5.285848E+03	1.042253E-02	9.749940E-05
5.295784E+03	1.040270E-02	9.724857E-05
5.305720E+03	1.038282E-02	9.699898E-05
5.315656E+03	1.036283E-02	9.674995E-05
5.325591E+03	1.034275E-02	9.650171E-05
5.335527E+03	1.032260E-02	9.625451E-05
5.345463E+03	1.030231E-02	9.600766E-05
5.355399E+03	1.028190E-02	9.576145E-05
5.365335E+03	1.026119E-02	9.551416E-05
5.375270E+03	1.024043E-02	9.526809E-05
5.385206E+03	1.021954E-02	9.502262E-05
5.395142E+03	1.019834E-02	9.477593E-05
5.405078E+03	1.017697E-02	9.452938E-05
5.415014E+03	1.015535E-02	9.428220E-05
5.424949E+03	1.013359E-02	9.403536E-05
5.434885E+03	1.011142E-02	9.378635E-05
5.444821E+03	1.008890E-02	9.353582E-05
5.454757E+03	1.006600E-02	9.328336E-05
5.464693E+03	1.004269E-02	9.302865E-05
5.474628E+03	1.001890E-02	9.277119E-05
5.484564E+03	9.994724E-03	9.251168E-05
5.494500E+03	9.970015E-03	9.224880E-05
5.504436E+03	9.944832E-03	9.198309E-05
5.514372E+03	9.919152E-03	9.171432E-05
5.524307E+03	9.893036E-03	9.144302E-05
5.534243E+03	9.866567E-03	9.116996E-05
5.544179E+03	9.839603E-03	9.089381E-05
5.554115E+03	9.812316E-03	9.061615E-05
5.564051E+03	9.784684E-03	9.033674E-05
5.573986E+03	9.756678E-03	9.005531E-05
5.583922E+03	9.728475E-03	8.977349E-05
5.593858E+03	9.699947E-03	8.949006E-05
5.603794E+03	9.671065E-03	8.920473E-05
5.613730E+03	9.642012E-03	8.891921E-05
5.623665E+03	9.612766E-03	8.863324E-05
5.633601E+03	9.583310E-03	8.834667E-05
5.643537E+03	9.553717E-03	8.806014E-05
5.653473E+03	9.523873E-03	8.777259E-05
5.663409E+03	9.493851E-03	8.748469E-05
5.673345E+03	9.463647E-03	8.719636E-05
5.683280E+03	9.433337E-03	8.690830E-05
5.693216E+03	9.402911E-03	8.662040E-05
5.703152E+03	9.372358E-03	8.633253E-05
5.713088E+03	9.341655E-03	8.604448E-05
5.723024E+03	9.310702E-03	8.575530E-05
5.732959E+03	9.279778E-03	8.546755E-05
5.742895E+03	9.248582E-03	8.517844E-05
5.752831E+03	9.217305E-03	8.488971E-05
5.762767E+03	9.185928E-03	8.460118E-05
5.772703E+03	9.154365E-03	8.431203E-05
5.782638E+03	9.122592E-03	8.402203E-05
5.792574E+03	9.090818E-03	8.373309E-05
5.802510E+03	9.058729E-03	8.344229E-05
5.812446E+03	9.026533E-03	8.315154E-05
5.822382E+03	8.994218E-03	8.286074E-05
5.832317E+03	8.961585E-03	8.256799E-05
5.842253E+03	8.928842E-03	8.227523E-05
5.852189E+03	8.895982E-03	8.198237E-05
5.862125E+03	8.862811E-03	8.168761E-05
5.872061E+03	8.829431E-03	8.139186E-05
5.881996E+03	8.795848E-03	8.109518E-05
5.891932E+03	8.761961E-03	8.079662E-05
5.901868E+03	8.727878E-03	8.049716E-05
5.911804E+03	8.693505E-03	8.019592E-05
5.921740E+03	8.658855E-03	7.989299E-05
5.931675E+03	8.623927E-03	7.958836E-05
5.941611E+03	8.588734E-03	7.928213E-05
5.951547E+03	8.553187E-03	7.897347E-05
5.961483E+03	8.517293E-03	7.866243E-05
5.971419E+03	8.480976E-03	7.834827E-05
5.981354E+03	8.444431E-03	7.803281E-05
5.991290E+03	8.407481E-03	7.771437E-05
6.001226E+03	8.370132E-03	7.739301E-05
6.011162E+03	8.332320E-03	7.706811E-05
6.021098E+03	8.294234E-03	7.674141E-05
6.031033E+03	8.255609E-03	7.641042E-05
6.040969E+03	8.216652E-03	7.607707E-05
6.050905E+03	8.177280E-03	7.574056E-05
6.060841E+03	8.137423E-03	7.540022E-05
6.070777E+03	8.097099E-03	7.505620E-05
6.080713E+03	8.056415E-03	7.470948E-05
6.090648E+03	8.015205E-03	7.435850E-05
6.100584E+03	7.973583E-03	7.400430E-05
6.110520E+03	7.931567E-03	7.364702E-05
6.120456E+03	7.889175E-03	7.328682E-05
6.130392E+03	7.846336E-03	7.292302E-05
6.140327E+03	7.803074E-03	7.255583E-05
6.150263E+03	7.759408E-03	7.218539E-05
6.160199E+03	7.715362E-03	7.181191E-05
6.170135E+03	7.671037E-03	7.143633E-05
6.180071E+03	7.626285E-03	7.105724E-05
6.190006E+03	7.581303E-03	7.067645E-05
6.199942E+03	7.535930E-03	7.029245E-05
6.209878E+03	7.490370E-03	6.990712E-05
6.219814E+03	7.444546E-03	6.951972E-05
6.229750E+03	7.398571E-03	6.913130E-05
6.239685E+03	7.352291E-03	6.874039E-05
6.249621E+03	7.305890E-03	6.834870E-05
6.259557E+03	7.259310E-03	6.795567E-05
6.269493E+03	7.212647E-03	6.756214E-05
6.279429E+03	7.165918E-03	6.716827E-05
6.289364E+03	7.119054E-03	6.677334E-05
6.299300E+03	7.072155E-03	6.637830E-05
6.309236E+03	7.025228E-03	6.598316E-05
6.319172E+03	6.978208E-03	6.558728E-05
6.329108E+03	6.931263E-03	6.519221E-05
6.339043E+03	6.884315E-03	6.479719E-05
6.348979E+03	6.837382E-03	6.440237E-05
6.358915E+03	6.790466E-03	6.400772E-05
6.368851E+03	6.743560E-03	6.361317E-05
6.378787E+03	6.696748E-03	6.321949E-05
6.388722E+03	6.649954E-03	6.282590E-05
6.398658E+03	6.603171E-03	6.243235E-05
6.408594E+03	6.556472E-03	6.203948E-05
6.418530E+03	6.509838E-03	6.164711E-05
6.428466E+03	6.463289E-03	6.125539E-05
6.438401E+03	6.416753E-03	6.086361E-05
6.448337E+03	6.370403E-03	6.047341E-05
6.458273E+03	6.324181E-03	6.008419E-05
6.468209E+03	6.278091E-03	5.969601E-05
6.478145E+03	6.232232E-03	5.930975E-05
6.488081E+03	6.186524E-03	5.892467E-05
6.498016E+03	6.141046E-03	5.854148E-05
6.507952E+03	6.095883E-03	5.816098E-05
6.517888E+03	6.050962E-03	5.778248E-05
6.527824E+03	6.006351E-03	5.740658E-05
6.537760E+03	5.962051E-03	5.703331E-05
6.547695E+03	5.918058E-03	5.666261E-05
6.557631E+03	5.874368E-03	5.629444E-05
6.567567E+03	5.831122E-03	5.593013E-05
6.577503E+03	5.788169E-03	5.556823E-05
6.587439E+03	5.745648E-03	5.521007E-05
6.597374E+03	5.703551E-03	5.485556E-05
6.607310E+03	5.661800E-03	5.450394E-05
6.617246E+03	5.620529E-03	5.415652E-05
6.627182E+03	5.579661E-03	5.381253E-05
6.637118E+03	5.539189E-03	5.347191E-05
6.647053E+03	5.499244E-03	5.313592E-05
6.656989E+03	5.459749E-03	5.280381E-05
6.666925E+03	5.420766E-03	5.247619E-05
6.676861E+03	5.382218E-03	5.215231E-05
6.686797E+03	5.344166E-03	5.183277E-05
6.696732E+03	5.306605E-03	5.151750E-05
6.706668E+03	5.269592E-03	5.120708E-05
6.716604E+03	5.232989E-03	5.090015E-05
6.726540E+03	5.196989E-03	5.059862E-05
6.736476E+03	5.161518E-03	5.030174E-05
6.746411E+03	5.126503E-03	5.000883E-05
6.756347E+03	5.092006E-03	4.972048E-05
6.766283E+03	5.058084E-03	4.943727E-05
6.776219E+03	5.024667E-03	4.915850E-05
6.786155E+03	4.991814E-03	4.888477E-05
6.796090E+03	4.959453E-03	4.861539E-05
6.806026E+03	4.927644E-03	4.835093E-05
6.815962E+03	4.896382E-03	4.809135E-05
6.825898E+03	4.865660E-03	4.783661E-05
6.835834E+03	4.835408E-03	4.758602E-05
6.845769E+03	4.805750E-03	4.734081E-05
6.855705E+03	4.776552E-03	4.709965E-05
6.865641E+03	4.747935E-03	4.686377E-05
6.875577E+03	4.719831E-03	4.663249E-05
6.885513E+03	4.692234E-03	4.640577E-05
6.895449E+03	4.665138E-03	4.618356E-05
6.905384E+03	4.638540E-03	4.596582E-05
6.915320E+03	4.612431E-03	4.575249E-05
6.925256E+03	4.586871E-03	4.554417E-05
6.935192E+03	4.561790E-03	4.534016E-05
6.945128E+03	4.537122E-03	4.513984E-05
6.955063E+03	4.512984E-03	4.494437E-05
6.964999E+03	4.489310E-03	4.475310E-05
6.974935E+03	4.466094E-03	4.456597E-05
6.984871E+03	4.443329E-03	4.438295E-05
6.994807E+03	4.421011E-03	4.420397E-05
7.004742E+03	4.399134E-03	4.402901E-05
7.014678E+03	4.377631E-03	4.385741E-05
7.024614E+03	4.356559E-03	4.368972E-05
7.034550E+03	4.335909E-03	4.352589E-05
7.044486E+03	4.315618E-03	4.336527E-05
7.054421E+03	4.295739E-03	4.320842E-05
7.064357E+03	4.276149E-03	4.305410E-05
7.074293E+03	4.256959E-03	4.290345E-05
7.084229E+03	4.238105E-03	4.275582E-05
7.094165E+03	4.219524E-03	4.261057E-05
7.104100E+03	4.201268E-03	4.246826E-05
7.114036E+03	4.183331E-03	4.232882E-05
7.123972E+03	4.165594E-03	4.219105E-05
7.133908E+03	4.148166E-03	4.205606E-05
7.143844E+03	4.130926E-03	4.192263E-05
7.153779E+03	4.113985E-03	4.179191E-05
7.163715E+03	4.097166E-03	4.166208E-05
7.173651E+03	4.080578E-03	4.153427E-05
7.183587E+03	4.064105E-03	4.140728E-05
7.193523E+03	4.047797E-03	4.128165E-05
7.203458E+03	4.031594E-03	4.115676E-05
7.213394E+03	4.015548E-03	4.103314E-05
7.223330E+03	3.999544E-03	4.090962E-05
7.233266E+03	3.983579E-03	4.078616E-05
7.243202E+03	3.967704E-03	4.066330E-05
7.253137E+03	3.951805E-03	4.053986E-05
7.263073E+03	3.935881E-03	4.041584E-05
7.273009E+03	3.919984E-03	4.029175E-05
7.282945E+03	3.904055E-03	4.016700E-05
7.292881E+03	3.888039E-03	4.004103E-05
7.302817E+03	3.871934E-03	3.991380E-05
7.312752E+03	3.855739E-03	3.978531E-05
7.322688E+03	3.839453E-03	3.965552E-05
7.332624E+03	3.823020E-03	3.952388E-05
7.342560E+03	3.806494E-03	3.939092E-05
7.352496E+03	3.789767E-03	3.925554E-05
7.362431E+03	3.772893E-03	3.911829E-05
7.372367E+03	3.755872E-03	3.897914E-05
7.382303E+03	3.738703E-03	3.883810E-05
7.392239E+03	3.721335E-03	3.869463E-05
7.402175E+03	3.703820E-03	3.854927E-05
7.412110E+03	3.686160E-03	3.840202E-05
7.422046E+03	3.668303E-03	3.825235E-05
7.431982E+03	3.650302E-03	3.810080E-05
7.441918E+03	3.632158E-03	3.794737E-05
7.451854E+03	3.613873E-03	3.779209E-05
7.461789E+03	3.595497E-03	3.763549E-05
7.471725E+03	3.576983E-03	3.747704E-05
7.481661E+03	3.558332E-03	3.731677E-05
7.491597E+03	3.539645E-03	3.715574E-05
7.501533E+03	3.520874E-03	3.699344E-05
7.511468E+03	3.502022E-03	3.682990E-05
7.521404E+03	3.483139E-03	3.666563E-05
7.531340E+03	3.464179E-03	3.650017E-05
7.541276E+03	3.445192E-03	3.633403E-05
7.551212E+03	3.426230E-03	3.616775E-05
7.561147E+03	3.407245E-03	3.600085E-05
7.571083E+03	3.388289E-03	3.583387E-05
7.581019E+03	3.369364E-03	3.566682E-05
7.590955E+03	3.350425E-03	3.549924E-05
7.600891E+03	3.331570E-03	3.533217E-05
7.610826E+03	3.312708E-03	3.516463E-05
7.620762E+03	3.293935E-03	3.499766E-05
7.630698E+03	3.275256E-03	3.483130E-05
7.640634E+03	3.256626E-03	3.466510E-05
7.650570E+03	3.238051E-03	3.449910E-05
7.660505E+03	3.219627E-03	3.433433E-05
7.670441E+03	3.201219E-03	3.416937E-05
7.680377E+03	3.182970E-03	3.400574E-05
7.690313E+03	3.164795E-03	3.384253E-05
7.700249E+03	3.146743E-03	3.368028E-05
7.710184E+03	3.128821E-03	3.351906E-05
