#wls	flux	fluxerr
1.600000E+03	2.248342E-14	4.363097E-15
1.640000E+03	1.832125E-14	3.239788E-15
1.680000E+03	1.483097E-14	2.370404E-15
1.720000E+03	1.193348E-14	1.707788E-15
1.760000E+03	9.553786E-15	1.210927E-15
1.800000E+03	7.617520E-15	8.442737E-16
1.840000E+03	6.058040E-15	5.783563E-16
1.880000E+03	4.812007E-15	3.887712E-16
1.920000E+03	3.825970E-15	2.562827E-16
1.960000E+03	3.051594E-15	1.657547E-16
2.000000E+03	2.448408E-15	1.057987E-16
2.040000E+03	1.982984E-15	6.809706E-17
2.080000E+03	1.628178E-15	4.657070E-17
2.120000E+03	1.363625E-15	3.577929E-17
2.160000E+03	1.176244E-15	3.030013E-17
2.200000E+03	1.056611E-15	2.731411E-17
2.240000E+03	9.982791E-16	2.649786E-17
2.280000E+03	9.997864E-16	2.859655E-17
2.320000E+03	1.061952E-15	3.372190E-17
2.360000E+03	1.190168E-15	4.147008E-17
2.400000E+03	1.396646E-15	5.157411E-17
2.440000E+03	1.699931E-15	6.366472E-17
2.480000E+03	2.124179E-15	7.697929E-17
2.520000E+03	2.695236E-15	9.042077E-17
2.560000E+03	3.435267E-15	1.040782E-16
2.600000E+03	4.352963E-15	1.237370E-16
2.640000E+03	5.435499E-15	1.649196E-16
2.680000E+03	6.652624E-15	2.404694E-16
2.720000E+03	7.962866E-15	3.505466E-16
2.760000E+03	9.312705E-15	4.887628E-16
2.800000E+03	1.064128E-14	6.454984E-16
2.840000E+03	1.188897E-14	8.090281E-16
2.880000E+03	1.300181E-14	9.665573E-16
2.920000E+03	1.394153E-14	1.106048E-15
2.960000E+03	1.469293E-14	1.218073E-15
3.000000E+03	1.525760E-14	1.296287E-15
3.010000E+03	1.537141E-14	1.310151E-15
3.020000E+03	1.547486E-14	1.321681E-15
3.030000E+03	1.556820E-14	1.330861E-15
3.040000E+03	1.565248E-14	1.337747E-15
3.050000E+03	1.572765E-14	1.342310E-15
3.060000E+03	1.579441E-14	1.344595E-15
3.070000E+03	1.585315E-14	1.344621E-15
3.080000E+03	1.590461E-14	1.342448E-15
3.090000E+03	1.594919E-14	1.338108E-15
3.100000E+03	1.598765E-14	1.331673E-15
3.110000E+03	1.602040E-14	1.323185E-15
3.120000E+03	1.604787E-14	1.312694E-15
3.130000E+03	1.607084E-14	1.300281E-15
3.140000E+03	1.608972E-14	1.286000E-15
3.150000E+03	1.610558E-14	1.269961E-15
3.160000E+03	1.611820E-14	1.252167E-15
3.170000E+03	1.612862E-14	1.232729E-15
3.180000E+03	1.613725E-14	1.211705E-15
3.190000E+03	1.614477E-14	1.189175E-15
3.200000E+03	1.615125E-14	1.165172E-15
3.210000E+03	1.615765E-14	1.139798E-15
3.220000E+03	1.616431E-14	1.113105E-15
3.230000E+03	1.617127E-14	1.085126E-15
3.240000E+03	1.617940E-14	1.055953E-15
3.250000E+03	1.618926E-14	1.025651E-15
3.260000E+03	1.620056E-14	9.942344E-16
3.270000E+03	1.621408E-14	9.617855E-16
3.280000E+03	1.623005E-14	9.283520E-16
3.290000E+03	1.624864E-14	8.939830E-16
3.300000E+03	1.627003E-14	8.587309E-16
3.310000E+03	1.629460E-14	8.226653E-16
3.320000E+03	1.632246E-14	7.858476E-16
3.330000E+03	1.635369E-14	7.483494E-16
3.340000E+03	1.638833E-14	7.102563E-16
3.350000E+03	1.642640E-14	6.716739E-16
3.360000E+03	1.646812E-14	6.327439E-16
3.370000E+03	1.651320E-14	5.936268E-16
3.380000E+03	1.656156E-14	5.545464E-16
3.390000E+03	1.661308E-14	5.157998E-16
3.400000E+03	1.666763E-14	4.777855E-16
3.410000E+03	1.672503E-14	4.410416E-16
3.420000E+03	1.678488E-14	4.062887E-16
3.430000E+03	1.684675E-14	3.744899E-16
3.440000E+03	1.691065E-14	3.468962E-16
3.450000E+03	1.697616E-14	3.250033E-16
3.460000E+03	1.704268E-14	3.104003E-16
3.470000E+03	1.711009E-14	3.044251E-16
3.480000E+03	1.717819E-14	3.076248E-16
3.490000E+03	1.724689E-14	3.193964E-16
3.500000E+03	1.731627E-14	3.383060E-16
3.510000E+03	1.738688E-14	3.626488E-16
3.520000E+03	1.745840E-14	3.908038E-16
3.530000E+03	1.753133E-14	4.214419E-16
3.540000E+03	1.760529E-14	4.535177E-16
3.550000E+03	1.768017E-14	4.862535E-16
3.560000E+03	1.775592E-14	5.190798E-16
3.570000E+03	1.783238E-14	5.515792E-16
3.580000E+03	1.790963E-14	5.834557E-16
3.590000E+03	1.798749E-14	6.144894E-16
3.600000E+03	1.806583E-14	6.445242E-16
3.610000E+03	1.814511E-14	6.734720E-16
3.620000E+03	1.822598E-14	7.012912E-16
3.630000E+03	1.830934E-14	7.279790E-16
3.640000E+03	1.839625E-14	7.535657E-16
3.650000E+03	1.848813E-14	7.781167E-16
3.660000E+03	1.858610E-14	8.017014E-16
3.670000E+03	1.869159E-14	8.244169E-16
3.680000E+03	1.880589E-14	8.463640E-16
3.690000E+03	1.893045E-14	8.676585E-16
3.700000E+03	1.906651E-14	8.884145E-16
3.710000E+03	1.921548E-14	9.087561E-16
3.720000E+03	1.937873E-14	9.288088E-16
3.730000E+03	1.955740E-14	9.486884E-16
3.740000E+03	1.975272E-14	9.685156E-16
3.750000E+03	1.996588E-14	9.884057E-16
3.760000E+03	2.019758E-14	1.008450E-15
3.770000E+03	2.044912E-14	1.028765E-15
3.780000E+03	2.072080E-14	1.049414E-15
3.790000E+03	2.101377E-14	1.070498E-15
3.800000E+03	2.132802E-14	1.092053E-15
3.810000E+03	2.166402E-14	1.114137E-15
3.820000E+03	2.202171E-14	1.136770E-15
3.830000E+03	2.240097E-14	1.159966E-15
3.840000E+03	2.280147E-14	1.183720E-15
3.850000E+03	2.322266E-14	1.208007E-15
3.860000E+03	2.366358E-14	1.232776E-15
3.870000E+03	2.412322E-14	1.257962E-15
3.880000E+03	2.460034E-14	1.283486E-15
3.890000E+03	2.509353E-14	1.309246E-15
3.900000E+03	2.560075E-14	1.335104E-15
3.910000E+03	2.612060E-14	1.360948E-15
3.920000E+03	2.665072E-14	1.386608E-15
3.930000E+03	2.718902E-14	1.411922E-15
3.940000E+03	2.773355E-14	1.436727E-15
3.950000E+03	2.828141E-14	1.460811E-15
3.960000E+03	2.883074E-14	1.484005E-15
3.970000E+03	2.937904E-14	1.506105E-15
3.980000E+03	2.992357E-14	1.526893E-15
3.990000E+03	3.046253E-14	1.546193E-15
4.000000E+03	3.099329E-14	1.563787E-15
4.010000E+03	3.151349E-14	1.579468E-15
4.020000E+03	3.202135E-14	1.593058E-15
4.030000E+03	3.251471E-14	1.604360E-15
4.040000E+03	3.299125E-14	1.613171E-15
4.050000E+03	3.344975E-14	1.619344E-15
4.060000E+03	3.388787E-14	1.622676E-15
4.070000E+03	3.430434E-14	1.623026E-15
4.080000E+03	3.469728E-14	1.620224E-15
4.090000E+03	3.506565E-14	1.614148E-15
4.100000E+03	3.540775E-14	1.604652E-15
4.110000E+03	3.572279E-14	1.591641E-15
4.120000E+03	3.600901E-14	1.574986E-15
4.130000E+03	3.626586E-14	1.554628E-15
4.140000E+03	3.649237E-14	1.530502E-15
4.150000E+03	3.668802E-14	1.502578E-15
4.160000E+03	3.685188E-14	1.470830E-15
4.170000E+03	3.698404E-14	1.435296E-15
4.180000E+03	3.708424E-14	1.396020E-15
4.190000E+03	3.715242E-14	1.353085E-15
4.200000E+03	3.718876E-14	1.306610E-15
4.210000E+03	3.719429E-14	1.256778E-15
4.220000E+03	3.716968E-14	1.203796E-15
4.230000E+03	3.711619E-14	1.147928E-15
4.240000E+03	3.703506E-14	1.089485E-15
4.250000E+03	3.692808E-14	1.028850E-15
4.260000E+03	3.679731E-14	9.664754E-16
4.270000E+03	3.664478E-14	9.028917E-16
4.280000E+03	3.647334E-14	8.387502E-16
4.290000E+03	3.628547E-14	7.748222E-16
4.300000E+03	3.608443E-14	7.120662E-16
4.310000E+03	3.587279E-14	6.516495E-16
4.320000E+03	3.565439E-14	5.950464E-16
4.330000E+03	3.543231E-14	5.440458E-16
4.340000E+03	3.521021E-14	5.007580E-16
4.350000E+03	3.499175E-14	4.674272E-16
4.360000E+03	3.478018E-14	4.459457E-16
4.370000E+03	3.457866E-14	4.368790E-16
4.380000E+03	3.438933E-14	4.388064E-16
4.390000E+03	3.421492E-14	4.492262E-16
4.400000E+03	3.405680E-14	4.655455E-16
4.410000E+03	3.391734E-14	4.856622E-16
4.420000E+03	3.379752E-14	5.081358E-16
4.430000E+03	3.369843E-14	5.321954E-16
4.440000E+03	3.362048E-14	5.576168E-16
4.450000E+03	3.356418E-14	5.845938E-16
4.460000E+03	3.352926E-14	6.135792E-16
4.470000E+03	3.351435E-14	6.451213E-16
4.480000E+03	3.351780E-14	6.796370E-16
4.490000E+03	3.353724E-14	7.171026E-16
4.500000E+03	3.356828E-14	7.571246E-16
4.510000E+03	3.360658E-14	7.991981E-16
4.520000E+03	3.364781E-14	8.427805E-16
4.530000E+03	3.368693E-14	8.873030E-16
4.540000E+03	3.371947E-14	9.322177E-16
4.550000E+03	3.374074E-14	9.769887E-16
4.560000E+03	3.374574E-14	1.021090E-15
4.570000E+03	3.373119E-14	1.064069E-15
4.580000E+03	3.369256E-14	1.105461E-15
4.590000E+03	3.362756E-14	1.144896E-15
4.600000E+03	3.353279E-14	1.181994E-15
4.610000E+03	3.340696E-14	1.216476E-15
4.620000E+03	3.324864E-14	1.248087E-15
4.630000E+03	3.305741E-14	1.276638E-15
4.640000E+03	3.283359E-14	1.302001E-15
4.650000E+03	3.257792E-14	1.324092E-15
4.660000E+03	3.229206E-14	1.342897E-15
4.670000E+03	3.197828E-14	1.358455E-15
4.680000E+03	3.163958E-14	1.370867E-15
4.690000E+03	3.127886E-14	1.380255E-15
4.700000E+03	3.089983E-14	1.386802E-15
4.710000E+03	3.050617E-14	1.390712E-15
4.720000E+03	3.010188E-14	1.392223E-15
4.730000E+03	2.969076E-14	1.391580E-15
4.740000E+03	2.927701E-14	1.389061E-15
4.750000E+03	2.886394E-14	1.384911E-15
4.760000E+03	2.845565E-14	1.379423E-15
4.770000E+03	2.805499E-14	1.372831E-15
4.780000E+03	2.766530E-14	1.365399E-15
4.790000E+03	2.728883E-14	1.357338E-15
4.800000E+03	2.692831E-14	1.348877E-15
4.810000E+03	2.658539E-14	1.340193E-15
4.820000E+03	2.626193E-14	1.331468E-15
4.830000E+03	2.595927E-14	1.322852E-15
4.840000E+03	2.567868E-14	1.314487E-15
4.850000E+03	2.542077E-14	1.306473E-15
4.860000E+03	2.518613E-14	1.298905E-15
4.870000E+03	2.497538E-14	1.291872E-15
4.880000E+03	2.478854E-14	1.285425E-15
4.890000E+03	2.462588E-14	1.279621E-15
4.900000E+03	2.448715E-14	1.274484E-15
4.910000E+03	2.437239E-14	1.270046E-15
4.920000E+03	2.428112E-14	1.266307E-15
4.930000E+03	2.421298E-14	1.263266E-15
4.940000E+03	2.416779E-14	1.260926E-15
4.950000E+03	2.414482E-14	1.259255E-15
4.960000E+03	2.414354E-14	1.258225E-15
4.970000E+03	2.416332E-14	1.257800E-15
4.980000E+03	2.420327E-14	1.257920E-15
4.990000E+03	2.426307E-14	1.258555E-15
5.000000E+03	2.434124E-14	1.259604E-15
5.010000E+03	2.443753E-14	1.261027E-15
5.020000E+03	2.455025E-14	1.262703E-15
5.030000E+03	2.467875E-14	1.264560E-15
5.040000E+03	2.482132E-14	1.266466E-15
5.050000E+03	2.497708E-14	1.268324E-15
5.060000E+03	2.514405E-14	1.269980E-15
5.070000E+03	2.532086E-14	1.271301E-15
5.080000E+03	2.550548E-14	1.272121E-15
5.090000E+03	2.569600E-14	1.272272E-15
5.100000E+03	2.589063E-14	1.271592E-15
5.110000E+03	2.608672E-14	1.269872E-15
5.120000E+03	2.628226E-14	1.266933E-15
5.130000E+03	2.647491E-14	1.262580E-15
5.140000E+03	2.666204E-14	1.256606E-15
5.150000E+03	2.684152E-14	1.248827E-15
5.160000E+03	2.701047E-14	1.239031E-15
5.170000E+03	2.716710E-14	1.227060E-15
5.180000E+03	2.730898E-14	1.212734E-15
5.190000E+03	2.743382E-14	1.195889E-15
5.200000E+03	2.754006E-14	1.176404E-15
5.210000E+03	2.762587E-14	1.154159E-15
5.220000E+03	2.769020E-14	1.129080E-15
5.230000E+03	2.773153E-14	1.101089E-15
5.240000E+03	2.774973E-14	1.070184E-15
5.250000E+03	2.774422E-14	1.036359E-15
5.260000E+03	2.771503E-14	9.996534E-16
5.270000E+03	2.766226E-14	9.601290E-16
5.280000E+03	2.758687E-14	9.179011E-16
5.290000E+03	2.748987E-14	8.731092E-16
5.300000E+03	2.737227E-14	8.259197E-16
5.310000E+03	2.723556E-14	7.765469E-16
5.320000E+03	2.708173E-14	7.252561E-16
5.330000E+03	2.691235E-14	6.723511E-16
5.340000E+03	2.672964E-14	6.182205E-16
5.350000E+03	2.653506E-14	5.633344E-16
5.360000E+03	2.633114E-14	5.083363E-16
5.370000E+03	2.611932E-14	4.540794E-16
5.380000E+03	2.590172E-14	4.018003E-16
5.390000E+03	2.568009E-14	3.533087E-16
5.400000E+03	2.545601E-14	3.112709E-16
5.410000E+03	2.523033E-14	2.793754E-16
5.420000E+03	2.500468E-14	2.618000E-16
5.430000E+03	2.477946E-14	2.612210E-16
5.440000E+03	2.455474E-14	2.768202E-16
5.450000E+03	2.433184E-14	3.046729E-16
5.460000E+03	2.411122E-14	3.402036E-16
5.470000E+03	2.389372E-14	3.798238E-16
5.480000E+03	2.368006E-14	4.211265E-16
5.490000E+03	2.347083E-14	4.625918E-16
5.500000E+03	2.326653E-14	5.032802E-16
5.510000E+03	2.306709E-14	5.426073E-16
5.520000E+03	2.287335E-14	5.802400E-16
5.530000E+03	2.268536E-14	6.159780E-16
5.540000E+03	2.250318E-14	6.497175E-16
5.550000E+03	2.232730E-14	6.814329E-16
5.560000E+03	2.215751E-14	7.111237E-16
5.570000E+03	2.199429E-14	7.388412E-16
5.580000E+03	2.183791E-14	7.646530E-16
5.590000E+03	2.168818E-14	7.886262E-16
5.600000E+03	2.154583E-14	8.108706E-16
5.610000E+03	2.141067E-14	8.314710E-16
5.620000E+03	2.128318E-14	8.505413E-16
5.630000E+03	2.116361E-14	8.681890E-16
5.640000E+03	2.105192E-14	8.845120E-16
5.650000E+03	2.094850E-14	8.996237E-16
5.660000E+03	2.085300E-14	9.136053E-16
5.670000E+03	2.076585E-14	9.265694E-16
5.680000E+03	2.068675E-14	9.385924E-16
5.690000E+03	2.061569E-14	9.497612E-16
5.700000E+03	2.055190E-14	9.601221E-16
5.710000E+03	2.049533E-14	9.697500E-16
5.720000E+03	2.044511E-14	9.786769E-16
5.730000E+03	2.040043E-14	9.869321E-16
5.740000E+03	2.036055E-14	9.945418E-16
5.750000E+03	2.032431E-14	1.001509E-15
5.760000E+03	2.028998E-14	1.007800E-15
5.770000E+03	2.025677E-14	1.013425E-15
5.780000E+03	2.022266E-14	1.018327E-15
5.790000E+03	2.018617E-14	1.022473E-15
5.800000E+03	2.014577E-14	1.025820E-15
5.810000E+03	2.009920E-14	1.028286E-15
5.820000E+03	2.004506E-14	1.029829E-15
5.830000E+03	1.998136E-14	1.030373E-15
5.840000E+03	1.990659E-14	1.029865E-15
5.850000E+03	1.981893E-14	1.028232E-15
5.860000E+03	1.971739E-14	1.025442E-15
5.870000E+03	1.960031E-14	1.021427E-15
5.880000E+03	1.946715E-14	1.016174E-15
5.890000E+03	1.931697E-14	1.009649E-15
5.900000E+03	1.914960E-14	1.001858E-15
5.910000E+03	1.896474E-14	9.927963E-16
5.920000E+03	1.876285E-14	9.825002E-16
5.930000E+03	1.854451E-14	9.710105E-16
5.940000E+03	1.831084E-14	9.583952E-16
5.950000E+03	1.806263E-14	9.447033E-16
5.960000E+03	1.780197E-14	9.300532E-16
5.970000E+03	1.753018E-14	9.145193E-16
5.980000E+03	1.724940E-14	8.982184E-16
5.990000E+03	1.696171E-14	8.812635E-16
6.000000E+03	1.666934E-14	8.637719E-16
6.010000E+03	1.637474E-14	8.458729E-16
6.020000E+03	1.608023E-14	8.276846E-16
6.030000E+03	1.578807E-14	8.093217E-16
6.040000E+03	1.550050E-14	7.908933E-16
6.050000E+03	1.521981E-14	7.725104E-16
6.060000E+03	1.494782E-14	7.542551E-16
6.070000E+03	1.468655E-14	7.362174E-16
6.080000E+03	1.443766E-14	7.184653E-16
6.090000E+03	1.420281E-14	7.010621E-16
6.100000E+03	1.398308E-14	6.840394E-16
6.110000E+03	1.377989E-14	6.674399E-16
6.120000E+03	1.359373E-14	6.512575E-16
6.130000E+03	1.342561E-14	6.355050E-16
6.140000E+03	1.327578E-14	6.201559E-16
6.150000E+03	1.314465E-14	6.051859E-16
6.160000E+03	1.303209E-14	5.905414E-16
6.170000E+03	1.293829E-14	5.761798E-16
6.180000E+03	1.286294E-14	5.620312E-16
6.190000E+03	1.280555E-14	5.480158E-16
6.200000E+03	1.276549E-14	5.340455E-16
6.210000E+03	1.274212E-14	5.200325E-16
6.220000E+03	1.273454E-14	5.058776E-16
6.230000E+03	1.274152E-14	4.914729E-16
6.240000E+03	1.276209E-14	4.767263E-16
6.250000E+03	1.279480E-14	4.615371E-16
6.260000E+03	1.283851E-14	4.458278E-16
6.270000E+03	1.289179E-14	4.295292E-16
6.280000E+03	1.295319E-14	4.125940E-16
6.290000E+03	1.302099E-14	3.949991E-16
6.300000E+03	1.309422E-14	3.767844E-16
6.310000E+03	1.317114E-14	3.580200E-16
6.320000E+03	1.325039E-14	3.388578E-16
6.330000E+03	1.333062E-14	3.195418E-16
6.340000E+03	1.341051E-14	3.004366E-16
6.350000E+03	1.348856E-14	2.820569E-16
6.360000E+03	1.356371E-14	2.651134E-16
6.370000E+03	1.363476E-14	2.505177E-16
6.380000E+03	1.370053E-14	2.393579E-16
6.390000E+03	1.375973E-14	2.327744E-16
6.400000E+03	1.381135E-14	2.317115E-16
6.410000E+03	1.385403E-14	2.364927E-16
6.420000E+03	1.388760E-14	2.466350E-16
6.430000E+03	1.391106E-14	2.611439E-16
6.440000E+03	1.392413E-14	2.788959E-16
6.450000E+03	1.392617E-14	2.988266E-16
6.460000E+03	1.391681E-14	3.200352E-16
6.470000E+03	1.389577E-14	3.417974E-16
6.480000E+03	1.386304E-14	3.635533E-16
6.490000E+03	1.381827E-14	3.848623E-16
6.500000E+03	1.376164E-14	4.053985E-16
6.510000E+03	1.369317E-14	4.249111E-16
6.520000E+03	1.361320E-14	4.432201E-16
6.530000E+03	1.352195E-14	4.601905E-16
6.540000E+03	1.342014E-14	4.757434E-16
6.550000E+03	1.330792E-14	4.898122E-16
6.560000E+03	1.318637E-14	5.023900E-16
6.570000E+03	1.305579E-14	5.134625E-16
6.580000E+03	1.291694E-14	5.230511E-16
6.590000E+03	1.277084E-14	5.312026E-16
6.600000E+03	1.261813E-14	5.379611E-16
6.610000E+03	1.245985E-14	5.433986E-16
6.620000E+03	1.229667E-14	5.475787E-16
6.630000E+03	1.212965E-14	5.505891E-16
6.640000E+03	1.195943E-14	5.525042E-16
6.650000E+03	1.178683E-14	5.534101E-16
6.660000E+03	1.161285E-14	5.534032E-16
6.670000E+03	1.143823E-14	5.525710E-16
6.680000E+03	1.126349E-14	5.509900E-16
6.690000E+03	1.108929E-14	5.487439E-16
6.700000E+03	1.091644E-14	5.459223E-16
6.710000E+03	1.074530E-14	5.425925E-16
6.720000E+03	1.057656E-14	5.388362E-16
6.730000E+03	1.041065E-14	5.347208E-16
6.740000E+03	1.024779E-14	5.303000E-16
6.750000E+03	1.008849E-14	5.256404E-16
6.760000E+03	9.933030E-15	5.207945E-16
6.770000E+03	9.781463E-15	5.158008E-16
6.780000E+03	9.633977E-15	5.107018E-16
6.790000E+03	9.491046E-15	5.055534E-16
6.800000E+03	9.352428E-15	5.003707E-16
6.810000E+03	9.218346E-15	4.951917E-16
6.820000E+03	9.088819E-15	4.900412E-16
6.830000E+03	8.963673E-15	4.849315E-16
6.840000E+03	8.843030E-15	4.798890E-16
6.850000E+03	8.726664E-15	4.749196E-16
6.860000E+03	8.614802E-15	4.700518E-16
6.870000E+03	8.507017E-15	4.652775E-16
6.880000E+03	8.403184E-15	4.606030E-16
6.890000E+03	8.303470E-15	4.560497E-16
6.900000E+03	8.207410E-15	4.516030E-16
6.910000E+03	8.114990E-15	4.472720E-16
6.920000E+03	8.025884E-15	4.430475E-16
6.930000E+03	7.940059E-15	4.389356E-16
6.940000E+03	7.857326E-15	4.349331E-16
6.950000E+03	7.777343E-15	4.310275E-16
6.960000E+03	7.700061E-15	4.272216E-16
6.970000E+03	7.625136E-15	4.235015E-16
6.980000E+03	7.552514E-15	4.198688E-16
6.990000E+03	7.481996E-15	4.163164E-16
7.000000E+03	7.413240E-15	4.128290E-16
7.010000E+03	7.346194E-15	4.094067E-16
7.020000E+03	7.280523E-15	4.060339E-16
7.030000E+03	7.216040E-15	4.027025E-16
7.040000E+03	7.152701E-15	3.994124E-16
7.050000E+03	7.090329E-15	3.961555E-16
7.060000E+03	7.028473E-15	3.929084E-16
7.070000E+03	6.967248E-15	3.896790E-16
7.080000E+03	6.906499E-15	3.864598E-16
7.090000E+03	6.845941E-15	3.832362E-16
7.100000E+03	6.785439E-15	3.800015E-16
7.110000E+03	6.724868E-15	3.767495E-16
7.120000E+03	6.664252E-15	3.734824E-16
7.130000E+03	6.603219E-15	3.701799E-16
7.140000E+03	6.541953E-15	3.668530E-16
7.150000E+03	6.480380E-15	3.634979E-16
7.160000E+03	6.418175E-15	3.600969E-16
7.170000E+03	6.355428E-15	3.566554E-16
7.180000E+03	6.292114E-15	3.531724E-16
7.190000E+03	6.228351E-15	3.496549E-16
7.200000E+03	6.163884E-15	3.460888E-16
7.210000E+03	6.098995E-15	3.424901E-16
7.220000E+03	6.033461E-15	3.388468E-16
7.230000E+03	5.967594E-15	3.351766E-16
7.240000E+03	5.901207E-15	3.314690E-16
7.250000E+03	5.834513E-15	3.277363E-16
7.260000E+03	5.767733E-15	3.239911E-16
7.270000E+03	5.700730E-15	3.202257E-16
7.280000E+03	5.633751E-15	3.164542E-16
7.290000E+03	5.566931E-15	3.126842E-16
7.300000E+03	5.500416E-15	3.089237E-16
7.310000E+03	5.434358E-15	3.051812E-16
7.320000E+03	5.369035E-15	3.014722E-16
7.330000E+03	5.304373E-15	2.977922E-16
7.340000E+03	5.240779E-15	2.941637E-16
7.350000E+03	5.178303E-15	2.905892E-16
7.360000E+03	5.117234E-15	2.870841E-16
7.370000E+03	5.057623E-15	2.836506E-16
7.380000E+03	4.999869E-15	2.803103E-16
7.390000E+03	4.944129E-15	2.770709E-16
7.400000E+03	4.890559E-15	2.739400E-16
7.410000E+03	4.839419E-15	2.709309E-16
7.420000E+03	4.790848E-15	2.680496E-16
7.430000E+03	4.745199E-15	2.653143E-16
7.440000E+03	4.702371E-15	2.627171E-16
7.450000E+03	4.662695E-15	2.602744E-16
7.460000E+03	4.626162E-15	2.579830E-16
7.470000E+03	4.592753E-15	2.558390E-16
7.480000E+03	4.562658E-15	2.538498E-16
7.490000E+03	4.535615E-15	2.519974E-16
7.500000E+03	4.511902E-15	2.502934E-16
7.510000E+03	4.491454E-15	2.487297E-16
7.520000E+03	4.474192E-15	2.472974E-16
7.530000E+03	4.460243E-15	2.459984E-16
7.540000E+03	4.449502E-15	2.448213E-16
7.550000E+03	4.441847E-15	2.437532E-16
7.560000E+03	4.437474E-15	2.427982E-16
7.570000E+03	4.436233E-15	2.419407E-16
7.580000E+03	4.437955E-15	2.411639E-16
7.590000E+03	4.442681E-15	2.404612E-16
7.600000E+03	4.450208E-15	2.398128E-16
7.610000E+03	4.460431E-15	2.392032E-16
7.620000E+03	4.473340E-15	2.386213E-16
7.630000E+03	4.488796E-15	2.380485E-16
7.640000E+03	4.506409E-15	2.374524E-16
7.650000E+03	4.526233E-15	2.368235E-16
7.660000E+03	4.547957E-15	2.361324E-16
7.670000E+03	4.571365E-15	2.353545E-16
7.680000E+03	4.596342E-15	2.344698E-16
7.690000E+03	4.622519E-15	2.334452E-16
7.700000E+03	4.649623E-15	2.322525E-16
7.710000E+03	4.677489E-15	2.308692E-16
7.720000E+03	4.705691E-15	2.292599E-16
7.730000E+03	4.734033E-15	2.274015E-16
7.740000E+03	4.762055E-15	2.252591E-16
7.750000E+03	4.789539E-15	2.228108E-16
7.760000E+03	4.815998E-15	2.200241E-16
