#wls	flux	fluxerr
1.600000E+03	1.475864E-14	2.914922E-15
1.640000E+03	1.216699E-14	2.193457E-15
1.680000E+03	9.974813E-15	1.628605E-15
1.720000E+03	8.138617E-15	1.192713E-15
1.760000E+03	6.613224E-15	8.609908E-16
1.800000E+03	5.356709E-15	6.122399E-16
1.840000E+03	4.330420E-15	4.285939E-16
1.880000E+03	3.498119E-15	2.951732E-16
1.920000E+03	2.828429E-15	2.000306E-16
1.960000E+03	2.293328E-15	1.336618E-16
2.000000E+03	1.869561E-15	8.876811E-17
2.040000E+03	1.537006E-15	5.978561E-17
2.080000E+03	1.279538E-15	4.246538E-17
2.120000E+03	1.084907E-15	3.306167E-17
2.160000E+03	9.455019E-16	2.807379E-17
2.200000E+03	8.552716E-16	2.550898E-17
2.240000E+03	8.105150E-16	2.489601E-17
2.280000E+03	8.099378E-16	2.647860E-17
2.320000E+03	8.543717E-16	3.028600E-17
2.360000E+03	9.476330E-16	3.611642E-17
2.400000E+03	1.097798E-15	4.383511E-17
2.440000E+03	1.317179E-15	5.327062E-17
2.480000E+03	1.621511E-15	6.410728E-17
2.520000E+03	2.028122E-15	7.606907E-17
2.560000E+03	2.552257E-15	8.988815E-17
2.600000E+03	3.201423E-15	1.095009E-16
2.640000E+03	3.970177E-15	1.434889E-16
2.680000E+03	4.841657E-15	1.995047E-16
2.720000E+03	5.790023E-15	2.792164E-16
2.760000E+03	6.778840E-15	3.796718E-16
2.800000E+03	7.764631E-15	4.947657E-16
2.840000E+03	8.702381E-15	6.162143E-16
2.880000E+03	9.549909E-15	7.345134E-16
2.920000E+03	1.027549E-14	8.403879E-16
2.960000E+03	1.086068E-14	9.260239E-16
3.000000E+03	1.130140E-14	9.859790E-16
3.010000E+03	1.138943E-14	9.965459E-16
3.020000E+03	1.146894E-14	1.005290E-15
3.030000E+03	1.154035E-14	1.012215E-15
3.040000E+03	1.160380E-14	1.017311E-15
3.050000E+03	1.165943E-14	1.020573E-15
3.060000E+03	1.170801E-14	1.022056E-15
3.070000E+03	1.174916E-14	1.021723E-15
3.080000E+03	1.178368E-14	1.019642E-15
3.090000E+03	1.181179E-14	1.015840E-15
3.100000E+03	1.183400E-14	1.010371E-15
3.110000E+03	1.185057E-14	1.003272E-15
3.120000E+03	1.186202E-14	9.946070E-16
3.130000E+03	1.186859E-14	9.844204E-16
3.140000E+03	1.187055E-14	9.727614E-16
3.150000E+03	1.186842E-14	9.597038E-16
3.160000E+03	1.186271E-14	9.453222E-16
3.170000E+03	1.185367E-14	9.296725E-16
3.180000E+03	1.184155E-14	9.128130E-16
3.190000E+03	1.182684E-14	8.948226E-16
3.200000E+03	1.181001E-14	8.757796E-16
3.210000E+03	1.179129E-14	8.557447E-16
3.220000E+03	1.177090E-14	8.347803E-16
3.230000E+03	1.174908E-14	8.129505E-16
3.240000E+03	1.172648E-14	7.903502E-16
3.250000E+03	1.170330E-14	7.670428E-16
3.260000E+03	1.167974E-14	7.430930E-16
3.270000E+03	1.165601E-14	7.185679E-16
3.280000E+03	1.163250E-14	6.935484E-16
3.290000E+03	1.160921E-14	6.680931E-16
3.300000E+03	1.158694E-14	6.423090E-16
3.310000E+03	1.156549E-14	6.162488E-16
3.320000E+03	1.154506E-14	5.899942E-16
3.330000E+03	1.152626E-14	5.636504E-16
3.340000E+03	1.150911E-14	5.373000E-16
3.350000E+03	1.149386E-14	5.110451E-16
3.360000E+03	1.148076E-14	4.849990E-16
3.370000E+03	1.147009E-14	4.592888E-16
3.380000E+03	1.146213E-14	4.340594E-16
3.390000E+03	1.145705E-14	4.094715E-16
3.400000E+03	1.145550E-14	3.857300E-16
3.410000E+03	1.145735E-14	3.630435E-16
3.420000E+03	1.146297E-14	3.416758E-16
3.430000E+03	1.147290E-14	3.219348E-16
3.440000E+03	1.148719E-14	3.041545E-16
3.450000E+03	1.150588E-14	2.887019E-16
3.460000E+03	1.152942E-14	2.759628E-16
3.470000E+03	1.155783E-14	2.662698E-16
3.480000E+03	1.159124E-14	2.598151E-16
3.490000E+03	1.163026E-14	2.565612E-16
3.500000E+03	1.167546E-14	2.562703E-16
3.510000E+03	1.172712E-14	2.585859E-16
3.520000E+03	1.178578E-14	2.631067E-16
3.530000E+03	1.185144E-14	2.694139E-16
3.540000E+03	1.192416E-14	2.771148E-16
3.550000E+03	1.200348E-14	2.858496E-16
3.560000E+03	1.208927E-14	2.953163E-16
3.570000E+03	1.218106E-14	3.052556E-16
3.580000E+03	1.227824E-14	3.154482E-16
3.590000E+03	1.238053E-14	3.257215E-16
3.600000E+03	1.248739E-14	3.359267E-16
3.610000E+03	1.259829E-14	3.459395E-16
3.620000E+03	1.271307E-14	3.556658E-16
3.630000E+03	1.283162E-14	3.650293E-16
3.640000E+03	1.295411E-14	3.739762E-16
3.650000E+03	1.308045E-14	3.824573E-16
3.660000E+03	1.321103E-14	3.904490E-16
3.670000E+03	1.334626E-14	3.979393E-16
3.680000E+03	1.348711E-14	4.049437E-16
3.690000E+03	1.363417E-14	4.114763E-16
3.700000E+03	1.378900E-14	4.175904E-16
3.710000E+03	1.395281E-14	4.233389E-16
3.720000E+03	1.412744E-14	4.288034E-16
3.730000E+03	1.431494E-14	4.340820E-16
3.740000E+03	1.451748E-14	4.392846E-16
3.750000E+03	1.473735E-14	4.445343E-16
3.760000E+03	1.497720E-14	4.499713E-16
3.770000E+03	1.523924E-14	4.557304E-16
3.780000E+03	1.552610E-14	4.619623E-16
3.790000E+03	1.583946E-14	4.687932E-16
3.800000E+03	1.618124E-14	4.763565E-16
3.810000E+03	1.655226E-14	4.847508E-16
3.820000E+03	1.695300E-14	4.940602E-16
3.830000E+03	1.738295E-14	5.043322E-16
3.840000E+03	1.784035E-14	5.155678E-16
3.850000E+03	1.832299E-14	5.277422E-16
3.860000E+03	1.882725E-14	5.407743E-16
3.870000E+03	1.934860E-14	5.545386E-16
3.880000E+03	1.988204E-14	5.688771E-16
3.890000E+03	2.042160E-14	5.835820E-16
3.900000E+03	2.096166E-14	5.984347E-16
3.910000E+03	2.149598E-14	6.131793E-16
3.920000E+03	2.201911E-14	6.275666E-16
3.930000E+03	2.252585E-14	6.413428E-16
3.940000E+03	2.301172E-14	6.542723E-16
3.950000E+03	2.347356E-14	6.661599E-16
3.960000E+03	2.390870E-14	6.768349E-16
3.970000E+03	2.431608E-14	6.861897E-16
3.980000E+03	2.469534E-14	6.941563E-16
3.990000E+03	2.504708E-14	7.007166E-16
4.000000E+03	2.537298E-14	7.059031E-16
4.010000E+03	2.567543E-14	7.097869E-16
4.020000E+03	2.595695E-14	7.124572E-16
4.030000E+03	2.622082E-14	7.140336E-16
4.040000E+03	2.647044E-14	7.146453E-16
4.050000E+03	2.670895E-14	7.144166E-16
4.060000E+03	2.693909E-14	7.134591E-16
4.070000E+03	2.716379E-14	7.118871E-16
4.080000E+03	2.738505E-14	7.097839E-16
4.090000E+03	2.760422E-14	7.072075E-16
4.100000E+03	2.782186E-14	7.041868E-16
4.110000E+03	2.803769E-14	7.007187E-16
4.120000E+03	2.825050E-14	6.967664E-16
4.130000E+03	2.845856E-14	6.922711E-16
4.140000E+03	2.865858E-14	6.871281E-16
4.150000E+03	2.884659E-14	6.812140E-16
4.160000E+03	2.901789E-14	6.743887E-16
4.170000E+03	2.916767E-14	6.665151E-16
4.180000E+03	2.929011E-14	6.574433E-16
4.190000E+03	2.937980E-14	6.470464E-16
4.200000E+03	2.943133E-14	6.352139E-16
4.210000E+03	2.944004E-14	6.218695E-16
4.220000E+03	2.940188E-14	6.069670E-16
4.230000E+03	2.931425E-14	5.905098E-16
4.240000E+03	2.917532E-14	5.725357E-16
4.250000E+03	2.898508E-14	5.531404E-16
4.260000E+03	2.874444E-14	5.324637E-16
4.270000E+03	2.845623E-14	5.107131E-16
4.280000E+03	2.812467E-14	4.881604E-16
4.290000E+03	2.775512E-14	4.651433E-16
4.300000E+03	2.735439E-14	4.420779E-16
4.310000E+03	2.693054E-14	4.194607E-16
4.320000E+03	2.649211E-14	3.978559E-16
4.330000E+03	2.604842E-14	3.778969E-16
4.340000E+03	2.560910E-14	3.602601E-16
4.350000E+03	2.518323E-14	3.456059E-16
4.360000E+03	2.478072E-14	3.344798E-16
4.370000E+03	2.441243E-14	3.270582E-16
4.380000E+03	2.409161E-14	3.230399E-16
4.390000E+03	2.383158E-14	3.218985E-16
4.400000E+03	2.364372E-14	3.231313E-16
4.410000E+03	2.353695E-14	3.263572E-16
4.420000E+03	2.351825E-14	3.313523E-16
4.430000E+03	2.359167E-14	3.380328E-16
4.440000E+03	2.375933E-14	3.464528E-16
4.450000E+03	2.402126E-14	3.567809E-16
4.460000E+03	2.437492E-14	3.692686E-16
4.470000E+03	2.481546E-14	3.842032E-16
4.480000E+03	2.533606E-14	4.017927E-16
4.490000E+03	2.592780E-14	4.220049E-16
4.500000E+03	2.657969E-14	4.445968E-16
4.510000E+03	2.727897E-14	4.692345E-16
4.520000E+03	2.800985E-14	4.955158E-16
4.530000E+03	2.875453E-14	5.229964E-16
4.540000E+03	2.949340E-14	5.511907E-16
4.550000E+03	3.020565E-14	5.795785E-16
4.560000E+03	3.087034E-14	6.076196E-16
4.570000E+03	3.146679E-14	6.347594E-16
4.580000E+03	3.197588E-14	6.604522E-16
4.590000E+03	3.238105E-14	6.841840E-16
4.600000E+03	3.266950E-14	7.055015E-16
4.610000E+03	3.283233E-14	7.240228E-16
4.620000E+03	3.286502E-14	7.394533E-16
4.630000E+03	3.276829E-14	7.516162E-16
4.640000E+03	3.254715E-14	7.604375E-16
4.650000E+03	3.221058E-14	7.659483E-16
4.660000E+03	3.177031E-14	7.682621E-16
4.670000E+03	3.124132E-14	7.675925E-16
4.680000E+03	3.063927E-14	7.641971E-16
4.690000E+03	2.998124E-14	7.583996E-16
4.700000E+03	2.928412E-14	7.505529E-16
4.710000E+03	2.856346E-14	7.410113E-16
4.720000E+03	2.783426E-14	7.301495E-16
4.730000E+03	2.710960E-14	7.183258E-16
4.740000E+03	2.640070E-14	7.058783E-16
4.750000E+03	2.571689E-14	6.931169E-16
4.760000E+03	2.506559E-14	6.803170E-16
4.770000E+03	2.445201E-14	6.677038E-16
4.780000E+03	2.388017E-14	6.554737E-16
4.790000E+03	2.335263E-14	6.437835E-16
4.800000E+03	2.287047E-14	6.327469E-16
4.810000E+03	2.243376E-14	6.224449E-16
4.820000E+03	2.204191E-14	6.129355E-16
4.830000E+03	2.169325E-14	6.042406E-16
4.840000E+03	2.138596E-14	5.963718E-16
4.850000E+03	2.111761E-14	5.893148E-16
4.860000E+03	2.088528E-14	5.830315E-16
4.870000E+03	2.068620E-14	5.774768E-16
4.880000E+03	2.051726E-14	5.725848E-16
4.890000E+03	2.037535E-14	5.682775E-16
4.900000E+03	2.025743E-14	5.644691E-16
4.910000E+03	2.016049E-14	5.610673E-16
4.920000E+03	2.008238E-14	5.580002E-16
4.930000E+03	2.002069E-14	5.551873E-16
4.940000E+03	1.997409E-14	5.525811E-16
4.950000E+03	1.994171E-14	5.501507E-16
4.960000E+03	1.992318E-14	5.478847E-16
4.970000E+03	1.991917E-14	5.458063E-16
4.980000E+03	1.993082E-14	5.439560E-16
4.990000E+03	1.995981E-14	5.423934E-16
5.000000E+03	2.000791E-14	5.411814E-16
5.010000E+03	2.007812E-14	5.404159E-16
5.020000E+03	2.017246E-14	5.401632E-16
5.030000E+03	2.029389E-14	5.405097E-16
5.040000E+03	2.044483E-14	5.415207E-16
5.050000E+03	2.062704E-14	5.432354E-16
5.060000E+03	2.084243E-14	5.456887E-16
5.070000E+03	2.109243E-14	5.488932E-16
5.080000E+03	2.137728E-14	5.528221E-16
5.090000E+03	2.169712E-14	5.574389E-16
5.100000E+03	2.205115E-14	5.626757E-16
5.110000E+03	2.243767E-14	5.684385E-16
5.120000E+03	2.285380E-14	5.746004E-16
5.130000E+03	2.329583E-14	5.810125E-16
5.140000E+03	2.375913E-14	5.875037E-16
5.150000E+03	2.423746E-14	5.938646E-16
5.160000E+03	2.472366E-14	5.998662E-16
5.170000E+03	2.520952E-14	6.052574E-16
5.180000E+03	2.568600E-14	6.097706E-16
5.190000E+03	2.614322E-14	6.131236E-16
5.200000E+03	2.657161E-14	6.150462E-16
5.210000E+03	2.696162E-14	6.152744E-16
5.220000E+03	2.730417E-14	6.135618E-16
5.230000E+03	2.759163E-14	6.097033E-16
5.240000E+03	2.781824E-14	6.035448E-16
5.250000E+03	2.797958E-14	5.949738E-16
5.260000E+03	2.807331E-14	5.839354E-16
5.270000E+03	2.809969E-14	5.704455E-16
5.280000E+03	2.806065E-14	5.545712E-16
5.290000E+03	2.795980E-14	5.364317E-16
5.300000E+03	2.780181E-14	5.161881E-16
5.310000E+03	2.759258E-14	4.940481E-16
5.320000E+03	2.733858E-14	4.702579E-16
5.330000E+03	2.704650E-14	4.451032E-16
5.340000E+03	2.672297E-14	4.189173E-16
5.350000E+03	2.637409E-14	3.920936E-16
5.360000E+03	2.600611E-14	3.651255E-16
5.370000E+03	2.562432E-14	3.386290E-16
5.380000E+03	2.523387E-14	3.134034E-16
5.390000E+03	2.483930E-14	2.904715E-16
5.400000E+03	2.444538E-14	2.711029E-16
5.410000E+03	2.405604E-14	2.567043E-16
5.420000E+03	2.367474E-14	2.484749E-16
5.430000E+03	2.330328E-14	2.468094E-16
5.440000E+03	2.294202E-14	2.510372E-16
5.450000E+03	2.259016E-14	2.597059E-16
5.460000E+03	2.224697E-14	2.711873E-16
5.470000E+03	2.191096E-14	2.840908E-16
5.480000E+03	2.158149E-14	2.973931E-16
5.490000E+03	2.125761E-14	3.103904E-16
5.500000E+03	2.093886E-14	3.226380E-16
5.510000E+03	2.062476E-14	3.338745E-16
5.520000E+03	2.031463E-14	3.439621E-16
5.530000E+03	2.000842E-14	3.528598E-16
5.540000E+03	1.970551E-14	3.605731E-16
5.550000E+03	1.940547E-14	3.671439E-16
5.560000E+03	1.910831E-14	3.726416E-16
5.570000E+03	1.881457E-14	3.771547E-16
5.580000E+03	1.852484E-14	3.807750E-16
5.590000E+03	1.824037E-14	3.836071E-16
5.600000E+03	1.796290E-14	3.857628E-16
5.610000E+03	1.769466E-14	3.873615E-16
5.620000E+03	1.743831E-14	3.885290E-16
5.630000E+03	1.719685E-14	3.893965E-16
5.640000E+03	1.697336E-14	3.900944E-16
5.650000E+03	1.677139E-14	3.907630E-16
5.660000E+03	1.659417E-14	3.915322E-16
5.670000E+03	1.644511E-14	3.925358E-16
5.680000E+03	1.632708E-14	3.938913E-16
5.690000E+03	1.624272E-14	3.957091E-16
5.700000E+03	1.619441E-14	3.980894E-16
5.710000E+03	1.618357E-14	4.011072E-16
5.720000E+03	1.621133E-14	4.048255E-16
5.730000E+03	1.627770E-14	4.092762E-16
5.740000E+03	1.638200E-14	4.144702E-16
5.750000E+03	1.652264E-14	4.203913E-16
5.760000E+03	1.669740E-14	4.270033E-16
5.770000E+03	1.690213E-14	4.342174E-16
5.780000E+03	1.713270E-14	4.419424E-16
5.790000E+03	1.738288E-14	4.500293E-16
5.800000E+03	1.764656E-14	4.583306E-16
5.810000E+03	1.791608E-14	4.666553E-16
5.820000E+03	1.818311E-14	4.747927E-16
5.830000E+03	1.843949E-14	4.825344E-16
5.840000E+03	1.867636E-14	4.896508E-16
5.850000E+03	1.888546E-14	4.959260E-16
5.860000E+03	1.905845E-14	5.011395E-16
5.870000E+03	1.918892E-14	5.051206E-16
5.880000E+03	1.927054E-14	5.077008E-16
5.890000E+03	1.929921E-14	5.087727E-16
5.900000E+03	1.927147E-14	5.082491E-16
5.910000E+03	1.918633E-14	5.061129E-16
5.920000E+03	1.904387E-14	5.023814E-16
5.930000E+03	1.884562E-14	4.971158E-16
5.940000E+03	1.859418E-14	4.904093E-16
5.950000E+03	1.829388E-14	4.824025E-16
5.960000E+03	1.794949E-14	4.732463E-16
5.970000E+03	1.756624E-14	4.630984E-16
5.980000E+03	1.715042E-14	4.521382E-16
5.990000E+03	1.670801E-14	4.405261E-16
6.000000E+03	1.624550E-14	4.284258E-16
6.010000E+03	1.576936E-14	4.159904E-16
6.020000E+03	1.528561E-14	4.033498E-16
6.030000E+03	1.480047E-14	3.906324E-16
6.040000E+03	1.431989E-14	3.779551E-16
6.050000E+03	1.384955E-14	3.654254E-16
6.060000E+03	1.339440E-14	3.531345E-16
6.070000E+03	1.295939E-14	3.411778E-16
6.080000E+03	1.254915E-14	3.296497E-16
6.090000E+03	1.216737E-14	3.186270E-16
6.100000E+03	1.181771E-14	3.081928E-16
6.110000E+03	1.150285E-14	2.984100E-16
6.120000E+03	1.122554E-14	2.893466E-16
6.130000E+03	1.098742E-14	2.810422E-16
6.140000E+03	1.078972E-14	2.735260E-16
6.150000E+03	1.063346E-14	2.668181E-16
6.160000E+03	1.051868E-14	2.609107E-16
6.170000E+03	1.044491E-14	2.557789E-16
6.180000E+03	1.041153E-14	2.513908E-16
6.190000E+03	1.041714E-14	2.476901E-16
6.200000E+03	1.045962E-14	2.446005E-16
6.210000E+03	1.053658E-14	2.420365E-16
6.220000E+03	1.064467E-14	2.398882E-16
6.230000E+03	1.078047E-14	2.380426E-16
6.240000E+03	1.093996E-14	2.363731E-16
6.250000E+03	1.111861E-14	2.347425E-16
6.260000E+03	1.131177E-14	2.330147E-16
6.270000E+03	1.151453E-14	2.310535E-16
6.280000E+03	1.172231E-14	2.287391E-16
6.290000E+03	1.193056E-14	2.259668E-16
6.300000E+03	1.213507E-14	2.226591E-16
6.310000E+03	1.233173E-14	2.187704E-16
6.320000E+03	1.251787E-14	2.143203E-16
6.330000E+03	1.269056E-14	2.093752E-16
6.340000E+03	1.284829E-14	2.040900E-16
6.350000E+03	1.298968E-14	1.987001E-16
6.360000E+03	1.311420E-14	1.935452E-16
6.370000E+03	1.322212E-14	1.890717E-16
6.380000E+03	1.331428E-14	1.858157E-16
6.390000E+03	1.339153E-14	1.843476E-16
6.400000E+03	1.345528E-14	1.851625E-16
6.410000E+03	1.350611E-14	1.884407E-16
6.420000E+03	1.354334E-14	1.939292E-16
6.430000E+03	1.356586E-14	2.011357E-16
6.440000E+03	1.357295E-14	2.095257E-16
6.450000E+03	1.356343E-14	2.185951E-16
6.460000E+03	1.353668E-14	2.279185E-16
6.470000E+03	1.349229E-14	2.371514E-16
6.480000E+03	1.342982E-14	2.460217E-16
6.490000E+03	1.334927E-14	2.543267E-16
6.500000E+03	1.325082E-14	2.619196E-16
6.510000E+03	1.313449E-14	2.686915E-16
6.520000E+03	1.300113E-14	2.745830E-16
6.530000E+03	1.285158E-14	2.795620E-16
6.540000E+03	1.268691E-14	2.836216E-16
6.550000E+03	1.250795E-14	2.867665E-16
6.560000E+03	1.231633E-14	2.890317E-16
6.570000E+03	1.211357E-14	2.904607E-16
6.580000E+03	1.190113E-14	2.911029E-16
6.590000E+03	1.168072E-14	2.910201E-16
6.600000E+03	1.145425E-14	2.902838E-16
6.610000E+03	1.122329E-14	2.889595E-16
6.620000E+03	1.098952E-14	2.871189E-16
6.630000E+03	1.075458E-14	2.848332E-16
6.640000E+03	1.052002E-14	2.821723E-16
6.650000E+03	1.028725E-14	2.792031E-16
6.660000E+03	1.005742E-14	2.759846E-16
6.670000E+03	9.831854E-15	2.725805E-16
6.680000E+03	9.611581E-15	2.690451E-16
6.690000E+03	9.397465E-15	2.654276E-16
6.700000E+03	9.190075E-15	2.617677E-16
6.710000E+03	8.990303E-15	2.581126E-16
6.720000E+03	8.798290E-15	2.544871E-16
6.730000E+03	8.614363E-15	2.509198E-16
6.740000E+03	8.439021E-15	2.474427E-16
6.750000E+03	8.272074E-15	2.440667E-16
6.760000E+03	8.113675E-15	2.408111E-16
6.770000E+03	7.963612E-15	2.376831E-16
6.780000E+03	7.822019E-15	2.346992E-16
6.790000E+03	7.688420E-15	2.318562E-16
6.800000E+03	7.562704E-15	2.291608E-16
6.810000E+03	7.444583E-15	2.266135E-16
6.820000E+03	7.333740E-15	2.242126E-16
6.830000E+03	7.229835E-15	2.219552E-16
6.840000E+03	7.132516E-15	2.198370E-16
6.850000E+03	7.041294E-15	2.178486E-16
6.860000E+03	6.956055E-15	2.159920E-16
6.870000E+03	6.876184E-15	2.142526E-16
6.880000E+03	6.801566E-15	2.126313E-16
6.890000E+03	6.731719E-15	2.111167E-16
6.900000E+03	6.666173E-15	2.096978E-16
6.910000E+03	6.604833E-15	2.083747E-16
6.920000E+03	6.547245E-15	2.071360E-16
6.930000E+03	6.493090E-15	2.059744E-16
6.940000E+03	6.442056E-15	2.048825E-16
6.950000E+03	6.393964E-15	2.038568E-16
6.960000E+03	6.348283E-15	2.028827E-16
6.970000E+03	6.304970E-15	2.019608E-16
6.980000E+03	6.263635E-15	2.010803E-16
6.990000E+03	6.224011E-15	2.002347E-16
7.000000E+03	6.185846E-15	1.994171E-16
7.010000E+03	6.149008E-15	1.986250E-16
7.020000E+03	6.113140E-15	1.978480E-16
7.030000E+03	6.078013E-15	1.970798E-16
7.040000E+03	6.043520E-15	1.963179E-16
7.050000E+03	6.009331E-15	1.955523E-16
7.060000E+03	5.975358E-15	1.947804E-16
7.070000E+03	5.941290E-15	1.939924E-16
7.080000E+03	5.906943E-15	1.931823E-16
7.090000E+03	5.872263E-15	1.923480E-16
7.100000E+03	5.837088E-15	1.914838E-16
7.110000E+03	5.801157E-15	1.905805E-16
7.120000E+03	5.764570E-15	1.896406E-16
7.130000E+03	5.726859E-15	1.886480E-16
7.140000E+03	5.688270E-15	1.876099E-16
7.150000E+03	5.648482E-15	1.865149E-16
7.160000E+03	5.607535E-15	1.853637E-16
7.170000E+03	5.565483E-15	1.841575E-16
7.180000E+03	5.522047E-15	1.828869E-16
7.190000E+03	5.477306E-15	1.815544E-16
7.200000E+03	5.431352E-15	1.801633E-16
7.210000E+03	5.383946E-15	1.787060E-16
7.220000E+03	5.335317E-15	1.771910E-16
7.230000E+03	5.285480E-15	1.756195E-16
7.240000E+03	5.234352E-15	1.739899E-16
7.250000E+03	5.181981E-15	1.723049E-16
7.260000E+03	5.128428E-15	1.705679E-16
7.270000E+03	5.073995E-15	1.687902E-16
7.280000E+03	5.018450E-15	1.669654E-16
7.290000E+03	4.962236E-15	1.651097E-16
7.300000E+03	4.905163E-15	1.632180E-16
7.310000E+03	4.847709E-15	1.613075E-16
7.320000E+03	4.789722E-15	1.593742E-16
7.330000E+03	4.731604E-15	1.574326E-16
7.340000E+03	4.673451E-15	1.554867E-16
7.350000E+03	4.615480E-15	1.535445E-16
7.360000E+03	4.557919E-15	1.516143E-16
7.370000E+03	4.500797E-15	1.496976E-16
7.380000E+03	4.444565E-15	1.478096E-16
7.390000E+03	4.389163E-15	1.459486E-16
7.400000E+03	4.335041E-15	1.441298E-16
7.410000E+03	4.282243E-15	1.423545E-16
7.420000E+03	4.230911E-15	1.406271E-16
7.430000E+03	4.181278E-15	1.389552E-16
7.440000E+03	4.133758E-15	1.373517E-16
7.450000E+03	4.088457E-15	1.358195E-16
7.460000E+03	4.045850E-15	1.343733E-16
7.470000E+03	4.005913E-15	1.330110E-16
7.480000E+03	3.968984E-15	1.317423E-16
7.490000E+03	3.935288E-15	1.305730E-16
7.500000E+03	3.904930E-15	1.295044E-16
7.510000E+03	3.877999E-15	1.285374E-16
7.520000E+03	3.854560E-15	1.276716E-16
7.530000E+03	3.834753E-15	1.269089E-16
7.540000E+03	3.818510E-15	1.262442E-16
7.550000E+03	3.805931E-15	1.256776E-16
7.560000E+03	3.797000E-15	1.252054E-16
7.570000E+03	3.791593E-15	1.248200E-16
7.580000E+03	3.789658E-15	1.245161E-16
7.590000E+03	3.791223E-15	1.242915E-16
7.600000E+03	3.796207E-15	1.241400E-16
7.610000E+03	3.804319E-15	1.240491E-16
7.620000E+03	3.815641E-15	1.240185E-16
7.630000E+03	3.829952E-15	1.240383E-16
7.640000E+03	3.847112E-15	1.241013E-16
7.650000E+03	3.866869E-15	1.241968E-16
7.660000E+03	3.889256E-15	1.243231E-16
7.670000E+03	3.913991E-15	1.244680E-16
7.680000E+03	3.940771E-15	1.246187E-16
7.690000E+03	3.969583E-15	1.247708E-16
7.700000E+03	3.999981E-15	1.249060E-16
7.710000E+03	4.031804E-15	1.250146E-16
7.720000E+03	4.064766E-15	1.250829E-16
7.730000E+03	4.098556E-15	1.250960E-16
7.740000E+03	4.132834E-15	1.250386E-16
7.750000E+03	4.167352E-15	1.248982E-16
7.760000E+03	4.201497E-15	1.246522E-16
