#wls	flux	fluxerr
1.600000E+03	6.003144E-15	1.238337E-15
1.640000E+03	5.056099E-15	9.557634E-16
1.680000E+03	4.243479E-15	7.297511E-16
1.720000E+03	3.550836E-15	5.509354E-16
1.760000E+03	2.964992E-15	4.111333E-16
1.800000E+03	2.472421E-15	3.030541E-16
1.840000E+03	2.060910E-15	2.205117E-16
1.880000E+03	1.719219E-15	1.582909E-16
1.920000E+03	1.437034E-15	1.120680E-16
1.960000E+03	1.205820E-15	7.839474E-17
2.000000E+03	1.017238E-15	5.449011E-17
2.040000E+03	8.650425E-16	3.827913E-17
2.080000E+03	7.437323E-16	2.811160E-17
2.120000E+03	6.496551E-16	2.241264E-17
2.160000E+03	5.808907E-16	1.947386E-17
2.200000E+03	5.363416E-16	1.816129E-17
2.240000E+03	5.155837E-16	1.810916E-17
2.280000E+03	5.191978E-16	1.939216E-17
2.320000E+03	5.481458E-16	2.199819E-17
2.360000E+03	6.041424E-16	2.578119E-17
2.400000E+03	6.909731E-16	3.063748E-17
2.440000E+03	8.139523E-16	3.645272E-17
2.480000E+03	9.798008E-16	4.310422E-17
2.520000E+03	1.195363E-15	5.060159E-17
2.560000E+03	1.466009E-15	5.959381E-17
2.600000E+03	1.793762E-15	7.223074E-17
2.640000E+03	2.175854E-15	9.234191E-17
2.680000E+03	2.604670E-15	1.231450E-16
2.720000E+03	3.067417E-15	1.652560E-16
2.760000E+03	3.548328E-15	2.171705E-16
2.800000E+03	4.028821E-15	2.759141E-16
2.840000E+03	4.489048E-15	3.374998E-16
2.880000E+03	4.911045E-15	3.974646E-16
2.920000E+03	5.280172E-15	4.513741E-16
2.960000E+03	5.586890E-15	4.953824E-16
3.000000E+03	5.827196E-15	5.266325E-16
3.010000E+03	5.877150E-15	5.322493E-16
3.020000E+03	5.922869E-15	5.369268E-16
3.030000E+03	5.964573E-15	5.406683E-16
3.040000E+03	6.002684E-15	5.434988E-16
3.050000E+03	6.037061E-15	5.453953E-16
3.060000E+03	6.067768E-15	5.463567E-16
3.070000E+03	6.095256E-15	5.464193E-16
3.080000E+03	6.119238E-15	5.455562E-16
3.090000E+03	6.140363E-15	5.438266E-16
3.100000E+03	6.158547E-15	5.412268E-16
3.110000E+03	6.173905E-15	5.377731E-16
3.120000E+03	6.186904E-15	5.335148E-16
3.130000E+03	6.197491E-15	5.284575E-16
3.140000E+03	6.206134E-15	5.226532E-16
3.150000E+03	6.212791E-15	5.161118E-16
3.160000E+03	6.217598E-15	5.088605E-16
3.170000E+03	6.221180E-15	5.009671E-16
3.180000E+03	6.223347E-15	4.924332E-16
3.190000E+03	6.224554E-15	4.833141E-16
3.200000E+03	6.224935E-15	4.736392E-16
3.210000E+03	6.224627E-15	4.634395E-16
3.220000E+03	6.223918E-15	4.527576E-16
3.230000E+03	6.222946E-15	4.416251E-16
3.240000E+03	6.222134E-15	4.300941E-16
3.250000E+03	6.221329E-15	4.181768E-16
3.260000E+03	6.220950E-15	4.059254E-16
3.270000E+03	6.221128E-15	3.933729E-16
3.280000E+03	6.222129E-15	3.805615E-16
3.290000E+03	6.223952E-15	3.675178E-16
3.300000E+03	6.226861E-15	3.542861E-16
3.310000E+03	6.230991E-15	3.409047E-16
3.320000E+03	6.236597E-15	3.274206E-16
3.330000E+03	6.243811E-15	3.138767E-16
3.340000E+03	6.252647E-15	3.003137E-16
3.350000E+03	6.263365E-15	2.867900E-16
3.360000E+03	6.275992E-15	2.733581E-16
3.370000E+03	6.290796E-15	2.600890E-16
3.380000E+03	6.307826E-15	2.470522E-16
3.390000E+03	6.327262E-15	2.343331E-16
3.400000E+03	6.349199E-15	2.220251E-16
3.410000E+03	6.373875E-15	2.102398E-16
3.420000E+03	6.401469E-15	1.990990E-16
3.430000E+03	6.432332E-15	1.887416E-16
3.436000E+03	3.850416E-15	3.120064E-16
3.438000E+03	3.859681E-15	3.120009E-16
3.440000E+03	3.867067E-15	3.119022E-16
3.442000E+03	3.874103E-15	3.117855E-16
3.444000E+03	3.889800E-15	3.120878E-16
3.446000E+03	3.902629E-15	3.122482E-16
3.448000E+03	3.921062E-15	3.126767E-16
3.450000E+03	3.941858E-15	3.132155E-16
3.452000E+03	3.958884E-15	3.135688E-16
3.454000E+03	3.979356E-15	3.140844E-16
3.456000E+03	4.008696E-15	3.150210E-16
3.458000E+03	4.040860E-15	3.160879E-16
3.460000E+03	4.066456E-15	3.168349E-16
3.462000E+03	4.093702E-15	3.148648E-16
3.464000E+03	4.128927E-15	3.282923E-16
3.466000E+03	4.166171E-15	3.551419E-16
3.468000E+03	4.200189E-15	3.620891E-16
3.470000E+03	4.241928E-15	3.762475E-16
3.472000E+03	4.281257E-15	3.773565E-16
3.474000E+03	4.324784E-15	3.791098E-16
3.476000E+03	4.360194E-15	3.829210E-16
3.478000E+03	4.402975E-15	3.833115E-16
3.480000E+03	4.451774E-15	3.765648E-16
3.482000E+03	4.502608E-15	3.758989E-16
3.484000E+03	4.551488E-15	3.711138E-16
3.486000E+03	4.605400E-15	3.601149E-16
3.488000E+03	4.653546E-15	3.671043E-16
3.490000E+03	4.708997E-15	3.675707E-16
3.492000E+03	4.765584E-15	3.700681E-16
3.494000E+03	4.823581E-15	4.069439E-16
3.496000E+03	4.883353E-15	4.190532E-16
3.498000E+03	4.939356E-15	4.401821E-16
3.500000E+03	4.997135E-15	4.458794E-16
3.502000E+03	5.058784E-15	4.539585E-16
3.504000E+03	5.116936E-15	4.559140E-16
3.506000E+03	5.171405E-15	4.556453E-16
3.508000E+03	5.231204E-15	4.564005E-16
3.510000E+03	5.290235E-15	4.567974E-16
3.512000E+03	5.353146E-15	4.585273E-16
3.514000E+03	5.420306E-15	4.533658E-16
3.516000E+03	5.483328E-15	4.371257E-16
3.518000E+03	5.548870E-15	4.412167E-16
3.520000E+03	5.616386E-15	4.289357E-16
3.522000E+03	5.682684E-15	4.334611E-16
3.524000E+03	5.754978E-15	4.345453E-16
3.526000E+03	5.827611E-15	4.266053E-16
3.528000E+03	5.907713E-15	4.374485E-16
3.530000E+03	5.977094E-15	4.459016E-16
3.532000E+03	6.054680E-15	4.473401E-16
3.534000E+03	6.135448E-15	4.481901E-16
3.536000E+03	6.214365E-15	4.568485E-16
3.538000E+03	6.296102E-15	4.648314E-16
3.540000E+03	6.374247E-15	4.622553E-16
3.542000E+03	6.446689E-15	4.640534E-16
3.544000E+03	6.524425E-15	4.436089E-16
3.546000E+03	6.603334E-15	4.353562E-16
3.548000E+03	6.670936E-15	4.181058E-16
3.550000E+03	6.737042E-15	4.175669E-16
3.552000E+03	6.795679E-15	4.129325E-16
3.554000E+03	6.856305E-15	4.135190E-16
3.556000E+03	6.912854E-15	4.182749E-16
3.558000E+03	6.963299E-15	4.231428E-16
3.560000E+03	7.005976E-15	4.263659E-16
3.562000E+03	7.045110E-15	4.373609E-16
3.564000E+03	7.081709E-15	4.381593E-16
3.566000E+03	7.115403E-15	4.482887E-16
3.568000E+03	7.140198E-15	4.553045E-16
3.570000E+03	7.157096E-15	4.690411E-16
3.572000E+03	7.160924E-15	4.819160E-16
3.574000E+03	7.170118E-15	4.870630E-16
3.576000E+03	7.172132E-15	4.935925E-16
3.578000E+03	7.173237E-15	4.965934E-16
3.580000E+03	7.169273E-15	4.887142E-16
3.582000E+03	7.159125E-15	4.862889E-16
3.584000E+03	7.145836E-15	4.865289E-16
3.586000E+03	7.122649E-15	4.731583E-16
3.588000E+03	7.092976E-15	4.553839E-16
3.590000E+03	7.074586E-15	4.521173E-16
3.592000E+03	7.047298E-15	4.484954E-16
3.594000E+03	7.017219E-15	4.362643E-16
3.596000E+03	6.991946E-15	4.359770E-16
3.598000E+03	6.962025E-15	4.404697E-16
3.600000E+03	6.929120E-15	4.422890E-16
3.602000E+03	6.903531E-15	4.304939E-16
3.604000E+03	6.868922E-15	4.228895E-16
3.606000E+03	6.838661E-15	4.577992E-16
3.608000E+03	6.818796E-15	4.732178E-16
3.610000E+03	6.803110E-15	4.846052E-16
3.612000E+03	6.791236E-15	5.033743E-16
3.614000E+03	6.800587E-15	5.194756E-16
3.616000E+03	6.811168E-15	5.387004E-16
3.618000E+03	6.848792E-15	5.592116E-16
3.620000E+03	6.888048E-15	5.670192E-16
3.622000E+03	6.944884E-15	5.695335E-16
3.624000E+03	7.012516E-15	5.857237E-16
3.626000E+03	7.108789E-15	5.982251E-16
3.628000E+03	7.218706E-15	6.011674E-16
3.630000E+03	7.349296E-15	6.014255E-16
3.632000E+03	7.503393E-15	6.019552E-16
3.634000E+03	7.666348E-15	6.013971E-16
3.636000E+03	7.842198E-15	6.046832E-16
3.638000E+03	8.033677E-15	5.884813E-16
3.640000E+03	8.238187E-15	5.604785E-16
3.642000E+03	8.462588E-15	5.619929E-16
3.644000E+03	8.713754E-15	5.593199E-16
3.646000E+03	8.963024E-15	5.590602E-16
3.648000E+03	9.215369E-15	5.667873E-16
3.650000E+03	9.474551E-15	5.860600E-16
3.652000E+03	9.736637E-15	6.138807E-16
3.654000E+03	1.000652E-14	6.509244E-16
3.656000E+03	1.027481E-14	7.302517E-16
3.658000E+03	1.054056E-14	7.937416E-16
3.660000E+03	1.079530E-14	8.691481E-16
3.662000E+03	1.104844E-14	9.262314E-16
3.664000E+03	1.130750E-14	9.962629E-16
3.666000E+03	1.155554E-14	1.090151E-15
3.668000E+03	1.179536E-14	1.129174E-15
3.670000E+03	1.203922E-14	1.176545E-15
3.672000E+03	1.227202E-14	1.216842E-15
3.674000E+03	1.249753E-14	1.240222E-15
3.676000E+03	1.271857E-14	1.239241E-15
3.678000E+03	1.294175E-14	1.216558E-15
3.680000E+03	1.315005E-14	1.177073E-15
3.682000E+03	1.334534E-14	1.146368E-15
3.684000E+03	1.352760E-14	1.095991E-15
3.686000E+03	1.369397E-14	1.056686E-15
3.688000E+03	1.384631E-14	1.063499E-15
3.690000E+03	1.399789E-14	1.053069E-15
3.692000E+03	1.412593E-14	1.113784E-15
3.694000E+03	1.423229E-14	1.151022E-15
3.696000E+03	1.432548E-14	1.200298E-15
3.698000E+03	1.440359E-14	1.259174E-15
3.700000E+03	1.446563E-14	1.339193E-15
3.702000E+03	1.450968E-14	1.393380E-15
3.704000E+03	1.453095E-14	1.442023E-15
3.706000E+03	1.453797E-14	1.479624E-15
3.708000E+03	1.452976E-14	1.494628E-15
3.710000E+03	1.450059E-14	1.499038E-15
3.712000E+03	1.445995E-14	1.505519E-15
3.714000E+03	1.439637E-14	1.483894E-15
3.716000E+03	1.430886E-14	1.419451E-15
3.718000E+03	1.421267E-14	1.371348E-15
3.720000E+03	1.409630E-14	1.307876E-15
3.722000E+03	1.396929E-14	1.233037E-15
3.724000E+03	1.383258E-14	1.141584E-15
3.726000E+03	1.368041E-14	1.074561E-15
3.728000E+03	1.352137E-14	1.024341E-15
3.730000E+03	1.333819E-14	1.026816E-15
3.732000E+03	1.315866E-14	1.044849E-15
3.734000E+03	1.296357E-14	1.085788E-15
3.736000E+03	1.275578E-14	1.118098E-15
3.738000E+03	1.254008E-14	1.127039E-15
3.740000E+03	1.232126E-14	1.146556E-15
3.742000E+03	1.209835E-14	1.143507E-15
3.744000E+03	1.187038E-14	1.137542E-15
3.746000E+03	1.163734E-14	1.122897E-15
3.748000E+03	1.140308E-14	1.093417E-15
3.750000E+03	1.117724E-14	1.036165E-15
3.752000E+03	1.095115E-14	9.935453E-16
3.754000E+03	1.072867E-14	9.411077E-16
3.756000E+03	1.050883E-14	8.755722E-16
3.758000E+03	1.029165E-14	8.300351E-16
3.760000E+03	1.008390E-14	7.718343E-16
3.762000E+03	9.884626E-15	7.007338E-16
3.764000E+03	9.688030E-15	6.456143E-16
3.766000E+03	9.500806E-15	5.868349E-16
3.768000E+03	9.314142E-15	5.633048E-16
3.770000E+03	9.142404E-15	5.937694E-16
3.772000E+03	8.980566E-15	6.126983E-16
3.774000E+03	8.836031E-15	6.205579E-16
3.776000E+03	8.691913E-15	6.266918E-16
3.778000E+03	8.563290E-15	6.172532E-16
3.780000E+03	8.427705E-15	6.000326E-16
3.782000E+03	8.298197E-15	5.819177E-16
3.784000E+03	8.187151E-15	5.349531E-16
3.786000E+03	8.077538E-15	5.035497E-16
3.788000E+03	7.988579E-15	4.921001E-16
3.790000E+03	7.888388E-15	4.629214E-16
3.792000E+03	7.783489E-15	4.456553E-16
3.794000E+03	7.696258E-15	4.335450E-16
3.796000E+03	7.607262E-15	4.187287E-16
3.798000E+03	7.524230E-15	3.969295E-16
3.800000E+03	7.440121E-15	3.900057E-16
3.802000E+03	7.365713E-15	3.659813E-16
3.804000E+03	7.295825E-15	3.555520E-16
3.806000E+03	7.240278E-15	3.484633E-16
3.808000E+03	7.206853E-15	3.448340E-16
3.810000E+03	7.182525E-15	3.410780E-16
3.812000E+03	7.170655E-15	3.422788E-16
3.814000E+03	7.182869E-15	3.408072E-16
3.816000E+03	7.207995E-15	3.435328E-16
3.818000E+03	7.258365E-15	3.482019E-16
3.820000E+03	7.305746E-15	3.371814E-16
3.822000E+03	7.379318E-15	3.315741E-16
3.824000E+03	7.482089E-15	3.333870E-16
3.826000E+03	7.608290E-15	3.388545E-16
3.828000E+03	7.742356E-15	3.417433E-16
3.830000E+03	7.891321E-15	3.449165E-16
3.832000E+03	8.057883E-15	3.493819E-16
3.834000E+03	8.254348E-15	3.533587E-16
3.836000E+03	8.478394E-15	3.584153E-16
3.838000E+03	8.731561E-15	3.674134E-16
3.840000E+03	8.997344E-15	3.764947E-16
3.842000E+03	9.248979E-15	3.816090E-16
3.844000E+03	9.506691E-15	3.889820E-16
3.846000E+03	9.795926E-15	3.926284E-16
3.848000E+03	1.011366E-14	4.015975E-16
3.850000E+03	1.044532E-14	4.160975E-16
3.852000E+03	1.077741E-14	4.272169E-16
3.854000E+03	1.110594E-14	4.454879E-16
3.856000E+03	1.143189E-14	4.582008E-16
3.858000E+03	1.176425E-14	4.682865E-16
3.860000E+03	1.208904E-14	4.857798E-16
3.862000E+03	1.241325E-14	5.007430E-16
3.864000E+03	1.274287E-14	5.468886E-16
3.866000E+03	1.305791E-14	5.595231E-16
3.868000E+03	1.337936E-14	5.718593E-16
3.870000E+03	1.370021E-14	5.852860E-16
3.872000E+03	1.400946E-14	5.943623E-16
3.874000E+03	1.431108E-14	6.060124E-16
3.876000E+03	1.460306E-14	6.153141E-16
3.878000E+03	1.486229E-14	6.246516E-16
3.880000E+03	1.512587E-14	6.312519E-16
3.882000E+03	1.539883E-14	6.359509E-16
3.884000E+03	1.566912E-14	6.461722E-16
3.886000E+03	1.593272E-14	6.536443E-16
3.888000E+03	1.619866E-14	6.565113E-16
3.890000E+03	1.645789E-14	6.575475E-16
3.892000E+03	1.670132E-14	6.609211E-16
3.894000E+03	1.694808E-14	6.641180E-16
3.896000E+03	1.719214E-14	6.870673E-16
3.898000E+03	1.743246E-14	7.032486E-16
3.900000E+03	1.765792E-14	7.125266E-16
3.902000E+03	1.788469E-14	7.233831E-16
3.904000E+03	1.810668E-14	7.501923E-16
3.906000E+03	1.831883E-14	7.985565E-16
3.908000E+03	1.852516E-14	8.834234E-16
3.910000E+03	1.872973E-14	9.096833E-16
3.912000E+03	1.893252E-14	9.227269E-16
3.914000E+03	1.912034E-14	9.055961E-16
3.916000E+03	1.930942E-14	9.089977E-16
3.918000E+03	1.949975E-14	1.008868E-15
3.920000E+03	1.967709E-14	1.152800E-15
3.922000E+03	1.986279E-14	1.168100E-15
3.924000E+03	2.003447E-14	1.156980E-15
3.926000E+03	2.020229E-14	1.154375E-15
3.928000E+03	2.035603E-14	1.152581E-15
3.930000E+03	2.050588E-14	1.151960E-15
3.932000E+03	2.064673E-14	1.157555E-15
3.934000E+03	2.077651E-14	1.163314E-15
3.936000E+03	2.089827E-14	1.180139E-15
3.938000E+03	2.101096E-14	1.210425E-15
3.940000E+03	2.111560E-14	1.239774E-15
3.942000E+03	2.120500E-14	1.249060E-15
3.944000E+03	2.127707E-14	1.289840E-15
3.946000E+03	2.134513E-14	1.343952E-15
3.948000E+03	2.140299E-14	1.387034E-15
3.950000E+03	2.145168E-14	1.429007E-15
3.952000E+03	2.148089E-14	1.446587E-15
3.954000E+03	2.149778E-14	1.441474E-15
3.956000E+03	2.150850E-14	1.421202E-15
3.958000E+03	2.150379E-14	1.376411E-15
3.960000E+03	2.147638E-14	1.360983E-15
3.962000E+03	2.144068E-14	1.351607E-15
3.964000E+03	2.138944E-14	1.346920E-15
3.966000E+03	2.131954E-14	1.338319E-15
3.968000E+03	2.123920E-14	1.220872E-15
3.970000E+03	2.114634E-14	9.775836E-16
3.972000E+03	2.103060E-14	8.916512E-16
3.974000E+03	2.090744E-14	8.752348E-16
3.976000E+03	2.076547E-14	8.827442E-16
3.978000E+03	2.061709E-14	8.897891E-16
3.980000E+03	2.044879E-14	8.948168E-16
3.982000E+03	2.028546E-14	9.171418E-16
3.984000E+03	2.011463E-14	9.436060E-16
3.986000E+03	1.993110E-14	9.646429E-16
3.988000E+03	1.973796E-14	9.772664E-16
3.990000E+03	1.952791E-14	9.955306E-16
3.992000E+03	1.932695E-14	1.010623E-15
3.994000E+03	1.912676E-14	9.914143E-16
3.996000E+03	1.892109E-14	9.626256E-16
3.998000E+03	1.871305E-14	9.129260E-16
4.000000E+03	1.850578E-14	8.541832E-16
4.002000E+03	1.829196E-14	8.143969E-16
4.004000E+03	1.807890E-14	8.226430E-16
4.006000E+03	1.787078E-14	8.175319E-16
4.008000E+03	1.767179E-14	7.969159E-16
4.010000E+03	1.746207E-14	7.650574E-16
4.012000E+03	1.725206E-14	7.277609E-16
4.014000E+03	1.705855E-14	6.938876E-16
4.016000E+03	1.686373E-14	6.603003E-16
4.018000E+03	1.666654E-14	6.434706E-16
4.020000E+03	1.647224E-14	6.075946E-16
4.022000E+03	1.630606E-14	5.929464E-16
4.024000E+03	1.614280E-14	5.763392E-16
4.026000E+03	1.598143E-14	5.802119E-16
4.028000E+03	1.582826E-14	5.903698E-16
4.030000E+03	1.569279E-14	6.005469E-16
4.032000E+03	1.557927E-14	6.413989E-16
4.034000E+03	1.548564E-14	6.788549E-16
4.036000E+03	1.539293E-14	6.991760E-16
4.038000E+03	1.531382E-14	7.327945E-16
4.040000E+03	1.523565E-14	7.479292E-16
4.042000E+03	1.516688E-14	7.475328E-16
4.044000E+03	1.515092E-14	7.534179E-16
4.046000E+03	1.517092E-14	7.512193E-16
4.048000E+03	1.518246E-14	7.463582E-16
4.050000E+03	1.518657E-14	7.290180E-16
4.052000E+03	1.520233E-14	7.166008E-16
4.054000E+03	1.522235E-14	6.813948E-16
4.056000E+03	1.524662E-14	6.671130E-16
4.058000E+03	1.528365E-14	6.504262E-16
4.060000E+03	1.531646E-14	6.293732E-16
4.062000E+03	1.534716E-14	6.174253E-16
4.064000E+03	1.538001E-14	6.134652E-16
4.066000E+03	1.541075E-14	6.079858E-16
4.068000E+03	1.544257E-14	6.045812E-16
4.070000E+03	1.546482E-14	5.851152E-16
4.072000E+03	1.547106E-14	5.748608E-16
4.074000E+03	1.547301E-14	5.706598E-16
4.076000E+03	1.546854E-14	5.660062E-16
4.078000E+03	1.546511E-14	5.775545E-16
4.080000E+03	1.548092E-14	5.853643E-16
4.082000E+03	1.548923E-14	5.814860E-16
4.084000E+03	1.548146E-14	5.727252E-16
4.086000E+03	1.545437E-14	5.713522E-16
4.088000E+03	1.542186E-14	5.585047E-16
4.090000E+03	1.538822E-14	5.429964E-16
4.092000E+03	1.534163E-14	5.380240E-16
4.094000E+03	1.529389E-14	5.246446E-16
4.096000E+03	1.523532E-14	5.001789E-16
4.098000E+03	1.517773E-14	4.919379E-16
4.100000E+03	1.510929E-14	4.775149E-16
4.102000E+03	1.504290E-14	4.661581E-16
4.104000E+03	1.497102E-14	4.525896E-16
4.106000E+03	1.489904E-14	4.481692E-16
4.108000E+03	1.483234E-14	4.444748E-16
4.110000E+03	1.476554E-14	4.453195E-16
4.112000E+03	1.470297E-14	4.489684E-16
4.114000E+03	1.464354E-14	4.455033E-16
4.116000E+03	1.459266E-14	4.443812E-16
4.118000E+03	1.454929E-14	4.468358E-16
4.120000E+03	1.450909E-14	4.471565E-16
4.122000E+03	1.448073E-14	4.518570E-16
4.124000E+03	1.445341E-14	4.562121E-16
4.126000E+03	1.444013E-14	4.541450E-16
4.128000E+03	1.443224E-14	4.541696E-16
4.130000E+03	1.444061E-14	4.544213E-16
4.132000E+03	1.445222E-14	4.540839E-16
4.134000E+03	1.448122E-14	4.429455E-16
4.136000E+03	1.451676E-14	4.417864E-16
4.138000E+03	1.456429E-14	4.410654E-16
4.140000E+03	1.462274E-14	4.390081E-16
4.142000E+03	1.468559E-14	4.408004E-16
4.144000E+03	1.476157E-14	4.387471E-16
4.146000E+03	1.485180E-14	4.485326E-16
4.148000E+03	1.495193E-14	4.486458E-16
4.150000E+03	1.505980E-14	4.541818E-16
4.152000E+03	1.517650E-14	4.718135E-16
4.154000E+03	1.529222E-14	4.944680E-16
4.156000E+03	1.541679E-14	5.208285E-16
4.158000E+03	1.553929E-14	5.431477E-16
4.160000E+03	1.566300E-14	5.712292E-16
4.162000E+03	1.579558E-14	5.717876E-16
4.164000E+03	1.592500E-14	5.814708E-16
4.166000E+03	1.605343E-14	5.987507E-16
4.168000E+03	1.618528E-14	6.019707E-16
4.170000E+03	1.631504E-14	5.998319E-16
4.172000E+03	1.644053E-14	5.924668E-16
4.174000E+03	1.657382E-14	5.853015E-16
4.176000E+03	1.669842E-14	5.677228E-16
4.178000E+03	1.681983E-14	5.595281E-16
4.180000E+03	1.693474E-14	5.520515E-16
4.182000E+03	1.705195E-14	5.360066E-16
4.184000E+03	1.716704E-14	5.308358E-16
4.186000E+03	1.727892E-14	5.275869E-16
4.188000E+03	1.738207E-14	5.239764E-16
4.190000E+03	1.748418E-14	5.265131E-16
4.192000E+03	1.758085E-14	5.298231E-16
4.194000E+03	1.766875E-14	5.310328E-16
4.196000E+03	1.774897E-14	5.361633E-16
4.198000E+03	1.782038E-14	5.414175E-16
4.200000E+03	1.788630E-14	5.455880E-16
4.202000E+03	1.792900E-14	5.476704E-16
4.204000E+03	1.797281E-14	5.483702E-16
4.206000E+03	1.800555E-14	5.447903E-16
4.208000E+03	1.802386E-14	5.381887E-16
4.210000E+03	1.803216E-14	5.200906E-16
4.212000E+03	1.802822E-14	5.181228E-16
4.214000E+03	1.801980E-14	5.137437E-16
4.216000E+03	1.799910E-14	4.999508E-16
4.218000E+03	1.797056E-14	4.910353E-16
4.220000E+03	1.793750E-14	4.871252E-16
4.222000E+03	1.789546E-14	4.781272E-16
4.224000E+03	1.783998E-14	4.674187E-16
4.226000E+03	1.777771E-14	4.650766E-16
4.228000E+03	1.771089E-14	4.658484E-16
4.230000E+03	1.764061E-14	4.632764E-16
4.232000E+03	1.756800E-14	4.600839E-16
4.234000E+03	1.749081E-14	4.574261E-16
4.236000E+03	1.742133E-14	4.543459E-16
4.238000E+03	1.735510E-14	4.517810E-16
4.240000E+03	1.727981E-14	4.487814E-16
4.242000E+03	1.721002E-14	4.481238E-16
4.244000E+03	1.715019E-14	4.524861E-16
4.246000E+03	1.709364E-14	4.599410E-16
4.248000E+03	1.704932E-14	4.629916E-16
4.250000E+03	1.701165E-14	4.642405E-16
4.252000E+03	1.698962E-14	4.744272E-16
4.254000E+03	1.697314E-14	4.865929E-16
4.256000E+03	1.696335E-14	5.028652E-16
4.258000E+03	1.697037E-14	5.171432E-16
4.260000E+03	1.697960E-14	5.203519E-16
4.262000E+03	1.700118E-14	5.244235E-16
4.264000E+03	1.703175E-14	5.210410E-16
4.266000E+03	1.707018E-14	5.096859E-16
4.268000E+03	1.711650E-14	5.106959E-16
4.270000E+03	1.717522E-14	5.009201E-16
4.272000E+03	1.723622E-14	4.982164E-16
4.274000E+03	1.730399E-14	4.941093E-16
4.276000E+03	1.737744E-14	5.008006E-16
4.278000E+03	1.745091E-14	4.934155E-16
4.280000E+03	1.752442E-14	5.032933E-16
4.282000E+03	1.759795E-14	5.152390E-16
4.284000E+03	1.766812E-14	5.305983E-16
4.286000E+03	1.773153E-14	5.652759E-16
4.288000E+03	1.780853E-14	5.800973E-16
4.290000E+03	1.787764E-14	6.067988E-16
4.292000E+03	1.793997E-14	6.318565E-16
4.294000E+03	1.800345E-14	6.472780E-16
4.296000E+03	1.806015E-14	6.873721E-16
4.298000E+03	1.811005E-14	7.033646E-16
4.300000E+03	1.815315E-14	7.143018E-16
