#wls	flux	fluxerr
1.600000E+03	1.105472E-17	7.121855E-18
1.640000E+03	1.113319E-17	7.078641E-18
1.680000E+03	1.123596E-17	7.046649E-18
1.720000E+03	1.136380E-17	7.025597E-18
1.760000E+03	1.151862E-17	7.015839E-18
1.800000E+03	1.170342E-17	7.018268E-18
1.840000E+03	1.191741E-17	7.031386E-18
1.880000E+03	1.216493E-17	7.056654E-18
1.920000E+03	1.244763E-17	7.093774E-18
1.960000E+03	1.276752E-17	7.142524E-18
2.000000E+03	1.312609E-17	7.202260E-18
2.040000E+03	1.352624E-17	7.272962E-18
2.080000E+03	1.396960E-17	7.353757E-18
2.120000E+03	1.445673E-17	7.443063E-18
2.160000E+03	1.499153E-17	7.540894E-18
2.200000E+03	1.557519E-17	7.645672E-18
2.240000E+03	1.621067E-17	7.756521E-18
2.280000E+03	1.690359E-17	7.873581E-18
2.320000E+03	1.766232E-17	7.997878E-18
2.360000E+03	1.849913E-17	8.131603E-18
2.400000E+03	1.942870E-17	8.277234E-18
2.440000E+03	2.046772E-17	8.437146E-18
2.480000E+03	2.163808E-17	8.614713E-18
2.520000E+03	2.296218E-17	8.812108E-18
2.560000E+03	2.446820E-17	9.032156E-18
2.600000E+03	2.618644E-17	9.276570E-18
2.640000E+03	2.815412E-17	9.547369E-18
2.680000E+03	3.041391E-17	9.845815E-18
2.720000E+03	3.301748E-17	1.017305E-17
2.760000E+03	3.602771E-17	1.052996E-17
2.800000E+03	3.952037E-17	1.091674E-17
2.840000E+03	4.358860E-17	1.133292E-17
2.880000E+03	4.835003E-17	1.177770E-17
2.920000E+03	5.394782E-17	1.224817E-17
2.960000E+03	6.056779E-17	1.274080E-17
3.000000E+03	6.843807E-17	1.324792E-17
3.010000E+03	7.063549E-17	1.337610E-17
3.020000E+03	7.293314E-17	1.350408E-17
3.030000E+03	7.533632E-17	1.363155E-17
3.040000E+03	7.785412E-17	1.375880E-17
3.050000E+03	8.049093E-17	1.388518E-17
3.060000E+03	8.325321E-17	1.401027E-17
3.070000E+03	8.614961E-17	1.413396E-17
3.080000E+03	8.918559E-17	1.425546E-17
3.090000E+03	9.236882E-17	1.437425E-17
3.100000E+03	9.571136E-17	1.449035E-17
3.110000E+03	9.921804E-17	1.460252E-17
3.120000E+03	1.029001E-16	1.471037E-17
3.130000E+03	1.067651E-16	1.481284E-17
3.140000E+03	1.108299E-16	1.490997E-17
3.150000E+03	1.150990E-16	1.499997E-17
3.160000E+03	1.195862E-16	1.508212E-17
3.170000E+03	1.243061E-16	1.515562E-17
3.180000E+03	1.292718E-16	1.521926E-17
3.190000E+03	1.344922E-16	1.527114E-17
3.200000E+03	1.399892E-16	1.531069E-17
3.210000E+03	1.457729E-16	1.533577E-17
3.220000E+03	1.518621E-16	1.534496E-17
3.230000E+03	1.582707E-16	1.533610E-17
3.240000E+03	1.650191E-16	1.530745E-17
3.250000E+03	1.721257E-16	1.525681E-17
3.260000E+03	1.796094E-16	1.518178E-17
3.270000E+03	1.874871E-16	1.507952E-17
3.280000E+03	1.957820E-16	1.494748E-17
3.290000E+03	2.045151E-16	1.478264E-17
3.300000E+03	2.137040E-16	1.458153E-17
3.310000E+03	2.233736E-16	1.434090E-17
3.320000E+03	2.335417E-16	1.405681E-17
3.330000E+03	2.442328E-16	1.372558E-17
3.340000E+03	2.554635E-16	1.334283E-17
3.350000E+03	2.672529E-16	1.290426E-17
3.360000E+03	2.796186E-16	1.240546E-17
3.370000E+03	2.925759E-16	1.184195E-17
3.380000E+03	3.061372E-16	1.120938E-17
3.390000E+03	3.203064E-16	1.050360E-17
3.400000E+03	3.350917E-16	9.721525E-18
3.410000E+03	3.504810E-16	8.861118E-18
3.420000E+03	3.664745E-16	7.923718E-18
3.430000E+03	3.830437E-16	6.915753E-18
3.440000E+03	4.001598E-16	5.855759E-18
3.450000E+03	4.177827E-16	4.789495E-18
3.460000E+03	4.358544E-16	3.829736E-18
3.470000E+03	4.543179E-16	3.236691E-18
3.480000E+03	4.731029E-16	3.381209E-18
3.490000E+03	4.921737E-16	4.304410E-18
3.500000E+03	5.115426E-16	5.710867E-18
3.510000E+03	5.312287E-16	7.379255E-18
3.520000E+03	5.512694E-16	9.205494E-18
3.530000E+03	5.716756E-16	1.113997E-17
3.540000E+03	5.924860E-16	1.315635E-17
3.550000E+03	6.137241E-16	1.523816E-17
3.560000E+03	6.354197E-16	1.737397E-17
3.570000E+03	6.575851E-16	1.955445E-17
3.580000E+03	6.802377E-16	2.177170E-17
3.590000E+03	7.034084E-16	2.401906E-17
3.600000E+03	7.270932E-16	2.628910E-17
3.610000E+03	7.513174E-16	2.857560E-17
3.620000E+03	7.760872E-16	3.087172E-17
3.630000E+03	8.013962E-16	3.317006E-17
3.640000E+03	8.272426E-16	3.546328E-17
3.650000E+03	8.536300E-16	3.774414E-17
3.660000E+03	8.805398E-16	4.000431E-17
3.670000E+03	9.079776E-16	4.223639E-17
3.680000E+03	9.359062E-16	4.443091E-17
3.690000E+03	9.643128E-16	4.657941E-17
3.700000E+03	9.931705E-16	4.867271E-17
3.710000E+03	1.022458E-15	5.070188E-17
3.720000E+03	1.052128E-15	5.265679E-17
3.730000E+03	1.082149E-15	5.452819E-17
3.740000E+03	1.112476E-15	5.630628E-17
3.750000E+03	1.143067E-15	5.798180E-17
3.760000E+03	1.173866E-15	5.954509E-17
3.770000E+03	1.204823E-15	6.098725E-17
3.780000E+03	1.235871E-15	6.229912E-17
3.790000E+03	1.266937E-15	6.347196E-17
3.800000E+03	1.297982E-15	6.449945E-17
3.810000E+03	1.328899E-15	6.537285E-17
3.820000E+03	1.359628E-15	6.608671E-17
3.830000E+03	1.390102E-15	6.663651E-17
3.840000E+03	1.420216E-15	6.701688E-17
3.850000E+03	1.449883E-15	6.722488E-17
3.860000E+03	1.479027E-15	6.725946E-17
3.870000E+03	1.507560E-15	6.712031E-17
3.880000E+03	1.535387E-15	6.680853E-17
3.890000E+03	1.562399E-15	6.632615E-17
3.900000E+03	1.588515E-15	6.567801E-17
3.910000E+03	1.613640E-15	6.486998E-17
3.920000E+03	1.637678E-15	6.390967E-17
3.930000E+03	1.660536E-15	6.280642E-17
3.940000E+03	1.682123E-15	6.157139E-17
3.950000E+03	1.702363E-15	6.021811E-17
3.960000E+03	1.721173E-15	5.876137E-17
3.970000E+03	1.738456E-15	5.721723E-17
3.980000E+03	1.754165E-15	5.560503E-17
3.990000E+03	1.768214E-15	5.394412E-17
4.000000E+03	1.780553E-15	5.225613E-17
4.010000E+03	1.791124E-15	5.056305E-17
4.020000E+03	2.009205E-15	3.412869E-16
4.029200E+03	2.035613E-15	3.419581E-16
4.038400E+03	2.079157E-15	3.436840E-16
4.047600E+03	2.089855E-15	3.580954E-16
4.056800E+03	2.088707E-15	3.665115E-16
4.066000E+03	2.059335E-15	3.367499E-16
4.075200E+03	2.064546E-15	3.111747E-16
4.084400E+03	2.026233E-15	2.409076E-16
4.093600E+03	2.007542E-15	2.989765E-16
4.102800E+03	1.960109E-15	2.673281E-16
4.112000E+03	1.930277E-15	2.637528E-16
4.121200E+03	1.890419E-15	2.696502E-16
4.130400E+03	1.850214E-15	2.745507E-16
4.139600E+03	1.846694E-15	2.237964E-16
4.148800E+03	1.873796E-15	2.700751E-16
4.158000E+03	1.853683E-15	2.636637E-16
4.167200E+03	1.904549E-15	2.686540E-16
4.176400E+03	1.947451E-15	2.741972E-16
4.185600E+03	1.945141E-15	2.635309E-16
4.194800E+03	1.937182E-15	2.364215E-16
4.204000E+03	1.887561E-15	2.167202E-16
4.213200E+03	1.839312E-15	1.869655E-16
4.222400E+03	1.809821E-15	1.760230E-16
4.231600E+03	1.766361E-15	1.602939E-16
4.240800E+03	1.770032E-15	1.592728E-16
4.250000E+03	1.734040E-15	1.515681E-16
4.259200E+03	1.702407E-15	1.764437E-16
4.268400E+03	1.653032E-15	1.780299E-16
4.277600E+03	1.645651E-15	1.766280E-16
4.286800E+03	1.605786E-15	1.566861E-16
4.296000E+03	1.587229E-15	1.309374E-16
4.305200E+03	1.564038E-15	1.263924E-16
4.314400E+03	1.577358E-15	1.610410E-16
4.323600E+03	1.586210E-15	1.612211E-16
4.332800E+03	1.585788E-15	1.558477E-16
4.342000E+03	1.601678E-15	1.611130E-16
4.351200E+03	1.606880E-15	1.633735E-16
4.360400E+03	1.612067E-15	1.178840E-16
4.369600E+03	1.637496E-15	1.245438E-16
4.378800E+03	1.667153E-15	1.369027E-16
4.388000E+03	1.666172E-15	1.422865E-16
4.397200E+03	1.647897E-15	1.403754E-16
4.406400E+03	1.642325E-15	1.430241E-16
4.415600E+03	1.630294E-15	1.230291E-16
4.424800E+03	1.603636E-15	1.164984E-16
4.434000E+03	1.588268E-15	1.108667E-16
4.443200E+03	1.613253E-15	1.171604E-16
4.452400E+03	1.624710E-15	1.097969E-16
4.461600E+03	1.645886E-15	1.166081E-16
4.470800E+03	1.671911E-15	1.234396E-16
4.480000E+03	1.699955E-15	1.321081E-16
4.489200E+03	1.725305E-15	1.201125E-16
4.498400E+03	1.752829E-15	1.191523E-16
4.507600E+03	1.777814E-15	1.235550E-16
4.516800E+03	1.813605E-15	1.136152E-16
4.526000E+03	1.833508E-15	1.145510E-16
4.535200E+03	1.854009E-15	1.173626E-16
4.544400E+03	1.881856E-15	1.153209E-16
4.553600E+03	1.907472E-15	1.072820E-16
4.562800E+03	1.936349E-15	9.538766E-17
4.572000E+03	1.970992E-15	1.121962E-16
4.581200E+03	1.998377E-15	1.197210E-16
4.590400E+03	2.019292E-15	1.191275E-16
4.599600E+03	2.027310E-15	1.290749E-16
4.608800E+03	2.049400E-15	1.344367E-16
4.618000E+03	2.067530E-15	1.166008E-16
4.627200E+03	2.064152E-15	1.052647E-16
4.636400E+03	2.081104E-15	1.042560E-16
4.645600E+03	2.090026E-15	8.611995E-17
4.654800E+03	2.100472E-15	7.571268E-17
4.664000E+03	2.094758E-15	7.293004E-17
4.673200E+03	2.094643E-15	6.581389E-17
4.682400E+03	2.083388E-15	6.582867E-17
4.691600E+03	2.056629E-15	6.331718E-17
4.700800E+03	2.042510E-15	7.290231E-17
4.710000E+03	2.008061E-15	7.570733E-17
4.719200E+03	1.971419E-15	8.920582E-17
4.728400E+03	1.905906E-15	9.430971E-17
4.737600E+03	1.859132E-15	8.969540E-17
4.746800E+03	1.803482E-15	8.920884E-17
4.756000E+03	1.765301E-15	8.498899E-17
4.765200E+03	1.723543E-15	7.179925E-17
4.774400E+03	1.678526E-15	6.852758E-17
4.783600E+03	1.644257E-15	6.268646E-17
4.792800E+03	1.618541E-15	5.968196E-17
4.802000E+03	1.585520E-15	6.519786E-17
4.811200E+03	1.543626E-15	5.998113E-17
4.820400E+03	1.502434E-15	4.788277E-17
4.829600E+03	1.457962E-15	5.594921E-17
4.838800E+03	1.436072E-15	5.362891E-17
4.848000E+03	1.393562E-15	4.389224E-17
4.857200E+03	1.381567E-15	6.755323E-17
4.866400E+03	1.373621E-15	6.017051E-17
4.875600E+03	1.382425E-15	7.588984E-17
4.884800E+03	1.390566E-15	9.908688E-17
4.894000E+03	1.406214E-15	1.051914E-16
4.903200E+03	1.433480E-15	8.362122E-17
4.912400E+03	1.445709E-15	5.975383E-17
4.921600E+03	1.460008E-15	6.022923E-17
4.930800E+03	1.477109E-15	8.255006E-17
4.940000E+03	1.513316E-15	7.570987E-17
4.949200E+03	1.547877E-15	7.980007E-17
4.958400E+03	1.551393E-15	9.003903E-17
4.967600E+03	1.529739E-15	8.127979E-17
4.976800E+03	1.535555E-15	7.097866E-17
4.986000E+03	1.568010E-15	7.727452E-17
4.995200E+03	1.617304E-15	9.736905E-17
5.004400E+03	1.659160E-15	1.257942E-16
5.013600E+03	1.681578E-15	1.524672E-16
5.022800E+03	1.691157E-15	1.423856E-16
5.032000E+03	1.697813E-15	2.380555E-16
5.041200E+03	1.684413E-15	2.499448E-16
5.050400E+03	1.649056E-15	2.510453E-16
5.059600E+03	1.618003E-15	2.326961E-16
5.068800E+03	1.588216E-15	2.398213E-16
5.078000E+03	1.554559E-15	1.452177E-16
5.087200E+03	1.525947E-15	7.644744E-17
5.096400E+03	1.510953E-15	6.627618E-17
5.105600E+03	1.499283E-15	5.827268E-17
5.114800E+03	1.472436E-15	6.625001E-17
5.124000E+03	1.467825E-15	6.175735E-17
5.133200E+03	1.486650E-15	6.686311E-17
5.142400E+03	1.534405E-15	7.278880E-17
5.151600E+03	1.587274E-15	7.451305E-17
5.160800E+03	1.598172E-15	5.785877E-17
5.170000E+03	1.590683E-15	6.021052E-17
5.179200E+03	1.599918E-15	6.031302E-17
5.188400E+03	1.623886E-15	6.260478E-17
5.197600E+03	1.614179E-15	6.498475E-17
5.206800E+03	1.614609E-15	6.656662E-17
5.216000E+03	1.623956E-15	6.832765E-17
5.225200E+03	1.647977E-15	6.953039E-17
5.234400E+03	1.677292E-15	6.275457E-17
5.243600E+03	1.702859E-15	6.462917E-17
5.252800E+03	1.731640E-15	6.706156E-17
5.262000E+03	1.756687E-15	6.958036E-17
5.271200E+03	1.774917E-15	1.581794E-16
5.280400E+03	1.789594E-15	1.612121E-16
5.289600E+03	1.797347E-15	1.660397E-16
5.298800E+03	1.796434E-15	1.686284E-16
5.308000E+03	1.789821E-15	1.659843E-16
5.317200E+03	1.775177E-15	7.562753E-17
5.326400E+03	1.758980E-15	7.639002E-17
5.335600E+03	1.744164E-15	7.797470E-17
5.344800E+03	1.734532E-15	7.646187E-17
5.354000E+03	1.732410E-15	7.737072E-17
5.363200E+03	1.734123E-15	7.733130E-17
5.372400E+03	1.744916E-15	8.087582E-17
5.381600E+03	1.754410E-15	8.136927E-17
5.390800E+03	1.782721E-15	8.089996E-17
5.400000E+03	1.771111E-15	8.220957E-17
5.409200E+03	1.771336E-15	8.132340E-17
5.418400E+03	1.764899E-15	7.920077E-17
5.427600E+03	1.752542E-15	8.036378E-17
5.436800E+03	1.733405E-15	7.981721E-17
5.446000E+03	1.714464E-15	7.767634E-17
5.455200E+03	1.687890E-15	8.456300E-17
5.464400E+03	1.659926E-15	9.060000E-17
5.473600E+03	1.632889E-15	8.888555E-17
5.482800E+03	1.607211E-15	8.866758E-17
5.492000E+03	1.575223E-15	8.854396E-17
5.501200E+03	1.550230E-15	7.967217E-17
5.510400E+03	1.528751E-15	7.272194E-17
5.519600E+03	1.514676E-15	7.247139E-17
5.528800E+03	1.500776E-15	7.192257E-17
5.538000E+03	1.490656E-15	7.323816E-17
5.547200E+03	1.481280E-15	7.299519E-17
5.556400E+03	1.470055E-15	7.504307E-17
5.565600E+03	1.455976E-15	7.766512E-17
5.574800E+03	1.439333E-15	7.615544E-17
5.584000E+03	1.405368E-15	7.169565E-17
5.593200E+03	1.376405E-15	6.719757E-17
5.602400E+03	1.337358E-15	6.612699E-17
5.611600E+03	1.300225E-15	6.110459E-17
5.620800E+03	1.251405E-15	5.816049E-17
5.630000E+03	1.205737E-15	5.691197E-17
5.639200E+03	1.166040E-15	5.515766E-17
5.648400E+03	1.128278E-15	5.324618E-17
5.657600E+03	1.091989E-15	5.077073E-17
5.666800E+03	1.060619E-15	4.951150E-17
5.676000E+03	1.045911E-15	4.817845E-17
5.685200E+03	1.035878E-15	4.685082E-17
5.694400E+03	1.027927E-15	4.938261E-17
5.703600E+03	1.025080E-15	5.365033E-17
5.712800E+03	1.027971E-15	5.362012E-17
5.722000E+03	1.032939E-15	5.381859E-17
5.731200E+03	1.046510E-15	5.393031E-17
5.740400E+03	1.070448E-15	5.534916E-17
5.749600E+03	1.097206E-15	5.697360E-17
5.758800E+03	1.122507E-15	5.782093E-17
5.768000E+03	1.158515E-15	5.829230E-17
5.777200E+03	1.198857E-15	5.926104E-17
5.786400E+03	1.237869E-15	5.510626E-17
5.795600E+03	1.284271E-15	5.369359E-17
5.804800E+03	1.325204E-15	5.481294E-17
5.814000E+03	1.371358E-15	5.722555E-17
5.823200E+03	1.404434E-15	5.800496E-17
5.832400E+03	1.444996E-15	5.991864E-17
5.841600E+03	1.479395E-15	5.996963E-17
5.850800E+03	1.503123E-15	5.955599E-17
5.860000E+03	1.523130E-15	5.860675E-17
5.869200E+03	1.531365E-15	5.951907E-17
5.878400E+03	1.539853E-15	5.877707E-17
5.887600E+03	1.544359E-15	5.878924E-17
5.896800E+03	1.541362E-15	5.848990E-17
5.906000E+03	1.536939E-15	5.816597E-17
5.915200E+03	1.531513E-15	5.724335E-17
5.924400E+03	1.518893E-15	5.528599E-17
5.933600E+03	1.510205E-15	5.259099E-17
5.942800E+03	1.502630E-15	5.004824E-17
5.952000E+03	1.494479E-15	4.538198E-17
5.961200E+03	1.482384E-15	4.340336E-17
5.970400E+03	1.472243E-15	4.166632E-17
5.979600E+03	1.461390E-15	4.008578E-17
5.988800E+03	1.452487E-15	3.885429E-17
5.998000E+03	1.444267E-15	3.777450E-17
6.007200E+03	1.431000E-15	3.651305E-17
6.016400E+03	1.421355E-15	3.361033E-17
6.025600E+03	1.407788E-15	3.173162E-17
6.034800E+03	1.401741E-15	3.147463E-17
6.044000E+03	1.389878E-15	3.129216E-17
6.053200E+03	1.369879E-15	2.926969E-17
6.062400E+03	1.350009E-15	3.136242E-17
6.071600E+03	1.328935E-15	3.100193E-17
6.080800E+03	1.306122E-15	2.952185E-17
6.090000E+03	1.282032E-15	2.701814E-17
6.099200E+03	1.254623E-15	2.885218E-17
6.108400E+03	1.230929E-15	2.891491E-17
6.117600E+03	1.207997E-15	2.463562E-17
6.126800E+03	1.184626E-15	2.977016E-17
6.136000E+03	1.163864E-15	2.964491E-17
6.145200E+03	1.143912E-15	2.625592E-17
6.154400E+03	1.125181E-15	1.851013E-17
6.163600E+03	1.107063E-15	1.830744E-17
6.172800E+03	1.089407E-15	1.261160E-17
6.182000E+03	1.071596E-15	1.454352E-17
6.191200E+03	1.061721E-15	1.477621E-17
6.200400E+03	1.048673E-15	1.496469E-17
6.209600E+03	1.033924E-15	1.504325E-17
6.218800E+03	1.023169E-15	1.613979E-17
6.228000E+03	1.017247E-15	1.562846E-17
6.237200E+03	1.017425E-15	1.691401E-17
6.246400E+03	1.018828E-15	1.780474E-17
6.255600E+03	1.015434E-15	1.923566E-17
6.264800E+03	1.016094E-15	2.319349E-17
6.274000E+03	1.018012E-15	2.372816E-17
6.283200E+03	1.023669E-15	2.609421E-17
6.292400E+03	1.029152E-15	2.957249E-17
6.301600E+03	1.034249E-15	2.957723E-17
6.310800E+03	1.040365E-15	2.916588E-17
6.320000E+03	1.043036E-15	3.028751E-17
6.329200E+03	1.043865E-15	3.405881E-17
6.338400E+03	1.045990E-15	3.272648E-17
6.347600E+03	1.048168E-15	3.322925E-17
6.356800E+03	1.045285E-15	3.739157E-17
6.366000E+03	1.042000E-15	3.814179E-17
6.375200E+03	1.033365E-15	3.423852E-17
6.384400E+03	1.023986E-15	3.571986E-17
6.393600E+03	1.013721E-15	4.003160E-17
6.402800E+03	1.000519E-15	3.763323E-17
6.412000E+03	9.861801E-16	4.098534E-17
6.421200E+03	9.755825E-16	4.304841E-17
6.430400E+03	9.661762E-16	4.341039E-17
6.439600E+03	9.554057E-16	4.031522E-17
6.448800E+03	9.486914E-16	4.155505E-17
6.458000E+03	9.389003E-16	4.102138E-17
6.467200E+03	9.331450E-16	4.191598E-17
6.476400E+03	9.268111E-16	4.242166E-17
6.485600E+03	9.209320E-16	4.366061E-17
6.494800E+03	9.175064E-16	4.463899E-17
6.504000E+03	9.176571E-16	4.557519E-17
6.513200E+03	9.326595E-16	5.234844E-17
6.522400E+03	9.339128E-16	5.419555E-17
6.531600E+03	8.842408E-16	5.383203E-17
6.540800E+03	8.647546E-16	4.993293E-17
6.550000E+03	8.742023E-16	4.983320E-17
6.559200E+03	8.989128E-16	5.375460E-17
6.568400E+03	9.440847E-16	7.366753E-17
6.577600E+03	9.918381E-16	8.154099E-17
6.586800E+03	1.037405E-15	7.917856E-17
6.596000E+03	1.078399E-15	1.587029E-16
6.605200E+03	1.109583E-15	2.781783E-16
6.614400E+03	1.131686E-15	2.749689E-16
6.623600E+03	1.141515E-15	2.721247E-16
6.632800E+03	1.139709E-15	2.654971E-16
6.642000E+03	1.121779E-15	2.644897E-16
6.651200E+03	1.095284E-15	7.362090E-17
6.660400E+03	1.064338E-15	9.113627E-17
6.669600E+03	1.032224E-15	9.111457E-17
6.678800E+03	9.943132E-16	9.598459E-17
6.688000E+03	9.519324E-16	6.789014E-17
6.697200E+03	9.278123E-16	6.110664E-17
6.706400E+03	9.281069E-16	6.920683E-17
6.715600E+03	9.598324E-16	7.210025E-17
6.724800E+03	9.777010E-16	6.746372E-17
6.734000E+03	9.514317E-16	6.401346E-17
6.743200E+03	9.455941E-16	6.245914E-17
6.752400E+03	9.387812E-16	7.251139E-17
6.761600E+03	9.254609E-16	8.066583E-17
6.770800E+03	9.212772E-16	7.916281E-17
6.780000E+03	9.171619E-16	6.997348E-17
6.789200E+03	8.989572E-16	7.133172E-17
6.798400E+03	8.821007E-16	6.755941E-17
6.807600E+03	8.622690E-16	5.580561E-17
6.816800E+03	8.398980E-16	5.427884E-17
6.826000E+03	8.188904E-16	5.539127E-17
6.835200E+03	7.986415E-16	5.405734E-17
6.844400E+03	7.798669E-16	5.585388E-17
6.853600E+03	7.664270E-16	5.610474E-17
6.862800E+03	7.632026E-16	6.226974E-17
6.872000E+03	7.643803E-16	6.173797E-17
6.881200E+03	7.654293E-16	6.074527E-17
6.890400E+03	7.629007E-16	5.785189E-17
6.899600E+03	7.628947E-16	5.587371E-17
6.908800E+03	7.635897E-16	4.944541E-17
6.918000E+03	7.662421E-16	4.946726E-17
6.927200E+03	7.664147E-16	4.926565E-17
6.936400E+03	7.682325E-16	4.907873E-17
6.945600E+03	7.734407E-16	4.888652E-17
6.954800E+03	7.758284E-16	4.920528E-17
6.964000E+03	7.800273E-16	4.931659E-17
6.973200E+03	7.857433E-16	4.934065E-17
6.982400E+03	7.932319E-16	4.929827E-17
6.991600E+03	7.939510E-16	4.898344E-17
7.000800E+03	7.958516E-16	4.919880E-17
7.010000E+03	7.968569E-16	4.828784E-17
7.019200E+03	7.954748E-16	4.932542E-17
7.028400E+03	7.932872E-16	4.881219E-17
7.037600E+03	7.906084E-16	4.946534E-17
7.046800E+03	7.884821E-16	4.928002E-17
7.056000E+03	7.871661E-16	4.879487E-17
7.065200E+03	7.818895E-16	4.735154E-17
7.074400E+03	7.776865E-16	4.659808E-17
7.083600E+03	7.751445E-16	4.359113E-17
7.092800E+03	7.730851E-16	4.166633E-17
7.102000E+03	7.695569E-16	4.107226E-17
7.111200E+03	7.668481E-16	4.071695E-17
7.120400E+03	7.628326E-16	4.006262E-17
7.129600E+03	7.614304E-16	3.919661E-17
7.138800E+03	7.619403E-16	3.888942E-17
7.148000E+03	7.663884E-16	3.850577E-17
7.157200E+03	7.670824E-16	3.775736E-17
7.166400E+03	7.693062E-16	3.773091E-17
7.175600E+03	7.667737E-16	3.866580E-17
7.184800E+03	7.623618E-16	3.843050E-17
7.194000E+03	7.591704E-16	3.343764E-17
7.203200E+03	7.530556E-16	3.978811E-17
7.212400E+03	7.486662E-16	4.111550E-17
7.221600E+03	7.426350E-16	3.752433E-17
7.230800E+03	7.337164E-16	3.530134E-17
7.240000E+03	7.259756E-16	3.402397E-17
7.249200E+03	7.205226E-16	3.064886E-17
7.258400E+03	7.136046E-16	2.722377E-17
7.267600E+03	7.051081E-16	2.255543E-17
7.276800E+03	6.975726E-16	2.111849E-17
7.286000E+03	6.899662E-16	2.437602E-17
7.295200E+03	6.812048E-16	2.295146E-17
7.304400E+03	6.688136E-16	2.051085E-17
7.313600E+03	6.550270E-16	1.943788E-17
7.322800E+03	6.428133E-16	1.877186E-17
7.332000E+03	6.318682E-16	1.641055E-17
7.341200E+03	6.200460E-16	1.512979E-17
7.350400E+03	6.105673E-16	1.606226E-17
7.359600E+03	6.042061E-16	1.522220E-17
7.368800E+03	5.951108E-16	1.045516E-17
7.378000E+03	5.858407E-16	9.724439E-18
7.387200E+03	5.763464E-16	1.186257E-17
7.396400E+03	5.675007E-16	1.590624E-17
7.405600E+03	5.531548E-16	1.954791E-17
7.414800E+03	5.446560E-16	2.166876E-17
7.424000E+03	5.339637E-16	2.167185E-17
7.433200E+03	5.254301E-16	2.607313E-17
7.442400E+03	5.173331E-16	2.421608E-17
7.451600E+03	5.165839E-16	2.314810E-17
7.460800E+03	5.143715E-16	2.044267E-17
