#wls	flux	fluxerr
1.600000E+03	1.198959E-17	7.726709E-18
1.640000E+03	1.207239E-17	7.678856E-18
1.680000E+03	1.218067E-17	7.642720E-18
1.720000E+03	1.231766E-17	7.619496E-18
1.760000E+03	1.248311E-17	7.608128E-18
1.800000E+03	1.268038E-17	7.609685E-18
1.840000E+03	1.291070E-17	7.623801E-18
1.880000E+03	1.317769E-17	7.651402E-18
1.920000E+03	1.348407E-17	7.692701E-18
1.960000E+03	1.383284E-17	7.747901E-18
2.000000E+03	1.422531E-17	7.816077E-18
2.040000E+03	1.466531E-17	7.897548E-18
2.080000E+03	1.515618E-17	7.992115E-18
2.120000E+03	1.569884E-17	8.098122E-18
2.160000E+03	1.629501E-17	8.214176E-18
2.200000E+03	1.694426E-17	8.337666E-18
2.240000E+03	1.764610E-17	8.465884E-18
2.280000E+03	1.840485E-17	8.598326E-18
2.320000E+03	1.922776E-17	8.735507E-18
2.360000E+03	2.013303E-17	8.882308E-18
2.400000E+03	2.113934E-17	9.042770E-18
2.440000E+03	2.226639E-17	9.220197E-18
2.480000E+03	2.353833E-17	9.418450E-18
2.520000E+03	2.497943E-17	9.639900E-18
2.560000E+03	2.661560E-17	9.885949E-18
2.600000E+03	2.848042E-17	1.015899E-17
2.640000E+03	3.060768E-17	1.045927E-17
2.680000E+03	3.303978E-17	1.078754E-17
2.720000E+03	3.582241E-17	1.114271E-17
2.760000E+03	3.901388E-17	1.152432E-17
2.800000E+03	4.267887E-17	1.192970E-17
2.840000E+03	4.689757E-17	1.235593E-17
2.880000E+03	5.176757E-17	1.279895E-17
2.920000E+03	5.740896E-17	1.325340E-17
2.960000E+03	6.397065E-17	1.371213E-17
3.000000E+03	7.163677E-17	1.416517E-17
3.010000E+03	7.375060E-17	1.427585E-17
3.020000E+03	7.595195E-17	1.438516E-17
3.030000E+03	7.824290E-17	1.449240E-17
3.040000E+03	8.063085E-17	1.459779E-17
3.050000E+03	8.311827E-17	1.470059E-17
3.060000E+03	8.570952E-17	1.480032E-17
3.070000E+03	8.840913E-17	1.489647E-17
3.080000E+03	9.122561E-17	1.498913E-17
3.090000E+03	9.416028E-17	1.507707E-17
3.100000E+03	9.722222E-17	1.516028E-17
3.110000E+03	1.004150E-16	1.523779E-17
3.120000E+03	1.037465E-16	1.530917E-17
3.130000E+03	1.072227E-16	1.537363E-17
3.140000E+03	1.108499E-16	1.543035E-17
3.150000E+03	1.146347E-16	1.547845E-17
3.160000E+03	1.185863E-16	1.551727E-17
3.170000E+03	1.227095E-16	1.554552E-17
3.180000E+03	1.270141E-16	1.556241E-17
3.190000E+03	1.315079E-16	1.556681E-17
3.200000E+03	1.361990E-16	1.555754E-17
3.210000E+03	1.410982E-16	1.553360E-17
3.220000E+03	1.462093E-16	1.549312E-17
3.230000E+03	1.515489E-16	1.543552E-17
3.240000E+03	1.571187E-16	1.535858E-17
3.250000E+03	1.629362E-16	1.526156E-17
3.260000E+03	1.690063E-16	1.514242E-17
3.270000E+03	1.753420E-16	1.499985E-17
3.280000E+03	1.819541E-16	1.483223E-17
3.290000E+03	1.888511E-16	1.463777E-17
3.300000E+03	1.960503E-16	1.441536E-17
3.310000E+03	2.035581E-16	1.416309E-17
3.320000E+03	2.113868E-16	1.387962E-17
3.330000E+03	2.195561E-16	1.356422E-17
3.340000E+03	2.280736E-16	1.321562E-17
3.350000E+03	2.369541E-16	1.283340E-17
3.360000E+03	2.462134E-16	1.241776E-17
3.370000E+03	2.558720E-16	1.196990E-17
3.380000E+03	2.659417E-16	1.149175E-17
3.390000E+03	2.764425E-16	1.098730E-17
3.400000E+03	2.874009E-16	1.046307E-17
3.410000E+03	2.988383E-16	9.928721E-18
3.420000E+03	3.107833E-16	9.398772E-18
3.430000E+03	3.232596E-16	8.893960E-18
3.440000E+03	3.363071E-16	8.443686E-18
3.450000E+03	3.499659E-16	8.086748E-18
3.460000E+03	3.642713E-16	7.870319E-18
3.470000E+03	3.792697E-16	7.845028E-18
3.480000E+03	3.950021E-16	8.054216E-18
3.490000E+03	4.115074E-16	8.521813E-18
3.500000E+03	4.287906E-16	9.247255E-18
3.510000E+03	4.468697E-16	1.021254E-17
3.520000E+03	4.657439E-16	1.139094E-17
3.530000E+03	4.854144E-16	1.275501E-17
3.540000E+03	5.058804E-16	1.428034E-17
3.550000E+03	5.271336E-16	1.594641E-17
3.560000E+03	5.491759E-16	1.773676E-17
3.570000E+03	5.719896E-16	1.963725E-17
3.580000E+03	5.955669E-16	2.163618E-17
3.590000E+03	6.199047E-16	2.372347E-17
3.600000E+03	6.449854E-16	2.588951E-17
3.610000E+03	6.707952E-16	2.812537E-17
3.620000E+03	6.973109E-16	3.042204E-17
3.630000E+03	7.245057E-16	3.277043E-17
3.640000E+03	7.523563E-16	3.516162E-17
3.650000E+03	7.808211E-16	3.758568E-17
3.660000E+03	8.098764E-16	4.003343E-17
3.670000E+03	8.394717E-16	4.249419E-17
3.680000E+03	8.695669E-16	4.495764E-17
3.690000E+03	9.001263E-16	4.741358E-17
3.700000E+03	9.310843E-16	4.985015E-17
3.710000E+03	9.623868E-16	5.225602E-17
3.720000E+03	9.939933E-16	5.462064E-17
3.730000E+03	1.025832E-15	5.693185E-17
3.740000E+03	1.057834E-15	5.917783E-17
3.750000E+03	1.089948E-15	6.134784E-17
3.760000E+03	1.122085E-15	6.342962E-17
3.770000E+03	1.154174E-15	6.541212E-17
3.780000E+03	1.186150E-15	6.728522E-17
3.790000E+03	1.217923E-15	6.903802E-17
3.800000E+03	1.249411E-15	7.066068E-17
3.810000E+03	1.280528E-15	7.214401E-17
3.820000E+03	1.311185E-15	7.347952E-17
3.830000E+03	1.341302E-15	7.466021E-17
3.840000E+03	1.370775E-15	7.567878E-17
3.850000E+03	1.399520E-15	7.653023E-17
3.860000E+03	1.427456E-15	7.721078E-17
3.870000E+03	1.454475E-15	7.771658E-17
3.880000E+03	1.480480E-15	7.804577E-17
3.890000E+03	1.505403E-15	7.819925E-17
3.900000E+03	1.529153E-15	7.817806E-17
3.910000E+03	1.551626E-15	7.798415E-17
3.920000E+03	1.572761E-15	7.762296E-17
3.930000E+03	1.592491E-15	7.710083E-17
3.940000E+03	1.610711E-15	7.642372E-17
3.950000E+03	1.627377E-15	7.560165E-17
3.960000E+03	1.642438E-15	7.464542E-17
3.970000E+03	1.655836E-15	7.356651E-17
3.980000E+03	1.667511E-15	7.237699E-17
3.990000E+03	1.677463E-15	7.109234E-17
4.000000E+03	1.685651E-15	6.972647E-17
4.010000E+03	1.692057E-15	6.829448E-17
4.020000E+03	2.789323E-15	5.714449E-16
4.029200E+03	2.482783E-15	5.521721E-16
4.038400E+03	2.191588E-15	5.357515E-16
4.047600E+03	1.966371E-15	4.134793E-16
4.056800E+03	1.757755E-15	2.747053E-16
4.066000E+03	1.579516E-15	4.488198E-16
4.075200E+03	1.468644E-15	4.735265E-16
4.084400E+03	1.394222E-15	4.646167E-16
4.093600E+03	1.421101E-15	5.382433E-16
4.102800E+03	1.465280E-15	5.364003E-16
4.112000E+03	1.509587E-15	3.078825E-16
4.121200E+03	1.578973E-15	4.072367E-16
4.130400E+03	1.526705E-15	3.874107E-16
4.139600E+03	1.572439E-15	2.721863E-16
4.148800E+03	1.589501E-15	2.614453E-16
4.158000E+03	1.589946E-15	2.830147E-16
4.167200E+03	1.538530E-15	2.069688E-16
4.176400E+03	1.448997E-15	2.240187E-16
4.185600E+03	1.386844E-15	2.194960E-16
4.194800E+03	1.416597E-15	2.876414E-16
4.204000E+03	1.394647E-15	2.947883E-16
4.213200E+03	1.406344E-15	2.929299E-16
4.222400E+03	1.369446E-15	2.584655E-16
4.231600E+03	1.331397E-15	2.645304E-16
4.240800E+03	1.366097E-15	2.108217E-16
4.250000E+03	1.393005E-15	1.897977E-16
4.259200E+03	1.419223E-15	1.980860E-16
4.268400E+03	1.418021E-15	2.177507E-16
4.277600E+03	1.449779E-15	2.199748E-16
4.286800E+03	1.414950E-15	2.290757E-16
4.296000E+03	1.390578E-15	2.221296E-16
4.305200E+03	1.330326E-15	1.818354E-16
4.314400E+03	1.254628E-15	2.119311E-16
4.323600E+03	1.232535E-15	2.624187E-16
4.332800E+03	1.197403E-15	2.694577E-16
4.342000E+03	1.162094E-15	2.599444E-16
4.351200E+03	1.164909E-15	2.752335E-16
4.360400E+03	1.161188E-15	2.880001E-16
4.369600E+03	1.194649E-15	2.532048E-16
4.378800E+03	1.198689E-15	2.282925E-16
4.388000E+03	1.250561E-15	2.285707E-16
4.397200E+03	1.259808E-15	1.969479E-16
4.406400E+03	1.258265E-15	1.622362E-16
4.415600E+03	1.287832E-15	2.057827E-16
4.424800E+03	1.296610E-15	2.235827E-16
4.434000E+03	1.298514E-15	2.181994E-16
4.443200E+03	1.351254E-15	2.122451E-16
4.452400E+03	1.354046E-15	2.081314E-16
4.461600E+03	1.387293E-15	1.490081E-16
4.470800E+03	1.408696E-15	1.297317E-16
4.480000E+03	1.468426E-15	1.299596E-16
4.489200E+03	1.499986E-15	1.334771E-16
4.498400E+03	1.521598E-15	1.168361E-16
4.507600E+03	1.548749E-15	1.153761E-16
4.516800E+03	1.560575E-15	1.095691E-16
4.526000E+03	1.570386E-15	1.099857E-16
4.535200E+03	1.599893E-15	1.155728E-16
4.544400E+03	1.597108E-15	1.176454E-16
4.553600E+03	1.637591E-15	1.183654E-16
4.562800E+03	1.681730E-15	1.159730E-16
4.572000E+03	1.731945E-15	1.191178E-16
4.581200E+03	1.771097E-15	1.081354E-16
4.590400E+03	1.820034E-15	1.059599E-16
4.599600E+03	1.851617E-15	1.384471E-16
4.608800E+03	1.871853E-15	1.217283E-16
4.618000E+03	1.884690E-15	1.176241E-16
4.627200E+03	1.888752E-15	1.242075E-16
4.636400E+03	1.884553E-15	1.235528E-16
4.645600E+03	1.897519E-15	8.724275E-17
4.654800E+03	1.906346E-15	8.459081E-17
4.664000E+03	1.922546E-15	8.321575E-17
4.673200E+03	1.929967E-15	7.929744E-17
4.682400E+03	1.930153E-15	9.196584E-17
4.691600E+03	1.943897E-15	9.836539E-17
4.700800E+03	1.958997E-15	8.925185E-17
4.710000E+03	1.960505E-15	8.104695E-17
4.719200E+03	1.949794E-15	7.636629E-17
4.728400E+03	1.913122E-15	6.991289E-17
4.737600E+03	1.872311E-15	8.165758E-17
4.746800E+03	1.822724E-15	7.939866E-17
4.756000E+03	1.771236E-15	8.060346E-17
4.765200E+03	1.717366E-15	7.966915E-17
4.774400E+03	1.653731E-15	7.688647E-17
4.783600E+03	1.601598E-15	6.293086E-17
4.792800E+03	1.561701E-15	6.135515E-17
4.802000E+03	1.530072E-15	5.766859E-17
4.811200E+03	1.470022E-15	4.917160E-17
4.820400E+03	1.410057E-15	4.422380E-17
4.829600E+03	1.372680E-15	3.294671E-17
4.838800E+03	1.343432E-15	3.596221E-17
4.848000E+03	1.323133E-15	3.723359E-17
4.857200E+03	1.307954E-15	5.256689E-17
4.866400E+03	1.318557E-15	4.304131E-17
4.875600E+03	1.327458E-15	6.549176E-17
4.884800E+03	1.322660E-15	1.398640E-16
4.894000E+03	1.335069E-15	1.361674E-16
4.903200E+03	1.346477E-15	1.301674E-16
4.912400E+03	1.340100E-15	1.215053E-16
4.921600E+03	1.335488E-15	1.283136E-16
4.930800E+03	1.341970E-15	5.886802E-17
4.940000E+03	1.379575E-15	4.119136E-17
4.949200E+03	1.418470E-15	5.429052E-17
4.958400E+03	1.435326E-15	8.869415E-17
4.967600E+03	1.445175E-15	8.786359E-17
4.976800E+03	1.498520E-15	8.272015E-17
4.986000E+03	1.582517E-15	5.754240E-17
4.995200E+03	1.681860E-15	6.807768E-17
5.004400E+03	1.774593E-15	9.153177E-17
5.013600E+03	1.828253E-15	1.340143E-16
5.022800E+03	1.853698E-15	1.397134E-16
5.032000E+03	1.868864E-15	2.358905E-16
5.041200E+03	1.848718E-15	2.517326E-16
5.050400E+03	1.798930E-15	2.644319E-16
5.059600E+03	1.735207E-15	2.355459E-16
5.068800E+03	1.670040E-15	2.433669E-16
5.078000E+03	1.598556E-15	1.632491E-16
5.087200E+03	1.536536E-15	7.439159E-17
5.096400E+03	1.487705E-15	6.703792E-17
5.105600E+03	1.451617E-15	5.986538E-17
5.114800E+03	1.412171E-15	7.710079E-17
5.124000E+03	1.395395E-15	6.888512E-17
5.133200E+03	1.400602E-15	6.386218E-17
5.142400E+03	1.456665E-15	6.748787E-17
5.151600E+03	1.511185E-15	6.513228E-17
5.160800E+03	1.524385E-15	7.425135E-17
5.170000E+03	1.525187E-15	6.789372E-17
5.179200E+03	1.550788E-15	6.923571E-17
5.188400E+03	1.563651E-15	8.428257E-17
5.197600E+03	1.578265E-15	8.455044E-17
5.206800E+03	1.580193E-15	6.906077E-17
5.216000E+03	1.585499E-15	8.340204E-17
5.225200E+03	1.595317E-15	8.135274E-17
5.234400E+03	1.617599E-15	7.492182E-17
5.243600E+03	1.639468E-15	8.436297E-17
5.252800E+03	1.653498E-15	7.697412E-17
5.262000E+03	1.676024E-15	7.694155E-17
5.271200E+03	1.688978E-15	7.720933E-17
5.280400E+03	1.713236E-15	9.439828E-17
5.289600E+03	1.745088E-15	8.670435E-17
5.298800E+03	1.777499E-15	9.177151E-17
5.308000E+03	1.814798E-15	9.209270E-17
5.317200E+03	1.830493E-15	9.269945E-17
5.326400E+03	1.850098E-15	7.867462E-17
5.335600E+03	1.856653E-15	7.868519E-17
5.344800E+03	1.873929E-15	8.184553E-17
5.354000E+03	1.888295E-15	9.333914E-17
5.363200E+03	1.889994E-15	9.316843E-17
5.372400E+03	1.908500E-15	9.721978E-17
5.381600E+03	1.925419E-15	9.787725E-17
5.390800E+03	1.944547E-15	9.218767E-17
5.400000E+03	1.968674E-15	8.721245E-17
5.409200E+03	1.988071E-15	8.878336E-17
5.418400E+03	1.994872E-15	8.022187E-17
5.427600E+03	1.998310E-15	8.040117E-17
5.436800E+03	1.993325E-15	8.275680E-17
5.446000E+03	1.978972E-15	8.299164E-17
5.455200E+03	1.945008E-15	8.436856E-17
5.464400E+03	1.916310E-15	8.769748E-17
5.473600E+03	1.878857E-15	8.974159E-17
5.482800E+03	1.846674E-15	9.138826E-17
5.492000E+03	1.811301E-15	9.937780E-17
5.501200E+03	1.794633E-15	9.238714E-17
5.510400E+03	1.794967E-15	9.254785E-17
5.519600E+03	1.791547E-15	9.421490E-17
5.528800E+03	1.802132E-15	7.609197E-17
5.538000E+03	1.815223E-15	8.574992E-17
5.547200E+03	1.836114E-15	8.797281E-17
5.556400E+03	1.856744E-15	9.340177E-17
5.565600E+03	1.860137E-15	9.254666E-17
5.574800E+03	1.849423E-15	9.084808E-17
5.584000E+03	1.821963E-15	8.282927E-17
5.593200E+03	1.774182E-15	8.125847E-17
5.602400E+03	1.725594E-15	7.814771E-17
5.611600E+03	1.672238E-15	7.633824E-17
5.620800E+03	1.603998E-15	7.866859E-17
5.630000E+03	1.538408E-15	7.702365E-17
5.639200E+03	1.473782E-15	6.547354E-17
5.648400E+03	1.401763E-15	6.740168E-17
5.657600E+03	1.333000E-15	6.534543E-17
5.666800E+03	1.282480E-15	6.856888E-17
5.676000E+03	1.236137E-15	7.116751E-17
5.685200E+03	1.191258E-15	7.152206E-17
5.694400E+03	1.156274E-15	7.138090E-17
5.703600E+03	1.126799E-15	7.026785E-17
5.712800E+03	1.108987E-15	5.742254E-17
5.722000E+03	1.088772E-15	5.541874E-17
5.731200E+03	1.082106E-15	5.179304E-17
5.740400E+03	1.083172E-15	5.048679E-17
5.749600E+03	1.100255E-15	5.054252E-17
5.758800E+03	1.134680E-15	5.397365E-17
5.768000E+03	1.180104E-15	5.166082E-17
5.777200E+03	1.241232E-15	5.458430E-17
5.786400E+03	1.310678E-15	5.627285E-17
5.795600E+03	1.387025E-15	5.528618E-17
5.804800E+03	1.475010E-15	5.725507E-17
5.814000E+03	1.559507E-15	5.938876E-17
5.823200E+03	1.625363E-15	6.180598E-17
5.832400E+03	1.688770E-15	6.325431E-17
5.841600E+03	1.738634E-15	6.344010E-17
5.850800E+03	1.766814E-15	6.600807E-17
5.860000E+03	1.796481E-15	6.621973E-17
5.869200E+03	1.820509E-15	8.444880E-17
5.878400E+03	1.828938E-15	8.227598E-17
5.887600E+03	1.842243E-15	7.701378E-17
5.896800E+03	1.848180E-15	1.008630E-16
5.906000E+03	1.857486E-15	9.753477E-17
5.915200E+03	1.865185E-15	8.668518E-17
5.924400E+03	1.868577E-15	8.148578E-17
5.933600E+03	1.872640E-15	8.548687E-17
5.942800E+03	1.873323E-15	6.940133E-17
5.952000E+03	1.863892E-15	6.909777E-17
5.961200E+03	1.842133E-15	6.546870E-17
5.970400E+03	1.809880E-15	6.912056E-17
5.979600E+03	1.776729E-15	6.382944E-17
5.988800E+03	1.735062E-15	6.162148E-17
5.998000E+03	1.708035E-15	5.897485E-17
6.007200E+03	1.679652E-15	5.774215E-17
6.016400E+03	1.654535E-15	4.566604E-17
6.025600E+03	1.626269E-15	4.560613E-17
6.034800E+03	1.604090E-15	5.086462E-17
6.044000E+03	1.583522E-15	5.003693E-17
6.053200E+03	1.564115E-15	4.761387E-17
6.062400E+03	1.557170E-15	4.772677E-17
6.071600E+03	1.553902E-15	5.027518E-17
6.080800E+03	1.551338E-15	4.150317E-17
6.090000E+03	1.556019E-15	4.315287E-17
6.099200E+03	1.554123E-15	4.329656E-17
6.108400E+03	1.557693E-15	4.897765E-17
6.117600E+03	1.550233E-15	3.888770E-17
6.126800E+03	1.538432E-15	3.838122E-17
6.136000E+03	1.525111E-15	3.672451E-17
6.145200E+03	1.512203E-15	3.077980E-17
6.154400E+03	1.490780E-15	2.082444E-17
6.163600E+03	1.460010E-15	2.101184E-17
6.172800E+03	1.428631E-15	2.017101E-17
6.182000E+03	1.399304E-15	1.936195E-17
6.191200E+03	1.369605E-15	2.823805E-17
6.200400E+03	1.350178E-15	2.728783E-17
6.209600E+03	1.324959E-15	2.557636E-17
6.218800E+03	1.305481E-15	2.210284E-17
6.228000E+03	1.286467E-15	2.217104E-17
6.237200E+03	1.265061E-15	1.793661E-17
6.246400E+03	1.251297E-15	2.245398E-17
6.255600E+03	1.242249E-15	2.382898E-17
6.264800E+03	1.229203E-15	2.486607E-17
6.274000E+03	1.230239E-15	2.799200E-17
6.283200E+03	1.229284E-15	3.057622E-17
6.292400E+03	1.234509E-15	3.071405E-17
6.301600E+03	1.241851E-15	4.969953E-17
6.310800E+03	1.245484E-15	5.016340E-17
6.320000E+03	1.252514E-15	4.597208E-17
6.329200E+03	1.265363E-15	4.699714E-17
6.338400E+03	1.275065E-15	4.431475E-17
6.347600E+03	1.279470E-15	4.567805E-17
6.356800E+03	1.289268E-15	5.141458E-17
6.366000E+03	1.293024E-15	5.167603E-17
6.375200E+03	1.295248E-15	5.805219E-17
6.384400E+03	1.294412E-15	6.113672E-17
6.393600E+03	1.288873E-15	4.531538E-17
6.402800E+03	1.290522E-15	4.736699E-17
6.412000E+03	1.288080E-15	4.757894E-17
6.421200E+03	1.285577E-15	4.366979E-17
6.430400E+03	1.267157E-15	4.428573E-17
6.439600E+03	1.246726E-15	4.503813E-17
6.448800E+03	1.227071E-15	4.536751E-17
6.458000E+03	1.206863E-15	4.504003E-17
6.467200E+03	1.186640E-15	4.435685E-17
6.476400E+03	1.176959E-15	4.043108E-17
6.485600E+03	1.162625E-15	3.998809E-17
6.494800E+03	1.157045E-15	3.241714E-17
6.504000E+03	1.151220E-15	2.999087E-17
6.513200E+03	1.174250E-15	4.422763E-17
6.522400E+03	1.173631E-15	4.105443E-17
6.531600E+03	1.120914E-15	3.553140E-17
6.540800E+03	1.104292E-15	3.165090E-17
6.550000E+03	1.114216E-15	3.221169E-17
6.559200E+03	1.162683E-15	5.671030E-17
6.568400E+03	1.232190E-15	8.445185E-17
6.577600E+03	1.315858E-15	9.275175E-17
6.586800E+03	1.396254E-15	9.806586E-17
6.596000E+03	1.472613E-15	2.607838E-16
6.605200E+03	1.547196E-15	3.721426E-16
6.614400E+03	1.610592E-15	3.657571E-16
6.623600E+03	1.658787E-15	3.483483E-16
6.632800E+03	1.673981E-15	3.270163E-16
6.642000E+03	1.678650E-15	3.013190E-16
6.651200E+03	1.660660E-15	3.666159E-17
6.660400E+03	1.629086E-15	7.929877E-17
6.669600E+03	1.591585E-15	1.026152E-16
6.678800E+03	1.534968E-15	1.005980E-16
6.688000E+03	1.477839E-15	7.112368E-17
6.697200E+03	1.438657E-15	3.810948E-17
6.706400E+03	1.430091E-15	3.861347E-17
6.715600E+03	1.481586E-15	7.581705E-17
6.724800E+03	1.503149E-15	7.029573E-17
6.734000E+03	1.476452E-15	5.961506E-17
6.743200E+03	1.471371E-15	5.898791E-17
6.752400E+03	1.451300E-15	8.542043E-17
6.761600E+03	1.430601E-15	7.760409E-17
6.770800E+03	1.414884E-15	7.505671E-17
6.780000E+03	1.406442E-15	5.858068E-17
6.789200E+03	1.374993E-15	9.005320E-17
6.798400E+03	1.339357E-15	7.938049E-17
6.807600E+03	1.299481E-15	6.564531E-17
6.816800E+03	1.252167E-15	6.752046E-17
6.826000E+03	1.206350E-15	7.932495E-17
6.835200E+03	1.158339E-15	5.440828E-17
6.844400E+03	1.125938E-15	5.543760E-17
6.853600E+03	1.099459E-15	6.975364E-17
6.862800E+03	1.085921E-15	7.133941E-17
6.872000E+03	1.083908E-15	5.959661E-17
6.881200E+03	1.082168E-15	6.170927E-17
6.890400E+03	1.081294E-15	6.267920E-17
6.899600E+03	1.074274E-15	4.308396E-17
6.908800E+03	1.068045E-15	4.362402E-17
6.918000E+03	1.067417E-15	4.182827E-17
6.927200E+03	1.072390E-15	4.282545E-17
6.936400E+03	1.068895E-15	3.903455E-17
6.945600E+03	1.070015E-15	3.933661E-17
6.954800E+03	1.065971E-15	4.030083E-17
6.964000E+03	1.063934E-15	4.070077E-17
6.973200E+03	1.072956E-15	4.263372E-17
6.982400E+03	1.094172E-15	4.056197E-17
6.991600E+03	1.106054E-15	4.410779E-17
7.000800E+03	1.128734E-15	4.268091E-17
7.010000E+03	1.149129E-15	5.066712E-17
7.019200E+03	1.157967E-15	5.565022E-17
7.028400E+03	1.162574E-15	5.390045E-17
7.037600E+03	1.170656E-15	5.374186E-17
7.046800E+03	1.173685E-15	5.492747E-17
7.056000E+03	1.169741E-15	4.458558E-17
7.065200E+03	1.158420E-15	4.192148E-17
7.074400E+03	1.146410E-15	4.426070E-17
7.083600E+03	1.135238E-15	4.373070E-17
7.092800E+03	1.123105E-15	4.981702E-17
7.102000E+03	1.107058E-15	4.937851E-17
7.111200E+03	1.096311E-15	5.116520E-17
7.120400E+03	1.071277E-15	4.478780E-17
7.129600E+03	1.055566E-15	4.441107E-17
7.138800E+03	1.037653E-15	4.105492E-17
7.148000E+03	1.034975E-15	4.013055E-17
7.157200E+03	1.026192E-15	3.908567E-17
7.166400E+03	1.015976E-15	3.817481E-17
7.175600E+03	1.017676E-15	3.516539E-17
7.184800E+03	1.014605E-15	3.652202E-17
7.194000E+03	1.010866E-15	5.297859E-17
7.203200E+03	1.017572E-15	5.509084E-17
7.212400E+03	1.022685E-15	5.732473E-17
7.221600E+03	1.018084E-15	6.088727E-17
7.230800E+03	1.006004E-15	6.329306E-17
7.240000E+03	9.943049E-16	4.570838E-17
7.249200E+03	9.797850E-16	4.577311E-17
7.258400E+03	9.617962E-16	4.939787E-17
7.267600E+03	9.477540E-16	4.356796E-17
7.276800E+03	9.380445E-16	4.657554E-17
7.286000E+03	9.260493E-16	4.411882E-17
7.295200E+03	9.160293E-16	4.357860E-17
7.304400E+03	9.042647E-16	4.263692E-17
7.313600E+03	8.941075E-16	4.261635E-17
7.322800E+03	8.755190E-16	2.803929E-17
7.332000E+03	8.648836E-16	3.153388E-17
7.341200E+03	8.577075E-16	3.917584E-17
7.350400E+03	8.539796E-16	3.019184E-17
7.359600E+03	8.426612E-16	2.949744E-17
7.368800E+03	8.270230E-16	3.118625E-17
7.378000E+03	8.186338E-16	3.708279E-17
7.387200E+03	8.050614E-16	2.657938E-17
7.396400E+03	7.908682E-16	2.149849E-17
7.405600E+03	7.784956E-16	2.895990E-17
7.414800E+03	7.718982E-16	3.021046E-17
7.424000E+03	7.615771E-16	1.888810E-17
7.433200E+03	7.435756E-16	1.954166E-17
7.442400E+03	7.296514E-16	2.549173E-17
7.451600E+03	7.192831E-16	2.366245E-17
7.460800E+03	7.040510E-16	2.306882E-17
