#wls	flux	fluxerr
1.600000E+03	8.010180E-18	5.193612E-18
1.640000E+03	7.978180E-18	5.107769E-18
1.680000E+03	7.957627E-18	5.027888E-18
1.720000E+03	7.948520E-18	4.953664E-18
1.760000E+03	7.952857E-18	4.886011E-18
1.800000E+03	7.970669E-18	4.824561E-18
1.840000E+03	8.003012E-18	4.769538E-18
1.880000E+03	8.050972E-18	4.721128E-18
1.920000E+03	8.114777E-18	4.678957E-18
1.960000E+03	8.198356E-18	4.644718E-18
2.000000E+03	8.300276E-18	4.616939E-18
2.040000E+03	8.425468E-18	4.597651E-18
2.080000E+03	8.575387E-18	4.586790E-18
2.120000E+03	8.753383E-18	4.585184E-18
2.160000E+03	8.963821E-18	4.593998E-18
2.200000E+03	9.212114E-18	4.614680E-18
2.240000E+03	9.503943E-18	4.648508E-18
2.280000E+03	9.845355E-18	4.696606E-18
2.320000E+03	1.024371E-17	4.760357E-18
2.360000E+03	1.070277E-17	4.839071E-18
2.400000E+03	1.122951E-17	4.933216E-18
2.440000E+03	1.182751E-17	5.041362E-18
2.480000E+03	1.250463E-17	5.163588E-18
2.520000E+03	1.326897E-17	5.299553E-18
2.560000E+03	1.412982E-17	5.448859E-18
2.600000E+03	1.509875E-17	5.611357E-18
2.640000E+03	1.618717E-17	5.786106E-18
2.680000E+03	1.741194E-17	5.973307E-18
2.720000E+03	1.878752E-17	6.171335E-18
2.760000E+03	2.033448E-17	6.379584E-18
2.800000E+03	2.207535E-17	6.596797E-18
2.840000E+03	2.403496E-17	6.821036E-18
2.880000E+03	2.624716E-17	7.051363E-18
2.920000E+03	2.875302E-17	7.286786E-18
2.960000E+03	3.160456E-17	7.526710E-18
3.000000E+03	3.486581E-17	7.770534E-18
3.010000E+03	3.575523E-17	7.832291E-18
3.020000E+03	3.667517E-17	7.893948E-18
3.030000E+03	3.762786E-17	7.955671E-18
3.040000E+03	3.861687E-17	8.017871E-18
3.050000E+03	3.964219E-17	8.080190E-18
3.060000E+03	4.070508E-17	8.142527E-18
3.070000E+03	4.180939E-17	8.205281E-18
3.080000E+03	4.295404E-17	8.267849E-18
3.090000E+03	4.414437E-17	8.330871E-18
3.100000E+03	4.538074E-17	8.393997E-18
3.110000E+03	4.666485E-17	8.457129E-18
3.120000E+03	4.800121E-17	8.520654E-18
3.130000E+03	4.939045E-17	8.584239E-18
3.140000E+03	5.083741E-17	8.648271E-18
3.150000E+03	5.234297E-17	8.712435E-18
3.160000E+03	5.390950E-17	8.776667E-18
3.170000E+03	5.554383E-17	8.841603E-18
3.180000E+03	5.724588E-17	8.906741E-18
3.190000E+03	5.902152E-17	8.972511E-18
3.200000E+03	6.087395E-17	9.038909E-18
3.210000E+03	6.280658E-17	9.105957E-18
3.220000E+03	6.482461E-17	9.173926E-18
3.230000E+03	6.693198E-17	9.242904E-18
3.240000E+03	6.913610E-17	9.313443E-18
3.250000E+03	7.143841E-17	9.385286E-18
3.260000E+03	7.384701E-17	9.459083E-18
3.270000E+03	7.636723E-17	9.535116E-18
3.280000E+03	7.900647E-17	9.613942E-18
3.290000E+03	8.176922E-17	9.695786E-18
3.300000E+03	8.466376E-17	9.781369E-18
3.310000E+03	8.769719E-17	9.871308E-18
3.320000E+03	9.087893E-17	9.966523E-18
3.330000E+03	9.421721E-17	1.006785E-17
3.340000E+03	9.771896E-17	1.017608E-17
3.350000E+03	1.013954E-16	1.029251E-17
3.360000E+03	1.052545E-16	1.041822E-17
3.370000E+03	1.093090E-16	1.055484E-17
3.380000E+03	1.135680E-16	1.070375E-17
3.390000E+03	1.180435E-16	1.086674E-17
3.400000E+03	1.227458E-16	1.104556E-17
3.410000E+03	1.276882E-16	1.124230E-17
3.420000E+03	1.328820E-16	1.145906E-17
3.430000E+03	1.383415E-16	1.169824E-17
3.440000E+03	1.440745E-16	1.196181E-17
3.450000E+03	1.500982E-16	1.225259E-17
3.460000E+03	1.564231E-16	1.257288E-17
3.470000E+03	1.630597E-16	1.292503E-17
3.480000E+03	1.700232E-16	1.331170E-17
3.490000E+03	1.773213E-16	1.373495E-17
3.500000E+03	1.849636E-16	1.419687E-17
3.510000E+03	1.929642E-16	1.469981E-17
3.520000E+03	2.013261E-16	1.524507E-17
3.530000E+03	2.100621E-16	1.583453E-17
3.540000E+03	2.191728E-16	1.646894E-17
3.550000E+03	2.286687E-16	1.714956E-17
3.560000E+03	2.385474E-16	1.787642E-17
3.570000E+03	2.488136E-16	1.864983E-17
3.580000E+03	2.594672E-16	1.946947E-17
3.590000E+03	2.705098E-16	2.033487E-17
3.600000E+03	2.819375E-16	2.124490E-17
3.610000E+03	2.937409E-16	2.219772E-17
3.620000E+03	3.059186E-16	2.319186E-17
3.630000E+03	3.184527E-16	2.422433E-17
3.640000E+03	3.313333E-16	2.529252E-17
3.650000E+03	3.445404E-16	2.639280E-17
3.660000E+03	3.580625E-16	2.752200E-17
3.670000E+03	3.718741E-16	2.867565E-17
3.680000E+03	3.859544E-16	2.984948E-17
3.690000E+03	4.002845E-16	3.103921E-17
3.700000E+03	4.148342E-16	3.223956E-17
3.710000E+03	4.295841E-16	3.344597E-17
3.720000E+03	4.444991E-16	3.465258E-17
3.730000E+03	4.595550E-16	3.585436E-17
3.740000E+03	4.747217E-16	3.704576E-17
3.750000E+03	4.899616E-16	3.822072E-17
3.760000E+03	5.052455E-16	3.937383E-17
3.770000E+03	5.205372E-16	4.049927E-17
3.780000E+03	5.358046E-16	4.159163E-17
3.790000E+03	5.510092E-16	4.264517E-17
3.800000E+03	5.661167E-16	4.365467E-17
3.810000E+03	5.810809E-16	4.461425E-17
3.820000E+03	5.958776E-16	4.551994E-17
3.830000E+03	6.104541E-16	4.636592E-17
3.840000E+03	6.247860E-16	4.714886E-17
3.850000E+03	6.388263E-16	4.786406E-17
3.860000E+03	6.525462E-16	4.850858E-17
3.870000E+03	6.658995E-16	4.907861E-17
3.880000E+03	6.788596E-16	4.957222E-17
3.890000E+03	6.913889E-16	4.998709E-17
3.900000E+03	7.034511E-16	5.032151E-17
3.910000E+03	7.150251E-16	5.057529E-17
3.920000E+03	7.260789E-16	5.074793E-17
3.930000E+03	7.365832E-16	5.083958E-17
3.940000E+03	7.465178E-16	5.085149E-17
3.950000E+03	7.558655E-16	5.078554E-17
3.960000E+03	7.646060E-16	5.064376E-17
3.970000E+03	7.727218E-16	5.042880E-17
3.980000E+03	7.801992E-16	5.014385E-17
3.990000E+03	7.870419E-16	4.979353E-17
4.000000E+03	7.932438E-16	4.938201E-17
4.010000E+03	7.988025E-16	4.891387E-17
4.020000E+03	8.037194E-16	4.839400E-17
4.030000E+03	8.079998E-16	4.782758E-17
4.040000E+03	8.116671E-16	4.722077E-17
4.050000E+03	8.147199E-16	4.657817E-17
4.060000E+03	8.171961E-16	4.590645E-17
4.070000E+03	8.190944E-16	4.520979E-17
4.080000E+03	8.204595E-16	4.449466E-17
4.090000E+03	8.213107E-16	4.376571E-17
4.100000E+03	8.216775E-16	4.302776E-17
4.110000E+03	8.215920E-16	4.228531E-17
4.120000E+03	8.210892E-16	4.154247E-17
4.130000E+03	8.202129E-16	4.080330E-17
4.140000E+03	8.190025E-16	4.007105E-17
4.150000E+03	8.174918E-16	3.934818E-17
4.160000E+03	8.157233E-16	3.863703E-17
4.170000E+03	8.137478E-16	3.793986E-17
4.180000E+03	8.116097E-16	3.725816E-17
4.190000E+03	8.093540E-16	3.659307E-17
4.200000E+03	8.070191E-16	3.594510E-17
4.210000E+03	8.046501E-16	3.531482E-17
4.220000E+03	8.022980E-16	3.470282E-17
4.230000E+03	8.000065E-16	3.410922E-17
4.240000E+03	7.978044E-16	3.353337E-17
4.250000E+03	7.957525E-16	3.297593E-17
4.260000E+03	7.938698E-16	3.243574E-17
4.270000E+03	7.921998E-16	3.191270E-17
4.280000E+03	7.907839E-16	3.140663E-17
4.290000E+03	7.896408E-16	3.091652E-17
4.300000E+03	7.888068E-16	3.044217E-17
4.310000E+03	7.883022E-16	2.998291E-17
4.320000E+03	7.881509E-16	2.953834E-17
4.330000E+03	7.883739E-16	2.910817E-17
4.340000E+03	7.889758E-16	2.869166E-17
4.350000E+03	7.899644E-16	2.828844E-17
4.360000E+03	7.913506E-16	2.789841E-17
4.370000E+03	7.931549E-16	2.752205E-17
4.380000E+03	7.953804E-16	2.715935E-17
4.390000E+03	7.980333E-16	2.681060E-17
4.400000E+03	8.011220E-16	2.647631E-17
4.410000E+03	8.046309E-16	2.615634E-17
4.420000E+03	8.085601E-16	2.585124E-17
4.430000E+03	8.128924E-16	2.556108E-17
4.440000E+03	8.176061E-16	2.528598E-17
4.450000E+03	8.226892E-16	2.502640E-17
4.460000E+03	8.281049E-16	2.478210E-17
4.470000E+03	8.338333E-16	2.455337E-17
4.480000E+03	8.398291E-16	2.433964E-17
4.490000E+03	8.460571E-16	2.414053E-17
4.500000E+03	8.524855E-16	2.395552E-17
4.510000E+03	8.590570E-16	2.378311E-17
4.520000E+03	8.657327E-16	2.362202E-17
4.530000E+03	8.724487E-16	2.346999E-17
4.540000E+03	8.791533E-16	2.332480E-17
4.550000E+03	8.857934E-16	2.318393E-17
4.560000E+03	8.923154E-16	2.304463E-17
4.570000E+03	8.986580E-16	2.290379E-17
4.580000E+03	9.047689E-16	2.275835E-17
4.590000E+03	9.105899E-16	2.260502E-17
4.600000E+03	9.160739E-16	2.244062E-17
4.610000E+03	9.211858E-16	2.226212E-17
4.620000E+03	9.258794E-16	2.206605E-17
4.630000E+03	9.301139E-16	2.184883E-17
4.640000E+03	9.338712E-16	2.160716E-17
4.650000E+03	9.371234E-16	2.133723E-17
4.660000E+03	9.398663E-16	2.103550E-17
4.670000E+03	9.420780E-16	2.069779E-17
4.680000E+03	9.437690E-16	2.032053E-17
4.690000E+03	9.449406E-16	1.989995E-17
4.700000E+03	9.456011E-16	1.943260E-17
4.710000E+03	9.457489E-16	1.891520E-17
4.720000E+03	9.454227E-16	1.834590E-17
4.730000E+03	9.446332E-16	1.772308E-17
4.740000E+03	9.434049E-16	1.704654E-17
4.750000E+03	9.417582E-16	1.631752E-17
4.760000E+03	9.397506E-16	1.553991E-17
4.770000E+03	9.373915E-16	1.471941E-17
4.780000E+03	9.347337E-16	1.386604E-17
4.790000E+03	9.318135E-16	1.299432E-17
4.800000E+03	9.286750E-16	1.212524E-17
4.810000E+03	9.253526E-16	1.128786E-17
4.820000E+03	9.218868E-16	1.052129E-17
4.830000E+03	9.183158E-16	9.874979E-18
4.840000E+03	9.146669E-16	9.405226E-18
4.850000E+03	9.109815E-16	9.165271E-18
4.860000E+03	9.072997E-16	9.187426E-18
4.870000E+03	9.036408E-16	9.462029E-18
4.880000E+03	9.000506E-16	9.943953E-18
4.890000E+03	8.965722E-16	1.057505E-17
4.900000E+03	8.932279E-16	1.129940E-17
4.910000E+03	8.900435E-16	1.207095E-17
4.920000E+03	8.870562E-16	1.285495E-17
4.930000E+03	8.842733E-16	1.362603E-17
4.940000E+03	8.816970E-16	1.436637E-17
4.950000E+03	8.793574E-16	1.506429E-17
4.960000E+03	8.772392E-16	1.571154E-17
4.970000E+03	8.753480E-16	1.630319E-17
4.980000E+03	8.736782E-16	1.683633E-17
4.990000E+03	8.722225E-16	1.730959E-17
5.000000E+03	8.709813E-16	1.772296E-17
5.010000E+03	8.699388E-16	1.807706E-17
5.020000E+03	8.690975E-16	1.837360E-17
5.030000E+03	8.684455E-16	1.861468E-17
5.040000E+03	8.679901E-16	1.880337E-17
5.050000E+03	8.677332E-16	1.894316E-17
5.060000E+03	8.676715E-16	1.903785E-17
5.070000E+03	8.678207E-16	1.909204E-17
5.080000E+03	8.681991E-16	1.911062E-17
5.090000E+03	8.688020E-16	1.909809E-17
5.100000E+03	8.696510E-16	1.905949E-17
5.110000E+03	8.707605E-16	1.899951E-17
5.120000E+03	8.721369E-16	1.892236E-17
5.130000E+03	8.738114E-16	1.883240E-17
5.140000E+03	8.757807E-16	1.873278E-17
5.150000E+03	8.780649E-16	1.862670E-17
5.160000E+03	8.806652E-16	1.851640E-17
5.170000E+03	8.835963E-16	1.840392E-17
5.180000E+03	8.868528E-16	1.829030E-17
5.190000E+03	8.904420E-16	1.817629E-17
5.200000E+03	8.943498E-16	1.806164E-17
5.210000E+03	8.985568E-16	1.794547E-17
5.220000E+03	9.030646E-16	1.782683E-17
5.230000E+03	9.078433E-16	1.770375E-17
5.240000E+03	9.128570E-16	1.757381E-17
5.250000E+03	9.180824E-16	1.743469E-17
5.260000E+03	9.234728E-16	1.728354E-17
5.270000E+03	9.289947E-16	1.711789E-17
5.280000E+03	9.345835E-16	1.693501E-17
5.290000E+03	9.401985E-16	1.673317E-17
5.300000E+03	9.457879E-16	1.651125E-17
5.310000E+03	9.512995E-16	1.626923E-17
5.320000E+03	9.566630E-16	1.600830E-17
5.330000E+03	9.618476E-16	1.573221E-17
5.340000E+03	9.667984E-16	1.544653E-17
5.350000E+03	9.714651E-16	1.515953E-17
5.360000E+03	9.758222E-16	1.488267E-17
5.370000E+03	9.798217E-16	1.462974E-17
5.380000E+03	9.834601E-16	1.441738E-17
5.390000E+03	9.866994E-16	1.426266E-17
5.400000E+03	9.895217E-16	1.418180E-17
5.410000E+03	9.919131E-16	1.418706E-17
5.420000E+03	9.938125E-16	1.428195E-17
5.430000E+03	9.951510E-16	1.445923E-17
5.440000E+03	9.958581E-16	1.470440E-17
5.450000E+03	9.958446E-16	1.499891E-17
5.460000E+03	9.950499E-16	1.532348E-17
5.470000E+03	9.934080E-16	1.565948E-17
5.480000E+03	9.908705E-16	1.599040E-17
5.490000E+03	9.874190E-16	1.630261E-17
5.500000E+03	9.830465E-16	1.658523E-17
5.510000E+03	9.777970E-16	1.683081E-17
5.520000E+03	9.716959E-16	1.703388E-17
5.530000E+03	9.648087E-16	1.719175E-17
5.540000E+03	9.572293E-16	1.730401E-17
5.550000E+03	9.490393E-16	1.737156E-17
5.560000E+03	9.403840E-16	1.739767E-17
5.570000E+03	9.313633E-16	1.738579E-17
5.580000E+03	9.221267E-16	1.734101E-17
5.590000E+03	9.128225E-16	1.726895E-17
5.600000E+03	9.036051E-16	1.717565E-17
5.610000E+03	8.946334E-16	1.706740E-17
5.620000E+03	8.860777E-16	1.695067E-17
5.630000E+03	8.780808E-16	1.683127E-17
5.640000E+03	8.708117E-16	1.671524E-17
5.650000E+03	8.644269E-16	1.660803E-17
5.660000E+03	8.590683E-16	1.651446E-17
5.670000E+03	8.548982E-16	1.643932E-17
5.680000E+03	8.520429E-16	1.638630E-17
5.690000E+03	8.506270E-16	1.635875E-17
5.700000E+03	8.507628E-16	1.635941E-17
5.710000E+03	8.525477E-16	1.639047E-17
5.720000E+03	8.560624E-16	1.645357E-17
5.730000E+03	8.613680E-16	1.654977E-17
5.740000E+03	8.685039E-16	1.667951E-17
5.750000E+03	8.774939E-16	1.684278E-17
5.760000E+03	8.883154E-16	1.703851E-17
5.770000E+03	9.009247E-16	1.726504E-17
5.780000E+03	9.152555E-16	1.752015E-17
5.790000E+03	9.311869E-16	1.780045E-17
5.800000E+03	9.485931E-16	1.810233E-17
5.810000E+03	9.672716E-16	1.842067E-17
5.820000E+03	9.870054E-16	1.875006E-17
5.830000E+03	1.007567E-15	1.908491E-17
5.840000E+03	1.028670E-15	1.941852E-17
5.850000E+03	1.050023E-15	1.974424E-17
5.860000E+03	1.071300E-15	2.005477E-17
5.870000E+03	1.092170E-15	2.034298E-17
5.880000E+03	1.112333E-15	2.060234E-17
5.890000E+03	1.131441E-15	2.082577E-17
5.900000E+03	1.149216E-15	2.100767E-17
5.910000E+03	1.165380E-15	2.114279E-17
5.920000E+03	1.179673E-15	2.122661E-17
5.930000E+03	1.191902E-15	2.125620E-17
5.940000E+03	1.201921E-15	2.122984E-17
5.950000E+03	1.209603E-15	2.114651E-17
5.960000E+03	1.214918E-15	2.100708E-17
5.970000E+03	1.217843E-15	2.081263E-17
5.980000E+03	1.218424E-15	2.056525E-17
5.990000E+03	1.216781E-15	2.026803E-17
6.000000E+03	1.213048E-15	1.992378E-17
6.010000E+03	1.207396E-15	1.953527E-17
6.020000E+03	1.200041E-15	1.910520E-17
6.030000E+03	1.191217E-15	1.863575E-17
6.040000E+03	1.181157E-15	1.812826E-17
6.050000E+03	1.170097E-15	1.758331E-17
6.060000E+03	1.158297E-15	1.700126E-17
6.070000E+03	1.145975E-15	1.638144E-17
6.080000E+03	1.133348E-15	1.572307E-17
6.090000E+03	1.120594E-15	1.502517E-17
6.100000E+03	1.107897E-15	1.428770E-17
6.110000E+03	1.095370E-15	1.351133E-17
6.120000E+03	1.083114E-15	1.269922E-17
6.130000E+03	1.071235E-15	1.185852E-17
6.140000E+03	1.059769E-15	1.100128E-17
6.150000E+03	1.048723E-15	1.014733E-17
6.160000E+03	1.038110E-15	9.327620E-18
6.170000E+03	1.027941E-15	8.586849E-18
6.180000E+03	1.018189E-15	7.983657E-18
6.190000E+03	1.008885E-15	7.584681E-18
6.200000E+03	9.999698E-16	7.443730E-18
6.210000E+03	9.914240E-16	7.568516E-18
6.220000E+03	9.832260E-16	7.908300E-18
6.230000E+03	9.753289E-16	8.390031E-18
6.240000E+03	9.677016E-16	8.945514E-18
6.250000E+03	9.603171E-16	9.522316E-18
6.260000E+03	9.531276E-16	1.008417E-17
6.270000E+03	9.461175E-16	1.060826E-17
6.280000E+03	9.392772E-16	1.108142E-17
6.290000E+03	9.326030E-16	1.149720E-17
6.300000E+03	9.260582E-16	1.185332E-17
6.310000E+03	9.196761E-16	1.215156E-17
6.320000E+03	9.134431E-16	1.239539E-17
6.330000E+03	9.073635E-16	1.259011E-17
6.340000E+03	9.014716E-16	1.274257E-17
6.350000E+03	8.957681E-16	1.285991E-17
6.360000E+03	8.902838E-16	1.295013E-17
6.370000E+03	8.850419E-16	1.302125E-17
6.380000E+03	8.800955E-16	1.308159E-17
6.390000E+03	8.754773E-16	1.313874E-17
6.400000E+03	8.712496E-16	1.320010E-17
6.410000E+03	8.674538E-16	1.327186E-17
6.420000E+03	8.641471E-16	1.335947E-17
6.430000E+03	8.613889E-16	1.346731E-17
6.440000E+03	8.592528E-16	1.359888E-17
6.450000E+03	8.577865E-16	1.375623E-17
6.460000E+03	8.570616E-16	1.394089E-17
6.470000E+03	8.571333E-16	1.415332E-17
6.480000E+03	8.580517E-16	1.439329E-17
6.490000E+03	8.598725E-16	1.466014E-17
6.500000E+03	8.626035E-16	1.495199E-17
6.510000E+03	8.662926E-16	1.526722E-17
6.520000E+03	8.709218E-16	1.560269E-17
6.530000E+03	8.765097E-16	1.595549E-17
6.540000E+03	8.830176E-16	1.632123E-17
6.550000E+03	8.903866E-16	1.669473E-17
6.560000E+03	8.985648E-16	1.707054E-17
6.570000E+03	9.074663E-16	1.744229E-17
6.580000E+03	9.169713E-16	1.780278E-17
6.590000E+03	9.269699E-16	1.814504E-17
6.600000E+03	9.372927E-16	1.846113E-17
6.610000E+03	9.478145E-16	1.874434E-17
6.620000E+03	9.583412E-16	1.898713E-17
6.630000E+03	9.687313E-16	1.918365E-17
6.640000E+03	9.787802E-16	1.932742E-17
6.650000E+03	9.883305E-16	1.941355E-17
6.660000E+03	9.971995E-16	1.943724E-17
6.670000E+03	1.005247E-15	1.939495E-17
6.680000E+03	1.012314E-15	1.928313E-17
6.690000E+03	1.018277E-15	1.909915E-17
6.700000E+03	1.023049E-15	1.884121E-17
6.710000E+03	1.026533E-15	1.850748E-17
6.720000E+03	1.028674E-15	1.809697E-17
6.730000E+03	1.029461E-15	1.760962E-17
6.740000E+03	1.028874E-15	1.704553E-17
6.750000E+03	1.026940E-15	1.640599E-17
6.760000E+03	1.023709E-15	1.569351E-17
6.770000E+03	1.019258E-15	1.491217E-17
6.780000E+03	1.013703E-15	1.406850E-17
6.790000E+03	1.007143E-15	1.317157E-17
6.800000E+03	9.997297E-16	1.223510E-17
6.810000E+03	9.915722E-16	1.127805E-17
6.820000E+03	9.828548E-16	1.032833E-17
6.830000E+03	9.737308E-16	9.424425E-18
6.840000E+03	9.643187E-16	8.618153E-18
6.850000E+03	9.548154E-16	7.975568E-18
6.860000E+03	9.453118E-16	7.566494E-18
6.870000E+03	9.359889E-16	7.443538E-18
6.880000E+03	9.269249E-16	7.604838E-18
6.890000E+03	9.182889E-16	7.991290E-18
6.900000E+03	9.101542E-16	8.524661E-18
6.910000E+03	9.026063E-16	9.134941E-18
6.920000E+03	8.957252E-16	9.770019E-18
6.930000E+03	8.895520E-16	1.039484E-17
6.940000E+03	8.841049E-16	1.098762E-17
6.950000E+03	8.793806E-16	1.153586E-17
6.960000E+03	8.753398E-16	1.203310E-17
6.970000E+03	8.719726E-16	1.247759E-17
6.980000E+03	8.691908E-16	1.286934E-17
6.990000E+03	8.669410E-16	1.321068E-17
7.000000E+03	8.651452E-16	1.350470E-17
7.010000E+03	8.637350E-16	1.375525E-17
7.020000E+03	8.625915E-16	1.396568E-17
7.030000E+03	8.616598E-16	1.414035E-17
7.040000E+03	8.608393E-16	1.428276E-17
7.050000E+03	8.600507E-16	1.439642E-17
7.060000E+03	8.592211E-16	1.448456E-17
7.070000E+03	8.583018E-16	1.455037E-17
7.080000E+03	8.572207E-16	1.459609E-17
7.090000E+03	8.559469E-16	1.462412E-17
7.100000E+03	8.544259E-16	1.463591E-17
7.110000E+03	8.526442E-16	1.463305E-17
7.120000E+03	8.505797E-16	1.461654E-17
7.130000E+03	8.481997E-16	1.458672E-17
7.140000E+03	8.455102E-16	1.454423E-17
7.150000E+03	8.425046E-16	1.448922E-17
7.160000E+03	8.391791E-16	1.442166E-17
7.170000E+03	8.355488E-16	1.434167E-17
7.180000E+03	8.315794E-16	1.424851E-17
7.190000E+03	8.272872E-16	1.414234E-17
7.200000E+03	8.226881E-16	1.402342E-17
7.210000E+03	8.177639E-16	1.389166E-17
7.220000E+03	8.125127E-16	1.374754E-17
7.230000E+03	8.069486E-16	1.359214E-17
7.240000E+03	8.010522E-16	1.342640E-17
7.250000E+03	7.948382E-16	1.325218E-17
7.260000E+03	7.882892E-16	1.307115E-17
7.270000E+03	7.814235E-16	1.288581E-17
7.280000E+03	7.742462E-16	1.269858E-17
7.290000E+03	7.667670E-16	1.251191E-17
7.300000E+03	7.589850E-16	1.232790E-17
7.310000E+03	7.509539E-16	1.214925E-17
7.320000E+03	7.426698E-16	1.197725E-17
7.330000E+03	7.341834E-16	1.181352E-17
7.340000E+03	7.255358E-16	1.165891E-17
7.350000E+03	7.167739E-16	1.151374E-17
7.360000E+03	7.079491E-16	1.137775E-17
7.370000E+03	6.991167E-16	1.125022E-17
7.380000E+03	6.903343E-16	1.112999E-17
7.390000E+03	6.816753E-16	1.101586E-17
7.400000E+03	6.731676E-16	1.090562E-17
7.410000E+03	6.648978E-16	1.079788E-17
7.420000E+03	6.569188E-16	1.069057E-17
7.430000E+03	6.492798E-16	1.058146E-17
7.440000E+03	6.420102E-16	1.046785E-17
7.450000E+03	6.351480E-16	1.034703E-17
7.460000E+03	6.287241E-16	1.021592E-17
7.470000E+03	6.227612E-16	1.007111E-17
7.480000E+03	6.172734E-16	9.908816E-18
7.490000E+03	6.122649E-16	9.724902E-18
7.500000E+03	6.077295E-16	9.514996E-18
7.510000E+03	6.036504E-16	9.274613E-18
7.520000E+03	5.999852E-16	8.999156E-18
7.530000E+03	5.967220E-16	8.685037E-18
7.540000E+03	5.937815E-16	8.328557E-18
7.550000E+03	5.911150E-16	7.927867E-18
7.560000E+03	5.886494E-16	7.482803E-18
7.570000E+03	5.863168E-16	6.996223E-18
7.580000E+03	5.840000E-16	6.474736E-18
7.590000E+03	5.816198E-16	5.931846E-18
7.600000E+03	5.790961E-16	5.390467E-18
7.610000E+03	5.763099E-16	4.886607E-18
7.620000E+03	5.732057E-16	4.473705E-18
7.630000E+03	5.696841E-16	4.218380E-18
7.640000E+03	5.657192E-16	4.181176E-18
7.650000E+03	5.612688E-16	4.377631E-18
7.660000E+03	5.563335E-16	4.766401E-18
7.670000E+03	5.509331E-16	5.283967E-18
7.680000E+03	5.450873E-16	5.872634E-18
7.690000E+03	5.388797E-16	6.490624E-18
7.700000E+03	5.323182E-16	7.109353E-18
7.710000E+03	5.254680E-16	7.711115E-18
7.720000E+03	5.183949E-16	8.285291E-18
7.730000E+03	5.111238E-16	8.825388E-18
7.740000E+03	5.037302E-16	9.328989E-18
7.750000E+03	4.962599E-16	9.795516E-18
7.760000E+03	4.887299E-16	1.022542E-17
