#wls	flux	fluxerr
1.600000E+03	5.145630E-18	3.361735E-18
1.640000E+03	5.084376E-18	3.281524E-18
1.680000E+03	5.028404E-18	3.204578E-18
1.720000E+03	4.978528E-18	3.131300E-18
1.760000E+03	4.936286E-18	3.062514E-18
1.800000E+03	4.900898E-18	2.997559E-18
1.840000E+03	4.873874E-18	2.937177E-18
1.880000E+03	4.855211E-18	2.881150E-18
1.920000E+03	4.845670E-18	2.829694E-18
1.960000E+03	4.846015E-18	2.782988E-18
2.000000E+03	4.857735E-18	2.741579E-18
2.040000E+03	4.881625E-18	2.705556E-18
2.080000E+03	4.919216E-18	2.675365E-18
2.120000E+03	4.972080E-18	2.651391E-18
2.160000E+03	5.041174E-18	2.633611E-18
2.200000E+03	5.127554E-18	2.621998E-18
2.240000E+03	5.232398E-18	2.616514E-18
2.280000E+03	5.357697E-18	2.617447E-18
2.320000E+03	5.504255E-18	2.624404E-18
2.360000E+03	5.673741E-18	2.637336E-18
2.400000E+03	5.867364E-18	2.655882E-18
2.440000E+03	6.086565E-18	2.679705E-18
2.480000E+03	6.333732E-18	2.708781E-18
2.520000E+03	6.611560E-18	2.743076E-18
2.560000E+03	6.921018E-18	2.781706E-18
2.600000E+03	7.266204E-18	2.824943E-18
2.640000E+03	7.650283E-18	2.872486E-18
2.680000E+03	8.076912E-18	2.924041E-18
2.720000E+03	8.552534E-18	2.980100E-18
2.760000E+03	9.080668E-18	3.039843E-18
2.800000E+03	9.669366E-18	3.103753E-18
2.840000E+03	1.032470E-17	3.171320E-18
2.880000E+03	1.105383E-17	3.242113E-18
2.920000E+03	1.186608E-17	3.316043E-18
2.960000E+03	1.277337E-17	3.393387E-18
3.000000E+03	1.379078E-17	3.474834E-18
3.010000E+03	1.406428E-17	3.495916E-18
3.020000E+03	1.434618E-17	3.517351E-18
3.030000E+03	1.463769E-17	3.539374E-18
3.040000E+03	1.493823E-17	3.561775E-18
3.050000E+03	1.524815E-17	3.584571E-18
3.060000E+03	1.556779E-17	3.607780E-18
3.070000E+03	1.589850E-17	3.631643E-18
3.080000E+03	1.624068E-17	3.656180E-18
3.090000E+03	1.659382E-17	3.681199E-18
3.100000E+03	1.695932E-17	3.706945E-18
3.110000E+03	1.733770E-17	3.733450E-18
3.120000E+03	1.772946E-17	3.760748E-18
3.130000E+03	1.813515E-17	3.788876E-18
3.140000E+03	1.855639E-17	3.818092E-18
3.150000E+03	1.899278E-17	3.848227E-18
3.160000E+03	1.944495E-17	3.879333E-18
3.170000E+03	1.991466E-17	3.911679E-18
3.180000E+03	2.040266E-17	3.945327E-18
3.190000E+03	2.091086E-17	3.980552E-18
3.200000E+03	2.143789E-17	4.017009E-18
3.210000E+03	2.198687E-17	4.055196E-18
3.220000E+03	2.255763E-17	4.094993E-18
3.230000E+03	2.315232E-17	4.136704E-18
3.240000E+03	2.377202E-17	4.180430E-18
3.250000E+03	2.441787E-17	4.226285E-18
3.260000E+03	2.509230E-17	4.274596E-18
3.270000E+03	2.579540E-17	4.325287E-18
3.280000E+03	2.652974E-17	4.378706E-18
3.290000E+03	2.729680E-17	4.435005E-18
3.300000E+03	2.809940E-17	4.494554E-18
3.310000E+03	2.893789E-17	4.557320E-18
3.320000E+03	2.981531E-17	4.623698E-18
3.330000E+03	3.073349E-17	4.693888E-18
3.340000E+03	3.169575E-17	4.768311E-18
3.350000E+03	3.270274E-17	4.846984E-18
3.360000E+03	3.375945E-17	4.930567E-18
3.370000E+03	3.486677E-17	5.019102E-18
3.380000E+03	3.602855E-17	5.113069E-18
3.390000E+03	3.724733E-17	5.212748E-18
3.400000E+03	3.852732E-17	5.318650E-18
3.410000E+03	3.987136E-17	5.431082E-18
3.420000E+03	4.128237E-17	5.550367E-18
3.430000E+03	4.276506E-17	5.677055E-18
3.440000E+03	4.432434E-17	5.811712E-18
3.450000E+03	4.596195E-17	5.954475E-18
3.460000E+03	4.768483E-17	6.106154E-18
3.470000E+03	4.949493E-17	6.266899E-18
3.480000E+03	5.139967E-17	6.437543E-18
3.490000E+03	5.340498E-17	6.618708E-18
3.500000E+03	5.551127E-17	6.810319E-18
3.510000E+03	5.772853E-17	7.013464E-18
3.520000E+03	6.005928E-17	7.228296E-18
3.530000E+03	6.251005E-17	7.455432E-18
3.540000E+03	6.508337E-17	7.694990E-18
3.550000E+03	6.778809E-17	7.947814E-18
3.560000E+03	7.062241E-17	8.213471E-18
3.570000E+03	7.359070E-17	8.492235E-18
3.580000E+03	7.669958E-17	8.784607E-18
3.590000E+03	7.994634E-17	9.089993E-18
3.600000E+03	8.333720E-17	9.408791E-18
3.610000E+03	8.687103E-17	9.740535E-18
3.620000E+03	9.055366E-17	1.008551E-17
3.630000E+03	9.438316E-17	1.044310E-17
3.640000E+03	9.835955E-17	1.081286E-17
3.650000E+03	1.024850E-16	1.119458E-17
3.660000E+03	1.067614E-16	1.158796E-17
3.670000E+03	1.111846E-16	1.199199E-17
3.680000E+03	1.157552E-16	1.240618E-17
3.690000E+03	1.204707E-16	1.282965E-17
3.700000E+03	1.253308E-16	1.326170E-17
3.710000E+03	1.303314E-16	1.370126E-17
3.720000E+03	1.354712E-16	1.414747E-17
3.730000E+03	1.407480E-16	1.459937E-17
3.740000E+03	1.461526E-16	1.505527E-17
3.750000E+03	1.516815E-16	1.551403E-17
3.760000E+03	1.573305E-16	1.597445E-17
3.770000E+03	1.630985E-16	1.643564E-17
3.780000E+03	1.689696E-16	1.689519E-17
3.790000E+03	1.749412E-16	1.735209E-17
3.800000E+03	1.810031E-16	1.780454E-17
3.810000E+03	1.871516E-16	1.825145E-17
3.820000E+03	1.933715E-16	1.869061E-17
3.830000E+03	1.996580E-16	1.912090E-17
3.840000E+03	2.059984E-16	1.954046E-17
3.850000E+03	2.123793E-16	1.994744E-17
3.860000E+03	2.187948E-16	2.034080E-17
3.870000E+03	2.252308E-16	2.071876E-17
3.880000E+03	2.316725E-16	2.107962E-17
3.890000E+03	2.381134E-16	2.142250E-17
3.900000E+03	2.445383E-16	2.174587E-17
3.910000E+03	2.509320E-16	2.204828E-17
3.920000E+03	2.572876E-16	2.232916E-17
3.930000E+03	2.635901E-16	2.258734E-17
3.940000E+03	2.698238E-16	2.282173E-17
3.950000E+03	2.759831E-16	2.303220E-17
3.960000E+03	2.820529E-16	2.321801E-17
3.970000E+03	2.880235E-16	2.337892E-17
3.980000E+03	2.938810E-16	2.351453E-17
3.990000E+03	2.996164E-16	2.362496E-17
4.000000E+03	3.052217E-16	2.371051E-17
4.010000E+03	3.106896E-16	2.377163E-17
4.020000E+03	3.160037E-16	2.380821E-17
4.030000E+03	3.211680E-16	2.382177E-17
4.040000E+03	3.261679E-16	2.381249E-17
4.050000E+03	3.309993E-16	2.378144E-17
4.060000E+03	3.356595E-16	2.372979E-17
4.070000E+03	3.401468E-16	2.365881E-17
4.080000E+03	3.444556E-16	2.356952E-17
4.090000E+03	3.485866E-16	2.346331E-17
4.100000E+03	3.525420E-16	2.334162E-17
4.110000E+03	3.563153E-16	2.320521E-17
4.120000E+03	3.599218E-16	2.305612E-17
4.130000E+03	3.633629E-16	2.289533E-17
4.140000E+03	3.666417E-16	2.272378E-17
4.150000E+03	3.697674E-16	2.254261E-17
4.160000E+03	3.727458E-16	2.235259E-17
4.170000E+03	3.755933E-16	2.215505E-17
4.180000E+03	3.783225E-16	2.195089E-17
4.190000E+03	3.809365E-16	2.174039E-17
4.200000E+03	3.834540E-16	2.152464E-17
4.210000E+03	3.858843E-16	2.130410E-17
4.220000E+03	3.882472E-16	2.107973E-17
4.230000E+03	3.905475E-16	2.085160E-17
4.240000E+03	3.928104E-16	2.062084E-17
4.250000E+03	3.950410E-16	2.038743E-17
4.260000E+03	3.972647E-16	2.015239E-17
4.270000E+03	3.994863E-16	1.991560E-17
4.280000E+03	4.017255E-16	1.967771E-17
4.290000E+03	4.040017E-16	1.943928E-17
4.300000E+03	4.063237E-16	1.920035E-17
4.310000E+03	4.087149E-16	1.896169E-17
4.320000E+03	4.111779E-16	1.872312E-17
4.330000E+03	4.137451E-16	1.848592E-17
4.340000E+03	4.164180E-16	1.825005E-17
4.350000E+03	4.192177E-16	1.801643E-17
4.360000E+03	4.221646E-16	1.778605E-17
4.370000E+03	4.252728E-16	1.755967E-17
4.380000E+03	4.285546E-16	1.733798E-17
4.390000E+03	4.320250E-16	1.712168E-17
4.400000E+03	4.357009E-16	1.691141E-17
4.410000E+03	4.395809E-16	1.670702E-17
4.420000E+03	4.436717E-16	1.650875E-17
4.430000E+03	4.479678E-16	1.631656E-17
4.440000E+03	4.524619E-16	1.613064E-17
4.450000E+03	4.571453E-16	1.595145E-17
4.460000E+03	4.620077E-16	1.577977E-17
4.470000E+03	4.670373E-16	1.561669E-17
4.480000E+03	4.722153E-16	1.546340E-17
4.490000E+03	4.775264E-16	1.532142E-17
4.500000E+03	4.829485E-16	1.519217E-17
4.510000E+03	4.884692E-16	1.507722E-17
4.520000E+03	4.940637E-16	1.497738E-17
4.530000E+03	4.996999E-16	1.489263E-17
4.540000E+03	5.053612E-16	1.482260E-17
4.550000E+03	5.110183E-16	1.476555E-17
4.560000E+03	5.166409E-16	1.471881E-17
4.570000E+03	5.221988E-16	1.467893E-17
4.580000E+03	5.276676E-16	1.464211E-17
4.590000E+03	5.330124E-16	1.460388E-17
4.600000E+03	5.382164E-16	1.456017E-17
4.610000E+03	5.432402E-16	1.450635E-17
4.620000E+03	5.480688E-16	1.443864E-17
4.630000E+03	5.526707E-16	1.435300E-17
4.640000E+03	5.570216E-16	1.424582E-17
4.650000E+03	5.610989E-16	1.411375E-17
4.660000E+03	5.648881E-16	1.395380E-17
4.670000E+03	5.683705E-16	1.376304E-17
4.680000E+03	5.715293E-16	1.353884E-17
4.690000E+03	5.743438E-16	1.327889E-17
4.700000E+03	5.768197E-16	1.298197E-17
4.710000E+03	5.789407E-16	1.264682E-17
4.720000E+03	5.807123E-16	1.227317E-17
4.730000E+03	5.821315E-16	1.186109E-17
4.740000E+03	5.832115E-16	1.141174E-17
4.750000E+03	5.839746E-16	1.092754E-17
4.760000E+03	5.844340E-16	1.041223E-17
4.770000E+03	5.846174E-16	9.871749E-18
4.780000E+03	5.845544E-16	9.314556E-18
4.790000E+03	5.842635E-16	8.752061E-18
4.800000E+03	5.837758E-16	8.199784E-18
4.810000E+03	5.831096E-16	7.677726E-18
4.820000E+03	5.822941E-16	7.211320E-18
4.830000E+03	5.813330E-16	6.830735E-18
4.840000E+03	5.802599E-16	6.569108E-18
4.850000E+03	5.790841E-16	6.455802E-18
4.860000E+03	5.778214E-16	6.507055E-18
4.870000E+03	5.764926E-16	6.715973E-18
4.880000E+03	5.751060E-16	7.055751E-18
4.890000E+03	5.736828E-16	7.492035E-18
4.900000E+03	5.722389E-16	7.991249E-18
4.910000E+03	5.707913E-16	8.524888E-18
4.920000E+03	5.693513E-16	9.070497E-18
4.930000E+03	5.679416E-16	9.611400E-18
4.940000E+03	5.665780E-16	1.013535E-17
4.950000E+03	5.652743E-16	1.063349E-17
4.960000E+03	5.640419E-16	1.109935E-17
4.970000E+03	5.628829E-16	1.152802E-17
4.980000E+03	5.618146E-16	1.191612E-17
4.990000E+03	5.608348E-16	1.226086E-17
5.000000E+03	5.599408E-16	1.256019E-17
5.010000E+03	5.591464E-16	1.281312E-17
5.020000E+03	5.584491E-16	1.301895E-17
5.030000E+03	5.578473E-16	1.317759E-17
5.040000E+03	5.573573E-16	1.328999E-17
5.050000E+03	5.569792E-16	1.335735E-17
5.060000E+03	5.567254E-16	1.338172E-17
5.070000E+03	5.565916E-16	1.336535E-17
5.080000E+03	5.565912E-16	1.331150E-17
5.090000E+03	5.567379E-16	1.322396E-17
5.100000E+03	5.570346E-16	1.310671E-17
5.110000E+03	5.574904E-16	1.296424E-17
5.120000E+03	5.581203E-16	1.280145E-17
5.130000E+03	5.589224E-16	1.262318E-17
5.140000E+03	5.599159E-16	1.243510E-17
5.150000E+03	5.611019E-16	1.224281E-17
5.160000E+03	5.624855E-16	1.205233E-17
5.170000E+03	5.640702E-16	1.186972E-17
5.180000E+03	5.658583E-16	1.170072E-17
5.190000E+03	5.678500E-16	1.154999E-17
5.200000E+03	5.700484E-16	1.142038E-17
5.210000E+03	5.724359E-16	1.131195E-17
5.220000E+03	5.750082E-16	1.122296E-17
5.230000E+03	5.777518E-16	1.115015E-17
5.240000E+03	5.806496E-16	1.108954E-17
5.250000E+03	5.836753E-16	1.103683E-17
5.260000E+03	5.868111E-16	1.098815E-17
5.270000E+03	5.900305E-16	1.093999E-17
5.280000E+03	5.932981E-16	1.088935E-17
5.290000E+03	5.965820E-16	1.083415E-17
5.300000E+03	5.998538E-16	1.077320E-17
5.310000E+03	6.030656E-16	1.070594E-17
5.320000E+03	6.061917E-16	1.063316E-17
5.330000E+03	6.091819E-16	1.055619E-17
5.340000E+03	6.120038E-16	1.047769E-17
5.350000E+03	6.146194E-16	1.040113E-17
5.360000E+03	6.169863E-16	1.033064E-17
5.370000E+03	6.190704E-16	1.027089E-17
5.380000E+03	6.208411E-16	1.022656E-17
5.390000E+03	6.222782E-16	1.020192E-17
5.400000E+03	6.233459E-16	1.020000E-17
5.410000E+03	6.240286E-16	1.022287E-17
5.420000E+03	6.242989E-16	1.027051E-17
5.430000E+03	6.241413E-16	1.034082E-17
5.440000E+03	6.235297E-16	1.042983E-17
5.450000E+03	6.224483E-16	1.053260E-17
5.460000E+03	6.208870E-16	1.064363E-17
5.470000E+03	6.188431E-16	1.075727E-17
5.480000E+03	6.163223E-16	1.086803E-17
5.490000E+03	6.133337E-16	1.097077E-17
5.500000E+03	6.099147E-16	1.106125E-17
5.510000E+03	6.060878E-16	1.113557E-17
5.520000E+03	6.018967E-16	1.119092E-17
5.530000E+03	5.974046E-16	1.122578E-17
5.540000E+03	5.926630E-16	1.123926E-17
5.550000E+03	5.877292E-16	1.123142E-17
5.560000E+03	5.826833E-16	1.120338E-17
5.570000E+03	5.775977E-16	1.115665E-17
5.580000E+03	5.725358E-16	1.109306E-17
5.590000E+03	5.675912E-16	1.101565E-17
5.600000E+03	5.628286E-16	1.092752E-17
5.610000E+03	5.583286E-16	1.083266E-17
5.620000E+03	5.541652E-16	1.073546E-17
5.630000E+03	5.504112E-16	1.064060E-17
5.640000E+03	5.471391E-16	1.055275E-17
5.650000E+03	5.444272E-16	1.047628E-17
5.660000E+03	5.423495E-16	1.041475E-17
5.670000E+03	5.409755E-16	1.037091E-17
5.680000E+03	5.403866E-16	1.034702E-17
5.690000E+03	5.406640E-16	1.034476E-17
5.700000E+03	5.418718E-16	1.036509E-17
5.710000E+03	5.440880E-16	1.040904E-17
5.720000E+03	5.473863E-16	1.047748E-17
5.730000E+03	5.518217E-16	1.057081E-17
5.740000E+03	5.574487E-16	1.068926E-17
5.750000E+03	5.643002E-16	1.083234E-17
5.760000E+03	5.723826E-16	1.099868E-17
5.770000E+03	5.816894E-16	1.118622E-17
5.780000E+03	5.921800E-16	1.139180E-17
5.790000E+03	6.037860E-16	1.161146E-17
5.800000E+03	6.164143E-16	1.184078E-17
5.810000E+03	6.299482E-16	1.207513E-17
5.820000E+03	6.442494E-16	1.230988E-17
5.830000E+03	6.591589E-16	1.254045E-17
5.840000E+03	6.745055E-16	1.276252E-17
5.850000E+03	6.900880E-16	1.297166E-17
5.860000E+03	7.056995E-16	1.316369E-17
5.870000E+03	7.211329E-16	1.333475E-17
5.880000E+03	7.361620E-16	1.348106E-17
5.890000E+03	7.505759E-16	1.359972E-17
5.900000E+03	7.641535E-16	1.368838E-17
5.910000E+03	7.766917E-16	1.374569E-17
5.920000E+03	7.880125E-16	1.377131E-17
5.930000E+03	7.979451E-16	1.376536E-17
5.940000E+03	8.063542E-16	1.372875E-17
5.950000E+03	8.131451E-16	1.366298E-17
5.960000E+03	8.182412E-16	1.356957E-17
5.970000E+03	8.216107E-16	1.345021E-17
5.980000E+03	8.232678E-16	1.330658E-17
5.990000E+03	8.232374E-16	1.313941E-17
6.000000E+03	8.216062E-16	1.294912E-17
6.010000E+03	8.184846E-16	1.273495E-17
6.020000E+03	8.140124E-16	1.249510E-17
6.030000E+03	8.083427E-16	1.222694E-17
6.040000E+03	8.016522E-16	1.192789E-17
6.050000E+03	7.941341E-16	1.159589E-17
6.060000E+03	7.859579E-16	1.122937E-17
6.070000E+03	7.773240E-16	1.082853E-17
6.080000E+03	7.683914E-16	1.039448E-17
6.090000E+03	7.593260E-16	9.930014E-18
6.100000E+03	7.502882E-16	9.439346E-18
6.110000E+03	7.414060E-16	8.927677E-18
6.120000E+03	7.328067E-16	8.401675E-18
6.130000E+03	7.245826E-16	7.869247E-18
6.140000E+03	7.168148E-16	7.340419E-18
6.150000E+03	7.095820E-16	6.828621E-18
6.160000E+03	7.029299E-16	6.351792E-18
6.170000E+03	6.968949E-16	5.933528E-18
6.180000E+03	6.914880E-16	5.602267E-18
6.190000E+03	6.867005E-16	5.387252E-18
6.200000E+03	6.825089E-16	5.309578E-18
6.210000E+03	6.788476E-16	5.367853E-18
6.220000E+03	6.756399E-16	5.535050E-18
6.230000E+03	6.727736E-16	5.774488E-18
6.240000E+03	6.701626E-16	6.052605E-18
6.250000E+03	6.676905E-16	6.343575E-18
6.260000E+03	6.652760E-16	6.630522E-18
6.270000E+03	6.628322E-16	6.903620E-18
6.280000E+03	6.602726E-16	7.157815E-18
6.290000E+03	6.575694E-16	7.391346E-18
6.300000E+03	6.546715E-16	7.603366E-18
6.310000E+03	6.515981E-16	7.793821E-18
6.320000E+03	6.483536E-16	7.961896E-18
6.330000E+03	6.449840E-16	8.106942E-18
6.340000E+03	6.415400E-16	8.228700E-18
6.350000E+03	6.380718E-16	8.327767E-18
6.360000E+03	6.346479E-16	8.406339E-18
6.370000E+03	6.313146E-16	8.467990E-18
6.380000E+03	6.281389E-16	8.518275E-18
6.390000E+03	6.251695E-16	8.564001E-18
6.400000E+03	6.224501E-16	8.612933E-18
6.410000E+03	6.200260E-16	8.673300E-18
6.420000E+03	6.179217E-16	8.752930E-18
6.430000E+03	6.161631E-16	8.858892E-18
6.440000E+03	6.147776E-16	8.996868E-18
6.450000E+03	6.137659E-16	9.170409E-18
6.460000E+03	6.131621E-16	9.381567E-18
6.470000E+03	6.129673E-16	9.629784E-18
6.480000E+03	6.132023E-16	9.912921E-18
6.490000E+03	6.138841E-16	1.022727E-17
6.500000E+03	6.150262E-16	1.056785E-17
6.510000E+03	6.166371E-16	1.092884E-17
6.520000E+03	6.187203E-16	1.130393E-17
6.530000E+03	6.212724E-16	1.168656E-17
6.540000E+03	6.242749E-16	1.206997E-17
6.550000E+03	6.277078E-16	1.244768E-17
6.560000E+03	6.315337E-16	1.281319E-17
6.570000E+03	6.357218E-16	1.316059E-17
6.580000E+03	6.402101E-16	1.348381E-17
6.590000E+03	6.449464E-16	1.377749E-17
6.600000E+03	6.498735E-16	1.403678E-17
6.610000E+03	6.549136E-16	1.425709E-17
6.620000E+03	6.600021E-16	1.443489E-17
6.630000E+03	6.650638E-16	1.456723E-17
6.640000E+03	6.700305E-16	1.465217E-17
6.650000E+03	6.748161E-16	1.468822E-17
6.660000E+03	6.793447E-16	1.467479E-17
6.670000E+03	6.835624E-16	1.461231E-17
6.680000E+03	6.873851E-16	1.450088E-17
6.690000E+03	6.907620E-16	1.434153E-17
6.700000E+03	6.936494E-16	1.413557E-17
6.710000E+03	6.959917E-16	1.388414E-17
6.720000E+03	6.977505E-16	1.358885E-17
6.730000E+03	6.988964E-16	1.325170E-17
6.740000E+03	6.994201E-16	1.287543E-17
6.750000E+03	6.993136E-16	1.246329E-17
6.760000E+03	6.985705E-16	1.201923E-17
6.770000E+03	6.972057E-16	1.154855E-17
6.780000E+03	6.952637E-16	1.105834E-17
6.790000E+03	6.927596E-16	1.055696E-17
6.800000E+03	6.897361E-16	1.005527E-17
6.810000E+03	6.862631E-16	9.566769E-18
6.820000E+03	6.823786E-16	9.106585E-18
6.830000E+03	6.781554E-16	8.691984E-18
6.840000E+03	6.736506E-16	8.340700E-18
6.850000E+03	6.689508E-16	8.069782E-18
6.860000E+03	6.641033E-16	7.892110E-18
6.870000E+03	6.591847E-16	7.814038E-18
6.880000E+03	6.542673E-16	7.831121E-18
6.890000E+03	6.494203E-16	7.928408E-18
6.900000E+03	6.447301E-16	8.086323E-18
6.910000E+03	6.402684E-16	8.284597E-18
6.920000E+03	6.360885E-16	8.504872E-18
6.930000E+03	6.322515E-16	8.732346E-18
6.940000E+03	6.287950E-16	8.955665E-18
6.950000E+03	6.257313E-16	9.166598E-18
6.960000E+03	6.230746E-16	9.359930E-18
6.970000E+03	6.208131E-16	9.532476E-18
6.980000E+03	6.189092E-16	9.682539E-18
6.990000E+03	6.173213E-16	9.809826E-18
7.000000E+03	6.160061E-16	9.915182E-18
7.010000E+03	6.149038E-16	1.000008E-17
7.020000E+03	6.139311E-16	1.006634E-17
7.030000E+03	6.130423E-16	1.011702E-17
7.040000E+03	6.121756E-16	1.015526E-17
7.050000E+03	6.112560E-16	1.018411E-17
7.060000E+03	6.102546E-16	1.020713E-17
7.070000E+03	6.091245E-16	1.022694E-17
7.080000E+03	6.078390E-16	1.024573E-17
7.090000E+03	6.063913E-16	1.026502E-17
7.100000E+03	6.047563E-16	1.028498E-17
7.110000E+03	6.029552E-16	1.030573E-17
7.120000E+03	6.009774E-16	1.032616E-17
7.130000E+03	5.988550E-16	1.034549E-17
7.140000E+03	5.965844E-16	1.036205E-17
7.150000E+03	5.941916E-16	1.037456E-17
7.160000E+03	5.917019E-16	1.038166E-17
7.170000E+03	5.891100E-16	1.038147E-17
7.180000E+03	5.864369E-16	1.037265E-17
7.190000E+03	5.836906E-16	1.035377E-17
7.200000E+03	5.808763E-16	1.032359E-17
7.210000E+03	5.779959E-16	1.028117E-17
7.220000E+03	5.750398E-16	1.022579E-17
7.230000E+03	5.720243E-16	1.015768E-17
7.240000E+03	5.689258E-16	1.007687E-17
7.250000E+03	5.657477E-16	9.984373E-18
7.260000E+03	5.624823E-16	9.881627E-18
7.270000E+03	5.591207E-16	9.770697E-18
7.280000E+03	5.556532E-16	9.654246E-18
7.290000E+03	5.520699E-16	9.535386E-18
7.300000E+03	5.483514E-16	9.417260E-18
7.310000E+03	5.445068E-16	9.303355E-18
7.320000E+03	5.405188E-16	9.196262E-18
7.330000E+03	5.363727E-16	9.097852E-18
7.340000E+03	5.320850E-16	9.009535E-18
7.350000E+03	5.276489E-16	8.931393E-18
7.360000E+03	5.230715E-16	8.862976E-18
7.370000E+03	5.183657E-16	8.803325E-18
7.380000E+03	5.135486E-16	8.751227E-18
7.390000E+03	5.086494E-16	8.705555E-18
7.400000E+03	5.036821E-16	8.664780E-18
7.410000E+03	4.986895E-16	8.627471E-18
7.420000E+03	4.936810E-16	8.590822E-18
7.430000E+03	4.887031E-16	8.551646E-18
7.440000E+03	4.837851E-16	8.505652E-18
7.450000E+03	4.789550E-16	8.448113E-18
7.460000E+03	4.742216E-16	8.373892E-18
7.470000E+03	4.696082E-16	8.278377E-18
7.480000E+03	4.651428E-16	8.157599E-18
7.490000E+03	4.608247E-16	8.007797E-18
7.500000E+03	4.566826E-16	7.826520E-18
7.510000E+03	4.527078E-16	7.611496E-18
7.520000E+03	4.489037E-16	7.361494E-18
7.530000E+03	4.452681E-16	7.076064E-18
7.540000E+03	4.418011E-16	6.755713E-18
7.550000E+03	4.384794E-16	6.401697E-18
7.560000E+03	4.352811E-16	6.016771E-18
7.570000E+03	4.321768E-16	5.605629E-18
7.580000E+03	4.291307E-16	5.175822E-18
7.590000E+03	4.261023E-16	4.739161E-18
7.600000E+03	4.230409E-16	4.313629E-18
7.610000E+03	4.199117E-16	3.925941E-18
7.620000E+03	4.166741E-16	3.612684E-18
7.630000E+03	4.132918E-16	3.417256E-18
7.640000E+03	4.097366E-16	3.376850E-18
7.650000E+03	4.059921E-16	3.500349E-18
7.660000E+03	4.020725E-16	3.762001E-18
7.670000E+03	3.980160E-16	4.121086E-18
7.680000E+03	3.938346E-16	4.539080E-18
7.690000E+03	3.895561E-16	4.986890E-18
7.700000E+03	3.852156E-16	5.444824E-18
7.710000E+03	3.808387E-16	5.900253E-18
7.720000E+03	3.764416E-16	6.345388E-18
7.730000E+03	3.720448E-16	6.775862E-18
7.740000E+03	3.676723E-16	7.189667E-18
7.750000E+03	3.633384E-16	7.586147E-18
7.760000E+03	3.590479E-16	7.965448E-18
