#wls	flux	fluxerr
1.600000E+03	5.057743E-18	3.309898E-18
1.640000E+03	4.994892E-18	3.229556E-18
1.680000E+03	4.938142E-18	3.153059E-18
1.720000E+03	4.887481E-18	3.080274E-18
1.760000E+03	4.842915E-18	3.011074E-18
1.800000E+03	4.805977E-18	2.946259E-18
1.840000E+03	4.775908E-18	2.885187E-18
1.880000E+03	4.754950E-18	2.829018E-18
1.920000E+03	4.742374E-18	2.777080E-18
1.960000E+03	4.738958E-18	2.729589E-18
2.000000E+03	4.746907E-18	2.687525E-18
2.040000E+03	4.766998E-18	2.650978E-18
2.080000E+03	4.799358E-18	2.619636E-18
2.120000E+03	4.845573E-18	2.593949E-18
2.160000E+03	4.907968E-18	2.574670E-18
2.200000E+03	4.987564E-18	2.561767E-18
2.240000E+03	5.084141E-18	2.554521E-18
2.280000E+03	5.200340E-18	2.553606E-18
2.320000E+03	5.336231E-18	2.558326E-18
2.360000E+03	5.492740E-18	2.568360E-18
2.400000E+03	5.672346E-18	2.584036E-18
2.440000E+03	5.875020E-18	2.604429E-18
2.480000E+03	6.103015E-18	2.629583E-18
2.520000E+03	6.358168E-18	2.659245E-18
2.560000E+03	6.642618E-18	2.693174E-18
2.600000E+03	6.958840E-18	2.731149E-18
2.640000E+03	7.310419E-18	2.773235E-18
2.680000E+03	7.701428E-18	2.819494E-18
2.720000E+03	8.135034E-18	2.869462E-18
2.760000E+03	8.617251E-18	2.923497E-18
2.800000E+03	9.154186E-18	2.981703E-18
2.840000E+03	9.752129E-18	3.043975E-18
2.880000E+03	1.041765E-17	3.110041E-18
2.920000E+03	1.115774E-17	3.179514E-18
2.960000E+03	1.198424E-17	3.253142E-18
3.000000E+03	1.290853E-17	3.331152E-18
3.010000E+03	1.315719E-17	3.351588E-18
3.020000E+03	1.341377E-17	3.372517E-18
3.030000E+03	1.367762E-17	3.393724E-18
3.040000E+03	1.394996E-17	3.415457E-18
3.050000E+03	1.423110E-17	3.437737E-18
3.060000E+03	1.452042E-17	3.460355E-18
3.070000E+03	1.482018E-17	3.483793E-18
3.080000E+03	1.512881E-17	3.507621E-18
3.090000E+03	1.544864E-17	3.532320E-18
3.100000E+03	1.577813E-17	3.557470E-18
3.110000E+03	1.611967E-17	3.583556E-18
3.120000E+03	1.647375E-17	3.610613E-18
3.130000E+03	1.683985E-17	3.638456E-18
3.140000E+03	1.721847E-17	3.667130E-18
3.150000E+03	1.761118E-17	3.696905E-18
3.160000E+03	1.801857E-17	3.727831E-18
3.170000E+03	1.844128E-17	3.759963E-18
3.180000E+03	1.887994E-17	3.793362E-18
3.190000E+03	1.933525E-17	3.828090E-18
3.200000E+03	1.980792E-17	3.864219E-18
3.210000E+03	2.029986E-17	3.902043E-18
3.220000E+03	2.081076E-17	3.941423E-18
3.230000E+03	2.134380E-17	3.982885E-18
3.240000E+03	2.189759E-17	4.026083E-18
3.250000E+03	2.247546E-17	4.071556E-18
3.260000E+03	2.307605E-17	4.118971E-18
3.270000E+03	2.370412E-17	4.169103E-18
3.280000E+03	2.435838E-17	4.221633E-18
3.290000E+03	2.504130E-17	4.276913E-18
3.300000E+03	2.575419E-17	4.335081E-18
3.310000E+03	2.649975E-17	4.396506E-18
3.320000E+03	2.727810E-17	4.461123E-18
3.330000E+03	2.809211E-17	4.529320E-18
3.340000E+03	2.894483E-17	4.601494E-18
3.350000E+03	2.983658E-17	4.677610E-18
3.360000E+03	3.077059E-17	4.758085E-18
3.370000E+03	3.174878E-17	4.843126E-18
3.380000E+03	3.277466E-17	4.933174E-18
3.390000E+03	3.385037E-17	5.028456E-18
3.400000E+03	3.497816E-17	5.129208E-18
3.410000E+03	3.616194E-17	5.235905E-18
3.420000E+03	3.740421E-17	5.348803E-18
3.430000E+03	3.870920E-17	5.468400E-18
3.440000E+03	4.007967E-17	5.594970E-18
3.450000E+03	4.152020E-17	5.729033E-18
3.460000E+03	4.303560E-17	5.871121E-18
3.470000E+03	4.462907E-17	6.021535E-18
3.480000E+03	4.630580E-17	6.180824E-18
3.490000E+03	4.806926E-17	6.349299E-18
3.500000E+03	4.992694E-17	6.527776E-18
3.510000E+03	5.188272E-17	6.716578E-18
3.520000E+03	5.394261E-17	6.916282E-18
3.530000E+03	5.611079E-17	7.127208E-18
3.540000E+03	5.839363E-17	7.349933E-18
3.550000E+03	6.079336E-17	7.584491E-18
3.560000E+03	6.331653E-17	7.831436E-18
3.570000E+03	6.596308E-17	8.090479E-18
3.580000E+03	6.873715E-17	8.361837E-18
3.590000E+03	7.164051E-17	8.645410E-18
3.600000E+03	7.467947E-17	8.941628E-18
3.610000E+03	7.785056E-17	9.249715E-18
3.620000E+03	8.116222E-17	9.570296E-18
3.630000E+03	8.461019E-17	9.902459E-18
3.640000E+03	8.819997E-17	1.024642E-17
3.650000E+03	9.192892E-17	1.060142E-17
3.660000E+03	9.579924E-17	1.096722E-17
3.670000E+03	9.981000E-17	1.134320E-17
3.680000E+03	1.039655E-16	1.172933E-17
3.690000E+03	1.082582E-16	1.212415E-17
3.700000E+03	1.126914E-16	1.252747E-17
3.710000E+03	1.172620E-16	1.293832E-17
3.720000E+03	1.219665E-16	1.335567E-17
3.730000E+03	1.268038E-16	1.377874E-17
3.740000E+03	1.317722E-16	1.420666E-17
3.750000E+03	1.368662E-16	1.463816E-17
3.760000E+03	1.420797E-16	1.507188E-17
3.770000E+03	1.474092E-16	1.550674E-17
3.780000E+03	1.528544E-16	1.594200E-17
3.790000E+03	1.583998E-16	1.637535E-17
3.800000E+03	1.640440E-16	1.680595E-17
3.810000E+03	1.697812E-16	1.723255E-17
3.820000E+03	1.756014E-16	1.765347E-17
3.830000E+03	1.814978E-16	1.806742E-17
3.840000E+03	1.874592E-16	1.847270E-17
3.850000E+03	1.934776E-16	1.886802E-17
3.860000E+03	1.995408E-16	1.925171E-17
3.870000E+03	2.056443E-16	1.962290E-17
3.880000E+03	2.117707E-16	1.997962E-17
3.890000E+03	2.179149E-16	2.032111E-17
3.900000E+03	2.240632E-16	2.064589E-17
3.910000E+03	2.302059E-16	2.095297E-17
3.920000E+03	2.363288E-16	2.124106E-17
3.930000E+03	2.424221E-16	2.150936E-17
3.940000E+03	2.484714E-16	2.175678E-17
3.950000E+03	2.544716E-16	2.198318E-17
3.960000E+03	2.604040E-16	2.218733E-17
3.970000E+03	2.662688E-16	2.236974E-17
3.980000E+03	2.720428E-16	2.252909E-17
3.990000E+03	2.777225E-16	2.266577E-17
4.000000E+03	2.832950E-16	2.277955E-17
4.010000E+03	2.887529E-16	2.287072E-17
4.020000E+03	2.940896E-16	2.293975E-17
4.030000E+03	2.992989E-16	2.298720E-17
4.040000E+03	3.043658E-16	2.301303E-17
4.050000E+03	3.092910E-16	2.301845E-17
4.060000E+03	3.140659E-16	2.300404E-17
4.070000E+03	3.186882E-16	2.297083E-17
4.080000E+03	3.231515E-16	2.291957E-17
4.090000E+03	3.274607E-16	2.285179E-17
4.100000E+03	3.316067E-16	2.276797E-17
4.110000E+03	3.355970E-16	2.266968E-17
4.120000E+03	3.394299E-16	2.255777E-17
4.130000E+03	3.431053E-16	2.243308E-17
4.140000E+03	3.466342E-16	2.229710E-17
4.150000E+03	3.500241E-16	2.215091E-17
4.160000E+03	3.532730E-16	2.199489E-17
4.170000E+03	3.563901E-16	2.183004E-17
4.180000E+03	3.593910E-16	2.165759E-17
4.190000E+03	3.622813E-16	2.147811E-17
4.200000E+03	3.650728E-16	2.129241E-17
4.210000E+03	3.677776E-16	2.110123E-17
4.220000E+03	3.704032E-16	2.090501E-17
4.230000E+03	3.729677E-16	2.070470E-17
4.240000E+03	3.754844E-16	2.050089E-17
4.250000E+03	3.779613E-16	2.029388E-17
4.260000E+03	3.804118E-16	2.008419E-17
4.270000E+03	3.828544E-16	1.987259E-17
4.280000E+03	3.853071E-16	1.965979E-17
4.290000E+03	3.877778E-16	1.944593E-17
4.300000E+03	3.902786E-16	1.923141E-17
4.310000E+03	3.928373E-16	1.901740E-17
4.320000E+03	3.954548E-16	1.880378E-17
4.330000E+03	3.981576E-16	1.859167E-17
4.340000E+03	4.009559E-16	1.838149E-17
4.350000E+03	4.038694E-16	1.817412E-17
4.360000E+03	4.069064E-16	1.796996E-17
4.370000E+03	4.100896E-16	1.777007E-17
4.380000E+03	4.134246E-16	1.757476E-17
4.390000E+03	4.169310E-16	1.738494E-17
4.400000E+03	4.206213E-16	1.720123E-17
4.410000E+03	4.245012E-16	1.702396E-17
4.420000E+03	4.285741E-16	1.685347E-17
4.430000E+03	4.328474E-16	1.669035E-17
4.440000E+03	4.373055E-16	1.653445E-17
4.450000E+03	4.419417E-16	1.638618E-17
4.460000E+03	4.467478E-16	1.624609E-17
4.470000E+03	4.517141E-16	1.611485E-17
4.480000E+03	4.568187E-16	1.599283E-17
4.490000E+03	4.620487E-16	1.588080E-17
4.500000E+03	4.673847E-16	1.577923E-17
4.510000E+03	4.728056E-16	1.568841E-17
4.520000E+03	4.783003E-16	1.560865E-17
4.530000E+03	4.838283E-16	1.553887E-17
4.540000E+03	4.893819E-16	1.547856E-17
4.550000E+03	4.949239E-16	1.542569E-17
4.560000E+03	5.004396E-16	1.537838E-17
4.570000E+03	5.058965E-16	1.533369E-17
4.580000E+03	5.112676E-16	1.528843E-17
4.590000E+03	5.165264E-16	1.523912E-17
4.600000E+03	5.216524E-16	1.518228E-17
4.610000E+03	5.266201E-16	1.511417E-17
4.620000E+03	5.313987E-16	1.503094E-17
4.630000E+03	5.359762E-16	1.492937E-17
4.640000E+03	5.403240E-16	1.480585E-17
4.650000E+03	5.444208E-16	1.465719E-17
4.660000E+03	5.482527E-16	1.448059E-17
4.670000E+03	5.518016E-16	1.427335E-17
4.680000E+03	5.550636E-16	1.403342E-17
4.690000E+03	5.580180E-16	1.375867E-17
4.700000E+03	5.606649E-16	1.344787E-17
4.710000E+03	5.630007E-16	1.310015E-17
4.720000E+03	5.650242E-16	1.271524E-17
4.730000E+03	5.667489E-16	1.229388E-17
4.740000E+03	5.681726E-16	1.183728E-17
4.750000E+03	5.693262E-16	1.134842E-17
4.760000E+03	5.702118E-16	1.083107E-17
4.770000E+03	5.708576E-16	1.029127E-17
4.780000E+03	5.712686E-16	9.736938E-18
4.790000E+03	5.714749E-16	9.179388E-18
4.800000E+03	5.714821E-16	8.633223E-18
4.810000E+03	5.713080E-16	8.117786E-18
4.820000E+03	5.709573E-16	7.657283E-18
4.830000E+03	5.704464E-16	7.280695E-18
4.840000E+03	5.697789E-16	7.018935E-18
4.850000E+03	5.689706E-16	6.899800E-18
4.860000E+03	5.680257E-16	6.939698E-18
4.870000E+03	5.669603E-16	7.132611E-18
4.880000E+03	5.658005E-16	7.453826E-18
4.890000E+03	5.645550E-16	7.871423E-18
4.900000E+03	5.632560E-16	8.353899E-18
4.910000E+03	5.619117E-16	8.873521E-18
4.920000E+03	5.605530E-16	9.408309E-18
4.930000E+03	5.591976E-16	9.941271E-18
4.940000E+03	5.578502E-16	1.045949E-17
4.950000E+03	5.565314E-16	1.095370E-17
4.960000E+03	5.552598E-16	1.141721E-17
4.970000E+03	5.540462E-16	1.184509E-17
4.980000E+03	5.528883E-16	1.223357E-17
4.990000E+03	5.518113E-16	1.258061E-17
5.000000E+03	5.508106E-16	1.288439E-17
5.010000E+03	5.498923E-16	1.314411E-17
5.020000E+03	5.490741E-16	1.335985E-17
5.030000E+03	5.483505E-16	1.353179E-17
5.040000E+03	5.477337E-16	1.366105E-17
5.050000E+03	5.472361E-16	1.374932E-17
5.060000E+03	5.468533E-16	1.379837E-17
5.070000E+03	5.465985E-16	1.381090E-17
5.080000E+03	5.464849E-16	1.379006E-17
5.090000E+03	5.465148E-16	1.373915E-17
5.100000E+03	5.466962E-16	1.366197E-17
5.110000E+03	5.470425E-16	1.356280E-17
5.120000E+03	5.475558E-16	1.344589E-17
5.130000E+03	5.482430E-16	1.331585E-17
5.140000E+03	5.491160E-16	1.317756E-17
5.150000E+03	5.501741E-16	1.303566E-17
5.160000E+03	5.514264E-16	1.289493E-17
5.170000E+03	5.528695E-16	1.275959E-17
5.180000E+03	5.545088E-16	1.263352E-17
5.190000E+03	5.563365E-16	1.251952E-17
5.200000E+03	5.583534E-16	1.241961E-17
5.210000E+03	5.605464E-16	1.233434E-17
5.220000E+03	5.629104E-16	1.226345E-17
5.230000E+03	5.654261E-16	1.220547E-17
5.240000E+03	5.680767E-16	1.215837E-17
5.250000E+03	5.708421E-16	1.211978E-17
5.260000E+03	5.737052E-16	1.208729E-17
5.270000E+03	5.766346E-16	1.205839E-17
5.280000E+03	5.796019E-16	1.203098E-17
5.290000E+03	5.825765E-16	1.200337E-17
5.300000E+03	5.855256E-16	1.197442E-17
5.310000E+03	5.884148E-16	1.194354E-17
5.320000E+03	5.912088E-16	1.191077E-17
5.330000E+03	5.938653E-16	1.187660E-17
5.340000E+03	5.963541E-16	1.184235E-17
5.350000E+03	5.986337E-16	1.180956E-17
5.360000E+03	6.006757E-16	1.178038E-17
5.370000E+03	6.024416E-16	1.175689E-17
5.380000E+03	6.038953E-16	1.174116E-17
5.390000E+03	6.050216E-16	1.173535E-17
5.400000E+03	6.057901E-16	1.174079E-17
5.410000E+03	6.061730E-16	1.175809E-17
5.420000E+03	6.061578E-16	1.178719E-17
5.430000E+03	6.057223E-16	1.182666E-17
5.440000E+03	6.048606E-16	1.187449E-17
5.450000E+03	6.035532E-16	1.192770E-17
5.460000E+03	6.018108E-16	1.198342E-17
5.470000E+03	5.996385E-16	1.203840E-17
5.480000E+03	5.970365E-16	1.208918E-17
5.490000E+03	5.940307E-16	1.213290E-17
5.500000E+03	5.906426E-16	1.216680E-17
5.510000E+03	5.869191E-16	1.218898E-17
5.520000E+03	5.828962E-16	1.219772E-17
5.530000E+03	5.786221E-16	1.219204E-17
5.540000E+03	5.741508E-16	1.217159E-17
5.550000E+03	5.695466E-16	1.213677E-17
5.560000E+03	5.648660E-16	1.208831E-17
5.570000E+03	5.601803E-16	1.202771E-17
5.580000E+03	5.555510E-16	1.195675E-17
5.590000E+03	5.510525E-16	1.187787E-17
5.600000E+03	5.467536E-16	1.179381E-17
5.610000E+03	5.427287E-16	1.170773E-17
5.620000E+03	5.390352E-16	1.162265E-17
5.630000E+03	5.357517E-16	1.154215E-17
5.640000E+03	5.329452E-16	1.146953E-17
5.650000E+03	5.306822E-16	1.140786E-17
5.660000E+03	5.290233E-16	1.135983E-17
5.670000E+03	5.280388E-16	1.132795E-17
5.680000E+03	5.277977E-16	1.131434E-17
5.690000E+03	5.283512E-16	1.132038E-17
5.700000E+03	5.297686E-16	1.134756E-17
5.710000E+03	5.321045E-16	1.139677E-17
5.720000E+03	5.354017E-16	1.146846E-17
5.730000E+03	5.397054E-16	1.156295E-17
5.740000E+03	5.450395E-16	1.167988E-17
5.750000E+03	5.514254E-16	1.181866E-17
5.760000E+03	5.588690E-16	1.197813E-17
5.770000E+03	5.673415E-16	1.215621E-17
5.780000E+03	5.768113E-16	1.235056E-17
5.790000E+03	5.872211E-16	1.255823E-17
5.800000E+03	5.984929E-16	1.277580E-17
5.810000E+03	6.105289E-16	1.299954E-17
5.820000E+03	6.232183E-16	1.322560E-17
5.830000E+03	6.364133E-16	1.344964E-17
5.840000E+03	6.499755E-16	1.366780E-17
5.850000E+03	6.637332E-16	1.387587E-17
5.860000E+03	6.775100E-16	1.406987E-17
5.870000E+03	6.911290E-16	1.424623E-17
5.880000E+03	7.043878E-16	1.440121E-17
5.890000E+03	7.171132E-16	1.453209E-17
5.900000E+03	7.291071E-16	1.463607E-17
5.910000E+03	7.402113E-16	1.471149E-17
5.920000E+03	7.502513E-16	1.475665E-17
5.930000E+03	7.590945E-16	1.477087E-17
5.940000E+03	7.666241E-16	1.475373E-17
5.950000E+03	7.727497E-16	1.470523E-17
5.960000E+03	7.774024E-16	1.462542E-17
5.970000E+03	7.805518E-16	1.451459E-17
5.980000E+03	7.821995E-16	1.437301E-17
5.990000E+03	7.823865E-16	1.420090E-17
6.000000E+03	7.811582E-16	1.399775E-17
6.010000E+03	7.786120E-16	1.376321E-17
6.020000E+03	7.748602E-16	1.349655E-17
6.030000E+03	7.700253E-16	1.319677E-17
6.040000E+03	7.642604E-16	1.286324E-17
6.050000E+03	7.577026E-16	1.249526E-17
6.060000E+03	7.505173E-16	1.209305E-17
6.070000E+03	7.428692E-16	1.165754E-17
6.080000E+03	7.348945E-16	1.119007E-17
6.090000E+03	7.267454E-16	1.069329E-17
6.100000E+03	7.185557E-16	1.017073E-17
6.110000E+03	7.104545E-16	9.627146E-18
6.120000E+03	7.025411E-16	9.068523E-18
6.130000E+03	6.949153E-16	8.502945E-18
6.140000E+03	6.876534E-16	7.941034E-18
6.150000E+03	6.808313E-16	7.397230E-18
6.160000E+03	6.745012E-16	6.890626E-18
6.170000E+03	6.686851E-16	6.445683E-18
6.180000E+03	6.634040E-16	6.091856E-18
6.190000E+03	6.586702E-16	5.859827E-18
6.200000E+03	6.544503E-16	5.773596E-18
6.210000E+03	6.507117E-16	5.835314E-18
6.220000E+03	6.473845E-16	6.018088E-18
6.230000E+03	6.443884E-16	6.285836E-18
6.240000E+03	6.416456E-16	6.604103E-18
6.250000E+03	6.390856E-16	6.945052E-18
6.260000E+03	6.366206E-16	7.288261E-18
6.270000E+03	6.341920E-16	7.620237E-18
6.280000E+03	6.317381E-16	7.932446E-18
6.290000E+03	6.292250E-16	8.220132E-18
6.300000E+03	6.266200E-16	8.480749E-18
6.310000E+03	6.239199E-16	8.713466E-18
6.320000E+03	6.211224E-16	8.918265E-18
6.330000E+03	6.182456E-16	9.095975E-18
6.340000E+03	6.153253E-16	9.248220E-18
6.350000E+03	6.123841E-16	9.377040E-18
6.360000E+03	6.094782E-16	9.485695E-18
6.370000E+03	6.066384E-16	9.577834E-18
6.380000E+03	6.039106E-16	9.658100E-18
6.390000E+03	6.013325E-16	9.731659E-18
6.400000E+03	5.989469E-16	9.804211E-18
6.410000E+03	5.967792E-16	9.881359E-18
6.420000E+03	5.948724E-16	9.968858E-18
6.430000E+03	5.932301E-16	1.007136E-17
6.440000E+03	5.918870E-16	1.019328E-17
6.450000E+03	5.908455E-16	1.033747E-17
6.460000E+03	5.901251E-16	1.050588E-17
6.470000E+03	5.897414E-16	1.069917E-17
6.480000E+03	5.897130E-16	1.091680E-17
6.490000E+03	5.900544E-16	1.115701E-17
6.500000E+03	5.907902E-16	1.141732E-17
6.510000E+03	5.919259E-16	1.169409E-17
6.520000E+03	5.934618E-16	1.198307E-17
6.530000E+03	5.953927E-16	1.227951E-17
6.540000E+03	5.977068E-16	1.257838E-17
6.550000E+03	6.003786E-16	1.287434E-17
6.560000E+03	6.033907E-16	1.316232E-17
6.570000E+03	6.067044E-16	1.343703E-17
6.580000E+03	6.102749E-16	1.369331E-17
6.590000E+03	6.140520E-16	1.392627E-17
6.600000E+03	6.179962E-16	1.413170E-17
6.610000E+03	6.220415E-16	1.430529E-17
6.620000E+03	6.261261E-16	1.444337E-17
6.630000E+03	6.301946E-16	1.454299E-17
6.640000E+03	6.341828E-16	1.460159E-17
6.650000E+03	6.380266E-16	1.461716E-17
6.660000E+03	6.416717E-16	1.458843E-17
6.670000E+03	6.450419E-16	1.451405E-17
6.680000E+03	6.480976E-16	1.439393E-17
6.690000E+03	6.507882E-16	1.422799E-17
6.700000E+03	6.530683E-16	1.401658E-17
6.710000E+03	6.548908E-16	1.376026E-17
6.720000E+03	6.562326E-16	1.346041E-17
6.730000E+03	6.570706E-16	1.311876E-17
6.740000E+03	6.573897E-16	1.273766E-17
6.750000E+03	6.571840E-16	1.232024E-17
6.760000E+03	6.564653E-16	1.187077E-17
6.770000E+03	6.552276E-16	1.139421E-17
6.780000E+03	6.535091E-16	1.089765E-17
6.790000E+03	6.513197E-16	1.038933E-17
6.800000E+03	6.487124E-16	9.880136E-18
6.810000E+03	6.457280E-16	9.382995E-18
6.820000E+03	6.423942E-16	8.912996E-18
6.830000E+03	6.387783E-16	8.487935E-18
6.840000E+03	6.349231E-16	8.126542E-18
6.850000E+03	6.308907E-16	7.847318E-18
6.860000E+03	6.267263E-16	7.665229E-18
6.870000E+03	6.224850E-16	7.588622E-18
6.880000E+03	6.182268E-16	7.614443E-18
6.890000E+03	6.140258E-16	7.728064E-18
6.900000E+03	6.099361E-16	7.909301E-18
6.910000E+03	6.060148E-16	8.136976E-18
6.920000E+03	6.023114E-16	8.391720E-18
6.930000E+03	5.988744E-16	8.657578E-18
6.940000E+03	5.957150E-16	8.921886E-18
6.950000E+03	5.928676E-16	9.175884E-18
6.960000E+03	5.903284E-16	9.413308E-18
6.970000E+03	5.880903E-16	9.630319E-18
6.980000E+03	5.861441E-16	9.825008E-18
6.990000E+03	5.844450E-16	9.996392E-18
7.000000E+03	5.829663E-16	1.014495E-17
7.010000E+03	5.816671E-16	1.027179E-17
7.020000E+03	5.805032E-16	1.037862E-17
7.030000E+03	5.794295E-16	1.046755E-17
7.040000E+03	5.783933E-16	1.054081E-17
7.050000E+03	5.773715E-16	1.060118E-17
7.060000E+03	5.763109E-16	1.065076E-17
7.070000E+03	5.751908E-16	1.069194E-17
7.080000E+03	5.739796E-16	1.072642E-17
7.090000E+03	5.726701E-16	1.075583E-17
7.100000E+03	5.712444E-16	1.078101E-17
7.110000E+03	5.697080E-16	1.080270E-17
7.120000E+03	5.680624E-16	1.082105E-17
7.130000E+03	5.662950E-16	1.083555E-17
7.140000E+03	5.644401E-16	1.084626E-17
7.150000E+03	5.624800E-16	1.085202E-17
7.160000E+03	5.604415E-16	1.085240E-17
7.170000E+03	5.583152E-16	1.084621E-17
7.180000E+03	5.561256E-16	1.083292E-17
7.190000E+03	5.538689E-16	1.081156E-17
7.200000E+03	5.515480E-16	1.078143E-17
7.210000E+03	5.491720E-16	1.074221E-17
7.220000E+03	5.467219E-16	1.069327E-17
7.230000E+03	5.442026E-16	1.063482E-17
7.240000E+03	5.415999E-16	1.056704E-17
7.250000E+03	5.389240E-16	1.049097E-17
7.260000E+03	5.361493E-16	1.040735E-17
7.270000E+03	5.332836E-16	1.031793E-17
7.280000E+03	5.302911E-16	1.022389E-17
7.290000E+03	5.271881E-16	1.012760E-17
7.300000E+03	5.239478E-16	1.003066E-17
7.310000E+03	5.205707E-16	9.935043E-18
7.320000E+03	5.170416E-16	9.842161E-18
7.330000E+03	5.133651E-16	9.753365E-18
7.340000E+03	5.095315E-16	9.669225E-18
7.350000E+03	5.055517E-16	9.590154E-18
7.360000E+03	5.014315E-16	9.515936E-18
7.370000E+03	4.971642E-16	9.445629E-18
7.380000E+03	4.927882E-16	9.378717E-18
7.390000E+03	4.882953E-16	9.313402E-18
7.400000E+03	4.837298E-16	9.248487E-18
7.410000E+03	4.790970E-16	9.181621E-18
7.420000E+03	4.744287E-16	9.110515E-18
7.430000E+03	4.697414E-16	9.032175E-18
7.440000E+03	4.650760E-16	8.943741E-18
7.450000E+03	4.604410E-16	8.841531E-18
7.460000E+03	4.558596E-16	8.722121E-18
7.470000E+03	4.513609E-16	8.582346E-18
7.480000E+03	4.469559E-16	8.419000E-18
7.490000E+03	4.426681E-16	8.229545E-18
7.500000E+03	4.384943E-16	8.011488E-18
7.510000E+03	4.344585E-16	7.763445E-18
7.520000E+03	4.305497E-16	7.484090E-18
7.530000E+03	4.267753E-16	7.173214E-18
7.540000E+03	4.231301E-16	6.831310E-18
7.550000E+03	4.196041E-16	6.459934E-18
7.560000E+03	4.161822E-16	6.062067E-18
7.570000E+03	4.128374E-16	5.642570E-18
7.580000E+03	4.095536E-16	5.209355E-18
7.590000E+03	4.063043E-16	4.774303E-18
7.600000E+03	4.030610E-16	4.355088E-18
7.610000E+03	3.997951E-16	3.977094E-18
7.620000E+03	3.964720E-16	3.674240E-18
7.630000E+03	3.930747E-16	3.485967E-18
7.640000E+03	3.895837E-16	3.446007E-18
7.650000E+03	3.859851E-16	3.562220E-18
7.660000E+03	3.823004E-16	3.810183E-18
7.670000E+03	3.785297E-16	4.152515E-18
7.680000E+03	3.746962E-16	4.553887E-18
7.690000E+03	3.708112E-16	4.986811E-18
7.700000E+03	3.669060E-16	5.432401E-18
7.710000E+03	3.629845E-16	5.877994E-18
7.720000E+03	3.590693E-16	6.315885E-18
7.730000E+03	3.551747E-16	6.741488E-18
7.740000E+03	3.513065E-16	7.152252E-18
7.750000E+03	3.474821E-16	7.547325E-18
7.760000E+03	3.437104E-16	7.926720E-18
