#wls	flux	fluxerr
1.600000E+03	4.445533E-18	2.970882E-18
1.640000E+03	4.389900E-18	2.902102E-18
1.680000E+03	4.338558E-18	2.836144E-18
1.720000E+03	4.291542E-18	2.772956E-18
1.760000E+03	4.250538E-18	2.713537E-18
1.800000E+03	4.214743E-18	2.657258E-18
1.840000E+03	4.184206E-18	2.604043E-18
1.880000E+03	4.159802E-18	2.554316E-18
1.920000E+03	4.141601E-18	2.507980E-18
1.960000E+03	4.130499E-18	2.465422E-18
2.000000E+03	4.126612E-18	2.426534E-18
2.040000E+03	4.129305E-18	2.390763E-18
2.080000E+03	4.140349E-18	2.358945E-18
2.120000E+03	4.159974E-18	2.330979E-18
2.160000E+03	4.188465E-18	2.306779E-18
2.200000E+03	4.225375E-18	2.285847E-18
2.240000E+03	4.272687E-18	2.268985E-18
2.280000E+03	4.330887E-18	2.256133E-18
2.320000E+03	4.398957E-18	2.246434E-18
2.360000E+03	4.479948E-18	2.241103E-18
2.400000E+03	4.572232E-18	2.238935E-18
2.440000E+03	4.679127E-18	2.241156E-18
2.480000E+03	4.800054E-18	2.247023E-18
2.520000E+03	4.937039E-18	2.257008E-18
2.560000E+03	5.090636E-18	2.270836E-18
2.600000E+03	5.263292E-18	2.289034E-18
2.640000E+03	5.457766E-18	2.312157E-18
2.680000E+03	5.674475E-18	2.339676E-18
2.720000E+03	5.916795E-18	2.372242E-18
2.760000E+03	6.188584E-18	2.410555E-18
2.800000E+03	6.492314E-18	2.454639E-18
2.840000E+03	6.833919E-18	2.505702E-18
2.880000E+03	7.218152E-18	2.564299E-18
2.920000E+03	7.651625E-18	2.631456E-18
2.960000E+03	8.143157E-18	2.708693E-18
3.000000E+03	8.701855E-18	2.797301E-18
3.010000E+03	8.853838E-18	2.821588E-18
3.020000E+03	9.011077E-18	2.846766E-18
3.030000E+03	9.172535E-18	2.872474E-18
3.040000E+03	9.340817E-18	2.899493E-18
3.050000E+03	9.514913E-18	2.927465E-18
3.060000E+03	9.695022E-18	2.956411E-18
3.070000E+03	9.881353E-18	2.986354E-18
3.080000E+03	1.007412E-17	3.017316E-18
3.090000E+03	1.027486E-17	3.049712E-18
3.100000E+03	1.048121E-17	3.082789E-18
3.110000E+03	1.069738E-17	3.117745E-18
3.120000E+03	1.091965E-17	3.153434E-18
3.130000E+03	1.115236E-17	3.191065E-18
3.140000E+03	1.139171E-17	3.229485E-18
3.150000E+03	1.164218E-17	3.269914E-18
3.160000E+03	1.190130E-17	3.311591E-18
3.170000E+03	1.217084E-17	3.354949E-18
3.180000E+03	1.245118E-17	3.400026E-18
3.190000E+03	1.274121E-17	3.446452E-18
3.200000E+03	1.304433E-17	3.495078E-18
3.210000E+03	1.335948E-17	3.545540E-18
3.220000E+03	1.368553E-17	3.597465E-18
3.230000E+03	1.402767E-17	3.652135E-18
3.240000E+03	1.438164E-17	3.708352E-18
3.250000E+03	1.475115E-17	3.766994E-18
3.260000E+03	1.513513E-17	3.827688E-18
3.270000E+03	1.553580E-17	3.890906E-18
3.280000E+03	1.595379E-17	3.956701E-18
3.290000E+03	1.638976E-17	4.025126E-18
3.300000E+03	1.684259E-17	4.095801E-18
3.310000E+03	1.731652E-17	4.169649E-18
3.320000E+03	1.780866E-17	4.245850E-18
3.330000E+03	1.832344E-17	4.325339E-18
3.340000E+03	1.886172E-17	4.408182E-18
3.350000E+03	1.942049E-17	4.493539E-18
3.360000E+03	2.000641E-17	4.582820E-18
3.370000E+03	2.061651E-17	4.675182E-18
3.380000E+03	2.125370E-17	4.771138E-18
3.390000E+03	2.191900E-17	4.870750E-18
3.400000E+03	2.261342E-17	4.974079E-18
3.410000E+03	2.334022E-17	5.081657E-18
3.420000E+03	2.409837E-17	5.193072E-18
3.430000E+03	2.488899E-17	5.308377E-18
3.440000E+03	2.571554E-17	5.428108E-18
3.450000E+03	2.657930E-17	5.552322E-18
3.460000E+03	2.748160E-17	5.681074E-18
3.470000E+03	2.842379E-17	5.814412E-18
3.480000E+03	2.940976E-17	5.952882E-18
3.490000E+03	3.043849E-17	6.096026E-18
3.500000E+03	3.151142E-17	6.243873E-18
3.510000E+03	3.263264E-17	6.396963E-18
3.520000E+03	3.380376E-17	6.555321E-18
3.530000E+03	3.502917E-17	6.719491E-18
3.540000E+03	3.630507E-17	6.888430E-18
3.550000E+03	3.763868E-17	7.063191E-18
3.560000E+03	3.902893E-17	7.243228E-18
3.570000E+03	4.048046E-17	7.429054E-18
3.580000E+03	4.199512E-17	7.620638E-18
3.590000E+03	4.357785E-17	7.818486E-18
3.600000E+03	4.522435E-17	8.021424E-18
3.610000E+03	4.693947E-17	8.229918E-18
3.620000E+03	4.873157E-17	8.445002E-18
3.630000E+03	5.059274E-17	8.664858E-18
3.640000E+03	5.253477E-17	8.891057E-18
3.650000E+03	5.455623E-17	9.122872E-18
3.660000E+03	5.665539E-17	9.359536E-18
3.670000E+03	5.884102E-17	9.602008E-18
3.680000E+03	6.111502E-17	9.850066E-18
3.690000E+03	6.347540E-17	1.010286E-17
3.700000E+03	6.592748E-17	1.036070E-17
3.710000E+03	6.847283E-17	1.062328E-17
3.720000E+03	7.110896E-17	1.088965E-17
3.730000E+03	7.384503E-17	1.116065E-17
3.740000E+03	7.668243E-17	1.143590E-17
3.750000E+03	7.961400E-17	1.171372E-17
3.760000E+03	8.264884E-17	1.199490E-17
3.770000E+03	8.578779E-17	1.227895E-17
3.780000E+03	8.903147E-17	1.256535E-17
3.790000E+03	9.237576E-17	1.285293E-17
3.800000E+03	9.582970E-17	1.314236E-17
3.810000E+03	9.938411E-17	1.343181E-17
3.820000E+03	1.030478E-16	1.372189E-17
3.830000E+03	1.068154E-16	1.401135E-17
3.840000E+03	1.106860E-16	1.429952E-17
3.850000E+03	1.146632E-16	1.458636E-17
3.860000E+03	1.187404E-16	1.487054E-17
3.870000E+03	1.229208E-16	1.515200E-17
3.880000E+03	1.271969E-16	1.542941E-17
3.890000E+03	1.315713E-16	1.570270E-17
3.900000E+03	1.360411E-16	1.597119E-17
3.910000E+03	1.405975E-16	1.623356E-17
3.920000E+03	1.452422E-16	1.648977E-17
3.930000E+03	1.499657E-16	1.673858E-17
3.940000E+03	1.547690E-16	1.697998E-17
3.950000E+03	1.596472E-16	1.721339E-17
3.960000E+03	1.645955E-16	1.743829E-17
3.970000E+03	1.696027E-16	1.765356E-17
3.980000E+03	1.746633E-16	1.785880E-17
3.990000E+03	1.797770E-16	1.805422E-17
4.000000E+03	1.849379E-16	1.823948E-17
4.010000E+03	1.901283E-16	1.841318E-17
4.020000E+03	1.953537E-16	1.857630E-17
4.030000E+03	2.006020E-16	1.872816E-17
4.040000E+03	2.058611E-16	1.886815E-17
4.050000E+03	2.111311E-16	1.899690E-17
4.060000E+03	2.164063E-16	1.911449E-17
4.070000E+03	2.216812E-16	1.922110E-17
4.080000E+03	2.269384E-16	1.931593E-17
4.090000E+03	2.321792E-16	1.939983E-17
4.100000E+03	2.373994E-16	1.947318E-17
4.110000E+03	2.425888E-16	1.953591E-17
4.120000E+03	2.477502E-16	1.958902E-17
4.130000E+03	2.528684E-16	1.963204E-17
4.140000E+03	2.579472E-16	1.966606E-17
4.150000E+03	2.629788E-16	1.969120E-17
4.160000E+03	2.679618E-16	1.970812E-17
4.170000E+03	2.728896E-16	1.971701E-17
4.180000E+03	2.777685E-16	1.971900E-17
4.190000E+03	2.825865E-16	1.971389E-17
4.200000E+03	2.873450E-16	1.970239E-17
4.210000E+03	2.920458E-16	1.968519E-17
4.220000E+03	2.966852E-16	1.966254E-17
4.230000E+03	3.012725E-16	1.963554E-17
4.240000E+03	3.057927E-16	1.960362E-17
4.250000E+03	3.102561E-16	1.956783E-17
4.260000E+03	3.146674E-16	1.952879E-17
4.270000E+03	3.190133E-16	1.948596E-17
4.280000E+03	3.233115E-16	1.944069E-17
4.290000E+03	3.275617E-16	1.939317E-17
4.300000E+03	3.317579E-16	1.934321E-17
4.310000E+03	3.359063E-16	1.929137E-17
4.320000E+03	3.400135E-16	1.923817E-17
4.330000E+03	3.440799E-16	1.918377E-17
4.340000E+03	3.480998E-16	1.912798E-17
4.350000E+03	3.520860E-16	1.907162E-17
4.360000E+03	3.560385E-16	1.901481E-17
4.370000E+03	3.599575E-16	1.895764E-17
4.380000E+03	3.638430E-16	1.890020E-17
4.390000E+03	3.676944E-16	1.884251E-17
4.400000E+03	3.715169E-16	1.878487E-17
4.410000E+03	3.753152E-16	1.872750E-17
4.420000E+03	3.790817E-16	1.866993E-17
4.430000E+03	3.828141E-16	1.861195E-17
4.440000E+03	3.865213E-16	1.855378E-17
4.450000E+03	3.901941E-16	1.849469E-17
4.460000E+03	3.938400E-16	1.843467E-17
4.470000E+03	3.974484E-16	1.837275E-17
4.480000E+03	4.010254E-16	1.830865E-17
4.490000E+03	4.045647E-16	1.824140E-17
4.500000E+03	4.080768E-16	1.817071E-17
4.510000E+03	4.115424E-16	1.809482E-17
4.520000E+03	4.149703E-16	1.801316E-17
4.530000E+03	4.183573E-16	1.792452E-17
4.540000E+03	4.216937E-16	1.782734E-17
4.550000E+03	4.249809E-16	1.772046E-17
4.560000E+03	4.282138E-16	1.760238E-17
4.570000E+03	4.313872E-16	1.747156E-17
4.580000E+03	4.344894E-16	1.732615E-17
4.590000E+03	4.375263E-16	1.716499E-17
4.600000E+03	4.404857E-16	1.698619E-17
4.610000E+03	4.433616E-16	1.678811E-17
4.620000E+03	4.461478E-16	1.656911E-17
4.630000E+03	4.488437E-16	1.632784E-17
4.640000E+03	4.514435E-16	1.606276E-17
4.650000E+03	4.539355E-16	1.577226E-17
4.660000E+03	4.563200E-16	1.545525E-17
4.670000E+03	4.585859E-16	1.511041E-17
4.680000E+03	4.607341E-16	1.473702E-17
4.690000E+03	4.627603E-16	1.433443E-17
4.700000E+03	4.646545E-16	1.390214E-17
4.710000E+03	4.664132E-16	1.344026E-17
4.720000E+03	4.680333E-16	1.294938E-17
4.730000E+03	4.695064E-16	1.243060E-17
4.740000E+03	4.708360E-16	1.188612E-17
4.750000E+03	4.720148E-16	1.131882E-17
4.760000E+03	4.730303E-16	1.073277E-17
4.770000E+03	4.738932E-16	1.013422E-17
4.780000E+03	4.745921E-16	9.530989E-18
4.790000E+03	4.751333E-16	8.933974E-18
4.800000E+03	4.755237E-16	8.357395E-18
4.810000E+03	4.757652E-16	7.819377E-18
4.820000E+03	4.758664E-16	7.342472E-18
4.830000E+03	4.758368E-16	6.952914E-18
4.840000E+03	4.756925E-16	6.678193E-18
4.850000E+03	4.754339E-16	6.541643E-18
4.860000E+03	4.750725E-16	6.555701E-18
4.870000E+03	4.746240E-16	6.716096E-18
4.880000E+03	4.740864E-16	7.003127E-18
4.890000E+03	4.734692E-16	7.389265E-18
4.900000E+03	4.727826E-16	7.845795E-18
4.910000E+03	4.720328E-16	8.346827E-18
4.920000E+03	4.712267E-16	8.870974E-18
4.930000E+03	4.703825E-16	9.401636E-18
4.940000E+03	4.695030E-16	9.925912E-18
4.950000E+03	4.685968E-16	1.043422E-17
4.960000E+03	4.676779E-16	1.091966E-17
4.970000E+03	4.667550E-16	1.137718E-17
4.980000E+03	4.658370E-16	1.180328E-17
4.990000E+03	4.649431E-16	1.219591E-17
5.000000E+03	4.640664E-16	1.255334E-17
5.010000E+03	4.632311E-16	1.287540E-17
5.020000E+03	4.624404E-16	1.316201E-17
5.030000E+03	4.617025E-16	1.341374E-17
5.040000E+03	4.610257E-16	1.363159E-17
5.050000E+03	4.604229E-16	1.381707E-17
5.060000E+03	4.598967E-16	1.397169E-17
5.070000E+03	4.594595E-16	1.409750E-17
5.080000E+03	4.591132E-16	1.419645E-17
5.090000E+03	4.588744E-16	1.427110E-17
5.100000E+03	4.587391E-16	1.432351E-17
5.110000E+03	4.587175E-16	1.435624E-17
5.120000E+03	4.588142E-16	1.437173E-17
5.130000E+03	4.590327E-16	1.437242E-17
5.140000E+03	4.593806E-16	1.436080E-17
5.150000E+03	4.598494E-16	1.433887E-17
5.160000E+03	4.604440E-16	1.430892E-17
5.170000E+03	4.611683E-16	1.427313E-17
5.180000E+03	4.620097E-16	1.423305E-17
5.190000E+03	4.629739E-16	1.419068E-17
5.200000E+03	4.640454E-16	1.414720E-17
5.210000E+03	4.652269E-16	1.410426E-17
5.220000E+03	4.665047E-16	1.406282E-17
5.230000E+03	4.678688E-16	1.402384E-17
5.240000E+03	4.693075E-16	1.398809E-17
5.250000E+03	4.708127E-16	1.395633E-17
5.260000E+03	4.723604E-16	1.392870E-17
5.270000E+03	4.739401E-16	1.390562E-17
5.280000E+03	4.755356E-16	1.388722E-17
5.290000E+03	4.771295E-16	1.387350E-17
5.300000E+03	4.787042E-16	1.386432E-17
5.310000E+03	4.802362E-16	1.385929E-17
5.320000E+03	4.817171E-16	1.385833E-17
5.330000E+03	4.831183E-16	1.386072E-17
5.340000E+03	4.844264E-16	1.386608E-17
5.350000E+03	4.856185E-16	1.387369E-17
5.360000E+03	4.866824E-16	1.388309E-17
5.370000E+03	4.875965E-16	1.389349E-17
5.380000E+03	4.883508E-16	1.390440E-17
5.390000E+03	4.889314E-16	1.391518E-17
5.400000E+03	4.893160E-16	1.392496E-17
5.410000E+03	4.895041E-16	1.393343E-17
5.420000E+03	4.894822E-16	1.393992E-17
5.430000E+03	4.892438E-16	1.394394E-17
5.440000E+03	4.887848E-16	1.394505E-17
5.450000E+03	4.881088E-16	1.394304E-17
5.460000E+03	4.872070E-16	1.393736E-17
5.470000E+03	4.860888E-16	1.392796E-17
5.480000E+03	4.847661E-16	1.391493E-17
5.490000E+03	4.832394E-16	1.389800E-17
5.500000E+03	4.815269E-16	1.387744E-17
5.510000E+03	4.796399E-16	1.385335E-17
5.520000E+03	4.775975E-16	1.382606E-17
5.530000E+03	4.754168E-16	1.379584E-17
5.540000E+03	4.731315E-16	1.376347E-17
5.550000E+03	4.707677E-16	1.372953E-17
5.560000E+03	4.683583E-16	1.369477E-17
5.570000E+03	4.659282E-16	1.365971E-17
5.580000E+03	4.635082E-16	1.362505E-17
5.590000E+03	4.611344E-16	1.359160E-17
5.600000E+03	4.588293E-16	1.355976E-17
5.610000E+03	4.566384E-16	1.353058E-17
5.620000E+03	4.545791E-16	1.350421E-17
5.630000E+03	4.526862E-16	1.348132E-17
5.640000E+03	4.509929E-16	1.346246E-17
5.650000E+03	4.495177E-16	1.344769E-17
5.660000E+03	4.482944E-16	1.343752E-17
5.670000E+03	4.473371E-16	1.343182E-17
5.680000E+03	4.466702E-16	1.343074E-17
5.690000E+03	4.463113E-16	1.343421E-17
5.700000E+03	4.462744E-16	1.344204E-17
5.710000E+03	4.465660E-16	1.345381E-17
5.720000E+03	4.471936E-16	1.346916E-17
5.730000E+03	4.481650E-16	1.348774E-17
5.740000E+03	4.494757E-16	1.350889E-17
5.750000E+03	4.511254E-16	1.353211E-17
5.760000E+03	4.530967E-16	1.355645E-17
5.770000E+03	4.553851E-16	1.358143E-17
5.780000E+03	4.579643E-16	1.360601E-17
5.790000E+03	4.608165E-16	1.362949E-17
5.800000E+03	4.639150E-16	1.365102E-17
5.810000E+03	4.672196E-16	1.366949E-17
5.820000E+03	4.707089E-16	1.368443E-17
5.830000E+03	4.743300E-16	1.369460E-17
5.840000E+03	4.780451E-16	1.369928E-17
5.850000E+03	4.818088E-16	1.369768E-17
5.860000E+03	4.855691E-16	1.368884E-17
5.870000E+03	4.892819E-16	1.367211E-17
5.880000E+03	4.928979E-16	1.364671E-17
5.890000E+03	4.963590E-16	1.361161E-17
5.900000E+03	4.996229E-16	1.356614E-17
5.910000E+03	5.026453E-16	1.350950E-17
5.920000E+03	5.053857E-16	1.344090E-17
5.930000E+03	5.078035E-16	1.335935E-17
5.940000E+03	5.098734E-16	1.326415E-17
5.950000E+03	5.115672E-16	1.315433E-17
5.960000E+03	5.128634E-16	1.302891E-17
5.970000E+03	5.137631E-16	1.288732E-17
5.980000E+03	5.142552E-16	1.272855E-17
5.990000E+03	5.143513E-16	1.255200E-17
6.000000E+03	5.140653E-16	1.235706E-17
6.010000E+03	5.134133E-16	1.214309E-17
6.020000E+03	5.124272E-16	1.190986E-17
6.030000E+03	5.111346E-16	1.165704E-17
6.040000E+03	5.095722E-16	1.138466E-17
6.050000E+03	5.077847E-16	1.109307E-17
6.060000E+03	5.058093E-16	1.078273E-17
6.070000E+03	5.036884E-16	1.045456E-17
6.080000E+03	5.014694E-16	1.011004E-17
6.090000E+03	4.991931E-16	9.751117E-18
6.100000E+03	4.968933E-16	9.380379E-18
6.110000E+03	4.946103E-16	9.001540E-18
6.120000E+03	4.923708E-16	8.619311E-18
6.130000E+03	4.902118E-16	8.240120E-18
6.140000E+03	4.881461E-16	7.871808E-18
6.150000E+03	4.862009E-16	7.524522E-18
6.160000E+03	4.843837E-16	7.210200E-18
6.170000E+03	4.827064E-16	6.942620E-18
6.180000E+03	4.811663E-16	6.736122E-18
6.190000E+03	4.797649E-16	6.603983E-18
6.200000E+03	4.784890E-16	6.555169E-18
6.210000E+03	4.773244E-16	6.590913E-18
6.220000E+03	4.762562E-16	6.703699E-18
6.230000E+03	4.752559E-16	6.880149E-18
6.240000E+03	4.742970E-16	7.104735E-18
6.250000E+03	4.733559E-16	7.362207E-18
6.260000E+03	4.723989E-16	7.638778E-18
6.270000E+03	4.713971E-16	7.922940E-18
6.280000E+03	4.703274E-16	8.205570E-18
6.290000E+03	4.691592E-16	8.479529E-18
6.300000E+03	4.678741E-16	8.739696E-18
6.310000E+03	4.664477E-16	8.982347E-18
6.320000E+03	4.648737E-16	9.205314E-18
6.330000E+03	4.631359E-16	9.407223E-18
6.340000E+03	4.612277E-16	9.587644E-18
6.350000E+03	4.591515E-16	9.746944E-18
6.360000E+03	4.569096E-16	9.885960E-18
6.370000E+03	4.545085E-16	1.000597E-17
6.380000E+03	4.519631E-16	1.010870E-17
6.390000E+03	4.492778E-16	1.019581E-17
6.400000E+03	4.464826E-16	1.026967E-17
6.410000E+03	4.435868E-16	1.033219E-17
6.420000E+03	4.406191E-16	1.038572E-17
6.430000E+03	4.375911E-16	1.043213E-17
6.440000E+03	4.345281E-16	1.047346E-17
6.450000E+03	4.314459E-16	1.051136E-17
6.460000E+03	4.283640E-16	1.054734E-17
6.470000E+03	4.252962E-16	1.058249E-17
6.480000E+03	4.222544E-16	1.061757E-17
6.490000E+03	4.192486E-16	1.065299E-17
6.500000E+03	4.162907E-16	1.068890E-17
6.510000E+03	4.133944E-16	1.072516E-17
6.520000E+03	4.105706E-16	1.076130E-17
6.530000E+03	4.078357E-16	1.079671E-17
6.540000E+03	4.051948E-16	1.083024E-17
6.550000E+03	4.026414E-16	1.086026E-17
6.560000E+03	4.001839E-16	1.088535E-17
6.570000E+03	3.978110E-16	1.090351E-17
6.580000E+03	3.955180E-16	1.091283E-17
6.590000E+03	3.932989E-16	1.091140E-17
6.600000E+03	3.911418E-16	1.089722E-17
6.610000E+03	3.890344E-16	1.086839E-17
6.620000E+03	3.869640E-16	1.082316E-17
6.630000E+03	3.849222E-16	1.076006E-17
6.640000E+03	3.828926E-16	1.067765E-17
6.650000E+03	3.808722E-16	1.057507E-17
6.660000E+03	3.788423E-16	1.045126E-17
6.670000E+03	3.768023E-16	1.030593E-17
6.680000E+03	3.747406E-16	1.013873E-17
6.690000E+03	3.726514E-16	9.949731E-18
6.700000E+03	3.705309E-16	9.739319E-18
6.710000E+03	3.683852E-16	9.508430E-18
6.720000E+03	3.662062E-16	9.257913E-18
6.730000E+03	3.639958E-16	8.989211E-18
6.740000E+03	3.617663E-16	8.704373E-18
6.750000E+03	3.595156E-16	8.405496E-18
6.760000E+03	3.572556E-16	8.095489E-18
6.770000E+03	3.549964E-16	7.777742E-18
6.780000E+03	3.527493E-16	7.456312E-18
6.790000E+03	3.505277E-16	7.136017E-18
6.800000E+03	3.483459E-16	6.822525E-18
6.810000E+03	3.462195E-16	6.522412E-18
6.820000E+03	3.441649E-16	6.243156E-18
6.830000E+03	3.422027E-16	5.993049E-18
6.840000E+03	3.403420E-16	5.780542E-18
6.850000E+03	3.386070E-16	5.614034E-18
6.860000E+03	3.370054E-16	5.500259E-18
6.870000E+03	3.355589E-16	5.443335E-18
6.880000E+03	3.342747E-16	5.442682E-18
6.890000E+03	3.331605E-16	5.493129E-18
6.900000E+03	3.322257E-16	5.586648E-18
6.910000E+03	3.314658E-16	5.713823E-18
6.920000E+03	3.308901E-16	5.865548E-18
6.930000E+03	3.304909E-16	6.033266E-18
6.940000E+03	3.302741E-16	6.209914E-18
6.950000E+03	3.302288E-16	6.389474E-18
6.960000E+03	3.303581E-16	6.567502E-18
6.970000E+03	3.306483E-16	6.740402E-18
6.980000E+03	3.311005E-16	6.905874E-18
6.990000E+03	3.316989E-16	7.062122E-18
7.000000E+03	3.324351E-16	7.208175E-18
7.010000E+03	3.333082E-16	7.343778E-18
7.020000E+03	3.343013E-16	7.468756E-18
7.030000E+03	3.354054E-16	7.583428E-18
7.040000E+03	3.366158E-16	7.688446E-18
7.050000E+03	3.379204E-16	7.784450E-18
7.060000E+03	3.393157E-16	7.872375E-18
7.070000E+03	3.407866E-16	7.952924E-18
7.080000E+03	3.423353E-16	8.027196E-18
7.090000E+03	3.439478E-16	8.095884E-18
7.100000E+03	3.456233E-16	8.159915E-18
7.110000E+03	3.473569E-16	8.220046E-18
7.120000E+03	3.491440E-16	8.276942E-18
7.130000E+03	3.509709E-16	8.330958E-18
7.140000E+03	3.528405E-16	8.382734E-18
7.150000E+03	3.547417E-16	8.432495E-18
7.160000E+03	3.566669E-16	8.480447E-18
7.170000E+03	3.586065E-16	8.526687E-18
7.180000E+03	3.605451E-16	8.571107E-18
7.190000E+03	3.624742E-16	8.613727E-18
7.200000E+03	3.643745E-16	8.654288E-18
7.210000E+03	3.662291E-16	8.692591E-18
7.220000E+03	3.680192E-16	8.728412E-18
7.230000E+03	3.697292E-16	8.761629E-18
7.240000E+03	3.713235E-16	8.791699E-18
7.250000E+03	3.727928E-16	8.818746E-18
7.260000E+03	3.741046E-16	8.842385E-18
7.270000E+03	3.752350E-16	8.862468E-18
7.280000E+03	3.761604E-16	8.878864E-18
7.290000E+03	3.768632E-16	8.891549E-18
7.300000E+03	3.773129E-16	8.900143E-18
7.310000E+03	3.774954E-16	8.904533E-18
7.320000E+03	3.773948E-16	8.904406E-18
7.330000E+03	3.769981E-16	8.899327E-18
7.340000E+03	3.762918E-16	8.888600E-18
7.350000E+03	3.752756E-16	8.871582E-18
7.360000E+03	3.739444E-16	8.847240E-18
7.370000E+03	3.723068E-16	8.814596E-18
7.380000E+03	3.703665E-16	8.772305E-18
7.390000E+03	3.681406E-16	8.719130E-18
7.400000E+03	3.656407E-16	8.653540E-18
7.410000E+03	3.628912E-16	8.574188E-18
7.420000E+03	3.599097E-16	8.479523E-18
7.430000E+03	3.567210E-16	8.368160E-18
7.440000E+03	3.533554E-16	8.238914E-18
7.450000E+03	3.498309E-16	8.090416E-18
7.460000E+03	3.461881E-16	7.921982E-18
7.470000E+03	3.424404E-16	7.732507E-18
7.480000E+03	3.386226E-16	7.521619E-18
7.490000E+03	3.347507E-16	7.288811E-18
7.500000E+03	3.308565E-16	7.034256E-18
7.510000E+03	3.269569E-16	6.758184E-18
7.520000E+03	3.230710E-16	6.461330E-18
7.530000E+03	3.192159E-16	6.144929E-18
7.540000E+03	3.154021E-16	5.810763E-18
7.550000E+03	3.116501E-16	5.461652E-18
7.560000E+03	3.079619E-16	5.101186E-18
7.570000E+03	3.043531E-16	4.734688E-18
7.580000E+03	3.008215E-16	4.369204E-18
7.590000E+03	2.973746E-16	4.014676E-18
7.600000E+03	2.940104E-16	3.684490E-18
7.610000E+03	2.907368E-16	3.396401E-18
7.620000E+03	2.875493E-16	3.171900E-18
7.630000E+03	2.844428E-16	3.033495E-18
7.640000E+03	2.814238E-16	2.998238E-18
7.650000E+03	2.784877E-16	3.069423E-18
7.660000E+03	2.756310E-16	3.234820E-18
7.670000E+03	2.728615E-16	3.473485E-18
7.680000E+03	2.701761E-16	3.763343E-18
7.690000E+03	2.675791E-16	4.085791E-18
7.700000E+03	2.650635E-16	4.426612E-18
7.710000E+03	2.626362E-16	4.775889E-18
7.720000E+03	2.602964E-16	5.126785E-18
7.730000E+03	2.580395E-16	5.474717E-18
7.740000E+03	2.558637E-16	5.816825E-18
7.750000E+03	2.537706E-16	6.151516E-18
7.760000E+03	2.517578E-16	6.477979E-18
