#wls	flux	fluxerr
1.600000E+03	4.477037E-18	2.972124E-18
1.640000E+03	4.412560E-18	2.896670E-18
1.680000E+03	4.354170E-18	2.825296E-18
1.720000E+03	4.299393E-18	2.756303E-18
1.760000E+03	4.250684E-18	2.691184E-18
1.800000E+03	4.208028E-18	2.629807E-18
1.840000E+03	4.170643E-18	2.571563E-18
1.880000E+03	4.139349E-18	2.516835E-18
1.920000E+03	4.114962E-18	2.465973E-18
1.960000E+03	4.097530E-18	2.418838E-18
2.000000E+03	4.087895E-18	2.375742E-18
2.040000E+03	4.086157E-18	2.336538E-18
2.080000E+03	4.092460E-18	2.301090E-18
2.120000E+03	4.108490E-18	2.270103E-18
2.160000E+03	4.133725E-18	2.243010E-18
2.200000E+03	4.169207E-18	2.220088E-18
2.240000E+03	4.214547E-18	2.200818E-18
2.280000E+03	4.271677E-18	2.185877E-18
2.320000E+03	4.339624E-18	2.174397E-18
2.360000E+03	4.419755E-18	2.166693E-18
2.400000E+03	4.512799E-18	2.162709E-18
2.440000E+03	4.618845E-18	2.162053E-18
2.480000E+03	4.739639E-18	2.165080E-18
2.520000E+03	4.875549E-18	2.171453E-18
2.560000E+03	5.027884E-18	2.181227E-18
2.600000E+03	5.198154E-18	2.194480E-18
2.640000E+03	5.388108E-18	2.211328E-18
2.680000E+03	5.599771E-18	2.231922E-18
2.720000E+03	5.835492E-18	2.256457E-18
2.760000E+03	6.098001E-18	2.285179E-18
2.800000E+03	6.389582E-18	2.318070E-18
2.840000E+03	6.714781E-18	2.355834E-18
2.880000E+03	7.076016E-18	2.398281E-18
2.920000E+03	7.480102E-18	2.446608E-18
2.960000E+03	7.933941E-18	2.501791E-18
3.000000E+03	8.445607E-18	2.564934E-18
3.010000E+03	8.582971E-18	2.581908E-18
3.020000E+03	8.726223E-18	2.599937E-18
3.030000E+03	8.873373E-18	2.618393E-18
3.040000E+03	9.025668E-18	2.637616E-18
3.050000E+03	9.183288E-18	2.657625E-18
3.060000E+03	9.345288E-18	2.678116E-18
3.070000E+03	9.514120E-18	2.699759E-18
3.080000E+03	9.687705E-18	2.721923E-18
3.090000E+03	9.868567E-18	2.745284E-18
3.100000E+03	1.005578E-17	2.769540E-18
3.110000E+03	1.024837E-17	2.794385E-18
3.120000E+03	1.044896E-17	2.820503E-18
3.130000E+03	1.065663E-17	2.847591E-18
3.140000E+03	1.087288E-17	2.876007E-18
3.150000E+03	1.109677E-17	2.905452E-18
3.160000E+03	1.132857E-17	2.935955E-18
3.170000E+03	1.156989E-17	2.967879E-18
3.180000E+03	1.181977E-17	3.000926E-18
3.190000E+03	1.208119E-17	3.035802E-18
3.200000E+03	1.235190E-17	3.071872E-18
3.210000E+03	1.263361E-17	3.109510E-18
3.220000E+03	1.292675E-17	3.148757E-18
3.230000E+03	1.323175E-17	3.189655E-18
3.240000E+03	1.354907E-17	3.232246E-18
3.250000E+03	1.387918E-17	3.276576E-18
3.260000E+03	1.422406E-17	3.323039E-18
3.270000E+03	1.458430E-17	3.371687E-18
3.280000E+03	1.495895E-17	3.422221E-18
3.290000E+03	1.535014E-17	3.475046E-18
3.300000E+03	1.575850E-17	3.530219E-18
3.310000E+03	1.618471E-17	3.587796E-18
3.320000E+03	1.662947E-17	3.647838E-18
3.330000E+03	1.709518E-17	3.710770E-18
3.340000E+03	1.758096E-17	3.776293E-18
3.350000E+03	1.808934E-17	3.844838E-18
3.360000E+03	1.862119E-17	3.916477E-18
3.370000E+03	1.917564E-17	3.990905E-18
3.380000E+03	1.975722E-17	4.068943E-18
3.390000E+03	2.036515E-17	4.150290E-18
3.400000E+03	2.100235E-17	4.235404E-18
3.410000E+03	2.166997E-17	4.324366E-18
3.420000E+03	2.236721E-17	4.416863E-18
3.430000E+03	2.309925E-17	4.513758E-18
3.440000E+03	2.386331E-17	4.614341E-18
3.450000E+03	2.466479E-17	4.719483E-18
3.460000E+03	2.550513E-17	4.829271E-18
3.470000E+03	2.638581E-17	4.943787E-18
3.480000E+03	2.730836E-17	5.063111E-18
3.490000E+03	2.827433E-17	5.187318E-18
3.500000E+03	2.928762E-17	5.316902E-18
3.510000E+03	3.034763E-17	5.451512E-18
3.520000E+03	3.145841E-17	5.591641E-18
3.530000E+03	3.262179E-17	5.737350E-18
3.540000E+03	3.383961E-17	5.888695E-18
3.550000E+03	3.511372E-17	6.045723E-18
3.560000E+03	3.644864E-17	6.208919E-18
3.570000E+03	3.784644E-17	6.378319E-18
3.580000E+03	3.930917E-17	6.553949E-18
3.590000E+03	4.083611E-17	6.735356E-18
3.600000E+03	4.243488E-17	6.923456E-18
3.610000E+03	4.410480E-17	7.117769E-18
3.620000E+03	4.585091E-17	7.318732E-18
3.630000E+03	4.767237E-17	7.525817E-18
3.640000E+03	4.957428E-17	7.739429E-18
3.650000E+03	5.155879E-17	7.959478E-18
3.660000E+03	5.362475E-17	8.185357E-18
3.670000E+03	5.578060E-17	8.417911E-18
3.680000E+03	5.802514E-17	8.656484E-18
3.690000E+03	6.036024E-17	8.900885E-18
3.700000E+03	6.278767E-17	9.150890E-18
3.710000E+03	6.531269E-17	9.406767E-18
3.720000E+03	6.793340E-17	9.667725E-18
3.730000E+03	7.065121E-17	9.933453E-18
3.740000E+03	7.347496E-17	1.020466E-17
3.750000E+03	7.639456E-17	1.047941E-17
3.760000E+03	7.942252E-17	1.075887E-17
3.770000E+03	8.254795E-17	1.104104E-17
3.780000E+03	8.578338E-17	1.132704E-17
3.790000E+03	8.912122E-17	1.161532E-17
3.800000E+03	9.256149E-17	1.190536E-17
3.810000E+03	9.611258E-17	1.219770E-17
3.820000E+03	9.976132E-17	1.249015E-17
3.830000E+03	1.035201E-16	1.278375E-17
3.840000E+03	1.073747E-16	1.307626E-17
3.850000E+03	1.113374E-16	1.336869E-17
3.860000E+03	1.153930E-16	1.365878E-17
3.870000E+03	1.195488E-16	1.394698E-17
3.880000E+03	1.237979E-16	1.423210E-17
3.890000E+03	1.281378E-16	1.451350E-17
3.900000E+03	1.325606E-16	1.479000E-17
3.910000E+03	1.370731E-16	1.506207E-17
3.920000E+03	1.416667E-16	1.532857E-17
3.930000E+03	1.463327E-16	1.558836E-17
3.940000E+03	1.510666E-16	1.584090E-17
3.950000E+03	1.558694E-16	1.608622E-17
3.960000E+03	1.607310E-16	1.632330E-17
3.970000E+03	1.656464E-16	1.655170E-17
3.980000E+03	1.706051E-16	1.677052E-17
3.990000E+03	1.756123E-16	1.698048E-17
4.000000E+03	1.806460E-16	1.717974E-17
4.010000E+03	1.857115E-16	1.736914E-17
4.020000E+03	1.907974E-16	1.754801E-17
4.030000E+03	1.958922E-16	1.771577E-17
4.040000E+03	2.009957E-16	1.787293E-17
4.050000E+03	2.060970E-16	1.801907E-17
4.060000E+03	2.111965E-16	1.815481E-17
4.070000E+03	2.162778E-16	1.827938E-17
4.080000E+03	2.213364E-16	1.839306E-17
4.090000E+03	2.263742E-16	1.849667E-17
4.100000E+03	2.313819E-16	1.859012E-17
4.110000E+03	2.363569E-16	1.867385E-17
4.120000E+03	2.412910E-16	1.874787E-17
4.130000E+03	2.461886E-16	1.881317E-17
4.140000E+03	2.510370E-16	1.886938E-17
4.150000E+03	2.558415E-16	1.891754E-17
4.160000E+03	2.605962E-16	1.895779E-17
4.170000E+03	2.653074E-16	1.899116E-17
4.180000E+03	2.699639E-16	1.901743E-17
4.190000E+03	2.745731E-16	1.903763E-17
4.200000E+03	2.791307E-16	1.905196E-17
4.210000E+03	2.836392E-16	1.906105E-17
4.220000E+03	2.881015E-16	1.906551E-17
4.230000E+03	2.925155E-16	1.906551E-17
4.240000E+03	2.968855E-16	1.906164E-17
4.250000E+03	3.012164E-16	1.905446E-17
4.260000E+03	3.055134E-16	1.904449E-17
4.270000E+03	3.097760E-16	1.903187E-17
4.280000E+03	3.140043E-16	1.901671E-17
4.290000E+03	3.182165E-16	1.900023E-17
4.300000E+03	3.224066E-16	1.898215E-17
4.310000E+03	3.265749E-16	1.896253E-17
4.320000E+03	3.307392E-16	1.894250E-17
4.330000E+03	3.348934E-16	1.892174E-17
4.340000E+03	3.390489E-16	1.890097E-17
4.350000E+03	3.431985E-16	1.887986E-17
4.360000E+03	3.473529E-16	1.885907E-17
4.370000E+03	3.515162E-16	1.883892E-17
4.380000E+03	3.556860E-16	1.881934E-17
4.390000E+03	3.598657E-16	1.880055E-17
4.400000E+03	3.640582E-16	1.878271E-17
4.410000E+03	3.682601E-16	1.876556E-17
4.420000E+03	3.724797E-16	1.874942E-17
4.430000E+03	3.767195E-16	1.873413E-17
4.440000E+03	3.809755E-16	1.871918E-17
4.450000E+03	3.852493E-16	1.870420E-17
4.460000E+03	3.895482E-16	1.868902E-17
4.470000E+03	3.938611E-16	1.867246E-17
4.480000E+03	3.981878E-16	1.865376E-17
4.490000E+03	4.025337E-16	1.863233E-17
4.500000E+03	4.068914E-16	1.860683E-17
4.510000E+03	4.112521E-16	1.857582E-17
4.520000E+03	4.156125E-16	1.853800E-17
4.530000E+03	4.199683E-16	1.849198E-17
4.540000E+03	4.243141E-16	1.843630E-17
4.550000E+03	4.286380E-16	1.836917E-17
4.560000E+03	4.329394E-16	1.828926E-17
4.570000E+03	4.372051E-16	1.819470E-17
4.580000E+03	4.414214E-16	1.808356E-17
4.590000E+03	4.455864E-16	1.795442E-17
4.600000E+03	4.496916E-16	1.780560E-17
4.610000E+03	4.537224E-16	1.763523E-17
4.620000E+03	4.576697E-16	1.744174E-17
4.630000E+03	4.615183E-16	1.722337E-17
4.640000E+03	4.652654E-16	1.697890E-17
4.650000E+03	4.689023E-16	1.670696E-17
4.660000E+03	4.724144E-16	1.640609E-17
4.670000E+03	4.757940E-16	1.607521E-17
4.680000E+03	4.790336E-16	1.571347E-17
4.690000E+03	4.821266E-16	1.532028E-17
4.700000E+03	4.850673E-16	1.489539E-17
4.710000E+03	4.878444E-16	1.443880E-17
4.720000E+03	4.904590E-16	1.395146E-17
4.730000E+03	4.929008E-16	1.343466E-17
4.740000E+03	4.951716E-16	1.289089E-17
4.750000E+03	4.972612E-16	1.232340E-17
4.760000E+03	4.991657E-16	1.173691E-17
4.770000E+03	5.008811E-16	1.113784E-17
4.780000E+03	5.023980E-16	1.053457E-17
4.790000E+03	5.037194E-16	9.938361E-18
4.800000E+03	5.048488E-16	9.363635E-18
4.810000E+03	5.057781E-16	8.828219E-18
4.820000E+03	5.065177E-16	8.354011E-18
4.830000E+03	5.070547E-16	7.965450E-18
4.840000E+03	5.074008E-16	7.688011E-18
4.850000E+03	5.075566E-16	7.543416E-18
4.860000E+03	5.075186E-16	7.544239E-18
4.870000E+03	5.073017E-16	7.686782E-18
4.880000E+03	5.069195E-16	7.952834E-18
4.890000E+03	5.063866E-16	8.317197E-18
4.900000E+03	5.057185E-16	8.752924E-18
4.910000E+03	5.049367E-16	9.235076E-18
4.920000E+03	5.040567E-16	9.742314E-18
4.930000E+03	5.030938E-16	1.025740E-17
4.940000E+03	5.020632E-16	1.076689E-17
4.950000E+03	5.009848E-16	1.126064E-17
4.960000E+03	4.998722E-16	1.173101E-17
4.970000E+03	4.987379E-16	1.217238E-17
4.980000E+03	4.975991E-16	1.258089E-17
4.990000E+03	4.964610E-16	1.295371E-17
5.000000E+03	4.953389E-16	1.328932E-17
5.010000E+03	4.942475E-16	1.358709E-17
5.020000E+03	4.931849E-16	1.384665E-17
5.030000E+03	4.921764E-16	1.406902E-17
5.040000E+03	4.912200E-16	1.425499E-17
5.050000E+03	4.903304E-16	1.440632E-17
5.060000E+03	4.895217E-16	1.452518E-17
5.070000E+03	4.887978E-16	1.461383E-17
5.080000E+03	4.881675E-16	1.467503E-17
5.090000E+03	4.876451E-16	1.471200E-17
5.100000E+03	4.872392E-16	1.472802E-17
5.110000E+03	4.869586E-16	1.472644E-17
5.120000E+03	4.868120E-16	1.471061E-17
5.130000E+03	4.868126E-16	1.468395E-17
5.140000E+03	4.869560E-16	1.464921E-17
5.150000E+03	4.872610E-16	1.460962E-17
5.160000E+03	4.877127E-16	1.456714E-17
5.170000E+03	4.883202E-16	1.452408E-17
5.180000E+03	4.890805E-16	1.448197E-17
5.190000E+03	4.899889E-16	1.444193E-17
5.200000E+03	4.910335E-16	1.440467E-17
5.210000E+03	4.922109E-16	1.437098E-17
5.220000E+03	4.935103E-16	1.434135E-17
5.230000E+03	4.949137E-16	1.431588E-17
5.240000E+03	4.964161E-16	1.429492E-17
5.250000E+03	4.979949E-16	1.427821E-17
5.260000E+03	4.996260E-16	1.426536E-17
5.270000E+03	5.012991E-16	1.425631E-17
5.280000E+03	5.029821E-16	1.425036E-17
5.290000E+03	5.046579E-16	1.424721E-17
5.300000E+03	5.063089E-16	1.424647E-17
5.310000E+03	5.079019E-16	1.424730E-17
5.320000E+03	5.094198E-16	1.424921E-17
5.330000E+03	5.108410E-16	1.425143E-17
5.340000E+03	5.121502E-16	1.425334E-17
5.350000E+03	5.133169E-16	1.425395E-17
5.360000E+03	5.143281E-16	1.425285E-17
5.370000E+03	5.151664E-16	1.424959E-17
5.380000E+03	5.158161E-16	1.424379E-17
5.390000E+03	5.162632E-16	1.423512E-17
5.400000E+03	5.164956E-16	1.422332E-17
5.410000E+03	5.164976E-16	1.420823E-17
5.420000E+03	5.162717E-16	1.419033E-17
5.430000E+03	5.158010E-16	1.416973E-17
5.440000E+03	5.150924E-16	1.414729E-17
5.450000E+03	5.141351E-16	1.412332E-17
5.460000E+03	5.129419E-16	1.409875E-17
5.470000E+03	5.115087E-16	1.407383E-17
5.480000E+03	5.098509E-16	1.404903E-17
5.490000E+03	5.079824E-16	1.402455E-17
5.500000E+03	5.059254E-16	1.400061E-17
5.510000E+03	5.036903E-16	1.397688E-17
5.520000E+03	5.013056E-16	1.395346E-17
5.530000E+03	4.988024E-16	1.393045E-17
5.540000E+03	4.961999E-16	1.390753E-17
5.550000E+03	4.935343E-16	1.388489E-17
5.560000E+03	4.908443E-16	1.386280E-17
5.570000E+03	4.881656E-16	1.384144E-17
5.580000E+03	4.855259E-16	1.382082E-17
5.590000E+03	4.829733E-16	1.380160E-17
5.600000E+03	4.805465E-16	1.378418E-17
5.610000E+03	4.782793E-16	1.376894E-17
5.620000E+03	4.762095E-16	1.375641E-17
5.630000E+03	4.743784E-16	1.374727E-17
5.640000E+03	4.728158E-16	1.374194E-17
5.650000E+03	4.715547E-16	1.374095E-17
5.660000E+03	4.706295E-16	1.374492E-17
5.670000E+03	4.700632E-16	1.375414E-17
5.680000E+03	4.698807E-16	1.376899E-17
5.690000E+03	4.701086E-16	1.378988E-17
5.700000E+03	4.707612E-16	1.381689E-17
5.710000E+03	4.718496E-16	1.384996E-17
5.720000E+03	4.733952E-16	1.388924E-17
5.730000E+03	4.754014E-16	1.393430E-17
5.740000E+03	4.778711E-16	1.398462E-17
5.750000E+03	4.808016E-16	1.403936E-17
5.760000E+03	4.841790E-16	1.409727E-17
5.770000E+03	4.879968E-16	1.415720E-17
5.780000E+03	4.922162E-16	1.421693E-17
5.790000E+03	4.968198E-16	1.427485E-17
5.800000E+03	5.017554E-16	1.432848E-17
5.810000E+03	5.069887E-16	1.437606E-17
5.820000E+03	5.124656E-16	1.441560E-17
5.830000E+03	5.181320E-16	1.444548E-17
5.840000E+03	5.239296E-16	1.446441E-17
5.850000E+03	5.297959E-16	1.447144E-17
5.860000E+03	5.356597E-16	1.446584E-17
5.870000E+03	5.414578E-16	1.444748E-17
5.880000E+03	5.471148E-16	1.441622E-17
5.890000E+03	5.525606E-16	1.437224E-17
5.900000E+03	5.577327E-16	1.431585E-17
5.910000E+03	5.625552E-16	1.424693E-17
5.920000E+03	5.669681E-16	1.416558E-17
5.930000E+03	5.709238E-16	1.407183E-17
5.940000E+03	5.743766E-16	1.396542E-17
5.950000E+03	5.772783E-16	1.384569E-17
5.960000E+03	5.796069E-16	1.371225E-17
5.970000E+03	5.813448E-16	1.356449E-17
5.980000E+03	5.824791E-16	1.340176E-17
5.990000E+03	5.830138E-16	1.322352E-17
6.000000E+03	5.829640E-16	1.302938E-17
6.010000E+03	5.823563E-16	1.281896E-17
6.020000E+03	5.812232E-16	1.259174E-17
6.030000E+03	5.796176E-16	1.234762E-17
6.040000E+03	5.775876E-16	1.208658E-17
6.050000E+03	5.751853E-16	1.180900E-17
6.060000E+03	5.724768E-16	1.151597E-17
6.070000E+03	5.695224E-16	1.120894E-17
6.080000E+03	5.663760E-16	1.088968E-17
6.090000E+03	5.630886E-16	1.056037E-17
6.100000E+03	5.597222E-16	1.022373E-17
6.110000E+03	5.563155E-16	9.882330E-18
6.120000E+03	5.529010E-16	9.539363E-18
6.130000E+03	5.495169E-16	9.199351E-18
6.140000E+03	5.461967E-16	8.868242E-18
6.150000E+03	5.429585E-16	8.553396E-18
6.160000E+03	5.398267E-16	8.263870E-18
6.170000E+03	5.368313E-16	8.009988E-18
6.180000E+03	5.339818E-16	7.802190E-18
6.190000E+03	5.312932E-16	7.650205E-18
6.200000E+03	5.287492E-16	7.560940E-18
6.210000E+03	5.263375E-16	7.536259E-18
6.220000E+03	5.240282E-16	7.571148E-18
6.230000E+03	5.218009E-16	7.657169E-18
6.240000E+03	5.196313E-16	7.784089E-18
6.250000E+03	5.174921E-16	7.941301E-18
6.260000E+03	5.153541E-16	8.118810E-18
6.270000E+03	5.131832E-16	8.307762E-18
6.280000E+03	5.109580E-16	8.500841E-18
6.290000E+03	5.086611E-16	8.692028E-18
6.300000E+03	5.062749E-16	8.876513E-18
6.310000E+03	5.037859E-16	9.050654E-18
6.320000E+03	5.011860E-16	9.211729E-18
6.330000E+03	4.984764E-16	9.357914E-18
6.340000E+03	4.956634E-16	9.487987E-18
6.350000E+03	4.927482E-16	9.600905E-18
6.360000E+03	4.897505E-16	9.696388E-18
6.370000E+03	4.866782E-16	9.774453E-18
6.380000E+03	4.835554E-16	9.835981E-18
6.390000E+03	4.803981E-16	9.882276E-18
6.400000E+03	4.772184E-16	9.915143E-18
6.410000E+03	4.740440E-16	9.937174E-18
6.420000E+03	4.708933E-16	9.951119E-18
6.430000E+03	4.677899E-16	9.959914E-18
6.440000E+03	4.647429E-16	9.966031E-18
6.450000E+03	4.617803E-16	9.972211E-18
6.460000E+03	4.589196E-16	9.980832E-18
6.470000E+03	4.561630E-16	9.993680E-18
6.480000E+03	4.535352E-16	1.001279E-17
6.490000E+03	4.510407E-16	1.003942E-17
6.500000E+03	4.486970E-16	1.007461E-17
6.510000E+03	4.465248E-16	1.011920E-17
6.520000E+03	4.445343E-16	1.017356E-17
6.530000E+03	4.427432E-16	1.023795E-17
6.540000E+03	4.411556E-16	1.031180E-17
6.550000E+03	4.397759E-16	1.039351E-17
6.560000E+03	4.385781E-16	1.047931E-17
6.570000E+03	4.375461E-16	1.056477E-17
6.580000E+03	4.366467E-16	1.064477E-17
6.590000E+03	4.358594E-16	1.071463E-17
6.600000E+03	4.351451E-16	1.076954E-17
6.610000E+03	4.344843E-16	1.080565E-17
6.620000E+03	4.338438E-16	1.081932E-17
6.630000E+03	4.332010E-16	1.080771E-17
6.640000E+03	4.325250E-16	1.076835E-17
6.650000E+03	4.317958E-16	1.069955E-17
6.660000E+03	4.309959E-16	1.060014E-17
6.670000E+03	4.301014E-16	1.046913E-17
6.680000E+03	4.290976E-16	1.030595E-17
6.690000E+03	4.279778E-16	1.011054E-17
6.700000E+03	4.267329E-16	9.883032E-18
6.710000E+03	4.253555E-16	9.623933E-18
6.720000E+03	4.238398E-16	9.334126E-18
6.730000E+03	4.221827E-16	9.014885E-18
6.740000E+03	4.203885E-16	8.667982E-18
6.750000E+03	4.184554E-16	8.295498E-18
6.760000E+03	4.163943E-16	7.900352E-18
6.770000E+03	4.142153E-16	7.486128E-18
6.780000E+03	4.119324E-16	7.057415E-18
6.790000E+03	4.095592E-16	6.620017E-18
6.800000E+03	4.071282E-16	6.181606E-18
6.810000E+03	4.046614E-16	5.751770E-18
6.820000E+03	4.021886E-16	5.342881E-18
6.830000E+03	3.997466E-16	4.970486E-18
6.840000E+03	3.973642E-16	4.653072E-18
6.850000E+03	3.950741E-16	4.410943E-18
6.860000E+03	3.929118E-16	4.262850E-18
6.870000E+03	3.909010E-16	4.220727E-18
6.880000E+03	3.890694E-16	4.283181E-18
6.890000E+03	3.874297E-16	4.434464E-18
6.900000E+03	3.859986E-16	4.652502E-18
6.910000E+03	3.847823E-16	4.914418E-18
6.920000E+03	3.837754E-16	5.199912E-18
6.930000E+03	3.829763E-16	5.492801E-18
6.940000E+03	3.823720E-16	5.780823E-18
6.950000E+03	3.819568E-16	6.055318E-18
6.960000E+03	3.817194E-16	6.310359E-18
6.970000E+03	3.816431E-16	6.542121E-18
6.980000E+03	3.817147E-16	6.748551E-18
6.990000E+03	3.819246E-16	6.929010E-18
7.000000E+03	3.822527E-16	7.083721E-18
7.010000E+03	3.826867E-16	7.213853E-18
7.020000E+03	3.832042E-16	7.321051E-18
7.030000E+03	3.837834E-16	7.407444E-18
7.040000E+03	3.844172E-16	7.475754E-18
7.050000E+03	3.850869E-16	7.528637E-18
7.060000E+03	3.857782E-16	7.568708E-18
7.070000E+03	3.864958E-16	7.598620E-18
7.080000E+03	3.872261E-16	7.620400E-18
7.090000E+03	3.879818E-16	7.636460E-18
7.100000E+03	3.887693E-16	7.648908E-18
7.110000E+03	3.895871E-16	7.659589E-18
7.120000E+03	3.904486E-16	7.670479E-18
7.130000E+03	3.913621E-16	7.683163E-18
7.140000E+03	3.923352E-16	7.698953E-18
7.150000E+03	3.933685E-16	7.718689E-18
7.160000E+03	3.944593E-16	7.742677E-18
7.170000E+03	3.956165E-16	7.771094E-18
7.180000E+03	3.968254E-16	7.803349E-18
7.190000E+03	3.980814E-16	7.838701E-18
7.200000E+03	3.993611E-16	7.875884E-18
7.210000E+03	4.006526E-16	7.913843E-18
7.220000E+03	4.019357E-16	7.951376E-18
7.230000E+03	4.031781E-16	7.987186E-18
7.240000E+03	4.043655E-16	8.020564E-18
7.250000E+03	4.054629E-16	8.050571E-18
7.260000E+03	4.064443E-16	8.076732E-18
7.270000E+03	4.072785E-16	8.098745E-18
7.280000E+03	4.079442E-16	8.116725E-18
7.290000E+03	4.084101E-16	8.130891E-18
7.300000E+03	4.086511E-16	8.141898E-18
7.310000E+03	4.086328E-16	8.150435E-18
7.320000E+03	4.083429E-16	8.157725E-18
7.330000E+03	4.077516E-16	8.164444E-18
7.340000E+03	4.068379E-16	8.170921E-18
7.350000E+03	4.056005E-16	8.177283E-18
7.360000E+03	4.040241E-16	8.182588E-18
7.370000E+03	4.021061E-16	8.185185E-18
7.380000E+03	3.998609E-16	8.183105E-18
7.390000E+03	3.972981E-16	8.173968E-18
7.400000E+03	3.944426E-16	8.155528E-18
7.410000E+03	3.913085E-16	8.125326E-18
7.420000E+03	3.879280E-16	8.081347E-18
7.430000E+03	3.843306E-16	8.021584E-18
7.440000E+03	3.805475E-16	7.944199E-18
7.450000E+03	3.766053E-16	7.847415E-18
7.460000E+03	3.725439E-16	7.729853E-18
7.470000E+03	3.683832E-16	7.589963E-18
7.480000E+03	3.641556E-16	7.426808E-18
7.490000E+03	3.598871E-16	7.239687E-18
7.500000E+03	3.556059E-16	7.028352E-18
7.510000E+03	3.513284E-16	6.792723E-18
7.520000E+03	3.470776E-16	6.533246E-18
7.530000E+03	3.428652E-16	6.250728E-18
7.540000E+03	3.387145E-16	5.946999E-18
7.550000E+03	3.346393E-16	5.624717E-18
7.560000E+03	3.306482E-16	5.287767E-18
7.570000E+03	3.267579E-16	4.941863E-18
7.580000E+03	3.229840E-16	4.594908E-18
7.590000E+03	3.193333E-16	4.257568E-18
7.600000E+03	3.158238E-16	3.944327E-18
7.610000E+03	3.124546E-16	3.673570E-18
7.620000E+03	3.092341E-16	3.467338E-18
7.630000E+03	3.061640E-16	3.348109E-18
7.640000E+03	3.032338E-16	3.332895E-18
7.650000E+03	3.004269E-16	3.424761E-18
7.660000E+03	2.977426E-16	3.610693E-18
7.670000E+03	2.951651E-16	3.870245E-18
7.680000E+03	2.926951E-16	4.182527E-18
7.690000E+03	2.903225E-16	4.529562E-18
7.700000E+03	2.880415E-16	4.897550E-18
7.710000E+03	2.858505E-16	5.276539E-18
7.720000E+03	2.837405E-16	5.659411E-18
7.730000E+03	2.817094E-16	6.041363E-18
7.740000E+03	2.797482E-16	6.419043E-18
7.750000E+03	2.778552E-16	6.790462E-18
7.760000E+03	2.760221E-16	7.154355E-18
