#wls	flux	fluxerr
1.600000E+03	4.477034E-18	2.980041E-18
1.640000E+03	4.415375E-18	2.906687E-18
1.680000E+03	4.358952E-18	2.836833E-18
1.720000E+03	4.306937E-18	2.769851E-18
1.760000E+03	4.260172E-18	2.706200E-18
1.800000E+03	4.219481E-18	2.646293E-18
1.840000E+03	4.184875E-18	2.590008E-18
1.880000E+03	4.155595E-18	2.536748E-18
1.920000E+03	4.133285E-18	2.487383E-18
1.960000E+03	4.118005E-18	2.441781E-18
2.000000E+03	4.109851E-18	2.399821E-18
2.040000E+03	4.108949E-18	2.361392E-18
2.080000E+03	4.117006E-18	2.327262E-18
2.120000E+03	4.133447E-18	2.296862E-18
2.160000E+03	4.159294E-18	2.270509E-18
2.200000E+03	4.194090E-18	2.247680E-18
2.240000E+03	4.239744E-18	2.229107E-18
2.280000E+03	4.295944E-18	2.214293E-18
2.320000E+03	4.363226E-18	2.203175E-18
2.360000E+03	4.442220E-18	2.195708E-18
2.400000E+03	4.533666E-18	2.191867E-18
2.440000E+03	4.638422E-18	2.191649E-18
2.480000E+03	4.758285E-18	2.195441E-18
2.520000E+03	4.892821E-18	2.202546E-18
2.560000E+03	5.044160E-18	2.213408E-18
2.600000E+03	5.213849E-18	2.228132E-18
2.640000E+03	5.402831E-18	2.246505E-18
2.680000E+03	5.614861E-18	2.269415E-18
2.720000E+03	5.850629E-18	2.296386E-18
2.760000E+03	6.113769E-18	2.328050E-18
2.800000E+03	6.406590E-18	2.364406E-18
2.840000E+03	6.733736E-18	2.406211E-18
2.880000E+03	7.100583E-18	2.454301E-18
2.920000E+03	7.511317E-18	2.508920E-18
2.960000E+03	7.975110E-18	2.571792E-18
3.000000E+03	8.500436E-18	2.644091E-18
3.010000E+03	8.641746E-18	2.663555E-18
3.020000E+03	8.789141E-18	2.684162E-18
3.030000E+03	8.940531E-18	2.705236E-18
3.040000E+03	9.097217E-18	2.727143E-18
3.050000E+03	9.259384E-18	2.749903E-18
3.060000E+03	9.427224E-18	2.773536E-18
3.070000E+03	9.600937E-18	2.798064E-18
3.080000E+03	9.781947E-18	2.823859E-18
3.090000E+03	9.968051E-18	2.850244E-18
3.100000E+03	1.016068E-17	2.877592E-18
3.110000E+03	1.036132E-17	2.906283E-18
3.120000E+03	1.056900E-17	2.935991E-18
3.130000E+03	1.078396E-17	2.966741E-18
3.140000E+03	1.100778E-17	2.998920E-18
3.150000E+03	1.123947E-17	3.032201E-18
3.160000E+03	1.148064E-17	3.066973E-18
3.170000E+03	1.173030E-17	3.102910E-18
3.180000E+03	1.199153E-17	3.140771E-18
3.190000E+03	1.226194E-17	3.179865E-18
3.200000E+03	1.254188E-17	3.220227E-18
3.210000E+03	1.283459E-17	3.262630E-18
3.220000E+03	1.313911E-17	3.306747E-18
3.230000E+03	1.345586E-17	3.352621E-18
3.240000E+03	1.378531E-17	3.400295E-18
3.250000E+03	1.412949E-17	3.450189E-18
3.260000E+03	1.448739E-17	3.501976E-18
3.270000E+03	1.486113E-17	3.556084E-18
3.280000E+03	1.524970E-17	3.612182E-18
3.290000E+03	1.565695E-17	3.671091E-18
3.300000E+03	1.608027E-17	3.732096E-18
3.310000E+03	1.652195E-17	3.795638E-18
3.320000E+03	1.698271E-17	3.861775E-18
3.330000E+03	1.746505E-17	3.930963E-18
3.340000E+03	1.796800E-17	4.002868E-18
3.350000E+03	1.849419E-17	4.077954E-18
3.360000E+03	1.904265E-17	4.155881E-18
3.370000E+03	1.961611E-17	4.237119E-18
3.380000E+03	2.021553E-17	4.321738E-18
3.390000E+03	2.084389E-17	4.410222E-18
3.400000E+03	2.150030E-17	4.502228E-18
3.410000E+03	2.218581E-17	4.597822E-18
3.420000E+03	2.290359E-17	4.697499E-18
3.430000E+03	2.365275E-17	4.800900E-18
3.440000E+03	2.443878E-17	4.908958E-18
3.450000E+03	2.526086E-17	5.021314E-18
3.460000E+03	2.612034E-17	5.138036E-18
3.470000E+03	2.701857E-17	5.259185E-18
3.480000E+03	2.796163E-17	5.385727E-18
3.490000E+03	2.894643E-17	5.516825E-18
3.500000E+03	2.997685E-17	5.652988E-18
3.510000E+03	3.105450E-17	5.794271E-18
3.520000E+03	3.218102E-17	5.940719E-18
3.530000E+03	3.336067E-17	6.092847E-18
3.540000E+03	3.459528E-17	6.250696E-18
3.550000E+03	3.588401E-17	6.413815E-18
3.560000E+03	3.723408E-17	6.583189E-18
3.570000E+03	3.864191E-17	6.757853E-18
3.580000E+03	4.011496E-17	6.938785E-18
3.590000E+03	4.165531E-17	7.125979E-18
3.600000E+03	4.326201E-17	7.318907E-18
3.610000E+03	4.494001E-17	7.518026E-18
3.620000E+03	4.669133E-17	7.723279E-18
3.630000E+03	4.851480E-17	7.934068E-18
3.640000E+03	5.042197E-17	8.151855E-18
3.650000E+03	5.240521E-17	8.374957E-18
3.660000E+03	5.447298E-17	8.604283E-18
3.670000E+03	5.662730E-17	8.839677E-18
3.680000E+03	5.886662E-17	9.080411E-18
3.690000E+03	6.119976E-17	9.327356E-18
3.700000E+03	6.362140E-17	9.579182E-18
3.710000E+03	6.613674E-17	9.836163E-18
3.720000E+03	6.875110E-17	1.009856E-17
3.730000E+03	7.146226E-17	1.036549E-17
3.740000E+03	7.427147E-17	1.063660E-17
3.750000E+03	7.718385E-17	1.091206E-17
3.760000E+03	8.019644E-17	1.119089E-17
3.770000E+03	8.331413E-17	1.147321E-17
3.780000E+03	8.653342E-17	1.175798E-17
3.790000E+03	8.985890E-17	1.204526E-17
3.800000E+03	9.329084E-17	1.233453E-17
3.810000E+03	9.682927E-17	1.262523E-17
3.820000E+03	1.004694E-16	1.291620E-17
3.830000E+03	1.042197E-16	1.320801E-17
3.840000E+03	1.080701E-16	1.349886E-17
3.850000E+03	1.120242E-16	1.378871E-17
3.860000E+03	1.160804E-16	1.407692E-17
3.870000E+03	1.202321E-16	1.436225E-17
3.880000E+03	1.244868E-16	1.464521E-17
3.890000E+03	1.288324E-16	1.492397E-17
3.900000E+03	1.332709E-16	1.519848E-17
3.910000E+03	1.377992E-16	1.546809E-17
3.920000E+03	1.424087E-16	1.573160E-17
3.930000E+03	1.471006E-16	1.598900E-17
3.940000E+03	1.518656E-16	1.623915E-17
3.950000E+03	1.567045E-16	1.648207E-17
3.960000E+03	1.616071E-16	1.671669E-17
3.970000E+03	1.665684E-16	1.694258E-17
3.980000E+03	1.715830E-16	1.715932E-17
3.990000E+03	1.766453E-16	1.736657E-17
4.000000E+03	1.817498E-16	1.756404E-17
4.010000E+03	1.868848E-16	1.775096E-17
4.020000E+03	1.920503E-16	1.792770E-17
4.030000E+03	1.972287E-16	1.809311E-17
4.040000E+03	2.024258E-16	1.824825E-17
4.050000E+03	2.076304E-16	1.839262E-17
4.060000E+03	2.128309E-16	1.852582E-17
4.070000E+03	2.180283E-16	1.864857E-17
4.080000E+03	2.232118E-16	1.876061E-17
4.090000E+03	2.283772E-16	1.886226E-17
4.100000E+03	2.335206E-16	1.895389E-17
4.110000E+03	2.386326E-16	1.903544E-17
4.120000E+03	2.437104E-16	1.910740E-17
4.130000E+03	2.487518E-16	1.917028E-17
4.140000E+03	2.537489E-16	1.922416E-17
4.150000E+03	2.587068E-16	1.927010E-17
4.160000E+03	2.636186E-16	1.930821E-17
4.170000E+03	2.684783E-16	1.933869E-17
4.180000E+03	2.732922E-16	1.936260E-17
4.190000E+03	2.780555E-16	1.938015E-17
4.200000E+03	2.827633E-16	1.939155E-17
4.210000E+03	2.874241E-16	1.939785E-17
4.220000E+03	2.920284E-16	1.939886E-17
4.230000E+03	2.965855E-16	1.939562E-17
4.240000E+03	3.010933E-16	1.938831E-17
4.250000E+03	3.055499E-16	1.937713E-17
4.260000E+03	3.099665E-16	1.936305E-17
4.270000E+03	3.143421E-16	1.934622E-17
4.280000E+03	3.186823E-16	1.932717E-17
4.290000E+03	3.229806E-16	1.930566E-17
4.300000E+03	3.272490E-16	1.928255E-17
4.310000E+03	3.314876E-16	1.925796E-17
4.320000E+03	3.357022E-16	1.923233E-17
4.330000E+03	3.398927E-16	1.920574E-17
4.340000E+03	3.440707E-16	1.917896E-17
4.350000E+03	3.482236E-16	1.915133E-17
4.360000E+03	3.523685E-16	1.912391E-17
4.370000E+03	3.565044E-16	1.909666E-17
4.380000E+03	3.606235E-16	1.906924E-17
4.390000E+03	3.647422E-16	1.904250E-17
4.400000E+03	3.688582E-16	1.901630E-17
4.410000E+03	3.729690E-16	1.899039E-17
4.420000E+03	3.770778E-16	1.896478E-17
4.430000E+03	3.811874E-16	1.893936E-17
4.440000E+03	3.853000E-16	1.891393E-17
4.450000E+03	3.894117E-16	1.888785E-17
4.460000E+03	3.935358E-16	1.886125E-17
4.470000E+03	3.976551E-16	1.883266E-17
4.480000E+03	4.017759E-16	1.880166E-17
4.490000E+03	4.058915E-16	1.876711E-17
4.500000E+03	4.100066E-16	1.872830E-17
4.510000E+03	4.141072E-16	1.868355E-17
4.520000E+03	4.181903E-16	1.863166E-17
4.530000E+03	4.222583E-16	1.857155E-17
4.540000E+03	4.262946E-16	1.850127E-17
4.550000E+03	4.303064E-16	1.841985E-17
4.560000E+03	4.342817E-16	1.832545E-17
4.570000E+03	4.382083E-16	1.821620E-17
4.580000E+03	4.420795E-16	1.809045E-17
4.590000E+03	4.458942E-16	1.794676E-17
4.600000E+03	4.496389E-16	1.778321E-17
4.610000E+03	4.533059E-16	1.759813E-17
4.620000E+03	4.568876E-16	1.738987E-17
4.630000E+03	4.603759E-16	1.715684E-17
4.640000E+03	4.637634E-16	1.689750E-17
4.650000E+03	4.670424E-16	1.661041E-17
4.660000E+03	4.701936E-16	1.629384E-17
4.670000E+03	4.732223E-16	1.594707E-17
4.680000E+03	4.761160E-16	1.556894E-17
4.690000E+03	4.788629E-16	1.515857E-17
4.700000E+03	4.814635E-16	1.471583E-17
4.710000E+03	4.839070E-16	1.424059E-17
4.720000E+03	4.861891E-16	1.373345E-17
4.730000E+03	4.883056E-16	1.319567E-17
4.740000E+03	4.902471E-16	1.262913E-17
4.750000E+03	4.920104E-16	1.203694E-17
4.760000E+03	4.935927E-16	1.142351E-17
4.770000E+03	4.949977E-16	1.079505E-17
4.780000E+03	4.962175E-16	1.015967E-17
4.790000E+03	4.972506E-16	9.528389E-18
4.800000E+03	4.981021E-16	8.915883E-18
4.810000E+03	4.987657E-16	8.340890E-18
4.820000E+03	4.992477E-16	7.827170E-18
4.830000E+03	4.995547E-16	7.402860E-18
4.840000E+03	4.996825E-16	7.098020E-18
4.850000E+03	4.996395E-16	6.939884E-18
4.860000E+03	4.994412E-16	6.944967E-18
4.870000E+03	4.990889E-16	7.108374E-18
4.880000E+03	4.985987E-16	7.407032E-18
4.890000E+03	4.979817E-16	7.810065E-18
4.900000E+03	4.972609E-16	8.286192E-18
4.910000E+03	4.964368E-16	8.807370E-18
4.920000E+03	4.955329E-16	9.351039E-18
4.930000E+03	4.945669E-16	9.899606E-18
4.940000E+03	4.935449E-16	1.043957E-17
4.950000E+03	4.924788E-16	1.096097E-17
4.960000E+03	4.913909E-16	1.145680E-17
4.970000E+03	4.902866E-16	1.192176E-17
4.980000E+03	4.891819E-16	1.235243E-17
4.990000E+03	4.880867E-16	1.274651E-17
5.000000E+03	4.870107E-16	1.310271E-17
5.010000E+03	4.859632E-16	1.342054E-17
5.020000E+03	4.849587E-16	1.370035E-17
5.030000E+03	4.840061E-16	1.394291E-17
5.040000E+03	4.831140E-16	1.414947E-17
5.050000E+03	4.822913E-16	1.432168E-17
5.060000E+03	4.815465E-16	1.446158E-17
5.070000E+03	4.808934E-16	1.457166E-17
5.080000E+03	4.803401E-16	1.465451E-17
5.090000E+03	4.798897E-16	1.471273E-17
5.100000E+03	4.795550E-16	1.474940E-17
5.110000E+03	4.793431E-16	1.476748E-17
5.120000E+03	4.792604E-16	1.476994E-17
5.130000E+03	4.793123E-16	1.475966E-17
5.140000E+03	4.795029E-16	1.473938E-17
5.150000E+03	4.798399E-16	1.471180E-17
5.160000E+03	4.803138E-16	1.467891E-17
5.170000E+03	4.809391E-16	1.464321E-17
5.180000E+03	4.816977E-16	1.460596E-17
5.190000E+03	4.825953E-16	1.456893E-17
5.200000E+03	4.836256E-16	1.453331E-17
5.210000E+03	4.847751E-16	1.449989E-17
5.220000E+03	4.860337E-16	1.446938E-17
5.230000E+03	4.873944E-16	1.444244E-17
5.240000E+03	4.888384E-16	1.441923E-17
5.250000E+03	4.903553E-16	1.440005E-17
5.260000E+03	4.919280E-16	1.438491E-17
5.270000E+03	4.935281E-16	1.437337E-17
5.280000E+03	4.951515E-16	1.436562E-17
5.290000E+03	4.967678E-16	1.436102E-17
5.300000E+03	4.983564E-16	1.435915E-17
5.310000E+03	4.998964E-16	1.435948E-17
5.320000E+03	5.013722E-16	1.436159E-17
5.330000E+03	5.027634E-16	1.436489E-17
5.340000E+03	5.040396E-16	1.436843E-17
5.350000E+03	5.051922E-16	1.437190E-17
5.360000E+03	5.061979E-16	1.437456E-17
5.370000E+03	5.070398E-16	1.437589E-17
5.380000E+03	5.077075E-16	1.437559E-17
5.390000E+03	5.081819E-16	1.437313E-17
5.400000E+03	5.084458E-16	1.436812E-17
5.410000E+03	5.084991E-16	1.436069E-17
5.420000E+03	5.083287E-16	1.435068E-17
5.430000E+03	5.079286E-16	1.433813E-17
5.440000E+03	5.072953E-16	1.432318E-17
5.450000E+03	5.064283E-16	1.430603E-17
5.460000E+03	5.053302E-16	1.428692E-17
5.470000E+03	5.040067E-16	1.426609E-17
5.480000E+03	5.024718E-16	1.424391E-17
5.490000E+03	5.007278E-16	1.422029E-17
5.500000E+03	4.988005E-16	1.419568E-17
5.510000E+03	4.967085E-16	1.417025E-17
5.520000E+03	4.944636E-16	1.414386E-17
5.530000E+03	4.920905E-16	1.411667E-17
5.540000E+03	4.896213E-16	1.408904E-17
5.550000E+03	4.870854E-16	1.406120E-17
5.560000E+03	4.845191E-16	1.403359E-17
5.570000E+03	4.819507E-16	1.400640E-17
5.580000E+03	4.794191E-16	1.398018E-17
5.590000E+03	4.769593E-16	1.395535E-17
5.600000E+03	4.746020E-16	1.393227E-17
5.610000E+03	4.723823E-16	1.391143E-17
5.620000E+03	4.703394E-16	1.389347E-17
5.630000E+03	4.685021E-16	1.387876E-17
5.640000E+03	4.669022E-16	1.386779E-17
5.650000E+03	4.655746E-16	1.386114E-17
5.660000E+03	4.645378E-16	1.385892E-17
5.670000E+03	4.638267E-16	1.386175E-17
5.680000E+03	4.634548E-16	1.386959E-17
5.690000E+03	4.634511E-16	1.388288E-17
5.700000E+03	4.638233E-16	1.390138E-17
5.710000E+03	4.645891E-16	1.392514E-17
5.720000E+03	4.657534E-16	1.395379E-17
5.730000E+03	4.673258E-16	1.398706E-17
5.740000E+03	4.693068E-16	1.402436E-17
5.750000E+03	4.716876E-16	1.406477E-17
5.760000E+03	4.744581E-16	1.410732E-17
5.770000E+03	4.776074E-16	1.415100E-17
5.780000E+03	4.811050E-16	1.419421E-17
5.790000E+03	4.849331E-16	1.423582E-17
5.800000E+03	4.890496E-16	1.427409E-17
5.810000E+03	4.934164E-16	1.430755E-17
5.820000E+03	4.980002E-16	1.433511E-17
5.830000E+03	5.027390E-16	1.435506E-17
5.840000E+03	5.075911E-16	1.436660E-17
5.850000E+03	5.124968E-16	1.436866E-17
5.860000E+03	5.173937E-16	1.436036E-17
5.870000E+03	5.222276E-16	1.434128E-17
5.880000E+03	5.269388E-16	1.431099E-17
5.890000E+03	5.314627E-16	1.426903E-17
5.900000E+03	5.357417E-16	1.421513E-17
5.910000E+03	5.397212E-16	1.414901E-17
5.920000E+03	5.433457E-16	1.407021E-17
5.930000E+03	5.465757E-16	1.397850E-17
5.940000E+03	5.493679E-16	1.387328E-17
5.950000E+03	5.516970E-16	1.375413E-17
5.960000E+03	5.535304E-16	1.362020E-17
5.970000E+03	5.548603E-16	1.347095E-17
5.980000E+03	5.556773E-16	1.330560E-17
5.990000E+03	5.559926E-16	1.312365E-17
6.000000E+03	5.558155E-16	1.292436E-17
6.010000E+03	5.551699E-16	1.270725E-17
6.020000E+03	5.540875E-16	1.247194E-17
6.030000E+03	5.526121E-16	1.221835E-17
6.040000E+03	5.507769E-16	1.194627E-17
6.050000E+03	5.486350E-16	1.165613E-17
6.060000E+03	5.462362E-16	1.134855E-17
6.070000E+03	5.436311E-16	1.102454E-17
6.080000E+03	5.408691E-16	1.068549E-17
6.090000E+03	5.380079E-16	1.033351E-17
6.100000E+03	5.350813E-16	9.970884E-18
6.110000E+03	5.321395E-16	9.601076E-18
6.120000E+03	5.292177E-16	9.228351E-18
6.130000E+03	5.263516E-16	8.858352E-18
6.140000E+03	5.235615E-16	8.498108E-18
6.150000E+03	5.208734E-16	8.156600E-18
6.160000E+03	5.183080E-16	7.844607E-18
6.170000E+03	5.158611E-16	7.574131E-18
6.180000E+03	5.135437E-16	7.358203E-18
6.190000E+03	5.113468E-16	7.208857E-18
6.200000E+03	5.092712E-16	7.135288E-18
6.210000E+03	5.073168E-16	7.139628E-18
6.220000E+03	5.054625E-16	7.214635E-18
6.230000E+03	5.036882E-16	7.348562E-18
6.240000E+03	5.019703E-16	7.527888E-18
6.250000E+03	5.002835E-16	7.739195E-18
6.260000E+03	4.985915E-16	7.970159E-18
6.270000E+03	4.968784E-16	8.210567E-18
6.280000E+03	4.951097E-16	8.451812E-18
6.290000E+03	4.932635E-16	8.687259E-18
6.300000E+03	4.913257E-16	8.911961E-18
6.310000E+03	4.892765E-16	9.122150E-18
6.320000E+03	4.871051E-16	9.315261E-18
6.330000E+03	4.848050E-16	9.489646E-18
6.340000E+03	4.823789E-16	9.644508E-18
6.350000E+03	4.798240E-16	9.779491E-18
6.360000E+03	4.771510E-16	9.894979E-18
6.370000E+03	4.743691E-16	9.991754E-18
6.380000E+03	4.714905E-16	1.007104E-17
6.390000E+03	4.685294E-16	1.013444E-17
6.400000E+03	4.655070E-16	1.018402E-17
6.410000E+03	4.624362E-16	1.022188E-17
6.420000E+03	4.593356E-16	1.025037E-17
6.430000E+03	4.562338E-16	1.027214E-17
6.440000E+03	4.531454E-16	1.028947E-17
6.450000E+03	4.500938E-16	1.030474E-17
6.460000E+03	4.470925E-16	1.031993E-17
6.470000E+03	4.441727E-16	1.033718E-17
6.480000E+03	4.413501E-16	1.035801E-17
6.490000E+03	4.386341E-16	1.038348E-17
6.500000E+03	4.360506E-16	1.041468E-17
6.510000E+03	4.335956E-16	1.045162E-17
6.520000E+03	4.312851E-16	1.049438E-17
6.530000E+03	4.291133E-16	1.054204E-17
6.540000E+03	4.270884E-16	1.059356E-17
6.550000E+03	4.252005E-16	1.064692E-17
6.560000E+03	4.234485E-16	1.069988E-17
6.570000E+03	4.218094E-16	1.074926E-17
6.580000E+03	4.202790E-16	1.079216E-17
6.590000E+03	4.188329E-16	1.082509E-17
6.600000E+03	4.174498E-16	1.084473E-17
6.610000E+03	4.161166E-16	1.084818E-17
6.620000E+03	4.148068E-16	1.083251E-17
6.630000E+03	4.135037E-16	1.079536E-17
6.640000E+03	4.121868E-16	1.073467E-17
6.650000E+03	4.108419E-16	1.064889E-17
6.660000E+03	4.094521E-16	1.053677E-17
6.670000E+03	4.080026E-16	1.039743E-17
6.680000E+03	4.064854E-16	1.023052E-17
6.690000E+03	4.048861E-16	1.003578E-17
6.700000E+03	4.031970E-16	9.813451E-18
6.710000E+03	4.014220E-16	9.564346E-18
6.720000E+03	3.995538E-16	9.289325E-18
6.730000E+03	3.975922E-16	8.989765E-18
6.740000E+03	3.955395E-16	8.667489E-18
6.750000E+03	3.934054E-16	8.324932E-18
6.760000E+03	3.911981E-16	7.965023E-18
6.770000E+03	3.889242E-16	7.591331E-18
6.780000E+03	3.866022E-16	7.208486E-18
6.790000E+03	3.842449E-16	6.822031E-18
6.800000E+03	3.818808E-16	6.439069E-18
6.810000E+03	3.795278E-16	6.068044E-18
6.820000E+03	3.772056E-16	5.719225E-18
6.830000E+03	3.749483E-16	5.404937E-18
6.840000E+03	3.727773E-16	5.138805E-18
6.850000E+03	3.707181E-16	4.934948E-18
6.860000E+03	3.687950E-16	4.805852E-18
6.870000E+03	3.670297E-16	4.759404E-18
6.880000E+03	3.654394E-16	4.794598E-18
6.890000E+03	3.640395E-16	4.900929E-18
6.900000E+03	3.628332E-16	5.063263E-18
6.910000E+03	3.618241E-16	5.265458E-18
6.920000E+03	3.610127E-16	5.492558E-18
6.930000E+03	3.603964E-16	5.731902E-18
6.940000E+03	3.599701E-16	5.973414E-18
6.950000E+03	3.597268E-16	6.209438E-18
6.960000E+03	3.596576E-16	6.434412E-18
6.970000E+03	3.597524E-16	6.644506E-18
6.980000E+03	3.600042E-16	6.837379E-18
6.990000E+03	3.603878E-16	7.011488E-18
7.000000E+03	3.609033E-16	7.166683E-18
7.010000E+03	3.615289E-16	7.303109E-18
7.020000E+03	3.622557E-16	7.421721E-18
7.030000E+03	3.630713E-16	7.523806E-18
7.040000E+03	3.639597E-16	7.610858E-18
7.050000E+03	3.649110E-16	7.684646E-18
7.060000E+03	3.659175E-16	7.747037E-18
7.070000E+03	3.669735E-16	7.799916E-18
7.080000E+03	3.680761E-16	7.845139E-18
7.090000E+03	3.692239E-16	7.884482E-18
7.100000E+03	3.704176E-16	7.919617E-18
7.110000E+03	3.716499E-16	7.951885E-18
7.120000E+03	3.729365E-16	7.982933E-18
7.130000E+03	3.742657E-16	8.013624E-18
7.140000E+03	3.756434E-16	8.044964E-18
7.150000E+03	3.770646E-16	8.077499E-18
7.160000E+03	3.785362E-16	8.111786E-18
7.170000E+03	3.800398E-16	8.147610E-18
7.180000E+03	3.815723E-16	8.184891E-18
7.190000E+03	3.831281E-16	8.223330E-18
7.200000E+03	3.846797E-16	8.262055E-18
7.210000E+03	3.862248E-16	8.300692E-18
7.220000E+03	3.877306E-16	8.338211E-18
7.230000E+03	3.891808E-16	8.374008E-18
7.240000E+03	3.905477E-16	8.407338E-18
7.250000E+03	3.918120E-16	8.437776E-18
7.260000E+03	3.929391E-16	8.464725E-18
7.270000E+03	3.939130E-16	8.488163E-18
7.280000E+03	3.946940E-16	8.507706E-18
7.290000E+03	3.952670E-16	8.523637E-18
7.300000E+03	3.956034E-16	8.536033E-18
7.310000E+03	3.956818E-16	8.545119E-18
7.320000E+03	3.954729E-16	8.550873E-18
7.330000E+03	3.949706E-16	8.553557E-18
7.340000E+03	3.941578E-16	8.552888E-18
7.350000E+03	3.930270E-16	8.548382E-18
7.360000E+03	3.915706E-16	8.539110E-18
7.370000E+03	3.897914E-16	8.523909E-18
7.380000E+03	3.877019E-16	8.501429E-18
7.390000E+03	3.853104E-16	8.469895E-18
7.400000E+03	3.826340E-16	8.427502E-18
7.410000E+03	3.796940E-16	8.372397E-18
7.420000E+03	3.765146E-16	8.302746E-18
7.430000E+03	3.731225E-16	8.216785E-18
7.440000E+03	3.695458E-16	8.112859E-18
7.450000E+03	3.658133E-16	7.989458E-18
7.460000E+03	3.619537E-16	7.845247E-18
7.470000E+03	3.579955E-16	7.679091E-18
7.480000E+03	3.539656E-16	7.490091E-18
7.490000E+03	3.498897E-16	7.277615E-18
7.500000E+03	3.457916E-16	7.041329E-18
7.510000E+03	3.416890E-16	6.781165E-18
7.520000E+03	3.376103E-16	6.497735E-18
7.530000E+03	3.335650E-16	6.191823E-18
7.540000E+03	3.295775E-16	5.865202E-18
7.550000E+03	3.256579E-16	5.520259E-18
7.560000E+03	3.218188E-16	5.160603E-18
7.570000E+03	3.180751E-16	4.791452E-18
7.580000E+03	3.144318E-16	4.420035E-18
7.590000E+03	3.108996E-16	4.056685E-18
7.600000E+03	3.074832E-16	3.715723E-18
7.610000E+03	3.041841E-16	3.416574E-18
7.620000E+03	3.010009E-16	3.183832E-18
7.630000E+03	2.979294E-16	3.044432E-18
7.640000E+03	2.949667E-16	3.020131E-18
7.650000E+03	2.921043E-16	3.115072E-18
7.660000E+03	2.893446E-16	3.312419E-18
7.670000E+03	2.866825E-16	3.586647E-18
7.680000E+03	2.841234E-16	3.912998E-18
7.690000E+03	2.816570E-16	4.271390E-18
7.700000E+03	2.792838E-16	4.647316E-18
7.710000E+03	2.770037E-16	5.030781E-18
7.720000E+03	2.748055E-16	5.414912E-18
7.730000E+03	2.726922E-16	5.795436E-18
7.740000E+03	2.706562E-16	6.169515E-18
7.750000E+03	2.686932E-16	6.535524E-18
7.760000E+03	2.667994E-16	6.892662E-18
