#wls	flux	fluxerr
1.600000E+03	4.504589E-18	2.975056E-18
1.640000E+03	4.438483E-18	2.897848E-18
1.680000E+03	4.376836E-18	2.823656E-18
1.720000E+03	4.320443E-18	2.752911E-18
1.760000E+03	4.269298E-18	2.685507E-18
1.800000E+03	4.224168E-18	2.621817E-18
1.840000E+03	4.185048E-18	2.561707E-18
1.880000E+03	4.152697E-18	2.505501E-18
1.920000E+03	4.127130E-18	2.453045E-18
1.960000E+03	4.109118E-18	2.404622E-18
2.000000E+03	4.098716E-18	2.360065E-18
2.040000E+03	4.097454E-18	2.320035E-18
2.080000E+03	4.104719E-18	2.283931E-18
2.120000E+03	4.122816E-18	2.252762E-18
2.160000E+03	4.151229E-18	2.225924E-18
2.200000E+03	4.191648E-18	2.203979E-18
2.240000E+03	4.243703E-18	2.186354E-18
2.280000E+03	4.307826E-18	2.172881E-18
2.320000E+03	4.384542E-18	2.163410E-18
2.360000E+03	4.474481E-18	2.157813E-18
2.400000E+03	4.578391E-18	2.155979E-18
2.440000E+03	4.695713E-18	2.157155E-18
2.480000E+03	4.828891E-18	2.161956E-18
2.520000E+03	4.977652E-18	2.169695E-18
2.560000E+03	5.143329E-18	2.180375E-18
2.600000E+03	5.328214E-18	2.194336E-18
2.640000E+03	5.532595E-18	2.211010E-18
2.680000E+03	5.760048E-18	2.231100E-18
2.720000E+03	6.013005E-18	2.254718E-18
2.760000E+03	6.293494E-18	2.281733E-18
2.800000E+03	6.604766E-18	2.312374E-18
2.840000E+03	6.950623E-18	2.346938E-18
2.880000E+03	7.333770E-18	2.385232E-18
2.920000E+03	7.759278E-18	2.427744E-18
2.960000E+03	8.233110E-18	2.475079E-18
3.000000E+03	8.764236E-18	2.528535E-18
3.010000E+03	8.907090E-18	2.543001E-18
3.020000E+03	9.053768E-18	2.557798E-18
3.030000E+03	9.205412E-18	2.573223E-18
3.040000E+03	9.361186E-18	2.589013E-18
3.050000E+03	9.523292E-18	2.605747E-18
3.060000E+03	9.688851E-18	2.622604E-18
3.070000E+03	9.861137E-18	2.640445E-18
3.080000E+03	1.003828E-17	2.658730E-18
3.090000E+03	1.022152E-17	2.677762E-18
3.100000E+03	1.041111E-17	2.697565E-18
3.110000E+03	1.060727E-17	2.718164E-18
3.120000E+03	1.081025E-17	2.739584E-18
3.130000E+03	1.102031E-17	2.761853E-18
3.140000E+03	1.123658E-17	2.784718E-18
3.150000E+03	1.146277E-17	2.809054E-18
3.160000E+03	1.169575E-17	2.834047E-18
3.170000E+03	1.193814E-17	2.860295E-18
3.180000E+03	1.218911E-17	2.887549E-18
3.190000E+03	1.244900E-17	2.915845E-18
3.200000E+03	1.272062E-17	2.945793E-18
3.210000E+03	1.300193E-17	2.976861E-18
3.220000E+03	1.329459E-17	3.009379E-18
3.230000E+03	1.359774E-17	3.043100E-18
3.240000E+03	1.391442E-17	3.078650E-18
3.250000E+03	1.424384E-17	3.115788E-18
3.260000E+03	1.458787E-17	3.154857E-18
3.270000E+03	1.494571E-17	3.195618E-18
3.280000E+03	1.531791E-17	3.238125E-18
3.290000E+03	1.570788E-17	3.283027E-18
3.300000E+03	1.611347E-17	3.329794E-18
3.310000E+03	1.653823E-17	3.379084E-18
3.320000E+03	1.697995E-17	3.430365E-18
3.330000E+03	1.744386E-17	3.484611E-18
3.340000E+03	1.792779E-17	3.541289E-18
3.350000E+03	1.843410E-17	3.600780E-18
3.360000E+03	1.896372E-17	3.663161E-18
3.370000E+03	1.951921E-17	3.728826E-18
3.380000E+03	2.010165E-17	3.797863E-18
3.390000E+03	2.071042E-17	3.870046E-18
3.400000E+03	2.135004E-17	3.946099E-18
3.410000E+03	2.202001E-17	4.025799E-18
3.420000E+03	2.272155E-17	4.109241E-18
3.430000E+03	2.345958E-17	4.197174E-18
3.440000E+03	2.423560E-17	4.289711E-18
3.450000E+03	2.504924E-17	4.386629E-18
3.460000E+03	2.590200E-17	4.488029E-18
3.470000E+03	2.680134E-17	4.595035E-18
3.480000E+03	2.774311E-17	4.706743E-18
3.490000E+03	2.873512E-17	4.824293E-18
3.500000E+03	2.977727E-17	4.947457E-18
3.510000E+03	3.087148E-17	5.076345E-18
3.520000E+03	3.202194E-17	5.211421E-18
3.530000E+03	3.323079E-17	5.352796E-18
3.540000E+03	3.450021E-17	5.500573E-18
3.550000E+03	3.583477E-17	5.655220E-18
3.560000E+03	3.723444E-17	5.816460E-18
3.570000E+03	3.870396E-17	5.984746E-18
3.580000E+03	4.024574E-17	6.160155E-18
3.590000E+03	4.186481E-17	6.343135E-18
3.600000E+03	4.355854E-17	6.532961E-18
3.610000E+03	4.533188E-17	6.730043E-18
3.620000E+03	4.718999E-17	6.934792E-18
3.630000E+03	4.913267E-17	7.146804E-18
3.640000E+03	5.116228E-17	7.366042E-18
3.650000E+03	5.328405E-17	7.592863E-18
3.660000E+03	5.549745E-17	7.826773E-18
3.670000E+03	5.780467E-17	8.067658E-18
3.680000E+03	6.020780E-17	8.315374E-18
3.690000E+03	6.271200E-17	8.570178E-18
3.700000E+03	6.531610E-17	8.831438E-18
3.710000E+03	6.802186E-17	9.098912E-18
3.720000E+03	7.083085E-17	9.372324E-18
3.730000E+03	7.374795E-17	9.651812E-18
3.740000E+03	7.676409E-17	9.935681E-18
3.750000E+03	7.989064E-17	1.022490E-17
3.760000E+03	8.312135E-17	1.051813E-17
3.770000E+03	8.646033E-17	1.081538E-17
3.780000E+03	8.990419E-17	1.111570E-17
3.790000E+03	9.345668E-17	1.141903E-17
3.800000E+03	9.710981E-17	1.172387E-17
3.810000E+03	1.008707E-16	1.203057E-17
3.820000E+03	1.047265E-16	1.233711E-17
3.830000E+03	1.086880E-16	1.264427E-17
3.840000E+03	1.127454E-16	1.295045E-17
3.850000E+03	1.168924E-16	1.325449E-17
3.860000E+03	1.211352E-16	1.355668E-17
3.870000E+03	1.254626E-16	1.385537E-17
3.880000E+03	1.298714E-16	1.414988E-17
3.890000E+03	1.343627E-16	1.444001E-17
3.900000E+03	1.389284E-16	1.472463E-17
3.910000E+03	1.435552E-16	1.500210E-17
3.920000E+03	1.482527E-16	1.527327E-17
3.930000E+03	1.530021E-16	1.553610E-17
3.940000E+03	1.578034E-16	1.579053E-17
3.950000E+03	1.626464E-16	1.603555E-17
3.960000E+03	1.675307E-16	1.627120E-17
3.970000E+03	1.724410E-16	1.649612E-17
3.980000E+03	1.773764E-16	1.671045E-17
3.990000E+03	1.823263E-16	1.691344E-17
4.000000E+03	1.872847E-16	1.710487E-17
4.010000E+03	1.922406E-16	1.728414E-17
4.020000E+03	1.971935E-16	1.745167E-17
4.030000E+03	2.021273E-16	1.760653E-17
4.040000E+03	2.070420E-16	1.774928E-17
4.050000E+03	2.119272E-16	1.787963E-17
4.060000E+03	2.167783E-16	1.799781E-17
4.070000E+03	2.215910E-16	1.810413E-17
4.080000E+03	2.263564E-16	1.819850E-17
4.090000E+03	2.310769E-16	1.828178E-17
4.100000E+03	2.357335E-16	1.835316E-17
4.110000E+03	2.403409E-16	1.841445E-17
4.120000E+03	2.448815E-16	1.846493E-17
4.130000E+03	2.493660E-16	1.850602E-17
4.140000E+03	2.537833E-16	1.853751E-17
4.150000E+03	2.581399E-16	1.856045E-17
4.160000E+03	2.624317E-16	1.857506E-17
4.170000E+03	2.666549E-16	1.858160E-17
4.180000E+03	2.708233E-16	1.858152E-17
4.190000E+03	2.749346E-16	1.857505E-17
4.200000E+03	2.789866E-16	1.856245E-17
4.210000E+03	2.829892E-16	1.854473E-17
4.220000E+03	2.869416E-16	1.852211E-17
4.230000E+03	2.908490E-16	1.849518E-17
4.240000E+03	2.947227E-16	1.846488E-17
4.250000E+03	2.985575E-16	1.843102E-17
4.260000E+03	3.023713E-16	1.839484E-17
4.270000E+03	3.061706E-16	1.835683E-17
4.280000E+03	3.099509E-16	1.831677E-17
4.290000E+03	3.137303E-16	1.827579E-17
4.300000E+03	3.175157E-16	1.823431E-17
4.310000E+03	3.213081E-16	1.819242E-17
4.320000E+03	3.251137E-16	1.815050E-17
4.330000E+03	3.289444E-16	1.810924E-17
4.340000E+03	3.328058E-16	1.806901E-17
4.350000E+03	3.366974E-16	1.802981E-17
4.360000E+03	3.406353E-16	1.799257E-17
4.370000E+03	3.446123E-16	1.795696E-17
4.380000E+03	3.486377E-16	1.792354E-17
4.390000E+03	3.527088E-16	1.789220E-17
4.400000E+03	3.568398E-16	1.786369E-17
4.410000E+03	3.610211E-16	1.783751E-17
4.420000E+03	3.652542E-16	1.781368E-17
4.430000E+03	3.695402E-16	1.779214E-17
4.440000E+03	3.738794E-16	1.777273E-17
4.450000E+03	3.782717E-16	1.775518E-17
4.460000E+03	3.827106E-16	1.773884E-17
4.470000E+03	3.872003E-16	1.772348E-17
4.480000E+03	3.917327E-16	1.770819E-17
4.490000E+03	3.963107E-16	1.769249E-17
4.500000E+03	4.009304E-16	1.767545E-17
4.510000E+03	4.055751E-16	1.765552E-17
4.520000E+03	4.102512E-16	1.763205E-17
4.530000E+03	4.149461E-16	1.760350E-17
4.540000E+03	4.196527E-16	1.756847E-17
4.550000E+03	4.243630E-16	1.752547E-17
4.560000E+03	4.290683E-16	1.747290E-17
4.570000E+03	4.337536E-16	1.740889E-17
4.580000E+03	4.384091E-16	1.733173E-17
4.590000E+03	4.430249E-16	1.723968E-17
4.600000E+03	4.475846E-16	1.713075E-17
4.610000E+03	4.520837E-16	1.700344E-17
4.620000E+03	4.565058E-16	1.685582E-17
4.630000E+03	4.608403E-16	1.668622E-17
4.640000E+03	4.650707E-16	1.649286E-17
4.650000E+03	4.691931E-16	1.627454E-17
4.660000E+03	4.731857E-16	1.602956E-17
4.670000E+03	4.770516E-16	1.575726E-17
4.680000E+03	4.807699E-16	1.545645E-17
4.690000E+03	4.843389E-16	1.512687E-17
4.700000E+03	4.877450E-16	1.476830E-17
4.710000E+03	4.909815E-16	1.438123E-17
4.720000E+03	4.940421E-16	1.396677E-17
4.730000E+03	4.969271E-16	1.352696E-17
4.740000E+03	4.996187E-16	1.306424E-17
4.750000E+03	5.021179E-16	1.258267E-17
4.760000E+03	5.044136E-16	1.208728E-17
4.770000E+03	5.065012E-16	1.158482E-17
4.780000E+03	5.083766E-16	1.108383E-17
4.790000E+03	5.100358E-16	1.059484E-17
4.800000E+03	5.114694E-16	1.013042E-17
4.810000E+03	5.126811E-16	9.705503E-18
4.820000E+03	5.136629E-16	9.336373E-18
4.830000E+03	5.144203E-16	9.040189E-18
4.840000E+03	5.149540E-16	8.832876E-18
4.850000E+03	5.152667E-16	8.726909E-18
4.860000E+03	5.153699E-16	8.728799E-18
4.870000E+03	5.152621E-16	8.836012E-18
4.880000E+03	5.149699E-16	9.038437E-18
4.890000E+03	5.145102E-16	9.320765E-18
4.900000E+03	5.138951E-16	9.665233E-18
4.910000E+03	5.131495E-16	1.005414E-17
4.920000E+03	5.122922E-16	1.047098E-17
4.930000E+03	5.113481E-16	1.090145E-17
4.940000E+03	5.103295E-16	1.133333E-17
4.950000E+03	5.092540E-16	1.175676E-17
4.960000E+03	5.081441E-16	1.216407E-17
4.970000E+03	5.070154E-16	1.254923E-17
4.980000E+03	5.058768E-16	1.290760E-17
4.990000E+03	5.047530E-16	1.323623E-17
5.000000E+03	5.036510E-16	1.353285E-17
5.010000E+03	5.025828E-16	1.379621E-17
5.020000E+03	5.015648E-16	1.402603E-17
5.030000E+03	5.006077E-16	1.422255E-17
5.040000E+03	4.997161E-16	1.438644E-17
5.050000E+03	4.989055E-16	1.451918E-17
5.060000E+03	4.981854E-16	1.462256E-17
5.070000E+03	4.975705E-16	1.469891E-17
5.080000E+03	4.970644E-16	1.475055E-17
5.090000E+03	4.966758E-16	1.478021E-17
5.100000E+03	4.964182E-16	1.479096E-17
5.110000E+03	4.962939E-16	1.478565E-17
5.120000E+03	4.963203E-16	1.476759E-17
5.130000E+03	4.964924E-16	1.473939E-17
5.140000E+03	4.968198E-16	1.470400E-17
5.150000E+03	4.973047E-16	1.466395E-17
5.160000E+03	4.979531E-16	1.462167E-17
5.170000E+03	4.987582E-16	1.457895E-17
5.180000E+03	4.997165E-16	1.453739E-17
5.190000E+03	5.008226E-16	1.449826E-17
5.200000E+03	5.020792E-16	1.446282E-17
5.210000E+03	5.034608E-16	1.443127E-17
5.220000E+03	5.049659E-16	1.440430E-17
5.230000E+03	5.065803E-16	1.438207E-17
5.240000E+03	5.082878E-16	1.436454E-17
5.250000E+03	5.100699E-16	1.435147E-17
5.260000E+03	5.119014E-16	1.434233E-17
5.270000E+03	5.137658E-16	1.433680E-17
5.280000E+03	5.156400E-16	1.433431E-17
5.290000E+03	5.174950E-16	1.433407E-17
5.300000E+03	5.193166E-16	1.433573E-17
5.310000E+03	5.210748E-16	1.433844E-17
5.320000E+03	5.227395E-16	1.434138E-17
5.330000E+03	5.242970E-16	1.434417E-17
5.340000E+03	5.257129E-16	1.434591E-17
5.350000E+03	5.269701E-16	1.434618E-17
5.360000E+03	5.280525E-16	1.434466E-17
5.370000E+03	5.289295E-16	1.434071E-17
5.380000E+03	5.295887E-16	1.433421E-17
5.390000E+03	5.300194E-16	1.432515E-17
5.400000E+03	5.301973E-16	1.431321E-17
5.410000E+03	5.301169E-16	1.429860E-17
5.420000E+03	5.297697E-16	1.428148E-17
5.430000E+03	5.291557E-16	1.426219E-17
5.440000E+03	5.282620E-16	1.424069E-17
5.450000E+03	5.271007E-16	1.421755E-17
5.460000E+03	5.256718E-16	1.419289E-17
5.470000E+03	5.239900E-16	1.416708E-17
5.480000E+03	5.220634E-16	1.414017E-17
5.490000E+03	5.199095E-16	1.411227E-17
5.500000E+03	5.175549E-16	1.408359E-17
5.510000E+03	5.150250E-16	1.405421E-17
5.520000E+03	5.123483E-16	1.402417E-17
5.530000E+03	5.095516E-16	1.399344E-17
5.540000E+03	5.066751E-16	1.396234E-17
5.550000E+03	5.037512E-16	1.393095E-17
5.560000E+03	5.008346E-16	1.390005E-17
5.570000E+03	4.979518E-16	1.386966E-17
5.580000E+03	4.951554E-16	1.384060E-17
5.590000E+03	4.924792E-16	1.381325E-17
5.600000E+03	4.899814E-16	1.378871E-17
5.610000E+03	4.876908E-16	1.376738E-17
5.620000E+03	4.856598E-16	1.375034E-17
5.630000E+03	4.839295E-16	1.373844E-17
5.640000E+03	4.825297E-16	1.373225E-17
5.650000E+03	4.815074E-16	1.373285E-17
5.660000E+03	4.808972E-16	1.374099E-17
5.670000E+03	4.807265E-16	1.375722E-17
5.680000E+03	4.810239E-16	1.378212E-17
5.690000E+03	4.818198E-16	1.381628E-17
5.700000E+03	4.831356E-16	1.386000E-17
5.710000E+03	4.849842E-16	1.391327E-17
5.720000E+03	4.873781E-16	1.397600E-17
5.730000E+03	4.903297E-16	1.404799E-17
5.740000E+03	4.938407E-16	1.412866E-17
5.750000E+03	4.979016E-16	1.421699E-17
5.760000E+03	5.025052E-16	1.431196E-17
5.770000E+03	5.076324E-16	1.441211E-17
5.780000E+03	5.132508E-16	1.451561E-17
5.790000E+03	5.193251E-16	1.462054E-17
5.800000E+03	5.258169E-16	1.472500E-17
5.810000E+03	5.326701E-16	1.482674E-17
5.820000E+03	5.398314E-16	1.492383E-17
5.830000E+03	5.472353E-16	1.501428E-17
5.840000E+03	5.548047E-16	1.509612E-17
5.850000E+03	5.624621E-16	1.516771E-17
5.860000E+03	5.701255E-16	1.522764E-17
5.870000E+03	5.777094E-16	1.527472E-17
5.880000E+03	5.851325E-16	1.530810E-17
5.890000E+03	5.923018E-16	1.532682E-17
5.900000E+03	5.991258E-16	1.533000E-17
5.910000E+03	6.055344E-16	1.531731E-17
5.920000E+03	6.114396E-16	1.528781E-17
5.930000E+03	6.167787E-16	1.524103E-17
5.940000E+03	6.214924E-16	1.517628E-17
5.950000E+03	6.255198E-16	1.509259E-17
5.960000E+03	6.288365E-16	1.498953E-17
5.970000E+03	6.314190E-16	1.486642E-17
5.980000E+03	6.332449E-16	1.472232E-17
5.990000E+03	6.343180E-16	1.455666E-17
6.000000E+03	6.346680E-16	1.436928E-17
6.010000E+03	6.343069E-16	1.415947E-17
6.020000E+03	6.332833E-16	1.392730E-17
6.030000E+03	6.316499E-16	1.367296E-17
6.040000E+03	6.294614E-16	1.339683E-17
6.050000E+03	6.267847E-16	1.309982E-17
6.060000E+03	6.236908E-16	1.278327E-17
6.070000E+03	6.202397E-16	1.244873E-17
6.080000E+03	6.165094E-16	1.209860E-17
6.090000E+03	6.125576E-16	1.173544E-17
6.100000E+03	6.084560E-16	1.136277E-17
6.110000E+03	6.042477E-16	1.098435E-17
6.120000E+03	5.999881E-16	1.060514E-17
6.130000E+03	5.957266E-16	1.023115E-17
6.140000E+03	5.914889E-16	9.869257E-18
6.150000E+03	5.873065E-16	9.527753E-18
6.160000E+03	5.832104E-16	9.216072E-18
6.170000E+03	5.792082E-16	8.943988E-18
6.180000E+03	5.753126E-16	8.721322E-18
6.190000E+03	5.715356E-16	8.556716E-18
6.200000E+03	5.678820E-16	8.456099E-18
6.210000E+03	5.643478E-16	8.420471E-18
6.220000E+03	5.609418E-16	8.445227E-18
6.230000E+03	5.576391E-16	8.521892E-18
6.240000E+03	5.544275E-16	8.640479E-18
6.250000E+03	5.512922E-16	8.790530E-18
6.260000E+03	5.482068E-16	8.961881E-18
6.270000E+03	5.451509E-16	9.145498E-18
6.280000E+03	5.421113E-16	9.333769E-18
6.290000E+03	5.390672E-16	9.520296E-18
6.300000E+03	5.360015E-16	9.700016E-18
6.310000E+03	5.329124E-16	9.869270E-18
6.320000E+03	5.297919E-16	1.002527E-17
6.330000E+03	5.266421E-16	1.016621E-17
6.340000E+03	5.234588E-16	1.029088E-17
6.350000E+03	5.202582E-16	1.039901E-17
6.360000E+03	5.170492E-16	1.049073E-17
6.370000E+03	5.138493E-16	1.056681E-17
6.380000E+03	5.106674E-16	1.062829E-17
6.390000E+03	5.075306E-16	1.067702E-17
6.400000E+03	5.044510E-16	1.071487E-17
6.410000E+03	5.014573E-16	1.074436E-17
6.420000E+03	4.985628E-16	1.076786E-17
6.430000E+03	4.957914E-16	1.078808E-17
6.440000E+03	4.931610E-16	1.080754E-17
6.450000E+03	4.906993E-16	1.082890E-17
6.460000E+03	4.884119E-16	1.085416E-17
6.470000E+03	4.863239E-16	1.088549E-17
6.480000E+03	4.844482E-16	1.092452E-17
6.490000E+03	4.827959E-16	1.097249E-17
6.500000E+03	4.813756E-16	1.103019E-17
6.510000E+03	4.802038E-16	1.109822E-17
6.520000E+03	4.792727E-16	1.117611E-17
6.530000E+03	4.785863E-16	1.126316E-17
6.540000E+03	4.781381E-16	1.135784E-17
6.550000E+03	4.779162E-16	1.145784E-17
6.560000E+03	4.779028E-16	1.156010E-17
6.570000E+03	4.780798E-16	1.166107E-17
6.580000E+03	4.784091E-16	1.175635E-17
6.590000E+03	4.788648E-16	1.184170E-17
6.600000E+03	4.794191E-16	1.191290E-17
6.610000E+03	4.800322E-16	1.196559E-17
6.620000E+03	4.806692E-16	1.199584E-17
6.630000E+03	4.813009E-16	1.200023E-17
6.640000E+03	4.818935E-16	1.197560E-17
6.650000E+03	4.824094E-16	1.191908E-17
6.660000E+03	4.828295E-16	1.182866E-17
6.670000E+03	4.831151E-16	1.170217E-17
6.680000E+03	4.832529E-16	1.153843E-17
6.690000E+03	4.832159E-16	1.133621E-17
6.700000E+03	4.829918E-16	1.109495E-17
6.710000E+03	4.825602E-16	1.081422E-17
6.720000E+03	4.819215E-16	1.049441E-17
6.730000E+03	4.810569E-16	1.013582E-17
6.740000E+03	4.799744E-16	9.739752E-18
6.750000E+03	4.786695E-16	9.307697E-18
6.760000E+03	4.771532E-16	8.842074E-18
6.770000E+03	4.754300E-16	8.345927E-18
6.780000E+03	4.735204E-16	7.823619E-18
6.790000E+03	4.714381E-16	7.280796E-18
6.800000E+03	4.692182E-16	6.725424E-18
6.810000E+03	4.668826E-16	6.168104E-18
6.820000E+03	4.644618E-16	5.623679E-18
6.830000E+03	4.619890E-16	5.112791E-18
6.840000E+03	4.595040E-16	4.663608E-18
6.850000E+03	4.570357E-16	4.311913E-18
6.860000E+03	4.546180E-16	4.096920E-18
6.870000E+03	4.522934E-16	4.048839E-18
6.880000E+03	4.500725E-16	4.167398E-18
6.890000E+03	4.479932E-16	4.419203E-18
6.900000E+03	4.460614E-16	4.760366E-18
6.910000E+03	4.442950E-16	5.151515E-18
6.920000E+03	4.427015E-16	5.562661E-18
6.930000E+03	4.412844E-16	5.972856E-18
6.940000E+03	4.400433E-16	6.368136E-18
6.950000E+03	4.389688E-16	6.739438E-18
6.960000E+03	4.380653E-16	7.081440E-18
6.970000E+03	4.373128E-16	7.390942E-18
6.980000E+03	4.367054E-16	7.666766E-18
6.990000E+03	4.362302E-16	7.908940E-18
7.000000E+03	4.358728E-16	8.118453E-18
7.010000E+03	4.356123E-16	8.296904E-18
7.020000E+03	4.354387E-16	8.446628E-18
7.030000E+03	4.353367E-16	8.570238E-18
7.040000E+03	4.352870E-16	8.670473E-18
7.050000E+03	4.352832E-16	8.750412E-18
7.060000E+03	4.353162E-16	8.813036E-18
7.070000E+03	4.353690E-16	8.861035E-18
7.080000E+03	4.354498E-16	8.897422E-18
7.090000E+03	4.355532E-16	8.924711E-18
7.100000E+03	4.356817E-16	8.945331E-18
7.110000E+03	4.358395E-16	8.961487E-18
7.120000E+03	4.360263E-16	8.975005E-18
7.130000E+03	4.362531E-16	8.987640E-18
7.140000E+03	4.365249E-16	9.000688E-18
7.150000E+03	4.368395E-16	9.014967E-18
7.160000E+03	4.371928E-16	9.030912E-18
7.170000E+03	4.375894E-16	9.048823E-18
7.180000E+03	4.380254E-16	9.068554E-18
7.190000E+03	4.384882E-16	9.089564E-18
7.200000E+03	4.389677E-16	9.111223E-18
7.210000E+03	4.394510E-16	9.132782E-18
7.220000E+03	4.399166E-16	9.153338E-18
7.230000E+03	4.403527E-16	9.172258E-18
7.240000E+03	4.407282E-16	9.188664E-18
7.250000E+03	4.410221E-16	9.202065E-18
7.260000E+03	4.412128E-16	9.212163E-18
7.270000E+03	4.412779E-16	9.218867E-18
7.280000E+03	4.411837E-16	9.222062E-18
7.290000E+03	4.409199E-16	9.222303E-18
7.300000E+03	4.404483E-16	9.219696E-18
7.310000E+03	4.397555E-16	9.214902E-18
7.320000E+03	4.388184E-16	9.208313E-18
7.330000E+03	4.376173E-16	9.200169E-18
7.340000E+03	4.361413E-16	9.190565E-18
7.350000E+03	4.343784E-16	9.179110E-18
7.360000E+03	4.323269E-16	9.165119E-18
7.370000E+03	4.299845E-16	9.147372E-18
7.380000E+03	4.273543E-16	9.124292E-18
7.390000E+03	4.244437E-16	9.094030E-18
7.400000E+03	4.212705E-16	9.054691E-18
7.410000E+03	4.178556E-16	9.004305E-18
7.420000E+03	4.142120E-16	8.940675E-18
7.430000E+03	4.103659E-16	8.861910E-18
7.440000E+03	4.063446E-16	8.766237E-18
7.450000E+03	4.021757E-16	8.652046E-18
7.460000E+03	3.978920E-16	8.518042E-18
7.470000E+03	3.935198E-16	8.363065E-18
7.480000E+03	3.890841E-16	8.186251E-18
7.490000E+03	3.846186E-16	7.987298E-18
7.500000E+03	3.801443E-16	7.766079E-18
7.510000E+03	3.756803E-16	7.522938E-18
7.520000E+03	3.712537E-16	7.258968E-18
7.530000E+03	3.668796E-16	6.975730E-18
7.540000E+03	3.625712E-16	6.675617E-18
7.550000E+03	3.583455E-16	6.362135E-18
7.560000E+03	3.542131E-16	6.039954E-18
7.570000E+03	3.501930E-16	5.715430E-18
7.580000E+03	3.462837E-16	5.396431E-18
7.590000E+03	3.425061E-16	5.093316E-18
7.600000E+03	3.388603E-16	4.818377E-18
7.610000E+03	3.353489E-16	4.585962E-18
7.620000E+03	3.319763E-16	4.411443E-18
7.630000E+03	3.287350E-16	4.308972E-18
7.640000E+03	3.256329E-16	4.288848E-18
7.650000E+03	3.226494E-16	4.353342E-18
7.660000E+03	3.197859E-16	4.496345E-18
7.670000E+03	3.170390E-16	4.706337E-18
7.680000E+03	3.143876E-16	4.969370E-18
7.690000E+03	3.118373E-16	5.272161E-18
7.700000E+03	3.093809E-16	5.602912E-18
7.710000E+03	3.070034E-16	5.951816E-18
7.720000E+03	3.047031E-16	6.311412E-18
7.730000E+03	3.024790E-16	6.676120E-18
7.740000E+03	3.003218E-16	7.041712E-18
7.750000E+03	2.982274E-16	7.405275E-18
7.760000E+03	2.961919E-16	7.764878E-18
