#wls	flux	fluxerr
1.600000E+03	4.460296E-18	2.986294E-18
1.640000E+03	4.407172E-18	2.919245E-18
1.680000E+03	4.358319E-18	2.854974E-18
1.720000E+03	4.314616E-18	2.793975E-18
1.760000E+03	4.275259E-18	2.735638E-18
1.800000E+03	4.241958E-18	2.680961E-18
1.840000E+03	4.213936E-18	2.629330E-18
1.880000E+03	4.192083E-18	2.581181E-18
1.920000E+03	4.176485E-18	2.536423E-18
1.960000E+03	4.168056E-18	2.495458E-18
2.000000E+03	4.166129E-18	2.457712E-18
2.040000E+03	4.171677E-18	2.423586E-18
2.080000E+03	4.184908E-18	2.393001E-18
2.120000E+03	4.206870E-18	2.366338E-18
2.160000E+03	4.237868E-18	2.343519E-18
2.200000E+03	4.277465E-18	2.324046E-18
2.240000E+03	4.327689E-18	2.308750E-18
2.280000E+03	4.387444E-18	2.296735E-18
2.320000E+03	4.458929E-18	2.288840E-18
2.360000E+03	4.542848E-18	2.285054E-18
2.400000E+03	4.638369E-18	2.284575E-18
2.440000E+03	4.748894E-18	2.288675E-18
2.480000E+03	4.873856E-18	2.296607E-18
2.520000E+03	5.014489E-18	2.308474E-18
2.560000E+03	5.173083E-18	2.324803E-18
2.600000E+03	5.352209E-18	2.346144E-18
2.640000E+03	5.552052E-18	2.371917E-18
2.680000E+03	5.775729E-18	2.402762E-18
2.720000E+03	6.026787E-18	2.439363E-18
2.760000E+03	6.308304E-18	2.482077E-18
2.800000E+03	6.622844E-18	2.530942E-18
2.840000E+03	6.977563E-18	2.587616E-18
2.880000E+03	7.377467E-18	2.652690E-18
2.920000E+03	7.828376E-18	2.726862E-18
2.960000E+03	8.340537E-18	2.812115E-18
3.000000E+03	8.923471E-18	2.909810E-18
3.010000E+03	9.081037E-18	2.936195E-18
3.020000E+03	9.245267E-18	2.963917E-18
3.030000E+03	9.413876E-18	2.992203E-18
3.040000E+03	9.589551E-18	3.021871E-18
3.050000E+03	9.771250E-18	3.052544E-18
3.060000E+03	9.959178E-18	3.084246E-18
3.070000E+03	1.015355E-17	3.117000E-18
3.080000E+03	1.035592E-17	3.151235E-18
3.090000E+03	1.056386E-17	3.186165E-18
3.100000E+03	1.078168E-17	3.223041E-18
3.110000E+03	1.100556E-17	3.260663E-18
3.120000E+03	1.123853E-17	3.299879E-18
3.130000E+03	1.148090E-17	3.340724E-18
3.140000E+03	1.173156E-17	3.382814E-18
3.150000E+03	1.199228E-17	3.426596E-18
3.160000E+03	1.226342E-17	3.472108E-18
3.170000E+03	1.254384E-17	3.518961E-18
3.180000E+03	1.283693E-17	3.568040E-18
3.190000E+03	1.314005E-17	3.618533E-18
3.200000E+03	1.345513E-17	3.670902E-18
3.210000E+03	1.378421E-17	3.725621E-18
3.220000E+03	1.412619E-17	3.782303E-18
3.230000E+03	1.447987E-17	3.840551E-18
3.240000E+03	1.485070E-17	3.901723E-18
3.250000E+03	1.523593E-17	3.964989E-18
3.260000E+03	1.563607E-17	4.030393E-18
3.270000E+03	1.605343E-17	4.098429E-18
3.280000E+03	1.648863E-17	4.169148E-18
3.290000E+03	1.694054E-17	4.242150E-18
3.300000E+03	1.741158E-17	4.317935E-18
3.310000E+03	1.790435E-17	4.397021E-18
3.320000E+03	1.841776E-17	4.479006E-18
3.330000E+03	1.895061E-17	4.563472E-18
3.340000E+03	1.950953E-17	4.651881E-18
3.350000E+03	2.009148E-17	4.743354E-18
3.360000E+03	2.069729E-17	4.837941E-18
3.370000E+03	2.132991E-17	4.936176E-18
3.380000E+03	2.199030E-17	5.038119E-18
3.390000E+03	2.267949E-17	5.143828E-18
3.400000E+03	2.339851E-17	5.253358E-18
3.410000E+03	2.414843E-17	5.366763E-18
3.420000E+03	2.493263E-17	5.484598E-18
3.430000E+03	2.575001E-17	5.606413E-18
3.440000E+03	2.660411E-17	5.732765E-18
3.450000E+03	2.749379E-17	5.863187E-18
3.460000E+03	2.842519E-17	5.998757E-18
3.470000E+03	2.939729E-17	6.139002E-18
3.480000E+03	3.040888E-17	6.283426E-18
3.490000E+03	3.146909E-17	6.433651E-18
3.500000E+03	3.257429E-17	6.588641E-18
3.510000E+03	3.372592E-17	6.748409E-18
3.520000E+03	3.492820E-17	6.913506E-18
3.530000E+03	3.618560E-17	7.084491E-18
3.540000E+03	3.749415E-17	7.260253E-18
3.550000E+03	3.886120E-17	7.441887E-18
3.560000E+03	4.028560E-17	7.628807E-18
3.570000E+03	4.177204E-17	7.821539E-18
3.580000E+03	4.332235E-17	8.020036E-18
3.590000E+03	4.493518E-17	8.223648E-18
3.600000E+03	4.661863E-17	8.433453E-18
3.610000E+03	4.837136E-17	8.648771E-18
3.620000E+03	5.019852E-17	8.870075E-18
3.630000E+03	5.209857E-17	9.096634E-18
3.640000E+03	5.407671E-17	9.328884E-18
3.650000E+03	5.613120E-17	9.566039E-18
3.660000E+03	5.827087E-17	9.809108E-18
3.670000E+03	6.049392E-17	1.005726E-17
3.680000E+03	6.280574E-17	1.031085E-17
3.690000E+03	6.520424E-17	1.056899E-17
3.700000E+03	6.769474E-17	1.083198E-17
3.710000E+03	7.027478E-17	1.109887E-17
3.720000E+03	7.295366E-17	1.137054E-17
3.730000E+03	7.572870E-17	1.164598E-17
3.740000E+03	7.860098E-17	1.192475E-17
3.750000E+03	8.157143E-17	1.220640E-17
3.760000E+03	8.464512E-17	1.249108E-17
3.770000E+03	8.782280E-17	1.277829E-17
3.780000E+03	9.110048E-17	1.306682E-17
3.790000E+03	9.448736E-17	1.335741E-17
3.800000E+03	9.797441E-17	1.364815E-17
3.810000E+03	1.015706E-16	1.393972E-17
3.820000E+03	1.052708E-16	1.423081E-17
3.830000E+03	1.090791E-16	1.452142E-17
3.840000E+03	1.129895E-16	1.481019E-17
3.850000E+03	1.170007E-16	1.509643E-17
3.860000E+03	1.211157E-16	1.538007E-17
3.870000E+03	1.253327E-16	1.566038E-17
3.880000E+03	1.296493E-16	1.593664E-17
3.890000E+03	1.340574E-16	1.620747E-17
3.900000E+03	1.385590E-16	1.647281E-17
3.910000E+03	1.431562E-16	1.673258E-17
3.920000E+03	1.478340E-16	1.698482E-17
3.930000E+03	1.525937E-16	1.722950E-17
3.940000E+03	1.574362E-16	1.746661E-17
3.950000E+03	1.623453E-16	1.769430E-17
3.960000E+03	1.673213E-16	1.791265E-17
3.970000E+03	1.723584E-16	1.812115E-17
3.980000E+03	1.774566E-16	1.831994E-17
3.990000E+03	1.825982E-16	1.850743E-17
4.000000E+03	1.877768E-16	1.868331E-17
4.010000E+03	1.929977E-16	1.884849E-17
4.020000E+03	1.982428E-16	1.900162E-17
4.030000E+03	2.035055E-16	1.914259E-17
4.040000E+03	2.087855E-16	1.927195E-17
4.050000E+03	2.140767E-16	1.938971E-17
4.060000E+03	2.193610E-16	1.949490E-17
4.070000E+03	2.246386E-16	1.958827E-17
4.080000E+03	2.299044E-16	1.967007E-17
4.090000E+03	2.351472E-16	1.974010E-17
4.100000E+03	2.403624E-16	1.979879E-17
4.110000E+03	2.455523E-16	1.984709E-17
4.120000E+03	2.507008E-16	1.988450E-17
4.130000E+03	2.558050E-16	1.991159E-17
4.140000E+03	2.608624E-16	1.992898E-17
4.150000E+03	2.658774E-16	1.993779E-17
4.160000E+03	2.708299E-16	1.993726E-17
4.170000E+03	2.757255E-16	1.992857E-17
4.180000E+03	2.805642E-16	1.991244E-17
4.190000E+03	2.853402E-16	1.988915E-17
4.200000E+03	2.900548E-16	1.985941E-17
4.210000E+03	2.946973E-16	1.982310E-17
4.220000E+03	2.992764E-16	1.978138E-17
4.230000E+03	3.037951E-16	1.973494E-17
4.240000E+03	3.082447E-16	1.968365E-17
4.250000E+03	3.126231E-16	1.962780E-17
4.260000E+03	3.169414E-16	1.956842E-17
4.270000E+03	3.211986E-16	1.950576E-17
4.280000E+03	3.253941E-16	1.944003E-17
4.290000E+03	3.295281E-16	1.937147E-17
4.300000E+03	3.336008E-16	1.930029E-17
4.310000E+03	3.376250E-16	1.922740E-17
4.320000E+03	3.415955E-16	1.915265E-17
4.330000E+03	3.455132E-16	1.907624E-17
4.340000E+03	3.493792E-16	1.899839E-17
4.350000E+03	3.532066E-16	1.891994E-17
4.360000E+03	3.569844E-16	1.884045E-17
4.370000E+03	3.607193E-16	1.876041E-17
4.380000E+03	3.644179E-16	1.868029E-17
4.390000E+03	3.680687E-16	1.859964E-17
4.400000E+03	3.716892E-16	1.851944E-17
4.410000E+03	3.752671E-16	1.843913E-17
4.420000E+03	3.788012E-16	1.835872E-17
4.430000E+03	3.823017E-16	1.827865E-17
4.440000E+03	3.857660E-16	1.819872E-17
4.450000E+03	3.891910E-16	1.811859E-17
4.460000E+03	3.925788E-16	1.803811E-17
4.470000E+03	3.959247E-16	1.795668E-17
4.480000E+03	3.992232E-16	1.787359E-17
4.490000E+03	4.024856E-16	1.778875E-17
4.500000E+03	4.057046E-16	1.770114E-17
4.510000E+03	4.088727E-16	1.760962E-17
4.520000E+03	4.119929E-16	1.751340E-17
4.530000E+03	4.150618E-16	1.741132E-17
4.540000E+03	4.180756E-16	1.730211E-17
4.550000E+03	4.210298E-16	1.718441E-17
4.560000E+03	4.239197E-16	1.705674E-17
4.570000E+03	4.267457E-16	1.691784E-17
4.580000E+03	4.294967E-16	1.676588E-17
4.590000E+03	4.321786E-16	1.659972E-17
4.600000E+03	4.347800E-16	1.641749E-17
4.610000E+03	4.372894E-16	1.621736E-17
4.620000E+03	4.397183E-16	1.599837E-17
4.630000E+03	4.420498E-16	1.575854E-17
4.640000E+03	4.442842E-16	1.549659E-17
4.650000E+03	4.464164E-16	1.521113E-17
4.660000E+03	4.484415E-16	1.490091E-17
4.670000E+03	4.503609E-16	1.456501E-17
4.680000E+03	4.521646E-16	1.420239E-17
4.690000E+03	4.538490E-16	1.381242E-17
4.700000E+03	4.554166E-16	1.339500E-17
4.710000E+03	4.568588E-16	1.295008E-17
4.720000E+03	4.581790E-16	1.247843E-17
4.730000E+03	4.593697E-16	1.198116E-17
4.740000E+03	4.604241E-16	1.146014E-17
4.750000E+03	4.613525E-16	1.091867E-17
4.760000E+03	4.621433E-16	1.036072E-17
4.770000E+03	4.628022E-16	9.792249E-18
4.780000E+03	4.633298E-16	9.221084E-18
4.790000E+03	4.637272E-16	8.657602E-18
4.800000E+03	4.640013E-16	8.115422E-18
4.810000E+03	4.641489E-16	7.611663E-18
4.820000E+03	4.641838E-16	7.167607E-18
4.830000E+03	4.641150E-16	6.807581E-18
4.840000E+03	4.639415E-16	6.556497E-18
4.850000E+03	4.636794E-16	6.435754E-18
4.860000E+03	4.633394E-16	6.456938E-18
4.870000E+03	4.629199E-16	6.615465E-18
4.880000E+03	4.624281E-16	6.892862E-18
4.890000E+03	4.618723E-16	7.263860E-18
4.900000E+03	4.612564E-16	7.701951E-18
4.910000E+03	4.605904E-16	8.183169E-18
4.920000E+03	4.598800E-16	8.687437E-18
4.930000E+03	4.591369E-16	9.198910E-18
4.940000E+03	4.583579E-16	9.705092E-18
4.950000E+03	4.575659E-16	1.019702E-17
4.960000E+03	4.567637E-16	1.066771E-17
4.970000E+03	4.559593E-16	1.111215E-17
4.980000E+03	4.551658E-16	1.152691E-17
4.990000E+03	4.543914E-16	1.190961E-17
5.000000E+03	4.536391E-16	1.225865E-17
5.010000E+03	4.529269E-16	1.257358E-17
5.020000E+03	4.522577E-16	1.285414E-17
5.030000E+03	4.516393E-16	1.310071E-17
5.040000E+03	4.510841E-16	1.331424E-17
5.050000E+03	4.505948E-16	1.349575E-17
5.060000E+03	4.501883E-16	1.364697E-17
5.070000E+03	4.498567E-16	1.376917E-17
5.080000E+03	4.496214E-16	1.386470E-17
5.090000E+03	4.494835E-16	1.393547E-17
5.100000E+03	4.494438E-16	1.398351E-17
5.110000E+03	4.495170E-16	1.401139E-17
5.120000E+03	4.496974E-16	1.402111E-17
5.130000E+03	4.499983E-16	1.401529E-17
5.140000E+03	4.504170E-16	1.399606E-17
5.150000E+03	4.509547E-16	1.396567E-17
5.160000E+03	4.516117E-16	1.392625E-17
5.170000E+03	4.523866E-16	1.387986E-17
5.180000E+03	4.532769E-16	1.382841E-17
5.190000E+03	4.542837E-16	1.377384E-17
5.200000E+03	4.553968E-16	1.371762E-17
5.210000E+03	4.566095E-16	1.366124E-17
5.220000E+03	4.579137E-16	1.360601E-17
5.230000E+03	4.593001E-16	1.355308E-17
5.240000E+03	4.607578E-16	1.350346E-17
5.250000E+03	4.622747E-16	1.345796E-17
5.260000E+03	4.638425E-16	1.341740E-17
5.270000E+03	4.654371E-16	1.338199E-17
5.280000E+03	4.670530E-16	1.335238E-17
5.290000E+03	4.686642E-16	1.332848E-17
5.300000E+03	4.702588E-16	1.331049E-17
5.310000E+03	4.718192E-16	1.329830E-17
5.320000E+03	4.733279E-16	1.329170E-17
5.330000E+03	4.747667E-16	1.329033E-17
5.340000E+03	4.761180E-16	1.329374E-17
5.350000E+03	4.773591E-16	1.330121E-17
5.360000E+03	4.784731E-16	1.331210E-17
5.370000E+03	4.794534E-16	1.332596E-17
5.380000E+03	4.802701E-16	1.334161E-17
5.390000E+03	4.809188E-16	1.335852E-17
5.400000E+03	4.813871E-16	1.337586E-17
5.410000E+03	4.816590E-16	1.339269E-17
5.420000E+03	4.817255E-16	1.340818E-17
5.430000E+03	4.815795E-16	1.342157E-17
5.440000E+03	4.812160E-16	1.343213E-17
5.450000E+03	4.806327E-16	1.343921E-17
5.460000E+03	4.798299E-16	1.344229E-17
5.470000E+03	4.788107E-16	1.344098E-17
5.480000E+03	4.775763E-16	1.343487E-17
5.490000E+03	4.761403E-16	1.342400E-17
5.500000E+03	4.745100E-16	1.340828E-17
5.510000E+03	4.727049E-16	1.338806E-17
5.520000E+03	4.707377E-16	1.336354E-17
5.530000E+03	4.686289E-16	1.333523E-17
5.540000E+03	4.664060E-16	1.330386E-17
5.550000E+03	4.640892E-16	1.327000E-17
5.560000E+03	4.617149E-16	1.323471E-17
5.570000E+03	4.592979E-16	1.319842E-17
5.580000E+03	4.568820E-16	1.316237E-17
5.590000E+03	4.544934E-16	1.312727E-17
5.600000E+03	4.521634E-16	1.309392E-17
5.610000E+03	4.499277E-16	1.306317E-17
5.620000E+03	4.478083E-16	1.303542E-17
5.630000E+03	4.458394E-16	1.301133E-17
5.640000E+03	4.440543E-16	1.299142E-17
5.650000E+03	4.424709E-16	1.297573E-17
5.660000E+03	4.411230E-16	1.296465E-17
5.670000E+03	4.400244E-16	1.295793E-17
5.680000E+03	4.392037E-16	1.295570E-17
5.690000E+03	4.386692E-16	1.295747E-17
5.700000E+03	4.384393E-16	1.296305E-17
5.710000E+03	4.385247E-16	1.297200E-17
5.720000E+03	4.389285E-16	1.298372E-17
5.730000E+03	4.396547E-16	1.299767E-17
5.740000E+03	4.407075E-16	1.301342E-17
5.750000E+03	4.420792E-16	1.303026E-17
5.760000E+03	4.437663E-16	1.304771E-17
5.770000E+03	4.457486E-16	1.306493E-17
5.780000E+03	4.480144E-16	1.308142E-17
5.790000E+03	4.505435E-16	1.309660E-17
5.800000E+03	4.533115E-16	1.310985E-17
5.810000E+03	4.562850E-16	1.312042E-17
5.820000E+03	4.594356E-16	1.312783E-17
5.830000E+03	4.627176E-16	1.313118E-17
5.840000E+03	4.660996E-16	1.313005E-17
5.850000E+03	4.695339E-16	1.312362E-17
5.860000E+03	4.729707E-16	1.311104E-17
5.870000E+03	4.763673E-16	1.309168E-17
5.880000E+03	4.796718E-16	1.306460E-17
5.890000E+03	4.828418E-16	1.302910E-17
5.900000E+03	4.858271E-16	1.298418E-17
5.910000E+03	4.885803E-16	1.292881E-17
5.920000E+03	4.910715E-16	1.286232E-17
5.930000E+03	4.932570E-16	1.278351E-17
5.940000E+03	4.951129E-16	1.269159E-17
5.950000E+03	4.966121E-16	1.258549E-17
5.960000E+03	4.977395E-16	1.246434E-17
5.970000E+03	4.984921E-16	1.232741E-17
5.980000E+03	4.988601E-16	1.217370E-17
5.990000E+03	4.988607E-16	1.200276E-17
6.000000E+03	4.984990E-16	1.181378E-17
6.010000E+03	4.978061E-16	1.160656E-17
6.020000E+03	4.968001E-16	1.138056E-17
6.030000E+03	4.955140E-16	1.113569E-17
6.040000E+03	4.939943E-16	1.087222E-17
6.050000E+03	4.922719E-16	1.059027E-17
6.060000E+03	4.903937E-16	1.029053E-17
6.070000E+03	4.884029E-16	9.973949E-18
6.080000E+03	4.863421E-16	9.641878E-18
6.090000E+03	4.842480E-16	9.296138E-18
6.100000E+03	4.821688E-16	8.939511E-18
6.110000E+03	4.801308E-16	8.575313E-18
6.120000E+03	4.781750E-16	8.208335E-18
6.130000E+03	4.763189E-16	7.844458E-18
6.140000E+03	4.745847E-16	7.491452E-18
6.150000E+03	4.729934E-16	7.159116E-18
6.160000E+03	4.715471E-16	6.859063E-18
6.170000E+03	4.702421E-16	6.604624E-18
6.180000E+03	4.690738E-16	6.409913E-18
6.190000E+03	4.680409E-16	6.288028E-18
6.200000E+03	4.671321E-16	6.248251E-18
6.210000E+03	4.663394E-16	6.292122E-18
6.220000E+03	4.656487E-16	6.411552E-18
6.230000E+03	4.650281E-16	6.593081E-18
6.240000E+03	4.644519E-16	6.821367E-18
6.250000E+03	4.638921E-16	7.081312E-18
6.260000E+03	4.633150E-16	7.359373E-18
6.270000E+03	4.626827E-16	7.644155E-18
6.280000E+03	4.619671E-16	7.926718E-18
6.290000E+03	4.611424E-16	8.200273E-18
6.300000E+03	4.601720E-16	8.459652E-18
6.310000E+03	4.590414E-16	8.701577E-18
6.320000E+03	4.577316E-16	8.923911E-18
6.330000E+03	4.562239E-16	9.125481E-18
6.340000E+03	4.545187E-16	9.306248E-18
6.350000E+03	4.526036E-16	9.466498E-18
6.360000E+03	4.504896E-16	9.607435E-18
6.370000E+03	4.481837E-16	9.730502E-18
6.380000E+03	4.456928E-16	9.837353E-18
6.390000E+03	4.430411E-16	9.930148E-18
6.400000E+03	4.402425E-16	1.001087E-17
6.410000E+03	4.373223E-16	1.008175E-17
6.420000E+03	4.342981E-16	1.014474E-17
6.430000E+03	4.311929E-16	1.020182E-17
6.440000E+03	4.280386E-16	1.025496E-17
6.450000E+03	4.248443E-16	1.030539E-17
6.460000E+03	4.216357E-16	1.035446E-17
6.470000E+03	4.184278E-16	1.040298E-17
6.480000E+03	4.152381E-16	1.045151E-17
6.490000E+03	4.120773E-16	1.050015E-17
6.500000E+03	4.089538E-16	1.054861E-17
6.510000E+03	4.058860E-16	1.059659E-17
6.520000E+03	4.028850E-16	1.064336E-17
6.530000E+03	3.999636E-16	1.068800E-17
6.540000E+03	3.971192E-16	1.072904E-17
6.550000E+03	3.943592E-16	1.076511E-17
6.560000E+03	3.916847E-16	1.079464E-17
6.570000E+03	3.890905E-16	1.081584E-17
6.580000E+03	3.865698E-16	1.082690E-17
6.590000E+03	3.841186E-16	1.082616E-17
6.600000E+03	3.817277E-16	1.081190E-17
6.610000E+03	3.793915E-16	1.078268E-17
6.620000E+03	3.770917E-16	1.073682E-17
6.630000E+03	3.748265E-16	1.067334E-17
6.640000E+03	3.725823E-16	1.059108E-17
6.650000E+03	3.703542E-16	1.048940E-17
6.660000E+03	3.681341E-16	1.036773E-17
6.670000E+03	3.659152E-16	1.022582E-17
6.680000E+03	3.636878E-16	1.006353E-17
6.690000E+03	3.614561E-16	9.881361E-18
6.700000E+03	3.592134E-16	9.679754E-18
6.710000E+03	3.569549E-16	9.459461E-18
6.720000E+03	3.546896E-16	9.221872E-18
6.730000E+03	3.524160E-16	8.968391E-18
6.740000E+03	3.501423E-16	8.700998E-18
6.750000E+03	3.478706E-16	8.421873E-18
6.760000E+03	3.456084E-16	8.133749E-18
6.770000E+03	3.433686E-16	7.839944E-18
6.780000E+03	3.411578E-16	7.544145E-18
6.790000E+03	3.389913E-16	7.250827E-18
6.800000E+03	3.368779E-16	6.964937E-18
6.810000E+03	3.348346E-16	6.692237E-18
6.820000E+03	3.328716E-16	6.438916E-18
6.830000E+03	3.310103E-16	6.211796E-18
6.840000E+03	3.292535E-16	6.017399E-18
6.850000E+03	3.276259E-16	5.862208E-18
6.860000E+03	3.261327E-16	5.751144E-18
6.870000E+03	3.247894E-16	5.687286E-18
6.880000E+03	3.236057E-16	5.670314E-18
6.890000E+03	3.225890E-16	5.696366E-18
6.900000E+03	3.217416E-16	5.759457E-18
6.910000E+03	3.210713E-16	5.852704E-18
6.920000E+03	3.205809E-16	5.968973E-18
6.930000E+03	3.202676E-16	6.101479E-18
6.940000E+03	3.201347E-16	6.244370E-18
6.950000E+03	3.201766E-16	6.392600E-18
6.960000E+03	3.203974E-16	6.542324E-18
6.970000E+03	3.207813E-16	6.690226E-18
6.980000E+03	3.213300E-16	6.834181E-18
6.990000E+03	3.220368E-16	6.972600E-18
7.000000E+03	3.228903E-16	7.104376E-18
7.010000E+03	3.238824E-16	7.228938E-18
7.020000E+03	3.250083E-16	7.346163E-18
7.030000E+03	3.262556E-16	7.456023E-18
7.040000E+03	3.276155E-16	7.558775E-18
7.050000E+03	3.290798E-16	7.654813E-18
7.060000E+03	3.306403E-16	7.744613E-18
7.070000E+03	3.322855E-16	7.828597E-18
7.080000E+03	3.340164E-16	7.907480E-18
7.090000E+03	3.358182E-16	7.981576E-18
7.100000E+03	3.376888E-16	8.051449E-18
7.110000E+03	3.396177E-16	8.117415E-18
7.120000E+03	3.415987E-16	8.179828E-18
7.130000E+03	3.436294E-16	8.239073E-18
7.140000E+03	3.456986E-16	8.295273E-18
7.150000E+03	3.477981E-16	8.348583E-18
7.160000E+03	3.499190E-16	8.399099E-18
7.170000E+03	3.520465E-16	8.446762E-18
7.180000E+03	3.541728E-16	8.491673E-18
7.190000E+03	3.562843E-16	8.533800E-18
7.200000E+03	3.583610E-16	8.572981E-18
7.210000E+03	3.603856E-16	8.609148E-18
7.220000E+03	3.623388E-16	8.642234E-18
7.230000E+03	3.642044E-16	8.672286E-18
7.240000E+03	3.659509E-16	8.699048E-18
7.250000E+03	3.675596E-16	8.722600E-18
7.260000E+03	3.690017E-16	8.742821E-18
7.270000E+03	3.702619E-16	8.759922E-18
7.280000E+03	3.713025E-16	8.773559E-18
7.290000E+03	3.721093E-16	8.783899E-18
7.300000E+03	3.726562E-16	8.790725E-18
7.310000E+03	3.729285E-16	8.793948E-18
7.320000E+03	3.729005E-16	8.793029E-18
7.330000E+03	3.725686E-16	8.787723E-18
7.340000E+03	3.719144E-16	8.777178E-18
7.350000E+03	3.709427E-16	8.760804E-18
7.360000E+03	3.696441E-16	8.737391E-18
7.370000E+03	3.680325E-16	8.706009E-18
7.380000E+03	3.661079E-16	8.665146E-18
7.390000E+03	3.638929E-16	8.613625E-18
7.400000E+03	3.614003E-16	8.549874E-18
7.410000E+03	3.586462E-16	8.472304E-18
7.420000E+03	3.556633E-16	8.379675E-18
7.430000E+03	3.524768E-16	8.270595E-18
7.440000E+03	3.491049E-16	8.143576E-18
7.450000E+03	3.455796E-16	7.997592E-18
7.460000E+03	3.419289E-16	7.831687E-18
7.470000E+03	3.381843E-16	7.645214E-18
7.480000E+03	3.343635E-16	7.437464E-18
7.490000E+03	3.304957E-16	7.208295E-18
7.500000E+03	3.265998E-16	6.957679E-18
7.510000E+03	3.227053E-16	6.686207E-18
7.520000E+03	3.188225E-16	6.394525E-18
7.530000E+03	3.149681E-16	6.083962E-18
7.540000E+03	3.111599E-16	5.756544E-18
7.550000E+03	3.074055E-16	5.414934E-18
7.560000E+03	3.037140E-16	5.062930E-18
7.570000E+03	3.000923E-16	4.705732E-18
7.580000E+03	2.965487E-16	4.350496E-18
7.590000E+03	2.930820E-16	4.006804E-18
7.600000E+03	2.896972E-16	3.687609E-18
7.610000E+03	2.863864E-16	3.409485E-18
7.620000E+03	2.831560E-16	3.192490E-18
7.630000E+03	2.800011E-16	3.057192E-18
7.640000E+03	2.769241E-16	3.019371E-18
7.650000E+03	2.739214E-16	3.082205E-18
7.660000E+03	2.709943E-16	3.234198E-18
7.670000E+03	2.681480E-16	3.456162E-18
7.680000E+03	2.653811E-16	3.727697E-18
7.690000E+03	2.626988E-16	4.031292E-18
7.700000E+03	2.600991E-16	4.353377E-18
7.710000E+03	2.575863E-16	4.684258E-18
7.720000E+03	2.551570E-16	5.017136E-18
7.730000E+03	2.528178E-16	5.347658E-18
7.740000E+03	2.505610E-16	5.672835E-18
7.750000E+03	2.483852E-16	5.990978E-18
7.760000E+03	2.462953E-16	6.301416E-18
