#wls	flux	fluxerr
1.600000E+03	6.250150E-18	4.341237E-18
1.640000E+03	6.284126E-18	4.326177E-18
1.680000E+03	6.325544E-18	4.314844E-18
1.720000E+03	6.374742E-18	4.307302E-18
1.760000E+03	6.432092E-18	4.303622E-18
1.800000E+03	6.498011E-18	4.303885E-18
1.840000E+03	6.574144E-18	4.308963E-18
1.880000E+03	6.661027E-18	4.318955E-18
1.920000E+03	6.758050E-18	4.333198E-18
1.960000E+03	6.868281E-18	4.353374E-18
2.000000E+03	6.991262E-18	4.378853E-18
2.040000E+03	7.129062E-18	4.410574E-18
2.080000E+03	7.282643E-18	4.448725E-18
2.120000E+03	7.453077E-18	4.493516E-18
2.160000E+03	7.642862E-18	4.545960E-18
2.200000E+03	7.853394E-18	4.606327E-18
2.240000E+03	8.086230E-18	4.674920E-18
2.280000E+03	8.343106E-18	4.752074E-18
2.320000E+03	8.628774E-18	4.839739E-18
2.360000E+03	8.944138E-18	4.937558E-18
2.400000E+03	9.293191E-18	5.046795E-18
2.440000E+03	9.678849E-18	5.167976E-18
2.480000E+03	1.010748E-17	5.303305E-18
2.520000E+03	1.058297E-17	5.453451E-18
2.560000E+03	1.110967E-17	5.619133E-18
2.600000E+03	1.169584E-17	5.802815E-18
2.640000E+03	1.234719E-17	6.005380E-18
2.680000E+03	1.307194E-17	6.228629E-18
2.720000E+03	1.387927E-17	6.474454E-18
2.760000E+03	1.478141E-17	6.745727E-18
2.800000E+03	1.579007E-17	7.044542E-18
2.840000E+03	1.691618E-17	7.372124E-18
2.880000E+03	1.818069E-17	7.733441E-18
2.920000E+03	1.959800E-17	8.129809E-18
2.960000E+03	2.118871E-17	8.564378E-18
3.000000E+03	2.297826E-17	9.041247E-18
3.010000E+03	2.345931E-17	9.167290E-18
3.020000E+03	2.395553E-17	9.296494E-18
3.030000E+03	2.446466E-17	9.427858E-18
3.040000E+03	2.499234E-17	9.563428E-18
3.050000E+03	2.553364E-17	9.701175E-18
3.060000E+03	2.609161E-17	9.842127E-18
3.070000E+03	2.666664E-17	9.986292E-18
3.080000E+03	2.725915E-17	1.013368E-17
3.090000E+03	2.786957E-17	1.028428E-17
3.100000E+03	2.849830E-17	1.043811E-17
3.110000E+03	2.914577E-17	1.059515E-17
3.120000E+03	2.981243E-17	1.075540E-17
3.130000E+03	3.050168E-17	1.091993E-17
3.140000E+03	3.120805E-17	1.108657E-17
3.150000E+03	3.193798E-17	1.125746E-17
3.160000E+03	3.269203E-17	1.143260E-17
3.170000E+03	3.346765E-17	1.161087E-17
3.180000E+03	3.426527E-17	1.179224E-17
3.190000E+03	3.508858E-17	1.197779E-17
3.200000E+03	3.593490E-17	1.216637E-17
3.210000E+03	3.680798E-17	1.235906E-17
3.220000E+03	3.770841E-17	1.255580E-17
3.230000E+03	3.863678E-17	1.275655E-17
3.240000E+03	3.959023E-17	1.296014E-17
3.250000E+03	4.057268E-17	1.316761E-17
3.260000E+03	4.158826E-17	1.338005E-17
3.270000E+03	4.263051E-17	1.359510E-17
3.280000E+03	4.370712E-17	1.381495E-17
3.290000E+03	4.481144E-17	1.403723E-17
3.300000E+03	4.595133E-17	1.426413E-17
3.310000E+03	4.712370E-17	1.449440E-17
3.320000E+03	4.833291E-17	1.472907E-17
3.330000E+03	4.957575E-17	1.496685E-17
3.340000E+03	5.085664E-17	1.520878E-17
3.350000E+03	5.217226E-17	1.545354E-17
3.360000E+03	5.353111E-17	1.570331E-17
3.370000E+03	5.492173E-17	1.595441E-17
3.380000E+03	5.635675E-17	1.621017E-17
3.390000E+03	5.783270E-17	1.646924E-17
3.400000E+03	5.935011E-17	1.673140E-17
3.410000E+03	6.090946E-17	1.699644E-17
3.420000E+03	6.251555E-17	1.726531E-17
3.430000E+03	6.416458E-17	1.753658E-17
3.440000E+03	6.585692E-17	1.780999E-17
3.450000E+03	6.759740E-17	1.808646E-17
3.460000E+03	6.938193E-17	1.836449E-17
3.470000E+03	7.121996E-17	1.864620E-17
3.480000E+03	7.310267E-17	1.892884E-17
3.490000E+03	7.503491E-17	1.921330E-17
3.500000E+03	7.701691E-17	1.949922E-17
3.510000E+03	7.905365E-17	1.978743E-17
3.520000E+03	8.114051E-17	2.007635E-17
3.530000E+03	8.327751E-17	2.036558E-17
3.540000E+03	8.546958E-17	2.065591E-17
3.550000E+03	8.771169E-17	2.094570E-17
3.560000E+03	9.001378E-17	2.123691E-17
3.570000E+03	9.236559E-17	2.152667E-17
3.580000E+03	9.477187E-17	2.181571E-17
3.590000E+03	9.723226E-17	2.210354E-17
3.600000E+03	9.975160E-17	2.239085E-17
3.610000E+03	1.023241E-16	2.267591E-17
3.620000E+03	1.049491E-16	2.295822E-17
3.630000E+03	1.076366E-16	2.323958E-17
3.640000E+03	1.103751E-16	2.351709E-17
3.650000E+03	1.131634E-16	2.379019E-17
3.660000E+03	1.160115E-16	2.406065E-17
3.670000E+03	1.189185E-16	2.432789E-17
3.680000E+03	1.218717E-16	2.458901E-17
3.690000E+03	1.248809E-16	2.484573E-17
3.700000E+03	1.279390E-16	2.509633E-17
3.710000E+03	1.310557E-16	2.534249E-17
3.720000E+03	1.342178E-16	2.558137E-17
3.730000E+03	1.374289E-16	2.581352E-17
3.740000E+03	1.406872E-16	2.603838E-17
3.750000E+03	1.439901E-16	2.625538E-17
3.760000E+03	1.473415E-16	2.646509E-17
3.770000E+03	1.507328E-16	2.666587E-17
3.780000E+03	1.541674E-16	2.685829E-17
3.790000E+03	1.576425E-16	2.704186E-17
3.800000E+03	1.611491E-16	2.721506E-17
3.810000E+03	1.646964E-16	2.737954E-17
3.820000E+03	1.682689E-16	2.753281E-17
3.830000E+03	1.718757E-16	2.767656E-17
3.840000E+03	1.755134E-16	2.781041E-17
3.850000E+03	1.791724E-16	2.793304E-17
3.860000E+03	1.828490E-16	2.804422E-17
3.870000E+03	1.865457E-16	2.814469E-17
3.880000E+03	1.902653E-16	2.823520E-17
3.890000E+03	1.939912E-16	2.831372E-17
3.900000E+03	1.977258E-16	2.838111E-17
3.910000E+03	2.014654E-16	2.843733E-17
3.920000E+03	2.052060E-16	2.848240E-17
3.930000E+03	2.089500E-16	2.851726E-17
3.940000E+03	2.126871E-16	2.854113E-17
3.950000E+03	2.164136E-16	2.855421E-17
3.960000E+03	2.201319E-16	2.855753E-17
3.970000E+03	2.238382E-16	2.855136E-17
3.980000E+03	2.275227E-16	2.853517E-17
3.990000E+03	2.311816E-16	2.850936E-17
4.000000E+03	2.348180E-16	2.847512E-17
4.010000E+03	2.384285E-16	2.843287E-17
4.020000E+03	2.420100E-16	2.838308E-17
4.030000E+03	2.455533E-16	2.832552E-17
4.040000E+03	2.490557E-16	2.826076E-17
4.050000E+03	2.525208E-16	2.819009E-17
4.060000E+03	2.559466E-16	2.811407E-17
4.070000E+03	2.593245E-16	2.803263E-17
4.080000E+03	2.626531E-16	2.794640E-17
4.090000E+03	2.659369E-16	2.785665E-17
4.100000E+03	2.691625E-16	2.776271E-17
4.110000E+03	2.723412E-16	2.766648E-17
4.120000E+03	2.754604E-16	2.756731E-17
4.130000E+03	2.785258E-16	2.746641E-17
4.140000E+03	2.815315E-16	2.736376E-17
4.150000E+03	2.844839E-16	2.726049E-17
4.160000E+03	2.873718E-16	2.715596E-17
4.170000E+03	2.902022E-16	2.705125E-17
4.180000E+03	2.929706E-16	2.694625E-17
4.190000E+03	2.956787E-16	2.684139E-17
4.200000E+03	2.983285E-16	2.673703E-17
4.210000E+03	3.009165E-16	2.663299E-17
4.220000E+03	3.034397E-16	2.652907E-17
4.230000E+03	3.059066E-16	2.642601E-17
4.240000E+03	3.083091E-16	2.632305E-17
4.250000E+03	3.106560E-16	2.622082E-17
4.260000E+03	3.129401E-16	2.611851E-17
4.270000E+03	3.151650E-16	2.601620E-17
4.280000E+03	3.173294E-16	2.591348E-17
4.290000E+03	3.194322E-16	2.580992E-17
4.300000E+03	3.214723E-16	2.570505E-17
4.310000E+03	3.234595E-16	2.559924E-17
4.320000E+03	3.253827E-16	2.549111E-17
4.330000E+03	3.272413E-16	2.538014E-17
4.340000E+03	3.290454E-16	2.526656E-17
4.350000E+03	3.307791E-16	2.514862E-17
4.360000E+03	3.324527E-16	2.502649E-17
4.370000E+03	3.340607E-16	2.489919E-17
4.380000E+03	3.355982E-16	2.476571E-17
4.390000E+03	3.370650E-16	2.462543E-17
4.400000E+03	3.384612E-16	2.447772E-17
4.410000E+03	3.397816E-16	2.432156E-17
4.420000E+03	3.410261E-16	2.415631E-17
4.430000E+03	3.421850E-16	2.398064E-17
4.440000E+03	3.432674E-16	2.379457E-17
4.450000E+03	3.442634E-16	2.359676E-17
4.460000E+03	3.451818E-16	2.338721E-17
4.470000E+03	3.460216E-16	2.316520E-17
4.480000E+03	3.467908E-16	2.293067E-17
4.490000E+03	3.474880E-16	2.268288E-17
4.500000E+03	3.481205E-16	2.242170E-17
4.510000E+03	3.486951E-16	2.214695E-17
4.520000E+03	3.492093E-16	2.185788E-17
4.530000E+03	3.496739E-16	2.155455E-17
4.540000E+03	3.500902E-16	2.123646E-17
4.550000E+03	3.504548E-16	2.090285E-17
4.560000E+03	3.507774E-16	2.055375E-17
4.570000E+03	3.510583E-16	2.018867E-17
4.580000E+03	3.512979E-16	1.980715E-17
4.590000E+03	3.515048E-16	1.940922E-17
4.600000E+03	3.516701E-16	1.899398E-17
4.610000E+03	3.518020E-16	1.856155E-17
4.620000E+03	3.518998E-16	1.811160E-17
4.630000E+03	3.519670E-16	1.764409E-17
4.640000E+03	3.519983E-16	1.715863E-17
4.650000E+03	3.520011E-16	1.665556E-17
4.660000E+03	3.519700E-16	1.613472E-17
4.670000E+03	3.519037E-16	1.559631E-17
4.680000E+03	3.518091E-16	1.504105E-17
4.690000E+03	3.516766E-16	1.446916E-17
4.700000E+03	3.515089E-16	1.388163E-17
4.710000E+03	3.513045E-16	1.327962E-17
4.720000E+03	3.510542E-16	1.266436E-17
4.730000E+03	3.507608E-16	1.203805E-17
4.740000E+03	3.504152E-16	1.140307E-17
4.750000E+03	3.500167E-16	1.076288E-17
4.760000E+03	3.495568E-16	1.012168E-17
4.770000E+03	3.490353E-16	9.485197E-18
4.780000E+03	3.484562E-16	8.860860E-18
4.790000E+03	3.478121E-16	8.257836E-18
4.800000E+03	3.471117E-16	7.688194E-18
4.810000E+03	3.463603E-16	7.166809E-18
4.820000E+03	3.455635E-16	6.711578E-18
4.830000E+03	3.447276E-16	6.342765E-18
4.840000E+03	3.438629E-16	6.081060E-18
4.850000E+03	3.429723E-16	5.943650E-18
4.860000E+03	3.420655E-16	5.939670E-18
4.870000E+03	3.411424E-16	6.065364E-18
4.880000E+03	3.402045E-16	6.305624E-18
4.890000E+03	3.392460E-16	6.639141E-18
4.900000E+03	3.382720E-16	7.043470E-18
4.910000E+03	3.372774E-16	7.497763E-18
4.920000E+03	3.362649E-16	7.984532E-18
4.930000E+03	3.352342E-16	8.489648E-18
4.940000E+03	3.341855E-16	9.002043E-18
4.950000E+03	3.331228E-16	9.513282E-18
4.960000E+03	3.320436E-16	1.001673E-17
4.970000E+03	3.309526E-16	1.050750E-17
4.980000E+03	3.298478E-16	1.098170E-17
4.990000E+03	3.287376E-16	1.143670E-17
5.000000E+03	3.276202E-16	1.187024E-17
5.010000E+03	3.264974E-16	1.228075E-17
5.020000E+03	3.253743E-16	1.266723E-17
5.030000E+03	3.242492E-16	1.302881E-17
5.040000E+03	3.231273E-16	1.336514E-17
5.050000E+03	3.220135E-16	1.367616E-17
5.060000E+03	3.209026E-16	1.396154E-17
5.070000E+03	3.198029E-16	1.422172E-17
5.080000E+03	3.187122E-16	1.445685E-17
5.090000E+03	3.176353E-16	1.466746E-17
5.100000E+03	3.165700E-16	1.485392E-17
5.110000E+03	3.155204E-16	1.501696E-17
5.120000E+03	3.144909E-16	1.515742E-17
5.130000E+03	3.134756E-16	1.527573E-17
5.140000E+03	3.124817E-16	1.537301E-17
5.150000E+03	3.115065E-16	1.544995E-17
5.160000E+03	3.105502E-16	1.550747E-17
5.170000E+03	3.096164E-16	1.554670E-17
5.180000E+03	3.087021E-16	1.556849E-17
5.190000E+03	3.078103E-16	1.557408E-17
5.200000E+03	3.069380E-16	1.556441E-17
5.210000E+03	3.060881E-16	1.554081E-17
5.220000E+03	3.052602E-16	1.550450E-17
5.230000E+03	3.044509E-16	1.545659E-17
5.240000E+03	3.036629E-16	1.539856E-17
5.250000E+03	3.028956E-16	1.533179E-17
5.260000E+03	3.021454E-16	1.525755E-17
5.270000E+03	3.014118E-16	1.517732E-17
5.280000E+03	3.006969E-16	1.509277E-17
5.290000E+03	3.000002E-16	1.500548E-17
5.300000E+03	2.993177E-16	1.491689E-17
5.310000E+03	2.986487E-16	1.482860E-17
5.320000E+03	2.979923E-16	1.474223E-17
5.330000E+03	2.973477E-16	1.465938E-17
5.340000E+03	2.967138E-16	1.458159E-17
5.350000E+03	2.960897E-16	1.451036E-17
5.360000E+03	2.954715E-16	1.444692E-17
5.370000E+03	2.948610E-16	1.439266E-17
5.380000E+03	2.942543E-16	1.434853E-17
5.390000E+03	2.936503E-16	1.431542E-17
5.400000E+03	2.930477E-16	1.429401E-17
5.410000E+03	2.924426E-16	1.428455E-17
5.420000E+03	2.918367E-16	1.428735E-17
5.430000E+03	2.912260E-16	1.430211E-17
5.440000E+03	2.906092E-16	1.432843E-17
5.450000E+03	2.899823E-16	1.436553E-17
5.460000E+03	2.893446E-16	1.441259E-17
5.470000E+03	2.886892E-16	1.446832E-17
5.480000E+03	2.880129E-16	1.453146E-17
5.490000E+03	2.873067E-16	1.460038E-17
5.500000E+03	2.865676E-16	1.467368E-17
5.510000E+03	2.858101E-16	1.475080E-17
5.520000E+03	2.850405E-16	1.483078E-17
5.530000E+03	2.842622E-16	1.491257E-17
5.540000E+03	2.834819E-16	1.499530E-17
5.550000E+03	2.827007E-16	1.507789E-17
5.560000E+03	2.819202E-16	1.515934E-17
5.570000E+03	2.811450E-16	1.523890E-17
5.580000E+03	2.803771E-16	1.531576E-17
5.590000E+03	2.796161E-16	1.538905E-17
5.600000E+03	2.788701E-16	1.545843E-17
5.610000E+03	2.781390E-16	1.552324E-17
5.620000E+03	2.774257E-16	1.558300E-17
5.630000E+03	2.767387E-16	1.563764E-17
5.640000E+03	2.760755E-16	1.568655E-17
5.650000E+03	2.754393E-16	1.572947E-17
5.660000E+03	2.748414E-16	1.576665E-17
5.670000E+03	2.742765E-16	1.579748E-17
5.680000E+03	2.737504E-16	1.582197E-17
5.690000E+03	2.732686E-16	1.584018E-17
5.700000E+03	2.728338E-16	1.585201E-17
5.710000E+03	2.724457E-16	1.585723E-17
5.720000E+03	2.721093E-16	1.585590E-17
5.730000E+03	2.718266E-16	1.584793E-17
5.740000E+03	2.715993E-16	1.583323E-17
5.750000E+03	2.714262E-16	1.581150E-17
5.760000E+03	2.713139E-16	1.578294E-17
5.770000E+03	2.712605E-16	1.574720E-17
5.780000E+03	2.712638E-16	1.570393E-17
5.790000E+03	2.713297E-16	1.565323E-17
5.800000E+03	2.714553E-16	1.559466E-17
5.810000E+03	2.716405E-16	1.552794E-17
5.820000E+03	2.718847E-16	1.545273E-17
5.830000E+03	2.721900E-16	1.536883E-17
5.840000E+03	2.725500E-16	1.527553E-17
5.850000E+03	2.729691E-16	1.517271E-17
5.860000E+03	2.734406E-16	1.505962E-17
5.870000E+03	2.739686E-16	1.493608E-17
5.880000E+03	2.745465E-16	1.480129E-17
5.890000E+03	2.751755E-16	1.465487E-17
5.900000E+03	2.758542E-16	1.449629E-17
5.910000E+03	2.765814E-16	1.432500E-17
5.920000E+03	2.773530E-16	1.414031E-17
5.930000E+03	2.781678E-16	1.394165E-17
5.940000E+03	2.790276E-16	1.372861E-17
5.950000E+03	2.799288E-16	1.350052E-17
5.960000E+03	2.808706E-16	1.325685E-17
5.970000E+03	2.818495E-16	1.299695E-17
5.980000E+03	2.828682E-16	1.272050E-17
5.990000E+03	2.839234E-16	1.242692E-17
6.000000E+03	2.850151E-16	1.211586E-17
6.010000E+03	2.861435E-16	1.178699E-17
6.020000E+03	2.873059E-16	1.143998E-17
6.030000E+03	2.885054E-16	1.107484E-17
6.040000E+03	2.897369E-16	1.069138E-17
6.050000E+03	2.910036E-16	1.028992E-17
6.060000E+03	2.923003E-16	9.870717E-18
6.070000E+03	2.936305E-16	9.434628E-18
6.080000E+03	2.949947E-16	8.982811E-18
6.090000E+03	2.963846E-16	8.516698E-18
6.100000E+03	2.978066E-16	8.038893E-18
6.110000E+03	2.992551E-16	7.552631E-18
6.120000E+03	3.007275E-16	7.062588E-18
6.130000E+03	3.022239E-16	6.575355E-18
6.140000E+03	3.037415E-16	6.099966E-18
6.150000E+03	3.052772E-16	5.648821E-18
6.160000E+03	3.068278E-16	5.238586E-18
6.170000E+03	3.083930E-16	4.890779E-18
6.180000E+03	3.099753E-16	4.630985E-18
6.190000E+03	3.115668E-16	4.485242E-18
6.200000E+03	3.131675E-16	4.473643E-18
6.210000E+03	3.147748E-16	4.601990E-18
6.220000E+03	3.163822E-16	4.858902E-18
6.230000E+03	3.179782E-16	5.222328E-18
6.240000E+03	3.195533E-16	5.667191E-18
6.250000E+03	3.210977E-16	6.170415E-18
6.260000E+03	3.225984E-16	6.712872E-18
6.270000E+03	3.240423E-16	7.279528E-18
6.280000E+03	3.254235E-16	7.858943E-18
6.290000E+03	3.267300E-16	8.442192E-18
6.300000E+03	3.279468E-16	9.022221E-18
6.310000E+03	3.290663E-16	9.593594E-18
6.320000E+03	3.300782E-16	1.015186E-17
6.330000E+03	3.309731E-16	1.069336E-17
6.340000E+03	3.317423E-16	1.121505E-17
6.350000E+03	3.323780E-16	1.171439E-17
6.360000E+03	3.328769E-16	1.218931E-17
6.370000E+03	3.332297E-16	1.263786E-17
6.380000E+03	3.334352E-16	1.305858E-17
6.390000E+03	3.334826E-16	1.344988E-17
6.400000E+03	3.333762E-16	1.381091E-17
6.410000E+03	3.331072E-16	1.414045E-17
6.420000E+03	3.326821E-16	1.443806E-17
6.430000E+03	3.320942E-16	1.470283E-17
6.440000E+03	3.313446E-16	1.493434E-17
6.450000E+03	3.304356E-16	1.513230E-17
6.460000E+03	3.293737E-16	1.529672E-17
6.470000E+03	3.281557E-16	1.542724E-17
6.480000E+03	3.267861E-16	1.552396E-17
6.490000E+03	3.252734E-16	1.558727E-17
6.500000E+03	3.236165E-16	1.561713E-17
6.510000E+03	3.218286E-16	1.561430E-17
6.520000E+03	3.199091E-16	1.557895E-17
6.530000E+03	3.178756E-16	1.551219E-17
6.540000E+03	3.157282E-16	1.541433E-17
6.550000E+03	3.134811E-16	1.528646E-17
6.560000E+03	3.111453E-16	1.512956E-17
6.570000E+03	3.087247E-16	1.494431E-17
6.580000E+03	3.062337E-16	1.473195E-17
6.590000E+03	3.036795E-16	1.449344E-17
6.600000E+03	3.010728E-16	1.422993E-17
6.610000E+03	2.984207E-16	1.394244E-17
6.620000E+03	2.957302E-16	1.363205E-17
6.630000E+03	2.930147E-16	1.330015E-17
6.640000E+03	2.902774E-16	1.294773E-17
6.650000E+03	2.875281E-16	1.257608E-17
6.660000E+03	2.847727E-16	1.218642E-17
6.670000E+03	2.820207E-16	1.178012E-17
6.680000E+03	2.792745E-16	1.135835E-17
6.690000E+03	2.765462E-16	1.092273E-17
6.700000E+03	2.738412E-16	1.047468E-17
6.710000E+03	2.711649E-16	1.001573E-17
6.720000E+03	2.685195E-16	9.547443E-18
6.730000E+03	2.659166E-16	9.071867E-18
6.740000E+03	2.633613E-16	8.591043E-18
6.750000E+03	2.608559E-16	8.107203E-18
6.760000E+03	2.584121E-16	7.623255E-18
6.770000E+03	2.560294E-16	7.142231E-18
6.780000E+03	2.537197E-16	6.668196E-18
6.790000E+03	2.514862E-16	6.205844E-18
6.800000E+03	2.493384E-16	5.761187E-18
6.810000E+03	2.472831E-16	5.341638E-18
6.820000E+03	2.453275E-16	4.956412E-18
6.830000E+03	2.434764E-16	4.616638E-18
6.840000E+03	2.417433E-16	4.335367E-18
6.850000E+03	2.401333E-16	4.126190E-18
6.860000E+03	2.386540E-16	4.001321E-18
6.870000E+03	2.373115E-16	3.968421E-18
6.880000E+03	2.361113E-16	4.027161E-18
6.890000E+03	2.350480E-16	4.168627E-18
6.900000E+03	2.341209E-16	4.379230E-18
6.910000E+03	2.333230E-16	4.643910E-18
6.920000E+03	2.326531E-16	4.948729E-18
6.930000E+03	2.321048E-16	5.281795E-18
6.940000E+03	2.316776E-16	5.633735E-18
6.950000E+03	2.313657E-16	5.997206E-18
6.960000E+03	2.311693E-16	6.366782E-18
6.970000E+03	2.310859E-16	6.738362E-18
6.980000E+03	2.311103E-16	7.108807E-18
6.990000E+03	2.312429E-16	7.475940E-18
7.000000E+03	2.314814E-16	7.838088E-18
7.010000E+03	2.318201E-16	8.193911E-18
7.020000E+03	2.322561E-16	8.542478E-18
7.030000E+03	2.327892E-16	8.883195E-18
7.040000E+03	2.334159E-16	9.215535E-18
7.050000E+03	2.341260E-16	9.538841E-18
7.060000E+03	2.349242E-16	9.853115E-18
7.070000E+03	2.357963E-16	1.015768E-17
7.080000E+03	2.367428E-16	1.045248E-17
7.090000E+03	2.377546E-16	1.073709E-17
7.100000E+03	2.388248E-16	1.101119E-17
7.110000E+03	2.399462E-16	1.127443E-17
7.120000E+03	2.411108E-16	1.152642E-17
7.130000E+03	2.423070E-16	1.176658E-17
7.140000E+03	2.435319E-16	1.199473E-17
7.150000E+03	2.447699E-16	1.221006E-17
7.160000E+03	2.460139E-16	1.241215E-17
7.170000E+03	2.472471E-16	1.260007E-17
7.180000E+03	2.484681E-16	1.277366E-17
7.190000E+03	2.496563E-16	1.293173E-17
7.200000E+03	2.508035E-16	1.307375E-17
7.210000E+03	2.518982E-16	1.319898E-17
7.220000E+03	2.529257E-16	1.330651E-17
7.230000E+03	2.538779E-16	1.339577E-17
7.240000E+03	2.547402E-16	1.346585E-17
7.250000E+03	2.555020E-16	1.351605E-17
7.260000E+03	2.561528E-16	1.354569E-17
7.270000E+03	2.566797E-16	1.355397E-17
7.280000E+03	2.570735E-16	1.354032E-17
7.290000E+03	2.573262E-16	1.350423E-17
7.300000E+03	2.574272E-16	1.344510E-17
7.310000E+03	2.573704E-16	1.336261E-17
7.320000E+03	2.571510E-16	1.325652E-17
7.330000E+03	2.567585E-16	1.312637E-17
7.340000E+03	2.561973E-16	1.297250E-17
7.350000E+03	2.554565E-16	1.279452E-17
7.360000E+03	2.545366E-16	1.259269E-17
7.370000E+03	2.534395E-16	1.236737E-17
7.380000E+03	2.521619E-16	1.211877E-17
7.390000E+03	2.507117E-16	1.184768E-17
7.400000E+03	2.490886E-16	1.155456E-17
7.410000E+03	2.472997E-16	1.124033E-17
7.420000E+03	2.453471E-16	1.090570E-17
7.430000E+03	2.432404E-16	1.055183E-17
7.440000E+03	2.409902E-16	1.017998E-17
7.450000E+03	2.386108E-16	9.791634E-18
7.460000E+03	2.361139E-16	9.388220E-18
7.470000E+03	2.335180E-16	8.971499E-18
7.480000E+03	2.308325E-16	8.542947E-18
7.490000E+03	2.280731E-16	8.104374E-18
7.500000E+03	2.252585E-16	7.657781E-18
7.510000E+03	2.223982E-16	7.204982E-18
7.520000E+03	2.195076E-16	6.748175E-18
7.530000E+03	2.165986E-16	6.289694E-18
7.540000E+03	2.136887E-16	5.832371E-18
7.550000E+03	2.107864E-16	5.379259E-18
7.560000E+03	2.079051E-16	4.934256E-18
7.570000E+03	2.050552E-16	4.502162E-18
7.580000E+03	2.022490E-16	4.089239E-18
7.590000E+03	1.994932E-16	3.703587E-18
7.600000E+03	1.967989E-16	3.355988E-18
7.610000E+03	1.941742E-16	3.060157E-18
7.620000E+03	1.916261E-16	2.832320E-18
7.630000E+03	1.891609E-16	2.688747E-18
7.640000E+03	1.867881E-16	2.640811E-18
7.650000E+03	1.845026E-16	2.688771E-18
7.660000E+03	1.823120E-16	2.820945E-18
7.670000E+03	1.802124E-16	3.019127E-18
7.680000E+03	1.781995E-16	3.264622E-18
7.690000E+03	1.762757E-16	3.541778E-18
7.700000E+03	1.744338E-16	3.838561E-18
7.710000E+03	1.726760E-16	4.146513E-18
7.720000E+03	1.709975E-16	4.459633E-18
7.730000E+03	1.693959E-16	4.773858E-18
7.740000E+03	1.678712E-16	5.086526E-18
7.750000E+03	1.664165E-16	5.395706E-18
7.760000E+03	1.650340E-16	5.700395E-18
