#wls	flux	fluxerr
1.600000E+03	7.232258E-18	5.082575E-18
1.640000E+03	7.314219E-18	5.097150E-18
1.680000E+03	7.405696E-18	5.116283E-18
1.720000E+03	7.507211E-18	5.140108E-18
1.760000E+03	7.620673E-18	5.169682E-18
1.800000E+03	7.745397E-18	5.204258E-18
1.840000E+03	7.882069E-18	5.244010E-18
1.880000E+03	8.032835E-18	5.290046E-18
1.920000E+03	8.199988E-18	5.343498E-18
1.960000E+03	8.381700E-18	5.402767E-18
2.000000E+03	8.581886E-18	5.469952E-18
2.040000E+03	8.800316E-18	5.544410E-18
2.080000E+03	9.041299E-18	5.628318E-18
2.120000E+03	9.303363E-18	5.720148E-18
2.160000E+03	9.591221E-18	5.822153E-18
2.200000E+03	9.906807E-18	5.934752E-18
2.240000E+03	1.025225E-17	6.058397E-18
2.280000E+03	1.062991E-17	6.193570E-18
2.320000E+03	1.104408E-17	6.341772E-18
2.360000E+03	1.149953E-17	6.504581E-18
2.400000E+03	1.199786E-17	6.681624E-18
2.440000E+03	1.254642E-17	6.875590E-18
2.480000E+03	1.314762E-17	7.086177E-18
2.520000E+03	1.380997E-17	7.316219E-18
2.560000E+03	1.453681E-17	7.565466E-18
2.600000E+03	1.534023E-17	7.837969E-18
2.640000E+03	1.622489E-17	8.133545E-18
2.680000E+03	1.720038E-17	8.454167E-18
2.720000E+03	1.827963E-17	8.802985E-18
2.760000E+03	1.946959E-17	9.179717E-18
2.800000E+03	2.078789E-17	9.588647E-18
2.840000E+03	2.224609E-17	1.003050E-17
2.880000E+03	2.386222E-17	1.050826E-17
2.920000E+03	2.565017E-17	1.102223E-17
2.960000E+03	2.763382E-17	1.157622E-17
3.000000E+03	2.983293E-17	1.217114E-17
3.010000E+03	3.041751E-17	1.232580E-17
3.020000E+03	3.101917E-17	1.248384E-17
3.030000E+03	3.163828E-17	1.264526E-17
3.040000E+03	3.226845E-17	1.280737E-17
3.050000E+03	3.292004E-17	1.297412E-17
3.060000E+03	3.358664E-17	1.314284E-17
3.070000E+03	3.426849E-17	1.331345E-17
3.080000E+03	3.497289E-17	1.348864E-17
3.090000E+03	3.569319E-17	1.366566E-17
3.100000E+03	3.642963E-17	1.384444E-17
3.110000E+03	3.718611E-17	1.402629E-17
3.120000E+03	3.796668E-17	1.421255E-17
3.130000E+03	3.876062E-17	1.439902E-17
3.140000E+03	3.957937E-17	1.458977E-17
3.150000E+03	4.041959E-17	1.478336E-17
3.160000E+03	4.127776E-17	1.497830E-17
3.170000E+03	4.216193E-17	1.517731E-17
3.180000E+03	4.306466E-17	1.537750E-17
3.190000E+03	4.399415E-17	1.558159E-17
3.200000E+03	4.494277E-17	1.578664E-17
3.210000E+03	4.591890E-17	1.599540E-17
3.220000E+03	4.691884E-17	1.620632E-17
3.230000E+03	4.794290E-17	1.641927E-17
3.240000E+03	4.899137E-17	1.663413E-17
3.250000E+03	5.006881E-17	1.685219E-17
3.260000E+03	5.116697E-17	1.707043E-17
3.270000E+03	5.229911E-17	1.729302E-17
3.280000E+03	5.345245E-17	1.751545E-17
3.290000E+03	5.464053E-17	1.774192E-17
3.300000E+03	5.585023E-17	1.796786E-17
3.310000E+03	5.709534E-17	1.819748E-17
3.320000E+03	5.836706E-17	1.842763E-17
3.330000E+03	5.966552E-17	1.865812E-17
3.340000E+03	6.099557E-17	1.889017E-17
3.350000E+03	6.236225E-17	1.912504E-17
3.360000E+03	6.375140E-17	1.935806E-17
3.370000E+03	6.517757E-17	1.959341E-17
3.380000E+03	6.663613E-17	1.982933E-17
3.390000E+03	6.812720E-17	2.006556E-17
3.400000E+03	6.965087E-17	2.030181E-17
3.410000E+03	7.120718E-17	2.053778E-17
3.420000E+03	7.279615E-17	2.077316E-17
3.430000E+03	7.441775E-17	2.100763E-17
3.440000E+03	7.607718E-17	2.124233E-17
3.450000E+03	7.776914E-17	2.147545E-17
3.460000E+03	7.949886E-17	2.170809E-17
3.470000E+03	8.126084E-17	2.193842E-17
3.480000E+03	8.305483E-17	2.216608E-17
3.490000E+03	8.488603E-17	2.239212E-17
3.500000E+03	8.675422E-17	2.261616E-17
3.510000E+03	8.865912E-17	2.283777E-17
3.520000E+03	9.059472E-17	2.305509E-17
3.530000E+03	9.257192E-17	2.327059E-17
3.540000E+03	9.457884E-17	2.348093E-17
3.550000E+03	9.662063E-17	2.368712E-17
3.560000E+03	9.870257E-17	2.389013E-17
3.570000E+03	1.008123E-16	2.408664E-17
3.580000E+03	1.029608E-16	2.427904E-17
3.590000E+03	1.051414E-16	2.446542E-17
3.600000E+03	1.073594E-16	2.464671E-17
3.610000E+03	1.096076E-16	2.482103E-17
3.620000E+03	1.118913E-16	2.498929E-17
3.630000E+03	1.142033E-16	2.514961E-17
3.640000E+03	1.165423E-16	2.530154E-17
3.650000E+03	1.189196E-16	2.544729E-17
3.660000E+03	1.213215E-16	2.558367E-17
3.670000E+03	1.237591E-16	2.571289E-17
3.680000E+03	1.262185E-16	2.583181E-17
3.690000E+03	1.287044E-16	2.594129E-17
3.700000E+03	1.312217E-16	2.604216E-17
3.710000E+03	1.337559E-16	2.613142E-17
3.720000E+03	1.363181E-16	2.621117E-17
3.730000E+03	1.389001E-16	2.627973E-17
3.740000E+03	1.415065E-16	2.633793E-17
3.750000E+03	1.441289E-16	2.638416E-17
3.760000E+03	1.467652E-16	2.641808E-17
3.770000E+03	1.494198E-16	2.644054E-17
3.780000E+03	1.520908E-16	2.645121E-17
3.790000E+03	1.547692E-16	2.644865E-17
3.800000E+03	1.574661E-16	2.643487E-17
3.810000E+03	1.601659E-16	2.640739E-17
3.820000E+03	1.628727E-16	2.636713E-17
3.830000E+03	1.655843E-16	2.631393E-17
3.840000E+03	1.682982E-16	2.624768E-17
3.850000E+03	1.710118E-16	2.616830E-17
3.860000E+03	1.737226E-16	2.607575E-17
3.870000E+03	1.764281E-16	2.597005E-17
3.880000E+03	1.791258E-16	2.585127E-17
3.890000E+03	1.818197E-16	2.572049E-17
3.900000E+03	1.844937E-16	2.557593E-17
3.910000E+03	1.871590E-16	2.541971E-17
3.920000E+03	1.898128E-16	2.525207E-17
3.930000E+03	1.924390E-16	2.507150E-17
3.940000E+03	1.950488E-16	2.488019E-17
3.950000E+03	1.976329E-16	2.467767E-17
3.960000E+03	2.001956E-16	2.446528E-17
3.970000E+03	2.027211E-16	2.424190E-17
3.980000E+03	2.052274E-16	2.401057E-17
3.990000E+03	2.076921E-16	2.376953E-17
4.000000E+03	2.101199E-16	2.352030E-17
4.010000E+03	2.125155E-16	2.326438E-17
4.020000E+03	2.148705E-16	2.300179E-17
4.030000E+03	2.171833E-16	2.273339E-17
4.040000E+03	2.194523E-16	2.246004E-17
4.050000E+03	2.216765E-16	2.218267E-17
4.060000E+03	2.238482E-16	2.190155E-17
4.070000E+03	2.259796E-16	2.161893E-17
4.080000E+03	2.280571E-16	2.133450E-17
4.090000E+03	2.300870E-16	2.104987E-17
4.100000E+03	2.320627E-16	2.076540E-17
4.110000E+03	2.339845E-16	2.048210E-17
4.120000E+03	2.358592E-16	2.020145E-17
4.130000E+03	2.376751E-16	1.992328E-17
4.140000E+03	2.394394E-16	1.964904E-17
4.150000E+03	2.411536E-16	1.937955E-17
4.160000E+03	2.428193E-16	1.911557E-17
4.170000E+03	2.444261E-16	1.885688E-17
4.180000E+03	2.459884E-16	1.860507E-17
4.190000E+03	2.474968E-16	1.835981E-17
4.200000E+03	2.489598E-16	1.812205E-17
4.210000E+03	2.503745E-16	1.789177E-17
4.220000E+03	2.517440E-16	1.766932E-17
4.230000E+03	2.530718E-16	1.745497E-17
4.240000E+03	2.543614E-16	1.724889E-17
4.250000E+03	2.556048E-16	1.705041E-17
4.260000E+03	2.568118E-16	1.686000E-17
4.270000E+03	2.579861E-16	1.667763E-17
4.280000E+03	2.591262E-16	1.650286E-17
4.290000E+03	2.602305E-16	1.633523E-17
4.300000E+03	2.613141E-16	1.617525E-17
4.310000E+03	2.623646E-16	1.602166E-17
4.320000E+03	2.633915E-16	1.587456E-17
4.330000E+03	2.643933E-16	1.573330E-17
4.340000E+03	2.653792E-16	1.559787E-17
4.350000E+03	2.663424E-16	1.546723E-17
4.360000E+03	2.672918E-16	1.534129E-17
4.370000E+03	2.682205E-16	1.521901E-17
4.380000E+03	2.691369E-16	1.510020E-17
4.390000E+03	2.700392E-16	1.498409E-17
4.400000E+03	2.709354E-16	1.487044E-17
4.410000E+03	2.718130E-16	1.475791E-17
4.420000E+03	2.726846E-16	1.464651E-17
4.430000E+03	2.735475E-16	1.453544E-17
4.440000E+03	2.743987E-16	1.442390E-17
4.450000E+03	2.752448E-16	1.431163E-17
4.460000E+03	2.760774E-16	1.419757E-17
4.470000E+03	2.769026E-16	1.408148E-17
4.480000E+03	2.777162E-16	1.396257E-17
4.490000E+03	2.785234E-16	1.384057E-17
4.500000E+03	2.793149E-16	1.371450E-17
4.510000E+03	2.800951E-16	1.358409E-17
4.520000E+03	2.808589E-16	1.344860E-17
4.530000E+03	2.816054E-16	1.330754E-17
4.540000E+03	2.823337E-16	1.316040E-17
4.550000E+03	2.830424E-16	1.300669E-17
4.560000E+03	2.837255E-16	1.284572E-17
4.570000E+03	2.843860E-16	1.267720E-17
4.580000E+03	2.850177E-16	1.250048E-17
4.590000E+03	2.856189E-16	1.231509E-17
4.600000E+03	2.861879E-16	1.212063E-17
4.610000E+03	2.867232E-16	1.191668E-17
4.620000E+03	2.872231E-16	1.170291E-17
4.630000E+03	2.876820E-16	1.147882E-17
4.640000E+03	2.881076E-16	1.124453E-17
4.650000E+03	2.884901E-16	1.099950E-17
4.660000E+03	2.888287E-16	1.074369E-17
4.670000E+03	2.891317E-16	1.047744E-17
4.680000E+03	2.893900E-16	1.020061E-17
4.690000E+03	2.896037E-16	9.913561E-18
4.700000E+03	2.897770E-16	9.616979E-18
4.710000E+03	2.899102E-16	9.311655E-18
4.720000E+03	2.899992E-16	8.998545E-18
4.730000E+03	2.900530E-16	8.679370E-18
4.740000E+03	2.900635E-16	8.355768E-18
4.750000E+03	2.900354E-16	8.030303E-18
4.760000E+03	2.899689E-16	7.706053E-18
4.770000E+03	2.898646E-16	7.386859E-18
4.780000E+03	2.897268E-16	7.077548E-18
4.790000E+03	2.895474E-16	6.783620E-18
4.800000E+03	2.893388E-16	6.512096E-18
4.810000E+03	2.890929E-16	6.270447E-18
4.820000E+03	2.888096E-16	6.067010E-18
4.830000E+03	2.884968E-16	5.910375E-18
4.840000E+03	2.881501E-16	5.808071E-18
4.850000E+03	2.877695E-16	5.765745E-18
4.860000E+03	2.873547E-16	5.785842E-18
4.870000E+03	2.869135E-16	5.866852E-18
4.880000E+03	2.864379E-16	6.003161E-18
4.890000E+03	2.859319E-16	6.186879E-18
4.900000E+03	2.853955E-16	6.408829E-18
4.910000E+03	2.848329E-16	6.659776E-18
4.920000E+03	2.842443E-16	6.930965E-18
4.930000E+03	2.836261E-16	7.214490E-18
4.940000E+03	2.829865E-16	7.503807E-18
4.950000E+03	2.823184E-16	7.793049E-18
4.960000E+03	2.816298E-16	8.077728E-18
4.970000E+03	2.809216E-16	8.354020E-18
4.980000E+03	2.801945E-16	8.618833E-18
4.990000E+03	2.794457E-16	8.869585E-18
5.000000E+03	2.786836E-16	9.104572E-18
5.010000E+03	2.779058E-16	9.322191E-18
5.020000E+03	2.771171E-16	9.521458E-18
5.030000E+03	2.763154E-16	9.701471E-18
5.040000E+03	2.755058E-16	9.861858E-18
5.050000E+03	2.746900E-16	1.000237E-17
5.060000E+03	2.738697E-16	1.012295E-17
5.070000E+03	2.730470E-16	1.022375E-17
5.080000E+03	2.722236E-16	1.030504E-17
5.090000E+03	2.714050E-16	1.036740E-17
5.100000E+03	2.705931E-16	1.041134E-17
5.110000E+03	2.697863E-16	1.043736E-17
5.120000E+03	2.689862E-16	1.044614E-17
5.130000E+03	2.681979E-16	1.043857E-17
5.140000E+03	2.674229E-16	1.041544E-17
5.150000E+03	2.666623E-16	1.037755E-17
5.160000E+03	2.659171E-16	1.032574E-17
5.170000E+03	2.651845E-16	1.026072E-17
5.180000E+03	2.644685E-16	1.018344E-17
5.190000E+03	2.637691E-16	1.009476E-17
5.200000E+03	2.630830E-16	9.995382E-18
5.210000E+03	2.624167E-16	9.886390E-18
5.220000E+03	2.617629E-16	9.768373E-18
5.230000E+03	2.611208E-16	9.642183E-18
5.240000E+03	2.604930E-16	9.508823E-18
5.250000E+03	2.598785E-16	9.369204E-18
5.260000E+03	2.592728E-16	9.224175E-18
5.270000E+03	2.586747E-16	9.074782E-18
5.280000E+03	2.580831E-16	8.922172E-18
5.290000E+03	2.575000E-16	8.767722E-18
5.300000E+03	2.569178E-16	8.612617E-18
5.310000E+03	2.563388E-16	8.458548E-18
5.320000E+03	2.557622E-16	8.307279E-18
5.330000E+03	2.551872E-16	8.160773E-18
5.340000E+03	2.546102E-16	8.021093E-18
5.350000E+03	2.540310E-16	7.890602E-18
5.360000E+03	2.534528E-16	7.771914E-18
5.370000E+03	2.528695E-16	7.667445E-18
5.380000E+03	2.522880E-16	7.579991E-18
5.390000E+03	2.517052E-16	7.511889E-18
5.400000E+03	2.511182E-16	7.465079E-18
5.410000E+03	2.505293E-16	7.440973E-18
5.420000E+03	2.499325E-16	7.439648E-18
5.430000E+03	2.493262E-16	7.459998E-18
5.440000E+03	2.487007E-16	7.499744E-18
5.450000E+03	2.480524E-16	7.556232E-18
5.460000E+03	2.473713E-16	7.626364E-18
5.470000E+03	2.466544E-16	7.707189E-18
5.480000E+03	2.458898E-16	7.795575E-18
5.490000E+03	2.450790E-16	7.888973E-18
5.500000E+03	2.442181E-16	7.984898E-18
5.510000E+03	2.433011E-16	8.081044E-18
5.520000E+03	2.423264E-16	8.175499E-18
5.530000E+03	2.412994E-16	8.266844E-18
5.540000E+03	2.402114E-16	8.353429E-18
5.550000E+03	2.390732E-16	8.434489E-18
5.560000E+03	2.378846E-16	8.509091E-18
5.570000E+03	2.366467E-16	8.576526E-18
5.580000E+03	2.353704E-16	8.636615E-18
5.590000E+03	2.340618E-16	8.689150E-18
5.600000E+03	2.327251E-16	8.733976E-18
5.610000E+03	2.313682E-16	8.771193E-18
5.620000E+03	2.300055E-16	8.801236E-18
5.630000E+03	2.286403E-16	8.824206E-18
5.640000E+03	2.272879E-16	8.840721E-18
5.650000E+03	2.259580E-16	8.851240E-18
5.660000E+03	2.246576E-16	8.856150E-18
5.670000E+03	2.233992E-16	8.856086E-18
5.680000E+03	2.221921E-16	8.851576E-18
5.690000E+03	2.210455E-16	8.843142E-18
5.700000E+03	2.199706E-16	8.831396E-18
5.710000E+03	2.189724E-16	8.816698E-18
5.720000E+03	2.180606E-16	8.799586E-18
5.730000E+03	2.172414E-16	8.780440E-18
5.740000E+03	2.165172E-16	8.759475E-18
5.750000E+03	2.158976E-16	8.737177E-18
5.760000E+03	2.153828E-16	8.713641E-18
5.770000E+03	2.149747E-16	8.689004E-18
5.780000E+03	2.146770E-16	8.663453E-18
5.790000E+03	2.144864E-16	8.636888E-18
5.800000E+03	2.144015E-16	8.609257E-18
5.810000E+03	2.144226E-16	8.580558E-18
5.820000E+03	2.145461E-16	8.550618E-18
5.830000E+03	2.147677E-16	8.519209E-18
5.840000E+03	2.150792E-16	8.485945E-18
5.850000E+03	2.154804E-16	8.450717E-18
5.860000E+03	2.159593E-16	8.412939E-18
5.870000E+03	2.165090E-16	8.372209E-18
5.880000E+03	2.171281E-16	8.328305E-18
5.890000E+03	2.178040E-16	8.280554E-18
5.900000E+03	2.185325E-16	8.228588E-18
5.910000E+03	2.193072E-16	8.171923E-18
5.920000E+03	2.201193E-16	8.109967E-18
5.930000E+03	2.209692E-16	8.042447E-18
5.940000E+03	2.218440E-16	7.968585E-18
5.950000E+03	2.227460E-16	7.888136E-18
5.960000E+03	2.236728E-16	7.800675E-18
5.970000E+03	2.246204E-16	7.705704E-18
5.980000E+03	2.255888E-16	7.602866E-18
5.990000E+03	2.265822E-16	7.491939E-18
6.000000E+03	2.275971E-16	7.372460E-18
6.010000E+03	2.286429E-16	7.244406E-18
6.020000E+03	2.297210E-16	7.107531E-18
6.030000E+03	2.308338E-16	6.961675E-18
6.040000E+03	2.319902E-16	6.806959E-18
6.050000E+03	2.331967E-16	6.643534E-18
6.060000E+03	2.344600E-16	6.471707E-18
6.070000E+03	2.357838E-16	6.291910E-18
6.080000E+03	2.371748E-16	6.104928E-18
6.090000E+03	2.386421E-16	5.911969E-18
6.100000E+03	2.401881E-16	5.714534E-18
6.110000E+03	2.418173E-16	5.514780E-18
6.120000E+03	2.435331E-16	5.315588E-18
6.130000E+03	2.453374E-16	5.120735E-18
6.140000E+03	2.472305E-16	4.935051E-18
6.150000E+03	2.492110E-16	4.764535E-18
6.160000E+03	2.512753E-16	4.616354E-18
6.170000E+03	2.534147E-16	4.498542E-18
6.180000E+03	2.556250E-16	4.419581E-18
6.190000E+03	2.578968E-16	4.387200E-18
6.200000E+03	2.602157E-16	4.407005E-18
6.210000E+03	2.625733E-16	4.481244E-18
6.220000E+03	2.649531E-16	4.608019E-18
6.230000E+03	2.673444E-16	4.782344E-18
6.240000E+03	2.697282E-16	4.997163E-18
6.250000E+03	2.720911E-16	5.244776E-18
6.260000E+03	2.744111E-16	5.517452E-18
6.270000E+03	2.766722E-16	5.808223E-18
6.280000E+03	2.788505E-16	6.110828E-18
6.290000E+03	2.809290E-16	6.420063E-18
6.300000E+03	2.828832E-16	6.731412E-18
6.310000E+03	2.846971E-16	7.041294E-18
6.320000E+03	2.863483E-16	7.346600E-18
6.330000E+03	2.878238E-16	7.644974E-18
6.340000E+03	2.891050E-16	7.934330E-18
6.350000E+03	2.901836E-16	8.213186E-18
6.360000E+03	2.910504E-16	8.480284E-18
6.370000E+03	2.916989E-16	8.734633E-18
6.380000E+03	2.921217E-16	8.975331E-18
6.390000E+03	2.923220E-16	9.201876E-18
6.400000E+03	2.923060E-16	9.413899E-18
6.410000E+03	2.920703E-16	9.610728E-18
6.420000E+03	2.916254E-16	9.792121E-18
6.430000E+03	2.909839E-16	9.957865E-18
6.440000E+03	2.901516E-16	1.010748E-17
6.450000E+03	2.891395E-16	1.024062E-17
6.460000E+03	2.879631E-16	1.035705E-17
6.470000E+03	2.866306E-16	1.045625E-17
6.480000E+03	2.851583E-16	1.053796E-17
6.490000E+03	2.835583E-16	1.060179E-17
6.500000E+03	2.818385E-16	1.064720E-17
6.510000E+03	2.800187E-16	1.067411E-17
6.520000E+03	2.781058E-16	1.068204E-17
6.530000E+03	2.761104E-16	1.067068E-17
6.540000E+03	2.740427E-16	1.063980E-17
6.550000E+03	2.719159E-16	1.058934E-17
6.560000E+03	2.697350E-16	1.051903E-17
6.570000E+03	2.675160E-16	1.042914E-17
6.580000E+03	2.652587E-16	1.031938E-17
6.590000E+03	2.629744E-16	1.019000E-17
6.600000E+03	2.606696E-16	1.004121E-17
6.610000E+03	2.583544E-16	9.873402E-18
6.620000E+03	2.560309E-16	9.686776E-18
6.630000E+03	2.537083E-16	9.481888E-18
6.640000E+03	2.513915E-16	9.259218E-18
6.650000E+03	2.490816E-16	9.019178E-18
6.660000E+03	2.467865E-16	8.762510E-18
6.670000E+03	2.445137E-16	8.489998E-18
6.680000E+03	2.422628E-16	8.202225E-18
6.690000E+03	2.400368E-16	7.899957E-18
6.700000E+03	2.378414E-16	7.584132E-18
6.710000E+03	2.356784E-16	7.255627E-18
6.720000E+03	2.335452E-16	6.915295E-18
6.730000E+03	2.314489E-16	6.564406E-18
6.740000E+03	2.293821E-16	6.203959E-18
6.750000E+03	2.273502E-16	5.835534E-18
6.760000E+03	2.253473E-16	5.460686E-18
6.770000E+03	2.233701E-16	5.081445E-18
6.780000E+03	2.214176E-16	4.700433E-18
6.790000E+03	2.194810E-16	4.320872E-18
6.800000E+03	2.175576E-16	3.947185E-18
6.810000E+03	2.156401E-16	3.585224E-18
6.820000E+03	2.137209E-16	3.242929E-18
6.830000E+03	2.117890E-16	2.930952E-18
6.840000E+03	2.098402E-16	2.663261E-18
6.850000E+03	2.078719E-16	2.456495E-18
6.860000E+03	2.058744E-16	2.327080E-18
6.870000E+03	2.038561E-16	2.285767E-18
6.880000E+03	2.018238E-16	2.330969E-18
6.890000E+03	1.997964E-16	2.448602E-18
6.900000E+03	1.977967E-16	2.618889E-18
6.910000E+03	1.958488E-16	2.822830E-18
6.920000E+03	1.939795E-16	3.045360E-18
6.930000E+03	1.922072E-16	3.275642E-18
6.940000E+03	1.905514E-16	3.506456E-18
6.950000E+03	1.890314E-16	3.733279E-18
6.960000E+03	1.876581E-16	3.953324E-18
6.970000E+03	1.864422E-16	4.165110E-18
6.980000E+03	1.853923E-16	4.368001E-18
6.990000E+03	1.845174E-16	4.561990E-18
7.000000E+03	1.838158E-16	4.747219E-18
7.010000E+03	1.832954E-16	4.924343E-18
7.020000E+03	1.829544E-16	5.093928E-18
7.030000E+03	1.827919E-16	5.256677E-18
7.040000E+03	1.828063E-16	5.413306E-18
7.050000E+03	1.829949E-16	5.564513E-18
7.060000E+03	1.833539E-16	5.710947E-18
7.070000E+03	1.838788E-16	5.853198E-18
7.080000E+03	1.845613E-16	5.991680E-18
7.090000E+03	1.853981E-16	6.126904E-18
7.100000E+03	1.863792E-16	6.259096E-18
7.110000E+03	1.874997E-16	6.388579E-18
7.120000E+03	1.887479E-16	6.515374E-18
7.130000E+03	1.901171E-16	6.639604E-18
7.140000E+03	1.915903E-16	6.760980E-18
7.150000E+03	1.931620E-16	6.879537E-18
7.160000E+03	1.948129E-16	6.994790E-18
7.170000E+03	1.965353E-16	7.106606E-18
7.180000E+03	1.983044E-16	7.214213E-18
7.190000E+03	2.001100E-16	7.317331E-18
7.200000E+03	2.019345E-16	7.415390E-18
7.210000E+03	2.037560E-16	7.507650E-18
7.220000E+03	2.055547E-16	7.593434E-18
7.230000E+03	2.073066E-16	7.671907E-18
7.240000E+03	2.089971E-16	7.742569E-18
7.250000E+03	2.105978E-16	7.804415E-18
7.260000E+03	2.120902E-16	7.856798E-18
7.270000E+03	2.134493E-16	7.898827E-18
7.280000E+03	2.146540E-16	7.929750E-18
7.290000E+03	2.156844E-16	7.948846E-18
7.300000E+03	2.165218E-16	7.955435E-18
7.310000E+03	2.171495E-16	7.948893E-18
7.320000E+03	2.175498E-16	7.928539E-18
7.330000E+03	2.177143E-16	7.894028E-18
7.340000E+03	2.176310E-16	7.844856E-18
7.350000E+03	2.172978E-16	7.780873E-18
7.360000E+03	2.167058E-16	7.701669E-18
7.370000E+03	2.158634E-16	7.607452E-18
7.380000E+03	2.147686E-16	7.498059E-18
7.390000E+03	2.134365E-16	7.373937E-18
7.400000E+03	2.118715E-16	7.235176E-18
7.410000E+03	2.100911E-16	7.082348E-18
7.420000E+03	2.081084E-16	6.915902E-18
7.430000E+03	2.059453E-16	6.736627E-18
7.440000E+03	2.036217E-16	6.545293E-18
7.450000E+03	2.011553E-16	6.342660E-18
7.460000E+03	1.985681E-16	6.129686E-18
7.470000E+03	1.958850E-16	5.907506E-18
7.480000E+03	1.931277E-16	5.677231E-18
7.490000E+03	1.903110E-16	5.439877E-18
7.500000E+03	1.874646E-16	5.197007E-18
7.510000E+03	1.845982E-16	4.949769E-18
7.520000E+03	1.817357E-16	4.699877E-18
7.530000E+03	1.788932E-16	4.449058E-18
7.540000E+03	1.760824E-16	4.199207E-18
7.550000E+03	1.733163E-16	3.952620E-18
7.560000E+03	1.706088E-16	3.712064E-18
7.570000E+03	1.679694E-16	3.480760E-18
7.580000E+03	1.654058E-16	3.262563E-18
7.590000E+03	1.629215E-16	3.062002E-18
7.600000E+03	1.605215E-16	2.884376E-18
7.610000E+03	1.582143E-16	2.735588E-18
7.620000E+03	1.559970E-16	2.621367E-18
7.630000E+03	1.538762E-16	2.546758E-18
7.640000E+03	1.518471E-16	2.514649E-18
7.650000E+03	1.499122E-16	2.525032E-18
7.660000E+03	1.480705E-16	2.574693E-18
7.670000E+03	1.463205E-16	2.658245E-18
7.680000E+03	1.446603E-16	2.769372E-18
7.690000E+03	1.430876E-16	2.901852E-18
7.700000E+03	1.415996E-16	3.050172E-18
7.710000E+03	1.401933E-16	3.209790E-18
7.720000E+03	1.388652E-16	3.377143E-18
7.730000E+03	1.376115E-16	3.549539E-18
7.740000E+03	1.364285E-16	3.725011E-18
7.750000E+03	1.353143E-16	3.902235E-18
7.760000E+03	1.342604E-16	4.080138E-18
