#wls	flux	fluxerr
1.600000E+03	8.492877E-18	5.999118E-18
1.640000E+03	8.610570E-18	6.032549E-18
1.680000E+03	8.740038E-18	6.071571E-18
1.720000E+03	8.880403E-18	6.115302E-18
1.760000E+03	9.035494E-18	6.166082E-18
1.800000E+03	9.204581E-18	6.223064E-18
1.840000E+03	9.390161E-18	6.287565E-18
1.880000E+03	9.593269E-18	6.359856E-18
1.920000E+03	9.813371E-18	6.439135E-18
1.960000E+03	1.005332E-17	6.526795E-18
2.000000E+03	1.031619E-17	6.624284E-18
2.040000E+03	1.060182E-17	6.730867E-18
2.080000E+03	1.091361E-17	6.848058E-18
2.120000E+03	1.125348E-17	6.976297E-18
2.160000E+03	1.162348E-17	7.116054E-18
2.200000E+03	1.202784E-17	7.268988E-18
2.240000E+03	1.246917E-17	7.435662E-18
2.280000E+03	1.295037E-17	7.616668E-18
2.320000E+03	1.347460E-17	7.812625E-18
2.360000E+03	1.404958E-17	8.026622E-18
2.400000E+03	1.467727E-17	8.258182E-18
2.440000E+03	1.536200E-17	8.508035E-18
2.480000E+03	1.611320E-17	8.779475E-18
2.520000E+03	1.693646E-17	9.073357E-18
2.560000E+03	1.783791E-17	9.390522E-18
2.600000E+03	1.882936E-17	9.734476E-18
2.640000E+03	1.991586E-17	1.010475E-17
2.680000E+03	2.110827E-17	1.050348E-17
2.720000E+03	2.242142E-17	1.093424E-17
2.760000E+03	2.386258E-17	1.139626E-17
2.800000E+03	2.545189E-17	1.189440E-17
2.840000E+03	2.719851E-17	1.242755E-17
2.880000E+03	2.912204E-17	1.299870E-17
2.920000E+03	3.124024E-17	1.360910E-17
2.960000E+03	3.357578E-17	1.426112E-17
3.000000E+03	3.614518E-17	1.495343E-17
3.010000E+03	3.682975E-17	1.513410E-17
3.020000E+03	3.752582E-17	1.531528E-17
3.030000E+03	3.824160E-17	1.550020E-17
3.040000E+03	3.897747E-17	1.568881E-17
3.050000E+03	3.972553E-17	1.587777E-17
3.060000E+03	4.049426E-17	1.607032E-17
3.070000E+03	4.128403E-17	1.626642E-17
3.080000E+03	4.208666E-17	1.646264E-17
3.090000E+03	4.291522E-17	1.666396E-17
3.100000E+03	4.375709E-17	1.686525E-17
3.110000E+03	4.462564E-17	1.707149E-17
3.120000E+03	4.550794E-17	1.727752E-17
3.130000E+03	4.641764E-17	1.748834E-17
3.140000E+03	4.734610E-17	1.770046E-17
3.150000E+03	4.829350E-17	1.791376E-17
3.160000E+03	4.926473E-17	1.812984E-17
3.170000E+03	5.026011E-17	1.834859E-17
3.180000E+03	5.127999E-17	1.856990E-17
3.190000E+03	5.231983E-17	1.879191E-17
3.200000E+03	5.338468E-17	1.901619E-17
3.210000E+03	5.447486E-17	1.924263E-17
3.220000E+03	5.559063E-17	1.947105E-17
3.230000E+03	5.673229E-17	1.970132E-17
3.240000E+03	5.789497E-17	1.993149E-17
3.250000E+03	5.908911E-17	2.016490E-17
3.260000E+03	6.030464E-17	2.039786E-17
3.270000E+03	6.155217E-17	2.063369E-17
3.280000E+03	6.282140E-17	2.086866E-17
3.290000E+03	6.412313E-17	2.110608E-17
3.300000E+03	6.544676E-17	2.134220E-17
3.310000E+03	6.680329E-17	2.158033E-17
3.320000E+03	6.818743E-17	2.181846E-17
3.330000E+03	6.960489E-17	2.205811E-17
3.340000E+03	7.104452E-17	2.229545E-17
3.350000E+03	7.251768E-17	2.253379E-17
3.360000E+03	7.401873E-17	2.277105E-17
3.370000E+03	7.555351E-17	2.300873E-17
3.380000E+03	7.711620E-17	2.324474E-17
3.390000E+03	7.871269E-17	2.348055E-17
3.400000E+03	8.033698E-17	2.371406E-17
3.410000E+03	8.199499E-17	2.394671E-17
3.420000E+03	8.368054E-17	2.417638E-17
3.430000E+03	8.539959E-17	2.440450E-17
3.440000E+03	8.715202E-17	2.463069E-17
3.450000E+03	8.893134E-17	2.485283E-17
3.460000E+03	9.074356E-17	2.507228E-17
3.470000E+03	9.258841E-17	2.528867E-17
3.480000E+03	9.446560E-17	2.550158E-17
3.490000E+03	9.637476E-17	2.571062E-17
3.500000E+03	9.831550E-17	2.591535E-17
3.510000E+03	1.002807E-16	2.611362E-17
3.520000E+03	1.022831E-16	2.630847E-17
3.530000E+03	1.043154E-16	2.649772E-17
3.540000E+03	1.063772E-16	2.668094E-17
3.550000E+03	1.084746E-16	2.685938E-17
3.560000E+03	1.105931E-16	2.702918E-17
3.570000E+03	1.127457E-16	2.719328E-17
3.580000E+03	1.149246E-16	2.734953E-17
3.590000E+03	1.171361E-16	2.749914E-17
3.600000E+03	1.193721E-16	2.763997E-17
3.610000E+03	1.216388E-16	2.777322E-17
3.620000E+03	1.239279E-16	2.789678E-17
3.630000E+03	1.262455E-16	2.801183E-17
3.640000E+03	1.285832E-16	2.811629E-17
3.650000E+03	1.309470E-16	2.821132E-17
3.660000E+03	1.333356E-16	2.829647E-17
3.670000E+03	1.357404E-16	2.836973E-17
3.680000E+03	1.381748E-16	2.843379E-17
3.690000E+03	1.406223E-16	2.848513E-17
3.700000E+03	1.430890E-16	2.852490E-17
3.710000E+03	1.455732E-16	2.855269E-17
3.720000E+03	1.480733E-16	2.856814E-17
3.730000E+03	1.505876E-16	2.857088E-17
3.740000E+03	1.531144E-16	2.856059E-17
3.750000E+03	1.556518E-16	2.853694E-17
3.760000E+03	1.582058E-16	2.850104E-17
3.770000E+03	1.607590E-16	2.844983E-17
3.780000E+03	1.633248E-16	2.838584E-17
3.790000E+03	1.658937E-16	2.830748E-17
3.800000E+03	1.684636E-16	2.821457E-17
3.810000E+03	1.710402E-16	2.810828E-17
3.820000E+03	1.736058E-16	2.798592E-17
3.830000E+03	1.761819E-16	2.785120E-17
3.840000E+03	1.787427E-16	2.770034E-17
3.850000E+03	1.813018E-16	2.753582E-17
3.860000E+03	1.838571E-16	2.735762E-17
3.870000E+03	1.863906E-16	2.716351E-17
3.880000E+03	1.889239E-16	2.695708E-17
3.890000E+03	1.914310E-16	2.673512E-17
3.900000E+03	1.939257E-16	2.650009E-17
3.910000E+03	1.964057E-16	2.625226E-17
3.920000E+03	1.988611E-16	2.599088E-17
3.930000E+03	2.012898E-16	2.571638E-17
3.940000E+03	2.036975E-16	2.543023E-17
3.950000E+03	2.060744E-16	2.513192E-17
3.960000E+03	2.084262E-16	2.482300E-17
3.970000E+03	2.107355E-16	2.450223E-17
3.980000E+03	2.130236E-16	2.417306E-17
3.990000E+03	2.152655E-16	2.383352E-17
4.000000E+03	2.174750E-16	2.348621E-17
4.010000E+03	2.196424E-16	2.313113E-17
4.020000E+03	2.217665E-16	2.276920E-17
4.030000E+03	2.238456E-16	2.240142E-17
4.040000E+03	2.258785E-16	2.202880E-17
4.050000E+03	2.278717E-16	2.165311E-17
4.060000E+03	2.298091E-16	2.127396E-17
4.070000E+03	2.316977E-16	2.089318E-17
4.080000E+03	2.335297E-16	2.051124E-17
4.090000E+03	2.353125E-16	2.012996E-17
4.100000E+03	2.370465E-16	1.975048E-17
4.110000E+03	2.387248E-16	1.937335E-17
4.120000E+03	2.403557E-16	1.900036E-17
4.130000E+03	2.419330E-16	1.863209E-17
4.140000E+03	2.434582E-16	1.826970E-17
4.150000E+03	2.449260E-16	1.791381E-17
4.160000E+03	2.463526E-16	1.756654E-17
4.170000E+03	2.477262E-16	1.722785E-17
4.180000E+03	2.490566E-16	1.689909E-17
4.190000E+03	2.503397E-16	1.658050E-17
4.200000E+03	2.515791E-16	1.627265E-17
4.210000E+03	2.527853E-16	1.597642E-17
4.220000E+03	2.539484E-16	1.569121E-17
4.230000E+03	2.550792E-16	1.541765E-17
4.240000E+03	2.561753E-16	1.515543E-17
4.250000E+03	2.572476E-16	1.490498E-17
4.260000E+03	2.582938E-16	1.466585E-17
4.270000E+03	2.593117E-16	1.443762E-17
4.280000E+03	2.603191E-16	1.422094E-17
4.290000E+03	2.613074E-16	1.401497E-17
4.300000E+03	2.622810E-16	1.381959E-17
4.310000E+03	2.632445E-16	1.363467E-17
4.320000E+03	2.642022E-16	1.346002E-17
4.330000E+03	2.651583E-16	1.329538E-17
4.340000E+03	2.661105E-16	1.314010E-17
4.350000E+03	2.670688E-16	1.299407E-17
4.360000E+03	2.680244E-16	1.285618E-17
4.370000E+03	2.689870E-16	1.272615E-17
4.380000E+03	2.699598E-16	1.260332E-17
4.390000E+03	2.709399E-16	1.248673E-17
4.400000E+03	2.719301E-16	1.237566E-17
4.410000E+03	2.729334E-16	1.226938E-17
4.420000E+03	2.739522E-16	1.216717E-17
4.430000E+03	2.749829E-16	1.206807E-17
4.440000E+03	2.760335E-16	1.197164E-17
4.450000E+03	2.770997E-16	1.187700E-17
4.460000E+03	2.781771E-16	1.178333E-17
4.470000E+03	2.792784E-16	1.169058E-17
4.480000E+03	2.803864E-16	1.159752E-17
4.490000E+03	2.815129E-16	1.150419E-17
4.500000E+03	2.826570E-16	1.141011E-17
4.510000E+03	2.838062E-16	1.131440E-17
4.520000E+03	2.849645E-16	1.121685E-17
4.530000E+03	2.861296E-16	1.111702E-17
4.540000E+03	2.872930E-16	1.101424E-17
4.550000E+03	2.884569E-16	1.090823E-17
4.560000E+03	2.896120E-16	1.079824E-17
4.570000E+03	2.907597E-16	1.068398E-17
4.580000E+03	2.918844E-16	1.056448E-17
4.590000E+03	2.929874E-16	1.043946E-17
4.600000E+03	2.940641E-16	1.030841E-17
4.610000E+03	2.951104E-16	1.017086E-17
4.620000E+03	2.961224E-16	1.002636E-17
4.630000E+03	2.970911E-16	9.874296E-18
4.640000E+03	2.980139E-16	9.714265E-18
4.650000E+03	2.988995E-16	9.546256E-18
4.660000E+03	2.997302E-16	9.369440E-18
4.670000E+03	3.005160E-16	9.183966E-18
4.680000E+03	3.012565E-16	8.989774E-18
4.690000E+03	3.019410E-16	8.786684E-18
4.700000E+03	3.025808E-16	8.575394E-18
4.710000E+03	3.031763E-16	8.356536E-18
4.720000E+03	3.037173E-16	8.130750E-18
4.730000E+03	3.042203E-16	7.899726E-18
4.740000E+03	3.046694E-16	7.664688E-18
4.750000E+03	3.050752E-16	7.428020E-18
4.760000E+03	3.054321E-16	7.192250E-18
4.770000E+03	3.057448E-16	6.960813E-18
4.780000E+03	3.060070E-16	6.737651E-18
4.790000E+03	3.062227E-16	6.527770E-18
4.800000E+03	3.063851E-16	6.336802E-18
4.810000E+03	3.064979E-16	6.171382E-18
4.820000E+03	3.065591E-16	6.038562E-18
4.830000E+03	3.065666E-16	5.945455E-18
4.840000E+03	3.065132E-16	5.898389E-18
4.850000E+03	3.064068E-16	5.902327E-18
4.860000E+03	3.062353E-16	5.959012E-18
4.870000E+03	3.060078E-16	6.066600E-18
4.880000E+03	3.057190E-16	6.219439E-18
4.890000E+03	3.053692E-16	6.409972E-18
4.900000E+03	3.049591E-16	6.629851E-18
4.910000E+03	3.044998E-16	6.871020E-18
4.920000E+03	3.039783E-16	7.125486E-18
4.930000E+03	3.034113E-16	7.386801E-18
4.940000E+03	3.027916E-16	7.648897E-18
4.950000E+03	3.021266E-16	7.906959E-18
4.960000E+03	3.014188E-16	8.156853E-18
4.970000E+03	3.006707E-16	8.395132E-18
4.980000E+03	2.998846E-16	8.618937E-18
4.990000E+03	2.990671E-16	8.826065E-18
5.000000E+03	2.982153E-16	9.014497E-18
5.010000E+03	2.973311E-16	9.182769E-18
5.020000E+03	2.964214E-16	9.329950E-18
5.030000E+03	2.954838E-16	9.455184E-18
5.040000E+03	2.945260E-16	9.558248E-18
5.050000E+03	2.935511E-16	9.639096E-18
5.060000E+03	2.925629E-16	9.697973E-18
5.070000E+03	2.915607E-16	9.735247E-18
5.080000E+03	2.905581E-16	9.751982E-18
5.090000E+03	2.895504E-16	9.748849E-18
5.100000E+03	2.885513E-16	9.727289E-18
5.110000E+03	2.875564E-16	9.688269E-18
5.120000E+03	2.865792E-16	9.633440E-18
5.130000E+03	2.856190E-16	9.564058E-18
5.140000E+03	2.846794E-16	9.481562E-18
5.150000E+03	2.837673E-16	9.387548E-18
5.160000E+03	2.828800E-16	9.283319E-18
5.170000E+03	2.820189E-16	9.170313E-18
5.180000E+03	2.811846E-16	9.049936E-18
5.190000E+03	2.803773E-16	8.923550E-18
5.200000E+03	2.796011E-16	8.792584E-18
5.210000E+03	2.788510E-16	8.658116E-18
5.220000E+03	2.781301E-16	8.521399E-18
5.230000E+03	2.774285E-16	8.383194E-18
5.240000E+03	2.767526E-16	8.244676E-18
5.250000E+03	2.760959E-16	8.106540E-18
5.260000E+03	2.754599E-16	7.969646E-18
5.270000E+03	2.748335E-16	7.834425E-18
5.280000E+03	2.742218E-16	7.701750E-18
5.290000E+03	2.736177E-16	7.572127E-18
5.300000E+03	2.730180E-16	7.446198E-18
5.310000E+03	2.724197E-16	7.324645E-18
5.320000E+03	2.718238E-16	7.208321E-18
5.330000E+03	2.712194E-16	7.097819E-18
5.340000E+03	2.706083E-16	6.994123E-18
5.350000E+03	2.699880E-16	6.898157E-18
5.360000E+03	2.693568E-16	6.810861E-18
5.370000E+03	2.687126E-16	6.733147E-18
5.380000E+03	2.680536E-16	6.665841E-18
5.390000E+03	2.673779E-16	6.609607E-18
5.400000E+03	2.666790E-16	6.564768E-18
5.410000E+03	2.659575E-16	6.531512E-18
5.420000E+03	2.652090E-16	6.509515E-18
5.430000E+03	2.644277E-16	6.498007E-18
5.440000E+03	2.636068E-16	6.495868E-18
5.450000E+03	2.627352E-16	6.501638E-18
5.460000E+03	2.618138E-16	6.514014E-18
5.470000E+03	2.608278E-16	6.531261E-18
5.480000E+03	2.597751E-16	6.551956E-18
5.490000E+03	2.586461E-16	6.574544E-18
5.500000E+03	2.574437E-16	6.597861E-18
5.510000E+03	2.561559E-16	6.620463E-18
5.520000E+03	2.547874E-16	6.641425E-18
5.530000E+03	2.533287E-16	6.659568E-18
5.540000E+03	2.517868E-16	6.674257E-18
5.550000E+03	2.501554E-16	6.684620E-18
5.560000E+03	2.484451E-16	6.690356E-18
5.570000E+03	2.466573E-16	6.691041E-18
5.580000E+03	2.447993E-16	6.686526E-18
5.590000E+03	2.428807E-16	6.676823E-18
5.600000E+03	2.409163E-16	6.662196E-18
5.610000E+03	2.389195E-16	6.642940E-18
5.620000E+03	2.368977E-16	6.619264E-18
5.630000E+03	2.348771E-16	6.591957E-18
5.640000E+03	2.328670E-16	6.561387E-18
5.650000E+03	2.308908E-16	6.528351E-18
5.660000E+03	2.289579E-16	6.493279E-18
5.670000E+03	2.270878E-16	6.456884E-18
5.680000E+03	2.252959E-16	6.419755E-18
5.690000E+03	2.235971E-16	6.382430E-18
5.700000E+03	2.220082E-16	6.345492E-18
5.710000E+03	2.205356E-16	6.309175E-18
5.720000E+03	2.192005E-16	6.274125E-18
5.730000E+03	2.180033E-16	6.240354E-18
5.740000E+03	2.169591E-16	6.208267E-18
5.750000E+03	2.160744E-16	6.178007E-18
5.760000E+03	2.153542E-16	6.149649E-18
5.770000E+03	2.147980E-16	6.123116E-18
5.780000E+03	2.144097E-16	6.098469E-18
5.790000E+03	2.141883E-16	6.075643E-18
5.800000E+03	2.141306E-16	6.054559E-18
5.810000E+03	2.142316E-16	6.035119E-18
5.820000E+03	2.144812E-16	6.017122E-18
5.830000E+03	2.148770E-16	6.000613E-18
5.840000E+03	2.154054E-16	5.985328E-18
5.850000E+03	2.160542E-16	5.971049E-18
5.860000E+03	2.168101E-16	5.957507E-18
5.870000E+03	2.176585E-16	5.944375E-18
5.880000E+03	2.185876E-16	5.931364E-18
5.890000E+03	2.195789E-16	5.917960E-18
5.900000E+03	2.206138E-16	5.903616E-18
5.910000E+03	2.216849E-16	5.888026E-18
5.920000E+03	2.227788E-16	5.870687E-18
5.930000E+03	2.238774E-16	5.850916E-18
5.940000E+03	2.249776E-16	5.828387E-18
5.950000E+03	2.260685E-16	5.802520E-18
5.960000E+03	2.271448E-16	5.772847E-18
5.970000E+03	2.282036E-16	5.738926E-18
5.980000E+03	2.292448E-16	5.700347E-18
5.990000E+03	2.302704E-16	5.656735E-18
6.000000E+03	2.312888E-16	5.607836E-18
6.010000E+03	2.323036E-16	5.553267E-18
6.020000E+03	2.333205E-16	5.492690E-18
6.030000E+03	2.343577E-16	5.426070E-18
6.040000E+03	2.354245E-16	5.353177E-18
6.050000E+03	2.365309E-16	5.273854E-18
6.060000E+03	2.376989E-16	5.188284E-18
6.070000E+03	2.389396E-16	5.096519E-18
6.080000E+03	2.402636E-16	4.998774E-18
6.090000E+03	2.416885E-16	4.895626E-18
6.100000E+03	2.432302E-16	4.787918E-18
6.110000E+03	2.448922E-16	4.676639E-18
6.120000E+03	2.466834E-16	4.563419E-18
6.130000E+03	2.486183E-16	4.450668E-18
6.140000E+03	2.506945E-16	4.341289E-18
6.150000E+03	2.529186E-16	4.239298E-18
6.160000E+03	2.552915E-16	4.149571E-18
6.170000E+03	2.578070E-16	4.077746E-18
6.180000E+03	2.604646E-16	4.030048E-18
6.190000E+03	2.632561E-16	4.012424E-18
6.200000E+03	2.661660E-16	4.029502E-18
6.210000E+03	2.691848E-16	4.083390E-18
6.220000E+03	2.722971E-16	4.172820E-18
6.230000E+03	2.754787E-16	4.294026E-18
6.240000E+03	2.787092E-16	4.441974E-18
6.250000E+03	2.819540E-16	4.610935E-18
6.260000E+03	2.851873E-16	4.795466E-18
6.270000E+03	2.883567E-16	4.990232E-18
6.280000E+03	2.914346E-16	5.191054E-18
6.290000E+03	2.943692E-16	5.394152E-18
6.300000E+03	2.971181E-16	5.596690E-18
6.310000E+03	2.996505E-16	5.796763E-18
6.320000E+03	3.019203E-16	5.992786E-18
6.330000E+03	3.038958E-16	6.183941E-18
6.340000E+03	3.055614E-16	6.370129E-18
6.350000E+03	3.068890E-16	6.551282E-18
6.360000E+03	3.078775E-16	6.728074E-18
6.370000E+03	3.085135E-16	6.900990E-18
6.380000E+03	3.088054E-16	7.070941E-18
6.390000E+03	3.087580E-16	7.238578E-18
6.400000E+03	3.083964E-16	7.404717E-18
6.410000E+03	3.077353E-16	7.569514E-18
6.420000E+03	3.067974E-16	7.732841E-18
6.430000E+03	3.056067E-16	7.894123E-18
6.440000E+03	3.041924E-16	8.052468E-18
6.450000E+03	3.025680E-16	8.206187E-18
6.460000E+03	3.007649E-16	8.353795E-18
6.470000E+03	2.987980E-16	8.493196E-18
6.480000E+03	2.966901E-16	8.622484E-18
6.490000E+03	2.944525E-16	8.739526E-18
6.500000E+03	2.921051E-16	8.842618E-18
6.510000E+03	2.896568E-16	8.929947E-18
6.520000E+03	2.871250E-16	9.000177E-18
6.530000E+03	2.845208E-16	9.051997E-18
6.540000E+03	2.818539E-16	9.084264E-18
6.550000E+03	2.791326E-16	9.096004E-18
6.560000E+03	2.763592E-16	9.086273E-18
6.570000E+03	2.735492E-16	9.054769E-18
6.580000E+03	2.707029E-16	9.000936E-18
6.590000E+03	2.678250E-16	8.924573E-18
6.600000E+03	2.649245E-16	8.825839E-18
6.610000E+03	2.620009E-16	8.704795E-18
6.620000E+03	2.590586E-16	8.561850E-18
6.630000E+03	2.561062E-16	8.397738E-18
6.640000E+03	2.531477E-16	8.213207E-18
6.650000E+03	2.501833E-16	8.009003E-18
6.660000E+03	2.472216E-16	7.786260E-18
6.670000E+03	2.442673E-16	7.546048E-18
6.680000E+03	2.413250E-16	7.289496E-18
6.690000E+03	2.383951E-16	7.017668E-18
6.700000E+03	2.354902E-16	6.732053E-18
6.710000E+03	2.326101E-16	6.433832E-18
6.720000E+03	2.297622E-16	6.124490E-18
6.730000E+03	2.269411E-16	5.805259E-18
6.740000E+03	2.241570E-16	5.477878E-18
6.750000E+03	2.214111E-16	5.143964E-18
6.760000E+03	2.186962E-16	4.805106E-18
6.770000E+03	2.160239E-16	4.463550E-18
6.780000E+03	2.133857E-16	4.121459E-18
6.790000E+03	2.107807E-16	3.781715E-18
6.800000E+03	2.082115E-16	3.448061E-18
6.810000E+03	2.056762E-16	3.125299E-18
6.820000E+03	2.031730E-16	2.819832E-18
6.830000E+03	2.006959E-16	2.540145E-18
6.840000E+03	1.982457E-16	2.297375E-18
6.850000E+03	1.958230E-16	2.104929E-18
6.860000E+03	1.934187E-16	1.976383E-18
6.870000E+03	1.910379E-16	1.921015E-18
6.880000E+03	1.886914E-16	1.937417E-18
6.890000E+03	1.864137E-16	2.013059E-18
6.900000E+03	1.842321E-16	2.130622E-18
6.910000E+03	1.821754E-16	2.273902E-18
6.920000E+03	1.802688E-16	2.430299E-18
6.930000E+03	1.785296E-16	2.590965E-18
6.940000E+03	1.769798E-16	2.750232E-18
6.950000E+03	1.756268E-16	2.904462E-18
6.960000E+03	1.744768E-16	3.051542E-18
6.970000E+03	1.735300E-16	3.190303E-18
6.980000E+03	1.727933E-16	3.320436E-18
6.990000E+03	1.722596E-16	3.441877E-18
7.000000E+03	1.719334E-16	3.555138E-18
7.010000E+03	1.718057E-16	3.660713E-18
7.020000E+03	1.718766E-16	3.759451E-18
7.030000E+03	1.721427E-16	3.852243E-18
7.040000E+03	1.726004E-16	3.940039E-18
7.050000E+03	1.732430E-16	4.023731E-18
7.060000E+03	1.740730E-16	4.104400E-18
7.070000E+03	1.750772E-16	4.182686E-18
7.080000E+03	1.762610E-16	4.259582E-18
7.090000E+03	1.776138E-16	4.335578E-18
7.100000E+03	1.791306E-16	4.411171E-18
7.110000E+03	1.808094E-16	4.486785E-18
7.120000E+03	1.826406E-16	4.562523E-18
7.130000E+03	1.846167E-16	4.638411E-18
7.140000E+03	1.867327E-16	4.714419E-18
7.150000E+03	1.889753E-16	4.790230E-18
7.160000E+03	1.913331E-16	4.865523E-18
7.170000E+03	1.937931E-16	4.939926E-18
7.180000E+03	1.963371E-16	5.012956E-18
7.190000E+03	1.989555E-16	5.084414E-18
7.200000E+03	2.016263E-16	5.153844E-18
7.210000E+03	2.043249E-16	5.220810E-18
7.220000E+03	2.070322E-16	5.285085E-18
7.230000E+03	2.097188E-16	5.346268E-18
7.240000E+03	2.123609E-16	5.404167E-18
7.250000E+03	2.149248E-16	5.458398E-18
7.260000E+03	2.173787E-16	5.508677E-18
7.270000E+03	2.196938E-16	5.554811E-18
7.280000E+03	2.218321E-16	5.596374E-18
7.290000E+03	2.237598E-16	5.633008E-18
7.300000E+03	2.254441E-16	5.664306E-18
7.310000E+03	2.268502E-16	5.689694E-18
7.320000E+03	2.279590E-16	5.708856E-18
7.330000E+03	2.287387E-16	5.720991E-18
7.340000E+03	2.291799E-16	5.725670E-18
7.350000E+03	2.292576E-16	5.721901E-18
7.360000E+03	2.289790E-16	5.709318E-18
7.370000E+03	2.283319E-16	5.686933E-18
7.380000E+03	2.273366E-16	5.654445E-18
7.390000E+03	2.259936E-16	5.610985E-18
7.400000E+03	2.243304E-16	5.556315E-18
7.410000E+03	2.223663E-16	5.490003E-18
7.420000E+03	2.201329E-16	5.411966E-18
7.430000E+03	2.176525E-16	5.321968E-18
7.440000E+03	2.149655E-16	5.220341E-18
7.450000E+03	2.121011E-16	5.107276E-18
7.460000E+03	2.090929E-16	4.983224E-18
7.470000E+03	2.059738E-16	4.848792E-18
7.480000E+03	2.027753E-16	4.704737E-18
7.490000E+03	1.995275E-16	4.551955E-18
7.500000E+03	1.962580E-16	4.391484E-18
7.510000E+03	1.929921E-16	4.224502E-18
7.520000E+03	1.897523E-16	4.052342E-18
7.530000E+03	1.865586E-16	3.876517E-18
7.540000E+03	1.834243E-16	3.698697E-18
7.550000E+03	1.803708E-16	3.521041E-18
7.560000E+03	1.774025E-16	3.345779E-18
7.570000E+03	1.745347E-16	3.175840E-18
7.580000E+03	1.717666E-16	3.014406E-18
7.590000E+03	1.691048E-16	2.865417E-18
7.600000E+03	1.665504E-16	2.733297E-18
7.610000E+03	1.641022E-16	2.622859E-18
7.620000E+03	1.617546E-16	2.538867E-18
7.630000E+03	1.595101E-16	2.485576E-18
7.640000E+03	1.573587E-16	2.465498E-18
7.650000E+03	1.553009E-16	2.478721E-18
7.660000E+03	1.533360E-16	2.522573E-18
7.670000E+03	1.514638E-16	2.592757E-18
7.680000E+03	1.496806E-16	2.684332E-18
7.690000E+03	1.479907E-16	2.792653E-18
7.700000E+03	1.463860E-16	2.913431E-18
7.710000E+03	1.448660E-16	3.043283E-18
7.720000E+03	1.434270E-16	3.179532E-18
7.730000E+03	1.420616E-16	3.320124E-18
7.740000E+03	1.407705E-16	3.463779E-18
7.750000E+03	1.395432E-16	3.609433E-18
7.760000E+03	1.383772E-16	3.756589E-18
