#wls	flux	fluxerr
1.600000E+03	1.146145E-17	8.189456E-18
1.640000E+03	1.167917E-17	8.280266E-18
1.680000E+03	1.191270E-17	8.378119E-18
1.720000E+03	1.216721E-17	8.486233E-18
1.760000E+03	1.243973E-17	8.602058E-18
1.800000E+03	1.273360E-17	8.727418E-18
1.840000E+03	1.305020E-17	8.862709E-18
1.880000E+03	1.339331E-17	9.009864E-18
1.920000E+03	1.376237E-17	9.167840E-18
1.960000E+03	1.416151E-17	9.338650E-18
2.000000E+03	1.459040E-17	9.521262E-18
2.040000E+03	1.505604E-17	9.719360E-18
2.080000E+03	1.555601E-17	9.930366E-18
2.120000E+03	1.609791E-17	1.015809E-17
2.160000E+03	1.668215E-17	1.040156E-17
2.200000E+03	1.731182E-17	1.066141E-17
2.240000E+03	1.799587E-17	1.094172E-17
2.280000E+03	1.873550E-17	1.124155E-17
2.320000E+03	1.953486E-17	1.156162E-17
2.360000E+03	2.039844E-17	1.190265E-17
2.400000E+03	2.133743E-17	1.226900E-17
2.440000E+03	2.235102E-17	1.265777E-17
2.480000E+03	2.345500E-17	1.307526E-17
2.520000E+03	2.464929E-17	1.351840E-17
2.560000E+03	2.594425E-17	1.398968E-17
2.600000E+03	2.734739E-17	1.448957E-17
2.640000E+03	2.887456E-17	1.502247E-17
2.680000E+03	3.053089E-17	1.558659E-17
2.720000E+03	3.232561E-17	1.618183E-17
2.760000E+03	3.427722E-17	1.681214E-17
2.800000E+03	3.639669E-17	1.747691E-17
2.840000E+03	3.869528E-17	1.817504E-17
2.880000E+03	4.118439E-17	1.890486E-17
2.920000E+03	4.388598E-17	1.966870E-17
2.960000E+03	4.681261E-17	2.046363E-17
3.000000E+03	4.997647E-17	2.128579E-17
3.010000E+03	5.080751E-17	2.149573E-17
3.020000E+03	5.165613E-17	2.170775E-17
3.030000E+03	5.252257E-17	2.192178E-17
3.040000E+03	5.340108E-17	2.213524E-17
3.050000E+03	5.429771E-17	2.235050E-17
3.060000E+03	5.521268E-17	2.256747E-17
3.070000E+03	5.614621E-17	2.278603E-17
3.080000E+03	5.709849E-17	2.300608E-17
3.090000E+03	5.806342E-17	2.322499E-17
3.100000E+03	5.904735E-17	2.344513E-17
3.110000E+03	6.005690E-17	2.366891E-17
3.120000E+03	6.107945E-17	2.389114E-17
3.130000E+03	6.212152E-17	2.411421E-17
3.140000E+03	6.318327E-17	2.433796E-17
3.150000E+03	6.425814E-17	2.455969E-17
3.160000E+03	6.535962E-17	2.478436E-17
3.170000E+03	6.648119E-17	2.500925E-17
3.180000E+03	6.762296E-17	2.523418E-17
3.190000E+03	6.877806E-17	2.545639E-17
3.200000E+03	6.996048E-17	2.568087E-17
3.210000E+03	7.116337E-17	2.590484E-17
3.220000E+03	7.237961E-17	2.612551E-17
3.230000E+03	7.362357E-17	2.634787E-17
3.240000E+03	7.488816E-17	2.656912E-17
3.250000E+03	7.616597E-17	2.678642E-17
3.260000E+03	7.747177E-17	2.700478E-17
3.270000E+03	7.879820E-17	2.722135E-17
3.280000E+03	8.014522E-17	2.743590E-17
3.290000E+03	8.151279E-17	2.764820E-17
3.300000E+03	8.290082E-17	2.785798E-17
3.310000E+03	8.430923E-17	2.806501E-17
3.320000E+03	8.574583E-17	2.827162E-17
3.330000E+03	8.719471E-17	2.847235E-17
3.340000E+03	8.867163E-17	2.867213E-17
3.350000E+03	9.016848E-17	2.886808E-17
3.360000E+03	9.168507E-17	2.905992E-17
3.370000E+03	9.322116E-17	2.924737E-17
3.380000E+03	9.477650E-17	2.943014E-17
3.390000E+03	9.635925E-17	2.961052E-17
3.400000E+03	9.796082E-17	2.978563E-17
3.410000E+03	9.958086E-17	2.995517E-17
3.420000E+03	1.012277E-16	3.012140E-17
3.430000E+03	1.028837E-16	3.027887E-17
3.440000E+03	1.045657E-16	3.043242E-17
3.450000E+03	1.062649E-16	3.057916E-17
3.460000E+03	1.079894E-16	3.072133E-17
3.470000E+03	1.097302E-16	3.085607E-17
3.480000E+03	1.114866E-16	3.098307E-17
3.490000E+03	1.132673E-16	3.110453E-17
3.500000E+03	1.150626E-16	3.121763E-17
3.510000E+03	1.168719E-16	3.132205E-17
3.520000E+03	1.187039E-16	3.141998E-17
3.530000E+03	1.205487E-16	3.150863E-17
3.540000E+03	1.224056E-16	3.158771E-17
3.550000E+03	1.242835E-16	3.165937E-17
3.560000E+03	1.261720E-16	3.172087E-17
3.570000E+03	1.280801E-16	3.177436E-17
3.580000E+03	1.299974E-16	3.181714E-17
3.590000E+03	1.319230E-16	3.184896E-17
3.600000E+03	1.338660E-16	3.187194E-17
3.610000E+03	1.358255E-16	3.188578E-17
3.620000E+03	1.377908E-16	3.188793E-17
3.630000E+03	1.397611E-16	3.187817E-17
3.640000E+03	1.417452E-16	3.185860E-17
3.650000E+03	1.437324E-16	3.182672E-17
3.660000E+03	1.457317E-16	3.178463E-17
3.670000E+03	1.477320E-16	3.172991E-17
3.680000E+03	1.497425E-16	3.166463E-17
3.690000E+03	1.517622E-16	3.158863E-17
3.700000E+03	1.537695E-16	3.149751E-17
3.710000E+03	1.557943E-16	3.139760E-17
3.720000E+03	1.578149E-16	3.128457E-17
3.730000E+03	1.598301E-16	3.115842E-17
3.740000E+03	1.618493E-16	3.102120E-17
3.750000E+03	1.638610E-16	3.087089E-17
3.760000E+03	1.658745E-16	3.070953E-17
3.770000E+03	1.678887E-16	3.053715E-17
3.780000E+03	1.698921E-16	3.035190E-17
3.790000E+03	1.718835E-16	3.015394E-17
3.800000E+03	1.738724E-16	2.994533E-17
3.810000E+03	1.758471E-16	2.972440E-17
3.820000E+03	1.778172E-16	2.949320E-17
3.830000E+03	1.797817E-16	2.925194E-17
3.840000E+03	1.817288E-16	2.899913E-17
3.850000E+03	1.836575E-16	2.873517E-17
3.860000E+03	1.855776E-16	2.846210E-17
3.870000E+03	1.874774E-16	2.817866E-17
3.880000E+03	1.893667E-16	2.788690E-17
3.890000E+03	1.912340E-16	2.758570E-17
3.900000E+03	1.930782E-16	2.727560E-17
3.910000E+03	1.949096E-16	2.695868E-17
3.920000E+03	1.967273E-16	2.663548E-17
3.930000E+03	1.985091E-16	2.630366E-17
3.940000E+03	2.002761E-16	2.596684E-17
3.950000E+03	2.020276E-16	2.562562E-17
3.960000E+03	2.037417E-16	2.527798E-17
3.970000E+03	2.054395E-16	2.492741E-17
3.980000E+03	2.071209E-16	2.457462E-17
3.990000E+03	2.087641E-16	2.421784E-17
4.000000E+03	2.103905E-16	2.386045E-17
4.010000E+03	2.119787E-16	2.350084E-17
4.020000E+03	2.135505E-16	2.314231E-17
4.030000E+03	2.151060E-16	2.278564E-17
4.040000E+03	2.166243E-16	2.242943E-17
4.050000E+03	2.181167E-16	2.207573E-17
4.060000E+03	2.195838E-16	2.172544E-17
4.070000E+03	2.210373E-16	2.138044E-17
4.080000E+03	2.224569E-16	2.103953E-17
4.090000E+03	2.238543E-16	2.070459E-17
4.100000E+03	2.252311E-16	2.037644E-17
4.110000E+03	2.265886E-16	2.005583E-17
4.120000E+03	2.279286E-16	1.974353E-17
4.130000E+03	2.292529E-16	1.944020E-17
4.140000E+03	2.305531E-16	1.914563E-17
4.150000E+03	2.318418E-16	1.886130E-17
4.160000E+03	2.331109E-16	1.858690E-17
4.170000E+03	2.343837E-16	1.832455E-17
4.180000E+03	2.356317E-16	1.807221E-17
4.190000E+03	2.368887E-16	1.783261E-17
4.200000E+03	2.381267E-16	1.760366E-17
4.210000E+03	2.393794E-16	1.738784E-17
4.220000E+03	2.406192E-16	1.718301E-17
4.230000E+03	2.418697E-16	1.699069E-17
4.240000E+03	2.431240E-16	1.681011E-17
4.250000E+03	2.443855E-16	1.664120E-17
4.260000E+03	2.456675E-16	1.648446E-17
4.270000E+03	2.469533E-16	1.633833E-17
4.280000E+03	2.482664E-16	1.620386E-17
4.290000E+03	2.496001E-16	1.608006E-17
4.300000E+03	2.509478E-16	1.596592E-17
4.310000E+03	2.523328E-16	1.586230E-17
4.320000E+03	2.537384E-16	1.576747E-17
4.330000E+03	2.551778E-16	1.568159E-17
4.340000E+03	2.566542E-16	1.560414E-17
4.350000E+03	2.581605E-16	1.553396E-17
4.360000E+03	2.597196E-16	1.547168E-17
4.370000E+03	2.613045E-16	1.541495E-17
4.380000E+03	2.629375E-16	1.536434E-17
4.390000E+03	2.646212E-16	1.531922E-17
4.400000E+03	2.663479E-16	1.527840E-17
4.410000E+03	2.681295E-16	1.524179E-17
4.420000E+03	2.699483E-16	1.520763E-17
4.430000E+03	2.718254E-16	1.517639E-17
4.440000E+03	2.737524E-16	1.514682E-17
4.450000E+03	2.757402E-16	1.511881E-17
4.460000E+03	2.777699E-16	1.509059E-17
4.470000E+03	2.798518E-16	1.506200E-17
4.480000E+03	2.819960E-16	1.503288E-17
4.490000E+03	2.841825E-16	1.500145E-17
4.500000E+03	2.864306E-16	1.496805E-17
4.510000E+03	2.887197E-16	1.493089E-17
4.520000E+03	2.910583E-16	1.488975E-17
4.530000E+03	2.934350E-16	1.484336E-17
4.540000E+03	2.958676E-16	1.479198E-17
4.550000E+03	2.983338E-16	1.473381E-17
4.560000E+03	3.008409E-16	1.466857E-17
4.570000E+03	3.033756E-16	1.459500E-17
4.580000E+03	3.059445E-16	1.451279E-17
4.590000E+03	3.085336E-16	1.442071E-17
4.600000E+03	3.111487E-16	1.431847E-17
4.610000E+03	3.137749E-16	1.420488E-17
4.620000E+03	3.164173E-16	1.407974E-17
4.630000E+03	3.190604E-16	1.394195E-17
4.640000E+03	3.217084E-16	1.379143E-17
4.650000E+03	3.243449E-16	1.362729E-17
4.660000E+03	3.269631E-16	1.344920E-17
4.670000E+03	3.295560E-16	1.325702E-17
4.680000E+03	3.321263E-16	1.305118E-17
4.690000E+03	3.346558E-16	1.283153E-17
4.700000E+03	3.371358E-16	1.259860E-17
4.710000E+03	3.395575E-16	1.235328E-17
4.720000E+03	3.419220E-16	1.209721E-17
4.730000E+03	3.441985E-16	1.183137E-17
4.740000E+03	3.463976E-16	1.155877E-17
4.750000E+03	3.484983E-16	1.128191E-17
4.760000E+03	3.504894E-16	1.100436E-17
4.770000E+03	3.523599E-16	1.073041E-17
4.780000E+03	3.541089E-16	1.046547E-17
4.790000E+03	3.557038E-16	1.021475E-17
4.800000E+03	3.571441E-16	9.985111E-18
4.810000E+03	3.584295E-16	9.783873E-18
4.820000E+03	3.595288E-16	9.617700E-18
4.830000E+03	3.604538E-16	9.494151E-18
4.840000E+03	3.611861E-16	9.419087E-18
4.850000E+03	3.617090E-16	9.396868E-18
4.860000E+03	3.620397E-16	9.430464E-18
4.870000E+03	3.621677E-16	9.518748E-18
4.880000E+03	3.620967E-16	9.657910E-18
4.890000E+03	3.618322E-16	9.842208E-18
4.900000E+03	3.613819E-16	1.006467E-17
4.910000E+03	3.607544E-16	1.031776E-17
4.920000E+03	3.599597E-16	1.059389E-17
4.930000E+03	3.590084E-16	1.088585E-17
4.940000E+03	3.579114E-16	1.118702E-17
4.950000E+03	3.566802E-16	1.149153E-17
4.960000E+03	3.553363E-16	1.179463E-17
4.970000E+03	3.538710E-16	1.209135E-17
4.980000E+03	3.523157E-16	1.237881E-17
4.990000E+03	3.506713E-16	1.265379E-17
5.000000E+03	3.489487E-16	1.291404E-17
5.010000E+03	3.471582E-16	1.315783E-17
5.020000E+03	3.453097E-16	1.338394E-17
5.030000E+03	3.434127E-16	1.359155E-17
5.040000E+03	3.414854E-16	1.378058E-17
5.050000E+03	3.395174E-16	1.395015E-17
5.060000E+03	3.375352E-16	1.410114E-17
5.070000E+03	3.355367E-16	1.423352E-17
5.080000E+03	3.335286E-16	1.434784E-17
5.090000E+03	3.315259E-16	1.444517E-17
5.100000E+03	3.295161E-16	1.452554E-17
5.110000E+03	3.275219E-16	1.459065E-17
5.120000E+03	3.255388E-16	1.464107E-17
5.130000E+03	3.235790E-16	1.467822E-17
5.140000E+03	3.216282E-16	1.470236E-17
5.150000E+03	3.197061E-16	1.471532E-17
5.160000E+03	3.178061E-16	1.471775E-17
5.170000E+03	3.159378E-16	1.471105E-17
5.180000E+03	3.140935E-16	1.469582E-17
5.190000E+03	3.122735E-16	1.467296E-17
5.200000E+03	3.104775E-16	1.464336E-17
5.210000E+03	3.087130E-16	1.460821E-17
5.220000E+03	3.069705E-16	1.456786E-17
5.230000E+03	3.052484E-16	1.452297E-17
5.240000E+03	3.035528E-16	1.447451E-17
5.250000E+03	3.018732E-16	1.442261E-17
5.260000E+03	3.002149E-16	1.436809E-17
5.270000E+03	2.985670E-16	1.431093E-17
5.280000E+03	2.969264E-16	1.425144E-17
5.290000E+03	2.952975E-16	1.419020E-17
5.300000E+03	2.936691E-16	1.412703E-17
5.310000E+03	2.920453E-16	1.406240E-17
5.320000E+03	2.904147E-16	1.399602E-17
5.330000E+03	2.887737E-16	1.392791E-17
5.340000E+03	2.871263E-16	1.385841E-17
5.350000E+03	2.854687E-16	1.378750E-17
5.360000E+03	2.837901E-16	1.371473E-17
5.370000E+03	2.820872E-16	1.364003E-17
5.380000E+03	2.803642E-16	1.356365E-17
5.390000E+03	2.786182E-16	1.348551E-17
5.400000E+03	2.768392E-16	1.340513E-17
5.410000E+03	2.750322E-16	1.332276E-17
5.420000E+03	2.731878E-16	1.323798E-17
5.430000E+03	2.713047E-16	1.315070E-17
5.440000E+03	2.693955E-16	1.306153E-17
5.450000E+03	2.674455E-16	1.296975E-17
5.460000E+03	2.654545E-16	1.287533E-17
5.470000E+03	2.634296E-16	1.277862E-17
5.480000E+03	2.613716E-16	1.267964E-17
5.490000E+03	2.592751E-16	1.257812E-17
5.500000E+03	2.571488E-16	1.247448E-17
5.510000E+03	2.549954E-16	1.236884E-17
5.520000E+03	2.528180E-16	1.226134E-17
5.530000E+03	2.506139E-16	1.215186E-17
5.540000E+03	2.483942E-16	1.204092E-17
5.550000E+03	2.461575E-16	1.192845E-17
5.560000E+03	2.439223E-16	1.181534E-17
5.570000E+03	2.416820E-16	1.170126E-17
5.580000E+03	2.394495E-16	1.158683E-17
5.590000E+03	2.372259E-16	1.147209E-17
5.600000E+03	2.350306E-16	1.135795E-17
5.610000E+03	2.328592E-16	1.124419E-17
5.620000E+03	2.307256E-16	1.113144E-17
5.630000E+03	2.286377E-16	1.102007E-17
5.640000E+03	2.266034E-16	1.091041E-17
5.650000E+03	2.246305E-16	1.080279E-17
5.660000E+03	2.227266E-16	1.069754E-17
5.670000E+03	2.208992E-16	1.059493E-17
5.680000E+03	2.191495E-16	1.049498E-17
5.690000E+03	2.174957E-16	1.039847E-17
5.700000E+03	2.159323E-16	1.030505E-17
5.710000E+03	2.144764E-16	1.021545E-17
5.720000E+03	2.131272E-16	1.012953E-17
5.730000E+03	2.118836E-16	1.004711E-17
5.740000E+03	2.107602E-16	9.968786E-18
5.750000E+03	2.097546E-16	9.894295E-18
5.760000E+03	2.088691E-16	9.823611E-18
5.770000E+03	2.081051E-16	9.756663E-18
5.780000E+03	2.074637E-16	9.693341E-18
5.790000E+03	2.069451E-16	9.633492E-18
5.800000E+03	2.065488E-16	9.576929E-18
5.810000E+03	2.062792E-16	9.523673E-18
5.820000E+03	2.061294E-16	9.473214E-18
5.830000E+03	2.060974E-16	9.425261E-18
5.840000E+03	2.061805E-16	9.379492E-18
5.850000E+03	2.063759E-16	9.335562E-18
5.860000E+03	2.066859E-16	9.293342E-18
5.870000E+03	2.071017E-16	9.252200E-18
5.880000E+03	2.076198E-16	9.211734E-18
5.890000E+03	2.082366E-16	9.171528E-18
5.900000E+03	2.089541E-16	9.131402E-18
5.910000E+03	2.097636E-16	9.090694E-18
5.920000E+03	2.106618E-16	9.048987E-18
5.930000E+03	2.116514E-16	9.006106E-18
5.940000E+03	2.127245E-16	8.961421E-18
5.950000E+03	2.138844E-16	8.914791E-18
5.960000E+03	2.151184E-16	8.865398E-18
5.970000E+03	2.164364E-16	8.813395E-18
5.980000E+03	2.178377E-16	8.758501E-18
5.990000E+03	2.193164E-16	8.700255E-18
6.000000E+03	2.208726E-16	8.638485E-18
6.010000E+03	2.225127E-16	8.573313E-18
6.020000E+03	2.242315E-16	8.504484E-18
6.030000E+03	2.260362E-16	8.432288E-18
6.040000E+03	2.279219E-16	8.356678E-18
6.050000E+03	2.298959E-16	8.278181E-18
6.060000E+03	2.319532E-16	8.197038E-18
6.070000E+03	2.341008E-16	8.114108E-18
6.080000E+03	2.363328E-16	8.030026E-18
6.090000E+03	2.386492E-16	7.945888E-18
6.100000E+03	2.410551E-16	7.863277E-18
6.110000E+03	2.435491E-16	7.783864E-18
6.120000E+03	2.461217E-16	7.709448E-18
6.130000E+03	2.487756E-16	7.642586E-18
6.140000E+03	2.514986E-16	7.585761E-18
6.150000E+03	2.542907E-16	7.542160E-18
6.160000E+03	2.571366E-16	7.514788E-18
6.170000E+03	2.600334E-16	7.507137E-18
6.180000E+03	2.629698E-16	7.522392E-18
6.190000E+03	2.659257E-16	7.563170E-18
6.200000E+03	2.688942E-16	7.631816E-18
6.210000E+03	2.718532E-16	7.729058E-18
6.220000E+03	2.747950E-16	7.854465E-18
6.230000E+03	2.777039E-16	8.006343E-18
6.240000E+03	2.805559E-16	8.181988E-18
6.250000E+03	2.833411E-16	8.378569E-18
6.260000E+03	2.860416E-16	8.592709E-18
6.270000E+03	2.886312E-16	8.820638E-18
6.280000E+03	2.910991E-16	9.059036E-18
6.290000E+03	2.934268E-16	9.304452E-18
6.300000E+03	2.955883E-16	9.553341E-18
6.310000E+03	2.975825E-16	9.803145E-18
6.320000E+03	2.993770E-16	1.005051E-17
6.330000E+03	3.009571E-16	1.029286E-17
6.340000E+03	3.023262E-16	1.052843E-17
6.350000E+03	3.034569E-16	1.075461E-17
6.360000E+03	3.043485E-16	1.096988E-17
6.370000E+03	3.049946E-16	1.117267E-17
6.380000E+03	3.053825E-16	1.136129E-17
6.390000E+03	3.055273E-16	1.153522E-17
6.400000E+03	3.054127E-16	1.169282E-17
6.410000E+03	3.050496E-16	1.183356E-17
6.420000E+03	3.044428E-16	1.195675E-17
6.430000E+03	3.035989E-16	1.206179E-17
6.440000E+03	3.025260E-16	1.214819E-17
6.450000E+03	3.012336E-16	1.221555E-17
6.460000E+03	2.997241E-16	1.226320E-17
6.470000E+03	2.980257E-16	1.229156E-17
6.480000E+03	2.961423E-16	1.230009E-17
6.490000E+03	2.940783E-16	1.228830E-17
6.500000E+03	2.918630E-16	1.225677E-17
6.510000E+03	2.894931E-16	1.220480E-17
6.520000E+03	2.869976E-16	1.213308E-17
6.530000E+03	2.843730E-16	1.204099E-17
6.540000E+03	2.816478E-16	1.192935E-17
6.550000E+03	2.788179E-16	1.179766E-17
6.560000E+03	2.759105E-16	1.164684E-17
6.570000E+03	2.729287E-16	1.147686E-17
6.580000E+03	2.698829E-16	1.128808E-17
6.590000E+03	2.667829E-16	1.108093E-17
6.600000E+03	2.636382E-16	1.085592E-17
6.610000E+03	2.604575E-16	1.061358E-17
6.620000E+03	2.572563E-16	1.035484E-17
6.630000E+03	2.540278E-16	1.007976E-17
6.640000E+03	2.507938E-16	9.789677E-18
6.650000E+03	2.475538E-16	9.485072E-18
6.660000E+03	2.443142E-16	9.166795E-18
6.670000E+03	2.410878E-16	8.836005E-18
6.680000E+03	2.378666E-16	8.493151E-18
6.690000E+03	2.346693E-16	8.139754E-18
6.700000E+03	2.314942E-16	7.776659E-18
6.710000E+03	2.283525E-16	7.405252E-18
6.720000E+03	2.252418E-16	7.026572E-18
6.730000E+03	2.221602E-16	6.641816E-18
6.740000E+03	2.191308E-16	6.253096E-18
6.750000E+03	2.161384E-16	5.861574E-18
6.760000E+03	2.131996E-16	5.469595E-18
6.770000E+03	2.103119E-16	5.079327E-18
6.780000E+03	2.074853E-16	4.693731E-18
6.790000E+03	2.047177E-16	4.316129E-18
6.800000E+03	2.020135E-16	3.950896E-18
6.810000E+03	1.993830E-16	3.603722E-18
6.820000E+03	1.968196E-16	3.281543E-18
6.830000E+03	1.943462E-16	2.993706E-18
6.840000E+03	1.919515E-16	2.750912E-18
6.850000E+03	1.896537E-16	2.565472E-18
6.860000E+03	1.874599E-16	2.448519E-18
6.870000E+03	1.853666E-16	2.406605E-18
6.880000E+03	1.833908E-16	2.438372E-18
6.890000E+03	1.815360E-16	2.533883E-18
6.900000E+03	1.798003E-16	2.678941E-18
6.910000E+03	1.781880E-16	2.859113E-18
6.920000E+03	1.767033E-16	3.062035E-18
6.930000E+03	1.753558E-16	3.278259E-18
6.940000E+03	1.741499E-16	3.500896E-18
6.950000E+03	1.730795E-16	3.724961E-18
6.960000E+03	1.721587E-16	3.947475E-18
6.970000E+03	1.713858E-16	4.166294E-18
6.980000E+03	1.707687E-16	4.380326E-18
6.990000E+03	1.703047E-16	4.588813E-18
7.000000E+03	1.700005E-16	4.791653E-18
7.010000E+03	1.698471E-16	4.988601E-18
7.020000E+03	1.698552E-16	5.180162E-18
7.030000E+03	1.700196E-16	5.366523E-18
7.040000E+03	1.703445E-16	5.548244E-18
7.050000E+03	1.708236E-16	5.725592E-18
7.060000E+03	1.714548E-16	5.898988E-18
7.070000E+03	1.722353E-16	6.068830E-18
7.080000E+03	1.731670E-16	6.235665E-18
7.090000E+03	1.742406E-16	6.399624E-18
7.100000E+03	1.754510E-16	6.560952E-18
7.110000E+03	1.767979E-16	6.720028E-18
7.120000E+03	1.782639E-16	6.876553E-18
7.130000E+03	1.798522E-16	7.030958E-18
7.140000E+03	1.815488E-16	7.182982E-18
7.150000E+03	1.833442E-16	7.332481E-18
7.160000E+03	1.852276E-16	7.479229E-18
7.170000E+03	1.871872E-16	7.622917E-18
7.180000E+03	1.892160E-16	7.763391E-18
7.190000E+03	1.912943E-16	7.899958E-18
7.200000E+03	1.934012E-16	8.031835E-18
7.210000E+03	1.955323E-16	8.158897E-18
7.220000E+03	1.976649E-16	8.280234E-18
7.230000E+03	1.997810E-16	8.395126E-18
7.240000E+03	2.018562E-16	8.502543E-18
7.250000E+03	2.038837E-16	8.602199E-18
7.260000E+03	2.058382E-16	8.693011E-18
7.270000E+03	2.077006E-16	8.774141E-18
7.280000E+03	2.094520E-16	8.844751E-18
7.290000E+03	2.110675E-16	8.903747E-18
7.300000E+03	2.125424E-16	8.950881E-18
7.310000E+03	2.138476E-16	8.984858E-18
7.320000E+03	2.149812E-16	9.005541E-18
7.330000E+03	2.159169E-16	9.011762E-18
7.340000E+03	2.166502E-16	9.003270E-18
7.350000E+03	2.171723E-16	8.979637E-18
7.360000E+03	2.174765E-16	8.940546E-18
7.370000E+03	2.175523E-16	8.885527E-18
7.380000E+03	2.174046E-16	8.814786E-18
7.390000E+03	2.170346E-16	8.728390E-18
7.400000E+03	2.164457E-16	8.626540E-18
7.410000E+03	2.156437E-16	8.509577E-18
7.420000E+03	2.146298E-16	8.377723E-18
7.430000E+03	2.134206E-16	8.231862E-18
7.440000E+03	2.120209E-16	8.072499E-18
7.450000E+03	2.104501E-16	7.900783E-18
7.460000E+03	2.087221E-16	7.717736E-18
7.470000E+03	2.068516E-16	7.524508E-18
7.480000E+03	2.048471E-16	7.322151E-18
7.490000E+03	2.027303E-16	7.112318E-18
7.500000E+03	2.005100E-16	6.896344E-18
7.510000E+03	1.982072E-16	6.676149E-18
7.520000E+03	1.958300E-16	6.453378E-18
7.530000E+03	1.933979E-16	6.230256E-18
7.540000E+03	1.909232E-16	6.008971E-18
7.550000E+03	1.884115E-16	5.791714E-18
7.560000E+03	1.858733E-16	5.581068E-18
7.570000E+03	1.833293E-16	5.380135E-18
7.580000E+03	1.807704E-16	5.191308E-18
7.590000E+03	1.782152E-16	5.017930E-18
7.600000E+03	1.756696E-16	4.862996E-18
7.610000E+03	1.731333E-16	4.729200E-18
7.620000E+03	1.706108E-16	4.619048E-18
7.630000E+03	1.681116E-16	4.534600E-18
7.640000E+03	1.656343E-16	4.476785E-18
7.650000E+03	1.631883E-16	4.445596E-18
7.660000E+03	1.607732E-16	4.439415E-18
7.670000E+03	1.583940E-16	4.455985E-18
7.680000E+03	1.560602E-16	4.492729E-18
7.690000E+03	1.537706E-16	4.546602E-18
7.700000E+03	1.515336E-16	4.614887E-18
7.710000E+03	1.493420E-16	4.694618E-18
7.720000E+03	1.472126E-16	4.783860E-18
7.730000E+03	1.451324E-16	4.880103E-18
7.740000E+03	1.431120E-16	4.981941E-18
7.750000E+03	1.411516E-16	5.087987E-18
7.760000E+03	1.392423E-16	5.196813E-18
