#wls	flux	fluxerr
1.600000E+03	2.258132E-17	1.690150E-17
1.640000E+03	2.328608E-17	1.731486E-17
1.680000E+03	2.402653E-17	1.774414E-17
1.720000E+03	2.480457E-17	1.818978E-17
1.760000E+03	2.562678E-17	1.865553E-17
1.800000E+03	2.648622E-17	1.913520E-17
1.840000E+03	2.739439E-17	1.963593E-17
1.880000E+03	2.834903E-17	2.015474E-17
1.920000E+03	2.934730E-17	2.068824E-17
1.960000E+03	3.040197E-17	2.124398E-17
2.000000E+03	3.151621E-17	2.182244E-17
2.040000E+03	3.268170E-17	2.241610E-17
2.080000E+03	3.390667E-17	2.302882E-17
2.120000E+03	3.520025E-17	2.366475E-17
2.160000E+03	3.655317E-17	2.431549E-17
2.200000E+03	3.798125E-17	2.498930E-17
2.240000E+03	3.948142E-17	2.568163E-17
2.280000E+03	4.105694E-17	2.639196E-17
2.320000E+03	4.271112E-17	2.711963E-17
2.360000E+03	4.444729E-17	2.786378E-17
2.400000E+03	4.626885E-17	2.862336E-17
2.440000E+03	4.818765E-17	2.940228E-17
2.480000E+03	5.019043E-17	3.018882E-17
2.520000E+03	5.229786E-17	3.099171E-17
2.560000E+03	5.450475E-17	3.180374E-17
2.600000E+03	5.681430E-17	3.262257E-17
2.640000E+03	5.922956E-17	3.344555E-17
2.680000E+03	6.175338E-17	3.426969E-17
2.720000E+03	6.439966E-17	3.509779E-17
2.760000E+03	6.714867E-17	3.591402E-17
2.800000E+03	7.002545E-17	3.672670E-17
2.840000E+03	7.302037E-17	3.752522E-17
2.880000E+03	7.612137E-17	3.829805E-17
2.920000E+03	7.935500E-17	3.905318E-17
2.960000E+03	8.270855E-17	3.977845E-17
3.000000E+03	8.619625E-17	4.047491E-17
3.010000E+03	8.707174E-17	4.063569E-17
3.020000E+03	8.796957E-17	4.080077E-17
3.030000E+03	8.887477E-17	4.096303E-17
3.040000E+03	8.978730E-17	4.112237E-17
3.050000E+03	9.070713E-17	4.127867E-17
3.060000E+03	9.161834E-17	4.142468E-17
3.070000E+03	9.255244E-17	4.157459E-17
3.080000E+03	9.349368E-17	4.172115E-17
3.090000E+03	9.444200E-17	4.186426E-17
3.100000E+03	9.539735E-17	4.200381E-17
3.110000E+03	9.635964E-17	4.213968E-17
3.120000E+03	9.732882E-17	4.227178E-17
3.130000E+03	9.830480E-17	4.239998E-17
3.140000E+03	9.927038E-17	4.251684E-17
3.150000E+03	1.002596E-16	4.263691E-17
3.160000E+03	1.012553E-16	4.275276E-17
3.170000E+03	1.022575E-16	4.286428E-17
3.180000E+03	1.032661E-16	4.297135E-17
3.190000E+03	1.042809E-16	4.307387E-17
3.200000E+03	1.053019E-16	4.317173E-17
3.210000E+03	1.063289E-16	4.326481E-17
3.220000E+03	1.073618E-16	4.335301E-17
3.230000E+03	1.084005E-16	4.343622E-17
3.240000E+03	1.094449E-16	4.351432E-17
3.250000E+03	1.104948E-16	4.358722E-17
3.260000E+03	1.115309E-16	4.364730E-17
3.270000E+03	1.125912E-16	4.370946E-17
3.280000E+03	1.136566E-16	4.376610E-17
3.290000E+03	1.147269E-16	4.381712E-17
3.300000E+03	1.158020E-16	4.386241E-17
3.310000E+03	1.168817E-16	4.390187E-17
3.320000E+03	1.179658E-16	4.393542E-17
3.330000E+03	1.190541E-16	4.396296E-17
3.340000E+03	1.201465E-16	4.398438E-17
3.350000E+03	1.212427E-16	4.399962E-17
3.360000E+03	1.223425E-16	4.400856E-17
3.370000E+03	1.234458E-16	4.401114E-17
3.380000E+03	1.245523E-16	4.400727E-17
3.390000E+03	1.256618E-16	4.399687E-17
3.400000E+03	1.267741E-16	4.397986E-17
3.410000E+03	1.278889E-16	4.395618E-17
3.420000E+03	1.290060E-16	4.392576E-17
3.430000E+03	1.301251E-16	4.388853E-17
3.440000E+03	1.312461E-16	4.384444E-17
3.450000E+03	1.323685E-16	4.379343E-17
3.460000E+03	1.334923E-16	4.373545E-17
3.470000E+03	1.346170E-16	4.367045E-17
3.480000E+03	1.357425E-16	4.359840E-17
3.490000E+03	1.368684E-16	4.351927E-17
3.500000E+03	1.379944E-16	4.343301E-17
3.510000E+03	1.391203E-16	4.333962E-17
3.520000E+03	1.402456E-16	4.323906E-17
3.530000E+03	1.413702E-16	4.313134E-17
3.540000E+03	1.425180E-16	4.302377E-17
3.550000E+03	1.436402E-16	4.290169E-17
3.560000E+03	1.447607E-16	4.277244E-17
3.570000E+03	1.458791E-16	4.263605E-17
3.580000E+03	1.469950E-16	4.249254E-17
3.590000E+03	1.481082E-16	4.234194E-17
3.600000E+03	1.492182E-16	4.218430E-17
3.610000E+03	1.503246E-16	4.201965E-17
3.620000E+03	1.514272E-16	4.184806E-17
3.630000E+03	1.525255E-16	4.166959E-17
3.640000E+03	1.536192E-16	4.148432E-17
3.650000E+03	1.547078E-16	4.129232E-17
3.660000E+03	1.557911E-16	4.109370E-17
3.670000E+03	1.568685E-16	4.088854E-17
3.680000E+03	1.579398E-16	4.067696E-17
3.690000E+03	1.590044E-16	4.045908E-17
3.700000E+03	1.600620E-16	4.023503E-17
3.710000E+03	1.611122E-16	4.000494E-17
3.720000E+03	1.621820E-16	3.977570E-17
3.730000E+03	1.632162E-16	3.953395E-17
3.740000E+03	1.642418E-16	3.928664E-17
3.750000E+03	1.652583E-16	3.903395E-17
3.760000E+03	1.662653E-16	3.877606E-17
3.770000E+03	1.672623E-16	3.851316E-17
3.780000E+03	1.682490E-16	3.824547E-17
3.790000E+03	1.692249E-16	3.797319E-17
3.800000E+03	1.701895E-16	3.769656E-17
3.810000E+03	1.711425E-16	3.741580E-17
3.820000E+03	1.720834E-16	3.713115E-17
3.830000E+03	1.730119E-16	3.684286E-17
3.840000E+03	1.739274E-16	3.655118E-17
3.850000E+03	1.748296E-16	3.625639E-17
3.860000E+03	1.757181E-16	3.595874E-17
3.870000E+03	1.765925E-16	3.565851E-17
3.880000E+03	1.774523E-16	3.535598E-17
3.890000E+03	1.782971E-16	3.505144E-17
3.900000E+03	1.791568E-16	3.475101E-17
3.910000E+03	1.799709E-16	3.444325E-17
3.920000E+03	1.807688E-16	3.413433E-17
3.930000E+03	1.815504E-16	3.382456E-17
3.940000E+03	1.823152E-16	3.351423E-17
3.950000E+03	1.830629E-16	3.320362E-17
3.960000E+03	1.837932E-16	3.289302E-17
3.970000E+03	1.845058E-16	3.258272E-17
3.980000E+03	1.852005E-16	3.227298E-17
3.990000E+03	1.858769E-16	3.196409E-17
4.000000E+03	1.865348E-16	3.165630E-17
4.010000E+03	1.871739E-16	3.134986E-17
4.020000E+03	1.877942E-16	3.104502E-17
4.030000E+03	1.883953E-16	3.074201E-17
4.040000E+03	1.889771E-16	3.044105E-17
4.050000E+03	1.895395E-16	3.014233E-17
4.060000E+03	1.900824E-16	2.984605E-17
4.070000E+03	1.906056E-16	2.955238E-17
4.080000E+03	1.911091E-16	2.926146E-17
4.090000E+03	1.915929E-16	2.897344E-17
4.100000E+03	1.920569E-16	2.868843E-17
4.110000E+03	1.925011E-16	2.840653E-17
4.120000E+03	1.929256E-16	2.812782E-17
4.130000E+03	1.933305E-16	2.785234E-17
4.140000E+03	1.937159E-16	2.758014E-17
4.150000E+03	1.940818E-16	2.731124E-17
4.160000E+03	1.944284E-16	2.704562E-17
4.170000E+03	1.947559E-16	2.678327E-17
4.180000E+03	1.950645E-16	2.652414E-17
4.190000E+03	1.953545E-16	2.626818E-17
4.200000E+03	1.955935E-16	2.601097E-17
4.210000E+03	1.958469E-16	2.576112E-17
4.220000E+03	1.960825E-16	2.551416E-17
4.230000E+03	1.963005E-16	2.526994E-17
4.240000E+03	1.965014E-16	2.502835E-17
4.250000E+03	1.966856E-16	2.478922E-17
4.260000E+03	1.968533E-16	2.455240E-17
4.270000E+03	1.970050E-16	2.431772E-17
4.280000E+03	1.971412E-16	2.408500E-17
4.290000E+03	1.972621E-16	2.385406E-17
4.300000E+03	1.973682E-16	2.362470E-17
4.310000E+03	1.974273E-16	2.339286E-17
4.320000E+03	1.975052E-16	2.316614E-17
4.330000E+03	1.975695E-16	2.294042E-17
4.340000E+03	1.976207E-16	2.271550E-17
4.350000E+03	1.976592E-16	2.249119E-17
4.360000E+03	1.976854E-16	2.226729E-17
4.370000E+03	1.976667E-16	2.203995E-17
4.380000E+03	1.976692E-16	2.181633E-17
4.390000E+03	1.976602E-16	2.159256E-17
4.400000E+03	1.976401E-16	2.136844E-17
4.410000E+03	1.976091E-16	2.114382E-17
4.420000E+03	1.975675E-16	2.091853E-17
4.430000E+03	1.974826E-16	2.068900E-17
4.440000E+03	1.974199E-16	2.046195E-17
4.450000E+03	1.973468E-16	2.023380E-17
4.460000E+03	1.972634E-16	2.000443E-17
4.470000E+03	1.971371E-16	1.977047E-17
4.480000E+03	1.970330E-16	1.953839E-17
4.490000E+03	1.969183E-16	1.930483E-17
4.500000E+03	1.967930E-16	1.906972E-17
4.510000E+03	1.966244E-16	1.882993E-17
4.520000E+03	1.964772E-16	1.859171E-17
4.530000E+03	1.963188E-16	1.835192E-17
4.540000E+03	1.961489E-16	1.811059E-17
4.550000E+03	1.959348E-16	1.786487E-17
4.560000E+03	1.957410E-16	1.762078E-17
4.570000E+03	1.955347E-16	1.737546E-17
4.580000E+03	1.952835E-16	1.712627E-17
4.590000E+03	1.950513E-16	1.687909E-17
4.600000E+03	1.948057E-16	1.663130E-17
4.610000E+03	1.945144E-16	1.638050E-17
4.620000E+03	1.942410E-16	1.613245E-17
4.630000E+03	1.939213E-16	1.588218E-17
4.640000E+03	1.936189E-16	1.563537E-17
4.650000E+03	1.933015E-16	1.538984E-17
4.660000E+03	1.929372E-16	1.514363E-17
4.670000E+03	1.925893E-16	1.490232E-17
4.680000E+03	1.921942E-16	1.466159E-17
4.690000E+03	1.918150E-16	1.442699E-17
4.700000E+03	1.913886E-16	1.419444E-17
4.710000E+03	1.909777E-16	1.396942E-17
4.720000E+03	1.905508E-16	1.375037E-17
4.730000E+03	1.900768E-16	1.353591E-17
4.740000E+03	1.896182E-16	1.333140E-17
4.750000E+03	1.891126E-16	1.313333E-17
4.760000E+03	1.886225E-16	1.294695E-17
4.770000E+03	1.880859E-16	1.276886E-17
4.780000E+03	1.875649E-16	1.260418E-17
4.790000E+03	1.869981E-16	1.244958E-17
4.800000E+03	1.864472E-16	1.230994E-17
4.810000E+03	1.858512E-16	1.218189E-17
4.820000E+03	1.852413E-16	1.206806E-17
4.830000E+03	1.846478E-16	1.197085E-17
4.840000E+03	1.840109E-16	1.188662E-17
4.850000E+03	1.833910E-16	1.181941E-17
4.860000E+03	1.827288E-16	1.176529E-17
4.870000E+03	1.820547E-16	1.172593E-17
4.880000E+03	1.813988E-16	1.170276E-17
4.890000E+03	1.807025E-16	1.169132E-17
4.900000E+03	1.799960E-16	1.169274E-17
4.910000E+03	1.793091E-16	1.170804E-17
4.920000E+03	1.785838E-16	1.173242E-17
4.930000E+03	1.778502E-16	1.176676E-17
4.940000E+03	1.771377E-16	1.181190E-17
4.950000E+03	1.763890E-16	1.186292E-17
4.960000E+03	1.756339E-16	1.192065E-17
4.970000E+03	1.749015E-16	1.198601E-17
4.980000E+03	1.741353E-16	1.205409E-17
4.990000E+03	1.733646E-16	1.212587E-17
5.000000E+03	1.725901E-16	1.220045E-17
5.010000E+03	1.718404E-16	1.227900E-17
5.020000E+03	1.710600E-16	1.235677E-17
5.030000E+03	1.702778E-16	1.243503E-17
5.040000E+03	1.694944E-16	1.251317E-17
5.050000E+03	1.687104E-16	1.259060E-17
5.060000E+03	1.679538E-16	1.266889E-17
5.070000E+03	1.671704E-16	1.274349E-17
5.080000E+03	1.663883E-16	1.281606E-17
5.090000E+03	1.656080E-16	1.288628E-17
5.100000E+03	1.648301E-16	1.295386E-17
5.110000E+03	1.640552E-16	1.301857E-17
5.120000E+03	1.632839E-16	1.308024E-17
5.130000E+03	1.625430E-16	1.314084E-17
5.140000E+03	1.617801E-16	1.319599E-17
5.150000E+03	1.610222E-16	1.324775E-17
5.160000E+03	1.602698E-16	1.329607E-17
5.170000E+03	1.595234E-16	1.334090E-17
5.180000E+03	1.587833E-16	1.338227E-17
5.190000E+03	1.580499E-16	1.342017E-17
5.200000E+03	1.573237E-16	1.345466E-17
5.210000E+03	1.566050E-16	1.348577E-17
5.220000E+03	1.558941E-16	1.351359E-17
5.230000E+03	1.551914E-16	1.353819E-17
5.240000E+03	1.544971E-16	1.355967E-17
5.250000E+03	1.538116E-16	1.357812E-17
5.260000E+03	1.531351E-16	1.359366E-17
5.270000E+03	1.524679E-16	1.360641E-17
5.280000E+03	1.518103E-16	1.361649E-17
5.290000E+03	1.511625E-16	1.362404E-17
5.300000E+03	1.505004E-16	1.362699E-17
5.310000E+03	1.498730E-16	1.362990E-17
5.320000E+03	1.492562E-16	1.363071E-17
5.330000E+03	1.486501E-16	1.362957E-17
5.340000E+03	1.480550E-16	1.362664E-17
5.350000E+03	1.474712E-16	1.362209E-17
5.360000E+03	1.468988E-16	1.361606E-17
5.370000E+03	1.463144E-16	1.360652E-17
5.380000E+03	1.457658E-16	1.359805E-17
5.390000E+03	1.452295E-16	1.358859E-17
5.400000E+03	1.447058E-16	1.357832E-17
5.410000E+03	1.441949E-16	1.356738E-17
5.420000E+03	1.436737E-16	1.355367E-17
5.430000E+03	1.431885E-16	1.354148E-17
5.440000E+03	1.427156E-16	1.352850E-17
5.450000E+03	1.422545E-16	1.351461E-17
5.460000E+03	1.417820E-16	1.349749E-17
5.470000E+03	1.413437E-16	1.348141E-17
5.480000E+03	1.409165E-16	1.346405E-17
5.490000E+03	1.404773E-16	1.344315E-17
5.500000E+03	1.400714E-16	1.342295E-17
5.510000E+03	1.396760E-16	1.340118E-17
5.520000E+03	1.392684E-16	1.337560E-17
5.530000E+03	1.388936E-16	1.335045E-17
5.540000E+03	1.385291E-16	1.332349E-17
5.550000E+03	1.381524E-16	1.329252E-17
5.560000E+03	1.378085E-16	1.326177E-17
5.570000E+03	1.374749E-16	1.322904E-17
5.580000E+03	1.371297E-16	1.319216E-17
5.590000E+03	1.368173E-16	1.315536E-17
5.600000E+03	1.364937E-16	1.311434E-17
5.610000E+03	1.362033E-16	1.307333E-17
5.620000E+03	1.359021E-16	1.302808E-17
5.630000E+03	1.356344E-16	1.298278E-17
5.640000E+03	1.353785E-16	1.293531E-17
5.650000E+03	1.351128E-16	1.288359E-17
5.660000E+03	1.348813E-16	1.283179E-17
5.670000E+03	1.346409E-16	1.277574E-17
5.680000E+03	1.344135E-16	1.271753E-17
5.690000E+03	1.342212E-16	1.265923E-17
5.700000E+03	1.340209E-16	1.259672E-17
5.710000E+03	1.338564E-16	1.253411E-17
5.720000E+03	1.336848E-16	1.246736E-17
5.730000E+03	1.335495E-16	1.240050E-17
5.740000E+03	1.334079E-16	1.232956E-17
5.750000E+03	1.333033E-16	1.225852E-17
5.760000E+03	1.331930E-16	1.218346E-17
5.770000E+03	1.330990E-16	1.210638E-17
5.780000E+03	1.330429E-16	1.202926E-17
5.790000E+03	1.329823E-16	1.194821E-17
5.800000E+03	1.329389E-16	1.186524E-17
5.810000E+03	1.329345E-16	1.178227E-17
5.820000E+03	1.329264E-16	1.169553E-17
5.830000E+03	1.329364E-16	1.160698E-17
5.840000E+03	1.329862E-16	1.151851E-17
5.850000E+03	1.330331E-16	1.142646E-17
5.860000E+03	1.330989E-16	1.133276E-17
5.870000E+03	1.332051E-16	1.123928E-17
5.880000E+03	1.333092E-16	1.114247E-17
5.890000E+03	1.334325E-16	1.104423E-17
5.900000E+03	1.335969E-16	1.094642E-17
5.910000E+03	1.337594E-16	1.084560E-17
5.920000E+03	1.339415E-16	1.074368E-17
5.930000E+03	1.341432E-16	1.064078E-17
5.940000E+03	1.343645E-16	1.053706E-17
5.950000E+03	1.346270E-16	1.043436E-17
5.960000E+03	1.348872E-16	1.032948E-17
5.970000E+03	1.351665E-16	1.022432E-17
5.980000E+03	1.354646E-16	1.011912E-17
5.990000E+03	1.357812E-16	1.001411E-17
6.000000E+03	1.361377E-16	9.911172E-18
6.010000E+03	1.364897E-16	9.807390E-18
6.020000E+03	1.368584E-16	9.704706E-18
6.030000E+03	1.372431E-16	9.603477E-18
6.040000E+03	1.376427E-16	9.504089E-18
6.050000E+03	1.380561E-16	9.406959E-18
6.060000E+03	1.384822E-16	9.312532E-18
6.070000E+03	1.389196E-16	9.221282E-18
6.080000E+03	1.393892E-16	9.135179E-18
6.090000E+03	1.398443E-16	9.051789E-18
6.100000E+03	1.403055E-16	8.973131E-18
6.110000E+03	1.407706E-16	8.899750E-18
6.120000E+03	1.412373E-16	8.832187E-18
6.130000E+03	1.417032E-16	8.770967E-18
6.140000E+03	1.421656E-16	8.716589E-18
6.150000E+03	1.426216E-16	8.669500E-18
6.160000E+03	1.430683E-16	8.630088E-18
6.170000E+03	1.435024E-16	8.598651E-18
6.180000E+03	1.439206E-16	8.575387E-18
6.190000E+03	1.443195E-16	8.560367E-18
6.200000E+03	1.446956E-16	8.553529E-18
6.210000E+03	1.450452E-16	8.554646E-18
6.220000E+03	1.453648E-16	8.563319E-18
6.230000E+03	1.456507E-16	8.579001E-18
6.240000E+03	1.458992E-16	8.601009E-18
6.250000E+03	1.461068E-16	8.628543E-18
6.260000E+03	1.462698E-16	8.660703E-18
6.270000E+03	1.463848E-16	8.696516E-18
6.280000E+03	1.464249E-16	8.733541E-18
6.290000E+03	1.464342E-16	8.773521E-18
6.300000E+03	1.463859E-16	8.813974E-18
6.310000E+03	1.462773E-16	8.853823E-18
6.320000E+03	1.461060E-16	8.892010E-18
6.330000E+03	1.458698E-16	8.927511E-18
6.340000E+03	1.455667E-16	8.959349E-18
6.350000E+03	1.451951E-16	8.986600E-18
6.360000E+03	1.447307E-16	9.006956E-18
6.370000E+03	1.442193E-16	9.022531E-18
6.380000E+03	1.436372E-16	9.031164E-18
6.390000E+03	1.429843E-16	9.032226E-18
6.400000E+03	1.422612E-16	9.025166E-18
6.410000E+03	1.414685E-16	9.009517E-18
6.420000E+03	1.405850E-16	8.983448E-18
6.430000E+03	1.396577E-16	8.949557E-18
6.440000E+03	1.386658E-16	8.906174E-18
6.450000E+03	1.376116E-16	8.853153E-18
6.460000E+03	1.364977E-16	8.790429E-18
6.470000E+03	1.353053E-16	8.716599E-18
6.480000E+03	1.340814E-16	8.634559E-18
6.490000E+03	1.328074E-16	8.543029E-18
6.500000E+03	1.314870E-16	8.442203E-18
6.510000E+03	1.301028E-16	8.330987E-18
6.520000E+03	1.287010E-16	8.212387E-18
6.530000E+03	1.272645E-16	8.085386E-18
6.540000E+03	1.257768E-16	7.949090E-18
6.550000E+03	1.242831E-16	7.806507E-18
6.560000E+03	1.227668E-16	7.656788E-18
6.570000E+03	1.212124E-16	7.499207E-18
6.580000E+03	1.196635E-16	7.336717E-18
6.590000E+03	1.181041E-16	7.168614E-18
6.600000E+03	1.165193E-16	6.994317E-18
6.610000E+03	1.149510E-16	6.816678E-18
6.620000E+03	1.133837E-16	6.635120E-18
6.630000E+03	1.118030E-16	6.449194E-18
6.640000E+03	1.102487E-16	6.261619E-18
6.650000E+03	1.087060E-16	6.071941E-18
6.660000E+03	1.071607E-16	5.879843E-18
6.670000E+03	1.056509E-16	5.687899E-18
6.680000E+03	1.041619E-16	5.495789E-18
6.690000E+03	1.026801E-16	5.303339E-18
6.700000E+03	1.012416E-16	5.112994E-18
6.710000E+03	9.981606E-17	4.923802E-18
6.720000E+03	9.843851E-17	4.738146E-18
6.730000E+03	9.707932E-17	4.555264E-18
6.740000E+03	9.577237E-17	4.377502E-18
6.750000E+03	9.450397E-17	4.204989E-18
6.760000E+03	9.326122E-17	4.038024E-18
6.770000E+03	9.207648E-17	3.878947E-18
6.780000E+03	9.092181E-17	3.727546E-18
6.790000E+03	8.982866E-17	3.586174E-18
6.800000E+03	8.876970E-17	3.454814E-18
6.810000E+03	8.777552E-17	3.335794E-18
6.820000E+03	8.681930E-17	3.229193E-18
6.830000E+03	8.593081E-17	3.137192E-18
6.840000E+03	8.508354E-17	3.059768E-18
6.850000E+03	8.430636E-17	2.998742E-18
6.860000E+03	8.357288E-17	2.953705E-18
6.870000E+03	8.291086E-17	2.925874E-18
6.880000E+03	8.229324E-17	2.914124E-18
6.890000E+03	8.174559E-17	2.918768E-18
6.900000E+03	8.123998E-17	2.937930E-18
6.910000E+03	8.080116E-17	2.971398E-18
6.920000E+03	8.040125E-17	3.016907E-18
6.930000E+03	8.006462E-17	3.074047E-18
6.940000E+03	7.976361E-17	3.140448E-18
6.950000E+03	7.950957E-17	3.215259E-18
6.960000E+03	7.931371E-17	3.297755E-18
6.970000E+03	7.914880E-17	3.385730E-18
6.980000E+03	7.903900E-17	3.479224E-18
6.990000E+03	7.895731E-17	3.576202E-18
7.000000E+03	7.891516E-17	3.676391E-18
7.010000E+03	7.892398E-17	3.779684E-18
7.020000E+03	7.895694E-17	3.884248E-18
7.030000E+03	7.903833E-17	3.990774E-18
7.040000E+03	7.914130E-17	4.097505E-18
7.050000E+03	7.927738E-17	4.204644E-18
7.060000E+03	7.945815E-17	4.312515E-18
7.070000E+03	7.965664E-17	4.419399E-18
7.080000E+03	7.988435E-17	4.525672E-18
7.090000E+03	8.015291E-17	4.631801E-18
7.100000E+03	8.043501E-17	4.736042E-18
7.110000E+03	8.074214E-17	4.838879E-18
7.120000E+03	8.108594E-17	4.940874E-18
7.130000E+03	8.143862E-17	5.040212E-18
7.140000E+03	8.181163E-17	5.137449E-18
7.150000E+03	8.220327E-17	5.232360E-18
7.160000E+03	8.262516E-17	5.325582E-18
7.170000E+03	8.304874E-17	5.415177E-18
7.180000E+03	8.348541E-17	5.501765E-18
7.190000E+03	8.394678E-17	5.586022E-18
7.200000E+03	8.440365E-17	5.665917E-18
7.210000E+03	8.486743E-17	5.742109E-18
7.220000E+03	8.533591E-17	5.814364E-18
7.230000E+03	8.582079E-17	5.883403E-18
7.240000E+03	8.629201E-17	5.947097E-18
7.250000E+03	8.676108E-17	6.006164E-18
7.260000E+03	8.722566E-17	6.060381E-18
7.270000E+03	8.768340E-17	6.109539E-18
7.280000E+03	8.814624E-17	6.154434E-18
7.290000E+03	8.858331E-17	6.192888E-18
7.300000E+03	8.900653E-17	6.225723E-18
7.310000E+03	8.941363E-17	6.252788E-18
7.320000E+03	8.980243E-17	6.273955E-18
7.330000E+03	9.018546E-17	6.290143E-18
7.340000E+03	9.053147E-17	6.299235E-18
7.350000E+03	9.085312E-17	6.302209E-18
7.360000E+03	9.114865E-17	6.299056E-18
7.370000E+03	9.141641E-17	6.289805E-18
7.380000E+03	9.165490E-17	6.274523E-18
7.390000E+03	9.187774E-17	6.254337E-18
7.400000E+03	9.205392E-17	6.227363E-18
7.410000E+03	9.219737E-17	6.194820E-18
7.420000E+03	9.230728E-17	6.156953E-18
7.430000E+03	9.238303E-17	6.114058E-18
7.440000E+03	9.242419E-17	6.066478E-18
7.450000E+03	9.243052E-17	6.014606E-18
7.460000E+03	9.240194E-17	5.958886E-18
7.470000E+03	9.233856E-17	5.899811E-18
7.480000E+03	9.225566E-17	5.838873E-18
7.490000E+03	9.212362E-17	5.774750E-18
7.500000E+03	9.195804E-17	5.709036E-18
7.510000E+03	9.175964E-17	5.642408E-18
7.520000E+03	9.152926E-17	5.575580E-18
7.530000E+03	9.126784E-17	5.509297E-18
7.540000E+03	9.097643E-17	5.444331E-18
7.550000E+03	9.065616E-17	5.381470E-18
7.560000E+03	9.030824E-17	5.321509E-18
7.570000E+03	8.993393E-17	5.265236E-18
7.580000E+03	8.953454E-17	5.213418E-18
7.590000E+03	8.911142E-17	5.166788E-18
7.600000E+03	8.866592E-17	5.126023E-18
7.610000E+03	8.819944E-17	5.091732E-18
7.620000E+03	8.771336E-17	5.064435E-18
7.630000E+03	8.720904E-17	5.044551E-18
7.640000E+03	8.668786E-17	5.032383E-18
7.650000E+03	8.615114E-17	5.028104E-18
7.660000E+03	8.560019E-17	5.031748E-18
7.670000E+03	8.503627E-17	5.043234E-18
7.680000E+03	8.446060E-17	5.062378E-18
7.690000E+03	8.387436E-17	5.088908E-18
7.700000E+03	8.327870E-17	5.122482E-18
7.710000E+03	8.267470E-17	5.162701E-18
7.720000E+03	8.206341E-17	5.209133E-18
7.730000E+03	8.144580E-17	5.261322E-18
7.740000E+03	8.080961E-17	5.317935E-18
7.750000E+03	8.018225E-17	5.380240E-18
7.760000E+03	7.955124E-17	5.446927E-18
