#wls	flux	fluxerr	mangling_mask
4.427510E+03	1.771177E-14	9.789518E-16	1.276708E-14
4.428210E+03	1.769529E-14	9.781422E-16	1.276716E-14
4.428910E+03	1.767242E-14	9.771243E-16	1.276724E-14
4.429610E+03	1.765083E-14	9.761495E-16	1.276733E-14
4.430310E+03	1.763307E-14	9.753011E-16	1.276741E-14
4.431010E+03	1.761404E-14	9.744120E-16	1.276750E-14
4.431710E+03	1.759883E-14	9.736489E-16	1.276758E-14
4.432410E+03	1.758235E-14	9.728449E-16	1.276767E-14
4.433110E+03	1.755949E-14	9.718340E-16	1.276775E-14
4.433810E+03	1.753662E-14	9.708243E-16	1.276783E-14
4.434510E+03	1.750992E-14	9.696916E-16	1.276792E-14
4.435210E+03	1.748450E-14	9.686019E-16	1.276800E-14
4.435910E+03	1.745909E-14	9.675137E-16	1.276809E-14
4.436610E+03	1.743622E-14	9.665097E-16	1.276817E-14
4.437310E+03	1.741080E-14	9.654245E-16	1.276826E-14
4.438010E+03	1.738538E-14	9.643409E-16	1.276835E-14
4.438710E+03	1.735996E-14	9.632588E-16	1.276843E-14
4.439410E+03	1.733582E-14	9.622193E-16	1.276852E-14
4.440110E+03	1.731295E-14	9.612223E-16	1.276860E-14
4.440810E+03	1.728881E-14	9.601857E-16	1.276869E-14
4.441510E+03	1.726339E-14	9.591095E-16	1.276878E-14
4.442210E+03	1.723669E-14	9.579940E-16	1.276886E-14
4.442910E+03	1.721510E-14	9.570435E-16	1.276895E-14
4.443610E+03	1.719095E-14	9.560127E-16	1.276904E-14
4.444310E+03	1.716170E-14	9.548204E-16	1.276912E-14
4.445010E+03	1.713245E-14	9.536299E-16	1.276921E-14
4.445710E+03	1.710448E-14	9.524820E-16	1.276930E-14
4.446410E+03	1.707778E-14	9.513764E-16	1.276939E-14
4.447110E+03	1.705108E-14	9.502725E-16	1.276947E-14
4.447810E+03	1.702693E-14	9.492512E-16	1.276956E-14
4.448510E+03	1.700279E-14	9.482313E-16	1.276965E-14
4.449210E+03	1.697481E-14	9.470919E-16	1.276974E-14
4.449910E+03	1.695067E-14	9.460751E-16	1.276983E-14
4.450610E+03	1.692525E-14	9.450195E-16	1.276992E-14
4.451310E+03	1.689599E-14	9.438450E-16	1.277000E-14
4.452010E+03	1.686674E-14	9.426723E-16	1.277009E-14
4.452710E+03	1.683876E-14	9.414402E-16	1.277018E-14
4.453410E+03	1.681206E-14	9.413596E-16	1.277027E-14
4.454110E+03	1.678409E-14	9.402081E-16	1.277036E-14
4.454810E+03	1.675739E-14	9.137281E-16	1.277045E-14
4.455510E+03	1.673196E-14	8.897553E-16	1.277054E-14
4.456210E+03	1.671165E-14	8.842142E-16	1.277063E-14
4.456910E+03	1.669005E-14	8.835433E-16	1.277072E-14
4.457610E+03	1.666463E-14	8.821828E-16	1.277081E-14
4.458310E+03	1.663793E-14	8.802786E-16	1.277090E-14
4.459010E+03	1.661506E-14	8.749178E-16	1.277099E-14
4.459710E+03	1.658836E-14	8.629043E-16	1.277108E-14
4.460420E+03	1.656166E-14	8.516235E-16	1.277117E-14
4.461120E+03	1.653751E-14	8.502390E-16	1.277127E-14
4.461820E+03	1.651592E-14	8.458500E-16	1.277136E-14
4.462520E+03	1.649305E-14	8.445382E-16	1.277145E-14
4.463220E+03	1.646635E-14	8.432245E-16	1.277154E-14
4.463920E+03	1.644092E-14	8.403092E-16	1.277163E-14
4.464620E+03	1.641805E-14	8.401088E-16	1.277172E-14
4.465320E+03	1.639390E-14	8.389960E-16	1.277182E-14
4.466020E+03	1.636975E-14	8.380490E-16	1.277191E-14
4.466720E+03	1.634305E-14	8.367334E-16	1.277200E-14
4.467420E+03	1.632018E-14	8.357126E-16	1.277209E-14
4.468120E+03	1.629731E-14	8.278944E-16	1.277219E-14
4.468820E+03	1.627571E-14	8.247196E-16	1.277228E-14
4.469520E+03	1.625540E-14	8.236375E-16	1.277237E-14
4.470220E+03	1.623508E-14	8.063220E-16	1.277246E-14
4.470920E+03	1.621349E-14	7.860044E-16	1.277256E-14
4.471620E+03	1.619189E-14	7.837567E-16	1.277265E-14
4.472320E+03	1.617157E-14	7.831783E-16	1.277275E-14
4.473020E+03	1.614998E-14	7.822304E-16	1.277284E-14
4.473720E+03	1.613094E-14	7.773576E-16	1.277293E-14
4.474420E+03	1.611190E-14	7.801839E-16	1.277303E-14
4.475120E+03	1.609541E-14	7.629600E-16	1.277312E-14
4.475820E+03	1.607893E-14	7.433583E-16	1.277322E-14
4.476520E+03	1.606116E-14	7.380774E-16	1.277331E-14
4.477220E+03	1.604212E-14	7.339007E-16	1.277341E-14
4.477920E+03	1.602436E-14	7.300020E-16	1.277350E-14
4.478620E+03	1.600659E-14	7.316718E-16	1.277360E-14
4.479320E+03	1.599011E-14	7.300380E-16	1.277369E-14
4.480020E+03	1.597362E-14	7.293502E-16	1.277379E-14
4.480720E+03	1.595841E-14	7.287782E-16	1.277388E-14
4.481420E+03	1.594321E-14	7.287185E-16	1.277398E-14
4.482120E+03	1.593055E-14	7.202547E-16	1.277408E-14
4.482820E+03	1.591534E-14	7.160503E-16	1.277417E-14
4.483520E+03	1.590269E-14	7.205406E-16	1.277427E-14
4.484220E+03	1.589003E-14	7.218770E-16	1.277437E-14
4.484920E+03	1.587610E-14	7.247613E-16	1.277446E-14
4.485620E+03	1.586217E-14	7.232971E-16	1.277456E-14
4.486320E+03	1.584696E-14	7.223390E-16	1.277466E-14
4.487020E+03	1.583303E-14	7.215523E-16	1.277475E-14
4.487720E+03	1.582165E-14	7.205496E-16	1.277485E-14
4.488420E+03	1.581028E-14	7.198235E-16	1.277495E-14
4.489120E+03	1.579890E-14	7.223875E-16	1.277505E-14
4.489820E+03	1.578880E-14	7.224041E-16	1.277515E-14
4.490520E+03	1.577870E-14	7.130147E-16	1.277524E-14
4.491220E+03	1.576861E-14	7.121074E-16	1.277534E-14
4.491920E+03	1.575723E-14	7.130830E-16	1.277544E-14
4.492620E+03	1.574713E-14	7.159580E-16	1.277554E-14
4.493320E+03	1.573703E-14	7.160854E-16	1.277564E-14
4.494020E+03	1.572949E-14	7.149722E-16	1.277574E-14
4.494720E+03	1.572322E-14	7.139805E-16	1.277584E-14
4.495420E+03	1.571440E-14	7.128512E-16	1.277594E-14
4.496120E+03	1.570686E-14	7.119166E-16	1.277604E-14
4.496830E+03	1.570060E-14	7.112006E-16	1.277614E-14
4.497530E+03	1.569305E-14	7.111293E-16	1.277624E-14
4.498230E+03	1.568807E-14	7.106401E-16	1.277634E-14
4.498930E+03	1.568436E-14	7.110881E-16	1.277644E-14
4.499630E+03	1.567809E-14	7.105705E-16	1.277654E-14
4.500330E+03	1.567183E-14	7.100074E-16	1.277664E-14
4.501030E+03	1.566556E-14	7.107333E-16	1.277674E-14
4.501730E+03	1.566185E-14	7.122086E-16	1.277684E-14
4.502430E+03	1.565814E-14	7.110690E-16	1.277694E-14
4.503130E+03	1.565443E-14	7.131428E-16	1.277704E-14
4.503830E+03	1.565073E-14	7.161875E-16	1.277715E-14
4.504530E+03	1.564702E-14	7.150843E-16	1.277725E-14
4.505230E+03	1.564459E-14	7.147283E-16	1.277735E-14
4.505930E+03	1.564216E-14	7.164463E-16	1.277745E-14
4.506630E+03	1.563973E-14	7.192436E-16	1.277755E-14
4.507330E+03	1.563602E-14	7.303565E-16	1.277766E-14
4.508030E+03	1.563487E-14	7.417664E-16	1.277776E-14
4.508730E+03	1.563371E-14	7.422908E-16	1.277786E-14
4.509430E+03	1.563128E-14	7.421563E-16	1.277797E-14
4.510130E+03	1.562758E-14	7.415507E-16	1.277807E-14
4.510830E+03	1.562515E-14	7.409547E-16	1.277817E-14
4.511530E+03	1.562400E-14	7.401106E-16	1.277828E-14
4.512230E+03	1.562157E-14	7.400640E-16	1.277838E-14
4.512930E+03	1.561914E-14	7.397667E-16	1.277848E-14
4.513630E+03	1.561671E-14	7.390347E-16	1.277859E-14
4.514330E+03	1.561556E-14	7.373983E-16	1.277869E-14
4.515030E+03	1.561313E-14	7.370797E-16	1.277880E-14
4.515730E+03	1.561198E-14	7.378963E-16	1.277890E-14
4.516430E+03	1.561083E-14	7.386024E-16	1.277901E-14
4.517130E+03	1.560841E-14	7.382785E-16	1.277911E-14
4.517830E+03	1.560470E-14	7.378910E-16	1.277922E-14
4.518530E+03	1.560355E-14	7.407219E-16	1.277932E-14
4.519230E+03	1.560240E-14	7.417931E-16	1.277943E-14
4.519930E+03	1.559997E-14	7.420768E-16	1.277953E-14
4.520630E+03	1.559627E-14	7.433466E-16	1.277964E-14
4.521330E+03	1.559129E-14	7.415937E-16	1.277974E-14
4.522030E+03	1.558631E-14	7.385830E-16	1.277985E-14
4.522730E+03	1.558388E-14	7.355325E-16	1.277996E-14
4.523430E+03	1.558145E-14	7.304161E-16	1.278006E-14
4.524130E+03	1.557903E-14	7.238240E-16	1.278017E-14
4.524830E+03	1.557405E-14	7.235461E-16	1.278028E-14
4.525530E+03	1.556906E-14	7.242902E-16	1.278038E-14
4.526230E+03	1.556408E-14	7.223825E-16	1.278049E-14
4.526930E+03	1.555910E-14	7.248210E-16	1.278060E-14
4.527630E+03	1.555412E-14	7.239389E-16	1.278071E-14
4.528330E+03	1.554786E-14	7.196169E-16	1.278081E-14
4.529030E+03	1.554160E-14	7.201749E-16	1.278092E-14
4.529730E+03	1.553790E-14	7.211448E-16	1.278103E-14
4.530430E+03	1.552269E-14	7.213405E-16	1.278114E-14
4.531130E+03	1.550621E-14	7.202182E-16	1.278125E-14
4.531830E+03	1.549484E-14	7.234432E-16	1.278136E-14
4.532540E+03	1.548858E-14	7.254111E-16	1.278147E-14
4.533240E+03	1.548360E-14	7.177068E-16	1.278158E-14
4.533940E+03	1.547862E-14	7.096567E-16	1.278169E-14
4.534640E+03	1.547748E-14	7.004860E-16	1.278180E-14
4.535340E+03	1.548017E-14	6.993994E-16	1.278191E-14
4.536040E+03	1.548286E-14	7.010348E-16	1.278202E-14
4.536740E+03	1.547788E-14	7.004213E-16	1.278213E-14
4.537440E+03	1.547801E-14	7.013201E-16	1.278224E-14
4.538140E+03	1.547303E-14	7.008837E-16	1.278235E-14
4.538840E+03	1.546805E-14	7.010375E-16	1.278246E-14
4.539540E+03	1.546691E-14	7.016560E-16	1.278257E-14
4.540240E+03	1.546193E-14	7.006410E-16	1.278268E-14
4.540940E+03	1.545823E-14	7.009453E-16	1.278279E-14
4.541640E+03	1.545197E-14	7.015640E-16	1.278290E-14
4.542340E+03	1.544572E-14	7.019445E-16	1.278301E-14
4.543040E+03	1.544074E-14	7.009508E-16	1.278313E-14
4.543740E+03	1.542937E-14	7.000055E-16	1.278324E-14
4.544440E+03	1.542055E-14	6.990181E-16	1.278335E-14
4.545140E+03	1.541685E-14	6.983521E-16	1.278346E-14
4.545840E+03	1.540165E-14	6.974775E-16	1.278357E-14
4.546540E+03	1.538389E-14	6.973114E-16	1.278369E-14
4.547240E+03	1.536996E-14	6.956998E-16	1.278380E-14
4.547940E+03	1.535859E-14	6.963159E-16	1.278391E-14
4.548640E+03	1.535106E-14	6.964639E-16	1.278403E-14
4.549340E+03	1.534736E-14	6.962929E-16	1.278414E-14
4.550040E+03	1.533983E-14	6.959941E-16	1.278425E-14
4.550740E+03	1.533996E-14	6.950707E-16	1.278437E-14
4.551440E+03	1.534138E-14	6.937817E-16	1.278448E-14
4.552140E+03	1.534024E-14	6.932273E-16	1.278460E-14
4.552840E+03	1.532887E-14	6.896760E-16	1.278471E-14
4.553540E+03	1.531622E-14	6.864358E-16	1.278482E-14
4.554240E+03	1.530613E-14	6.852394E-16	1.278494E-14
4.554940E+03	1.530115E-14	6.848889E-16	1.278505E-14
4.555640E+03	1.529234E-14	6.826730E-16	1.278517E-14
4.556340E+03	1.528225E-14	6.790416E-16	1.278529E-14
4.557040E+03	1.527344E-14	6.665143E-16	1.278540E-14
4.557740E+03	1.526846E-14	6.531120E-16	1.278552E-14
4.558440E+03	1.526349E-14	6.514483E-16	1.278563E-14
4.559140E+03	1.525468E-14	6.505297E-16	1.278575E-14
4.559840E+03	1.525098E-14	6.505160E-16	1.278587E-14
4.560540E+03	1.524600E-14	6.498017E-16	1.278598E-14
4.561240E+03	1.523591E-14	6.500523E-16	1.278610E-14
4.561940E+03	1.522838E-14	6.506077E-16	1.278622E-14
4.562640E+03	1.522085E-14	6.505031E-16	1.278633E-14
4.563340E+03	1.521588E-14	6.499018E-16	1.278645E-14
4.564040E+03	1.520834E-14	6.492994E-16	1.278657E-14
4.564740E+03	1.519953E-14	6.483893E-16	1.278668E-14
4.565440E+03	1.519200E-14	6.448818E-16	1.278680E-14
4.566140E+03	1.517935E-14	6.424155E-16	1.278692E-14
4.566840E+03	1.517182E-14	6.417634E-16	1.278704E-14
4.567540E+03	1.516429E-14	6.418472E-16	1.278716E-14
4.568250E+03	1.515292E-14	6.372988E-16	1.278728E-14
4.568950E+03	1.514156E-14	6.338688E-16	1.278740E-14
4.569650E+03	1.513019E-14	6.329086E-16	1.278752E-14
4.570350E+03	1.511882E-14	6.315383E-16	1.278764E-14
4.571050E+03	1.510745E-14	6.306400E-16	1.278775E-14
4.571750E+03	1.509609E-14	6.299444E-16	1.278787E-14
4.572450E+03	1.508472E-14	6.291430E-16	1.278799E-14
4.573150E+03	1.507463E-14	6.255311E-16	1.278811E-14
4.573850E+03	1.506454E-14	6.240020E-16	1.278823E-14
4.574550E+03	1.505317E-14	6.242851E-16	1.278835E-14
4.575250E+03	1.504308E-14	6.208380E-16	1.278848E-14
4.575950E+03	1.503427E-14	6.196501E-16	1.278860E-14
4.576650E+03	1.502674E-14	6.173581E-16	1.278872E-14
4.577350E+03	1.502049E-14	6.158576E-16	1.278884E-14
4.578050E+03	1.500657E-14	6.155163E-16	1.278896E-14
4.578750E+03	1.499392E-14	6.147697E-16	1.278908E-14
4.579450E+03	1.498511E-14	6.134293E-16	1.278920E-14
4.580150E+03	1.497118E-14	6.120753E-16	1.278933E-14
4.580850E+03	1.495982E-14	6.125692E-16	1.278945E-14
4.581550E+03	1.494973E-14	6.059132E-16	1.278957E-14
4.582250E+03	1.493836E-14	6.004383E-16	1.278969E-14
4.582950E+03	1.492827E-14	6.000822E-16	1.278981E-14
4.583650E+03	1.491690E-14	6.003951E-16	1.278994E-14
4.584350E+03	1.490810E-14	6.007258E-16	1.279006E-14
4.585050E+03	1.489929E-14	6.003258E-16	1.279018E-14
4.585750E+03	1.488792E-14	5.987338E-16	1.279031E-14
4.586450E+03	1.488039E-14	5.981329E-16	1.279043E-14
4.587150E+03	1.487286E-14	5.947614E-16	1.279056E-14
4.587850E+03	1.486021E-14	5.938974E-16	1.279068E-14
4.588550E+03	1.484884E-14	5.920536E-16	1.279080E-14
4.589250E+03	1.483876E-14	5.916538E-16	1.279093E-14
4.589950E+03	1.482995E-14	5.910881E-16	1.279105E-14
4.590650E+03	1.481730E-14	5.901888E-16	1.279118E-14
4.591350E+03	1.480593E-14	5.886998E-16	1.279130E-14
4.592050E+03	1.479457E-14	5.854260E-16	1.279143E-14
4.592750E+03	1.478448E-14	5.845561E-16	1.279155E-14
4.593450E+03	1.477311E-14	5.836642E-16	1.279168E-14
4.594150E+03	1.476174E-14	5.832166E-16	1.279181E-14
4.594850E+03	1.474910E-14	5.831237E-16	1.279193E-14
4.595550E+03	1.473645E-14	5.824943E-16	1.279206E-14
4.596250E+03	1.472636E-14	5.813827E-16	1.279219E-14
4.596950E+03	1.471755E-14	5.811801E-16	1.279231E-14
4.597650E+03	1.471130E-14	5.798153E-16	1.279244E-14
4.598350E+03	1.470505E-14	5.785536E-16	1.279257E-14
4.599050E+03	1.470264E-14	5.784744E-16	1.279269E-14
4.599750E+03	1.469767E-14	5.778950E-16	1.279282E-14
4.600450E+03	1.468758E-14	5.771254E-16	1.279295E-14
4.601150E+03	1.467750E-14	5.758091E-16	1.279308E-14
4.601850E+03	1.466997E-14	5.749968E-16	1.279320E-14
4.602550E+03	1.465988E-14	5.734452E-16	1.279333E-14
4.603250E+03	1.465363E-14	5.726254E-16	1.279346E-14
4.603960E+03	1.464994E-14	5.716571E-16	1.279359E-14
4.604660E+03	1.464113E-14	5.710973E-16	1.279372E-14
4.605360E+03	1.463361E-14	5.704897E-16	1.279385E-14
4.606060E+03	1.462352E-14	5.696635E-16	1.279398E-14
4.606760E+03	1.461471E-14	5.692438E-16	1.279411E-14
4.607460E+03	1.460718E-14	5.683138E-16	1.279424E-14
4.608160E+03	1.460093E-14	5.682570E-16	1.279437E-14
4.608860E+03	1.459852E-14	5.682768E-16	1.279450E-14
4.609560E+03	1.459739E-14	5.672226E-16	1.279463E-14
4.610260E+03	1.459754E-14	5.669526E-16	1.279476E-14
4.610960E+03	1.459513E-14	5.652564E-16	1.279489E-14
4.611660E+03	1.459144E-14	5.625145E-16	1.279502E-14
4.612360E+03	1.458903E-14	5.618438E-16	1.279515E-14
4.613060E+03	1.458407E-14	5.613587E-16	1.279529E-14
4.613760E+03	1.457782E-14	5.613888E-16	1.279542E-14
4.614460E+03	1.457157E-14	5.610692E-16	1.279555E-14
4.615160E+03	1.456660E-14	5.608323E-16	1.279568E-14
4.615860E+03	1.456419E-14	5.606989E-16	1.279581E-14
4.616560E+03	1.456051E-14	5.606894E-16	1.279595E-14
4.617260E+03	1.455682E-14	5.590663E-16	1.279608E-14
4.617960E+03	1.455057E-14	5.568890E-16	1.279621E-14
4.618660E+03	1.454432E-14	5.560809E-16	1.279634E-14
4.619360E+03	1.454320E-14	5.558930E-16	1.279648E-14
4.620060E+03	1.454079E-14	5.552180E-16	1.279661E-14
4.620760E+03	1.453966E-14	5.549237E-16	1.279674E-14
4.621460E+03	1.453853E-14	5.545371E-16	1.279688E-14
4.622160E+03	1.453869E-14	5.542744E-16	1.279701E-14
4.622860E+03	1.453756E-14	5.546545E-16	1.279715E-14
4.623560E+03	1.453515E-14	5.541701E-16	1.279728E-14
4.624260E+03	1.453147E-14	5.533116E-16	1.279742E-14
4.624960E+03	1.453162E-14	5.536863E-16	1.279755E-14
4.625660E+03	1.453177E-14	5.524214E-16	1.279769E-14
4.626360E+03	1.452937E-14	5.516132E-16	1.279782E-14
4.627060E+03	1.452696E-14	5.512117E-16	1.279796E-14
4.627760E+03	1.452328E-14	5.503953E-16	1.279809E-14
4.628460E+03	1.451831E-14	5.497448E-16	1.279823E-14
4.629160E+03	1.451335E-14	5.491788E-16	1.279837E-14
4.629860E+03	1.451350E-14	5.488772E-16	1.279850E-14
4.630560E+03	1.451238E-14	5.476476E-16	1.279864E-14
4.631260E+03	1.450869E-14	5.469274E-16	1.279878E-14
4.631960E+03	1.450245E-14	5.463504E-16	1.279891E-14
4.632660E+03	1.449364E-14	5.456605E-16	1.279905E-14
4.633360E+03	1.448356E-14	5.451720E-16	1.279919E-14
4.634060E+03	1.447732E-14	5.431399E-16	1.279932E-14
4.634760E+03	1.447235E-14	5.424164E-16	1.279946E-14
4.635460E+03	1.446995E-14	5.419536E-16	1.279960E-14
4.636160E+03	1.446754E-14	5.420223E-16	1.279974E-14
4.636860E+03	1.446514E-14	5.414414E-16	1.279988E-14
4.637560E+03	1.446018E-14	5.413415E-16	1.280002E-14
4.638260E+03	1.445650E-14	5.408910E-16	1.280016E-14
4.638960E+03	1.445409E-14	5.402801E-16	1.280029E-14
4.639670E+03	1.445297E-14	5.404074E-16	1.280044E-14
4.640370E+03	1.444673E-14	5.398579E-16	1.280058E-14
4.641070E+03	1.443921E-14	5.389696E-16	1.280072E-14
4.641770E+03	1.443296E-14	5.375200E-16	1.280086E-14
4.642470E+03	1.442800E-14	5.369711E-16	1.280100E-14
4.643170E+03	1.442304E-14	5.361974E-16	1.280114E-14
4.643870E+03	1.441424E-14	5.350971E-16	1.280128E-14
4.644570E+03	1.440672E-14	5.337172E-16	1.280142E-14
4.645270E+03	1.440431E-14	5.328340E-16	1.280156E-14
4.645970E+03	1.440319E-14	5.321766E-16	1.280170E-14
4.646670E+03	1.439951E-14	5.310136E-16	1.280184E-14
4.647370E+03	1.439711E-14	5.305549E-16	1.280198E-14
4.648070E+03	1.439599E-14	5.302125E-16	1.280212E-14
4.648770E+03	1.438975E-14	5.290094E-16	1.280227E-14
4.649470E+03	1.438351E-14	5.283434E-16	1.280241E-14
4.650170E+03	1.437727E-14	5.281020E-16	1.280255E-14
4.650870E+03	1.436846E-14	5.281603E-16	1.280269E-14
4.651570E+03	1.436350E-14	5.279579E-16	1.280284E-14
4.652270E+03	1.436238E-14	5.285638E-16	1.280298E-14
4.652970E+03	1.435998E-14	5.285264E-16	1.280312E-14
4.653670E+03	1.435759E-14	5.281217E-16	1.280327E-14
4.654370E+03	1.435647E-14	5.275597E-16	1.280341E-14
4.655070E+03	1.435535E-14	5.278953E-16	1.280356E-14
4.655770E+03	1.435167E-14	5.273859E-16	1.280370E-14
4.656470E+03	1.434799E-14	5.269530E-16	1.280385E-14
4.657170E+03	1.434047E-14	5.266231E-16	1.280399E-14
4.657870E+03	1.433551E-14	5.257376E-16	1.280414E-14
4.658570E+03	1.433183E-14	5.248562E-16	1.280428E-14
4.659270E+03	1.432559E-14	5.251149E-16	1.280443E-14
4.659970E+03	1.431935E-14	5.250109E-16	1.280457E-14
4.660670E+03	1.431695E-14	5.261085E-16	1.280472E-14
4.661370E+03	1.431584E-14	5.261326E-16	1.280486E-14
4.662070E+03	1.430960E-14	5.260298E-16	1.280501E-14
4.662770E+03	1.430080E-14	5.269204E-16	1.280516E-14
4.663470E+03	1.429456E-14	5.257958E-16	1.280530E-14
4.664170E+03	1.429088E-14	5.250933E-16	1.280545E-14
4.664870E+03	1.428720E-14	5.243371E-16	1.280560E-14
4.665570E+03	1.428097E-14	5.238108E-16	1.280574E-14
4.666270E+03	1.427601E-14	5.228832E-16	1.280589E-14
4.666970E+03	1.427361E-14	5.226035E-16	1.280604E-14
4.667670E+03	1.427250E-14	5.227364E-16	1.280619E-14
4.668370E+03	1.426626E-14	5.225902E-16	1.280634E-14
4.669070E+03	1.426258E-14	5.219426E-16	1.280648E-14
4.669770E+03	1.426019E-14	5.215826E-16	1.280663E-14
4.670470E+03	1.425779E-14	5.209164E-16	1.280678E-14
4.671170E+03	1.425283E-14	5.200755E-16	1.280693E-14
4.671870E+03	1.424916E-14	5.197024E-16	1.280708E-14
4.672570E+03	1.424420E-14	5.187677E-16	1.280723E-14
4.673270E+03	1.424181E-14	5.182802E-16	1.280738E-14
4.673970E+03	1.423941E-14	5.185138E-16	1.280753E-14
4.674670E+03	1.423446E-14	5.180672E-16	1.280768E-14
4.675380E+03	1.423078E-14	5.176596E-16	1.280783E-14
4.676080E+03	1.422455E-14	5.175201E-16	1.280798E-14
4.676780E+03	1.421959E-14	5.174424E-16	1.280814E-14
4.677480E+03	1.421464E-14	5.172834E-16	1.280829E-14
4.678180E+03	1.421224E-14	5.173037E-16	1.280844E-14
4.678880E+03	1.420729E-14	5.171954E-16	1.280859E-14
4.679580E+03	1.420618E-14	5.172230E-16	1.280874E-14
4.680280E+03	1.420506E-14	5.172542E-16	1.280889E-14
4.680980E+03	1.420395E-14	5.172628E-16	1.280905E-14
4.681680E+03	1.420156E-14	5.172395E-16	1.280920E-14
4.682380E+03	1.419788E-14	5.171124E-16	1.280935E-14
4.683080E+03	1.419293E-14	5.161514E-16	1.280950E-14
4.683780E+03	1.418798E-14	5.153441E-16	1.280966E-14
4.684480E+03	1.418302E-14	5.155737E-16	1.280981E-14
4.685180E+03	1.417935E-14	5.157300E-16	1.280996E-14
4.685880E+03	1.417696E-14	5.151625E-16	1.281012E-14
4.686580E+03	1.417457E-14	5.154102E-16	1.281027E-14
4.687280E+03	1.417346E-14	5.146860E-16	1.281043E-14
4.687980E+03	1.417235E-14	5.143650E-16	1.281058E-14
4.688680E+03	1.416996E-14	5.149485E-16	1.281074E-14
4.689380E+03	1.416756E-14	5.150909E-16	1.281089E-14
4.690080E+03	1.416645E-14	5.150842E-16	1.281105E-14
4.690780E+03	1.416278E-14	5.148105E-16	1.281120E-14
4.691480E+03	1.416039E-14	5.140761E-16	1.281136E-14
4.692180E+03	1.415800E-14	5.135311E-16	1.281151E-14
4.692880E+03	1.415689E-14	5.136182E-16	1.281167E-14
4.693580E+03	1.415835E-14	5.134199E-16	1.281183E-14
4.694280E+03	1.415852E-14	5.131797E-16	1.281198E-14
4.694980E+03	1.415741E-14	5.129669E-16	1.281214E-14
4.695680E+03	1.415503E-14	5.126111E-16	1.281230E-14
