#wls	flux	fluxerr
1.587256E+03	5.275027E-18	4.629785E-19
1.626937E+03	5.649385E-18	4.938989E-19
1.666619E+03	5.961829E-18	5.191296E-19
1.706300E+03	6.196741E-18	5.373743E-19
1.745982E+03	6.337128E-18	5.472435E-19
1.785663E+03	6.353073E-18	5.462645E-19
1.825344E+03	6.210742E-18	5.316787E-19
1.865026E+03	5.885586E-18	5.015764E-19
1.904707E+03	5.370917E-18	4.556084E-19
1.944389E+03	4.696262E-18	3.965017E-19
1.984070E+03	3.938867E-18	3.309531E-19
2.023751E+03	3.215830E-18	2.688702E-19
2.063433E+03	2.647346E-18	2.202250E-19
2.103114E+03	2.317070E-18	1.917573E-19
2.142795E+03	2.266547E-18	1.865885E-19
2.182477E+03	2.521923E-18	2.064948E-19
2.222158E+03	3.118017E-18	2.538997E-19
2.261840E+03	4.093149E-18	3.314335E-19
2.301521E+03	5.467301E-18	4.401650E-19
2.341202E+03	7.228696E-18	5.785676E-19
2.380884E+03	9.338249E-18	7.429490E-19
2.420565E+03	1.174495E-17	9.287342E-19
2.460247E+03	1.440261E-17	1.131816E-18
2.499928E+03	1.727601E-17	1.349024E-18
2.539609E+03	2.034624E-17	1.578518E-18
2.579291E+03	2.360666E-17	1.819434E-18
2.618972E+03	2.706331E-17	2.071891E-18
2.658654E+03	3.073007E-17	2.336586E-18
2.698335E+03	3.462835E-17	2.614756E-18
2.738016E+03	3.878584E-17	2.908058E-18
2.777698E+03	4.323442E-17	3.218400E-18
2.817379E+03	4.801064E-17	3.547969E-18
2.857061E+03	5.315819E-17	3.899393E-18
2.896742E+03	5.872224E-17	4.275313E-18
2.936423E+03	6.475885E-17	4.679058E-18
2.976105E+03	7.132253E-17	5.113730E-18
2.986025E+03	7.305469E-17	5.227760E-18
2.995946E+03	7.482335E-17	5.343905E-18
3.005866E+03	7.662920E-17	5.462199E-18
3.015786E+03	7.848181E-17	5.583306E-18
3.025707E+03	8.040015E-17	5.708555E-18
3.035627E+03	8.240753E-17	5.839568E-18
3.045547E+03	8.450190E-17	5.976165E-18
3.055468E+03	8.668147E-17	6.118183E-18
3.065388E+03	8.894288E-17	6.265348E-18
3.075308E+03	9.128652E-17	6.417656E-18
3.085229E+03	9.370550E-17	6.574587E-18
3.095149E+03	9.619854E-17	6.736022E-18
3.105069E+03	9.876044E-17	6.901566E-18
3.114990E+03	1.013940E-16	7.071387E-18
3.124910E+03	1.040900E-16	7.244812E-18
3.134830E+03	1.068471E-16	7.421726E-18
3.144751E+03	1.096640E-16	7.602011E-18
3.154671E+03	1.125372E-16	7.785398E-18
3.164591E+03	1.154588E-16	7.971324E-18
3.174512E+03	1.184312E-16	8.159942E-18
3.184432E+03	1.214463E-16	8.350661E-18
3.194353E+03	1.245018E-16	8.543318E-18
3.204273E+03	1.275911E-16	8.737438E-18
3.214193E+03	1.307115E-16	8.932831E-18
3.224114E+03	1.338580E-16	9.129141E-18
3.234034E+03	1.370251E-16	9.325984E-18
3.243954E+03	1.402046E-16	9.522805E-18
3.253875E+03	1.433928E-16	9.719340E-18
3.263795E+03	1.465829E-16	9.915143E-18
3.273715E+03	1.497658E-16	1.010958E-17
3.283636E+03	1.529363E-16	1.030233E-17
3.293556E+03	1.560842E-16	1.049270E-17
3.303476E+03	1.592037E-16	1.068032E-17
3.313397E+03	1.622837E-16	1.086447E-17
3.323317E+03	1.653153E-16	1.104456E-17
3.333237E+03	1.682892E-16	1.122001E-17
3.343158E+03	1.711959E-16	1.139020E-17
3.353078E+03	1.740259E-16	1.155454E-17
3.362998E+03	1.767666E-16	1.171224E-17
3.372919E+03	1.794112E-16	1.186288E-17
3.382839E+03	1.819449E-16	1.200553E-17
3.392760E+03	1.843637E-16	1.213998E-17
3.402680E+03	1.866540E-16	1.226538E-17
3.412600E+03	1.888075E-16	1.238126E-17
3.422521E+03	1.908175E-16	1.248723E-17
3.432441E+03	1.926753E-16	1.258278E-17
3.442361E+03	1.943790E-16	1.266787E-17
3.452282E+03	1.959230E-16	1.274218E-17
3.462202E+03	1.973034E-16	1.280555E-17
3.472122E+03	1.985211E-16	1.285809E-17
3.482043E+03	1.995767E-16	1.289992E-17
3.491963E+03	2.004781E-16	1.293161E-17
3.501883E+03	2.012258E-16	1.295327E-17
3.511804E+03	2.018331E-16	1.296581E-17
3.521724E+03	2.023108E-16	1.296999E-17
3.531644E+03	2.026748E-16	1.296687E-17
3.541565E+03	2.029386E-16	1.295737E-17
3.551485E+03	2.031206E-16	1.294271E-17
3.561405E+03	2.032462E-16	1.292452E-17
3.571326E+03	2.033326E-16	1.290394E-17
3.581246E+03	2.034065E-16	1.288267E-17
3.591167E+03	2.034907E-16	1.286216E-17
3.601087E+03	2.036080E-16	1.284383E-17
3.611007E+03	2.037857E-16	1.282941E-17
3.620928E+03	2.040559E-16	1.282089E-17
3.630848E+03	2.044487E-16	1.282011E-17
3.640768E+03	2.050029E-16	1.282947E-17
3.650689E+03	2.057500E-16	1.285087E-17
3.660609E+03	2.067295E-16	1.288671E-17
3.670529E+03	2.079798E-16	1.293930E-17
3.671818E+03	1.292999E-16	8.042250E-18
3.676379E+03	1.307222E-16	8.123426E-18
3.680941E+03	1.321092E-16	8.202265E-18
3.685502E+03	1.337067E-16	8.294028E-18
3.690063E+03	1.352349E-16	8.381341E-18
3.694625E+03	1.372755E-16	8.500233E-18
3.699186E+03	1.390225E-16	8.600752E-18
3.703748E+03	1.404077E-16	8.678738E-18
3.708309E+03	1.421249E-16	8.777097E-18
3.712870E+03	1.438473E-16	8.875611E-18
3.717432E+03	1.452178E-16	8.952266E-18
3.721993E+03	1.464811E-16	9.022184E-18
3.726554E+03	1.479110E-16	9.102243E-18
3.731116E+03	1.493800E-16	9.184579E-18
3.735677E+03	1.515489E-16	9.309770E-18
3.740239E+03	1.514170E-16	9.293531E-18
3.744800E+03	1.515082E-16	9.291018E-18
3.749361E+03	1.545525E-16	9.469448E-18
3.753923E+03	1.567568E-16	9.596158E-18
3.758484E+03	1.582176E-16	9.677189E-18
3.763046E+03	1.588468E-16	9.707261E-18
3.767607E+03	1.594064E-16	9.733047E-18
3.772168E+03	1.603895E-16	9.784632E-18
3.776730E+03	1.617905E-16	9.861615E-18
3.781291E+03	1.633514E-16	9.948215E-18
3.785852E+03	1.647140E-16	1.002261E-17
3.790414E+03	1.670835E-16	1.015810E-17
3.794975E+03	1.698103E-16	1.031509E-17
3.799537E+03	1.717624E-16	1.042479E-17
3.804098E+03	1.752056E-16	1.062475E-17
3.808659E+03	1.797744E-16	1.089259E-17
3.813221E+03	1.851599E-16	1.120943E-17
3.817782E+03	1.906725E-16	1.153343E-17
3.822343E+03	1.967856E-16	1.189321E-17
3.826905E+03	2.017513E-16	1.218310E-17
3.831466E+03	2.077457E-16	1.253460E-17
3.836028E+03	2.141919E-16	1.291277E-17
3.840589E+03	2.212566E-16	1.332758E-17
3.845150E+03	2.298479E-16	1.383360E-17
3.849712E+03	2.374382E-16	1.427861E-17
3.854273E+03	2.462344E-16	1.479536E-17
3.858834E+03	2.551483E-16	1.531836E-17
3.863396E+03	2.638212E-16	1.582606E-17
3.867957E+03	2.714513E-16	1.627045E-17
3.872519E+03	2.789576E-16	1.670673E-17
3.877080E+03	2.856128E-16	1.709140E-17
3.881641E+03	2.916647E-16	1.743939E-17
3.886203E+03	2.973048E-16	1.776225E-17
3.890764E+03	3.028213E-16	1.807724E-17
3.895325E+03	3.070253E-16	1.831348E-17
3.899887E+03	3.089968E-16	1.841631E-17
3.904448E+03	3.097495E-16	1.844642E-17
3.909010E+03	3.099939E-16	1.844628E-17
3.913571E+03	3.086983E-16	1.835460E-17
3.918132E+03	3.060800E-16	1.818452E-17
3.922694E+03	3.034533E-16	1.801425E-17
3.927255E+03	2.996645E-16	1.777536E-17
3.931816E+03	2.942690E-16	1.744163E-17
3.936378E+03	2.894352E-16	1.714174E-17
3.940939E+03	2.840141E-16	1.680759E-17
3.945501E+03	2.817739E-16	1.666209E-17
3.950062E+03	2.812582E-16	1.661875E-17
3.954623E+03	2.787474E-16	1.645772E-17
3.959185E+03	2.756879E-16	1.626460E-17
3.963746E+03	2.726692E-16	1.607422E-17
3.968307E+03	2.703877E-16	1.592759E-17
3.972869E+03	2.692760E-16	1.585007E-17
3.977430E+03	2.681656E-16	1.577279E-17
3.981992E+03	2.671675E-16	1.570226E-17
3.986553E+03	2.654450E-16	1.558933E-17
3.991114E+03	2.649593E-16	1.554920E-17
3.995676E+03	2.643722E-16	1.550321E-17
4.000237E+03	2.637685E-16	1.545635E-17
4.004798E+03	2.652218E-16	1.553006E-17
4.009360E+03	2.668821E-16	1.561581E-17
4.013921E+03	2.667498E-16	1.559666E-17
4.018483E+03	2.650677E-16	1.548703E-17
4.023044E+03	2.641996E-16	1.542512E-17
4.027605E+03	2.619793E-16	1.528446E-17
4.032167E+03	2.586566E-16	1.507977E-17
4.036728E+03	2.568490E-16	1.496368E-17
4.041289E+03	2.550599E-16	1.484888E-17
4.045851E+03	2.528246E-16	1.470833E-17
4.050412E+03	2.483055E-16	1.443525E-17
4.054974E+03	2.464231E-16	1.431576E-17
4.059535E+03	2.442906E-16	1.418198E-17
4.064096E+03	2.416251E-16	1.401750E-17
4.068658E+03	2.382525E-16	1.381229E-17
4.073219E+03	2.368087E-16	1.371916E-17
4.077781E+03	2.356131E-16	1.364056E-17
4.082342E+03	2.349355E-16	1.359208E-17
4.086903E+03	2.348552E-16	1.357824E-17
4.091465E+03	2.361507E-16	1.364396E-17
4.096026E+03	2.368546E-16	1.367548E-17
4.100587E+03	2.383898E-16	1.375496E-17
4.105149E+03	2.403888E-16	1.386112E-17
4.109710E+03	2.426705E-16	1.398349E-17
4.114272E+03	2.441960E-16	1.406219E-17
4.118833E+03	2.458860E-16	1.415031E-17
4.123394E+03	2.478473E-16	1.425396E-17
4.127956E+03	2.482550E-16	1.426824E-17
4.132517E+03	2.485793E-16	1.427776E-17
4.137077E+03	2.504282E-16	1.437484E-17
4.141639E+03	2.528021E-16	1.450196E-17
4.146200E+03	2.551462E-16	1.462727E-17
4.150762E+03	2.570359E-16	1.472644E-17
4.155323E+03	2.586885E-16	1.481197E-17
4.159884E+03	2.594338E-16	1.484553E-17
4.164446E+03	2.606687E-16	1.490710E-17
4.169007E+03	2.619801E-16	1.497303E-17
4.173568E+03	2.631198E-16	1.502914E-17
4.178130E+03	2.646220E-16	1.510593E-17
4.182691E+03	2.668203E-16	1.522239E-17
4.187253E+03	2.675568E-16	1.525544E-17
4.191814E+03	2.698991E-16	1.538002E-17
4.196375E+03	2.736898E-16	1.558700E-17
4.200937E+03	2.775127E-16	1.579564E-17
4.205498E+03	2.800323E-16	1.592998E-17
4.210059E+03	2.825570E-16	1.606451E-17
4.214621E+03	2.837426E-16	1.612288E-17
4.219182E+03	2.857647E-16	1.622875E-17
4.223744E+03	2.894742E-16	1.643035E-17
4.228305E+03	2.927285E-16	1.660598E-17
4.232866E+03	2.951497E-16	1.673426E-17
4.237428E+03	2.998352E-16	1.699079E-17
4.241989E+03	3.025824E-16	1.713733E-17
4.246550E+03	3.051492E-16	1.727360E-17
4.251112E+03	3.073032E-16	1.738644E-17
4.255673E+03	3.101590E-16	1.753893E-17
4.260235E+03	3.115365E-16	1.760780E-17
4.264796E+03	3.118226E-16	1.761502E-17
4.269357E+03	3.118704E-16	1.760887E-17
4.273919E+03	3.127847E-16	1.765171E-17
4.278480E+03	3.130385E-16	1.765734E-17
4.283041E+03	3.127305E-16	1.763137E-17
4.287603E+03	3.118950E-16	1.757579E-17
4.292164E+03	3.118979E-16	1.756758E-17
4.296726E+03	3.122777E-16	1.758067E-17
4.301287E+03	3.138597E-16	1.766150E-17
4.305848E+03	3.157636E-16	1.776045E-17
4.310410E+03	3.171450E-16	1.783002E-17
4.314971E+03	3.180660E-16	1.787376E-17
4.319532E+03	3.198845E-16	1.796796E-17
4.324094E+03	3.217402E-16	1.806426E-17
4.328655E+03	3.237345E-16	1.816835E-17
4.333217E+03	3.257398E-16	1.827306E-17
4.337778E+03	3.276882E-16	1.837460E-17
4.342339E+03	3.306887E-16	1.853512E-17
4.346901E+03	3.336714E-16	1.869461E-17
4.351462E+03	3.365333E-16	1.884731E-17
4.356023E+03	3.396370E-16	1.901353E-17
4.360585E+03	3.434112E-16	1.921725E-17
4.365146E+03	3.477093E-16	1.945022E-17
4.369708E+03	3.518154E-16	1.967238E-17
4.374269E+03	3.564079E-16	1.992168E-17
4.378830E+03	3.625976E-16	2.026016E-17
4.383392E+03	3.692243E-16	2.062291E-17
4.387953E+03	3.759761E-16	2.099250E-17
4.392515E+03	3.832887E-16	2.139324E-17
4.397076E+03	3.904412E-16	2.178490E-17
4.401637E+03	3.961331E-16	2.209494E-17
4.406199E+03	4.004798E-16	2.232989E-17
4.410760E+03	4.058043E-16	2.261932E-17
4.415321E+03	4.109618E-16	2.289937E-17
4.419883E+03	4.154013E-16	2.313938E-17
4.424444E+03	4.198393E-16	2.337928E-17
4.429006E+03	4.270852E-16	2.377547E-17
4.433567E+03	4.349038E-16	2.420342E-17
4.438128E+03	4.429099E-16	2.464168E-17
4.442690E+03	4.510031E-16	2.508466E-17
4.447251E+03	4.594443E-16	2.554687E-17
4.451812E+03	4.689178E-16	2.606633E-17
4.456374E+03	4.777936E-16	2.655243E-17
4.460935E+03	4.848850E-16	2.693927E-17
4.465497E+03	4.925693E-16	2.735898E-17
4.470058E+03	4.998464E-16	2.775599E-17
4.474619E+03	5.074107E-16	2.816889E-17
4.479181E+03	5.145862E-16	2.856015E-17
4.483742E+03	5.214069E-16	2.893167E-17
4.488303E+03	5.271594E-16	2.924390E-17
4.492865E+03	5.337565E-16	2.960298E-17
4.497426E+03	5.406536E-16	2.997867E-17
4.501988E+03	5.472862E-16	3.033968E-17
4.506549E+03	5.542346E-16	3.071818E-17
4.511110E+03	5.598617E-16	3.102346E-17
4.515672E+03	5.650959E-16	3.130698E-17
4.520233E+03	5.692501E-16	3.153073E-17
4.524794E+03	5.722870E-16	3.169266E-17
4.529356E+03	5.746295E-16	3.181622E-17
4.533917E+03	5.750172E-16	3.183168E-17
4.538479E+03	5.738242E-16	3.175979E-17
4.543040E+03	5.726586E-16	3.168959E-17
4.547601E+03	5.713303E-16	3.161057E-17
4.552163E+03	5.699986E-16	3.153152E-17
4.556724E+03	5.692140E-16	3.148291E-17
4.561285E+03	5.689493E-16	3.146321E-17
4.565847E+03	5.686321E-16	3.144075E-17
4.570408E+03	5.689851E-16	3.145549E-17
4.574970E+03	5.692188E-16	3.146377E-17
4.579531E+03	5.686842E-16	3.142972E-17
4.584092E+03	5.687920E-16	3.143132E-17
4.588654E+03	5.692982E-16	3.145506E-17
4.593215E+03	5.687300E-16	3.141958E-17
4.597776E+03	5.681781E-16	3.138515E-17
4.602338E+03	5.672531E-16	3.133024E-17
4.606899E+03	5.661090E-16	3.126339E-17
4.611461E+03	5.653864E-16	3.121994E-17
4.616022E+03	5.635909E-16	3.111740E-17
4.620583E+03	5.597045E-16	3.089958E-17
4.625145E+03	5.552024E-16	3.064794E-17
4.629706E+03	5.523185E-16	3.048580E-17
4.634267E+03	5.488919E-16	3.029385E-17
4.638829E+03	5.441217E-16	3.002791E-17
4.643390E+03	5.399727E-16	2.979641E-17
4.647952E+03	5.361709E-16	2.958422E-17
4.652513E+03	5.328453E-16	2.939846E-17
4.657074E+03	5.291473E-16	2.919228E-17
4.661636E+03	5.234816E-16	2.887771E-17
4.666197E+03	5.177946E-16	2.856211E-17
4.670758E+03	5.116708E-16	2.822256E-17
4.675320E+03	5.070222E-16	2.796452E-17
4.679881E+03	5.022283E-16	2.769860E-17
4.684443E+03	4.969113E-16	2.740396E-17
4.689004E+03	4.914471E-16	2.710133E-17
4.693565E+03	4.867860E-16	2.684311E-17
4.698127E+03	4.816895E-16	2.656100E-17
4.702688E+03	4.777558E-16	2.634311E-17
4.707249E+03	4.752975E-16	2.620669E-17
4.711811E+03	4.716153E-16	2.600288E-17
4.716372E+03	4.691706E-16	2.586740E-17
4.720934E+03	4.674893E-16	2.577411E-17
4.725495E+03	4.657695E-16	2.567878E-17
4.730056E+03	4.632291E-16	2.553830E-17
4.734618E+03	4.606400E-16	2.539523E-17
4.739179E+03	4.579369E-16	2.524595E-17
4.743741E+03	4.565586E-16	2.516979E-17
4.748302E+03	4.563136E-16	2.515620E-17
4.752863E+03	4.562475E-16	2.515255E-17
4.757425E+03	4.576331E-16	2.522900E-17
4.761986E+03	4.602208E-16	2.537180E-17
4.766547E+03	4.629535E-16	2.552269E-17
4.771109E+03	4.662437E-16	2.570438E-17
4.775670E+03	4.685674E-16	2.583287E-17
4.780232E+03	4.707221E-16	2.595213E-17
4.784793E+03	4.737154E-16	2.611771E-17
4.789354E+03	4.773017E-16	2.631606E-17
4.793916E+03	4.813832E-16	2.654181E-17
4.798477E+03	4.856218E-16	2.677630E-17
4.803038E+03	4.901088E-16	2.702458E-17
4.807600E+03	4.945208E-16	2.726882E-17
4.812161E+03	4.984331E-16	2.748560E-17
4.816723E+03	5.013364E-16	2.764683E-17
4.821284E+03	5.031609E-16	2.774865E-17
4.825845E+03	5.049459E-16	2.784839E-17
4.830407E+03	5.074009E-16	2.798515E-17
4.834968E+03	5.102101E-16	2.814155E-17
4.839529E+03	5.119860E-16	2.824103E-17
4.844091E+03	5.146512E-16	2.838966E-17
4.848652E+03	5.172359E-16	2.853393E-17
4.853214E+03	5.185995E-16	2.861094E-17
4.857775E+03	5.201488E-16	2.869826E-17
4.862336E+03	5.206328E-16	2.872690E-17
4.866898E+03	5.204776E-16	2.872033E-17
4.871459E+03	5.212042E-16	2.876250E-17
4.876020E+03	5.232860E-16	2.887953E-17
4.880582E+03	5.241734E-16	2.893073E-17
4.885143E+03	5.228948E-16	2.886245E-17
4.889705E+03	5.213096E-16	2.877730E-17
4.894266E+03	5.199491E-16	2.870461E-17
4.898827E+03	5.192362E-16	2.866773E-17
4.903389E+03	5.189781E-16	2.865602E-17
4.907950E+03	5.171711E-16	2.855884E-17
4.912511E+03	5.145402E-16	2.841620E-17
4.917073E+03	5.141917E-16	2.839966E-17
4.921634E+03	5.132407E-16	2.834990E-17
4.926196E+03	5.120338E-16	2.828606E-17
4.930757E+03	5.110286E-16	2.823341E-17
4.935318E+03	5.112354E-16	2.824777E-17
4.939880E+03	5.113912E-16	2.825938E-17
4.944441E+03	5.112663E-16	2.825554E-17
4.949002E+03	5.119653E-16	2.829730E-17
4.953564E+03	5.137020E-16	2.839649E-17
4.958125E+03	5.151678E-16	2.848077E-17
4.962687E+03	5.166515E-16	2.856613E-17
4.967248E+03	5.185533E-16	2.867468E-17
4.971809E+03	5.201753E-16	2.876784E-17
4.976371E+03	5.220709E-16	2.887622E-17
4.980932E+03	5.248539E-16	2.903376E-17
4.985493E+03	5.279199E-16	2.920706E-17
4.990055E+03	5.313288E-16	2.939943E-17
4.994616E+03	5.354732E-16	2.963260E-17
4.999177E+03	5.391585E-16	2.984049E-17
5.003738E+03	5.420948E-16	3.000702E-17
5.008299E+03	5.451090E-16	3.017797E-17
5.012861E+03	5.478255E-16	3.033254E-17
5.017423E+03	5.498855E-16	3.045084E-17
5.021984E+03	5.505445E-16	3.049165E-17
5.026546E+03	5.508019E-16	3.051027E-17
5.031107E+03	5.506659E-16	3.050715E-17
5.035669E+03	5.503159E-16	3.049223E-17
5.040230E+03	5.491877E-16	3.043423E-17
5.044791E+03	5.476485E-16	3.035350E-17
5.049353E+03	5.466392E-16	3.030215E-17
5.053914E+03	5.448856E-16	3.020958E-17
5.058476E+03	5.436789E-16	3.014736E-17
5.063037E+03	5.430110E-16	3.011505E-17
5.067597E+03	5.439254E-16	3.017054E-17
5.072159E+03	5.460206E-16	3.029160E-17
5.076720E+03	5.487490E-16	3.044789E-17
5.081281E+03	5.517000E-16	3.061663E-17
5.085843E+03	5.547109E-16	3.078880E-17
5.090404E+03	5.577133E-16	3.096061E-17
5.094966E+03	5.619302E-16	3.119995E-17
5.099527E+03	5.669591E-16	3.148451E-17
5.104088E+03	5.715256E-16	3.174354E-17
5.108650E+03	5.755186E-16	3.197083E-17
5.113211E+03	5.787412E-16	3.215546E-17
5.117772E+03	5.839808E-16	3.245229E-17
5.122334E+03	5.893558E-16	3.275679E-17
5.126895E+03	5.957633E-16	3.311885E-17
5.131457E+03	6.030061E-16	3.352753E-17
5.136018E+03	6.104343E-16	3.394671E-17
5.140579E+03	6.180303E-16	3.437543E-17
5.145141E+03	6.252814E-16	3.478518E-17
5.149702E+03	6.329559E-16	3.521868E-17
5.154263E+03	6.393973E-16	3.558377E-17
5.158825E+03	6.441710E-16	3.585621E-17
5.163386E+03	6.479265E-16	3.607213E-17
5.167948E+03	6.518501E-16	3.629754E-17
5.172509E+03	6.545771E-16	3.645643E-17
5.177070E+03	6.573874E-16	3.662009E-17
5.181632E+03	6.601357E-16	3.678040E-17
5.186193E+03	6.608288E-16	3.682629E-17
5.190754E+03	6.616656E-16	3.688026E-17
5.195316E+03	6.633104E-16	3.697935E-17
5.199877E+03	6.653195E-16	3.709884E-17
5.204439E+03	6.678881E-16	3.724963E-17
5.209000E+03	6.704204E-16	3.739851E-17
5.213561E+03	6.714291E-16	3.746249E-17
5.218123E+03	6.718757E-16	3.749517E-17
5.222684E+03	6.723814E-16	3.753121E-17
5.227245E+03	6.723516E-16	3.753743E-17
5.231807E+03	6.725764E-16	3.755790E-17
5.236368E+03	6.734962E-16	3.761726E-17
5.240930E+03	6.734572E-16	3.762313E-17
5.245491E+03	6.731304E-16	3.761296E-17
5.250052E+03	6.732444E-16	3.762747E-17
5.254614E+03	6.732483E-16	3.763589E-17
5.259175E+03	6.728295E-16	3.762071E-17
5.263736E+03	6.736119E-16	3.767276E-17
5.268298E+03	6.753994E-16	3.778110E-17
5.272859E+03	6.764674E-16	3.784928E-17
5.277421E+03	6.775008E-16	3.791560E-17
5.281982E+03	6.794612E-16	3.803389E-17
5.286543E+03	6.810743E-16	3.813283E-17
5.291105E+03	6.819866E-16	3.819262E-17
5.295666E+03	6.833108E-16	3.827556E-17
5.300227E+03	6.843479E-16	3.834250E-17
5.304789E+03	6.853678E-16	3.840854E-17
5.309350E+03	6.857901E-16	3.844118E-17
5.313912E+03	6.850372E-16	3.840798E-17
5.318473E+03	6.850497E-16	3.841774E-17
5.323034E+03	6.846019E-16	3.840172E-17
5.327596E+03	6.837200E-16	3.836139E-17
5.332157E+03	6.826644E-16	3.831135E-17
5.336718E+03	6.813018E-16	3.824409E-17
5.341280E+03	6.802854E-16	3.819628E-17
5.345841E+03	6.788622E-16	3.812565E-17
5.350403E+03	6.776513E-16	3.806696E-17
5.354964E+03	6.763519E-16	3.800331E-17
5.359525E+03	6.751645E-16	3.794597E-17
5.364087E+03	6.730889E-16	3.783872E-17
5.368648E+03	6.715679E-16	3.776265E-17
5.373210E+03	6.694106E-16	3.765079E-17
5.377771E+03	6.663860E-16	3.749013E-17
5.382332E+03	6.641986E-16	3.737655E-17
5.386894E+03	6.624400E-16	3.728709E-17
5.391455E+03	6.610678E-16	3.721939E-17
5.396016E+03	6.605450E-16	3.719952E-17
5.400578E+03	6.603894E-16	3.720037E-17
5.405139E+03	6.594345E-16	3.715623E-17
5.409701E+03	6.574756E-16	3.705552E-17
5.414262E+03	6.555972E-16	3.695933E-17
5.418823E+03	6.530896E-16	3.682765E-17
5.423385E+03	6.512647E-16	3.673445E-17
5.427946E+03	6.499069E-16	3.666759E-17
5.432507E+03	6.497637E-16	3.666928E-17
5.437069E+03	6.499194E-16	3.668788E-17
5.441630E+03	6.481157E-16	3.659587E-17
5.446192E+03	6.464908E-16	3.651396E-17
5.450753E+03	6.455521E-16	3.647081E-17
5.455314E+03	6.451751E-16	3.645940E-17
5.459876E+03	6.443029E-16	3.642003E-17
5.464437E+03	6.431334E-16	3.636386E-17
5.468998E+03	6.416835E-16	3.629183E-17
5.473560E+03	6.393833E-16	3.617169E-17
5.478121E+03	6.374004E-16	3.606946E-17
5.482683E+03	6.354899E-16	3.597131E-17
5.487244E+03	6.328382E-16	3.583116E-17
5.491805E+03	6.300976E-16	3.568593E-17
5.496367E+03	6.280558E-16	3.558023E-17
5.500928E+03	6.260052E-16	3.547400E-17
5.505489E+03	6.237678E-16	3.535715E-17
5.510051E+03	6.218782E-16	3.525997E-17
5.514612E+03	6.196001E-16	3.514073E-17
5.519174E+03	6.176691E-16	3.504114E-17
