#wls	flux	fluxerr
1.587256E+03	-5.590213E-18	-1.618968E-18
1.626937E+03	-5.897564E-18	-1.707923E-18
1.666619E+03	-6.127720E-18	-1.774517E-18
1.706300E+03	-6.267610E-18	-1.814966E-18
1.745982E+03	-6.303947E-18	-1.825425E-18
1.785663E+03	-6.212090E-18	-1.798762E-18
1.825344E+03	-5.965861E-18	-1.727402E-18
1.865026E+03	-5.550421E-18	-1.607053E-18
1.904707E+03	-4.969473E-18	-1.438793E-18
1.944389E+03	-4.260357E-18	-1.233438E-18
1.984070E+03	-3.500976E-18	-1.013546E-18
2.023751E+03	-2.798422E-18	-8.101218E-19
2.063433E+03	-2.253694E-18	-6.524007E-19
2.103114E+03	-1.928112E-18	-5.581280E-19
2.142795E+03	-1.842013E-18	-5.331823E-19
2.182477E+03	-1.999863E-18	-5.788482E-19
2.222158E+03	-2.410299E-18	-6.976159E-19
2.261840E+03	-3.081286E-18	-8.917807E-19
2.301521E+03	-4.003707E-18	-1.158694E-18
2.341202E+03	-5.143581E-18	-1.488510E-18
2.380884E+03	-6.448472E-18	-1.866047E-18
2.420565E+03	-7.860684E-18	-2.274601E-18
2.460247E+03	-9.329549E-18	-2.699506E-18
2.499928E+03	-1.081480E-17	-3.129110E-18
2.539609E+03	-1.228880E-17	-3.555411E-18
2.579291E+03	-1.373240E-17	-3.972870E-18
2.618972E+03	-1.513391E-17	-4.378107E-18
2.658654E+03	-1.648504E-17	-4.768724E-18
2.698335E+03	-1.777989E-17	-5.143013E-18
2.738016E+03	-1.901340E-17	-5.499516E-18
2.777698E+03	-2.017981E-17	-5.836568E-18
2.817379E+03	-2.127230E-17	-6.152199E-18
2.857061E+03	-2.228362E-17	-6.444313E-18
2.896742E+03	-2.320318E-17	-6.709853E-18
2.936423E+03	-2.402074E-17	-6.945861E-18
2.976105E+03	-2.472112E-17	-7.147953E-18
2.986025E+03	-2.487663E-17	-7.192810E-18
2.995946E+03	-2.502310E-17	-7.235050E-18
3.005866E+03	-2.516016E-17	-7.274566E-18
3.015786E+03	-2.529028E-17	-7.312075E-18
3.025707E+03	-2.541872E-17	-7.349099E-18
3.035627E+03	-2.555164E-17	-7.387413E-18
3.045547E+03	-2.568690E-17	-7.426403E-18
3.055468E+03	-2.582256E-17	-7.465509E-18
3.065388E+03	-2.595626E-17	-7.504045E-18
3.075308E+03	-2.608684E-17	-7.541679E-18
3.085229E+03	-2.621112E-17	-7.577490E-18
3.095149E+03	-2.632764E-17	-7.611054E-18
3.105069E+03	-2.643397E-17	-7.641673E-18
3.114990E+03	-2.652993E-17	-7.669291E-18
3.124910E+03	-2.661227E-17	-7.692970E-18
3.134830E+03	-2.667992E-17	-7.712403E-18
3.144751E+03	-2.673193E-17	-7.727314E-18
3.154671E+03	-2.676690E-17	-7.737299E-18
3.164591E+03	-2.678257E-17	-7.741704E-18
3.174512E+03	-2.677924E-17	-7.740614E-18
3.184432E+03	-2.675482E-17	-7.733430E-18
3.194353E+03	-2.670884E-17	-7.720014E-18
3.204273E+03	-2.663991E-17	-7.699965E-18
3.214193E+03	-2.654776E-17	-7.673204E-18
3.224114E+03	-2.643170E-17	-7.639532E-18
3.234034E+03	-2.629115E-17	-7.598784E-18
3.243954E+03	-2.612521E-17	-7.550699E-18
3.253875E+03	-2.593399E-17	-7.495308E-18
3.263795E+03	-2.571724E-17	-7.432540E-18
3.273715E+03	-2.547443E-17	-7.362244E-18
3.283636E+03	-2.520597E-17	-7.284536E-18
3.293556E+03	-2.491161E-17	-7.199342E-18
3.303476E+03	-2.459196E-17	-7.106846E-18
3.313397E+03	-2.424701E-17	-7.007041E-18
3.323317E+03	-2.387726E-17	-6.900071E-18
3.333237E+03	-2.348331E-17	-6.786113E-18
3.343158E+03	-2.306593E-17	-6.665386E-18
3.353078E+03	-2.262595E-17	-6.538133E-18
3.362998E+03	-2.216400E-17	-6.404536E-18
3.372919E+03	-2.168152E-17	-6.265009E-18
3.382839E+03	-2.117904E-17	-6.119710E-18
3.392760E+03	-2.065850E-17	-5.969194E-18
3.402680E+03	-2.012065E-17	-5.813685E-18
3.412600E+03	-1.956698E-17	-5.653608E-18
3.422521E+03	-1.899903E-17	-5.489411E-18
3.432441E+03	-1.841814E-17	-5.321482E-18
3.442361E+03	-1.782619E-17	-5.150361E-18
3.452282E+03	-1.722459E-17	-4.976458E-18
3.462202E+03	-1.661478E-17	-4.800192E-18
3.472122E+03	-1.599845E-17	-4.622046E-18
3.482043E+03	-1.537703E-17	-4.442434E-18
3.491963E+03	-1.475233E-17	-4.261882E-18
3.501883E+03	-1.412532E-17	-4.080670E-18
3.511804E+03	-1.349768E-17	-3.899280E-18
3.521724E+03	-1.287062E-17	-3.718067E-18
3.531644E+03	-1.224542E-17	-3.537396E-18
3.541565E+03	-1.162293E-17	-3.357514E-18
3.551485E+03	-1.100406E-17	-3.178685E-18
3.561405E+03	-1.038983E-17	-3.001201E-18
3.571326E+03	-9.780605E-18	-2.825169E-18
3.581246E+03	-9.177079E-18	-2.650790E-18
3.591167E+03	-8.579552E-18	-2.478150E-18
3.601087E+03	-7.988062E-18	-2.307260E-18
3.611007E+03	-7.402613E-18	-2.138121E-18
3.620928E+03	-6.823115E-18	-1.970707E-18
3.630848E+03	-6.249166E-18	-1.804901E-18
3.640768E+03	-5.680409E-18	-1.640601E-18
3.650689E+03	-5.116069E-18	-1.477583E-18
3.660609E+03	-4.555427E-18	-1.315639E-18
3.670529E+03	-3.997561E-18	-1.154502E-18
3.680450E+03	-3.441467E-18	-9.938827E-19
3.690370E+03	-2.885944E-18	-8.334343E-19
3.700290E+03	-2.329788E-18	-6.728091E-19
3.710211E+03	-1.771683E-18	-5.116270E-19
3.720131E+03	-1.210290E-18	-3.495014E-19
3.730051E+03	-6.442352E-19	-1.860355E-19
3.739972E+03	-7.217006E-20	-2.084013E-20
3.749892E+03	5.072078E-19	1.464607E-19
3.759812E+03	1.095098E-18	3.162134E-19
3.769733E+03	1.692608E-18	4.887372E-19
3.779653E+03	2.300615E-18	6.642854E-19
3.789574E+03	2.919832E-18	8.430641E-19
3.799494E+03	3.550762E-18	1.025218E-18
3.809414E+03	4.193517E-18	1.210779E-18
3.819335E+03	4.847958E-18	1.399707E-18
3.829255E+03	5.513657E-18	1.591878E-18
3.839175E+03	6.189814E-18	1.787061E-18
3.849096E+03	6.875278E-18	1.984924E-18
3.859016E+03	7.568504E-18	2.185020E-18
3.868936E+03	8.267769E-18	2.386852E-18
3.878857E+03	8.971026E-18	2.589829E-18
3.888777E+03	9.676026E-18	2.793301E-18
3.898697E+03	1.038036E-17	2.996575E-18
3.908618E+03	1.108158E-17	3.198939E-18
3.918538E+03	1.177733E-17	3.399718E-18
3.928458E+03	1.246528E-17	3.598237E-18
3.938379E+03	1.314316E-17	3.793843E-18
3.948299E+03	1.380930E-17	3.986053E-18
3.958219E+03	1.446203E-17	4.174382E-18
3.968140E+03	1.510027E-17	4.358523E-18
3.978060E+03	1.572329E-17	4.538265E-18
3.987981E+03	1.633061E-17	4.713469E-18
3.997901E+03	1.692269E-17	4.884266E-18
4.007821E+03	1.749996E-17	5.050782E-18
4.017742E+03	1.806362E-17	5.213366E-18
4.027662E+03	1.861510E-17	5.372425E-18
4.037582E+03	1.915618E-17	5.528480E-18
4.047503E+03	1.968898E-17	5.682136E-18
4.057423E+03	2.021603E-17	5.834128E-18
4.067343E+03	2.073969E-17	5.985136E-18
4.077264E+03	2.126268E-17	6.135947E-18
4.087184E+03	2.178820E-17	6.287480E-18
4.097104E+03	2.231874E-17	6.440457E-18
4.107025E+03	2.285734E-17	6.595754E-18
4.116945E+03	2.340689E-17	6.754205E-18
4.126865E+03	2.397019E-17	6.916616E-18
4.136786E+03	2.454999E-17	7.083782E-18
4.146706E+03	2.514896E-17	7.256472E-18
4.156626E+03	2.576967E-17	7.435431E-18
4.166547E+03	2.641460E-17	7.621370E-18
4.176467E+03	2.708615E-17	7.814985E-18
4.186387E+03	2.778666E-17	8.016944E-18
4.196308E+03	2.851816E-17	8.227841E-18
4.206228E+03	2.928284E-17	8.448300E-18
4.216149E+03	3.008315E-17	8.679030E-18
4.226069E+03	3.092130E-17	8.920667E-18
4.235989E+03	3.179895E-17	9.173693E-18
4.245910E+03	3.271865E-17	9.438839E-18
4.255830E+03	3.368262E-17	9.716746E-18
4.265750E+03	3.469328E-17	1.000811E-17
4.275671E+03	3.575301E-17	1.031362E-17
4.285591E+03	3.686394E-17	1.063389E-17
4.295511E+03	3.802919E-17	1.096982E-17
4.305432E+03	3.925057E-17	1.132193E-17
4.315352E+03	4.053109E-17	1.169108E-17
4.325272E+03	4.187304E-17	1.207793E-17
4.335193E+03	4.327880E-17	1.248318E-17
4.345113E+03	4.475006E-17	1.290730E-17
4.355033E+03	4.628837E-17	1.335075E-17
4.364954E+03	4.789434E-17	1.381370E-17
4.374874E+03	4.956867E-17	1.429635E-17
4.384794E+03	5.131026E-17	1.479837E-17
4.394715E+03	5.311684E-17	1.531913E-17
4.404635E+03	5.498591E-17	1.585789E-17
4.414556E+03	5.691261E-17	1.641324E-17
4.424476E+03	5.889100E-17	1.698349E-17
4.434396E+03	6.091422E-17	1.756665E-17
4.444317E+03	6.297212E-17	1.815978E-17
4.454237E+03	6.505468E-17	1.876001E-17
4.464157E+03	6.714989E-17	1.936386E-17
4.474078E+03	6.924384E-17	1.996733E-17
4.483998E+03	7.132214E-17	2.056626E-17
4.493918E+03	7.336976E-17	2.115634E-17
4.503839E+03	7.537137E-17	2.173312E-17
4.513759E+03	7.731153E-17	2.229216E-17
4.523679E+03	7.917482E-17	2.282902E-17
4.533600E+03	8.094648E-17	2.333945E-17
4.543520E+03	8.261558E-17	2.382029E-17
4.553440E+03	8.416975E-17	2.426798E-17
4.563361E+03	8.559963E-17	2.467982E-17
4.573281E+03	8.689966E-17	2.505420E-17
4.583201E+03	8.806617E-17	2.539009E-17
4.593122E+03	8.909559E-17	2.568644E-17
4.603042E+03	8.999211E-17	2.594446E-17
4.612963E+03	9.075648E-17	2.616439E-17
4.622883E+03	9.139701E-17	2.634860E-17
4.632803E+03	9.192172E-17	2.649943E-17
4.642724E+03	9.234032E-17	2.661966E-17
4.652644E+03	9.266418E-17	2.671258E-17
4.662564E+03	9.290586E-17	2.678181E-17
4.672485E+03	9.308035E-17	2.683167E-17
4.682405E+03	9.320056E-17	2.686589E-17
4.692325E+03	9.328028E-17	2.688843E-17
4.702246E+03	9.333406E-17	2.690350E-17
4.712166E+03	9.337306E-17	2.691432E-17
4.722086E+03	9.341253E-17	2.692526E-17
4.732007E+03	9.346100E-17	2.693881E-17
4.741927E+03	9.353080E-17	2.695851E-17
4.751847E+03	9.363118E-17	2.698703E-17
4.761768E+03	9.376835E-17	2.702615E-17
4.771688E+03	9.395019E-17	2.707815E-17
4.781608E+03	9.418333E-17	2.714493E-17
4.791529E+03	9.447054E-17	2.722730E-17
4.801449E+03	9.481648E-17	2.732660E-17
4.811370E+03	9.522377E-17	2.744358E-17
4.821290E+03	9.569333E-17	2.757850E-17
4.831210E+03	9.622638E-17	2.773172E-17
4.841131E+03	9.682441E-17	2.790367E-17
4.851051E+03	9.748650E-17	2.809408E-17
4.860971E+03	9.821346E-17	2.830318E-17
4.870892E+03	9.900254E-17	2.853019E-17
4.880812E+03	9.985404E-17	2.877517E-17
4.890732E+03	1.007669E-16	2.903783E-17
4.900653E+03	1.017389E-16	2.931754E-17
4.910573E+03	1.027699E-16	2.961424E-17
4.920493E+03	1.038575E-16	2.992727E-17
4.930414E+03	1.050015E-16	3.025653E-17
4.940334E+03	1.061993E-16	3.060127E-17
4.950254E+03	1.074491E-16	3.096101E-17
4.960175E+03	1.087480E-16	3.133490E-17
4.970095E+03	1.100961E-16	3.172296E-17
4.980015E+03	1.114888E-16	3.212387E-17
4.989936E+03	1.129234E-16	3.253684E-17
4.999856E+03	1.143979E-16	3.296128E-17
5.009777E+03	1.159074E-16	3.339584E-17
5.019697E+03	1.174480E-16	3.383934E-17
5.029617E+03	1.190149E-16	3.429041E-17
5.039538E+03	1.206028E-16	3.474755E-17
5.049458E+03	1.222049E-16	3.520874E-17
5.059378E+03	1.238144E-16	3.567209E-17
5.069299E+03	1.254256E-16	3.613592E-17
5.079219E+03	1.270282E-16	3.659725E-17
5.089139E+03	1.286164E-16	3.705446E-17
5.099060E+03	1.301775E-16	3.750385E-17
5.108980E+03	1.317049E-16	3.794351E-17
5.118900E+03	1.331875E-16	3.837030E-17
5.128821E+03	1.346154E-16	3.878131E-17
5.138741E+03	1.359787E-16	3.917372E-17
5.148661E+03	1.372660E-16	3.954423E-17
5.158582E+03	1.384677E-16	3.989008E-17
5.168502E+03	1.395728E-16	4.020811E-17
5.178422E+03	1.405758E-16	4.049672E-17
5.188343E+03	1.414640E-16	4.075228E-17
5.198263E+03	1.422321E-16	4.097324E-17
5.208183E+03	1.428740E-16	4.115787E-17
5.218104E+03	1.433850E-16	4.130477E-17
5.228024E+03	1.437587E-16	4.141214E-17
5.237945E+03	1.439944E-16	4.147979E-17
5.247865E+03	1.440903E-16	4.150714E-17
5.257785E+03	1.440469E-16	4.149439E-17
5.267706E+03	1.438649E-16	4.144173E-17
5.277626E+03	1.435495E-16	4.135065E-17
5.287546E+03	1.431024E-16	4.122165E-17
5.297467E+03	1.425296E-16	4.105646E-17
5.307387E+03	1.418368E-16	4.085671E-17
5.317307E+03	1.410332E-16	4.062504E-17
5.327228E+03	1.401232E-16	4.036274E-17
5.337148E+03	1.391172E-16	4.007283E-17
5.347068E+03	1.380236E-16	3.975766E-17
5.356989E+03	1.368505E-16	3.941962E-17
5.366909E+03	1.356038E-16	3.906039E-17
5.376829E+03	1.342922E-16	3.868249E-17
5.386750E+03	1.329245E-16	3.828844E-17
5.396670E+03	1.315036E-16	3.787907E-17
5.406590E+03	1.300374E-16	3.745665E-17
5.416511E+03	1.285291E-16	3.702215E-17
5.426431E+03	1.269842E-16	3.657709E-17
5.436352E+03	1.254135E-16	3.612461E-17
5.446272E+03	1.238217E-16	3.566608E-17
5.456192E+03	1.222178E-16	3.520404E-17
5.466113E+03	1.206070E-16	3.474005E-17
5.476033E+03	1.189974E-16	3.427642E-17
5.485953E+03	1.173903E-16	3.381350E-17
5.495874E+03	1.157897E-16	3.335246E-17
5.505794E+03	1.141968E-16	3.289363E-17
5.515714E+03	1.126155E-16	3.243819E-17
5.525635E+03	1.110452E-16	3.198588E-17
5.535555E+03	1.094868E-16	3.153704E-17
5.545475E+03	1.079402E-16	3.109160E-17
5.555396E+03	1.064072E-16	3.065007E-17
5.565316E+03	1.048863E-16	3.021202E-17
5.575236E+03	1.033779E-16	2.977760E-17
5.585157E+03	1.018826E-16	2.934694E-17
5.595077E+03	1.003997E-16	2.891986E-17
5.604997E+03	9.892959E-17	2.849646E-17
5.614918E+03	9.747042E-17	2.807623E-17
5.624838E+03	9.602254E-17	2.765924E-17
5.634759E+03	9.458592E-17	2.724551E-17
5.644679E+03	9.315962E-17	2.683475E-17
5.654599E+03	9.174244E-17	2.642661E-17
5.664520E+03	9.033331E-17	2.602080E-17
5.674440E+03	8.893273E-17	2.561745E-17
5.684360E+03	8.753733E-17	2.521560E-17
5.694281E+03	8.614750E-17	2.481535E-17
5.704201E+03	8.476173E-17	2.441627E-17
5.714121E+03	8.337736E-17	2.401760E-17
5.724042E+03	8.199374E-17	2.361914E-17
5.733962E+03	8.061009E-17	2.322067E-17
5.743882E+03	7.922397E-17	2.282149E-17
5.753803E+03	7.783388E-17	2.242117E-17
5.763723E+03	7.644007E-17	2.201977E-17
5.773643E+03	7.503962E-17	2.161646E-17
5.783564E+03	7.363222E-17	2.121115E-17
5.793484E+03	7.221700E-17	2.080358E-17
5.803404E+03	7.079320E-17	2.039354E-17
5.813325E+03	6.936114E-17	1.998112E-17
5.823245E+03	6.791906E-17	1.956581E-17
5.833166E+03	6.646835E-17	1.914801E-17
5.843086E+03	6.500851E-17	1.872758E-17
5.853006E+03	6.354005E-17	1.830466E-17
5.862927E+03	6.206364E-17	1.787945E-17
5.872847E+03	6.058021E-17	1.745220E-17
5.882767E+03	5.909161E-17	1.702347E-17
5.892688E+03	5.759778E-17	1.659323E-17
5.902608E+03	5.610029E-17	1.616193E-17
5.912528E+03	5.460143E-17	1.573024E-17
5.922449E+03	5.310309E-17	1.529868E-17
5.932369E+03	5.160592E-17	1.486746E-17
5.942289E+03	5.011318E-17	1.443751E-17
5.952210E+03	4.862519E-17	1.400892E-17
5.962130E+03	4.714582E-17	1.358282E-17
5.972050E+03	4.567552E-17	1.315932E-17
5.981971E+03	4.421648E-17	1.273906E-17
5.991891E+03	4.277132E-17	1.232279E-17
6.001811E+03	4.134151E-17	1.191094E-17
6.011732E+03	3.992899E-17	1.150407E-17
6.021652E+03	3.853461E-17	1.110242E-17
6.031573E+03	3.716095E-17	1.070673E-17
6.041493E+03	3.580815E-17	1.031705E-17
6.051413E+03	3.447840E-17	9.933998E-18
6.061334E+03	3.317235E-17	9.557772E-18
6.071254E+03	3.189046E-17	9.188505E-18
6.081174E+03	3.063340E-17	8.826384E-18
6.091095E+03	2.940196E-17	8.471639E-18
6.101015E+03	2.819592E-17	8.124209E-18
6.110935E+03	2.701525E-17	7.784083E-18
6.120856E+03	2.586032E-17	7.451369E-18
6.130776E+03	2.472997E-17	7.125733E-18
6.140696E+03	2.362386E-17	6.807072E-18
6.150617E+03	2.254141E-17	6.495227E-18
6.160537E+03	2.148189E-17	6.189986E-18
6.170457E+03	2.044390E-17	5.890941E-18
6.180378E+03	1.942624E-17	5.597750E-18
6.190298E+03	1.842793E-17	5.310129E-18
6.200218E+03	1.744746E-17	5.027646E-18
6.210139E+03	1.648383E-17	4.750008E-18
6.220059E+03	1.553581E-17	4.476864E-18
6.229979E+03	1.460244E-17	4.207939E-18
6.239900E+03	1.368262E-17	3.942912E-18
6.249820E+03	1.277533E-17	3.681494E-18
6.259741E+03	1.187985E-17	3.423474E-18
6.269661E+03	1.099551E-17	3.168658E-18
6.279581E+03	1.012144E-17	2.916796E-18
6.289502E+03	9.257183E-18	2.667759E-18
6.299422E+03	8.402352E-18	2.421434E-18
6.309342E+03	7.556402E-18	2.177664E-18
6.319263E+03	6.719206E-18	1.936412E-18
6.329183E+03	5.890450E-18	1.697588E-18
6.339103E+03	5.069873E-18	1.461117E-18
6.349024E+03	4.257256E-18	1.226935E-18
6.358944E+03	3.452503E-18	9.950158E-19
6.368864E+03	2.655315E-18	7.652723E-19
6.378785E+03	1.865515E-18	5.376538E-19
6.388705E+03	1.082784E-18	3.120685E-19
6.398625E+03	3.067754E-19	8.841638E-20
6.408546E+03	-4.628972E-19	-1.334138E-19
6.418466E+03	-1.226682E-18	-3.535512E-19
6.428386E+03	-1.985091E-18	-5.721433E-19
6.438307E+03	-2.738584E-18	-7.893227E-19
6.448227E+03	-3.487762E-18	-1.005263E-18
6.458148E+03	-4.233201E-18	-1.220128E-18
6.468068E+03	-4.975391E-18	-1.434062E-18
6.477988E+03	-5.714942E-18	-1.647239E-18
6.487909E+03	-6.452379E-18	-1.859811E-18
6.497829E+03	-7.188181E-18	-2.071916E-18
6.507749E+03	-7.922777E-18	-2.283677E-18
6.517670E+03	-8.656666E-18	-2.495238E-18
6.527590E+03	-9.390025E-18	-2.706650E-18
6.537510E+03	-1.012307E-17	-2.917976E-18
6.547431E+03	-1.085612E-17	-3.129306E-18
6.557351E+03	-1.158927E-17	-3.340670E-18
6.567271E+03	-1.232235E-17	-3.552019E-18
6.577192E+03	-1.305551E-17	-3.763394E-18
6.587112E+03	-1.378843E-17	-3.974705E-18
6.597032E+03	-1.452143E-17	-4.186042E-18
6.606953E+03	-1.525386E-17	-4.397216E-18
6.616873E+03	-1.598547E-17	-4.608162E-18
6.626793E+03	-1.671631E-17	-4.818885E-18
6.636714E+03	-1.744613E-17	-5.029323E-18
6.646634E+03	-1.817441E-17	-5.239317E-18
6.656555E+03	-1.890088E-17	-5.448795E-18
6.666475E+03	-1.962565E-17	-5.657786E-18
6.676395E+03	-2.034817E-17	-5.866134E-18
6.686316E+03	-2.106863E-17	-6.073888E-18
6.696236E+03	-2.178611E-17	-6.280790E-18
6.706156E+03	-2.250124E-17	-6.487019E-18
6.716077E+03	-2.321313E-17	-6.692315E-18
6.725997E+03	-2.392252E-17	-6.896894E-18
6.735917E+03	-2.462851E-17	-7.100499E-18
6.745838E+03	-2.533152E-17	-7.303246E-18
6.755758E+03	-2.603155E-17	-7.505139E-18
6.765678E+03	-2.672815E-17	-7.706045E-18
6.775599E+03	-2.742182E-17	-7.906112E-18
6.785519E+03	-2.811212E-17	-8.105208E-18
6.795439E+03	-2.879959E-17	-8.303494E-18
6.805360E+03	-2.948321E-17	-8.500671E-18
6.815280E+03	-3.016407E-17	-8.697058E-18
6.825200E+03	-3.084164E-17	-8.892501E-18
6.835121E+03	-3.151591E-17	-9.086994E-18
6.845041E+03	-3.218622E-17	-9.280348E-18
6.854962E+03	-3.285371E-17	-9.472893E-18
6.864882E+03	-3.351640E-17	-9.664056E-18
6.874802E+03	-3.417601E-17	-9.854335E-18
6.884723E+03	-3.483106E-17	-1.004330E-17
6.894643E+03	-3.548127E-17	-1.023088E-17
6.904563E+03	-3.612702E-17	-1.041717E-17
6.914484E+03	-3.676725E-17	-1.060187E-17
6.924404E+03	-3.740154E-17	-1.078487E-17
6.934324E+03	-3.802941E-17	-1.096601E-17
6.944245E+03	-3.865033E-17	-1.114516E-17
6.954165E+03	-3.926369E-17	-1.132212E-17
6.964085E+03	-3.986809E-17	-1.149651E-17
6.974006E+03	-4.046439E-17	-1.166856E-17
6.983926E+03	-4.104947E-17	-1.183738E-17
6.993846E+03	-4.162493E-17	-1.200344E-17
7.003767E+03	-4.218751E-17	-1.216577E-17
7.013687E+03	-4.273795E-17	-1.232461E-17
7.023607E+03	-4.327454E-17	-1.247946E-17
7.033528E+03	-4.379632E-17	-1.263004E-17
7.043448E+03	-4.430323E-17	-1.277633E-17
7.053369E+03	-4.479254E-17	-1.291755E-17
7.063289E+03	-4.526417E-17	-1.305368E-17
7.073209E+03	-4.571623E-17	-1.318416E-17
7.083130E+03	-4.614869E-17	-1.330899E-17
7.093050E+03	-4.656065E-17	-1.342791E-17
7.102970E+03	-4.695027E-17	-1.354039E-17
7.112891E+03	-4.731765E-17	-1.364646E-17
7.122811E+03	-4.766009E-17	-1.374534E-17
7.132731E+03	-4.797878E-17	-1.383737E-17
7.142652E+03	-4.827212E-17	-1.392208E-17
7.152572E+03	-4.853854E-17	-1.399904E-17
7.162492E+03	-4.877855E-17	-1.406838E-17
7.172413E+03	-4.899179E-17	-1.413000E-17
7.182333E+03	-4.917703E-17	-1.418355E-17
7.192253E+03	-4.933411E-17	-1.422897E-17
7.202174E+03	-4.946304E-17	-1.426628E-17
7.212094E+03	-4.956397E-17	-1.429551E-17
7.222014E+03	-4.963718E-17	-1.431674E-17
7.231935E+03	-4.968104E-17	-1.432952E-17
7.241855E+03	-4.969821E-17	-1.433459E-17
7.251775E+03	-4.968839E-17	-1.433187E-17
7.261696E+03	-4.965143E-17	-1.432133E-17
7.271616E+03	-4.958941E-17	-1.430356E-17
7.281537E+03	-4.950145E-17	-1.427831E-17
7.291457E+03	-4.938886E-17	-1.424595E-17
7.301377E+03	-4.925311E-17	-1.420692E-17
7.311298E+03	-4.909474E-17	-1.416135E-17
7.321218E+03	-4.891645E-17	-1.411004E-17
7.331138E+03	-4.871692E-17	-1.405260E-17
7.341059E+03	-4.850005E-17	-1.399016E-17
7.350979E+03	-4.826567E-17	-1.392267E-17
7.360899E+03	-4.801673E-17	-1.385098E-17
7.370820E+03	-4.775413E-17	-1.377534E-17
7.380740E+03	-4.747978E-17	-1.369631E-17
7.390660E+03	-4.719655E-17	-1.361472E-17
7.400581E+03	-4.690520E-17	-1.353079E-17
7.410501E+03	-4.661048E-17	-1.344589E-17
7.420421E+03	-4.631194E-17	-1.335988E-17
7.430342E+03	-4.601300E-17	-1.327375E-17
7.440262E+03	-4.571398E-17	-1.318760E-17
7.450182E+03	-4.541898E-17	-1.310261E-17
7.460103E+03	-4.512792E-17	-1.301875E-17
7.470023E+03	-4.484157E-17	-1.293625E-17
7.479944E+03	-4.456146E-17	-1.285555E-17
7.489864E+03	-4.428796E-17	-1.277676E-17
7.499784E+03	-4.402317E-17	-1.270048E-17
7.509705E+03	-4.376513E-17	-1.262614E-17
7.519625E+03	-4.351457E-17	-1.255396E-17
7.529545E+03	-4.327202E-17	-1.248409E-17
7.539466E+03	-4.303596E-17	-1.241609E-17
7.549386E+03	-4.280655E-17	-1.235001E-17
7.559306E+03	-4.258195E-17	-1.228532E-17
7.569227E+03	-4.236296E-17	-1.222224E-17
7.579147E+03	-4.214651E-17	-1.215990E-17
