#wls	flux	fluxerr
1.587256E+03	8.475396E-18	9.596329E-20
1.626937E+03	9.068005E-18	1.024477E-19
1.666619E+03	9.555382E-18	1.077108E-19
1.706300E+03	9.913355E-18	1.114878E-19
1.745982E+03	1.011404E-17	1.134751E-19
1.785663E+03	1.011005E-17	1.131547E-19
1.825344E+03	9.852245E-18	1.099944E-19
1.865026E+03	9.304135E-18	1.036096E-19
1.904707E+03	8.457667E-18	9.393669E-20
1.944389E+03	7.365906E-18	8.159109E-20
1.984070E+03	6.153018E-18	6.796845E-20
2.023751E+03	5.004190E-18	5.512209E-20
2.063433E+03	4.105451E-18	4.509154E-20
2.103114E+03	3.583940E-18	3.924699E-20
2.142795E+03	3.500780E-18	3.821994E-20
2.182477E+03	3.895397E-18	4.239594E-20
2.222158E+03	4.826336E-18	5.236060E-20
2.261840E+03	6.362521E-18	6.880143E-20
2.301521E+03	8.553382E-18	9.218350E-20
2.341202E+03	1.140243E-17	1.224688E-19
2.380884E+03	1.486824E-17	1.591346E-19
2.420565E+03	1.888726E-17	2.014258E-19
2.460247E+03	2.339312E-17	2.485646E-19
2.499928E+03	2.833081E-17	2.999010E-19
2.539609E+03	3.365787E-17	3.549244E-19
2.579291E+03	3.934449E-17	4.132617E-19
2.618972E+03	4.537730E-17	4.747153E-19
2.658654E+03	5.174040E-17	5.390615E-19
2.698335E+03	5.842750E-17	6.061778E-19
2.738016E+03	6.543006E-17	6.759177E-19
2.777698E+03	7.272805E-17	7.480169E-19
2.817379E+03	8.031873E-17	8.223902E-19
2.857061E+03	8.818686E-17	8.988242E-19
2.896742E+03	9.633308E-17	9.772685E-19
2.936423E+03	1.047803E-16	1.057896E-18
2.976105E+03	1.135436E-16	1.140796E-18
2.986025E+03	1.157901E-16	1.161931E-18
2.995946E+03	1.180560E-16	1.183200E-18
3.005866E+03	1.203481E-16	1.204668E-18
3.015786E+03	1.226705E-16	1.226377E-18
3.025707E+03	1.250574E-16	1.248665E-18
3.035627E+03	1.275425E-16	1.271866E-18
3.045547E+03	1.301208E-16	1.295928E-18
3.055468E+03	1.327937E-16	1.320858E-18
3.065388E+03	1.355499E-16	1.346541E-18
3.075308E+03	1.383858E-16	1.372938E-18
3.085229E+03	1.412985E-16	1.400017E-18
3.095149E+03	1.442815E-16	1.427710E-18
3.105069E+03	1.473285E-16	1.455952E-18
3.114990E+03	1.504413E-16	1.484757E-18
3.124910E+03	1.536106E-16	1.514031E-18
3.134830E+03	1.568310E-16	1.543718E-18
3.144751E+03	1.601091E-16	1.573880E-18
3.154671E+03	1.634323E-16	1.604393E-18
3.164591E+03	1.668040E-16	1.635285E-18
3.174512E+03	1.702160E-16	1.666475E-18
3.184432E+03	1.736722E-16	1.697998E-18
3.194353E+03	1.771688E-16	1.729817E-18
3.204273E+03	1.807025E-16	1.761895E-18
3.214193E+03	1.842737E-16	1.794237E-18
3.224114E+03	1.878836E-16	1.826849E-18
3.234034E+03	1.915252E-16	1.859664E-18
3.243954E+03	1.951999E-16	1.892692E-18
3.253875E+03	1.989051E-16	1.925909E-18
3.263795E+03	2.026426E-16	1.959326E-18
3.273715E+03	2.064100E-16	1.992922E-18
3.283636E+03	2.102053E-16	2.026675E-18
3.293556E+03	2.140304E-16	2.060601E-18
3.303476E+03	2.178752E-16	2.094602E-18
3.313397E+03	2.217499E-16	2.128774E-18
3.323317E+03	2.256443E-16	2.163018E-18
3.333237E+03	2.295564E-16	2.197315E-18
3.343158E+03	2.334882E-16	2.231680E-18
3.353078E+03	2.374333E-16	2.266053E-18
3.362998E+03	2.413855E-16	2.300372E-18
3.372919E+03	2.453423E-16	2.334615E-18
3.382839E+03	2.492972E-16	2.368718E-18
3.392760E+03	2.532513E-16	2.402691E-18
3.402680E+03	2.571899E-16	2.436396E-18
3.412600E+03	2.611100E-16	2.469803E-18
3.422521E+03	2.650046E-16	2.502847E-18
3.432441E+03	2.688630E-16	2.535428E-18
3.442361E+03	2.726783E-16	2.567482E-18
3.452282E+03	2.764440E-16	2.598950E-18
3.462202E+03	2.801502E-16	2.629740E-18
3.472122E+03	2.837839E-16	2.659734E-18
3.482043E+03	2.873405E-16	2.688890E-18
3.491963E+03	2.908131E-16	2.717148E-18
3.501883E+03	2.941925E-16	2.744425E-18
3.511804E+03	2.974755E-16	2.770695E-18
3.521724E+03	3.006611E-16	2.795952E-18
3.531644E+03	3.037516E-16	2.820223E-18
3.541565E+03	3.067489E-16	2.843528E-18
3.551485E+03	3.096626E-16	2.865962E-18
3.561405E+03	3.125026E-16	2.887618E-18
3.571326E+03	3.152926E-16	2.908718E-18
3.581246E+03	3.180476E-16	2.929404E-18
3.591167E+03	3.207887E-16	2.949870E-18
3.601087E+03	3.235372E-16	2.970312E-18
3.611007E+03	3.263217E-16	2.990991E-18
3.620928E+03	3.291738E-16	3.012197E-18
3.630848E+03	3.321283E-16	3.034242E-18
3.640768E+03	3.352254E-16	3.057490E-18
3.650689E+03	3.385036E-16	3.082282E-18
3.660609E+03	3.420090E-16	3.109032E-18
3.670529E+03	3.457813E-16	3.138087E-18
3.680450E+03	3.498701E-16	3.169885E-18
3.690370E+03	3.543174E-16	3.204792E-18
3.700290E+03	3.591638E-16	3.243156E-18
3.710211E+03	3.644545E-16	3.285367E-18
3.720131E+03	3.702290E-16	3.331759E-18
3.730051E+03	3.765233E-16	3.382634E-18
3.739972E+03	3.833697E-16	3.438256E-18
3.749892E+03	3.908031E-16	3.498912E-18
3.759812E+03	3.988424E-16	3.564742E-18
3.769733E+03	4.075076E-16	3.635899E-18
3.779653E+03	4.168162E-16	3.712505E-18
3.789574E+03	4.267629E-16	3.794485E-18
3.799494E+03	4.373533E-16	3.881857E-18
3.809414E+03	4.485730E-16	3.974464E-18
3.819335E+03	4.603982E-16	4.072064E-18
3.829255E+03	4.728037E-16	4.174405E-18
3.839175E+03	4.857464E-16	4.281080E-18
3.849096E+03	4.991777E-16	4.391635E-18
3.859016E+03	5.130354E-16	4.505500E-18
3.868936E+03	5.272576E-16	4.622110E-18
3.878857E+03	5.417610E-16	4.740719E-18
3.888777E+03	5.564699E-16	4.860651E-18
3.898697E+03	5.712943E-16	4.981110E-18
3.908618E+03	5.861458E-16	5.101321E-18
3.918538E+03	6.009357E-16	5.220511E-18
3.928458E+03	6.155650E-16	5.337824E-18
3.938379E+03	6.299491E-16	5.452533E-18
3.948299E+03	6.440146E-16	5.564014E-18
3.958219E+03	6.576728E-16	5.671519E-18
3.968140E+03	6.708726E-16	5.774626E-18
3.978060E+03	6.835443E-16	5.872757E-18
3.987981E+03	6.956534E-16	5.965640E-18
3.997901E+03	7.071673E-16	6.053023E-18
4.007821E+03	7.180627E-16	6.134736E-18
4.017742E+03	7.283329E-16	6.210750E-18
4.027662E+03	7.379850E-16	6.281156E-18
4.037582E+03	7.470282E-16	6.346061E-18
4.047503E+03	7.554961E-16	6.405780E-18
4.057423E+03	7.634160E-16	6.460571E-18
4.067343E+03	7.708245E-16	6.510769E-18
4.077264E+03	7.777644E-16	6.556762E-18
4.087184E+03	7.842874E-16	6.599005E-18
4.097104E+03	7.904397E-16	6.637908E-18
4.107025E+03	7.962615E-16	6.673824E-18
4.116945E+03	8.018035E-16	6.707196E-18
4.126865E+03	8.071064E-16	6.738377E-18
4.136786E+03	8.121995E-16	6.767622E-18
4.146706E+03	8.171276E-16	6.795314E-18
4.156626E+03	8.219030E-16	6.821565E-18
4.166547E+03	8.265504E-16	6.846585E-18
4.176467E+03	8.310889E-16	6.870541E-18
4.186387E+03	8.355177E-16	6.893431E-18
4.196308E+03	8.398378E-16	6.915267E-18
4.206228E+03	8.440499E-16	6.936064E-18
4.216149E+03	8.481371E-16	6.955687E-18
4.226069E+03	8.521023E-16	6.974166E-18
4.235989E+03	8.559288E-16	6.991373E-18
4.245910E+03	8.595956E-16	7.007143E-18
4.255830E+03	8.631105E-16	7.021547E-18
4.265750E+03	8.664574E-16	7.034463E-18
4.275671E+03	8.696368E-16	7.045905E-18
4.285591E+03	8.726677E-16	7.056034E-18
4.295511E+03	8.755678E-16	7.065002E-18
4.305432E+03	8.783685E-16	7.073068E-18
4.315352E+03	8.811188E-16	7.080631E-18
4.325272E+03	8.838606E-16	7.088032E-18
4.335193E+03	8.866607E-16	7.095805E-18
4.345113E+03	8.895848E-16	7.104474E-18
4.355033E+03	8.927091E-16	7.114640E-18
4.364954E+03	8.960786E-16	7.126651E-18
4.374874E+03	8.997599E-16	7.141025E-18
4.384794E+03	9.038012E-16	7.158129E-18
4.394715E+03	9.082617E-16	7.178411E-18
4.404635E+03	9.131900E-16	7.202234E-18
4.414556E+03	9.186399E-16	7.229998E-18
4.424476E+03	9.246614E-16	7.262069E-18
4.434396E+03	9.313015E-16	7.298786E-18
4.444317E+03	9.385825E-16	7.340294E-18
4.454237E+03	9.465303E-16	7.386761E-18
4.464157E+03	9.551567E-16	7.438246E-18
4.474078E+03	9.644426E-16	7.494568E-18
4.483998E+03	9.743784E-16	7.555618E-18
4.493918E+03	9.849178E-16	7.621005E-18
4.503839E+03	9.960230E-16	7.690408E-18
4.513759E+03	1.007621E-15	7.763235E-18
4.523679E+03	1.019651E-15	7.838992E-18
4.533600E+03	1.032026E-15	7.916996E-18
4.543520E+03	1.044653E-15	7.996512E-18
4.553440E+03	1.057452E-15	8.076912E-18
4.563361E+03	1.070321E-15	8.157416E-18
4.573281E+03	1.083164E-15	8.237299E-18
4.583201E+03	1.095894E-15	8.315882E-18
4.593122E+03	1.108401E-15	8.392357E-18
4.603042E+03	1.120624E-15	8.466256E-18
4.612963E+03	1.132480E-15	8.536982E-18
4.622883E+03	1.143905E-15	8.604063E-18
4.632803E+03	1.154836E-15	8.667048E-18
4.642724E+03	1.165220E-15	8.725574E-18
4.652644E+03	1.175017E-15	8.779363E-18
4.662564E+03	1.184211E-15	8.828322E-18
4.672485E+03	1.192774E-15	8.872280E-18
4.682405E+03	1.200715E-15	8.911325E-18
4.692325E+03	1.208019E-15	8.945390E-18
4.702246E+03	1.214706E-15	8.974641E-18
4.712166E+03	1.220801E-15	8.999312E-18
4.722086E+03	1.226332E-15	9.019621E-18
4.732007E+03	1.231339E-15	9.035898E-18
4.741927E+03	1.235862E-15	9.048464E-18
4.751847E+03	1.239956E-15	9.057740E-18
4.761768E+03	1.243665E-15	9.064071E-18
4.771688E+03	1.247060E-15	9.067996E-18
4.781608E+03	1.250181E-15	9.069821E-18
4.791529E+03	1.253112E-15	9.070171E-18
4.801449E+03	1.255903E-15	9.069405E-18
4.811370E+03	1.258616E-15	9.067991E-18
4.821290E+03	1.261310E-15	9.066346E-18
4.831210E+03	1.264041E-15	9.064889E-18
4.841131E+03	1.266868E-15	9.064026E-18
4.851051E+03	1.269841E-15	9.064122E-18
4.860971E+03	1.273026E-15	9.065626E-18
4.870892E+03	1.276459E-15	9.068801E-18
4.880812E+03	1.280201E-15	9.074056E-18
4.890732E+03	1.284282E-15	9.081596E-18
4.900653E+03	1.288771E-15	9.091885E-18
4.910573E+03	1.293697E-15	9.105119E-18
4.920493E+03	1.299088E-15	9.121461E-18
4.930414E+03	1.305018E-15	9.141415E-18
4.940334E+03	1.311486E-15	9.164946E-18
4.950254E+03	1.318564E-15	9.192538E-18
4.960175E+03	1.326262E-15	9.224224E-18
4.970095E+03	1.334622E-15	9.260269E-18
4.980015E+03	1.343663E-15	9.300769E-18
4.989936E+03	1.353435E-15	9.346050E-18
4.999856E+03	1.363942E-15	9.396091E-18
5.009777E+03	1.375232E-15	9.451201E-18
5.019697E+03	1.387299E-15	9.511289E-18
5.029617E+03	1.400187E-15	9.576636E-18
5.039538E+03	1.413900E-15	9.647215E-18
5.049458E+03	1.428432E-15	9.722964E-18
5.059378E+03	1.443822E-15	9.804094E-18
5.069299E+03	1.460055E-15	9.890479E-18
5.079219E+03	1.477132E-15	9.982081E-18
5.089139E+03	1.495032E-15	1.007872E-17
5.099060E+03	1.513773E-15	1.018050E-17
5.108980E+03	1.533312E-15	1.028706E-17
5.118900E+03	1.553641E-15	1.039834E-17
5.128821E+03	1.574734E-15	1.051413E-17
5.138741E+03	1.596546E-15	1.063409E-17
5.148661E+03	1.619057E-15	1.075806E-17
5.158582E+03	1.642212E-15	1.088565E-17
5.168502E+03	1.665965E-15	1.101654E-17
5.178422E+03	1.690270E-15	1.115039E-17
5.188343E+03	1.715094E-15	1.128697E-17
5.198263E+03	1.740351E-15	1.142569E-17
5.208183E+03	1.766004E-15	1.156632E-17
5.218104E+03	1.791983E-15	1.170836E-17
5.228024E+03	1.818250E-15	1.185157E-17
5.237945E+03	1.844753E-15	1.199561E-17
5.247865E+03	1.871406E-15	1.213992E-17
5.257785E+03	1.898198E-15	1.228442E-17
5.267706E+03	1.925045E-15	1.242859E-17
5.277626E+03	1.951927E-15	1.257229E-17
5.287546E+03	1.978785E-15	1.271516E-17
5.297467E+03	2.005588E-15	1.285701E-17
5.307387E+03	2.032324E-15	1.299778E-17
5.317307E+03	2.058928E-15	1.313706E-17
5.327228E+03	2.085396E-15	1.327485E-17
5.337148E+03	2.111683E-15	1.341088E-17
5.347068E+03	2.137769E-15	1.354504E-17
5.356989E+03	2.163633E-15	1.367723E-17
5.366909E+03	2.189231E-15	1.380719E-17
5.376829E+03	2.214536E-15	1.393477E-17
5.386750E+03	2.239526E-15	1.405986E-17
5.396670E+03	2.264154E-15	1.418220E-17
5.406590E+03	2.288397E-15	1.430166E-17
5.416511E+03	2.312235E-15	1.441816E-17
5.426431E+03	2.335631E-15	1.453149E-17
5.436352E+03	2.358573E-15	1.464162E-17
5.446272E+03	2.381050E-15	1.474851E-17
5.456192E+03	2.402979E-15	1.485167E-17
5.466113E+03	2.424231E-15	1.495036E-17
5.476033E+03	2.444702E-15	1.504397E-17
5.485953E+03	2.464258E-15	1.513172E-17
5.495874E+03	2.482749E-15	1.521274E-17
5.505794E+03	2.500098E-15	1.528658E-17
5.515714E+03	2.516199E-15	1.535267E-17
5.525635E+03	2.530995E-15	1.541070E-17
5.535555E+03	2.544475E-15	1.546066E-17
5.545475E+03	2.556603E-15	1.550238E-17
5.555396E+03	2.567359E-15	1.553579E-17
5.565316E+03	2.576825E-15	1.556144E-17
5.575236E+03	2.585019E-15	1.557948E-17
5.585157E+03	2.591981E-15	1.559021E-17
5.595077E+03	2.597839E-15	1.559443E-17
5.604997E+03	2.602631E-15	1.559242E-17
5.614918E+03	2.606485E-15	1.558497E-17
5.624838E+03	2.609507E-15	1.557275E-17
5.634759E+03	2.611805E-15	1.555643E-17
5.644679E+03	2.613466E-15	1.553654E-17
5.654599E+03	2.614653E-15	1.551409E-17
5.664520E+03	2.615418E-15	1.548939E-17
5.674440E+03	2.615887E-15	1.546320E-17
5.684360E+03	2.616121E-15	1.543589E-17
5.694281E+03	2.616259E-15	1.540828E-17
5.704201E+03	2.616343E-15	1.538062E-17
5.714121E+03	2.616404E-15	1.535308E-17
5.724042E+03	2.616540E-15	1.532626E-17
5.733962E+03	2.616757E-15	1.530018E-17
5.743882E+03	2.617073E-15	1.527493E-17
5.753803E+03	2.617497E-15	1.525058E-17
5.763723E+03	2.618053E-15	1.522724E-17
5.773643E+03	2.618692E-15	1.520465E-17
5.783564E+03	2.619419E-15	1.518281E-17
5.793484E+03	2.620200E-15	1.516154E-17
5.803404E+03	2.620991E-15	1.514058E-17
5.813325E+03	2.621713E-15	1.511946E-17
5.823245E+03	2.622369E-15	1.509823E-17
5.833166E+03	2.622910E-15	1.507657E-17
5.843086E+03	2.623242E-15	1.505398E-17
5.853006E+03	2.623339E-15	1.503030E-17
5.862927E+03	2.623146E-15	1.500523E-17
5.872847E+03	2.622640E-15	1.497864E-17
5.882767E+03	2.621740E-15	1.495009E-17
5.892688E+03	2.620438E-15	1.491952E-17
5.902608E+03	2.618725E-15	1.488693E-17
5.912528E+03	2.616545E-15	1.485198E-17
5.922449E+03	2.613908E-15	1.481475E-17
5.932369E+03	2.610837E-15	1.477539E-17
5.942289E+03	2.607297E-15	1.473371E-17
5.952210E+03	2.603359E-15	1.469012E-17
5.962130E+03	2.599046E-15	1.464477E-17
5.972050E+03	2.594383E-15	1.459779E-17
5.981971E+03	2.589439E-15	1.454961E-17
5.991891E+03	2.584294E-15	1.450066E-17
6.001811E+03	2.578971E-15	1.445108E-17
6.011732E+03	2.573628E-15	1.440176E-17
6.021652E+03	2.568303E-15	1.435292E-17
6.031573E+03	2.563103E-15	1.430516E-17
6.041493E+03	2.558175E-15	1.425929E-17
6.051413E+03	2.553536E-15	1.421540E-17
6.061334E+03	2.549372E-15	1.417453E-17
6.071254E+03	2.545771E-15	1.413715E-17
6.081174E+03	2.542855E-15	1.410395E-17
6.091095E+03	2.540711E-15	1.407537E-17
6.101015E+03	2.539456E-15	1.405206E-17
6.110935E+03	2.539174E-15	1.403448E-17
6.120856E+03	2.539975E-15	1.402321E-17
6.130776E+03	2.541891E-15	1.401841E-17
6.140696E+03	2.544951E-15	1.402024E-17
6.150617E+03	2.549274E-15	1.402933E-17
6.160537E+03	2.554799E-15	1.404534E-17
6.170457E+03	2.561621E-15	1.406877E-17
6.180378E+03	2.569689E-15	1.409932E-17
6.190298E+03	2.579038E-15	1.413719E-17
6.200218E+03	2.589621E-15	1.418210E-17
6.210139E+03	2.601414E-15	1.423390E-17
6.220059E+03	2.614302E-15	1.429198E-17
6.229979E+03	2.628303E-15	1.435642E-17
6.239900E+03	2.643277E-15	1.442646E-17
6.249820E+03	2.659144E-15	1.450165E-17
6.259741E+03	2.675781E-15	1.458133E-17
6.269661E+03	2.693086E-15	1.466496E-17
6.279581E+03	2.710959E-15	1.475199E-17
6.289502E+03	2.729216E-15	1.484144E-17
6.299422E+03	2.747787E-15	1.493293E-17
6.309342E+03	2.766454E-15	1.502529E-17
6.319263E+03	2.785155E-15	1.511821E-17
6.329183E+03	2.803758E-15	1.521098E-17
6.339103E+03	2.822098E-15	1.530273E-17
6.349024E+03	2.840143E-15	1.539330E-17
6.358944E+03	2.857755E-15	1.548197E-17
6.368864E+03	2.875052E-15	1.556939E-17
6.378785E+03	2.891918E-15	1.565497E-17
6.388705E+03	2.908462E-15	1.573929E-17
6.398625E+03	2.924585E-15	1.582185E-17
6.408546E+03	2.940368E-15	1.590308E-17
6.418466E+03	2.955815E-15	1.598300E-17
6.428386E+03	2.970935E-15	1.606165E-17
6.438307E+03	2.985747E-15	1.613914E-17
6.448227E+03	3.000275E-15	1.621558E-17
6.458148E+03	3.014505E-15	1.629092E-17
6.468068E+03	3.028563E-15	1.636581E-17
6.477988E+03	3.042360E-15	1.643977E-17
6.487909E+03	3.055911E-15	1.651289E-17
6.497829E+03	3.069110E-15	1.658457E-17
6.507749E+03	3.081857E-15	1.665428E-17
6.517670E+03	3.094093E-15	1.672169E-17
6.527590E+03	3.105621E-15	1.678573E-17
6.537510E+03	3.116345E-15	1.684587E-17
6.547431E+03	3.126223E-15	1.690187E-17
6.557351E+03	3.135171E-15	1.695327E-17
6.567271E+03	3.143013E-15	1.699911E-17
6.577192E+03	3.149771E-15	1.703950E-17
6.587112E+03	3.155280E-15	1.707352E-17
6.597032E+03	3.159585E-15	1.710141E-17
6.606953E+03	3.162486E-15	1.712208E-17
6.616873E+03	3.164109E-15	1.713618E-17
6.626793E+03	3.164338E-15	1.714307E-17
6.636714E+03	3.163224E-15	1.714302E-17
6.646634E+03	3.160688E-15	1.713556E-17
6.656555E+03	3.156918E-15	1.712172E-17
6.666475E+03	3.151818E-15	1.710094E-17
6.676395E+03	3.145557E-15	1.707412E-17
6.686316E+03	3.138221E-15	1.704172E-17
6.696236E+03	3.129799E-15	1.700365E-17
6.706156E+03	3.120501E-15	1.696102E-17
6.716077E+03	3.110387E-15	1.691417E-17
6.725997E+03	3.099628E-15	1.686399E-17
6.735917E+03	3.088240E-15	1.681056E-17
6.745838E+03	3.076452E-15	1.675511E-17
6.755758E+03	3.064390E-15	1.669831E-17
6.765678E+03	3.052116E-15	1.664050E-17
6.775599E+03	3.039751E-15	1.658230E-17
6.785519E+03	3.027404E-15	1.652433E-17
6.795439E+03	3.015285E-15	1.646769E-17
6.805360E+03	3.003330E-15	1.641206E-17
6.815280E+03	2.991735E-15	1.635848E-17
6.825200E+03	2.980578E-15	1.630739E-17
6.835121E+03	2.969873E-15	1.625885E-17
6.845041E+03	2.959736E-15	1.621350E-17
6.854962E+03	2.950213E-15	1.617160E-17
6.864882E+03	2.941293E-15	1.613307E-17
6.874802E+03	2.933058E-15	1.609837E-17
6.884723E+03	2.925533E-15	1.606765E-17
6.894643E+03	2.918677E-15	1.604067E-17
6.904563E+03	2.912600E-15	1.601804E-17
6.914484E+03	2.907200E-15	1.599922E-17
6.924404E+03	2.902572E-15	1.598472E-17
6.934324E+03	2.898601E-15	1.597392E-17
6.944245E+03	2.895374E-15	1.596730E-17
6.954165E+03	2.892763E-15	1.596416E-17
6.964085E+03	2.890849E-15	1.596495E-17
6.974006E+03	2.889548E-15	1.596922E-17
6.983926E+03	2.888831E-15	1.597681E-17
6.993846E+03	2.888715E-15	1.598782E-17
7.003767E+03	2.889111E-15	1.600175E-17
7.013687E+03	2.889974E-15	1.601838E-17
7.023607E+03	2.891322E-15	1.603780E-17
7.033528E+03	2.893106E-15	1.605975E-17
7.043448E+03	2.895222E-15	1.608365E-17
7.053369E+03	2.897674E-15	1.610954E-17
7.063289E+03	2.900414E-15	1.613714E-17
7.073209E+03	2.903378E-15	1.616611E-17
7.083130E+03	2.906450E-15	1.619581E-17
7.093050E+03	2.909683E-15	1.622653E-17
7.102970E+03	2.912949E-15	1.625756E-17
7.112891E+03	2.916179E-15	1.628853E-17
7.122811E+03	2.919354E-15	1.631932E-17
7.132731E+03	2.922344E-15	1.634920E-17
7.142652E+03	2.925065E-15	1.637772E-17
7.152572E+03	2.927561E-15	1.640511E-17
7.162492E+03	2.929566E-15	1.642988E-17
7.172413E+03	2.931183E-15	1.645262E-17
7.182333E+03	2.932269E-15	1.647251E-17
7.192253E+03	2.932689E-15	1.648878E-17
7.202174E+03	2.932425E-15	1.650134E-17
7.212094E+03	2.931471E-15	1.651015E-17
7.222014E+03	2.929707E-15	1.651451E-17
7.231935E+03	2.927010E-15	1.651373E-17
7.241855E+03	2.923459E-15	1.650825E-17
7.251775E+03	2.918957E-15	1.649751E-17
7.261696E+03	2.913482E-15	1.648138E-17
7.271616E+03	2.907085E-15	1.646012E-17
7.281537E+03	2.899580E-15	1.643270E-17
7.291457E+03	2.891180E-15	1.640028E-17
7.301377E+03	2.881794E-15	1.636235E-17
7.311298E+03	2.871475E-15	1.631920E-17
7.321218E+03	2.860293E-15	1.627122E-17
7.331138E+03	2.848272E-15	1.621853E-17
7.341059E+03	2.835518E-15	1.616173E-17
7.350979E+03	2.822151E-15	1.610149E-17
7.360899E+03	2.808242E-15	1.603822E-17
7.370820E+03	2.793941E-15	1.597276E-17
7.380740E+03	2.779345E-15	1.590568E-17
7.390660E+03	2.764815E-15	1.583903E-17
7.400581E+03	2.750403E-15	1.577311E-17
7.410501E+03	2.736417E-15	1.570970E-17
7.420421E+03	2.723042E-15	1.564989E-17
7.430342E+03	2.710529E-15	1.559512E-17
7.440262E+03	2.698995E-15	1.554610E-17
7.450182E+03	2.688682E-15	1.550424E-17
7.460103E+03	2.679826E-15	1.547094E-17
7.470023E+03	2.672460E-15	1.544641E-17
7.479944E+03	2.666927E-15	1.543268E-17
7.489864E+03	2.663236E-15	1.542985E-17
7.499784E+03	2.661513E-15	1.543869E-17
7.509705E+03	2.661991E-15	1.546062E-17
7.519625E+03	2.664634E-15	1.549546E-17
7.529545E+03	2.669512E-15	1.554370E-17
7.539466E+03	2.676808E-15	1.560645E-17
7.549386E+03	2.686421E-15	1.568321E-17
7.559306E+03	2.698362E-15	1.577409E-17
7.569227E+03	2.712683E-15	1.587946E-17
7.579147E+03	2.729346E-15	1.599920E-17
7.589067E+03	2.748223E-15	1.613261E-17
7.598988E+03	2.769293E-15	1.627964E-17
7.608908E+03	2.792444E-15	1.643971E-17
7.618828E+03	2.817391E-15	1.661122E-17
7.628749E+03	2.844176E-15	1.679449E-17
7.638669E+03	2.872384E-15	1.698712E-17
7.648589E+03	2.902002E-15	1.718913E-17
7.658510E+03	2.932551E-15	1.739771E-17
7.668430E+03	2.963964E-15	1.761253E-17
7.678351E+03	2.995772E-15	1.783086E-17
7.688271E+03	3.027624E-15	1.805063E-17
7.698191E+03	3.059302E-15	1.827059E-17
