#wls	flux	fluxerr
1.587256E+03	3.910926E-18	1.471507E-19
1.626937E+03	4.146329E-18	1.559052E-19
1.666619E+03	4.326656E-18	1.625756E-19
1.706300E+03	4.443398E-18	1.668461E-19
1.745982E+03	4.485333E-18	1.683002E-19
1.785663E+03	4.435122E-18	1.662938E-19
1.825344E+03	4.272691E-18	1.600823E-19
1.865026E+03	3.987889E-18	1.492957E-19
1.904707E+03	3.582482E-18	1.340113E-19
1.944389E+03	3.082352E-18	1.152081E-19
1.984070E+03	2.543932E-18	9.500356E-20
2.023751E+03	2.043874E-18	7.626266E-20
2.063433E+03	1.656631E-18	6.175855E-20
2.103114E+03	1.428673E-18	5.321168E-20
2.142795E+03	1.378477E-18	5.129388E-20
2.182477E+03	1.515269E-18	5.632961E-20
2.222158E+03	1.853243E-18	6.882551E-20
2.261840E+03	2.410375E-18	8.942521E-20
2.301521E+03	3.193250E-18	1.183463E-19
2.341202E+03	4.191163E-18	1.551640E-19
2.380884E+03	5.375956E-18	1.988083E-19
2.420565E+03	6.713091E-18	2.479769E-19
2.460247E+03	8.169247E-18	3.014171E-19
2.499928E+03	9.717046E-18	3.580999E-19
2.539609E+03	1.133640E-17	4.172688E-19
2.579291E+03	1.301223E-17	4.783541E-19
2.618972E+03	1.473588E-17	5.410248E-19
2.658654E+03	1.650257E-17	6.050925E-19
2.698335E+03	1.831449E-17	6.706250E-19
2.738016E+03	2.016988E-17	7.375447E-19
2.777698E+03	2.207478E-17	8.060581E-19
2.817379E+03	2.402914E-17	8.761491E-19
2.857061E+03	2.603259E-17	9.477884E-19
2.896742E+03	2.808136E-17	1.020823E-18
2.936423E+03	3.017350E-17	1.095167E-18
2.976105E+03	3.230942E-17	1.170818E-18
2.986025E+03	3.285230E-17	1.190009E-18
2.995946E+03	3.339657E-17	1.209230E-18
3.005866E+03	3.394537E-17	1.228597E-18
3.015786E+03	3.449788E-17	1.248079E-18
3.025707E+03	3.506602E-17	1.268106E-18
3.035627E+03	3.565933E-17	1.289024E-18
3.045547E+03	3.627212E-17	1.310624E-18
3.055468E+03	3.690698E-17	1.333000E-18
3.065388E+03	3.756187E-17	1.356076E-18
3.075308E+03	3.823138E-17	1.379657E-18
3.085229E+03	3.892054E-17	1.403923E-18
3.095149E+03	3.962067E-17	1.428559E-18
3.105069E+03	4.033721E-17	1.453762E-18
3.114990E+03	4.106145E-17	1.479216E-18
3.124910E+03	4.179913E-17	1.505127E-18
3.134830E+03	4.254522E-17	1.531315E-18
3.144751E+03	4.329851E-17	1.557734E-18
3.154671E+03	4.406143E-17	1.584471E-18
3.164591E+03	4.482911E-17	1.611351E-18
3.174512E+03	4.560432E-17	1.638472E-18
3.184432E+03	4.638219E-17	1.665660E-18
3.194353E+03	4.716954E-17	1.693159E-18
3.204273E+03	4.795779E-17	1.720659E-18
3.214193E+03	4.874997E-17	1.748271E-18
3.224114E+03	4.954933E-17	1.776109E-18
3.234034E+03	5.035125E-17	1.804008E-18
3.243954E+03	5.115512E-17	1.831945E-18
3.253875E+03	5.196830E-17	1.860183E-18
3.263795E+03	5.278230E-17	1.888419E-18
3.273715E+03	5.360058E-17	1.916775E-18
3.283636E+03	5.442269E-17	1.945235E-18
3.293556E+03	5.525229E-17	1.973929E-18
3.303476E+03	5.608900E-17	2.002844E-18
3.313397E+03	5.692822E-17	2.031814E-18
3.323317E+03	5.777793E-17	2.061123E-18
3.333237E+03	5.863781E-17	2.090760E-18
3.343158E+03	5.950315E-17	2.120556E-18
3.353078E+03	6.037778E-17	2.150646E-18
3.362998E+03	6.126564E-17	2.181171E-18
3.372919E+03	6.216619E-17	2.212109E-18
3.382839E+03	6.307463E-17	2.243291E-18
3.392760E+03	6.400349E-17	2.275159E-18
3.402680E+03	6.494345E-17	2.307381E-18
3.412600E+03	6.590267E-17	2.340247E-18
3.422521E+03	6.688040E-17	2.373729E-18
3.432441E+03	6.788026E-17	2.407953E-18
3.442361E+03	6.889716E-17	2.442738E-18
3.452282E+03	6.993888E-17	2.478358E-18
3.462202E+03	7.100441E-17	2.514775E-18
3.472122E+03	7.209280E-17	2.551955E-18
3.482043E+03	7.320724E-17	2.590008E-18
3.491963E+03	7.435086E-17	2.629044E-18
3.501883E+03	7.552240E-17	2.669016E-18
3.511804E+03	7.672043E-17	2.709870E-18
3.521724E+03	7.794796E-17	2.751713E-18
3.531644E+03	7.919921E-17	2.794338E-18
3.541565E+03	8.048144E-17	2.837999E-18
3.551485E+03	8.178463E-17	2.882340E-18
3.561405E+03	8.310770E-17	2.927322E-18
3.571326E+03	8.445411E-17	2.973066E-18
3.581246E+03	8.582327E-17	3.019548E-18
3.591167E+03	8.720650E-17	3.066463E-18
3.601087E+03	8.861252E-17	3.114114E-18
3.611007E+03	9.003323E-17	3.162215E-18
3.620928E+03	9.147352E-17	3.210938E-18
3.630848E+03	9.293000E-17	3.260162E-18
3.640768E+03	9.440796E-17	3.310069E-18
3.650689E+03	9.590013E-17	3.360405E-18
3.660609E+03	9.741206E-17	3.411362E-18
3.670529E+03	9.894512E-17	3.462986E-18
3.680450E+03	1.005009E-16	3.515331E-18
3.690370E+03	1.020726E-16	3.568159E-18
3.700290E+03	1.036703E-16	3.621815E-18
3.710211E+03	1.052874E-16	3.676076E-18
3.720131E+03	1.069258E-16	3.730998E-18
3.730051E+03	1.085913E-16	3.786784E-18
3.739972E+03	1.102775E-16	3.843213E-18
3.749892E+03	1.119904E-16	3.900484E-18
3.759812E+03	1.137276E-16	3.958519E-18
3.769733E+03	1.154910E-16	4.017376E-18
3.779653E+03	1.172781E-16	4.076967E-18
3.789574E+03	1.190944E-16	4.137487E-18
3.799494E+03	1.209335E-16	4.198703E-18
3.809414E+03	1.228005E-16	4.260795E-18
3.819335E+03	1.246963E-16	4.323791E-18
3.829255E+03	1.266137E-16	4.387437E-18
3.839175E+03	1.285566E-16	4.451867E-18
3.849096E+03	1.305210E-16	4.516939E-18
3.859016E+03	1.325020E-16	4.582485E-18
3.868936E+03	1.345023E-16	4.648594E-18
3.878857E+03	1.365165E-16	4.715081E-18
3.888777E+03	1.385427E-16	4.781874E-18
3.898697E+03	1.405751E-16	4.848771E-18
3.908618E+03	1.426114E-16	4.915698E-18
3.918538E+03	1.446459E-16	4.982452E-18
3.928458E+03	1.466803E-16	5.049094E-18
3.938379E+03	1.487054E-16	5.115305E-18
3.948299E+03	1.507199E-16	5.181040E-18
3.958219E+03	1.527264E-16	5.246391E-18
3.968140E+03	1.547134E-16	5.310962E-18
3.978060E+03	1.566885E-16	5.375011E-18
3.987981E+03	1.586485E-16	5.438436E-18
3.997901E+03	1.605916E-16	5.501167E-18
4.007821E+03	1.625162E-16	5.563157E-18
4.017742E+03	1.644327E-16	5.624763E-18
4.027662E+03	1.663345E-16	5.685754E-18
4.037582E+03	1.682302E-16	5.746425E-18
4.047503E+03	1.701257E-16	5.806980E-18
4.057423E+03	1.720208E-16	5.867410E-18
4.067343E+03	1.739304E-16	5.928225E-18
4.077264E+03	1.758525E-16	5.989351E-18
4.087184E+03	1.778037E-16	6.051353E-18
4.097104E+03	1.797900E-16	6.114434E-18
4.107025E+03	1.818184E-16	6.178827E-18
4.116945E+03	1.839028E-16	6.244999E-18
4.126865E+03	1.860503E-16	6.313189E-18
4.136786E+03	1.882676E-16	6.383619E-18
4.146706E+03	1.905723E-16	6.456876E-18
4.156626E+03	1.929670E-16	6.533041E-18
4.166547E+03	1.954611E-16	6.612426E-18
4.176467E+03	1.980668E-16	6.695437E-18
4.186387E+03	2.007923E-16	6.782337E-18
4.196308E+03	2.036411E-16	6.873238E-18
4.206228E+03	2.066233E-16	6.968465E-18
4.216149E+03	2.097405E-16	7.068067E-18
4.226069E+03	2.130010E-16	7.172306E-18
4.235989E+03	2.164120E-16	7.281414E-18
4.245910E+03	2.199686E-16	7.395216E-18
4.255830E+03	2.236837E-16	7.514131E-18
4.265750E+03	2.275508E-16	7.637924E-18
4.275671E+03	2.315773E-16	7.766834E-18
4.285591E+03	2.357584E-16	7.900685E-18
4.295511E+03	2.401004E-16	8.039672E-18
4.305432E+03	2.445968E-16	8.183565E-18
4.315352E+03	2.492527E-16	8.332522E-18
4.325272E+03	2.540647E-16	8.486414E-18
4.335193E+03	2.590298E-16	8.645126E-18
4.345113E+03	2.641531E-16	8.808813E-18
4.355033E+03	2.694286E-16	8.977259E-18
4.364954E+03	2.748596E-16	9.150566E-18
4.374874E+03	2.804513E-16	9.328890E-18
4.384794E+03	2.862054E-16	9.512269E-18
4.394715E+03	2.921233E-16	9.700738E-18
4.404635E+03	2.982102E-16	9.894452E-18
4.414556E+03	3.044608E-16	1.009322E-17
4.424476E+03	3.108766E-16	1.029708E-17
4.434396E+03	3.174465E-16	1.050564E-17
4.444317E+03	3.241610E-16	1.071858E-17
4.454237E+03	3.310063E-16	1.093542E-17
4.464157E+03	3.379546E-16	1.115524E-17
4.474078E+03	3.449875E-16	1.137742E-17
4.483998E+03	3.520723E-16	1.160087E-17
4.493918E+03	3.591710E-16	1.182433E-17
4.503839E+03	3.662459E-16	1.204655E-17
4.513759E+03	3.732497E-16	1.226600E-17
4.523679E+03	3.801316E-16	1.248100E-17
4.533600E+03	3.868481E-16	1.269013E-17
4.543520E+03	3.933392E-16	1.289144E-17
4.553440E+03	3.995550E-16	1.308331E-17
4.563361E+03	4.054478E-16	1.326421E-17
4.573281E+03	4.109630E-16	1.343238E-17
4.583201E+03	4.160722E-16	1.358693E-17
4.593122E+03	4.207332E-16	1.372651E-17
4.603042E+03	4.249229E-16	1.385040E-17
4.612963E+03	4.286274E-16	1.395820E-17
4.622883E+03	4.318432E-16	1.404984E-17
4.632803E+03	4.345713E-16	1.412539E-17
4.642724E+03	4.368387E-16	1.418578E-17
4.652644E+03	4.386542E-16	1.423132E-17
4.662564E+03	4.400665E-16	1.426365E-17
4.672485E+03	4.411034E-16	1.428369E-17
4.682405E+03	4.418087E-16	1.429290E-17
4.692325E+03	4.422345E-16	1.429300E-17
4.702246E+03	4.424244E-16	1.428541E-17
4.712166E+03	4.424337E-16	1.427194E-17
4.722086E+03	4.423063E-16	1.425403E-17
4.732007E+03	4.420850E-16	1.423306E-17
4.741927E+03	4.418207E-16	1.421069E-17
4.751847E+03	4.415448E-16	1.418792E-17
4.761768E+03	4.413005E-16	1.416614E-17
4.771688E+03	4.411155E-16	1.414624E-17
4.781608E+03	4.410273E-16	1.412942E-17
4.791529E+03	4.410576E-16	1.411636E-17
4.801449E+03	4.412174E-16	1.410740E-17
4.811370E+03	4.415225E-16	1.410303E-17
4.821290E+03	4.419847E-16	1.410362E-17
4.831210E+03	4.426011E-16	1.410906E-17
4.841131E+03	4.433764E-16	1.411948E-17
4.851051E+03	4.443070E-16	1.413475E-17
4.860971E+03	4.453821E-16	1.415453E-17
4.870892E+03	4.465991E-16	1.417870E-17
4.880812E+03	4.479481E-16	1.420694E-17
4.890732E+03	4.494182E-16	1.423890E-17
4.900653E+03	4.509924E-16	1.427402E-17
4.910573E+03	4.526694E-16	1.431225E-17
4.920493E+03	4.544345E-16	1.435313E-17
4.930414E+03	4.562823E-16	1.439646E-17
4.940334E+03	4.582127E-16	1.444223E-17
4.950254E+03	4.602324E-16	1.449066E-17
4.960175E+03	4.623609E-16	1.454234E-17
4.970095E+03	4.646163E-16	1.459784E-17
4.980015E+03	4.670340E-16	1.465825E-17
4.989936E+03	4.696464E-16	1.472456E-17
4.999856E+03	4.725016E-16	1.479828E-17
5.009777E+03	4.756460E-16	1.488082E-17
5.019697E+03	4.791222E-16	1.497348E-17
5.029617E+03	4.829882E-16	1.507805E-17
5.039538E+03	4.872850E-16	1.519577E-17
5.049458E+03	4.920500E-16	1.532775E-17
5.059378E+03	4.973375E-16	1.547563E-17
5.069299E+03	5.031654E-16	1.563993E-17
5.079219E+03	5.095726E-16	1.582178E-17
5.089139E+03	5.165818E-16	1.602184E-17
5.099060E+03	5.242107E-16	1.624060E-17
5.108980E+03	5.324666E-16	1.647821E-17
5.118900E+03	5.413617E-16	1.673499E-17
5.128821E+03	5.508977E-16	1.701091E-17
5.138741E+03	5.610699E-16	1.730579E-17
5.148661E+03	5.718670E-16	1.761919E-17
5.158582E+03	5.832699E-16	1.795046E-17
5.168502E+03	5.952570E-16	1.829889E-17
5.178422E+03	6.077799E-16	1.866291E-17
5.188343E+03	6.208054E-16	1.904146E-17
5.198263E+03	6.342790E-16	1.943281E-17
5.208183E+03	6.481294E-16	1.983474E-17
5.218104E+03	6.622828E-16	2.024495E-17
5.228024E+03	6.766562E-16	2.066087E-17
5.237945E+03	6.911650E-16	2.107990E-17
5.247865E+03	7.057114E-16	2.149905E-17
5.257785E+03	7.201847E-16	2.191494E-17
5.267706E+03	7.344771E-16	2.232430E-17
5.277626E+03	7.484872E-16	2.272408E-17
5.287546E+03	7.621076E-16	2.311105E-17
5.297467E+03	7.752259E-16	2.348184E-17
5.307387E+03	7.877442E-16	2.383354E-17
5.317307E+03	7.995816E-16	2.416379E-17
5.327228E+03	8.106541E-16	2.447010E-17
5.337148E+03	8.209087E-16	2.475096E-17
5.347068E+03	8.302929E-16	2.500489E-17
5.356989E+03	8.387784E-16	2.523112E-17
5.366909E+03	8.463607E-16	2.542961E-17
5.376829E+03	8.530297E-16	2.560015E-17
5.386750E+03	8.587909E-16	2.574302E-17
5.396670E+03	8.636594E-16	2.585874E-17
5.406590E+03	8.676289E-16	2.594725E-17
5.416511E+03	8.707024E-16	2.600871E-17
5.426431E+03	8.728519E-16	2.604240E-17
5.436352E+03	8.740445E-16	2.604742E-17
5.446272E+03	8.742438E-16	2.602281E-17
5.456192E+03	8.733871E-16	2.596679E-17
5.466113E+03	8.714141E-16	2.587770E-17
5.476033E+03	8.682763E-16	2.575421E-17
5.485953E+03	8.639585E-16	2.559600E-17
5.495874E+03	8.584707E-16	2.540348E-17
5.505794E+03	8.518613E-16	2.517821E-17
5.515714E+03	8.442244E-16	2.492309E-17
5.525635E+03	8.356727E-16	2.464154E-17
5.535555E+03	8.263650E-16	2.433834E-17
5.545475E+03	8.164732E-16	2.401862E-17
5.555396E+03	8.061844E-16	2.368794E-17
5.565316E+03	7.956870E-16	2.335188E-17
5.575236E+03	7.851903E-16	2.301658E-17
5.585157E+03	7.748961E-16	2.268796E-17
5.595077E+03	7.650063E-16	2.237189E-17
5.604997E+03	7.557280E-16	2.207440E-17
5.614918E+03	7.472435E-16	2.180072E-17
5.624838E+03	7.397520E-16	2.155659E-17
5.634759E+03	7.334436E-16	2.134744E-17
5.644679E+03	7.284824E-16	2.117791E-17
5.654599E+03	7.250258E-16	2.105242E-17
5.664520E+03	7.232142E-16	2.097492E-17
5.674440E+03	7.231769E-16	2.094895E-17
5.684360E+03	7.250090E-16	2.097711E-17
5.694281E+03	7.288019E-16	2.106182E-17
5.704201E+03	7.346107E-16	2.120450E-17
5.714121E+03	7.424843E-16	2.140633E-17
5.724042E+03	7.524320E-16	2.166738E-17
5.733962E+03	7.644502E-16	2.198733E-17
5.743882E+03	7.784880E-16	2.236451E-17
5.753803E+03	7.944731E-16	2.279664E-17
5.763723E+03	8.122773E-16	2.327986E-17
5.773643E+03	8.317445E-16	2.380950E-17
5.783564E+03	8.526612E-16	2.437931E-17
5.793484E+03	8.747800E-16	2.498207E-17
5.803404E+03	8.978262E-16	2.560982E-17
5.813325E+03	9.214780E-16	2.625332E-17
5.823245E+03	9.454020E-16	2.690302E-17
5.833166E+03	9.692531E-16	2.754909E-17
5.843086E+03	9.926851E-16	2.818170E-17
5.853006E+03	1.015363E-15	2.879142E-17
5.862927E+03	1.036968E-15	2.936931E-17
5.872847E+03	1.057199E-15	2.990692E-17
5.882767E+03	1.075792E-15	3.039698E-17
5.892688E+03	1.092532E-15	3.083359E-17
5.902608E+03	1.107223E-15	3.121137E-17
5.912528E+03	1.119710E-15	3.152621E-17
5.922449E+03	1.129921E-15	3.177633E-17
5.932369E+03	1.137784E-15	3.195987E-17
5.942289E+03	1.143336E-15	3.207817E-17
5.952210E+03	1.146639E-15	3.213315E-17
5.962130E+03	1.147804E-15	3.212818E-17
5.972050E+03	1.147013E-15	3.206854E-17
5.981971E+03	1.144461E-15	3.195987E-17
5.991891E+03	1.140381E-15	3.180887E-17
6.001811E+03	1.135013E-15	3.162234E-17
6.011732E+03	1.128623E-15	3.140782E-17
6.021652E+03	1.121439E-15	3.117176E-17
6.031573E+03	1.113710E-15	3.092115E-17
6.041493E+03	1.105633E-15	3.066151E-17
6.051413E+03	1.097426E-15	3.039891E-17
6.061334E+03	1.089239E-15	3.013749E-17
6.071254E+03	1.081215E-15	2.988123E-17
6.081174E+03	1.073472E-15	2.963336E-17
6.091095E+03	1.066090E-15	2.939606E-17
6.101015E+03	1.059133E-15	2.917104E-17
6.110935E+03	1.052636E-15	2.895928E-17
6.120856E+03	1.046613E-15	2.876106E-17
6.130776E+03	1.041029E-15	2.857540E-17
6.140696E+03	1.035868E-15	2.840183E-17
6.150617E+03	1.031063E-15	2.823849E-17
6.160537E+03	1.026556E-15	2.808371E-17
6.170457E+03	1.022259E-15	2.793513E-17
6.180378E+03	1.018121E-15	2.779129E-17
6.190298E+03	1.014069E-15	2.765019E-17
6.200218E+03	1.010055E-15	2.751055E-17
6.210139E+03	1.006078E-15	2.737230E-17
6.220059E+03	1.002117E-15	2.723488E-17
6.229979E+03	9.982170E-16	2.709953E-17
6.239900E+03	9.944171E-16	2.696729E-17
6.249820E+03	9.907963E-16	2.684030E-17
6.259741E+03	9.874492E-16	2.672111E-17
6.269661E+03	9.844509E-16	2.661172E-17
6.279581E+03	9.819233E-16	2.651539E-17
6.289502E+03	9.799677E-16	2.643483E-17
6.299422E+03	9.786802E-16	2.637257E-17
6.309342E+03	9.781564E-16	2.633114E-17
6.319263E+03	9.784540E-16	2.631202E-17
6.329183E+03	9.796305E-16	2.631670E-17
6.339103E+03	9.817174E-16	2.634596E-17
6.349024E+03	9.847078E-16	2.639953E-17
6.358944E+03	9.885643E-16	2.647636E-17
6.368864E+03	9.932316E-16	2.657490E-17
6.378785E+03	9.986179E-16	2.669264E-17
6.388705E+03	1.004631E-15	2.682706E-17
6.398625E+03	1.011129E-15	2.697435E-17
6.408546E+03	1.017982E-15	2.713100E-17
6.418466E+03	1.025042E-15	2.729306E-17
6.428386E+03	1.032175E-15	2.745695E-17
6.438307E+03	1.039240E-15	2.761890E-17
6.448227E+03	1.046105E-15	2.777542E-17
6.458148E+03	1.052646E-15	2.792326E-17
6.468068E+03	1.058748E-15	2.805939E-17
6.477988E+03	1.064304E-15	2.818099E-17
6.487909E+03	1.069202E-15	2.828514E-17
6.497829E+03	1.073319E-15	2.836865E-17
6.507749E+03	1.076547E-15	2.842871E-17
6.517670E+03	1.078758E-15	2.846201E-17
6.527590E+03	1.079872E-15	2.846653E-17
6.537510E+03	1.079780E-15	2.843942E-17
6.547431E+03	1.078442E-15	2.837976E-17
6.557351E+03	1.075810E-15	2.828636E-17
6.567271E+03	1.071893E-15	2.815952E-17
6.577192E+03	1.066717E-15	2.800001E-17
6.587112E+03	1.060338E-15	2.780937E-17
6.597032E+03	1.052837E-15	2.758980E-17
6.606953E+03	1.044330E-15	2.734444E-17
6.616873E+03	1.034940E-15	2.707652E-17
6.626793E+03	1.024799E-15	2.678953E-17
6.636714E+03	1.014032E-15	2.648681E-17
6.646634E+03	1.002801E-15	2.617261E-17
6.656555E+03	9.912385E-16	2.585040E-17
6.666475E+03	9.794559E-16	2.552310E-17
6.676395E+03	9.675800E-16	2.519402E-17
6.686316E+03	9.557024E-16	2.486553E-17
6.696236E+03	9.439400E-16	2.454067E-17
6.706156E+03	9.323639E-16	2.422127E-17
6.716077E+03	9.210598E-16	2.390954E-17
6.725997E+03	9.100717E-16	2.360660E-17
6.735917E+03	8.994945E-16	2.331487E-17
6.745838E+03	8.893617E-16	2.303520E-17
6.755758E+03	8.797379E-16	2.276924E-17
6.765678E+03	8.706646E-16	2.251801E-17
6.775599E+03	8.622147E-16	2.228336E-17
6.785519E+03	8.544168E-16	2.206600E-17
6.795439E+03	8.473414E-16	2.186770E-17
6.805360E+03	8.410236E-16	2.168932E-17
6.815280E+03	8.354946E-16	2.153163E-17
6.825200E+03	8.308120E-16	2.139606E-17
6.835121E+03	8.270046E-16	2.128330E-17
6.845041E+03	8.240710E-16	2.119326E-17
6.854962E+03	8.220404E-16	2.112666E-17
6.864882E+03	8.208993E-16	2.108310E-17
6.874802E+03	8.206309E-16	2.106209E-17
6.884723E+03	8.212183E-16	2.106315E-17
6.894643E+03	8.226117E-16	2.108498E-17
6.904563E+03	8.247629E-16	2.112629E-17
6.914484E+03	8.276297E-16	2.118596E-17
6.924404E+03	8.311454E-16	2.126226E-17
6.934324E+03	8.352541E-16	2.135373E-17
6.944245E+03	8.399137E-16	2.145925E-17
6.954165E+03	8.450536E-16	2.157701E-17
6.964085E+03	8.506547E-16	2.170650E-17
6.974006E+03	8.566718E-16	2.184655E-17
6.983926E+03	8.630794E-16	2.199648E-17
6.993846E+03	8.698596E-16	2.215583E-17
7.003767E+03	8.770026E-16	2.232434E-17
7.013687E+03	8.844935E-16	2.250161E-17
7.023607E+03	8.923584E-16	2.268829E-17
7.033528E+03	9.005788E-16	2.288391E-17
7.043448E+03	9.091621E-16	2.308864E-17
7.053369E+03	9.181289E-16	2.330299E-17
7.063289E+03	9.274850E-16	2.352710E-17
7.073209E+03	9.372079E-16	2.376039E-17
7.083130E+03	9.473200E-16	2.400341E-17
7.093050E+03	9.577983E-16	2.425557E-17
7.102970E+03	9.686112E-16	2.451607E-17
7.112891E+03	9.797444E-16	2.478453E-17
7.122811E+03	9.911475E-16	2.505968E-17
7.132731E+03	1.002774E-15	2.534034E-17
7.142652E+03	1.014570E-15	2.562513E-17
7.152572E+03	1.026470E-15	2.591243E-17
7.162492E+03	1.038404E-15	2.620045E-17
7.172413E+03	1.050263E-15	2.648646E-17
7.182333E+03	1.061989E-15	2.676902E-17
7.192253E+03	1.073460E-15	2.704506E-17
7.202174E+03	1.084577E-15	2.731212E-17
7.212094E+03	1.095239E-15	2.756764E-17
7.222014E+03	1.105340E-15	2.780902E-17
7.231935E+03	1.114762E-15	2.803330E-17
7.241855E+03	1.123404E-15	2.823800E-17
7.251775E+03	1.131158E-15	2.842039E-17
7.261696E+03	1.137922E-15	2.857802E-17
7.271616E+03	1.143659E-15	2.870993E-17
7.281537E+03	1.148265E-15	2.881360E-17
7.291457E+03	1.151702E-15	2.888808E-17
7.301377E+03	1.153964E-15	2.893331E-17
7.311298E+03	1.155017E-15	2.894846E-17
7.321218E+03	1.154877E-15	2.893393E-17
7.331138E+03	1.153558E-15	2.889018E-17
7.341059E+03	1.151126E-15	2.881885E-17
7.350979E+03	1.147612E-15	2.872074E-17
7.360899E+03	1.143092E-15	2.859783E-17
7.370820E+03	1.137675E-15	2.845284E-17
7.380740E+03	1.131447E-15	2.828797E-17
7.390660E+03	1.124509E-15	2.810573E-17
7.400581E+03	1.117019E-15	2.791010E-17
7.410501E+03	1.109096E-15	2.770408E-17
7.420421E+03	1.100917E-15	2.749209E-17
7.430342E+03	1.092605E-15	2.727718E-17
7.440262E+03	1.084364E-15	2.706447E-17
7.450182E+03	1.076343E-15	2.685768E-17
7.460103E+03	1.068725E-15	2.666136E-17
7.470023E+03	1.061680E-15	2.647973E-17
7.479944E+03	1.055392E-15	2.631740E-17
7.489864E+03	1.050031E-15	2.617856E-17
7.499784E+03	1.045762E-15	2.606732E-17
7.509705E+03	1.042759E-15	2.598802E-17
7.519625E+03	1.041188E-15	2.594477E-17
7.529545E+03	1.041174E-15	2.594068E-17
7.539466E+03	1.042871E-15	2.597958E-17
7.549386E+03	1.046355E-15	2.606335E-17
7.559306E+03	1.051745E-15	2.619492E-17
7.569227E+03	1.059086E-15	2.637546E-17
7.579147E+03	1.068447E-15	2.660665E-17
7.589067E+03	1.079803E-15	2.688791E-17
7.598988E+03	1.093162E-15	2.721941E-17
7.608908E+03	1.108430E-15	2.759884E-17
7.618828E+03	1.125559E-15	2.802505E-17
7.628749E+03	1.144367E-15	2.849352E-17
7.638669E+03	1.164721E-15	2.900096E-17
7.648589E+03	1.186422E-15	2.954245E-17
7.658510E+03	1.209221E-15	3.011184E-17
7.668430E+03	1.232860E-15	3.070275E-17
7.678351E+03	1.257077E-15	3.130870E-17
7.688271E+03	1.281574E-15	3.192230E-17
7.698191E+03	1.306000E-15	3.253486E-17
