#wls	flux	fluxerr
1.587256E+03	4.366359E-18	2.214158E-19
1.626937E+03	4.644533E-18	2.351025E-19
1.666619E+03	4.863698E-18	2.457464E-19
1.706300E+03	5.013475E-18	2.528389E-19
1.745982E+03	5.079698E-18	2.556854E-19
1.785663E+03	5.042177E-18	2.532953E-19
1.825344E+03	4.877631E-18	2.445325E-19
1.865026E+03	4.571568E-18	2.287117E-19
1.904707E+03	4.124695E-18	2.059146E-19
1.944389E+03	3.565285E-18	1.775978E-19
1.984070E+03	2.956228E-18	1.469281E-19
2.023751E+03	2.386852E-18	1.183561E-19
2.063433E+03	1.944490E-18	9.619307E-20
2.103114E+03	1.685862E-18	8.319680E-20
2.142795E+03	1.635465E-18	8.050923E-20
2.182477E+03	1.807455E-18	8.874920E-20
2.222158E+03	2.223235E-18	1.088797E-19
2.261840E+03	2.908209E-18	1.420441E-19
2.301521E+03	3.876277E-18	1.888076E-19
2.341202E+03	5.119672E-18	2.486705E-19
2.380884E+03	6.611398E-18	3.202008E-19
2.420565E+03	8.315242E-18	4.015320E-19
2.460247E+03	1.019342E-17	4.907384E-19
2.499928E+03	1.221545E-17	5.862625E-19
2.539609E+03	1.435874E-17	6.869400E-19
2.579291E+03	1.660798E-17	7.919644E-19
2.618972E+03	1.895014E-17	9.006455E-19
2.658654E+03	2.138051E-17	1.012692E-18
2.698335E+03	2.389358E-17	1.127777E-18
2.738016E+03	2.648882E-17	1.245808E-18
2.777698E+03	2.916029E-17	1.366440E-18
2.817379E+03	3.190806E-17	1.489609E-18
2.857061E+03	3.472284E-17	1.614814E-18
2.896742E+03	3.759869E-17	1.741714E-18
2.936423E+03	4.053904E-17	1.870404E-18
2.976105E+03	4.353976E-17	2.000627E-18
2.986025E+03	4.430230E-17	2.033549E-18
2.995946E+03	4.506772E-17	2.066521E-18
3.005866E+03	4.583858E-17	2.099658E-18
3.015786E+03	4.661798E-17	2.133101E-18
3.025707E+03	4.741757E-17	2.167382E-18
3.035627E+03	4.824749E-17	2.202959E-18
3.045547E+03	4.910976E-17	2.239920E-18
3.055468E+03	5.000352E-17	2.278220E-18
3.065388E+03	5.092029E-17	2.317468E-18
3.075308E+03	5.186293E-17	2.357790E-18
3.085229E+03	5.282880E-17	2.399062E-18
3.095149E+03	5.381555E-17	2.441172E-18
3.105069E+03	5.482079E-17	2.484010E-18
3.114990E+03	5.584241E-17	2.527475E-18
3.124910E+03	5.687829E-17	2.571469E-18
3.134830E+03	5.792937E-17	2.616032E-18
3.144751E+03	5.899377E-17	2.661075E-18
3.154671E+03	6.006691E-17	2.706389E-18
3.164591E+03	6.115298E-17	2.752162E-18
3.174512E+03	6.224752E-17	2.798190E-18
3.184432E+03	6.334905E-17	2.844403E-18
3.194353E+03	6.445922E-17	2.890876E-18
3.204273E+03	6.557980E-17	2.937684E-18
3.214193E+03	6.670361E-17	2.984504E-18
3.224114E+03	6.783556E-17	3.031554E-18
3.234034E+03	6.897172E-17	3.078657E-18
3.243954E+03	7.011715E-17	3.126037E-18
3.253875E+03	7.126805E-17	3.173523E-18
3.263795E+03	7.242361E-17	3.221076E-18
3.273715E+03	7.358618E-17	3.268800E-18
3.283636E+03	7.475519E-17	3.316668E-18
3.293556E+03	7.593313E-17	3.364788E-18
3.303476E+03	7.711640E-17	3.412998E-18
3.313397E+03	7.831075E-17	3.461551E-18
3.323317E+03	7.951272E-17	3.510293E-18
3.333237E+03	8.072503E-17	3.559340E-18
3.343158E+03	8.194433E-17	3.608542E-18
3.353078E+03	8.317971E-17	3.658298E-18
3.362998E+03	8.442472E-17	3.708321E-18
3.372919E+03	8.568243E-17	3.758743E-18
3.382839E+03	8.695585E-17	3.809692E-18
3.392760E+03	8.824487E-17	3.861161E-18
3.402680E+03	8.954963E-17	3.913153E-18
3.412600E+03	9.087320E-17	3.965797E-18
3.422521E+03	9.221578E-17	4.019098E-18
3.432441E+03	9.358057E-17	4.073192E-18
3.442361E+03	9.496167E-17	4.127818E-18
3.452282E+03	9.636865E-17	4.183387E-18
3.462202E+03	9.779874E-17	4.239773E-18
3.472122E+03	9.925244E-17	4.296994E-18
3.482043E+03	1.007332E-16	4.355194E-18
3.491963E+03	1.022386E-16	4.414262E-18
3.501883E+03	1.037723E-16	4.474353E-18
3.511804E+03	1.053321E-16	4.535361E-18
3.521724E+03	1.069188E-16	4.597319E-18
3.531644E+03	1.085273E-16	4.660004E-18
3.541565E+03	1.101619E-16	4.723592E-18
3.551485E+03	1.118210E-16	4.788007E-18
3.561405E+03	1.135000E-16	4.853053E-18
3.571326E+03	1.152006E-16	4.918795E-18
3.581246E+03	1.169217E-16	4.985179E-18
3.591167E+03	1.186651E-16	5.052281E-18
3.601087E+03	1.204269E-16	5.119926E-18
3.611007E+03	1.222094E-16	5.188208E-18
3.620928E+03	1.240119E-16	5.257095E-18
3.630848E+03	1.258367E-16	5.326681E-18
3.640768E+03	1.276807E-16	5.396826E-18
3.650689E+03	1.295522E-16	5.467872E-18
3.660609E+03	1.314450E-16	5.539560E-18
3.670529E+03	1.333617E-16	5.611988E-18
3.680450E+03	1.353077E-16	5.685380E-18
3.690370E+03	1.372797E-16	5.759592E-18
3.700290E+03	1.392802E-16	5.834717E-18
3.710211E+03	1.413143E-16	5.910970E-18
3.720131E+03	1.433787E-16	5.988195E-18
3.730051E+03	1.454753E-16	6.066473E-18
3.739972E+03	1.476062E-16	6.145882E-18
3.749892E+03	1.497733E-16	6.226488E-18
3.759812E+03	1.519754E-16	6.308241E-18
3.769733E+03	1.542141E-16	6.391190E-18
3.779653E+03	1.564879E-16	6.475272E-18
3.789574E+03	1.588009E-16	6.560645E-18
3.799494E+03	1.611513E-16	6.647225E-18
3.809414E+03	1.635399E-16	6.735039E-18
3.819335E+03	1.659617E-16	6.823871E-18
3.829255E+03	1.684230E-16	6.913968E-18
3.839175E+03	1.709211E-16	7.005213E-18
3.849096E+03	1.734559E-16	7.097596E-18
3.859016E+03	1.760215E-16	7.190862E-18
3.868936E+03	1.786232E-16	7.285221E-18
3.878857E+03	1.812542E-16	7.380389E-18
3.888777E+03	1.839165E-16	7.476441E-18
3.898697E+03	1.866062E-16	7.573203E-18
3.908618E+03	1.893187E-16	7.670492E-18
3.918538E+03	1.920589E-16	7.768492E-18
3.928458E+03	1.948164E-16	7.866780E-18
3.938379E+03	1.975958E-16	7.965535E-18
3.948299E+03	2.003931E-16	8.064591E-18
3.958219E+03	2.032045E-16	8.163786E-18
3.968140E+03	2.060325E-16	8.263221E-18
3.978060E+03	2.088712E-16	8.362650E-18
3.987981E+03	2.117273E-16	8.462341E-18
3.997901E+03	2.145962E-16	8.562103E-18
4.007821E+03	2.174801E-16	8.662022E-18
4.017742E+03	2.203851E-16	8.762331E-18
4.027662E+03	2.233091E-16	8.862942E-18
4.037582E+03	2.262600E-16	8.964167E-18
4.047503E+03	2.292406E-16	9.066104E-18
4.057423E+03	2.322578E-16	9.169021E-18
4.067343E+03	2.353194E-16	9.273213E-18
4.077264E+03	2.384337E-16	9.379000E-18
4.087184E+03	2.416037E-16	9.486479E-18
4.097104E+03	2.448451E-16	9.596262E-18
4.107025E+03	2.481616E-16	9.708467E-18
4.116945E+03	2.515662E-16	9.823592E-18
4.126865E+03	2.550624E-16	9.941748E-18
4.136786E+03	2.586632E-16	1.006342E-17
4.146706E+03	2.623782E-16	1.018896E-17
4.156626E+03	2.662132E-16	1.031856E-17
4.166547E+03	2.701733E-16	1.045239E-17
4.176467E+03	2.742732E-16	1.059100E-17
4.186387E+03	2.785097E-16	1.073421E-17
4.196308E+03	2.828956E-16	1.088251E-17
4.206228E+03	2.874291E-16	1.103577E-17
4.216149E+03	2.921174E-16	1.119425E-17
4.226069E+03	2.969596E-16	1.135787E-17
4.235989E+03	3.019606E-16	1.152678E-17
4.245910E+03	3.071165E-16	1.170080E-17
4.255830E+03	3.124219E-16	1.187969E-17
4.265750E+03	3.178840E-16	1.206368E-17
4.275671E+03	3.234860E-16	1.225209E-17
4.285591E+03	3.292274E-16	1.244488E-17
4.295511E+03	3.350982E-16	1.264164E-17
4.305432E+03	3.410902E-16	1.284202E-17
4.315352E+03	3.471939E-16	1.304565E-17
4.325272E+03	3.533915E-16	1.325181E-17
4.335193E+03	3.596816E-16	1.346044E-17
4.345113E+03	3.660529E-16	1.367110E-17
4.355033E+03	3.725069E-16	1.388381E-17
4.364954E+03	3.790458E-16	1.409864E-17
4.374874E+03	3.856821E-16	1.431603E-17
4.384794E+03	3.924243E-16	1.453628E-17
4.394715E+03	3.992965E-16	1.476023E-17
4.404635E+03	4.063066E-16	1.498817E-17
4.414556E+03	4.134745E-16	1.522078E-17
4.424476E+03	4.208044E-16	1.545817E-17
4.434396E+03	4.283052E-16	1.570064E-17
4.444317E+03	4.359762E-16	1.594813E-17
4.454237E+03	4.438154E-16	1.620050E-17
4.464157E+03	4.517997E-16	1.645688E-17
4.474078E+03	4.599190E-16	1.671686E-17
4.483998E+03	4.681421E-16	1.697929E-17
4.493918E+03	4.764317E-16	1.724277E-17
4.503839E+03	4.847552E-16	1.750611E-17
4.513759E+03	4.930649E-16	1.776758E-17
4.523679E+03	5.013089E-16	1.802532E-17
4.533600E+03	5.094432E-16	1.827776E-17
4.543520E+03	5.174002E-16	1.852250E-17
4.553440E+03	5.251393E-16	1.875813E-17
4.563361E+03	5.325937E-16	1.898232E-17
4.573281E+03	5.397163E-16	1.919345E-17
4.583201E+03	5.464595E-16	1.938991E-17
4.593122E+03	5.527878E-16	1.957055E-17
4.603042E+03	5.586570E-16	1.973388E-17
4.612963E+03	5.640493E-16	1.987938E-17
4.622883E+03	5.689511E-16	2.000671E-17
4.632803E+03	5.733531E-16	2.011563E-17
4.642724E+03	5.772613E-16	2.020649E-17
4.652644E+03	5.806908E-16	2.027992E-17
4.662564E+03	5.836640E-16	2.033682E-17
4.672485E+03	5.862090E-16	2.037829E-17
4.682405E+03	5.883587E-16	2.040555E-17
4.692325E+03	5.901547E-16	2.042015E-17
4.702246E+03	5.916402E-16	2.042366E-17
4.712166E+03	5.928705E-16	2.041806E-17
4.722086E+03	5.938940E-16	2.040509E-17
4.732007E+03	5.947573E-16	2.038638E-17
4.741927E+03	5.955159E-16	2.036387E-17
4.751847E+03	5.962101E-16	2.033898E-17
4.761768E+03	5.968820E-16	2.031313E-17
4.771688E+03	5.975573E-16	2.028722E-17
4.781608E+03	5.982691E-16	2.026236E-17
4.791529E+03	5.990394E-16	2.023930E-17
4.801449E+03	5.998796E-16	2.021839E-17
4.811370E+03	6.008028E-16	2.020007E-17
4.821290E+03	6.018123E-16	2.018442E-17
4.831210E+03	6.029143E-16	2.017164E-17
4.841131E+03	6.041009E-16	2.016144E-17
4.851051E+03	6.053807E-16	2.015408E-17
4.860971E+03	6.067433E-16	2.014920E-17
4.870892E+03	6.081831E-16	2.014659E-17
4.880812E+03	6.097004E-16	2.014625E-17
4.890732E+03	6.112767E-16	2.014754E-17
4.900653E+03	6.129245E-16	2.015087E-17
4.910573E+03	6.146198E-16	2.015543E-17
4.920493E+03	6.163772E-16	2.016169E-17
4.930414E+03	6.181770E-16	2.016899E-17
4.940334E+03	6.200353E-16	2.017785E-17
4.950254E+03	6.219623E-16	2.018858E-17
4.960175E+03	6.239705E-16	2.020159E-17
4.970095E+03	6.260883E-16	2.021775E-17
4.980015E+03	6.283537E-16	2.023828E-17
4.989936E+03	6.308201E-16	2.026485E-17
4.999856E+03	6.335353E-16	2.029894E-17
5.009777E+03	6.365582E-16	2.034239E-17
5.019697E+03	6.399563E-16	2.039726E-17
5.029617E+03	6.437839E-16	2.046519E-17
5.039538E+03	6.481001E-16	2.054795E-17
5.049458E+03	6.529604E-16	2.064717E-17
5.059378E+03	6.584162E-16	2.076434E-17
5.069299E+03	6.645135E-16	2.090076E-17
5.079219E+03	6.712993E-16	2.105774E-17
5.089139E+03	6.787939E-16	2.123575E-17
5.099060E+03	6.870306E-16	2.143566E-17
5.108980E+03	6.960354E-16	2.165808E-17
5.118900E+03	7.058061E-16	2.190277E-17
5.128821E+03	7.163533E-16	2.216986E-17
5.138741E+03	7.276659E-16	2.245881E-17
5.148661E+03	7.397387E-16	2.276928E-17
5.158582E+03	7.525505E-16	2.310044E-17
5.168502E+03	7.660628E-16	2.345092E-17
5.178422E+03	7.802420E-16	2.381953E-17
5.188343E+03	7.950276E-16	2.420427E-17
5.198263E+03	8.103641E-16	2.460331E-17
5.208183E+03	8.261599E-16	2.501374E-17
5.218104E+03	8.423365E-16	2.543309E-17
5.228024E+03	8.588052E-16	2.585860E-17
5.237945E+03	8.754429E-16	2.628652E-17
5.247865E+03	8.921448E-16	2.671366E-17
5.257785E+03	9.087833E-16	2.713623E-17
5.267706E+03	9.252371E-16	2.755064E-17
5.277626E+03	9.413965E-16	2.795368E-17
5.287546E+03	9.571382E-16	2.834180E-17
5.297467E+03	9.723578E-16	2.871203E-17
5.307387E+03	9.869550E-16	2.906155E-17
5.317307E+03	1.000867E-15	2.938870E-17
5.327228E+03	1.014033E-15	2.969188E-17
5.337148E+03	1.026435E-15	2.997078E-17
5.347068E+03	1.038052E-15	3.022496E-17
5.356989E+03	1.048917E-15	3.045557E-17
5.366909E+03	1.059073E-15	3.066412E-17
5.376829E+03	1.068583E-15	3.085258E-17
5.386750E+03	1.077511E-15	3.102298E-17
5.396670E+03	1.085934E-15	3.117769E-17
5.406590E+03	1.093937E-15	3.131925E-17
5.416511E+03	1.101556E-15	3.144882E-17
5.426431E+03	1.108834E-15	3.156774E-17
5.436352E+03	1.115766E-15	3.167601E-17
5.446272E+03	1.122292E-15	3.177194E-17
5.456192E+03	1.128306E-15	3.185270E-17
5.466113E+03	1.133667E-15	3.191448E-17
5.476033E+03	1.138185E-15	3.195210E-17
5.485953E+03	1.141709E-15	3.196153E-17
5.495874E+03	1.144070E-15	3.193830E-17
5.505794E+03	1.145179E-15	3.188021E-17
5.515714E+03	1.144991E-15	3.178631E-17
5.525635E+03	1.143516E-15	3.165718E-17
5.535555E+03	1.140816E-15	3.149479E-17
5.545475E+03	1.137006E-15	3.130261E-17
5.555396E+03	1.132213E-15	3.108437E-17
5.565316E+03	1.126604E-15	3.084486E-17
5.575236E+03	1.120390E-15	3.059002E-17
5.585157E+03	1.113758E-15	3.032505E-17
5.595077E+03	1.106955E-15	3.005678E-17
5.604997E+03	1.100205E-15	2.979125E-17
5.614918E+03	1.093790E-15	2.953611E-17
5.624838E+03	1.087984E-15	2.929862E-17
5.634759E+03	1.083055E-15	2.908584E-17
5.644679E+03	1.079293E-15	2.890537E-17
5.654599E+03	1.076959E-15	2.876388E-17
5.664520E+03	1.076332E-15	2.866849E-17
5.674440E+03	1.077625E-15	2.862448E-17
5.684360E+03	1.081067E-15	2.863752E-17
5.694281E+03	1.086837E-15	2.871184E-17
5.704201E+03	1.095051E-15	2.885002E-17
5.714121E+03	1.105828E-15	2.905467E-17
5.724042E+03	1.119215E-15	2.932644E-17
5.733962E+03	1.135200E-15	2.966451E-17
5.743882E+03	1.153713E-15	3.006650E-17
5.753803E+03	1.174609E-15	3.052808E-17
5.763723E+03	1.197713E-15	3.104430E-17
5.773643E+03	1.222742E-15	3.160735E-17
5.783564E+03	1.249403E-15	3.220928E-17
5.793484E+03	1.277308E-15	3.283984E-17
5.803404E+03	1.306054E-15	3.348843E-17
5.813325E+03	1.335176E-15	3.414301E-17
5.823245E+03	1.364220E-15	3.479196E-17
5.833166E+03	1.392704E-15	3.542305E-17
5.843086E+03	1.420192E-15	3.602538E-17
5.853006E+03	1.446268E-15	3.658866E-17
5.862927E+03	1.470547E-15	3.710347E-17
5.872847E+03	1.492729E-15	3.756265E-17
5.882767E+03	1.512573E-15	3.796059E-17
5.892688E+03	1.529847E-15	3.829201E-17
5.902608E+03	1.544425E-15	3.855425E-17
5.912528E+03	1.556233E-15	3.874607E-17
5.922449E+03	1.565203E-15	3.886632E-17
5.932369E+03	1.571385E-15	3.891684E-17
5.942289E+03	1.574818E-15	3.889914E-17
5.952210E+03	1.575662E-15	3.881768E-17
5.962130E+03	1.574074E-15	3.867686E-17
5.972050E+03	1.570257E-15	3.848214E-17
5.981971E+03	1.564485E-15	3.824064E-17
5.991891E+03	1.557058E-15	3.796006E-17
6.001811E+03	1.548225E-15	3.764673E-17
6.011732E+03	1.538319E-15	3.730907E-17
6.021652E+03	1.527619E-15	3.695395E-17
6.031573E+03	1.516397E-15	3.658815E-17
6.041493E+03	1.504889E-15	3.621739E-17
6.051413E+03	1.493331E-15	3.584744E-17
6.061334E+03	1.481883E-15	3.548208E-17
6.071254E+03	1.470705E-15	3.512513E-17
6.081174E+03	1.459940E-15	3.477996E-17
6.091095E+03	1.449634E-15	3.444761E-17
6.101015E+03	1.439900E-15	3.413062E-17
6.110935E+03	1.430733E-15	3.382879E-17
6.120856E+03	1.422129E-15	3.354191E-17
6.130776E+03	1.414083E-15	3.326981E-17
6.140696E+03	1.406535E-15	3.301097E-17
6.150617E+03	1.399408E-15	3.276347E-17
6.160537E+03	1.392615E-15	3.252523E-17
6.170457E+03	1.386088E-15	3.229465E-17
6.180378E+03	1.379777E-15	3.207045E-17
6.190298E+03	1.373616E-15	3.185115E-17
6.200218E+03	1.367638E-15	3.163742E-17
6.210139E+03	1.361808E-15	3.142849E-17
6.220059E+03	1.356226E-15	3.122659E-17
6.229979E+03	1.350973E-15	3.103360E-17
6.239900E+03	1.346150E-15	3.085173E-17
6.249820E+03	1.341907E-15	3.068440E-17
6.259741E+03	1.338384E-15	3.053468E-17
6.269661E+03	1.335770E-15	3.040681E-17
6.279581E+03	1.334196E-15	3.030360E-17
6.289502E+03	1.333827E-15	3.022866E-17
6.299422E+03	1.334799E-15	3.018490E-17
6.309342E+03	1.337224E-15	3.017467E-17
6.319263E+03	1.341166E-15	3.019924E-17
6.329183E+03	1.346671E-15	3.025939E-17
6.339103E+03	1.353739E-15	3.035498E-17
6.349024E+03	1.362315E-15	3.048456E-17
6.358944E+03	1.372332E-15	3.064648E-17
6.368864E+03	1.383617E-15	3.083669E-17
6.378785E+03	1.396039E-15	3.105221E-17
6.388705E+03	1.409355E-15	3.128747E-17
6.398625E+03	1.423361E-15	3.153795E-17
6.408546E+03	1.437789E-15	3.179760E-17
6.418466E+03	1.452412E-15	3.206147E-17
6.428386E+03	1.466974E-15	3.232386E-17
6.438307E+03	1.481247E-15	3.257980E-17
6.448227E+03	1.495025E-15	3.282475E-17
6.458148E+03	1.508141E-15	3.305515E-17
6.468068E+03	1.520420E-15	3.326721E-17
6.477988E+03	1.531789E-15	3.345945E-17
6.487909E+03	1.542109E-15	3.362891E-17
6.497829E+03	1.551342E-15	3.377486E-17
6.507749E+03	1.559427E-15	3.389608E-17
6.517670E+03	1.566315E-15	3.399162E-17
6.527590E+03	1.571990E-15	3.406123E-17
6.537510E+03	1.576427E-15	3.410445E-17
6.547431E+03	1.579615E-15	3.412117E-17
6.557351E+03	1.581576E-15	3.411195E-17
6.567271E+03	1.582325E-15	3.407719E-17
6.577192E+03	1.581886E-15	3.401752E-17
6.587112E+03	1.580319E-15	3.393427E-17
6.597032E+03	1.577648E-15	3.382807E-17
6.606953E+03	1.573954E-15	3.370072E-17
6.616873E+03	1.569306E-15	3.355373E-17
6.626793E+03	1.563803E-15	3.338927E-17
6.636714E+03	1.557482E-15	3.320821E-17
6.646634E+03	1.550471E-15	3.301325E-17
6.656555E+03	1.542848E-15	3.280614E-17
6.666475E+03	1.534670E-15	3.258806E-17
6.676395E+03	1.526031E-15	3.236105E-17
6.686316E+03	1.517002E-15	3.212662E-17
6.696236E+03	1.507650E-15	3.188618E-17
6.706156E+03	1.498018E-15	3.164061E-17
6.716077E+03	1.488206E-15	3.139207E-17
6.725997E+03	1.478231E-15	3.114087E-17
6.735917E+03	1.468194E-15	3.088913E-17
6.745838E+03	1.458118E-15	3.063730E-17
6.755758E+03	1.448118E-15	3.038779E-17
6.765678E+03	1.438261E-15	3.014197E-17
6.775599E+03	1.428649E-15	2.990195E-17
6.785519E+03	1.419400E-15	2.967014E-17
6.795439E+03	1.410661E-15	2.944956E-17
6.805360E+03	1.402523E-15	2.924206E-17
6.815280E+03	1.395158E-15	2.905113E-17
6.825200E+03	1.388666E-15	2.887881E-17
6.835121E+03	1.383155E-15	2.872723E-17
6.845041E+03	1.378708E-15	2.859803E-17
6.854962E+03	1.375402E-15	2.849269E-17
6.864882E+03	1.373217E-15	2.841073E-17
6.874802E+03	1.372186E-15	2.835268E-17
6.884723E+03	1.372243E-15	2.831713E-17
6.894643E+03	1.373297E-15	2.830206E-17
6.904563E+03	1.375293E-15	2.830628E-17
6.914484E+03	1.378098E-15	2.832696E-17
6.924404E+03	1.381592E-15	2.836155E-17
6.934324E+03	1.385649E-15	2.840742E-17
6.944245E+03	1.390128E-15	2.846163E-17
6.954165E+03	1.394963E-15	2.852278E-17
6.964085E+03	1.400038E-15	2.858847E-17
6.974006E+03	1.405256E-15	2.865670E-17
6.983926E+03	1.410588E-15	2.872686E-17
6.993846E+03	1.416004E-15	2.879833E-17
7.003767E+03	1.421500E-15	2.887101E-17
7.013687E+03	1.427067E-15	2.894471E-17
7.023607E+03	1.432761E-15	2.902057E-17
7.033528E+03	1.438629E-15	2.909953E-17
7.043448E+03	1.444728E-15	2.918273E-17
7.053369E+03	1.451096E-15	2.927090E-17
7.063289E+03	1.457821E-15	2.936579E-17
7.073209E+03	1.464936E-15	2.946806E-17
7.083130E+03	1.472516E-15	2.957917E-17
7.093050E+03	1.480601E-15	2.969990E-17
7.102970E+03	1.489216E-15	2.983073E-17
7.112891E+03	1.498348E-15	2.997132E-17
7.122811E+03	1.507990E-15	3.012152E-17
7.132731E+03	1.518171E-15	3.028187E-17
7.142652E+03	1.528803E-15	3.045058E-17
7.152572E+03	1.539833E-15	3.062657E-17
7.162492E+03	1.551244E-15	3.080951E-17
7.172413E+03	1.562902E-15	3.099669E-17
7.182333E+03	1.574763E-15	3.118725E-17
7.192253E+03	1.586661E-15	3.137790E-17
7.202174E+03	1.598501E-15	3.156678E-17
7.212094E+03	1.610148E-15	3.175127E-17
7.222014E+03	1.621491E-15	3.192921E-17
7.231935E+03	1.632359E-15	3.209730E-17
7.241855E+03	1.642611E-15	3.225282E-17
7.251775E+03	1.652110E-15	3.239319E-17
7.261696E+03	1.660760E-15	3.251662E-17
7.271616E+03	1.668451E-15	3.262104E-17
7.281537E+03	1.675057E-15	3.270412E-17
7.291457E+03	1.680531E-15	3.276507E-17
7.301377E+03	1.684814E-15	3.280285E-17
7.311298E+03	1.687862E-15	3.281679E-17
7.321218E+03	1.689651E-15	3.280649E-17
7.331138E+03	1.690199E-15	3.277249E-17
7.341059E+03	1.689479E-15	3.271437E-17
7.350979E+03	1.687505E-15	3.263257E-17
7.360899E+03	1.684368E-15	3.252895E-17
7.370820E+03	1.680048E-15	3.240329E-17
7.380740E+03	1.674664E-15	3.225800E-17
7.390660E+03	1.668258E-15	3.209399E-17
7.400581E+03	1.660891E-15	3.191254E-17
7.410501E+03	1.652674E-15	3.171590E-17
7.420421E+03	1.643769E-15	3.150726E-17
7.430342E+03	1.634268E-15	3.128849E-17
7.440262E+03	1.624349E-15	3.106304E-17
7.450182E+03	1.614239E-15	3.083531E-17
7.460103E+03	1.604097E-15	3.060839E-17
7.470023E+03	1.594221E-15	3.038800E-17
7.479944E+03	1.584807E-15	3.017786E-17
7.489864E+03	1.576121E-15	2.998307E-17
7.499784E+03	1.568498E-15	2.980998E-17
7.509705E+03	1.562124E-15	2.966208E-17
7.519625E+03	1.557296E-15	2.954503E-17
7.529545E+03	1.554303E-15	2.946424E-17
7.539466E+03	1.553328E-15	2.942314E-17
7.549386E+03	1.554655E-15	2.942709E-17
7.559306E+03	1.558424E-15	2.947870E-17
7.569227E+03	1.564807E-15	2.958120E-17
7.579147E+03	1.573999E-15	2.973824E-17
7.589067E+03	1.586023E-15	2.995031E-17
7.598988E+03	1.600902E-15	3.021782E-17
7.608908E+03	1.618618E-15	3.054050E-17
7.618828E+03	1.639015E-15	3.091545E-17
7.628749E+03	1.661929E-15	3.133970E-17
7.638669E+03	1.687065E-15	3.180778E-17
7.648589E+03	1.714099E-15	3.231376E-17
7.658510E+03	1.742692E-15	3.285139E-17
7.668430E+03	1.772394E-15	3.341238E-17
7.678351E+03	1.802792E-15	3.398914E-17
7.688271E+03	1.833342E-15	3.457165E-17
7.698191E+03	1.863634E-15	3.515239E-17
