#wls	flux	fluxerr
1.587256E+03	3.968369E-18	1.116718E-19
1.626937E+03	4.210028E-18	1.184352E-19
1.666619E+03	4.397462E-18	1.236684E-19
1.706300E+03	4.519673E-18	1.270633E-19
1.745982E+03	4.566564E-18	1.283379E-19
1.785663E+03	4.518688E-18	1.269481E-19
1.825344E+03	4.357630E-18	1.223793E-19
1.865026E+03	4.071072E-18	1.142895E-19
1.904707E+03	3.660493E-18	1.027241E-19
1.944389E+03	3.153110E-18	8.845090E-20
1.984070E+03	2.605097E-18	7.304877E-20
2.023751E+03	2.095368E-18	5.873140E-20
2.063433E+03	1.700337E-18	4.763885E-20
2.103114E+03	1.468094E-18	4.111415E-20
2.142795E+03	1.418606E-18	3.971048E-20
2.182477E+03	1.561372E-18	4.368683E-20
2.222158E+03	1.912833E-18	5.349541E-20
2.261840E+03	2.491819E-18	6.965397E-20
2.301521E+03	3.307006E-18	9.239502E-20
2.341202E+03	4.347611E-18	1.214068E-19
2.380884E+03	5.587372E-18	1.559454E-19
2.420565E+03	6.990348E-18	1.949981E-19
2.460247E+03	8.523486E-18	2.376345E-19
2.499928E+03	1.015770E-17	2.830362E-19
2.539609E+03	1.187191E-17	3.306094E-19
2.579291E+03	1.365331E-17	3.799919E-19
2.618972E+03	1.548975E-17	4.308399E-19
2.658654E+03	1.737935E-17	4.830959E-19
2.698335E+03	1.931784E-17	5.366358E-19
2.738016E+03	2.131089E-17	5.916122E-19
2.777698E+03	2.335977E-17	6.480545E-19
2.817379E+03	2.547120E-17	7.061425E-19
2.857061E+03	2.763731E-17	7.656521E-19
2.896742E+03	2.985913E-17	8.266051E-19
2.936423E+03	3.212612E-17	8.887034E-19
2.976105E+03	3.444638E-17	9.521643E-19
2.986025E+03	3.503434E-17	9.682300E-19
2.995946E+03	3.562341E-17	9.843188E-19
3.005866E+03	3.621948E-17	1.000594E-18
3.015786E+03	3.681912E-17	1.016960E-18
3.025707E+03	3.743459E-17	1.033755E-18
3.035627E+03	3.807606E-17	1.051260E-18
3.045547E+03	3.874103E-17	1.069406E-18
3.055468E+03	3.942555E-17	1.088083E-18
3.065388E+03	4.013371E-17	1.107403E-18
3.075308E+03	4.086032E-17	1.127223E-18
3.085229E+03	4.160333E-17	1.147486E-18
3.095149E+03	4.236092E-17	1.168141E-18
3.105069E+03	4.313460E-17	1.189230E-18
3.114990E+03	4.391609E-17	1.210524E-18
3.124910E+03	4.471384E-17	1.232256E-18
3.134830E+03	4.551627E-17	1.254105E-18
3.144751E+03	4.633224E-17	1.276318E-18
3.154671E+03	4.715360E-17	1.298667E-18
3.164591E+03	4.797902E-17	1.321117E-18
3.174512E+03	4.881446E-17	1.343832E-18
3.184432E+03	4.965535E-17	1.366685E-18
3.194353E+03	5.050070E-17	1.389649E-18
3.204273E+03	5.134959E-17	1.412699E-18
3.214193E+03	5.220114E-17	1.435810E-18
3.224114E+03	5.305820E-17	1.459060E-18
3.234034E+03	5.391639E-17	1.482330E-18
3.243954E+03	5.478248E-17	1.505804E-18
3.253875E+03	5.564841E-17	1.529261E-18
3.263795E+03	5.652109E-17	1.552891E-18
3.273715E+03	5.739620E-17	1.576575E-18
3.283636E+03	5.827713E-17	1.600406E-18
3.293556E+03	5.915949E-17	1.624263E-18
3.303476E+03	6.005063E-17	1.648348E-18
3.313397E+03	6.094624E-17	1.672542E-18
3.323317E+03	6.184591E-17	1.696834E-18
3.333237E+03	6.275704E-17	1.721427E-18
3.343158E+03	6.367537E-17	1.746203E-18
3.353078E+03	6.460049E-17	1.771151E-18
3.362998E+03	6.553595E-17	1.796369E-18
3.372919E+03	6.648519E-17	1.821949E-18
3.382839E+03	6.744793E-17	1.847884E-18
3.392760E+03	6.842355E-17	1.874157E-18
3.402680E+03	6.941554E-17	1.900863E-18
3.412600E+03	7.042331E-17	1.927986E-18
3.422521E+03	7.145030E-17	1.955618E-18
3.432441E+03	7.249973E-17	1.983848E-18
3.442361E+03	7.356688E-17	2.012545E-18
3.452282E+03	7.466289E-17	2.042015E-18
3.462202E+03	7.578691E-17	2.072233E-18
3.472122E+03	7.693786E-17	2.103169E-18
3.482043E+03	7.811876E-17	2.134905E-18
3.491963E+03	7.932843E-17	2.167407E-18
3.501883E+03	8.057768E-17	2.200971E-18
3.511804E+03	8.185727E-17	2.235342E-18
3.521724E+03	8.316988E-17	2.270595E-18
3.531644E+03	8.451426E-17	2.306692E-18
3.541565E+03	8.588933E-17	2.343605E-18
3.551485E+03	8.729393E-17	2.381300E-18
3.561405E+03	8.872321E-17	2.419645E-18
3.571326E+03	9.017646E-17	2.458619E-18
3.581246E+03	9.164945E-17	2.498107E-18
3.591167E+03	9.314602E-17	2.538213E-18
3.601087E+03	9.466249E-17	2.578835E-18
3.611007E+03	9.619924E-17	2.619983E-18
3.620928E+03	9.774934E-17	2.661469E-18
3.630848E+03	9.932151E-17	2.703528E-18
3.640768E+03	1.009091E-16	2.745979E-18
3.650689E+03	1.025135E-16	2.788861E-18
3.660609E+03	1.041324E-16	2.832110E-18
3.670529E+03	1.057713E-16	2.875871E-18
3.680450E+03	1.074280E-16	2.920090E-18
3.690370E+03	1.091007E-16	2.964711E-18
3.700290E+03	1.107911E-16	3.009787E-18
3.710211E+03	1.125013E-16	3.055368E-18
3.720131E+03	1.142294E-16	3.101404E-18
3.730051E+03	1.159774E-16	3.147948E-18
3.739972E+03	1.177472E-16	3.195051E-18
3.749892E+03	1.195369E-16	3.242663E-18
3.759812E+03	1.213483E-16	3.290831E-18
3.769733E+03	1.231795E-16	3.339503E-18
3.779653E+03	1.250323E-16	3.388722E-18
3.789574E+03	1.269078E-16	3.438526E-18
3.799494E+03	1.288040E-16	3.488852E-18
3.809414E+03	1.307217E-16	3.539726E-18
3.819335E+03	1.326583E-16	3.591076E-18
3.829255E+03	1.346145E-16	3.642918E-18
3.839175E+03	1.365905E-16	3.695258E-18
3.849096E+03	1.385828E-16	3.748003E-18
3.859016E+03	1.405913E-16	3.801144E-18
3.868936E+03	1.426120E-16	3.854577E-18
3.878857E+03	1.446442E-16	3.908281E-18
3.888777E+03	1.466871E-16	3.962235E-18
3.898697E+03	1.487363E-16	4.016319E-18
3.908618E+03	1.507874E-16	4.070412E-18
3.918538E+03	1.528429E-16	4.124584E-18
3.928458E+03	1.548986E-16	4.178720E-18
3.938379E+03	1.569504E-16	4.232709E-18
3.948299E+03	1.589981E-16	4.286546E-18
3.958219E+03	1.610384E-16	4.340142E-18
3.968140E+03	1.630753E-16	4.393603E-18
3.978060E+03	1.651066E-16	4.446870E-18
3.987981E+03	1.671304E-16	4.499896E-18
3.997901E+03	1.691460E-16	4.552655E-18
4.007821E+03	1.711633E-16	4.605421E-18
4.017742E+03	1.731760E-16	4.658019E-18
4.027662E+03	1.751924E-16	4.710672E-18
4.037582E+03	1.772145E-16	4.763438E-18
4.047503E+03	1.792489E-16	4.816487E-18
4.057423E+03	1.813025E-16	4.870012E-18
4.067343E+03	1.833799E-16	4.924128E-18
4.077264E+03	1.854895E-16	4.979064E-18
4.087184E+03	1.876368E-16	5.034966E-18
4.097104E+03	1.898314E-16	5.092088E-18
4.107025E+03	1.920828E-16	5.150686E-18
4.116945E+03	1.944009E-16	5.211023E-18
4.126865E+03	1.967923E-16	5.273272E-18
4.136786E+03	1.992668E-16	5.337696E-18
4.146706E+03	2.018375E-16	5.404638E-18
4.156626E+03	2.045065E-16	5.474158E-18
4.166547E+03	2.072862E-16	5.546580E-18
4.176467E+03	2.101813E-16	5.622025E-18
4.186387E+03	2.132025E-16	5.700780E-18
4.196308E+03	2.163564E-16	5.783016E-18
4.206228E+03	2.196454E-16	5.868791E-18
4.216149E+03	2.230810E-16	5.958411E-18
4.226069E+03	2.266601E-16	6.051785E-18
4.235989E+03	2.303922E-16	6.149165E-18
4.245910E+03	2.342790E-16	6.250587E-18
4.255830E+03	2.383208E-16	6.356059E-18
4.265750E+03	2.425206E-16	6.465653E-18
4.275671E+03	2.468766E-16	6.579318E-18
4.285591E+03	2.513899E-16	6.697076E-18
4.295511E+03	2.560570E-16	6.818830E-18
4.305432E+03	2.608851E-16	6.944767E-18
4.315352E+03	2.658622E-16	7.074558E-18
4.325272E+03	2.709952E-16	7.208386E-18
4.335193E+03	2.762794E-16	7.346120E-18
4.345113E+03	2.817189E-16	7.487864E-18
4.355033E+03	2.873102E-16	7.633517E-18
4.364954E+03	2.930590E-16	7.783227E-18
4.374874E+03	2.989682E-16	7.937067E-18
4.384794E+03	3.050414E-16	8.095123E-18
4.394715E+03	3.112774E-16	8.257361E-18
4.404635E+03	3.176880E-16	8.424087E-18
4.414556E+03	3.242664E-16	8.595113E-18
4.424476E+03	3.310034E-16	8.770193E-18
4.434396E+03	3.378920E-16	8.949131E-18
4.444317E+03	3.449216E-16	9.131645E-18
4.454237E+03	3.520594E-16	9.316860E-18
4.464157E+03	3.592963E-16	9.504531E-18
4.474078E+03	3.665904E-16	9.693547E-18
4.483998E+03	3.739240E-16	9.883435E-18
4.493918E+03	3.812508E-16	1.007297E-17
4.503839E+03	3.885299E-16	1.026108E-17
4.513759E+03	3.957224E-16	1.044673E-17
4.523679E+03	4.027813E-16	1.062867E-17
4.533600E+03	4.096526E-16	1.080551E-17
4.543520E+03	4.162974E-16	1.097620E-17
4.553440E+03	4.226617E-16	1.113934E-17
4.563361E+03	4.287041E-16	1.129385E-17
4.573281E+03	4.343811E-16	1.143858E-17
4.583201E+03	4.396542E-16	1.157254E-17
4.593122E+03	4.444959E-16	1.169502E-17
4.603042E+03	4.488862E-16	1.180550E-17
4.612963E+03	4.528071E-16	1.190353E-17
4.622883E+03	4.562598E-16	1.198915E-17
4.632803E+03	4.592371E-16	1.206219E-17
4.642724E+03	4.617572E-16	1.212314E-17
4.652644E+03	4.638394E-16	1.217253E-17
4.662564E+03	4.655163E-16	1.221122E-17
4.672485E+03	4.668149E-16	1.223994E-17
4.682405E+03	4.677831E-16	1.225995E-17
4.692325E+03	4.684564E-16	1.227220E-17
4.702246E+03	4.688888E-16	1.227811E-17
4.712166E+03	4.691241E-16	1.227883E-17
4.722086E+03	4.692114E-16	1.227567E-17
4.732007E+03	4.691989E-16	1.226987E-17
4.741927E+03	4.691322E-16	1.226264E-17
4.751847E+03	4.690487E-16	1.225496E-17
4.761768E+03	4.689825E-16	1.224772E-17
4.771688E+03	4.689636E-16	1.224169E-17
4.781608E+03	4.690123E-16	1.223742E-17
4.791529E+03	4.691448E-16	1.223532E-17
4.801449E+03	4.693728E-16	1.223568E-17
4.811370E+03	4.697197E-16	1.223913E-17
4.821290E+03	4.701787E-16	1.224547E-17
4.831210E+03	4.707657E-16	1.225512E-17
4.841131E+03	4.714723E-16	1.226785E-17
4.851051E+03	4.723035E-16	1.228379E-17
4.860971E+03	4.732514E-16	1.230273E-17
4.870892E+03	4.743176E-16	1.232470E-17
4.880812E+03	4.754975E-16	1.234959E-17
4.890732E+03	4.767815E-16	1.237714E-17
4.900653E+03	4.781712E-16	1.240739E-17
4.910573E+03	4.796647E-16	1.244028E-17
4.920493E+03	4.812575E-16	1.247569E-17
4.930414E+03	4.829644E-16	1.251401E-17
4.940334E+03	4.847831E-16	1.255517E-17
4.950254E+03	4.867369E-16	1.259976E-17
4.960175E+03	4.888385E-16	1.264812E-17
4.970095E+03	4.911160E-16	1.270097E-17
4.980015E+03	4.935918E-16	1.275887E-17
4.989936E+03	4.963030E-16	1.282277E-17
4.999856E+03	4.992800E-16	1.289346E-17
5.009777E+03	5.025717E-16	1.297219E-17
5.019697E+03	5.062129E-16	1.305984E-17
5.029617E+03	5.102441E-16	1.315744E-17
5.039538E+03	5.147057E-16	1.326601E-17
5.049458E+03	5.196418E-16	1.338670E-17
5.059378E+03	5.250837E-16	1.352026E-17
5.069299E+03	5.310700E-16	1.366769E-17
5.079219E+03	5.376302E-16	1.382972E-17
5.089139E+03	5.447833E-16	1.400681E-17
5.099060E+03	5.525603E-16	1.419974E-17
5.108980E+03	5.609634E-16	1.440855E-17
5.118900E+03	5.700116E-16	1.463369E-17
5.128821E+03	5.796997E-16	1.487501E-17
5.138741E+03	5.900210E-16	1.513231E-17
5.148661E+03	6.009606E-16	1.540518E-17
5.158582E+03	6.125014E-16	1.569316E-17
5.168502E+03	6.246051E-16	1.599525E-17
5.178422E+03	6.372299E-16	1.631036E-17
5.188343E+03	6.503314E-16	1.663733E-17
5.198263E+03	6.638493E-16	1.697460E-17
5.208183E+03	6.777067E-16	1.732018E-17
5.218104E+03	6.918247E-16	1.767206E-17
5.228024E+03	7.061232E-16	1.802816E-17
5.237945E+03	7.205084E-16	1.838610E-17
5.247865E+03	7.348732E-16	1.874314E-17
5.257785E+03	7.491220E-16	1.909684E-17
5.267706E+03	7.631424E-16	1.944433E-17
5.277626E+03	7.768301E-16	1.978299E-17
5.287546E+03	7.900924E-16	2.011045E-17
5.297467E+03	8.028269E-16	2.042413E-17
5.307387E+03	8.149558E-16	2.072207E-17
5.317307E+03	8.263955E-16	2.100217E-17
5.327228E+03	8.370830E-16	2.126286E-17
5.337148E+03	8.469781E-16	2.150315E-17
5.347068E+03	8.560286E-16	2.172174E-17
5.356989E+03	8.642306E-16	2.191857E-17
5.366909E+03	8.715668E-16	2.209324E-17
5.376829E+03	8.780302E-16	2.224559E-17
5.386750E+03	8.836476E-16	2.237636E-17
5.396670E+03	8.884238E-16	2.248568E-17
5.406590E+03	8.923641E-16	2.257372E-17
5.416511E+03	8.954892E-16	2.264106E-17
5.426431E+03	8.978063E-16	2.268789E-17
5.436352E+03	8.993059E-16	2.271401E-17
5.446272E+03	8.999899E-16	2.271951E-17
5.456192E+03	8.998422E-16	2.270400E-17
5.466113E+03	8.988295E-16	2.266669E-17
5.476033E+03	8.969368E-16	2.260723E-17
5.485953E+03	8.941401E-16	2.252504E-17
5.495874E+03	8.904560E-16	2.242059E-17
5.505794E+03	8.858947E-16	2.229417E-17
5.515714E+03	8.804986E-16	2.214687E-17
5.525635E+03	8.743446E-16	2.198067E-17
5.535555E+03	8.675184E-16	2.179774E-17
5.545475E+03	8.601478E-16	2.160132E-17
5.555396E+03	8.523745E-16	2.139499E-17
5.565316E+03	8.443675E-16	2.118301E-17
5.575236E+03	8.362936E-16	2.096957E-17
5.585157E+03	8.283389E-16	2.075933E-17
5.595077E+03	8.207044E-16	2.055732E-17
5.604997E+03	8.135772E-16	2.036822E-17
5.614918E+03	8.071591E-16	2.019706E-17
5.624838E+03	8.016395E-16	2.004854E-17
5.634759E+03	7.971997E-16	1.992716E-17
5.644679E+03	7.940108E-16	1.983716E-17
5.654599E+03	7.922311E-16	1.978244E-17
5.664520E+03	7.920038E-16	1.976651E-17
5.674440E+03	7.934557E-16	1.979249E-17
5.684360E+03	7.966946E-16	1.986300E-17
5.694281E+03	8.018162E-16	1.998034E-17
5.704201E+03	8.088696E-16	2.014568E-17
5.714121E+03	8.179121E-16	2.036037E-17
5.724042E+03	8.289577E-16	2.062467E-17
5.733962E+03	8.419750E-16	2.093772E-17
5.743882E+03	8.569335E-16	2.129871E-17
5.753803E+03	8.737436E-16	2.170532E-17
5.763723E+03	8.922964E-16	2.215479E-17
5.773643E+03	9.124278E-16	2.264297E-17
5.783564E+03	9.339354E-16	2.316479E-17
5.793484E+03	9.566079E-16	2.371496E-17
5.803404E+03	9.801716E-16	2.428665E-17
5.813325E+03	1.004332E-15	2.487255E-17
5.823245E+03	1.028772E-15	2.546477E-17
5.833166E+03	1.053157E-15	2.605501E-17
5.843086E+03	1.077132E-15	2.663454E-17
5.853006E+03	1.100366E-15	2.719517E-17
5.862927E+03	1.122517E-15	2.772851E-17
5.872847E+03	1.143287E-15	2.822719E-17
5.882767E+03	1.162370E-15	2.868377E-17
5.892688E+03	1.179547E-15	2.909289E-17
5.902608E+03	1.194596E-15	2.944915E-17
5.912528E+03	1.207380E-15	2.974925E-17
5.922449E+03	1.217779E-15	2.999034E-17
5.932369E+03	1.225778E-15	3.017214E-17
5.942289E+03	1.231380E-15	3.029480E-17
5.952210E+03	1.234652E-15	3.036004E-17
5.962130E+03	1.235695E-15	3.037049E-17
5.972050E+03	1.234666E-15	3.033004E-17
5.981971E+03	1.231767E-15	3.024375E-17
5.991891E+03	1.227188E-15	3.011636E-17
6.001811E+03	1.221175E-15	2.995392E-17
6.011732E+03	1.213966E-15	2.976237E-17
6.021652E+03	1.205788E-15	2.954730E-17
6.031573E+03	1.196886E-15	2.931473E-17
6.041493E+03	1.187477E-15	2.907000E-17
6.051413E+03	1.177747E-15	2.881771E-17
6.061334E+03	1.167885E-15	2.856247E-17
6.071254E+03	1.158043E-15	2.830800E-17
6.081174E+03	1.148334E-15	2.805706E-17
6.091095E+03	1.138881E-15	2.781267E-17
6.101015E+03	1.129747E-15	2.757633E-17
6.110935E+03	1.121005E-15	2.734981E-17
6.120856E+03	1.112647E-15	2.713293E-17
6.130776E+03	1.104729E-15	2.692703E-17
6.140696E+03	1.097211E-15	2.673111E-17
6.150617E+03	1.090099E-15	2.654530E-17
6.160537E+03	1.083357E-15	2.636871E-17
6.170457E+03	1.076970E-15	2.620099E-17
6.180378E+03	1.070892E-15	2.604097E-17
6.190298E+03	1.065104E-15	2.588822E-17
6.200218E+03	1.059610E-15	2.574280E-17
6.210139E+03	1.054402E-15	2.560450E-17
6.220059E+03	1.049496E-15	2.547372E-17
6.229979E+03	1.044923E-15	2.535118E-17
6.239900E+03	1.040714E-15	2.523765E-17
6.249820E+03	1.036935E-15	2.513469E-17
6.259741E+03	1.033626E-15	2.504326E-17
6.269661E+03	1.030875E-15	2.496552E-17
6.279581E+03	1.028742E-15	2.490285E-17
6.289502E+03	1.027282E-15	2.485656E-17
6.299422E+03	1.026575E-15	2.482863E-17
6.309342E+03	1.026640E-15	2.481942E-17
6.319263E+03	1.027545E-15	2.483060E-17
6.329183E+03	1.029278E-15	2.486183E-17
6.339103E+03	1.031862E-15	2.491366E-17
6.349024E+03	1.035268E-15	2.498536E-17
6.358944E+03	1.039471E-15	2.507629E-17
6.368864E+03	1.044400E-15	2.518474E-17
6.378785E+03	1.049992E-15	2.530914E-17
6.388705E+03	1.056166E-15	2.544755E-17
6.398625E+03	1.062827E-15	2.559768E-17
6.408546E+03	1.069885E-15	2.575730E-17
6.418466E+03	1.077214E-15	2.592344E-17
6.428386E+03	1.084725E-15	2.609387E-17
6.438307E+03	1.092263E-15	2.626491E-17
6.448227E+03	1.099698E-15	2.643344E-17
6.458148E+03	1.106889E-15	2.659607E-17
6.468068E+03	1.113713E-15	2.674982E-17
6.477988E+03	1.120047E-15	2.689178E-17
6.487909E+03	1.125783E-15	2.701939E-17
6.497829E+03	1.130790E-15	2.712948E-17
6.507749E+03	1.134954E-15	2.721934E-17
6.517670E+03	1.138212E-15	2.728753E-17
6.527590E+03	1.140438E-15	2.733100E-17
6.537510E+03	1.141599E-15	2.734902E-17
6.547431E+03	1.141630E-15	2.734004E-17
6.557351E+03	1.140497E-15	2.730329E-17
6.567271E+03	1.138217E-15	2.723919E-17
6.577192E+03	1.134773E-15	2.714737E-17
6.587112E+03	1.130238E-15	2.702959E-17
6.597032E+03	1.124633E-15	2.688642E-17
6.606953E+03	1.118055E-15	2.672016E-17
6.616873E+03	1.110572E-15	2.653245E-17
6.626793E+03	1.102290E-15	2.632587E-17
6.636714E+03	1.093311E-15	2.610285E-17
6.646634E+03	1.083740E-15	2.586593E-17
6.656555E+03	1.073685E-15	2.561770E-17
6.666475E+03	1.063255E-15	2.536075E-17
6.676395E+03	1.052582E-15	2.509823E-17
6.686316E+03	1.041728E-15	2.483163E-17
6.696236E+03	1.030830E-15	2.456424E-17
6.706156E+03	1.019969E-15	2.429793E-17
6.716077E+03	1.009218E-15	2.403450E-17
6.725997E+03	9.986880E-16	2.377655E-17
6.735917E+03	9.884439E-16	2.352562E-17
6.745838E+03	9.785610E-16	2.328350E-17
6.755758E+03	9.691230E-16	2.305217E-17
6.765678E+03	9.601846E-16	2.283291E-17
6.775599E+03	9.518098E-16	2.262725E-17
6.785519E+03	9.440707E-16	2.243687E-17
6.795439E+03	9.370228E-16	2.226308E-17
6.805360E+03	9.307031E-16	2.210675E-17
6.815280E+03	9.251676E-16	2.196918E-17
6.825200E+03	9.204398E-16	2.185093E-17
6.835121E+03	9.165598E-16	2.175292E-17
6.845041E+03	9.135340E-16	2.167528E-17
6.854962E+03	9.113951E-16	2.161879E-17
6.864882E+03	9.101055E-16	2.158253E-17
6.874802E+03	9.096908E-16	2.156708E-17
6.884723E+03	9.101057E-16	2.157137E-17
6.894643E+03	9.113335E-16	2.159497E-17
6.904563E+03	9.133254E-16	2.163673E-17
6.914484E+03	9.160521E-16	2.169592E-17
6.924404E+03	9.194558E-16	2.177118E-17
6.934324E+03	9.235021E-16	2.186167E-17
6.944245E+03	9.281316E-16	2.196598E-17
6.954165E+03	9.333127E-16	2.208335E-17
6.964085E+03	9.389912E-16	2.221250E-17
6.974006E+03	9.451448E-16	2.235289E-17
6.983926E+03	9.517305E-16	2.250349E-17
6.993846E+03	9.587246E-16	2.266374E-17
7.003767E+03	9.661104E-16	2.283324E-17
7.013687E+03	9.738774E-16	2.301174E-17
7.023607E+03	9.820199E-16	2.319910E-17
7.033528E+03	9.905374E-16	2.339530E-17
7.043448E+03	9.994322E-16	2.360040E-17
7.053369E+03	1.008708E-15	2.381447E-17
7.063289E+03	1.018368E-15	2.403761E-17
7.073209E+03	1.028400E-15	2.426950E-17
7.083130E+03	1.038802E-15	2.451009E-17
7.093050E+03	1.049581E-15	2.475956E-17
7.102970E+03	1.060708E-15	2.501723E-17
7.112891E+03	1.072163E-15	2.528260E-17
7.122811E+03	1.083916E-15	2.555497E-17
7.132731E+03	1.095926E-15	2.583340E-17
7.142652E+03	1.108130E-15	2.611636E-17
7.152572E+03	1.120483E-15	2.640284E-17
7.162492E+03	1.132902E-15	2.669084E-17
7.172413E+03	1.145307E-15	2.697852E-17
7.182333E+03	1.157612E-15	2.726383E-17
7.192253E+03	1.169723E-15	2.754455E-17
7.202174E+03	1.181538E-15	2.781834E-17
7.212094E+03	1.192920E-15	2.808193E-17
7.222014E+03	1.203795E-15	2.833360E-17
7.231935E+03	1.214021E-15	2.857002E-17
7.241855E+03	1.223511E-15	2.878915E-17
7.251775E+03	1.232165E-15	2.898868E-17
7.261696E+03	1.239856E-15	2.916558E-17
7.271616E+03	1.246519E-15	2.931839E-17
7.281537E+03	1.252068E-15	2.944504E-17
7.291457E+03	1.256446E-15	2.954427E-17
7.301377E+03	1.259616E-15	2.961517E-17
7.311298E+03	1.261537E-15	2.965680E-17
7.321218E+03	1.262224E-15	2.966954E-17
7.331138E+03	1.261655E-15	2.965286E-17
7.341059E+03	1.259881E-15	2.960800E-17
7.350979E+03	1.256916E-15	2.953531E-17
7.360899E+03	1.252869E-15	2.943731E-17
7.370820E+03	1.247809E-15	2.931565E-17
7.380740E+03	1.241838E-15	2.917274E-17
7.390660E+03	1.235076E-15	2.901142E-17
7.400581E+03	1.227677E-15	2.883528E-17
7.410501E+03	1.219749E-15	2.864688E-17
7.420421E+03	1.211489E-15	2.845083E-17
7.430342E+03	1.203046E-15	2.825064E-17
7.440262E+03	1.194614E-15	2.805088E-17
7.450182E+03	1.186394E-15	2.785625E-17
7.460103E+03	1.178552E-15	2.767067E-17
7.470023E+03	1.171295E-15	2.749896E-17
7.479944E+03	1.164808E-15	2.734546E-17
7.489864E+03	1.159291E-15	2.721491E-17
7.499784E+03	1.154904E-15	2.711102E-17
7.509705E+03	1.151833E-15	2.703815E-17
7.519625E+03	1.150235E-15	2.700003E-17
7.529545E+03	1.150255E-15	2.700003E-17
7.539466E+03	1.152022E-15	2.704116E-17
7.549386E+03	1.155663E-15	2.712645E-17
7.559306E+03	1.161268E-15	2.725799E-17
7.569227E+03	1.168904E-15	2.743734E-17
7.579147E+03	1.178592E-15	2.766501E-17
7.589067E+03	1.190380E-15	2.794215E-17
7.598988E+03	1.204212E-15	2.826744E-17
7.608908E+03	1.220075E-15	2.864057E-17
7.618828E+03	1.237863E-15	2.905910E-17
7.628749E+03	1.257475E-15	2.952067E-17
7.638669E+03	1.278715E-15	3.002066E-17
7.648589E+03	1.301451E-15	3.055603E-17
7.658510E+03	1.325396E-15	3.112003E-17
7.668430E+03	1.350334E-15	3.170759E-17
7.678351E+03	1.375934E-15	3.231100E-17
7.688271E+03	1.401929E-15	3.292398E-17
7.698191E+03	1.427991E-15	3.353884E-17
