#wls	flux	fluxerr
1.587256E+03	3.442764E-18	1.504311E-19
1.626937E+03	3.649922E-18	1.593001E-19
1.666619E+03	3.808763E-18	1.660371E-19
1.706300E+03	3.911195E-18	1.702966E-19
1.745982E+03	3.948031E-18	1.716874E-19
1.785663E+03	3.903419E-18	1.695314E-19
1.825344E+03	3.760361E-18	1.631050E-19
1.865026E+03	3.509418E-18	1.520165E-19
1.904707E+03	3.151665E-18	1.363321E-19
1.944389E+03	2.711243E-18	1.171154E-19
1.984070E+03	2.236902E-18	9.648588E-20
2.023751E+03	1.796319E-18	7.736699E-20
2.063433E+03	1.454860E-18	6.256508E-20
2.103114E+03	1.253382E-18	5.381660E-20
2.142795E+03	1.207664E-18	5.177062E-20
2.182477E+03	1.325041E-18	5.670922E-20
2.222158E+03	1.616846E-18	6.908155E-20
2.261840E+03	2.097660E-18	8.947041E-20
2.301521E+03	2.771055E-18	1.179836E-19
2.341202E+03	3.626280E-18	1.541172E-19
2.380884E+03	4.637927E-18	1.967466E-19
2.420565E+03	5.774342E-18	2.444893E-19
2.460247E+03	7.008105E-18	2.961499E-19
2.499928E+03	8.312308E-18	3.505628E-19
2.539609E+03	9.671950E-18	4.070713E-19
2.579291E+03	1.107616E-17	4.651968E-19
2.618972E+03	1.251507E-17	5.245051E-19
2.658654E+03	1.398891E-17	5.849886E-19
2.698335E+03	1.549503E-17	6.465179E-19
2.738016E+03	1.703390E-17	7.090944E-19
2.777698E+03	1.860431E-17	7.726484E-19
2.817379E+03	2.020749E-17	8.372120E-19
2.857061E+03	2.184763E-17	9.029380E-19
2.896742E+03	2.352027E-17	9.696214E-19
2.936423E+03	2.523199E-17	1.037511E-18
2.976105E+03	2.698987E-17	1.106874E-18
2.986025E+03	2.743663E-17	1.124445E-18
2.995946E+03	2.788460E-17	1.142037E-18
3.005866E+03	2.834056E-17	1.159928E-18
3.015786E+03	2.879973E-17	1.177922E-18
3.025707E+03	2.927279E-17	1.196453E-18
3.035627E+03	2.976771E-17	1.215848E-18
3.045547E+03	3.027895E-17	1.235876E-18
3.055468E+03	3.081304E-17	1.256803E-18
3.065388E+03	3.136110E-17	1.278265E-18
3.075308E+03	3.192874E-17	1.300490E-18
3.085229E+03	3.250710E-17	1.323114E-18
3.095149E+03	3.310215E-17	1.346379E-18
3.105069E+03	3.370882E-17	1.370077E-18
3.114990E+03	3.432579E-17	1.394154E-18
3.124910E+03	3.495182E-17	1.418558E-18
3.134830E+03	3.558966E-17	1.443400E-18
3.144751E+03	3.623833E-17	1.468637E-18
3.154671E+03	3.689282E-17	1.494068E-18
3.164591E+03	3.755212E-17	1.519649E-18
3.174512E+03	3.822349E-17	1.545673E-18
3.184432E+03	3.889792E-17	1.571776E-18
3.194353E+03	3.957870E-17	1.598089E-18
3.204273E+03	4.026513E-17	1.624583E-18
3.214193E+03	4.096079E-17	1.651402E-18
3.224114E+03	4.166078E-17	1.678348E-18
3.234034E+03	4.236448E-17	1.705394E-18
3.243954E+03	4.307127E-17	1.732515E-18
3.253875E+03	4.378943E-17	1.760044E-18
3.263795E+03	4.450967E-17	1.787605E-18
3.273715E+03	4.523591E-17	1.815356E-18
3.283636E+03	4.596775E-17	1.843279E-18
3.293556E+03	4.670928E-17	1.871539E-18
3.303476E+03	4.745557E-17	1.899935E-18
3.313397E+03	4.820624E-17	1.928453E-18
3.323317E+03	4.896537E-17	1.957254E-18
3.333237E+03	4.973274E-17	1.986329E-18
3.343158E+03	5.051254E-17	2.015843E-18
3.353078E+03	5.129512E-17	2.045411E-18
3.362998E+03	5.208943E-17	2.075389E-18
3.372919E+03	5.289509E-17	2.105759E-18
3.382839E+03	5.370698E-17	2.136316E-18
3.392760E+03	5.453417E-17	2.167421E-18
3.402680E+03	5.537144E-17	2.198864E-18
3.412600E+03	5.621843E-17	2.230630E-18
3.422521E+03	5.708413E-17	2.263073E-18
3.432441E+03	5.795852E-17	2.295794E-18
3.442361E+03	5.884586E-17	2.328961E-18
3.452282E+03	5.974562E-17	2.362551E-18
3.462202E+03	6.066203E-17	2.396729E-18
3.472122E+03	6.159454E-17	2.431473E-18
3.482043E+03	6.254247E-17	2.466752E-18
3.491963E+03	6.350528E-17	2.502544E-18
3.501883E+03	6.448238E-17	2.538823E-18
3.511804E+03	6.547785E-17	2.575749E-18
3.521724E+03	6.648638E-17	2.613110E-18
3.531644E+03	6.751695E-17	2.651257E-18
3.541565E+03	6.855942E-17	2.689789E-18
3.551485E+03	6.962292E-17	2.729063E-18
3.561405E+03	7.070225E-17	2.768871E-18
3.571326E+03	7.180191E-17	2.809390E-18
3.581246E+03	7.291680E-17	2.850415E-18
3.591167E+03	7.405165E-17	2.892131E-18
3.601087E+03	7.520643E-17	2.934533E-18
3.611007E+03	7.638124E-17	2.977622E-18
3.620928E+03	7.758095E-17	3.021586E-18
3.630848E+03	7.879655E-17	3.066070E-18
3.640768E+03	8.003786E-17	3.111455E-18
3.650689E+03	8.130074E-17	3.157576E-18
3.660609E+03	8.259049E-17	3.204636E-18
3.670529E+03	8.390328E-17	3.252482E-18
3.680450E+03	8.524008E-17	3.301150E-18
3.690370E+03	8.660637E-17	3.350848E-18
3.700290E+03	8.800330E-17	3.401616E-18
3.710211E+03	8.943190E-17	3.453491E-18
3.720131E+03	9.088892E-17	3.506343E-18
3.730051E+03	9.237563E-17	3.560217E-18
3.739972E+03	9.389772E-17	3.615328E-18
3.749892E+03	9.545637E-17	3.671716E-18
3.759812E+03	9.705266E-17	3.729419E-18
3.769733E+03	9.867875E-17	3.788130E-18
3.779653E+03	1.003488E-16	3.848388E-18
3.789574E+03	1.020501E-16	3.909702E-18
3.799494E+03	1.037920E-16	3.972426E-18
3.809414E+03	1.055747E-16	4.036555E-18
3.819335E+03	1.073892E-16	4.101748E-18
3.829255E+03	1.092394E-16	4.168149E-18
3.839175E+03	1.111290E-16	4.235886E-18
3.849096E+03	1.130480E-16	4.304584E-18
3.859016E+03	1.149951E-16	4.374180E-18
3.868936E+03	1.169770E-16	4.444928E-18
3.878857E+03	1.189790E-16	4.516264E-18
3.888777E+03	1.210071E-16	4.588418E-18
3.898697E+03	1.230551E-16	4.661143E-18
3.908618E+03	1.251204E-16	4.734338E-18
3.918538E+03	1.271964E-16	4.807757E-18
3.928458E+03	1.292851E-16	4.881469E-18
3.938379E+03	1.313802E-16	4.955235E-18
3.948299E+03	1.334839E-16	5.029136E-18
3.958219E+03	1.355865E-16	5.102805E-18
3.968140E+03	1.376867E-16	5.176193E-18
3.978060E+03	1.397882E-16	5.249437E-18
3.987981E+03	1.418867E-16	5.322374E-18
3.997901E+03	1.439828E-16	5.395028E-18
4.007821E+03	1.460776E-16	5.467441E-18
4.017742E+03	1.481692E-16	5.539536E-18
4.027662E+03	1.502642E-16	5.611565E-18
4.037582E+03	1.523581E-16	5.683354E-18
4.047503E+03	1.544550E-16	5.755059E-18
4.057423E+03	1.565638E-16	5.827007E-18
4.067343E+03	1.586897E-16	5.899391E-18
4.077264E+03	1.608306E-16	5.972128E-18
4.087184E+03	1.629928E-16	6.045451E-18
4.097104E+03	1.651868E-16	6.119745E-18
4.107025E+03	1.674155E-16	6.195109E-18
4.116945E+03	1.696819E-16	6.271656E-18
4.126865E+03	1.719973E-16	6.349789E-18
4.136786E+03	1.743687E-16	6.429768E-18
4.146706E+03	1.767959E-16	6.511570E-18
4.156626E+03	1.792901E-16	6.595599E-18
4.166547E+03	1.818585E-16	6.682111E-18
4.176467E+03	1.845004E-16	6.771076E-18
4.186387E+03	1.872307E-16	6.863020E-18
4.196308E+03	1.900518E-16	6.958025E-18
4.206228E+03	1.929664E-16	7.056170E-18
4.216149E+03	1.959840E-16	7.157794E-18
4.226069E+03	1.991023E-16	7.262800E-18
4.235989E+03	2.023342E-16	7.371635E-18
4.245910E+03	2.056761E-16	7.484163E-18
4.255830E+03	2.091321E-16	7.600507E-18
4.265750E+03	2.127094E-16	7.720915E-18
4.275671E+03	2.164066E-16	7.845322E-18
4.285591E+03	2.202261E-16	7.973791E-18
4.295511E+03	2.241690E-16	8.106350E-18
4.305432E+03	2.282324E-16	8.242871E-18
4.315352E+03	2.324164E-16	8.383344E-18
4.325272E+03	2.367209E-16	8.527746E-18
4.335193E+03	2.411498E-16	8.676200E-18
4.345113E+03	2.456904E-16	8.828227E-18
4.355033E+03	2.503546E-16	8.984243E-18
4.364954E+03	2.551348E-16	9.143956E-18
4.374874E+03	2.600286E-16	9.307257E-18
4.384794E+03	2.650459E-16	9.474487E-18
4.394715E+03	2.701793E-16	9.645363E-18
4.404635E+03	2.754336E-16	9.820038E-18
4.414556E+03	2.808079E-16	9.998462E-18
4.424476E+03	2.862954E-16	1.018037E-17
4.434396E+03	2.918867E-16	1.036542E-17
4.444317E+03	2.975830E-16	1.055363E-17
4.454237E+03	3.033654E-16	1.074432E-17
4.464157E+03	3.092200E-16	1.093697E-17
4.474078E+03	3.151341E-16	1.113114E-17
4.483998E+03	3.210782E-16	1.132576E-17
4.493918E+03	3.270369E-16	1.152030E-17
4.503839E+03	3.329685E-16	1.171327E-17
4.513759E+03	3.388561E-16	1.190409E-17
4.523679E+03	3.446512E-16	1.209105E-17
4.533600E+03	3.503224E-16	1.227308E-17
4.543520E+03	3.558277E-16	1.244871E-17
4.553440E+03	3.611346E-16	1.261683E-17
4.563361E+03	3.662070E-16	1.277622E-17
4.573281E+03	3.710020E-16	1.292540E-17
4.583201E+03	3.754953E-16	1.306358E-17
4.593122E+03	3.796581E-16	1.318979E-17
4.603042E+03	3.834783E-16	1.330366E-17
4.612963E+03	3.869356E-16	1.340454E-17
4.622883E+03	3.900371E-16	1.349272E-17
4.632803E+03	3.927769E-16	1.356806E-17
4.642724E+03	3.951662E-16	1.363099E-17
4.652644E+03	3.972273E-16	1.368233E-17
4.662564E+03	3.989773E-16	1.372272E-17
4.672485E+03	4.004429E-16	1.375313E-17
4.682405E+03	4.016538E-16	1.377460E-17
4.692325E+03	4.026421E-16	1.378829E-17
4.702246E+03	4.034360E-16	1.379518E-17
4.712166E+03	4.040795E-16	1.379681E-17
4.722086E+03	4.046061E-16	1.379434E-17
4.732007E+03	4.050438E-16	1.378875E-17
4.741927E+03	4.054292E-16	1.378129E-17
4.751847E+03	4.057922E-16	1.377298E-17
4.761768E+03	4.061603E-16	1.376477E-17
4.771688E+03	4.065585E-16	1.375749E-17
4.781608E+03	4.070086E-16	1.375188E-17
4.791529E+03	4.075338E-16	1.374871E-17
4.801449E+03	4.081394E-16	1.374815E-17
4.811370E+03	4.088368E-16	1.375057E-17
4.821290E+03	4.096434E-16	1.375654E-17
4.831210E+03	4.105547E-16	1.376590E-17
4.841131E+03	4.115733E-16	1.377871E-17
4.851051E+03	4.127090E-16	1.379529E-17
4.860971E+03	4.139552E-16	1.381539E-17
4.870892E+03	4.153083E-16	1.383888E-17
4.880812E+03	4.167679E-16	1.386573E-17
4.890732E+03	4.183230E-16	1.389556E-17
4.900653E+03	4.199710E-16	1.392827E-17
4.910573E+03	4.217091E-16	1.396374E-17
4.920493E+03	4.235260E-16	1.400160E-17
4.930414E+03	4.254215E-16	1.404182E-17
4.940334E+03	4.273895E-16	1.408419E-17
4.950254E+03	4.294420E-16	1.412909E-17
4.960175E+03	4.315872E-16	1.417678E-17
4.970095E+03	4.338335E-16	1.422752E-17
4.980015E+03	4.362051E-16	1.428208E-17
4.989936E+03	4.387306E-16	1.434138E-17
4.999856E+03	4.414286E-16	1.440601E-17
5.009777E+03	4.443444E-16	1.447741E-17
5.019697E+03	4.475010E-16	1.455629E-17
5.029617E+03	4.509357E-16	1.464383E-17
5.039538E+03	4.546803E-16	1.474101E-17
5.049458E+03	4.587643E-16	1.484874E-17
5.059378E+03	4.632196E-16	1.496800E-17
5.069299E+03	4.680644E-16	1.509931E-17
5.079219E+03	4.733233E-16	1.524339E-17
5.089139E+03	4.790117E-16	1.540069E-17
5.099060E+03	4.851357E-16	1.557133E-17
5.108980E+03	4.917123E-16	1.575577E-17
5.118900E+03	4.987387E-16	1.595386E-17
5.128821E+03	5.062134E-16	1.616547E-17
5.138741E+03	5.141299E-16	1.639032E-17
5.148661E+03	5.224834E-16	1.662820E-17
5.158582E+03	5.312482E-16	1.687820E-17
5.168502E+03	5.404215E-16	1.714018E-17
5.178422E+03	5.499677E-16	1.741295E-17
5.188343E+03	5.598573E-16	1.769550E-17
5.198263E+03	5.700609E-16	1.798686E-17
5.208183E+03	5.805378E-16	1.828569E-17
5.218104E+03	5.912347E-16	1.859027E-17
5.228024E+03	6.021052E-16	1.889911E-17
5.237945E+03	6.130843E-16	1.921015E-17
5.247865E+03	6.241204E-16	1.952175E-17
5.257785E+03	6.351320E-16	1.983136E-17
5.267706E+03	6.460457E-16	2.013670E-17
5.277626E+03	6.567990E-16	2.043585E-17
5.287546E+03	6.673007E-16	2.072599E-17
5.297467E+03	6.774796E-16	2.100497E-17
5.307387E+03	6.872527E-16	2.127027E-17
5.317307E+03	6.965548E-16	2.151994E-17
5.327228E+03	7.053263E-16	2.175223E-17
5.337148E+03	7.134862E-16	2.196474E-17
5.347068E+03	7.210054E-16	2.215666E-17
5.356989E+03	7.278269E-16	2.232637E-17
5.366909E+03	7.339301E-16	2.247335E-17
5.376829E+03	7.392629E-16	2.259612E-17
5.386750E+03	7.438217E-16	2.269472E-17
5.396670E+03	7.475735E-16	2.276826E-17
5.406590E+03	7.504841E-16	2.281584E-17
5.416511E+03	7.525317E-16	2.283693E-17
5.426431E+03	7.536837E-16	2.283071E-17
5.436352E+03	7.538971E-16	2.279601E-17
5.446272E+03	7.531433E-16	2.273213E-17
5.456192E+03	7.513842E-16	2.263809E-17
5.466113E+03	7.485770E-16	2.251276E-17
5.476033E+03	7.447003E-16	2.235568E-17
5.485953E+03	7.397345E-16	2.216643E-17
5.495874E+03	7.337200E-16	2.194639E-17
5.505794E+03	7.267149E-16	2.169747E-17
5.515714E+03	7.187956E-16	2.142211E-17
5.525635E+03	7.100964E-16	2.112444E-17
5.535555E+03	7.007538E-16	2.080865E-17
5.545475E+03	6.909275E-16	2.047957E-17
5.555396E+03	6.807874E-16	2.014231E-17
5.565316E+03	6.705144E-16	1.980226E-17
5.575236E+03	6.602753E-16	1.946435E-17
5.585157E+03	6.502471E-16	1.913378E-17
5.595077E+03	6.405888E-16	1.881519E-17
5.604997E+03	6.314677E-16	1.851343E-17
5.614918E+03	6.230322E-16	1.823274E-17
5.624838E+03	6.154310E-16	1.797737E-17
5.634759E+03	6.088107E-16	1.775144E-17
5.644679E+03	6.033021E-16	1.755862E-17
5.654599E+03	5.990137E-16	1.740186E-17
5.664520E+03	5.960648E-16	1.728445E-17
5.674440E+03	5.945428E-16	1.720868E-17
5.684360E+03	5.945311E-16	1.717674E-17
5.694281E+03	5.960786E-16	1.718981E-17
5.704201E+03	5.992381E-16	1.724916E-17
5.714121E+03	6.040238E-16	1.735493E-17
5.724042E+03	6.104322E-16	1.750678E-17
5.733962E+03	6.184286E-16	1.770345E-17
5.743882E+03	6.279706E-16	1.794349E-17
5.753803E+03	6.389651E-16	1.822398E-17
5.763723E+03	6.513117E-16	1.854186E-17
5.773643E+03	6.648728E-16	1.889300E-17
5.783564E+03	6.795008E-16	1.927303E-17
5.793484E+03	6.950152E-16	1.967667E-17
5.803404E+03	7.112317E-16	2.009859E-17
5.813325E+03	7.279334E-16	2.053255E-17
5.823245E+03	7.449235E-16	2.097295E-17
5.833166E+03	7.619752E-16	2.141338E-17
5.843086E+03	7.788861E-16	2.184815E-17
5.853006E+03	7.954560E-16	2.227168E-17
5.862927E+03	8.114901E-16	2.267860E-17
5.872847E+03	8.268261E-16	2.306446E-17
5.882767E+03	8.412986E-16	2.342478E-17
5.892688E+03	8.547970E-16	2.375662E-17
5.902608E+03	8.672016E-16	2.405682E-17
5.912528E+03	8.784424E-16	2.432361E-17
5.922449E+03	8.884592E-16	2.455552E-17
5.932369E+03	8.972281E-16	2.475207E-17
5.942289E+03	9.047527E-16	2.491358E-17
5.952210E+03	9.110646E-16	2.504109E-17
5.962130E+03	9.162127E-16	2.513615E-17
5.972050E+03	9.202780E-16	2.520115E-17
5.981971E+03	9.233609E-16	2.523900E-17
5.991891E+03	9.255770E-16	2.525302E-17
6.001811E+03	9.270431E-16	2.524652E-17
6.011732E+03	9.278901E-16	2.522317E-17
6.021652E+03	9.282484E-16	2.518662E-17
6.031573E+03	9.282364E-16	2.514014E-17
6.041493E+03	9.279729E-16	2.508700E-17
6.051413E+03	9.275575E-16	2.502994E-17
6.061334E+03	9.270950E-16	2.497180E-17
6.071254E+03	9.266495E-16	2.491433E-17
6.081174E+03	9.263049E-16	2.485976E-17
6.091095E+03	9.260936E-16	2.480896E-17
6.101015E+03	9.260577E-16	2.476304E-17
6.110935E+03	9.262132E-16	2.472240E-17
6.120856E+03	9.265586E-16	2.468699E-17
6.130776E+03	9.270939E-16	2.465678E-17
6.140696E+03	9.277849E-16	2.463084E-17
6.150617E+03	9.285664E-16	2.460742E-17
6.160537E+03	9.293716E-16	2.458475E-17
6.170457E+03	9.301380E-16	2.456119E-17
6.180378E+03	9.307936E-16	2.453484E-17
6.190298E+03	9.312812E-16	2.450423E-17
6.200218E+03	9.315640E-16	2.446841E-17
6.210139E+03	9.316016E-16	2.442636E-17
6.220059E+03	9.314007E-16	2.437829E-17
6.229979E+03	9.309600E-16	2.432422E-17
6.239900E+03	9.303181E-16	2.426518E-17
6.249820E+03	9.295319E-16	2.420269E-17
6.259741E+03	9.286667E-16	2.413847E-17
6.269661E+03	9.278087E-16	2.407477E-17
6.279581E+03	9.270349E-16	2.401359E-17
6.289502E+03	9.264619E-16	2.395795E-17
6.299422E+03	9.261576E-16	2.390957E-17
6.309342E+03	9.262290E-16	2.387118E-17
6.319263E+03	9.267217E-16	2.384391E-17
6.329183E+03	9.276919E-16	2.382916E-17
6.339103E+03	9.291830E-16	2.382799E-17
6.349024E+03	9.311858E-16	2.384010E-17
6.358944E+03	9.336846E-16	2.386504E-17
6.368864E+03	9.366299E-16	2.390149E-17
6.378785E+03	9.399594E-16	2.394781E-17
6.388705E+03	9.435834E-16	2.400169E-17
6.398625E+03	9.474088E-16	2.406074E-17
6.408546E+03	9.513174E-16	2.412194E-17
6.418466E+03	9.552102E-16	2.418279E-17
6.428386E+03	9.589865E-16	2.424073E-17
6.438307E+03	9.625476E-16	2.429328E-17
6.448227E+03	9.658416E-16	2.433917E-17
6.458148E+03	9.688040E-16	2.437678E-17
6.468068E+03	9.714165E-16	2.440570E-17
6.477988E+03	9.736364E-16	2.442490E-17
6.487909E+03	9.754083E-16	2.443301E-17
6.497829E+03	9.766121E-16	2.442708E-17
6.507749E+03	9.771233E-16	2.440406E-17
6.517670E+03	9.768351E-16	2.436136E-17
6.527590E+03	9.756447E-16	2.429648E-17
6.537510E+03	9.734615E-16	2.420728E-17
6.547431E+03	9.702447E-16	2.409284E-17
6.557351E+03	9.659863E-16	2.395305E-17
6.567271E+03	9.606797E-16	2.378786E-17
6.577192E+03	9.543918E-16	2.359901E-17
6.587112E+03	9.471925E-16	2.338832E-17
6.597032E+03	9.391704E-16	2.315807E-17
6.606953E+03	9.304270E-16	2.291083E-17
6.616873E+03	9.210711E-16	2.264932E-17
6.626793E+03	9.112161E-16	2.237639E-17
6.636714E+03	9.009852E-16	2.209509E-17
6.646634E+03	8.904875E-16	2.180813E-17
6.656555E+03	8.798177E-16	2.151783E-17
6.666475E+03	8.690918E-16	2.122703E-17
6.676395E+03	8.583886E-16	2.093765E-17
6.686316E+03	8.477869E-16	2.065160E-17
6.696236E+03	8.373677E-16	2.037082E-17
6.706156E+03	8.271932E-16	2.009680E-17
6.716077E+03	8.173093E-16	1.983062E-17
6.725997E+03	8.077750E-16	1.957368E-17
6.735917E+03	7.986344E-16	1.932699E-17
6.745838E+03	7.899276E-16	1.909148E-17
6.755758E+03	7.817008E-16	1.886823E-17
6.765678E+03	7.739802E-16	1.865780E-17
6.775599E+03	7.667981E-16	1.846093E-17
6.785519E+03	7.601858E-16	1.827831E-17
6.795439E+03	7.541808E-16	1.811078E-17
6.805360E+03	7.488083E-16	1.795888E-17
6.815280E+03	7.440812E-16	1.782287E-17
6.825200E+03	7.400258E-16	1.770330E-17
6.835121E+03	7.366545E-16	1.760042E-17
6.845041E+03	7.339651E-16	1.751409E-17
6.854962E+03	7.319667E-16	1.744448E-17
6.864882E+03	7.306527E-16	1.739137E-17
6.874802E+03	7.300018E-16	1.735418E-17
6.884723E+03	7.300039E-16	1.733261E-17
6.894643E+03	7.306344E-16	1.732602E-17
6.904563E+03	7.318651E-16	1.733369E-17
6.914484E+03	7.336645E-16	1.735482E-17
6.924404E+03	7.359902E-16	1.738835E-17
6.934324E+03	7.388089E-16	1.743346E-17
6.944245E+03	7.421062E-16	1.748976E-17
6.954165E+03	7.458334E-16	1.755607E-17
6.964085E+03	7.499626E-16	1.763169E-17
6.974006E+03	7.544693E-16	1.771601E-17
6.983926E+03	7.593410E-16	1.780872E-17
6.993846E+03	7.645505E-16	1.790914E-17
7.003767E+03	7.700825E-16	1.801689E-17
7.013687E+03	7.759231E-16	1.813162E-17
7.023607E+03	7.820614E-16	1.825306E-17
7.033528E+03	7.884863E-16	1.838092E-17
7.043448E+03	7.951762E-16	1.851468E-17
7.053369E+03	8.021189E-16	1.865403E-17
7.063289E+03	8.093092E-16	1.879885E-17
7.073209E+03	8.167099E-16	1.894825E-17
7.083130E+03	8.243191E-16	1.910217E-17
7.093050E+03	8.320914E-16	1.925955E-17
7.102970E+03	8.399962E-16	1.941969E-17
7.112891E+03	8.479989E-16	1.958177E-17
7.122811E+03	8.560703E-16	1.974511E-17
7.132731E+03	8.641459E-16	1.990825E-17
7.142652E+03	8.721776E-16	2.007007E-17
7.152572E+03	8.801152E-16	2.022943E-17
7.162492E+03	8.879041E-16	2.038510E-17
7.172413E+03	8.954779E-16	2.053556E-17
7.182333E+03	9.027785E-16	2.067953E-17
7.192253E+03	9.097474E-16	2.081569E-17
7.202174E+03	9.163265E-16	2.094274E-17
7.212094E+03	9.224354E-16	2.105890E-17
7.222014E+03	9.280196E-16	2.116296E-17
7.231935E+03	9.330394E-16	2.125406E-17
7.241855E+03	9.374265E-16	2.133072E-17
7.251775E+03	9.411423E-16	2.139210E-17
7.261696E+03	9.441570E-16	2.143760E-17
7.271616E+03	9.464496E-16	2.146678E-17
7.281537E+03	9.479861E-16	2.147896E-17
7.291457E+03	9.487663E-16	2.147418E-17
7.301377E+03	9.488009E-16	2.145275E-17
7.311298E+03	9.481107E-16	2.141521E-17
7.321218E+03	9.467144E-16	2.136202E-17
7.331138E+03	9.446402E-16	2.129390E-17
7.341059E+03	9.419367E-16	2.121197E-17
7.350979E+03	9.386595E-16	2.111755E-17
7.360899E+03	9.348721E-16	2.101211E-17
7.370820E+03	9.306325E-16	2.089699E-17
7.380740E+03	9.260035E-16	2.077363E-17
7.390660E+03	9.210886E-16	2.064438E-17
7.400581E+03	9.159604E-16	2.051089E-17
7.410501E+03	9.107176E-16	2.037539E-17
7.420421E+03	9.054509E-16	2.023993E-17
7.430342E+03	9.002527E-16	2.010656E-17
7.440262E+03	8.952281E-16	1.997764E-17
7.450182E+03	8.904723E-16	1.985528E-17
7.460103E+03	8.860803E-16	1.974159E-17
7.470023E+03	8.821579E-16	1.963892E-17
7.479944E+03	8.787982E-16	1.954932E-17
7.489864E+03	8.761035E-16	1.947504E-17
7.499784E+03	8.741500E-16	1.941775E-17
7.509705E+03	8.730434E-16	1.937978E-17
7.519625E+03	8.728494E-16	1.936255E-17
7.529545E+03	8.736489E-16	1.936782E-17
7.539466E+03	8.755011E-16	1.939689E-17
7.549386E+03	8.784651E-16	1.945103E-17
7.559306E+03	8.825638E-16	1.953073E-17
7.569227E+03	8.878147E-16	1.963636E-17
7.579147E+03	8.942417E-16	1.976842E-17
7.589067E+03	9.018151E-16	1.992625E-17
7.598988E+03	9.105083E-16	2.010925E-17
7.608908E+03	9.202381E-16	2.031559E-17
7.618828E+03	9.309611E-16	2.054431E-17
7.628749E+03	9.425540E-16	2.079271E-17
7.638669E+03	9.549117E-16	2.105849E-17
7.648589E+03	9.678993E-16	2.133871E-17
7.658510E+03	9.813546E-16	2.162983E-17
7.668430E+03	9.951426E-16	2.192890E-17
7.678351E+03	1.009066E-15	2.223163E-17
7.688271E+03	1.022974E-15	2.253476E-17
7.698191E+03	1.036658E-15	2.283375E-17
