#wls	flux	fluxerr
1.587256E+03	3.898671E-18	1.280638E-19
1.626937E+03	4.132625E-18	1.352583E-19
1.666619E+03	4.312442E-18	1.406207E-19
1.706300E+03	4.427411E-18	1.438210E-19
1.745982E+03	4.468687E-18	1.445962E-19
1.785663E+03	4.417521E-18	1.423694E-19
1.825344E+03	4.254750E-18	1.365619E-19
1.865026E+03	3.970408E-18	1.269004E-19
1.904707E+03	3.565666E-18	1.134737E-19
1.944389E+03	3.067095E-18	9.717657E-20
1.984070E+03	2.530431E-18	7.981072E-20
2.023751E+03	2.032105E-18	6.379649E-20
2.063433E+03	1.646230E-18	5.143696E-20
2.103114E+03	1.419114E-18	4.412517E-20
2.142795E+03	1.368405E-18	4.233664E-20
2.182477E+03	1.502756E-18	4.625630E-20
2.222158E+03	1.836184E-18	5.622458E-20
2.261840E+03	2.385216E-18	7.264596E-20
2.301521E+03	3.156124E-18	9.559975E-20
2.341202E+03	4.137090E-18	1.246123E-19
2.380884E+03	5.300118E-18	1.587297E-19
2.420565E+03	6.609867E-18	1.967954E-19
2.460247E+03	8.034075E-18	2.377659E-19
2.499928E+03	9.544596E-18	2.807397E-19
2.539609E+03	1.111991E-17	3.250279E-19
2.579291E+03	1.274969E-17	3.702815E-19
2.618972E+03	1.442275E-17	4.161332E-19
2.658654E+03	1.613660E-17	4.624739E-19
2.698335E+03	1.788990E-17	5.092276E-19
2.738016E+03	1.968547E-17	5.564373E-19
2.777698E+03	2.152261E-17	6.040452E-19
2.817379E+03	2.340061E-17	6.519923E-19
2.857061E+03	2.532126E-17	7.002909E-19
2.896742E+03	2.728339E-17	7.488690E-19
2.936423E+03	2.928500E-17	7.976350E-19
2.976105E+03	3.132988E-17	8.466538E-19
2.986025E+03	3.184979E-17	8.589957E-19
2.995946E+03	3.237458E-17	8.714088E-19
3.005866E+03	3.289745E-17	8.837092E-19
3.015786E+03	3.343093E-17	8.962336E-19
3.025707E+03	3.397662E-17	9.090221E-19
3.035627E+03	3.454367E-17	9.223175E-19
3.045547E+03	3.513324E-17	9.361471E-19
3.055468E+03	3.574471E-17	9.504900E-19
3.065388E+03	3.637608E-17	9.652900E-19
3.075308E+03	3.702549E-17	9.804940E-19
3.085229E+03	3.768743E-17	9.959538E-19
3.095149E+03	3.836768E-17	1.011819E-18
3.105069E+03	3.905714E-17	1.027847E-18
3.114990E+03	3.976191E-17	1.044196E-18
3.124910E+03	4.047289E-17	1.060626E-18
3.134830E+03	4.119651E-17	1.077303E-18
3.144751E+03	4.192763E-17	1.094091E-18
3.154671E+03	4.266907E-17	1.111062E-18
3.164591E+03	4.341575E-17	1.128082E-18
3.174512E+03	4.416661E-17	1.145122E-18
3.184432E+03	4.492885E-17	1.162368E-18
3.194353E+03	4.569343E-17	1.179586E-18
3.204273E+03	4.646360E-17	1.196856E-18
3.214193E+03	4.723863E-17	1.214161E-18
3.224114E+03	4.801779E-17	1.231480E-18
3.234034E+03	4.880473E-17	1.248906E-18
3.243954E+03	4.959452E-17	1.266312E-18
3.253875E+03	5.038658E-17	1.283682E-18
3.263795E+03	5.118912E-17	1.301225E-18
3.273715E+03	5.199726E-17	1.318815E-18
3.283636E+03	5.280614E-17	1.336327E-18
3.293556E+03	5.362418E-17	1.353975E-18
3.303476E+03	5.445098E-17	1.371747E-18
3.313397E+03	5.528162E-17	1.389518E-18
3.323317E+03	5.612480E-17	1.407504E-18
3.333237E+03	5.697553E-17	1.425580E-18
3.343158E+03	5.783350E-17	1.443736E-18
3.353078E+03	5.870277E-17	1.462072E-18
3.362998E+03	5.958765E-17	1.480693E-18
3.372919E+03	6.047838E-17	1.499354E-18
3.382839E+03	6.138844E-17	1.518389E-18
3.392760E+03	6.230800E-17	1.537551E-18
3.402680E+03	6.324593E-17	1.557056E-18
3.412600E+03	6.420153E-17	1.576886E-18
3.422521E+03	6.516957E-17	1.596908E-18
3.432441E+03	6.616341E-17	1.617448E-18
3.442361E+03	6.716810E-17	1.638136E-18
3.452282E+03	6.819703E-17	1.659295E-18
3.462202E+03	6.924931E-17	1.680902E-18
3.472122E+03	7.031909E-17	1.702810E-18
3.482043E+03	7.141483E-17	1.725221E-18
3.491963E+03	7.253055E-17	1.747986E-18
3.501883E+03	7.366973E-17	1.771186E-18
3.511804E+03	7.483104E-17	1.794784E-18
3.521724E+03	7.601292E-17	1.818741E-18
3.531644E+03	7.721860E-17	1.843130E-18
3.541565E+03	7.844176E-17	1.867796E-18
3.551485E+03	7.969012E-17	1.892921E-18
3.561405E+03	8.095251E-17	1.918235E-18
3.571326E+03	8.222754E-17	1.943704E-18
3.581246E+03	8.352432E-17	1.969541E-18
3.591167E+03	8.483854E-17	1.995640E-18
3.601087E+03	8.616593E-17	2.021900E-18
3.611007E+03	8.751187E-17	2.048444E-18
3.620928E+03	8.887719E-17	2.075289E-18
3.630848E+03	9.026277E-17	2.102452E-18
3.640768E+03	9.166492E-17	2.129844E-18
3.650689E+03	9.308944E-17	2.157596E-18
3.660609E+03	9.453746E-17	2.185730E-18
3.670529E+03	9.600581E-17	2.214170E-18
3.680450E+03	9.749585E-17	2.242942E-18
3.690370E+03	9.900917E-17	2.272080E-18
3.700290E+03	1.005473E-16	2.301615E-18
3.710211E+03	1.021164E-16	2.331681E-18
3.720131E+03	1.037092E-16	2.362109E-18
3.730051E+03	1.053275E-16	2.392935E-18
3.739972E+03	1.069773E-16	2.424293E-18
3.749892E+03	1.086562E-16	2.456119E-18
3.759812E+03	1.103657E-16	2.488443E-18
3.769733E+03	1.121076E-16	2.521300E-18
3.779653E+03	1.138789E-16	2.554618E-18
3.789574E+03	1.156811E-16	2.588425E-18
3.799494E+03	1.175198E-16	2.622840E-18
3.809414E+03	1.193915E-16	2.657780E-18
3.819335E+03	1.212886E-16	2.693068E-18
3.829255E+03	1.232239E-16	2.728983E-18
3.839175E+03	1.251843E-16	2.765231E-18
3.849096E+03	1.271732E-16	2.801880E-18
3.859016E+03	1.291849E-16	2.838802E-18
3.868936E+03	1.312216E-16	2.876040E-18
3.878857E+03	1.332725E-16	2.913352E-18
3.888777E+03	1.353390E-16	2.950768E-18
3.898697E+03	1.374139E-16	2.988125E-18
3.908618E+03	1.394940E-16	3.025356E-18
3.918538E+03	1.415721E-16	3.062303E-18
3.928458E+03	1.436494E-16	3.098990E-18
3.938379E+03	1.457148E-16	3.135179E-18
3.948299E+03	1.477702E-16	3.170913E-18
3.958219E+03	1.498094E-16	3.206061E-18
3.968140E+03	1.518270E-16	3.240512E-18
3.978060E+03	1.538264E-16	3.274336E-18
3.987981E+03	1.558074E-16	3.307537E-18
3.997901E+03	1.577589E-16	3.339881E-18
4.007821E+03	1.596943E-16	3.371659E-18
4.017742E+03	1.616046E-16	3.402678E-18
4.027662E+03	1.634972E-16	3.433101E-18
4.037582E+03	1.653767E-16	3.463027E-18
4.047503E+03	1.672410E-16	3.492415E-18
4.057423E+03	1.691048E-16	3.521571E-18
4.067343E+03	1.709640E-16	3.550411E-18
4.077264E+03	1.728350E-16	3.579278E-18
4.087184E+03	1.747233E-16	3.608281E-18
4.097104E+03	1.766349E-16	3.637540E-18
4.107025E+03	1.785841E-16	3.667343E-18
4.116945E+03	1.805776E-16	3.697825E-18
4.126865E+03	1.826260E-16	3.729192E-18
4.136786E+03	1.847401E-16	3.761655E-18
4.146706E+03	1.869266E-16	3.795337E-18
4.156626E+03	1.891993E-16	3.830507E-18
4.166547E+03	1.915642E-16	3.867270E-18
4.176467E+03	1.940305E-16	3.905795E-18
4.186387E+03	1.966104E-16	3.946311E-18
4.196308E+03	1.993044E-16	3.988805E-18
4.206228E+03	2.021270E-16	4.033550E-18
4.216149E+03	2.050808E-16	4.080573E-18
4.226069E+03	2.081750E-16	4.130034E-18
4.235989E+03	2.114104E-16	4.181927E-18
4.245910E+03	2.147908E-16	4.236299E-18
4.255830E+03	2.183228E-16	4.293259E-18
4.265750E+03	2.220087E-16	4.352820E-18
4.275671E+03	2.258456E-16	4.414906E-18
4.285591E+03	2.298418E-16	4.479647E-18
4.295511E+03	2.339926E-16	4.546926E-18
4.305432E+03	2.382997E-16	4.616753E-18
4.315352E+03	2.427563E-16	4.688964E-18
4.325272E+03	2.473618E-16	4.763525E-18
4.335193E+03	2.521147E-16	4.840381E-18
4.345113E+03	2.569996E-16	4.919215E-18
4.355033E+03	2.620181E-16	5.000032E-18
4.364954E+03	2.671659E-16	5.082731E-18
4.374874E+03	2.724549E-16	5.167513E-18
4.384794E+03	2.778885E-16	5.254421E-18
4.394715E+03	2.834693E-16	5.343479E-18
4.404635E+03	2.892108E-16	5.434917E-18
4.414556E+03	2.951159E-16	5.528763E-18
4.424476E+03	3.011750E-16	5.624811E-18
4.434396E+03	3.073837E-16	5.722951E-18
4.444317E+03	3.137429E-16	5.823176E-18
4.454237E+03	3.202305E-16	5.925052E-18
4.464157E+03	3.268289E-16	6.028227E-18
4.474078E+03	3.335199E-16	6.132352E-18
4.483998E+03	3.402752E-16	6.236889E-18
4.493918E+03	3.470515E-16	6.341035E-18
4.503839E+03	3.538141E-16	6.444156E-18
4.513759E+03	3.605140E-16	6.545363E-18
4.523679E+03	3.671079E-16	6.643881E-18
4.533600E+03	3.735341E-16	6.738618E-18
4.543520E+03	3.797441E-16	6.828731E-18
4.553440E+03	3.856850E-16	6.913305E-18
4.563361E+03	3.912999E-16	6.991371E-18
4.573281E+03	3.965360E-16	7.062046E-18
4.583201E+03	4.013569E-16	7.124749E-18
4.593122E+03	4.057235E-16	7.178857E-18
4.603042E+03	4.096114E-16	7.224023E-18
4.612963E+03	4.130013E-16	7.259985E-18
4.622883E+03	4.159011E-16	7.286970E-18
4.632803E+03	4.183030E-16	7.304926E-18
4.642724E+03	4.202365E-16	7.314453E-18
4.652644E+03	4.217243E-16	7.316026E-18
4.662564E+03	4.228022E-16	7.310342E-18
4.672485E+03	4.235127E-16	7.298203E-18
4.682405E+03	4.238977E-16	7.280392E-18
4.692325E+03	4.240123E-16	7.257910E-18
4.702246E+03	4.238980E-16	7.231511E-18
4.712166E+03	4.236124E-16	7.202216E-18
4.722086E+03	4.232070E-16	7.170927E-18
4.732007E+03	4.227213E-16	7.138334E-18
4.741927E+03	4.222026E-16	7.105245E-18
4.751847E+03	4.216940E-16	7.072392E-18
4.761768E+03	4.212293E-16	7.040337E-18
4.771688E+03	4.208467E-16	7.009710E-18
4.781608E+03	4.205734E-16	6.980951E-18
4.791529E+03	4.204355E-16	6.954471E-18
4.801449E+03	4.204429E-16	6.930415E-18
4.811370E+03	4.206151E-16	6.909079E-18
4.821290E+03	4.209469E-16	6.890349E-18
4.831210E+03	4.214535E-16	6.874448E-18
4.841131E+03	4.221222E-16	6.861141E-18
4.851051E+03	4.229567E-16	6.850464E-18
4.860971E+03	4.239438E-16	6.842175E-18
4.870892E+03	4.250724E-16	6.836074E-18
4.880812E+03	4.263343E-16	6.832005E-18
4.890732E+03	4.277094E-16	6.829628E-18
4.900653E+03	4.291855E-16	6.828733E-18
4.910573E+03	4.307460E-16	6.829042E-18
4.920493E+03	4.323761E-16	6.830311E-18
4.930414E+03	4.340649E-16	6.832357E-18
4.940334E+03	4.358073E-16	6.835096E-18
4.950254E+03	4.376059E-16	6.838562E-18
4.960175E+03	4.394776E-16	6.843012E-18
4.970095E+03	4.414388E-16	6.848694E-18
4.980015E+03	4.435242E-16	6.856131E-18
4.989936E+03	4.457672E-16	6.865824E-18
4.999856E+03	4.482168E-16	6.878502E-18
5.009777E+03	4.509214E-16	6.894873E-18
5.019697E+03	4.539307E-16	6.915661E-18
5.029617E+03	4.572942E-16	6.941569E-18
5.039538E+03	4.610595E-16	6.973266E-18
5.049458E+03	4.652704E-16	7.011353E-18
5.059378E+03	4.699708E-16	7.056422E-18
5.069299E+03	4.751948E-16	7.108908E-18
5.079219E+03	4.809646E-16	7.169070E-18
5.089139E+03	4.873077E-16	7.237232E-18
5.099060E+03	4.942408E-16	7.313560E-18
5.108980E+03	5.017760E-16	7.398150E-18
5.118900E+03	5.099148E-16	7.490935E-18
5.128821E+03	5.186701E-16	7.592023E-18
5.138741E+03	5.280332E-16	7.701203E-18
5.148661E+03	5.379945E-16	7.818253E-18
5.158582E+03	5.485438E-16	7.942949E-18
5.168502E+03	5.596514E-16	8.074788E-18
5.178422E+03	5.712854E-16	8.213244E-18
5.188343E+03	5.834116E-16	8.357765E-18
5.198263E+03	5.959749E-16	8.507511E-18
5.208183E+03	6.089234E-16	8.661701E-18
5.218104E+03	6.221833E-16	8.819255E-18
5.228024E+03	6.356845E-16	8.979161E-18
5.237945E+03	6.493418E-16	9.140211E-18
5.247865E+03	6.630618E-16	9.301102E-18
5.257785E+03	6.767384E-16	9.460369E-18
5.267706E+03	6.902735E-16	9.616681E-18
5.277626E+03	7.035521E-16	9.768495E-18
5.287546E+03	7.164726E-16	9.914470E-18
5.297467E+03	7.289279E-16	1.005321E-17
5.307387E+03	7.408156E-16	1.018341E-17
5.317307E+03	7.520333E-16	1.030378E-17
5.327228E+03	7.625047E-16	1.041338E-17
5.337148E+03	7.721604E-16	1.051142E-17
5.347068E+03	7.809486E-16	1.059732E-17
5.356989E+03	7.888257E-16	1.067064E-17
5.366909E+03	7.957797E-16	1.073136E-17
5.376829E+03	8.017953E-16	1.077942E-17
5.386750E+03	8.068838E-16	1.081511E-17
5.396670E+03	8.110525E-16	1.083867E-17
5.406590E+03	8.143100E-16	1.085034E-17
5.416511E+03	8.166568E-16	1.085026E-17
5.426431E+03	8.181185E-16	1.083890E-17
5.436352E+03	8.186901E-16	1.081629E-17
5.446272E+03	8.184031E-16	1.078299E-17
5.456192E+03	8.172156E-16	1.073853E-17
5.466113E+03	8.149962E-16	1.068130E-17
5.476033E+03	8.116009E-16	1.060954E-17
5.485953E+03	8.069369E-16	1.052213E-17
5.495874E+03	8.009732E-16	1.041879E-17
5.505794E+03	7.937480E-16	1.030009E-17
5.515714E+03	7.853379E-16	1.016712E-17
5.525635E+03	7.758762E-16	1.002168E-17
5.535555E+03	7.655264E-16	9.865929E-18
5.545475E+03	7.545003E-16	9.702634E-18
5.555396E+03	7.430027E-16	9.534443E-18
5.565316E+03	7.312467E-16	9.364086E-18
5.575236E+03	7.194684E-16	9.194565E-18
5.585157E+03	7.078788E-16	9.028536E-18
5.595077E+03	6.966920E-16	8.868676E-18
5.604997E+03	6.861237E-16	8.717662E-18
5.614918E+03	6.763645E-16	8.577833E-18
5.624838E+03	6.676236E-16	8.451755E-18
5.634759E+03	6.600861E-16	8.341669E-18
5.644679E+03	6.539171E-16	8.249554E-18
5.654599E+03	6.492730E-16	8.177269E-18
5.664520E+03	6.462989E-16	8.126525E-18
5.674440E+03	6.451069E-16	8.098610E-18
5.684360E+03	6.458029E-16	8.094733E-18
5.694281E+03	6.484607E-16	8.115698E-18
5.704201E+03	6.531472E-16	8.162224E-18
5.714121E+03	6.599012E-16	8.234676E-18
5.724042E+03	6.687322E-16	8.333061E-18
5.733962E+03	6.796344E-16	8.457200E-18
5.743882E+03	6.925580E-16	8.606369E-18
5.753803E+03	7.074304E-16	8.779574E-18
5.763723E+03	7.241310E-16	8.975228E-18
5.773643E+03	7.424896E-16	9.191149E-18
5.783564E+03	7.623010E-16	9.424732E-18
5.793484E+03	7.833275E-16	9.672986E-18
5.803404E+03	8.052881E-16	9.932404E-18
5.813325E+03	8.278668E-16	1.019906E-17
5.823245E+03	8.507361E-16	1.046892E-17
5.833166E+03	8.735598E-16	1.073784E-17
5.843086E+03	8.960124E-16	1.100183E-17
5.853006E+03	9.177565E-16	1.125680E-17
5.862927E+03	9.385107E-16	1.149931E-17
5.872847E+03	9.579836E-16	1.172587E-17
5.882767E+03	9.759440E-16	1.193368E-17
5.892688E+03	9.921863E-16	1.212030E-17
5.902608E+03	1.006534E-15	1.228363E-17
5.912528E+03	1.018868E-15	1.242232E-17
5.922449E+03	1.029089E-15	1.253520E-17
5.932369E+03	1.037176E-15	1.262208E-17
5.942289E+03	1.043150E-15	1.268331E-17
5.952210E+03	1.047089E-15	1.271989E-17
5.962130E+03	1.049095E-15	1.273314E-17
5.972050E+03	1.049360E-15	1.272540E-17
5.981971E+03	1.048054E-15	1.269883E-17
5.991891E+03	1.045427E-15	1.265646E-17
6.001811E+03	1.041711E-15	1.260116E-17
6.011732E+03	1.037132E-15	1.253567E-17
6.021652E+03	1.031941E-15	1.246304E-17
6.031573E+03	1.026354E-15	1.238589E-17
6.041493E+03	1.020566E-15	1.230659E-17
6.051413E+03	1.014750E-15	1.222721E-17
6.061334E+03	1.009064E-15	1.214966E-17
6.071254E+03	1.003628E-15	1.207537E-17
6.081174E+03	9.985280E-16	1.200536E-17
6.091095E+03	9.938489E-16	1.194064E-17
6.101015E+03	9.896118E-16	1.188145E-17
6.110935E+03	9.858490E-16	1.182817E-17
6.120856E+03	9.825457E-16	1.178061E-17
6.130776E+03	9.796609E-16	1.173827E-17
6.140696E+03	9.771473E-16	1.170055E-17
6.150617E+03	9.749236E-16	1.166650E-17
6.160537E+03	9.728926E-16	1.163493E-17
6.170457E+03	9.709506E-16	1.160461E-17
6.180378E+03	9.690068E-16	1.157444E-17
6.190298E+03	9.669715E-16	1.154337E-17
6.200218E+03	9.647953E-16	1.151081E-17
6.210139E+03	9.624376E-16	1.147627E-17
6.220059E+03	9.598975E-16	1.143975E-17
6.229979E+03	9.572047E-16	1.140161E-17
6.239900E+03	9.544194E-16	1.136258E-17
6.249820E+03	9.516185E-16	1.132357E-17
6.259741E+03	9.489091E-16	1.128587E-17
6.269661E+03	9.464136E-16	1.125092E-17
6.279581E+03	9.442542E-16	1.122018E-17
6.289502E+03	9.425735E-16	1.119534E-17
6.299422E+03	9.414707E-16	1.117758E-17
6.309342E+03	9.410816E-16	1.116850E-17
6.319263E+03	9.414935E-16	1.116914E-17
6.329183E+03	9.427577E-16	1.118009E-17
6.339103E+03	9.449248E-16	1.120197E-17
6.349024E+03	9.479923E-16	1.123472E-17
6.358944E+03	9.519308E-16	1.127800E-17
6.368864E+03	9.566564E-16	1.133082E-17
6.378785E+03	9.620752E-16	1.139207E-17
6.388705E+03	9.680688E-16	1.146036E-17
6.398625E+03	9.744792E-16	1.153380E-17
6.408546E+03	9.811503E-16	1.161058E-17
6.418466E+03	9.879159E-16	1.168871E-17
6.428386E+03	9.946382E-16	1.176656E-17
6.438307E+03	1.001187E-15	1.184256E-17
6.448227E+03	1.007447E-15	1.191532E-17
6.458148E+03	1.013385E-15	1.198444E-17
6.468068E+03	1.018935E-15	1.204911E-17
6.477988E+03	1.024093E-15	1.210930E-17
6.487909E+03	1.028758E-15	1.216375E-17
6.497829E+03	1.032760E-15	1.221044E-17
6.507749E+03	1.035902E-15	1.224704E-17
6.517670E+03	1.037985E-15	1.227118E-17
6.527590E+03	1.038888E-15	1.228137E-17
6.537510E+03	1.038495E-15	1.227625E-17
6.547431E+03	1.036718E-15	1.225474E-17
6.557351E+03	1.033529E-15	1.221651E-17
6.567271E+03	1.028923E-15	1.216146E-17
6.577192E+03	1.022953E-15	1.209021E-17
6.587112E+03	1.015699E-15	1.200370E-17
6.597032E+03	1.007259E-15	1.190305E-17
6.606953E+03	9.977909E-16	1.179012E-17
6.616873E+03	9.874318E-16	1.166653E-17
6.626793E+03	9.763422E-16	1.153415E-17
6.636714E+03	9.646953E-16	1.139502E-17
6.646634E+03	9.526363E-16	1.125084E-17
6.656555E+03	9.403233E-16	1.110349E-17
6.666475E+03	9.278893E-16	1.095452E-17
6.676395E+03	9.154431E-16	1.080521E-17
6.686316E+03	9.031104E-16	1.065703E-17
6.696236E+03	8.909706E-16	1.051093E-17
6.706156E+03	8.791120E-16	1.036793E-17
6.716077E+03	8.675902E-16	1.022868E-17
6.725997E+03	8.564740E-16	1.009399E-17
6.735917E+03	8.458032E-16	9.964330E-18
6.745838E+03	8.356451E-16	9.840473E-18
6.755758E+03	8.260225E-16	9.722684E-18
6.765678E+03	8.169987E-16	9.611700E-18
6.775599E+03	8.086071E-16	9.507900E-18
6.785519E+03	8.008909E-16	9.411781E-18
6.795439E+03	7.938935E-16	9.323840E-18
6.805360E+03	7.876653E-16	9.244652E-18
6.815280E+03	7.822352E-16	9.174535E-18
6.825200E+03	7.776455E-16	9.113966E-18
6.835121E+03	7.739218E-16	9.063221E-18
6.845041E+03	7.710726E-16	9.022370E-18
6.854962E+03	7.691135E-16	8.991567E-18
6.864882E+03	7.680283E-16	8.970591E-18
6.874802E+03	7.678177E-16	8.959415E-18
6.884723E+03	7.684308E-16	8.957409E-18
6.894643E+03	7.698252E-16	8.964042E-18
6.904563E+03	7.719682E-16	8.978893E-18
6.914484E+03	7.747837E-16	9.001041E-18
6.924404E+03	7.782230E-16	9.029879E-18
6.934324E+03	7.822268E-16	9.064683E-18
6.944245E+03	7.867308E-16	9.104669E-18
6.954165E+03	7.917059E-16	9.149466E-18
6.964085E+03	7.970801E-16	9.198202E-18
6.974006E+03	8.028497E-16	9.250803E-18
6.983926E+03	8.089597E-16	9.306599E-18
6.993846E+03	8.154253E-16	9.365729E-18
7.003767E+03	8.222068E-16	9.427702E-18
7.013687E+03	8.293238E-16	9.492710E-18
7.023607E+03	8.367694E-16	9.560633E-18
7.033528E+03	8.445504E-16	9.631514E-18
7.043448E+03	8.526753E-16	9.705408E-18
7.053369E+03	8.611526E-16	9.782373E-18
7.063289E+03	8.699879E-16	9.862428E-18
7.073209E+03	8.791713E-16	9.945420E-18
7.083130E+03	8.886983E-16	1.003125E-17
7.093050E+03	8.985684E-16	1.011987E-17
7.102970E+03	9.087372E-16	1.021074E-17
7.112891E+03	9.191981E-16	1.030374E-17
7.122811E+03	9.298758E-16	1.039798E-17
7.132731E+03	9.407585E-16	1.049330E-17
7.142652E+03	9.517525E-16	1.058862E-17
7.152572E+03	9.628059E-16	1.068332E-17
7.162492E+03	9.738342E-16	1.077647E-17
7.172413E+03	9.847725E-16	1.086731E-17
7.182333E+03	9.955238E-16	1.095479E-17
7.192253E+03	1.005973E-15	1.103763E-17
7.202174E+03	1.016052E-15	1.111511E-17
7.212094E+03	1.025652E-15	1.118607E-17
7.222014E+03	1.034662E-15	1.124934E-17
7.231935E+03	1.042973E-15	1.130378E-17
7.241855E+03	1.050506E-15	1.134863E-17
7.251775E+03	1.057166E-15	1.138290E-17
7.261696E+03	1.062864E-15	1.140578E-17
7.271616E+03	1.067529E-15	1.141659E-17
7.281537E+03	1.071131E-15	1.141513E-17
7.291457E+03	1.073617E-15	1.140097E-17
7.301377E+03	1.074964E-15	1.137400E-17
7.311298E+03	1.075196E-15	1.133462E-17
7.321218E+03	1.074324E-15	1.128310E-17
7.331138E+03	1.072361E-15	1.121971E-17
7.341059E+03	1.069374E-15	1.114532E-17
7.350979E+03	1.065404E-15	1.106049E-17
7.360899E+03	1.060543E-15	1.096632E-17
7.370820E+03	1.054840E-15	1.086345E-17
7.380740E+03	1.048435E-15	1.075346E-17
7.390660E+03	1.041409E-15	1.063729E-17
7.400581E+03	1.033880E-15	1.051626E-17
7.410501E+03	1.026015E-15	1.039215E-17
7.420421E+03	1.017917E-15	1.026608E-17
7.430342E+03	1.009767E-15	1.013993E-17
7.440262E+03	1.001680E-15	1.001489E-17
7.450182E+03	9.938449E-16	9.892873E-18
7.460103E+03	9.863981E-16	9.775229E-18
7.470023E+03	9.795200E-16	9.663722E-18
7.479944E+03	9.733504E-16	9.559687E-18
7.489864E+03	9.680561E-16	9.464695E-18
7.499784E+03	9.638147E-16	9.380394E-18
7.509705E+03	9.607449E-16	9.307832E-18
7.519625E+03	9.590128E-16	9.248491E-18
7.529545E+03	9.587600E-16	9.203591E-18
7.539466E+03	9.600744E-16	9.173818E-18
7.549386E+03	9.630930E-16	9.160310E-18
7.559306E+03	9.678669E-16	9.163370E-18
7.569227E+03	9.744784E-16	9.183593E-18
7.579147E+03	9.829564E-16	9.221065E-18
7.589067E+03	9.932889E-16	9.275490E-18
7.598988E+03	1.005459E-15	9.346532E-18
7.608908E+03	1.019399E-15	9.433412E-18
7.618828E+03	1.035008E-15	9.535046E-18
7.628749E+03	1.052165E-15	9.650206E-18
7.638669E+03	1.070688E-15	9.777132E-18
7.648589E+03	1.090379E-15	9.913959E-18
7.658510E+03	1.111028E-15	1.005876E-17
7.668430E+03	1.132371E-15	1.020918E-17
7.678351E+03	1.154142E-15	1.036285E-17
7.688271E+03	1.176076E-15	1.051750E-17
7.698191E+03	1.197886E-15	1.067071E-17
