#wls	flux	fluxerr
1.587256E+03	3.490149E-18	2.505687E-19
1.626937E+03	3.706194E-18	2.659178E-19
1.666619E+03	3.874489E-18	2.778194E-19
1.706300E+03	3.985856E-18	2.856216E-19
1.745982E+03	4.029800E-18	2.885800E-19
1.785663E+03	3.989790E-18	2.855208E-19
1.825344E+03	3.849558E-18	2.752932E-19
1.865026E+03	3.597522E-18	2.570848E-19
1.904707E+03	3.234443E-18	2.309682E-19
1.944389E+03	2.784481E-18	1.986862E-19
1.984070E+03	2.298067E-18	1.638505E-19
2.023751E+03	1.845631E-18	1.314868E-19
2.063433E+03	1.494347E-18	1.063730E-19
2.103114E+03	1.286484E-18	9.149925E-20
2.142795E+03	1.237706E-18	8.795363E-20
2.182477E+03	1.355187E-18	9.621623E-20
2.222158E+03	1.649824E-18	1.170279E-19
2.261840E+03	2.133500E-18	1.511945E-19
2.301521E+03	2.809098E-18	1.988802E-19
2.341202E+03	3.661081E-18	2.589428E-19
2.380884E+03	4.662162E-18	3.294128E-19
2.420565E+03	5.777692E-18	4.078070E-19
2.460247E+03	6.976497E-18	4.918956E-19
2.499928E+03	8.232540E-18	5.798192E-19
2.539609E+03	9.526493E-18	6.701976E-19
2.579291E+03	1.084675E-17	7.621978E-19
2.618972E+03	1.218490E-17	8.552166E-19
2.658654E+03	1.353776E-17	9.490162E-19
2.698335E+03	1.489989E-17	1.043204E-18
2.738016E+03	1.627617E-17	1.138110E-18
2.777698E+03	1.766287E-17	1.233461E-18
2.817379E+03	1.906383E-17	1.329513E-18
2.857061E+03	2.048040E-17	1.426347E-18
2.896742E+03	2.191038E-17	1.523793E-18
2.936423E+03	2.336340E-17	1.622508E-18
2.976105E+03	2.483957E-17	1.722482E-18
2.986025E+03	2.521290E-17	1.747717E-18
2.995946E+03	2.558712E-17	1.772990E-18
3.005866E+03	2.596558E-17	1.798534E-18
3.015786E+03	2.634313E-17	1.823991E-18
3.025707E+03	2.673668E-17	1.850532E-18
3.035627E+03	2.714294E-17	1.877927E-18
3.045547E+03	2.756686E-17	1.906518E-18
3.055468E+03	2.800426E-17	1.936014E-18
3.065388E+03	2.845696E-17	1.966539E-18
3.075308E+03	2.892335E-17	1.997982E-18
3.085229E+03	2.939827E-17	2.029984E-18
3.095149E+03	2.988390E-17	2.062695E-18
3.105069E+03	3.037889E-17	2.096020E-18
3.114990E+03	3.088195E-17	2.129871E-18
3.124910E+03	3.138811E-17	2.163902E-18
3.134830E+03	3.190373E-17	2.198551E-18
3.144751E+03	3.242014E-17	2.233222E-18
3.154671E+03	3.294394E-17	2.268367E-18
3.164591E+03	3.347035E-17	2.303657E-18
3.174512E+03	3.399845E-17	2.339029E-18
3.184432E+03	3.452737E-17	2.374421E-18
3.194353E+03	3.505629E-17	2.409777E-18
3.204273E+03	3.558841E-17	2.445317E-18
3.214193E+03	3.612305E-17	2.480993E-18
3.224114E+03	3.665561E-17	2.516490E-18
3.234034E+03	3.718947E-17	2.552039E-18
3.243954E+03	3.772407E-17	2.587601E-18
3.253875E+03	3.825489E-17	2.622867E-18
3.263795E+03	3.878952E-17	2.658356E-18
3.273715E+03	3.931945E-17	2.693485E-18
3.283636E+03	3.985237E-17	2.728780E-18
3.293556E+03	4.038388E-17	2.763940E-18
3.303476E+03	4.091365E-17	2.798943E-18
3.313397E+03	4.144545E-17	2.834044E-18
3.323317E+03	4.197495E-17	2.868950E-18
3.333237E+03	4.250597E-17	2.903920E-18
3.343158E+03	4.303830E-17	2.938939E-18
3.353078E+03	4.356767E-17	2.973717E-18
3.362998E+03	4.410206E-17	3.008797E-18
3.372919E+03	4.463318E-17	3.043612E-18
3.382839E+03	4.516901E-17	3.078709E-18
3.392760E+03	4.570540E-17	3.113801E-18
3.402680E+03	4.624625E-17	3.149156E-18
3.412600E+03	4.678747E-17	3.184494E-18
3.422521E+03	4.733300E-17	3.220082E-18
3.432441E+03	4.788276E-17	3.255915E-18
3.442361E+03	4.843670E-17	3.291988E-18
3.452282E+03	4.899475E-17	3.328296E-18
3.462202E+03	4.956084E-17	3.365105E-18
3.472122E+03	5.012703E-17	3.401875E-18
3.482043E+03	5.070509E-17	3.439405E-18
3.491963E+03	5.128712E-17	3.477157E-18
3.501883E+03	5.187702E-17	3.515395E-18
3.511804E+03	5.247091E-17	3.553854E-18
3.521724E+03	5.307650E-17	3.593057E-18
3.531644E+03	5.369377E-17	3.633000E-18
3.541565E+03	5.431890E-17	3.673423E-18
3.551485E+03	5.495201E-17	3.714334E-18
3.561405E+03	5.560075E-17	3.756248E-18
3.571326E+03	5.625777E-17	3.798666E-18
3.581246E+03	5.692712E-17	3.841862E-18
3.591167E+03	5.761284E-17	3.886106E-18
3.601087E+03	5.831160E-17	3.931170E-18
3.611007E+03	5.902771E-17	3.977345E-18
3.620928E+03	5.976152E-17	4.024651E-18
3.630848E+03	6.051374E-17	4.073134E-18
3.640768E+03	6.128501E-17	4.122834E-18
3.650689E+03	6.207598E-17	4.173793E-18
3.660609E+03	6.289093E-17	4.226296E-18
3.670529E+03	6.372704E-17	4.280150E-18
3.680450E+03	6.458870E-17	4.335648E-18
3.690370E+03	6.547656E-17	4.392829E-18
3.700290E+03	6.639486E-17	4.451974E-18
3.710211E+03	6.734090E-17	4.512900E-18
3.720131E+03	6.831538E-17	4.575649E-18
3.730051E+03	6.932254E-17	4.640500E-18
3.739972E+03	7.036286E-17	4.707483E-18
3.749892E+03	7.143710E-17	4.776644E-18
3.759812E+03	7.254907E-17	4.848232E-18
3.769733E+03	7.369253E-17	4.921826E-18
3.779653E+03	7.487779E-17	4.998111E-18
3.789574E+03	7.609856E-17	5.076660E-18
3.799494E+03	7.735479E-17	5.157467E-18
3.809414E+03	7.865326E-17	5.240978E-18
3.819335E+03	7.999032E-17	5.326944E-18
3.829255E+03	8.136571E-17	5.415342E-18
3.839175E+03	8.278220E-17	5.506354E-18
3.849096E+03	8.423594E-17	5.599715E-18
3.859016E+03	8.572938E-17	5.695584E-18
3.868936E+03	8.725839E-17	5.793681E-18
3.878857E+03	8.882845E-17	5.894365E-18
3.888777E+03	9.043201E-17	5.997130E-18
3.898697E+03	9.207117E-17	6.102109E-18
3.908618E+03	9.374791E-17	6.209429E-18
3.918538E+03	9.545474E-17	6.318589E-18
3.928458E+03	9.719683E-17	6.429925E-18
3.938379E+03	9.897003E-17	6.543159E-18
3.948299E+03	1.007765E-16	6.658429E-18
3.958219E+03	1.026091E-16	6.775257E-18
3.968140E+03	1.044736E-16	6.894021E-18
3.978060E+03	1.063666E-16	7.014486E-18
3.987981E+03	1.082877E-16	7.136632E-18
3.997901E+03	1.102403E-16	7.260675E-18
4.007821E+03	1.122187E-16	7.386230E-18
4.017742E+03	1.142267E-16	7.513545E-18
4.027662E+03	1.162687E-16	7.642900E-18
4.037582E+03	1.183367E-16	7.773776E-18
4.047503E+03	1.204388E-16	7.906691E-18
4.057423E+03	1.225774E-16	8.041795E-18
4.067343E+03	1.247486E-16	8.178835E-18
4.077264E+03	1.269586E-16	8.318211E-18
4.087184E+03	1.292076E-16	8.459923E-18
4.097104E+03	1.314992E-16	8.604199E-18
4.107025E+03	1.338370E-16	8.751279E-18
4.116945E+03	1.362222E-16	8.901231E-18
4.126865E+03	1.386593E-16	9.054328E-18
4.136786E+03	1.411494E-16	9.210650E-18
4.146706E+03	1.436973E-16	9.370499E-18
4.156626E+03	1.463018E-16	9.533780E-18
4.166547E+03	1.489706E-16	9.700991E-18
4.176467E+03	1.517057E-16	9.872249E-18
4.186387E+03	1.545087E-16	1.004765E-17
4.196308E+03	1.573814E-16	1.022731E-17
4.206228E+03	1.603256E-16	1.041132E-17
4.216149E+03	1.633427E-16	1.059976E-17
4.226069E+03	1.664370E-16	1.079291E-17
4.235989E+03	1.696096E-16	1.099082E-17
4.245910E+03	1.728584E-16	1.119333E-17
4.255830E+03	1.761835E-16	1.140047E-17
4.265750E+03	1.795854E-16	1.161222E-17
4.275671E+03	1.830636E-16	1.182857E-17
4.285591E+03	1.866205E-16	1.204964E-17
4.295511E+03	1.902458E-16	1.227475E-17
4.305432E+03	1.939472E-16	1.250440E-17
4.315352E+03	1.977134E-16	1.273785E-17
4.325272E+03	2.015482E-16	1.297532E-17
4.335193E+03	2.054459E-16	1.321644E-17
4.345113E+03	2.094035E-16	1.346101E-17
4.355033E+03	2.134180E-16	1.370882E-17
4.364954E+03	2.174864E-16	1.395967E-17
4.374874E+03	2.216095E-16	1.421361E-17
4.384794E+03	2.257842E-16	1.447041E-17
4.394715E+03	2.300071E-16	1.472987E-17
4.404635E+03	2.342811E-16	1.499214E-17
4.414556E+03	2.385977E-16	1.525670E-17
4.424476E+03	2.429509E-16	1.552312E-17
4.434396E+03	2.473367E-16	1.579117E-17
4.444317E+03	2.517499E-16	1.606049E-17
4.454237E+03	2.561731E-16	1.632998E-17
4.464157E+03	2.606051E-16	1.659955E-17
4.474078E+03	2.650289E-16	1.686812E-17
4.483998E+03	2.694332E-16	1.713498E-17
4.493918E+03	2.738054E-16	1.739931E-17
4.503839E+03	2.781319E-16	1.766025E-17
4.513759E+03	2.824015E-16	1.791712E-17
4.523679E+03	2.865954E-16	1.816871E-17
4.533600E+03	2.907015E-16	1.841427E-17
4.543520E+03	2.947080E-16	1.865307E-17
4.553440E+03	2.985995E-16	1.888415E-17
4.563361E+03	3.023649E-16	1.910681E-17
4.573281E+03	3.059904E-16	1.932022E-17
4.583201E+03	3.094712E-16	1.952408E-17
4.593122E+03	3.127962E-16	1.971771E-17
4.603042E+03	3.159601E-16	1.990081E-17
4.612963E+03	3.189594E-16	2.007317E-17
4.622883E+03	3.217930E-16	2.023476E-17
4.632803E+03	3.244620E-16	2.038567E-17
4.642724E+03	3.269697E-16	2.052612E-17
4.652644E+03	3.293255E-16	2.065674E-17
4.662564E+03	3.315332E-16	2.077778E-17
4.672485E+03	3.336025E-16	2.088988E-17
4.682405E+03	3.355527E-16	2.099426E-17
4.692325E+03	3.373928E-16	2.109150E-17
4.702246E+03	3.391369E-16	2.118251E-17
4.712166E+03	3.408086E-16	2.126876E-17
4.722086E+03	3.424197E-16	2.135101E-17
4.732007E+03	3.439903E-16	2.143052E-17
4.741927E+03	3.455331E-16	2.150808E-17
4.751847E+03	3.470602E-16	2.158446E-17
4.761768E+03	3.485793E-16	2.166012E-17
4.771688E+03	3.501015E-16	2.173577E-17
4.781608E+03	3.516334E-16	2.181181E-17
4.791529E+03	3.531886E-16	2.188907E-17
4.801449E+03	3.547675E-16	2.196759E-17
4.811370E+03	3.563858E-16	2.204834E-17
4.821290E+03	3.580380E-16	2.213095E-17
4.831210E+03	3.597419E-16	2.221653E-17
4.841131E+03	3.614938E-16	2.230484E-17
4.851051E+03	3.632976E-16	2.239611E-17
4.860971E+03	3.651605E-16	2.249078E-17
4.870892E+03	3.670767E-16	2.258847E-17
4.880812E+03	3.690566E-16	2.268983E-17
4.890732E+03	3.711023E-16	2.279497E-17
4.900653E+03	3.732077E-16	2.290349E-17
4.910573E+03	3.753834E-16	2.301605E-17
4.920493E+03	3.776283E-16	2.313257E-17
4.930414E+03	3.799463E-16	2.325326E-17
4.940334E+03	3.823465E-16	2.337868E-17
4.950254E+03	3.848309E-16	2.350892E-17
4.960175E+03	3.874072E-16	2.364445E-17
4.970095E+03	3.900842E-16	2.378580E-17
4.980015E+03	3.928767E-16	2.393384E-17
4.989936E+03	3.957924E-16	2.408901E-17
4.999856E+03	3.988439E-16	2.425208E-17
5.009777E+03	4.020494E-16	2.442411E-17
5.019697E+03	4.054186E-16	2.460568E-17
5.029617E+03	4.089656E-16	2.479760E-17
5.039538E+03	4.127087E-16	2.500096E-17
5.049458E+03	4.166562E-16	2.521623E-17
5.059378E+03	4.208243E-16	2.544434E-17
5.069299E+03	4.252229E-16	2.568586E-17
5.079219E+03	4.298504E-16	2.594066E-17
5.089139E+03	4.347263E-16	2.620987E-17
5.099060E+03	4.398439E-16	2.649303E-17
5.108980E+03	4.452027E-16	2.679009E-17
5.118900E+03	4.508046E-16	2.710110E-17
5.128821E+03	4.566426E-16	2.742562E-17
5.138741E+03	4.627023E-16	2.776273E-17
5.148661E+03	4.689753E-16	2.811190E-17
5.158582E+03	4.754397E-16	2.847176E-17
5.168502E+03	4.820804E-16	2.884140E-17
5.178422E+03	4.888687E-16	2.921905E-17
5.188343E+03	4.957829E-16	2.960341E-17
5.198263E+03	5.027931E-16	2.999266E-17
5.208183E+03	5.098607E-16	3.038449E-17
5.218104E+03	5.169501E-16	3.077676E-17
5.228024E+03	5.240284E-16	3.116753E-17
5.237945E+03	5.310555E-16	3.155441E-17
5.247865E+03	5.379847E-16	3.193463E-17
5.257785E+03	5.447732E-16	3.230567E-17
5.267706E+03	5.513838E-16	3.266537E-17
5.277626E+03	5.577687E-16	3.301092E-17
5.287546E+03	5.638862E-16	3.333989E-17
5.297467E+03	5.697022E-16	3.365033E-17
5.307387E+03	5.751674E-16	3.393938E-17
5.317307E+03	5.802587E-16	3.420574E-17
5.327228E+03	5.849325E-16	3.444690E-17
5.337148E+03	5.891668E-16	3.466166E-17
5.347068E+03	5.929437E-16	3.484903E-17
5.356989E+03	5.962309E-16	3.500721E-17
5.366909E+03	5.990126E-16	3.513536E-17
5.376829E+03	6.012834E-16	3.523325E-17
5.386750E+03	6.030353E-16	3.530050E-17
5.396670E+03	6.042589E-16	3.533666E-17
5.406590E+03	6.049597E-16	3.534215E-17
5.416511E+03	6.051355E-16	3.531694E-17
5.426431E+03	6.047987E-16	3.526183E-17
5.436352E+03	6.039531E-16	3.517715E-17
5.446272E+03	6.026173E-16	3.506407E-17
5.456192E+03	6.008004E-16	3.492320E-17
5.466113E+03	5.985303E-16	3.475625E-17
5.476033E+03	5.958266E-16	3.456443E-17
5.485953E+03	5.927075E-16	3.434889E-17
5.495874E+03	5.892030E-16	3.411141E-17
5.505794E+03	5.853537E-16	3.385443E-17
5.515714E+03	5.811950E-16	3.358004E-17
5.525635E+03	5.767730E-16	3.329097E-17
5.535555E+03	5.721335E-16	3.298990E-17
5.545475E+03	5.673430E-16	3.268069E-17
5.555396E+03	5.624543E-16	3.236641E-17
5.565316E+03	5.575278E-16	3.205056E-17
5.575236E+03	5.526197E-16	3.173636E-17
5.585157E+03	5.477967E-16	3.142763E-17
5.595077E+03	5.431246E-16	3.112814E-17
5.604997E+03	5.386510E-16	3.084058E-17
5.614918E+03	5.344369E-16	3.056841E-17
5.624838E+03	5.305349E-16	3.031459E-17
5.634759E+03	5.269933E-16	3.008182E-17
5.644679E+03	5.238561E-16	2.987255E-17
5.654599E+03	5.211628E-16	2.968895E-17
5.664520E+03	5.189472E-16	2.953288E-17
5.674440E+03	5.172331E-16	2.940561E-17
5.684360E+03	5.160540E-16	2.930895E-17
5.694281E+03	5.154166E-16	2.924320E-17
5.704201E+03	5.153374E-16	2.920918E-17
5.714121E+03	5.158214E-16	2.920711E-17
5.724042E+03	5.168621E-16	2.923650E-17
5.733962E+03	5.184568E-16	2.929712E-17
5.743882E+03	5.205863E-16	2.938778E-17
5.753803E+03	5.232301E-16	2.950724E-17
5.763723E+03	5.263665E-16	2.965419E-17
5.773643E+03	5.299578E-16	2.982643E-17
5.783564E+03	5.339660E-16	3.002175E-17
5.793484E+03	5.383482E-16	3.023767E-17
5.803404E+03	5.430530E-16	3.047123E-17
5.813325E+03	5.480353E-16	3.071987E-17
5.823245E+03	5.532439E-16	3.098067E-17
5.833166E+03	5.586155E-16	3.125006E-17
5.843086E+03	5.641084E-16	3.152567E-17
5.853006E+03	5.696670E-16	3.180440E-17
5.862927E+03	5.752376E-16	3.208323E-17
5.872847E+03	5.807818E-16	3.236003E-17
5.882767E+03	5.862601E-16	3.263260E-17
5.892688E+03	5.916274E-16	3.289846E-17
5.902608E+03	5.968618E-16	3.315642E-17
5.912528E+03	6.019428E-16	3.340535E-17
5.922449E+03	6.068450E-16	3.364387E-17
5.932369E+03	6.115736E-16	3.387233E-17
5.942289E+03	6.161242E-16	3.409049E-17
5.952210E+03	6.204989E-16	3.429851E-17
5.962130E+03	6.247121E-16	3.449723E-17
5.972050E+03	6.287844E-16	3.468780E-17
5.981971E+03	6.327413E-16	3.487165E-17
5.991891E+03	6.366062E-16	3.505011E-17
6.001811E+03	6.404051E-16	3.522462E-17
6.011732E+03	6.441842E-16	3.539774E-17
6.021652E+03	6.479654E-16	3.557066E-17
6.031573E+03	6.517817E-16	3.574522E-17
6.041493E+03	6.556640E-16	3.592310E-17
6.051413E+03	6.596396E-16	3.610578E-17
6.061334E+03	6.637312E-16	3.629451E-17
6.071254E+03	6.679556E-16	3.649018E-17
6.081174E+03	6.723171E-16	3.669302E-17
6.091095E+03	6.768250E-16	3.690352E-17
6.101015E+03	6.814679E-16	3.712103E-17
6.110935E+03	6.862325E-16	3.734482E-17
6.120856E+03	6.910975E-16	3.757373E-17
6.130776E+03	6.960329E-16	3.780610E-17
6.140696E+03	7.009949E-16	3.803957E-17
6.150617E+03	7.059531E-16	3.827249E-17
6.160537E+03	7.108513E-16	3.850181E-17
6.170457E+03	7.156358E-16	3.872465E-17
6.180378E+03	7.202651E-16	3.893879E-17
6.190298E+03	7.246757E-16	3.914084E-17
6.200218E+03	7.288124E-16	3.932786E-17
6.210139E+03	7.326308E-16	3.949749E-17
6.220059E+03	7.360836E-16	3.964726E-17
6.229979E+03	7.391306E-16	3.977504E-17
6.239900E+03	7.417376E-16	3.987909E-17
6.249820E+03	7.438870E-16	3.995851E-17
6.259741E+03	7.455605E-16	4.001241E-17
6.269661E+03	7.467564E-16	4.004075E-17
6.279581E+03	7.474717E-16	4.004347E-17
6.289502E+03	7.477106E-16	4.002086E-17
6.299422E+03	7.474888E-16	3.997383E-17
6.309342E+03	7.468267E-16	3.990354E-17
6.319263E+03	7.457392E-16	3.981085E-17
6.329183E+03	7.442422E-16	3.969668E-17
6.339103E+03	7.423665E-16	3.956272E-17
6.349024E+03	7.401268E-16	3.940981E-17
6.358944E+03	7.375437E-16	3.923911E-17
6.368864E+03	7.346271E-16	3.905118E-17
6.378785E+03	7.313999E-16	3.884729E-17
6.388705E+03	7.278677E-16	3.862778E-17
6.398625E+03	7.240401E-16	3.839320E-17
6.408546E+03	7.199261E-16	3.814407E-17
6.418466E+03	7.155174E-16	3.787997E-17
6.428386E+03	7.108356E-16	3.760209E-17
6.438307E+03	7.058650E-16	3.730961E-17
6.448227E+03	7.006058E-16	3.700258E-17
6.458148E+03	6.950663E-16	3.668146E-17
6.468068E+03	6.892579E-16	3.634686E-17
6.477988E+03	6.831710E-16	3.599832E-17
6.487909E+03	6.768204E-16	3.563664E-17
6.497829E+03	6.702077E-16	3.526192E-17
6.507749E+03	6.633451E-16	3.487482E-17
6.517670E+03	6.562403E-16	3.447577E-17
6.527590E+03	6.489198E-16	3.406617E-17
6.537510E+03	6.413912E-16	3.364644E-17
6.547431E+03	6.336874E-16	3.321833E-17
6.557351E+03	6.258369E-16	3.278331E-17
6.567271E+03	6.178575E-16	3.234235E-17
6.577192E+03	6.097959E-16	3.189788E-17
6.587112E+03	6.016744E-16	3.145108E-17
6.597032E+03	5.935362E-16	3.100418E-17
6.606953E+03	5.854183E-16	3.055912E-17
6.616873E+03	5.773582E-16	3.011784E-17
6.626793E+03	5.693923E-16	2.968222E-17
6.636714E+03	5.615506E-16	2.925380E-17
6.646634E+03	5.538794E-16	2.883498E-17
6.656555E+03	5.464058E-16	2.842713E-17
6.666475E+03	5.391543E-16	2.803151E-17
6.676395E+03	5.321659E-16	2.765021E-17
6.686316E+03	5.254614E-16	2.728428E-17
6.696236E+03	5.190709E-16	2.693524E-17
6.706156E+03	5.130059E-16	2.660364E-17
6.716077E+03	5.073039E-16	2.629141E-17
6.725997E+03	5.019727E-16	2.599890E-17
6.735917E+03	4.970290E-16	2.572692E-17
6.745838E+03	4.924947E-16	2.547659E-17
6.755758E+03	4.883836E-16	2.524855E-17
6.765678E+03	4.847086E-16	2.504344E-17
6.775599E+03	4.814813E-16	2.486180E-17
6.785519E+03	4.787122E-16	2.470414E-17
6.795439E+03	4.764042E-16	2.457056E-17
6.805360E+03	4.745764E-16	2.446201E-17
6.815280E+03	4.732294E-16	2.437845E-17
6.825200E+03	4.723682E-16	2.432012E-17
6.835121E+03	4.719957E-16	2.428710E-17
6.845041E+03	4.721198E-16	2.427978E-17
6.854962E+03	4.727291E-16	2.429751E-17
6.864882E+03	4.738335E-16	2.434077E-17
6.874802E+03	4.754247E-16	2.440908E-17
6.884723E+03	4.774983E-16	2.450218E-17
6.894643E+03	4.800540E-16	2.462002E-17
6.904563E+03	4.830794E-16	2.476192E-17
6.914484E+03	4.865669E-16	2.492746E-17
6.924404E+03	4.905077E-16	2.511615E-17
6.934324E+03	4.948987E-16	2.532780E-17
6.944245E+03	4.997243E-16	2.556158E-17
6.954165E+03	5.049750E-16	2.581697E-17
6.964085E+03	5.106475E-16	2.609378E-17
6.974006E+03	5.167261E-16	2.639119E-17
6.983926E+03	5.232011E-16	2.670865E-17
6.993846E+03	5.300630E-16	2.704567E-17
7.003767E+03	5.373022E-16	2.740175E-17
7.013687E+03	5.449148E-16	2.777665E-17
7.023607E+03	5.528833E-16	2.816946E-17
7.033528E+03	5.611953E-16	2.857953E-17
7.043448E+03	5.698365E-16	2.900614E-17
7.053369E+03	5.787902E-16	2.944839E-17
7.063289E+03	5.880367E-16	2.990529E-17
7.073209E+03	5.975525E-16	3.037563E-17
7.083130E+03	6.073182E-16	3.085841E-17
7.093050E+03	6.172870E-16	3.135125E-17
7.102970E+03	6.274371E-16	3.185305E-17
7.112891E+03	6.377108E-16	3.236087E-17
7.122811E+03	6.480764E-16	3.287310E-17
7.132731E+03	6.584645E-16	3.338624E-17
7.142652E+03	6.688330E-16	3.389817E-17
7.152572E+03	6.791018E-16	3.440483E-17
7.162492E+03	6.892197E-16	3.490367E-17
7.172413E+03	6.990984E-16	3.539021E-17
7.182333E+03	7.086807E-16	3.586161E-17
7.192253E+03	7.178735E-16	3.631318E-17
7.202174E+03	7.266194E-16	3.674205E-17
7.212094E+03	7.348253E-16	3.714356E-17
7.222014E+03	7.424396E-16	3.751514E-17
7.231935E+03	7.493775E-16	3.785255E-17
7.241855E+03	7.555995E-16	3.815384E-17
7.251775E+03	7.610363E-16	3.841557E-17
7.261696E+03	7.656677E-16	3.863676E-17
7.271616E+03	7.694464E-16	3.881508E-17
7.281537E+03	7.723766E-16	3.895079E-17
7.291457E+03	7.744476E-16	3.904340E-17
7.301377E+03	7.756608E-16	3.909303E-17
7.311298E+03	7.760629E-16	3.910208E-17
7.321218E+03	7.756834E-16	3.907206E-17
7.331138E+03	7.745642E-16	3.900513E-17
7.341059E+03	7.727792E-16	3.890505E-17
7.350979E+03	7.704022E-16	3.877556E-17
7.360899E+03	7.675061E-16	3.862035E-17
7.370820E+03	7.641915E-16	3.844451E-17
7.380740E+03	7.605440E-16	3.825235E-17
7.390660E+03	7.566744E-16	3.804946E-17
7.400581E+03	7.526860E-16	3.784105E-17
7.410501E+03	7.486635E-16	3.763137E-17
7.420421E+03	7.447415E-16	3.742718E-17
7.430342E+03	7.410047E-16	3.723275E-17
7.440262E+03	7.375545E-16	3.705316E-17
7.450182E+03	7.345095E-16	3.689437E-17
7.460103E+03	7.319356E-16	3.675967E-17
7.470023E+03	7.299523E-16	3.665506E-17
7.479944E+03	7.286252E-16	3.658383E-17
7.489864E+03	7.280426E-16	3.655040E-17
7.499784E+03	7.282671E-16	3.655790E-17
7.509705E+03	7.293725E-16	3.661003E-17
7.519625E+03	7.314049E-16	3.670911E-17
7.529545E+03	7.344103E-16	3.685744E-17
7.539466E+03	7.384353E-16	3.705737E-17
7.549386E+03	7.434944E-16	3.730963E-17
7.559306E+03	7.496001E-16	3.761485E-17
7.569227E+03	7.567607E-16	3.797347E-17
7.579147E+03	7.649402E-16	3.838370E-17
7.589067E+03	7.741267E-16	3.884496E-17
7.598988E+03	7.842616E-16	3.935436E-17
7.608908E+03	7.952788E-16	3.990858E-17
7.618828E+03	8.070943E-16	4.050347E-17
7.628749E+03	8.196062E-16	4.113394E-17
7.638669E+03	8.327069E-16	4.179464E-17
7.648589E+03	8.462395E-16	4.247773E-17
7.658510E+03	8.600653E-16	4.317631E-17
7.668430E+03	8.740338E-16	4.388284E-17
7.678351E+03	8.879502E-16	4.458761E-17
7.688271E+03	9.016605E-16	4.528292E-17
7.698191E+03	9.149595E-16	4.595848E-17
