#wls	flux	fluxerr
1.587256E+03	3.508119E-18	1.743986E-19
1.626937E+03	3.724536E-18	1.845621E-19
1.666619E+03	3.892935E-18	1.922705E-19
1.706300E+03	4.003356E-18	1.970552E-19
1.745982E+03	4.047640E-18	1.985436E-19
1.785663E+03	4.006885E-18	1.958451E-19
1.825344E+03	3.865579E-18	1.882490E-19
1.865026E+03	3.612129E-18	1.752481E-19
1.904707E+03	3.247327E-18	1.569448E-19
1.944389E+03	2.795436E-18	1.345735E-19
1.984070E+03	2.307512E-18	1.106369E-19
2.023751E+03	1.853602E-18	8.850644E-20
2.063433E+03	1.500880E-18	7.136127E-20
2.103114E+03	1.292479E-18	6.118612E-20
2.142795E+03	1.244123E-18	5.863529E-20
2.182477E+03	1.362733E-18	6.393315E-20
2.222158E+03	1.659737E-18	7.750437E-20
2.261840E+03	2.147789E-18	9.981629E-20
2.301521E+03	2.828994E-18	1.308324E-19
2.341202E+03	3.690054E-18	1.698005E-19
2.380884E+03	4.703306E-18	2.153186E-19
2.420565E+03	5.833424E-18	2.656572E-19
2.460247E+03	7.051458E-18	3.194068E-19
2.499928E+03	8.329480E-18	3.752293E-19
2.539609E+03	9.649636E-18	4.322641E-19
2.579291E+03	1.099902E-17	4.898877E-19
2.618972E+03	1.237130E-17	5.477808E-19
2.658654E+03	1.376181E-17	6.057029E-19
2.698335E+03	1.517017E-17	6.636057E-19
2.738016E+03	1.659246E-17	7.212879E-19
2.777698E+03	1.803264E-17	7.788925E-19
2.817379E+03	1.949285E-17	8.364800E-19
2.857061E+03	2.097213E-17	8.939768E-19
2.896742E+03	2.247509E-17	9.515450E-19
2.936423E+03	2.400629E-17	1.009342E-18
2.976105E+03	2.556654E-17	1.067359E-18
2.986025E+03	2.596214E-17	1.081936E-18
2.995946E+03	2.635950E-17	1.096520E-18
3.005866E+03	2.676210E-17	1.111257E-18
3.015786E+03	2.716462E-17	1.125923E-18
3.025707E+03	2.758096E-17	1.141095E-18
3.035627E+03	2.801493E-17	1.156926E-18
3.045547E+03	2.846815E-17	1.173479E-18
3.055468E+03	2.893631E-17	1.190571E-18
3.065388E+03	2.941760E-17	1.208125E-18
3.075308E+03	2.991413E-17	1.226224E-18
3.085229E+03	3.042437E-17	1.244802E-18
3.095149E+03	3.094305E-17	1.263639E-18
3.105069E+03	3.147260E-17	1.282834E-18
3.114990E+03	3.200780E-17	1.302170E-18
3.124910E+03	3.255527E-17	1.321915E-18
3.134830E+03	3.310596E-17	1.341699E-18
3.144751E+03	3.366269E-17	1.361636E-18
3.154671E+03	3.422443E-17	1.381681E-18
3.164591E+03	3.479427E-17	1.401959E-18
3.174512E+03	3.536315E-17	1.422102E-18
3.184432E+03	3.593838E-17	1.442404E-18
3.194353E+03	3.651504E-17	1.462666E-18
3.204273E+03	3.709234E-17	1.482856E-18
3.214193E+03	3.767377E-17	1.503113E-18
3.224114E+03	3.825446E-17	1.523242E-18
3.234034E+03	3.883801E-17	1.543386E-18
3.243954E+03	3.942389E-17	1.563523E-18
3.253875E+03	4.000728E-17	1.583461E-18
3.263795E+03	4.059628E-17	1.603521E-18
3.273715E+03	4.118184E-17	1.623346E-18
3.283636E+03	4.176786E-17	1.643087E-18
3.293556E+03	4.235828E-17	1.662901E-18
3.303476E+03	4.294845E-17	1.682604E-18
3.313397E+03	4.353804E-17	1.702182E-18
3.323317E+03	4.413112E-17	1.721796E-18
3.333237E+03	4.472745E-17	1.741433E-18
3.343158E+03	4.532242E-17	1.760916E-18
3.353078E+03	4.592019E-17	1.780403E-18
3.362998E+03	4.652056E-17	1.799889E-18
3.372919E+03	4.712336E-17	1.819365E-18
3.382839E+03	4.772844E-17	1.838825E-18
3.392760E+03	4.834002E-17	1.858430E-18
3.402680E+03	4.895359E-17	1.878006E-18
3.412600E+03	4.956907E-17	1.897548E-18
3.422521E+03	5.019502E-17	1.917385E-18
3.432441E+03	5.082265E-17	1.937178E-18
3.442361E+03	5.145621E-17	1.957089E-18
3.452282E+03	5.209992E-17	1.977275E-18
3.462202E+03	5.274936E-17	1.997568E-18
3.472122E+03	5.340444E-17	2.017962E-18
3.482043E+03	5.406509E-17	2.038454E-18
3.491963E+03	5.473976E-17	2.059360E-18
3.501883E+03	5.541979E-17	2.080352E-18
3.511804E+03	5.610937E-17	2.101585E-18
3.521724E+03	5.681255E-17	2.123208E-18
3.531644E+03	5.752499E-17	2.145057E-18
3.541565E+03	5.824661E-17	2.167126E-18
3.551485E+03	5.898145E-17	2.189562E-18
3.561405E+03	5.972927E-17	2.212355E-18
3.571326E+03	6.049002E-17	2.235500E-18
3.581246E+03	6.126397E-17	2.259002E-18
3.591167E+03	6.205572E-17	2.283029E-18
3.601087E+03	6.286161E-17	2.307441E-18
3.611007E+03	6.368232E-17	2.332260E-18
3.620928E+03	6.452636E-17	2.357794E-18
3.630848E+03	6.538620E-17	2.383762E-18
3.640768E+03	6.626646E-17	2.410329E-18
3.650689E+03	6.717169E-17	2.437653E-18
3.660609E+03	6.810231E-17	2.465744E-18
3.670529E+03	6.905497E-17	2.494475E-18
3.680450E+03	7.003413E-17	2.523999E-18
3.690370E+03	7.104036E-17	2.554332E-18
3.700290E+03	7.207412E-17	2.585483E-18
3.710211E+03	7.313591E-17	2.617462E-18
3.720131E+03	7.423004E-17	2.650416E-18
3.730051E+03	7.535701E-17	2.684356E-18
3.739972E+03	7.651329E-17	2.719146E-18
3.749892E+03	7.770692E-17	2.755065E-18
3.759812E+03	7.893054E-17	2.791843E-18
3.769733E+03	8.019202E-17	2.829749E-18
3.779653E+03	8.148775E-17	2.868648E-18
3.789574E+03	8.282164E-17	2.908667E-18
3.799494E+03	8.419368E-17	2.949797E-18
3.809414E+03	8.560018E-17	2.991899E-18
3.819335E+03	8.704485E-17	3.035093E-18
3.829255E+03	8.853118E-17	3.079491E-18
3.839175E+03	9.005527E-17	3.124947E-18
3.849096E+03	9.161695E-17	3.171447E-18
3.859016E+03	9.321585E-17	3.218966E-18
3.868936E+03	9.485536E-17	3.267613E-18
3.878857E+03	9.653151E-17	3.317241E-18
3.888777E+03	9.825108E-17	3.368073E-18
3.898697E+03	1.000066E-16	3.419841E-18
3.908618E+03	1.017977E-16	3.472526E-18
3.918538E+03	1.036312E-16	3.526352E-18
3.928458E+03	1.054999E-16	3.581061E-18
3.938379E+03	1.074072E-16	3.636756E-18
3.948299E+03	1.093531E-16	3.693433E-18
3.958219E+03	1.113376E-16	3.751081E-18
3.968140E+03	1.133610E-16	3.809703E-18
3.978060E+03	1.154239E-16	3.869302E-18
3.987981E+03	1.175233E-16	3.929773E-18
3.997901E+03	1.196637E-16	3.991254E-18
4.007821E+03	1.218425E-16	4.053653E-18
4.017742E+03	1.240647E-16	4.117124E-18
4.027662E+03	1.263284E-16	4.181590E-18
4.037582E+03	1.286354E-16	4.247105E-18
4.047503E+03	1.309878E-16	4.313726E-18
4.057423E+03	1.333880E-16	4.381519E-18
4.067343E+03	1.358353E-16	4.450450E-18
4.077264E+03	1.383324E-16	4.520598E-18
4.087184E+03	1.408827E-16	4.592056E-18
4.097104E+03	1.434893E-16	4.664921E-18
4.107025E+03	1.461492E-16	4.739073E-18
4.116945E+03	1.488729E-16	4.814842E-18
4.126865E+03	1.516539E-16	4.892007E-18
4.136786E+03	1.545034E-16	4.970906E-18
4.146706E+03	1.574185E-16	5.051438E-18
4.156626E+03	1.604000E-16	5.133608E-18
4.166547E+03	1.634558E-16	5.217651E-18
4.176467E+03	1.665830E-16	5.303463E-18
4.186387E+03	1.697858E-16	5.391156E-18
4.196308E+03	1.730683E-16	5.480842E-18
4.206228E+03	1.764275E-16	5.572406E-18
4.216149E+03	1.798634E-16	5.665833E-18
4.226069E+03	1.833828E-16	5.761318E-18
4.235989E+03	1.869818E-16	5.858720E-18
4.245910E+03	1.906593E-16	5.957985E-18
4.255830E+03	1.944140E-16	6.059053E-18
4.265750E+03	1.982473E-16	6.161954E-18
4.275671E+03	2.021564E-16	6.266580E-18
4.285591E+03	2.061344E-16	6.372705E-18
4.295511E+03	2.101771E-16	6.480179E-18
4.305432E+03	2.142864E-16	6.589052E-18
4.315352E+03	2.184492E-16	6.698904E-18
4.325272E+03	2.226620E-16	6.809619E-18
4.335193E+03	2.269128E-16	6.920823E-18
4.345113E+03	2.311961E-16	7.032339E-18
4.355033E+03	2.355017E-16	7.143856E-18
4.364954E+03	2.398193E-16	7.255059E-18
4.374874E+03	2.441425E-16	7.365754E-18
4.384794E+03	2.484755E-16	7.476070E-18
4.394715E+03	2.528068E-16	7.585667E-18
4.404635E+03	2.571355E-16	7.694518E-18
4.414556E+03	2.614523E-16	7.802351E-18
4.424476E+03	2.657542E-16	7.909083E-18
4.434396E+03	2.700377E-16	8.014622E-18
4.444317E+03	2.743019E-16	8.118949E-18
4.454237E+03	2.785339E-16	8.221685E-18
4.464157E+03	2.827352E-16	8.322888E-18
4.474078E+03	2.868948E-16	8.422243E-18
4.483998E+03	2.910089E-16	8.519651E-18
4.493918E+03	2.950652E-16	8.614763E-18
4.503839E+03	2.990587E-16	8.707451E-18
4.513759E+03	3.029800E-16	8.797456E-18
4.523679E+03	3.068156E-16	8.884407E-18
4.533600E+03	3.105638E-16	8.968276E-18
4.543520E+03	3.142108E-16	9.048692E-18
4.553440E+03	3.177515E-16	9.125528E-18
4.563361E+03	3.211770E-16	9.198555E-18
4.573281E+03	3.244870E-16	9.267799E-18
4.583201E+03	3.276659E-16	9.332840E-18
4.593122E+03	3.307151E-16	9.393751E-18
4.603042E+03	3.336334E-16	9.450529E-18
4.612963E+03	3.364120E-16	9.502957E-18
4.622883E+03	3.390603E-16	9.551336E-18
4.632803E+03	3.415679E-16	9.595403E-18
4.642724E+03	3.439468E-16	9.635527E-18
4.652644E+03	3.461974E-16	9.671756E-18
4.662564E+03	3.483219E-16	9.704176E-18
4.672485E+03	3.503317E-16	9.733139E-18
4.682405E+03	3.522355E-16	9.758909E-18
4.692325E+03	3.540338E-16	9.781532E-18
4.702246E+03	3.557461E-16	9.801563E-18
4.712166E+03	3.573790E-16	9.819211E-18
4.722086E+03	3.589401E-16	9.834702E-18
4.732007E+03	3.604419E-16	9.848396E-18
4.741927E+03	3.618927E-16	9.860532E-18
4.751847E+03	3.633011E-16	9.871362E-18
4.761768E+03	3.646849E-16	9.881373E-18
4.771688E+03	3.660440E-16	9.890574E-18
4.781608E+03	3.673914E-16	9.899322E-18
4.791529E+03	3.687316E-16	9.907744E-18
4.801449E+03	3.700815E-16	9.916296E-18
4.811370E+03	3.714405E-16	9.924960E-18
4.821290E+03	3.728208E-16	9.934064E-18
4.831210E+03	3.742254E-16	9.943684E-18
4.841131E+03	3.756703E-16	9.954245E-18
4.851051E+03	3.771536E-16	9.965685E-18
4.860971E+03	3.786906E-16	9.978408E-18
4.870892E+03	3.802792E-16	9.992345E-18
4.880812E+03	3.819341E-16	1.000788E-17
4.890732E+03	3.836574E-16	1.002504E-17
4.900653E+03	3.854592E-16	1.004410E-17
4.910573E+03	3.873416E-16	1.006510E-17
4.920493E+03	3.893151E-16	1.008828E-17
4.930414E+03	3.913815E-16	1.011368E-17
4.940334E+03	3.935561E-16	1.014168E-17
4.950254E+03	3.958367E-16	1.017221E-17
4.960175E+03	3.982345E-16	1.020554E-17
4.970095E+03	4.007607E-16	1.024193E-17
4.980015E+03	4.034178E-16	1.028143E-17
4.989936E+03	4.062129E-16	1.032419E-17
4.999856E+03	4.091524E-16	1.037036E-17
5.009777E+03	4.122476E-16	1.042020E-17
5.019697E+03	4.155047E-16	1.047384E-17
5.029617E+03	4.189247E-16	1.053127E-17
5.039538E+03	4.225172E-16	1.059272E-17
5.049458E+03	4.262815E-16	1.065815E-17
5.059378E+03	4.302255E-16	1.072772E-17
5.069299E+03	4.343507E-16	1.080144E-17
5.079219E+03	4.386575E-16	1.087930E-17
5.089139E+03	4.431449E-16	1.096125E-17
5.099060E+03	4.478049E-16	1.104707E-17
5.108980E+03	4.526372E-16	1.113672E-17
5.118900E+03	4.576402E-16	1.123016E-17
5.128821E+03	4.627945E-16	1.132688E-17
5.138741E+03	4.680942E-16	1.142672E-17
5.148661E+03	4.735203E-16	1.152921E-17
5.158582E+03	4.790672E-16	1.163422E-17
5.168502E+03	4.847119E-16	1.174116E-17
5.178422E+03	4.904286E-16	1.184943E-17
5.188343E+03	4.962054E-16	1.195872E-17
5.198263E+03	5.020074E-16	1.206823E-17
5.208183E+03	5.078134E-16	1.217744E-17
5.218104E+03	5.135955E-16	1.228571E-17
5.228024E+03	5.193242E-16	1.239236E-17
5.237945E+03	5.249640E-16	1.249658E-17
5.247865E+03	5.304889E-16	1.259779E-17
5.257785E+03	5.358676E-16	1.269527E-17
5.267706E+03	5.410685E-16	1.278834E-17
5.277626E+03	5.460552E-16	1.287618E-17
5.287546E+03	5.507974E-16	1.295814E-17
5.297467E+03	5.552718E-16	1.303372E-17
5.307387E+03	5.594515E-16	1.310238E-17
5.317307E+03	5.633002E-16	1.316331E-17
5.327228E+03	5.668072E-16	1.321635E-17
5.337148E+03	5.699532E-16	1.326111E-17
5.347068E+03	5.727106E-16	1.329703E-17
5.356989E+03	5.750790E-16	1.332418E-17
5.366909E+03	5.770383E-16	1.334216E-17
5.376829E+03	5.785961E-16	1.335122E-17
5.386750E+03	5.797465E-16	1.335130E-17
5.396670E+03	5.804884E-16	1.334244E-17
5.406590E+03	5.808428E-16	1.332520E-17
5.416511E+03	5.808112E-16	1.329966E-17
5.426431E+03	5.804179E-16	1.326644E-17
5.436352E+03	5.796852E-16	1.322611E-17
5.446272E+03	5.786338E-16	1.317919E-17
5.456192E+03	5.772947E-16	1.312642E-17
5.466113E+03	5.756746E-16	1.306796E-17
5.476033E+03	5.737878E-16	1.300416E-17
5.485953E+03	5.716521E-16	1.293542E-17
5.495874E+03	5.692949E-16	1.286239E-17
5.505794E+03	5.667417E-16	1.278563E-17
5.515714E+03	5.640156E-16	1.270567E-17
5.525635E+03	5.611487E-16	1.262323E-17
5.535555E+03	5.581865E-16	1.253931E-17
5.545475E+03	5.551601E-16	1.245462E-17
5.555396E+03	5.521076E-16	1.236999E-17
5.565316E+03	5.490628E-16	1.228615E-17
5.575236E+03	5.460763E-16	1.220423E-17
5.585157E+03	5.431827E-16	1.212496E-17
5.595077E+03	5.404208E-16	1.204919E-17
5.604997E+03	5.378287E-16	1.197775E-17
5.614918E+03	5.354484E-16	1.191152E-17
5.624838E+03	5.333040E-16	1.185102E-17
5.634759E+03	5.314327E-16	1.179704E-17
5.644679E+03	5.298643E-16	1.175020E-17
5.654599E+03	5.286252E-16	1.171106E-17
5.664520E+03	5.277339E-16	1.168000E-17
5.674440E+03	5.272204E-16	1.165763E-17
5.684360E+03	5.270909E-16	1.164407E-17
5.694281E+03	5.273630E-16	1.163967E-17
5.704201E+03	5.280410E-16	1.164448E-17
5.714121E+03	5.291345E-16	1.165869E-17
5.724042E+03	5.306398E-16	1.168219E-17
5.733962E+03	5.325545E-16	1.171488E-17
5.743882E+03	5.348769E-16	1.175672E-17
5.753803E+03	5.375870E-16	1.180722E-17
5.763723E+03	5.406814E-16	1.186629E-17
5.773643E+03	5.441327E-16	1.193330E-17
5.783564E+03	5.479262E-16	1.200791E-17
5.793484E+03	5.520342E-16	1.208949E-17
5.803404E+03	5.564367E-16	1.217759E-17
5.813325E+03	5.611014E-16	1.227148E-17
5.823245E+03	5.659999E-16	1.237052E-17
5.833166E+03	5.711022E-16	1.247404E-17
5.843086E+03	5.763785E-16	1.258139E-17
5.853006E+03	5.817930E-16	1.269177E-17
5.862927E+03	5.873216E-16	1.280464E-17
5.872847E+03	5.929304E-16	1.291926E-17
5.882767E+03	5.985923E-16	1.303504E-17
5.892688E+03	6.042825E-16	1.315141E-17
5.902608E+03	6.099724E-16	1.326777E-17
5.912528E+03	6.156484E-16	1.338381E-17
5.922449E+03	6.212875E-16	1.349903E-17
5.932369E+03	6.268827E-16	1.361326E-17
5.942289E+03	6.324110E-16	1.372602E-17
5.952210E+03	6.378716E-16	1.383728E-17
5.962130E+03	6.432546E-16	1.394682E-17
5.972050E+03	6.485646E-16	1.405475E-17
5.981971E+03	6.537906E-16	1.416082E-17
5.991891E+03	6.589489E-16	1.426539E-17
6.001811E+03	6.640319E-16	1.436828E-17
6.011732E+03	6.690458E-16	1.446965E-17
6.021652E+03	6.740044E-16	1.456977E-17
6.031573E+03	6.789018E-16	1.466852E-17
6.041493E+03	6.837514E-16	1.476619E-17
6.051413E+03	6.885516E-16	1.486274E-17
6.061334E+03	6.933139E-16	1.495842E-17
6.071254E+03	6.980332E-16	1.505313E-17
6.081174E+03	7.027030E-16	1.514670E-17
6.091095E+03	7.073268E-16	1.523923E-17
6.101015E+03	7.118988E-16	1.533059E-17
6.110935E+03	7.164036E-16	1.542044E-17
6.120856E+03	7.208362E-16	1.550867E-17
6.130776E+03	7.251889E-16	1.559513E-17
6.140696E+03	7.294375E-16	1.567929E-17
6.150617E+03	7.335626E-16	1.576073E-17
6.160537E+03	7.375349E-16	1.583883E-17
6.170457E+03	7.413385E-16	1.591326E-17
6.180378E+03	7.449565E-16	1.598366E-17
6.190298E+03	7.483498E-16	1.604918E-17
6.200218E+03	7.515009E-16	1.610947E-17
6.210139E+03	7.544009E-16	1.616434E-17
6.220059E+03	7.570124E-16	1.621299E-17
6.229979E+03	7.593296E-16	1.625532E-17
6.239900E+03	7.613262E-16	1.629076E-17
6.249820E+03	7.630007E-16	1.631930E-17
6.259741E+03	7.643391E-16	1.634065E-17
6.269661E+03	7.653227E-16	1.635442E-17
6.279581E+03	7.659579E-16	1.636075E-17
6.289502E+03	7.662308E-16	1.635937E-17
6.299422E+03	7.661522E-16	1.635051E-17
6.309342E+03	7.657132E-16	1.633400E-17
6.319263E+03	7.649204E-16	1.631000E-17
6.329183E+03	7.637754E-16	1.627854E-17
6.339103E+03	7.622878E-16	1.623985E-17
6.349024E+03	7.604688E-16	1.619417E-17
6.358944E+03	7.583137E-16	1.614142E-17
6.368864E+03	7.558500E-16	1.608219E-17
6.378785E+03	7.530661E-16	1.601625E-17
6.388705E+03	7.499814E-16	1.594403E-17
6.398625E+03	7.466154E-16	1.586595E-17
6.408546E+03	7.429641E-16	1.578192E-17
6.418466E+03	7.390468E-16	1.569238E-17
6.428386E+03	7.348751E-16	1.559756E-17
6.438307E+03	7.304605E-16	1.549768E-17
6.448227E+03	7.258147E-16	1.539300E-17
6.458148E+03	7.209423E-16	1.528360E-17
6.468068E+03	7.158325E-16	1.516923E-17
6.477988E+03	7.104841E-16	1.504988E-17
6.487909E+03	7.049063E-16	1.492572E-17
6.497829E+03	6.991061E-16	1.479689E-17
6.507749E+03	6.931065E-16	1.466388E-17
6.517670E+03	6.869027E-16	1.452657E-17
6.527590E+03	6.805346E-16	1.438581E-17
6.537510E+03	6.740001E-16	1.424154E-17
6.547431E+03	6.673272E-16	1.409436E-17
6.557351E+03	6.605455E-16	1.394488E-17
6.567271E+03	6.536636E-16	1.379327E-17
6.577192E+03	6.467132E-16	1.364021E-17
6.587112E+03	6.397201E-16	1.348623E-17
6.597032E+03	6.327172E-16	1.333202E-17
6.606953E+03	6.257172E-16	1.317784E-17
6.616873E+03	6.187542E-16	1.302441E-17
6.626793E+03	6.118557E-16	1.287230E-17
6.636714E+03	6.050552E-16	1.272222E-17
6.646634E+03	5.983729E-16	1.257457E-17
6.656555E+03	5.918350E-16	1.242990E-17
6.666475E+03	5.854737E-16	1.228888E-17
6.676395E+03	5.793074E-16	1.215189E-17
6.686316E+03	5.733658E-16	1.201955E-17
6.696236E+03	5.676718E-16	1.189231E-17
6.706156E+03	5.622463E-16	1.177062E-17
6.716077E+03	5.571035E-16	1.165476E-17
6.725997E+03	5.522748E-16	1.154536E-17
6.735917E+03	5.477646E-16	1.144251E-17
6.745838E+03	5.436014E-16	1.134679E-17
6.755758E+03	5.397941E-16	1.125837E-17
6.765678E+03	5.363557E-16	1.117750E-17
6.775599E+03	5.333042E-16	1.110453E-17
6.785519E+03	5.306437E-16	1.103953E-17
6.795439E+03	5.283838E-16	1.098267E-17
6.805360E+03	5.265385E-16	1.093424E-17
6.815280E+03	5.251142E-16	1.089432E-17
6.825200E+03	5.241102E-16	1.086289E-17
6.835121E+03	5.235304E-16	1.083999E-17
6.845041E+03	5.233837E-16	1.082577E-17
6.854962E+03	5.236721E-16	1.082026E-17
6.864882E+03	5.243894E-16	1.082329E-17
6.874802E+03	5.255477E-16	1.083508E-17
6.884723E+03	5.271267E-16	1.085516E-17
6.894643E+03	5.291417E-16	1.088383E-17
6.904563E+03	5.315767E-16	1.092072E-17
6.914484E+03	5.344265E-16	1.096568E-17
6.924404E+03	5.376980E-16	1.101882E-17
6.934324E+03	5.413716E-16	1.107970E-17
6.944245E+03	5.454395E-16	1.114810E-17
6.954165E+03	5.498990E-16	1.122396E-17
6.964085E+03	5.547406E-16	1.130701E-17
6.974006E+03	5.599463E-16	1.139687E-17
6.983926E+03	5.655042E-16	1.149324E-17
6.993846E+03	5.714073E-16	1.159595E-17
7.003767E+03	5.776410E-16	1.170466E-17
7.013687E+03	5.841824E-16	1.181886E-17
7.023607E+03	5.910135E-16	1.193815E-17
7.033528E+03	5.981143E-16	1.206209E-17
7.043448E+03	6.054705E-16	1.219035E-17
7.053369E+03	6.130436E-16	1.232214E-17
7.063289E+03	6.208224E-16	1.245718E-17
7.073209E+03	6.287710E-16	1.259474E-17
7.083130E+03	6.368586E-16	1.273417E-17
7.093050E+03	6.450520E-16	1.287477E-17
7.102970E+03	6.533152E-16	1.301583E-17
7.112891E+03	6.616021E-16	1.315639E-17
7.122811E+03	6.698879E-16	1.329597E-17
7.132731E+03	6.781143E-16	1.343340E-17
7.142652E+03	6.862453E-16	1.356798E-17
7.152572E+03	6.942351E-16	1.369880E-17
7.162492E+03	7.020293E-16	1.382480E-17
7.172413E+03	7.095897E-16	1.394527E-17
7.182333E+03	7.168707E-16	1.405932E-17
7.192253E+03	7.238186E-16	1.416596E-17
7.202174E+03	7.303907E-16	1.426437E-17
7.212094E+03	7.365558E-16	1.435402E-17
7.222014E+03	7.422780E-16	1.443425E-17
7.231935E+03	7.475069E-16	1.450415E-17
7.241855E+03	7.522346E-16	1.456365E-17
7.251775E+03	7.564405E-16	1.461241E-17
7.261696E+03	7.601013E-16	1.465007E-17
7.271616E+03	7.632101E-16	1.467658E-17
7.281537E+03	7.657771E-16	1.469222E-17
7.291457E+03	7.677912E-16	1.469686E-17
7.301377E+03	7.692879E-16	1.469128E-17
7.311298E+03	7.702913E-16	1.467603E-17
7.321218E+03	7.708229E-16	1.465160E-17
7.331138E+03	7.709108E-16	1.461859E-17
7.341059E+03	7.706198E-16	1.457833E-17
7.350979E+03	7.700005E-16	1.453185E-17
7.360899E+03	7.690895E-16	1.447989E-17
7.370820E+03	7.679666E-16	1.442402E-17
7.380740E+03	7.666763E-16	1.436513E-17
7.390660E+03	7.653045E-16	1.430488E-17
7.400581E+03	7.639002E-16	1.424420E-17
7.410501E+03	7.625524E-16	1.418480E-17
7.420421E+03	7.613206E-16	1.412779E-17
7.430342E+03	7.602737E-16	1.407447E-17
7.440262E+03	7.594787E-16	1.402607E-17
7.450182E+03	7.590010E-16	1.398379E-17
7.460103E+03	7.589023E-16	1.394876E-17
7.470023E+03	7.592411E-16	1.392203E-17
7.479944E+03	7.600626E-16	1.390441E-17
7.489864E+03	7.614360E-16	1.389713E-17
7.499784E+03	7.633861E-16	1.390061E-17
7.509705E+03	7.659614E-16	1.391569E-17
7.519625E+03	7.691846E-16	1.394275E-17
7.529545E+03	7.730912E-16	1.398240E-17
7.539466E+03	7.776993E-16	1.403492E-17
7.549386E+03	7.830094E-16	1.410029E-17
7.559306E+03	7.890338E-16	1.417871E-17
7.569227E+03	7.957659E-16	1.427002E-17
7.579147E+03	8.031801E-16	1.437375E-17
7.589067E+03	8.112500E-16	1.448943E-17
7.598988E+03	8.199521E-16	1.461662E-17
7.608908E+03	8.292300E-16	1.475433E-17
7.618828E+03	8.390394E-16	1.490180E-17
7.628749E+03	8.493156E-16	1.505791E-17
7.638669E+03	8.599608E-16	1.522097E-17
7.648589E+03	8.709253E-16	1.539016E-17
7.658510E+03	8.820931E-16	1.556351E-17
7.668430E+03	8.933636E-16	1.573932E-17
7.678351E+03	9.046410E-16	1.591601E-17
7.688271E+03	9.158003E-16	1.609149E-17
7.698191E+03	9.267364E-16	1.626403E-17
