#wls	flux	fluxerr
1.587256E+03	3.431078E-18	2.068315E-19
1.626937E+03	3.648526E-18	2.196507E-19
1.666619E+03	3.819363E-18	2.296253E-19
1.706300E+03	3.934301E-18	2.362078E-19
1.745982E+03	3.983492E-18	2.388209E-19
1.785663E+03	3.949503E-18	2.364374E-19
1.825344E+03	3.815099E-18	2.280488E-19
1.865026E+03	3.569208E-18	2.130222E-19
1.904707E+03	3.212260E-18	1.914155E-19
1.944389E+03	2.768509E-18	1.647054E-19
1.984070E+03	2.286824E-18	1.358225E-19
2.023751E+03	1.837973E-18	1.089773E-19
2.063433E+03	1.488811E-18	8.812022E-20
2.103114E+03	1.282378E-18	7.576548E-20
2.142795E+03	1.234231E-18	7.278653E-20
2.182477E+03	1.351454E-18	7.954895E-20
2.222158E+03	1.645108E-18	9.664638E-20
2.261840E+03	2.127214E-18	1.247208E-19
2.301521E+03	2.799542E-18	1.638059E-19
2.341202E+03	3.646908E-18	2.129413E-19
2.380884E+03	4.640920E-18	2.704016E-19
2.420565E+03	5.747101E-18	3.341188E-19
2.460247E+03	6.933863E-18	4.022079E-19
2.499928E+03	8.173307E-18	4.730125E-19
2.539609E+03	9.448096E-18	5.454992E-19
2.579291E+03	1.074467E-17	6.188608E-19
2.618972E+03	1.205573E-17	6.926570E-19
2.658654E+03	1.337543E-17	7.665346E-19
2.698335E+03	1.470188E-17	8.403684E-19
2.738016E+03	1.603699E-17	9.142517E-19
2.777698E+03	1.737876E-17	9.880544E-19
2.817379E+03	1.872746E-17	1.061775E-18
2.857061E+03	2.008597E-17	1.135560E-18
2.896742E+03	2.145711E-17	1.209549E-18
2.936423E+03	2.284337E-17	1.283864E-18
2.976105E+03	2.424355E-17	1.358413E-18
2.986025E+03	2.459791E-17	1.377204E-18
2.995946E+03	2.495195E-17	1.395942E-18
3.005866E+03	2.530554E-17	1.414619E-18
3.015786E+03	2.566674E-17	1.433685E-18
3.025707E+03	2.603232E-17	1.452957E-18
3.035627E+03	2.641880E-17	1.473358E-18
3.045547E+03	2.681778E-17	1.494415E-18
3.055468E+03	2.723177E-17	1.516268E-18
3.065388E+03	2.765580E-17	1.538635E-18
3.075308E+03	2.809482E-17	1.561793E-18
3.085229E+03	2.854071E-17	1.585285E-18
3.095149E+03	2.899532E-17	1.609216E-18
3.105069E+03	2.946069E-17	1.633696E-18
3.114990E+03	2.992877E-17	1.658277E-18
3.124910E+03	3.040517E-17	1.683269E-18
3.134830E+03	3.088532E-17	1.708418E-18
3.144751E+03	3.136815E-17	1.733664E-18
3.154671E+03	3.185263E-17	1.758950E-18
3.164591E+03	3.234130E-17	1.784414E-18
3.174512E+03	3.282978E-17	1.809816E-18
3.184432E+03	3.332075E-17	1.835301E-18
3.194353E+03	3.380991E-17	1.860633E-18
3.204273E+03	3.430008E-17	1.885966E-18
3.214193E+03	3.479059E-17	1.911264E-18
3.224114E+03	3.527726E-17	1.936297E-18
3.234034E+03	3.576666E-17	1.961425E-18
3.243954E+03	3.625113E-17	1.986227E-18
3.253875E+03	3.673375E-17	2.010873E-18
3.263795E+03	3.721770E-17	2.035537E-18
3.273715E+03	3.769898E-17	2.059999E-18
3.283636E+03	3.817723E-17	2.084241E-18
3.293556E+03	3.865574E-17	2.108441E-18
3.303476E+03	3.913063E-17	2.132388E-18
3.313397E+03	3.960524E-17	2.156264E-18
3.323317E+03	4.007576E-17	2.179862E-18
3.333237E+03	4.054561E-17	2.203366E-18
3.343158E+03	4.101460E-17	2.226768E-18
3.353078E+03	4.148619E-17	2.250255E-18
3.362998E+03	4.195310E-17	2.273431E-18
3.372919E+03	4.241885E-17	2.296487E-18
3.382839E+03	4.288691E-17	2.319612E-18
3.392760E+03	4.335722E-17	2.342800E-18
3.402680E+03	4.382622E-17	2.365860E-18
3.412600E+03	4.429743E-17	2.388980E-18
3.422521E+03	4.476737E-17	2.411974E-18
3.432441E+03	4.524305E-17	2.435218E-18
3.442361E+03	4.571755E-17	2.458338E-18
3.452282E+03	4.619786E-17	2.481711E-18
3.462202E+03	4.668061E-17	2.505154E-18
3.472122E+03	4.716928E-17	2.528853E-18
3.482043E+03	4.766057E-17	2.552630E-18
3.491963E+03	4.815795E-17	2.576670E-18
3.501883E+03	4.866153E-17	2.600977E-18
3.511804E+03	4.917138E-17	2.625555E-18
3.521724E+03	4.968760E-17	2.650406E-18
3.531644E+03	5.021357E-17	2.675711E-18
3.541565E+03	5.074610E-17	2.701296E-18
3.551485E+03	5.128533E-17	2.727169E-18
3.561405E+03	5.183791E-17	2.753680E-18
3.571326E+03	5.239758E-17	2.780496E-18
3.581246E+03	5.297109E-17	2.807972E-18
3.591167E+03	5.355247E-17	2.835790E-18
3.601087E+03	5.415174E-17	2.864478E-18
3.611007E+03	5.476001E-17	2.893563E-18
3.620928E+03	5.538732E-17	2.923573E-18
3.630848E+03	5.602811E-17	2.954212E-18
3.640768E+03	5.668931E-17	2.985841E-18
3.650689E+03	5.736859E-17	3.018334E-18
3.660609E+03	5.806684E-17	3.051734E-18
3.670529E+03	5.878790E-17	3.086240E-18
3.680450E+03	5.953261E-17	3.121890E-18
3.690370E+03	6.029895E-17	3.158574E-18
3.700290E+03	6.109369E-17	3.196643E-18
3.710211E+03	6.191478E-17	3.235984E-18
3.720131E+03	6.276316E-17	3.276640E-18
3.730051E+03	6.364261E-17	3.318803E-18
3.739972E+03	6.455101E-17	3.362357E-18
3.749892E+03	6.549507E-17	3.407646E-18
3.759812E+03	6.646964E-17	3.454394E-18
3.769733E+03	6.748116E-17	3.502931E-18
3.779653E+03	6.852741E-17	3.553133E-18
3.789574E+03	6.961152E-17	3.605155E-18
3.799494E+03	7.073092E-17	3.658858E-18
3.809414E+03	7.188857E-17	3.714387E-18
3.819335E+03	7.308144E-17	3.771579E-18
3.829255E+03	7.431491E-17	3.830702E-18
3.839175E+03	7.558551E-17	3.891571E-18
3.849096E+03	7.689253E-17	3.954141E-18
3.859016E+03	7.823766E-17	4.018492E-18
3.868936E+03	7.961701E-17	4.084416E-18
3.878857E+03	8.102925E-17	4.151837E-18
3.888777E+03	8.247563E-17	4.220813E-18
3.898697E+03	8.395466E-17	4.291261E-18
3.908618E+03	8.546193E-17	4.362948E-18
3.918538E+03	8.699850E-17	4.435922E-18
3.928458E+03	8.856282E-17	4.510097E-18
3.938379E+03	9.015339E-17	4.585391E-18
3.948299E+03	9.176591E-17	4.661580E-18
3.958219E+03	9.340470E-17	4.738878E-18
3.968140E+03	9.506315E-17	4.816944E-18
3.978060E+03	9.674313E-17	4.895867E-18
3.987981E+03	9.844135E-17	4.975477E-18
3.997901E+03	1.001603E-16	5.055896E-18
4.007821E+03	1.018974E-16	5.136983E-18
4.017742E+03	1.036556E-16	5.218890E-18
4.027662E+03	1.054332E-16	5.301524E-18
4.037582E+03	1.072315E-16	5.384940E-18
4.047503E+03	1.090520E-16	5.469212E-18
4.057423E+03	1.108967E-16	5.554438E-18
4.067343E+03	1.127653E-16	5.640595E-18
4.077264E+03	1.146633E-16	5.727952E-18
4.087184E+03	1.165885E-16	5.816389E-18
4.097104E+03	1.185469E-16	5.906202E-18
4.107025E+03	1.205422E-16	5.997568E-18
4.116945E+03	1.225731E-16	6.090409E-18
4.126865E+03	1.246463E-16	6.185059E-18
4.136786E+03	1.267637E-16	6.281590E-18
4.146706E+03	1.289322E-16	6.380343E-18
4.156626E+03	1.311485E-16	6.481142E-18
4.166547E+03	1.334201E-16	6.584340E-18
4.176467E+03	1.357515E-16	6.690155E-18
4.186387E+03	1.381448E-16	6.798672E-18
4.196308E+03	1.406021E-16	6.909980E-18
4.206228E+03	1.431254E-16	7.024165E-18
4.216149E+03	1.457218E-16	7.141561E-18
4.226069E+03	1.483906E-16	7.262114E-18
4.235989E+03	1.511334E-16	7.385889E-18
4.245910E+03	1.539572E-16	7.513206E-18
4.255830E+03	1.568578E-16	7.643847E-18
4.265750E+03	1.598419E-16	7.778122E-18
4.275671E+03	1.629079E-16	7.915929E-18
4.285591E+03	1.660591E-16	8.057412E-18
4.295511E+03	1.692908E-16	8.202327E-18
4.305432E+03	1.726088E-16	8.350930E-18
4.315352E+03	1.760074E-16	8.502936E-18
4.325272E+03	1.794866E-16	8.658315E-18
4.335193E+03	1.830430E-16	8.816891E-18
4.345113E+03	1.866759E-16	8.978615E-18
4.355033E+03	1.903789E-16	9.143154E-18
4.364954E+03	1.941489E-16	9.310350E-18
4.374874E+03	1.979775E-16	9.479780E-18
4.384794E+03	2.018584E-16	9.651136E-18
4.394715E+03	2.057851E-16	9.824087E-18
4.404635E+03	2.097466E-16	9.998100E-18
4.414556E+03	2.137304E-16	1.017257E-17
4.424476E+03	2.177372E-16	1.034753E-17
4.434396E+03	2.217629E-16	1.052278E-17
4.444317E+03	2.258080E-16	1.069832E-17
4.454237E+03	2.298740E-16	1.087424E-17
4.464157E+03	2.339581E-16	1.105039E-17
4.474078E+03	2.380492E-16	1.122623E-17
4.483998E+03	2.421471E-16	1.140177E-17
4.493918E+03	2.462348E-16	1.157619E-17
4.503839E+03	2.503028E-16	1.174906E-17
4.513759E+03	2.543410E-16	1.191989E-17
4.523679E+03	2.583320E-16	1.208788E-17
4.533600E+03	2.622579E-16	1.225221E-17
4.543520E+03	2.661102E-16	1.241248E-17
4.553440E+03	2.698680E-16	1.256775E-17
4.563361E+03	2.735175E-16	1.271738E-17
4.573281E+03	2.770492E-16	1.286096E-17
4.583201E+03	2.804452E-16	1.299769E-17
4.593122E+03	2.836994E-16	1.312730E-17
4.603042E+03	2.868011E-16	1.324935E-17
4.612963E+03	2.897455E-16	1.336364E-17
4.622883E+03	2.925270E-16	1.346994E-17
4.632803E+03	2.951532E-16	1.356864E-17
4.642724E+03	2.976203E-16	1.365960E-17
4.652644E+03	2.999344E-16	1.374313E-17
4.662564E+03	3.021040E-16	1.381967E-17
4.672485E+03	3.041401E-16	1.388974E-17
4.682405E+03	3.060557E-16	1.395396E-17
4.692325E+03	3.078655E-16	1.401303E-17
4.702246E+03	3.095893E-16	1.406788E-17
4.712166E+03	3.112368E-16	1.411896E-17
4.722086E+03	3.128258E-16	1.416709E-17
4.732007E+03	3.143816E-16	1.421344E-17
4.741927E+03	3.159145E-16	1.425848E-17
4.751847E+03	3.174424E-16	1.430301E-17
4.761768E+03	3.189743E-16	1.434744E-17
4.771688E+03	3.205333E-16	1.439282E-17
4.781608E+03	3.221190E-16	1.443911E-17
4.791529E+03	3.237442E-16	1.448689E-17
4.801449E+03	3.254130E-16	1.453632E-17
4.811370E+03	3.271349E-16	1.458782E-17
4.821290E+03	3.289072E-16	1.464125E-17
4.831210E+03	3.307361E-16	1.469688E-17
4.841131E+03	3.326198E-16	1.475462E-17
4.851051E+03	3.345621E-16	1.481463E-17
4.860971E+03	3.365549E-16	1.487652E-17
4.870892E+03	3.385964E-16	1.494022E-17
4.880812E+03	3.406881E-16	1.500577E-17
4.890732E+03	3.428234E-16	1.507287E-17
4.900653E+03	3.449955E-16	1.514122E-17
4.910573E+03	3.472094E-16	1.521102E-17
4.920493E+03	3.494554E-16	1.528184E-17
4.930414E+03	3.517365E-16	1.535380E-17
4.940334E+03	3.540536E-16	1.542694E-17
4.950254E+03	3.564058E-16	1.550122E-17
4.960175E+03	3.587988E-16	1.557685E-17
4.970095E+03	3.612414E-16	1.565423E-17
4.980015E+03	3.637488E-16	1.573400E-17
4.989936E+03	3.663357E-16	1.581677E-17
4.999856E+03	3.690109E-16	1.590291E-17
5.009777E+03	3.718014E-16	1.599356E-17
5.019697E+03	3.747232E-16	1.608937E-17
5.029617E+03	3.778009E-16	1.619138E-17
5.039538E+03	3.810507E-16	1.630024E-17
5.049458E+03	3.844914E-16	1.641671E-17
5.059378E+03	3.881443E-16	1.654165E-17
5.069299E+03	3.920244E-16	1.667566E-17
5.079219E+03	3.961394E-16	1.681900E-17
5.089139E+03	4.004980E-16	1.697199E-17
5.099060E+03	4.051094E-16	1.713497E-17
5.108980E+03	4.099756E-16	1.730795E-17
5.118900E+03	4.150947E-16	1.749080E-17
5.128821E+03	4.204569E-16	1.768304E-17
5.138741E+03	4.260617E-16	1.788461E-17
5.148661E+03	4.318878E-16	1.809454E-17
5.158582E+03	4.379231E-16	1.831228E-17
5.168502E+03	4.441480E-16	1.853697E-17
5.178422E+03	4.505389E-16	1.876758E-17
5.188343E+03	4.570690E-16	1.900296E-17
5.198263E+03	4.637077E-16	1.924180E-17
5.208183E+03	4.704213E-16	1.948270E-17
5.218104E+03	4.771778E-16	1.972430E-17
5.228024E+03	4.839327E-16	1.996478E-17
5.237945E+03	4.906390E-16	2.020219E-17
5.247865E+03	4.972681E-16	2.043537E-17
5.257785E+03	5.037601E-16	2.066190E-17
5.267706E+03	5.100801E-16	2.088038E-17
5.277626E+03	5.161782E-16	2.108883E-17
5.287546E+03	5.220115E-16	2.128553E-17
5.297467E+03	5.275440E-16	2.146910E-17
5.307387E+03	5.327321E-16	2.163785E-17
5.317307E+03	5.375409E-16	2.179045E-17
5.327228E+03	5.419401E-16	2.192577E-17
5.337148E+03	5.459085E-16	2.204304E-17
5.347068E+03	5.494192E-16	2.214131E-17
5.356989E+03	5.524491E-16	2.221974E-17
5.366909E+03	5.549970E-16	2.227842E-17
5.376829E+03	5.570484E-16	2.231688E-17
5.386750E+03	5.585983E-16	2.233504E-17
5.396670E+03	5.596445E-16	2.233294E-17
5.406590E+03	5.601874E-16	2.231071E-17
5.416511E+03	5.602292E-16	2.226858E-17
5.426431E+03	5.597682E-16	2.220658E-17
5.436352E+03	5.588153E-16	2.212528E-17
5.446272E+03	5.573820E-16	2.202525E-17
5.456192E+03	5.554622E-16	2.190635E-17
5.466113E+03	5.530565E-16	2.176872E-17
5.476033E+03	5.501796E-16	2.161305E-17
5.485953E+03	5.468366E-16	2.143964E-17
5.495874E+03	5.430408E-16	2.124912E-17
5.505794E+03	5.388265E-16	2.104293E-17
5.515714E+03	5.342376E-16	2.082288E-17
5.525635E+03	5.293109E-16	2.059047E-17
5.535555E+03	5.241077E-16	2.034817E-17
5.545475E+03	5.186949E-16	2.009862E-17
5.555396E+03	5.131288E-16	1.984405E-17
5.565316E+03	5.074886E-16	1.958754E-17
5.575236E+03	5.018395E-16	1.933163E-17
5.585157E+03	4.962512E-16	1.907898E-17
5.595077E+03	4.907919E-16	1.883220E-17
5.604997E+03	4.855318E-16	1.859395E-17
5.614918E+03	4.805232E-16	1.836618E-17
5.624838E+03	4.758387E-16	1.815159E-17
5.634759E+03	4.715172E-16	1.795159E-17
5.644679E+03	4.676167E-16	1.776831E-17
5.654599E+03	4.641758E-16	1.760311E-17
5.664520E+03	4.612315E-16	1.745729E-17
5.674440E+03	4.588157E-16	1.733194E-17
5.684360E+03	4.569579E-16	1.722805E-17
5.694281E+03	4.556684E-16	1.714590E-17
5.704201E+03	4.549682E-16	1.708614E-17
5.714121E+03	4.548540E-16	1.704851E-17
5.724042E+03	4.553329E-16	1.703316E-17
5.733962E+03	4.563869E-16	1.703929E-17
5.743882E+03	4.580032E-16	1.706629E-17
5.753803E+03	4.601570E-16	1.711311E-17
5.763723E+03	4.628150E-16	1.717842E-17
5.773643E+03	4.659323E-16	1.726043E-17
5.783564E+03	4.694611E-16	1.735728E-17
5.793484E+03	4.733517E-16	1.746706E-17
5.803404E+03	4.775457E-16	1.758752E-17
5.813325E+03	4.819713E-16	1.771599E-17
5.823245E+03	4.865738E-16	1.785039E-17
5.833166E+03	4.912795E-16	1.798801E-17
5.843086E+03	4.960311E-16	1.812672E-17
5.853006E+03	5.007746E-16	1.826455E-17
5.862927E+03	5.054461E-16	1.839919E-17
5.872847E+03	5.099975E-16	1.852890E-17
5.882767E+03	5.143928E-16	1.865241E-17
5.892688E+03	5.185982E-16	1.876852E-17
5.902608E+03	5.225784E-16	1.887602E-17
5.912528E+03	5.263268E-16	1.897472E-17
5.922449E+03	5.298252E-16	1.906401E-17
5.932369E+03	5.330853E-16	1.914437E-17
5.942289E+03	5.361073E-16	1.921586E-17
5.952210E+03	5.389155E-16	1.927941E-17
5.962130E+03	5.415319E-16	1.933584E-17
5.972050E+03	5.439908E-16	1.938643E-17
5.981971E+03	5.463325E-16	1.943265E-17
5.991891E+03	5.485963E-16	1.947592E-17
6.001811E+03	5.508358E-16	1.951816E-17
6.011732E+03	5.530944E-16	1.956091E-17
6.021652E+03	5.554213E-16	1.960592E-17
6.031573E+03	5.578578E-16	1.965462E-17
6.041493E+03	5.604530E-16	1.970874E-17
6.051413E+03	5.632349E-16	1.976922E-17
6.061334E+03	5.662361E-16	1.983718E-17
6.071254E+03	5.694819E-16	1.991346E-17
6.081174E+03	5.729837E-16	1.999843E-17
6.091095E+03	5.767487E-16	2.009228E-17
6.101015E+03	5.807678E-16	2.019467E-17
6.110935E+03	5.850212E-16	2.030486E-17
6.120856E+03	5.894824E-16	2.042189E-17
6.130776E+03	5.941135E-16	2.054443E-17
6.140696E+03	5.988594E-16	2.067056E-17
6.150617E+03	6.036663E-16	2.079839E-17
6.160537E+03	6.084722E-16	2.092581E-17
6.170457E+03	6.132026E-16	2.105026E-17
6.180378E+03	6.177974E-16	2.116972E-17
6.190298E+03	6.221662E-16	2.128111E-17
6.200218E+03	6.262509E-16	2.138252E-17
6.210139E+03	6.299813E-16	2.147162E-17
6.220059E+03	6.332956E-16	2.154637E-17
6.229979E+03	6.361556E-16	2.160556E-17
6.239900E+03	6.385228E-16	2.164799E-17
6.249820E+03	6.403720E-16	2.167289E-17
6.259741E+03	6.416972E-16	2.168016E-17
6.269661E+03	6.424987E-16	2.166991E-17
6.279581E+03	6.427938E-16	2.164283E-17
6.289502E+03	6.426021E-16	2.159967E-17
6.299422E+03	6.419498E-16	2.154139E-17
6.309342E+03	6.408674E-16	2.146910E-17
6.319263E+03	6.393933E-16	2.138417E-17
6.329183E+03	6.375533E-16	2.128753E-17
6.339103E+03	6.353831E-16	2.118042E-17
6.349024E+03	6.329030E-16	2.106358E-17
6.358944E+03	6.301407E-16	2.093799E-17
6.368864E+03	6.271070E-16	2.080406E-17
6.378785E+03	6.238069E-16	2.066198E-17
6.388705E+03	6.202549E-16	2.051229E-17
6.398625E+03	6.164416E-16	2.035471E-17
6.408546E+03	6.123688E-16	2.018934E-17
6.418466E+03	6.080244E-16	2.001581E-17
6.428386E+03	6.034153E-16	1.983437E-17
6.438307E+03	5.985249E-16	1.964450E-17
6.448227E+03	5.933639E-16	1.944658E-17
6.458148E+03	5.879394E-16	1.924085E-17
6.468068E+03	5.822730E-16	1.902804E-17
6.477988E+03	5.763754E-16	1.880853E-17
6.487909E+03	5.702578E-16	1.858269E-17
6.497829E+03	5.639326E-16	1.835093E-17
6.507749E+03	5.573999E-16	1.811327E-17
6.517670E+03	5.506750E-16	1.787023E-17
6.527590E+03	5.437598E-16	1.762186E-17
6.537510E+03	5.366779E-16	1.736895E-17
6.547431E+03	5.294464E-16	1.711204E-17
6.557351E+03	5.220863E-16	1.685183E-17
6.567271E+03	5.146297E-16	1.658934E-17
6.577192E+03	5.071062E-16	1.632553E-17
6.587112E+03	4.995434E-16	1.606127E-17
6.597032E+03	4.919871E-16	1.579803E-17
6.606953E+03	4.844681E-16	1.553679E-17
6.616873E+03	4.770230E-16	1.527869E-17
6.626793E+03	4.696875E-16	1.502485E-17
6.636714E+03	4.625016E-16	1.477653E-17
6.646634E+03	4.554925E-16	1.453456E-17
6.656555E+03	4.486957E-16	1.430005E-17
6.666475E+03	4.421291E-16	1.407353E-17
6.676395E+03	4.358279E-16	1.385607E-17
6.686316E+03	4.298100E-16	1.364821E-17
6.696236E+03	4.241003E-16	1.345071E-17
6.706156E+03	4.187129E-16	1.326394E-17
6.716077E+03	4.136638E-16	1.308839E-17
6.725997E+03	4.089683E-16	1.292448E-17
6.735917E+03	4.046397E-16	1.277260E-17
6.745838E+03	4.006907E-16	1.263309E-17
6.755758E+03	3.971379E-16	1.250643E-17
6.765678E+03	3.939831E-16	1.239262E-17
6.775599E+03	3.912463E-16	1.229225E-17
6.785519E+03	3.889321E-16	1.220542E-17
6.795439E+03	3.870455E-16	1.213222E-17
6.805360E+03	3.856036E-16	1.207314E-17
6.815280E+03	3.846093E-16	1.202822E-17
6.825200E+03	3.840680E-16	1.199758E-17
6.835121E+03	3.839795E-16	1.198117E-17
6.845041E+03	3.843556E-16	1.197930E-17
6.854962E+03	3.851927E-16	1.199179E-17
6.864882E+03	3.864889E-16	1.201857E-17
6.874802E+03	3.882369E-16	1.205932E-17
6.884723E+03	3.904403E-16	1.211414E-17
6.894643E+03	3.930833E-16	1.218247E-17
6.904563E+03	3.961666E-16	1.226429E-17
6.914484E+03	3.996711E-16	1.235897E-17
6.924404E+03	4.035965E-16	1.246645E-17
6.934324E+03	4.079223E-16	1.258605E-17
6.944245E+03	4.126480E-16	1.271773E-17
6.954165E+03	4.177542E-16	1.286084E-17
6.964085E+03	4.232423E-16	1.301539E-17
6.974006E+03	4.290951E-16	1.318080E-17
6.983926E+03	4.353118E-16	1.335704E-17
6.993846E+03	4.418933E-16	1.354408E-17
7.003767E+03	4.488256E-16	1.374146E-17
7.013687E+03	4.561174E-16	1.394941E-17
7.023607E+03	4.637613E-16	1.416768E-17
7.033528E+03	4.717488E-16	1.439598E-17
7.043448E+03	4.800885E-16	1.463453E-17
7.053369E+03	4.887690E-16	1.488296E-17
7.063289E+03	4.977822E-16	1.514100E-17
7.073209E+03	5.071164E-16	1.540825E-17
7.083130E+03	5.167552E-16	1.568420E-17
7.093050E+03	5.266765E-16	1.596815E-17
7.102970E+03	5.368597E-16	1.625945E-17
7.112891E+03	5.472638E-16	1.655686E-17
7.122811E+03	5.578466E-16	1.685907E-17
7.132731E+03	5.685594E-16	1.716461E-17
7.142652E+03	5.793531E-16	1.747199E-17
7.152572E+03	5.901573E-16	1.777910E-17
7.162492E+03	6.009086E-16	1.808404E-17
7.172413E+03	6.115149E-16	1.838405E-17
7.182333E+03	6.219171E-16	1.867738E-17
7.192253E+03	6.320051E-16	1.896077E-17
7.202174E+03	6.417136E-16	1.923228E-17
7.212094E+03	6.509356E-16	1.948878E-17
7.222014E+03	6.595810E-16	1.972763E-17
7.231935E+03	6.675724E-16	1.994656E-17
7.241855E+03	6.748302E-16	2.014329E-17
7.251775E+03	6.812829E-16	2.031576E-17
7.261696E+03	6.868707E-16	2.046228E-17
7.271616E+03	6.915474E-16	2.058154E-17
7.281537E+03	6.952811E-16	2.067272E-17
7.291457E+03	6.980663E-16	2.073572E-17
7.301377E+03	6.998956E-16	2.077044E-17
7.311298E+03	7.007878E-16	2.077750E-17
7.321218E+03	7.007873E-16	2.075834E-17
7.331138E+03	6.999352E-16	2.071423E-17
7.341059E+03	6.983135E-16	2.064769E-17
7.350979E+03	6.959793E-16	2.056048E-17
7.360899E+03	6.930275E-16	2.045545E-17
7.370820E+03	6.895430E-16	2.033518E-17
7.380740E+03	6.856443E-16	2.020320E-17
7.390660E+03	6.814088E-16	2.006183E-17
7.400581E+03	6.769731E-16	1.991511E-17
7.410501E+03	6.724195E-16	1.976549E-17
7.420421E+03	6.678774E-16	1.961678E-17
7.430342E+03	6.634572E-16	1.947223E-17
7.440262E+03	6.592503E-16	1.933452E-17
7.450182E+03	6.553721E-16	1.920703E-17
7.460103E+03	6.519257E-16	1.909275E-17
7.470023E+03	6.490015E-16	1.899432E-17
7.479944E+03	6.467029E-16	1.891473E-17
7.489864E+03	6.451092E-16	1.885629E-17
7.499784E+03	6.443031E-16	1.882137E-17
7.509705E+03	6.443593E-16	1.881214E-17
7.519625E+03	6.453443E-16	1.883051E-17
7.529545E+03	6.473072E-16	1.887787E-17
7.539466E+03	6.503120E-16	1.895608E-17
7.549386E+03	6.543669E-16	1.906535E-17
7.559306E+03	6.595196E-16	1.920706E-17
7.569227E+03	6.657572E-16	1.938081E-17
7.579147E+03	6.730679E-16	1.958626E-17
7.589067E+03	6.814197E-16	1.982249E-17
7.598988E+03	6.907694E-16	2.008825E-17
7.608908E+03	7.010335E-16	2.038112E-17
7.618828E+03	7.121244E-16	2.069860E-17
7.628749E+03	7.239133E-16	2.103698E-17
7.638669E+03	7.362593E-16	2.139221E-17
7.648589E+03	7.490017E-16	2.175967E-17
7.658510E+03	7.619635E-16	2.213430E-17
7.668430E+03	7.749645E-16	2.251090E-17
7.678351E+03	7.877945E-16	2.288346E-17
7.688271E+03	8.002605E-16	2.324643E-17
7.698191E+03	8.121381E-16	2.359337E-17
