#wls	flux	fluxerr
1.587256E+03	2.670947E-18	7.166104E-20
1.626937E+03	2.854312E-18	7.657519E-20
1.666619E+03	3.002620E-18	8.054803E-20
1.706300E+03	3.107971E-18	8.336787E-20
1.745982E+03	3.161883E-18	8.480741E-20
1.785663E+03	3.150252E-18	8.448871E-20
1.825344E+03	3.057728E-18	8.200053E-20
1.865026E+03	2.874699E-18	7.708568E-20
1.904707E+03	2.599710E-18	6.970577E-20
1.944389E+03	2.250758E-18	6.034403E-20
1.984070E+03	1.868098E-18	5.008016E-20
2.023751E+03	1.508474E-18	4.043556E-20
2.063433E+03	1.227513E-18	3.290110E-20
2.103114E+03	1.062015E-18	2.846247E-20
2.142795E+03	1.026932E-18	2.751947E-20
2.182477E+03	1.129605E-18	3.026777E-20
2.222158E+03	1.381384E-18	3.701028E-20
2.261840E+03	1.794203E-18	4.806542E-20
2.301521E+03	2.371965E-18	6.353620E-20
2.341202E+03	3.104551E-18	8.315008E-20
2.380884E+03	3.969012E-18	1.062908E-19
2.420565E+03	4.939585E-18	1.322672E-19
2.460247E+03	5.988767E-18	1.603417E-19
2.499928E+03	7.096633E-18	1.899797E-19
2.539609E+03	8.248723E-18	2.207934E-19
2.579291E+03	9.433408E-18	2.524709E-19
2.618972E+03	1.064817E-17	2.849441E-19
2.658654E+03	1.188996E-17	3.181309E-19
2.698335E+03	1.315737E-17	3.519927E-19
2.738016E+03	1.445548E-17	3.866653E-19
2.777698E+03	1.578331E-17	4.221214E-19
2.817379E+03	1.714778E-17	4.585451E-19
2.857061E+03	1.855247E-17	4.960318E-19
2.896742E+03	2.000093E-17	5.346754E-19
2.936423E+03	2.150135E-17	5.746937E-19
2.976105E+03	2.305489E-17	6.161165E-19
2.986025E+03	2.345305E-17	6.267310E-19
2.995946E+03	2.385363E-17	6.374092E-19
3.005866E+03	2.425916E-17	6.482186E-19
3.015786E+03	2.467138E-17	6.592057E-19
3.025707E+03	2.509394E-17	6.704679E-19
3.035627E+03	2.553889E-17	6.823272E-19
3.045547E+03	2.599669E-17	6.945289E-19
3.055468E+03	2.647479E-17	7.072714E-19
3.065388E+03	2.696911E-17	7.204463E-19
3.075308E+03	2.747561E-17	7.339448E-19
3.085229E+03	2.799840E-17	7.478775E-19
3.095149E+03	2.853083E-17	7.620661E-19
3.105069E+03	2.907447E-17	7.765527E-19
3.114990E+03	2.963106E-17	7.913839E-19
3.124910E+03	3.019398E-17	8.063822E-19
3.134830E+03	3.076791E-17	8.216733E-19
3.144751E+03	3.134912E-17	8.371575E-19
3.154671E+03	3.193677E-17	8.528117E-19
3.164591E+03	3.253003E-17	8.686142E-19
3.174512E+03	3.313112E-17	8.846241E-19
3.184432E+03	3.373640E-17	9.007444E-19
3.194353E+03	3.434521E-17	9.169571E-19
3.204273E+03	3.495997E-17	9.333269E-19
3.214193E+03	3.558016E-17	9.498399E-19
3.224114E+03	3.620224E-17	9.664016E-19
3.234034E+03	3.682881E-17	9.830814E-19
3.243954E+03	3.745637E-17	9.997859E-19
3.253875E+03	3.808764E-17	1.016588E-18
3.263795E+03	3.872230E-17	1.033478E-18
3.273715E+03	3.936006E-17	1.050449E-18
3.283636E+03	4.000068E-17	1.067495E-18
3.293556E+03	4.064393E-17	1.084609E-18
3.303476E+03	4.128963E-17	1.101786E-18
3.313397E+03	4.193761E-17	1.119022E-18
3.323317E+03	4.259095E-17	1.136400E-18
3.333237E+03	4.324312E-17	1.153744E-18
3.343158E+03	4.390047E-17	1.171224E-18
3.353078E+03	4.456298E-17	1.188840E-18
3.362998E+03	4.522735E-17	1.206504E-18
3.372919E+03	4.589357E-17	1.224214E-18
3.382839E+03	4.656488E-17	1.242059E-18
3.392760E+03	4.724134E-17	1.260039E-18
3.402680E+03	4.791966E-17	1.278066E-18
3.412600E+03	4.860647E-17	1.296318E-18
3.422521E+03	4.929526E-17	1.314620E-18
3.432441E+03	4.998935E-17	1.333061E-18
3.442361E+03	5.069210E-17	1.351731E-18
3.452282E+03	5.140037E-17	1.370546E-18
3.462202E+03	5.211414E-17	1.389505E-18
3.472122E+03	5.283349E-17	1.408611E-18
3.482043E+03	5.356186E-17	1.427955E-18
3.491963E+03	5.429600E-17	1.447450E-18
3.501883E+03	5.503927E-17	1.467186E-18
3.511804E+03	5.579178E-17	1.487166E-18
3.521724E+03	5.655029E-17	1.507304E-18
3.531644E+03	5.731812E-17	1.527687E-18
3.541565E+03	5.809869E-17	1.548407E-18
3.551485E+03	5.888539E-17	1.569288E-18
3.561405E+03	5.968491E-17	1.590508E-18
3.571326E+03	6.049389E-17	1.611977E-18
3.581246E+03	6.131248E-17	1.633700E-18
3.591167E+03	6.214386E-17	1.655760E-18
3.601087E+03	6.298480E-17	1.678073E-18
3.611007E+03	6.383851E-17	1.700722E-18
3.620928E+03	6.470500E-17	1.723710E-18
3.630848E+03	6.558413E-17	1.747031E-18
3.640768E+03	6.647591E-17	1.770685E-18
3.650689E+03	6.738017E-17	1.794669E-18
3.660609E+03	6.829681E-17	1.818980E-18
3.670529E+03	6.922575E-17	1.843615E-18
3.680450E+03	7.017002E-17	1.868655E-18
3.690370E+03	7.112623E-17	1.894009E-18
3.700290E+03	7.209742E-17	1.919759E-18
3.710211E+03	7.308005E-17	1.945810E-18
3.720131E+03	7.407715E-17	1.972243E-18
3.730051E+03	7.509164E-17	1.999135E-18
3.739972E+03	7.611680E-17	2.026308E-18
3.749892E+03	7.715545E-17	2.053836E-18
3.759812E+03	7.821046E-17	2.081795E-18
3.769733E+03	7.927820E-17	2.110090E-18
3.779653E+03	8.035823E-17	2.138708E-18
3.789574E+03	8.145328E-17	2.167721E-18
3.799494E+03	8.255964E-17	2.197032E-18
3.809414E+03	8.367997E-17	2.226710E-18
3.819335E+03	8.481364E-17	2.256739E-18
3.829255E+03	8.596012E-17	2.287104E-18
3.839175E+03	8.711554E-17	2.317703E-18
3.849096E+03	8.828552E-17	2.348685E-18
3.859016E+03	8.946315E-17	2.379867E-18
3.868936E+03	9.065383E-17	2.411390E-18
3.878857E+03	9.185373E-17	2.443155E-18
3.888777E+03	9.306200E-17	2.475138E-18
3.898697E+03	9.427796E-17	2.507320E-18
3.908618E+03	9.550377E-17	2.539760E-18
3.918538E+03	9.673559E-17	2.572355E-18
3.928458E+03	9.797578E-17	2.605168E-18
3.938379E+03	9.922048E-17	2.638096E-18
3.948299E+03	1.004692E-16	2.671126E-18
3.958219E+03	1.017243E-16	2.704321E-18
3.968140E+03	1.029854E-16	2.737669E-18
3.978060E+03	1.042492E-16	2.771085E-18
3.987981E+03	1.055156E-16	2.804564E-18
3.997901E+03	1.067846E-16	2.838111E-18
4.007821E+03	1.080596E-16	2.871809E-18
4.017742E+03	1.093381E-16	2.905595E-18
4.027662E+03	1.106238E-16	2.939568E-18
4.037582E+03	1.119119E-16	2.973599E-18
4.047503E+03	1.132096E-16	3.007879E-18
4.057423E+03	1.145125E-16	3.042295E-18
4.067343E+03	1.158257E-16	3.076977E-18
4.077264E+03	1.171513E-16	3.111982E-18
4.087184E+03	1.184887E-16	3.147296E-18
4.097104E+03	1.198409E-16	3.183000E-18
4.107025E+03	1.212137E-16	3.219243E-18
4.116945E+03	1.226047E-16	3.255964E-18
4.126865E+03	1.240174E-16	3.293255E-18
4.136786E+03	1.254583E-16	3.331291E-18
4.146706E+03	1.269286E-16	3.370100E-18
4.156626E+03	1.284322E-16	3.409788E-18
4.166547E+03	1.299706E-16	3.450393E-18
4.176467E+03	1.315453E-16	3.491955E-18
4.186387E+03	1.331662E-16	3.534736E-18
4.196308E+03	1.348294E-16	3.578635E-18
4.206228E+03	1.365449E-16	3.623916E-18
4.216149E+03	1.383090E-16	3.670477E-18
4.226069E+03	1.401316E-16	3.718584E-18
4.235989E+03	1.420090E-16	3.768137E-18
4.245910E+03	1.439509E-16	3.819395E-18
4.255830E+03	1.459535E-16	3.872254E-18
4.265750E+03	1.480264E-16	3.926969E-18
4.275671E+03	1.501653E-16	3.983429E-18
4.285591E+03	1.523770E-16	4.041809E-18
4.295511E+03	1.546622E-16	4.102130E-18
4.305432E+03	1.570217E-16	4.164410E-18
4.315352E+03	1.594584E-16	4.228730E-18
4.325272E+03	1.619724E-16	4.295090E-18
4.335193E+03	1.645632E-16	4.363475E-18
4.345113E+03	1.672329E-16	4.433940E-18
4.355033E+03	1.699826E-16	4.506517E-18
4.364954E+03	1.728078E-16	4.581081E-18
4.374874E+03	1.757084E-16	4.657634E-18
4.384794E+03	1.786838E-16	4.736156E-18
4.394715E+03	1.817297E-16	4.816536E-18
4.404635E+03	1.848409E-16	4.898634E-18
4.414556E+03	1.880168E-16	4.982433E-18
4.424476E+03	1.912473E-16	5.067664E-18
4.434396E+03	1.945266E-16	5.154175E-18
4.444317E+03	1.978479E-16	5.241788E-18
4.454237E+03	2.012035E-16	5.330292E-18
4.464157E+03	2.045813E-16	5.419370E-18
4.474078E+03	2.079680E-16	5.508671E-18
4.483998E+03	2.113586E-16	5.598059E-18
4.493918E+03	2.147348E-16	5.687054E-18
4.503839E+03	2.180840E-16	5.775317E-18
4.513759E+03	2.213926E-16	5.862491E-18
4.523679E+03	2.246502E-16	5.948302E-18
4.533600E+03	2.278367E-16	6.032217E-18
4.543520E+03	2.309419E-16	6.113964E-18
4.553440E+03	2.339525E-16	6.193192E-18
4.563361E+03	2.368562E-16	6.269579E-18
4.573281E+03	2.396385E-16	6.342741E-18
4.583201E+03	2.422895E-16	6.412412E-18
4.593122E+03	2.448070E-16	6.478542E-18
4.603042E+03	2.471779E-16	6.540779E-18
4.612963E+03	2.493971E-16	6.598993E-18
4.622883E+03	2.514650E-16	6.653193E-18
4.632803E+03	2.533804E-16	6.703348E-18
4.642724E+03	2.551410E-16	6.749401E-18
4.652644E+03	2.567529E-16	6.791511E-18
4.662564E+03	2.582205E-16	6.829797E-18
4.672485E+03	2.595465E-16	6.864331E-18
4.682405E+03	2.607452E-16	6.895491E-18
4.692325E+03	2.618184E-16	6.923328E-18
4.702246E+03	2.627791E-16	6.948184E-18
4.712166E+03	2.636375E-16	6.970331E-18
4.722086E+03	2.644075E-16	6.990137E-18
4.732007E+03	2.650970E-16	7.007809E-18
4.741927E+03	2.657201E-16	7.023724E-18
4.751847E+03	2.662878E-16	7.038168E-18
4.761768E+03	2.668072E-16	7.051335E-18
4.771688E+03	2.672982E-16	7.063748E-18
4.781608E+03	2.677607E-16	7.075404E-18
4.791529E+03	2.682133E-16	7.086796E-18
4.801449E+03	2.686612E-16	7.098061E-18
4.811370E+03	2.691153E-16	7.109485E-18
4.821290E+03	2.695794E-16	7.121174E-18
4.831210E+03	2.700666E-16	7.133467E-18
4.841131E+03	2.705795E-16	7.146439E-18
4.851051E+03	2.711270E-16	7.160320E-18
4.860971E+03	2.717143E-16	7.175249E-18
4.870892E+03	2.723495E-16	7.191438E-18
4.880812E+03	2.730405E-16	7.209099E-18
4.890732E+03	2.737855E-16	7.228180E-18
4.900653E+03	2.745954E-16	7.248972E-18
4.910573E+03	2.754782E-16	7.271682E-18
4.920493E+03	2.764318E-16	7.296260E-18
4.930414E+03	2.774709E-16	7.323086E-18
4.940334E+03	2.785937E-16	7.352117E-18
4.950254E+03	2.798120E-16	7.383662E-18
4.960175E+03	2.811308E-16	7.417852E-18
4.970095E+03	2.825524E-16	7.454751E-18
4.980015E+03	2.840856E-16	7.494586E-18
4.989936E+03	2.857394E-16	7.537594E-18
4.999856E+03	2.875193E-16	7.583921E-18
5.009777E+03	2.894274E-16	7.633619E-18
5.019697E+03	2.914717E-16	7.686903E-18
5.029617E+03	2.936569E-16	7.743891E-18
5.039538E+03	2.959898E-16	7.804766E-18
5.049458E+03	2.984696E-16	7.869502E-18
5.059378E+03	3.011010E-16	7.938223E-18
5.069299E+03	3.038838E-16	8.010924E-18
5.079219E+03	3.068161E-16	8.087554E-18
5.089139E+03	3.098910E-16	8.167926E-18
5.099060E+03	3.131094E-16	8.252069E-18
5.108980E+03	3.164571E-16	8.339604E-18
5.118900E+03	3.199311E-16	8.430452E-18
5.128821E+03	3.235164E-16	8.524218E-18
5.138741E+03	3.271952E-16	8.620433E-18
5.148661E+03	3.309594E-16	8.718878E-18
5.158582E+03	3.347913E-16	8.819092E-18
5.168502E+03	3.386643E-16	8.920368E-18
5.178422E+03	3.425608E-16	9.022249E-18
5.188343E+03	3.464549E-16	9.124049E-18
5.198263E+03	3.503305E-16	9.225343E-18
5.208183E+03	3.541551E-16	9.325279E-18
5.218104E+03	3.579071E-16	9.423287E-18
5.228024E+03	3.615565E-16	9.518577E-18
5.237945E+03	3.650769E-16	9.610454E-18
5.247865E+03	3.684416E-16	9.698218E-18
5.257785E+03	3.716205E-16	9.781078E-18
5.267706E+03	3.745922E-16	9.858469E-18
5.277626E+03	3.773284E-16	9.929650E-18
5.287546E+03	3.798057E-16	9.994010E-18
5.297467E+03	3.820030E-16	1.005099E-17
5.307387E+03	3.838925E-16	1.009986E-17
5.317307E+03	3.854657E-16	1.014041E-17
5.327228E+03	3.866996E-16	1.017202E-17
5.337148E+03	3.875827E-16	1.019440E-17
5.347068E+03	3.881061E-16	1.020732E-17
5.356989E+03	3.882596E-16	1.021050E-17
5.366909E+03	3.880443E-16	1.020400E-17
5.376829E+03	3.874517E-16	1.018757E-17
5.386750E+03	3.864883E-16	1.016139E-17
5.396670E+03	3.851550E-16	1.012550E-17
5.406590E+03	3.834592E-16	1.008008E-17
5.416511E+03	3.814098E-16	1.002538E-17
5.426431E+03	3.790183E-16	9.961700E-18
5.436352E+03	3.762976E-16	9.889375E-18
5.446272E+03	3.732580E-16	9.808683E-18
5.456192E+03	3.699232E-16	9.720250E-18
5.466113E+03	3.663025E-16	9.624319E-18
5.476033E+03	3.624186E-16	9.521491E-18
5.485953E+03	3.582966E-16	9.412427E-18
5.495874E+03	3.539560E-16	9.297637E-18
5.505794E+03	3.494264E-16	9.177905E-18
5.515714E+03	3.447365E-16	9.053983E-18
5.525635E+03	3.399205E-16	8.926770E-18
5.535555E+03	3.350114E-16	8.797133E-18
5.545475E+03	3.300471E-16	8.666068E-18
5.555396E+03	3.250595E-16	8.534415E-18
5.565316E+03	3.200915E-16	8.403300E-18
5.575236E+03	3.151757E-16	8.273576E-18
5.585157E+03	3.103509E-16	8.146263E-18
5.595077E+03	3.056579E-16	8.022431E-18
5.604997E+03	3.011227E-16	7.902760E-18
5.614918E+03	2.967792E-16	7.788141E-18
5.624838E+03	2.926591E-16	7.679401E-18
5.634759E+03	2.887886E-16	7.577231E-18
5.644679E+03	2.851909E-16	7.482235E-18
5.654599E+03	2.818898E-16	7.395037E-18
5.664520E+03	2.789006E-16	7.316033E-18
5.674440E+03	2.762442E-16	7.245774E-18
5.684360E+03	2.739273E-16	7.184431E-18
5.694281E+03	2.719659E-16	7.132421E-18
5.704201E+03	2.703671E-16	7.089930E-18
5.714121E+03	2.691330E-16	7.057010E-18
5.724042E+03	2.682722E-16	7.033882E-18
5.733962E+03	2.677789E-16	7.020395E-18
5.743882E+03	2.676546E-16	7.016583E-18
5.753803E+03	2.678956E-16	7.022350E-18
5.763723E+03	2.684997E-16	7.037633E-18
5.773643E+03	2.694542E-16	7.062100E-18
5.783564E+03	2.707570E-16	7.095690E-18
5.793484E+03	2.723958E-16	7.138082E-18
5.803404E+03	2.743607E-16	7.189014E-18
5.813325E+03	2.766408E-16	7.248198E-18
5.823245E+03	2.792251E-16	7.315340E-18
5.833166E+03	2.821017E-16	7.390135E-18
5.843086E+03	2.852596E-16	7.472287E-18
5.853006E+03	2.886840E-16	7.561406E-18
5.862927E+03	2.923705E-16	7.657382E-18
5.872847E+03	2.963024E-16	7.759767E-18
5.882767E+03	3.004701E-16	7.868314E-18
5.892688E+03	3.048647E-16	7.982790E-18
5.902608E+03	3.094820E-16	8.103078E-18
5.912528E+03	3.143083E-16	8.228823E-18
5.922449E+03	3.193449E-16	8.360057E-18
5.932369E+03	3.245766E-16	8.496379E-18
5.942289E+03	3.300105E-16	8.637975E-18
5.952210E+03	3.356327E-16	8.784481E-18
5.962130E+03	3.414451E-16	8.935943E-18
5.972050E+03	3.474458E-16	9.092316E-18
5.981971E+03	3.536300E-16	9.253468E-18
5.991891E+03	3.600007E-16	9.419477E-18
6.001811E+03	3.665525E-16	9.590203E-18
6.011732E+03	3.732790E-16	9.765478E-18
6.021652E+03	3.801858E-16	9.945448E-18
6.031573E+03	3.872557E-16	1.012966E-17
6.041493E+03	3.944906E-16	1.031816E-17
6.051413E+03	4.018779E-16	1.051063E-17
6.061334E+03	4.094057E-16	1.070674E-17
6.071254E+03	4.170543E-16	1.090599E-17
6.081174E+03	4.248101E-16	1.110802E-17
6.091095E+03	4.326451E-16	1.131209E-17
6.101015E+03	4.405318E-16	1.151749E-17
6.110935E+03	4.484433E-16	1.172352E-17
6.120856E+03	4.563321E-16	1.192892E-17
6.130776E+03	4.641611E-16	1.213274E-17
6.140696E+03	4.718829E-16	1.233373E-17
6.150617E+03	4.794463E-16	1.253056E-17
6.160537E+03	4.867949E-16	1.272175E-17
6.170457E+03	4.938637E-16	1.290561E-17
6.180378E+03	5.005963E-16	1.308067E-17
6.190298E+03	5.069284E-16	1.324524E-17
6.200218E+03	5.127904E-16	1.339751E-17
6.210139E+03	5.181248E-16	1.353599E-17
6.220059E+03	5.228645E-16	1.365892E-17
6.229979E+03	5.269650E-16	1.376514E-17
6.239900E+03	5.303632E-16	1.385300E-17
6.249820E+03	5.330204E-16	1.392151E-17
6.259741E+03	5.349009E-16	1.396973E-17
6.269661E+03	5.359713E-16	1.399680E-17
6.279581E+03	5.362276E-16	1.400261E-17
6.289502E+03	5.356573E-16	1.398684E-17
6.299422E+03	5.342651E-16	1.394962E-17
6.309342E+03	5.320719E-16	1.389150E-17
6.319263E+03	5.290907E-16	1.381282E-17
6.329183E+03	5.253681E-16	1.371480E-17
6.339103E+03	5.209467E-16	1.359857E-17
6.349024E+03	5.158641E-16	1.346509E-17
6.358944E+03	5.101940E-16	1.331630E-17
6.368864E+03	5.039840E-16	1.315344E-17
6.378785E+03	4.973028E-16	1.297832E-17
6.388705E+03	4.902153E-16	1.279262E-17
6.398625E+03	4.827857E-16	1.259802E-17
6.408546E+03	4.750782E-16	1.239620E-17
6.418466E+03	4.671547E-16	1.218877E-17
6.428386E+03	4.590800E-16	1.197743E-17
6.438307E+03	4.509041E-16	1.176347E-17
6.448227E+03	4.426777E-16	1.154823E-17
6.458148E+03	4.344577E-16	1.133319E-17
6.468068E+03	4.262734E-16	1.111910E-17
6.477988E+03	4.181693E-16	1.090714E-17
6.487909E+03	4.101630E-16	1.069775E-17
6.497829E+03	4.022906E-16	1.049188E-17
6.507749E+03	3.945581E-16	1.028969E-17
6.517670E+03	3.869827E-16	1.009162E-17
6.527590E+03	3.795783E-16	9.898039E-18
6.537510E+03	3.723467E-16	9.708984E-18
6.547431E+03	3.652929E-16	9.524590E-18
6.557351E+03	3.584302E-16	9.345200E-18
6.567271E+03	3.517574E-16	9.170784E-18
6.577192E+03	3.452778E-16	9.001424E-18
6.587112E+03	3.389988E-16	8.837313E-18
6.597032E+03	3.329232E-16	8.678527E-18
6.606953E+03	3.270547E-16	8.525156E-18
6.616873E+03	3.214006E-16	8.377392E-18
6.626793E+03	3.159601E-16	8.235213E-18
6.636714E+03	3.107407E-16	8.098812E-18
6.646634E+03	3.057456E-16	7.968273E-18
6.656555E+03	3.009776E-16	7.843669E-18
6.666475E+03	2.964435E-16	7.725174E-18
6.676395E+03	2.921455E-16	7.612844E-18
6.686316E+03	2.880856E-16	7.506732E-18
6.696236E+03	2.842614E-16	7.406776E-18
6.706156E+03	2.806815E-16	7.313194E-18
6.716077E+03	2.773425E-16	7.225901E-18
6.725997E+03	2.742489E-16	7.145010E-18
6.735917E+03	2.714001E-16	7.070507E-18
6.745838E+03	2.687919E-16	7.002282E-18
6.755758E+03	2.664305E-16	6.940494E-18
6.765678E+03	2.643079E-16	6.884937E-18
6.775599E+03	2.624297E-16	6.835751E-18
6.785519E+03	2.607906E-16	6.792799E-18
6.795439E+03	2.593888E-16	6.756034E-18
6.805360E+03	2.582255E-16	6.725487E-18
6.815280E+03	2.572953E-16	6.701016E-18
6.825200E+03	2.565987E-16	6.682635E-18
6.835121E+03	2.561336E-16	6.670285E-18
6.845041E+03	2.558937E-16	6.663803E-18
6.854962E+03	2.558789E-16	6.663186E-18
6.864882E+03	2.560866E-16	6.668367E-18
6.874802E+03	2.565133E-16	6.679254E-18
6.884723E+03	2.571519E-16	6.695659E-18
6.894643E+03	2.580022E-16	6.717580E-18
6.904563E+03	2.590638E-16	6.745002E-18
6.914484E+03	2.603220E-16	6.777542E-18
6.924404E+03	2.617828E-16	6.815361E-18
6.934324E+03	2.634381E-16	6.858243E-18
6.944245E+03	2.652795E-16	6.905970E-18
6.954165E+03	2.673056E-16	6.958507E-18
6.964085E+03	2.695108E-16	7.015702E-18
6.974006E+03	2.718860E-16	7.077326E-18
6.983926E+03	2.744286E-16	7.143305E-18
6.993846E+03	2.771290E-16	7.213392E-18
7.003767E+03	2.799806E-16	7.287413E-18
7.013687E+03	2.829801E-16	7.365284E-18
7.023607E+03	2.861171E-16	7.446730E-18
7.033528E+03	2.893878E-16	7.531656E-18
7.043448E+03	2.927763E-16	7.619650E-18
7.053369E+03	2.962787E-16	7.710604E-18
7.063289E+03	2.998823E-16	7.804192E-18
7.073209E+03	3.035864E-16	7.900394E-18
7.083130E+03	3.073696E-16	7.998653E-18
7.093050E+03	3.112301E-16	8.098922E-18
7.102970E+03	3.151543E-16	8.200850E-18
7.112891E+03	3.191319E-16	8.304165E-18
7.122811E+03	3.231523E-16	8.408594E-18
7.132731E+03	3.272002E-16	8.513738E-18
7.142652E+03	3.312645E-16	8.619309E-18
7.152572E+03	3.353343E-16	8.725021E-18
7.162492E+03	3.394032E-16	8.830710E-18
7.172413E+03	3.434457E-16	8.935714E-18
7.182333E+03	3.474608E-16	9.040005E-18
7.192253E+03	3.514377E-16	9.143303E-18
7.202174E+03	3.553566E-16	9.245094E-18
7.212094E+03	3.592073E-16	9.345109E-18
7.222014E+03	3.629863E-16	9.443263E-18
7.231935E+03	3.666798E-16	9.539192E-18
7.241855E+03	3.702758E-16	9.632589E-18
7.251775E+03	3.737731E-16	9.723419E-18
7.261696E+03	3.771617E-16	9.811426E-18
7.271616E+03	3.804376E-16	9.896504E-18
7.281537E+03	3.835989E-16	9.978602E-18
7.291457E+03	3.866446E-16	1.005770E-17
7.301377E+03	3.895647E-16	1.013353E-17
7.311298E+03	3.923665E-16	1.020629E-17
7.321218E+03	3.950596E-16	1.027622E-17
7.331138E+03	3.976319E-16	1.034302E-17
7.341059E+03	4.001076E-16	1.040731E-17
7.350979E+03	4.024767E-16	1.046883E-17
7.360899E+03	4.047603E-16	1.052814E-17
7.370820E+03	4.069681E-16	1.058547E-17
7.380740E+03	4.090999E-16	1.064084E-17
7.390660E+03	4.111730E-16	1.069468E-17
7.400581E+03	4.132064E-16	1.074750E-17
7.410501E+03	4.152009E-16	1.079932E-17
7.420421E+03	4.171815E-16	1.085078E-17
7.430342E+03	4.191618E-16	1.090223E-17
7.440262E+03	4.211492E-16	1.095388E-17
7.450182E+03	4.231568E-16	1.100606E-17
7.460103E+03	4.252035E-16	1.105927E-17
7.470023E+03	4.273011E-16	1.111380E-17
7.479944E+03	4.294613E-16	1.116998E-17
7.489864E+03	4.316943E-16	1.122805E-17
7.499784E+03	4.340094E-16	1.128827E-17
7.509705E+03	4.364207E-16	1.135100E-17
7.519625E+03	4.389354E-16	1.141642E-17
7.529545E+03	4.415515E-16	1.148449E-17
7.539466E+03	4.442788E-16	1.155547E-17
7.549386E+03	4.471250E-16	1.162954E-17
7.559306E+03	4.500831E-16	1.170653E-17
7.569227E+03	4.531568E-16	1.178655E-17
7.579147E+03	4.563346E-16	1.186927E-17
7.589067E+03	4.596084E-16	1.195451E-17
7.598988E+03	4.629824E-16	1.204237E-17
7.608908E+03	4.664372E-16	1.213233E-17
7.618828E+03	4.699514E-16	1.222386E-17
7.628749E+03	4.735211E-16	1.231684E-17
7.638669E+03	4.771204E-16	1.241060E-17
7.648589E+03	4.807267E-16	1.250455E-17
7.658510E+03	4.843157E-16	1.259808E-17
7.668430E+03	4.878612E-16	1.269048E-17
7.678351E+03	4.913420E-16	1.278121E-17
7.688271E+03	4.947207E-16	1.286930E-17
7.698191E+03	4.979652E-16	1.295392E-17
